time,ecg,bvp,gsr,rsp,skt,emg_zygo,emg_coru,emg_trap
0,0.82,36.641,16.602,29.759,23.254,9.752,6.056,6.138
1,0.826,36.728,16.567,29.797,23.258,9.793,6.097,6.057
2,0.826,36.691,16.501,29.759,23.247,9.834,6.016,6.056
3,0.807,36.786,16.558,29.721,23.237,9.794,5.934,6.097
4,0.829,36.883,16.563,29.739,23.254,9.996,5.974,6.178
5,0.826,36.923,16.575,29.749,23.247,10.08,5.974,6.098
6,0.81,36.616,16.555,29.749,23.247,10.121,5.974,6.016
7,0.8,36.728,16.563,29.74,23.244,10.163,5.893,6.096
8,0.797,36.844,16.543,29.749,23.258,10.366,6.136,6.26
9,0.836,36.663,16.571,29.778,23.261,10.368,6.098,6.139
10,0.82,36.585,16.547,29.75,23.251,10.368,5.975,6.179
11,0.813,36.737,16.555,29.759,23.251,10.449,5.974,6.139
12,0.826,36.825,16.504,29.759,23.254,10.45,6.055,6.138
13,0.83,36.51,16.57,29.749,23.254,10.613,6.097,6.138
14,0.817,36.641,16.536,29.749,23.247,10.533,5.894,6.016
15,0.813,36.719,16.539,29.74,23.244,10.492,6.014,6.137
16,0.836,36.835,16.563,29.759,23.254,10.573,5.974,6.098
17,0.836,36.539,16.543,29.749,23.247,10.574,6.055,6.056
18,0.852,36.679,16.555,29.749,23.244,10.492,5.975,6.056
19,0.859,36.796,16.539,29.74,23.251,10.532,6.015,6.137
20,0.856,36.902,16.578,29.778,23.258,10.695,6.137,6.26
21,0.869,36.424,16.551,29.759,23.251,10.575,6.016,6.139
22,0.863,36.534,16.52,29.74,23.251,10.492,6.015,6.179
23,0.872,36.651,16.539,29.778,23.254,10.532,6.137,6.22
24,0.869,36.709,16.524,29.769,23.254,10.451,6.098,6.22
25,0.859,36.508,16.539,29.759,23.251,10.288,6.016,6.098
26,0.836,36.631,16.547,29.73,23.24,10.164,5.893,6.016
27,0.836,36.728,16.575,29.759,23.254,10.122,6.014,6.137
28,0.856,36.825,16.583,29.74,23.254,10.081,6.056,6.138
29,0.843,36.567,16.54,29.759,23.251,10.081,6.015,6.016
30,0.856,36.689,16.602,29.74,23.244,9.999,6.015,6.056
31,0.853,36.806,16.423,29.768,23.251,10.08,6.096,6.341
32,0.885,36.864,16.554,29.797,23.268,10.081,6.138,6.181
33,0.889,36.472,16.555,29.769,23.248,9.837,6.057,6.22
34,0.895,36.612,16.532,29.759,23.254,9.956,6.056,6.18
35,0.899,36.728,16.555,29.769,23.258,9.957,6.137,6.22
36,0.899,36.691,16.539,29.788,23.258,9.998,6.138,6.22
37,0.912,36.566,16.571,29.769,23.251,10.039,6.016,6.058
38,0.902,36.66,16.536,29.74,23.247,10.243,6.137,6.178
39,0.921,36.786,16.571,29.749,23.251,10.57,6.098,6.057
40,0.938,40.556,16.551,29.749,23.251,10.858,6.056,6.056
41,0.928,41.025,16.551,29.749,23.251,11.105,6.097,6.137
42,0.912,41.097,16.52,29.759,23.247,11.392,6.138,6.138
43,0.915,41.155,16.57,29.797,23.265,11.842,6.301,6.301
44,0.915,34.587,16.54,29.788,23.261,11.847,6.14,6.14
45,0.909,34.502,16.559,29.769,23.254,12.009,6.138,6.098
46,0.905,34.674,16.532,29.778,23.258,12.092,6.179,6.219
47,0.899,34.8,16.586,29.769,23.258,12.215,6.22,6.261
48,0.908,37.17,16.571,29.778,23.258,12.379,6.098,6.18
49,0.886,37.309,16.563,29.778,23.251,12.299,6.056,6.139
50,0.879,37.406,16.582,29.759,23.247,12.502,6.097,6.138
51,0.879,37.484,16.555,29.845,23.254,12.585,6.138,6.179
52,0.885,35.931,16.547,29.779,23.251,12.627,6.179,6.179
53,0.895,36.069,16.52,29.75,23.244,12.79,6.057,6.179
54,0.886,36.176,16.551,29.778,23.247,12.994,6.178,6.179
55,0.905,36.254,16.547,29.807,23.265,13.281,6.301,6.342
56,0.921,36.571,16.532,29.779,23.258,13.203,6.18,6.221
57,0.915,36.68,16.551,29.778,23.258,13.243,6.139,6.22
58,0.931,36.825,16.563,29.797,23.254,13.365,6.219,6.22
59,0.935,36.836,16.571,29.798,23.258,13.407,6.18,6.261
60,0.938,36.347,16.555,29.778,23.254,13.245,6.098,6.139
61,0.932,36.447,16.528,29.759,23.247,13.121,6.097,6.098
62,0.931,36.592,16.547,29.778,23.258,13.201,6.097,6.219
63,0.938,36.92,16.535,29.759,23.254,13.121,6.056,6.139
64,0.938,36.386,16.551,29.788,23.247,12.917,6.097,6.179
65,0.932,36.515,16.508,29.75,23.251,12.833,6.138,6.139
66,0.931,36.65,16.504,29.797,23.261,12.954,6.26,6.382
67,0.925,36.431,16.582,29.807,23.261,12.711,6.18,6.181
68,0.905,36.429,16.536,29.788,23.254,12.628,6.139,6.179
69,0.895,36.554,16.547,29.798,23.258,12.546,6.138,6.179
70,0.886,36.651,16.586,29.798,23.258,12.464,6.26,6.22
71,0.889,36.22,16.587,29.807,23.254,12.3,6.139,6.22
72,0.889,36.321,16.54,29.788,23.244,12.054,6.098,6.139
73,0.879,36.428,16.586,29.769,23.247,12.093,6.138,6.179
74,0.898,36.534,16.579,29.788,23.251,12.012,6.098,6.098
75,0.908,36.267,16.571,29.788,23.24,11.889,6.138,6.097
76,0.925,36.408,16.563,29.769,23.247,11.766,6.138,6.056
77,0.912,36.496,16.512,29.797,23.247,11.805,6.138,6.219
78,0.915,36.612,16.559,29.817,23.258,11.806,6.26,6.302
79,0.909,36.354,16.602,29.798,23.258,11.684,6.139,6.099
80,0.902,36.495,16.548,29.798,23.244,11.601,6.138,6.219
81,0.882,36.631,16.547,29.798,23.258,11.56,6.179,6.18
82,0.872,36.68,16.528,29.798,23.254,11.64,6.139,6.179
83,0.869,36.24,16.617,29.798,23.251,11.601,6.138,6.139
84,0.85,36.36,16.56,29.778,23.247,11.397,6.016,6.057
85,0.833,36.467,16.575,29.788,23.254,11.476,6.056,6.097
86,0.862,36.525,16.563,29.778,23.251,11.436,6.097,6.138
87,0.836,36.363,16.536,29.788,23.251,11.477,6.097,6.138
88,0.813,36.505,16.539,29.788,23.251,11.477,6.056,6.098
89,0.777,36.602,16.508,29.798,23.251,11.558,6.137,6.219
90,0.803,36.661,16.555,29.826,23.265,11.681,6.219,6.302
91,0.803,36.268,16.536,29.836,23.254,11.56,6.098,6.14
92,0.79,36.399,16.508,29.808,23.251,11.559,6.138,6.179
93,0.793,36.496,16.551,29.798,23.251,11.559,6.138,6.261
94,0.813,36.324,16.575,29.807,23.254,11.559,6.179,6.221
95,0.807,36.246,16.587,29.817,23.254,11.559,6.057,6.18
96,0.79,36.379,16.579,29.788,23.244,11.478,5.975,6.139
97,0.793,36.467,16.579,29.817,23.251,11.558,6.096,6.219
98,0.8,36.151,16.563,29.817,23.251,11.64,6.056,6.098
99,0.81,36.254,16.567,29.779,23.251,11.682,6.056,6.178
100,0.794,36.37,16.532,29.769,23.247,11.764,6.015,6.139
101,0.78,36.457,16.543,29.797,23.254,11.887,6.137,6.219
102,0.793,36.113,16.555,29.826,23.265,12.091,6.179,6.302
103,0.787,36.234,16.606,29.808,23.244,11.89,6.098,6.221
104,0.787,36.35,16.563,29.807,23.254,12.01,6.097,6.22
105,0.78,36.447,16.575,29.817,23.254,12.011,6.097,6.261
106,0.78,36.257,16.563,29.807,23.258,12.133,6.097,6.262
107,0.774,36.389,16.563,29.817,23.251,12.093,6.056,6.18
108,0.754,36.476,16.571,29.779,23.244,12.012,5.975,6.098
109,0.744,36.573,16.547,29.797,23.251,12.174,6.096,6.219
110,0.741,36.2,16.563,29.807,23.251,12.297,6.016,6.22
111,0.738,36.34,16.559,29.817,23.247,12.38,6.015,6.261
112,0.734,36.438,16.5,29.807,23.247,12.503,6.015,6.18
113,0.754,36.487,16.527,29.798,23.254,12.626,6.056,6.342
114,0.774,36.238,16.563,29.836,23.265,12.83,6.137,6.343
115,0.774,36.36,16.54,29.817,23.251,12.832,6.016,6.303
116,0.771,36.457,16.551,29.836,23.251,12.954,6.096,6.262
117,0.77,36.487,16.524,29.817,23.254,13.078,6.056,6.384
118,0.774,36.199,16.551,29.836,23.254,13.16,6.015,6.303
119,0.777,36.321,16.559,29.808,23.254,13.08,5.974,6.262
120,0.764,36.399,16.555,29.769,23.237,13.119,5.893,6.18
121,0.767,36.419,16.567,29.817,23.251,13.201,5.933,6.301
122,0.77,36.247,16.544,29.827,23.254,13.161,6.014,6.302
123,0.754,36.379,16.563,29.808,23.251,13.08,5.974,6.221
124,0.754,36.467,16.575,29.798,23.244,13.038,5.933,6.22
125,0.748,36.161,16.551,29.826,23.261,13.16,6.136,6.424
126,0.764,36.282,16.567,29.855,23.265,13.161,6.057,6.263
127,0.751,36.37,16.567,29.817,23.251,12.998,6.015,6.302
128,0.751,36.476,16.524,29.817,23.247,13.037,5.974,6.302
129,0.751,36.199,16.57,29.836,23.254,12.997,6.055,6.384
130,0.744,36.331,16.559,29.836,23.254,13.037,6.015,6.344
131,0.747,36.457,16.551,29.817,23.247,12.916,5.974,6.181
132,0.741,36.496,16.469,29.788,23.24,12.752,5.893,6.261
133,0.747,36.142,16.558,29.826,23.251,12.791,5.973,6.262
134,0.764,36.282,16.52,29.817,23.247,12.791,6.055,6.221
135,0.774,36.389,16.524,29.827,23.244,12.71,6.015,6.18
136,0.767,36.457,16.508,29.808,23.247,12.628,5.974,6.179
137,0.761,36.074,16.555,29.836,23.258,12.668,6.137,6.423
138,0.77,36.243,16.579,29.865,23.261,12.546,6.057,6.304
139,0.774,36.341,16.544,29.837,23.258,12.464,5.975,6.221
140,0.78,36.371,16.586,29.827,23.254,12.381,6.055,6.302
141,0.787,36.131,16.579,29.836,23.254,12.218,6.056,6.302
142,0.777,36.282,16.559,29.856,23.258,12.135,6.015,6.221
143,0.774,36.408,16.582,29.817,23.251,11.85,5.934,6.22
144,0.758,36.39,16.571,29.798,23.251,11.765,6.014,6.22
145,0.757,36.141,16.532,29.836,23.251,11.764,6.015,6.18
146,0.754,36.273,16.551,29.817,23.247,11.642,6.015,6.22
147,0.748,36.37,16.547,29.817,23.251,11.56,5.893,6.18
148,0.76,36.745,16.555,29.827,23.247,11.519,5.933,6.22
149,0.761,36.231,16.551,29.865,23.258,11.64,6.177,6.383
150,0.774,36.369,16.567,29.856,23.254,11.641,6.017,6.222
151,0.764,36.448,16.555,29.837,23.251,11.641,6.056,6.342
152,0.761,36.132,16.579,29.846,23.258,11.804,6.056,6.262
153,0.77,36.148,16.618,29.856,23.258,11.806,6.015,6.302
154,0.787,36.273,16.564,29.856,23.244,11.887,5.974,6.14
155,0.774,36.322,16.512,29.817,23.247,11.806,5.893,6.179
156,0.777,36.073,16.523,29.836,23.251,11.887,6.014,6.22
157,0.774,36.195,16.527,29.836,23.251,11.969,5.974,6.18
158,0.79,36.312,16.539,29.836,23.244,11.97,5.974,6.139
159,0.793,36.38,16.559,29.827,23.247,12.011,6.055,6.179
160,0.784,36.045,16.547,29.855,23.265,12.174,6.178,6.342
161,0.803,36.224,16.567,29.856,23.258,12.053,6.017,6.221
162,0.787,36.312,16.559,29.837,23.254,12.052,6.056,6.139
163,0.797,36.38,16.61,29.836,23.251,12.052,6.015,6.26
164,0.8,36.026,16.552,29.856,23.251,12.052,5.974,6.221
165,0.787,36.185,16.575,29.856,23.254,12.011,6.055,6.302
166,0.78,36.292,16.563,29.846,23.247,11.848,5.812,6.058
167,0.774,36.332,16.524,29.827,23.254,11.969,6.013,6.178
168,0.793,36.025,16.535,29.836,23.244,11.97,5.974,6.139
169,0.774,36.156,16.578,29.836,23.251,12.051,5.893,6.138
170,0.754,36.254,16.516,29.836,23.244,12.133,5.892,6.098
171,0.767,36.312,16.531,29.856,23.251,12.337,6.054,6.178
172,0.787,36.092,16.567,29.865,23.265,12.543,6.056,6.22
173,0.784,36.215,16.583,29.875,23.254,12.504,5.934,6.139
174,0.758,36.321,16.555,29.865,23.258,12.585,5.974,6.138
175,0.77,36.322,16.575,29.875,23.258,12.586,6.015,6.219
176,0.783,36.054,16.563,29.865,23.254,12.667,6.137,6.22
177,0.8,36.176,16.567,29.865,23.254,12.627,6.016,6.18
178,0.794,36.273,16.528,29.856,23.24,12.464,5.893,6.017
179,0.806,36.101,16.57,29.846,23.247,12.422,5.973,6.178
180,0.82,36.052,16.536,29.846,23.254,12.381,5.933,6.179
181,0.849,36.185,16.52,29.827,23.254,12.34,5.933,6.179
182,0.853,36.263,16.535,29.855,23.247,12.258,5.933,6.179
183,0.882,35.977,16.559,29.846,23.247,12.135,5.933,6.22
184,0.915,36.118,16.586,29.894,23.265,12.256,6.136,6.342
185,0.931,36.263,16.532,29.875,23.254,12.176,6.016,6.221
186,0.941,36.331,16.563,29.856,23.251,12.053,5.974,6.261
187,0.977,35.939,16.551,29.865,23.251,12.052,6.015,6.221
188,0.997,36.079,16.532,29.875,23.254,12.011,6.096,6.302
189,0.987,36.215,16.606,29.885,23.258,11.848,6.056,6.262
190,0.978,36.273,16.54,29.866,23.244,11.684,5.934,6.139
191,0.987,35.986,16.535,29.856,23.251,11.723,6.014,6.26
192,1.036,36.137,16.524,29.875,23.247,11.601,5.974,6.221
193,1.082,36.263,16.555,29.846,23.247,11.519,6.015,6.261
194,1.131,36.303,16.536,29.865,23.251,11.437,5.974,6.221
195,1.21,36.015,16.539,29.856,23.251,11.395,6.096,6.342
196,1.279,36.185,16.528,29.884,23.261,11.476,6.219,6.384
197,1.338,36.292,16.578,29.875,23.251,11.314,6.058,6.344
198,1.368,36.341,16.52,29.885,23.254,11.313,6.137,6.303
199,1.401,35.977,16.539,29.846,23.251,11.272,6.098,6.343
200,1.434,36.118,16.547,29.865,23.258,11.272,6.138,6.384
201,1.457,36.234,16.547,29.894,23.254,11.272,6.098,6.303
202,1.457,36.235,16.528,29.818,23.244,11.15,5.975,6.302
203,1.454,36.015,16.57,29.875,23.247,11.23,6.137,6.302
204,1.483,36.166,16.594,29.885,23.251,11.353,6.098,6.343
205,1.496,36.254,16.536,29.866,23.247,11.395,6.056,6.303
206,1.506,36.274,16.547,29.846,23.244,11.436,6.056,6.384
207,1.493,36.044,16.508,29.865,23.258,11.558,6.219,6.385
208,1.487,36.224,16.547,29.913,23.265,11.722,6.261,6.466
209,1.461,36.312,16.594,29.876,23.254,11.601,6.18,6.507
210,1.444,35.9,16.552,29.885,23.254,11.56,6.22,6.508
211,1.402,35.973,16.539,29.875,23.261,11.559,6.139,6.467
212,1.352,36.098,16.532,29.885,23.261,11.559,6.26,6.629
213,1.31,36.196,16.539,29.885,23.254,11.397,6.099,6.672
214,1.26,35.947,16.532,29.846,23.24,11.273,6.097,6.753
215,1.214,36.098,16.496,29.865,23.254,11.312,6.138,6.957
216,1.149,36.234,16.531,29.875,23.254,11.272,6.179,7.204
217,1.087,36.312,16.543,29.875,23.244,11.15,6.098,7.491
218,1.018,35.872,16.524,29.865,23.24,11.067,6.097,7.697
219,0.952,36.03,16.574,29.875,23.258,11.148,6.26,8.146
220,0.886,36.195,16.532,29.904,23.265,11.149,6.221,8.354
221,0.807,36.225,16.535,29.885,23.251,10.986,6.22,8.6
222,0.755,35.928,16.547,29.875,23.251,11.066,6.18,8.846
223,0.702,36.079,16.582,29.875,23.254,10.985,6.22,9.133
224,0.672,36.176,16.512,29.894,23.261,11.187,6.302,9.258
225,0.636,36.244,16.52,29.875,23.254,11.23,6.14,9.3
226,0.6,35.996,16.5,29.846,23.251,11.312,6.098,9.544
227,0.6,36.166,16.48,29.875,23.254,11.516,6.138,9.588
228,0.619,36.263,16.523,29.875,23.251,11.599,6.138,9.71
229,0.639,36.293,16.598,29.865,23.251,11.722,6.098,9.792
230,0.672,35.9,16.501,29.875,23.247,11.846,6.138,9.834
231,0.704,36.059,16.547,29.904,23.261,12.091,6.26,10.241
232,0.737,36.224,16.578,29.923,23.261,12.174,6.221,10.204
233,0.767,36.532,16.583,29.866,23.251,12.216,6.18,10.448
234,0.813,35.922,16.559,29.885,23.251,12.257,6.139,10.735
235,0.833,36.021,16.559,29.875,23.261,12.257,6.26,11.022
236,0.843,36.137,16.54,29.885,23.254,12.217,6.221,11.229
237,0.856,35.879,16.489,29.904,23.247,12.176,6.139,11.393
238,0.856,35.886,16.515,29.866,23.244,12.216,6.179,11.801
239,0.875,36.011,16.57,29.875,23.251,12.176,6.22,11.928
240,0.876,36.118,16.477,29.875,23.254,12.216,6.22,12.213
241,0.879,35.831,16.511,29.875,23.247,12.013,6.058,12.338
242,0.879,35.934,16.562,29.875,23.247,12.092,6.219,12.543
243,0.879,36.069,16.606,29.904,23.261,12.215,6.342,12.789
244,0.889,36.205,16.61,29.914,23.258,12.094,6.221,12.71
245,0.863,35.861,16.544,29.895,23.261,12.052,6.22,12.709
246,0.856,36.011,16.535,29.894,23.261,11.971,6.22,12.668
247,0.84,36.128,16.563,29.885,23.258,11.889,6.302,12.627
248,0.839,36.234,16.54,29.885,23.254,11.725,6.262,12.546
249,0.836,35.88,16.539,29.875,23.244,11.561,6.058,12.464
250,0.836,35.992,16.516,29.904,23.247,11.559,6.259,12.422
251,0.836,36.127,16.543,29.875,23.251,11.478,6.221,12.3
252,0.852,36.205,16.52,29.875,23.244,11.314,6.058,12.217
253,0.853,35.938,16.566,29.875,23.244,11.272,6.097,12.054
254,0.849,36.079,16.622,29.904,23.258,11.394,6.26,12.093
255,0.859,36.215,16.603,29.914,23.254,11.354,6.262,11.89
256,0.849,36.235,16.571,29.885,23.254,11.232,6.221,11.806
257,0.866,35.871,16.575,29.894,23.254,11.312,6.18,11.724
258,0.879,36.001,16.54,29.894,23.258,11.272,6.22,11.561
259,0.885,36.089,16.594,29.894,23.258,11.272,6.18,11.437
260,0.889,36.128,16.563,29.942,23.244,11.109,6.098,11.192
261,0.859,37.174,16.504,29.885,23.254,11.189,6.178,11.149
262,0.856,37.328,16.512,29.894,23.258,11.108,6.139,11.026
263,0.862,37.406,16.566,29.894,23.247,10.985,6.138,10.903
264,0.853,36.141,16.567,29.885,23.244,10.984,6.098,10.821
265,0.866,35.362,16.501,29.894,23.247,11.066,6.178,10.779
266,0.856,35.546,16.558,29.914,23.265,11.148,6.261,10.698
267,0.853,35.653,16.559,29.904,23.254,11.026,6.139,10.494
268,0.846,35.99,16.532,29.895,23.254,11.066,6.219,10.41
269,0.856,36.166,16.555,29.904,23.251,11.27,6.261,10.328
270,0.843,36.292,16.567,29.923,23.258,11.475,6.262,10.205
271,0.839,36.389,16.555,29.914,23.254,11.64,6.18,10.001
272,0.856,35.594,16.481,29.866,23.244,11.723,6.017,9.795
273,0.853,35.721,16.562,29.885,23.251,12.008,6.137,9.834
274,0.843,35.856,16.524,29.885,23.254,12.255,6.138,9.712
275,0.849,35.934,16.524,29.885,23.247,12.257,6.179,9.548
276,0.859,35.839,16.563,29.894,23.244,12.339,6.098,9.425
277,0.853,35.992,16.559,29.952,23.247,12.502,6.26,9.464
278,0.869,36.147,16.543,29.953,23.265,12.626,6.221,9.424
279,0.882,36.177,16.614,29.895,23.251,12.464,6.18,9.261
280,0.872,35.774,16.563,29.942,23.254,12.544,6.179,9.097
281,0.876,35.895,16.547,29.905,23.254,12.545,6.179,9.095
282,0.866,36.03,16.567,29.914,23.254,12.545,6.22,9.054
283,0.872,36.07,16.59,29.923,23.251,12.423,6.139,8.81
284,0.856,35.697,16.532,29.876,23.244,12.218,6.016,8.767
285,0.856,35.865,16.531,29.885,23.254,12.298,6.218,8.807
286,0.869,35.973,16.516,29.904,23.247,12.217,6.18,8.686
287,0.856,35.993,16.539,29.895,23.244,12.094,6.098,8.562
288,0.846,35.859,16.485,29.885,23.244,12.012,6.056,8.561
289,0.83,35.992,16.562,29.885,23.261,12.052,6.219,8.683
290,0.856,36.127,16.551,29.952,23.261,11.971,6.18,8.44
291,0.849,36.167,16.567,29.905,23.247,11.807,6.179,8.438
292,0.853,35.889,16.532,29.933,23.254,11.724,6.179,8.357
293,0.866,36.021,16.563,29.904,23.258,11.805,6.179,8.275
294,0.862,36.108,16.536,29.923,23.258,11.765,6.179,8.233
295,0.869,35.783,16.531,29.904,23.247,11.724,6.057,8.151
296,0.872,35.809,16.555,29.866,23.24,11.723,6.137,8.15
297,0.889,35.991,16.536,29.952,23.251,11.764,6.138,8.028
298,0.885,36.07,16.555,29.914,23.247,11.724,6.057,7.987
299,0.879,35.697,16.606,29.885,23.247,11.846,6.097,7.864
300,0.892,35.817,16.579,29.923,23.251,11.969,6.097,7.863
301,0.899,35.982,16.571,29.914,23.261,12.173,6.3,7.985
302,0.905,36.098,16.575,29.923,23.258,12.216,6.221,7.864
303,0.879,35.649,16.567,29.895,23.258,12.257,6.18,7.822
304,0.885,35.807,16.571,29.914,23.254,12.339,6.098,7.741
305,0.892,35.934,16.52,29.895,23.258,12.421,6.26,7.781
306,0.889,36.012,16.559,29.923,23.258,12.381,6.18,7.659
307,0.889,35.801,16.528,29.895,23.244,12.299,6.098,7.536
308,0.859,35.924,16.531,29.875,23.247,12.38,6.138,7.534
309,0.869,36.088,16.555,29.894,23.247,12.381,6.138,7.575
310,0.872,36.128,16.536,29.904,23.244,12.381,6.138,7.494
311,0.859,35.668,16.524,29.895,23.247,12.381,6.057,7.371
312,0.882,35.798,16.5,29.885,23.244,12.421,6.097,7.411
313,0.885,35.924,16.57,29.914,23.261,12.584,6.341,7.533
314,0.895,35.983,16.536,29.923,23.254,12.423,6.14,7.372
315,0.892,35.782,16.559,29.895,23.254,12.422,6.179,7.37
316,0.892,35.933,16.536,29.904,23.261,12.422,6.22,7.33
317,0.899,36.04,16.539,29.923,23.258,12.381,6.261,7.37
318,0.902,36.205,16.532,29.923,23.254,12.34,6.18,7.37
319,0.915,35.784,16.567,29.885,23.247,12.177,6.098,7.126
320,0.905,35.914,16.579,29.894,23.247,12.216,6.219,7.205
321,0.934,36.031,16.54,29.904,23.258,12.176,6.139,7.165
322,0.889,35.783,16.61,29.914,23.247,12.094,6.138,7.124
323,0.885,35.799,16.606,29.876,23.247,12.215,6.138,7.002
324,0.885,35.924,16.563,29.885,23.247,12.176,6.219,7.163
325,0.889,36.04,16.571,29.933,23.265,12.297,6.383,7.246
326,0.899,35.696,16.567,29.904,23.258,12.176,6.222,7.044
327,0.876,35.789,16.54,29.904,23.258,12.135,6.22,7.042
328,0.879,35.924,16.539,29.914,23.254,12.093,6.302,7.042
329,0.872,36.04,16.539,29.923,23.251,12.052,6.262,7.042
330,0.882,35.639,16.535,29.923,23.261,11.93,6.302,7.001
331,0.882,35.75,16.535,29.876,23.241,11.726,6.099,6.838
332,0.879,35.866,16.528,29.904,23.251,11.805,6.219,6.918
333,0.889,35.944,16.586,29.895,23.251,11.643,6.261,6.919
334,0.902,35.667,16.555,29.904,23.251,11.56,6.139,6.837
335,0.912,35.798,16.551,29.895,23.24,11.478,6.138,6.837
336,0.912,35.924,16.528,29.904,23.247,11.477,6.219,6.918
337,0.918,36.012,16.504,29.952,23.265,11.558,6.383,6.959
338,0.925,35.696,16.547,29.933,23.254,11.559,6.181,6.838
339,0.905,35.798,16.59,29.895,23.251,11.803,6.179,6.837
340,0.905,35.924,16.446,29.923,23.251,12.05,6.301,6.877
341,0.921,35.983,16.511,29.904,23.258,12.255,6.343,6.755
342,0.928,35.715,16.555,29.914,23.254,12.542,6.262,6.795
343,0.915,35.837,16.598,29.904,23.247,12.586,6.139,6.673
344,0.905,35.944,16.556,29.895,23.244,12.871,6.219,6.672
345,0.905,35.993,16.555,29.914,23.247,13.077,6.22,6.672
346,0.921,35.677,16.539,29.904,23.251,13.201,6.22,6.591
347,0.909,35.789,16.551,29.904,23.251,13.324,6.22,6.59
348,0.889,35.895,16.539,29.914,23.247,13.447,6.22,6.59
349,0.885,35.867,16.59,29.933,23.261,13.692,6.383,6.875
350,0.902,35.819,16.54,29.933,23.254,13.573,6.222,6.633
351,0.905,35.934,16.516,29.914,23.254,13.734,6.302,6.672
352,0.902,36.021,16.559,29.923,23.258,13.736,6.262,6.672
353,0.908,35.6,16.567,29.914,23.258,13.776,6.302,6.672
354,0.912,35.701,16.52,29.914,23.251,13.696,6.262,6.591
355,0.922,35.808,16.555,29.895,23.24,13.613,6.058,6.509
356,0.912,35.886,16.543,29.914,23.244,13.653,6.137,6.589
357,0.918,35.551,16.547,29.923,23.254,13.532,6.219,6.509
358,0.931,35.663,16.535,29.904,23.244,13.408,6.18,6.508
359,0.935,35.769,16.547,29.885,23.251,13.245,6.098,6.386
360,0.935,35.885,16.567,29.914,23.251,13.324,6.219,6.629
361,0.958,35.743,16.547,29.962,23.265,13.244,6.261,6.509
362,0.932,35.856,16.598,29.914,23.251,13.04,6.221,6.467
363,0.922,35.982,16.567,29.923,23.254,12.956,6.22,6.548
364,0.922,36.051,16.547,29.923,23.258,12.915,6.18,6.508
365,0.925,35.6,16.543,29.914,23.254,12.874,6.301,6.508
366,0.925,35.74,16.563,29.904,23.251,12.711,6.099,6.427
367,0.905,35.808,16.547,29.885,23.247,12.668,6.097,6.426
368,0.918,35.895,16.571,29.923,23.247,12.749,6.178,6.466
369,0.925,35.704,16.594,29.914,23.251,12.669,6.098,6.467
370,0.922,35.837,16.54,29.914,23.247,12.627,6.138,6.386
371,0.915,35.944,16.539,29.914,23.254,12.668,6.179,6.385
372,0.915,35.973,16.543,29.952,23.261,12.79,6.383,6.547
373,0.938,35.667,16.594,29.943,23.258,12.629,6.222,6.427
374,0.938,35.779,16.509,29.914,23.247,12.627,6.261,6.466
375,0.941,35.885,16.531,29.914,23.251,12.586,6.221,6.426
376,0.945,35.992,16.5,29.914,23.258,12.505,6.22,6.385
377,0.951,35.686,16.555,29.933,23.261,12.544,6.22,6.425
378,0.958,35.827,16.532,29.914,23.251,12.382,6.058,6.344
379,0.977,35.876,16.547,29.904,23.24,12.34,6.137,6.343
380,0.971,35.618,16.547,29.923,23.251,12.421,6.179,6.303
381,0.974,35.673,16.528,29.923,23.244,12.381,6.179,6.302
382,0.955,35.779,16.586,29.904,23.247,12.299,6.098,6.302
383,0.948,35.885,16.559,29.895,23.247,12.298,6.178,6.425
384,0.967,35.628,16.532,29.952,23.265,12.421,6.301,6.507
385,0.977,35.759,16.551,29.933,23.251,12.218,6.18,6.427
386,0.958,35.857,16.528,29.924,23.251,12.094,6.22,6.385
387,0.935,35.953,16.547,29.923,23.251,12.052,6.18,6.385
388,0.945,35.552,16.575,29.923,23.251,12.052,6.261,6.466
389,0.935,35.691,16.598,29.952,23.254,12.011,6.221,6.386
390,0.945,35.808,16.552,29.895,23.244,11.889,6.22,6.344
391,0.945,35.857,16.543,29.894,23.247,11.969,6.22,6.343
392,0.948,35.637,16.571,29.904,23.254,12.011,6.18,6.303
393,0.935,35.779,16.598,29.914,23.251,12.052,6.179,6.302
394,0.961,35.885,16.532,29.904,23.251,12.052,6.098,6.302
395,0.964,35.934,16.512,29.923,23.251,12.215,6.219,6.425
396,0.994,35.561,16.512,29.943,23.261,12.501,6.383,6.548
397,0.981,35.691,16.531,29.914,23.251,12.382,6.181,6.386
398,0.968,35.798,16.551,29.933,23.254,12.462,6.261,6.385
399,0.964,35.819,16.582,29.914,23.254,12.463,6.221,6.385
400,0.981,35.608,16.548,29.933,23.258,12.463,6.261,6.385
401,1.0,35.749,16.535,29.943,23.254,12.503,6.18,6.303
402,0.961,35.828,16.539,29.914,23.244,12.341,6.139,6.302
403,0.958,35.896,16.602,29.923,23.251,12.421,6.219,6.384
404,0.981,35.599,16.571,29.914,23.258,12.3,6.18,6.344
405,0.984,35.721,16.508,29.914,23.251,12.217,6.22,6.221
406,0.971,35.827,16.551,29.904,23.244,12.013,6.139,6.342
407,0.968,35.694,16.52,29.914,23.251,12.052,6.219,6.466
408,0.984,35.712,16.559,29.952,23.268,12.052,6.302,6.386
409,0.978,35.789,16.59,29.914,23.254,11.808,6.221,6.385
410,0.997,35.895,16.509,29.933,23.254,11.724,6.22,6.425
411,0.987,35.609,16.539,29.933,23.247,11.561,6.22,6.344
412,0.997,35.702,16.547,29.924,23.254,11.478,6.261,6.343
413,1.013,35.837,16.61,29.914,23.254,11.314,6.139,6.343
414,1.007,35.876,16.544,29.895,23.24,11.069,6.098,6.262
415,1.004,35.522,16.528,29.923,23.254,11.107,6.219,6.302
416,1.02,35.691,16.578,29.933,23.244,10.945,6.098,6.302
417,1.023,35.798,16.536,29.895,23.244,10.781,6.178,6.262
418,1.033,35.886,16.547,29.894,23.251,10.698,6.139,6.221
419,1.03,35.493,16.532,29.914,23.247,10.737,6.219,6.342
420,1.05,35.7,16.547,29.962,23.265,10.697,6.302,6.303
421,1.043,35.808,16.489,29.924,23.254,10.494,6.221,6.343
422,1.04,35.857,16.551,29.923,23.261,10.41,6.18,6.303
423,1.05,35.647,16.543,29.923,23.258,10.409,6.22,6.302
424,1.043,35.817,16.539,29.933,23.254,10.45,6.261,6.425
425,1.05,35.934,16.5,29.924,23.251,10.247,6.139,6.263
426,1.014,35.954,16.527,29.885,23.24,10.082,6.138,6.139
427,0.997,35.686,16.473,29.914,23.251,10.203,6.179,6.301
428,1.013,35.837,16.554,29.914,23.251,10.082,6.139,6.262
429,1.007,35.924,16.586,29.904,23.247,9.959,6.098,6.302
430,1.03,35.944,16.512,29.895,23.247,9.957,6.097,6.262
431,1.03,35.628,16.547,29.914,23.247,9.998,6.26,6.424
432,1.04,35.788,16.559,29.943,23.265,9.917,6.221,6.344
433,1.04,35.857,16.61,29.914,23.254,9.876,6.18,6.343
434,1.04,36.251,16.497,29.904,23.251,9.753,6.139,6.343
435,1.059,36.523,16.554,29.933,23.251,9.712,6.138,6.343
436,1.063,36.65,16.563,29.924,23.254,9.63,6.138,6.384
437,1.063,36.748,16.547,29.923,23.254,9.548,6.098,6.344
438,1.06,35.387,16.516,29.885,23.244,9.344,6.056,6.262
439,1.079,35.344,16.57,29.894,23.247,9.342,6.137,6.343
440,1.099,35.507,16.547,29.894,23.247,9.342,6.057,6.343
441,1.089,35.614,16.571,29.885,23.254,9.219,6.056,6.343
442,1.076,35.817,16.567,29.885,23.24,9.259,6.015,6.303
443,1.073,35.982,16.567,29.904,23.254,9.341,6.137,6.384
444,1.096,36.146,16.516,29.923,23.265,9.464,6.179,6.507
445,1.079,36.215,16.559,29.904,23.251,9.383,6.098,6.386
446,1.079,35.66,16.536,29.904,23.251,9.382,6.056,6.385
447,1.112,35.807,16.489,29.904,23.258,9.423,6.097,6.385
448,1.096,35.934,16.531,29.914,23.254,9.546,6.178,6.466
449,1.073,36.002,16.555,29.895,23.251,9.588,6.057,6.426
450,1.066,35.821,16.481,29.875,23.237,9.466,5.934,6.304
451,1.092,36.011,16.523,29.885,23.251,9.668,6.096,6.384
452,1.102,36.128,16.52,29.894,23.251,9.711,6.056,6.344
453,1.109,36.157,16.586,29.875,23.244,9.752,6.015,6.384
454,1.141,35.841,16.485,29.875,23.247,9.793,6.015,6.385
455,1.112,35.982,16.547,29.913,23.261,9.996,6.137,6.588
456,1.141,36.127,16.571,29.914,23.261,9.917,6.098,6.468
457,1.161,36.148,16.567,29.904,23.258,9.916,5.975,6.467
458,1.142,35.937,16.563,29.875,23.251,9.916,6.055,6.467
459,1.148,36.069,16.571,29.885,23.258,9.957,6.137,6.467
460,1.148,36.195,16.594,29.885,23.251,9.876,6.098,6.467
461,1.139,36.427,16.532,29.856,23.24,9.713,5.894,6.345
462,1.122,36.017,16.563,29.865,23.254,9.833,6.095,6.425
463,1.129,36.147,16.52,29.885,23.251,9.753,6.056,6.466
464,1.138,36.273,16.492,29.875,23.247,9.712,5.975,6.467
465,1.142,36.111,16.504,29.865,23.247,9.792,5.933,6.426
466,1.125,36.148,16.484,29.856,23.251,9.834,6.055,6.466
467,1.148,36.321,16.496,29.884,23.268,10.119,6.137,6.589
468,1.158,36.418,16.5,29.866,23.254,10.041,6.057,6.427
469,1.148,36.026,16.558,29.875,23.247,10.202,6.056,6.548
470,1.152,36.147,16.489,29.894,23.251,10.285,6.097,6.468
471,1.142,36.292,16.523,29.875,23.258,10.611,6.056,6.548
472,1.145,36.37,16.563,29.885,23.251,10.655,5.975,6.549
473,1.142,35.939,16.582,29.837,23.244,10.737,5.974,6.386
474,1.119,36.079,16.544,29.865,23.251,11.022,6.015,6.425
475,1.155,36.224,16.496,29.856,23.251,10.985,5.974,6.385
476,1.161,36.283,16.527,29.856,23.251,11.147,5.974,6.466
477,1.155,36.332,16.555,29.837,23.244,11.067,5.933,6.386
478,1.158,36.476,16.536,29.846,23.251,11.188,6.014,6.507
479,1.161,36.602,16.586,29.875,23.261,11.352,6.218,6.589
480,1.184,36.68,16.571,29.846,23.254,11.273,6.058,6.387
481,1.201,36.288,16.544,29.856,23.254,11.19,6.015,6.425
482,1.201,36.428,16.602,29.846,23.251,11.149,6.056,6.426
483,1.194,36.554,16.602,29.875,23.254,11.149,6.097,6.466
484,1.175,36.593,16.575,29.856,23.258,11.067,6.056,6.386
485,1.162,36.431,16.544,29.837,23.251,10.944,5.934,6.303
486,1.171,36.534,16.539,29.817,23.244,10.902,6.014,6.425
487,1.168,36.66,16.489,29.827,23.251,10.861,5.974,6.426
488,1.145,36.69,16.504,29.827,23.251,10.82,5.933,6.344
489,1.139,36.412,16.547,29.817,23.247,10.698,5.892,6.343
490,1.142,36.534,16.496,29.827,23.244,10.656,5.933,6.343
491,1.138,36.66,16.508,29.846,23.265,10.859,6.136,6.547
492,1.161,36.537,16.527,29.846,23.251,10.739,6.057,6.468
493,1.152,36.478,16.578,29.817,23.251,10.657,6.015,6.426
494,1.158,36.592,16.571,29.827,23.251,10.656,6.015,6.426
495,1.148,36.709,16.579,29.817,23.254,10.656,6.015,6.466
496,1.145,36.528,16.559,29.827,23.254,10.615,6.015,6.467
497,1.152,36.641,16.571,29.808,23.251,10.574,5.934,6.304
498,1.148,36.728,16.528,29.798,23.244,10.492,6.014,6.343
499,1.145,36.854,16.563,29.798,23.251,10.491,5.974,6.343
500,1.139,36.529,16.563,29.798,23.247,10.532,5.974,6.343
501,1.135,36.65,16.536,29.798,23.247,10.41,5.893,6.303
502,1.122,36.786,16.582,29.807,23.251,10.409,5.933,6.425
503,1.116,36.874,16.559,29.826,23.258,10.572,6.096,6.507
504,1.125,36.721,16.547,29.817,23.258,10.37,6.016,6.467
505,1.106,36.825,16.563,29.798,23.254,10.409,5.974,6.386
506,1.099,36.932,16.543,29.788,23.251,10.369,6.055,6.466
507,1.076,37.0,16.516,29.798,23.254,10.409,6.015,6.426
508,1.076,36.617,16.527,29.798,23.258,10.328,5.974,6.426
509,1.053,36.738,16.563,29.778,23.244,10.246,5.893,6.304
510,1.037,36.835,16.52,29.778,23.251,10.408,6.014,6.384
511,1.04,36.903,16.512,29.797,23.247,10.328,5.974,6.385
512,1.043,36.779,16.547,29.769,23.247,10.327,5.893,6.385
513,1.05,36.902,16.567,29.769,23.247,10.327,5.933,6.263
514,1.02,37.019,16.516,29.778,23.251,10.327,5.974,6.343
515,1.04,37.068,16.547,29.797,23.261,10.49,6.096,6.466
516,1.043,36.8,16.547,29.798,23.251,10.369,6.016,6.345
517,1.024,36.941,16.543,29.769,23.258,10.409,6.015,6.384
518,1.017,37.038,16.543,29.778,23.258,10.369,6.015,6.385
519,1.001,37.001,16.571,29.778,23.258,10.409,6.015,6.425
520,1.01,36.847,16.583,29.769,23.258,10.369,5.974,6.344
521,1.001,36.941,16.563,29.74,23.244,10.328,5.893,6.14
522,0.991,37.029,16.582,29.759,23.251,10.368,5.973,6.26
523,0.978,36.819,16.509,29.769,23.247,10.368,5.933,6.262
524,0.974,36.922,16.535,29.759,23.247,10.368,5.892,6.221
525,0.971,37.028,16.547,29.749,23.251,10.246,5.973,6.261
526,0.958,37.125,16.567,29.749,23.254,10.286,5.974,6.302
527,0.951,36.829,16.559,29.788,23.268,10.286,6.015,6.343
528,0.941,36.951,16.512,29.731,23.258,10.205,5.934,6.221
529,0.919,37.057,16.598,29.749,23.258,10.163,6.014,6.302
530,0.922,37.135,16.544,29.768,23.254,10.122,5.974,6.302
531,0.909,36.868,16.563,29.769,23.254,10.081,6.096,6.343
532,0.912,37.009,16.586,29.759,23.251,9.999,5.853,6.221
533,0.918,37.087,16.563,29.711,23.24,9.795,5.891,6.18
534,0.915,37.174,16.555,29.749,23.251,9.793,5.933,6.22
535,0.918,36.925,16.524,29.73,23.251,9.753,5.933,6.139
536,0.922,37.057,16.531,29.739,23.244,9.712,5.892,6.219
537,0.918,37.183,16.52,29.72,23.251,9.711,5.851,6.18
538,0.905,37.252,16.531,29.749,23.258,9.792,6.054,6.342
539,0.925,36.965,16.586,29.749,23.258,9.793,6.015,6.262
540,0.912,37.096,16.555,29.73,23.254,9.712,6.015,6.18
541,0.905,37.193,16.539,29.739,23.254,9.67,5.974,6.301
542,0.905,37.223,16.555,29.73,23.251,9.67,6.015,6.262
543,0.905,36.83,16.555,29.73,23.258,9.711,6.096,6.302
544,0.889,36.979,16.582,29.73,23.247,9.589,5.894,6.14
545,0.869,37.039,16.52,29.711,23.24,9.547,5.973,6.219
546,0.882,37.423,16.578,29.72,23.247,9.669,5.933,6.18
547,0.872,37.053,16.548,29.711,23.251,9.629,5.974,6.139
548,0.866,37.183,16.559,29.72,23.251,9.67,5.893,6.138
549,0.859,37.271,16.571,29.711,23.247,9.711,6.014,6.26
550,0.859,37.022,16.586,29.758,23.254,9.914,6.137,6.343
551,0.859,37.049,16.548,29.721,23.254,9.835,6.016,6.221
552,0.859,37.154,16.567,29.72,23.251,9.956,5.974,6.18
553,0.862,37.251,16.555,29.73,23.254,10.08,6.096,6.139
554,0.866,36.888,16.563,29.73,23.258,10.203,6.097,6.179
555,0.882,37.018,16.547,29.73,23.254,10.285,5.975,6.179
556,0.859,37.116,16.539,29.682,23.237,10.205,5.933,6.057
557,0.862,37.213,16.539,29.71,23.254,10.367,5.974,6.137
558,0.862,36.993,16.532,29.701,23.251,10.368,5.974,6.057
559,0.856,37.125,16.578,29.672,23.254,10.449,5.974,6.178
560,0.872,37.222,16.544,29.691,23.251,10.41,5.974,6.017
561,0.872,37.31,16.559,29.72,23.258,10.613,6.055,6.218
562,0.859,36.984,16.618,29.739,23.261,10.574,6.056,6.22
563,0.856,37.096,16.603,29.711,23.251,10.614,6.015,6.18
564,0.853,37.212,16.571,29.701,23.251,10.574,6.056,6.261
565,0.853,37.281,16.54,29.701,23.254,10.574,6.056,6.221
566,0.856,36.955,16.555,29.72,23.258,10.492,6.015,6.18
567,0.846,37.105,16.543,29.692,23.251,10.41,5.893,6.057
568,0.836,37.174,16.52,29.672,23.247,10.45,5.973,6.178
569,0.833,37.223,16.563,29.701,23.254,10.45,6.015,6.098
570,0.836,37.003,16.508,29.691,23.254,10.288,6.015,6.178
571,0.833,37.125,16.523,29.701,23.244,10.245,5.974,6.057
572,0.836,37.241,16.578,29.682,23.247,10.204,5.974,6.097
573,0.833,37.271,16.61,29.71,23.261,10.367,6.137,6.341
574,0.849,36.965,16.599,29.72,23.258,10.165,6.016,6.1
575,0.836,37.067,16.571,29.692,23.251,10.041,6.015,6.138
576,0.83,37.174,16.571,29.71,23.254,9.999,6.015,6.179
577,0.852,37.136,16.524,29.701,23.258,9.958,6.137,6.301
578,0.856,37.165,16.524,29.701,23.254,9.917,6.016,6.14
579,0.853,37.261,16.582,29.672,23.247,9.794,5.974,5.976
580,0.843,37.319,16.524,29.672,23.251,9.834,6.015,6.096
581,0.872,36.879,16.512,29.681,23.254,9.834,6.015,6.138
582,0.859,36.961,16.531,29.681,23.251,9.875,5.934,6.098
583,0.862,37.067,16.57,29.662,23.247,9.794,5.933,6.056
584,0.853,37.164,16.583,29.691,23.251,9.793,5.974,6.097
585,0.849,36.992,16.555,29.691,23.261,9.956,6.137,6.26
586,0.862,37.163,16.579,29.71,23.254,9.957,6.057,6.18
587,0.833,37.251,16.571,29.682,23.254,9.876,6.015,6.139
588,0.823,37.329,16.555,29.701,23.254,9.957,6.056,6.179
589,0.833,36.956,16.582,29.701,23.254,10.08,6.097,6.22
590,0.83,37.115,16.548,29.691,23.254,10.081,6.097,6.22
591,0.833,37.203,16.532,29.662,23.244,9.918,5.894,6.017
592,0.826,37.252,16.578,29.672,23.251,10.039,6.014,6.137
593,0.846,36.984,16.567,29.681,23.254,10.04,6.096,6.098
594,0.84,37.115,16.563,29.672,23.251,10.04,6.016,6.097
595,0.836,37.213,16.563,29.662,23.24,9.999,5.974,6.097
596,0.839,37.252,16.555,29.672,23.247,10.08,6.015,6.178
597,0.852,36.993,16.567,29.768,23.258,10.243,6.178,6.261
598,0.859,37.135,16.536,29.682,23.254,10.245,6.057,6.139
599,0.856,37.203,16.594,29.681,23.251,10.408,6.056,6.179
600,0.859,37.242,16.548,29.749,23.258,10.613,6.056,6.179
601,0.866,37.08,16.524,29.682,23.254,10.737,6.097,6.179
602,0.853,37.212,16.563,29.681,23.254,10.941,6.056,6.179
603,0.853,37.329,16.567,29.662,23.247,10.821,5.934,5.976
604,0.843,37.205,16.54,29.672,23.244,11.105,6.014,6.177
605,0.843,37.002,16.516,29.672,23.251,11.148,6.056,6.057
606,0.83,37.135,16.531,29.672,23.251,11.271,6.015,6.097
607,0.833,37.222,16.543,29.653,23.247,11.312,5.974,6.056
608,0.826,36.964,16.52,29.662,23.244,11.435,6.015,6.178
609,0.843,37.058,16.578,29.71,23.265,11.68,6.178,6.301
610,0.826,37.212,16.544,29.691,23.258,11.601,6.139,6.14
611,0.839,37.261,16.551,29.682,23.247,11.682,6.057,6.138
612,0.836,36.984,16.59,29.662,23.258,11.804,6.015,6.098
613,0.843,37.144,16.567,29.672,23.254,11.887,6.096,6.097
614,0.846,37.261,16.579,29.681,23.258,11.928,6.138,6.178
615,0.853,37.319,16.544,29.662,23.244,11.888,5.935,6.017
616,0.849,36.86,16.551,29.653,23.251,11.928,6.055,6.137
617,0.866,37.028,16.551,29.672,23.251,11.888,6.056,6.138
618,0.862,37.135,16.532,29.662,23.247,11.888,6.056,6.098
619,0.872,37.174,16.555,29.653,23.247,11.766,6.056,6.138
620,0.866,36.858,16.543,29.662,23.254,11.846,6.137,6.098
621,0.859,37.047,16.539,29.7,23.265,11.887,6.26,6.219
622,0.859,37.174,16.547,29.672,23.254,11.685,6.139,6.139
623,0.862,37.194,16.555,29.672,23.247,11.683,6.138,6.057
624,0.866,37.002,16.508,29.672,23.258,11.642,6.098,6.097
625,0.853,37.154,16.504,29.681,23.258,11.601,6.138,6.178
626,0.856,37.28,16.531,29.681,23.254,11.56,6.138,6.057
627,0.84,37.281,16.531,29.653,23.237,11.315,5.976,6.056
628,0.839,36.974,16.547,29.672,23.251,11.475,6.096,6.056
629,0.839,37.106,16.52,29.653,23.251,11.477,6.138,6.137
630,0.839,37.251,16.559,29.662,23.247,11.314,6.057,6.057
631,0.83,37.55,16.555,29.653,23.244,11.313,6.056,6.015
632,0.839,36.91,16.586,29.662,23.254,11.353,6.178,6.178
633,0.839,37.095,16.536,29.71,23.268,11.395,6.22,6.179
634,0.839,37.174,16.528,29.672,23.254,11.232,6.139,6.139
635,0.849,36.906,16.555,29.681,23.251,11.231,6.179,6.138
636,0.862,36.942,16.563,29.681,23.254,11.149,6.179,6.179
637,0.866,37.077,16.54,29.691,23.254,11.149,6.139,6.098
638,0.859,37.155,16.532,29.682,23.251,11.026,6.057,6.056
639,0.84,37.05,16.551,29.624,23.24,10.903,6.056,6.056
640,0.856,37.221,16.559,29.671,23.254,10.943,6.097,6.015
641,0.869,37.319,16.52,29.662,23.251,10.821,6.097,6.056
642,0.856,37.387,16.598,29.662,23.247,10.698,6.016,6.015
643,0.856,36.803,16.579,29.643,23.247,10.656,6.056,6.056
644,0.856,36.97,16.544,29.672,23.251,10.737,6.178,6.178
645,0.872,37.134,16.532,29.71,23.261,10.697,6.139,6.179
646,0.863,37.165,16.512,29.672,23.251,10.616,6.179,6.139
647,0.843,36.964,16.5,29.653,23.251,10.574,6.139,6.057
648,0.839,37.096,16.516,29.691,23.251,10.451,6.219,6.137
649,0.843,37.212,16.543,29.691,23.254,10.491,6.139,6.138
650,0.839,37.271,16.547,29.672,23.251,10.288,6.057,6.057
651,0.83,36.888,16.504,29.672,23.254,10.164,6.219,6.056
652,0.843,37.038,16.617,29.662,23.251,10.163,6.18,6.137
653,0.846,37.145,16.524,29.672,23.247,10.082,6.017,6.057
654,0.843,37.184,16.559,29.662,23.247,9.959,6.056,6.097
655,0.849,36.945,16.582,29.662,23.251,9.998,6.219,6.219
656,0.869,37.134,16.587,29.71,23.265,10.039,6.261,6.18
657,0.859,37.203,16.579,29.682,23.254,9.918,6.18,6.098
658,0.875,37.213,16.532,29.672,23.251,9.794,6.22,6.178
659,0.872,37.003,16.559,29.681,23.251,9.793,6.139,6.139
660,0.872,37.125,16.547,29.681,23.258,9.793,6.219,6.138
661,0.863,37.213,16.516,29.672,23.251,9.631,6.139,5.976
662,0.849,36.964,16.563,29.653,23.254,9.588,6.138,6.096
663,0.856,36.885,16.547,29.662,23.254,9.669,6.138,6.056
664,0.849,37.018,16.563,29.662,23.254,9.67,6.179,6.056
665,0.846,37.116,16.528,29.662,23.251,9.711,6.098,6.015
666,0.84,36.887,16.543,29.653,23.251,9.711,6.138,6.137
667,0.849,37.028,16.571,29.672,23.265,10.036,6.382,6.179
668,0.859,37.164,16.547,29.681,23.258,9.999,6.222,6.057
669,0.827,37.242,16.524,29.681,23.251,10.08,6.22,6.097
670,0.826,36.801,16.539,29.691,23.254,10.203,6.18,6.097
671,0.833,36.931,16.555,29.691,23.254,10.285,6.261,6.178
672,0.833,37.057,16.579,29.672,23.251,10.286,6.262,6.139
673,0.846,37.126,16.516,29.662,23.247,10.245,6.017,6.057
674,0.833,36.906,16.539,29.653,23.251,10.367,6.218,6.015
675,0.849,37.067,16.52,29.662,23.247,10.368,6.139,6.056
676,0.853,37.174,16.531,29.672,23.254,10.449,6.098,6.056
677,0.856,37.242,16.578,29.662,23.24,10.532,6.138,6.015
678,0.859,36.773,16.536,29.672,23.251,10.777,6.179,6.096
679,0.875,36.921,16.586,29.701,23.261,10.982,6.301,6.178
680,0.885,37.067,16.563,29.682,23.251,10.944,6.18,6.179
681,0.876,37.068,16.551,29.681,23.251,11.106,6.22,6.139
682,0.869,36.905,16.578,29.672,23.251,11.108,6.261,6.138
683,0.872,37.047,16.548,29.691,23.258,11.148,6.262,6.138
684,0.843,37.174,16.555,29.701,23.254,11.108,6.18,6.057
685,0.839,37.156,16.489,29.663,23.24,11.067,6.057,6.015
686,0.836,36.983,16.519,29.662,23.254,11.066,6.219,6.056
687,0.849,37.144,16.566,29.653,23.251,11.026,6.22,6.097
688,0.846,37.232,16.516,29.662,23.251,10.944,6.139,6.016
689,0.83,37.166,16.547,29.662,23.251,10.943,6.138,5.974
690,0.82,36.925,16.539,29.672,23.258,10.984,6.219,6.096
691,0.833,37.096,16.543,29.729,23.268,10.984,6.342,6.219
692,0.839,37.174,16.567,29.692,23.251,10.781,6.14,6.058
693,0.846,37.175,16.52,29.691,23.251,10.779,6.219,6.056
694,0.853,37.319,16.531,29.701,23.247,10.738,6.261,6.056
695,0.846,37.426,16.508,29.701,23.254,10.657,6.18,6.137
696,0.856,37.513,16.539,29.701,23.254,10.493,6.179,6.016
697,0.846,36.555,16.555,29.663,23.24,10.451,6.098,5.974
698,0.849,36.67,16.563,29.681,23.258,10.491,6.138,6.015
699,0.853,36.805,16.543,29.672,23.254,10.451,6.138,5.974
700,0.853,36.893,16.547,29.681,23.244,10.572,6.138,5.974
701,0.862,36.817,16.555,29.672,23.254,10.736,6.138,6.055
702,0.859,36.97,16.594,29.681,23.251,10.982,6.219,6.137
703,0.856,37.134,16.563,29.72,23.268,11.066,6.261,6.098
704,0.843,37.165,16.559,29.701,23.251,11.188,6.221,6.056
705,0.843,36.829,16.52,29.672,23.261,11.352,6.139,6.097
706,0.833,36.97,16.555,29.701,23.247,11.476,6.179,6.138
707,0.826,37.106,16.547,29.701,23.265,11.558,6.22,6.016
708,0.823,37.126,16.563,29.691,23.254,11.559,6.139,6.015
709,0.817,36.781,16.551,29.682,23.244,11.437,6.179,6.015
710,0.81,36.969,16.528,29.691,23.251,11.558,6.179,6.056
711,0.813,37.058,16.551,29.682,23.254,11.519,6.22,6.015
712,0.826,37.097,16.578,29.672,23.251,11.477,6.139,6.015
713,0.846,36.723,16.516,29.681,23.247,11.396,6.138,6.056
714,0.856,36.883,16.535,29.701,23.254,11.476,6.301,6.259
715,0.866,37.028,16.551,29.739,23.258,11.436,6.343,6.139
716,0.849,37.365,16.524,29.701,23.254,11.355,6.262,6.138
717,0.849,36.851,16.516,29.71,23.258,11.313,6.139,6.138
718,0.84,36.97,16.535,29.711,23.254,11.272,6.219,6.138
719,0.843,37.086,16.535,29.711,23.254,11.231,6.22,6.098
720,0.849,36.79,16.543,29.691,23.247,11.068,6.098,5.975
721,0.833,36.759,16.535,29.672,23.24,10.944,6.178,6.015
722,0.836,36.902,16.602,29.691,23.251,10.943,6.22,6.056
723,0.836,37.019,16.575,29.682,23.247,10.902,6.22,6.015
724,0.826,36.799,16.571,29.701,23.247,10.78,6.18,6.015
725,0.833,36.902,16.575,29.682,23.251,10.82,6.098,6.056
726,0.833,37.057,16.547,29.72,23.258,10.901,6.341,6.219
727,0.843,37.183,16.532,29.72,23.258,10.821,6.262,6.098
728,0.83,36.772,16.563,29.701,23.254,10.779,6.139,6.138
729,0.826,36.902,16.516,29.72,23.258,10.738,6.179,6.098
730,0.813,37.019,16.543,29.73,23.258,10.697,6.22,6.178
731,0.816,37.116,16.532,29.701,23.258,10.737,6.22,6.098
732,0.826,36.704,16.551,29.71,23.247,10.657,6.058,5.935
733,0.82,36.806,16.5,29.691,23.247,10.615,6.137,6.055
734,0.833,36.951,16.558,29.691,23.247,10.655,6.138,6.137
735,0.823,37.019,16.543,29.701,23.251,10.615,6.098,6.098
736,0.817,36.732,16.512,29.701,23.251,10.655,6.138,6.016
737,0.82,36.873,16.562,29.701,23.251,10.493,6.057,6.096
738,0.83,36.999,16.54,29.749,23.261,10.654,6.219,6.26
739,0.846,37.048,16.535,29.74,23.254,10.656,6.139,6.139
740,0.827,36.752,16.543,29.72,23.251,10.574,6.179,6.138
741,0.836,36.912,16.539,29.73,23.251,10.574,6.098,6.098
742,0.839,37.0,16.59,29.72,23.258,10.574,6.178,6.178
743,0.836,37.048,16.552,29.72,23.258,10.492,6.139,6.139
744,0.83,36.876,16.586,29.701,23.244,10.369,6.016,6.016
745,0.823,36.999,16.563,29.691,23.244,10.409,6.015,6.137
746,0.826,37.096,16.571,29.71,23.251,10.45,6.096,6.057
747,0.823,36.896,16.563,29.72,23.251,10.41,6.097,6.056
748,0.813,36.779,16.559,29.701,23.247,10.369,6.056,6.056
749,0.813,36.921,16.547,29.701,23.247,10.368,6.097,6.137
750,0.813,37.067,16.555,29.749,23.268,10.409,6.178,6.219
751,0.803,36.723,16.563,29.72,23.254,10.287,6.098,6.22
752,0.794,36.796,16.606,29.739,23.254,10.327,6.138,6.22
753,0.813,36.922,16.501,29.749,23.254,10.246,6.098,6.139
754,0.82,37.009,16.543,29.749,23.258,10.123,6.178,6.179
755,0.833,36.78,16.543,29.74,23.254,9.959,5.976,6.017
756,0.813,36.883,16.532,29.72,23.247,9.917,6.015,6.096
757,0.82,37.038,16.563,29.72,23.251,9.835,6.137,6.138
758,0.82,37.106,16.528,29.739,23.247,9.834,6.098,6.179
759,0.839,36.608,16.535,29.711,23.251,9.753,6.016,6.057
760,0.843,36.747,16.547,29.701,23.244,9.712,6.056,6.056
761,0.846,36.902,16.535,29.758,23.268,10.077,6.178,6.3
762,0.846,36.961,16.567,29.74,23.258,9.959,6.098,6.14
763,0.81,36.77,16.524,29.73,23.258,10.12,6.138,6.179
764,0.82,36.921,16.543,29.749,23.251,10.163,6.098,6.139
765,0.807,37.038,16.532,29.73,23.258,10.204,6.056,6.179
766,0.807,37.116,16.559,29.749,23.258,10.326,6.097,6.139
767,0.803,36.714,16.54,29.711,23.241,10.165,5.975,5.976
768,0.784,36.825,16.551,29.73,23.251,10.366,6.055,6.096
769,0.78,36.96,16.532,29.73,23.247,10.368,6.056,6.056
770,0.784,36.981,16.535,29.73,23.251,10.449,6.015,6.137
771,0.79,36.722,16.567,29.711,23.251,10.41,5.974,6.057
772,0.813,36.825,16.571,29.72,23.254,10.572,6.096,6.137
773,0.829,36.989,16.551,29.787,23.268,10.777,6.178,6.179
774,0.82,36.991,16.524,29.731,23.248,10.698,6.057,6.098
775,0.813,36.77,16.551,29.739,23.258,10.819,6.056,6.097
776,0.81,36.912,16.559,29.73,23.251,10.942,6.056,6.056
777,0.813,37.028,16.543,29.739,23.258,11.106,6.137,6.178
778,0.813,36.675,16.563,29.74,23.251,11.148,6.057,6.098
779,0.823,36.681,16.54,29.711,23.247,11.067,5.975,5.975
780,0.823,36.825,16.539,29.73,23.251,11.31,6.055,6.096
781,0.826,36.912,16.563,29.73,23.254,11.353,6.015,6.056
782,0.82,36.884,16.563,29.72,23.244,11.395,6.056,6.015
783,0.797,37.018,16.473,29.72,23.247,11.395,5.975,6.015
784,0.81,37.135,16.488,29.72,23.251,11.476,6.055,6.096
785,0.82,37.251,16.531,29.778,23.265,11.721,6.219,6.178
786,0.836,36.552,16.582,29.759,23.248,11.601,6.058,6.098
787,0.813,36.651,16.551,29.74,23.254,11.722,6.137,6.056
788,0.797,36.786,16.578,29.759,23.254,11.886,6.098,6.137
789,0.803,36.864,16.555,29.759,23.254,11.888,6.138,6.138
790,0.8,36.635,16.571,29.74,23.258,11.969,6.098,6.138
791,0.8,36.738,16.579,29.73,23.244,11.848,5.975,5.976
792,0.807,36.835,16.579,29.749,23.254,12.05,6.096,6.137
793,0.807,36.912,16.52,29.74,23.254,12.052,6.016,6.057
794,0.816,36.702,16.524,29.749,23.254,12.093,6.015,6.015
795,0.813,36.825,16.512,29.73,23.244,12.093,5.934,6.096
796,0.81,36.941,16.539,29.749,23.251,12.174,6.136,6.178
797,0.842,37.0,16.528,29.778,23.268,12.297,6.179,6.301
798,0.836,36.684,16.59,29.75,23.251,12.176,6.057,6.058
799,0.839,36.815,16.462,29.749,23.251,12.135,6.056,6.178
800,0.836,36.922,16.531,29.768,23.254,12.134,6.137,6.139
801,0.833,37.259,16.551,29.749,23.258,12.134,6.138,6.179
802,0.823,36.687,16.571,29.759,23.258,12.012,6.057,6.139
803,0.81,36.786,16.528,29.759,23.244,11.848,6.015,6.138
804,0.81,36.902,16.531,29.759,23.254,11.847,6.137,6.219
805,0.816,36.769,16.531,29.749,23.247,11.725,6.057,6.139
806,0.81,36.825,16.531,29.73,23.251,11.601,6.056,6.098
807,0.813,36.912,16.512,29.73,23.24,11.6,5.975,6.097
808,0.797,37.019,16.504,29.749,23.247,11.56,6.096,6.219
809,0.803,36.828,16.543,29.797,23.258,11.64,6.178,6.18
810,0.79,36.922,16.578,29.759,23.254,11.438,6.098,6.139
811,0.78,37.048,16.524,29.769,23.251,11.436,6.138,6.179
812,0.793,37.145,16.602,29.759,23.254,11.233,6.138,6.22
813,0.813,36.542,16.614,29.769,23.251,11.271,6.098,6.22
814,0.82,36.679,16.583,29.759,23.247,11.109,5.975,6.017
815,0.81,36.786,16.536,29.711,23.247,10.945,6.055,6.137
816,0.826,36.864,16.563,29.768,23.251,10.984,6.056,6.219
817,0.81,36.5,16.571,29.749,23.247,10.822,6.015,6.098
818,0.816,36.631,16.567,29.749,23.24,10.657,6.056,6.097
819,0.82,36.757,16.536,29.759,23.247,10.656,6.015,6.056
820,0.81,36.835,16.531,29.759,23.258,10.818,6.137,6.259
821,0.833,36.586,16.559,29.769,23.254,10.698,6.057,6.139
822,0.83,36.68,16.508,29.759,23.254,10.697,6.056,6.219
823,0.83,36.825,16.535,29.759,23.258,10.778,6.137,6.18
824,0.813,36.864,16.543,29.769,23.254,10.82,6.179,6.179
825,0.82,36.74,16.551,29.769,23.258,10.901,6.098,6.261
826,0.813,36.854,16.578,29.759,23.247,10.902,6.056,6.058
827,0.787,36.941,16.555,29.749,23.244,10.983,6.178,6.137
828,0.81,36.971,16.536,29.768,23.251,11.147,6.139,6.138
829,0.807,36.684,16.539,29.759,23.251,11.23,6.057,6.219
830,0.79,36.815,16.516,29.74,23.251,11.271,6.097,6.098
831,0.793,36.922,16.504,29.759,23.251,11.394,6.138,6.138
832,0.803,36.664,16.57,29.788,23.265,11.639,6.26,6.341
833,0.813,36.518,16.516,29.778,23.251,11.56,6.18,6.14
834,0.829,36.602,16.543,29.759,23.251,11.64,6.179,6.138
835,0.83,36.718,16.567,29.788,23.254,11.56,6.179,6.219
836,0.852,36.72,16.575,29.769,23.258,11.6,6.22,6.22
837,0.833,36.854,16.555,29.778,23.251,11.519,6.18,6.139
838,0.823,36.961,16.559,29.74,23.244,11.396,6.139,6.138
839,0.817,37.067,16.528,29.749,23.251,11.354,6.179,6.138
840,0.833,36.522,16.531,29.749,23.251,11.313,6.139,6.138
841,0.836,36.641,16.578,29.749,23.247,11.232,6.179,6.138
842,0.826,36.748,16.579,29.73,23.247,11.109,6.139,6.138
843,0.83,36.873,16.489,29.778,23.258,11.23,6.301,6.301
844,0.833,36.625,16.543,29.788,23.258,11.19,6.302,6.14
845,0.826,36.728,16.52,29.75,23.251,11.068,6.302,6.179
846,0.81,36.863,16.563,29.768,23.254,11.148,6.262,6.22
847,0.813,36.932,16.559,29.759,23.261,11.149,6.262,6.22
848,0.826,36.635,16.563,29.759,23.258,11.108,6.221,6.22
849,0.807,36.767,16.512,29.759,23.247,11.026,6.017,6.098
850,0.781,36.845,16.492,29.73,23.247,10.985,6.137,6.219
851,0.8,36.922,16.535,29.759,23.251,10.984,6.179,6.18
852,0.794,36.453,16.602,29.749,23.251,10.944,6.22,6.179
853,0.797,36.563,16.505,29.74,23.244,10.902,6.139,6.098
854,0.81,36.68,16.531,29.759,23.251,10.861,6.341,6.178
855,0.829,36.738,16.57,29.778,23.265,10.942,6.343,6.301
856,0.846,36.662,16.567,29.75,23.251,10.74,6.262,6.18
857,0.817,36.767,16.567,29.759,23.254,10.657,6.18,6.301
858,0.836,36.893,16.61,29.759,23.254,10.615,6.301,6.221
859,0.856,39.205,16.524,29.769,23.254,10.655,6.302,6.22
860,0.836,41.261,16.531,29.759,23.251,10.574,6.221,6.139
861,0.836,41.291,16.574,29.721,23.247,10.492,6.22,6.219
862,0.856,41.387,16.575,29.759,23.254,10.532,6.22,6.18
863,0.823,35.385,16.544,29.749,23.258,10.492,6.18,6.139
864,0.813,34.51,16.516,29.74,23.241,10.41,6.139,6.138
865,0.81,34.684,16.555,29.74,23.24,10.45,6.179,6.179
866,0.816,34.829,16.582,29.768,23.261,10.654,6.342,6.301
867,0.826,37.247,16.567,29.749,23.258,10.574,6.262,6.14
868,0.826,37.444,16.547,29.73,23.258,10.574,6.302,6.219
869,0.817,37.551,16.52,29.759,23.251,10.614,6.302,6.302
870,0.836,37.648,16.531,29.759,23.254,10.574,6.302,6.302
871,0.82,36.192,16.551,29.749,23.258,10.614,6.262,6.262
872,0.787,36.302,16.555,29.711,23.244,10.533,6.18,6.099
873,0.806,36.418,16.5,29.739,23.254,10.614,6.22,6.219
874,0.829,36.515,16.512,29.74,23.251,10.655,6.22,6.139
875,0.836,36.526,16.508,29.72,23.251,10.615,6.18,6.179
876,0.817,36.679,16.512,29.73,23.244,10.574,6.098,6.261
877,0.813,36.796,16.543,29.711,23.247,10.655,6.3,6.302
878,0.842,36.855,16.61,29.749,23.258,10.737,6.343,6.302
879,0.826,36.443,16.567,29.768,23.251,10.616,6.221,6.221
880,0.856,36.582,16.563,29.721,23.258,10.655,6.22,6.18
881,0.827,36.67,16.586,29.711,23.258,10.656,6.22,6.139
882,0.856,36.719,16.555,29.72,23.258,10.574,6.342,6.26
883,0.84,36.566,16.567,29.73,23.254,10.614,6.262,6.221
884,0.82,36.66,16.532,29.682,23.237,10.493,6.139,6.139
885,0.82,36.786,16.531,29.701,23.254,10.654,6.26,6.179
886,0.81,37.017,16.531,29.691,23.254,10.737,6.18,6.179
887,0.807,36.54,16.535,29.682,23.251,10.738,6.139,6.139
888,0.816,36.67,16.52,29.672,23.244,10.738,6.179,6.057
889,0.826,36.757,16.539,29.701,23.254,10.9,6.301,6.341
890,0.839,36.547,16.571,29.73,23.265,11.065,6.343,6.303
891,0.794,36.507,16.528,29.692,23.251,10.985,6.181,6.262
892,0.81,36.631,16.586,29.691,23.254,11.066,6.22,6.262
893,0.82,36.747,16.548,29.672,23.258,11.107,6.22,6.221
894,0.83,36.336,16.547,29.701,23.258,11.067,6.302,6.261
895,0.843,36.428,16.551,29.672,23.251,10.985,6.14,6.139
896,0.836,36.525,16.532,29.643,23.244,10.862,6.138,6.219
897,0.817,36.65,16.547,29.672,23.251,10.902,6.179,6.261
898,0.836,36.383,16.578,29.662,23.247,10.861,6.139,6.221
899,0.843,36.515,16.524,29.653,23.247,10.82,6.138,6.18
900,0.862,36.65,16.516,29.643,23.247,10.739,6.179,6.098
901,0.853,36.719,16.539,29.662,23.258,10.819,6.261,6.382
902,0.872,36.422,16.578,29.672,23.258,10.82,6.221,6.222
903,0.85,36.534,16.559,29.691,23.254,10.739,6.18,6.261
904,0.869,36.67,16.559,29.643,23.244,10.697,6.22,6.343
905,0.879,36.719,16.61,29.643,23.254,10.778,6.18,6.303
906,0.85,36.365,16.579,29.652,23.258,10.738,6.261,6.262
907,0.853,36.505,16.567,29.633,23.251,10.738,6.017,6.139
908,0.872,36.602,16.567,29.604,23.247,10.86,6.178,6.179
909,0.859,36.651,16.493,29.623,23.254,10.942,6.098,6.22
910,0.882,36.441,16.512,29.623,23.251,10.943,6.138,6.22
911,0.882,36.563,16.52,29.614,23.244,11.024,6.138,6.302
912,0.879,36.68,16.543,29.604,23.247,11.107,6.179,6.302
913,0.898,36.719,16.481,29.662,23.265,11.311,6.301,6.343
914,0.918,36.48,16.527,29.633,23.251,11.232,6.14,6.262
915,0.909,36.554,16.52,29.604,23.254,11.19,6.179,6.302
916,0.905,36.68,16.52,29.614,23.251,11.271,6.179,6.262
917,0.908,36.499,16.539,29.604,23.251,11.394,6.22,6.221
918,0.912,36.363,16.559,29.614,23.254,11.436,6.22,6.261
919,0.925,36.457,16.504,29.575,23.244,11.273,6.058,6.139
920,0.925,36.573,16.523,29.585,23.251,11.475,6.178,6.179
921,0.938,36.402,16.57,29.575,23.254,11.518,6.139,6.22
922,0.938,36.515,16.559,29.575,23.244,11.559,6.179,6.22
923,0.922,36.631,16.43,29.585,23.251,11.64,6.139,6.18
924,0.922,36.728,16.527,29.575,23.251,11.804,6.179,6.22
925,0.905,36.279,16.574,29.623,23.265,12.009,6.261,6.383
926,0.908,36.418,16.571,29.576,23.258,11.93,6.139,6.385
927,0.889,36.525,16.586,29.565,23.251,12.01,6.179,6.303
928,0.885,36.603,16.594,29.565,23.258,12.092,6.179,6.343
929,0.876,36.383,16.559,29.585,23.254,12.134,6.22,6.384
930,0.898,36.534,16.52,29.566,23.251,12.053,6.139,6.263
931,0.879,36.612,16.582,29.537,23.24,11.971,6.098,6.262
932,0.872,36.69,16.555,29.565,23.251,12.092,6.097,6.384
933,0.898,36.297,16.516,29.537,23.247,12.012,6.138,6.263
934,0.902,36.428,16.531,29.536,23.251,12.052,6.057,6.262
935,0.915,36.534,16.489,29.536,23.251,12.052,6.056,6.262
936,0.915,36.593,16.519,29.565,23.258,12.133,6.259,6.424
937,0.944,36.411,16.551,29.575,23.265,12.093,6.221,6.304
938,0.945,36.515,16.582,29.537,23.251,11.93,6.22,6.302
939,0.961,36.631,16.532,29.536,23.254,11.929,6.22,6.302
940,0.955,36.661,16.52,29.556,23.258,11.888,6.18,6.384
941,0.948,36.355,16.598,29.527,23.254,11.766,6.22,6.385
942,0.951,36.505,16.552,29.527,23.247,11.561,6.098,6.222
943,0.912,36.574,16.551,29.575,23.244,11.6,6.219,6.342
944,0.892,36.661,16.547,29.527,23.254,11.56,6.22,6.343
945,0.915,36.307,16.547,29.517,23.251,11.478,6.139,6.303
946,0.889,36.447,16.563,29.507,23.244,11.396,6.098,6.262
947,0.876,36.554,16.536,29.498,23.251,11.436,6.178,6.262
948,0.876,36.334,16.61,29.526,23.261,11.639,6.301,6.465
949,0.866,36.457,16.517,29.527,23.258,11.601,6.221,6.345
950,0.889,36.544,16.539,29.527,23.254,11.519,6.22,6.384
951,0.892,36.641,16.594,29.517,23.254,11.64,6.22,6.385
952,0.902,36.258,16.544,29.517,23.254,11.641,6.22,6.344
953,0.908,36.398,16.586,29.555,23.251,11.601,6.261,6.303
954,0.905,36.486,16.509,29.479,23.244,11.519,6.099,6.18
955,0.912,36.554,16.531,29.488,23.244,11.599,6.178,6.301
956,0.925,36.267,16.528,29.498,23.251,11.722,6.22,6.221
957,0.899,36.399,16.512,29.469,23.244,11.642,6.22,6.22
958,0.882,36.515,16.531,29.488,23.244,11.682,6.22,6.261
959,0.876,36.602,16.496,29.488,23.251,11.845,6.302,6.424
960,0.902,36.373,16.547,29.498,23.265,12.009,6.262,6.344
961,0.876,36.467,16.539,29.488,23.251,11.97,6.221,6.262
962,0.863,36.583,16.594,29.469,23.258,12.051,6.22,6.343
963,0.84,36.661,16.548,29.488,23.254,12.052,6.261,6.303
964,0.839,36.297,16.539,29.488,23.258,12.174,6.262,6.302
965,0.817,36.428,16.532,29.488,23.244,12.175,6.058,6.18
966,0.81,36.496,16.508,29.45,23.244,12.094,6.137,6.301
967,0.8,36.583,16.551,29.459,23.251,12.174,6.219,6.262
968,0.784,36.287,16.59,29.459,23.254,12.175,6.18,6.221
969,0.793,36.428,16.536,29.449,23.244,12.216,6.098,6.18
970,0.793,36.525,16.539,29.449,23.247,12.257,6.178,6.342
971,0.793,36.698,16.578,29.497,23.258,12.461,6.261,6.466
972,0.79,36.297,16.587,29.459,23.247,12.3,6.139,6.304
973,0.806,36.418,16.555,29.468,23.251,12.38,6.138,6.302
974,0.79,36.506,16.539,29.469,23.254,12.381,6.219,6.302
975,0.8,36.324,16.586,29.459,23.251,12.381,6.22,6.262
976,0.813,36.332,16.551,29.459,23.251,12.381,6.139,6.221
977,0.813,36.438,16.547,29.411,23.24,12.421,6.057,6.22
978,0.81,36.544,16.59,29.458,23.251,12.381,6.137,6.302
979,0.794,36.296,16.571,29.44,23.254,12.543,6.138,6.18
980,0.793,36.428,16.512,29.449,23.244,12.504,6.016,6.179
981,0.797,36.515,16.578,29.43,23.24,12.585,6.137,6.139
982,0.794,36.631,16.551,29.459,23.258,12.627,6.179,6.301
983,0.8,36.201,16.547,29.488,23.265,12.586,6.301,6.221
984,0.803,36.312,16.496,29.44,23.251,12.545,6.14,6.22
985,0.787,36.428,16.558,29.439,23.254,12.545,6.098,6.22
986,0.78,36.506,16.551,29.439,23.258,12.626,6.138,6.261
987,0.758,36.248,16.582,29.459,23.254,12.708,6.219,6.139
988,0.748,36.37,16.524,29.44,23.244,12.709,5.976,6.016
989,0.718,36.448,16.535,29.42,23.251,12.872,6.096,6.218
990,0.734,36.535,16.555,29.449,23.251,13.036,6.138,6.18
991,0.741,36.248,16.559,29.43,23.251,13.119,6.057,6.179
992,0.751,36.36,16.602,29.411,23.24,13.12,6.015,6.139
993,0.751,36.476,16.528,29.43,23.251,13.242,6.137,6.138
994,0.774,36.573,16.567,29.449,23.265,13.568,6.219,6.341
995,0.78,36.44,16.528,29.449,23.254,13.612,6.18,6.221
996,0.767,36.544,16.531,29.43,23.254,13.694,6.22,6.18
997,0.767,36.651,16.547,29.459,23.251,13.695,6.18,6.179
998,0.757,36.661,16.594,29.449,23.247,13.776,6.179,6.22
999,0.777,36.0,16.563,29.449,23.254,13.696,6.139,6.139
1000,0.78,36.127,16.524,29.411,23.244,13.573,6.016,6.016
1001,0.774,36.215,16.582,29.42,23.251,13.612,6.137,6.178
1002,0.78,36.331,16.524,29.449,23.254,13.531,6.098,6.098
1003,0.764,36.37,16.52,29.42,23.251,13.368,6.097,6.056
1004,0.774,36.476,16.555,29.411,23.247,13.204,6.138,6.097
1005,0.771,36.583,16.582,29.411,23.254,13.121,6.138,6.178
1006,0.774,36.143,16.587,29.449,23.265,13.201,6.341,6.261
1007,0.774,36.234,16.579,29.43,23.248,12.877,6.14,6.099
1008,0.774,36.322,16.587,29.43,23.251,12.751,6.138,6.138
1009,0.754,36.418,16.454,29.459,23.254,12.628,6.138,6.179
1010,0.741,36.189,16.558,29.44,23.258,12.546,6.138,6.22
1011,0.754,36.321,16.618,29.449,23.261,12.26,6.138,6.18
1012,0.738,36.418,16.536,29.42,23.241,12.054,6.016,6.057
1013,0.734,36.515,16.531,29.42,23.251,12.011,6.096,6.137
1014,0.757,36.104,16.516,29.43,23.254,11.808,6.138,6.219
1015,0.757,36.243,16.531,29.401,23.251,11.643,6.098,6.058
1016,0.748,36.36,16.555,29.41,23.247,11.479,6.016,6.137
1017,0.783,36.428,16.567,29.411,23.254,11.518,6.137,6.26
1018,0.8,36.103,16.594,29.468,23.268,11.477,6.26,6.302
1019,0.797,36.243,16.571,29.411,23.251,11.314,6.139,6.221
1020,0.81,36.36,16.516,29.411,23.254,11.232,6.138,6.18
1021,0.781,36.399,16.617,29.411,23.258,11.149,6.138,6.22
1022,0.784,36.266,16.536,29.42,23.258,11.067,6.219,6.302
1023,0.777,36.408,16.539,29.42,23.251,10.904,6.098,6.14
1024,0.754,36.496,16.512,29.382,23.244,10.739,6.097,6.138
1025,0.754,36.545,16.559,29.41,23.251,10.779,6.138,6.179
1026,0.754,36.162,16.551,29.411,23.251,10.738,6.057,6.139
1027,0.751,36.311,16.536,29.411,23.24,10.657,6.097,6.138
1028,0.761,36.399,16.582,29.401,23.247,10.574,6.056,6.098
1029,0.744,36.496,16.583,29.487,23.261,10.696,6.219,6.341
1030,0.767,36.161,16.551,29.45,23.258,10.697,6.18,6.221
1031,0.748,36.244,16.567,29.42,23.251,10.575,6.139,6.22
1032,0.751,36.35,16.547,29.42,23.247,10.574,6.138,6.18
1033,0.761,36.179,16.559,29.401,23.254,10.574,6.219,6.179
1034,0.754,36.254,16.504,29.43,23.251,10.574,6.098,6.261
1035,0.764,36.37,16.535,29.439,23.247,10.411,6.097,6.139
1036,0.751,36.448,16.547,29.392,23.237,10.328,6.056,6.138
1037,0.774,36.094,16.532,29.41,23.251,10.408,6.056,6.179
1038,0.79,36.215,16.59,29.411,23.247,10.369,6.056,6.22
1039,0.797,36.34,16.505,29.401,23.247,10.368,6.056,6.098
1040,0.794,36.428,16.535,29.401,23.247,10.328,6.015,6.138
1041,0.78,36.113,16.586,29.41,23.254,10.571,6.178,6.301
1042,0.816,36.282,16.61,29.43,23.258,10.492,6.098,6.18
1043,0.807,36.38,16.563,29.411,23.258,10.41,6.097,6.22
1044,0.8,36.457,16.532,29.439,23.254,10.409,6.138,6.261
1045,0.761,36.228,16.57,29.42,23.258,10.491,6.098,6.302
1046,0.751,36.36,16.579,29.42,23.258,10.491,6.138,6.262
1047,0.764,36.476,16.544,29.391,23.241,10.41,5.976,6.099
1048,0.761,36.487,16.582,29.401,23.247,10.409,6.055,6.138
1049,0.751,36.017,16.497,29.42,23.244,10.328,6.056,6.219
1050,0.764,36.156,16.531,29.391,23.247,10.327,6.056,6.18
1051,0.77,36.254,16.563,29.382,23.251,10.327,5.975,6.139
1052,0.764,36.303,16.559,29.41,23.251,10.286,6.137,6.301
1053,0.793,36.255,16.571,29.497,23.265,10.449,6.138,6.262
1054,0.777,36.37,16.532,29.402,23.254,10.288,6.098,6.221
1055,0.787,36.448,16.539,29.41,23.258,10.327,6.138,6.22
1056,0.787,36.496,16.551,29.42,23.251,10.327,6.098,6.18
1057,0.836,36.18,16.547,29.411,23.258,10.246,6.056,6.22
1058,0.849,36.302,16.61,29.411,23.251,10.204,5.975,6.18
1059,0.853,36.389,16.548,29.382,23.24,10.123,6.015,6.057
1060,0.882,36.198,16.543,29.401,23.251,10.163,6.056,6.219
1061,0.934,36.196,16.567,29.401,23.244,10.082,6.056,6.18
1062,0.951,36.331,16.524,29.391,23.244,10.081,5.975,6.139
1063,0.958,36.418,16.547,29.401,23.244,10.04,6.055,6.179
1064,0.974,36.036,16.578,29.41,23.254,10.243,6.178,6.383
1065,0.994,36.156,16.61,29.439,23.265,10.164,6.098,6.303
1066,0.968,36.263,16.579,29.401,23.254,10.082,6.056,6.302
1067,0.99,36.36,16.571,29.391,23.251,10.081,6.137,6.343
1068,1.02,36.169,16.586,29.41,23.258,10.162,6.138,6.384
1069,1.046,36.321,16.571,29.42,23.261,10.122,6.138,6.344
1070,1.076,36.428,16.547,29.42,23.251,10.163,6.016,6.262
1071,1.099,36.477,16.543,29.372,23.237,10.163,6.015,6.302
1072,1.145,36.017,16.496,29.41,23.251,10.244,6.137,6.384
1073,1.197,36.166,16.554,29.391,23.247,10.245,6.057,6.344
1074,1.253,36.263,16.532,29.401,23.244,10.204,6.056,6.425
1075,1.292,36.303,16.582,29.391,23.247,10.163,6.056,6.385
1076,1.345,36.025,16.571,29.41,23.258,10.326,6.178,6.547
1077,1.397,36.195,16.586,29.43,23.261,10.368,6.179,6.508
1078,1.369,36.273,16.563,29.392,23.254,10.246,6.139,6.549
1079,1.378,36.341,16.555,29.42,23.254,10.286,6.179,6.63
1080,1.404,36.169,16.536,29.411,23.258,10.245,6.139,6.509
1081,1.45,36.302,16.578,29.401,23.254,10.245,6.179,6.549
1082,1.454,36.399,16.508,29.41,23.251,10.164,6.057,6.549
1083,1.434,36.419,16.512,29.372,23.24,10.122,6.097,6.468
1084,1.421,35.997,16.551,29.391,23.251,10.244,6.138,6.589
1085,1.392,36.137,16.602,29.41,23.247,10.245,6.057,6.549
1086,1.395,36.234,16.595,29.391,23.244,10.326,6.056,6.508
1087,1.382,36.206,16.559,29.382,23.24,10.368,6.097,6.508
1088,1.349,36.168,16.567,29.391,23.258,10.612,6.219,6.752
1089,1.3,36.321,16.586,29.439,23.265,10.615,6.18,6.632
1090,1.238,36.399,16.571,29.411,23.251,10.574,6.22,6.712
1091,1.185,36.045,16.598,29.401,23.251,10.574,6.18,6.957
1092,1.142,36.128,16.54,29.41,23.251,10.574,6.139,7.082
1093,1.112,36.273,16.532,29.43,23.258,10.614,6.219,7.286
1094,1.067,36.341,16.535,29.411,23.247,10.411,6.098,7.369
1095,1.021,35.997,16.535,29.372,23.247,10.45,6.178,7.695
1096,0.965,36.156,16.547,29.41,23.244,10.41,6.179,7.943
1097,0.932,36.273,16.524,29.382,23.251,10.369,6.179,8.148
1098,0.827,36.351,16.563,29.381,23.247,10.328,6.139,8.435
1099,0.804,35.93,16.524,29.391,23.244,10.246,6.219,8.682
1100,0.768,36.069,16.543,29.429,23.261,10.448,6.302,9.05
1101,0.748,36.195,16.582,29.43,23.258,10.41,6.18,9.135
1102,0.699,36.235,16.583,29.392,23.251,10.409,6.261,9.299
1103,0.659,36.024,16.532,29.391,23.254,10.572,6.221,9.463
1104,0.646,36.147,16.512,29.401,23.254,10.696,6.261,9.587
1105,0.649,36.282,16.547,29.42,23.258,10.737,6.221,9.588
1106,0.649,36.341,16.532,29.411,23.247,10.738,6.139,9.588
1107,0.668,36.054,16.524,29.372,23.244,10.819,6.179,9.751
1108,0.717,36.205,16.594,29.4,23.254,10.861,6.22,9.833
1109,0.741,36.331,16.567,29.391,23.251,10.942,6.18,9.875
1110,0.754,36.351,16.532,29.391,23.247,10.902,6.139,9.957
1111,0.787,36.064,16.582,29.391,23.251,10.983,6.138,10.161
1112,0.823,36.224,16.563,29.439,23.265,11.228,6.341,10.569
1113,0.846,36.36,16.54,29.411,23.251,11.149,6.221,10.533
1114,0.833,36.447,16.535,29.391,23.251,11.189,6.22,10.777
1115,0.839,35.978,16.59,29.391,23.251,11.149,6.22,10.982
1116,0.843,36.137,16.548,29.41,23.258,11.23,6.261,11.228
1117,0.843,36.263,16.551,29.411,23.254,11.149,6.262,11.312
1118,0.853,36.005,16.559,29.372,23.247,10.986,6.058,11.313
1119,0.869,36.06,16.575,29.381,23.251,11.025,6.219,11.516
1120,0.879,36.205,16.579,29.381,23.247,11.025,6.18,11.721
1121,0.872,36.312,16.594,29.381,23.247,10.863,6.179,11.805
1122,0.856,35.939,16.587,29.439,23.244,10.82,6.098,11.846
1123,0.849,36.088,16.524,29.392,23.244,10.82,6.138,11.928
1124,0.856,36.224,16.547,29.429,23.265,10.901,6.301,12.091
1125,0.866,36.321,16.535,29.411,23.258,10.739,6.221,11.93
1126,0.84,35.881,16.516,29.401,23.251,10.575,6.22,11.848
1127,0.836,36.049,16.547,29.41,23.251,10.614,6.18,11.847
1128,0.83,36.166,16.571,29.391,23.254,10.493,6.22,11.806
1129,0.833,36.254,16.524,29.42,23.258,10.451,6.22,11.724
1130,0.83,35.948,16.555,29.401,23.251,10.369,6.098,11.479
1131,0.826,36.041,16.579,29.391,23.247,10.287,6.178,11.518
1132,0.826,36.176,16.579,29.391,23.244,10.286,6.22,11.437
1133,0.846,36.244,16.579,29.42,23.251,10.164,6.22,11.233
1134,0.843,36.005,16.555,29.382,23.247,10.082,6.22,11.068
1135,0.849,36.147,16.575,29.381,23.247,9.999,6.139,11.148
1136,0.853,36.282,16.583,29.41,23.258,10.121,6.341,11.23
1137,0.869,36.341,16.567,29.42,23.251,9.959,6.221,10.946
1138,0.869,36.016,16.551,29.391,23.254,9.876,6.22,10.821
1139,0.869,36.166,16.578,29.382,23.258,9.835,6.22,10.698
1140,0.869,36.292,16.551,29.391,23.254,9.875,6.22,10.656
1141,0.866,36.303,16.567,29.391,23.247,9.997,6.22,10.534
1142,0.862,35.987,16.547,29.391,23.24,9.917,6.098,10.207
1143,0.846,36.108,16.535,29.391,23.254,10.161,6.138,10.163
1144,0.83,36.234,16.555,29.41,23.254,10.326,6.138,10.163
1145,0.843,36.015,16.582,29.391,23.251,10.49,6.098,10.041
1146,0.839,35.993,16.575,29.372,23.244,10.491,6.138,9.918
1147,0.83,36.127,16.551,29.381,23.251,10.695,6.179,9.876
1148,0.836,36.244,16.586,29.42,23.265,10.981,6.301,9.916
1149,0.83,35.938,16.571,29.411,23.254,10.862,6.14,9.713
1150,0.823,36.04,16.567,29.42,23.251,10.861,6.219,9.548
1151,0.823,36.166,16.579,29.411,23.251,10.861,6.261,9.588
1152,0.839,36.254,16.524,29.42,23.258,10.902,6.18,9.466
1153,0.852,35.9,16.539,29.401,23.247,10.902,6.098,9.221
1154,0.83,36.011,16.582,29.372,23.244,10.821,6.097,9.137
1155,0.846,36.147,16.54,29.4,23.247,10.861,6.178,9.136
1156,0.859,36.225,16.563,29.391,23.254,10.902,6.057,9.014
1157,0.869,35.938,16.586,29.372,23.251,10.902,6.137,8.891
1158,0.863,36.079,16.583,29.372,23.247,10.943,6.098,8.849
1159,0.862,36.215,16.567,29.4,23.258,11.187,6.219,8.889
1160,0.885,36.302,16.54,29.41,23.265,11.23,6.058,8.768
1161,0.863,35.833,16.594,29.391,23.251,11.271,6.137,8.726
1162,0.856,35.972,16.516,29.401,23.254,11.394,6.179,8.603
1163,0.836,36.118,16.547,29.41,23.254,11.598,6.179,8.602
1164,0.839,36.177,16.543,29.401,23.254,11.641,6.179,8.521
1165,0.862,35.957,16.602,29.382,23.244,11.641,5.976,8.317
1166,0.862,36.069,16.587,29.372,23.247,11.723,6.137,8.356
1167,0.859,36.214,16.587,29.391,23.254,11.723,6.098,8.275
1168,0.846,36.225,16.575,29.382,23.247,11.805,6.138,8.193
1169,0.823,35.938,16.571,29.381,23.244,11.806,6.057,8.151
1170,0.823,36.05,16.52,29.391,23.247,11.846,6.178,8.15
1171,0.839,36.185,16.57,29.41,23.268,11.969,6.383,8.15
1172,0.836,36.091,16.579,29.411,23.251,11.726,6.141,8.028
1173,0.862,35.975,16.52,29.401,23.251,11.764,6.138,7.987
1174,0.849,36.089,16.531,29.401,23.254,11.683,6.179,7.946
1175,0.862,36.205,16.559,29.401,23.261,11.683,6.179,7.864
1176,0.862,35.861,16.551,29.401,23.254,11.56,6.139,7.822
1177,0.866,35.886,16.559,29.372,23.244,11.397,6.057,7.659
1178,0.846,36.021,16.606,29.372,23.251,11.395,6.097,7.739
1179,0.862,36.137,16.563,29.4,23.251,11.354,6.178,7.659
1180,0.862,35.851,16.524,29.401,23.254,11.395,6.098,7.617
1181,0.879,35.972,16.566,29.372,23.247,11.354,6.097,7.495
1182,0.866,36.108,16.54,29.391,23.251,11.435,6.219,7.616
1183,0.869,36.224,16.52,29.42,23.272,11.517,6.302,7.657
1184,0.872,35.823,16.555,29.411,23.251,11.477,6.18,7.495
1185,0.859,35.924,16.621,29.391,23.251,11.477,6.22,7.453
1186,0.862,36.05,16.575,29.41,23.254,11.436,6.261,7.371
1187,0.859,36.138,16.555,29.411,23.258,11.436,6.262,7.411
1188,0.859,35.937,16.579,29.43,23.258,11.314,6.221,7.33
1189,0.859,36.05,16.555,29.372,23.244,11.191,6.139,7.207
1190,0.849,36.185,16.571,29.41,23.261,11.312,6.219,7.328
1191,0.843,36.235,16.571,29.391,23.247,11.313,6.22,7.248
1192,0.843,35.832,16.469,29.41,23.247,11.232,6.139,7.166
1193,0.859,35.953,16.511,29.382,23.244,11.231,6.098,7.124
1194,0.859,36.079,16.555,29.401,23.254,11.393,6.3,7.327
1195,0.879,36.147,16.567,29.439,23.261,11.395,6.302,7.126
1196,0.872,35.86,16.563,29.401,23.251,11.273,6.18,7.165
1197,0.879,35.992,16.586,29.41,23.254,11.231,6.261,7.165
1198,0.892,36.108,16.579,29.401,23.251,11.19,6.262,7.084
1199,0.886,36.311,16.571,29.41,23.254,11.23,6.221,7.123
1200,0.882,35.92,16.547,29.401,23.251,11.068,6.22,6.921
1201,0.872,35.992,16.578,29.372,23.24,10.904,6.22,6.919
1202,0.885,36.156,16.52,29.41,23.254,10.902,6.139,6.919
1203,0.879,35.784,16.539,29.391,23.247,10.821,6.179,6.959
1204,0.879,35.799,16.551,29.382,23.247,10.698,6.098,6.919
1205,0.879,35.914,16.586,29.381,23.247,10.575,6.26,6.919
1206,0.879,36.059,16.575,29.41,23.265,10.655,6.302,7.0
1207,0.882,35.84,16.575,29.42,23.258,10.493,6.14,6.879
1208,0.863,35.944,16.559,29.401,23.251,10.329,6.26,6.877
1209,0.869,36.088,16.555,29.401,23.254,10.246,6.221,6.877
1210,0.872,36.167,16.563,29.42,23.258,10.164,6.302,6.918
1211,0.866,35.765,16.579,29.401,23.254,10.041,6.221,6.878
1212,0.84,35.885,16.551,29.401,23.237,9.836,6.098,6.674
1213,0.849,36.011,16.539,29.391,23.251,9.956,6.219,6.753
1214,0.882,36.108,16.578,29.391,23.251,9.835,6.18,6.754
1215,0.889,35.726,16.548,29.391,23.244,9.834,6.098,6.632
1216,0.902,35.856,16.567,29.382,23.24,9.753,6.178,6.753
1217,0.908,35.982,16.54,29.391,23.251,9.833,6.22,6.795
1218,0.905,36.079,16.606,29.439,23.258,9.997,6.302,6.836
1219,0.892,35.812,16.556,29.411,23.247,9.795,6.18,6.714
1220,0.886,35.934,16.536,29.411,23.251,9.875,6.22,6.713
1221,0.882,36.04,16.574,29.411,23.254,9.916,6.22,6.713
1222,0.895,36.099,16.497,29.43,23.254,9.998,6.22,6.713
1223,0.892,35.812,16.586,29.42,23.251,10.039,6.18,6.632
1224,0.889,35.915,16.532,29.382,23.244,9.918,6.057,6.631
1225,0.876,36.05,16.606,29.391,23.251,10.201,6.137,6.631
1226,0.882,36.061,16.599,29.41,23.254,10.163,6.138,6.59
1227,0.872,35.725,16.556,29.401,23.251,10.285,6.138,6.549
1228,0.869,35.856,16.582,29.401,23.244,10.367,6.098,6.63
1229,0.879,35.992,16.555,29.43,23.258,10.612,6.3,6.753
1230,0.876,35.792,16.543,29.43,23.258,10.574,6.14,6.714
1231,0.856,35.742,16.559,29.411,23.254,10.574,6.138,6.591
1232,0.866,35.866,16.454,29.43,23.251,10.574,6.219,6.631
1233,0.885,35.992,16.562,29.42,23.251,10.736,6.22,6.672
1234,0.898,35.763,16.551,29.43,23.261,10.738,6.18,6.631
1235,0.902,35.876,16.571,29.401,23.247,10.616,5.976,6.509
1236,0.899,35.982,16.567,29.41,23.247,10.655,6.096,6.589
1237,0.921,36.089,16.559,29.411,23.254,10.656,6.097,6.59
1238,0.905,35.831,16.61,29.401,23.24,10.696,6.097,6.509
1239,0.905,35.963,16.548,29.41,23.247,10.737,6.016,6.508
1240,0.905,36.079,16.535,29.391,23.247,10.738,6.096,6.589
1241,0.912,36.186,16.578,29.429,23.258,10.982,6.26,6.671
1242,0.915,35.583,16.516,29.42,23.251,10.862,6.18,6.509
1243,0.918,35.692,16.523,29.411,23.251,10.902,6.057,6.549
1244,0.899,35.827,16.551,29.42,23.254,10.861,6.178,6.63
1245,0.908,35.876,16.586,29.411,23.261,10.942,6.179,6.55
1246,0.912,35.695,16.571,29.439,23.258,10.862,6.179,6.508
1247,0.905,35.827,16.559,29.411,23.241,10.698,6.017,6.386
1248,0.882,35.924,16.59,29.42,23.254,10.778,6.137,6.466
1249,0.885,35.983,16.528,29.439,23.247,10.779,6.138,6.467
1250,0.892,35.724,16.535,29.43,23.251,10.657,6.098,6.426
1251,0.876,35.827,16.574,29.42,23.247,10.656,5.975,6.344
1252,0.872,35.953,16.458,29.449,23.247,10.615,6.177,6.628
1253,0.895,36.031,16.538,29.478,23.265,10.737,6.179,6.55
1254,0.912,35.696,16.547,29.43,23.254,10.575,6.139,6.508
1255,0.915,35.827,16.547,29.449,23.251,10.492,6.138,6.549
1256,0.918,35.934,16.524,29.449,23.254,10.41,6.138,6.468
1257,0.925,35.887,16.578,29.43,23.254,10.409,6.138,6.507
1258,0.931,35.743,16.598,29.43,23.251,10.287,6.057,6.345
1259,0.925,35.856,16.544,29.392,23.244,10.164,6.097,6.384
1260,0.935,35.982,16.559,29.41,23.251,10.163,6.097,6.466
1261,0.941,35.657,16.586,29.43,23.251,10.244,6.097,6.426
1262,0.941,35.75,16.52,29.42,23.254,10.164,6.016,6.385
1263,0.925,35.876,16.535,29.43,23.251,10.163,6.137,6.466
1264,0.925,36.011,16.531,29.468,23.265,10.204,6.219,6.629
1265,0.922,35.619,16.586,29.44,23.251,10.082,6.058,6.468
1266,0.918,35.769,16.54,29.43,23.247,10.04,6.178,6.426
1267,0.925,35.905,16.563,29.459,23.251,9.999,6.179,6.426
1268,0.918,35.973,16.594,29.449,23.258,9.917,6.179,6.466
1269,0.931,35.667,16.559,29.459,23.251,9.794,6.098,6.386
1270,0.905,35.779,16.504,29.43,23.244,9.712,6.016,6.466
1271,0.899,35.914,16.59,29.449,23.251,9.711,6.137,6.345
1272,0.915,35.992,16.563,29.449,23.244,9.589,6.057,6.343
1273,0.918,35.6,16.504,29.44,23.251,9.588,6.097,6.343
1274,0.928,35.721,16.547,29.439,23.244,9.507,6.056,6.384
1275,0.935,35.837,16.586,29.459,23.258,9.587,6.259,6.507
1276,0.958,35.944,16.594,29.488,23.254,9.466,6.058,6.427
1277,0.948,35.705,16.567,29.459,23.247,9.465,6.097,6.426
1278,0.954,35.837,16.571,29.459,23.251,9.465,6.138,6.344
1279,0.977,35.953,16.579,29.449,23.251,9.505,6.138,6.466
1280,0.974,36.002,16.571,29.449,23.254,9.465,6.098,6.386
1281,0.977,35.61,16.579,29.44,23.244,9.302,5.935,6.263
1282,0.974,35.74,16.551,29.439,23.251,9.382,6.136,6.343
1283,0.955,35.866,16.559,29.459,23.251,9.382,6.016,6.384
1284,0.958,36.116,16.551,29.449,23.251,9.382,6.015,6.344
1285,0.948,35.62,16.536,29.43,23.251,9.382,6.015,6.303
1286,0.945,35.75,16.582,29.459,23.247,9.301,6.137,6.384
1287,0.948,35.885,16.563,29.488,23.258,9.382,6.138,6.507
1288,0.967,35.839,16.606,29.469,23.251,9.301,6.057,6.386
1289,0.961,35.915,16.575,29.449,23.258,9.26,6.056,6.385
1290,0.964,36.04,16.524,29.478,23.258,9.259,6.097,6.466
1291,0.955,36.109,16.563,29.478,23.261,9.137,6.219,6.426
1292,0.974,35.62,16.454,29.497,23.258,9.217,6.058,6.426
1293,0.974,35.721,16.538,29.44,23.237,8.974,5.934,6.263
1294,0.964,35.827,16.512,29.459,23.254,9.013,6.014,6.343
1295,0.974,35.924,16.582,29.468,23.247,9.013,6.015,6.343
1296,0.984,35.628,16.548,29.459,23.251,8.972,5.974,6.303
1297,0.997,35.759,16.524,29.459,23.244,8.972,6.015,6.343
1298,1.004,35.885,16.563,29.468,23.251,9.094,6.096,6.466
1299,1.03,36.021,16.582,29.507,23.261,9.176,6.138,6.386
1300,1.03,35.763,16.579,29.469,23.251,9.055,6.057,6.344
1301,1.004,35.914,16.563,29.469,23.251,9.095,6.015,6.343
1302,1.014,36.021,16.586,29.488,23.251,9.136,6.015,6.425
1303,1.027,36.108,16.536,29.498,23.258,9.177,6.015,6.385
1304,1.007,35.687,16.555,29.478,23.254,9.177,5.893,6.222
1305,0.994,35.789,16.559,29.44,23.244,9.177,5.973,6.342
1306,1.0,35.924,16.551,29.478,23.251,9.259,5.974,6.343
1307,1.0,35.954,16.547,29.478,23.254,9.259,5.974,6.262
1308,0.994,35.82,16.567,29.459,23.247,9.3,5.974,6.221
1309,1.0,35.953,16.544,29.468,23.244,9.382,5.974,6.342
1310,0.997,36.079,16.555,29.488,23.258,9.545,6.177,6.506
1311,1.01,36.119,16.582,29.526,23.261,9.506,6.057,6.345
1312,1.004,35.783,16.563,29.479,23.251,9.425,5.975,6.303
1313,1.014,35.895,16.547,29.488,23.251,9.464,6.015,6.302
1314,1.027,36.011,16.559,29.488,23.251,9.505,6.015,6.302
1315,1.043,35.926,16.579,29.507,23.254,9.546,6.015,6.343
1316,1.059,35.925,16.54,29.488,23.244,9.344,5.893,6.262
1317,1.047,36.031,16.567,29.488,23.244,9.342,5.973,6.262
1318,1.059,36.147,16.602,29.488,23.251,9.464,6.055,6.262
1319,1.063,35.793,16.559,29.517,23.258,9.465,5.934,6.262
1320,1.056,35.886,16.551,29.479,23.247,9.383,5.933,6.221
1321,1.056,35.992,16.551,29.478,23.247,9.301,5.933,6.302
1322,1.063,36.127,16.555,29.574,23.261,9.585,6.177,6.425
1323,1.076,35.956,16.551,29.498,23.251,9.507,6.017,6.263
1324,1.063,36.05,16.563,29.507,23.251,9.425,6.056,6.302
1325,1.063,36.166,16.614,29.517,23.251,9.424,6.015,6.302
1326,1.066,36.273,16.567,29.517,23.258,9.505,6.056,6.384
1327,1.066,36.073,16.598,29.507,23.258,9.384,6.137,6.344
1328,1.076,36.195,16.583,29.488,23.241,9.179,5.935,6.181
1329,1.073,36.312,16.536,29.507,23.254,9.299,6.055,6.342
1330,1.092,36.37,16.567,29.517,23.247,9.138,6.015,6.343
1331,1.079,36.064,16.563,29.498,23.251,9.136,5.974,6.221
1332,1.066,36.253,16.547,29.507,23.244,9.136,5.974,6.22
1333,1.079,36.331,16.516,29.498,23.251,9.055,6.096,6.383
1334,1.089,36.39,16.57,29.545,23.265,9.176,6.26,6.466
1335,1.096,36.131,16.579,29.508,23.254,8.974,6.017,6.386
1336,1.112,36.244,16.575,29.507,23.251,8.972,6.096,6.303
1337,1.106,36.36,16.579,29.507,23.254,9.053,6.056,6.343
1338,1.106,36.39,16.587,29.526,23.254,9.135,6.137,6.384
1339,1.122,36.285,16.555,29.527,23.254,9.055,6.057,6.222
1340,1.119,36.399,16.563,29.488,23.24,8.932,5.893,6.098
1341,1.132,36.505,16.567,29.507,23.251,9.093,6.014,6.3
1342,1.132,36.42,16.563,29.507,23.251,9.095,5.974,6.262
1343,1.122,36.199,16.501,29.526,23.251,9.136,6.015,6.18
1344,1.122,36.331,16.562,29.507,23.244,9.095,5.974,6.261
1345,1.129,36.438,16.563,29.536,23.254,9.217,6.096,6.343
1346,1.125,36.343,16.59,29.546,23.258,9.218,6.097,6.303
1347,1.109,36.428,16.583,29.527,23.251,9.137,5.975,6.302
1348,1.102,36.544,16.575,29.517,23.254,9.177,6.015,6.302
1349,1.109,36.651,16.579,29.536,23.254,9.259,6.137,6.343
1350,1.109,36.297,16.559,29.527,23.258,9.219,6.057,6.303
1351,1.112,36.437,16.61,29.517,23.241,9.056,5.934,6.14
1352,1.112,36.535,16.591,29.594,23.251,9.257,6.055,6.26
1353,1.125,36.622,16.567,29.527,23.251,9.341,5.934,6.302
1354,1.119,36.479,16.551,29.527,23.247,9.342,5.974,6.221
1355,1.142,36.602,16.59,29.507,23.24,9.504,5.974,6.261
1356,1.135,36.728,16.575,29.546,23.254,9.668,6.177,6.384
1357,1.145,36.835,16.559,29.575,23.254,9.792,6.098,6.385
1358,1.135,36.433,16.559,29.546,23.258,9.956,6.016,6.344
1359,1.151,36.592,16.571,29.565,23.254,10.161,6.056,6.343
1360,1.158,36.709,16.586,29.537,23.258,10.366,6.056,6.303
1361,1.161,36.739,16.567,29.546,23.258,10.49,6.097,6.384
1362,1.158,36.595,16.575,29.527,23.241,10.491,5.975,6.222
1363,1.142,36.709,16.559,29.527,23.251,10.654,6.055,6.22
1364,1.145,36.815,16.559,29.546,23.247,10.859,6.015,6.261
1365,1.129,36.855,16.563,29.536,23.251,10.82,6.015,6.221
1366,1.132,36.644,16.532,29.536,23.251,10.901,5.934,6.18
1367,1.119,36.767,16.547,29.527,23.251,10.943,6.055,6.261
1368,1.119,36.902,16.571,29.575,23.268,11.106,6.178,6.384
1369,1.129,37.23,16.559,29.556,23.248,10.904,6.017,6.303
1370,1.116,36.811,16.547,29.546,23.254,10.861,6.096,6.343
1371,1.109,36.931,16.567,29.565,23.254,10.78,6.097,6.343
1372,1.115,37.038,16.579,29.565,23.251,10.779,6.138,6.303
1373,1.115,36.694,16.551,29.575,23.254,10.738,6.016,6.221
1374,1.106,36.671,16.598,29.527,23.24,10.575,5.974,6.098
1375,1.109,36.805,16.587,29.555,23.251,10.614,6.015,6.219
1376,1.112,36.922,16.532,29.546,23.251,10.615,6.015,6.18
1377,1.102,36.635,16.551,29.536,23.251,10.574,5.974,6.261
1378,1.099,36.757,16.543,29.546,23.244,10.492,6.015,6.221
1379,1.076,36.921,16.563,29.565,23.254,10.532,6.056,6.383
1380,1.102,37.019,16.586,29.585,23.265,10.532,6.137,6.303
1381,1.086,36.847,16.583,29.566,23.254,10.451,6.138,6.262
1382,1.089,36.999,16.583,29.556,23.254,10.328,6.098,6.18
1383,1.083,37.125,16.551,29.565,23.254,10.327,6.056,6.301
1384,1.057,37.184,16.563,29.585,23.254,10.327,6.097,6.302
1385,1.056,36.82,16.575,29.546,23.247,10.043,5.975,6.099
1386,1.021,36.912,16.528,29.546,23.244,10.121,6.055,6.219
1387,1.023,37.076,16.563,29.575,23.251,10.081,6.056,6.22
1388,1.023,37.116,16.575,29.565,23.247,9.999,6.056,6.139
1389,1.014,36.791,16.579,29.546,23.247,9.958,5.975,6.138
1390,1.001,36.941,16.563,29.575,23.251,9.917,6.055,6.219
1391,0.991,37.057,16.563,29.604,23.268,10.12,6.219,6.342
1392,0.974,37.116,16.524,29.604,23.248,9.878,6.017,6.221
1393,0.964,37.011,16.512,29.575,23.254,9.794,6.137,6.22
1394,0.99,37.125,16.582,29.585,23.251,9.834,6.179,6.261
1395,0.974,37.251,16.61,29.585,23.254,9.794,6.139,6.221
1396,0.977,37.252,16.579,29.594,23.258,9.712,6.057,6.139
1397,0.958,36.945,16.575,29.546,23.251,9.508,6.015,6.138
1398,0.948,37.077,16.567,29.584,23.247,9.628,6.056,6.138
1399,0.938,37.183,16.559,29.585,23.251,9.466,6.097,6.179
1400,0.945,36.983,16.571,29.575,23.251,9.505,6.056,6.098
1401,0.941,36.952,16.547,29.556,23.251,9.384,6.056,6.138
1402,0.935,37.077,16.539,29.575,23.254,9.423,6.259,6.301
1403,0.938,37.212,16.543,29.623,23.265,9.505,6.18,6.221
1404,0.922,36.935,16.578,29.576,23.251,9.303,6.139,6.22
1405,0.918,37.048,16.61,29.585,23.251,9.26,6.179,6.22
1406,0.915,37.174,16.587,29.604,23.258,9.259,6.22,6.18
1407,0.905,37.28,16.571,29.595,23.258,9.219,6.139,6.261
1408,0.899,36.859,16.547,29.575,23.251,9.015,6.057,6.058
1409,0.873,36.989,16.571,29.575,23.247,9.013,6.137,6.137
1410,0.882,37.125,16.567,29.585,23.254,8.972,6.098,6.179
1411,0.869,37.174,16.579,29.575,23.247,8.891,6.138,6.179
1412,0.866,37.002,16.563,29.594,23.244,8.768,6.057,6.179
1413,0.853,37.135,16.536,29.585,23.251,8.767,6.137,6.139
1414,0.862,37.299,16.574,29.604,23.265,8.848,6.219,6.301
1415,0.862,37.339,16.606,29.595,23.251,8.727,6.18,6.221
1416,0.872,36.956,16.548,29.594,23.254,8.685,6.179,6.22
1417,0.866,37.096,16.571,29.604,23.254,8.644,6.22,6.139
1418,0.853,37.222,16.547,29.614,23.254,8.684,6.22,6.219
1419,0.856,37.262,16.543,29.614,23.258,8.562,6.18,6.139
1420,0.843,37.089,16.602,29.585,23.244,8.643,6.098,6.098
1421,0.856,37.231,16.501,29.613,23.258,8.765,6.138,6.138
1422,0.846,37.358,16.57,29.604,23.254,8.807,6.179,6.098
1423,0.833,37.397,16.544,29.585,23.251,8.726,6.098,6.097
1424,0.836,36.899,16.594,29.566,23.244,8.888,6.097,6.138
1425,0.843,37.047,16.595,29.613,23.254,9.052,6.26,6.301
1426,0.846,37.174,16.598,29.652,23.258,9.135,6.221,6.18
1427,0.836,37.184,16.567,29.614,23.251,9.095,6.139,6.139
1428,0.83,37.098,16.61,29.604,23.254,9.136,6.219,6.179
1429,0.817,37.241,16.595,29.623,23.258,9.136,6.18,6.179
1430,0.807,37.348,16.548,29.643,23.254,9.258,6.179,6.22
1431,0.803,37.033,16.594,29.614,23.251,9.178,6.139,6.017
1432,0.797,37.087,16.513,29.595,23.24,9.096,6.057,6.096
1433,0.8,37.26,16.531,29.623,23.254,9.176,6.056,6.138
1434,0.8,37.31,16.551,29.623,23.251,9.177,6.137,6.098
1435,0.803,37.013,16.582,29.604,23.247,9.218,6.016,6.138
1436,0.816,37.154,16.567,29.595,23.244,9.137,6.137,6.098
1437,0.8,37.27,16.563,29.642,23.254,9.258,6.26,6.3
1438,0.8,37.396,16.563,29.643,23.258,9.3,6.221,6.14
1439,0.8,36.947,16.555,29.624,23.251,9.26,6.139,6.138
1440,0.82,37.096,16.555,29.643,23.254,9.259,6.138,6.138
1441,0.83,37.184,16.571,29.633,23.265,9.341,6.138,6.219
1442,0.843,37.299,16.579,29.643,23.258,9.342,6.138,6.18
1443,0.82,36.984,16.532,29.624,23.244,9.342,5.976,6.017
1444,0.803,37.086,16.555,29.614,23.254,9.382,6.096,6.137
1445,0.807,37.222,16.551,29.642,23.251,9.423,6.178,6.138
1446,0.79,37.29,16.528,29.633,23.251,9.424,6.139,6.179
1447,0.793,37.07,16.535,29.614,23.247,9.464,6.016,6.139
1448,0.777,37.202,16.539,29.604,23.247,9.505,6.096,6.138
1449,0.787,37.348,16.567,29.671,23.265,9.668,6.219,6.26
1450,0.793,37.378,16.544,29.643,23.251,9.507,6.139,6.221
1451,0.787,36.985,16.571,29.643,23.251,9.587,6.179,6.18
1452,0.797,37.134,16.575,29.662,23.251,9.507,6.139,6.22
1453,0.803,37.242,16.559,29.662,23.258,9.628,6.219,6.261
1454,0.807,37.569,16.594,29.653,23.251,9.588,6.058,6.139
1455,0.816,37.15,16.575,29.633,23.237,9.425,6.015,6.138
1456,0.82,37.299,16.555,29.662,23.247,9.586,6.096,6.179
1457,0.8,37.397,16.539,29.643,23.251,9.507,6.097,6.179
1458,0.797,37.052,16.539,29.633,23.244,9.465,6.056,6.098
1459,0.79,37.068,16.532,29.652,23.247,9.546,6.056,6.178
1460,0.826,37.212,16.586,29.662,23.258,9.628,6.259,6.261
1461,0.826,37.357,16.575,29.662,23.258,9.588,6.058,6.221
1462,0.82,36.966,16.544,29.662,23.251,9.588,6.137,6.18
1463,0.807,37.086,16.563,29.643,23.258,9.588,6.098,6.179
1464,0.803,37.212,16.622,29.643,23.251,9.588,6.178,6.139
1465,0.807,37.29,16.583,29.662,23.251,9.507,6.179,6.138
1466,0.8,37.09,16.54,29.643,23.247,9.465,6.057,6.057
1467,0.79,37.222,16.547,29.662,23.258,9.709,6.097,6.137
1468,0.79,37.367,16.543,29.662,23.254,9.833,6.097,6.138
1469,0.784,37.426,16.567,29.662,23.251,9.997,6.097,6.098
1470,0.787,37.024,16.559,29.662,23.247,10.324,5.975,6.178
1471,0.777,37.154,16.567,29.662,23.258,10.734,6.299,6.261
1472,0.793,37.318,16.547,29.7,23.258,10.982,6.18,6.221
1473,0.793,37.33,16.559,29.682,23.254,11.228,6.139,6.22
1474,0.793,36.994,16.571,29.672,23.254,11.312,6.138,6.139
1475,0.797,37.115,16.602,29.691,23.258,11.475,6.179,6.219
1476,0.82,37.241,16.567,29.701,23.258,11.599,6.22,6.22
1477,0.813,37.271,16.559,29.672,23.251,11.641,5.976,6.017
1478,0.8,37.032,16.508,29.653,23.247,11.723,6.055,6.137
1479,0.807,37.183,16.551,29.672,23.254,11.764,6.056,6.138
1480,0.813,37.299,16.614,29.653,23.251,11.764,6.056,6.057
1481,0.82,37.31,16.489,29.672,23.251,11.724,5.975,6.015
1482,0.807,37.032,16.519,29.662,23.251,11.642,6.096,6.137
1483,0.813,37.183,16.578,29.71,23.265,11.804,6.178,6.301
1484,0.826,37.299,16.614,29.691,23.254,11.643,6.139,6.14
1485,0.82,37.071,16.579,29.691,23.254,11.519,6.057,6.098
1486,0.8,37.011,16.579,29.691,23.251,11.437,6.097,6.178
1487,0.797,37.164,16.551,29.691,23.258,11.436,6.097,6.098
1488,0.794,37.261,16.633,29.701,23.251,11.233,6.097,6.138
1489,0.797,36.945,16.544,29.653,23.247,11.068,5.975,5.976
1490,0.784,37.048,16.563,29.691,23.254,11.026,6.055,6.096
1491,0.79,37.174,16.559,29.701,23.247,10.863,6.097,6.097
1492,0.774,37.261,16.504,29.701,23.244,10.739,6.016,6.056
1493,0.793,36.907,16.531,29.682,23.244,10.616,6.096,6.097
1494,0.803,37.067,16.535,29.681,23.254,10.615,6.097,6.138
1495,0.816,37.202,16.633,29.729,23.261,10.574,6.219,6.219
1496,0.816,37.261,16.575,29.701,23.251,10.411,6.098,6.18
1497,0.807,36.955,16.563,29.701,23.251,10.328,6.056,6.139
1498,0.813,37.096,16.54,29.701,23.251,10.286,6.097,6.179
1499,0.816,37.232,16.594,29.71,23.258,10.367,6.138,6.22
1500,0.829,37.281,16.591,29.701,23.254,10.246,6.098,6.098
1501,0.807,36.994,16.544,29.691,23.247,10.042,6.056,6.016
1502,0.829,37.135,16.551,29.672,23.251,10.08,6.056,6.137
1503,0.817,37.251,16.524,29.691,23.254,9.999,6.137,6.098
1504,0.813,37.3,16.582,29.682,23.254,9.917,6.138,6.097
1505,0.813,36.927,16.583,29.691,23.247,9.916,6.057,6.097
1506,0.803,37.057,16.516,29.691,23.251,9.916,6.137,6.219
1507,0.807,37.222,16.563,29.739,23.265,9.916,6.219,6.22
1508,0.81,37.214,16.555,29.701,23.254,9.794,6.098,6.18
1509,0.81,37.041,16.563,29.71,23.251,9.793,6.138,6.139
1510,0.803,37.173,16.59,29.72,23.251,9.834,6.179,6.179
1511,0.813,37.271,16.559,29.72,23.254,9.712,6.22,6.179
1512,0.82,37.281,16.571,29.739,23.251,9.752,6.139,6.139
1513,0.803,37.147,16.532,29.692,23.237,9.59,6.057,6.138
1514,0.79,37.29,16.582,29.691,23.254,9.751,6.137,6.098
1515,0.8,37.368,16.575,29.72,23.258,9.793,6.098,6.097
1516,0.807,36.889,16.555,29.72,23.244,9.793,6.097,6.138
1517,0.797,36.942,16.567,29.72,23.247,9.915,6.097,6.138
1518,0.81,37.077,16.52,29.73,23.258,10.12,6.178,6.219
1519,0.833,37.203,16.555,29.749,23.265,10.122,6.139,6.18
1520,0.83,37.118,16.594,29.711,23.251,10.203,6.138,6.179
1521,0.833,37.241,16.532,29.711,23.254,10.245,6.098,6.139
1522,0.843,37.358,16.57,29.72,23.254,10.286,6.138,6.179
1523,0.843,37.435,16.559,29.73,23.251,10.408,6.138,6.179
1524,0.823,36.899,16.606,29.711,23.254,10.328,5.935,6.139
1525,0.807,37.019,16.446,29.701,23.247,10.449,6.136,6.098
1526,0.807,37.154,16.523,29.72,23.261,10.491,6.138,6.138
1527,0.807,37.232,16.555,29.72,23.251,10.491,6.098,6.179
1528,0.8,37.041,16.5,29.711,23.251,10.451,6.097,6.139
1529,0.8,37.183,16.531,29.72,23.254,10.491,6.138,6.179
1530,0.813,37.309,16.598,29.749,23.265,10.573,6.301,6.342
1531,0.823,37.378,16.559,29.73,23.254,10.451,6.18,6.14
1532,0.813,36.975,16.563,29.739,23.254,10.41,6.22,6.219
1533,0.813,37.125,16.559,29.72,23.254,10.45,6.18,6.18
1534,0.803,37.232,16.618,29.73,23.254,10.41,6.179,6.22
1535,0.816,37.262,16.544,29.749,23.258,10.287,6.179,6.139
1536,0.82,37.041,16.551,29.711,23.241,10.123,6.017,5.976
1537,0.813,37.164,16.567,29.73,23.251,10.163,6.218,6.177
1538,0.82,37.29,16.501,29.73,23.254,10.122,6.18,6.179
1539,0.823,37.617,16.551,29.72,23.247,10.122,6.139,6.139
1540,0.817,36.997,16.594,29.73,23.24,10.081,6.138,6.057
1541,0.826,37.115,16.528,29.739,23.254,10.121,6.219,6.259
1542,0.836,37.27,16.543,29.759,23.265,10.244,6.342,6.18
1543,0.83,37.061,16.586,29.74,23.251,10.123,6.181,6.139
1544,0.823,37.097,16.61,29.759,23.251,10.163,6.179,6.179
1545,0.807,37.212,16.544,29.759,23.258,10.204,6.261,6.179
1546,0.81,37.329,16.555,29.759,23.258,10.245,6.302,6.22
1547,0.807,36.879,16.543,29.749,23.254,10.204,6.221,6.098
1548,0.797,36.951,16.539,29.73,23.244,10.082,6.098,6.097
1549,0.81,37.096,16.547,29.72,23.247,10.243,6.219,6.178
1550,0.823,37.184,16.575,29.73,23.251,10.245,6.18,6.179
1551,0.8,37.002,16.547,29.739,23.247,10.204,6.139,6.139
1552,0.807,37.144,16.535,29.74,23.244,10.163,6.219,6.179
1553,0.8,37.261,16.559,29.759,23.261,10.366,6.342,6.383
1554,0.823,37.348,16.606,29.759,23.258,10.246,6.262,6.181
1555,0.82,36.956,16.563,29.74,23.251,10.164,6.262,6.22
1556,0.82,37.096,16.582,29.74,23.251,10.285,6.343,6.302
1557,0.83,37.232,16.555,29.749,23.254,10.245,6.221,6.18
1558,0.836,37.3,16.532,29.778,23.258,10.245,6.261,6.22
1559,0.82,36.927,16.52,29.721,23.241,10.123,6.139,6.139
1560,0.81,37.057,16.582,29.749,23.251,10.284,6.219,6.138
1561,0.813,37.193,16.54,29.74,23.247,10.245,6.22,6.179
1562,0.816,37.233,16.547,29.73,23.247,10.245,6.139,6.098
1563,0.803,36.897,16.575,29.711,23.237,10.123,6.138,6.178
1564,0.81,37.038,16.583,29.739,23.247,10.284,6.26,6.179
1565,0.816,37.164,16.559,29.768,23.265,10.408,6.384,6.261
1566,0.797,37.165,16.571,29.759,23.251,10.206,6.222,6.139
1567,0.797,36.983,16.571,29.759,23.247,10.326,6.22,6.26
1568,0.8,37.125,16.544,29.769,23.251,10.246,6.22,6.18
1569,0.807,37.232,16.551,29.769,23.254,10.204,6.22,6.179
1570,0.8,37.041,16.563,29.759,23.254,10.245,6.18,6.179
1571,0.79,36.982,16.555,29.711,23.237,10.001,6.098,6.057
1572,0.774,37.115,16.52,29.758,23.251,10.039,6.178,6.219
1573,0.793,37.213,16.524,29.759,23.244,10.08,6.22,6.058
1574,0.787,36.945,16.594,29.749,23.251,9.959,6.18,6.137
1575,0.79,37.038,16.548,29.73,23.244,9.957,6.139,6.179
1576,0.797,37.164,16.586,29.759,23.254,9.917,6.219,6.301
1577,0.807,37.299,16.587,29.797,23.268,9.998,6.261,6.18
1578,0.807,36.773,16.47,29.778,23.251,9.795,6.221,6.22
1579,0.807,36.921,16.515,29.769,23.258,9.712,6.139,6.139
1580,0.813,37.048,16.586,29.769,23.251,9.711,6.138,6.179
1581,0.803,37.116,16.555,29.797,23.261,9.711,6.179,6.179
1582,0.829,36.887,16.532,29.769,23.247,9.63,6.098,6.017
1583,0.813,36.999,16.547,29.74,23.244,9.588,6.097,6.137
1584,0.803,37.125,16.586,29.778,23.254,9.751,6.138,6.179
1585,0.803,37.203,16.567,29.769,23.251,9.712,6.138,6.098
1586,0.781,36.782,16.559,29.759,23.244,9.752,6.057,6.097
1587,0.787,36.902,16.54,29.749,23.251,9.793,6.097,6.138
1588,0.784,37.047,16.547,29.768,23.261,9.996,6.3,6.26
1589,0.8,37.135,16.551,29.797,23.254,9.917,6.099,6.18
1590,0.781,36.925,16.59,29.778,23.251,9.916,6.097,6.179
1591,0.767,37.067,16.579,29.788,23.254,9.916,6.138,6.22
1592,0.767,37.183,16.575,29.788,23.258,9.957,6.138,6.22
1593,0.79,37.204,16.563,29.798,23.254,9.998,6.219,6.22
1594,0.793,36.907,16.555,29.759,23.244,9.917,6.058,6.058
1595,0.774,36.999,16.555,29.749,23.254,10.079,6.178,6.137
1596,0.79,37.144,16.543,29.768,23.247,10.121,6.139,6.138
1597,0.806,37.117,16.555,29.759,23.247,10.203,6.179,6.179
1598,0.797,36.944,16.536,29.769,23.247,10.123,6.057,6.098
1599,0.803,37.077,16.543,29.769,23.251,10.203,6.178,6.097
1600,0.816,37.203,16.614,29.797,23.265,10.448,6.22,6.219
1601,0.813,36.82,16.552,29.769,23.251,10.206,6.139,6.18
1602,0.807,36.845,16.547,29.778,23.251,10.245,6.179,6.179
1603,0.807,36.98,16.582,29.778,23.254,10.204,6.139,6.179
1604,0.803,37.058,16.59,29.788,23.261,10.204,6.179,6.22
1605,0.813,36.848,16.473,29.788,23.251,10.082,6.139,6.139
1606,0.787,36.941,16.531,29.74,23.237,9.878,6.057,6.098
1607,0.787,37.086,16.547,29.778,23.254,9.957,6.137,6.178
1608,0.784,37.164,16.512,29.759,23.254,9.876,6.098,6.179
1609,0.767,36.666,16.535,29.778,23.251,9.713,6.097,6.098
1610,0.767,36.776,16.606,29.778,23.244,9.711,6.097,6.219
1611,0.767,36.921,16.513,29.797,23.254,9.67,6.219,6.302
1612,0.787,37.038,16.566,29.826,23.261,9.751,6.22,6.221
1613,0.78,36.915,16.598,29.798,23.251,9.59,6.139,6.261
1614,0.797,37.047,16.598,29.798,23.258,9.629,6.138,6.18
1615,0.797,37.154,16.532,29.778,23.254,9.507,6.138,6.301
1616,0.8,37.222,16.524,29.817,23.258,9.546,6.138,6.221
1617,0.803,36.888,16.563,29.779,23.251,9.425,6.138,6.139
1618,0.797,36.99,16.528,29.759,23.24,9.383,6.098,6.138
1619,0.797,37.135,16.555,29.778,23.247,9.464,6.178,6.179
1620,0.813,37.155,16.594,29.759,23.244,9.424,6.179,6.139
1621,0.803,36.791,16.509,29.778,23.24,9.383,6.139,6.179
1622,0.803,36.931,16.562,29.778,23.251,9.464,6.138,6.179
1623,0.784,37.057,16.571,29.807,23.258,9.627,6.301,6.342
1624,0.787,37.413,16.606,29.817,23.254,9.588,6.18,6.221
1625,0.78,36.794,16.56,29.788,23.251,9.669,6.22,6.22
1626,0.78,36.912,16.551,29.798,23.254,9.711,6.261,6.261
1627,0.784,37.009,16.563,29.798,23.251,9.792,6.262,6.262
1628,0.78,36.837,16.485,29.798,23.258,9.793,6.262,6.221
1629,0.771,36.874,16.539,29.769,23.241,9.631,6.058,6.139
1630,0.764,36.999,16.606,29.788,23.254,9.751,6.259,6.179
1631,0.767,37.115,16.544,29.788,23.254,9.752,6.221,6.179
1632,0.757,36.733,16.563,29.788,23.251,9.671,6.18,6.139
1633,0.751,36.854,16.536,29.788,23.244,9.589,6.179,6.219
1634,0.764,36.97,16.586,29.807,23.254,9.669,6.301,6.342
1635,0.787,37.096,16.54,29.836,23.268,9.67,6.302,6.221
1636,0.797,36.675,16.567,29.798,23.254,9.548,6.302,6.22
1637,0.787,36.834,16.567,29.798,23.258,9.425,6.18,6.22
1638,0.787,36.96,16.59,29.807,23.247,9.464,6.301,6.261
1639,0.78,37.038,16.548,29.807,23.258,9.343,6.384,6.262
1640,0.793,36.799,16.598,29.798,23.244,9.26,6.141,6.18
1641,0.78,36.902,16.567,29.759,23.247,9.259,6.179,6.179
1642,0.797,37.047,16.544,29.797,23.251,9.3,6.301,6.22
1643,0.781,37.097,16.602,29.788,23.251,9.301,6.221,6.22
1644,0.797,36.752,16.598,29.788,23.247,9.219,6.139,6.098
1645,0.79,36.902,16.583,29.788,23.247,9.259,6.26,6.219
1646,0.787,37.038,16.563,29.817,23.258,9.422,6.384,6.342
1647,0.784,37.106,16.571,29.836,23.254,9.261,6.181,6.181
1648,0.754,36.81,16.61,29.788,23.254,9.259,6.261,6.22
1649,0.764,36.951,16.567,29.807,23.254,9.3,6.262,6.302
1650,0.774,37.067,16.594,29.798,23.254,9.341,6.262,6.343
1651,0.758,37.078,16.61,29.817,23.261,9.464,6.262,6.221
1652,0.761,36.781,16.56,29.779,23.244,9.262,6.099,6.18
1653,0.751,36.921,16.536,29.817,23.254,9.381,6.219,6.261
1654,0.761,37.019,16.543,29.798,23.251,9.342,6.22,6.139
1655,0.777,36.79,16.594,29.798,23.251,9.301,6.18,6.138
1656,0.767,36.711,16.567,29.788,23.24,9.26,6.179,6.179
1657,0.777,36.863,16.602,29.798,23.254,9.341,6.301,6.301
1658,0.79,36.999,16.579,29.846,23.265,9.423,6.221,6.262
1659,0.784,36.598,16.54,29.817,23.254,9.261,6.261,6.262
1660,0.79,36.709,16.578,29.807,23.258,9.3,6.221,6.221
1661,0.8,36.863,16.579,29.817,23.258,9.26,6.261,6.261
1662,0.813,36.942,16.524,29.798,23.251,9.3,6.262,6.262
1663,0.794,36.77,16.586,29.798,23.247,9.056,6.099,6.139
1664,0.774,36.893,16.567,29.798,23.244,9.135,6.178,6.26
1665,0.78,37.047,16.575,29.807,23.251,9.055,6.139,6.262
1666,0.78,37.126,16.54,29.807,23.247,8.973,6.179,6.099
1667,0.771,36.589,16.543,29.779,23.244,8.931,6.139,6.138
1668,0.761,36.709,16.485,29.817,23.244,8.89,6.179,6.138
1669,0.77,36.863,16.543,29.836,23.272,9.093,6.301,6.26
1670,0.774,36.951,16.621,29.817,23.251,8.932,6.14,6.18
1671,0.754,36.751,16.552,29.827,23.251,8.85,6.138,6.261
1672,0.748,36.864,16.551,29.817,23.258,8.889,6.219,6.262
1673,0.757,36.98,16.563,29.817,23.254,8.809,6.22,6.302
1674,0.774,37.019,16.571,29.817,23.251,8.767,6.18,6.262
1675,0.767,36.655,16.489,29.827,23.251,8.563,6.017,6.139
1676,0.774,36.748,16.551,29.808,23.254,8.643,6.218,6.179
1677,0.787,36.883,16.536,29.817,23.247,8.521,6.139,6.098
1678,0.78,36.894,16.567,29.817,23.251,8.479,6.138,6.097
1679,0.784,36.788,16.52,29.798,23.244,8.438,6.138,6.178
1680,0.79,36.883,16.602,29.769,23.247,8.357,6.179,6.139
1681,0.793,37.057,16.61,29.884,23.261,8.559,6.301,6.301
1682,0.813,37.011,16.563,29.818,23.251,8.399,6.221,6.18
1683,0.794,36.742,16.606,29.807,23.258,8.316,6.18,6.179
1684,0.784,36.883,16.599,29.836,23.254,8.274,6.179,6.139
1685,0.793,36.999,16.477,29.836,23.258,8.274,6.22,6.138
1686,0.784,36.674,16.55,29.817,23.258,8.193,6.18,6.179
1687,0.78,36.738,16.539,29.798,23.237,8.029,6.057,6.017
1688,0.758,36.864,16.469,29.836,23.251,8.19,6.178,6.137
1689,0.761,36.97,16.55,29.827,23.251,8.314,6.098,6.098
1690,0.751,36.578,16.594,29.817,23.244,8.356,6.178,6.178
1691,0.751,36.728,16.532,29.817,23.247,8.437,6.057,6.057
1692,0.751,36.825,16.559,29.817,23.247,8.601,6.178,6.178
1693,0.783,36.96,16.602,29.846,23.265,8.806,6.301,6.301
1694,0.774,36.626,16.575,29.808,23.254,8.767,6.14,6.14
1695,0.777,36.766,16.598,29.836,23.251,8.97,6.098,6.26
1696,0.777,36.883,16.571,29.846,23.254,9.094,6.178,6.139
1697,0.777,36.951,16.563,29.837,23.254,9.095,6.179,6.219
1698,0.774,36.674,16.512,29.836,23.251,9.095,6.098,6.058
1699,0.761,36.786,16.516,29.817,23.251,9.176,6.056,6.178
1700,0.787,36.922,16.602,29.817,23.247,9.218,6.097,6.179
1701,0.787,36.98,16.489,29.817,23.251,9.3,6.138,6.017
1702,0.787,36.569,16.551,29.817,23.244,9.26,6.016,6.096
1703,0.774,36.68,16.559,29.807,23.247,9.3,6.056,6.138
1704,0.767,36.815,16.633,29.846,23.254,9.544,6.259,6.219
1705,0.793,36.893,16.583,29.875,23.258,9.466,6.058,6.22
1706,0.774,36.731,16.555,29.846,23.251,9.465,6.137,6.139
1707,0.764,36.863,16.567,29.837,23.254,9.546,6.098,6.098
1708,0.761,36.999,16.504,29.856,23.254,9.466,6.138,6.26
1709,0.777,37.326,16.535,29.827,23.261,9.546,6.138,6.18
1710,0.761,36.658,16.59,29.827,23.247,9.425,5.976,6.057
1711,0.748,36.767,16.559,29.865,23.254,9.383,6.096,6.178
1712,0.764,36.883,16.555,29.827,23.251,9.382,6.056,6.139
1713,0.761,36.673,16.579,29.817,23.251,9.464,6.056,6.138
1714,0.764,36.709,16.614,29.817,23.251,9.505,6.015,6.098
1715,0.767,36.815,16.599,29.827,23.251,9.668,5.974,6.178
1716,0.783,36.912,16.528,29.875,23.254,9.833,6.218,6.301
1717,0.79,36.616,16.598,29.865,23.244,9.834,6.058,6.18
1718,0.78,36.728,16.563,29.856,23.251,9.916,6.015,6.179
1719,0.787,36.854,16.555,29.856,23.254,9.957,6.096,6.22
1720,0.784,36.941,16.606,29.856,23.258,9.998,6.056,6.22
1721,0.787,36.54,16.552,29.884,23.258,10.039,6.015,6.18
1722,0.787,36.641,16.532,29.827,23.241,9.836,5.893,6.057
1723,0.761,36.776,16.567,29.827,23.247,9.916,6.095,6.137
1724,0.77,36.874,16.625,29.836,23.247,9.916,6.097,6.138
1725,0.764,36.548,16.532,29.846,23.247,9.957,5.975,6.098
1726,0.748,36.689,16.551,29.817,23.244,9.835,5.974,6.097
1727,0.751,36.815,16.582,29.836,23.254,9.956,6.055,6.178
1728,0.767,36.922,16.563,29.951,23.261,10.039,6.097,6.22
1729,0.767,36.635,16.536,29.847,23.251,9.836,6.097,6.139
1730,0.751,36.757,16.613,29.846,23.251,9.916,6.097,6.138
1731,0.735,36.854,16.556,29.894,23.254,9.835,6.016,6.138
1732,0.734,36.903,16.524,29.866,23.261,9.794,6.137,6.219
1733,0.747,36.664,16.559,29.856,23.258,9.671,6.098,6.058
1734,0.754,36.738,16.618,29.837,23.237,9.548,5.975,6.056
1735,0.754,36.873,16.571,29.856,23.254,9.547,6.055,6.097
1736,0.774,36.913,16.594,29.856,23.251,9.588,5.975,6.138
1737,0.78,36.587,16.563,29.846,23.247,9.507,6.015,6.057
1738,0.79,36.709,16.54,29.856,23.251,9.425,6.015,6.056
1739,0.777,36.844,16.551,29.875,23.258,9.546,6.218,6.219
1740,0.793,36.654,16.618,29.865,23.258,9.547,6.139,6.058
1741,0.774,36.546,16.505,29.846,23.254,9.425,6.057,6.137
1742,0.777,36.67,16.558,29.865,23.251,9.505,6.137,6.098
1743,0.79,36.786,16.571,29.846,23.254,9.506,6.098,6.097
1744,0.787,36.538,16.602,29.856,23.254,9.506,6.138,6.219
1745,0.774,36.641,16.548,29.846,23.251,9.343,6.016,6.017
1746,0.748,36.748,16.563,29.837,23.244,9.423,6.056,6.056
1747,0.757,36.873,16.54,29.846,23.258,9.424,6.015,6.097
1748,0.754,36.568,16.559,29.913,23.247,9.342,6.056,6.056
1749,0.767,36.689,16.536,29.837,23.251,9.382,5.975,5.975
1750,0.748,36.825,16.594,29.846,23.251,9.423,6.096,6.218
1751,0.76,36.941,16.583,29.932,23.265,9.627,6.219,6.22
1752,0.744,36.453,16.524,29.885,23.254,9.426,6.139,6.139
1753,0.747,36.592,16.578,29.875,23.258,9.464,6.098,6.138
1754,0.767,36.718,16.575,29.875,23.258,9.546,6.097,6.179
1755,0.77,36.796,16.536,29.904,23.261,9.547,6.097,6.139
1756,0.761,36.49,16.543,29.856,23.247,9.425,5.935,5.976
1757,0.748,36.583,16.535,29.846,23.251,9.505,6.096,6.096
1758,0.757,36.709,16.582,29.865,23.251,9.465,6.097,6.138
1759,0.754,36.767,16.555,29.865,23.254,9.546,6.056,6.057
1760,0.761,36.49,16.586,29.856,23.251,9.466,6.097,6.056
1761,0.764,36.66,16.591,29.837,23.254,9.587,6.138,6.178
1762,0.777,36.786,16.579,29.894,23.265,9.832,6.138,6.22
1763,0.78,36.826,16.583,29.866,23.251,9.672,6.057,6.18
1764,0.771,36.548,16.559,29.885,23.251,9.751,6.097,6.22
1765,0.757,36.66,16.551,29.885,23.254,9.712,6.097,6.22
1766,0.738,36.767,16.594,29.875,23.254,9.711,6.138,6.22
1767,0.751,36.768,16.563,29.875,23.254,9.67,6.057,6.139
1768,0.748,36.519,16.52,29.856,23.244,9.629,5.934,6.016
1769,0.741,36.641,16.527,29.894,23.254,9.67,6.096,6.218
1770,0.738,36.757,16.629,29.866,23.247,9.67,6.097,6.139
1771,0.738,36.49,16.548,29.875,23.247,9.548,6.097,6.138
1772,0.741,36.545,16.575,29.865,23.247,9.466,6.056,6.138
1773,0.751,36.67,16.59,29.875,23.254,9.668,6.219,6.219
1774,0.78,36.796,16.641,29.913,23.258,9.629,6.139,6.22
1775,0.767,36.413,16.56,29.876,23.254,9.548,6.098,6.18
1776,0.777,36.553,16.567,29.875,23.251,9.506,6.138,6.179
1777,0.78,36.67,16.571,29.875,23.254,9.465,6.138,6.179
1778,0.803,36.786,16.563,29.885,23.254,9.424,6.179,6.261
1779,0.79,36.404,16.575,29.885,23.247,9.261,6.098,6.139
1780,0.771,36.515,16.54,29.846,23.251,9.3,6.097,6.098
1781,0.777,36.66,16.543,29.865,23.254,9.26,6.056,6.138
1782,0.787,36.748,16.578,29.865,23.247,9.219,6.097,6.057
1783,0.797,36.336,16.594,29.865,23.244,9.178,6.016,6.137
1784,0.807,36.466,16.548,29.875,23.251,9.096,6.137,6.179
1785,0.8,36.64,16.602,29.923,23.265,9.258,6.219,6.301
1786,0.794,36.709,16.552,29.895,23.254,9.137,6.098,6.221
1787,0.787,36.566,16.571,29.885,23.258,9.136,6.219,6.22
1788,0.78,36.689,16.544,29.885,23.254,9.136,6.18,6.302
1789,0.787,36.815,16.563,29.894,23.258,9.258,6.179,6.262
1790,0.787,36.845,16.618,29.894,23.258,9.178,6.098,6.262
1791,0.79,36.337,16.524,29.856,23.237,9.096,6.016,6.18
1792,0.793,36.447,16.547,29.894,23.251,9.136,6.137,6.22
1793,0.79,36.592,16.547,29.894,23.254,9.136,6.138,6.22
1794,0.806,36.948,16.625,29.866,23.251,9.136,6.098,6.22
1795,0.807,36.415,16.548,29.865,23.251,9.095,6.056,6.261
1796,0.82,36.563,16.559,29.913,23.254,9.136,6.178,6.343
1797,0.846,36.728,16.594,29.923,23.258,9.258,6.22,6.303
1798,0.846,36.48,16.571,29.895,23.251,9.056,6.22,6.302
1799,0.859,36.516,16.555,29.904,23.251,9.135,6.18,6.262
1800,0.859,36.622,16.571,29.904,23.258,9.136,6.179,6.221
1801,0.869,36.747,16.555,29.904,23.258,9.136,6.139,6.22
1802,0.882,36.26,16.543,29.875,23.244,8.933,6.016,6.139
1803,0.846,36.341,16.606,29.875,23.251,9.053,6.137,6.26
1804,0.853,36.495,16.606,29.885,23.251,8.932,6.138,6.221
1805,0.849,36.554,16.587,29.894,23.247,8.931,6.098,6.261
1806,0.846,36.354,16.559,29.885,23.244,8.89,6.056,6.18
1807,0.849,36.495,16.563,29.894,23.24,8.768,6.219,6.301
1808,0.859,36.65,16.602,29.923,23.265,9.011,6.261,6.465
1809,0.853,36.719,16.579,29.895,23.251,8.85,6.18,6.304
1810,0.833,36.278,16.594,29.904,23.254,8.727,6.139,6.425
1811,0.83,36.456,16.598,29.904,23.251,8.726,6.138,6.344
1812,0.83,36.564,16.544,29.914,23.258,8.726,6.138,6.425
1813,0.839,36.632,16.621,29.904,23.247,8.644,6.179,6.304
1814,0.833,36.306,16.599,29.875,23.237,8.521,6.017,6.262
1815,0.839,36.476,16.579,29.904,23.251,8.601,6.096,6.384
1816,0.849,36.583,16.579,29.904,23.254,8.521,6.097,6.303
1817,0.856,36.632,16.575,29.885,23.244,8.479,6.138,6.221
1818,0.859,36.383,16.575,29.894,23.251,8.438,6.098,6.342
1819,0.856,36.515,16.571,29.894,23.251,8.519,6.178,6.466
1820,0.859,36.65,16.579,29.923,23.265,8.561,6.22,6.386
1821,0.853,36.652,16.563,29.914,23.251,8.399,6.098,6.385
1822,0.859,36.364,16.547,29.904,23.254,8.397,6.178,6.344
1823,0.869,36.486,16.598,29.914,23.258,8.356,6.179,6.466
1824,0.872,36.631,16.532,29.923,23.265,8.356,6.139,6.345
1825,0.866,36.517,16.551,29.923,23.251,8.234,6.057,6.303
1826,0.866,36.449,16.61,29.885,23.237,8.233,6.056,6.302
1827,0.856,36.592,16.579,29.914,23.251,8.273,6.137,6.262
1828,0.84,36.718,16.606,29.904,23.247,8.152,6.016,6.302
1829,0.836,36.192,16.532,29.895,23.244,8.15,6.056,6.343
1830,0.82,36.283,16.602,29.904,23.237,8.232,6.137,6.303
1831,0.826,36.418,16.591,29.923,23.268,8.314,6.301,6.506
1832,0.833,36.544,16.563,29.943,23.258,8.356,6.099,6.345
1833,0.804,36.305,16.606,29.933,23.251,8.356,6.138,6.384
1834,0.81,36.428,16.614,29.904,23.251,8.356,6.057,6.344
1835,0.826,36.554,16.599,29.99,23.254,8.559,6.137,6.343
1836,0.839,36.641,16.54,29.943,23.258,8.764,6.179,6.384
1837,0.833,36.22,16.551,29.914,23.247,8.685,5.976,6.222
1838,0.836,36.34,16.555,29.895,23.251,8.807,6.055,6.342
1839,0.862,36.476,16.567,29.923,23.254,8.808,6.015,6.343
1840,0.859,36.535,16.559,29.904,23.251,8.93,5.974,6.262
1841,0.862,36.257,16.575,29.914,23.247,8.931,6.015,6.262
1842,0.849,36.37,16.583,29.895,23.247,8.89,6.096,6.302
1843,0.814,36.524,16.661,29.942,23.268,9.215,6.26,6.465
1844,0.816,36.574,16.576,29.943,23.254,9.096,6.099,6.223
1845,0.803,36.229,16.602,29.924,23.254,9.136,6.097,6.342
1846,0.781,36.36,16.579,29.952,23.251,9.095,6.138,6.262
1847,0.787,36.486,16.59,29.933,23.261,9.136,6.138,6.302
1848,0.777,36.506,16.513,29.943,23.254,9.177,6.138,6.221
1849,0.751,36.257,16.57,29.895,23.244,8.933,6.016,6.22
1850,0.731,36.379,16.594,29.914,23.251,9.012,6.096,6.302
1851,0.741,36.486,16.544,29.943,23.251,8.972,6.056,6.262
1852,0.741,36.516,16.563,29.933,23.251,8.972,6.097,6.302
1853,0.728,36.305,16.579,29.924,23.251,8.931,6.056,6.343
1854,0.741,36.437,16.626,29.952,23.261,9.012,6.219,6.466
1855,0.744,36.573,16.528,29.953,23.258,8.891,6.058,6.386
1856,0.734,36.191,16.535,29.943,23.247,8.93,6.056,6.303
1857,0.741,36.254,16.571,29.933,23.254,8.89,6.097,6.384
1858,0.738,36.389,16.567,29.924,23.254,8.849,6.097,6.303
1859,0.734,36.486,16.559,29.943,23.258,8.808,6.016,6.302
1860,0.738,36.736,16.598,29.914,23.237,8.645,5.974,6.18
1861,0.741,36.883,16.595,29.933,23.251,8.765,6.055,6.342
1862,0.747,37.018,16.571,29.943,23.251,8.726,6.056,6.303
1863,0.738,37.087,16.602,29.914,23.251,8.726,5.975,6.221
1864,0.734,35.812,16.583,29.914,23.244,8.726,5.974,6.261
1865,0.715,35.943,16.54,29.952,23.258,8.888,6.137,6.384
1866,0.75,36.127,16.563,29.972,23.258,8.849,6.098,6.303
1867,0.725,36.167,16.579,29.943,23.254,8.808,6.056,6.262
1868,0.715,36.235,16.563,29.924,23.261,8.848,6.097,6.302
1869,0.705,36.379,16.575,29.943,23.254,8.808,6.097,6.343
1870,0.695,36.486,16.618,29.962,23.258,8.848,6.097,6.343
1871,0.685,36.573,16.595,29.943,23.244,8.646,6.016,6.181
1872,0.669,36.095,16.548,29.924,23.251,8.684,6.015,6.261
1873,0.678,36.234,16.59,29.923,23.254,8.684,6.056,6.302
1874,0.695,36.36,16.618,29.914,23.247,8.684,6.056,6.262
1875,0.695,36.399,16.603,29.952,23.247,8.522,6.015,6.221
1876,0.711,36.227,16.575,29.933,23.244,8.601,6.015,6.302
1877,0.711,36.379,16.594,29.971,23.261,8.643,6.218,6.465
1878,0.721,36.524,16.579,29.972,23.254,8.603,6.058,6.223
1879,0.711,36.794,16.583,29.943,23.251,8.48,6.137,6.342
1880,0.734,36.097,16.571,29.943,23.254,8.438,6.057,6.221
1881,0.725,36.243,16.594,29.952,23.251,8.438,6.178,6.302
1882,0.708,36.341,16.587,29.962,23.254,8.438,6.057,6.221
1883,0.708,36.188,16.598,29.943,23.244,8.235,6.015,6.058
1884,0.708,36.216,16.571,29.933,23.247,8.273,6.015,6.3
1885,0.711,36.388,16.567,29.924,23.247,8.233,5.974,6.221
1886,0.708,36.476,16.575,29.933,23.247,8.192,6.015,6.18
1887,0.695,36.065,16.563,29.933,23.244,8.11,5.974,6.179
1888,0.672,36.205,16.567,29.924,23.251,8.191,6.096,6.261
1889,0.685,36.34,16.544,29.991,23.261,8.273,6.219,6.343
1890,0.695,36.438,16.602,29.953,23.258,8.152,6.098,6.262
1891,0.685,36.065,16.575,29.953,23.254,8.232,6.097,6.262
1892,0.682,36.205,16.532,29.953,23.251,8.273,6.138,6.221
1893,0.679,36.34,16.582,29.962,23.261,8.274,6.179,6.22
1894,0.695,36.409,16.614,29.953,23.251,8.233,6.098,6.22
1895,0.692,36.045,16.591,29.953,23.24,8.151,6.056,6.058
1896,0.695,36.185,16.606,29.962,23.251,8.313,6.137,6.178
1897,0.705,36.321,16.571,29.953,23.251,8.234,6.016,6.261
1898,0.718,36.39,16.583,29.943,23.251,8.151,6.015,6.18
1899,0.715,36.064,16.571,29.933,23.247,8.232,5.974,6.139
1900,0.715,36.224,16.559,29.952,23.254,8.192,6.137,6.26
1901,0.737,36.379,16.61,29.991,23.268,8.314,6.219,6.262
1902,0.715,36.4,16.56,29.953,23.251,8.274,6.139,6.262
1903,0.695,36.103,16.614,29.943,23.251,8.233,6.179,6.221
1904,0.695,36.234,16.552,29.972,23.244,8.151,6.22,6.22
1905,0.698,36.369,16.586,29.981,23.254,8.232,6.18,6.261
1906,0.698,36.371,16.598,29.953,23.258,8.151,6.098,6.139
1907,0.688,36.112,16.567,29.914,23.247,8.028,6.016,6.098
1908,0.685,36.253,16.583,29.962,23.251,8.068,6.137,6.219
1909,0.685,36.398,16.559,29.943,23.251,8.15,6.138,6.139
1910,0.675,36.227,16.586,29.952,23.244,8.028,6.138,6.179
1911,0.678,36.139,16.567,29.962,23.247,8.027,6.138,6.22
1912,0.685,36.273,16.563,29.991,23.265,8.149,6.26,6.302
1913,0.708,36.408,16.645,29.982,23.254,8.11,6.221,6.221
1914,0.682,36.026,16.564,29.962,23.251,8.069,6.18,6.22
1915,0.688,36.137,16.582,29.953,23.251,8.028,6.179,6.22
1916,0.692,36.253,16.598,29.972,23.251,8.149,6.22,6.22
1917,0.708,36.341,16.587,29.962,23.258,8.11,6.18,6.22
1918,0.715,36.006,16.591,29.933,23.244,7.947,6.057,6.139
1919,0.708,36.127,16.555,29.952,23.244,8.067,6.219,6.301
1920,0.728,36.244,16.582,29.962,23.251,8.109,6.098,6.221
1921,0.738,36.35,16.579,29.953,23.244,8.069,6.097,6.18
1922,0.728,35.977,16.598,29.933,23.244,8.069,6.138,6.22
1923,0.721,36.127,16.602,29.952,23.251,8.231,6.179,6.342
1924,0.734,36.273,16.552,30.0,23.261,8.273,6.301,6.303
1925,0.721,36.341,16.563,29.963,23.251,8.111,6.221,6.18
1926,0.715,36.102,16.563,29.962,23.251,8.15,6.139,6.301
1927,0.715,36.263,16.571,29.972,23.258,8.191,6.179,6.302
1928,0.718,36.379,16.583,29.981,23.261,8.11,6.301,6.302
1929,0.721,36.448,16.575,29.962,23.251,8.069,6.14,6.14
1930,0.695,36.074,16.575,29.933,23.24,8.15,6.219,6.219
1931,0.695,36.262,16.571,29.971,23.247,8.191,6.22,6.22
1932,0.705,36.351,16.567,29.953,23.247,8.11,6.139,6.18
1933,0.708,36.399,16.629,29.962,23.244,8.191,6.098,6.179
1934,0.708,35.997,16.591,29.933,23.247,8.151,6.178,6.22
1935,0.721,36.147,16.594,29.991,23.258,8.395,6.261,6.383
1936,0.734,36.273,16.555,29.982,23.254,8.234,6.221,6.222
1937,0.715,36.264,16.571,29.972,23.251,8.233,6.22,6.261
1938,0.711,36.005,16.579,29.981,23.254,8.273,6.139,6.221
1939,0.721,36.127,16.59,29.972,23.254,8.274,6.219,6.342
1940,0.731,36.225,16.559,29.981,23.254,8.233,6.18,6.262
1941,0.734,36.034,16.579,29.943,23.244,8.151,6.017,6.18
1942,0.744,36.118,16.571,29.962,23.254,8.191,6.178,6.22
1943,0.764,36.272,16.625,29.953,23.251,8.151,6.179,6.139
1944,0.777,36.36,16.552,29.943,23.251,8.232,6.179,6.219
1945,0.806,35.92,16.578,29.933,23.244,8.151,6.179,6.22
1946,0.833,36.069,16.575,29.971,23.258,8.395,6.301,6.342
1947,0.865,36.234,16.587,30.001,23.268,8.316,6.221,6.262
1948,0.879,36.274,16.571,29.982,23.254,8.234,6.22,6.221
1949,0.889,35.9,16.563,29.962,23.254,8.314,6.261,6.22
1950,0.915,36.059,16.563,29.972,23.258,8.234,6.262,6.261
1951,0.931,36.195,16.59,29.972,23.258,8.233,6.221,6.262
1952,0.941,36.244,16.575,29.962,23.247,8.111,6.139,6.099
1953,0.938,35.938,16.629,29.972,23.251,8.232,6.219,6.219
1954,0.958,36.108,16.56,29.981,23.244,8.192,6.22,6.22
1955,1.003,36.224,16.582,29.962,23.251,8.151,6.22,6.139
1956,1.049,36.283,16.551,29.962,23.244,8.191,6.139,6.26
1957,1.128,35.996,16.571,29.962,23.261,8.354,6.301,6.302
1958,1.174,36.185,16.594,30.01,23.261,8.397,6.262,6.262
1959,1.22,36.283,16.559,29.972,23.254,8.356,6.221,6.343
1960,1.273,36.312,16.582,29.962,23.258,8.397,6.22,6.262
1961,1.319,35.968,16.563,29.981,23.258,8.478,6.261,6.302
1962,1.348,36.137,16.567,29.982,23.258,8.438,6.302,6.343
1963,1.358,36.206,16.61,29.972,23.244,8.397,6.058,6.221
1964,1.352,36.456,16.563,29.981,23.247,8.478,6.097,6.302
1965,1.365,36.046,16.594,29.982,23.254,8.52,6.178,6.343
1966,1.378,36.166,16.54,29.962,23.247,8.561,6.179,6.384
1967,1.398,36.263,16.571,29.953,23.251,8.48,6.098,6.425
1968,1.408,35.967,16.536,29.972,23.251,8.601,6.138,6.466
1969,1.395,35.983,16.594,30.01,23.258,8.765,6.301,6.589
1970,1.359,36.098,16.583,29.991,23.247,8.604,6.18,6.549
1971,1.352,36.176,16.579,29.991,23.254,8.684,6.22,6.549
1972,1.336,35.88,16.575,29.991,23.258,8.684,6.261,6.549
1973,1.31,35.982,16.587,30.01,23.251,8.766,6.262,6.63
1974,1.267,36.118,16.579,29.982,23.254,8.685,6.139,6.59
1975,1.195,36.177,16.579,29.972,23.237,8.603,6.138,6.631
1976,1.165,35.899,16.579,30.01,23.251,8.684,6.179,6.794
1977,1.122,36.05,16.587,29.982,23.254,8.807,6.139,6.836
1978,1.067,36.157,16.567,30.001,23.244,8.767,6.179,6.999
1979,1.021,36.244,16.579,29.982,23.244,8.726,6.139,7.163
1980,0.958,35.852,16.555,29.991,23.265,8.929,6.301,7.571
1981,0.909,36.03,16.575,30.01,23.261,8.931,6.262,7.698
1982,0.821,36.109,16.602,29.991,23.254,8.931,6.221,7.943
1983,0.764,36.167,16.61,29.991,23.251,8.972,6.22,8.148
1984,0.709,35.976,16.563,30.001,23.247,9.013,6.22,8.395
1985,0.669,36.098,16.586,29.991,23.258,8.972,6.22,8.56
1986,0.623,36.224,16.587,29.982,23.251,8.931,6.098,8.643
1987,0.574,36.226,16.563,29.953,23.247,8.931,6.138,8.847
1988,0.564,35.967,16.606,29.981,23.244,8.931,6.138,8.93
1989,0.537,36.098,16.599,29.991,23.254,8.89,6.138,9.093
1990,0.537,36.215,16.559,29.972,23.251,8.89,6.098,9.176
1991,0.55,36.245,16.606,29.981,23.244,8.849,6.178,9.34
1992,0.57,35.967,16.618,30.001,23.261,8.971,6.342,9.545
1993,0.622,36.108,16.626,30.011,23.261,8.85,6.14,9.506
1994,0.658,36.176,16.564,29.982,23.258,8.808,6.179,9.628
1995,0.701,36.024,16.54,29.982,23.254,8.726,6.139,9.832
1996,0.734,35.888,16.539,30.001,23.254,8.726,6.219,9.997
1997,0.76,36.05,16.606,30.001,23.258,8.644,6.261,10.161
1998,0.777,36.138,16.563,29.972,23.244,8.399,6.017,10.285
1999,0.787,35.87,16.625,29.991,23.254,8.56,6.137,10.652
2000,0.806,35.992,16.548,29.991,23.258,8.439,6.219,10.859
2001,0.794,36.127,16.586,29.991,23.254,8.357,6.098,11.064
2002,0.797,36.186,16.567,29.982,23.247,8.356,6.097,11.229
2003,0.794,36.609,16.629,29.991,23.247,8.397,6.26,11.556
2004,0.8,36.805,16.583,30.03,23.261,8.519,6.302,11.762
2005,0.813,36.903,16.551,29.992,23.254,8.317,6.14,11.887
2006,0.79,36.961,16.543,30.01,23.251,8.193,6.138,11.928
2007,0.787,35.447,16.532,30.011,23.258,8.151,6.26,12.01
2008,0.767,35.594,16.574,30.011,23.258,8.232,6.18,12.052
2009,0.777,35.73,16.579,30.001,23.251,8.111,6.179,11.93
2010,0.758,35.76,16.563,29.991,23.244,8.028,6.098,11.97
2011,0.767,36.01,16.582,30.001,23.251,8.149,6.219,11.889
2012,0.757,36.166,16.567,30.001,23.251,8.11,6.18,11.888
2013,0.754,36.254,16.625,29.991,23.24,8.069,6.057,11.766
2014,0.77,36.293,16.571,29.991,23.244,8.069,6.137,11.642
2015,0.774,35.776,16.547,30.01,23.254,8.191,6.26,11.804
2016,0.797,35.933,16.586,30.03,23.258,8.151,6.221,11.562
2017,0.787,36.031,16.548,30.02,23.251,8.15,6.18,11.478
2018,0.777,36.07,16.559,30.02,23.258,8.11,6.179,11.396
2019,0.784,35.908,16.621,30.011,23.254,8.191,6.179,11.395
2020,0.787,36.04,16.583,30.02,23.258,8.273,6.179,11.151
2021,0.777,36.147,16.575,29.972,23.244,8.03,6.057,10.986
2022,0.787,36.138,16.598,29.991,23.251,8.149,6.137,10.984
2023,0.79,35.822,16.622,30.01,23.247,8.191,6.098,10.903
2024,0.78,35.953,16.564,30.011,23.254,8.151,6.138,10.739
2025,0.787,36.06,16.551,30.02,23.244,8.069,6.098,10.657
2026,0.8,35.821,16.621,30.03,23.258,8.109,6.178,10.778
2027,0.781,35.953,16.595,30.049,23.265,8.272,6.22,10.535
2028,0.761,36.05,16.587,30.03,23.254,8.03,6.139,10.37
2029,0.748,36.157,16.626,30.02,23.244,8.109,6.138,10.328
2030,0.751,35.726,16.536,30.03,23.254,8.15,6.179,10.246
2031,0.77,35.875,16.586,30.04,23.258,8.11,6.22,10.042
2032,0.761,35.992,16.571,30.011,23.254,8.028,6.017,9.836
2033,0.764,36.031,16.622,29.991,23.247,8.027,6.096,9.875
2034,0.78,35.763,16.517,30.01,23.251,8.027,6.056,9.753
2035,0.771,35.904,16.578,30.001,23.247,7.987,6.137,9.63
2036,0.774,36.011,16.575,30.001,23.254,7.946,6.057,9.548
2037,0.777,36.099,16.594,30.011,23.251,7.986,6.137,9.506
2038,0.797,35.687,16.598,30.039,23.258,8.068,6.219,9.587
2039,0.8,35.865,16.575,30.03,23.254,8.028,6.18,9.385
2040,0.797,35.944,16.575,30.011,23.258,7.946,6.139,9.22
2041,0.797,36.012,16.594,30.03,23.258,7.864,6.179,9.178
2042,0.79,35.821,16.591,30.02,23.258,7.904,6.179,9.137
2043,0.797,35.943,16.634,30.039,23.247,7.945,6.179,9.055
2044,0.797,36.041,16.544,30.001,23.247,7.742,6.017,8.81
2045,0.781,36.07,16.578,30.03,23.251,7.781,6.096,8.808
2046,0.777,36.435,16.571,30.02,23.251,7.822,6.138,8.767
2047,0.771,36.582,16.579,30.02,23.251,7.863,6.057,8.685
2048,0.777,36.689,16.594,30.011,23.244,7.782,6.097,8.562
2049,0.78,36.853,16.559,30.011,23.247,7.903,6.219,8.683
2050,0.78,35.599,16.567,30.068,23.258,8.026,6.22,8.725
2051,0.78,35.721,16.563,30.04,23.254,7.946,6.18,8.522
2052,0.754,35.799,16.575,30.03,23.258,7.945,6.22,8.479
2053,0.777,35.828,16.61,30.02,23.258,7.945,6.18,8.398
2054,0.78,35.915,16.56,30.02,23.254,8.026,6.22,8.397
2055,0.787,36.05,16.602,30.049,23.251,7.946,6.058,8.275
2056,0.78,36.118,16.587,30.011,23.244,7.864,6.178,8.193
2057,0.79,35.755,16.618,30.03,23.244,7.985,6.098,8.151
2058,0.79,35.885,16.599,30.03,23.244,8.027,6.138,8.15
2059,0.784,36.011,16.587,30.011,23.244,7.987,6.098,8.11
2060,0.79,36.08,16.559,30.02,23.251,8.108,6.138,8.109
2061,0.819,35.687,16.598,30.049,23.265,8.232,6.301,8.15
2062,0.813,35.846,16.591,30.059,23.254,8.151,6.18,7.988
2063,0.807,35.934,16.606,30.03,23.254,8.15,6.179,7.946
2064,0.79,36.021,16.563,30.059,23.254,8.191,6.22,7.986
2065,0.8,35.754,16.586,30.059,23.261,8.273,6.22,7.986
2066,0.794,35.904,16.606,30.049,23.254,8.274,6.22,7.864
2067,0.797,36.002,16.61,30.001,23.244,8.152,6.058,7.782
2068,0.784,36.079,16.595,30.049,23.258,8.313,6.178,7.822
2069,0.793,36.138,16.587,30.03,23.254,8.315,6.179,7.619
2070,0.784,36.273,16.571,30.03,23.251,8.274,6.139,7.698
2071,0.767,36.37,16.567,30.04,23.251,8.233,6.138,7.577
2072,0.767,36.409,16.606,30.049,23.254,8.395,6.219,7.738
2073,0.787,35.47,16.634,30.088,23.261,8.438,6.302,7.659
2074,0.787,35.595,16.54,30.059,23.251,8.438,6.14,7.617
2075,0.787,35.721,16.551,30.049,23.254,8.397,6.138,7.657
2076,0.797,35.751,16.59,30.059,23.261,8.397,6.179,7.536
2077,0.807,35.808,16.598,30.069,23.254,8.438,6.139,7.534
2078,0.816,35.934,16.591,30.05,23.251,8.357,6.057,7.372
2079,0.81,36.002,16.563,30.03,23.247,8.315,6.097,7.411
2080,0.813,35.782,16.575,30.04,23.251,8.396,6.138,7.371
2081,0.82,35.607,16.587,30.049,23.254,8.356,6.057,7.37
2082,0.82,35.73,16.583,30.04,23.251,8.315,6.056,7.289
2083,0.81,35.827,16.594,30.04,23.247,8.356,6.137,7.288
2084,0.816,35.713,16.587,30.068,23.265,8.519,6.26,7.41
2085,0.829,35.856,16.587,30.078,23.258,8.398,6.058,7.289
2086,0.81,35.963,16.567,30.059,23.258,8.356,6.137,7.247
2087,0.803,36.041,16.586,30.049,23.254,8.397,6.138,7.288
2088,0.816,35.61,16.567,30.068,23.254,8.397,6.179,7.207
2089,0.787,35.749,16.602,30.059,23.254,8.478,6.179,7.206
2090,0.793,35.856,16.556,30.049,23.247,8.235,6.017,7.043
2091,0.767,35.925,16.579,30.068,23.254,8.395,6.137,7.164
2092,0.79,35.676,16.602,30.059,23.251,8.356,6.098,7.043
2093,0.803,35.817,16.63,30.059,23.244,8.275,6.097,7.042
2094,0.79,35.915,16.521,30.04,23.247,8.314,6.056,6.96
2095,0.803,35.992,16.555,30.059,23.247,8.315,6.097,7.041
2096,0.81,35.686,16.575,30.097,23.265,8.437,6.3,7.204
2097,0.833,35.827,16.587,30.069,23.254,8.316,6.14,7.003
2098,0.817,35.934,16.559,30.069,23.254,8.274,6.138,6.96
2099,0.816,35.983,16.625,30.069,23.251,8.355,6.138,7.041
2100,0.807,35.6,16.603,30.088,23.258,8.356,6.138,6.96
2101,0.816,35.759,16.591,30.05,23.254,8.315,6.179,6.878
2102,0.81,35.847,16.634,30.03,23.24,8.193,6.057,6.837
2103,0.813,35.867,16.611,30.059,23.254,8.273,6.097,6.877
2104,0.82,35.714,16.618,30.078,23.251,8.152,6.138,6.877
2105,0.817,35.856,16.564,30.069,23.251,8.15,6.057,6.796
2106,0.816,35.934,16.598,30.05,23.247,8.11,6.056,6.795
2107,0.813,36.079,16.552,30.049,23.261,8.191,6.259,6.958
2108,0.833,35.668,16.618,30.107,23.265,8.273,6.18,6.878
2109,0.836,35.779,16.606,30.05,23.251,8.152,6.139,6.837
2110,0.817,35.866,16.571,30.078,23.254,8.232,6.179,6.837
2111,0.82,35.685,16.618,30.088,23.258,8.273,6.139,6.877
2112,0.817,35.721,16.614,30.088,23.258,8.274,6.179,6.837
2113,0.813,35.837,16.606,30.069,23.244,8.193,6.098,6.714
2114,0.81,35.905,16.509,30.069,23.244,8.273,6.178,6.754
2115,0.829,35.618,16.601,30.078,23.251,8.314,6.098,6.673
2116,0.823,35.73,16.602,30.078,23.251,8.274,6.138,6.631
2117,0.823,35.866,16.587,30.069,23.254,8.314,6.098,6.631
2118,0.826,35.944,16.591,30.069,23.244,8.356,6.097,6.631
2119,0.843,35.715,16.618,30.088,23.258,8.478,6.3,6.875
2120,0.869,35.914,16.532,30.126,23.254,8.479,6.221,6.674
2121,0.85,35.983,16.578,30.079,23.254,8.398,6.139,6.672
2122,0.853,36.06,16.614,30.078,23.258,8.478,6.179,6.631
2123,0.846,35.572,16.595,30.078,23.258,8.479,6.179,6.631
2124,0.846,35.739,16.575,30.107,23.261,8.438,6.139,6.712
2125,0.849,35.837,16.583,30.069,23.244,8.316,6.057,6.51
2126,0.827,35.857,16.637,30.059,23.251,8.396,6.178,6.549
2127,0.823,35.647,16.626,30.078,23.254,8.438,6.179,6.59
2128,0.817,35.779,16.61,30.078,23.247,8.438,6.098,6.509
2129,0.81,35.885,16.614,30.069,23.244,8.357,6.056,6.508
2130,0.803,35.934,16.528,30.078,23.251,8.397,6.178,6.549
2131,0.829,35.628,16.57,30.126,23.265,8.6,6.383,6.671
