time,ecg,bvp,gsr,rsp,skt,emg_zygo,emg_coru,emg_trap
0,0.698,36.545,11.185,36.302,20.019,5.235,7.043,6.467
1,0.718,36.363,11.041,36.321,20.025,5.316,7.123,6.548
2,0.721,36.524,11.102,36.312,20.032,5.317,7.205,6.63
3,0.721,36.603,11.165,36.302,20.019,5.276,7.125,6.509
4,0.708,36.632,11.134,36.283,20.015,5.235,7.043,6.508
5,0.724,36.345,11.158,36.321,20.029,5.397,7.245,6.63
6,0.721,36.457,11.107,36.322,20.026,5.277,7.044,6.55
7,0.698,36.544,11.122,36.274,20.015,5.154,6.96,6.427
8,0.705,36.468,11.122,36.292,20.022,5.193,6.96,6.548
9,0.711,36.343,11.177,36.321,20.032,5.316,7.041,6.59
10,0.692,36.476,11.053,36.322,20.022,5.236,7.001,6.549
11,0.695,36.602,11.129,36.35,20.022,5.275,7.041,6.549
12,0.692,36.296,11.122,36.293,20.015,5.195,7.001,6.508
13,0.688,36.36,11.126,36.283,20.019,5.153,6.96,6.427
14,0.682,36.524,11.134,36.36,20.019,5.234,7.122,6.466
15,0.685,36.631,11.091,36.322,20.025,5.275,7.043,6.548
16,0.695,36.172,11.161,36.293,20.022,5.195,7.001,6.386
17,0.701,36.321,11.111,36.321,20.015,5.153,7.041,6.425
18,0.727,36.476,11.196,36.37,20.029,5.315,7.286,6.629
19,0.718,36.516,11.107,36.332,20.022,5.317,7.125,6.509
20,0.715,36.286,11.134,36.322,20.015,5.236,7.083,6.386
21,0.715,36.418,11.103,36.331,20.025,5.153,7.123,6.385
22,0.728,36.553,11.149,36.322,20.026,5.234,7.165,6.547
23,0.715,36.622,11.123,36.341,20.019,5.235,7.165,6.508
24,0.715,36.153,11.087,36.351,20.022,5.235,7.165,6.467
25,0.721,36.282,11.149,36.341,20.022,5.194,7.165,6.345
26,0.718,36.38,11.107,36.322,20.015,5.153,7.084,6.303
27,0.718,36.467,11.142,36.341,20.025,5.275,7.123,6.425
28,0.711,36.295,11.044,36.351,20.026,5.235,7.165,6.507
29,0.698,36.428,11.094,36.37,20.008,5.072,7.002,6.264
30,0.708,36.534,11.13,36.351,20.018,5.193,7.082,6.384
31,0.715,36.641,11.157,36.37,20.029,5.356,7.205,6.507
32,0.698,36.057,11.115,36.351,20.022,5.277,7.125,6.345
33,0.695,36.195,11.087,36.351,20.026,5.235,7.043,6.425
34,0.675,36.302,11.141,36.351,20.015,5.235,7.042,6.385
35,0.688,36.322,11.107,36.341,20.025,5.153,7.042,6.303
36,0.695,36.332,11.099,36.351,20.026,5.234,7.042,6.384
37,0.695,36.476,11.106,36.389,20.032,5.275,7.123,6.425
38,0.718,36.573,11.099,36.361,20.019,5.154,7.043,6.304
39,0.711,36.536,11.13,36.351,20.015,5.112,6.96,6.262
40,0.737,36.152,11.15,36.37,20.025,5.193,7.041,6.384
41,0.757,36.273,11.185,36.37,20.019,5.316,7.082,6.425
42,0.761,36.37,11.123,36.341,20.005,5.114,6.92,6.263
43,0.783,36.131,11.153,36.351,20.018,5.152,6.919,6.343
44,0.819,36.196,11.146,36.389,20.029,5.275,7.041,6.384
45,0.833,36.331,11.115,36.361,20.026,5.195,6.96,6.344
46,0.859,36.438,11.079,36.379,20.022,5.234,7.0,6.343
47,0.901,36.055,11.094,36.351,20.026,5.235,6.96,6.343
48,0.931,36.157,11.102,36.341,20.015,5.153,6.878,6.303
49,0.967,36.311,11.161,36.36,20.022,5.193,6.959,6.262
50,0.99,36.399,11.209,36.37,20.026,5.275,7.0,6.384
51,0.994,36.093,11.139,36.37,20.019,5.154,6.879,6.344
52,1.017,36.234,11.142,36.37,20.015,5.153,6.837,6.343
53,1.036,36.389,11.169,36.408,20.029,5.397,6.958,6.506
54,1.04,36.438,11.099,36.38,20.026,5.236,6.797,6.508
55,1.043,36.093,11.056,36.37,20.015,5.113,6.795,6.386
56,1.079,36.253,11.09,36.38,20.019,5.193,6.836,6.547
57,1.079,36.398,11.13,36.38,20.025,5.194,6.877,6.63
58,1.102,36.438,11.138,36.389,20.019,5.194,6.877,6.631
59,1.083,36.141,11.158,36.389,20.029,5.194,6.877,6.753
60,1.05,36.273,11.052,36.389,20.019,5.153,6.877,6.714
61,1.03,36.389,11.122,36.389,20.012,5.153,6.755,6.713
62,0.998,36.457,11.134,36.389,20.022,5.234,6.876,6.835
63,0.958,36.055,11.13,36.399,20.029,5.235,6.877,6.958
64,0.932,36.166,11.072,36.38,20.019,5.113,6.837,6.838
65,0.915,36.283,11.118,36.38,20.019,5.112,6.918,6.918
66,0.909,36.36,11.134,36.428,20.039,5.396,7.122,7.203
67,0.879,36.169,11.158,36.418,20.033,5.236,6.921,7.125
68,0.837,36.273,11.13,36.371,20.012,5.153,6.837,7.002
69,0.846,36.408,11.095,36.399,20.022,5.193,6.918,7.163
70,0.846,36.755,11.118,36.409,20.022,5.194,6.919,7.368
71,0.787,36.116,11.087,36.399,20.022,5.234,6.959,7.573
72,0.712,36.244,11.184,36.418,20.029,5.235,6.919,7.942
73,0.614,36.37,11.103,36.476,20.019,5.316,6.878,8.27
74,0.518,36.112,11.122,36.371,20.015,5.236,6.877,8.68
75,0.488,36.09,11.114,36.399,20.025,5.275,6.959,9.376
76,0.442,36.243,11.161,36.428,20.026,5.316,6.919,10.033
77,0.364,36.312,11.107,36.371,20.012,5.195,6.796,10.65
78,0.318,36.073,11.087,36.399,20.012,5.234,6.917,11.469
79,0.285,36.224,11.13,36.514,20.032,5.397,7.041,12.412
80,0.216,36.321,11.091,36.41,20.026,5.318,7.001,13.032
81,0.209,36.409,11.153,36.428,20.022,5.317,6.96,13.729
82,0.209,35.978,11.076,36.428,20.019,5.276,6.919,14.264
83,0.199,36.118,11.13,36.418,20.019,5.235,6.959,14.717
84,0.215,36.263,11.115,36.409,20.022,5.316,7.041,15.087
85,0.241,36.341,11.165,36.428,20.032,5.358,7.042,15.416
86,0.229,36.025,11.084,36.418,20.019,5.317,7.001,15.582
87,0.238,36.137,11.063,36.428,20.012,5.195,7.001,15.706
88,0.274,36.301,11.114,36.457,20.036,5.438,7.123,15.992
89,0.278,36.37,11.107,36.438,20.022,5.318,7.083,16.076
90,0.3,35.978,11.142,36.399,20.015,5.195,7.002,16.158
91,0.33,36.127,11.126,36.437,20.022,5.234,7.001,16.525
92,0.369,36.282,11.126,36.428,20.026,5.316,7.082,17.016
93,0.392,36.332,11.107,36.438,20.026,5.317,7.083,17.428
94,0.412,36.044,11.153,36.447,20.022,5.317,7.123,17.838
95,0.425,36.166,11.072,36.419,20.019,5.236,7.083,18.29
96,0.448,36.283,11.106,36.418,20.015,5.235,7.002,18.741
97,0.481,36.36,11.126,36.457,20.019,5.316,7.082,19.193
98,0.52,36.016,11.114,36.428,20.022,5.317,7.123,19.604
99,0.537,36.118,11.149,36.418,20.015,5.154,7.043,19.69
100,0.57,36.224,11.138,36.438,20.015,5.193,7.082,19.975
101,0.616,36.302,11.111,36.486,20.036,5.397,7.286,20.303
102,0.636,36.14,11.11,36.457,20.026,5.318,7.125,20.185
103,0.655,36.292,11.169,36.428,20.022,5.317,7.124,20.102
104,0.672,36.389,11.08,36.428,20.026,5.276,7.124,19.939
105,0.669,36.103,11.122,36.438,20.019,5.195,7.124,19.571
106,0.672,35.908,11.087,36.428,20.019,5.356,7.124,19.405
107,0.682,36.059,11.145,36.438,20.025,5.317,7.165,19.159
108,0.666,36.147,11.15,36.447,20.026,5.317,7.165,18.832
109,0.675,36.081,11.146,36.447,20.012,5.276,7.084,18.422
110,0.708,36.243,11.103,36.476,20.036,5.398,7.286,18.214
111,0.692,36.341,11.103,36.467,20.026,5.318,7.207,17.928
112,0.695,36.409,11.122,36.409,20.012,5.317,7.084,17.437
113,0.714,35.882,11.107,36.447,20.022,5.317,7.123,17.147
114,0.724,36.021,11.138,36.476,20.026,5.317,7.165,16.982
115,0.721,36.137,11.087,36.448,20.026,5.398,7.165,16.614
116,0.737,36.244,11.138,36.486,20.022,5.318,7.206,16.407
117,0.738,36.571,11.15,36.438,20.022,5.317,7.165,15.958
118,0.744,36.699,11.154,36.447,20.026,5.236,7.084,15.628
119,0.738,36.825,11.119,36.457,20.022,5.316,7.164,15.34
120,0.754,36.922,11.118,36.457,20.026,5.358,7.246,15.134
121,0.751,35.648,11.107,36.438,20.019,5.277,7.084,14.644
122,0.761,35.788,11.149,36.457,20.022,5.276,7.164,14.436
123,0.78,35.953,11.033,36.534,20.029,5.479,7.328,14.271
124,0.777,35.993,11.11,36.458,20.019,5.278,7.207,13.945
125,0.774,36.07,11.142,36.448,20.019,5.276,7.206,13.616
126,0.777,36.186,11.154,36.467,20.019,5.276,7.206,13.328
127,0.771,36.321,11.138,36.448,20.015,5.276,7.206,13.122
128,0.764,36.37,11.029,36.467,20.025,5.276,7.247,12.876
129,0.767,35.959,11.133,36.457,20.032,5.398,7.288,12.792
130,0.77,36.079,11.079,36.467,20.026,5.358,7.207,12.507
131,0.757,36.176,11.176,36.457,20.012,5.277,7.125,12.26
132,0.761,36.215,11.08,36.476,20.025,5.357,7.287,12.135
133,0.761,36.034,11.11,36.476,20.029,5.358,7.288,12.012
134,0.741,36.147,11.142,36.457,20.015,5.236,7.085,11.686
135,0.757,36.273,11.146,36.457,20.019,5.316,7.164,11.601
136,0.767,36.255,11.111,36.515,20.025,5.398,7.287,11.56
137,0.767,35.996,11.052,36.534,20.022,5.399,7.085,11.315
138,0.777,36.118,11.11,36.477,20.022,5.358,7.164,11.15
139,0.777,36.215,11.071,36.467,20.026,5.317,7.084,10.945
140,0.787,35.995,11.149,36.467,20.019,5.317,7.083,10.781
141,0.797,36.06,11.103,36.467,20.019,5.317,7.123,10.698
142,0.8,36.214,11.149,36.486,20.029,5.398,7.205,10.616
143,0.803,36.293,11.107,36.467,20.015,5.236,7.003,10.33
144,0.794,35.852,11.177,36.467,20.019,5.316,7.041,10.124
145,0.819,36.02,11.068,36.505,20.032,5.358,7.164,10.244
146,0.797,36.137,11.122,36.477,20.029,5.399,7.084,10.001
147,0.784,36.206,11.075,36.457,20.008,5.196,7.042,9.795
148,0.787,35.842,11.122,36.467,20.018,5.275,7.042,9.712
149,0.793,35.972,11.142,36.505,20.025,5.316,7.042,9.711
150,0.787,36.118,11.138,36.467,20.026,5.317,7.082,9.589
151,0.793,36.205,11.15,36.496,20.022,5.358,7.164,9.588
152,0.787,35.928,11.091,36.477,20.019,5.317,7.124,9.425
153,0.784,36.079,11.169,36.476,20.022,5.276,7.124,9.261
154,0.78,36.224,11.056,36.505,20.026,5.316,7.165,9.3
155,0.78,36.293,11.137,36.506,20.026,5.358,7.206,9.178
156,0.787,35.958,11.087,36.467,20.022,5.195,7.165,9.055
157,0.784,36.069,11.102,36.486,20.012,5.234,7.124,8.973
158,0.81,36.243,11.149,36.515,20.032,5.397,7.327,9.013
159,0.803,36.274,11.142,36.496,20.019,5.236,7.289,8.932
160,0.79,35.852,11.021,36.477,20.012,5.153,7.166,8.768
161,0.806,36.03,11.07,36.486,20.015,5.275,7.206,8.726
162,0.816,36.176,11.157,36.496,20.025,5.316,7.369,8.685
163,0.81,36.187,11.103,36.496,20.026,5.276,7.248,8.644
164,0.816,35.899,11.126,36.496,20.029,5.276,7.288,8.562
165,0.807,36.03,11.075,36.505,20.019,5.235,7.288,8.439
166,0.807,36.109,11.133,36.467,20.012,5.235,7.207,8.357
167,0.82,36.464,11.146,36.505,20.018,5.235,7.287,8.437
168,0.813,35.979,11.126,36.515,20.032,5.275,7.288,8.316
169,0.794,36.089,11.021,36.486,20.012,5.276,7.166,8.234
170,0.803,36.215,11.082,36.496,20.022,5.276,7.206,8.151
171,0.813,35.967,11.118,36.534,20.039,5.398,7.328,8.313
172,0.813,35.935,11.126,36.506,20.026,5.277,7.289,8.152
173,0.794,36.05,11.111,36.506,20.015,5.235,7.166,8.028
174,0.793,36.166,11.067,36.515,20.019,5.275,7.124,8.027
175,0.803,35.87,11.169,36.506,20.025,5.316,7.246,8.027
176,0.803,35.973,11.111,36.515,20.026,5.276,7.206,7.987
177,0.81,36.089,11.142,36.506,20.026,5.235,7.287,8.027
178,0.82,36.205,11.107,36.506,20.022,5.194,7.125,7.946
179,0.817,35.813,11.095,36.573,20.015,5.234,7.124,7.905
180,0.82,35.972,11.091,36.506,20.019,5.235,7.124,7.782
181,0.823,36.108,11.083,36.525,20.025,5.235,7.205,7.862
182,0.826,36.186,11.098,36.496,20.012,5.153,7.125,7.7
183,0.817,35.832,11.083,36.496,20.012,5.193,7.124,7.699
184,0.846,36.011,11.177,36.544,20.032,5.356,7.287,7.861
185,0.827,36.099,11.135,36.525,20.022,5.277,7.207,7.741
186,0.833,36.148,11.111,36.506,20.015,5.154,7.125,7.699
187,0.826,35.918,11.013,36.515,20.022,5.153,7.043,7.658
188,0.817,36.069,11.098,36.515,20.015,5.153,7.042,7.698
189,0.823,36.195,11.126,36.515,20.022,5.315,7.123,7.78
190,0.817,36.264,11.06,36.525,20.026,5.195,7.083,7.74
191,0.81,35.862,11.165,36.506,20.026,5.194,7.042,7.618
192,0.803,35.982,11.064,36.496,20.012,5.112,7.001,7.617
193,0.81,36.108,11.126,36.515,20.025,5.274,7.123,7.657
194,0.797,36.167,11.13,36.534,20.026,5.276,7.083,7.739
195,0.794,35.793,11.103,36.496,20.008,5.154,6.798,7.537
196,0.806,35.972,11.122,36.544,20.018,5.234,6.958,7.616
197,0.836,36.137,11.118,36.544,20.032,5.316,7.082,7.739
198,0.833,36.1,11.146,36.525,20.026,5.154,7.002,7.618
199,0.833,35.841,11.122,36.534,20.022,5.275,6.96,7.657
200,0.833,35.982,11.193,36.506,20.015,5.235,6.878,7.617
201,0.836,36.079,11.061,36.496,20.019,5.194,6.837,7.535
202,0.849,35.975,11.133,36.534,20.022,5.194,6.999,7.534
203,0.849,35.945,11.122,36.525,20.026,5.316,6.919,7.616
204,0.849,36.031,11.142,36.496,20.019,5.154,6.796,7.454
205,0.84,36.147,11.083,36.486,20.019,5.153,6.795,7.412
206,0.862,35.841,11.095,36.544,20.029,5.397,7.08,7.615
207,0.846,35.867,11.142,36.535,20.022,5.196,6.88,7.495
208,0.849,35.992,11.154,36.525,20.019,5.194,6.918,7.371
209,0.856,36.108,11.189,36.506,20.022,5.153,6.878,7.33
210,0.843,35.793,11.142,36.515,20.012,5.234,6.796,7.37
211,0.846,35.934,11.119,36.525,20.025,5.194,6.877,7.37
212,0.843,36.088,11.13,36.525,20.026,5.316,6.877,7.411
213,0.849,36.167,11.154,36.525,20.026,5.236,6.796,7.249
214,0.83,35.774,11.107,36.563,20.019,5.153,6.836,7.206
215,0.849,35.962,11.13,36.535,20.032,5.275,6.958,7.409
216,0.843,36.06,11.103,36.535,20.026,5.316,6.919,7.289
217,0.839,36.099,11.11,36.496,20.012,5.073,6.796,7.125
218,0.859,35.754,11.161,36.505,20.018,5.193,6.958,7.124
219,0.872,35.914,11.13,36.534,20.025,5.234,7.082,7.246
220,0.876,36.021,11.142,36.582,20.022,5.235,6.961,7.166
221,0.879,36.108,11.095,36.535,20.026,5.235,7.0,7.165
222,0.872,35.908,11.169,36.525,20.026,5.113,6.919,7.084
223,0.869,36.031,11.025,36.515,20.012,5.112,6.959,7.002
224,0.892,36.195,11.113,36.525,20.022,5.193,7.041,7.001
225,0.899,36.254,11.099,36.496,20.022,5.234,7.001,7.123
226,0.876,35.718,11.161,36.486,20.012,5.113,6.879,6.921
227,0.885,35.856,11.119,36.496,20.018,5.152,6.918,6.959
228,0.895,36.03,11.071,36.563,20.032,5.356,7.041,7.163
229,0.886,36.032,11.13,36.583,20.022,5.155,7.001,7.043
230,0.882,35.974,11.095,36.516,20.022,5.193,6.919,6.96
231,0.879,36.108,11.149,36.525,20.022,5.234,6.919,6.878
232,0.879,36.215,11.068,36.525,20.015,5.072,6.837,6.877
233,0.882,36.091,11.126,36.554,20.025,5.152,6.918,6.959
234,0.876,35.812,11.099,36.544,20.026,5.193,7.041,6.96
235,0.876,35.924,11.177,36.535,20.026,5.234,6.839,6.919
236,0.869,36.012,11.076,36.515,20.015,5.032,6.837,6.796
237,0.885,35.696,11.126,36.601,20.025,5.192,6.877,6.877
238,0.905,35.75,11.068,36.526,20.026,5.234,6.959,6.918
239,0.899,35.856,11.059,36.506,20.012,4.991,6.716,6.756
240,0.892,35.963,11.129,36.515,20.015,5.07,6.754,6.836
241,0.925,35.724,11.142,36.563,20.032,5.274,6.957,6.918
242,0.922,35.837,11.13,36.544,20.026,5.154,6.797,6.837
243,0.922,35.972,11.095,36.544,20.022,5.193,6.795,6.877
244,0.931,36.05,11.192,36.525,20.019,5.153,6.755,6.796
245,0.925,35.668,11.076,36.515,20.019,5.112,6.754,6.714
246,0.931,35.817,11.126,36.534,20.022,5.071,6.754,6.876
247,0.935,35.963,11.134,36.535,20.029,5.152,6.754,6.877
248,0.935,36.031,11.103,36.544,20.019,5.153,6.795,6.796
249,0.925,35.744,11.142,36.515,20.015,5.153,6.755,6.795
250,0.922,35.914,11.115,36.544,20.029,5.234,6.876,6.836
251,0.922,36.05,11.126,36.535,20.019,5.194,6.796,6.837
252,0.928,36.099,11.04,36.515,20.019,5.112,6.673,6.674
253,0.925,35.697,11.157,36.515,20.019,5.112,6.753,6.713
254,0.935,35.894,11.06,36.582,20.032,5.315,6.876,6.916
255,0.938,36.011,11.114,36.535,20.019,5.154,6.715,6.756
256,0.941,36.041,11.146,36.535,20.025,5.112,6.672,6.836
257,0.948,35.773,11.119,36.525,20.026,5.112,6.672,6.796
258,0.954,35.905,11.2,36.525,20.019,5.152,6.631,6.673
259,0.964,36.011,11.131,36.544,20.022,5.234,6.753,6.753
260,0.974,36.07,11.083,36.554,20.026,5.153,6.714,6.795
261,0.977,35.821,11.063,36.535,20.026,5.112,6.672,6.714
262,0.981,35.943,11.141,36.525,20.012,5.112,6.55,6.632
263,0.987,36.079,11.099,36.554,20.025,5.234,6.752,6.834
264,0.997,36.32,11.145,36.544,20.022,5.153,6.673,6.714
265,1.0,35.651,11.064,36.506,20.015,4.99,6.509,6.632
266,0.991,35.798,11.169,36.515,20.022,5.11,6.63,6.59
267,1.004,35.924,11.107,36.554,20.026,5.193,6.672,6.712
268,0.994,35.772,11.126,36.535,20.026,5.153,6.631,6.713
269,0.997,35.828,11.079,36.554,20.019,5.112,6.712,6.713
270,1.013,35.953,11.098,36.535,20.019,5.112,6.632,6.632
271,1.001,36.041,11.126,36.535,20.015,5.071,6.55,6.59
272,1.013,36.166,11.099,36.544,20.022,5.193,6.63,6.671
273,1.017,36.302,11.134,36.563,20.026,5.153,6.631,6.672
274,1.023,36.418,11.083,36.554,20.019,5.071,6.509,6.591
275,1.023,36.496,11.153,36.525,20.015,5.111,6.467,6.631
276,1.036,35.336,11.107,36.573,20.032,5.315,6.67,6.753
277,1.043,35.449,11.083,36.564,20.026,5.154,6.631,6.592
278,1.04,35.547,11.032,36.535,20.012,5.112,6.468,6.509
279,1.053,35.663,11.114,36.535,20.022,5.152,6.467,6.63
280,1.069,35.808,11.068,36.554,20.026,5.234,6.507,6.672
281,1.069,35.934,11.204,36.563,20.026,5.194,6.589,6.631
282,1.079,36.06,11.1,36.573,20.029,5.194,6.509,6.672
283,1.079,36.147,11.122,36.535,20.022,5.194,6.508,6.631
284,1.089,35.64,11.146,36.515,20.019,5.112,6.467,6.55
285,1.099,35.817,11.115,36.544,20.022,5.152,6.548,6.63
286,1.102,35.934,11.118,36.573,20.026,5.234,6.508,6.631
287,1.093,35.973,11.056,36.554,20.015,5.153,6.386,6.55
288,1.096,35.763,11.118,36.544,20.019,5.153,6.344,6.59
289,1.106,35.952,11.114,36.583,20.032,5.315,6.628,6.712
290,1.109,36.05,11.185,36.564,20.026,5.276,6.468,6.672
291,1.08,36.051,11.103,36.525,20.026,5.195,6.426,6.631
292,1.086,35.687,11.149,36.544,20.012,5.194,6.385,6.55
293,1.105,35.837,11.123,36.554,20.022,5.234,6.425,6.671
294,1.109,35.944,11.169,36.544,20.026,5.235,6.466,6.753
295,1.106,35.983,11.064,36.563,20.026,5.235,6.507,6.714
296,1.102,35.926,11.079,36.554,20.026,5.235,6.467,6.754
297,1.102,36.05,11.094,36.544,20.015,5.153,6.467,6.714
298,1.119,36.157,11.11,36.554,20.022,5.275,6.548,6.835
299,1.132,35.918,11.173,36.563,20.026,5.316,6.59,6.877
300,1.119,35.781,11.111,36.525,20.019,5.114,6.427,6.755
301,1.135,35.953,11.138,36.544,20.015,5.234,6.548,6.836
302,1.145,36.089,11.107,36.563,20.032,5.316,6.712,6.999
303,1.145,35.783,11.153,36.544,20.022,5.236,6.551,6.919
304,1.148,35.866,11.068,36.554,20.026,5.194,6.63,6.837
305,1.142,35.982,11.118,36.544,20.022,5.153,6.55,6.918
306,1.145,36.079,11.056,36.535,20.015,5.112,6.508,6.878
307,1.152,35.85,11.153,36.535,20.025,5.234,6.549,6.877
308,1.152,35.992,11.111,36.554,20.026,5.235,6.63,6.959
309,1.148,36.099,11.153,36.544,20.015,5.113,6.59,6.96
310,1.135,36.186,11.107,36.535,20.012,5.193,6.509,6.919
311,1.142,35.985,11.095,36.563,20.032,5.316,6.752,7.122
312,1.142,36.098,11.165,36.544,20.022,5.195,6.673,7.002
313,1.132,36.196,11.095,36.515,20.012,5.194,6.55,6.96
314,1.132,36.292,11.138,36.534,20.018,5.194,6.59,7.082
315,1.135,36.034,11.06,36.544,20.025,5.234,6.631,7.164
316,1.132,36.166,11.137,36.563,20.022,5.235,6.672,7.124
317,1.135,36.292,11.13,36.554,20.026,5.316,6.713,7.205
318,1.129,36.341,11.134,36.554,20.026,5.276,6.591,7.125
319,1.132,36.035,11.087,36.516,20.012,5.154,6.59,7.124
320,1.138,36.185,11.071,36.554,20.022,5.234,6.671,7.165
321,1.148,36.321,11.13,36.573,20.029,5.316,6.672,7.165
322,1.132,36.303,11.083,36.535,20.008,5.154,6.469,7.124
323,1.125,36.265,11.118,36.554,20.018,5.275,6.67,7.165
324,1.142,36.437,11.091,36.573,20.032,5.438,6.753,7.368
325,1.138,36.535,11.134,36.525,20.026,5.318,6.673,7.33
326,1.119,36.555,11.169,36.534,20.029,5.398,6.713,7.37
327,1.106,36.344,11.076,36.535,20.022,5.236,6.591,7.37
328,1.089,36.486,11.071,36.535,20.022,5.275,6.509,7.289
329,1.096,36.612,11.083,36.544,20.026,5.276,6.67,7.451
330,1.089,36.527,11.118,36.535,20.026,5.357,6.672,7.452
331,1.073,36.344,11.11,36.525,20.026,5.277,6.631,7.371
332,1.06,36.486,11.075,36.544,20.019,5.235,6.59,7.37
333,1.066,36.631,11.067,36.573,20.029,5.397,6.793,7.452
334,1.047,36.546,11.133,36.545,20.022,5.399,6.633,7.412
335,1.027,36.603,11.126,36.535,20.012,5.277,6.631,7.411
336,1.02,36.747,11.079,36.544,20.015,5.276,6.55,7.411
337,1.023,36.873,11.106,36.544,20.019,5.316,6.63,7.411
338,1.023,36.548,11.122,36.544,20.019,5.358,6.672,7.371
339,1.017,36.67,11.122,36.544,20.025,5.236,6.672,7.411
340,1.007,36.786,11.107,36.535,20.019,5.316,6.55,7.411
341,0.991,36.874,11.138,36.535,20.019,5.236,6.549,7.289
342,0.994,36.596,11.083,36.554,20.025,5.397,6.671,7.369
343,0.984,36.747,11.153,36.554,20.026,5.358,6.631,7.452
344,0.974,36.816,11.111,36.496,20.008,5.195,6.55,7.168
345,0.964,36.912,11.107,36.515,20.015,5.275,6.59,7.328
346,0.964,36.731,11.13,36.544,20.032,5.357,6.753,7.451
347,0.945,36.854,11.103,36.525,20.026,5.317,6.714,7.29
348,0.932,36.98,11.153,36.534,20.029,5.358,6.754,7.329
349,0.918,37.029,11.123,36.525,20.019,5.277,6.714,7.289
350,0.899,36.751,11.146,36.515,20.022,5.235,6.713,7.207
351,0.886,36.931,11.087,36.544,20.026,5.316,6.835,7.287
352,0.889,37.057,11.118,36.554,20.026,5.358,6.877,7.288
353,0.885,37.087,11.138,36.535,20.022,5.277,6.796,7.247
354,0.866,36.867,11.079,36.515,20.015,5.235,6.795,7.084
355,0.869,37.037,11.134,36.544,20.029,5.316,6.917,7.245
356,0.866,37.164,11.099,36.535,20.022,5.317,6.919,7.206
357,0.853,37.136,11.114,36.506,20.008,5.154,6.715,7.043
358,0.862,37.011,11.157,36.534,20.018,5.275,6.794,7.042
359,0.872,37.173,11.185,36.573,20.036,5.357,6.958,7.164
360,0.853,37.251,11.111,36.535,20.026,5.317,6.878,7.084
361,0.853,37.444,11.157,36.535,20.019,5.358,6.877,7.123
362,0.843,37.072,11.115,36.535,20.015,5.317,6.837,7.124
363,0.839,37.183,11.126,36.515,20.015,5.154,6.837,6.921
364,0.83,37.328,11.052,36.525,20.025,5.315,6.958,7.0
365,0.839,37.071,11.125,36.525,20.026,5.358,7.0,7.041
366,0.826,37.049,11.079,36.506,20.019,5.236,6.838,6.96
367,0.82,37.193,11.137,36.506,20.019,5.275,6.918,6.919
368,0.823,37.319,11.107,36.563,20.036,5.438,7.163,7.0
369,0.81,37.1,11.091,36.525,20.019,5.277,7.002,6.919
370,0.794,37.212,11.138,36.525,20.015,5.276,7.001,6.919
371,0.784,37.329,11.099,36.525,20.022,5.276,7.001,6.837
372,0.787,37.416,11.169,36.515,20.022,5.276,6.96,6.796
373,0.774,37.091,11.099,36.515,20.026,5.316,7.0,6.877
374,0.774,37.231,11.13,36.544,20.022,5.317,7.041,6.959
375,0.774,37.338,11.107,36.525,20.019,5.276,7.001,6.838
376,0.761,37.397,11.161,36.506,20.022,5.154,6.919,6.714
377,0.77,37.11,11.091,36.534,20.019,5.275,7.041,6.835
378,0.767,37.251,11.071,36.535,20.025,5.235,7.001,6.877
379,0.754,37.339,11.118,36.506,20.012,5.153,6.879,6.633
380,0.767,37.416,11.091,36.515,20.025,5.193,6.918,6.753
381,0.796,37.302,11.173,36.544,20.032,5.316,7.122,6.917
382,0.784,37.425,11.092,36.535,20.019,5.236,6.961,6.756
383,0.774,37.522,11.13,36.525,20.019,5.275,7.041,6.714
384,0.777,37.581,11.083,36.506,20.019,5.235,6.96,6.672
385,0.777,37.112,11.157,36.496,20.015,5.194,6.919,6.631
386,0.767,37.251,11.064,36.525,20.025,5.194,7.041,6.672
387,0.761,37.386,10.954,36.534,20.029,5.275,7.001,6.713
388,0.751,37.407,11.05,36.515,20.022,5.195,7.001,6.632
389,0.748,37.407,11.098,36.515,20.019,5.194,6.838,6.59
390,0.764,37.58,11.114,36.534,20.029,5.316,7.08,6.793
391,0.761,37.639,11.169,36.525,20.019,5.317,6.961,6.673
392,0.741,37.697,11.142,36.496,20.008,5.073,6.838,6.55
393,0.744,37.295,11.095,36.515,20.015,5.193,6.877,6.63
394,0.747,37.444,11.173,36.525,20.022,5.275,7.0,6.631
395,0.744,37.542,11.064,36.534,20.019,5.235,6.879,6.631
396,0.744,37.38,11.133,36.535,20.025,5.316,6.959,6.712
397,0.747,37.359,11.072,36.515,20.019,5.236,6.797,6.632
398,0.751,37.464,11.106,36.496,20.012,5.113,6.836,6.468
399,0.751,37.561,11.087,36.496,20.015,5.234,6.837,6.629
400,0.757,37.255,11.126,36.525,20.025,5.235,6.837,6.631
401,0.748,37.319,11.009,36.506,20.015,5.153,6.755,6.468
402,0.747,37.454,11.102,36.496,20.019,5.112,6.754,6.507
403,0.777,37.59,11.185,36.544,20.029,5.315,6.917,6.711
404,0.761,37.294,11.115,36.515,20.026,5.195,6.756,6.632
405,0.748,37.425,11.13,36.525,20.026,5.194,6.754,6.55
406,0.751,37.532,11.083,36.506,20.022,5.153,6.754,6.468
407,0.757,37.619,11.137,36.496,20.022,5.153,6.714,6.467
408,0.748,37.256,11.142,36.496,20.022,5.153,6.754,6.507
409,0.744,37.396,11.181,36.515,20.022,5.153,6.795,6.589
410,0.731,37.493,11.096,36.496,20.026,5.153,6.795,6.468
411,0.725,37.571,11.106,36.496,20.019,5.112,6.633,6.426
412,0.737,37.275,11.114,36.525,20.025,5.234,6.834,6.507
413,0.738,37.415,11.153,36.515,20.026,5.235,6.837,6.508
414,0.721,37.503,11.052,36.477,20.012,5.032,6.714,6.386
415,0.721,37.581,11.106,36.496,20.018,5.111,6.754,6.466
416,0.731,37.562,11.106,36.534,20.025,5.234,6.876,6.589
417,0.731,37.696,11.181,36.506,20.026,5.153,6.837,6.549
418,0.741,37.794,11.135,36.506,20.026,5.193,6.877,6.508
419,0.734,37.833,11.115,36.486,20.019,5.153,6.837,6.508
420,0.734,37.2,11.068,36.553,20.015,5.112,6.755,6.386
421,0.738,37.348,11.087,36.506,20.022,5.112,6.957,6.466
422,0.76,37.493,11.141,36.506,20.026,5.193,6.96,6.507
423,0.748,37.466,11.068,36.496,20.015,5.072,6.96,6.467
424,0.744,37.485,11.114,36.486,20.015,5.152,7.0,6.467
425,0.764,37.648,11.122,36.524,20.032,5.275,7.163,6.589
426,0.754,37.726,11.181,36.496,20.029,5.195,7.124,6.509
427,0.744,37.478,11.099,36.467,20.026,5.072,7.083,6.508
428,0.741,37.216,11.099,36.505,20.022,5.07,7.083,6.427
429,0.734,37.348,11.009,36.486,20.022,5.111,7.083,6.507
430,0.731,37.483,11.098,36.505,20.026,5.071,7.205,6.467
431,0.741,37.427,11.106,36.506,20.022,5.152,7.206,6.548
432,0.738,37.484,11.106,36.486,20.019,5.071,7.165,6.468
433,0.721,37.609,11.083,36.477,20.012,5.111,7.165,6.507
434,0.734,37.745,11.126,36.515,20.029,5.315,7.206,6.549
435,0.738,37.353,11.193,36.486,20.022,5.236,7.206,6.549
436,0.721,37.435,11.084,36.477,20.015,5.032,7.084,6.386
437,0.731,37.571,11.063,36.476,20.019,5.151,7.123,6.425
438,0.741,37.668,11.063,36.496,20.022,5.193,7.165,6.466
439,0.734,37.256,11.106,36.477,20.022,5.234,7.124,6.467
440,0.754,37.406,11.13,36.486,20.026,5.153,7.165,6.507
441,0.751,37.494,11.154,36.477,20.019,5.112,7.124,6.508
442,0.748,37.581,11.126,36.467,20.019,5.112,7.043,6.345
443,0.744,37.227,11.075,36.486,20.025,5.112,7.082,6.466
444,0.757,37.377,11.169,36.486,20.026,5.152,7.123,6.467
445,0.751,37.445,11.068,36.457,20.012,4.949,6.961,6.304
446,0.741,37.532,11.016,36.476,20.018,5.11,7.0,6.425
447,0.754,37.284,11.074,36.505,20.032,5.234,7.123,6.507
448,0.744,37.406,11.137,36.496,20.022,5.072,6.961,6.427
449,0.744,37.513,11.146,36.477,20.026,5.152,7.041,6.426
450,0.744,37.552,11.189,36.476,20.019,5.112,6.92,6.385
451,0.728,37.159,11.111,36.467,20.019,5.071,6.878,6.344
452,0.734,37.338,11.099,36.467,20.025,5.152,6.918,6.425
453,0.741,37.445,11.149,36.476,20.022,5.153,6.959,6.426
454,0.734,37.456,11.103,36.476,20.019,5.031,6.838,6.385
455,0.728,37.331,11.048,36.476,20.019,5.07,6.755,6.303
456,0.747,37.522,11.114,36.505,20.025,5.193,7.039,6.547
457,0.747,37.619,11.075,36.486,20.026,5.153,6.96,6.386
458,0.744,37.601,11.137,36.438,20.015,4.99,6.756,6.263
459,0.751,37.15,11.119,36.467,20.015,5.029,6.876,6.262
460,0.748,37.299,11.146,36.467,20.025,5.07,6.959,6.343
461,0.754,37.406,11.107,36.476,20.026,5.111,6.878,6.343
462,0.751,37.263,11.13,36.467,20.026,5.193,6.877,6.303
463,0.757,37.31,11.142,36.457,20.015,5.112,6.877,6.302
464,0.764,37.406,11.083,36.448,20.019,5.071,6.837,6.262
465,0.754,37.541,11.087,36.467,20.025,5.111,6.837,6.343
466,0.751,37.188,11.102,36.438,20.032,5.152,6.877,6.343
467,0.728,37.271,11.106,36.419,20.008,5.031,6.674,6.181
468,0.734,37.415,11.13,36.438,20.025,5.03,6.794,6.22
469,0.744,37.542,11.138,36.476,20.029,5.151,6.836,6.302
470,0.747,37.15,11.037,36.457,20.026,5.112,6.837,6.262
471,0.741,37.28,11.102,36.457,20.026,5.112,6.837,6.302
472,0.731,37.406,11.095,36.448,20.015,5.112,6.755,6.262
473,0.734,37.455,11.118,36.419,20.015,5.03,6.673,6.221
474,0.731,37.341,11.075,36.447,20.025,5.151,6.753,6.261
475,0.734,37.483,11.106,36.467,20.019,5.193,6.795,6.302
476,0.734,37.552,11.146,36.419,20.008,5.153,6.633,6.221
477,0.741,37.639,11.13,36.428,20.015,5.153,6.631,6.22
478,0.757,37.151,11.115,36.466,20.029,5.356,6.916,6.383
479,0.741,37.27,11.056,36.438,20.019,5.195,6.674,6.303
480,0.747,37.377,11.094,36.438,20.015,5.112,6.631,6.262
481,0.757,37.445,11.032,36.438,20.022,5.112,6.631,6.262
482,0.751,37.216,11.114,36.428,20.015,5.112,6.631,6.262
483,0.757,37.386,11.091,36.438,20.019,5.274,6.672,6.384
484,0.751,37.503,11.138,36.447,20.025,5.235,6.753,6.344
485,0.751,37.523,11.126,36.419,20.019,5.194,6.551,6.303
486,0.757,37.082,11.161,36.409,20.015,5.112,6.63,6.221
487,0.754,37.26,11.123,36.457,20.029,5.234,6.753,6.424
488,0.751,37.367,11.029,36.438,20.022,5.316,6.673,6.344
489,0.741,37.656,11.059,36.39,20.015,5.114,6.469,6.343
490,0.741,37.371,11.044,36.418,20.019,5.152,6.589,6.343
491,0.747,37.493,11.125,36.428,20.025,5.234,6.631,6.466
492,0.738,37.6,11.044,36.428,20.026,5.235,6.631,6.426
493,0.728,37.179,11.121,36.409,20.029,5.235,6.631,6.426
494,0.728,37.079,11.099,36.428,20.022,5.194,6.631,6.426
495,0.731,37.203,11.149,36.399,20.015,5.153,6.55,6.304
496,0.725,37.309,11.103,36.418,20.029,5.234,6.59,6.506
497,0.734,37.243,11.099,36.438,20.022,5.316,6.631,6.508
498,0.738,37.31,11.103,36.39,20.008,5.114,6.509,6.305
499,0.757,37.464,11.071,36.409,20.018,5.234,6.549,6.343
500,0.761,37.58,11.149,36.428,20.029,5.438,6.712,6.506
501,0.761,37.073,11.103,36.399,20.026,5.277,6.672,6.508
502,0.764,37.222,11.126,36.418,20.026,5.316,6.713,6.508
503,0.757,37.348,11.095,36.399,20.022,5.236,6.672,6.508
504,0.757,37.416,11.181,36.399,20.015,5.235,6.672,6.386
505,0.77,37.148,11.041,36.399,20.022,5.316,6.672,6.466
506,0.751,37.299,11.11,36.418,20.026,5.398,6.713,6.507
507,0.741,37.416,11.118,36.399,20.019,5.196,6.672,6.386
508,0.738,37.494,11.103,36.389,20.015,5.234,6.631,6.344
509,0.754,37.111,11.157,36.428,20.036,5.438,6.794,6.588
510,0.744,37.232,11.107,36.409,20.022,5.318,6.714,6.549
511,0.728,37.319,11.009,36.399,20.012,5.236,6.672,6.427
512,0.725,37.416,11.043,36.38,20.015,5.235,6.713,6.507
513,0.741,37.11,11.153,36.389,20.022,5.194,6.754,6.427
514,0.738,37.222,11.064,36.399,20.019,5.234,6.795,6.507
515,0.734,37.338,11.122,36.409,20.025,5.316,6.755,6.508
516,0.734,37.378,11.075,36.39,20.022,5.236,6.754,6.508
517,0.734,37.014,11.126,36.37,20.015,5.194,6.632,6.467
518,0.744,37.164,11.15,36.399,20.029,5.234,6.672,6.507
519,0.751,37.28,11.177,36.399,20.026,5.316,6.713,6.508
520,0.744,37.272,11.107,36.351,20.012,5.073,6.632,6.305
521,0.757,37.195,11.083,36.379,20.022,5.193,6.672,6.425
522,0.767,37.338,11.196,36.408,20.029,5.316,6.794,6.507
523,0.754,37.416,11.084,36.39,20.015,5.317,6.755,6.467
524,0.764,37.177,11.13,36.37,20.025,5.276,6.795,6.467
525,0.754,36.964,11.091,36.38,20.026,5.316,6.714,6.345
526,0.748,37.058,11.13,36.351,20.012,5.236,6.754,6.303
527,0.754,37.193,11.146,36.389,20.022,5.316,6.836,6.465
528,0.748,37.127,11.122,36.389,20.026,5.317,6.837,6.426
529,0.734,37.213,11.095,36.361,20.015,5.276,6.674,6.263
530,0.728,37.348,11.079,36.37,20.015,5.276,6.713,6.343
531,0.734,37.493,11.145,36.399,20.032,5.357,6.957,6.506
532,0.721,37.542,11.111,36.361,20.022,5.277,6.878,6.386
533,0.724,37.677,11.126,36.36,20.026,5.276,6.837,6.425
534,0.715,37.793,11.095,36.379,20.019,5.316,6.796,6.426
535,0.708,37.862,11.138,36.351,20.019,5.195,6.795,6.385
536,0.728,36.673,11.095,36.37,20.022,5.234,6.836,6.466
537,0.734,36.824,11.099,36.38,20.026,5.357,6.877,6.507
538,0.728,36.932,11.06,36.351,20.019,5.277,6.796,6.386
539,0.728,37.019,11.098,36.341,20.008,5.235,6.795,6.344
540,0.747,37.097,11.138,36.379,20.029,5.397,7.039,6.628
541,0.741,37.222,11.119,36.361,20.033,5.277,6.96,6.468
542,0.741,37.319,11.091,36.351,20.019,5.276,6.838,6.426
543,0.744,37.387,11.056,36.37,20.015,5.235,6.918,6.385
544,0.747,36.832,11.114,36.341,20.029,5.316,6.878,6.385
545,0.754,36.999,11.149,36.351,20.019,5.317,6.877,6.425
546,0.751,37.115,11.076,36.36,20.025,5.358,6.959,6.426
547,0.744,37.165,11.055,36.341,20.022,5.277,6.919,6.385
548,0.725,37.002,11.083,36.331,20.019,5.235,6.919,6.303
549,0.747,37.183,11.141,36.37,20.029,5.357,6.959,6.628
550,0.728,37.29,11.119,36.36,20.019,5.317,6.878,6.428
551,0.721,37.272,11.13,36.312,20.015,5.154,6.755,6.304
552,0.728,36.936,11.072,36.321,20.019,5.315,6.754,6.384
553,0.734,37.096,11.141,36.36,20.036,5.358,6.957,6.588
554,0.728,37.155,11.138,36.351,20.022,5.317,6.797,6.387
555,0.728,37.261,11.064,36.351,20.022,5.358,6.836,6.466
556,0.721,37.051,11.11,36.341,20.019,5.277,6.796,6.386
557,0.724,37.154,11.087,36.331,20.015,5.276,6.755,6.303
558,0.737,37.29,11.134,36.331,20.019,5.316,6.795,6.425
559,0.741,36.898,11.13,36.341,20.032,5.317,6.795,6.385
560,0.734,36.894,11.146,36.322,20.026,5.195,6.673,6.344
561,0.734,37.028,11.083,36.312,20.015,5.275,6.672,6.303
562,0.747,37.173,11.114,36.379,20.036,5.438,6.875,6.506
563,0.734,36.925,11.149,36.332,20.022,5.318,6.755,6.427
564,0.747,37.048,11.084,36.312,20.026,5.317,6.754,6.263
565,0.738,37.202,11.114,36.302,20.026,5.236,6.754,6.343
566,0.738,37.261,11.095,36.302,20.022,5.275,6.714,6.303
567,0.734,36.888,11.145,36.321,20.026,5.357,6.754,6.302
568,0.738,37.028,11.13,36.341,20.019,5.399,6.876,6.384
569,0.734,37.135,11.165,36.312,20.019,5.358,6.715,6.344
570,0.734,37.194,11.029,36.302,20.012,5.236,6.672,6.303
571,0.721,36.839,11.102,36.312,20.022,5.316,6.794,6.343
572,0.711,36.989,11.083,36.312,20.026,5.358,6.795,6.343
573,0.711,37.067,11.102,36.274,20.008,5.155,6.714,6.262
574,0.711,37.164,11.106,36.302,20.018,5.356,6.713,6.343
575,0.721,36.964,11.106,36.321,20.032,5.439,6.794,6.466
576,0.715,37.077,11.146,36.302,20.022,5.399,6.755,6.467
577,0.737,37.212,11.169,36.312,20.019,5.358,6.754,6.426
578,0.725,37.252,11.166,36.293,20.025,5.399,6.714,6.385
579,0.718,36.888,11.056,36.283,20.015,5.399,6.632,6.344
580,0.724,37.066,11.094,36.302,20.025,5.44,6.712,6.506
581,0.741,37.183,11.106,36.312,20.022,5.44,6.632,6.508
582,0.734,37.194,11.142,36.274,20.019,5.359,6.672,6.305
583,0.728,36.859,11.107,36.331,20.019,5.277,6.55,6.343
584,0.754,37.047,11.11,36.331,20.032,5.52,6.834,6.506
585,0.744,37.135,11.157,36.283,20.026,5.36,6.674,6.427
586,0.738,37.452,11.138,36.273,20.015,5.399,6.55,6.426
587,0.731,36.88,11.154,36.264,20.022,5.358,6.63,6.385
588,0.728,36.999,11.025,36.273,20.019,5.399,6.55,6.303
589,0.734,37.135,11.106,36.292,20.019,5.399,6.549,6.343
590,0.731,36.963,11.071,36.283,20.022,5.44,6.671,6.425
591,0.721,36.942,11.133,36.283,20.022,5.399,6.55,6.426
592,0.718,37.048,11.083,36.254,20.012,5.318,6.468,6.344
593,0.724,37.183,11.11,36.302,20.029,5.398,6.629,6.547
594,0.711,36.887,11.13,36.283,20.026,5.399,6.55,6.549
595,0.702,36.951,11.107,36.245,20.012,5.236,6.468,6.346
596,0.714,37.096,11.106,36.263,20.018,5.357,6.426,6.343
597,0.721,37.222,11.032,36.283,20.025,5.439,6.548,6.466
598,0.734,36.82,11.125,36.254,20.019,5.318,6.549,6.426
599,0.734,36.951,11.095,36.283,20.025,5.398,6.508,6.507
600,0.725,37.067,11.126,36.264,20.022,5.318,6.467,6.427
601,0.724,37.097,11.114,36.254,20.008,5.236,6.426,6.385
602,0.737,36.848,11.099,36.254,20.025,5.357,6.507,6.466
603,0.734,36.989,11.134,36.273,20.026,5.277,6.508,6.548
604,0.728,37.096,11.118,36.216,20.015,5.195,6.345,6.224
605,0.741,37.174,11.13,36.234,20.019,5.316,6.384,6.383
606,0.754,36.887,11.083,36.311,20.029,5.398,6.629,6.466
607,0.735,36.99,11.134,36.245,20.029,5.318,6.509,6.386
608,0.725,37.135,11.091,36.254,20.019,5.398,6.589,6.425
609,0.721,37.174,11.161,36.244,20.022,5.236,6.468,6.385
610,0.711,36.81,11.13,36.215,20.012,5.275,6.507,6.385
611,0.715,36.97,11.091,36.244,20.022,5.316,6.549,6.466
612,0.721,37.115,11.13,36.244,20.029,5.358,6.59,6.467
613,0.708,37.126,11.134,36.225,20.019,5.236,6.427,6.386
614,0.702,36.887,11.138,36.234,20.019,5.275,6.507,6.344
615,0.727,37.076,11.087,36.282,20.032,5.398,6.67,6.466
616,0.721,37.164,11.11,36.245,20.019,5.358,6.509,6.426
617,0.715,37.165,11.06,36.225,20.015,5.236,6.467,6.304
618,0.731,36.877,11.133,36.215,20.015,5.235,6.467,6.302
619,0.731,37.028,11.134,36.244,20.029,5.316,6.548,6.343
620,0.738,37.106,11.118,36.225,20.019,5.317,6.549,6.343
621,0.738,36.954,11.138,36.225,20.032,5.317,6.549,6.384
622,0.738,36.856,11.107,36.225,20.019,5.317,6.508,6.344
623,0.731,36.98,11.149,36.206,20.015,5.154,6.427,6.343
624,0.738,37.106,11.08,36.225,20.025,5.356,6.507,6.343
625,0.751,36.829,11.11,36.225,20.026,5.358,6.549,6.303
626,0.728,36.874,11.083,36.196,20.012,5.195,6.468,6.18
627,0.734,37.028,11.169,36.215,20.018,5.234,6.548,6.301
628,0.731,37.154,11.138,36.225,20.029,5.397,6.671,6.465
629,0.734,36.791,11.146,36.215,20.026,5.277,6.591,6.345
630,0.731,36.902,11.033,36.206,20.026,5.357,6.671,6.303
631,0.725,37.038,11.106,36.215,20.019,5.236,6.631,6.302
632,0.702,37.087,11.122,36.186,20.022,5.153,6.631,6.221
633,0.721,36.752,11.083,36.196,20.019,5.234,6.672,6.302
634,0.728,36.921,11.118,36.225,20.029,5.316,6.672,6.343
635,0.718,37.019,11.107,36.187,20.026,5.195,6.591,6.221
636,0.718,37.097,11.165,36.176,20.019,5.153,6.549,6.22
637,0.731,36.905,11.091,36.224,20.032,5.397,6.752,6.424
638,0.731,37.028,11.134,36.196,20.029,5.318,6.673,6.304
639,0.728,37.135,11.036,36.186,20.019,5.195,6.631,6.262
640,0.731,37.222,11.117,36.176,20.022,5.234,6.712,6.302
641,0.734,36.907,11.091,36.176,20.019,5.194,6.551,6.302
642,0.751,37.019,11.13,36.186,20.019,5.275,6.63,6.262
643,0.744,37.173,11.115,36.196,20.025,5.276,6.631,6.343
644,0.751,37.213,11.13,36.177,20.022,5.235,6.672,6.262
645,0.741,36.878,11.134,36.167,20.019,5.194,6.509,6.221
646,0.757,37.038,11.122,36.176,20.029,5.275,6.67,6.302
647,0.748,37.145,11.068,36.186,20.022,5.316,6.672,6.302
648,0.725,37.127,11.036,36.224,20.008,5.114,6.428,6.18
649,0.744,36.944,11.075,36.177,20.018,5.274,6.507,6.261
650,0.751,37.105,11.098,36.176,20.032,5.316,6.63,6.302
651,0.735,37.203,11.165,36.157,20.026,5.236,6.59,6.262
652,0.751,37.165,11.08,36.205,20.022,5.275,6.59,6.302
653,0.757,36.906,11.118,36.148,20.022,5.195,6.549,6.262
654,0.741,37.038,11.161,36.157,20.022,5.194,6.549,6.221
655,0.754,37.183,11.13,36.148,20.026,5.275,6.508,6.302
656,0.774,36.82,11.095,36.147,20.029,5.316,6.549,6.343
657,0.784,36.845,11.083,36.128,20.026,5.195,6.549,6.221
658,0.79,36.961,11.102,36.118,20.019,5.153,6.508,6.18
659,0.826,37.106,11.091,36.176,20.032,5.397,6.752,6.423
660,0.82,36.791,11.184,36.167,20.019,5.277,6.632,6.304
661,0.826,36.893,11.049,36.119,20.015,5.154,6.631,6.262
662,0.839,37.038,11.102,36.137,20.019,5.193,6.631,6.262
663,0.839,37.135,11.079,36.128,20.019,5.234,6.55,6.221
664,0.846,36.772,11.134,36.128,20.022,5.275,6.671,6.302
665,0.859,36.921,11.095,36.157,20.029,5.316,6.713,6.302
666,0.849,37.048,11.087,36.128,20.022,5.236,6.672,6.343
667,0.823,37.116,11.126,36.118,20.012,5.153,6.631,6.221
668,0.826,36.791,11.118,36.147,20.022,5.234,6.631,6.302
669,0.826,36.922,11.181,36.147,20.032,5.316,6.712,6.425
670,0.791,37.048,11.111,36.119,20.015,5.276,6.672,6.304
671,0.8,37.106,11.138,36.109,20.015,5.154,6.631,6.302
672,0.8,36.791,11.107,36.147,20.029,5.315,6.712,6.425
673,0.797,36.912,11.138,36.128,20.026,5.276,6.672,6.344
674,0.787,37.019,11.107,36.099,20.019,5.113,6.55,6.221
675,0.793,37.077,11.083,36.118,20.019,5.234,6.63,6.261
676,0.8,36.857,11.122,36.109,20.025,5.194,6.59,6.262
677,0.794,36.97,11.091,36.109,20.022,5.234,6.671,6.302
678,0.819,37.096,11.192,36.128,20.026,5.235,6.631,6.262
679,0.817,37.136,11.154,36.099,20.019,5.235,6.631,6.262
680,0.829,36.781,11.091,36.08,20.019,5.153,6.631,6.18
681,0.856,36.969,11.079,36.108,20.019,5.275,6.672,6.342
682,0.856,37.067,11.145,36.109,20.022,5.235,6.672,6.343
683,0.843,37.327,11.072,36.051,20.008,5.153,6.55,6.1
684,0.856,36.831,11.091,36.079,20.018,5.193,6.63,6.178
685,0.862,36.999,11.122,36.118,20.029,5.397,6.712,6.423
686,0.84,37.087,11.114,36.08,20.022,5.236,6.672,6.263
687,0.833,36.79,11.165,36.089,20.026,5.275,6.713,6.262
688,0.82,36.759,11.138,36.08,20.019,5.235,6.713,6.262
689,0.8,36.893,11.138,36.06,20.019,5.113,6.632,6.221
690,0.807,37.019,11.119,36.07,20.022,5.193,6.712,6.302
691,0.794,36.761,11.138,36.08,20.032,5.234,6.713,6.302
692,0.774,36.835,11.126,36.051,20.015,5.072,6.632,6.14
693,0.767,36.97,11.095,36.07,20.019,5.111,6.753,6.179
694,0.787,37.115,11.071,36.108,20.032,5.315,6.836,6.423
695,0.764,36.762,11.118,36.07,20.026,5.236,6.755,6.304
696,0.774,36.883,11.146,36.07,20.026,5.235,6.795,6.262
697,0.771,36.999,11.068,36.06,20.015,5.153,6.755,6.221
698,0.78,37.068,11.083,36.041,20.015,5.153,6.714,6.139
699,0.78,36.694,11.079,36.108,20.022,5.153,6.794,6.219
700,0.79,36.853,11.141,36.061,20.026,5.234,6.877,6.302
701,0.774,36.961,11.115,36.041,20.026,5.194,6.837,6.18
702,0.758,36.99,11.107,36.06,20.015,5.112,6.796,6.139
703,0.764,36.665,11.087,36.079,20.032,5.356,6.958,6.341
704,0.754,36.786,11.11,36.041,20.022,5.236,7.0,6.181
705,0.744,36.874,11.146,36.003,20.015,5.072,6.919,6.139
706,0.751,36.961,11.107,36.021,20.025,5.193,6.878,6.179
707,0.751,36.779,11.075,36.041,20.022,5.234,6.959,6.261
708,0.741,36.893,11.044,36.051,20.022,5.153,7.0,6.262
709,0.744,37.019,11.11,36.041,20.022,5.193,7.082,6.221
710,0.741,37.049,11.048,36.031,20.019,5.072,7.042,6.18
711,0.731,36.665,11.161,36.012,20.012,5.07,6.96,6.179
712,0.728,36.834,11.099,36.031,20.022,5.274,7.082,6.179
713,0.747,36.96,11.103,36.031,20.029,5.154,7.083,6.301
714,0.721,36.923,11.142,35.993,20.015,5.031,6.961,6.14
715,0.724,36.693,11.115,36.002,20.019,5.07,7.041,6.219
716,0.747,36.892,11.103,36.06,20.029,5.314,7.204,6.342
717,0.747,36.951,11.044,36.041,20.019,5.236,7.084,6.303
718,0.757,36.76,11.106,36.012,20.019,5.153,7.042,6.262
719,0.754,36.682,11.103,36.002,20.022,5.193,6.96,6.262
720,0.754,36.805,11.161,35.993,20.019,5.072,7.0,6.262
721,0.761,36.922,11.045,36.012,20.019,5.193,7.041,6.302
722,0.767,36.712,11.11,36.012,20.025,5.153,7.082,6.302
723,0.748,36.767,11.138,36.012,20.019,5.193,7.002,6.302
724,0.731,36.883,11.119,35.974,20.022,5.153,7.001,6.221
725,0.757,37.009,11.107,36.012,20.026,5.193,7.082,6.383
726,0.748,36.492,11.091,35.983,20.029,5.153,7.042,6.385
727,0.734,36.593,11.118,35.964,20.015,5.071,6.92,6.222
728,0.731,36.757,11.075,35.973,20.019,5.07,6.919,6.302
729,0.734,36.883,11.153,36.002,20.032,5.274,7.041,6.425
730,0.718,36.683,11.111,35.973,20.029,5.154,6.96,6.344
731,0.708,36.834,11.107,35.973,20.019,5.193,7.0,6.466
732,0.708,36.98,11.114,35.964,20.025,5.153,6.879,6.386
733,0.708,37.01,11.157,35.963,20.015,5.153,6.837,6.344
734,0.698,36.598,11.08,35.973,20.025,5.153,6.918,6.466
735,0.701,36.747,11.079,35.992,20.022,5.234,6.919,6.507
736,0.701,36.883,11.145,35.973,20.026,5.153,6.878,6.386
737,0.692,36.932,11.138,35.964,20.019,5.071,6.796,6.466
738,0.718,36.587,11.169,35.992,20.032,5.274,6.958,6.548
739,0.708,36.67,11.127,35.983,20.019,5.154,6.878,6.508
740,0.702,36.767,11.021,35.935,20.005,5.112,6.715,6.386
741,0.711,36.835,11.117,35.954,20.018,5.071,6.835,6.466
742,0.708,36.586,11.099,35.963,20.025,5.233,6.837,6.467
743,0.711,36.709,11.122,35.935,20.026,5.153,6.755,6.507
744,0.711,36.854,11.091,35.963,20.026,5.193,6.876,6.467
745,0.702,36.865,11.126,35.935,20.019,5.194,6.796,6.467
746,0.695,36.472,11.13,35.925,20.015,5.153,6.755,6.426
747,0.701,36.631,11.138,35.953,20.022,5.193,6.795,6.426
748,0.705,36.738,11.119,35.963,20.026,5.194,6.877,6.466
749,0.698,36.998,11.06,35.935,20.019,5.031,6.715,6.345
750,0.698,37.154,11.079,35.944,20.019,5.07,6.713,6.384
751,0.701,37.328,11.083,35.963,20.039,5.314,6.916,6.547
752,0.688,37.406,11.149,35.935,20.022,5.236,6.837,6.549
753,0.682,36.391,11.064,35.906,20.012,5.072,6.714,6.468
754,0.688,36.371,11.106,35.925,20.018,5.233,6.835,6.467
755,0.688,36.524,11.161,35.934,20.025,5.316,6.877,6.629
756,0.688,36.603,11.123,35.934,20.026,5.236,6.837,6.59
757,0.688,36.594,11.122,35.934,20.026,5.194,6.837,6.549
758,0.698,36.728,11.021,35.925,20.019,5.153,6.796,6.549
759,0.698,36.844,11.106,35.896,20.015,5.112,6.714,6.468
760,0.711,36.951,11.048,35.915,20.019,5.152,6.835,6.548
761,0.708,36.501,11.145,35.925,20.029,5.315,6.877,6.63
762,0.702,36.602,11.146,35.915,20.026,5.154,6.715,6.55
763,0.708,36.718,11.111,35.906,20.015,5.071,6.713,6.549
764,0.728,36.825,11.173,35.925,20.032,5.314,6.957,6.793
765,0.712,36.404,11.099,35.915,20.026,5.236,6.716,6.795
766,0.715,36.525,11.063,35.877,20.019,5.072,6.632,6.633
767,0.715,36.67,11.059,35.886,20.015,5.193,6.753,6.712
768,0.715,36.757,11.129,35.924,20.032,5.234,6.876,6.876
769,0.705,36.432,11.087,35.906,20.022,5.235,6.796,6.796
770,0.702,36.573,11.134,35.896,20.029,5.275,6.795,6.795
771,0.698,36.661,11.115,35.886,20.022,5.195,6.714,6.795
772,0.695,36.719,11.134,35.876,20.012,5.153,6.713,6.714
773,0.698,36.863,11.122,35.886,20.022,5.234,6.754,6.713
774,0.695,37.009,11.15,35.896,20.026,5.275,6.795,6.876
775,0.688,37.106,11.107,35.896,20.022,5.154,6.795,6.837
776,0.692,37.145,11.071,35.857,20.019,5.112,6.714,6.755
777,0.705,36.264,11.091,35.886,20.025,5.234,6.794,6.836
778,0.708,36.389,11.091,35.867,20.019,5.235,6.795,6.837
779,0.705,36.467,11.138,35.819,20.012,5.113,6.633,6.714
780,0.711,36.784,11.122,35.857,20.018,5.193,6.712,6.794
781,0.721,36.49,11.146,35.905,20.039,5.316,6.835,6.877
782,0.708,36.612,11.095,35.867,20.019,5.276,6.796,6.837
783,0.711,36.718,11.134,35.848,20.022,5.195,6.755,6.837
784,0.711,36.441,11.122,35.838,20.012,5.234,6.632,6.755
785,0.705,36.458,11.079,35.818,20.018,5.153,6.672,6.754
786,0.708,36.592,11.083,35.847,20.022,5.234,6.713,6.795
787,0.698,36.689,11.059,35.847,20.026,5.235,6.794,6.836
788,0.685,36.355,11.118,35.838,20.019,5.235,6.633,6.755
789,0.679,36.438,11.13,35.818,20.019,5.194,6.59,6.714
790,0.698,36.602,11.15,35.866,20.036,5.356,6.793,6.957
791,0.705,36.69,11.064,35.838,20.026,5.236,6.714,6.838
792,0.705,36.345,11.129,35.799,20.019,5.194,6.551,6.755
793,0.721,36.466,11.13,35.809,20.022,5.234,6.59,6.714
794,0.734,36.612,11.075,35.847,20.026,5.235,6.631,6.794
795,0.754,36.709,11.091,35.838,20.026,5.235,6.672,6.714
796,0.774,36.288,11.114,35.838,20.026,5.275,6.591,6.794
797,0.803,36.418,11.161,35.809,20.026,5.235,6.59,6.755
798,0.849,36.525,11.103,35.799,20.012,5.153,6.549,6.632
799,0.898,36.603,11.122,35.818,20.015,5.234,6.671,6.753
800,0.944,36.354,10.966,35.828,20.025,5.235,6.591,6.795
801,0.964,36.457,11.086,35.761,20.012,5.072,6.468,6.592
802,0.997,36.602,11.11,35.799,20.018,5.193,6.589,6.671
803,1.033,36.69,11.118,35.818,20.032,5.275,6.59,6.835
804,1.03,36.345,11.087,35.799,20.026,5.235,6.549,6.796
805,1.043,36.486,11.106,35.799,20.026,5.275,6.59,6.795
806,1.046,36.602,11.161,35.789,20.022,5.235,6.549,6.836
807,1.063,36.622,11.123,35.78,20.012,5.153,6.508,6.755
808,1.069,36.258,11.134,35.78,20.025,5.193,6.589,6.917
809,1.05,36.408,10.99,35.818,20.026,5.234,6.549,7.0
810,1.037,36.505,11.094,35.78,20.019,5.194,6.468,6.879
811,0.975,36.506,11.063,35.78,20.022,5.072,6.507,6.877
812,0.955,36.42,11.133,35.808,20.032,5.355,6.711,7.081
813,0.919,36.534,11.091,35.77,20.022,5.277,6.551,7.083
814,0.87,36.631,11.102,35.779,20.015,5.154,6.427,6.961
815,0.827,36.441,11.106,35.77,20.019,5.193,6.548,7.082
816,0.807,36.4,11.138,35.779,20.015,5.194,6.468,6.961
817,0.79,36.515,11.134,35.76,20.019,5.194,6.507,7.041
818,0.758,36.641,11.068,35.77,20.029,5.194,6.549,7.123
819,0.722,36.249,11.102,35.76,20.022,5.234,6.549,7.043
820,0.698,36.341,11.064,35.741,20.022,5.072,6.386,7.042
821,0.692,36.476,11.129,35.77,20.022,5.274,6.507,7.204
822,0.701,36.592,10.994,35.77,20.026,5.276,6.508,7.206
823,0.688,36.21,11.09,35.722,20.008,5.113,6.305,7.084
824,0.636,36.34,11.102,35.731,20.015,5.152,6.465,7.286
825,0.593,36.514,11.165,35.77,20.032,5.356,6.589,7.654
826,0.522,36.564,11.064,35.732,20.026,5.236,6.468,7.82
827,0.465,36.277,11.161,35.741,20.026,5.235,6.548,8.188
828,0.387,36.389,11.064,35.731,20.019,5.235,6.508,8.517
829,0.334,36.505,11.114,35.722,20.012,5.153,6.427,8.927
830,0.268,36.583,11.126,35.731,20.018,5.193,6.588,9.622
831,0.173,36.229,11.095,35.741,20.025,5.234,6.631,10.158
832,0.12,36.369,11.106,35.722,20.015,5.194,6.468,10.732
833,0.091,36.486,11.071,35.721,20.015,5.153,6.507,11.307
834,0.081,36.573,11.184,35.75,20.029,5.356,6.752,12.085
835,0.087,36.354,11.033,35.751,20.026,5.236,6.632,12.54
836,0.061,36.476,11.106,35.703,20.019,5.072,6.509,12.829
837,0.061,36.583,11.091,35.712,20.015,5.152,6.63,13.239
838,0.08,36.632,11.134,35.712,20.019,5.153,6.59,13.487
839,0.097,36.249,11.169,35.702,20.022,5.112,6.631,13.693
840,0.129,36.389,11.119,35.721,20.026,5.193,6.672,13.939
841,0.159,36.515,11.142,35.712,20.019,5.194,6.631,13.982
842,0.195,36.526,11.076,35.693,20.019,5.153,6.55,13.982
843,0.244,36.372,11.173,35.712,20.025,5.315,6.752,14.389
844,0.277,36.496,11.033,35.712,20.026,5.236,6.673,14.352
845,0.336,36.602,11.114,35.664,20.008,5.032,6.55,14.596
846,0.366,36.469,11.071,35.683,20.018,5.192,6.59,14.923
847,0.402,36.295,11.106,35.712,20.036,5.275,6.712,15.374
848,0.432,36.418,11.181,35.683,20.015,5.235,6.672,15.826
849,0.471,36.534,11.154,35.683,20.029,5.194,6.713,16.237
850,0.507,36.267,11.091,35.692,20.019,5.153,6.632,16.688
851,0.54,36.341,11.118,35.664,20.019,5.071,6.631,16.977
852,0.563,36.486,11.15,35.692,20.025,5.193,6.712,17.427
853,0.59,36.573,11.115,35.692,20.026,5.234,6.713,17.717
854,0.596,36.162,11.122,35.664,20.026,5.153,6.632,17.963
855,0.616,36.273,11.068,35.654,20.019,5.071,6.631,18.047
856,0.636,36.447,11.157,35.702,20.029,5.274,6.712,18.292
857,0.649,36.515,11.142,35.683,20.026,5.195,6.632,18.132
858,0.659,36.104,11.146,35.644,20.008,5.072,6.55,17.845
859,0.669,36.272,11.087,35.634,20.018,5.111,6.63,17.802
860,0.688,36.418,11.067,35.673,20.019,5.193,6.712,17.679
861,0.701,36.486,11.067,35.664,20.025,5.153,6.632,17.394
862,0.718,36.286,11.165,35.663,20.026,5.193,6.672,17.228
863,0.715,36.418,11.17,35.654,20.022,5.072,6.631,16.901
864,0.747,36.534,11.092,35.625,20.015,5.07,6.55,16.654
865,0.757,36.612,11.153,35.634,20.019,5.193,6.671,16.408
866,0.757,36.114,11.146,35.644,20.022,5.153,6.835,16.243
867,0.754,36.234,11.111,35.634,20.019,5.071,6.714,15.916
868,0.748,36.36,11.021,35.625,20.015,5.07,6.632,15.75
869,0.764,36.438,11.102,35.74,20.036,5.233,6.875,15.626
870,0.761,36.256,11.06,35.645,20.019,5.194,6.715,15.3
871,0.748,36.379,11.122,35.606,20.012,5.112,6.713,14.93
872,0.747,36.486,11.13,35.625,20.022,5.071,6.713,14.683
873,0.76,36.554,11.103,35.634,20.019,5.152,6.754,14.477
874,0.767,36.2,11.118,35.615,20.025,5.153,6.795,14.231
875,0.757,36.36,11.126,35.625,20.026,5.234,6.836,13.985
876,0.764,36.447,11.138,35.615,20.019,5.072,6.755,13.657
877,0.757,36.602,11.033,35.596,20.015,5.152,6.714,13.369
878,0.78,36.325,11.11,35.691,20.025,5.193,6.794,13.204
879,0.78,36.476,11.067,35.616,20.022,5.234,6.795,12.999
880,0.771,36.535,11.118,35.577,20.012,4.95,6.673,12.549
881,0.783,36.123,11.103,35.586,20.018,5.15,6.672,12.382
882,0.8,36.138,11.142,35.624,20.032,5.234,6.794,12.299
883,0.794,36.253,11.138,35.615,20.022,5.153,6.755,12.014
884,0.8,36.351,11.142,35.586,20.026,5.153,6.836,11.93
885,0.803,36.227,11.15,35.576,20.015,5.112,6.714,11.563
886,0.797,36.36,11.052,35.576,20.019,5.03,6.632,11.397
887,0.794,36.495,11.118,35.586,20.022,5.151,6.753,11.395
888,0.787,36.583,11.083,35.586,20.022,5.153,6.795,11.232
889,0.793,36.037,11.126,35.567,20.022,5.112,6.633,10.987
890,0.784,36.147,11.111,35.567,20.012,5.112,6.631,10.781
891,0.787,36.349,11.114,35.605,20.032,5.274,6.875,10.86
892,0.787,36.399,11.114,35.586,20.026,5.195,6.715,10.576
893,0.774,36.093,11.114,35.548,20.019,5.072,6.632,10.492
894,0.771,36.215,11.173,35.557,20.015,5.111,6.59,10.329
895,0.777,36.36,11.068,35.557,20.029,5.071,6.631,10.246
896,0.78,36.428,11.122,35.567,20.022,5.111,6.712,10.164
897,0.793,36.18,11.083,35.576,20.026,5.152,6.713,10.122
898,0.797,36.292,11.137,35.567,20.019,5.071,6.632,9.919
899,0.79,36.418,11.115,35.538,20.015,5.03,6.509,9.672
900,0.813,36.486,11.138,35.557,20.019,5.151,6.67,9.751
901,0.816,36.18,11.064,35.567,20.025,5.153,6.713,9.712
902,0.807,36.283,11.094,35.5,20.012,4.99,6.51,9.345
903,0.813,36.408,11.145,35.528,20.015,5.07,6.508,9.301
904,0.823,36.477,11.091,35.528,20.029,5.233,6.711,9.341
905,0.83,36.103,11.122,35.528,20.019,5.194,6.632,9.179
906,0.833,36.243,11.107,35.537,20.022,5.153,6.672,9.177
907,0.813,36.35,11.126,35.528,20.019,5.153,6.55,9.015
908,0.803,36.428,11.13,35.518,20.019,5.031,6.549,8.85
909,0.813,36.16,11.165,35.518,20.025,5.151,6.59,8.971
910,0.807,36.292,11.088,35.537,20.032,5.153,6.712,8.891
911,0.803,36.408,11.122,35.518,20.012,5.071,6.51,8.687
912,0.8,36.199,11.091,35.509,20.018,5.03,6.63,8.603
913,0.807,36.206,11.141,35.556,20.032,5.233,6.794,8.724
914,0.8,36.321,11.111,35.528,20.026,5.153,6.633,8.522
915,0.803,36.428,11.091,35.509,20.012,5.071,6.59,8.398
916,0.807,36.045,11.122,35.499,20.018,5.111,6.631,8.397
917,0.807,36.128,11.134,35.499,20.022,5.03,6.55,8.275
918,0.82,36.292,11.181,35.508,20.015,5.151,6.63,8.314
919,0.813,36.399,11.115,35.518,20.025,5.112,6.672,8.274
920,0.826,36.026,11.107,35.509,20.026,5.03,6.631,8.152
921,0.817,36.156,11.071,35.48,20.015,4.989,6.59,8.069
922,0.833,36.302,11.157,35.527,20.032,5.151,6.712,8.191
923,0.836,36.389,11.048,35.509,20.019,5.153,6.713,7.988
924,0.836,36.007,11.079,35.47,20.015,4.99,6.632,7.864
925,0.83,36.166,11.122,35.46,20.025,5.029,6.631,7.944
926,0.843,36.302,11.169,35.479,20.026,5.151,6.672,7.905
927,0.83,36.38,11.158,35.46,20.015,5.153,6.713,7.863
928,0.839,36.15,11.099,35.479,20.025,5.153,6.794,7.782
929,0.836,36.282,11.044,35.499,20.019,5.071,6.714,7.7
930,0.826,36.38,11.098,35.461,20.022,4.989,6.632,7.658
931,0.826,36.476,11.153,35.47,20.019,4.988,6.631,7.698
932,0.823,36.094,11.076,35.479,20.019,5.11,6.753,7.658
933,0.826,36.234,11.067,35.432,20.022,4.949,6.551,7.455
934,0.826,36.341,11.114,35.469,20.015,4.988,6.63,7.493
935,0.836,36.428,11.138,35.479,20.032,5.151,6.672,7.575
936,0.83,36.074,11.142,35.47,20.019,5.071,6.713,7.494
937,0.836,36.214,11.033,35.46,20.019,5.111,6.713,7.453
938,0.843,36.34,11.047,35.47,20.022,5.03,6.632,7.412
939,0.839,36.323,11.094,35.422,20.015,5.03,6.59,7.289
940,0.846,36.064,11.138,35.45,20.025,5.111,6.671,7.369
941,0.849,36.205,11.146,35.441,20.026,5.152,6.672,7.411
942,0.84,36.302,11.146,35.422,20.008,5.031,6.55,7.167
943,0.849,36.198,11.037,35.441,20.011,4.989,6.63,7.165
944,0.866,36.129,11.149,35.46,20.032,5.232,6.794,7.246
945,0.856,36.215,11.13,35.422,20.022,5.072,6.633,7.166
946,0.862,36.321,11.064,35.431,20.012,5.07,6.631,7.206
947,0.859,36.131,11.087,35.412,20.015,5.152,6.631,7.043
948,0.843,36.215,11.075,35.402,20.015,5.071,6.59,7.082
949,0.846,36.35,11.122,35.412,20.019,5.152,6.631,7.123
950,0.849,36.438,11.165,35.412,20.025,5.112,6.631,7.124
951,0.843,35.959,11.123,35.402,20.015,5.112,6.631,7.043
952,0.836,36.079,11.099,35.402,20.019,5.03,6.55,6.92
953,0.852,36.253,11.149,35.412,20.025,5.111,6.712,7.0
954,0.846,36.322,11.119,35.402,20.026,5.071,6.713,7.041
955,0.836,35.996,11.079,35.383,20.012,5.03,6.551,6.879
956,0.852,36.147,11.028,35.373,20.018,5.03,6.63,6.959
957,0.872,36.311,11.106,35.431,20.029,5.151,6.794,7.041
958,0.866,36.361,11.114,35.402,20.029,5.031,6.714,7.042
959,0.879,36.016,11.134,35.412,20.022,5.151,6.754,6.96
960,0.866,36.128,11.161,35.383,20.026,5.071,6.714,6.96
961,0.869,36.263,11.037,35.373,20.012,4.989,6.672,6.878
962,0.885,36.341,11.114,35.392,20.025,5.07,6.794,6.959
963,0.876,36.016,11.114,35.392,20.026,5.152,6.795,7.0
964,0.879,36.137,11.083,35.373,20.019,5.071,6.795,6.838
965,0.879,36.263,11.075,35.354,20.019,5.03,6.714,6.837
966,0.892,36.351,11.137,35.382,20.032,5.192,6.957,6.958
967,0.879,35.977,11.146,35.383,20.026,5.072,6.878,6.878
968,0.872,36.07,11.115,35.335,20.019,4.908,6.715,6.877
969,0.872,36.214,11.169,35.344,20.022,5.028,6.835,6.837
970,0.882,36.264,11.021,35.363,20.022,5.111,6.877,6.877
971,0.879,36.082,11.094,35.363,20.019,5.071,6.877,6.877
972,0.882,36.205,11.099,35.344,20.025,5.07,6.837,6.877
973,0.876,36.312,11.122,35.344,20.022,5.111,6.837,6.796
974,0.876,36.361,11.064,35.411,20.012,4.989,6.837,6.836
975,0.889,36.026,11.098,35.364,20.022,5.11,6.837,6.877
976,0.882,36.156,11.13,35.354,20.026,5.03,6.877,6.837
977,0.882,36.206,11.138,35.306,20.012,4.948,6.755,6.796
978,0.895,35.976,11.181,35.324,20.015,4.988,6.795,6.795
979,0.918,36.05,11.111,35.373,20.029,5.151,6.917,6.999
980,0.912,36.166,11.083,35.411,20.022,5.112,6.878,6.879
981,0.915,36.273,11.036,35.316,20.022,4.989,6.837,6.837
982,0.915,35.967,11.141,35.315,20.019,5.029,6.837,6.837
983,0.912,36.098,11.08,35.315,20.019,5.07,6.755,6.755
984,0.935,36.243,11.091,35.315,20.019,5.07,6.795,6.876
985,0.935,36.35,11.138,35.334,20.022,5.07,6.836,6.877
986,0.931,35.891,11.13,35.306,20.026,4.989,6.837,6.755
987,0.925,36.021,11.134,35.315,20.019,4.948,6.714,6.714
988,0.928,36.195,11.044,35.334,20.029,5.232,6.916,6.916
989,0.938,36.254,11.024,35.334,20.026,5.072,6.837,6.837
990,0.925,35.957,11.055,35.286,20.022,4.948,6.714,6.714
991,0.922,36.098,11.102,35.315,20.026,4.988,6.713,6.794
992,0.918,36.234,11.095,35.315,20.015,5.151,6.794,6.795
993,0.918,36.331,11.091,35.315,20.022,5.153,6.795,6.836
994,0.925,35.901,11.13,35.296,20.026,5.071,6.795,6.837
995,0.928,36.03,11.107,35.286,20.026,5.03,6.714,6.837
996,0.931,36.147,11.138,35.267,20.019,4.948,6.672,6.796
997,0.941,36.225,11.052,35.314,20.025,5.11,6.835,6.958
998,0.961,36.024,11.008,35.315,20.022,5.071,6.837,7.0
999,0.945,36.128,11.059,35.257,20.008,4.867,6.674,6.797
1000,0.961,36.273,11.098,35.276,20.018,4.987,6.713,6.917
1001,0.977,36.322,11.196,35.305,20.032,5.151,6.794,7.081
1002,0.977,35.939,11.123,35.267,20.019,5.071,6.795,6.961
1003,0.984,36.088,11.13,35.286,20.019,5.07,6.755,6.96
1004,0.981,36.205,11.126,35.276,20.019,4.989,6.795,6.878
1005,0.977,36.484,11.13,35.267,20.019,4.988,6.795,6.837
1006,0.997,36.008,11.044,35.276,20.025,4.988,6.714,6.958
1007,1.004,36.166,11.11,35.286,20.026,5.07,6.794,7.0
1008,0.984,36.225,11.079,35.257,20.019,5.03,6.795,6.838
1009,0.994,36.034,11.106,35.266,20.015,4.948,6.755,6.877
1010,1.0,36.089,11.169,35.314,20.039,5.15,6.998,7.04
1011,0.997,36.176,11.146,35.277,20.022,5.031,6.797,6.92
1012,0.997,36.283,11.119,35.257,20.019,4.907,6.673,6.837
1013,1.004,35.862,11.099,35.238,20.022,4.906,6.753,6.918
1014,0.997,35.963,11.142,35.257,20.022,4.947,6.754,6.837
1015,1.004,36.098,11.06,35.266,20.026,4.988,6.714,6.918
1016,1.023,36.215,11.098,35.276,20.022,5.029,6.835,6.959
1017,1.023,35.861,11.048,35.257,20.015,4.989,6.714,6.838
1018,1.03,35.963,11.102,35.247,20.019,4.948,6.672,6.796
1019,1.05,36.137,11.114,35.276,20.029,5.029,6.835,6.958
1020,1.056,36.206,11.169,35.267,20.026,5.03,6.755,6.878
1021,1.05,35.842,11.037,35.257,20.008,4.867,6.632,6.755
1022,1.066,35.982,11.094,35.228,20.015,4.946,6.672,6.795
1023,1.073,36.127,11.142,35.257,20.029,5.069,6.753,6.958
1024,1.069,36.177,11.099,35.257,20.019,4.989,6.714,6.797
1025,1.082,35.937,11.106,35.238,20.025,5.029,6.794,6.836
1026,1.089,36.079,11.052,35.238,20.015,4.948,6.673,6.796
1027,1.076,36.176,11.098,35.218,20.012,4.988,6.631,6.755
1028,1.083,36.244,11.079,35.247,20.022,4.988,6.712,6.836
1029,1.099,35.986,11.137,35.238,20.026,4.988,6.713,6.837
1030,1.096,36.098,11.06,35.199,20.015,4.907,6.551,6.674
1031,1.106,36.224,11.129,35.218,20.012,4.947,6.671,6.713
1032,1.115,36.341,11.138,35.276,20.036,5.191,6.713,6.916
1033,1.099,35.91,11.107,35.228,20.019,5.072,6.672,6.756
1034,1.109,36.05,11.032,35.257,20.019,5.03,6.672,6.754
1035,1.109,36.176,11.059,35.228,20.015,4.948,6.631,6.714
1036,1.115,36.187,11.118,35.199,20.015,5.029,6.631,6.672
1037,1.125,36.062,11.087,35.218,20.025,5.03,6.672,6.713
1038,1.145,36.205,11.149,35.228,20.029,5.03,6.672,6.794
1039,1.148,36.292,11.107,35.218,20.026,4.989,6.631,6.714
1040,1.158,36.15,11.071,35.209,20.015,4.948,6.509,6.713
1041,1.171,36.091,11.114,35.228,20.025,5.069,6.63,6.754
1042,1.168,36.186,11.142,35.218,20.026,5.03,6.631,6.754
1043,1.155,36.273,11.044,35.189,20.012,4.948,6.509,6.632
1044,1.181,36.053,11.059,35.18,20.022,4.988,6.508,6.672
1045,1.191,36.128,11.133,35.199,20.026,5.11,6.63,6.713
1046,1.194,36.253,11.126,35.199,20.022,5.071,6.631,6.632
1047,1.191,36.36,11.126,35.218,20.026,5.07,6.631,6.672
1048,1.185,36.045,11.064,35.209,20.019,4.989,6.631,6.591
1049,1.184,36.185,10.962,35.218,20.012,5.029,6.55,6.59
1050,1.181,36.331,11.074,35.189,20.022,4.989,6.63,6.631
1051,1.188,36.418,11.079,35.218,20.032,5.11,6.631,6.672
1052,1.184,36.112,11.094,35.189,20.015,5.03,6.59,6.631
1053,1.188,36.282,11.048,35.189,20.012,5.03,6.671,6.55
1054,1.197,36.447,11.118,35.237,20.036,5.192,6.753,6.712
1055,1.188,36.487,11.138,35.19,20.019,5.072,6.714,6.632
1056,1.188,36.171,11.099,35.17,20.015,4.989,6.551,6.631
1057,1.201,36.311,11.099,35.189,20.015,4.988,6.59,6.509
1058,1.211,36.447,11.095,35.266,20.019,5.07,6.631,6.63
1059,1.214,36.515,11.075,35.199,20.025,5.03,6.631,6.672
1060,1.214,36.391,11.114,35.208,20.026,5.151,6.631,6.591
1061,1.214,36.496,11.153,35.17,20.026,5.031,6.631,6.59
1062,1.221,36.602,11.099,35.16,20.012,4.989,6.509,6.509
1063,1.221,36.68,11.13,35.198,20.025,5.11,6.67,6.63
1064,1.217,36.384,11.126,35.17,20.026,5.152,6.631,6.59
1065,1.208,36.486,11.122,35.151,20.012,5.071,6.468,6.509
1066,1.211,36.65,11.009,35.179,20.025,5.111,6.548,6.589
1067,1.22,36.7,11.129,35.189,20.032,5.071,6.671,6.631
1068,1.208,36.46,11.095,35.18,20.019,5.152,6.591,6.509
1069,1.201,36.621,11.122,35.17,20.025,5.112,6.59,6.63
1070,1.194,36.719,11.118,35.16,20.026,5.071,6.549,6.55
1071,1.188,36.844,11.064,35.15,20.022,4.989,6.508,6.508
1072,1.188,36.797,11.051,35.17,20.019,5.029,6.549,6.549
1073,1.188,36.97,11.122,35.17,20.022,5.151,6.549,6.549
1074,1.171,37.038,11.13,35.16,20.019,5.071,6.549,6.468
1075,1.162,36.617,11.072,35.15,20.019,5.07,6.508,6.507
1076,1.181,36.68,11.122,35.189,20.036,5.193,6.63,6.63
1077,1.162,36.786,11.083,35.16,20.015,5.112,6.468,6.55
1078,1.161,36.883,11.137,35.15,20.025,4.989,6.507,6.427
1079,1.158,36.692,11.134,35.15,20.019,5.029,6.467,6.507
1080,1.148,36.825,11.2,35.141,20.019,5.07,6.467,6.467
1081,1.155,36.97,11.08,35.15,20.025,5.07,6.548,6.589
1082,1.145,37.058,11.114,35.16,20.029,5.07,6.508,6.631
1083,1.135,36.924,11.087,35.15,20.026,5.07,6.467,6.55
1084,1.122,37.057,11.083,35.131,20.012,4.989,6.467,6.468
1085,1.125,37.212,11.056,35.16,20.032,5.11,6.629,6.629
1086,1.112,37.29,11.106,35.141,20.022,5.071,6.55,6.59
1087,1.089,36.802,11.177,35.112,20.019,4.867,6.427,6.427
1088,1.079,36.979,11.142,35.121,20.019,4.987,6.507,6.588
1089,1.079,37.096,11.177,35.15,20.029,5.151,6.589,6.671
1090,1.063,37.174,11.053,35.141,20.026,5.031,6.468,6.55
1091,1.05,37.041,11.122,35.15,20.022,5.07,6.548,6.63
1092,1.03,37.154,11.087,35.141,20.022,5.07,6.508,6.59
1093,1.017,37.261,11.098,35.122,20.015,4.948,6.427,6.631
1094,1.014,37.348,11.118,35.141,20.025,5.069,6.466,6.672
1095,1.001,37.138,11.083,35.122,20.022,5.07,6.589,6.713
1096,0.984,37.242,11.137,35.102,20.008,4.989,6.387,6.591
1097,0.978,37.358,11.115,35.131,20.015,4.988,6.425,6.671
1098,0.987,37.416,11.173,35.16,20.032,5.192,6.548,6.835
1099,0.968,37.12,11.092,35.141,20.019,5.072,6.508,6.714
1100,0.977,37.26,11.118,35.141,20.019,5.111,6.508,6.754
1101,0.955,37.358,11.083,35.112,20.019,5.03,6.549,6.714
1102,0.951,37.694,11.153,35.102,20.025,4.989,6.386,6.672
1103,0.954,37.324,11.111,35.188,20.022,5.07,6.547,6.672
1104,0.951,37.473,11.107,35.122,20.029,5.07,6.508,6.753
1105,0.938,37.571,11.087,35.102,20.015,4.989,6.467,6.632
1106,0.915,37.265,11.145,35.102,20.012,4.988,6.507,6.712
1107,0.931,37.31,11.107,35.15,20.036,5.151,6.67,6.835
1108,0.899,37.416,11.052,35.122,20.022,5.031,6.591,6.837
1109,0.899,37.494,11.125,35.112,20.022,4.989,6.468,6.796
1110,0.889,37.427,11.083,35.093,20.015,5.029,6.467,6.795
1111,0.872,37.561,11.149,35.111,20.019,4.948,6.467,6.877
1112,0.866,37.668,11.044,35.121,20.015,4.988,6.507,6.959
1113,0.862,37.774,11.11,35.131,20.032,5.029,6.549,6.919
1114,0.846,37.238,11.13,35.083,20.026,4.989,6.468,7.0
1115,0.833,37.348,11.154,35.092,20.015,4.948,6.386,6.96
1116,0.843,37.493,11.126,35.121,20.029,5.069,6.588,7.041
1117,0.843,37.581,11.033,35.112,20.026,5.07,6.468,7.042
1118,0.836,37.514,11.086,35.073,20.001,4.948,6.345,6.879
1119,0.843,37.648,11.02,35.073,20.015,4.988,6.384,6.959
1120,0.843,37.793,11.133,35.111,20.029,5.151,6.507,7.122
1121,0.833,37.843,11.091,35.102,20.019,5.031,6.467,7.083
1122,0.843,37.421,11.114,35.102,20.025,5.07,6.467,7.123
1123,0.826,37.58,11.122,35.083,20.022,5.07,6.426,7.043
1124,0.826,37.668,11.146,35.083,20.015,5.07,6.344,6.96
1125,0.833,37.726,11.134,35.102,20.015,5.03,6.343,7.041
1126,0.836,37.641,11.091,35.15,20.022,5.111,6.506,7.123
1127,0.813,37.736,11.114,35.074,20.015,5.071,6.305,7.002
1128,0.797,37.861,11.032,35.073,20.015,5.07,6.262,6.96
1129,0.813,37.93,11.125,35.13,20.029,5.193,6.505,7.204
1130,0.784,37.412,11.091,35.093,20.022,5.153,6.345,7.084
1131,0.787,37.541,11.04,35.073,20.026,5.031,6.343,6.961
1132,0.787,37.687,11.067,35.083,20.015,5.07,6.343,6.919
1133,0.78,37.679,11.141,35.083,20.025,5.03,6.343,6.959
1134,0.777,37.669,11.15,35.092,20.029,5.111,6.384,7.041
1135,0.777,37.841,11.056,35.111,20.026,5.112,6.344,7.042
1136,0.78,37.939,11.129,35.073,20.026,5.03,6.343,6.92
1137,0.774,37.671,11.052,35.063,20.015,4.989,6.262,6.878
1138,0.787,37.592,11.153,35.092,20.025,5.151,6.384,7.04
1139,0.78,37.706,11.107,35.083,20.022,5.071,6.385,7.001
1140,0.774,37.755,11.075,35.063,20.008,4.908,6.222,6.838
1141,0.79,37.641,11.11,35.063,20.015,4.987,6.302,6.877
1142,0.797,37.745,11.11,35.092,20.029,5.151,6.465,6.959
1143,0.784,37.871,11.173,35.083,20.026,5.112,6.386,6.919
1144,0.787,37.968,11.06,35.092,20.026,5.071,6.385,6.878
1145,0.793,37.518,11.122,35.054,20.022,5.03,6.344,6.877
1146,0.777,37.638,11.083,35.054,20.012,5.03,6.303,6.755
1147,0.774,37.774,11.173,35.073,20.025,5.07,6.343,6.795
1148,0.777,37.842,11.127,35.073,20.026,5.111,6.466,6.877
1149,0.764,37.642,11.138,35.044,20.019,4.989,6.386,6.755
1150,0.757,37.784,10.998,35.063,20.015,4.948,6.385,6.714
1151,0.774,37.938,11.09,35.102,20.032,5.191,6.588,6.835
1152,0.761,37.988,11.141,35.064,20.026,5.072,6.59,6.714
1153,0.751,37.471,11.091,35.025,20.015,4.989,6.509,6.672
1154,0.757,37.628,11.122,35.063,20.025,5.029,6.508,6.713
1155,0.754,37.764,11.099,35.073,20.026,5.07,6.63,6.713
1156,0.751,37.794,11.138,35.063,20.022,5.03,6.631,6.672
1157,0.764,37.718,11.134,35.063,20.029,5.07,6.631,6.753
1158,0.764,37.851,11.154,35.063,20.022,5.03,6.509,6.673
1159,0.761,37.939,11.084,35.044,20.015,5.03,6.508,6.591
1160,0.767,38.007,11.075,35.044,20.022,5.07,6.67,6.793
1161,0.767,38.017,11.055,35.044,20.026,4.989,6.631,6.673
1162,0.761,38.104,11.125,35.025,20.012,4.866,6.509,6.509
1163,0.764,38.229,11.06,35.082,20.018,4.987,6.549,6.589
1164,0.783,38.288,11.09,35.044,20.029,5.07,6.671,6.753
1165,0.777,37.435,11.106,35.034,20.022,4.989,6.631,6.592
1166,0.78,37.551,11.153,35.044,20.022,5.07,6.631,6.631
1167,0.774,37.668,11.115,35.034,20.019,5.03,6.631,6.59
1168,0.758,37.736,11.04,35.025,20.019,4.907,6.631,6.509
1169,0.767,37.727,11.02,35.063,20.019,5.028,6.631,6.63
1170,0.764,37.861,11.082,35.044,20.025,5.151,6.672,6.59
1171,0.751,37.968,11.153,35.015,20.015,4.99,6.631,6.549
1172,0.748,39.676,11.068,35.024,20.015,4.948,6.631,6.549
1173,0.764,39.981,11.11,35.063,20.036,5.15,6.753,6.671
1174,0.751,40.041,11.122,35.035,20.019,5.071,6.673,6.672
1175,0.741,40.099,11.122,35.025,20.015,4.948,6.591,6.55
1176,0.747,36.926,11.157,35.005,20.015,4.988,6.549,6.63
1177,0.754,36.942,11.025,35.034,20.015,5.029,6.63,6.55
1178,0.764,37.086,11.09,35.034,20.025,4.989,6.59,6.549
1179,0.767,37.183,11.071,35.044,20.026,5.029,6.549,6.63
1180,0.757,37.817,11.11,35.025,20.026,5.03,6.549,6.55
1181,0.757,37.929,11.107,34.996,20.012,4.948,6.508,6.468
1182,0.751,38.055,11.13,35.034,20.025,4.988,6.549,6.629
1183,0.774,38.152,11.115,35.034,20.019,5.029,6.59,6.55
1184,0.754,37.491,11.107,34.996,20.008,4.948,6.468,6.386
1185,0.764,37.619,11.149,34.996,20.022,4.988,6.467,6.425
1186,0.79,37.803,11.068,35.053,20.039,5.151,6.629,6.588
1187,0.767,37.843,11.106,35.082,20.026,5.031,6.55,6.509
1188,0.761,37.613,11.064,35.006,20.019,5.03,6.59,6.549
1189,0.767,37.745,11.126,35.015,20.025,5.07,6.509,6.508
1190,0.757,37.833,11.048,35.005,20.022,4.948,6.467,6.467
1191,0.751,37.891,11.121,35.015,20.026,5.029,6.548,6.467
1192,0.751,37.518,11.126,35.024,20.029,5.03,6.508,6.548
1193,0.735,37.648,11.072,34.996,20.026,5.03,6.467,6.427
1194,0.738,37.736,11.141,34.996,20.015,5.03,6.386,6.426
1195,0.757,37.832,11.083,35.034,20.032,5.151,6.629,6.629
1196,0.754,37.67,11.13,35.053,20.026,5.071,6.509,6.468
1197,0.748,37.784,11.033,34.987,20.012,4.908,6.386,6.386
1198,0.757,37.89,11.133,35.005,20.015,5.028,6.466,6.425
1199,0.761,38.179,11.107,34.996,20.019,5.07,6.426,6.385
1200,0.761,37.53,11.11,34.996,20.022,4.989,6.548,6.385
1201,0.787,37.667,11.036,35.015,20.029,5.11,6.508,6.425
1202,0.767,37.765,11.075,34.996,20.019,4.989,6.467,6.466
1203,0.767,37.603,11.137,34.986,20.012,5.029,6.426,6.386
1204,0.774,37.639,11.111,35.005,20.018,5.07,6.548,6.425
1205,0.777,37.793,11.107,35.034,20.025,5.111,6.549,6.344
1206,0.774,37.862,11.087,34.958,20.005,4.867,6.346,6.303
1207,0.758,37.421,11.106,34.995,20.015,5.028,6.466,6.343
1208,0.774,37.522,11.138,35.024,20.025,5.151,6.507,6.384
1209,0.764,37.648,11.154,34.996,20.026,5.031,6.549,6.425
1210,0.764,37.716,11.119,34.996,20.029,5.111,6.59,6.426
1211,0.754,37.564,11.122,34.986,20.022,5.03,6.387,6.344
1212,0.751,37.677,11.052,34.967,20.015,4.989,6.466,6.262
1213,0.767,37.813,11.141,34.986,20.032,5.07,6.507,6.302
1214,0.761,37.91,11.064,35.015,20.033,5.152,6.589,6.425
1215,0.757,37.566,11.098,34.986,20.012,4.99,6.387,6.344
1216,0.741,37.687,11.103,34.986,20.018,4.988,6.466,6.384
1217,0.767,37.861,11.13,35.024,20.029,5.192,6.67,6.547
1218,0.767,37.882,11.157,34.986,20.026,5.072,6.509,6.386
1219,0.764,37.546,11.123,34.967,20.019,5.03,6.467,6.344
1220,0.777,37.706,11.032,34.986,20.022,4.989,6.426,6.303
1221,0.774,37.832,11.047,34.986,20.019,4.988,6.466,6.302
1222,0.774,37.872,11.133,34.967,20.019,5.11,6.467,6.343
1223,0.78,37.527,11.06,35.005,20.022,5.112,6.507,6.384
1224,0.78,37.667,11.126,34.967,20.026,5.03,6.467,6.303
1225,0.771,37.755,11.06,34.957,20.008,5.03,6.345,6.221
1226,0.78,37.823,11.141,34.986,20.025,5.111,6.466,6.383
1227,0.774,37.546,11.142,34.986,20.022,5.071,6.426,6.344
1228,0.751,37.639,11.146,34.938,20.012,4.989,6.304,6.221
1229,0.757,37.774,11.072,34.957,20.012,5.07,6.343,6.302
1230,0.764,37.833,11.094,34.995,20.029,5.111,6.425,6.343
1231,0.751,37.67,11.056,34.967,20.026,5.152,6.466,6.384
1232,0.764,37.793,11.137,34.976,20.026,5.071,6.426,6.303
1233,0.767,37.9,11.044,34.967,20.026,5.111,6.385,6.343
1234,0.754,37.671,11.086,34.947,20.012,5.03,6.303,6.221
1235,0.754,37.563,11.126,34.976,20.018,5.03,6.425,6.302
1236,0.767,37.696,11.177,34.976,20.025,5.111,6.426,6.302
1237,0.764,37.794,11.177,34.947,20.015,5.071,6.304,6.343
1238,0.761,37.373,11.056,34.938,20.019,4.989,6.343,6.221
1239,0.78,37.493,11.094,34.995,20.032,5.192,6.506,6.505
1240,0.774,37.59,11.067,34.967,20.026,5.072,6.427,6.345
1241,0.767,37.649,11.122,34.938,20.019,5.03,6.304,6.221
1242,0.774,37.41,11.044,34.947,20.025,5.03,6.302,6.302
1243,0.767,37.551,11.114,34.966,20.019,5.07,6.302,6.302
1244,0.774,37.677,11.107,34.957,20.019,5.07,6.343,6.384
1245,0.79,37.755,11.13,34.966,20.022,5.07,6.343,6.344
1246,0.784,37.497,11.142,34.947,20.019,5.03,6.303,6.262
1247,0.777,37.638,11.037,34.938,20.019,5.03,6.221,6.221
1248,0.767,37.774,11.055,34.957,20.022,5.07,6.383,6.342
1249,0.777,37.842,11.067,34.966,20.019,5.152,6.385,6.303
1250,0.751,37.431,11.083,34.909,20.008,4.868,6.181,6.221
1251,0.764,37.58,11.145,34.947,20.015,4.987,6.22,6.261
1252,0.77,37.754,11.091,34.976,20.032,5.11,6.383,6.384
1253,0.754,37.813,11.099,34.957,20.029,5.071,6.344,6.303
1254,0.757,37.45,11.122,34.947,20.019,5.07,6.343,6.262
1255,0.748,37.561,11.142,34.938,20.015,5.03,6.181,6.384
1256,0.751,37.677,11.04,34.947,20.008,4.989,6.179,6.181
1257,0.757,37.746,11.051,34.966,20.018,5.07,6.261,6.261
1258,0.774,37.526,11.051,34.938,20.025,5.03,6.302,6.302
1259,0.764,37.639,11.114,34.947,20.019,4.989,6.221,6.262
1260,0.767,37.736,11.099,34.928,20.019,4.948,6.139,6.221
1261,0.793,37.794,11.165,34.966,20.032,5.11,6.341,6.464
1262,0.784,37.565,11.123,34.957,20.019,5.03,6.262,6.345
1263,0.767,37.668,11.091,34.928,20.019,4.989,6.18,6.221
1264,0.777,37.774,11.138,34.928,20.015,4.948,6.22,6.22
1265,0.784,37.708,11.076,34.928,20.022,4.988,6.261,6.302
1266,0.777,37.544,11.059,34.957,20.026,4.988,6.262,6.221
1267,0.78,37.658,11.044,34.957,20.022,5.029,6.343,6.302
1268,0.767,37.745,11.094,34.938,20.026,4.989,6.221,6.302
1269,0.774,37.42,11.079,34.918,20.008,4.948,6.22,6.18
1270,0.767,37.474,11.184,34.928,20.022,4.988,6.22,6.301
1271,0.767,37.609,11.053,34.937,20.029,5.029,6.22,6.302
1272,0.751,37.687,11.106,34.909,20.012,4.907,6.18,6.14
1273,0.757,37.333,11.079,34.908,20.015,4.947,6.139,6.219
1274,0.774,37.483,11.184,34.966,20.032,5.069,6.341,6.464
1275,0.754,37.6,11.018,34.957,20.022,4.989,6.221,6.345
1276,0.751,37.668,11.067,34.928,20.022,4.988,6.22,6.262
1277,0.754,37.295,11.106,34.918,20.019,4.988,6.22,6.262
1278,0.767,37.454,11.067,34.909,20.015,4.948,6.18,6.343
1279,0.767,37.571,11.122,34.928,20.025,4.988,6.261,6.262
1280,0.77,37.658,11.13,34.928,20.026,5.029,6.221,6.465
1281,0.774,37.391,11.154,34.918,20.019,4.948,6.302,6.304
1282,0.777,37.512,11.08,34.918,20.022,4.988,6.302,6.343
1283,0.793,37.677,11.161,34.947,20.036,5.192,6.506,6.506
1284,0.787,37.717,11.08,34.909,20.026,5.031,6.427,6.427
1285,0.774,37.238,11.11,34.908,20.019,4.989,6.426,6.304
1286,0.78,37.377,11.064,34.908,20.019,4.988,6.426,6.343
1287,0.764,37.512,11.141,34.908,20.022,5.07,6.466,6.384
1288,0.757,37.552,11.146,34.928,20.026,5.07,6.548,6.507
1289,0.77,37.409,11.165,34.928,20.026,5.07,6.59,6.467
1290,0.757,37.513,11.084,34.928,20.022,5.03,6.631,6.467
1291,0.754,37.638,11.091,34.909,20.015,4.907,6.55,6.386
1292,0.757,37.678,11.126,34.918,20.022,5.069,6.671,6.466
1293,0.764,37.276,11.142,34.918,20.022,5.111,6.672,6.507
1294,0.744,37.406,11.072,34.899,20.012,4.949,6.509,6.427
1295,0.754,37.532,11.02,34.908,20.015,4.988,6.67,6.426
1296,0.761,37.744,11.102,34.937,20.029,5.07,6.713,6.507
1297,0.761,37.382,11.067,34.909,20.022,5.03,6.713,6.589
1298,0.774,37.512,11.176,34.918,20.026,5.03,6.632,6.509
1299,0.774,37.59,11.177,34.909,20.019,5.03,6.672,6.467
1300,0.767,37.332,11.08,34.889,20.012,4.989,6.631,6.467
1301,0.764,37.387,11.098,34.908,20.022,5.07,6.753,6.426
1302,0.777,37.522,11.11,34.908,20.026,5.07,6.795,6.466
1303,0.764,37.571,11.103,34.88,20.008,4.989,6.633,6.386
1304,0.764,37.208,11.095,34.87,20.022,4.988,6.672,6.344
1305,0.78,37.367,11.134,34.946,20.029,5.151,6.794,6.547
1306,0.774,37.445,11.083,34.89,20.019,5.071,6.795,6.468
1307,0.764,37.542,11.169,34.908,20.019,5.03,6.673,6.507
1308,0.761,37.332,11.142,34.908,20.019,5.07,6.713,6.427
1309,0.751,37.464,11.142,34.889,20.019,4.989,6.632,6.385
1310,0.751,37.6,11.115,34.927,20.025,4.988,6.672,6.507
1311,0.754,37.687,11.075,34.909,20.026,5.029,6.794,6.508
1312,0.748,37.151,11.149,34.889,20.026,4.989,6.633,6.345
1313,0.751,37.29,10.998,34.889,20.019,4.948,6.631,6.384
1314,0.754,37.464,11.109,34.927,20.039,5.15,6.794,6.547
1315,0.751,37.504,11.083,34.909,20.026,5.031,6.633,6.427
1316,0.748,37.303,11.122,34.88,20.012,4.989,6.672,6.385
1317,0.757,37.464,11.157,34.879,20.022,5.029,6.631,6.385
1318,0.767,37.571,11.084,34.908,20.022,4.989,6.631,6.385
1319,0.767,37.639,11.044,34.889,20.022,4.988,6.712,6.385
1320,0.764,37.256,11.075,34.908,20.022,5.029,6.754,6.507
1321,0.767,37.358,11.153,34.889,20.022,5.03,6.632,6.386
1322,0.767,37.464,11.068,34.879,20.015,4.867,6.55,6.344
1323,0.764,37.532,11.106,34.908,20.019,5.068,6.63,6.425
1324,0.77,37.265,11.075,34.889,20.025,5.111,6.631,6.344
1325,0.767,37.358,11.145,34.86,20.008,4.949,6.59,6.221
1326,0.767,37.474,11.115,34.879,20.015,5.029,6.59,6.302
1327,0.774,37.552,11.126,34.918,20.029,5.111,6.671,6.384
1328,0.764,37.332,10.986,34.909,20.022,5.071,6.631,6.385
1329,0.757,37.474,11.125,34.889,20.026,5.111,6.672,6.385
1330,0.757,37.571,11.111,34.879,20.015,5.03,6.631,6.303
1331,0.748,37.275,11.149,34.851,20.012,5.03,6.55,6.18
1332,0.744,37.243,11.08,34.908,20.025,5.07,6.59,6.301
1333,0.751,37.348,11.098,34.88,20.029,5.193,6.59,6.343
1334,0.757,37.416,11.13,34.86,20.012,4.99,6.468,6.221
1335,0.744,37.206,11.115,34.86,20.018,5.029,6.629,6.342
1336,0.76,37.328,11.083,34.908,20.032,5.151,6.672,6.466
1337,0.751,37.445,11.098,34.88,20.019,5.112,6.55,6.386
1338,0.751,37.551,11.099,34.879,20.019,5.112,6.63,6.344
1339,0.757,37.14,11.106,34.87,20.015,5.112,6.55,6.303
1340,0.757,37.261,11.138,34.851,20.015,5.071,6.468,6.262
1341,0.77,37.367,11.107,34.879,20.022,5.03,6.507,6.384
1342,0.774,37.503,11.106,34.889,20.026,5.151,6.549,6.425
1343,0.774,37.207,11.095,34.851,20.022,5.031,6.468,6.304
1344,0.777,37.328,11.153,34.86,20.019,4.989,6.386,6.302
1345,0.787,37.531,11.099,34.898,20.032,5.313,6.629,6.465
1346,0.774,37.571,11.067,34.86,20.026,5.073,6.55,6.304
1347,0.767,37.14,11.083,34.86,20.015,5.07,6.508,6.384
1348,0.761,37.28,11.083,34.86,20.019,5.03,6.427,6.344
1349,0.764,37.387,11.134,34.87,20.019,4.989,6.466,6.303
1350,0.761,37.426,11.118,34.87,20.025,5.11,6.467,6.343
1351,0.757,37.196,11.15,34.898,20.026,5.152,6.507,6.384
1352,0.748,37.319,11.084,34.87,20.015,5.031,6.427,6.344
1353,0.751,37.426,11.137,34.831,20.015,4.948,6.385,6.303
1354,0.751,37.494,11.111,34.879,20.022,5.191,6.547,6.547
1355,0.741,37.207,11.083,34.927,20.026,5.112,6.468,6.346
1356,0.738,37.319,11.102,34.851,20.012,4.949,6.386,6.303
1357,0.754,37.445,11.079,34.85,20.022,5.029,6.385,6.343
1358,0.751,37.465,11.126,34.85,20.026,5.07,6.425,6.343
1359,0.754,37.178,11.107,34.869,20.022,5.07,6.466,6.384
1360,0.767,37.319,11.114,34.87,20.026,5.07,6.426,6.466
1361,0.761,37.445,11.083,34.851,20.026,5.111,6.426,6.304
1362,0.761,37.36,11.114,34.841,20.012,4.989,6.304,6.302
1363,0.764,37.282,11.107,34.86,20.025,5.029,6.425,6.425
1364,0.761,37.416,11.114,34.85,20.022,5.07,6.385,6.385
1365,0.757,37.494,11.079,34.802,20.008,4.908,6.263,6.222
1366,0.77,37.13,11.087,34.831,20.015,4.987,6.302,6.302
1367,0.774,37.222,11.161,34.888,20.032,5.192,6.506,6.465
1368,0.758,37.338,11.107,34.851,20.026,5.031,6.345,6.386
1369,0.761,37.426,11.103,34.86,20.026,5.07,6.384,6.385
1370,0.735,37.168,11.052,34.87,20.012,5.07,6.385,6.344
1371,0.744,37.271,11.09,34.841,20.015,4.989,6.263,6.181
1372,0.747,37.435,11.11,34.841,20.022,5.11,6.465,6.301
1373,0.751,37.532,11.099,34.879,20.029,5.071,6.345,6.384
1374,0.744,37.025,11.13,34.841,20.019,4.948,6.303,6.303
1375,0.738,37.154,11.075,34.831,20.019,5.029,6.343,6.262
1376,0.754,37.299,11.157,34.869,20.032,5.192,6.506,6.384
1377,0.751,37.349,11.099,34.851,20.022,5.072,6.467,6.344
1378,0.751,37.109,11.118,34.802,20.008,4.908,6.264,6.221
1379,0.761,37.251,11.052,34.831,20.022,4.947,6.384,6.22
1380,0.767,37.415,11.079,34.85,20.022,5.11,6.425,6.302
1381,0.767,37.455,11.122,34.841,20.022,4.989,6.385,6.302
1382,0.774,37.12,11.114,34.869,20.026,5.07,6.466,6.343
1383,0.767,37.241,11.122,34.841,20.019,5.03,6.386,6.303
1384,0.757,37.348,11.06,34.831,20.015,4.948,6.344,6.221
1385,0.777,37.416,11.145,34.831,20.029,5.029,6.425,6.22
1386,0.774,37.148,11.126,34.831,20.019,5.07,6.507,6.302
1387,0.758,37.251,11.111,34.812,20.015,4.989,6.305,6.099
1388,0.748,37.367,11.067,34.831,20.015,4.988,6.343,6.178
1389,0.76,37.445,11.075,34.888,20.029,5.232,6.547,6.342
1390,0.757,37.331,11.059,34.841,20.026,5.072,6.468,6.262
1391,0.748,37.454,11.094,34.831,20.022,5.03,6.467,6.221
1392,0.741,37.571,11.11,34.821,20.019,5.111,6.304,6.18
1393,0.751,37.581,11.064,34.812,20.019,4.908,6.384,6.179
1394,0.754,37.121,11.118,34.84,20.022,4.987,6.385,6.179
1395,0.751,37.28,11.146,34.821,20.029,5.07,6.466,6.261
1396,0.741,37.358,11.076,34.812,20.015,4.989,6.304,6.221
1397,0.744,37.138,11.098,34.831,20.025,4.948,6.262,6.18
1398,0.773,37.251,11.067,34.898,20.026,5.15,6.546,6.383
1399,0.764,37.339,11.098,34.841,20.022,5.031,6.427,6.181
1400,0.77,37.426,11.083,34.802,20.012,4.989,6.385,6.22
1401,0.767,36.985,11.149,34.812,20.022,5.11,6.303,6.261
1402,0.757,37.115,11.08,34.821,20.019,4.989,6.302,6.18
1403,0.774,37.251,11.118,34.831,20.019,5.029,6.343,6.301
1404,0.787,37.358,11.122,34.831,20.025,5.07,6.384,6.343
1405,0.777,37.033,11.138,34.831,20.022,4.948,6.303,6.181
1406,0.758,37.154,11.021,34.812,20.019,4.907,6.343,6.179
1407,0.767,37.309,11.102,34.831,20.032,4.987,6.303,6.342
1408,0.757,37.378,11.114,34.821,20.022,5.11,6.302,6.303
1409,0.744,37.043,11.083,34.773,20.012,4.908,6.221,6.221
1410,0.744,37.193,11.141,34.811,20.015,4.947,6.302,6.261
1411,0.747,37.3,11.103,34.821,20.029,5.029,6.221,6.262
1412,0.741,37.377,11.126,34.812,20.019,4.989,6.261,6.262
1413,0.757,37.081,11.068,34.821,20.025,5.07,6.384,6.302
1414,0.741,37.212,11.149,34.831,20.019,4.989,6.303,6.302
1415,0.738,37.309,11.033,34.812,20.015,4.907,6.302,6.18
1416,0.754,37.397,11.098,34.812,20.025,4.987,6.384,6.342
1417,0.754,37.081,11.056,34.821,20.026,5.029,6.344,6.343
1418,0.751,37.164,11.098,34.783,20.008,4.867,6.221,6.14
1419,0.761,37.318,11.122,34.821,20.015,4.987,6.342,6.219
1420,0.764,37.339,11.146,34.831,20.025,4.948,6.466,6.342
1421,0.767,37.138,11.087,34.821,20.019,4.988,6.467,6.343
1422,0.774,37.27,11.067,34.831,20.022,4.988,6.426,6.384
1423,0.767,37.348,11.133,34.802,20.022,4.948,6.426,6.303
1424,0.757,37.627,11.072,34.792,20.012,4.866,6.385,6.221
1425,0.767,37.016,11.102,34.879,20.025,4.946,6.466,6.302
1426,0.774,37.154,11.106,34.831,20.026,5.029,6.548,6.343
1427,0.751,37.222,11.091,34.812,20.008,4.907,6.468,6.221
1428,0.761,37.06,11.13,34.812,20.022,4.947,6.467,6.22
1429,0.774,37.087,11.157,34.84,20.029,5.11,6.711,6.546
1430,0.758,37.193,11.169,34.812,20.026,4.949,6.551,6.386
1431,0.761,37.29,11.076,34.812,20.022,4.947,6.549,6.344
1432,0.751,36.936,11.114,34.812,20.022,5.029,6.549,6.343
1433,0.748,37.009,11.126,34.802,20.015,4.907,6.508,6.384
1434,0.741,37.173,11.068,34.831,20.022,5.028,6.589,6.466
1435,0.757,37.271,11.106,34.821,20.026,5.03,6.631,6.548
1436,0.757,36.936,11.087,34.793,20.022,4.989,6.509,6.508
1437,0.754,37.057,11.138,34.792,20.019,4.948,6.508,6.427
1438,0.787,37.212,11.119,34.84,20.032,5.069,6.63,6.629
1439,0.777,37.281,11.153,34.831,20.026,5.03,6.631,6.55
1440,0.774,37.051,11.064,34.793,20.019,4.948,6.428,6.508
1441,0.793,37.193,11.106,34.792,20.019,4.988,6.548,6.589
1442,0.8,37.3,11.122,34.792,20.019,4.988,6.549,6.631
1443,0.794,37.387,11.095,34.811,20.025,5.029,6.63,6.712
1444,0.826,36.832,11.13,34.831,20.019,5.03,6.631,6.713
1445,0.826,36.96,11.075,34.793,20.025,5.07,6.59,6.632
1446,0.833,37.086,11.173,34.792,20.019,4.908,6.549,6.59
1447,0.833,37.136,11.088,34.811,20.025,5.028,6.59,6.712
1448,0.852,37.04,11.106,34.831,20.026,4.989,6.59,6.794
1449,0.843,37.154,10.974,34.773,20.012,4.948,6.549,6.592
1450,0.849,37.27,11.093,34.811,20.018,4.988,6.549,6.671
1451,0.866,37.367,11.106,34.812,20.036,5.192,6.793,6.875
1452,0.856,36.879,11.095,34.812,20.022,5.112,6.633,6.837
1453,0.853,37.028,11.102,34.792,20.022,4.989,6.55,6.796
1454,0.853,37.145,11.091,34.792,20.022,4.988,6.59,6.795
1455,0.849,37.146,11.157,34.802,20.026,4.948,6.631,6.795
1456,0.853,37.079,11.142,34.812,20.026,5.069,6.631,6.795
1457,0.862,37.203,11.095,34.831,20.029,5.03,6.631,6.877
1458,0.859,37.3,10.981,34.802,20.012,5.03,6.55,6.715
1459,0.849,37.013,11.09,34.792,20.015,5.03,6.549,6.713
1460,0.866,36.876,11.052,34.811,20.019,5.07,6.508,6.794
1461,0.856,37.009,11.145,34.802,20.025,4.989,6.549,6.836
1462,0.846,37.048,10.982,34.792,20.015,4.907,6.386,6.674
1463,0.859,36.943,11.113,34.783,20.015,4.987,6.547,6.672
1464,0.866,37.057,11.103,34.811,20.029,5.07,6.549,6.753
1465,0.859,37.154,11.142,34.802,20.019,5.07,6.549,6.754
1466,0.862,37.27,11.111,34.792,20.025,5.07,6.508,6.754
1467,0.866,36.85,11.099,34.85,20.022,5.03,6.508,6.714
1468,0.859,36.941,11.091,34.793,20.019,4.907,6.467,6.632
1469,0.866,37.105,11.048,34.802,20.019,5.028,6.507,6.753
1470,0.876,37.184,11.137,34.792,20.025,5.03,6.549,6.754
1471,0.85,36.849,11.048,34.773,20.012,4.907,6.346,6.632
1472,0.856,37.018,11.075,34.792,20.018,4.987,6.384,6.672
1473,0.872,37.192,11.137,34.831,20.029,5.07,6.629,6.875
1474,0.859,37.233,11.146,34.793,20.022,5.03,6.468,6.796
1475,0.84,36.763,11.134,34.802,20.026,5.03,6.386,6.755
1476,0.846,36.893,11.036,34.783,20.019,4.989,6.344,6.714
1477,0.843,37.019,11.106,34.792,20.019,4.907,6.303,6.672
1478,0.849,37.097,11.071,34.802,20.015,4.987,6.425,6.753
1479,0.836,36.867,11.106,34.792,20.022,5.07,6.426,6.754
1480,0.839,36.989,11.067,34.773,20.015,4.908,6.385,6.673
1481,0.826,37.096,11.063,34.763,20.019,4.947,6.344,6.713
1482,0.836,37.212,11.055,34.821,20.032,5.029,6.547,6.876
1483,0.82,36.744,11.133,34.802,20.022,4.948,6.427,6.755
1484,0.82,36.873,11.079,34.773,20.029,4.988,6.385,6.754
1485,0.82,37.009,11.052,34.782,20.022,4.948,6.425,6.714
1486,0.817,37.02,11.102,34.773,20.015,4.907,6.385,6.591
1487,0.816,36.828,11.126,34.792,20.025,4.987,6.344,6.712
1488,0.81,36.979,11.138,34.783,20.019,5.07,6.506,6.794
1489,0.8,37.077,11.134,34.783,20.019,4.989,6.386,6.633
1490,0.79,37.078,11.118,34.773,20.019,4.988,6.425,6.672
1491,0.806,36.924,11.114,34.821,20.036,5.151,6.588,6.835
1492,0.79,37.038,11.114,34.783,20.022,4.99,6.468,6.714
1493,0.774,37.125,11.099,34.773,20.015,4.907,6.467,6.632
1494,0.764,36.81,11.091,34.782,20.015,4.987,6.507,6.672
1495,0.764,36.893,11.079,34.792,20.022,4.988,6.467,6.631
1496,0.764,37.019,11.071,34.783,20.022,4.988,6.589,6.712
1497,0.764,37.125,11.126,34.802,20.022,5.029,6.631,6.713
1498,0.774,36.695,11.114,34.783,20.019,4.948,6.55,6.632
1499,0.767,36.806,11.165,34.763,20.015,4.947,6.508,6.509
1500,0.79,36.931,11.049,34.782,20.025,5.069,6.63,6.711
1501,0.793,37.038,11.121,34.802,20.029,5.03,6.55,6.591
1502,0.784,36.742,11.083,34.773,20.012,4.826,6.427,6.509
1503,0.793,36.902,11.106,34.773,20.018,4.946,6.507,6.549
1504,0.806,37.067,11.118,34.782,20.025,5.11,6.63,6.59
1505,0.797,37.116,11.075,34.792,20.022,4.949,6.55,6.631
1506,0.794,36.743,11.102,34.792,20.026,5.029,6.549,6.631
1507,0.787,36.873,11.106,34.773,20.022,4.948,6.549,6.631
1508,0.777,36.99,11.134,34.763,20.015,4.947,6.508,6.509
1509,0.787,37.058,11.087,34.763,20.019,4.988,6.508,6.549
1510,0.79,36.675,11.091,34.773,20.025,5.07,6.549,6.549
1511,0.774,36.796,11.091,34.754,20.008,4.908,6.346,6.386
1512,0.764,36.922,11.126,34.754,20.018,4.947,6.466,6.466
1513,0.777,37.028,11.068,34.83,20.036,5.15,6.629,6.67
1514,0.774,36.713,11.079,34.783,20.022,4.99,6.468,6.509
1515,0.758,36.844,11.134,34.792,20.019,4.948,6.507,6.549
1516,0.761,36.932,11.095,34.783,20.019,4.988,6.386,6.386
1517,0.754,36.971,11.11,34.754,20.015,4.988,6.425,6.425
1518,0.761,36.684,11.032,34.763,20.025,4.988,6.466,6.466
1519,0.764,36.844,11.094,34.773,20.029,5.11,6.467,6.507
1520,0.757,36.932,11.099,34.763,20.019,4.989,6.386,6.386
1521,0.751,37.259,11.13,34.754,20.022,4.948,6.425,6.385
1522,0.774,36.696,11.126,34.801,20.032,5.191,6.629,6.588
1523,0.764,36.806,11.06,34.783,20.026,5.031,6.468,6.509
1524,0.761,36.922,11.122,34.763,20.019,5.07,6.386,6.467
1525,0.757,36.712,11.091,34.754,20.025,4.948,6.425,6.426
1526,0.751,36.71,11.106,34.754,20.015,4.988,6.385,6.385
1527,0.748,36.844,11.001,34.782,20.025,5.029,6.425,6.466
1528,0.738,36.98,11.105,34.85,20.022,5.111,6.426,6.507
1529,0.731,36.598,11.091,34.754,20.026,4.989,6.385,6.427
1530,0.725,36.67,11.091,34.754,20.012,4.907,6.344,6.344
1531,0.731,36.834,11.196,34.801,20.029,5.109,6.466,6.547
1532,0.712,36.922,11.088,34.773,20.026,5.152,6.386,6.386
1533,0.711,36.549,11.114,34.725,20.019,4.99,6.303,6.303
1534,0.702,36.689,11.11,34.753,20.015,5.029,6.384,6.384
1535,0.705,36.825,11.157,34.773,20.019,5.03,6.425,6.425
1536,0.718,36.903,11.033,34.773,20.022,4.989,6.385,6.385
1537,0.724,36.635,11.102,34.782,20.026,5.07,6.385,6.466
1538,0.724,36.747,11.064,34.763,20.012,5.03,6.385,6.345
1539,0.724,36.844,11.079,34.754,20.015,4.907,6.344,6.303
1540,0.731,36.951,11.13,34.763,20.022,5.069,6.384,6.465
1541,0.734,36.444,11.087,34.773,20.026,5.07,6.466,6.386
1542,0.725,36.563,11.091,34.735,20.012,4.948,6.264,6.303
1543,0.731,36.728,11.106,34.753,20.018,4.988,6.302,6.384
1544,0.728,36.796,11.161,34.763,20.022,5.11,6.425,6.385
1545,0.734,36.634,11.068,34.754,20.026,4.989,6.344,6.425
1546,0.747,36.786,11.106,34.763,20.026,5.11,6.384,6.426
1547,0.734,36.883,11.087,34.763,20.019,5.03,6.303,6.466
1548,0.721,36.903,11.095,34.725,20.012,4.989,6.18,6.386
1549,0.734,36.578,11.099,34.763,20.025,5.029,6.342,6.507
1550,0.721,36.728,11.126,34.782,20.029,5.07,6.303,6.508
1551,0.718,36.806,11.091,34.735,20.012,4.867,6.14,6.345
1552,0.715,36.874,11.079,34.734,20.022,4.987,6.301,6.425
1553,0.728,36.664,11.149,34.773,20.036,5.07,6.384,6.629
1554,0.715,36.757,11.099,34.763,20.022,5.07,6.303,6.509
1555,0.724,36.902,11.071,34.792,20.026,5.03,6.262,6.549
1556,0.721,36.645,11.071,34.754,20.022,5.03,6.262,6.468
1557,0.724,36.508,11.11,34.734,20.019,4.948,6.18,6.467
1558,0.734,36.65,11.126,34.763,20.022,4.988,6.261,6.507
1559,0.741,36.757,11.173,34.763,20.026,4.988,6.262,6.508
1560,0.741,36.72,11.092,34.725,20.019,4.988,6.18,6.427
1561,0.747,36.825,11.118,34.753,20.019,4.988,6.22,6.385
1562,0.754,36.999,11.091,34.792,20.032,5.151,6.424,6.629
1563,0.748,37.068,11.138,34.754,20.019,4.99,6.304,6.509
1564,0.751,36.368,11.064,34.763,20.019,4.948,6.302,6.427
1565,0.748,36.476,11.071,34.744,20.019,4.988,6.221,6.426
1566,0.741,36.583,11.087,34.734,20.015,4.988,6.261,6.385
1567,0.741,36.699,11.165,34.734,20.019,5.029,6.343,6.507
1568,0.744,36.441,11.209,34.763,20.029,5.07,6.343,6.467
1569,0.731,36.563,11.123,34.754,20.019,5.03,6.262,6.426
1570,0.725,36.68,11.091,34.754,20.019,4.989,6.262,6.385
1571,0.741,36.815,11.079,34.811,20.036,5.192,6.505,6.669
1572,0.721,36.481,11.145,34.754,20.022,5.031,6.467,6.469
1573,0.715,36.621,11.005,34.734,20.019,5.03,6.304,6.467
1574,0.721,36.747,11.105,34.753,20.022,5.03,6.384,6.507
1575,0.715,36.806,11.103,34.754,20.022,5.07,6.507,6.467
1576,0.718,36.529,11.114,34.754,20.019,5.07,6.549,6.629
1577,0.724,36.67,11.157,34.763,20.019,5.111,6.549,6.509
1578,0.728,36.786,11.127,34.744,20.019,5.03,6.508,6.467
1579,0.728,36.807,11.111,34.734,20.015,4.989,6.508,6.345
1580,0.751,36.385,11.06,34.744,20.025,5.11,6.63,6.466
1581,0.761,36.515,11.118,34.763,20.026,5.152,6.712,6.507
1582,0.774,36.612,11.083,34.715,20.012,4.949,6.551,6.345
1583,0.79,36.661,11.114,34.744,20.015,5.069,6.671,6.466
1584,0.816,36.585,11.075,34.744,20.032,5.07,6.672,6.507
1585,0.826,36.689,11.133,34.744,20.026,5.07,6.713,6.427
1586,0.865,36.825,11.118,34.753,20.026,5.193,6.754,6.466
1587,0.885,36.682,11.071,34.744,20.029,5.112,6.673,6.426
1588,0.902,36.384,11.048,34.725,20.012,4.989,6.672,6.344
1589,0.947,36.534,11.09,34.753,20.018,5.11,6.753,6.425
1590,0.98,36.641,11.11,34.754,20.029,5.112,6.795,6.426
1591,0.991,36.46,11.091,34.706,20.012,4.949,6.673,6.344
1592,1.01,36.564,11.099,34.743,20.018,5.069,6.753,6.384
1593,1.036,36.718,11.06,34.753,20.025,5.152,6.836,6.425
1594,1.037,36.796,11.106,34.754,20.022,5.031,6.837,6.426
1595,1.05,36.298,11.099,34.754,20.022,5.111,6.918,6.507
1596,1.073,36.38,11.075,34.715,20.019,5.03,6.837,6.386
1597,1.079,36.515,11.02,34.734,20.015,4.989,6.755,6.344
1598,1.083,36.622,11.086,34.753,20.025,5.151,6.957,6.506
1599,1.044,36.402,11.087,34.754,20.019,5.112,6.96,6.467
1600,0.994,36.505,11.098,34.725,20.012,4.908,6.797,6.386
1601,0.965,36.65,11.122,34.734,20.018,5.069,6.917,6.507
1602,0.935,36.776,11.099,34.744,20.022,5.111,6.959,6.589
1603,0.873,36.346,11.099,34.734,20.026,5.152,7.0,6.59
1604,0.84,36.476,11.114,34.744,20.026,5.193,7.001,6.631
1605,0.817,36.592,11.103,34.734,20.015,5.072,6.96,6.631
1606,0.774,36.661,11.067,34.715,20.015,5.03,6.919,6.59
1607,0.748,36.316,11.048,34.724,20.022,5.111,6.959,6.712
1608,0.689,36.466,11.102,34.744,20.019,5.152,7.0,6.794
1609,0.656,36.535,11.064,34.715,20.012,5.071,6.879,6.592
1610,0.61,36.603,11.129,34.753,20.015,5.07,6.877,6.712
1611,0.606,36.44,11.072,34.754,20.032,5.233,7.04,6.876
1612,0.57,36.563,11.114,34.744,20.022,5.072,6.92,6.918
1613,0.557,36.67,11.103,34.734,20.026,5.152,6.878,6.959
1614,0.541,36.69,11.114,34.734,20.022,5.112,6.877,7.082
1615,0.501,36.288,11.052,34.753,20.008,5.03,6.796,7.164
1616,0.459,36.437,11.11,34.754,20.018,5.111,6.836,7.368
1617,0.413,36.554,11.122,34.754,20.029,5.193,6.918,7.695
1618,0.36,36.852,11.118,34.725,20.015,5.072,6.756,8.065
1619,0.308,36.433,11.091,34.715,20.012,4.989,6.754,8.353
1620,0.255,36.602,11.087,34.763,20.032,5.232,6.998,9.006
1621,0.196,36.69,11.102,34.744,20.026,5.153,6.797,9.501
1622,0.114,36.412,11.06,34.715,20.015,5.071,6.755,10.034
1623,0.1,36.429,11.145,34.724,20.012,5.07,6.795,10.731
1624,0.107,36.534,10.982,34.744,20.015,5.111,6.795,11.266
1625,0.1,36.66,11.097,34.725,20.025,5.193,6.795,11.882
1626,0.074,36.239,11.122,34.744,20.015,5.153,6.836,12.376
1627,0.061,36.35,11.153,34.725,20.022,5.112,6.837,12.665
1628,0.058,36.447,11.142,34.715,20.015,5.112,6.714,12.993
1629,0.093,36.583,11.08,34.724,20.022,5.152,6.835,13.363
1630,0.129,36.258,11.083,34.734,20.026,5.071,6.796,13.529
1631,0.14,36.37,11.028,34.696,20.019,4.989,6.673,13.408
1632,0.182,36.496,11.137,34.734,20.019,5.029,6.672,13.692
1633,0.244,36.641,11.115,34.773,20.032,5.192,6.875,13.898
1634,0.277,36.297,11.087,34.735,20.026,5.112,6.796,13.941
1635,0.326,36.428,11.138,34.734,20.026,5.112,6.917,14.104
1636,0.369,36.534,11.13,34.734,20.022,5.112,6.796,14.268
1637,0.418,36.622,11.122,34.715,20.015,5.03,6.714,14.514
1638,0.468,36.249,11.075,34.734,20.019,5.07,6.794,14.882
1639,0.517,36.379,11.059,34.753,20.025,5.111,6.877,15.414
1640,0.553,36.505,11.044,34.696,20.012,4.989,6.715,15.704
1641,0.589,36.554,11.125,34.715,20.018,5.029,6.754,16.154
1642,0.629,36.267,11.083,34.763,20.032,5.192,6.876,16.809
1643,0.639,36.408,11.11,34.734,20.019,5.072,6.877,17.141
1644,0.655,36.505,11.064,34.705,20.019,5.111,6.755,17.348
1645,0.668,36.535,11.137,34.724,20.019,5.071,6.714,17.512
1646,0.678,36.238,11.079,34.705,20.019,4.989,6.713,17.636
1647,0.691,36.369,11.083,34.753,20.019,5.11,6.794,17.678
1648,0.708,36.543,11.083,34.754,20.025,5.071,6.836,17.678
1649,0.718,36.526,11.126,34.725,20.026,5.03,6.796,17.556
1650,0.715,36.286,11.091,34.715,20.012,5.03,6.795,17.392
1651,0.744,36.475,11.145,34.744,20.029,5.192,6.999,17.391
1652,0.747,36.564,11.107,34.744,20.026,5.072,6.879,17.025
1653,0.751,36.344,11.095,34.706,20.015,5.03,6.755,16.655
1654,0.754,36.313,11.142,34.715,20.019,5.07,6.754,16.489
1655,0.774,36.485,11.111,34.753,20.032,5.233,6.876,16.284
1656,0.774,36.554,11.067,34.725,20.022,5.072,6.837,15.957
1657,0.78,36.306,11.094,34.724,20.026,5.07,6.918,15.669
1658,0.787,36.38,11.091,34.715,20.026,5.07,6.796,15.341
1659,0.784,36.496,11.106,34.724,20.012,4.989,6.755,15.053
1660,0.797,36.593,11.149,34.715,20.018,5.07,6.836,14.847
1661,0.803,36.239,11.126,34.734,20.025,5.193,6.837,14.601
1662,0.803,36.36,11.103,34.725,20.019,4.99,6.796,14.314
1663,0.797,36.476,11.138,34.724,20.015,5.029,6.673,14.067
1664,0.816,36.592,11.134,34.753,20.036,5.233,6.957,13.942
1665,0.807,36.172,11.056,34.725,20.026,5.153,6.838,13.616
1666,0.803,36.302,11.075,34.705,20.019,5.031,6.755,13.369
1667,0.8,36.428,11.083,34.705,20.025,5.07,6.754,13.204
1668,0.813,36.515,11.11,34.715,20.022,5.111,6.714,12.999
1669,0.803,36.353,11.149,34.705,20.029,5.152,6.754,12.834
1670,0.803,36.486,11.123,34.734,20.029,5.153,6.795,12.71
1671,0.797,36.612,11.142,34.725,20.022,5.112,6.714,12.384
1672,0.79,36.642,11.056,34.705,20.008,5.071,6.672,12.177
1673,0.8,36.163,11.133,34.715,20.029,5.193,6.753,12.094
1674,0.8,36.321,11.052,34.724,20.026,5.153,6.795,11.971
1675,0.794,36.418,11.067,34.686,20.015,5.031,6.673,11.604
1676,0.8,36.496,11.044,34.695,20.015,5.111,6.713,11.56
1677,0.816,36.324,11.129,34.715,20.025,5.112,6.794,11.519
1678,0.826,36.437,11.15,34.715,20.026,5.112,6.795,11.274
1679,0.826,36.563,11.13,34.724,20.026,5.193,6.795,11.19
1680,0.83,36.565,11.111,34.715,20.019,5.072,6.795,11.027
1681,0.823,36.239,11.06,34.696,20.019,5.07,6.714,10.822
1682,0.839,36.389,11.161,34.715,20.025,5.152,6.794,10.779
1683,0.836,36.486,11.076,34.715,20.029,5.193,6.795,10.657
1684,0.839,36.401,11.087,34.676,20.008,4.95,6.633,10.331
1685,0.843,36.237,11.059,34.676,20.015,5.069,6.672,10.327
1686,0.849,36.398,11.141,34.734,20.022,5.233,6.794,10.368
1687,0.827,36.486,11.091,34.715,20.022,5.194,6.795,10.206
1688,0.836,36.18,11.114,34.724,20.029,5.153,6.714,10.041
1689,0.833,36.235,11.099,34.715,20.019,5.153,6.672,9.958
1690,0.826,36.36,11.079,34.696,20.012,5.031,6.591,9.795
1691,0.83,36.467,11.094,34.705,20.022,5.111,6.671,9.753
1692,0.83,36.17,11.134,34.715,20.022,5.152,6.713,9.793
1693,0.826,36.273,11.079,34.686,20.019,5.031,6.551,9.549
1694,0.823,36.418,11.075,34.705,20.019,5.03,6.63,9.547
1695,0.836,36.553,11.157,34.734,20.032,5.314,6.794,9.588
1696,0.83,36.2,11.111,34.705,20.026,5.236,6.673,9.385
1697,0.83,36.331,11.134,34.686,20.019,5.113,6.55,9.342
1698,0.833,36.438,11.111,34.695,20.015,5.071,6.63,9.179
1699,0.836,36.535,10.982,34.705,20.015,5.111,6.631,9.055
1700,0.849,36.104,11.074,34.715,20.019,5.112,6.631,9.013
1701,0.853,36.263,11.091,34.724,20.029,5.234,6.631,9.054
1702,0.853,36.37,11.106,34.705,20.019,5.113,6.55,8.891
1703,0.853,36.438,11.079,34.715,20.012,5.112,6.549,8.768
1704,0.869,36.276,11.122,34.715,20.025,5.234,6.671,8.807
1705,0.866,36.389,11.095,34.686,20.026,5.194,6.591,8.808
1706,0.856,36.515,11.138,34.676,20.019,5.153,6.427,8.482
1707,0.859,36.554,11.079,34.695,20.015,5.193,6.466,8.52
1708,0.862,36.162,10.977,34.753,20.029,5.275,6.629,8.601
1709,0.859,36.321,11.101,34.715,20.022,5.235,6.631,8.521
1710,0.853,36.447,11.075,34.715,20.029,5.275,6.509,8.479
1711,0.846,36.458,11.126,34.705,20.019,5.276,6.467,8.438
1712,0.843,36.17,11.087,34.743,20.012,5.113,6.426,8.275
1713,0.849,36.321,11.079,34.696,20.025,5.234,6.507,8.274
1714,0.853,36.437,11.161,34.705,20.026,5.194,6.508,8.314
1715,0.83,36.582,11.127,34.686,20.015,5.072,6.345,8.112
1716,0.846,36.124,11.072,34.705,20.019,5.193,6.466,8.069
1717,0.869,36.301,11.079,34.801,20.032,5.356,6.589,8.231
1718,0.863,36.37,11.091,34.716,20.019,5.195,6.468,8.07
1719,0.862,36.093,11.075,34.686,20.019,5.153,6.426,8.069
1720,0.869,36.109,11.118,34.695,20.025,5.193,6.385,8.028
1721,0.869,36.253,11.032,34.686,20.012,5.153,6.344,7.946
1722,0.872,36.37,11.082,34.686,20.018,5.193,6.466,8.026
1723,0.879,36.093,11.122,34.705,20.025,5.234,6.548,8.068
1724,0.869,36.195,11.142,34.686,20.019,5.113,6.386,7.824
1725,0.879,36.331,11.103,34.676,20.019,5.152,6.466,7.822
1726,0.898,36.466,11.087,34.734,20.032,5.275,6.548,7.985
1727,0.869,35.969,11.098,34.696,20.029,5.154,6.427,7.824
1728,0.869,36.098,11.075,34.686,20.019,5.193,6.385,7.741
1729,0.866,36.243,11.118,34.705,20.019,5.153,6.344,7.74
1730,0.869,36.293,11.118,34.676,20.012,5.153,6.303,7.74
1731,0.869,36.102,11.107,34.695,20.022,5.234,6.384,7.781
1732,0.866,36.253,11.036,34.705,20.026,5.275,6.385,7.74
1733,0.859,36.36,11.137,34.696,20.026,5.195,6.263,7.699
1734,0.862,36.419,11.048,34.686,20.015,5.112,6.302,7.577
1735,0.869,36.007,11.094,34.705,20.025,5.274,6.384,7.738
1736,0.859,36.147,11.067,34.705,20.026,5.154,6.344,7.659
1737,0.862,36.244,11.122,34.667,20.012,5.031,6.221,7.495
1738,0.882,36.302,11.122,34.705,20.012,5.151,6.302,7.616
1739,0.885,36.13,11.114,34.715,20.025,5.193,6.302,7.535
1740,0.885,36.282,11.114,34.696,20.022,5.194,6.302,7.575
1741,0.905,36.408,11.079,34.695,20.022,5.194,6.343,7.575
1742,0.892,36.429,11.137,34.695,20.026,5.194,6.303,7.535
1743,0.892,36.045,11.076,34.676,20.015,5.031,6.221,7.453
1744,0.899,36.195,11.118,34.705,20.029,5.192,6.302,7.534
1745,0.908,36.331,11.068,34.686,20.026,5.194,6.302,7.494
1746,0.886,36.313,11.114,34.676,20.012,4.99,6.14,7.29
1747,0.895,36.054,11.095,34.686,20.018,5.11,6.179,7.329
1748,0.899,36.224,11.149,34.705,20.029,5.193,6.342,7.532
1749,0.899,36.321,11.115,34.696,20.022,5.112,6.262,7.412
1750,0.892,36.14,11.075,34.695,20.026,5.193,6.262,7.411
1751,0.886,36.081,11.126,34.676,20.022,5.153,6.262,7.289
1752,0.885,36.205,11.111,34.676,20.015,5.112,6.221,7.288
1753,0.892,36.34,11.056,34.705,20.022,5.193,6.261,7.288
1754,0.902,35.929,11.063,34.686,20.026,5.194,6.343,7.329
1755,0.889,36.012,11.102,34.686,20.022,5.112,6.262,7.289
1756,0.892,36.128,11.114,34.695,20.019,5.03,6.221,7.207
1757,0.912,36.244,11.13,34.705,20.029,5.192,6.383,7.328
1758,0.915,36.044,11.083,34.686,20.022,5.153,6.385,7.248
1759,0.905,36.137,11.052,34.676,20.008,4.99,6.263,7.166
1760,0.921,36.292,11.086,34.667,20.018,5.029,6.343,7.206
1761,0.928,36.389,11.11,34.695,20.025,5.151,6.384,7.287
1762,0.931,35.901,11.095,34.695,20.026,5.193,6.385,7.166
1763,0.941,36.059,11.079,34.676,20.026,5.153,6.425,7.206
1764,0.935,36.186,11.102,34.676,20.029,5.071,6.385,7.125
1765,0.935,36.225,11.091,34.657,20.015,5.07,6.385,7.043
1766,0.941,35.9,11.138,34.685,20.025,5.152,6.344,7.123
1767,0.945,36.078,10.986,34.695,20.029,5.112,6.384,7.205
1768,0.932,36.224,10.957,34.676,20.022,5.071,6.425,7.043
1769,0.925,36.264,11.07,34.667,20.019,5.07,6.344,6.96
1770,0.944,36.101,11.091,34.686,20.029,5.193,6.506,7.204
1771,0.928,36.215,11.153,34.686,20.026,5.072,6.386,7.043
1772,0.918,36.321,11.103,34.686,20.008,4.989,6.344,6.92
1773,0.931,36.38,11.106,34.676,20.018,5.029,6.384,6.959
1774,0.935,35.93,11.114,34.705,20.022,5.07,6.466,7.041
1775,0.935,36.079,11.149,34.696,20.026,5.07,6.467,7.042
1776,0.945,36.186,11.044,34.695,20.019,5.152,6.507,7.042
1777,0.951,36.206,11.098,34.686,20.019,5.071,6.467,6.96
1778,0.945,36.014,11.021,34.667,20.019,4.948,6.386,6.878
1779,0.961,36.147,11.086,34.676,20.025,5.029,6.385,7.0
1780,0.961,36.263,11.083,34.686,20.026,5.07,6.425,7.001
1781,0.964,36.12,11.091,34.657,20.012,4.948,6.385,6.797
1782,0.977,35.985,11.095,34.666,20.018,4.947,6.344,6.917
1783,0.984,36.175,11.122,34.695,20.029,5.15,6.547,7.081
1784,0.981,36.215,11.15,34.676,20.026,5.112,6.386,6.92
1785,0.994,35.976,11.052,34.676,20.022,5.071,6.425,6.878
1786,0.987,36.06,11.106,34.686,20.019,4.989,6.344,6.837
1787,0.987,36.186,11.06,34.667,20.015,5.07,6.343,6.755
1788,0.984,36.283,11.118,34.676,20.019,5.07,6.425,6.836
1789,0.994,35.986,11.06,34.686,20.025,5.111,6.426,6.918
1790,0.984,36.07,11.118,34.676,20.019,5.071,6.344,6.756
1791,0.987,36.214,11.099,34.657,20.019,4.989,6.343,6.754
1792,1.004,36.34,11.06,34.695,20.036,5.232,6.547,6.957
1793,0.997,35.862,11.153,34.676,20.019,5.113,6.427,6.878
1794,0.991,35.982,11.052,34.676,20.012,4.989,6.385,6.796
1795,0.997,36.118,11.122,34.667,20.015,5.029,6.466,6.795
1796,1.01,36.215,11.064,34.666,20.025,4.989,6.426,6.836
1797,1.014,35.89,11.137,34.676,20.026,5.07,6.548,6.755
1798,1.03,36.011,11.138,34.667,20.022,5.07,6.549,6.876
1799,1.03,36.118,11.138,34.676,20.022,4.989,6.468,6.796
1800,1.04,36.177,11.079,34.667,20.012,4.948,6.467,6.755
1801,1.053,35.841,11.071,34.657,20.018,5.029,6.589,6.795
1802,1.063,35.982,11.137,34.695,20.025,5.151,6.59,6.836
1803,1.05,36.051,11.079,34.648,20.008,4.99,6.468,6.674
1804,1.073,36.138,11.079,34.705,20.029,4.988,6.507,6.753
1805,1.079,35.956,11.063,34.696,20.029,5.11,6.67,6.836
1806,1.073,36.089,11.141,34.676,20.019,5.071,6.672,6.755
1807,1.073,36.224,11.119,34.676,20.019,5.07,6.672,6.917
1808,1.076,36.235,11.169,34.686,20.019,5.03,6.631,6.756
1809,1.066,35.9,11.107,34.667,20.015,5.07,6.631,6.673
1810,1.076,36.05,11.118,34.753,20.022,5.07,6.712,6.794
1811,1.076,36.176,11.075,34.696,20.026,5.111,6.713,6.795
1812,1.073,36.263,11.102,34.638,20.012,4.989,6.632,6.714
1813,1.092,35.977,11.06,34.676,20.018,5.07,6.631,6.632
1814,1.109,36.166,11.087,34.724,20.029,5.233,6.875,6.916
1815,1.099,36.235,11.122,34.686,20.022,5.072,6.674,6.796
1816,1.102,35.9,11.083,34.686,20.019,5.152,6.713,6.795
1817,1.119,35.906,11.137,34.676,20.019,5.112,6.632,6.714
1818,1.122,36.05,11.083,34.676,20.019,5.071,6.631,6.713
1819,1.135,36.195,11.059,34.676,20.019,5.152,6.672,6.754
1820,1.145,35.995,11.067,34.695,20.029,5.112,6.753,6.795
1821,1.148,36.079,11.13,34.676,20.019,5.112,6.673,6.755
1822,1.155,36.195,11.052,34.657,20.015,5.03,6.631,6.714
1823,1.174,36.331,11.141,34.705,20.036,5.192,6.753,6.916
1824,1.162,35.891,11.033,34.667,20.026,5.153,6.714,6.796
1825,1.168,35.992,11.141,34.666,20.012,5.031,6.632,6.714
1826,1.178,36.127,11.064,34.686,20.015,5.07,6.672,6.754
1827,1.181,36.225,11.067,34.686,20.015,5.152,6.672,6.795
1828,1.175,36.034,10.966,34.705,20.025,5.193,6.631,6.836
1829,1.188,36.204,11.093,34.705,20.026,5.153,6.712,6.837
1830,1.175,36.312,11.071,34.696,20.022,5.071,6.632,6.796
1831,1.171,36.351,11.153,34.638,20.019,5.07,6.631,6.795
1832,1.175,36.131,11.087,34.743,20.022,5.152,6.672,6.836
1833,1.191,36.292,11.079,34.696,20.026,5.153,6.672,6.877
1834,1.178,36.37,11.137,34.648,20.008,4.99,6.631,6.674
1835,1.175,36.419,11.103,34.657,20.015,5.11,6.631,6.753
1836,1.201,36.304,11.095,34.714,20.025,5.234,6.794,6.876
1837,1.201,36.408,11.06,34.686,20.019,5.153,6.673,6.796
1838,1.217,36.525,11.086,34.686,20.025,5.153,6.713,6.795
1839,1.214,36.535,11.044,34.676,20.022,5.112,6.632,6.755
1840,1.214,36.238,11.129,34.667,20.012,5.03,6.59,6.714
1841,1.237,36.398,11.048,34.686,20.018,5.07,6.712,6.754
1842,1.24,36.515,11.114,34.695,20.022,5.193,6.713,6.836
1843,1.234,36.765,11.056,34.676,20.015,4.99,6.672,6.755
1844,1.227,36.327,11.118,34.667,20.015,5.07,6.631,6.673
1845,1.263,36.514,11.099,34.714,20.032,5.274,6.834,6.875
1846,1.254,36.612,11.083,34.686,20.026,5.195,6.674,6.796
1847,1.234,36.517,11.091,34.667,20.019,5.153,6.672,6.714
1848,1.24,36.554,11.059,34.666,20.022,5.071,6.672,6.672
1849,1.231,36.68,11.122,34.676,20.019,5.07,6.672,6.631
1850,1.237,36.777,11.114,34.667,20.025,5.152,6.753,6.753
1851,1.247,36.49,11.107,34.695,20.026,5.193,6.795,6.714
1852,1.237,36.583,11.11,34.695,20.022,5.112,6.755,6.713
1853,1.227,36.689,11.142,34.648,20.012,5.112,6.632,6.632
1854,1.227,36.796,11.111,34.676,20.015,5.152,6.753,6.672
1855,1.237,36.672,11.079,34.676,20.025,5.153,6.795,6.753
1856,1.214,36.777,11.102,34.657,20.012,4.99,6.673,6.592
1857,1.224,36.912,11.064,34.676,20.012,5.029,6.713,6.631
1858,1.247,37.038,11.149,34.714,20.029,5.273,6.916,6.834
1859,1.24,36.665,11.154,34.676,20.026,5.113,6.796,6.674
1860,1.237,36.786,11.091,34.686,20.026,5.112,6.755,6.672
1861,1.237,36.912,11.11,34.676,20.015,5.071,6.795,6.591
1862,1.227,36.99,11.107,34.657,20.025,5.03,6.795,6.671
1863,1.23,36.799,11.126,34.676,20.019,5.151,6.836,6.713
1864,1.237,36.97,11.079,34.686,20.022,5.153,6.877,6.672
1865,1.231,37.067,11.098,34.657,20.019,5.193,6.837,6.631
1866,1.214,37.116,11.079,34.647,20.012,5.153,6.796,6.59
1867,1.204,37.04,11.165,34.676,20.018,5.153,6.877,6.671
1868,1.198,37.164,11.076,34.695,20.025,5.234,6.796,6.713
1869,1.181,37.251,11.083,34.638,20.015,5.072,6.673,6.469
1870,1.168,37.31,11.11,34.657,20.015,5.152,6.753,6.629
1871,1.175,37.099,11.083,34.714,20.025,5.315,6.957,6.712
1872,1.152,37.164,11.126,34.676,20.022,5.276,6.838,6.632
1873,1.152,37.29,11.017,34.657,20.019,5.276,6.796,6.59
1874,1.145,37.31,11.098,34.657,20.015,5.235,6.755,6.631
1875,1.129,37.119,11.075,34.676,20.015,5.235,6.714,6.55
1876,1.129,37.251,11.161,34.686,20.025,5.194,6.835,6.671
1877,1.132,37.367,11.154,34.686,20.026,5.275,6.837,6.672
1878,1.112,37.301,11.064,34.686,20.019,5.235,6.755,6.509
1879,1.102,37.262,11.028,34.667,20.019,5.235,6.673,6.467
1880,1.099,37.425,11.051,34.676,20.029,5.316,6.835,6.629
1881,1.083,37.513,11.122,34.667,20.022,5.276,6.714,6.631
1882,1.073,37.092,11.036,34.638,20.008,5.154,6.632,6.387
1883,1.069,37.193,11.09,34.676,20.018,5.112,6.672,6.466
1884,1.073,37.338,11.083,34.695,20.025,5.315,6.794,6.548
1885,1.056,37.426,11.153,34.657,20.026,5.236,6.755,6.549
1886,1.05,37.225,11.119,34.666,20.019,5.235,6.795,6.508
1887,1.03,37.367,11.068,34.657,20.019,5.235,6.755,6.427
1888,1.014,37.484,11.075,34.657,20.008,5.153,6.673,6.466
1889,1.004,37.59,11.059,34.676,20.018,5.234,6.794,6.467
1890,0.991,37.39,11.126,34.667,20.025,5.357,6.877,6.507
1891,0.971,37.503,11.111,34.647,20.015,5.317,6.715,6.427
1892,0.964,37.61,10.993,34.676,20.019,5.154,6.672,6.344
1893,0.968,37.726,11.07,34.705,20.036,5.437,6.875,6.588
1894,0.942,37.43,11.114,34.667,20.026,5.237,6.796,6.427
1895,0.932,37.551,11.138,34.657,20.019,5.275,6.836,6.466
1896,0.928,37.687,11.044,34.657,20.019,5.276,6.796,6.426
1897,0.928,37.746,11.106,34.705,20.012,5.195,6.795,6.385
1898,0.925,37.459,11.083,34.676,20.022,5.234,6.755,6.385
1899,0.922,37.571,11.13,34.667,20.029,5.357,6.795,6.466
1900,0.912,37.687,11.142,34.666,20.019,5.277,6.795,6.426
1901,0.915,37.717,11.122,34.638,20.015,5.195,6.755,6.385
1902,0.925,37.525,11.091,34.685,20.029,5.356,6.957,6.507
1903,0.905,37.639,11.126,34.676,20.019,5.277,6.797,6.467
1904,0.892,37.707,11.072,34.647,20.015,5.276,6.714,6.304
1905,0.905,37.765,11.083,34.666,20.019,5.235,6.794,6.384
1906,0.895,37.603,11.044,34.676,20.025,5.397,6.877,6.385
1907,0.886,37.716,11.09,34.676,20.019,5.318,6.796,6.425
1908,0.879,37.823,11.13,34.667,20.025,5.317,6.836,6.426
1909,0.863,37.843,11.115,34.676,20.022,5.276,6.755,6.304
1910,0.856,37.623,11.161,34.657,20.019,5.195,6.714,6.262
1911,0.853,37.764,11.091,34.657,20.019,5.316,6.794,6.384
1912,0.846,37.89,11.106,34.676,20.025,5.358,6.714,6.385
1913,0.827,37.613,11.114,34.638,20.015,5.195,6.672,6.222
1914,0.83,37.678,11.095,34.685,20.022,5.194,6.672,6.302
1915,0.839,37.841,11.075,34.715,20.032,5.356,6.875,6.465
1916,0.823,37.901,11.071,34.676,20.026,5.277,6.715,6.345
1917,0.82,37.623,11.075,34.667,20.026,5.276,6.713,6.384
1918,0.826,37.735,11.141,34.657,20.019,5.195,6.754,6.263
1919,0.823,37.842,11.173,34.647,20.019,5.234,6.714,6.302
1920,0.833,37.939,11.072,34.657,20.022,5.235,6.672,6.262
1921,0.833,37.566,11.094,34.685,20.019,5.235,6.835,6.384
1922,0.823,37.687,11.102,34.667,20.015,5.194,6.714,6.303
1923,0.82,37.803,11.11,34.647,20.012,5.194,6.713,6.221
1924,0.846,37.929,11.075,34.685,20.032,5.397,6.835,6.424
1925,0.836,37.643,11.067,34.686,20.022,5.277,6.714,6.344
1926,0.817,37.755,11.079,34.647,20.012,5.195,6.672,6.303
1927,0.807,37.89,11.137,34.676,20.012,5.153,6.753,6.343
1928,0.803,37.949,11.154,34.667,20.015,5.193,6.714,6.303
1929,0.8,37.585,11.087,34.657,20.022,5.194,6.713,6.384
1930,0.797,37.745,11.11,34.676,20.026,5.316,6.754,6.507
1931,0.8,37.833,11.079,34.657,20.026,5.195,6.714,6.427
1932,0.781,37.891,11.145,34.638,20.012,5.234,6.672,6.385
1933,0.803,37.767,11.076,34.724,20.025,5.316,6.794,6.547
1934,0.8,37.881,11.091,34.686,20.026,5.236,6.755,6.549
1935,0.781,37.959,11.063,34.638,20.015,5.194,6.632,6.427
1936,0.787,37.998,11.165,34.657,20.012,5.234,6.672,6.426
1937,0.806,37.691,11.091,34.676,20.025,5.235,6.794,6.507
1938,0.8,37.803,11.075,34.657,20.019,5.235,6.795,6.549
1939,0.803,37.939,11.075,34.714,20.019,5.316,6.795,6.59
1940,0.8,38.266,11.059,34.648,20.025,5.276,6.795,6.509
1941,0.794,37.819,11.114,34.637,20.012,5.235,6.714,6.467
1942,0.806,37.948,11.052,34.657,20.018,5.235,6.794,6.548
1943,0.813,38.084,11.114,34.676,20.025,5.275,6.836,6.59
1944,0.794,37.798,11.056,34.638,20.005,5.073,6.633,6.387
1945,0.8,37.814,11.145,34.647,20.015,5.233,6.794,6.507
1946,0.826,37.977,11.103,34.705,20.025,5.397,6.877,6.63
1947,0.8,38.055,11.06,34.667,20.026,5.318,6.837,6.59
1948,0.8,37.769,11.09,34.676,20.026,5.236,6.796,6.509
1949,0.794,37.861,11.052,34.657,20.019,5.316,6.755,6.508
1950,0.787,37.949,11.071,34.647,20.008,5.236,6.673,6.467
1951,0.79,38.065,11.063,34.657,20.022,5.235,6.835,6.589
1952,0.79,37.673,11.114,34.657,20.022,5.316,6.796,6.631
1953,0.78,37.774,11.064,34.657,20.022,5.236,6.795,6.509
1954,0.767,37.89,11.141,34.647,20.015,5.194,6.714,6.549
1955,0.774,37.987,11.06,34.695,20.022,5.316,6.835,6.671
1956,0.784,37.643,11.114,34.743,20.026,5.317,6.877,6.672
1957,0.771,37.736,11.091,34.629,20.005,5.154,6.755,6.469
1958,0.78,37.88,11.067,34.647,20.018,5.193,6.754,6.507
1959,0.79,37.978,11.126,34.666,20.025,5.316,6.836,6.63
1960,0.787,37.749,11.091,34.666,20.019,5.317,6.796,6.631
1961,0.79,37.89,11.032,34.705,20.025,5.317,6.917,6.631
1962,0.8,38.026,11.063,34.657,20.026,5.195,6.796,6.631
1963,0.79,38.046,11.141,34.647,20.019,5.234,6.714,6.55
1964,0.797,37.73,11.052,34.647,20.022,5.235,6.876,6.549
1965,0.81,37.89,11.102,34.657,20.026,5.275,6.796,6.671
1966,0.803,38.007,11.118,34.647,20.019,5.235,6.755,6.591
1967,0.787,37.998,11.107,34.657,20.019,5.153,6.714,6.549
1968,0.793,37.778,11.142,34.676,20.029,5.356,6.916,6.712
1969,0.793,37.89,11.134,34.667,20.026,5.236,6.796,6.713
1970,0.774,37.978,11.115,34.628,20.019,5.153,6.633,6.51
1971,0.78,38.027,11.068,34.656,20.019,5.153,6.753,6.63
1972,0.78,37.778,11.118,34.676,20.025,5.275,6.754,6.631
1973,0.771,37.881,11.087,34.647,20.029,5.316,6.836,6.631
1974,0.78,38.026,11.106,34.714,20.029,5.276,6.755,6.672
1975,0.774,37.807,11.075,34.648,20.022,5.276,6.754,6.591
1976,0.761,37.718,11.075,34.647,20.012,5.154,6.632,6.509
1977,0.783,37.851,11.13,34.657,20.025,5.234,6.753,6.63
1978,0.787,37.949,11.169,34.685,20.029,5.316,6.754,6.672
1979,0.777,37.806,11.068,34.638,20.008,5.154,6.551,6.55
1980,0.774,37.939,11.102,34.657,20.018,5.315,6.712,6.59
1981,0.803,38.103,11.099,34.676,20.036,5.358,6.835,6.712
1982,0.794,38.181,11.13,34.676,20.022,5.317,6.714,6.632
1983,0.79,37.616,11.072,34.657,20.026,5.276,6.632,6.631
1984,0.803,37.726,11.071,34.647,20.022,5.195,6.672,6.59
1985,0.803,37.832,11.098,34.647,20.019,5.234,6.591,6.549
1986,0.803,37.92,11.118,34.657,20.015,5.275,6.631,6.59
1987,0.8,37.662,11.146,34.676,20.022,5.316,6.631,6.59
1988,0.787,37.765,11.052,34.657,20.019,5.195,6.59,6.509
1989,0.784,37.89,11.09,34.657,20.019,5.153,6.549,6.549
1990,0.797,37.987,11.071,34.695,20.029,5.397,6.63,6.752
1991,0.781,37.777,11.137,34.667,20.022,5.236,6.59,6.632
1992,0.774,37.881,11.048,34.638,20.012,5.153,6.468,6.509
1993,0.787,38.035,11.11,34.666,20.022,5.193,6.507,6.589
1994,0.784,38.104,11.099,34.666,20.022,5.316,6.549,6.671
1995,0.767,37.644,11.114,34.676,20.019,5.236,6.508,6.631
1996,0.783,37.784,11.13,34.686,20.032,5.275,6.589,6.712
1997,0.787,37.871,11.017,34.676,20.022,5.195,6.509,6.632
1998,0.787,37.911,11.028,34.657,20.015,5.153,6.467,6.59
1999,0.793,37.767,11.051,34.666,20.025,5.275,6.548,6.671
2000,0.793,37.909,11.11,34.676,20.019,5.316,6.508,6.753
2001,0.78,37.959,11.149,34.647,20.015,5.154,6.305,6.51
2002,0.797,38.007,11.119,34.657,20.015,5.153,6.465,6.67
2003,0.803,38.295,11.091,34.676,20.029,5.315,6.507,6.753
2004,0.797,38.394,11.106,34.657,20.019,5.276,6.508,6.714
2005,0.797,38.491,11.134,34.676,20.022,5.316,6.508,6.672
2006,0.8,38.204,11.025,34.657,20.019,5.195,6.386,6.631
2007,0.787,37.626,11.102,34.638,20.019,5.234,6.385,6.631
2008,0.79,37.774,11.013,34.666,20.022,5.235,6.425,6.712
2009,0.78,37.871,11.106,34.676,20.022,5.316,6.426,6.794
2010,0.774,37.652,11.165,34.657,20.022,5.195,6.344,6.633
2011,0.777,37.688,11.08,34.647,20.015,5.153,6.303,6.59
2012,0.787,37.861,11.141,34.685,20.032,5.315,6.628,6.793
2013,0.777,37.958,11.083,34.657,20.019,5.236,6.387,6.714
2014,0.764,37.691,11.145,34.647,20.015,5.194,6.344,6.632
2015,0.77,37.813,11.021,34.657,20.015,5.194,6.303,6.794
2016,0.78,37.948,11.098,34.666,20.019,5.316,6.343,6.836
2017,0.784,38.036,11.091,34.666,20.019,5.236,6.343,6.837
2018,0.793,37.72,11.075,34.676,20.025,5.316,6.425,6.918
2019,0.787,37.832,11.114,34.657,20.015,5.236,6.304,6.837
2020,0.793,37.92,11.122,34.638,20.012,5.153,6.18,6.877
2021,0.81,38.045,11.138,34.666,20.018,5.234,6.342,7.04
2022,0.8,37.615,11.06,34.676,20.029,5.235,6.343,7.042
2023,0.79,37.716,11.149,34.638,20.012,5.113,6.221,7.042
2024,0.8,37.871,11.041,34.666,20.018,5.234,6.302,7.164
2025,0.813,37.958,11.11,34.695,20.025,5.275,6.384,7.287
2026,0.807,37.739,11.13,34.676,20.026,5.195,6.303,7.369
2027,0.8,37.88,11.126,34.676,20.026,5.234,6.343,7.452
2028,0.787,37.997,11.138,34.667,20.019,5.194,6.343,7.493
2029,0.78,38.027,11.115,34.647,20.015,5.112,6.221,7.534
2030,0.777,37.624,11.071,34.647,20.015,5.193,6.342,7.616
2031,0.79,37.755,11.067,34.666,20.025,5.234,6.343,7.698
2032,0.777,37.852,11.137,34.647,20.019,5.194,6.181,7.658
2033,0.78,37.882,11.083,34.637,20.019,5.153,6.22,7.617
2034,0.79,37.748,11.13,34.695,20.032,5.356,6.505,7.942
2035,0.78,37.833,11.064,34.657,20.029,5.236,6.345,7.823
2036,0.774,37.939,11.122,34.647,20.022,5.194,6.262,7.781
2037,0.787,38.266,11.118,34.657,20.019,5.194,6.302,7.822
2038,0.79,37.713,11.126,34.647,20.019,5.153,6.221,7.781
2039,0.797,37.851,11.087,34.657,20.022,5.193,6.342,7.781
2040,0.813,37.958,11.098,34.666,20.022,5.194,6.343,7.862
2041,0.797,37.643,11.095,34.657,20.019,5.153,6.262,7.741
2042,0.794,37.611,11.099,34.647,20.012,5.071,6.221,7.699
2043,0.8,37.774,11.134,34.705,20.029,5.233,6.342,7.821
2044,0.8,37.862,11.052,34.657,20.029,5.194,6.303,7.781
2045,0.803,37.604,11.125,34.618,20.015,5.072,6.14,7.618
2046,0.797,37.726,11.087,34.637,20.019,5.111,6.219,7.698
2047,0.803,37.89,11.138,34.676,20.025,5.152,6.342,7.861
2048,0.794,37.959,11.099,34.667,20.022,5.193,6.262,7.782
2049,0.803,37.595,11.091,34.695,20.022,5.194,6.384,7.862
2050,0.797,37.716,11.071,34.648,20.019,5.153,6.303,7.822
2051,0.777,37.823,11.087,34.637,20.015,5.071,6.18,7.7
2052,0.78,37.91,11.102,34.657,20.022,5.152,6.301,7.78
2053,0.793,37.642,11.06,34.676,20.022,5.153,6.343,7.862
2054,0.777,37.774,11.114,34.667,20.019,5.153,6.221,7.822
2055,0.767,37.862,11.095,34.628,20.015,5.153,6.22,7.7
2056,0.79,37.968,11.126,34.676,20.025,5.234,6.342,7.943
2057,0.79,37.576,11.013,34.676,20.022,5.153,6.343,7.864
2058,0.774,37.677,11.031,34.638,20.012,4.99,6.14,7.7
2059,0.79,37.822,11.047,34.637,20.018,5.151,6.26,7.658
2060,0.803,37.891,11.11,34.666,20.025,5.234,6.343,7.739
2061,0.794,37.623,11.091,34.647,20.026,5.194,6.303,7.74
2062,0.806,37.774,11.102,34.666,20.022,5.234,6.343,7.74
2063,0.797,37.881,11.114,34.657,20.026,5.153,6.262,7.699
2064,0.797,37.882,11.122,34.628,20.015,5.071,6.262,7.658
2065,0.807,37.642,11.122,34.647,20.025,5.111,6.384,7.698
2066,0.816,37.793,11.044,34.676,20.026,5.193,6.385,7.699
2067,0.784,37.881,11.094,34.638,20.022,5.072,6.303,7.536
2068,0.787,37.901,11.067,34.637,20.019,5.07,6.302,7.534
2069,0.803,37.594,11.153,34.695,20.039,5.233,6.506,7.657
2070,0.774,37.687,11.107,34.676,20.026,5.194,6.427,7.536
2071,0.774,37.794,11.056,34.638,20.019,5.153,6.304,7.534
2072,0.774,37.737,11.04,34.647,20.025,5.153,6.384,7.412
2073,0.777,37.708,11.106,34.637,20.019,5.071,6.425,7.493
2074,0.777,37.842,11.13,34.666,20.015,5.111,6.466,7.453
2075,0.78,37.939,11.036,34.695,20.025,5.152,6.426,7.493
2076,0.764,37.518,11.11,34.657,20.022,5.153,6.426,7.412
2077,0.767,37.59,11.056,34.647,20.019,5.071,6.344,7.33
2078,0.783,37.735,11.149,34.676,20.025,5.274,6.506,7.329
2079,0.787,37.832,11.165,34.667,20.026,5.154,6.345,7.37
2080,0.784,37.488,11.103,34.638,20.012,4.99,6.343,7.208
2081,0.793,37.667,11.106,34.676,20.018,5.11,6.384,7.165
2082,0.803,37.803,11.075,34.676,20.025,5.193,6.466,7.287
2083,0.79,37.852,11.149,34.657,20.019,5.194,6.426,7.247
2084,0.803,37.421,11.06,34.676,20.022,5.194,6.385,7.247
2085,0.807,37.542,11.11,34.657,20.019,5.153,6.303,7.125
2086,0.794,37.658,11.056,34.628,20.019,5.071,6.343,7.043
2087,0.787,37.755,11.133,34.656,20.025,5.233,6.384,7.164
2088,0.787,37.507,11.122,34.666,20.019,5.153,6.425,7.124
2089,0.784,37.619,11.122,34.638,20.019,5.031,6.304,7.043
2090,0.771,37.745,10.997,34.628,20.022,5.111,6.262,6.96
2091,0.793,37.842,11.078,34.666,20.029,5.234,6.465,7.204
2092,0.774,37.479,11.149,34.666,20.029,5.153,6.386,7.043
2093,0.777,37.619,11.08,34.647,20.026,5.234,6.425,7.001
2094,0.774,37.726,11.118,34.657,20.019,5.113,6.344,6.919
2095,0.774,37.775,11.075,34.657,20.015,5.071,6.262,7.041
2096,0.771,37.536,11.149,34.647,20.019,5.193,6.424,6.96
2097,0.783,37.667,11.126,34.666,20.032,5.275,6.466,6.96
2098,0.787,37.774,11.118,34.657,20.022,5.154,6.345,6.919
2099,0.784,37.785,10.997,34.638,20.015,5.071,6.221,6.796
2100,0.793,37.392,11.066,34.666,20.025,5.233,6.505,6.917
2101,0.797,37.503,11.122,34.666,20.022,5.194,6.386,6.919
2102,0.787,37.571,11.099,34.618,20.012,5.031,6.303,6.715
2103,0.797,37.61,11.134,34.647,20.018,5.07,6.343,6.794
2104,0.807,37.505,11.083,34.666,20.032,5.193,6.466,6.958
2105,0.794,37.638,11.153,34.647,20.026,5.153,6.386,6.838
2106,0.797,37.736,11.123,34.666,20.022,5.193,6.425,6.958
2107,0.787,37.526,11.095,34.647,20.015,5.112,6.426,6.838
2108,0.774,37.581,11.036,34.647,20.012,5.03,6.304,6.674
2109,0.777,37.725,11.051,34.666,20.018,5.07,6.384,6.794
2110,0.78,37.832,11.059,34.647,20.019,5.193,6.425,6.836
2111,0.758,37.258,11.075,34.618,20.012,4.99,6.263,6.674
2112,0.764,37.377,11.067,34.647,20.015,5.11,6.343,6.753
2113,0.783,37.551,11.055,34.676,20.029,5.152,6.466,6.836
2114,0.774,37.62,11.129,34.638,20.022,5.153,6.304,6.755
2115,0.774,38.052,11.142,34.666,20.026,5.153,6.465,6.876
2116,0.771,38.162,11.115,34.647,20.022,5.153,6.345,6.715
2117,0.77,38.278,11.036,34.647,20.015,5.071,6.343,6.713
2118,0.777,38.375,11.086,34.637,20.022,5.152,6.384,6.794
2119,0.79,37.024,11.087,34.657,20.029,5.193,6.425,6.836
2120,0.774,37.106,11.071,34.628,20.015,4.99,6.222,6.633
2121,0.787,37.251,11.079,34.647,20.019,5.07,6.302,6.712
2122,0.8,37.386,11.079,34.685,20.025,5.233,6.547,6.876
2123,0.784,37.57,11.114,34.647,20.019,5.113,6.427,6.755
2124,0.787,37.677,11.079,34.628,20.019,5.152,6.344,6.754
2125,0.784,37.793,11.091,34.637,20.022,5.031,6.425,6.632
2126,0.787,37.852,11.091,34.628,20.012,5.07,6.344,6.631
2127,0.777,37.239,11.071,34.637,20.018,5.152,6.384,6.631
2128,0.774,37.386,11.106,34.657,20.025,5.193,6.385,6.712
2129,0.771,37.484,11.083,34.647,20.022,5.153,6.425,6.632
2130,0.761,37.504,11.13,34.618,20.019,5.071,6.385,6.59
2131,0.777,37.322,11.095,34.733,20.025,5.193,6.547,6.793
2132,0.767,37.435,11.087,34.648,20.022,5.153,6.468,6.673
2133,0.767,37.532,11.083,34.609,20.019,5.071,6.345,6.631
2134,0.757,37.811,11.122,34.647,20.019,5.111,6.466,6.672
2135,0.764,37.498,11.083,34.705,20.029,5.112,6.426,6.672
2136,0.767,37.619,11.067,34.657,20.022,5.152,6.466,6.713
2137,0.777,37.735,11.09,34.647,20.026,5.234,6.467,6.754
2138,0.777,37.276,11.118,34.647,20.019,5.153,6.426,6.714
2139,0.771,37.214,11.15,34.637,20.015,5.071,6.344,6.551
2140,0.777,37.377,11.095,34.647,20.025,5.193,6.506,6.712
2141,0.787,37.484,11.13,34.666,20.019,5.153,6.427,6.672
2142,0.777,37.35,11.052,34.618,20.005,5.031,6.304,6.591
2143,0.787,37.483,11.11,34.647,20.015,5.07,6.384,6.549
2144,0.793,37.619,11.005,34.647,20.025,5.193,6.507,6.59
2145,0.787,37.716,11.074,34.637,20.026,5.194,6.467,6.631
