time,ecg,bvp,gsr,rsp,skt,emg_zygo,emg_coru,emg_trap
0,0.8,37.067,17.801,35.731,22.332,4.866,10.738,7.658
1,0.797,37.078,17.727,35.722,22.332,4.906,10.779,7.698
2,0.794,36.637,17.742,35.741,22.332,4.825,10.738,7.536
3,0.793,36.786,17.734,35.741,22.329,4.905,10.819,7.657
4,0.79,36.893,17.785,35.731,22.322,4.825,10.779,7.495
5,0.793,36.923,17.816,35.76,22.332,4.987,10.982,7.656
6,0.787,36.664,17.801,35.731,22.325,4.866,10.984,7.658
7,0.806,36.844,17.785,35.779,22.336,4.987,10.944,7.739
8,0.787,36.903,17.746,35.722,22.325,4.907,10.781,7.659
9,0.784,36.741,17.679,35.75,22.325,4.906,10.82,7.658
10,0.78,36.729,17.729,35.76,22.332,4.906,10.82,7.698
11,0.793,36.892,17.749,35.76,22.329,4.947,10.82,7.78
12,0.793,36.98,17.8,35.751,22.329,4.988,10.739,7.74
13,0.79,36.55,17.762,35.751,22.332,4.948,10.616,7.862
14,0.803,36.679,17.629,35.818,22.343,5.029,10.737,8.107
15,0.8,36.786,17.713,35.751,22.325,4.867,10.413,7.906
16,0.81,36.883,17.742,35.77,22.325,4.946,10.409,8.107
17,0.797,36.539,17.769,35.741,22.322,4.866,10.165,8.069
18,0.8,36.708,17.797,35.789,22.332,5.028,10.285,8.231
19,0.794,36.825,17.82,35.78,22.332,4.989,10.205,8.314
20,0.803,36.903,17.864,35.77,22.332,4.907,10.082,8.315
21,0.79,36.587,17.712,35.789,22.339,4.987,10.121,8.477
22,0.78,36.709,17.741,35.77,22.332,4.907,9.837,8.276
23,0.78,36.863,17.754,35.779,22.329,4.906,9.834,8.396
24,0.787,36.874,17.82,35.77,22.315,4.865,9.631,8.316
25,0.797,36.692,17.801,35.799,22.336,4.987,9.792,8.477
26,0.781,36.825,17.735,35.78,22.329,4.948,9.712,8.601
27,0.787,36.989,17.726,35.808,22.336,5.029,9.589,8.521
28,0.771,37.0,17.687,35.78,22.322,4.907,9.547,8.52
29,0.78,36.646,17.71,35.837,22.325,4.825,9.588,8.52
30,0.78,36.805,17.726,35.799,22.336,4.946,9.547,8.561
31,0.793,36.931,17.773,35.789,22.332,4.947,9.628,8.521
32,0.793,36.961,17.777,35.799,22.329,4.947,9.792,8.683
33,0.8,36.588,17.699,35.809,22.329,4.947,9.996,8.766
34,0.807,36.757,17.734,35.837,22.343,5.11,10.243,8.848
35,0.794,36.825,17.734,35.78,22.329,4.908,10.286,8.727
36,0.806,37.171,17.777,35.808,22.325,4.906,10.449,8.726
37,0.794,36.676,17.797,35.789,22.325,4.906,10.654,8.848
38,0.797,36.844,17.797,35.818,22.332,4.987,10.778,8.889
39,0.787,36.961,17.809,35.818,22.332,4.988,10.982,8.93
40,0.793,36.636,17.801,35.809,22.329,4.907,11.066,9.012
41,0.787,36.613,17.774,35.837,22.336,5.028,11.27,9.176
42,0.777,36.747,17.75,35.818,22.329,4.785,11.15,8.933
43,0.787,36.835,17.793,35.818,22.329,4.905,11.271,8.972
44,0.761,36.596,17.793,35.799,22.318,4.784,11.231,8.972
45,0.761,36.747,17.754,35.837,22.332,4.946,11.353,8.931
46,0.777,36.873,17.695,35.847,22.339,4.947,11.273,8.931
47,0.774,36.961,17.636,35.838,22.329,4.947,11.231,8.89
48,0.771,36.511,17.729,35.847,22.336,4.988,11.231,9.012
49,0.774,36.631,17.734,35.819,22.325,4.866,11.149,8.85
50,0.777,36.767,17.742,35.837,22.329,4.906,11.026,8.889
51,0.767,36.835,17.793,35.809,22.322,4.825,10.985,8.727
52,0.78,36.644,17.742,35.837,22.329,4.946,11.025,8.888
53,0.774,36.786,17.757,35.847,22.329,4.988,11.066,8.768
54,0.774,36.902,17.754,35.876,22.329,4.948,10.904,8.807
55,0.784,36.932,17.789,35.838,22.325,4.988,10.861,8.848
56,0.784,36.587,17.816,35.828,22.325,4.826,10.698,8.686
57,0.79,36.747,17.821,35.847,22.325,4.905,10.697,8.684
58,0.784,36.864,17.797,35.838,22.322,4.744,10.453,8.562
59,0.787,36.922,17.785,35.866,22.329,4.986,10.613,8.724
60,0.774,36.693,17.75,35.857,22.332,4.948,10.533,8.726
61,0.787,36.863,17.754,35.867,22.336,4.907,10.41,8.766
62,0.761,36.932,17.765,35.838,22.332,4.987,10.328,8.604
63,0.77,36.961,17.781,35.857,22.325,4.907,10.205,8.643
64,0.764,36.645,17.762,35.857,22.329,4.906,10.082,8.562
65,0.767,36.795,17.683,35.838,22.322,4.784,9.959,8.48
66,0.761,36.902,17.749,35.876,22.332,4.946,10.08,8.642
67,0.754,37.153,17.73,35.876,22.332,4.947,9.918,8.644
68,0.77,36.733,17.742,35.895,22.339,5.029,9.916,8.684
69,0.767,36.806,17.754,35.877,22.325,4.826,9.713,8.522
70,0.77,36.931,17.785,35.857,22.336,4.905,9.67,8.439
71,0.774,36.683,17.789,35.886,22.332,4.987,9.67,8.56
72,0.767,36.69,17.762,35.915,22.329,4.866,9.629,8.439
73,0.77,36.844,17.746,35.886,22.332,4.946,9.67,8.479
74,0.78,36.932,17.765,35.896,22.332,4.947,9.589,8.398
75,0.784,36.616,17.844,35.905,22.339,5.11,9.629,8.519
76,0.78,36.68,17.833,35.857,22.322,4.827,9.507,8.317
77,0.784,36.834,17.813,35.876,22.329,4.865,9.425,8.315
78,0.78,36.893,17.758,35.876,22.325,4.906,9.424,8.274
79,0.784,36.597,17.722,35.905,22.329,4.906,9.464,8.233
80,0.774,36.737,17.722,35.896,22.329,4.947,9.424,8.233
81,0.78,36.854,17.734,35.905,22.325,4.988,9.464,8.192
82,0.78,36.941,17.789,35.925,22.332,4.988,9.505,8.273
83,0.764,36.578,17.793,35.886,22.329,4.866,9.303,8.03
84,0.764,36.756,17.723,35.896,22.322,4.946,9.423,7.987
85,0.744,36.845,17.734,35.886,22.315,4.785,9.383,7.946
86,0.76,36.961,17.734,35.924,22.339,4.986,9.505,8.026
87,0.757,36.674,17.753,35.915,22.329,4.988,9.628,7.946
88,0.767,36.805,17.777,35.906,22.325,4.907,9.629,7.945
89,0.764,36.912,17.769,35.925,22.336,4.987,9.71,7.945
90,0.761,36.942,17.805,35.896,22.325,4.948,9.63,7.701
91,0.77,36.635,17.739,35.915,22.325,4.907,9.832,7.74
92,0.767,36.767,17.726,35.906,22.315,4.865,9.753,7.618
93,0.78,36.931,17.718,35.944,22.329,4.987,9.915,7.739
94,0.78,36.933,17.773,35.935,22.336,4.907,9.916,7.618
95,0.784,36.75,17.808,35.963,22.336,4.947,9.957,7.698
96,0.777,36.844,17.824,35.935,22.318,4.988,9.957,7.618
97,0.787,36.961,17.766,35.925,22.329,4.866,9.957,7.535
98,0.78,37.077,17.781,35.934,22.332,4.987,9.957,7.534
99,0.774,36.761,17.738,35.925,22.325,4.866,9.917,7.372
100,0.774,36.893,17.746,35.944,22.339,4.946,9.957,7.533
101,0.767,36.99,17.746,35.954,22.329,4.947,9.917,7.575
102,0.777,36.684,17.816,35.983,22.346,5.029,9.957,7.575
103,0.758,36.642,17.754,35.935,22.326,4.948,9.795,7.616
104,0.77,36.805,17.691,35.934,22.325,4.907,9.793,7.739
105,0.751,36.883,17.714,35.944,22.329,4.947,9.753,7.943
106,0.774,36.616,17.73,35.944,22.325,4.907,9.793,8.026
107,0.771,36.766,17.761,35.963,22.329,5.028,9.793,8.312
108,0.761,36.873,17.804,35.973,22.329,4.867,9.753,8.599
109,0.767,36.99,17.832,35.992,22.346,5.028,9.915,8.927
110,0.754,36.598,17.825,35.954,22.326,4.867,9.632,9.053
111,0.761,36.728,17.754,35.963,22.325,4.865,9.71,9.461
112,0.751,36.854,17.73,35.935,22.332,4.865,9.67,9.831
113,0.764,36.97,17.746,35.973,22.332,4.987,9.792,10.2
114,0.764,37.173,17.808,35.992,22.329,4.907,9.753,10.57
115,0.783,37.319,17.817,35.973,22.332,4.906,9.752,10.858
116,0.777,37.435,17.766,36.002,22.339,5.028,9.833,11.227
117,0.764,37.465,17.738,35.964,22.322,4.867,9.55,11.231
118,0.764,36.257,17.726,35.963,22.325,4.906,9.628,11.353
119,0.757,36.37,17.683,35.954,22.315,4.865,9.466,11.476
120,0.77,36.543,17.761,36.002,22.329,4.906,9.587,11.64
121,0.764,36.584,17.765,35.993,22.332,4.865,9.507,11.641
122,0.761,36.757,17.793,35.993,22.329,4.906,9.425,11.641
123,0.761,36.902,17.731,36.012,22.332,4.987,9.586,11.763
124,0.764,37.038,17.738,35.993,22.325,4.826,9.344,11.399
125,0.761,37.058,17.73,35.993,22.325,4.905,9.342,11.476
126,0.741,36.598,17.746,35.964,22.318,4.865,9.26,11.355
127,0.754,36.757,17.777,36.011,22.329,4.987,9.341,11.354
128,0.757,36.864,17.805,36.031,22.329,4.907,9.342,11.273
129,0.761,36.942,17.805,36.012,22.336,4.947,9.301,11.19
130,0.757,36.741,17.817,36.002,22.332,4.825,9.301,11.189
131,0.767,36.883,17.758,36.069,22.322,4.865,9.219,10.946
132,0.764,37.018,17.726,36.022,22.329,4.865,9.3,10.984
133,0.77,36.607,17.769,35.993,22.325,4.946,9.219,10.822
134,0.777,36.651,17.801,36.031,22.332,4.988,9.3,10.901
135,0.774,36.767,17.793,36.031,22.332,5.029,9.301,10.739
136,0.78,36.912,17.742,36.041,22.336,5.03,9.341,10.575
137,0.767,36.587,17.703,36.003,22.325,4.867,9.26,10.492
138,0.774,36.709,17.714,36.021,22.318,4.946,9.259,10.329
139,0.764,36.844,17.734,36.031,22.329,4.907,9.341,10.327
140,0.761,36.951,17.761,36.041,22.332,4.947,9.342,10.165
141,0.764,36.588,17.82,36.051,22.329,4.988,9.464,10.163
142,0.754,36.718,17.782,36.041,22.329,4.948,9.505,10.041
143,0.77,36.902,17.762,36.098,22.343,5.029,9.79,10.04
144,0.754,36.923,17.742,36.003,22.322,4.826,9.59,9.755
145,0.744,36.472,17.769,36.012,22.315,4.865,9.629,9.752
146,0.728,36.602,17.785,36.031,22.329,4.946,9.71,9.63
147,0.744,36.747,17.805,36.05,22.332,4.947,9.711,9.548
148,0.757,36.816,17.809,36.06,22.322,4.988,9.874,9.588
149,0.751,36.634,17.797,36.051,22.325,4.988,9.957,9.466
150,0.751,36.795,17.754,36.079,22.339,5.07,10.08,9.424
151,0.757,36.874,17.726,36.013,22.325,4.867,9.959,9.22
152,0.761,36.942,17.726,36.031,22.325,4.946,9.917,9.178
153,0.764,36.54,17.769,36.031,22.322,4.947,10.12,9.177
154,0.77,36.718,17.797,36.06,22.332,4.947,10.244,9.177
155,0.767,36.825,17.746,36.06,22.332,5.029,10.448,9.137
156,0.767,36.864,17.683,36.07,22.329,4.948,10.45,9.014
157,0.777,36.635,17.718,36.108,22.343,5.11,10.735,9.135
158,0.758,36.747,17.722,36.07,22.322,4.908,10.575,8.933
159,0.764,36.864,17.734,36.06,22.329,4.865,10.655,8.89
160,0.754,36.75,17.734,36.06,22.325,4.906,10.818,8.971
161,0.761,36.586,17.8,36.07,22.332,4.987,10.942,9.013
162,0.761,36.718,17.754,36.08,22.336,4.988,11.024,8.972
163,0.761,36.825,17.754,36.07,22.329,4.907,11.066,9.013
164,0.754,36.529,17.75,36.108,22.339,5.069,11.27,9.176
165,0.751,36.574,17.793,36.051,22.325,4.908,11.109,8.974
166,0.751,36.718,17.809,36.051,22.325,4.947,11.27,9.175
167,0.748,36.796,17.801,36.06,22.325,4.866,11.272,9.096
168,0.773,36.519,17.824,36.099,22.332,5.028,11.475,9.217
169,0.761,36.641,17.789,36.08,22.332,4.989,11.396,9.3
170,0.761,36.767,17.699,36.08,22.332,4.948,11.476,9.26
171,0.764,36.873,17.73,36.099,22.332,4.988,11.558,9.422
172,0.761,36.501,17.761,36.061,22.325,4.907,11.397,9.139
173,0.774,36.641,17.777,36.089,22.325,4.947,11.476,9.177
174,0.767,36.748,17.762,36.08,22.315,4.866,11.518,9.096
175,0.803,36.864,17.699,36.108,22.332,5.028,11.721,9.217
176,0.777,36.472,17.726,36.147,22.332,4.989,11.805,9.259
177,0.787,36.621,17.726,36.09,22.329,4.988,11.928,9.097
178,0.774,36.719,17.746,36.108,22.332,4.948,12.01,9.136
179,0.761,36.787,17.73,36.08,22.325,4.947,11.97,8.933
180,0.764,36.48,17.808,36.108,22.329,4.947,12.051,8.931
181,0.751,36.602,17.77,36.08,22.322,4.866,12.011,8.728
182,0.761,36.795,17.734,36.137,22.332,5.028,12.255,8.929
183,0.761,36.797,17.738,36.119,22.332,5.03,12.379,8.89
184,0.78,36.538,17.765,36.137,22.343,5.111,12.462,8.849
185,0.758,36.612,17.804,36.09,22.325,4.989,12.381,8.686
186,0.761,36.757,17.805,36.099,22.322,4.948,12.421,8.603
187,0.77,36.758,17.797,36.109,22.329,5.029,12.503,8.602
188,0.787,36.49,17.754,36.109,22.325,4.948,12.544,8.521
189,0.784,36.64,17.769,36.128,22.332,5.029,12.586,8.683
190,0.774,36.748,17.762,36.109,22.325,5.03,12.586,8.481
191,0.787,36.662,17.765,36.157,22.339,5.07,12.667,8.56
192,0.777,36.479,17.773,36.09,22.322,4.908,12.627,8.317
193,0.777,36.64,17.793,36.108,22.325,4.947,12.749,8.396
194,0.774,36.709,17.692,36.099,22.318,4.866,12.872,8.275
195,0.79,36.413,17.726,36.128,22.336,4.987,13.158,8.314
196,0.793,36.496,17.707,36.109,22.336,5.07,13.242,8.274
197,0.797,36.602,17.726,36.137,22.329,4.948,13.365,8.233
198,0.784,36.709,17.773,36.128,22.336,4.947,13.61,8.314
199,0.777,36.403,17.762,36.118,22.325,4.907,13.572,8.071
200,0.78,36.534,17.816,36.128,22.329,4.947,13.612,8.109
201,0.774,36.631,17.739,36.109,22.318,4.866,13.653,8.069
202,0.784,36.776,17.773,36.157,22.336,4.987,13.776,8.272
203,0.784,36.356,17.746,36.128,22.329,4.988,13.696,8.274
204,0.806,36.534,17.785,36.147,22.336,5.07,13.735,8.274
205,0.794,36.603,17.781,36.119,22.325,4.989,13.776,8.233
206,0.803,36.68,17.781,36.128,22.329,4.907,13.614,8.273
207,0.807,36.374,17.742,36.138,22.329,4.987,13.694,8.314
208,0.803,36.534,17.738,36.157,22.325,4.948,13.573,8.356
209,0.826,36.679,17.679,36.148,22.332,5.029,13.612,8.559
210,0.81,36.719,17.729,36.157,22.329,4.989,13.45,8.521
211,0.826,36.48,17.773,36.195,22.339,5.151,13.53,8.683
212,0.8,36.564,17.808,36.129,22.322,4.949,13.246,8.644
213,0.79,36.708,17.739,36.147,22.325,4.947,13.121,8.644
214,0.784,36.739,17.746,36.147,22.332,4.988,13.039,8.765
215,0.8,36.336,17.734,36.167,22.325,4.988,12.916,8.767
216,0.8,36.466,17.75,36.167,22.332,4.988,12.792,8.807
217,0.8,36.583,17.765,36.157,22.332,4.988,12.547,8.767
218,0.797,36.594,17.785,36.195,22.343,5.11,12.586,8.889
219,0.8,36.411,17.805,36.138,22.325,4.908,12.22,8.768
220,0.807,36.553,17.805,36.147,22.329,4.987,12.054,8.807
221,0.8,36.632,17.676,36.157,22.318,4.866,11.93,8.726
222,0.826,36.431,17.729,36.157,22.329,4.987,11.888,8.807
223,0.82,36.295,17.753,36.167,22.329,4.988,11.847,8.767
224,0.826,36.447,17.808,36.157,22.329,4.948,11.725,8.767
225,0.826,36.535,17.789,36.167,22.325,4.988,11.683,8.767
226,0.813,36.305,17.75,36.148,22.315,4.907,11.398,8.645
227,0.81,36.418,17.699,36.147,22.329,4.987,11.354,8.603
228,0.803,36.525,17.667,36.176,22.325,4.907,11.191,8.521
229,0.81,36.67,17.722,36.263,22.336,4.987,11.23,8.683
230,0.8,36.192,17.753,36.168,22.332,4.988,11.19,8.562
231,0.826,36.34,17.797,36.176,22.336,4.988,11.027,8.561
232,0.807,36.419,17.774,36.157,22.325,4.948,10.985,8.521
233,0.8,36.506,17.684,36.167,22.325,4.907,10.944,8.439
234,0.794,36.334,17.737,36.186,22.322,4.987,10.984,8.438
235,0.8,36.457,17.742,36.167,22.325,4.948,10.781,8.275
236,0.794,36.592,17.793,36.186,22.332,4.947,10.82,8.477
237,0.777,36.67,17.809,36.186,22.325,4.988,10.739,8.398
238,0.79,36.268,17.813,36.224,22.346,5.029,10.819,8.356
239,0.764,36.37,17.793,36.167,22.326,4.867,10.657,8.275
240,0.764,36.496,17.77,36.176,22.329,4.946,10.656,8.233
241,0.764,36.545,17.738,36.176,22.329,4.907,10.696,8.233
242,0.774,36.286,17.746,36.196,22.332,4.947,10.697,8.192
243,0.764,36.418,17.773,36.205,22.339,4.947,10.819,8.192
244,0.767,36.534,17.781,36.196,22.332,4.947,10.82,8.192
245,0.774,36.583,17.77,36.215,22.339,5.15,10.942,8.232
246,0.764,36.22,17.687,36.167,22.322,4.827,10.781,7.908
247,0.764,36.369,17.702,36.176,22.325,4.905,10.779,7.945
248,0.767,36.467,17.593,36.176,22.325,4.865,10.738,7.945
249,0.774,36.516,17.713,36.205,22.332,5.028,10.9,7.864
250,0.79,36.363,17.73,36.186,22.332,4.907,10.902,7.944
251,0.806,36.515,17.792,36.196,22.325,4.947,10.861,7.905
252,0.81,36.622,17.766,36.205,22.346,4.988,10.983,7.945
253,0.81,36.325,17.746,36.196,22.326,4.988,10.903,7.742
254,0.813,36.227,17.754,36.196,22.325,4.988,10.821,7.74
255,0.787,36.369,17.765,36.167,22.325,4.907,10.779,7.699
256,0.803,36.486,17.824,36.195,22.332,5.028,10.82,7.699
257,0.787,36.228,17.821,36.205,22.336,4.989,10.82,7.74
258,0.78,36.312,17.801,36.196,22.325,4.988,10.82,7.577
259,0.78,36.457,17.801,36.215,22.336,5.07,10.82,7.779
260,0.767,36.554,17.754,36.196,22.322,4.826,10.617,7.456
261,0.761,36.152,17.73,36.205,22.325,4.905,10.655,7.534
262,0.761,36.225,17.746,36.177,22.318,4.825,10.615,7.494
263,0.767,36.408,17.793,36.215,22.329,4.946,10.615,7.575
264,0.774,36.486,17.758,36.206,22.329,4.988,10.655,7.454
265,0.751,36.171,17.683,36.225,22.329,4.988,10.737,7.412
266,0.748,36.311,17.737,36.215,22.332,4.948,10.738,7.493
267,0.751,36.418,17.714,36.177,22.318,4.947,10.697,7.371
268,0.748,36.515,17.734,36.205,22.325,4.866,10.778,7.37
269,0.751,36.152,17.738,36.186,22.311,4.906,10.657,7.248
270,0.748,36.321,17.792,36.215,22.332,4.947,10.859,7.369
271,0.744,36.428,17.813,36.206,22.332,4.988,10.82,7.37
272,0.764,36.496,17.715,36.225,22.332,4.988,10.942,7.289
273,0.748,36.171,17.742,36.215,22.329,4.988,10.984,7.329
274,0.757,36.292,17.754,36.215,22.329,4.866,11.187,7.248
275,0.761,36.428,17.789,36.206,22.325,4.865,11.312,7.288
276,0.767,36.477,17.793,36.186,22.325,4.865,11.353,7.207
277,0.787,36.295,17.805,36.205,22.336,4.987,11.598,7.287
278,0.774,36.428,17.785,36.225,22.329,4.948,11.682,7.247
279,0.777,36.582,17.758,36.244,22.339,5.069,11.886,7.247
280,0.761,36.67,17.703,36.187,22.325,4.867,11.806,7.166
281,0.761,36.153,17.722,36.205,22.325,4.906,11.928,7.124
282,0.754,36.282,17.757,36.196,22.329,4.947,12.132,7.124
283,0.767,36.408,17.765,36.225,22.332,4.907,12.134,7.083
284,0.777,36.247,17.719,36.215,22.325,4.947,12.297,7.083
285,0.761,36.245,17.734,36.215,22.329,4.988,12.258,7.123
286,0.774,36.37,17.726,36.234,22.339,5.07,12.461,7.205
287,0.744,36.457,17.71,36.196,22.319,4.908,12.178,7.043
288,0.747,36.18,17.738,36.196,22.329,4.865,12.175,7.042
289,0.754,36.292,17.765,36.205,22.325,5.028,12.175,7.123
290,0.764,36.456,17.84,36.225,22.329,4.948,12.175,7.124
291,0.761,36.525,17.747,36.225,22.332,4.988,12.135,7.205
292,0.757,36.027,17.754,36.196,22.336,4.948,12.053,7.247
293,0.761,36.195,17.73,36.225,22.339,5.11,12.052,7.41
294,0.751,36.302,17.757,36.177,22.322,4.786,11.767,7.289
295,0.77,36.38,17.812,36.205,22.325,4.946,11.683,7.41
296,0.764,36.122,17.77,36.186,22.325,4.825,11.56,7.493
297,0.787,36.32,17.75,36.215,22.332,4.987,11.6,7.656
298,0.771,36.418,17.742,36.215,22.332,4.948,11.6,7.78
299,0.761,36.477,17.683,36.215,22.329,4.947,11.397,7.7
300,0.757,36.123,17.698,36.206,22.329,4.947,11.476,7.861
301,0.761,36.244,17.722,36.196,22.322,4.907,11.274,7.782
302,0.761,36.37,17.785,36.196,22.329,4.987,11.353,7.984
303,0.764,36.438,17.742,36.177,22.325,4.866,11.232,7.824
304,0.77,36.084,17.664,36.243,22.329,4.946,11.353,8.025
305,0.757,36.224,17.749,36.215,22.329,4.907,11.273,7.987
306,0.761,36.379,17.757,36.234,22.332,4.947,11.272,8.027
307,0.751,36.352,17.73,36.196,22.325,4.947,11.312,7.946
308,0.754,36.15,17.761,36.205,22.332,4.866,11.272,8.026
309,0.767,36.301,17.793,36.205,22.329,4.906,11.231,8.149
310,0.777,36.408,17.805,36.186,22.329,4.865,11.19,8.069
311,0.767,36.745,17.723,36.196,22.332,4.987,11.23,8.231
312,0.764,36.173,17.718,36.215,22.332,4.866,11.149,8.273
313,0.787,36.321,17.781,36.234,22.339,5.028,11.311,8.477
314,0.761,36.39,17.785,36.206,22.325,4.826,11.11,8.316
315,0.777,36.112,17.816,36.196,22.325,4.865,11.067,8.396
316,0.774,36.09,17.762,36.186,22.322,4.865,10.985,8.438
317,0.787,36.253,17.765,36.215,22.336,4.987,10.984,8.519
318,0.787,36.341,17.715,36.215,22.336,4.907,10.903,8.601
319,0.784,36.025,17.702,36.206,22.332,4.906,10.821,8.643
320,0.79,36.156,17.73,36.234,22.332,5.028,10.739,8.847
321,0.777,36.263,17.73,36.187,22.325,4.867,10.494,8.686
322,0.78,36.36,17.785,36.196,22.332,4.865,10.451,8.847
323,0.767,36.016,17.703,36.186,22.322,4.824,10.41,8.808
324,0.783,36.185,17.745,36.205,22.332,5.027,10.409,8.97
325,0.774,36.302,17.738,36.205,22.336,4.948,10.409,9.013
326,0.774,36.38,17.773,36.205,22.332,4.907,10.369,9.176
327,0.764,36.083,17.781,36.196,22.329,4.987,10.49,9.462
328,0.77,36.234,17.793,36.196,22.318,4.826,10.41,9.505
329,0.78,36.35,17.82,36.186,22.332,4.905,10.531,9.831
330,0.78,36.399,17.817,36.176,22.315,4.825,10.573,9.916
331,0.8,36.055,17.77,36.215,22.336,4.905,10.818,10.242
332,0.8,36.214,17.73,36.196,22.325,4.987,10.82,10.326
333,0.816,36.35,17.781,36.205,22.332,4.907,10.901,10.449
334,0.82,36.371,17.781,36.205,22.329,4.947,10.902,10.572
335,0.83,36.074,17.746,36.186,22.325,4.907,10.821,10.574
336,0.846,36.214,17.691,36.196,22.329,4.947,10.901,10.655
337,0.843,36.34,17.671,36.196,22.318,4.907,10.821,10.615
338,0.853,36.38,17.636,36.215,22.329,5.028,10.942,10.859
339,0.856,36.083,17.698,36.196,22.325,4.989,10.943,10.739
340,0.875,36.262,17.749,36.234,22.339,4.988,10.943,10.738
341,0.866,36.322,17.797,36.177,22.319,4.907,10.862,10.697
342,0.892,36.514,17.75,36.186,22.332,4.906,10.942,10.534
343,0.902,36.075,17.722,36.196,22.329,5.028,10.984,10.451
344,0.925,36.224,17.734,36.196,22.332,4.867,10.903,10.45
345,0.935,36.35,17.73,36.196,22.329,4.906,11.024,10.45
346,0.938,36.121,17.777,36.196,22.336,4.947,10.903,10.41
347,0.958,36.177,17.824,36.225,22.343,4.988,10.983,10.369
348,0.961,36.292,17.836,36.177,22.325,4.826,10.781,10.084
349,1.02,36.389,17.836,36.196,22.332,4.905,10.901,10.121
350,1.069,36.035,17.751,36.157,22.318,4.825,10.821,10.0
351,1.128,36.195,17.757,36.186,22.329,4.946,10.901,10.08
352,1.187,36.331,17.73,36.196,22.329,4.907,10.902,10.121
353,1.22,36.38,17.781,36.186,22.329,4.906,10.902,10.0
354,1.247,36.064,17.766,36.196,22.343,5.028,11.024,10.121
355,1.276,36.166,17.715,36.186,22.319,4.785,10.741,9.959
356,1.273,36.302,17.706,36.176,22.329,4.864,10.819,9.917
357,1.257,36.37,17.652,36.167,22.318,4.743,10.657,9.794
358,1.25,36.035,17.729,36.282,22.332,4.905,10.778,9.915
359,1.214,36.147,17.738,36.187,22.329,4.906,10.698,9.794
360,1.185,36.321,17.73,36.205,22.332,4.947,10.819,9.753
361,1.142,36.332,17.781,36.177,22.329,4.907,10.779,9.671
362,1.161,36.035,17.719,36.167,22.322,4.865,10.738,9.548
363,1.2,36.204,17.718,36.167,22.332,4.865,10.819,9.547
364,1.211,36.321,17.718,36.148,22.318,4.743,10.657,9.344
365,1.22,36.38,17.749,36.195,22.332,4.945,10.818,9.423
366,1.286,35.882,17.793,36.167,22.332,4.907,10.779,9.342
367,1.345,36.049,17.824,36.195,22.336,4.947,10.901,9.342
368,1.375,36.138,17.809,36.157,22.322,4.866,10.821,9.26
369,1.382,36.167,17.793,36.148,22.325,4.865,10.779,9.137
370,1.385,36.177,17.711,36.167,22.325,4.906,10.779,9.136
371,1.382,36.321,17.71,36.176,22.325,4.825,10.82,9.055
372,1.365,36.428,17.745,36.176,22.329,4.905,10.901,9.095
373,1.326,36.41,17.796,36.186,22.336,4.906,10.902,9.014
374,1.29,35.988,17.758,36.215,22.343,5.028,11.024,9.298
375,1.218,36.098,17.664,36.158,22.325,4.826,10.944,9.138
376,1.156,36.205,17.725,36.234,22.329,4.865,11.024,9.177
377,1.057,36.053,17.718,36.148,22.322,4.784,11.147,9.299
378,0.988,36.166,17.706,36.186,22.336,4.986,11.393,9.544
379,0.88,36.302,17.738,36.157,22.329,4.907,11.476,9.669
380,0.811,36.408,17.757,36.138,22.339,4.865,11.477,9.792
381,0.738,36.074,17.785,36.147,22.332,4.906,11.64,9.996
382,0.679,36.176,17.699,36.147,22.322,4.825,11.601,9.999
383,0.675,36.321,17.737,36.167,22.325,4.824,11.722,10.161
384,0.656,36.399,17.734,36.138,22.315,4.783,11.601,10.204
385,0.639,35.988,17.792,36.166,22.332,4.905,11.803,10.407
386,0.642,36.127,17.797,36.157,22.332,4.865,11.724,10.45
387,0.639,36.253,17.793,36.157,22.332,4.987,11.764,10.532
388,0.646,36.322,17.785,36.128,22.325,4.948,11.642,10.573
389,0.668,35.987,17.715,36.118,22.332,4.744,11.56,10.451
390,0.704,36.166,17.714,36.205,22.329,4.864,11.519,10.572
391,0.734,36.273,17.714,36.138,22.325,4.824,11.396,10.574
392,0.767,36.36,17.784,36.166,22.329,4.987,11.436,10.736
393,0.783,36.064,17.793,36.148,22.329,4.948,11.314,10.738
394,0.823,36.243,17.731,36.186,22.332,4.988,11.232,10.9
395,0.833,36.331,17.749,36.224,22.322,4.907,11.149,11.065
396,0.846,36.39,17.75,36.148,22.329,4.906,11.067,11.188
397,0.869,36.055,17.734,36.157,22.329,4.906,10.904,11.393
398,0.863,36.224,17.738,36.128,22.325,4.865,10.739,11.517
399,0.866,36.321,17.742,36.157,22.332,4.906,10.779,11.843
400,0.866,36.342,17.8,36.157,22.329,4.987,10.698,11.969
401,0.872,36.073,17.762,36.186,22.339,5.07,10.778,12.214
402,0.846,36.186,17.738,36.129,22.322,4.867,10.413,12.216
403,0.856,36.292,17.742,36.138,22.329,4.824,10.369,12.298
404,0.853,36.217,17.773,36.128,22.325,4.946,10.328,12.298
405,0.856,36.024,17.793,36.157,22.332,4.947,10.327,12.421
406,0.859,36.147,17.793,36.148,22.332,4.988,10.286,12.34
407,0.849,36.254,17.766,36.128,22.322,4.948,10.245,12.339
408,0.843,36.341,17.765,36.138,22.339,5.029,10.326,12.38
409,0.833,36.399,17.656,36.147,22.325,4.826,10.124,12.137
410,0.839,36.582,17.733,36.167,22.329,4.946,10.244,12.093
411,0.83,36.651,17.714,36.109,22.311,4.785,10.245,12.012
412,0.843,35.789,17.773,36.147,22.332,4.905,10.489,11.97
413,0.839,35.876,17.734,36.147,22.329,4.947,10.695,11.97
414,0.849,36.069,17.734,36.186,22.332,4.988,10.859,11.889
415,0.849,36.099,17.714,36.157,22.325,4.907,11.064,11.969
416,0.849,36.004,17.738,36.138,22.325,4.825,11.188,11.848
417,0.853,36.147,17.777,36.157,22.329,4.905,11.393,11.847
418,0.843,36.273,17.766,36.138,22.322,4.825,11.436,11.725
419,0.843,36.36,17.812,36.157,22.336,4.987,11.68,11.723
420,0.836,35.891,17.821,36.138,22.325,4.907,11.804,11.723
421,0.846,36.069,17.754,36.176,22.336,5.069,11.968,11.642
422,0.83,36.128,17.703,36.157,22.322,4.867,11.97,11.56
423,0.817,36.215,17.745,36.138,22.318,4.824,12.051,11.519
424,0.826,35.995,17.785,36.147,22.325,4.905,12.052,11.396
425,0.826,36.175,17.785,36.138,22.329,4.865,12.093,11.314
426,0.83,36.311,17.738,36.147,22.332,4.946,12.093,11.353
427,0.82,36.351,17.691,36.147,22.332,4.947,12.012,11.232
428,0.83,35.977,17.698,36.176,22.343,5.11,12.214,11.312
429,0.817,36.089,17.605,36.138,22.325,4.786,11.85,11.028
430,0.826,36.215,17.709,36.147,22.336,4.864,11.725,10.903
431,0.823,36.206,17.753,36.147,22.318,4.865,11.683,10.902
432,0.826,36.091,17.785,36.147,22.332,4.906,11.642,10.821
433,0.83,36.215,17.691,36.147,22.332,4.865,11.601,10.739
434,0.846,36.35,17.726,36.167,22.325,4.865,11.478,10.697
435,0.843,36.246,17.734,36.167,22.336,4.987,11.436,10.656
436,0.839,36.034,17.742,36.119,22.332,4.907,11.192,10.371
437,0.849,36.195,17.769,36.128,22.322,4.906,11.189,10.328
438,0.836,36.254,17.789,36.109,22.315,4.784,11.108,10.124
439,0.852,35.919,17.816,36.147,22.336,4.986,11.351,10.163
440,0.853,35.973,17.778,36.157,22.325,4.907,11.435,10.041
441,0.846,36.137,17.769,36.148,22.325,4.865,11.477,10.04
442,0.836,36.206,17.73,36.147,22.332,4.906,11.68,9.958
443,0.843,35.871,17.777,36.128,22.325,4.865,11.56,9.714
444,0.843,36.011,17.773,36.128,22.332,4.865,11.722,9.67
445,0.839,36.128,17.73,36.128,22.325,4.824,11.764,9.507
446,0.836,36.244,17.671,36.138,22.336,4.946,11.968,9.587
447,0.83,35.948,17.616,36.157,22.336,4.866,11.97,9.588
448,0.846,36.098,17.748,36.234,22.339,4.987,12.092,9.507
449,0.83,36.196,17.687,36.148,22.319,4.866,12.012,9.425
450,0.836,36.273,17.702,36.138,22.318,4.865,11.93,9.261
451,0.839,35.929,17.788,36.147,22.325,4.865,12.051,9.3
452,0.843,36.079,17.734,36.128,22.329,4.906,11.93,9.178
453,0.853,36.243,17.738,36.157,22.339,4.906,11.97,9.259
454,0.846,36.283,17.722,36.148,22.339,4.906,12.011,9.178
455,0.866,36.341,17.761,36.157,22.339,4.906,12.174,9.177
456,0.859,36.428,17.769,36.119,22.329,4.865,12.175,8.974
457,0.866,36.534,17.816,36.118,22.329,4.865,12.378,8.891
458,0.856,36.574,17.805,36.137,22.332,4.906,12.543,8.809
459,0.862,35.74,17.805,36.138,22.325,4.906,12.748,8.726
460,0.859,35.875,17.711,36.147,22.332,4.825,12.994,8.807
461,0.849,35.992,17.722,36.157,22.325,4.946,13.119,8.726
462,0.862,36.041,17.749,36.167,22.336,4.988,13.404,8.766
463,0.846,35.965,17.761,36.109,22.329,4.826,13.285,8.523
464,0.843,36.108,17.758,36.118,22.325,4.905,13.365,8.479
465,0.833,36.215,17.691,36.128,22.325,4.865,13.447,8.479
466,0.852,36.062,17.753,36.205,22.336,4.906,13.53,8.479
467,0.843,35.907,17.722,36.138,22.336,4.906,13.571,8.357
468,0.846,36.05,17.734,36.147,22.329,4.906,13.531,8.315
469,0.843,36.166,17.746,36.147,22.343,4.987,13.571,8.396
470,0.836,35.87,17.746,36.109,22.325,4.826,13.327,8.194
471,0.849,35.953,17.769,36.128,22.325,4.865,13.366,8.192
472,0.843,36.079,17.68,36.109,22.318,4.824,13.325,8.11
473,0.859,36.234,17.737,36.147,22.332,4.905,13.61,8.15
474,0.869,35.9,17.753,36.128,22.325,4.947,13.613,8.15
475,0.876,36.021,17.773,36.128,22.325,4.907,13.694,8.069
476,0.872,36.128,17.808,36.138,22.329,4.906,13.817,8.15
477,0.872,36.215,17.813,36.099,22.325,4.744,13.655,7.947
478,0.872,35.851,17.785,36.118,22.329,4.905,13.735,7.986
479,0.869,35.963,17.762,36.09,22.318,4.744,13.736,7.742
480,0.869,36.137,17.668,36.137,22.336,4.945,13.817,7.943
481,0.863,36.215,17.71,36.138,22.332,4.907,13.777,7.823
482,0.872,35.919,17.745,36.138,22.332,4.906,13.696,7.822
483,0.853,36.011,17.777,36.109,22.329,4.865,13.573,7.822
484,0.859,36.128,17.727,36.099,22.329,4.824,13.449,7.7
485,0.843,36.205,17.707,36.109,22.322,4.783,13.489,7.658
486,0.856,35.918,17.745,36.099,22.325,4.824,13.367,7.576
487,0.856,36.04,17.742,36.118,22.336,4.905,13.366,7.657
488,0.859,36.176,17.746,36.099,22.336,4.906,13.163,7.617
489,0.879,36.244,17.757,36.156,22.346,5.069,13.323,7.657
490,0.856,35.861,17.75,36.08,22.319,4.786,13.0,7.495
491,0.859,36.02,17.746,36.089,22.329,4.864,12.915,7.412
492,0.846,36.147,17.707,36.108,22.325,4.865,12.792,7.371
493,0.862,36.186,17.722,36.109,22.332,4.865,12.751,7.452
494,0.859,35.976,17.777,36.109,22.329,4.865,12.588,7.452
495,0.872,36.108,17.805,36.109,22.325,4.906,12.505,7.452
496,0.879,36.224,17.809,36.118,22.329,4.987,12.504,7.452
497,0.866,35.986,17.789,36.08,22.318,4.826,12.179,7.29
498,0.885,35.897,17.742,36.08,22.325,4.865,12.094,7.288
499,0.882,35.973,17.714,36.06,22.315,4.743,11.89,7.288
500,0.869,36.137,17.734,36.089,22.332,4.905,11.969,7.288
501,0.859,35.784,17.714,36.089,22.332,4.906,11.807,7.247
502,0.872,35.876,17.749,36.08,22.329,4.906,11.643,7.206
503,0.863,35.992,17.793,36.08,22.329,4.947,11.723,7.247
504,0.869,36.089,17.695,36.051,22.325,4.866,11.601,7.125
505,0.863,35.783,17.73,36.06,22.325,4.865,11.682,7.124
506,0.856,35.914,17.695,36.06,22.318,4.702,11.642,7.043
507,0.872,36.059,17.726,36.07,22.336,4.985,11.804,7.164
508,0.866,36.138,17.765,36.089,22.332,4.907,11.765,7.165
509,0.882,35.832,17.804,36.108,22.339,5.028,11.805,7.084
510,0.856,35.924,17.813,36.042,22.329,4.867,11.724,7.042
511,0.872,36.05,17.754,36.06,22.329,4.824,11.764,6.96
512,0.876,36.128,17.75,36.07,22.329,4.905,11.764,6.96
513,0.879,35.831,17.722,36.07,22.325,4.906,11.764,6.96
514,0.889,36.001,17.781,36.08,22.329,4.987,11.887,7.082
515,0.899,36.099,17.785,36.07,22.329,4.907,11.725,7.002
516,0.899,36.186,17.793,36.108,22.343,5.028,11.764,7.123
517,0.889,35.774,17.711,36.042,22.322,4.907,11.561,6.961
518,0.892,35.933,17.714,36.06,22.325,4.906,11.559,6.919
519,0.873,36.021,17.667,36.051,22.322,4.906,11.559,6.919
520,0.876,36.108,17.722,36.07,22.332,4.987,11.437,7.0
521,0.879,35.86,17.718,36.08,22.329,4.948,11.395,6.96
522,0.879,35.982,17.808,36.06,22.329,5.029,11.273,6.919
523,0.885,36.098,17.746,36.079,22.339,5.03,11.312,6.959
524,0.872,36.109,17.715,36.051,22.322,4.907,10.988,6.797
525,0.876,35.841,17.726,36.07,22.329,4.987,10.903,6.836
526,0.872,35.944,17.718,36.032,22.311,4.826,10.78,6.755
527,0.882,36.079,17.757,36.079,22.325,4.987,10.901,6.917
528,0.879,35.86,17.785,36.07,22.329,4.988,10.78,6.878
529,0.895,35.838,17.793,36.051,22.329,4.948,10.738,6.877
530,0.882,35.953,17.801,36.06,22.329,4.988,10.738,6.918
531,0.879,36.06,17.75,36.089,22.325,4.907,10.616,6.837
532,0.885,35.792,17.726,36.051,22.329,4.906,10.655,6.877
533,0.885,35.914,17.761,36.031,22.325,4.825,10.656,6.837
534,0.892,36.05,17.801,36.06,22.332,4.987,10.778,6.999
535,0.895,36.138,17.762,36.07,22.329,4.948,10.86,7.001
536,0.908,35.726,17.715,36.07,22.343,5.029,11.105,7.163
537,0.889,35.818,17.628,36.032,22.322,4.867,11.026,7.084
538,0.905,35.953,17.604,36.041,22.325,4.946,11.269,7.083
539,0.886,36.021,17.682,36.031,22.325,4.907,11.353,7.164
540,0.902,35.648,17.702,36.06,22.329,4.947,11.517,7.246
541,0.895,35.769,17.765,36.07,22.329,4.947,11.477,7.328
542,0.899,35.905,17.746,36.041,22.329,4.907,11.558,7.37
543,0.889,35.983,17.734,36.108,22.332,5.069,11.64,7.452
544,0.885,35.763,17.707,36.032,22.329,4.948,11.479,7.29
545,0.885,35.924,17.749,36.031,22.329,4.947,11.477,7.329
546,0.872,36.012,17.777,36.002,22.308,4.785,11.396,7.289
547,0.879,36.089,17.793,36.06,22.332,4.986,11.476,7.369
548,0.879,35.706,17.785,36.032,22.336,4.948,11.396,7.452
549,0.905,35.846,17.793,36.05,22.332,4.907,11.273,7.412
550,0.892,35.944,17.742,36.031,22.332,4.906,11.312,7.533
551,0.889,36.012,17.703,36.012,22.325,4.906,11.15,7.331
552,0.895,35.763,17.73,36.031,22.332,5.028,11.23,7.41
553,0.892,35.904,17.761,35.993,22.325,4.826,11.027,7.33
554,0.895,36.04,17.797,36.031,22.325,4.987,11.147,7.532
555,0.899,36.252,17.735,36.022,22.329,4.988,11.067,7.534
556,0.915,35.775,17.699,36.031,22.329,4.988,11.026,7.534
557,0.902,35.866,17.628,36.022,22.332,4.948,10.944,7.616
558,0.905,35.973,17.581,36.031,22.325,4.907,10.821,7.576
559,0.905,35.801,17.689,36.012,22.329,4.906,10.901,7.657
560,0.908,35.799,17.726,36.012,22.325,4.784,10.739,7.698
561,0.902,35.953,17.761,36.031,22.329,5.068,10.941,7.983
562,0.895,36.031,17.715,36.012,22.332,4.908,10.902,7.946
563,0.918,35.687,17.738,36.031,22.332,4.947,10.861,7.986
564,0.909,35.731,17.687,36.012,22.318,4.866,10.739,8.068
565,0.895,35.875,17.737,35.993,22.325,4.946,10.697,8.109
566,0.895,35.954,17.792,36.012,22.336,4.988,10.656,8.313
567,0.899,35.695,17.816,36.012,22.325,4.988,10.656,8.315
568,0.908,35.837,17.797,36.021,22.332,4.948,10.818,8.599
569,0.908,35.953,17.797,36.002,22.329,4.988,10.82,8.602
570,0.918,36.069,17.723,36.041,22.343,5.07,10.942,8.846
571,0.899,35.62,17.706,35.964,22.325,4.867,10.862,8.727
572,0.905,35.798,17.73,35.983,22.332,4.906,10.983,8.726
573,0.899,35.895,17.777,35.964,22.318,4.906,10.903,8.766
574,0.912,36.011,17.773,36.011,22.339,4.987,11.024,8.848
575,0.922,35.792,17.684,35.993,22.325,4.948,11.107,8.93
576,0.918,35.943,17.714,35.993,22.325,4.907,11.067,8.85
577,0.922,36.06,17.722,35.993,22.325,5.028,11.107,8.889
578,0.915,36.09,17.746,35.964,22.329,4.907,10.904,8.727
579,0.915,35.821,17.711,35.973,22.325,4.987,10.902,8.726
580,0.909,35.934,17.753,35.944,22.311,4.826,10.739,8.726
581,0.912,36.079,17.765,35.973,22.332,4.905,10.819,8.848
582,0.918,36.128,17.754,36.012,22.332,4.987,10.739,8.767
583,0.922,35.726,17.707,36.002,22.343,4.988,10.779,8.767
584,0.905,35.847,17.745,35.954,22.325,4.907,10.616,8.685
585,0.902,35.953,17.8,35.963,22.322,4.825,10.493,8.603
586,0.905,36.3,17.817,35.954,22.332,4.905,10.573,8.562
587,0.908,35.881,17.801,35.954,22.332,4.947,10.411,8.561
588,0.908,36.011,17.766,35.973,22.329,4.947,10.45,8.521
589,0.895,36.137,17.719,35.973,22.329,4.866,10.45,8.561
590,0.912,35.908,17.734,35.992,22.339,5.068,10.572,8.602
591,0.905,35.887,17.718,35.945,22.319,4.826,10.451,8.318
592,0.925,36.04,17.792,35.935,22.325,4.865,10.613,8.274
593,0.912,36.109,17.766,35.934,22.325,4.865,10.777,8.193
594,0.931,35.764,17.695,35.982,22.329,4.946,11.023,8.232
595,0.941,35.857,17.741,35.954,22.325,4.907,11.31,8.273
596,0.915,36.001,17.738,35.944,22.332,4.906,11.557,8.111
597,0.928,36.099,17.75,35.963,22.332,4.947,11.803,8.232
598,0.922,35.86,17.742,35.906,22.325,4.825,11.765,7.989
599,0.925,36.001,17.761,35.934,22.325,4.865,12.049,7.986
600,0.912,36.118,17.793,35.915,22.315,4.824,12.052,7.905
601,0.918,36.224,17.711,35.953,22.332,4.987,12.296,8.026
602,0.915,35.861,17.73,35.944,22.329,4.948,12.421,7.987
603,0.922,36.02,17.738,35.925,22.329,4.907,12.381,7.905
604,0.909,36.108,17.777,35.915,22.325,4.906,12.503,7.904
605,0.912,36.196,17.777,35.906,22.322,4.865,12.423,7.742
606,0.912,35.89,17.738,35.915,22.329,4.865,12.422,7.74
607,0.912,36.05,17.711,35.906,22.322,4.865,12.34,7.577
608,0.922,36.185,17.687,35.934,22.329,4.946,12.543,7.698
609,0.925,36.216,17.632,35.906,22.325,4.907,12.464,7.699
610,0.938,36.091,17.741,35.944,22.339,4.987,12.503,7.618
611,0.919,36.186,17.738,35.877,22.319,4.907,12.423,7.617
612,0.922,36.292,17.781,35.895,22.329,4.987,12.422,7.535
613,0.928,36.332,17.723,35.905,22.332,4.826,12.381,7.494
614,0.938,36.121,17.738,35.905,22.325,4.905,12.258,7.494
615,0.941,36.272,17.738,35.905,22.329,4.987,12.257,7.534
616,0.945,36.389,17.718,35.905,22.329,5.029,12.217,7.453
617,0.945,36.592,17.777,35.934,22.336,5.111,12.257,7.534
618,0.932,36.143,17.766,35.887,22.325,4.867,11.973,7.331
619,0.931,36.273,17.781,35.876,22.322,4.906,11.848,7.37
620,0.925,36.37,17.758,35.867,22.318,4.947,11.847,7.248
621,0.931,36.275,17.633,35.915,22.336,4.988,11.765,7.369
622,0.931,36.322,17.729,35.886,22.336,5.07,11.642,7.248
623,0.938,36.447,17.765,35.876,22.329,4.989,11.519,7.206
624,0.938,36.563,17.785,35.876,22.336,5.029,11.559,7.328
625,0.922,36.67,17.77,35.838,22.322,4.907,11.315,7.126
626,0.925,36.834,17.723,35.857,22.325,4.987,11.272,7.205
627,0.922,36.912,17.667,35.857,22.318,4.785,11.069,7.125
628,0.931,37.028,17.667,35.876,22.336,5.068,11.107,7.246
629,0.938,36.234,17.686,35.876,22.336,4.989,11.026,7.288
630,0.945,36.389,17.683,35.876,22.325,4.988,10.903,7.288
631,0.928,36.457,17.733,35.857,22.329,5.029,10.861,7.288
632,0.941,36.554,17.769,35.838,22.325,4.948,10.861,7.247
633,0.945,36.603,17.668,35.857,22.325,4.988,10.82,7.369
634,0.945,36.738,17.714,35.838,22.329,4.907,10.901,7.289
635,0.945,36.883,17.749,35.876,22.336,4.987,11.065,7.532
636,0.941,36.932,17.793,35.857,22.329,4.948,11.026,7.534
637,0.958,36.539,17.848,35.876,22.332,5.069,11.147,7.534
638,0.935,36.641,17.786,35.838,22.325,4.989,11.189,7.494
639,0.941,36.757,17.824,35.838,22.325,4.866,11.23,7.494
640,0.935,36.806,17.778,35.838,22.325,4.987,11.353,7.534
641,0.935,36.672,17.73,35.838,22.329,4.866,11.435,7.575
642,0.935,36.805,17.71,35.857,22.332,5.068,11.558,7.698
643,0.931,36.931,17.769,35.857,22.329,4.989,11.681,7.699
644,0.938,36.981,17.797,35.876,22.343,5.151,11.926,7.861
645,0.922,36.78,17.731,35.819,22.325,4.827,11.766,7.741
646,0.925,36.931,17.675,35.799,22.325,4.905,11.927,7.903
647,0.909,37.019,17.683,35.818,22.329,4.947,11.929,7.945
648,0.925,37.173,17.73,35.857,22.332,4.988,11.929,8.108
649,0.922,36.945,17.718,35.838,22.332,5.029,11.929,8.272
650,0.918,37.048,17.706,35.838,22.325,4.989,11.97,8.314
651,0.935,37.183,17.792,35.838,22.346,5.029,12.092,8.599
652,0.922,36.926,17.727,35.79,22.319,4.907,11.849,8.44
653,0.925,37.009,17.73,35.799,22.329,5.028,11.847,8.56
654,0.918,37.125,17.722,35.799,22.332,5.03,11.847,8.683
655,0.941,37.232,17.734,35.818,22.336,4.989,11.725,8.684
656,0.932,36.945,17.785,35.809,22.332,4.988,11.805,8.725
657,0.928,37.048,17.809,35.799,22.325,5.029,11.643,8.685
658,0.938,37.193,17.836,35.828,22.339,5.192,11.682,8.888
659,0.915,37.242,17.801,35.78,22.325,4.909,11.398,8.727
660,0.915,36.974,17.746,35.789,22.325,5.069,11.273,8.766
661,0.902,37.115,17.722,35.77,22.325,4.989,11.15,8.767
662,0.908,37.27,17.746,35.818,22.339,5.11,11.149,8.767
663,0.908,37.329,17.785,35.79,22.325,5.112,11.026,8.807
664,0.912,36.975,17.766,35.789,22.325,5.03,10.863,8.767
665,0.905,37.125,17.703,35.828,22.343,5.151,10.902,8.889
666,0.892,37.222,17.589,35.77,22.322,4.949,10.658,8.687
667,0.886,37.29,17.721,35.76,22.329,5.069,10.574,8.766
668,0.889,37.07,17.691,35.751,22.318,4.948,10.451,8.645
669,0.899,37.25,17.749,35.798,22.332,5.15,10.491,8.806
670,0.892,37.367,17.75,35.77,22.339,5.112,10.573,8.767
671,0.902,37.407,17.793,35.76,22.332,5.071,10.574,8.685
672,0.892,37.024,17.695,35.77,22.332,5.111,10.614,8.725
673,0.892,37.173,17.698,35.76,22.325,5.071,10.533,8.603
674,0.899,37.309,17.695,35.751,22.325,4.989,10.573,8.684
675,0.902,37.31,17.761,35.731,22.318,4.988,10.533,8.522
676,0.899,37.176,17.793,35.779,22.332,5.11,10.614,8.683
677,0.899,37.309,17.785,35.751,22.325,5.071,10.615,8.522
678,0.905,37.454,17.812,35.77,22.336,5.152,10.615,8.561
679,0.879,37.436,17.774,35.732,22.318,5.031,10.655,8.48
680,0.879,37.331,17.754,35.808,22.325,4.989,10.615,8.357
681,0.876,37.454,17.715,35.751,22.325,5.029,10.574,8.437
682,0.869,37.571,17.777,35.741,22.329,5.07,10.492,8.235
683,0.872,37.121,17.766,35.741,22.336,5.152,10.573,8.477
684,0.866,37.126,17.707,35.741,22.329,5.071,10.533,8.357
685,0.862,37.299,17.734,35.837,22.346,5.193,10.655,8.356
686,0.843,37.349,17.707,35.713,22.322,5.072,10.452,8.153
687,0.846,37.224,17.722,35.721,22.329,5.03,10.41,8.232
688,0.84,37.348,17.738,35.721,22.329,5.03,10.45,8.233
689,0.852,37.512,17.765,35.731,22.329,5.111,10.41,8.192
690,0.856,37.581,17.785,35.722,22.329,5.152,10.45,8.192
691,0.859,37.246,17.754,35.721,22.329,5.112,10.369,8.192
692,0.866,37.406,17.738,35.836,22.339,5.193,10.409,8.273
693,0.859,37.494,17.687,35.703,22.322,5.031,10.287,8.03
694,0.853,37.571,17.73,35.712,22.329,5.07,10.245,8.068
695,0.846,37.179,17.753,35.693,22.318,4.989,10.245,8.028
696,0.856,37.367,17.785,35.721,22.332,5.151,10.367,7.987
697,0.862,37.464,17.773,35.712,22.332,5.031,10.328,7.986
698,0.853,37.532,17.742,35.712,22.329,5.111,10.286,7.946
699,0.846,37.082,17.722,35.712,22.332,5.152,10.286,7.986
700,0.833,37.222,17.722,35.702,22.318,5.031,10.123,7.742
701,0.826,37.338,17.722,35.712,22.322,5.111,10.203,7.74
702,0.83,37.368,17.761,35.673,22.318,4.989,10.001,7.74
703,0.833,37.234,17.746,35.721,22.329,5.151,10.161,7.74
704,0.817,37.367,17.683,35.683,22.325,5.112,10.122,7.74
705,0.833,37.522,17.733,35.712,22.332,5.112,10.203,7.74
706,0.813,37.495,17.726,35.683,22.329,5.112,10.204,7.74
707,0.81,37.197,17.714,35.673,22.325,4.989,10.285,7.618
708,0.82,37.348,17.753,35.683,22.325,5.11,10.327,7.657
709,0.826,37.464,17.73,35.673,22.325,5.03,10.327,7.617
710,0.82,37.331,17.765,35.673,22.336,5.192,10.449,7.779
711,0.823,37.148,17.695,35.683,22.336,5.072,10.532,7.74
712,0.83,37.328,17.737,35.702,22.343,5.193,10.695,7.821
713,0.817,37.378,17.703,35.645,22.322,4.95,10.575,7.7
714,0.833,37.119,17.761,35.654,22.329,5.029,10.574,7.74
715,0.833,37.184,17.801,35.663,22.325,5.07,10.655,7.699
716,0.846,37.338,17.797,35.673,22.329,5.111,10.574,7.821
717,0.836,37.426,17.754,35.683,22.336,5.071,10.655,7.944
718,0.83,37.081,17.715,35.664,22.329,5.03,10.656,7.905
719,0.839,37.212,17.687,35.702,22.339,5.192,10.737,8.026
720,0.833,37.319,17.714,35.645,22.322,4.99,10.616,7.824
721,0.836,37.416,17.706,35.654,22.329,5.029,10.615,7.903
722,0.813,37.043,17.761,35.615,22.322,4.989,10.615,7.823
723,0.82,37.212,17.758,35.663,22.336,5.11,10.737,7.903
724,0.826,37.329,17.668,35.644,22.325,5.071,10.738,7.945
725,0.823,37.426,17.725,35.644,22.332,5.193,10.738,7.905
726,0.817,36.966,17.718,35.634,22.325,5.072,10.779,7.904
727,0.803,37.115,17.742,35.625,22.325,5.03,10.657,7.823
728,0.813,37.251,17.765,35.625,22.325,5.03,10.737,7.903
729,0.82,37.31,17.758,35.615,22.322,4.948,10.657,7.66
730,0.82,37.004,17.754,35.634,22.329,5.029,10.859,7.942
731,0.826,37.135,17.707,35.625,22.329,5.111,10.983,7.742
732,0.839,37.299,17.738,35.663,22.343,5.193,11.066,7.821
733,0.82,37.272,17.722,35.606,22.325,4.95,10.904,7.659
734,0.833,37.013,17.773,35.615,22.332,5.029,10.983,7.78
735,0.826,37.135,17.801,35.615,22.325,5.03,11.066,7.781
736,0.836,37.289,17.785,35.615,22.332,5.07,11.066,7.903
737,0.839,37.281,17.746,35.615,22.332,5.07,11.148,8.026
738,0.833,36.984,17.718,35.605,22.322,5.07,11.108,8.068
739,0.836,37.134,17.699,35.615,22.339,5.111,11.23,8.312
740,0.836,37.222,17.687,35.577,22.315,4.989,11.027,8.234
741,0.83,37.079,17.714,35.586,22.325,5.029,11.147,8.355
742,0.82,36.944,17.749,35.557,22.311,4.948,11.067,8.437
743,0.839,37.125,17.722,35.605,22.332,5.15,11.229,8.601
744,0.833,37.222,17.734,35.596,22.332,5.153,11.271,8.765
745,0.826,36.955,17.695,35.576,22.332,5.031,11.312,8.807
746,0.826,37.048,17.718,35.586,22.332,5.111,11.394,8.97
747,0.817,37.183,17.765,35.557,22.325,5.071,11.354,8.972
748,0.82,37.261,17.785,35.576,22.325,5.03,11.476,9.094
749,0.826,36.811,17.781,35.567,22.322,4.989,11.477,8.973
750,0.826,36.941,17.781,35.576,22.336,5.192,11.68,9.216
751,0.826,37.067,17.715,35.557,22.325,5.072,11.683,9.259
752,0.843,37.193,17.73,35.586,22.343,5.274,11.845,9.3
753,0.826,36.964,17.742,35.548,22.325,5.113,11.765,9.26
754,0.82,37.106,17.754,35.547,22.329,5.03,11.764,9.178
755,0.833,37.241,17.785,35.557,22.325,5.03,11.764,9.177
756,0.846,37.319,17.719,35.528,22.322,5.07,11.724,9.096
757,0.849,36.793,17.706,35.557,22.336,5.193,11.805,9.258
758,0.843,36.941,17.671,35.538,22.332,5.153,11.684,9.097
759,0.849,37.067,17.679,35.586,22.343,5.234,11.723,9.176
760,0.827,37.097,17.726,35.509,22.319,5.072,11.561,8.974
761,0.826,37.164,17.734,35.528,22.332,5.03,11.437,9.013
762,0.83,37.318,17.773,35.518,22.329,5.111,11.395,9.054
763,0.836,37.426,17.73,35.528,22.329,5.152,11.314,8.932
764,0.833,37.475,17.722,35.528,22.332,5.112,11.313,9.053
765,0.826,36.718,17.703,35.518,22.325,5.152,11.15,8.891
766,0.833,36.882,17.741,35.547,22.339,5.234,11.23,9.052
767,0.81,36.97,17.738,35.499,22.319,5.072,10.905,8.851
768,0.82,37.0,17.765,35.508,22.325,5.111,10.902,8.849
769,0.82,36.847,17.758,35.48,22.322,5.03,10.821,8.808
770,0.83,37.018,17.785,35.518,22.332,5.192,10.861,8.808
771,0.826,37.106,17.707,35.518,22.336,5.112,10.698,8.726
772,0.826,36.877,17.706,35.509,22.329,5.03,10.656,8.685
773,0.83,36.788,17.734,35.499,22.336,5.151,10.696,8.766
774,0.826,36.912,17.773,35.47,22.325,5.031,10.494,8.563
775,0.836,37.009,17.773,35.489,22.325,5.111,10.491,8.602
776,0.83,37.144,17.723,35.46,22.318,4.989,10.329,8.48
777,0.843,37.299,17.691,35.508,22.318,5.11,10.408,8.642
778,0.839,37.416,17.659,35.489,22.325,5.071,10.369,8.644
779,0.849,37.542,17.643,35.528,22.343,5.233,10.328,8.765
780,0.833,36.45,17.686,35.451,22.322,4.991,10.165,8.645
781,0.833,36.582,17.706,35.47,22.322,5.07,10.122,8.684
782,0.82,36.68,17.777,35.46,22.325,5.07,10.081,8.766
783,0.833,36.805,17.691,35.47,22.329,5.111,10.081,8.726
784,0.839,36.74,17.71,35.451,22.332,5.071,9.999,8.807
785,0.83,36.864,17.734,35.46,22.329,5.111,9.917,8.726
786,0.82,36.999,17.75,35.46,22.339,5.152,10.039,8.848
787,0.82,37.048,17.754,35.431,22.325,5.031,9.796,8.686
788,0.826,37.03,17.781,35.441,22.325,5.07,9.753,8.684
789,0.817,37.145,17.785,35.422,22.322,4.908,9.671,8.562
790,0.829,37.299,17.777,35.45,22.339,5.028,9.792,8.683
791,0.83,37.349,17.688,35.46,22.332,5.111,9.753,8.522
792,0.839,36.39,17.691,35.422,22.325,5.03,9.63,8.642
793,0.833,36.515,17.73,35.441,22.329,5.07,9.67,8.562
794,0.836,36.631,17.765,35.422,22.325,4.989,9.548,8.439
795,0.839,36.709,17.785,35.441,22.325,5.07,9.466,8.438
796,0.833,36.767,17.723,35.422,22.325,4.948,9.383,8.275
797,0.849,36.912,17.714,35.431,22.329,5.15,9.545,8.436
798,0.836,37.028,17.691,35.422,22.332,5.071,9.425,8.316
799,0.846,37.068,17.679,35.479,22.339,5.152,9.546,8.315
800,0.827,36.915,17.679,35.403,22.325,5.031,9.384,8.193
801,0.833,37.057,17.729,35.412,22.325,5.03,9.382,8.192
802,0.833,37.164,17.761,35.402,22.325,5.111,9.382,8.232
803,0.833,36.714,17.683,35.421,22.329,5.112,9.382,8.151
804,0.83,36.518,17.714,35.412,22.339,5.112,9.342,8.191
805,0.82,36.65,17.718,35.402,22.329,5.071,9.342,8.11
806,0.833,36.786,17.757,35.431,22.343,5.193,9.423,8.109
807,0.817,36.538,17.754,35.374,22.319,5.031,9.261,7.947
808,0.813,36.66,17.785,35.383,22.325,5.07,9.259,7.945
809,0.81,36.767,17.777,35.373,22.322,5.03,9.219,7.945
810,0.826,36.902,17.777,35.402,22.325,5.111,9.178,7.945
811,0.826,36.52,17.629,35.392,22.336,5.071,9.218,7.905
812,0.82,36.641,17.709,35.392,22.329,4.989,9.178,7.823
813,0.823,36.757,17.769,35.383,22.336,5.07,9.218,7.863
814,0.817,36.835,17.777,35.354,22.325,4.948,9.056,7.822
815,0.836,36.577,17.777,35.373,22.325,5.069,9.095,7.781
816,0.826,36.699,17.695,35.354,22.325,4.948,8.892,7.618
817,0.846,36.854,17.687,35.373,22.332,5.069,9.134,7.82
818,0.82,36.903,17.659,35.373,22.332,5.07,9.055,7.741
819,0.839,36.462,17.694,35.431,22.332,5.07,8.973,7.699
820,0.813,36.592,17.671,35.374,22.325,4.989,9.053,7.78
821,0.823,36.718,17.698,35.344,22.318,4.988,8.932,7.74
822,0.83,36.748,17.757,35.373,22.329,4.988,8.931,7.821
823,0.82,36.557,17.676,35.344,22.325,4.988,8.85,7.659
824,0.813,36.718,17.718,35.373,22.332,5.07,9.011,7.739
825,0.813,36.825,17.687,35.354,22.329,5.03,9.094,7.699
826,0.836,36.874,17.765,35.392,22.343,5.111,9.176,7.78
827,0.8,36.548,17.754,35.335,22.329,4.989,9.096,7.74
828,0.81,36.679,17.816,35.334,22.329,4.988,9.136,7.659
829,0.813,36.786,17.828,35.353,22.332,5.07,9.258,7.658
830,0.823,36.854,17.805,35.335,22.332,5.03,9.3,7.617
831,0.82,36.711,17.629,35.353,22.329,5.07,9.301,7.739
832,0.81,36.825,17.698,35.344,22.332,5.03,9.301,7.74
833,0.816,36.951,17.773,35.373,22.339,5.192,9.463,7.821
834,0.81,36.568,17.793,35.325,22.325,4.95,9.302,7.659
835,0.816,36.526,17.774,35.334,22.329,4.988,9.301,7.658
836,0.81,36.612,17.699,35.306,22.318,4.988,9.26,7.658
837,0.833,36.757,17.687,35.334,22.329,5.11,9.341,7.658
838,0.823,36.509,17.667,35.344,22.329,5.112,9.342,7.658
839,0.826,36.612,17.698,35.334,22.329,5.071,9.219,7.658
840,0.817,36.718,17.706,35.325,22.329,5.111,9.259,7.739
841,0.813,36.835,17.769,35.305,22.322,4.989,9.178,7.659
842,0.81,36.481,17.773,35.324,22.325,5.07,9.137,7.739
843,0.807,36.602,17.684,35.296,22.318,4.948,9.055,7.659
844,0.816,36.776,17.722,35.315,22.329,5.11,9.217,7.78
845,0.797,36.854,17.703,35.325,22.329,5.071,9.178,7.781
846,0.813,36.414,17.749,35.353,22.332,5.193,9.218,7.822
847,0.787,36.515,17.754,35.296,22.325,5.072,9.096,7.781
848,0.797,36.641,17.793,35.305,22.318,5.03,9.136,7.781
849,0.794,36.728,17.774,35.305,22.329,5.07,9.258,7.862
850,0.803,36.48,17.754,35.305,22.322,5.03,9.341,7.782
851,0.816,36.669,17.742,35.315,22.332,5.03,9.423,7.862
852,0.803,36.757,17.714,35.305,22.332,5.07,9.424,7.985
853,0.826,36.845,17.773,35.344,22.336,5.193,9.627,8.068
854,0.813,36.452,17.769,35.296,22.329,5.072,9.588,8.109
855,0.807,36.583,17.75,35.286,22.325,5.07,9.669,8.272
856,0.81,36.709,17.699,35.286,22.332,5.07,9.792,8.477
857,0.826,36.777,17.636,35.276,22.329,4.989,9.915,8.682
858,0.81,36.557,17.663,35.315,22.332,5.151,10.039,8.928
859,0.8,36.689,17.686,35.286,22.332,5.153,10.08,9.134
860,0.813,36.834,17.698,35.315,22.343,5.234,10.243,9.421
861,0.794,37.104,17.745,35.257,22.325,5.032,10.164,9.424
862,0.803,36.436,17.738,35.257,22.329,4.989,10.366,9.627
863,0.797,36.573,17.734,35.324,22.329,5.029,10.368,9.751
864,0.81,36.689,17.703,35.267,22.332,5.111,10.449,9.793
865,0.797,36.508,17.734,35.267,22.336,5.152,10.572,9.915
866,0.8,36.545,17.765,35.276,22.329,5.071,10.574,9.998
867,0.797,36.679,17.785,35.286,22.332,5.193,10.655,10.08
868,0.784,36.738,17.777,35.248,22.322,4.99,10.493,9.959
869,0.793,36.451,17.809,35.276,22.325,5.07,10.573,9.917
870,0.78,36.535,17.719,35.228,22.322,5.03,10.451,9.916
871,0.803,36.727,17.726,35.276,22.332,5.07,10.572,9.957
872,0.8,36.816,17.707,35.238,22.329,5.07,10.533,9.957
873,0.81,36.385,17.792,35.238,22.329,5.111,10.492,9.917
874,0.81,36.496,17.785,35.266,22.336,5.071,10.491,9.998
875,0.803,36.612,17.742,35.257,22.325,5.03,10.247,9.795
876,0.807,36.718,17.648,35.238,22.322,5.03,10.326,9.875
877,0.8,36.394,17.632,35.209,22.318,4.948,10.124,9.713
878,0.803,36.553,17.682,35.276,22.332,5.069,10.325,9.792
879,0.8,36.67,17.683,35.247,22.332,5.07,10.246,9.793
880,0.813,36.786,17.714,35.266,22.332,5.152,10.164,9.793
881,0.794,36.5,17.753,35.219,22.325,5.071,10.082,9.712
882,0.793,36.65,17.742,35.237,22.318,4.989,9.999,9.589
883,0.787,36.776,17.714,35.295,22.325,5.029,10.039,9.588
884,0.79,36.864,17.691,35.238,22.325,5.07,9.918,9.507
885,0.784,36.424,17.737,35.238,22.329,5.07,9.957,9.587
886,0.79,36.563,17.777,35.238,22.329,5.03,9.917,9.507
887,0.79,36.689,17.809,35.266,22.339,5.192,9.916,9.546
888,0.777,36.69,17.805,35.219,22.319,4.99,9.672,9.384
889,0.78,36.403,17.774,35.218,22.325,5.029,9.67,9.301
890,0.78,36.525,17.711,35.189,22.325,4.948,9.589,9.341
891,0.8,36.698,17.718,35.227,22.325,5.191,9.629,9.504
892,0.8,36.94,17.73,35.228,22.325,5.031,9.588,9.384
893,0.8,36.549,17.8,35.18,22.325,5.151,9.588,9.342
894,0.803,36.679,17.77,35.237,22.332,5.193,9.588,9.586
895,0.8,36.767,17.707,35.199,22.318,5.031,9.425,9.263
896,0.803,36.586,17.628,35.228,22.325,5.151,9.464,9.341
897,0.803,36.584,17.698,35.237,22.311,4.99,9.302,9.138
898,0.807,36.757,17.691,35.218,22.329,5.11,9.463,9.299
899,0.803,36.854,17.694,35.218,22.322,5.112,9.424,9.219
900,0.803,36.472,17.722,35.218,22.329,5.071,9.464,9.178
901,0.784,36.544,17.788,35.189,22.329,5.111,9.424,9.177
902,0.79,36.67,17.723,35.199,22.329,4.989,9.383,9.055
903,0.787,36.786,17.73,35.218,22.329,5.07,9.342,9.095
904,0.797,36.404,17.703,35.189,22.325,4.948,9.26,9.014
905,0.787,36.534,17.737,35.199,22.329,5.11,9.422,8.972
906,0.784,36.66,17.792,35.199,22.329,5.112,9.464,8.85
907,0.797,36.767,17.832,35.228,22.336,5.193,9.465,8.93
908,0.774,36.48,17.809,35.18,22.322,4.99,9.343,8.728
909,0.787,36.612,17.793,35.16,22.325,4.988,9.423,8.726
910,0.79,36.738,17.731,35.17,22.325,5.029,9.586,8.644
911,0.79,36.825,17.703,35.199,22.332,5.111,9.71,8.603
912,0.797,36.548,17.722,35.199,22.329,5.071,9.914,8.602
913,0.794,36.679,17.757,35.18,22.329,5.07,10.039,8.562
914,0.803,36.834,17.777,35.218,22.343,5.193,10.243,8.602
915,0.787,36.845,17.668,35.17,22.325,5.031,10.123,8.358
916,0.793,36.577,17.612,35.189,22.325,5.07,10.203,8.437
917,0.793,36.708,17.686,35.16,22.318,4.948,10.163,8.316
918,0.803,36.854,17.702,35.198,22.332,5.11,10.407,8.315
919,0.8,36.874,17.722,35.16,22.325,5.112,10.328,8.193
920,0.797,36.481,17.722,35.17,22.329,5.071,10.327,8.192
921,0.787,36.612,17.788,35.179,22.336,5.111,10.368,8.273
922,0.787,36.709,17.699,35.179,22.322,4.989,10.206,8.03
923,0.787,36.806,17.714,35.151,22.325,4.988,10.204,8.027
924,0.777,36.481,17.706,35.131,22.311,4.907,10.082,7.946
925,0.784,36.64,17.757,35.179,22.332,5.109,10.162,8.026
926,0.784,36.728,17.785,35.16,22.325,5.071,10.204,7.905
927,0.777,36.537,17.789,35.16,22.325,5.07,10.285,7.863
928,0.777,36.574,17.785,35.16,22.332,5.111,10.327,7.863
929,0.767,36.708,17.77,35.15,22.322,5.03,10.246,7.741
930,0.767,36.787,17.676,35.15,22.332,5.03,10.367,7.699
931,0.78,36.49,17.683,35.141,22.322,4.989,10.368,7.618
932,0.787,36.64,17.714,35.169,22.332,5.11,10.571,7.739
933,0.797,36.767,17.769,35.141,22.325,5.071,10.492,7.659
934,0.794,36.893,17.769,35.179,22.329,5.193,10.532,7.658
935,0.793,36.434,17.672,35.132,22.318,4.99,10.41,7.536
936,0.784,36.582,17.659,35.16,22.329,4.988,10.409,7.534
937,0.793,36.709,17.686,35.141,22.329,5.07,10.409,7.534
938,0.797,36.815,17.667,35.16,22.329,5.03,10.369,7.494
939,0.784,36.5,17.69,35.15,22.336,5.07,10.368,7.534
940,0.787,36.631,17.733,35.16,22.329,5.03,10.368,7.534
941,0.787,36.767,17.792,35.179,22.339,5.151,10.571,7.534
942,0.777,36.797,17.715,35.141,22.322,4.949,10.33,7.412
943,0.78,36.519,17.718,35.141,22.329,4.988,10.408,7.33
944,0.767,36.641,17.714,35.112,22.318,4.907,10.409,7.329
945,0.777,36.786,17.753,35.15,22.332,5.15,10.572,7.41
946,0.78,36.845,17.793,35.15,22.329,5.031,10.533,7.371
947,0.774,36.567,17.758,35.15,22.325,5.03,10.532,7.411
948,0.777,36.689,17.777,35.131,22.329,5.07,10.532,7.33
949,0.777,36.786,17.758,35.121,22.322,4.989,10.492,7.207
950,0.777,36.835,17.703,35.141,22.325,4.988,10.532,7.287
951,0.78,36.548,17.714,35.122,22.315,4.948,10.41,7.125
952,0.79,36.708,17.742,35.15,22.332,5.15,10.531,7.327
953,0.797,36.796,17.796,35.122,22.332,5.112,10.614,7.289
954,0.803,36.797,17.774,35.141,22.329,5.071,10.493,7.369
955,0.794,36.557,17.703,35.112,22.329,5.07,10.451,7.37
956,0.79,36.689,17.636,35.121,22.325,4.989,10.328,7.33
957,0.8,36.796,17.698,35.179,22.322,4.988,10.327,7.492
958,0.8,36.519,17.687,35.112,22.322,4.988,10.165,7.494
959,0.807,36.602,17.726,35.131,22.332,5.11,10.244,7.697
960,0.79,36.738,17.699,35.131,22.325,5.071,10.204,7.74
961,0.806,36.844,17.761,35.121,22.329,5.03,10.123,7.74
962,0.787,36.414,17.703,35.102,22.325,4.989,10.041,7.862
963,0.78,36.553,17.714,35.121,22.325,4.988,10.04,7.863
964,0.784,36.689,17.706,35.112,22.329,4.948,9.958,7.985
965,0.784,36.777,17.753,35.131,22.325,4.907,9.917,8.027
966,0.784,36.461,17.793,35.121,22.332,5.069,9.998,8.231
967,0.78,36.592,17.777,35.112,22.332,5.03,9.917,8.273
968,0.79,36.757,17.781,35.14,22.343,5.151,9.916,8.355
969,0.777,36.787,17.773,35.093,22.329,4.949,9.794,8.275
970,0.78,36.48,17.711,35.102,22.325,5.029,9.712,8.314
971,0.78,36.631,17.699,35.102,22.325,4.907,9.67,8.356
972,0.78,36.747,17.726,35.102,22.332,5.028,9.629,8.315
973,0.787,36.825,17.761,35.102,22.332,5.03,9.588,8.477
974,0.79,36.49,17.762,35.112,22.329,5.03,9.466,8.398
975,0.8,36.65,17.722,35.131,22.346,5.111,9.546,8.519
976,0.787,36.748,17.636,35.083,22.326,4.867,9.303,8.398
977,0.793,36.806,17.686,35.14,22.322,4.987,9.301,8.356
978,0.787,36.529,17.706,35.083,22.325,5.029,9.26,8.356
979,0.79,36.689,17.714,35.111,22.329,5.07,9.259,8.315
980,0.793,36.806,17.691,35.102,22.332,5.111,9.219,8.356
981,0.79,36.807,17.773,35.073,22.329,5.03,9.137,8.275
982,0.777,36.519,17.711,35.111,22.336,5.07,9.136,8.396
983,0.777,36.641,17.702,35.064,22.325,4.908,9.014,8.153
984,0.787,36.767,17.706,35.092,22.329,4.947,8.972,8.15
985,0.771,36.653,17.726,35.044,22.318,4.947,8.809,8.069
986,0.783,36.527,17.753,35.092,22.332,5.029,9.092,8.15
987,0.774,36.66,17.761,35.083,22.329,5.07,9.014,8.191
988,0.784,36.796,17.801,35.092,22.329,5.03,9.013,8.151
989,0.774,36.442,17.785,35.064,22.332,4.948,8.891,8.15
990,0.774,36.554,17.727,35.073,22.325,4.988,8.93,8.028
991,0.784,36.699,17.718,35.083,22.325,4.948,8.89,8.068
992,0.787,36.796,17.718,35.083,22.329,4.988,8.849,7.946
993,0.79,36.385,17.761,35.083,22.332,4.988,8.93,8.026
994,0.784,36.524,17.762,35.063,22.329,4.988,8.972,7.987
995,0.8,36.67,17.699,35.102,22.336,5.07,9.053,8.027
996,0.787,36.729,17.613,35.064,22.325,4.948,8.851,7.865
997,0.79,36.403,17.698,35.082,22.329,4.907,8.889,7.822
998,0.784,36.505,17.687,35.092,22.322,4.947,8.971,7.903
999,0.787,36.669,17.718,35.073,22.332,5.069,9.094,7.782
1000,0.79,36.729,17.714,35.102,22.329,5.03,9.136,7.903
1001,0.787,36.422,17.765,35.044,22.329,4.989,9.177,7.823
1002,0.784,36.544,17.738,35.082,22.332,5.07,9.299,7.985
1003,0.774,36.679,17.714,35.063,22.322,4.908,9.097,7.742
1004,0.784,36.738,17.691,35.063,22.325,4.906,9.258,7.74
1005,0.777,36.528,17.714,35.025,22.325,4.906,9.137,7.659
1006,0.78,36.689,17.753,35.072,22.332,5.028,9.339,7.78
1007,0.764,36.815,17.769,35.044,22.332,4.989,9.301,7.822
1008,0.793,36.884,17.808,35.092,22.336,5.029,9.341,7.781
1009,0.787,36.29,17.797,35.035,22.325,4.907,9.219,7.822
1010,0.78,36.437,17.731,35.044,22.325,4.987,9.259,7.7
1011,0.793,36.563,17.714,35.025,22.329,4.988,9.219,7.78
1012,0.8,36.603,17.71,35.053,22.329,4.948,9.218,7.862
1013,0.797,36.507,17.753,35.044,22.325,4.988,9.218,7.822
1014,0.794,36.621,17.758,35.073,22.329,4.988,9.259,7.863
1015,0.793,36.757,17.703,35.092,22.343,5.07,9.422,7.985
1016,0.774,36.528,17.617,35.044,22.325,4.908,9.098,7.783
1017,0.784,36.372,17.694,35.063,22.325,4.947,9.176,7.74
1018,0.784,36.496,17.694,35.015,22.322,4.907,9.055,7.781
1019,0.787,36.641,17.694,35.053,22.332,5.028,9.217,7.944
1020,0.787,36.354,17.734,35.044,22.325,5.03,9.178,7.905
1021,0.793,36.428,17.757,35.044,22.329,4.989,9.137,7.863
1022,0.787,36.554,17.703,35.044,22.332,5.029,9.136,7.944
1023,0.793,36.66,17.695,35.034,22.322,4.867,9.014,7.783
1024,0.813,36.364,17.694,35.025,22.332,4.906,9.054,7.822
1025,0.79,36.486,17.741,35.005,22.315,4.825,8.932,7.741
1026,0.8,36.621,17.793,35.034,22.332,4.946,9.093,7.862
1027,0.8,36.719,17.797,35.044,22.329,4.988,9.095,7.944
1028,0.82,36.326,17.777,35.063,22.332,4.948,9.095,7.864
1029,0.803,36.399,17.746,35.025,22.325,4.947,9.217,7.863
1030,0.81,36.525,17.675,35.025,22.325,4.907,9.259,7.822
1031,0.813,36.641,17.706,35.015,22.332,4.906,9.503,7.822
1032,0.826,36.345,17.714,35.005,22.325,4.825,9.587,7.741
1033,0.813,36.486,17.773,35.044,22.329,4.946,9.873,7.943
1034,0.81,36.612,17.719,35.034,22.325,4.988,9.916,7.945
1035,0.82,36.699,17.699,35.063,22.343,5.029,10.079,7.945
1036,0.8,36.317,17.702,34.996,22.325,4.907,10.081,7.905
1037,0.813,36.476,17.722,35.015,22.322,4.906,10.04,7.863
1038,0.803,36.583,17.71,35.005,22.325,4.906,10.162,7.863
1039,0.81,36.632,17.702,35.034,22.329,4.906,10.204,7.741
1040,0.81,36.306,17.734,35.005,22.332,4.947,10.326,7.862
1041,0.813,36.447,17.73,35.015,22.325,4.907,10.368,7.782
1042,0.829,36.592,17.66,35.044,22.336,5.069,10.49,7.944
1043,0.826,36.584,17.675,34.996,22.325,4.867,10.41,7.742
1044,0.826,36.411,17.714,35.005,22.329,4.946,10.572,7.659
1045,0.813,36.534,17.749,35.005,22.329,4.907,10.614,7.658
1046,0.829,36.67,17.8,35.024,22.329,4.906,10.696,7.698
1047,0.82,36.383,17.805,35.015,22.339,4.906,10.778,7.699
1048,0.807,36.256,17.758,35.024,22.329,4.906,10.738,7.618
1049,0.82,36.398,17.761,35.034,22.343,5.028,10.9,7.739
1050,0.794,36.505,17.625,35.005,22.329,4.907,10.739,7.496
1051,0.793,36.286,17.69,35.015,22.329,4.865,10.738,7.534
1052,0.79,36.37,17.73,34.977,22.318,4.743,10.779,7.494
1053,0.803,36.534,17.789,35.005,22.339,4.905,10.942,7.575
1054,0.797,36.631,17.738,35.015,22.332,4.947,11.024,7.616
1055,0.81,36.268,17.652,35.024,22.329,4.988,11.107,7.739
1056,0.826,36.389,17.714,35.034,22.332,4.948,11.27,7.821
1057,0.833,36.496,17.702,34.996,22.325,4.866,11.15,7.659
1058,0.83,36.593,17.706,34.996,22.322,4.906,11.271,7.78
1059,0.833,36.21,17.691,34.986,22.322,4.825,11.231,7.822
1060,0.839,36.369,17.749,35.005,22.336,4.865,11.312,8.107
1061,0.849,36.476,17.777,35.005,22.332,4.906,11.394,8.313
1062,0.853,36.573,17.648,35.024,22.329,4.865,11.395,8.477
1063,0.83,36.133,17.69,34.977,22.329,4.946,11.395,8.723
1064,0.826,36.273,17.702,34.976,22.322,4.866,11.273,8.685
1065,0.826,36.408,17.749,34.976,22.325,4.906,11.353,8.888
1066,0.817,36.467,17.793,34.986,22.318,4.865,11.232,8.971
1067,0.816,36.228,17.789,34.986,22.325,4.946,11.312,9.257
1068,0.81,36.36,17.774,34.995,22.329,4.947,11.15,9.341
1069,0.833,36.524,17.754,35.034,22.343,5.029,11.189,9.423
1070,0.8,36.497,17.648,34.986,22.325,4.907,11.108,9.505
1071,0.81,36.209,17.69,34.976,22.322,4.865,10.904,9.384
1072,0.803,36.35,17.761,34.976,22.332,4.906,10.943,9.464
1073,0.79,36.457,17.762,34.995,22.329,4.947,10.821,9.424
1074,0.784,36.487,17.707,35.015,22.329,4.907,10.901,9.586
1075,0.777,36.295,17.699,35.015,22.332,4.987,10.739,9.507
1076,0.787,36.476,17.687,35.024,22.336,5.07,10.738,9.587
1077,0.767,36.516,17.702,34.957,22.325,4.867,10.494,9.385
1078,0.777,36.228,17.73,34.986,22.325,4.865,10.369,9.382
1079,0.764,36.139,17.734,34.976,22.325,4.865,10.368,9.423
1080,0.767,36.311,17.785,35.005,22.332,4.865,10.246,9.464
1081,0.777,36.409,17.75,34.996,22.336,4.987,10.245,9.465
1082,0.784,36.179,17.715,34.996,22.325,4.866,10.123,9.424
1083,0.79,36.292,17.695,35.015,22.339,5.028,10.163,9.586
1084,0.787,36.399,17.737,34.967,22.325,4.785,9.96,9.263
1085,0.787,36.486,17.761,34.976,22.325,4.946,9.917,9.3
1086,0.78,36.286,17.738,34.947,22.322,4.825,9.835,9.26
1087,0.803,36.475,17.734,34.985,22.332,4.946,9.834,9.259
1088,0.803,36.583,17.714,34.986,22.329,4.988,9.753,9.219
1089,0.82,36.651,17.714,34.986,22.339,4.866,9.712,9.178
1090,0.823,35.98,17.726,34.976,22.332,4.987,9.711,9.218
1091,0.807,36.098,17.699,34.967,22.318,4.785,9.508,8.934
1092,0.8,36.243,17.765,34.976,22.325,4.905,9.465,8.931
1093,0.79,36.293,17.746,34.938,22.318,4.784,9.383,8.89
1094,0.806,36.169,17.683,35.005,22.329,4.986,9.423,8.89
1095,0.8,36.321,17.698,34.986,22.325,4.948,9.383,8.849
1096,0.797,36.437,17.691,34.986,22.332,4.947,9.382,8.767
1097,0.803,36.487,17.71,34.986,22.329,4.907,9.342,8.807
1098,0.79,36.353,17.706,34.976,22.318,4.825,9.26,8.604
1099,0.784,36.495,17.749,34.967,22.329,4.905,9.219,8.602
1100,0.79,36.602,17.769,34.947,22.315,4.744,9.218,8.399
1101,0.777,36.642,17.73,34.976,22.325,4.945,9.381,8.6
1102,0.774,35.971,17.722,34.986,22.336,4.947,9.464,8.521
1103,0.78,36.137,17.71,34.986,22.322,4.988,9.505,8.439
1104,0.764,36.215,17.738,34.967,22.325,4.907,9.546,8.357
1105,0.748,36.417,17.769,34.938,22.325,4.825,9.588,8.153
1106,0.754,36.227,17.781,34.947,22.332,4.905,9.751,8.273
1107,0.748,36.379,17.715,34.947,22.318,4.825,9.712,8.071
1108,0.764,36.496,17.702,34.985,22.336,4.946,10.036,8.231
1109,0.754,36.334,17.667,34.948,22.329,4.907,10.08,8.151
1110,0.774,36.361,17.686,34.995,22.339,4.987,10.243,8.069
1111,0.764,36.438,17.667,34.938,22.319,4.826,10.164,7.987
1112,0.774,36.573,17.761,34.957,22.325,4.905,10.285,7.946
1113,0.771,36.296,17.742,34.947,22.325,4.947,10.53,7.945
1114,0.774,36.418,17.672,34.966,22.329,4.907,10.573,7.783
1115,0.784,36.563,17.69,34.976,22.329,4.947,10.696,7.944
1116,0.79,36.641,17.698,34.967,22.332,4.866,10.859,7.783
1117,0.793,35.865,17.718,34.986,22.343,5.028,11.024,7.903
1118,0.774,35.925,17.714,34.957,22.319,4.785,10.903,7.701
1119,0.774,36.098,17.745,34.957,22.322,4.864,10.983,7.658
1120,0.774,36.148,17.757,34.938,22.329,4.865,11.025,7.739
1121,0.771,36.091,17.734,34.957,22.329,4.906,11.147,7.659
1122,0.764,36.243,17.691,34.966,22.332,4.906,11.189,7.78
1123,0.761,36.379,17.691,34.957,22.325,4.987,11.23,7.7
1124,0.767,36.448,17.749,34.976,22.343,5.029,11.271,7.821
1125,0.77,35.95,17.785,34.928,22.319,4.785,11.15,7.578
1126,0.764,36.117,17.738,34.937,22.325,4.905,11.189,7.698
1127,0.764,36.215,17.707,34.909,22.318,4.825,11.108,7.618
1128,0.761,36.302,17.71,34.956,22.332,4.946,11.23,7.739
1129,0.77,35.977,17.62,34.947,22.329,4.907,11.149,7.618
1130,0.757,36.118,17.651,34.957,22.336,4.906,11.067,7.617
1131,0.764,36.234,17.698,34.966,22.332,4.987,11.107,7.739
1132,0.761,36.264,17.769,34.928,22.329,4.866,11.026,7.577
1133,0.764,36.034,17.699,34.937,22.329,4.865,10.903,7.657
1134,0.774,36.185,17.706,34.918,22.315,4.824,10.821,7.617
1135,0.784,36.302,17.695,34.947,22.336,4.987,10.942,7.82
1136,0.78,36.61,17.714,34.947,22.332,4.866,10.821,7.781
1137,0.803,36.105,17.773,34.966,22.343,5.068,10.82,7.822
1138,0.787,36.186,17.773,34.938,22.322,4.826,10.576,7.863
1139,0.787,36.311,17.754,34.928,22.329,4.824,10.696,7.944
1140,0.784,36.044,17.765,34.957,22.329,4.987,10.616,7.986
1141,0.777,36.051,17.644,34.957,22.332,4.866,10.574,8.068
1142,0.78,36.195,17.69,34.957,22.329,4.906,10.574,8.15
1143,0.774,36.292,17.71,34.938,22.325,4.906,10.492,8.191
1144,0.787,35.996,17.796,34.947,22.336,5.028,10.614,8.314
1145,0.774,36.051,17.746,34.928,22.329,4.826,10.371,8.193
1146,0.774,36.214,17.707,34.928,22.325,4.865,10.328,8.273
1147,0.761,36.283,17.659,34.909,22.325,4.906,10.286,8.233
1148,0.777,36.025,17.659,34.956,22.329,4.947,10.245,8.273
1149,0.767,36.166,17.702,35.024,22.332,4.988,10.204,8.355
1150,0.77,36.283,17.683,34.948,22.332,4.907,10.082,8.275
1151,0.777,36.389,17.737,34.947,22.339,4.987,10.203,8.396
1152,0.78,35.911,17.734,34.899,22.322,4.866,9.838,8.275
1153,0.784,36.079,17.679,34.927,22.329,4.906,9.916,8.274
1154,0.78,36.186,17.694,34.918,22.318,4.865,9.794,8.274
1155,0.793,36.283,17.726,34.947,22.325,4.987,9.834,8.274
1156,0.79,36.073,17.749,34.947,22.325,4.948,9.753,8.314
1157,0.8,36.214,17.773,34.938,22.332,4.907,9.671,8.315
1158,0.8,36.34,17.812,34.937,22.339,5.069,9.751,8.477
1159,0.787,36.371,17.758,34.899,22.322,4.826,9.468,8.235
1160,0.787,35.92,17.777,34.908,22.325,4.905,9.546,8.314
1161,0.777,36.05,17.715,34.966,22.318,4.825,9.425,8.315
1162,0.787,36.214,17.714,34.938,22.332,4.905,9.586,8.477
1163,0.79,36.235,17.749,34.909,22.329,4.947,9.507,8.438
1164,0.787,35.948,17.785,34.908,22.329,4.866,9.425,8.438
1165,0.774,36.069,17.731,34.908,22.329,4.946,9.383,8.479
1166,0.767,36.205,17.656,34.908,22.322,4.866,9.261,8.316
1167,0.774,36.408,17.636,34.899,22.325,4.946,9.3,8.396
1168,0.764,35.364,17.667,34.899,22.318,4.785,9.097,8.316
1169,0.796,35.488,17.667,34.937,22.325,4.946,9.217,8.477
1170,0.807,35.614,17.698,34.909,22.332,4.947,9.178,8.52
1171,0.82,36.133,17.753,34.947,22.332,4.988,9.177,8.52
1172,0.82,36.282,17.734,34.899,22.322,4.866,8.974,8.561
1173,0.813,36.437,17.726,34.918,22.329,4.906,8.972,8.643
1174,0.833,36.515,17.699,34.909,22.325,4.865,8.931,8.765
1175,0.865,35.902,17.734,34.918,22.329,4.946,8.89,8.929
1176,0.879,36.011,17.746,34.928,22.325,4.947,8.849,9.053
1177,0.892,36.128,17.769,34.899,22.329,4.907,8.808,9.095
1178,0.902,36.225,17.75,34.918,22.336,4.987,8.889,9.298
1179,0.902,35.995,17.754,34.899,22.318,4.826,8.605,9.138
1180,0.925,36.127,17.707,34.918,22.325,4.865,8.724,9.258
1181,0.944,36.225,17.679,34.88,22.315,4.784,8.481,9.219
1182,0.974,36.369,17.71,34.918,22.329,5.027,8.601,9.3
1183,0.968,35.872,17.757,34.909,22.332,4.948,8.562,9.341
1184,0.99,36.021,17.761,34.918,22.329,4.988,8.521,9.301
1185,1.023,36.128,17.703,34.918,22.329,4.907,8.52,9.382
1186,1.062,36.205,17.632,34.88,22.325,4.825,8.439,9.179
1187,1.102,35.899,17.706,34.956,22.325,4.905,8.397,9.259
1188,1.141,36.03,17.64,34.88,22.322,4.825,8.275,9.178
1189,1.184,36.185,17.663,34.927,22.332,4.987,8.396,9.299
1190,1.21,36.225,17.643,34.909,22.332,4.948,8.316,9.341
1191,1.243,36.015,17.733,34.918,22.329,4.907,8.274,9.382
1192,1.234,36.137,17.711,34.889,22.329,4.906,8.355,9.301
1193,1.24,36.253,17.699,34.87,22.325,4.865,8.275,9.26
1194,1.234,36.322,17.691,34.889,22.332,4.906,8.355,9.381
1195,1.221,35.948,17.741,34.899,22.322,4.784,8.234,9.261
1196,1.172,36.108,17.8,34.918,22.329,4.946,8.314,9.422
1197,1.123,36.224,17.785,34.899,22.332,4.907,8.274,9.383
1198,1.148,36.36,17.781,34.927,22.339,5.028,8.396,9.423
1199,1.171,35.949,17.746,34.88,22.319,4.826,8.316,9.342
1200,1.175,36.088,17.687,34.879,22.322,4.824,8.356,9.26
1201,1.194,36.195,17.714,34.879,22.329,4.905,8.356,9.341
1202,1.266,35.909,17.742,34.889,22.339,4.906,8.437,9.26
1203,1.302,35.954,17.777,34.908,22.336,4.947,8.519,9.3
1204,1.306,36.079,17.742,34.889,22.325,4.947,8.561,9.26
1205,1.329,36.205,17.668,34.908,22.343,5.15,8.643,9.381
1206,1.313,35.899,17.675,34.87,22.325,4.868,8.481,9.139
1207,1.293,36.03,17.714,34.87,22.325,4.946,8.479,9.177
1208,1.244,36.147,17.687,34.86,22.318,4.866,8.52,9.259
1209,1.234,36.273,17.714,34.889,22.332,4.946,8.52,9.341
1210,1.175,35.775,17.695,34.889,22.329,4.988,8.601,9.342
1211,1.113,35.914,17.745,34.879,22.325,4.948,8.643,9.423
1212,1.047,36.069,17.675,34.899,22.339,5.069,8.806,9.627
1213,0.968,36.119,17.714,34.86,22.322,4.867,8.645,9.466
1214,0.88,36.023,17.722,34.889,22.329,4.906,8.765,9.627
1215,0.788,36.156,17.769,34.851,22.318,4.825,8.685,9.67
1216,0.715,36.311,17.785,34.898,22.336,4.905,8.888,9.914
1217,0.669,36.351,17.754,34.889,22.332,4.906,8.93,10.039
1218,0.636,35.91,17.746,34.87,22.329,4.987,9.012,10.121
1219,0.603,36.021,17.715,34.86,22.325,4.988,9.094,10.284
1220,0.574,36.166,17.71,34.879,22.318,4.907,8.973,10.286
1221,0.596,36.225,17.687,34.87,22.325,4.906,9.175,10.449
1222,0.596,35.928,17.73,34.86,22.318,4.825,9.137,10.613
1223,0.616,36.079,17.769,34.889,22.325,5.027,9.339,10.818
1224,0.636,36.176,17.699,34.87,22.325,4.907,9.342,10.901
1225,0.672,36.263,17.714,34.927,22.339,5.028,9.423,11.024
1226,0.682,35.948,17.679,34.851,22.325,4.907,9.302,11.066
1227,0.708,36.098,17.698,34.869,22.325,4.906,9.382,11.188
1228,0.728,36.215,17.718,34.86,22.325,4.947,9.423,11.393
1229,0.76,36.216,17.73,34.85,22.332,4.866,9.383,11.395
1230,0.803,35.938,17.761,34.86,22.336,4.946,9.545,11.639
1231,0.842,36.06,17.762,34.87,22.325,4.947,9.506,11.763
1232,0.866,36.224,17.711,34.937,22.339,5.11,9.506,11.887
1233,0.866,35.9,17.667,34.842,22.322,4.908,9.384,11.888
1234,0.872,35.983,17.702,34.869,22.332,4.906,9.382,12.01
1235,0.876,36.098,17.753,34.86,22.325,4.906,9.423,12.092
1236,0.869,36.215,17.773,34.889,22.336,4.987,9.505,12.174
1237,0.872,35.976,17.762,34.87,22.329,4.988,9.506,12.216
1238,0.866,36.079,17.769,34.87,22.325,4.988,9.546,12.257
1239,0.866,36.205,17.73,34.889,22.332,5.029,9.628,12.42
1240,0.853,36.292,17.668,34.86,22.329,4.867,9.466,12.178
1241,0.859,35.785,17.686,34.86,22.325,4.865,9.424,12.216
1242,0.843,35.895,17.71,34.85,22.311,4.906,9.424,12.176
1243,0.849,36.05,17.777,34.889,22.332,5.028,9.464,12.216
1244,0.84,36.138,17.699,34.87,22.329,4.907,9.465,12.094
1245,0.849,35.908,17.64,34.889,22.325,4.987,9.465,12.012
1246,0.827,36.031,17.694,34.86,22.332,4.948,9.424,11.97
1247,0.82,36.176,17.687,34.87,22.329,4.907,9.342,11.807
1248,0.839,36.235,17.702,34.87,22.325,4.987,9.301,11.765
1249,0.836,35.938,17.71,34.86,22.322,4.866,9.178,11.561
1250,0.836,36.117,17.714,34.879,22.329,4.987,9.299,11.64
1251,0.843,36.205,17.765,34.879,22.329,4.988,9.26,11.479
1252,0.846,36.302,17.683,34.889,22.332,5.029,9.3,11.314
1253,0.83,35.862,17.694,34.87,22.329,4.989,9.26,11.232
1254,0.836,35.992,17.698,34.87,22.332,4.948,9.097,11.027
1255,0.846,36.118,17.722,34.87,22.329,4.988,9.014,10.944
1256,0.846,36.119,17.753,34.851,22.325,4.907,8.891,10.74
1257,0.856,35.946,17.785,34.869,22.332,4.987,9.012,10.779
1258,0.853,36.088,17.797,34.87,22.329,4.988,9.013,10.657
1259,0.859,36.243,17.781,34.889,22.336,4.988,8.972,10.452
1260,0.84,36.168,17.688,34.87,22.329,4.866,8.931,10.369
1261,0.839,36.024,17.691,34.86,22.325,4.946,8.931,10.165
1262,0.839,36.156,17.706,34.87,22.329,4.988,8.931,10.163
1263,0.833,36.254,17.765,34.87,22.325,4.948,8.809,9.919
1264,0.846,35.9,17.754,34.87,22.329,5.069,8.93,10.039
1265,0.833,35.954,17.683,34.87,22.332,5.03,8.931,9.796
1266,0.826,36.137,17.659,34.898,22.339,5.07,8.972,9.793
1267,0.817,36.177,17.675,34.889,22.322,4.867,8.809,9.631
1268,0.826,35.861,17.675,34.851,22.322,4.946,8.808,9.507
1269,0.817,35.973,17.667,34.85,22.332,4.988,8.808,9.425
1270,0.823,36.118,17.636,34.86,22.336,4.988,8.808,9.383
1271,0.839,36.224,17.745,34.86,22.332,5.029,8.848,9.382
1272,0.839,35.813,17.715,34.85,22.329,5.03,8.727,9.464
1273,0.849,35.991,17.71,34.927,22.336,5.07,8.848,9.546
1274,0.846,36.089,17.691,34.842,22.318,4.948,8.686,9.547
1275,0.849,36.167,17.722,34.86,22.322,4.907,8.644,9.669
1276,0.843,35.793,17.738,34.812,22.315,4.825,8.603,9.751
1277,0.853,35.962,17.792,34.879,22.332,4.987,8.724,9.955
1278,0.853,36.06,17.793,34.87,22.329,5.029,8.685,10.039
1279,0.856,36.166,17.754,34.86,22.329,4.989,8.644,9.958
1280,0.853,35.784,17.703,34.841,22.325,5.029,8.644,10.12
1281,0.843,35.933,17.683,34.85,22.325,4.989,8.521,10.081
1282,0.846,36.098,17.667,34.86,22.325,5.029,8.561,10.081
1283,0.843,36.1,17.733,34.841,22.325,4.907,8.521,10.04
1284,0.846,35.869,17.753,34.85,22.332,5.028,8.52,10.162
1285,0.84,36.021,17.707,34.869,22.329,4.989,8.52,10.082
1286,0.852,36.166,17.683,34.889,22.332,5.07,8.52,9.959
1287,0.833,36.139,17.632,34.851,22.322,4.989,8.358,9.957
1288,0.839,35.87,17.678,34.85,22.325,5.07,8.315,9.835
1289,0.846,36.021,17.687,34.869,22.325,5.03,8.356,9.794
1290,0.849,36.147,17.659,34.86,22.325,4.989,8.397,9.712
1291,0.849,36.043,17.721,34.879,22.332,5.11,8.438,9.752
1292,0.862,35.926,17.734,34.87,22.332,5.03,8.357,9.752
1293,0.866,36.117,17.711,34.908,22.339,5.151,8.6,9.752
1294,0.856,36.167,17.722,34.851,22.325,4.949,8.399,9.549
1295,0.869,35.803,17.718,34.85,22.325,4.988,8.397,9.547
1296,0.866,35.857,17.73,34.831,22.318,5.11,8.478,9.506
1297,0.885,36.011,17.781,34.869,22.332,5.03,8.642,9.506
1298,0.872,36.118,17.777,34.86,22.332,5.111,8.684,9.465
1299,0.853,35.86,17.762,34.85,22.329,5.03,8.725,9.383
1300,0.849,35.963,17.738,34.86,22.336,5.07,8.807,9.464
1301,0.859,36.098,17.703,34.841,22.322,5.07,8.767,9.262
1302,0.856,36.186,17.698,34.86,22.329,5.03,8.889,9.3
1303,0.849,35.765,17.698,34.822,22.318,4.989,8.809,9.219
1304,0.856,35.933,17.765,34.869,22.332,5.151,9.011,9.34
1305,0.849,36.06,17.754,34.87,22.332,5.071,9.054,9.26
1306,0.862,36.166,17.718,34.879,22.336,5.152,9.095,9.341
1307,0.843,35.765,17.671,34.831,22.329,5.031,9.095,9.342
1308,0.839,35.904,17.655,34.841,22.329,5.151,9.014,9.301
1309,0.859,36.05,17.624,34.85,22.329,5.112,9.094,9.26
1310,0.856,36.099,17.717,34.85,22.325,5.071,9.136,9.178
1311,0.879,35.937,17.691,34.841,22.325,5.152,9.339,9.299
1312,0.876,36.04,17.745,34.841,22.332,5.153,9.342,9.219
1313,0.879,36.205,17.718,34.889,22.339,5.234,9.545,9.259
1314,0.856,36.225,17.695,34.841,22.325,5.153,9.384,9.097
1315,0.872,35.804,17.679,34.831,22.332,5.193,9.505,9.054
1316,0.866,35.924,17.679,34.831,22.329,5.153,9.506,8.973
1317,0.889,36.069,17.718,34.85,22.329,5.193,9.506,8.972
1318,0.885,36.09,17.742,34.85,22.336,5.234,9.587,8.931
1319,0.885,35.85,17.754,34.841,22.332,5.153,9.547,8.931
1320,0.892,35.992,17.785,34.869,22.343,5.315,9.669,8.972
1321,0.873,36.089,17.719,34.812,22.322,5.114,9.426,8.769
1322,0.866,35.975,17.71,34.831,22.325,5.152,9.424,8.726
1323,0.853,35.868,17.679,34.821,22.318,5.153,9.383,8.603
1324,0.882,36.03,17.741,34.85,22.332,5.193,9.423,8.684
1325,0.859,36.137,17.769,34.85,22.336,5.234,9.383,8.644
1326,0.866,35.736,17.746,34.831,22.325,5.153,9.342,8.44
1327,0.872,35.808,17.703,34.841,22.339,5.315,9.423,8.641
1328,0.863,35.943,17.698,34.831,22.322,5.154,9.098,8.399
1329,0.869,36.069,17.675,34.841,22.332,5.193,9.136,8.316
1330,0.869,35.84,17.706,34.86,22.322,5.112,9.014,8.234
1331,0.885,36.001,17.71,34.85,22.329,5.315,9.135,8.355
1332,0.872,36.108,17.753,34.812,22.332,5.317,9.136,8.234
1333,0.895,36.244,17.761,34.85,22.332,5.236,9.136,8.192
1334,0.873,35.785,17.672,34.802,22.325,5.153,9.014,8.192
1335,0.876,35.972,17.655,34.831,22.322,5.193,9.013,8.11
1336,0.882,36.079,17.682,34.821,22.329,5.194,9.013,8.109
1337,0.892,36.128,17.702,34.812,22.322,5.194,8.932,7.947
1338,0.899,35.707,17.722,34.84,22.332,5.234,9.012,8.108
1339,0.879,35.827,17.749,34.841,22.332,5.235,8.972,8.028
1340,0.898,35.991,17.797,34.86,22.343,5.397,9.013,8.027
1341,0.879,36.022,17.746,34.803,22.325,5.236,8.891,7.865
1342,0.895,35.754,17.652,34.821,22.325,5.194,8.89,7.822
1343,0.876,35.924,17.706,34.831,22.332,5.316,8.89,7.781
1344,0.882,36.04,17.722,34.802,22.325,5.236,8.89,7.74
1345,0.872,36.089,17.753,34.802,22.322,5.275,9.012,7.781
1346,0.879,35.783,17.769,34.812,22.329,5.316,9.013,7.7
1347,0.885,35.953,17.789,34.85,22.343,5.48,9.257,7.861
1348,0.866,36.012,17.734,34.802,22.322,5.197,9.097,7.619
1349,0.889,36.041,17.714,34.812,22.325,5.234,9.136,7.617
1350,0.879,35.763,17.667,34.792,22.329,5.235,9.258,7.576
1351,0.879,35.943,17.667,34.811,22.329,5.316,9.341,7.616
1352,0.885,36.041,17.718,34.821,22.339,5.317,9.464,7.576
1353,0.889,35.85,17.773,34.812,22.329,5.317,9.587,7.616
1354,0.899,35.848,17.715,34.86,22.339,5.398,9.791,7.739
1355,0.905,35.944,17.636,34.793,22.322,5.155,9.671,7.496
1356,0.895,36.05,17.698,34.85,22.325,5.234,9.751,7.534
1357,0.892,35.639,17.663,34.793,22.322,5.153,9.833,7.453
1358,0.899,35.769,17.675,34.831,22.339,5.315,10.038,7.574
1359,0.895,35.876,17.671,34.821,22.329,5.317,10.04,7.454
1360,0.905,35.982,17.737,34.831,22.332,5.317,10.121,7.493
1361,0.895,35.609,17.75,34.841,22.332,5.317,10.244,7.616
1362,0.886,35.749,17.691,34.821,22.318,5.114,10.042,7.373
1363,0.895,35.924,17.667,34.802,22.329,5.274,10.121,7.411
1364,0.882,35.954,17.667,34.792,22.318,5.073,9.959,7.371
1365,0.895,35.753,17.725,34.821,22.329,5.314,10.08,7.573
1366,0.886,35.866,17.781,34.831,22.329,5.276,10.081,7.535
1367,0.889,36.011,17.793,34.831,22.332,5.276,10.081,7.575
1368,0.885,36.06,17.766,34.812,22.325,5.195,10.04,7.575
1369,0.892,35.639,17.769,34.792,22.325,5.194,9.918,7.535
1370,0.902,35.779,17.691,34.831,22.329,5.234,9.916,7.534
1371,0.908,35.933,17.691,34.802,22.318,5.153,9.794,7.453
1372,0.899,36.012,17.698,34.831,22.336,5.315,9.915,7.534
1373,0.902,35.677,17.753,34.831,22.329,5.358,9.835,7.575
1374,0.921,35.865,17.758,34.869,22.343,5.358,9.834,7.616
1375,0.915,35.925,17.699,34.783,22.319,5.236,9.672,7.495
1376,0.909,35.983,17.636,34.821,22.325,5.194,9.629,7.453
1377,0.915,35.696,17.694,34.85,22.332,5.275,9.67,7.452
1378,0.915,35.837,17.659,34.86,22.329,5.235,9.629,7.412
1379,0.912,35.944,17.682,34.831,22.329,5.275,9.629,7.493
1380,0.915,36.06,17.722,34.802,22.325,5.276,9.507,7.453
1381,0.909,35.773,17.761,34.85,22.339,5.357,9.628,7.574
1382,0.905,35.895,17.699,34.812,22.322,5.114,9.426,7.332
1383,0.912,36.021,17.687,34.898,22.329,5.234,9.383,7.41
1384,0.899,35.706,17.667,34.784,22.318,5.194,9.423,7.33
1385,0.902,35.702,17.702,34.83,22.332,5.234,9.464,7.41
1386,0.905,35.818,17.757,34.802,22.332,5.235,9.424,7.411
1387,0.908,35.934,17.781,34.802,22.318,5.235,9.424,7.371
1388,0.902,35.609,17.816,34.812,22.332,5.316,9.505,7.37
1389,0.905,35.711,17.817,34.812,22.318,5.154,9.343,7.248
1390,0.912,35.875,17.735,34.812,22.329,5.153,9.423,7.247
1391,0.905,35.963,17.699,34.792,22.318,5.153,9.261,7.206
1392,0.921,35.542,17.702,34.84,22.332,5.234,9.3,7.369
1393,0.925,35.672,17.722,34.802,22.329,5.194,9.382,7.33
1394,0.935,35.827,17.777,34.831,22.343,5.275,9.342,7.37
1395,0.925,35.867,17.734,34.793,22.329,5.195,9.342,7.37
1396,0.925,35.56,17.668,34.821,22.325,5.153,9.219,7.33
1397,0.931,35.72,17.612,34.831,22.332,5.193,9.259,7.41
1398,0.928,35.837,17.627,34.812,22.322,5.072,9.178,7.411
1399,0.928,35.934,17.694,34.821,22.332,5.233,9.34,7.655
1400,0.931,35.734,17.663,34.812,22.325,5.153,9.342,7.739
1401,0.944,35.904,17.749,34.86,22.343,5.315,9.464,7.943
1402,0.925,35.983,17.754,34.793,22.322,5.114,9.18,7.823
1403,0.925,36.06,17.644,34.811,22.318,5.112,9.259,7.944
1404,0.909,35.562,17.678,34.802,22.329,5.071,9.259,8.026
1405,0.918,35.72,17.71,34.812,22.332,5.193,9.381,8.149
1406,0.925,35.837,17.734,34.802,22.332,5.153,9.301,8.232
1407,0.931,35.876,17.765,34.812,22.332,5.153,9.301,8.233
1408,0.928,35.8,17.797,34.821,22.339,5.234,9.463,8.558
1409,0.928,35.924,17.75,34.793,22.325,5.032,9.18,8.317
1410,0.931,36.04,17.754,34.802,22.325,5.111,9.096,8.477
1411,0.918,36.339,17.715,34.85,22.322,5.03,9.095,8.479
1412,0.941,35.69,17.706,34.831,22.336,5.192,9.258,8.601
1413,0.938,35.808,17.734,34.812,22.325,5.153,9.137,8.684
1414,0.948,35.934,17.753,34.812,22.329,5.112,9.136,8.725
1415,0.951,35.858,17.711,34.792,22.325,5.152,9.095,8.807
1416,0.958,35.896,17.663,34.783,22.325,5.112,8.973,8.767
1417,0.958,36.03,17.636,34.802,22.329,5.071,9.094,8.848
1418,0.958,36.109,17.589,34.792,22.318,5.03,9.054,8.849
1419,0.954,35.716,17.674,34.792,22.332,5.192,9.339,8.971
1420,0.951,35.789,17.659,34.802,22.325,5.153,9.504,9.053
1421,0.971,35.981,17.745,34.812,22.339,5.193,9.75,9.095
1422,0.945,36.012,17.722,34.773,22.325,5.072,9.793,8.973
1423,0.938,35.754,17.667,34.792,22.329,5.07,9.996,9.013
1424,0.948,35.876,17.686,34.783,22.325,5.111,10.243,9.013
1425,0.938,36.049,17.702,34.792,22.329,5.112,10.367,8.972
1426,0.938,36.118,17.734,34.802,22.329,5.152,10.693,9.053
1427,0.925,35.745,17.738,34.802,22.336,5.193,10.819,9.013
1428,0.948,35.895,17.753,34.831,22.343,5.316,11.145,9.094
1429,0.928,36.002,17.722,34.764,22.322,4.992,11.067,8.892
1430,0.938,36.079,17.738,34.782,22.329,5.192,11.107,8.89
1431,0.945,35.793,17.59,34.783,22.325,5.153,11.189,8.93
1432,0.954,35.972,17.69,34.773,22.332,5.193,11.271,8.85
1433,0.951,36.089,17.73,34.792,22.332,5.194,11.312,8.767
1434,0.961,36.138,17.765,34.811,22.325,5.153,11.232,8.807
1435,0.974,35.927,17.75,34.821,22.339,5.234,11.393,8.93
1436,0.964,36.05,17.715,34.783,22.325,5.032,11.11,8.646
1437,0.955,36.176,17.66,34.783,22.332,5.111,11.148,8.644
1438,0.951,36.187,17.636,34.754,22.318,5.071,11.026,8.603
1439,0.958,36.053,17.706,34.84,22.332,5.152,11.066,8.684
1440,0.964,36.195,17.667,34.802,22.332,5.193,10.944,8.644
1441,0.961,36.302,17.698,34.802,22.329,5.112,10.943,8.562
1442,0.958,36.524,17.757,34.802,22.336,5.152,10.821,8.602
1443,0.948,36.066,17.676,34.764,22.322,5.112,10.657,8.358
1444,0.961,36.214,17.698,34.792,22.329,5.112,10.656,8.397
1445,0.942,36.302,17.683,34.763,22.311,5.112,10.371,8.234
1446,0.958,36.111,17.741,34.792,22.329,5.234,10.571,8.395
1447,0.951,36.148,17.75,34.792,22.329,5.194,10.411,8.275
1448,0.964,36.33,17.781,34.802,22.339,5.234,10.328,8.274
1449,0.958,36.38,17.758,34.773,22.325,5.113,10.205,8.274
1450,0.958,36.189,17.761,34.754,22.329,5.112,10.123,8.193
1451,0.958,36.35,17.668,34.773,22.329,5.193,10.081,8.11
1452,0.971,36.486,17.686,34.773,22.332,5.112,9.999,8.028
1453,0.981,36.573,17.722,34.792,22.336,5.193,10.039,8.109
1454,0.974,36.315,17.746,34.783,22.336,5.194,9.918,8.109
1455,0.977,36.457,17.734,34.783,22.329,5.234,9.916,8.028
1456,0.971,36.573,17.683,34.773,22.329,5.153,9.835,8.027
1457,0.977,36.641,17.644,34.754,22.332,5.193,9.672,7.946
1458,0.977,36.335,17.632,34.773,22.325,5.234,9.751,7.823
1459,0.971,36.466,17.678,34.792,22.318,5.113,9.59,7.7
1460,0.974,36.612,17.675,34.783,22.332,5.274,9.71,7.902
1461,0.971,36.651,17.733,34.783,22.329,5.195,9.63,7.823
1462,0.974,36.489,17.73,34.802,22.329,5.194,9.629,7.781
1463,0.968,36.593,17.66,34.764,22.332,5.194,9.629,7.781
1464,0.971,36.728,17.667,34.734,22.329,5.153,9.507,7.618
1465,0.961,36.768,17.686,34.773,22.325,5.193,9.587,7.617
1466,0.964,36.605,17.718,34.754,22.318,5.112,9.425,7.495
1467,0.958,36.785,17.777,34.773,22.332,5.234,9.505,7.656
1468,0.958,36.883,17.777,34.773,22.325,5.194,9.587,7.536
1469,0.977,36.942,17.793,34.782,22.339,5.194,9.547,7.575
1470,0.958,36.722,17.781,34.735,22.325,5.194,9.466,7.494
1471,0.964,36.883,17.633,34.773,22.325,5.112,9.424,7.412
1472,0.955,36.98,17.663,34.754,22.325,5.152,9.546,7.493
1473,0.967,37.067,17.69,34.782,22.329,5.153,9.547,7.412
1474,0.974,36.752,17.761,34.773,22.332,5.153,9.669,7.533
1475,0.977,36.892,17.742,34.773,22.329,5.193,9.67,7.534
1476,0.977,37.028,17.714,34.802,22.339,5.316,9.873,7.616
1477,0.961,36.914,17.632,34.744,22.322,5.114,9.672,7.454
1478,0.971,36.98,17.631,34.753,22.329,5.112,9.711,7.452
1479,0.961,37.096,17.577,34.763,22.329,5.112,9.67,7.493
1480,0.964,37.222,17.705,34.773,22.325,5.193,9.751,7.494
1481,0.964,36.849,17.722,34.754,22.332,5.153,9.752,7.494
1482,0.948,36.951,17.749,34.763,22.329,5.153,9.671,7.494
1483,0.948,37.096,17.668,34.773,22.339,5.315,9.792,7.656
1484,0.948,37.174,17.655,34.735,22.329,5.032,9.549,7.414
1485,0.948,36.993,17.682,34.744,22.329,5.111,9.588,7.533
1486,0.935,37.096,17.71,34.734,22.318,5.071,9.507,7.453
1487,0.941,37.26,17.749,34.763,22.332,5.152,9.628,7.534
1488,0.938,37.31,17.746,34.773,22.332,5.153,9.548,7.534
1489,0.938,36.984,17.789,34.763,22.329,5.153,9.506,7.657
1490,0.932,37.106,17.762,34.744,22.336,5.153,9.628,7.739
1491,0.925,37.251,17.598,34.753,22.325,5.031,9.426,7.618
1492,0.931,37.329,17.682,34.754,22.325,5.07,9.424,7.698
1493,0.925,37.061,17.714,34.725,22.315,5.03,9.342,7.658
1494,0.948,37.231,17.753,34.763,22.332,5.192,9.464,7.942
1495,0.945,37.338,17.734,34.773,22.329,5.153,9.505,7.864
1496,0.951,37.416,17.671,34.773,22.329,5.112,9.384,7.944
1497,0.925,37.235,17.608,34.754,22.332,5.112,9.464,7.986
1498,0.935,37.367,17.631,34.734,22.325,5.03,9.343,7.946
1499,0.931,37.493,17.678,34.753,22.325,5.07,9.342,8.026
1500,0.922,37.514,17.683,34.725,22.318,4.989,9.179,7.783
1501,0.922,37.322,17.714,34.744,22.332,5.151,9.421,8.106
1502,0.905,37.435,17.742,34.753,22.332,5.153,9.342,8.028
1503,0.908,37.58,17.668,34.792,22.332,5.153,9.342,8.109
1504,0.899,37.495,17.69,34.735,22.329,5.071,9.342,8.069
1505,0.892,37.274,17.694,34.734,22.318,4.989,9.342,7.946
1506,0.886,37.396,17.757,34.744,22.329,5.029,9.423,7.986
1507,0.885,37.503,17.761,34.734,22.325,4.989,9.424,7.986
1508,0.882,37.331,17.762,34.753,22.336,5.151,9.546,8.068
1509,0.885,37.397,17.769,34.763,22.332,5.031,9.669,8.028
1510,0.892,37.57,17.738,34.782,22.346,5.192,9.833,8.068
1511,0.876,37.61,17.687,34.725,22.326,4.99,9.672,7.946
1512,0.882,37.246,17.691,34.734,22.322,5.029,9.792,7.864
1513,0.872,37.348,17.73,34.744,22.322,5.07,9.834,7.904
1514,0.885,37.483,17.765,34.753,22.332,5.152,9.916,7.863
1515,0.889,37.561,17.723,34.754,22.332,4.99,9.876,7.904
1516,0.889,37.294,17.644,34.754,22.329,5.07,9.835,7.904
1517,0.889,37.435,17.682,34.801,22.336,5.152,9.997,7.985
1518,0.879,37.513,17.644,34.716,22.322,4.99,9.795,7.702
1519,0.866,37.638,17.694,34.724,22.325,5.07,9.834,7.78
1520,0.862,37.314,17.675,34.715,22.318,4.989,9.753,7.74
1521,0.869,37.493,17.78,34.753,22.332,5.151,9.833,7.781
1522,0.866,37.609,17.699,34.734,22.329,5.193,9.794,7.822
1523,0.866,37.687,17.71,34.744,22.332,5.153,9.712,7.781
1524,0.856,37.266,17.691,34.734,22.336,5.193,9.711,7.781
1525,0.84,37.406,17.73,34.715,22.318,5.153,9.508,7.659
1526,0.843,37.522,17.761,34.705,22.325,5.193,9.546,7.658
1527,0.843,37.552,17.769,34.715,22.318,5.072,9.425,7.576
1528,0.846,37.332,17.754,34.734,22.336,5.233,9.505,7.738
1529,0.846,37.454,17.73,34.734,22.325,5.235,9.465,7.699
1530,0.849,37.59,17.691,34.753,22.332,5.357,9.465,7.618
1531,0.84,37.582,17.659,34.715,22.325,5.236,9.383,7.657
1532,0.839,37.332,17.706,34.724,22.325,5.275,9.342,7.536
1533,0.839,37.464,17.765,34.744,22.325,5.316,9.342,7.575
1534,0.839,37.59,17.746,34.725,22.318,5.195,9.179,7.454
1535,0.852,37.284,17.652,34.763,22.325,5.316,9.299,7.656
1536,0.846,36.754,17.694,34.802,22.329,5.276,9.178,7.536
1537,0.859,36.94,17.698,34.764,22.339,5.438,9.259,7.616
1538,0.833,36.971,17.671,34.725,22.315,5.318,9.137,7.454
1539,0.833,37.432,17.702,34.724,22.322,5.195,9.055,7.452
1540,0.83,37.599,17.714,34.734,22.325,5.275,9.054,7.452
1541,0.83,37.726,17.742,34.753,22.325,5.276,8.973,7.452
1542,0.833,37.813,17.652,34.744,22.332,5.357,9.053,7.615
1543,0.82,37.104,17.706,34.734,22.329,5.317,9.013,7.617
1544,0.83,37.251,17.714,34.763,22.343,5.439,9.054,7.617
1545,0.804,37.319,17.753,34.715,22.329,5.277,8.932,7.454
1546,0.8,37.406,17.754,34.734,22.325,5.276,8.89,7.493
1547,0.794,37.292,17.73,34.705,22.325,5.316,9.093,7.534
1548,0.81,37.473,17.718,34.734,22.332,5.317,9.054,7.616
1549,0.82,37.571,17.699,34.763,22.325,5.317,9.257,7.617
1550,0.817,37.649,17.624,34.744,22.336,5.317,9.3,7.657
1551,0.833,37.093,17.678,34.753,22.336,5.439,9.423,7.78
1552,0.81,37.183,17.702,34.696,22.318,5.318,9.302,7.578
1553,0.807,37.328,17.737,34.715,22.325,5.439,9.341,7.698
1554,0.807,37.387,17.672,34.724,22.325,5.318,9.301,7.78
1555,0.829,37.302,17.683,34.792,22.325,5.398,9.382,7.7
1556,0.826,37.425,17.687,34.744,22.325,5.277,9.464,7.74
1557,0.817,37.532,17.679,34.734,22.325,5.316,9.383,7.781
1558,0.826,37.591,17.737,34.744,22.336,5.52,9.505,7.862
1559,0.81,37.141,17.711,34.696,22.325,5.278,9.343,7.7
1560,0.813,37.309,17.749,34.734,22.325,5.276,9.382,7.78
1561,0.803,37.406,17.73,34.725,22.322,5.276,9.382,7.822
1562,0.816,37.455,17.722,34.753,22.329,5.316,9.423,7.781
1563,0.8,37.034,17.691,34.744,22.336,5.317,9.383,7.781
1564,0.8,37.183,17.733,34.725,22.325,5.317,9.342,7.74
1565,0.813,37.299,17.742,34.753,22.343,5.439,9.423,7.821
1566,0.8,37.301,17.742,34.696,22.325,5.318,9.22,7.537
1567,0.797,37.282,17.73,34.715,22.332,5.317,9.178,7.616
1568,0.787,37.377,17.695,34.705,22.325,5.195,9.177,7.576
1569,0.8,37.532,17.679,34.734,22.336,5.356,9.299,7.616
1570,0.807,37.054,17.687,34.715,22.332,5.399,9.301,7.576
1571,0.807,37.126,17.706,34.734,22.325,5.358,9.382,7.616
1572,0.807,37.251,17.73,34.734,22.336,5.358,9.423,7.657
1573,0.81,37.329,17.73,34.705,22.325,5.317,9.424,7.455
1574,0.81,37.052,17.652,34.715,22.329,5.317,9.546,7.574
1575,0.81,37.154,17.678,34.696,22.318,5.317,9.506,7.332
1576,0.823,37.309,17.69,34.724,22.325,5.398,9.668,7.451
1577,0.826,37.387,17.698,34.715,22.329,5.399,9.792,7.493
1578,0.823,37.043,17.698,34.724,22.329,5.358,9.753,7.534
1579,0.807,37.154,17.722,34.715,22.318,5.399,9.833,7.616
1580,0.813,37.29,17.765,34.705,22.329,5.399,9.794,7.617
1581,0.813,37.358,17.73,34.715,22.325,5.318,9.915,7.617
1582,0.816,37.014,17.714,34.696,22.325,5.236,9.794,7.535
1583,0.813,37.154,17.699,34.734,22.332,5.397,9.956,7.779
1584,0.81,37.27,17.734,34.725,22.329,5.399,9.998,7.74
1585,0.82,37.358,17.773,34.753,22.339,5.44,10.08,7.862
1586,0.81,36.966,17.73,34.686,22.325,5.359,10.081,7.863
1587,0.803,37.115,17.691,34.705,22.325,5.277,10.081,7.944
1588,0.8,37.232,17.679,34.696,22.329,5.398,10.243,7.986
1589,0.8,37.3,17.624,34.705,22.325,5.358,10.204,7.864
1590,0.813,37.09,17.659,34.715,22.332,5.439,10.326,7.944
1591,0.82,37.212,17.651,34.715,22.329,5.399,10.368,7.945
1592,0.83,37.357,17.772,34.744,22.339,5.48,10.449,8.067
1593,0.8,37.32,17.707,34.696,22.329,5.278,10.328,7.906
1594,0.813,36.984,17.57,34.715,22.325,5.316,10.327,7.945
1595,0.829,37.125,17.689,34.705,22.332,5.358,10.368,8.067
1596,0.839,37.251,17.706,34.715,22.329,5.399,10.449,8.028
1597,0.836,37.051,17.718,34.715,22.332,5.399,10.532,8.027
1598,0.83,36.905,17.738,34.715,22.332,5.399,10.573,8.149
1599,0.826,37.076,17.738,34.734,22.343,5.602,10.696,8.313
1600,0.817,37.135,17.773,34.686,22.319,5.36,10.494,8.152
1601,0.82,37.011,17.695,34.705,22.325,5.439,10.614,8.273
1602,0.81,37.068,17.675,34.686,22.318,5.318,10.615,8.274
1603,0.823,37.231,17.71,34.705,22.336,5.439,10.737,8.518
1604,0.813,37.338,17.753,34.715,22.332,5.481,10.697,8.601
1605,0.82,36.85,17.746,34.696,22.325,5.481,10.656,8.602
1606,0.813,36.989,17.691,34.705,22.329,5.481,10.696,8.724
1607,0.8,37.096,17.667,34.686,22.325,5.359,10.575,8.644
1608,0.803,37.184,17.643,34.705,22.332,5.48,10.574,8.725
1609,0.813,36.935,17.651,34.676,22.325,5.359,10.492,8.685
1610,0.82,37.067,17.667,34.714,22.332,5.48,10.614,8.928
1611,0.82,37.202,17.683,34.696,22.332,5.481,10.533,8.931
1612,0.833,37.3,17.73,34.734,22.339,5.562,10.492,8.931
1613,0.826,36.86,17.664,34.696,22.329,5.441,10.329,8.89
1614,0.833,37.018,17.675,34.695,22.325,5.521,10.327,8.89
1615,0.839,37.125,17.694,34.715,22.322,5.482,10.286,8.93
1616,0.843,37.193,17.741,34.715,22.329,5.44,10.245,8.85
1617,0.843,36.954,17.777,34.696,22.332,5.481,10.204,8.971
1618,0.846,37.096,17.789,34.705,22.325,5.44,10.001,8.931
1619,0.843,37.251,17.777,34.715,22.339,5.562,10.121,8.972
1620,0.839,37.223,17.723,34.696,22.315,5.441,9.756,8.769
1621,0.839,36.84,17.683,34.705,22.329,5.44,9.712,8.807
1622,0.826,36.951,17.667,34.676,22.325,5.399,9.63,8.808
1623,0.839,37.096,17.749,34.705,22.332,5.48,9.71,8.767
1624,0.839,37.107,17.765,34.696,22.336,5.562,9.63,8.807
1625,0.83,36.934,17.672,34.705,22.325,5.563,9.548,8.767
1626,0.83,37.076,17.647,34.715,22.336,5.604,9.628,8.767
1627,0.813,37.174,17.694,34.753,22.322,5.482,9.507,8.604
1628,0.829,37.021,17.671,34.696,22.329,5.522,9.587,8.643
1629,0.813,36.943,17.675,34.667,22.325,5.482,9.466,8.562
1630,0.836,37.115,17.706,34.705,22.332,5.562,9.627,8.602
1631,0.83,37.213,17.734,34.696,22.329,5.645,9.548,8.562
1632,0.839,36.83,17.695,34.715,22.329,5.564,9.588,8.439
1633,0.83,36.884,17.702,34.686,22.325,5.563,9.588,8.479
1634,0.833,37.028,17.659,34.676,22.322,5.563,9.466,8.438
1635,0.833,37.106,17.702,34.686,22.325,5.523,9.424,8.397
1636,0.846,36.896,17.745,34.667,22.322,5.563,9.302,8.316
1637,0.846,37.047,17.757,34.695,22.329,5.604,9.423,8.437
1638,0.843,37.164,17.793,34.705,22.329,5.604,9.342,8.357
1639,0.853,37.271,17.77,34.734,22.336,5.726,9.382,8.356
1640,0.833,36.754,17.707,34.677,22.322,5.524,9.22,8.275
1641,0.839,36.931,17.695,34.695,22.325,5.522,9.096,8.274
1642,0.836,37.057,17.698,34.686,22.332,5.603,9.136,8.233
1643,0.836,37.135,17.757,34.715,22.325,5.564,9.177,8.273
1644,0.826,36.752,17.738,34.696,22.336,5.604,9.218,8.233
1645,0.83,36.892,17.652,34.695,22.332,5.604,9.218,8.192
1646,0.843,37.095,17.647,34.753,22.339,5.686,9.34,8.354
1647,0.817,37.097,17.643,34.686,22.319,5.442,9.179,8.112
1648,0.816,36.858,17.663,34.686,22.325,5.521,9.299,8.109
1649,0.81,36.98,17.69,34.676,22.322,5.482,9.341,8.028
1650,0.826,37.125,17.733,34.714,22.329,5.603,9.342,8.068
1651,0.823,37.155,17.761,34.696,22.332,5.523,9.382,8.069
1652,0.817,36.839,17.691,34.686,22.325,5.563,9.464,8.028
1653,0.842,37.018,17.714,34.734,22.339,5.645,9.546,8.068
1654,0.823,37.087,17.683,34.677,22.325,5.483,9.425,7.865
1655,0.833,37.183,17.737,34.695,22.332,5.562,9.424,7.944
1656,0.826,36.763,17.742,34.676,22.322,5.441,9.505,7.864
1657,0.836,36.921,17.754,34.695,22.336,5.562,9.546,7.904
1658,0.839,37.028,17.734,34.705,22.325,5.645,9.547,7.823
1659,0.817,36.876,17.738,34.696,22.325,5.523,9.547,7.781
1660,0.826,36.865,17.672,34.715,22.339,5.563,9.669,7.944
1661,0.817,36.98,17.659,34.676,22.325,5.441,9.467,7.62
1662,0.826,37.086,17.698,34.676,22.322,5.44,9.587,7.657
1663,0.807,36.656,17.722,34.657,22.322,5.44,9.547,7.658
1664,0.833,36.776,17.695,34.714,22.332,5.481,9.588,7.739
1665,0.826,36.893,17.652,34.715,22.325,5.562,9.629,7.577
1666,0.82,36.999,17.682,34.676,22.325,5.563,9.588,7.616
1667,0.82,36.694,17.671,34.695,22.332,5.563,9.71,7.617
1668,0.81,36.815,17.659,34.676,22.325,5.401,9.548,7.495
1669,0.82,36.951,17.694,34.695,22.329,5.44,9.588,7.494
1670,0.803,37.019,17.722,34.676,22.325,5.359,9.507,7.29
1671,0.823,36.77,17.749,34.686,22.332,5.521,9.587,7.532
1672,0.82,36.931,17.676,34.705,22.332,5.603,9.629,7.453
1673,0.83,37.067,17.698,34.724,22.336,5.523,9.466,7.452
1674,0.813,37.116,17.698,34.696,22.325,5.522,9.587,7.452
1675,0.823,36.56,17.722,34.676,22.325,5.441,9.385,7.33
1676,0.823,36.708,17.765,34.676,22.322,5.521,9.505,7.41
1677,0.836,36.834,17.734,34.667,22.325,5.482,9.262,7.289
1678,0.833,36.884,17.753,34.695,22.336,5.603,9.463,7.451
1679,0.833,36.712,17.711,34.686,22.329,5.564,9.343,7.452
1680,0.833,36.873,17.656,34.724,22.339,5.645,9.342,7.412
1681,0.804,36.951,17.659,34.677,22.325,5.483,9.26,7.411
1682,0.803,36.99,17.706,34.686,22.325,5.562,9.178,7.452
1683,0.813,36.674,17.718,34.676,22.325,5.563,9.259,7.493
1684,0.826,36.825,17.652,34.695,22.329,5.563,9.137,7.412
1685,0.807,36.941,17.643,34.743,22.332,5.604,9.258,7.493
1686,0.8,37.24,17.671,34.686,22.336,5.523,9.219,7.575
1687,0.797,36.638,17.722,34.705,22.343,5.685,9.381,7.738
1688,0.8,36.719,17.687,34.648,22.319,5.483,9.179,7.496
1689,0.81,36.844,17.714,34.676,22.322,5.481,9.299,7.534
1690,0.803,36.615,17.706,34.657,22.318,5.481,9.301,7.657
1691,0.813,36.671,17.71,34.676,22.336,5.562,9.423,7.658
1692,0.807,36.815,17.691,34.705,22.329,5.563,9.383,7.658
1693,0.81,36.912,17.671,34.676,22.329,5.563,9.423,7.617
1694,0.807,36.558,17.702,34.676,22.325,5.604,9.464,7.739
1695,0.807,36.651,17.757,34.657,22.322,5.523,9.343,7.496
1696,0.813,36.786,17.773,34.666,22.325,5.482,9.464,7.616
1697,0.813,36.864,17.746,34.666,22.325,5.44,9.343,7.535
1698,0.813,36.587,17.718,34.695,22.332,5.562,9.545,7.697
1699,0.81,36.709,17.683,34.686,22.329,5.563,9.506,7.74
1700,0.826,36.892,17.687,34.705,22.332,5.563,9.546,7.821
1701,0.791,36.923,17.651,34.667,22.318,5.441,9.506,7.863
1702,0.793,36.568,17.714,34.657,22.322,5.399,9.506,7.863
1703,0.81,36.689,17.699,34.666,22.325,5.521,9.587,7.944
1704,0.803,36.815,17.64,34.657,22.325,5.441,9.507,7.864
1705,0.803,36.903,17.655,34.685,22.336,5.521,9.668,7.985
1706,0.807,36.606,17.69,34.647,22.336,5.482,9.629,8.108
1707,0.81,36.747,17.73,34.695,22.339,5.562,9.67,8.232
1708,0.787,36.844,17.749,34.657,22.329,5.401,9.589,8.233
1709,0.803,36.893,17.746,34.657,22.329,5.562,9.547,8.314
1710,0.797,36.577,17.781,34.657,22.332,5.441,9.588,8.437
1711,0.807,36.766,17.73,34.666,22.332,5.44,9.629,8.601
1712,0.803,36.864,17.687,34.676,22.329,5.44,9.588,8.684
1713,0.803,36.913,17.679,34.676,22.332,5.481,9.629,8.725
1714,0.803,36.712,17.706,34.705,22.343,5.603,9.71,8.929
1715,0.807,36.825,17.738,34.657,22.325,5.36,9.467,8.687
1716,0.81,36.941,17.738,34.647,22.329,5.399,9.505,8.888
1717,0.8,37.105,17.672,34.637,22.325,5.318,9.343,8.93
1718,0.813,36.618,17.663,34.666,22.332,5.48,9.504,9.012
1719,0.807,36.747,17.643,34.657,22.325,5.481,9.425,9.054
1720,0.807,36.825,17.678,34.666,22.325,5.481,9.342,8.973
1721,0.8,36.586,17.679,34.666,22.332,5.44,9.301,9.094
1722,0.797,36.594,17.741,34.647,22.325,5.399,9.178,9.014
1723,0.79,36.766,17.711,34.657,22.325,5.399,9.218,9.054
1724,0.787,36.864,17.581,34.647,22.325,5.318,9.096,9.013
1725,0.79,36.606,17.674,34.676,22.332,5.48,9.176,9.216
1726,0.777,36.728,17.679,34.647,22.329,5.481,9.137,9.137
1727,0.79,36.883,17.737,34.666,22.336,5.481,9.095,9.217
1728,0.774,36.923,17.734,34.628,22.329,5.359,8.932,9.137
1729,0.787,36.501,17.742,34.656,22.325,5.358,8.931,9.136
1730,0.78,36.631,17.781,34.647,22.332,5.439,8.89,9.217
1731,0.797,36.767,17.691,34.676,22.332,5.44,8.849,9.178
1732,0.787,36.864,17.702,34.676,22.329,5.481,8.889,9.259
1733,0.8,36.548,17.675,34.657,22.329,5.44,8.849,9.259
1734,0.807,36.718,17.737,34.685,22.336,5.603,8.971,9.381
1735,0.8,36.796,17.726,34.647,22.325,5.32,8.728,9.139
1736,0.803,36.883,17.726,34.657,22.325,5.48,8.726,9.177
1737,0.787,36.587,17.679,34.628,22.322,5.4,8.644,9.177
1738,0.803,36.757,17.687,34.666,22.329,5.521,8.765,9.177
1739,0.8,36.873,17.648,34.657,22.332,5.522,8.807,9.177
1740,0.803,36.922,17.69,34.657,22.325,5.482,8.686,9.096
1741,0.794,36.702,17.659,34.695,22.336,5.562,8.807,9.217
1742,0.787,36.815,17.757,34.628,22.318,5.441,8.604,8.934
1743,0.79,36.931,17.726,34.666,22.325,5.44,8.724,8.931
1744,0.787,36.952,17.597,34.609,22.318,5.237,8.603,8.85
1745,0.79,36.568,17.69,34.666,22.332,5.479,8.806,8.971
1746,0.78,36.689,17.683,34.647,22.325,5.481,8.808,8.85
1747,0.79,36.825,17.71,34.657,22.332,5.481,8.767,8.767
1748,0.777,36.96,17.706,34.638,22.332,5.481,8.767,8.889
1749,0.784,36.76,17.745,34.647,22.329,5.4,8.726,8.768
1750,0.784,36.912,17.75,34.657,22.325,5.44,8.807,8.767
1751,0.787,37.009,17.687,34.647,22.318,5.318,8.726,8.645
1752,0.787,36.655,17.714,34.676,22.336,5.48,8.848,8.725
1753,0.8,36.671,17.691,34.657,22.332,5.44,8.808,8.685
1754,0.803,36.825,17.737,34.666,22.329,5.44,8.808,8.562
1755,0.79,36.864,17.761,34.647,22.325,5.359,8.808,8.602
1756,0.8,36.222,17.722,34.637,22.325,5.399,8.686,8.358
1757,0.797,36.321,17.691,34.676,22.329,5.358,8.766,8.437
1758,0.797,36.485,17.671,34.638,22.325,5.358,8.645,8.275
1759,0.79,36.573,17.632,34.676,22.332,5.48,8.725,8.436
1760,0.793,36.776,17.663,34.647,22.329,5.481,8.644,8.357
1761,0.793,36.95,17.675,34.685,22.332,5.44,8.684,8.275
1762,0.78,37.029,17.729,34.647,22.325,5.44,8.603,8.314
1763,0.774,37.097,17.714,34.657,22.325,5.399,8.44,8.152
1764,0.777,36.522,17.636,34.676,22.329,5.399,8.519,8.069
1765,0.784,36.67,17.659,34.647,22.332,5.399,8.439,7.987
1766,0.777,36.796,17.682,34.657,22.332,5.399,8.56,8.027
1767,0.777,36.864,17.718,34.647,22.332,5.399,8.602,8.027
1768,0.784,37.152,17.734,34.705,22.346,5.562,8.684,8.149
1769,0.771,37.232,17.726,34.648,22.322,5.319,8.44,7.866
1770,0.777,37.377,17.738,34.647,22.322,5.358,8.601,7.863
1771,0.78,37.417,17.683,34.666,22.325,5.399,8.602,7.863
1772,0.793,36.42,17.69,34.657,22.329,5.399,8.684,7.904
1773,0.793,36.544,17.706,34.657,22.332,5.399,8.684,7.985
1774,0.777,36.66,17.73,34.666,22.332,5.44,8.766,7.905
1775,0.793,36.709,17.746,34.676,22.343,5.481,8.889,7.985
1776,0.797,36.739,17.691,34.647,22.319,5.318,8.727,7.783
1777,0.807,36.892,17.694,34.657,22.325,5.439,8.766,7.781
1778,0.79,36.951,17.644,34.638,22.322,5.399,8.848,7.781
1779,0.797,36.952,17.6,34.685,22.329,5.44,8.93,7.862
1780,0.794,36.607,17.674,34.676,22.339,5.399,8.85,7.863
1781,0.787,36.738,17.686,34.676,22.325,5.399,8.889,7.782
1782,0.793,36.835,17.741,34.657,22.332,5.521,8.971,7.944
1783,0.777,36.634,17.652,34.647,22.318,5.36,8.769,7.661
1784,0.784,36.7,17.667,34.657,22.329,5.439,8.848,7.698
1785,0.764,36.825,17.655,34.638,22.318,5.318,8.727,7.536
1786,0.774,36.941,17.702,34.676,22.332,5.439,8.929,7.697
1787,0.771,36.549,17.73,34.667,22.329,5.44,8.85,7.658
1788,0.78,36.689,17.734,34.686,22.332,5.359,8.849,7.698
1789,0.774,36.786,17.75,34.647,22.332,5.399,8.93,7.658
1790,0.771,36.874,17.769,34.637,22.325,5.318,8.768,7.617
1791,0.77,36.529,17.645,34.676,22.325,5.358,8.807,7.617
1792,0.761,36.689,17.671,34.638,22.322,5.317,8.848,7.495
1793,0.777,36.815,17.706,34.657,22.329,5.48,8.889,7.697
1794,0.787,36.903,17.749,34.666,22.332,5.481,8.93,7.618
1795,0.816,36.597,17.746,34.695,22.339,5.562,9.053,7.657
1796,0.787,36.68,17.66,34.657,22.325,5.401,9.013,7.576
1797,0.793,36.805,17.628,34.666,22.325,5.44,9.054,7.535
1798,0.79,36.874,17.604,34.657,22.325,5.562,9.257,7.616
1799,0.8,36.654,17.674,34.666,22.332,5.604,9.259,7.535
1800,0.787,36.796,17.683,34.666,22.325,5.523,9.341,7.575
1801,0.784,36.902,17.726,34.676,22.325,5.563,9.342,7.494
1802,0.79,36.942,17.738,34.676,22.339,5.685,9.586,7.656
1803,0.78,36.559,17.625,34.657,22.319,5.524,9.425,7.414
1804,0.78,36.708,17.655,34.638,22.325,5.563,9.464,7.493
1805,0.764,36.777,17.655,34.628,22.322,5.523,9.424,7.412
1806,0.793,36.845,17.721,34.685,22.336,5.603,9.464,7.533
1807,0.787,36.596,17.734,34.667,22.329,5.604,9.546,7.412
1808,0.777,36.757,17.757,34.676,22.332,5.564,9.588,7.411
1809,0.784,36.854,17.765,34.647,22.329,5.645,9.588,7.411
1810,0.784,36.721,17.75,34.637,22.322,5.564,9.385,7.249
1811,0.777,36.537,17.672,34.657,22.329,5.563,9.423,7.288
1812,0.78,36.66,17.683,34.647,22.318,5.563,9.342,7.125
1813,0.797,36.805,17.706,34.666,22.336,5.563,9.545,7.368
1814,0.79,36.596,17.73,34.666,22.332,5.645,9.466,7.37
1815,0.813,36.699,17.726,34.676,22.332,5.645,9.424,7.37
1816,0.79,36.786,17.664,34.667,22.325,5.645,9.424,7.452
1817,0.79,36.902,17.62,34.638,22.325,5.605,9.261,7.371
1818,0.787,36.472,17.608,34.657,22.325,5.686,9.259,7.533
1819,0.787,36.592,17.658,34.657,22.322,5.605,9.219,7.534
1820,0.797,36.718,17.682,34.695,22.332,5.726,9.381,7.779
1821,0.787,36.787,17.714,34.667,22.332,5.646,9.301,7.822
1822,0.79,36.5,17.745,34.686,22.332,5.686,9.341,7.985
1823,0.774,36.612,17.64,34.657,22.318,5.564,9.301,8.068
1824,0.774,36.738,17.667,34.638,22.325,5.685,9.341,8.15
1825,0.774,36.825,17.675,34.657,22.332,5.687,9.342,8.354
1826,0.777,36.558,17.694,34.657,22.325,5.727,9.26,8.437
1827,0.774,36.699,17.714,34.657,22.329,5.646,9.463,8.601
1828,0.764,36.815,17.765,34.647,22.329,5.727,9.302,8.684
1829,0.783,36.903,17.762,34.695,22.339,5.768,9.382,8.888
1830,0.774,36.501,17.738,34.638,22.319,5.606,9.261,8.849
1831,0.767,36.669,17.652,34.647,22.322,5.686,9.259,8.93
1832,0.774,36.786,17.667,34.657,22.325,5.646,9.259,8.972
1833,0.784,36.854,17.698,34.695,22.329,5.645,9.259,9.053
1834,0.787,36.462,17.741,34.676,22.332,5.727,9.259,9.176
1835,0.79,36.631,17.754,34.667,22.329,5.646,9.259,9.055
1836,0.793,36.738,17.73,34.695,22.339,5.727,9.3,9.257
1837,0.78,36.739,17.648,34.667,22.325,5.524,9.178,9.097
1838,0.787,36.605,17.608,34.647,22.322,5.563,9.137,9.176
1839,0.774,36.728,17.604,34.647,22.322,5.563,9.095,9.137
1840,0.787,36.873,17.635,34.676,22.329,5.604,9.136,9.136
1841,0.787,36.654,17.682,34.657,22.325,5.645,9.136,9.136
1842,0.787,36.479,17.737,34.666,22.329,5.605,9.095,9.055
1843,0.777,36.602,17.675,34.647,22.332,5.645,9.095,9.176
1844,0.777,36.699,17.675,34.637,22.322,5.564,9.014,8.933
1845,0.774,36.499,17.667,34.657,22.329,5.563,9.013,9.053
1846,0.761,36.554,17.698,34.628,22.325,5.401,9.013,8.851
1847,0.764,36.737,17.726,34.685,22.332,5.602,9.176,8.971
1848,0.774,36.816,17.746,34.657,22.332,5.604,9.259,8.931
1849,0.78,36.49,17.746,34.676,22.332,5.604,9.3,8.931
1850,0.767,36.593,17.75,34.647,22.325,5.523,9.301,8.85
1851,0.77,36.718,17.668,34.657,22.318,5.522,9.301,8.808
1852,0.774,36.825,17.667,34.666,22.332,5.563,9.382,8.767
1853,0.79,36.395,17.69,34.638,22.325,5.523,9.261,8.645
1854,0.793,36.553,17.753,34.666,22.336,5.603,9.381,8.847
1855,0.784,36.67,17.765,34.666,22.336,5.645,9.382,8.727
1856,0.797,36.777,17.723,34.695,22.339,5.645,9.423,8.685
1857,0.787,36.5,17.671,34.648,22.329,5.605,9.342,8.644
1858,0.78,36.641,17.601,34.647,22.318,5.564,9.342,8.603
1859,0.79,36.786,17.635,34.657,22.322,5.685,9.301,8.562
1860,0.78,36.826,17.67,34.666,22.318,5.564,9.097,8.399
1861,0.78,36.375,17.69,34.686,22.332,5.766,9.217,8.519
1862,0.774,36.505,17.722,34.676,22.325,5.687,9.096,8.439
1863,0.784,36.65,17.718,34.695,22.336,5.727,9.136,8.519
1864,0.774,36.652,17.683,34.648,22.329,5.646,9.014,8.439
1865,0.761,36.402,17.671,34.637,22.329,5.645,9.013,8.275
1866,0.764,36.534,17.706,34.657,22.325,5.564,8.932,8.355
1867,0.764,36.651,17.73,34.647,22.318,5.645,8.85,8.234
1868,0.767,36.69,17.761,34.666,22.332,5.727,8.93,8.314
1869,0.764,36.393,17.746,34.666,22.329,5.646,8.972,8.274
1870,0.78,36.572,17.765,34.695,22.343,5.849,9.053,8.274
1871,0.774,36.651,17.668,34.648,22.325,5.648,8.973,8.193
1872,0.767,36.498,17.667,34.647,22.329,5.686,9.094,8.07
1873,0.777,36.41,17.706,34.657,22.325,5.768,9.176,8.109
1874,0.787,36.573,17.741,34.666,22.325,5.728,9.299,8.069
1875,0.797,36.67,17.746,34.647,22.336,5.85,9.463,8.109
1876,0.8,36.479,17.707,34.657,22.332,5.769,9.424,8.069
1877,0.81,36.583,17.659,34.685,22.336,5.972,9.708,8.15
1878,0.784,36.689,17.616,34.647,22.325,5.771,9.508,7.907
1879,0.787,36.796,17.608,34.657,22.329,5.768,9.546,7.863
1880,0.777,36.25,17.651,34.647,22.318,5.809,9.506,7.904
1881,0.787,36.398,17.698,34.666,22.332,5.972,9.546,7.904
1882,0.79,36.525,17.718,34.686,22.336,5.974,9.628,7.823
1883,0.797,36.603,17.648,34.657,22.329,5.974,9.548,7.863
1884,0.79,36.335,17.671,34.666,22.329,5.974,9.547,7.822
1885,0.787,36.438,17.675,34.628,22.325,5.893,9.425,7.659
1886,0.797,36.582,17.702,34.647,22.329,5.892,9.424,7.698
1887,0.784,36.651,17.71,34.628,22.322,5.811,9.342,7.577
1888,0.784,36.268,17.722,34.695,22.332,5.972,9.464,7.779
1889,0.777,36.399,17.746,34.667,22.339,6.055,9.465,7.618
1890,0.771,36.553,17.75,34.676,22.339,6.015,9.465,7.698
1891,0.764,36.555,17.683,34.647,22.329,5.934,9.302,7.618
1892,0.77,36.382,17.667,34.647,22.322,5.933,9.341,7.617
1893,0.78,36.534,17.714,34.647,22.336,5.974,9.464,7.617
1894,0.79,36.641,17.745,34.676,22.322,5.933,9.383,7.576
1895,0.81,36.69,17.718,34.657,22.339,6.055,9.464,7.657
1896,0.813,36.278,17.663,34.657,22.329,5.975,9.587,7.617
1897,0.823,36.447,17.616,34.705,22.346,6.137,9.507,7.657
1898,0.804,36.515,17.639,34.648,22.322,5.935,9.384,7.536
1899,0.807,36.545,17.651,34.676,22.322,5.974,9.301,7.494
1900,0.81,36.363,17.675,34.667,22.325,6.015,9.382,7.575
1901,0.81,36.505,17.714,34.686,22.329,6.015,9.301,7.535
1902,0.8,36.612,17.714,34.647,22.332,6.056,9.341,7.575
1903,0.797,36.383,17.566,34.676,22.325,6.015,9.26,7.535
1904,0.816,36.352,17.67,34.686,22.339,6.178,9.381,7.657
1905,0.8,36.438,17.667,34.638,22.325,5.976,9.139,7.414
1906,0.807,36.563,17.722,34.637,22.322,5.974,9.014,7.411
1907,0.79,36.229,17.71,34.637,22.322,5.893,9.013,7.371
1908,0.803,36.369,17.757,34.666,22.332,6.054,9.094,7.452
1909,0.803,36.496,17.777,34.676,22.318,6.056,9.014,7.412
1910,0.794,36.593,17.73,34.657,22.329,5.975,9.013,7.371
1911,0.79,36.22,17.691,34.676,22.336,6.015,8.972,7.452
1912,0.784,36.34,17.671,34.667,22.322,5.974,8.85,7.33
1913,0.8,36.486,17.722,34.647,22.325,5.933,8.849,7.329
1914,0.81,36.535,17.718,34.637,22.315,5.892,8.767,7.329
1915,0.826,36.2,17.699,34.676,22.329,6.014,8.929,7.37
1916,0.836,36.379,17.644,34.676,22.325,6.015,8.931,7.37
1917,0.859,36.553,17.667,34.705,22.332,6.015,8.85,7.37
1918,0.843,36.555,17.647,34.667,22.329,5.974,8.808,7.289
1919,0.826,36.152,17.655,34.657,22.325,5.893,8.726,7.207
1920,0.839,36.311,17.682,34.666,22.325,5.892,8.766,7.287
1921,0.82,36.437,17.722,34.647,22.318,5.892,8.685,7.207
1922,0.82,36.506,17.664,34.676,22.325,5.973,8.807,7.328
1923,0.817,36.18,17.702,34.667,22.332,5.893,8.726,7.207
1924,0.813,36.35,17.706,34.676,22.343,5.973,8.766,7.206
1925,0.794,36.438,17.706,34.667,22.329,5.771,8.726,7.206
1926,0.8,36.458,17.761,34.666,22.325,5.85,8.603,7.084
1927,0.794,36.132,17.75,34.647,22.325,5.851,8.724,7.164
1928,0.797,36.263,17.757,34.666,22.322,5.851,8.603,7.124
1929,0.807,36.408,17.734,34.676,22.329,5.932,8.684,7.287
1930,0.813,36.601,17.671,34.667,22.325,5.811,8.644,7.329
1931,0.826,36.306,17.655,34.695,22.346,6.054,8.684,7.37
1932,0.826,36.389,17.667,34.638,22.326,5.853,8.522,7.33
1933,0.843,36.496,17.733,34.647,22.325,5.851,8.601,7.329
1934,0.836,36.247,17.718,34.666,22.329,5.851,8.643,7.451
1935,0.865,36.235,17.667,34.686,22.332,5.932,8.603,7.534
1936,0.869,36.379,17.69,34.753,22.329,5.892,8.602,7.697
1937,0.853,36.467,17.679,34.677,22.325,5.851,8.521,7.821
1938,0.862,36.122,17.675,34.695,22.339,5.973,8.683,8.025
1939,0.84,36.177,17.655,34.657,22.322,5.811,8.44,7.946
1940,0.846,36.321,17.675,34.647,22.325,5.769,8.438,8.067
1941,0.836,36.39,17.749,34.637,22.325,5.768,8.438,8.231
1942,0.839,36.016,17.636,34.685,22.332,5.85,8.519,8.273
1943,0.833,36.156,17.686,34.667,22.332,5.81,8.439,8.314
1944,0.833,36.292,17.675,34.666,22.325,5.85,8.397,8.396
1945,0.807,36.37,17.729,34.676,22.336,5.891,8.438,8.438
1946,0.797,36.169,17.742,34.647,22.322,5.811,8.275,8.316
1947,0.787,36.321,17.754,34.666,22.325,5.81,8.274,8.477
1948,0.764,36.428,17.73,34.647,22.322,5.728,8.193,8.398
1949,0.777,36.534,17.71,34.676,22.329,5.89,8.354,8.519
1950,0.771,36.104,17.64,34.686,22.325,5.851,8.315,8.479
1951,0.787,36.282,17.651,34.676,22.332,5.81,8.274,8.479
1952,0.774,36.37,17.69,34.657,22.325,5.85,8.314,8.479
1953,0.758,36.419,17.706,34.647,22.325,5.729,8.315,8.357
1954,0.783,36.132,17.671,34.676,22.325,5.768,8.396,8.478
1955,0.784,36.253,17.671,34.724,22.311,5.647,8.234,8.398
1956,0.803,36.389,17.69,34.686,22.332,5.971,8.355,8.6
1957,0.8,36.429,17.698,34.667,22.332,5.852,8.356,8.602
1958,0.813,36.17,17.718,34.695,22.332,5.81,8.356,8.643
1959,0.794,36.263,17.691,34.667,22.325,5.769,8.315,8.725
1960,0.806,36.379,17.73,34.676,22.325,5.768,8.274,8.644
1961,0.81,36.697,17.734,34.676,22.329,5.687,8.314,8.725
1962,0.81,36.086,17.703,34.734,22.318,5.687,8.193,8.685
1963,0.816,36.234,17.683,34.686,22.332,5.809,8.354,8.847
1964,0.826,36.341,17.706,34.676,22.325,5.769,8.315,8.889
1965,0.82,36.198,17.738,34.686,22.332,5.891,8.315,8.93
1966,0.797,36.177,17.73,34.667,22.325,5.77,8.274,8.931
1967,0.79,36.34,17.687,34.666,22.325,5.809,8.233,9.012
1968,0.797,36.447,17.659,34.676,22.318,5.81,8.273,9.013
1969,0.794,36.055,17.64,34.676,22.329,5.769,8.193,8.972
1970,0.797,36.176,17.659,34.676,22.332,5.85,8.232,9.053
1971,0.794,36.321,17.671,34.676,22.325,5.81,8.233,9.013
1972,0.793,36.437,17.749,34.705,22.343,5.85,8.273,9.094
1973,0.784,36.093,17.703,34.657,22.319,5.81,8.152,9.014
1974,0.787,36.253,17.659,34.685,22.325,5.769,8.11,9.013
1975,0.787,36.379,17.671,34.667,22.332,5.728,8.069,8.932
1976,0.8,36.457,17.675,34.676,22.325,5.809,8.069,9.012
1977,0.79,36.017,17.698,34.695,22.332,5.85,8.15,8.972
1978,0.79,36.137,17.73,34.676,22.325,5.81,8.069,8.891
1979,0.767,36.292,17.769,34.705,22.332,5.972,8.109,8.971
1980,0.751,36.322,17.758,34.676,22.325,5.771,7.825,8.809
1981,0.757,35.968,17.676,34.676,22.329,5.768,7.944,8.808
1982,0.744,36.098,17.675,34.647,22.318,5.687,7.864,8.808
1983,0.76,36.243,17.675,34.685,22.332,5.809,7.904,8.889
1984,0.751,36.302,17.741,34.686,22.332,5.81,7.904,8.809
1985,0.748,36.025,17.75,34.686,22.325,5.769,7.945,8.808
1986,0.751,36.176,17.695,34.676,22.325,5.85,7.905,8.808
1987,0.738,36.292,17.648,34.686,22.318,5.729,7.823,8.726
1988,0.747,36.322,17.596,34.686,22.325,5.768,7.781,8.726
1989,0.747,36.179,17.592,34.676,22.315,5.687,7.7,8.644
1990,0.757,36.359,17.682,34.695,22.329,5.809,7.943,8.725
1991,0.757,36.457,17.698,34.686,22.329,5.81,7.864,8.726
1992,0.767,36.611,17.769,34.695,22.339,5.85,7.904,8.644
1993,0.761,35.99,17.66,34.667,22.322,5.688,7.742,8.603
1994,0.767,36.146,17.682,34.676,22.325,5.768,7.862,8.562
1995,0.757,36.254,17.675,34.695,22.329,5.728,7.822,8.561
1996,0.783,36.101,17.706,34.705,22.329,5.768,7.863,8.48
1997,0.787,36.176,17.73,34.715,22.336,5.809,7.782,8.52
1998,0.78,36.302,17.738,34.676,22.325,5.728,7.862,8.479
1999,0.784,36.399,17.777,34.714,22.343,5.89,7.985,8.438
2000,0.767,35.959,17.746,34.676,22.322,5.648,7.742,8.275
2001,0.767,36.089,17.683,34.686,22.325,5.645,7.821,8.274
2002,0.764,36.224,17.667,34.676,22.318,5.686,7.863,8.193
2003,0.77,36.341,17.698,34.695,22.325,5.727,7.904,8.232
2004,0.764,35.929,17.734,34.686,22.329,5.727,7.945,8.111
2005,0.767,36.069,17.718,34.686,22.322,5.687,7.945,8.15
2006,0.774,36.205,17.66,34.695,22.336,5.849,8.026,8.191
2007,0.774,36.273,17.636,34.686,22.315,5.566,7.865,8.029
2008,0.761,36.015,17.616,34.686,22.325,5.726,7.944,7.987
2009,0.757,36.128,17.655,34.686,22.311,5.605,7.864,7.946
2010,0.774,36.32,17.686,34.695,22.325,5.726,8.107,7.986
2011,0.78,36.38,17.698,34.695,22.332,5.727,8.15,7.946
2012,0.79,35.978,17.73,34.676,22.336,5.727,8.11,7.905
2013,0.78,36.118,17.64,34.695,22.329,5.768,8.272,7.904
2014,0.784,36.244,17.682,34.676,22.318,5.728,8.193,7.782
2015,0.793,36.302,17.687,34.686,22.329,5.687,8.354,7.781
2016,0.777,35.977,17.718,34.657,22.318,5.646,8.397,7.659
2017,0.787,36.137,17.734,34.695,22.325,5.808,8.682,7.78
2018,0.787,36.244,17.753,34.686,22.322,5.728,8.766,7.7
2019,0.8,36.322,17.734,34.695,22.329,5.809,8.807,7.699
2020,0.784,36.025,17.711,34.686,22.325,5.728,8.93,7.658
2021,0.784,36.185,17.695,34.743,22.325,5.687,8.931,7.576
2022,0.777,36.302,17.667,34.686,22.325,5.768,9.093,7.494
2023,0.777,36.332,17.702,34.686,22.322,5.768,9.136,7.494
2024,0.787,35.996,17.73,34.695,22.329,5.809,9.258,7.616
2025,0.784,36.118,17.675,34.686,22.329,5.85,9.381,7.495
2026,0.777,36.282,17.651,34.724,22.339,6.013,9.464,7.575
2027,0.764,36.015,17.659,34.677,22.322,5.771,9.343,7.413
2028,0.77,36.06,17.675,34.743,22.325,5.891,9.382,7.411
2029,0.774,36.176,17.667,34.667,22.329,5.892,9.382,7.371
2030,0.78,36.302,17.683,34.686,22.325,5.933,9.464,7.37
2031,0.787,35.977,17.737,34.676,22.339,5.974,9.465,7.411
2032,0.793,36.089,17.711,34.686,22.325,5.974,9.424,7.289
2033,0.803,36.253,17.679,34.743,22.343,6.055,9.586,7.491
2034,0.794,36.322,17.659,34.667,22.325,5.934,9.344,7.331
2035,0.8,35.872,17.686,34.666,22.325,5.933,9.342,7.289
2036,0.784,35.982,17.702,34.657,22.315,5.974,9.301,7.288
2037,0.8,36.137,17.749,34.685,22.329,6.055,9.341,7.329
2038,0.8,36.215,17.765,34.695,22.325,6.015,9.301,7.289
2039,0.803,35.995,17.762,34.676,22.329,6.015,9.219,7.207
2040,0.794,36.147,17.719,34.686,22.336,6.096,9.259,7.328
2041,0.787,36.273,17.667,34.657,22.322,5.975,9.097,7.167
2042,0.793,36.341,17.683,34.666,22.322,5.974,9.014,7.246
2043,0.797,35.814,17.694,34.657,22.318,5.811,8.891,7.206
2044,0.813,35.991,17.698,34.676,22.325,6.094,9.093,7.287
2045,0.816,36.099,17.64,34.667,22.329,6.056,9.014,7.288
2046,0.842,36.186,17.682,34.686,22.329,6.015,8.932,7.247
2047,0.839,36.072,17.655,34.667,22.329,6.056,8.931,7.491
2048,0.856,36.195,17.675,34.657,22.325,6.015,8.85,7.412
2049,0.859,36.331,17.698,34.676,22.325,6.096,8.849,7.615
2050,0.862,36.361,17.691,34.657,22.325,5.975,8.646,7.657
2051,0.888,35.882,17.753,34.676,22.332,6.177,8.847,8.024
2052,0.899,36.011,17.676,34.686,22.332,6.179,8.808,8.149
2053,0.938,36.166,17.698,34.686,22.329,6.22,8.808,8.191
2054,0.941,36.148,17.687,34.676,22.325,6.22,8.848,8.314
2055,0.967,36.033,17.722,34.667,22.318,6.22,8.727,8.356
2056,0.987,36.204,17.742,34.676,22.325,6.261,8.726,8.519
2057,0.991,36.283,17.761,34.657,22.322,6.18,8.644,8.479
2058,1.02,35.938,17.738,34.676,22.332,6.342,8.765,8.642
2059,1.072,35.993,17.718,34.676,22.332,6.343,8.767,8.644
2060,1.109,36.166,17.656,34.686,22.332,6.384,8.807,8.684
2061,1.145,36.215,17.655,34.667,22.325,6.303,8.726,8.807
2062,1.184,35.938,17.655,34.647,22.325,6.343,8.848,8.686
2063,1.21,36.079,17.706,34.676,22.322,6.343,8.849,8.807
2064,1.227,36.195,17.667,34.647,22.329,6.343,8.849,8.686
2065,1.234,36.312,17.604,34.695,22.329,6.425,9.011,8.969
2066,1.24,35.862,17.651,34.667,22.329,6.385,8.932,8.931
2067,1.234,36.049,17.671,34.695,22.336,6.466,9.053,9.012
2068,1.208,36.109,17.663,34.676,22.325,6.386,9.013,9.094
2069,1.175,36.196,17.667,34.647,22.325,6.303,8.932,9.095
2070,1.123,35.89,17.714,34.657,22.325,6.384,8.972,9.298
2071,1.132,36.011,17.753,34.647,22.325,6.222,8.891,9.341
2072,1.174,36.156,17.652,34.676,22.332,6.383,9.012,9.504
2073,1.171,36.244,17.659,34.667,22.325,6.385,8.932,9.546
2074,1.207,35.996,17.714,34.714,22.343,6.425,9.012,9.71
2075,1.253,36.099,17.734,34.657,22.325,6.263,8.688,9.63
2076,1.305,36.215,17.765,34.676,22.325,6.343,8.807,9.629
2077,1.3,36.254,17.715,34.657,22.329,6.303,8.726,9.751
2078,1.325,35.9,17.695,34.666,22.332,6.302,8.726,9.752
2079,1.303,36.04,17.675,34.676,22.329,6.302,8.766,9.833
2080,1.27,36.147,17.608,34.676,22.332,6.302,8.685,9.916
2081,1.257,36.206,17.662,34.695,22.332,6.384,8.725,10.201
2082,1.221,35.957,17.702,34.657,22.325,6.222,8.522,10.123
2083,1.156,36.098,17.734,34.676,22.325,6.261,8.601,10.366
2084,1.077,36.196,17.64,34.638,22.315,6.139,8.44,10.49
2085,1.021,36.149,17.678,34.666,22.332,6.26,8.56,10.776
2086,0.942,35.966,17.679,34.666,22.329,6.262,8.48,11.023
2087,0.854,36.089,17.687,34.657,22.322,6.221,8.438,11.31
2088,0.771,36.215,17.706,34.657,22.336,6.22,8.438,11.597
2089,0.689,35.89,17.702,34.666,22.315,6.139,8.275,11.803
2090,0.643,35.954,17.749,34.676,22.329,6.138,8.274,12.09
2091,0.62,36.098,17.707,34.657,22.315,6.057,8.193,12.296
2092,0.606,36.215,17.683,34.657,22.336,6.219,8.354,12.746
2093,0.59,35.919,17.683,34.666,22.325,6.18,8.275,12.831
2094,0.609,36.088,17.737,34.676,22.332,6.22,8.274,13.117
2095,0.603,36.176,17.746,34.657,22.325,6.18,8.193,13.16
2096,0.626,36.263,17.738,34.657,22.329,6.057,8.07,13.161
2097,0.642,35.794,17.675,34.666,22.329,6.137,8.109,13.283
2098,0.681,35.934,17.659,34.676,22.332,6.057,8.109,13.203
2099,0.711,36.079,17.608,34.657,22.325,6.137,8.191,13.405
2100,0.731,36.147,17.655,34.666,22.325,6.057,8.151,13.407
2101,0.741,36.014,17.678,34.714,22.339,6.219,8.273,13.651
2102,0.751,36.099,17.729,34.638,22.319,5.936,7.949,13.491
2103,0.803,36.243,17.679,34.676,22.329,6.014,8.026,13.571
2104,0.829,36.283,17.659,34.638,22.322,6.056,7.946,13.653
2105,0.859,35.958,17.667,34.657,22.332,6.097,7.945,13.776
2106,0.866,36.098,17.698,34.657,22.332,6.056,8.026,13.818
2107,0.853,36.215,17.71,34.666,22.325,6.056,7.987,13.818
2108,0.853,36.254,17.745,34.686,22.329,6.178,7.986,13.859
2109,0.846,35.785,17.75,34.647,22.325,5.895,7.824,13.737
2110,0.859,35.943,17.73,34.666,22.325,6.014,7.944,13.695
2111,0.853,36.069,17.648,34.638,22.325,5.974,7.701,13.573
2112,0.859,36.128,17.682,34.676,22.329,6.055,7.943,13.734
2113,0.859,36.004,17.73,34.647,22.332,6.015,7.864,13.736
2114,0.862,36.147,17.761,34.685,22.336,6.015,7.863,13.614
2115,0.853,36.215,17.722,34.657,22.325,5.974,7.782,13.45
2116,0.856,36.13,17.64,34.647,22.322,5.893,7.781,13.326
2117,0.866,36.052,17.596,34.676,22.329,5.973,7.781,13.284
2118,0.853,36.176,17.627,34.667,22.325,5.893,7.74,12.999
2119,0.849,36.292,17.659,34.695,22.332,5.973,7.781,13.078
2120,0.846,35.824,17.651,34.657,22.329,5.893,7.822,12.794
2121,0.862,35.915,17.721,34.705,22.343,6.054,7.944,12.791
2122,0.843,36.011,17.699,34.638,22.325,5.812,7.783,12.466
2123,0.836,36.118,17.675,34.676,22.329,5.85,7.781,12.341
2124,0.82,35.688,17.636,34.647,22.325,5.81,7.944,12.136
2125,0.852,35.846,17.67,34.666,22.329,5.85,7.945,12.012
2126,0.843,35.972,17.694,34.676,22.329,5.891,7.986,11.889
2127,0.826,36.06,17.718,34.657,22.329,5.851,7.946,11.725
2128,0.83,35.879,17.773,34.685,22.339,5.891,8.067,11.601
2129,0.826,35.982,17.758,34.667,22.319,5.729,7.946,11.316
2130,0.83,36.118,17.738,34.676,22.325,5.809,7.945,11.313
2131,0.826,36.186,17.699,34.638,22.315,5.728,7.945,11.11
2132,0.846,35.784,17.691,34.676,22.332,5.89,8.026,11.067
2133,0.843,35.914,17.73,34.667,22.325,5.851,8.109,10.863
