time,ecg,bvp,gsr,rsp,skt,emg_zygo,emg_coru,emg_trap
0,0.895,35.973,28.056,34.996,22.399,6.795,8.521,22.736
1,0.892,35.648,28.091,35.015,22.406,6.795,8.52,22.16
2,0.899,35.779,28.083,35.015,22.392,6.795,8.398,21.545
3,0.912,35.914,28.146,35.034,22.409,6.836,8.519,21.254
4,0.918,36.011,28.166,35.015,22.403,6.837,8.439,20.804
5,0.905,35.581,28.158,35.005,22.402,6.837,8.519,20.434
6,0.905,35.73,28.17,35.015,22.402,6.714,8.358,20.349
7,0.895,35.866,28.162,35.024,22.406,6.713,8.478,20.429
8,0.895,35.896,28.084,34.986,22.399,6.632,8.357,20.389
9,0.902,35.628,28.095,35.005,22.395,6.631,8.315,20.389
10,0.892,35.778,28.083,35.005,22.402,6.631,8.274,20.511
11,0.892,35.895,28.138,34.996,22.396,6.55,8.233,20.349
12,0.908,35.963,28.185,35.024,22.406,6.671,8.273,20.47
13,0.899,35.628,28.178,35.025,22.406,6.672,8.314,20.39
14,0.895,35.778,28.147,35.015,22.409,6.591,8.274,20.267
15,0.886,35.933,28.138,35.015,22.399,6.631,8.233,20.144
16,0.898,35.954,28.142,35.034,22.416,6.712,8.314,20.102
17,0.902,35.667,28.064,34.986,22.389,6.51,8.112,19.735
18,0.899,35.827,28.091,35.005,22.395,6.467,8.109,19.488
19,0.895,35.924,28.099,34.976,22.402,6.548,8.15,19.282
20,0.899,35.829,28.146,34.976,22.396,6.386,8.11,19.036
21,0.905,35.733,28.177,35.024,22.402,6.466,8.109,18.993
22,0.918,35.885,28.143,35.015,22.409,6.507,8.191,19.115
23,0.912,35.963,28.08,34.996,22.403,6.508,8.11,19.4
24,0.925,35.58,28.048,35.015,22.399,6.467,8.028,19.647
25,0.941,35.692,28.044,35.024,22.409,6.629,8.19,20.097
26,0.909,35.798,28.009,34.986,22.396,6.387,7.988,20.264
27,0.908,35.895,28.043,34.995,22.402,6.385,7.946,20.632
28,0.921,35.561,28.079,34.986,22.399,6.344,8.026,21.245
29,0.905,35.653,28.107,34.976,22.395,6.303,8.068,22.146
30,0.921,35.817,28.122,34.995,22.406,6.343,7.946,23.049
31,0.909,35.905,28.048,35.015,22.406,6.425,8.108,23.871
32,0.912,35.561,28.075,35.005,22.409,6.426,8.069,24.408
33,0.902,35.701,28.099,35.005,22.403,6.344,8.028,24.779
34,0.912,35.856,28.115,35.044,22.416,6.506,8.19,25.271
35,0.889,35.925,28.126,34.986,22.399,6.305,8.029,25.276
36,0.905,35.657,28.138,35.005,22.406,6.18,7.987,25.195
37,0.908,35.827,28.162,34.986,22.409,6.22,7.986,25.194
38,0.892,35.915,28.178,34.957,22.403,6.22,7.946,25.031
39,0.915,36.011,28.139,34.986,22.402,6.261,7.945,24.704
40,0.931,35.591,28.131,35.005,22.402,6.302,8.026,24.66
41,0.922,35.721,28.103,35.005,22.406,6.302,7.946,24.457
42,0.918,35.856,28.118,35.015,22.406,6.221,7.945,24.292
43,0.941,35.925,28.142,35.044,22.42,6.383,8.026,24.29
44,0.935,35.628,28.162,34.977,22.406,6.141,7.824,24.86
45,0.938,35.788,28.162,34.995,22.396,6.098,7.741,26.044
46,0.932,35.905,28.189,34.986,22.406,6.097,7.821,27.479
47,0.925,35.915,28.17,34.986,22.399,6.097,7.822,28.754
48,0.935,35.695,28.127,34.986,22.402,6.097,7.7,29.62
49,0.928,35.875,28.099,35.005,22.409,6.178,7.861,30.361
50,0.928,35.954,28.099,34.986,22.413,6.179,7.822,30.653
51,0.925,35.743,28.138,34.976,22.406,6.139,7.7,30.737
52,0.941,35.607,28.173,35.015,22.416,6.219,7.861,30.575
53,0.919,35.721,28.15,34.977,22.403,6.058,7.66,30.167
54,0.915,35.818,28.111,34.967,22.396,6.137,7.617,29.634
55,0.909,35.646,28.119,34.986,22.406,6.057,7.617,29.263
56,0.908,35.712,28.103,34.986,22.402,6.097,7.576,28.487
57,0.921,35.875,28.072,34.986,22.399,6.056,7.535,27.788
58,0.925,35.973,28.095,34.995,22.409,6.178,7.657,27.293
59,0.912,35.581,28.095,34.996,22.409,6.22,7.617,26.719
60,0.928,35.711,28.134,34.996,22.403,6.139,7.617,26.063
61,0.931,35.856,28.17,35.024,22.416,6.301,7.698,25.65
62,0.922,35.915,28.123,34.967,22.396,6.099,7.536,24.873
63,0.938,35.705,28.068,34.986,22.399,6.138,7.494,24.255
64,0.935,35.866,28.052,34.986,22.402,6.138,7.534,23.761
65,0.918,35.953,28.028,34.986,22.396,6.179,7.534,23.146
66,0.941,36.069,28.079,35.043,22.406,6.22,7.534,22.49
67,0.945,35.591,28.095,34.986,22.409,6.18,7.697,21.995
68,0.941,35.73,28.142,34.995,22.403,6.22,7.74,21.462
69,0.935,35.847,28.17,34.976,22.406,6.22,7.862,20.847
70,0.951,35.934,28.111,35.015,22.42,6.342,8.026,20.393
71,0.932,35.743,28.091,35.015,22.399,6.221,7.946,19.698
72,0.938,35.875,28.06,34.967,22.402,6.22,8.026,19.121
73,0.922,36.011,28.091,34.966,22.406,6.261,8.027,18.791
74,0.928,36.032,28.099,34.976,22.399,6.302,8.149,18.462
75,0.925,35.639,28.126,34.976,22.409,6.343,8.191,18.052
76,0.938,35.788,28.15,34.986,22.413,6.384,8.314,17.845
77,0.935,35.895,28.142,34.976,22.406,6.425,8.315,17.477
78,0.931,35.935,28.205,34.976,22.406,6.385,8.437,17.229
79,0.938,35.801,28.116,35.015,22.416,6.507,8.519,16.983
80,0.932,35.895,28.107,34.957,22.403,6.427,8.398,16.655
81,0.931,36.021,28.111,34.957,22.406,6.304,8.275,16.326
82,0.938,35.859,28.146,34.976,22.409,6.384,8.396,16.079
83,0.932,35.723,28.154,34.976,22.403,6.263,8.397,15.752
84,0.944,35.894,28.17,34.967,22.406,6.424,8.234,15.382
85,0.951,35.992,28.166,34.976,22.409,6.426,8.355,15.216
86,0.948,35.792,28.17,34.967,22.406,6.344,8.275,14.93
87,0.945,35.866,28.143,34.966,22.402,6.343,8.314,14.683
88,0.961,36.04,28.084,35.005,22.423,6.466,8.437,14.68
89,0.938,36.099,28.107,34.957,22.396,6.304,8.275,14.558
90,0.935,35.726,28.119,34.947,22.402,6.221,8.193,14.435
91,0.938,35.866,28.177,34.966,22.402,6.302,8.151,14.556
92,0.919,35.953,28.147,34.957,22.399,6.221,8.11,14.801
93,0.925,36.069,28.138,34.966,22.402,6.302,8.109,15.535
94,0.931,35.706,28.076,34.976,22.409,6.302,8.191,16.844
95,0.928,35.875,28.044,34.967,22.406,6.262,8.07,17.996
96,0.938,36.011,28.048,34.957,22.406,6.262,8.028,19.348
97,0.919,36.07,28.091,34.986,22.416,6.302,8.231,20.419
98,0.922,35.888,28.087,34.928,22.396,6.14,7.989,21.121
99,0.935,36.011,28.122,34.966,22.402,6.179,7.986,21.657
100,0.948,36.166,28.173,34.966,22.399,6.179,7.946,22.068
101,0.925,36.206,28.092,34.938,22.399,6.139,7.945,22.317
102,0.931,35.986,28.048,34.976,22.409,6.179,7.945,22.482
103,0.948,36.146,28.095,35.024,22.416,6.22,8.026,22.443
104,0.954,36.254,28.103,34.977,22.403,6.18,8.027,22.198
105,0.948,36.274,28.118,34.957,22.406,6.22,8.027,21.911
106,0.948,36.169,28.13,34.995,22.42,6.22,8.149,21.746
107,0.932,36.263,28.119,34.957,22.399,6.017,8.028,21.256
108,0.938,36.389,28.154,34.957,22.399,6.015,7.946,21.007
109,0.932,36.4,28.17,34.957,22.406,6.056,8.026,20.924
110,0.931,36.141,28.092,34.947,22.402,6.097,7.946,20.841
111,0.941,36.301,28.114,34.966,22.406,6.097,7.986,20.637
112,0.928,36.399,28.119,34.957,22.409,6.138,8.027,20.757
113,0.938,36.237,28.126,34.957,22.403,6.138,8.027,20.799
114,0.932,36.187,28.146,34.957,22.413,6.057,8.109,21.003
115,0.931,36.369,28.189,34.995,22.416,6.097,8.069,21.086
116,0.912,36.4,28.162,34.957,22.41,6.056,8.109,21.168
117,0.912,36.179,28.17,34.928,22.396,5.934,7.947,21.047
118,0.918,36.292,28.158,34.966,22.402,5.933,8.026,21.046
119,0.912,36.428,28.049,34.957,22.402,5.974,7.987,20.924
120,0.918,36.544,28.079,34.938,22.399,5.893,7.946,20.638
121,0.915,36.181,28.118,34.957,22.416,5.973,8.108,20.554
122,0.922,36.302,28.154,34.966,22.413,5.974,8.069,20.309
123,0.931,36.428,28.154,34.976,22.409,5.974,8.028,19.941
124,0.944,36.544,28.189,34.986,22.416,6.137,8.068,19.652
125,0.938,36.258,28.17,34.948,22.406,5.935,8.069,19.365
126,0.919,36.379,28.174,34.947,22.402,5.974,7.946,18.956
127,0.918,36.515,28.154,34.928,22.399,5.974,7.864,18.626
128,0.922,36.593,28.014,34.976,22.402,5.974,7.944,18.338
129,0.912,36.258,28.121,34.938,22.389,5.893,7.783,17.969
130,0.915,36.418,28.15,34.976,22.406,6.054,7.903,18.047
131,0.909,36.515,28.178,34.957,22.409,6.015,7.945,18.129
132,0.925,36.583,28.158,34.938,22.409,5.974,7.905,18.374
133,0.915,36.45,28.115,34.947,22.406,5.974,7.904,18.499
134,0.902,36.554,28.06,34.966,22.409,6.015,7.945,18.784
135,0.886,36.651,28.028,34.947,22.406,5.934,7.701,18.746
136,0.895,36.709,28.032,34.966,22.409,5.933,7.74,18.827
137,0.905,36.393,28.094,34.986,22.406,5.974,7.74,18.991
138,0.895,36.496,28.099,34.928,22.396,5.771,7.659,19.033
139,0.905,36.669,28.157,34.947,22.409,5.972,7.739,19.115
140,0.905,36.652,28.17,34.957,22.409,5.974,7.862,19.156
141,0.895,36.546,28.107,34.938,22.399,5.933,7.7,19.035
142,0.918,36.699,28.033,34.966,22.406,5.974,7.74,18.749
143,0.918,36.806,28.11,34.966,22.413,5.974,7.821,18.705
144,0.915,36.567,28.103,34.928,22.399,5.811,7.659,18.38
145,0.925,36.536,28.111,34.947,22.399,5.85,7.658,18.377
146,0.912,36.679,28.087,34.947,22.409,5.891,7.78,19.19
147,0.905,36.767,28.118,34.938,22.399,5.729,7.618,20.296
148,0.908,36.471,28.154,34.966,22.413,5.972,7.739,21.648
149,0.899,36.554,28.174,34.966,22.409,5.933,7.781,22.719
150,0.895,36.689,28.1,34.957,22.413,5.852,7.7,24.112
151,0.905,36.786,28.103,34.947,22.406,5.851,7.618,26.444
152,0.892,36.548,28.134,34.966,22.416,5.932,7.779,30.451
153,0.882,36.641,28.146,34.919,22.399,5.77,7.618,34.72
154,0.876,36.786,28.146,34.947,22.409,5.85,7.576,38.584
155,0.869,36.874,28.181,34.966,22.403,5.769,7.657,41.51
156,0.856,36.481,28.162,34.928,22.399,5.687,7.617,43.612
157,0.885,36.65,28.185,34.957,22.406,5.809,7.657,45.138
158,0.869,36.786,28.19,34.976,22.416,5.728,7.698,46.129
159,0.879,36.864,28.045,34.986,22.413,5.809,7.699,46.464
160,0.879,36.558,28.13,34.967,22.406,5.728,7.699,46.223
161,0.892,36.747,28.146,35.005,22.42,5.85,7.78,45.936
162,0.869,36.816,28.166,34.938,22.403,5.648,7.659,45.201
163,0.872,36.884,28.166,34.947,22.396,5.686,7.617,44.381
164,0.872,36.539,28.158,34.947,22.402,5.727,7.657,43.6
165,0.872,36.651,28.127,34.947,22.399,5.687,7.658,42.698
166,0.879,36.786,28.15,34.985,22.406,5.646,7.658,41.469
167,0.872,36.845,28.115,34.967,22.42,5.767,7.739,40.318
168,0.866,36.529,28.087,34.995,22.41,5.728,7.699,39.087
169,0.862,36.67,28.134,34.957,22.413,5.727,7.699,37.896
170,0.875,36.815,28.166,34.976,22.42,5.85,7.821,37.315
171,0.859,36.768,28.193,34.957,22.406,5.688,7.619,37.268
172,0.856,36.567,28.143,34.947,22.399,5.687,7.657,37.715
173,0.846,36.737,28.115,34.966,22.402,5.727,7.739,38.451
174,0.83,36.816,28.068,34.957,22.406,5.768,7.781,39.15
175,0.836,36.951,28.052,34.986,22.402,5.768,7.74,39.523
176,0.836,37.01,28.024,34.976,22.409,5.809,7.903,39.689
177,0.83,37.135,28.079,35.053,22.409,5.769,7.863,39.731
178,0.833,37.242,28.107,34.977,22.403,5.809,7.863,39.691
179,0.849,36.389,28.161,34.995,22.42,5.972,7.944,39.406
180,0.833,36.4,28.146,34.948,22.403,5.771,7.823,38.956
181,0.836,36.544,28.123,34.957,22.399,5.728,7.781,38.138
182,0.833,36.66,28.052,34.966,22.406,5.768,7.862,37.317
183,0.836,36.479,28.114,34.947,22.402,5.809,7.822,36.414
184,0.839,36.631,28.123,34.966,22.406,5.81,7.822,35.226
185,0.846,36.757,28.111,34.976,22.413,5.85,7.863,34.279
186,0.833,36.835,28.119,34.976,22.406,5.851,7.944,33.131
187,0.833,36.462,28.095,34.957,22.406,5.81,7.823,32.022
188,0.839,36.621,28.185,34.995,22.416,5.891,7.903,31.076
189,0.826,36.709,28.135,34.948,22.406,5.689,7.742,29.847
190,0.826,36.787,28.049,34.976,22.396,5.727,7.659,28.899
191,0.83,36.49,28.095,34.967,22.406,5.768,7.739,27.955
192,0.82,36.602,28.083,34.938,22.396,5.647,7.699,27.376
193,0.817,36.766,28.126,34.985,22.406,5.767,7.74,27.37
194,0.807,36.825,28.181,34.967,22.409,5.728,7.781,28.102
195,0.816,36.538,28.205,34.976,22.409,5.687,7.74,29.004
196,0.82,36.67,28.19,34.976,22.413,5.768,7.74,29.786
197,0.826,36.796,28.221,35.005,22.42,5.809,7.821,30.607
198,0.807,36.797,28.167,34.948,22.396,5.566,7.619,30.981
199,0.813,36.529,28.146,34.976,22.402,5.645,7.657,31.472
200,0.82,36.698,28.107,34.967,22.406,5.686,7.658,31.884
201,0.81,36.777,28.15,34.947,22.396,5.564,7.576,31.929
202,0.826,36.941,28.174,34.966,22.413,5.645,7.657,31.97
203,0.82,36.463,28.213,34.986,22.409,5.727,7.698,31.726
204,0.826,36.592,28.166,34.986,22.409,5.687,7.699,31.195
205,0.83,36.689,28.15,34.986,22.403,5.727,7.658,30.661
206,0.833,36.508,28.138,35.015,22.42,5.89,7.78,30.046
207,0.813,36.449,28.068,34.967,22.41,5.689,7.618,29.227
208,0.833,36.602,28.099,34.966,22.409,5.605,7.535,28.446
209,0.82,36.728,28.107,34.986,22.403,5.645,7.616,27.625
210,0.803,36.403,28.161,34.976,22.406,5.645,7.617,27.048
211,0.829,36.505,28.158,34.967,22.399,5.564,7.495,26.473
212,0.82,36.65,28.123,34.995,22.413,5.726,7.616,26.264
213,0.81,36.748,28.076,34.986,22.409,5.687,7.576,26.18
214,0.803,36.307,28.048,35.005,22.413,5.564,7.535,26.342
215,0.803,36.485,28.091,35.024,22.413,5.726,7.453,26.547
216,0.803,36.593,28.017,34.996,22.403,5.687,7.534,26.996
217,0.813,36.651,28.09,34.976,22.402,5.605,7.372,27.529
218,0.81,36.393,28.13,34.976,22.406,5.604,7.411,28.754
219,0.816,36.515,28.185,34.967,22.402,5.645,7.411,30.108
220,0.816,36.65,28.139,34.966,22.399,5.564,7.33,31.301
221,0.823,36.757,28.088,35.005,22.413,5.685,7.451,32.533
222,0.823,36.48,28.118,34.996,22.413,5.646,7.412,33.561
223,0.833,36.612,28.115,34.996,22.406,5.686,7.411,34.995
224,0.839,36.766,28.15,35.005,22.409,5.687,7.411,36.513
225,0.83,36.778,28.146,35.005,22.416,5.687,7.411,38.277
226,0.83,36.221,28.146,34.986,22.399,5.605,7.289,39.555
227,0.826,36.369,28.162,34.986,22.406,5.564,7.369,40.462
228,0.826,36.505,28.182,34.976,22.406,5.604,7.33,40.878
229,0.81,36.535,28.104,34.976,22.399,5.523,7.207,40.8
230,0.823,36.459,28.122,35.005,22.409,5.644,7.328,40.474
231,0.826,36.592,28.099,35.015,22.409,5.686,7.37,39.739
232,0.823,36.718,28.122,34.996,22.409,5.646,7.37,38.919
233,0.817,37.017,28.169,35.005,22.409,5.645,7.33,37.935
234,0.82,36.416,28.182,35.005,22.413,5.767,7.41,37.03
235,0.803,36.525,28.174,34.986,22.403,5.606,7.167,35.68
236,0.813,36.631,28.166,34.986,22.402,5.604,7.246,34.528
237,0.816,36.393,28.182,34.986,22.402,5.604,7.288,33.297
238,0.81,36.361,28.131,34.976,22.402,5.523,7.288,32.146
239,0.82,36.534,28.119,34.995,22.409,5.603,7.329,30.996
240,0.826,36.631,28.115,35.015,22.406,5.645,7.41,30.009
241,0.813,36.364,28.173,35.015,22.409,5.605,7.411,28.86
242,0.829,36.476,28.197,34.996,22.406,5.645,7.371,27.873
243,0.839,36.621,28.174,35.015,22.416,5.686,7.452,27.131
244,0.833,36.68,28.15,34.986,22.403,5.564,7.249,26.352
245,0.846,36.144,28.111,34.986,22.399,5.604,7.288,25.856
246,0.84,36.301,28.107,34.986,22.406,5.604,7.329,25.648
247,0.836,36.38,28.06,34.986,22.396,5.482,7.289,25.401
248,0.849,36.515,28.126,34.986,22.406,5.644,7.451,25.236
249,0.846,36.286,28.127,35.005,22.409,5.605,7.452,25.032
250,0.843,36.418,28.193,34.996,22.409,5.645,7.412,24.785
251,0.836,36.553,28.186,34.976,22.406,5.523,7.452,24.539
252,0.852,36.66,28.119,35.043,22.416,5.725,7.534,24.699
253,0.82,36.172,28.052,34.977,22.403,5.524,7.331,24.335
254,0.826,36.35,28.106,35.043,22.406,5.563,7.37,24.169
255,0.826,36.467,28.111,34.986,22.402,5.523,7.37,23.964
256,0.82,36.487,28.091,34.986,22.399,5.563,7.411,23.718
257,0.836,36.353,28.095,35.005,22.413,5.563,7.411,23.349
258,0.846,36.495,28.126,35.015,22.409,5.645,7.493,23.061
259,0.843,36.602,28.181,34.977,22.409,5.564,7.534,22.489
260,0.836,36.613,28.119,34.995,22.409,5.563,7.453,21.995
261,0.846,36.402,28.119,35.082,22.423,5.645,7.615,21.543
262,0.843,36.477,28.138,34.996,22.406,5.523,7.495,21.051
263,0.849,36.602,28.127,34.986,22.399,5.522,7.453,20.355
264,0.859,36.92,28.169,34.995,22.406,5.522,7.534,19.86
265,0.853,36.233,28.178,34.986,22.402,5.522,7.575,19.367
266,0.853,36.379,28.178,34.967,22.402,5.4,7.413,18.834
267,0.846,36.505,28.178,34.995,22.409,5.521,7.533,18.503
268,0.849,36.305,28.205,34.986,22.403,5.482,7.534,18.175
269,0.843,36.351,28.1,34.995,22.409,5.522,7.575,18.049
270,0.859,36.524,28.142,35.043,22.413,5.644,7.616,18.373
271,0.853,36.555,28.119,34.996,22.403,5.483,7.535,18.783
272,0.853,36.181,28.158,34.986,22.406,5.44,7.453,19.275
273,0.843,36.302,28.181,35.005,22.399,5.562,7.574,20.012
274,0.826,36.428,28.197,35.005,22.416,5.523,7.535,21.239
275,0.836,36.515,28.178,34.986,22.399,5.441,7.372,23.081
276,0.846,35.711,28.217,35.024,22.413,5.643,7.533,25.579
277,0.843,35.837,28.166,35.005,22.413,5.605,7.534,27.719
278,0.843,35.972,28.08,35.015,22.406,5.523,7.494,29.529
279,0.856,36.098,28.122,35.024,22.409,5.563,7.534,30.807
280,0.853,36.493,28.126,34.986,22.406,5.523,7.575,31.674
281,0.84,36.612,28.162,35.005,22.406,5.522,7.454,32.089
282,0.843,36.747,28.174,35.005,22.399,5.482,7.493,32.134
283,0.849,36.825,28.147,35.005,22.409,5.562,7.494,31.89
284,0.859,36.059,28.076,34.986,22.392,5.441,7.371,31.319
285,0.862,36.224,28.083,35.024,22.409,5.643,7.492,30.906
286,0.849,36.341,28.087,35.015,22.413,5.564,7.534,30.211
287,0.849,36.399,28.029,35.034,22.409,5.563,7.534,29.35
288,0.853,36.333,28.137,35.044,22.413,5.604,7.616,28.488
289,0.836,36.418,28.142,34.986,22.409,5.645,7.495,27.503
290,0.826,36.563,28.174,34.995,22.403,5.483,7.494,26.599
291,0.836,36.593,28.139,34.996,22.402,5.522,7.575,25.736
292,0.826,36.162,28.041,35.005,22.406,5.482,7.535,25.036
293,0.833,36.302,28.106,34.996,22.399,5.4,7.412,24.338
294,0.839,36.437,28.107,35.024,22.409,5.521,7.615,24.047
295,0.833,36.755,28.119,35.015,22.403,5.563,7.617,23.759
296,0.826,36.346,28.13,34.996,22.409,5.523,7.576,23.512
297,0.846,36.495,28.138,35.063,22.416,5.644,7.657,23.469
298,0.83,36.573,28.189,34.996,22.406,5.483,7.576,23.469
299,0.839,36.21,28.197,34.996,22.402,5.44,7.535,23.388
300,0.833,36.216,28.108,35.024,22.402,5.481,7.494,23.387
301,0.823,36.331,28.119,35.015,22.406,5.481,7.534,23.346
302,0.843,36.457,28.107,35.005,22.402,5.44,7.494,23.102
303,0.859,36.151,28.13,35.034,22.413,5.562,7.697,23.059
304,0.846,36.273,28.17,35.044,22.403,5.563,7.658,22.814
305,0.843,36.399,28.174,35.025,22.409,5.523,7.698,22.609
306,0.859,36.525,28.205,35.034,22.409,5.522,7.699,22.525
307,0.836,36.161,28.205,35.015,22.409,5.522,7.821,22.565
308,0.849,36.292,28.194,35.005,22.399,5.482,7.7,22.566
309,0.849,36.428,28.1,35.024,22.406,5.522,7.74,22.688
310,0.836,36.515,28.122,35.025,22.406,5.563,7.781,22.729
311,0.843,36.094,28.107,34.977,22.399,5.482,7.659,22.405
312,0.846,36.263,28.173,35.043,22.416,5.644,7.861,22.401
313,0.833,36.408,28.205,35.025,22.413,5.605,7.863,22.157
314,0.826,36.467,28.17,35.025,22.409,5.604,7.944,21.748
315,0.83,36.075,28.201,35.025,22.403,5.564,7.864,21.419
316,0.82,36.205,28.209,35.034,22.42,5.726,8.026,21.131
317,0.823,36.312,28.178,35.005,22.406,5.484,7.946,20.559
318,0.826,36.37,28.092,35.015,22.399,5.562,7.864,20.106
319,0.826,36.285,28.111,35.024,22.409,5.563,7.944,19.654
320,0.817,36.408,28.103,34.986,22.396,5.523,7.905,19.243
321,0.836,36.534,28.177,35.043,22.402,5.644,7.985,18.71
322,0.836,36.593,28.186,35.034,22.409,5.645,8.027,18.461
323,0.846,36.085,28.147,35.034,22.413,5.645,7.905,17.849
324,0.853,36.215,28.099,35.025,22.409,5.605,7.945,17.436
325,0.866,36.34,28.099,35.063,22.42,5.686,8.026,17.147
326,0.833,36.572,28.06,35.025,22.399,5.564,7.865,16.575
327,0.826,36.076,28.024,35.025,22.399,5.523,7.863,16.041
328,0.826,36.214,28.106,35.025,22.409,5.522,7.863,15.71
329,0.807,36.283,28.13,35.015,22.399,5.563,7.944,15.382
330,0.829,36.13,28.197,35.034,22.409,5.563,7.864,14.931
331,0.839,36.167,28.123,35.053,22.409,5.563,7.985,14.764
332,0.826,36.292,28.076,35.034,22.406,5.645,7.986,14.356
333,0.817,36.399,28.114,35.082,22.406,5.605,7.824,14.067
334,0.823,36.074,28.126,35.063,22.416,5.645,8.025,13.942
335,0.797,36.147,28.13,35.015,22.406,5.605,7.946,13.657
336,0.807,36.273,28.138,35.015,22.402,5.564,7.864,13.369
337,0.807,36.379,28.119,35.015,22.399,5.604,7.904,13.204
338,0.807,36.045,28.154,35.024,22.402,5.645,7.904,13.08
339,0.816,36.205,28.174,35.015,22.409,5.645,7.823,12.916
340,0.823,36.35,28.108,35.034,22.409,5.727,7.944,13.199
341,0.82,36.419,28.142,35.053,22.406,5.727,7.823,13.405
342,0.807,36.026,28.115,35.025,22.409,5.727,7.903,13.692
343,0.833,36.233,28.162,35.092,22.42,5.85,7.945,14.02
344,0.826,36.302,28.154,35.016,22.406,5.648,7.823,14.47
345,0.82,36.38,28.17,35.015,22.402,5.645,7.741,15.044
346,0.82,36.102,28.186,35.015,22.409,5.727,7.74,15.985
347,0.803,36.234,28.178,35.015,22.399,5.727,7.781,16.808
348,0.81,36.389,28.201,35.024,22.402,5.727,7.74,17.548
349,0.81,36.438,28.116,35.053,22.413,5.768,7.862,18.287
350,0.807,35.95,28.103,35.034,22.409,5.809,7.822,18.823
351,0.81,36.098,28.126,35.015,22.409,5.769,7.781,19.153
352,0.816,36.253,28.181,35.063,22.42,5.85,7.862,19.523
353,0.8,36.226,28.193,35.025,22.406,5.81,7.741,19.811
354,0.81,36.101,28.201,35.025,22.406,5.728,7.699,20.424
355,0.816,36.243,28.205,35.015,22.406,5.768,7.78,21.772
356,0.807,36.331,28.186,35.024,22.406,5.809,7.781,23.371
357,0.826,36.562,28.162,35.025,22.402,5.769,7.74,24.891
358,0.826,36.028,28.111,35.053,22.413,5.809,7.821,26.451
359,0.843,36.156,28.122,35.034,22.409,5.85,7.863,27.971
360,0.859,36.282,28.146,35.034,22.409,5.81,7.863,30.71
361,0.872,36.092,28.193,35.082,22.42,5.972,7.944,34.844
362,0.869,36.071,28.158,35.035,22.403,5.933,7.864,38.586
363,0.879,36.224,28.142,35.034,22.402,5.811,7.7,41.835
364,0.892,36.321,28.115,35.053,22.399,5.81,7.821,45.079
365,0.889,35.977,28.115,35.034,22.402,5.972,7.781,48.202
366,0.895,36.098,28.076,35.034,22.399,5.893,7.7,50.632
367,0.905,36.243,28.056,35.063,22.409,6.014,7.821,52.404
368,0.908,36.331,28.118,35.054,22.409,6.015,7.7,53.113
369,0.902,36.016,28.138,35.063,22.406,6.056,7.821,53.567
370,0.925,36.185,28.201,35.054,22.42,6.178,7.822,54.1
371,0.915,36.263,28.143,35.034,22.413,6.017,7.7,54.512
372,0.931,36.37,28.053,35.025,22.403,6.096,7.658,54.516
373,0.915,35.901,28.098,35.111,22.409,6.056,7.698,54.11
374,0.879,36.03,28.095,35.045,22.406,6.097,7.618,53.211
375,0.885,36.195,28.118,35.034,22.402,6.056,7.576,51.901
376,0.885,36.273,28.119,35.063,22.413,6.056,7.616,50.587
377,0.879,36.101,28.162,35.063,22.409,6.137,7.698,48.907
378,0.869,36.243,28.185,35.063,22.409,6.138,7.658,47.06
379,0.885,36.379,28.229,35.082,22.413,6.219,7.698,45.294
380,0.863,36.381,28.143,35.025,22.406,6.139,7.658,43.487
381,0.872,35.978,28.115,35.025,22.409,6.098,7.617,41.599
382,0.882,36.127,28.119,35.034,22.409,6.097,7.657,39.913
383,0.885,36.234,28.119,35.044,22.409,6.056,7.658,38.188
384,0.911,36.293,28.154,35.034,22.403,6.015,7.495,36.586
385,0.931,36.14,28.185,35.044,22.406,6.137,7.819,35.228
386,0.938,36.273,28.178,35.063,22.409,6.138,7.7,34.239
387,0.935,36.37,28.197,35.063,22.409,6.016,7.699,33.497
388,0.948,36.534,28.225,35.111,22.42,6.137,7.78,33.083
389,0.935,36.037,28.081,35.045,22.403,6.016,7.781,32.591
390,0.931,36.185,28.107,35.054,22.402,6.015,7.74,32.017
391,0.928,36.292,28.122,35.054,22.402,6.015,7.699,31.483
392,0.915,36.054,28.189,35.054,22.402,5.974,7.74,31.03
393,0.912,36.109,28.178,35.054,22.402,5.974,7.699,30.741
394,0.899,36.263,28.189,35.082,22.413,6.015,7.821,30.697
395,0.886,36.379,28.186,35.063,22.409,5.974,7.822,30.412
396,0.876,36.083,28.158,35.063,22.403,5.974,7.781,30.084
397,0.892,36.224,28.158,35.102,22.416,6.055,7.944,29.634
398,0.866,36.341,28.088,35.064,22.413,5.975,7.864,29.019
399,0.866,36.409,28.118,35.063,22.403,5.893,7.863,28.281
400,0.885,35.959,28.154,35.054,22.402,5.892,7.944,27.583
401,0.879,36.089,28.201,35.044,22.413,5.892,7.945,27.006
402,0.879,36.243,28.174,35.073,22.409,5.892,7.905,26.147
403,0.895,36.341,28.131,35.083,22.413,5.973,8.107,25.854
404,0.892,36.025,28.103,35.083,22.416,6.015,7.987,25.282
405,0.886,36.156,28.076,35.073,22.41,5.893,7.986,24.707
406,0.889,36.292,28.075,35.083,22.413,5.892,7.986,24.172
407,0.866,36.351,28.153,35.073,22.409,5.933,8.068,23.761
408,0.84,36.025,28.146,35.054,22.399,5.811,7.906,23.106
409,0.846,36.176,28.166,35.073,22.406,5.81,7.904,22.733
410,0.84,36.311,28.197,35.083,22.406,5.85,7.945,22.16
411,0.83,36.341,28.084,35.044,22.399,5.729,7.823,21.626
412,0.833,36.006,28.122,35.082,22.413,5.85,7.985,21.255
413,0.833,36.147,28.115,35.073,22.416,5.851,8.027,20.845
414,0.826,36.273,28.126,35.092,22.406,5.891,7.946,20.393
415,0.826,36.284,28.154,35.083,22.409,5.811,7.905,19.982
416,0.833,36.207,28.174,35.111,22.416,5.932,8.067,19.775
417,0.823,36.312,28.162,35.073,22.399,5.73,7.824,19.285
418,0.82,36.418,28.197,35.083,22.406,5.768,7.781,18.955
419,0.826,36.458,28.182,35.102,22.402,5.809,7.862,18.748
420,0.804,36.026,28.127,35.092,22.402,5.688,7.863,18.461
421,0.826,36.195,28.13,35.083,22.409,5.809,7.904,18.255
422,0.83,36.292,28.142,35.111,22.406,5.81,7.863,18.213
423,0.846,36.073,28.193,35.093,22.406,5.728,7.944,18.293
424,0.856,36.109,28.197,35.102,22.406,5.809,7.823,18.62
425,0.866,36.282,28.244,35.14,22.423,5.891,7.985,19.233
426,0.846,36.351,28.198,35.083,22.399,5.729,7.783,20.011
427,0.84,35.949,28.209,35.092,22.402,5.687,7.781,21.036
428,0.846,36.088,28.166,35.092,22.399,5.687,7.74,22.225
429,0.82,36.224,28.139,35.111,22.409,5.809,7.781,23.416
430,0.8,36.321,28.134,35.083,22.406,5.688,7.7,24.526
431,0.803,35.977,28.162,35.121,22.413,5.768,7.821,25.919
432,0.79,36.127,28.193,35.121,22.409,5.728,7.822,27.112
433,0.78,36.244,28.178,35.102,22.409,5.727,7.7,28.14
434,0.784,36.35,28.186,35.15,22.409,5.809,7.821,28.923
435,0.767,36.016,28.135,35.112,22.409,5.769,7.863,29.419
436,0.757,36.166,28.111,35.102,22.406,5.687,7.66,30.034
437,0.754,36.292,28.095,35.121,22.406,5.727,7.78,30.934
438,0.751,36.38,28.142,35.121,22.402,5.727,7.781,31.675
439,0.748,35.949,28.103,35.102,22.402,5.605,7.74,32.17
440,0.757,36.117,28.181,35.131,22.413,5.808,7.943,32.622
441,0.748,36.244,28.178,35.121,22.406,5.769,7.986,32.627
442,0.747,36.293,28.139,35.121,22.402,5.728,7.986,32.383
443,0.764,36.188,28.092,35.15,22.413,5.768,7.905,32.096
444,0.757,36.283,28.06,35.141,22.406,5.728,7.945,31.809
445,0.754,36.37,28.153,35.15,22.402,5.646,7.905,31.399
446,0.757,36.438,28.123,35.15,22.409,5.686,7.945,31.192
447,0.748,35.978,28.13,35.131,22.403,5.727,7.945,31.19
448,0.744,36.089,28.154,35.121,22.399,5.524,7.823,30.986
449,0.747,36.224,28.201,35.15,22.42,5.766,8.025,31.025
450,0.754,36.274,28.166,35.141,22.41,5.687,7.987,30.619
451,0.757,36.073,28.1,35.141,22.413,5.727,8.027,30.249
452,0.761,36.234,28.111,35.16,22.409,5.727,7.987,29.879
453,0.741,36.293,28.107,35.141,22.413,5.727,8.108,29.428
454,0.731,35.996,28.146,35.112,22.403,5.646,7.906,28.814
455,0.741,36.051,28.158,35.14,22.409,5.605,7.985,28.32
456,0.741,36.176,28.178,35.131,22.406,5.645,7.946,27.746
457,0.734,36.263,28.193,35.102,22.392,5.605,7.945,27.008
458,0.734,36.063,28.252,35.16,22.413,5.645,8.026,26.432
459,0.738,36.176,28.171,35.16,22.409,5.686,7.987,25.856
460,0.741,36.321,28.139,35.16,22.403,5.646,8.027,25.038
461,0.757,36.447,28.123,35.16,22.409,5.564,7.987,24.379
462,0.754,35.94,28.181,35.189,22.416,5.726,8.108,23.763
463,0.767,36.021,28.174,35.151,22.41,5.484,7.906,22.821
464,0.761,36.166,28.174,35.15,22.406,5.644,7.945,22.121
465,0.764,36.263,28.186,35.15,22.406,5.564,7.905,21.504
466,0.751,35.909,28.154,35.131,22.402,5.482,7.863,20.766
467,0.751,36.088,28.17,35.169,22.413,5.562,7.904,20.149
468,0.761,36.234,28.111,35.17,22.406,5.563,7.985,19.614
469,0.757,36.302,28.122,35.151,22.406,5.604,7.946,18.917
470,0.754,35.919,28.162,35.16,22.409,5.645,7.905,18.3
471,0.751,36.088,28.213,35.208,22.416,5.645,8.067,17.847
472,0.754,36.167,28.186,35.151,22.399,5.483,7.865,17.151
473,0.748,36.225,28.182,35.17,22.399,5.562,7.782,16.697
474,0.738,35.928,28.115,35.16,22.406,5.523,7.984,16.449
475,0.734,36.04,28.107,35.141,22.402,5.482,7.864,16.121
476,0.747,36.195,28.099,35.169,22.42,5.562,7.863,16.077
477,0.751,36.235,28.095,35.179,22.41,5.563,7.904,15.914
478,0.741,36.005,28.13,35.189,22.413,5.604,7.863,15.75
479,0.734,36.156,28.154,35.17,22.409,5.564,7.863,15.504
480,0.751,36.273,28.217,35.189,22.416,5.726,7.985,15.502
481,0.741,36.216,28.147,35.17,22.403,5.524,7.783,15.177
482,0.747,36.024,28.096,35.189,22.402,5.522,7.74,15.051
483,0.76,36.147,28.068,35.189,22.409,5.563,7.74,15.091
484,0.754,36.254,28.103,35.17,22.403,5.482,7.74,15.254
485,0.754,36.015,28.122,35.189,22.406,5.562,7.781,16.028
486,0.761,36.07,28.13,35.208,22.406,5.563,7.822,17.337
487,0.757,36.214,28.127,35.208,22.409,5.604,7.741,18.691
488,0.764,36.312,28.162,35.218,22.406,5.604,7.699,20.047
489,0.77,35.939,28.213,35.228,22.416,5.645,7.861,21.443
490,0.744,36.021,28.12,35.189,22.406,5.483,7.7,22.514
491,0.747,36.166,28.123,35.199,22.399,5.481,7.699,23.378
492,0.76,36.283,28.115,35.199,22.406,5.522,7.699,24.2
493,0.728,35.843,28.138,35.189,22.409,5.482,7.618,25.265
494,0.744,36.001,28.193,35.199,22.409,5.44,7.576,26.333
495,0.747,36.137,28.213,35.228,22.409,5.603,7.779,27.401
496,0.757,36.215,28.213,35.218,22.406,5.523,7.74,28.306
497,0.757,35.995,28.209,35.228,22.406,5.441,7.659,29.047
498,0.754,36.175,28.225,35.257,22.416,5.603,7.698,29.501
499,0.757,36.273,28.116,35.199,22.403,5.482,7.618,29.628
500,0.741,36.351,28.142,35.208,22.406,5.44,7.617,29.629
501,0.747,35.843,28.174,35.218,22.409,5.399,7.535,29.548
502,0.754,35.963,28.197,35.228,22.406,5.48,7.616,29.344
503,0.774,36.098,28.213,35.218,22.402,5.44,7.535,28.895
504,0.771,36.176,28.213,35.247,22.413,5.481,7.575,28.89
505,0.767,35.861,28.178,35.218,22.406,5.481,7.657,28.646
506,0.767,36.011,28.154,35.228,22.402,5.481,7.617,28.603
507,0.777,36.137,28.131,35.257,22.416,5.562,7.657,28.399
508,0.758,36.138,28.099,35.266,22.41,5.441,7.617,28.072
509,0.761,35.956,28.107,35.209,22.406,5.318,7.495,27.703
510,0.761,36.098,28.15,35.237,22.409,5.317,7.534,27.414
511,0.757,36.215,28.201,35.238,22.403,5.398,7.575,27.167
512,0.751,36.101,28.162,35.238,22.402,5.318,7.454,26.84
513,0.748,35.869,28.123,35.266,22.413,5.398,7.615,27.081
514,0.744,36.011,28.087,35.247,22.409,5.44,7.535,27.368
515,0.754,36.099,28.091,35.257,22.403,5.44,7.494,27.899
516,0.764,35.917,28.056,35.276,22.423,5.521,7.616,28.351
517,0.77,35.944,28.138,35.257,22.41,5.319,7.495,28.722
518,0.787,36.088,28.138,35.247,22.403,5.358,7.453,29.417
519,0.8,36.176,28.166,35.238,22.409,5.358,7.493,30.847
520,0.8,35.631,28.182,35.238,22.406,5.358,7.494,32.691
521,0.8,35.74,28.115,35.247,22.396,5.317,7.412,34.173
522,0.816,35.895,28.158,35.286,22.413,5.48,7.655,35.611
523,0.833,35.973,28.115,35.267,22.409,5.4,7.576,36.519
524,0.846,35.878,28.162,35.276,22.409,5.358,7.575,37.016
525,0.879,36.059,28.17,35.305,22.413,5.521,7.616,37.184
526,0.885,36.138,28.154,35.238,22.409,5.36,7.495,36.942
527,0.892,36.206,28.15,35.257,22.403,5.317,7.534,36.492
528,0.925,36.12,28.213,35.266,22.406,5.317,7.453,35.918
529,0.922,36.244,28.174,35.257,22.406,5.358,7.574,35.14
530,0.938,36.398,28.119,35.305,22.406,5.317,7.494,34.238
531,0.967,36.486,28.126,35.305,22.413,5.358,7.575,33.497
532,1.02,35.662,28.142,35.277,22.409,5.358,7.575,32.432
533,1.043,35.807,28.166,35.286,22.413,5.358,7.575,31.609
534,1.108,35.962,28.193,35.315,22.416,5.399,7.657,30.828
535,1.135,35.974,28.237,35.277,22.41,5.44,7.617,30.007
536,1.181,35.811,28.225,35.257,22.403,5.318,7.495,29.226
537,1.204,35.972,28.229,35.295,22.413,5.358,7.616,28.405
538,1.22,36.089,28.163,35.286,22.406,5.358,7.576,27.706
539,1.234,36.109,28.162,35.286,22.389,5.195,7.494,26.845
540,1.214,35.898,28.162,35.295,22.413,5.356,7.575,26.349
541,1.224,36.011,28.213,35.305,22.413,5.399,7.698,25.978
542,1.217,36.137,28.225,35.315,22.413,5.358,7.658,25.933
543,1.191,36.1,28.206,35.315,22.409,5.358,7.698,26.055
544,1.149,35.927,28.162,35.315,22.413,5.317,7.78,26.341
545,1.174,36.031,28.119,35.305,22.403,5.276,7.618,26.466
546,1.184,36.147,28.15,35.296,22.406,5.276,7.617,26.914
547,1.191,35.736,28.123,35.315,22.402,5.276,7.617,27.244
548,1.256,35.77,28.134,35.286,22.399,5.154,7.535,27.166
549,1.322,35.943,28.138,35.353,22.416,5.356,7.697,27.49
550,1.339,36.021,28.185,35.325,22.413,5.358,7.699,27.656
551,1.319,35.763,28.193,35.305,22.409,5.358,7.618,28.024
552,1.326,35.914,28.131,35.324,22.403,5.277,7.617,28.475
553,1.3,36.04,28.111,35.344,22.42,5.398,7.698,29.17
554,1.277,36.089,28.068,35.325,22.403,5.196,7.496,29.462
555,1.267,35.716,28.11,35.401,22.402,5.316,7.616,29.871
556,1.247,35.875,28.138,35.364,22.409,5.276,7.617,30.12
557,1.175,35.963,28.119,35.325,22.396,5.235,7.535,30.163
558,1.119,36.108,28.169,35.353,22.413,5.397,7.657,30.122
559,1.054,35.994,28.193,35.344,22.409,5.318,7.698,30.0
560,0.972,36.137,28.186,35.354,22.409,5.358,7.658,29.674
561,0.89,36.273,28.151,35.373,22.403,5.317,7.739,29.182
562,0.801,36.341,28.162,35.392,22.423,5.48,7.821,28.974
563,0.693,35.613,28.158,35.335,22.403,5.237,7.659,28.525
564,0.653,35.769,28.158,35.353,22.402,5.275,7.698,28.154
565,0.626,35.895,28.174,35.354,22.402,5.276,7.658,27.826
566,0.593,35.925,28.143,35.344,22.402,5.276,7.698,27.497
567,0.583,35.801,28.166,35.373,22.409,5.357,7.74,27.331
568,0.58,35.953,28.205,35.363,22.416,5.358,7.862,27.533
569,0.577,36.06,28.155,35.383,22.41,5.317,7.782,27.901
570,0.59,36.08,28.146,35.373,22.413,5.358,7.862,28.148
571,0.622,35.984,28.138,35.411,22.42,5.439,8.026,28.476
572,0.616,36.06,28.142,35.354,22.403,5.359,7.865,28.682
573,0.636,36.195,28.189,35.373,22.406,5.236,7.822,28.929
574,0.662,36.014,28.213,35.354,22.402,5.316,7.944,29.338
575,0.662,35.715,28.209,35.354,22.402,5.317,8.026,29.626
576,0.714,35.875,28.19,35.392,22.409,5.276,7.946,29.792
577,0.763,35.992,28.201,35.383,22.409,5.438,8.067,29.956
578,0.796,35.782,28.135,35.392,22.409,5.359,7.987,29.876
579,0.803,35.876,28.127,35.402,22.409,5.399,8.108,29.753
580,0.816,36.03,28.169,35.431,22.416,5.44,8.15,29.549
581,0.8,36.07,28.209,35.402,22.406,5.399,8.191,29.14
582,0.794,35.745,28.217,35.383,22.402,5.318,8.192,28.608
583,0.816,35.885,28.17,35.402,22.402,5.317,8.192,28.114
584,0.813,36.011,28.135,35.421,22.406,5.317,8.232,27.5
585,0.813,36.089,28.099,35.393,22.399,5.195,8.151,26.884
586,0.82,35.697,28.083,35.431,22.413,5.478,8.313,26.512
587,0.797,35.817,28.04,35.441,22.406,5.44,8.274,25.857
588,0.797,35.963,28.106,35.422,22.413,5.359,8.274,25.241
589,0.8,36.07,28.138,35.45,22.409,5.439,8.274,24.788
590,0.794,35.716,28.201,35.441,22.409,5.399,8.233,24.58
591,0.78,35.866,28.159,35.402,22.403,5.318,8.192,24.578
592,0.774,36.001,28.092,35.421,22.402,5.317,8.151,25.147
593,0.774,36.06,28.146,35.421,22.409,5.439,8.191,25.803
594,0.78,35.821,28.127,35.412,22.396,5.318,8.029,26.298
595,0.777,35.991,28.162,35.431,22.409,5.439,8.19,26.953
596,0.771,36.099,28.158,35.441,22.409,5.359,8.192,28.017
597,0.764,36.138,28.162,35.441,22.403,5.399,8.151,30.101
598,0.78,35.688,28.213,35.479,22.42,5.44,8.191,32.561
599,0.774,35.769,28.182,35.46,22.406,5.44,8.151,34.66
600,0.767,35.895,28.108,35.441,22.402,5.318,8.028,36.185
601,0.774,35.935,28.134,35.45,22.406,5.398,8.068,37.379
602,0.78,35.829,28.146,35.479,22.409,5.358,8.028,38.611
603,0.777,35.943,28.142,35.451,22.399,5.317,8.068,40.331
604,0.787,36.088,28.216,35.479,22.409,5.358,8.191,42.991
605,0.797,35.889,28.225,35.489,22.409,5.439,8.192,45.538
606,0.794,35.656,28.249,35.47,22.413,5.399,8.151,47.556
607,0.79,35.779,28.218,35.47,22.409,5.358,8.15,48.917
608,0.787,35.885,28.209,35.489,22.416,5.439,8.273,51.127
609,0.774,35.752,28.084,35.48,22.406,5.359,8.152,54.564
610,0.784,35.856,28.15,35.48,22.406,5.358,8.11,59.437
611,0.793,35.992,28.142,35.47,22.409,5.317,8.191,64.12
612,0.79,36.07,28.197,35.479,22.406,5.358,8.151,67.46
613,0.774,35.649,28.198,35.48,22.409,5.399,8.15,69.202
614,0.767,35.779,28.19,35.508,22.416,5.399,8.232,70.073
615,0.77,35.933,28.151,35.499,22.41,5.399,8.151,70.284
616,0.777,36.002,28.166,35.499,22.406,5.399,8.15,70.042
617,0.787,35.734,28.143,35.528,22.416,5.48,8.191,69.471
618,0.777,35.827,28.138,35.499,22.41,5.4,8.151,68.286
619,0.787,35.953,28.138,35.499,22.403,5.277,8.191,66.607
620,0.787,36.041,28.177,35.499,22.402,5.357,8.273,64.68
621,0.784,35.716,28.189,35.508,22.402,5.399,8.233,62.343
622,0.787,35.856,28.139,35.518,22.399,5.277,8.192,59.798
623,0.803,36.011,28.115,35.537,22.413,5.438,8.395,57.171
624,0.797,36.07,28.119,35.605,22.416,5.399,8.356,54.38
625,0.807,35.61,28.126,35.509,22.406,5.358,8.315,51.709
626,0.797,35.788,28.127,35.528,22.406,5.439,8.396,49.081
627,0.794,35.886,28.162,35.547,22.416,5.521,8.478,46.737
628,0.79,35.934,28.174,35.519,22.399,5.4,8.316,44.274
629,0.784,35.743,28.221,35.528,22.402,5.358,8.274,42.298
630,0.79,35.885,28.182,35.547,22.402,5.399,8.314,40.611
631,0.784,36.002,28.151,35.528,22.396,5.358,8.315,39.09
632,0.793,36.051,28.15,35.557,22.406,5.439,8.356,37.774
633,0.797,35.61,28.162,35.567,22.409,5.44,8.397,36.663
634,0.79,35.749,28.201,35.567,22.403,5.399,8.397,35.473
635,0.79,35.866,28.237,35.557,22.409,5.48,8.397,34.404
636,0.8,35.81,28.225,35.595,22.416,5.603,8.438,33.499
637,0.787,35.694,28.206,35.567,22.41,5.401,8.275,32.188
638,0.787,35.827,28.233,35.557,22.399,5.399,8.274,31.037
639,0.793,35.953,28.085,35.567,22.406,5.48,8.233,30.09
640,0.784,35.609,28.134,35.576,22.402,5.4,8.273,29.349
641,0.79,35.692,28.166,35.576,22.406,5.399,8.193,28.528
642,0.803,35.837,28.228,35.595,22.409,5.48,8.273,28.032
643,0.813,35.924,28.229,35.586,22.409,5.4,8.193,27.661
644,0.816,35.647,28.186,35.586,22.413,5.48,8.151,27.17
645,0.826,35.798,28.193,35.634,22.416,5.44,8.191,26.84
646,0.794,35.905,28.151,35.586,22.406,5.399,8.11,26.389
647,0.797,35.983,28.107,35.567,22.399,5.318,8.109,25.816
648,0.803,35.514,28.122,35.614,22.399,5.358,7.987,25.403
649,0.794,35.653,28.142,35.605,22.409,5.358,7.986,24.993
650,0.8,35.779,28.174,35.596,22.396,5.277,7.905,24.338
651,0.807,35.885,28.232,35.624,22.406,5.438,8.067,23.965
652,0.813,35.551,28.159,35.615,22.406,5.44,8.028,23.352
653,0.803,35.711,28.092,35.625,22.402,5.359,7.987,22.817
654,0.813,35.894,28.134,35.673,22.413,5.439,7.946,22.283
655,0.807,35.906,28.119,35.635,22.413,5.399,7.945,21.831
656,0.81,35.685,28.13,35.625,22.403,5.318,7.945,21.216
657,0.82,35.856,28.146,35.615,22.402,5.317,7.905,20.641
658,0.797,35.973,28.158,35.634,22.402,5.358,7.945,20.147
659,0.803,35.993,28.193,35.606,22.396,5.236,7.701,19.614
660,0.813,35.61,28.19,35.634,22.413,5.357,7.943,19.364
661,0.81,35.74,28.076,35.654,22.413,5.358,7.945,19.078
662,0.82,35.875,28.161,35.654,22.409,5.317,7.864,18.79
663,0.83,35.915,28.162,35.673,22.409,5.317,7.985,18.462
664,0.836,35.685,28.189,35.683,22.413,5.439,8.027,18.255
665,0.82,35.798,28.174,35.644,22.409,5.277,7.824,17.887
666,0.833,35.914,28.193,35.634,22.406,5.316,7.863,18.046
667,0.82,35.753,28.205,35.654,22.402,5.317,7.904,18.495
668,0.817,35.607,28.19,35.625,22.396,5.195,7.823,18.866
669,0.826,35.788,28.131,35.663,22.409,5.356,7.863,19.316
670,0.826,35.895,28.158,35.663,22.409,5.399,7.863,19.768
671,0.82,35.599,28.162,35.683,22.399,5.318,7.863,20.098
672,0.83,35.673,28.182,35.664,22.409,5.317,7.822,20.345
673,0.813,35.827,28.209,35.702,22.409,5.398,7.944,20.754
674,0.803,35.876,28.233,35.654,22.399,5.236,7.783,20.759
675,0.813,35.522,28.237,35.654,22.402,5.275,7.74,20.921
676,0.8,35.672,28.233,35.682,22.396,5.357,7.781,21.085
677,0.8,35.789,28.186,35.664,22.402,5.277,7.781,21.168
678,0.816,35.905,28.112,35.683,22.406,5.316,7.74,20.966
679,0.813,35.58,28.142,35.712,22.413,5.398,7.781,20.964
680,0.813,35.701,28.162,35.693,22.403,5.318,7.7,20.801
681,0.816,35.837,28.201,35.683,22.409,5.276,7.74,20.555
682,0.829,35.924,28.217,35.721,22.416,5.398,7.862,20.431
683,0.82,35.551,28.135,35.693,22.399,5.236,7.741,20.105
684,0.826,35.711,28.115,35.702,22.399,5.235,7.659,19.776
685,0.833,35.837,28.087,35.721,22.399,5.235,7.698,19.448
686,0.826,35.867,28.068,35.702,22.402,5.275,7.699,19.16
687,0.839,35.56,28.13,35.76,22.406,5.276,7.618,18.791
688,0.83,35.701,28.138,35.731,22.406,5.357,7.779,18.665
689,0.823,35.818,28.166,35.722,22.413,5.358,7.7,18.42
690,0.826,35.838,28.201,35.721,22.406,5.277,7.74,18.214
691,0.833,35.541,28.155,35.769,22.413,5.438,7.821,18.09
692,0.804,35.643,28.135,35.732,22.406,5.237,7.659,17.926
693,0.803,35.759,28.138,35.722,22.399,5.153,7.576,17.762
694,0.82,35.809,28.162,35.721,22.399,5.315,7.657,17.883
695,0.807,35.579,28.185,35.741,22.399,5.317,7.658,17.884
696,0.81,35.73,28.213,35.722,22.399,5.154,7.617,17.965
697,0.833,35.847,28.194,35.741,22.416,5.356,7.657,18.169
698,0.823,35.723,28.209,35.75,22.41,5.236,7.698,18.659
699,0.82,35.636,28.205,35.741,22.403,5.235,7.699,19.802
700,0.839,35.826,28.135,35.789,22.413,5.316,7.699,22.009
701,0.826,35.905,28.177,35.751,22.406,5.195,7.658,24.349
702,0.83,35.551,28.139,35.76,22.399,5.153,7.576,26.283
703,0.839,35.634,28.185,35.76,22.402,5.275,7.575,27.888
704,0.839,35.759,28.201,35.779,22.402,5.235,7.657,29.165
705,0.839,35.847,28.19,35.751,22.399,5.153,7.536,29.869
706,0.856,35.474,28.229,35.779,22.413,5.275,7.657,30.607
707,0.849,35.604,28.198,35.799,22.409,5.235,7.658,30.981
708,0.849,35.702,28.194,35.78,22.406,5.316,7.658,31.188
709,0.856,35.837,28.174,35.895,22.409,5.276,7.658,31.068
710,0.843,35.416,28.15,35.8,22.413,5.357,7.698,30.863
711,0.833,35.546,28.181,35.78,22.399,5.155,7.577,30.292
712,0.836,35.691,28.221,35.789,22.395,5.275,7.616,29.758
713,0.833,35.779,28.209,35.789,22.406,5.276,7.657,29.102
714,0.839,35.512,28.166,35.77,22.399,5.195,7.455,28.282
715,0.833,35.701,28.119,35.818,22.413,5.316,7.696,27.583
716,0.836,35.827,28.134,35.809,22.409,5.398,7.699,26.844
717,0.833,35.876,28.095,35.828,22.409,5.236,7.699,25.983
718,0.846,35.512,28.154,35.828,22.413,5.316,7.658,25.242
719,0.827,35.614,28.154,35.818,22.409,5.317,7.658,24.706
720,0.843,35.73,28.228,35.818,22.403,5.195,7.576,23.929
721,0.843,35.799,28.217,35.809,22.402,5.194,7.657,23.474
722,0.853,35.521,28.151,35.837,22.406,5.275,7.698,23.144
723,0.856,35.662,28.111,35.818,22.399,5.235,7.577,22.815
724,0.862,35.827,28.154,35.857,22.409,5.275,7.698,22.771
725,0.856,35.828,28.142,35.847,22.409,5.316,7.74,22.446
726,0.853,35.675,28.138,35.838,22.409,5.236,7.618,22.198
727,0.862,35.808,28.177,35.866,22.409,5.235,7.698,21.993
728,0.856,35.905,28.143,35.857,22.406,5.275,7.74,21.868
729,0.846,35.609,28.193,35.828,22.396,5.154,7.618,21.542
730,0.849,35.481,28.178,35.847,22.409,5.153,7.657,21.457
731,0.843,35.624,28.084,35.867,22.406,5.275,7.698,21.416
732,0.859,35.721,28.13,35.838,22.396,5.154,7.618,21.497
733,0.862,35.588,28.138,35.886,22.409,5.356,7.779,21.864
734,0.859,35.682,28.173,35.867,22.406,5.236,7.74,22.233
735,0.849,35.817,28.178,35.867,22.406,5.275,7.821,22.4
736,0.859,35.934,28.209,35.895,22.409,5.235,7.863,22.848
737,0.846,35.494,28.202,35.877,22.409,5.194,7.782,23.503
738,0.853,35.624,28.19,35.857,22.399,5.112,7.7,24.201
739,0.859,35.759,28.154,35.867,22.402,5.193,7.74,24.94
740,0.856,35.857,28.166,35.886,22.406,5.112,7.781,25.598
741,0.866,35.56,28.143,35.857,22.402,5.071,7.659,25.97
742,0.879,35.73,28.189,35.914,22.409,5.233,7.82,26.746
743,0.889,35.875,28.236,35.896,22.416,5.235,7.781,27.161
744,0.885,35.915,28.26,35.896,22.406,5.275,7.781,27.409
745,0.889,35.494,28.218,35.877,22.406,5.316,7.7,27.615
746,0.876,35.614,28.217,35.905,22.413,5.358,7.821,28.105
747,0.859,35.721,28.198,35.857,22.403,5.155,7.619,28.76
748,0.875,35.799,28.143,35.905,22.402,5.193,7.739,29.946
749,0.869,35.531,28.135,35.915,22.402,5.275,7.659,31.055
750,0.863,35.662,28.173,35.877,22.396,5.195,7.617,31.758
751,0.869,35.817,28.236,35.934,22.413,5.275,7.739,32.497
752,0.863,35.876,28.202,35.915,22.409,5.276,7.74,32.87
753,0.859,35.503,28.159,35.915,22.409,5.235,7.699,32.914
754,0.869,35.643,28.115,35.934,22.406,5.357,7.74,32.752
755,0.866,35.779,28.123,35.944,22.416,5.358,7.821,32.588
756,0.853,35.761,28.087,35.915,22.403,5.155,7.7,31.936
757,0.849,35.655,28.044,35.944,22.399,5.234,7.658,31.238
758,0.856,35.798,28.11,35.915,22.406,5.275,7.78,30.621
759,0.849,35.895,28.142,35.906,22.396,5.073,7.659,29.883
760,0.856,35.714,28.209,35.944,22.409,5.274,7.78,29.225
761,0.849,35.645,28.194,35.944,22.413,5.316,7.822,28.649
762,0.859,35.779,28.119,35.954,22.409,5.276,7.822,27.952
763,0.882,35.905,28.169,35.954,22.406,5.276,7.781,27.376
764,0.872,35.532,28.166,35.954,22.406,5.316,7.862,26.842
765,0.869,35.605,28.174,35.954,22.399,5.154,7.7,26.105
766,0.879,35.73,28.182,35.954,22.402,5.153,7.78,25.487
767,0.869,35.847,28.193,35.954,22.399,5.193,7.781,24.993
768,0.866,35.637,28.162,35.906,22.395,5.031,7.7,24.46
769,0.872,35.798,28.213,35.963,22.416,5.355,7.78,24.414
770,0.866,35.934,28.17,35.963,22.413,5.236,7.862,24.495
771,0.856,36.021,28.162,35.954,22.409,5.235,7.782,24.414
772,0.862,35.6,28.146,35.992,22.413,5.235,7.822,24.454
773,0.856,35.711,28.158,35.964,22.409,5.275,7.822,24.455
774,0.866,35.827,28.174,35.963,22.409,5.154,7.7,24.414
775,0.849,35.915,28.217,35.963,22.406,5.234,7.78,25.023
776,0.853,35.724,28.237,35.983,22.409,5.235,7.822,25.924
777,0.862,35.856,28.241,35.945,22.396,5.113,7.741,26.665
778,0.866,35.992,28.233,35.982,22.409,5.315,7.862,27.729
779,0.876,36.041,28.147,35.992,22.406,5.276,7.944,29.0
780,0.869,35.677,28.154,35.983,22.413,5.235,7.905,30.355
781,0.885,35.846,28.158,36.012,22.406,5.275,7.945,31.751
782,0.876,35.963,28.193,36.021,22.416,5.357,8.067,33.066
783,0.872,35.993,28.213,35.974,22.403,5.155,7.946,34.217
784,0.872,35.792,28.186,35.973,22.409,5.153,7.945,35.408
785,0.876,35.934,28.154,36.012,22.409,5.234,8.067,36.517
786,0.879,36.031,28.174,35.983,22.396,5.153,7.946,37.179
787,0.885,36.07,28.154,36.002,22.406,5.234,8.026,37.592
788,0.885,35.869,28.123,36.012,22.409,5.275,8.149,37.84
789,0.879,36.011,28.169,36.002,22.406,5.195,8.191,37.924
790,0.866,36.108,28.209,36.012,22.406,5.234,8.192,37.966
791,0.879,35.956,28.241,36.05,22.423,5.357,8.314,37.803
792,0.879,35.858,28.159,36.003,22.403,5.195,8.152,37.151
793,0.859,35.992,28.127,35.993,22.402,5.194,8.15,36.413
794,0.853,36.127,28.048,36.012,22.409,5.194,8.15,35.958
795,0.853,35.879,28.075,36.012,22.406,5.194,8.232,35.669
796,0.862,35.982,28.126,36.041,22.409,5.153,8.111,35.585
797,0.888,36.127,28.123,36.041,22.409,5.275,8.232,35.828
798,0.885,36.215,28.142,36.022,22.416,5.235,8.151,35.952
799,0.869,36.062,28.181,36.031,22.406,5.235,8.232,36.157
800,0.866,36.205,28.236,36.05,22.42,5.357,8.355,36.24
801,0.866,36.312,28.139,36.003,22.399,5.155,8.153,35.997
802,0.866,36.409,28.158,36.108,22.399,5.193,8.273,35.629
803,0.879,36.064,28.174,36.042,22.402,5.194,8.274,35.097
804,0.879,36.186,28.166,36.022,22.402,5.153,8.314,34.441
805,0.885,36.34,28.158,36.041,22.413,5.112,8.193,33.458
806,0.879,36.438,28.178,36.051,22.413,5.193,8.354,32.676
807,0.879,36.084,28.154,36.051,22.413,5.153,8.315,31.652
808,0.882,36.224,28.201,36.06,22.406,5.153,8.274,30.747
809,0.882,36.369,28.237,36.079,22.416,5.315,8.396,29.966
810,0.866,36.4,28.12,36.051,22.403,5.114,8.356,29.063
811,0.862,36.141,28.162,36.041,22.406,5.071,8.234,28.078
812,0.862,36.301,28.146,36.051,22.406,5.152,8.314,27.255
813,0.866,36.408,28.185,36.051,22.406,5.193,8.315,26.597
814,0.872,36.448,28.236,36.031,22.399,5.072,8.274,25.818
815,0.869,36.228,28.256,36.089,22.413,5.193,8.274,25.444
816,0.869,36.369,28.225,36.07,22.416,5.194,8.314,25.115
817,0.872,36.486,28.225,36.08,22.41,5.194,8.274,24.705
818,0.879,36.535,28.206,36.099,22.423,5.234,8.355,24.376
819,0.863,36.257,28.088,36.07,22.41,5.194,8.397,24.128
820,0.866,36.379,28.138,36.07,22.399,5.072,8.234,23.76
821,0.866,36.496,28.173,36.08,22.402,5.152,8.355,23.797
822,0.856,36.382,28.201,36.108,22.406,5.193,8.356,23.92
823,0.879,36.39,28.221,36.08,22.399,5.072,8.234,23.961
824,0.885,36.515,28.221,36.108,22.409,5.193,8.395,24.124
825,0.885,36.612,28.213,36.109,22.413,5.234,8.316,24.085
826,0.872,36.306,28.202,36.128,22.403,5.194,8.274,23.8
827,0.882,36.418,28.182,36.138,22.409,5.194,8.314,23.472
828,0.866,36.544,28.076,36.119,22.409,5.275,8.396,23.347
829,0.862,36.622,28.122,36.099,22.403,5.195,8.194,22.654
830,0.862,36.297,28.154,36.109,22.402,5.194,8.192,22.282
831,0.859,36.437,28.22,36.118,22.406,5.275,8.314,21.831
832,0.846,36.544,28.213,36.09,22.402,5.113,8.152,21.216
833,0.853,36.67,28.182,36.128,22.409,5.356,8.354,20.885
834,0.859,36.288,28.139,36.128,22.413,5.358,8.356,20.272
835,0.836,36.437,28.095,36.128,22.403,5.317,8.315,19.778
836,0.859,36.573,28.099,36.147,22.409,5.317,8.274,19.244
837,0.83,36.632,28.157,36.157,22.406,5.398,8.477,18.792
838,0.833,36.441,28.123,36.109,22.396,5.277,8.276,18.218
839,0.843,36.621,28.169,36.128,22.406,5.276,8.314,17.846
840,0.839,36.728,28.217,36.147,22.409,5.357,8.356,17.477
841,0.823,36.758,28.186,36.119,22.396,5.195,8.275,17.066
842,0.846,36.384,28.108,36.176,22.409,5.356,8.436,16.981
843,0.856,36.534,28.158,36.167,22.409,5.358,8.438,16.655
844,0.843,36.631,28.131,36.167,22.413,5.399,8.438,16.408
845,0.859,36.671,28.158,36.157,22.409,5.358,8.357,16.08
846,0.843,36.527,28.158,36.205,22.416,5.521,8.519,15.955
847,0.833,36.631,28.162,36.167,22.399,5.278,8.276,15.547
848,0.856,36.767,28.185,36.148,22.402,5.276,8.274,15.299
849,0.843,36.979,28.221,36.167,22.402,5.316,8.274,15.215
850,0.826,36.454,28.116,36.148,22.396,5.154,8.193,15.174
851,0.83,36.64,28.142,36.186,22.406,5.315,8.273,16.149
852,0.836,36.748,28.174,36.186,22.406,5.358,8.355,18.151
853,0.839,36.518,28.178,36.186,22.402,5.277,8.275,20.529
854,0.843,36.516,28.217,36.186,22.413,5.357,8.193,23.033
855,0.839,36.641,28.241,36.224,22.413,5.48,8.273,25.294
856,0.82,36.719,28.245,36.167,22.399,5.237,8.111,27.797
857,0.813,36.441,28.237,36.186,22.406,5.235,8.028,32.254
858,0.813,36.544,28.249,36.205,22.402,5.316,8.149,38.194
859,0.816,36.651,28.136,36.186,22.402,5.236,8.028,44.311
860,0.829,36.767,28.181,36.215,22.413,5.357,8.149,49.333
861,0.823,36.404,28.158,36.234,22.413,5.358,8.028,52.798
862,0.833,36.553,28.209,36.215,22.406,5.317,8.068,55.15
863,0.82,36.699,28.233,36.225,22.409,5.317,8.028,56.434
864,0.823,36.767,28.233,36.244,22.409,5.398,8.109,57.056
865,0.83,36.365,28.19,36.215,22.409,5.236,7.865,56.656
866,0.83,36.515,28.225,36.215,22.403,5.235,7.944,55.839
867,0.81,36.65,28.174,36.225,22.409,5.275,7.823,54.611
868,0.794,36.7,28.1,36.206,22.399,5.235,7.822,52.932
869,0.813,36.412,28.181,36.244,22.409,5.275,7.822,51.044
870,0.794,36.563,28.178,36.273,22.413,5.276,7.863,49.155
871,0.787,36.67,28.24,36.254,22.409,5.316,7.822,47.144
872,0.787,36.729,28.225,36.254,22.409,5.317,7.822,45.051
873,0.806,36.384,28.17,36.283,22.42,5.398,7.903,43.159
874,0.787,36.486,28.072,36.254,22.403,5.155,7.742,41.189
875,0.777,36.602,28.06,36.244,22.402,5.193,7.74,39.665
876,0.787,36.661,28.071,36.263,22.402,5.194,7.699,38.593
877,0.777,36.45,28.138,36.302,22.402,5.153,7.699,38.175
878,0.777,36.631,28.181,36.264,22.409,5.193,7.699,38.415
879,0.79,36.747,28.186,36.283,22.413,5.316,7.821,39.231
880,0.787,37.036,28.26,36.283,22.413,5.236,7.863,39.889
881,0.79,36.387,28.171,36.283,22.406,5.275,7.904,40.343
882,0.797,36.534,28.143,36.321,22.423,5.438,7.985,40.511
883,0.771,36.622,28.146,36.283,22.406,5.237,7.986,40.228
884,0.77,36.469,28.162,36.283,22.399,5.153,7.864,39.737
885,0.78,36.516,28.162,36.273,22.406,5.234,7.985,39.244
886,0.78,36.631,28.17,36.283,22.413,5.316,7.946,39.076
887,0.784,36.747,28.189,36.302,22.399,5.154,7.905,38.587
888,0.774,36.394,28.197,36.312,22.42,5.315,8.026,38.216
889,0.774,36.448,28.209,36.302,22.41,5.195,7.987,37.562
890,0.774,36.611,28.127,36.302,22.413,5.194,7.986,36.864
891,0.787,36.718,28.154,36.331,22.427,5.356,8.108,36.532
892,0.767,36.24,28.139,36.312,22.406,5.195,7.987,36.651
893,0.774,36.379,28.197,36.293,22.402,5.194,7.864,37.18
894,0.767,36.515,28.229,36.312,22.402,5.234,7.944,38.202
895,0.757,36.602,28.233,36.312,22.413,5.153,7.945,38.985
896,0.761,36.402,28.241,36.312,22.399,5.071,7.945,39.399
897,0.774,36.553,28.241,36.341,22.413,5.233,8.108,39.972
898,0.767,36.68,28.21,36.341,22.409,5.275,8.069,40.263
899,0.78,36.748,28.108,36.341,22.413,5.235,8.028,40.469
900,0.767,36.288,28.181,36.36,22.416,5.235,8.027,40.552
901,0.764,36.389,28.201,36.341,22.41,5.194,8.027,40.35
902,0.77,36.515,28.221,36.322,22.406,5.153,7.946,39.86
903,0.787,36.574,28.248,36.341,22.406,5.193,7.945,39.286
904,0.767,36.258,28.214,36.351,22.409,5.153,7.986,38.386
905,0.78,36.379,28.186,36.332,22.392,5.031,7.864,37.238
906,0.784,36.524,28.182,36.37,22.409,5.273,7.985,36.21
907,0.767,36.564,28.139,36.351,22.403,5.154,8.068,35.061
908,0.787,36.306,28.119,36.389,22.402,5.193,7.987,33.83
909,0.793,36.476,28.134,36.37,22.406,5.194,7.905,32.598
910,0.774,36.573,28.212,36.399,22.42,5.275,8.067,31.488
911,0.777,36.833,28.19,36.351,22.403,5.113,7.946,30.136
912,0.787,36.27,28.151,36.36,22.406,5.112,7.945,29.187
913,0.774,36.418,28.088,36.379,22.406,5.152,7.986,28.527
914,0.758,36.515,28.118,36.38,22.402,5.112,7.986,27.91
915,0.774,36.296,28.142,36.38,22.402,5.152,7.986,27.294
916,0.784,36.303,28.181,36.399,22.409,5.234,8.108,27.004
917,0.771,36.447,28.147,36.389,22.409,5.235,8.109,27.041
918,0.777,36.535,28.15,36.38,22.409,5.153,8.15,27.692
919,0.78,36.363,28.22,36.418,22.42,5.315,8.232,28.756
920,0.767,36.419,28.229,36.38,22.41,5.154,8.029,29.499
921,0.774,36.563,28.151,36.37,22.403,5.153,7.987,30.319
922,0.777,36.68,28.174,36.399,22.409,5.193,8.149,31.262
923,0.771,36.173,28.154,36.38,22.406,5.194,8.11,32.126
924,0.787,36.34,28.17,36.399,22.406,5.194,8.109,32.988
925,0.793,36.476,28.221,36.409,22.409,5.316,8.272,33.566
926,0.787,36.525,28.237,36.399,22.409,5.276,8.152,34.06
927,0.79,36.142,28.206,36.418,22.409,5.276,8.11,34.878
928,0.793,36.33,28.217,36.447,22.416,5.316,8.232,36.268
929,0.771,36.409,28.19,36.4,22.403,5.154,8.111,37.461
930,0.774,36.496,28.162,36.485,22.402,5.193,8.069,38.449
931,0.774,36.247,28.162,36.419,22.409,5.234,8.069,39.109
932,0.754,36.37,28.154,36.39,22.399,5.153,8.069,39.238
933,0.777,36.534,28.236,36.409,22.406,5.234,8.069,39.117
934,0.774,36.583,28.241,36.428,22.416,5.275,8.15,38.709
935,0.774,36.21,28.264,36.428,22.406,5.195,8.15,38.014
936,0.767,36.35,28.249,36.428,22.413,5.316,8.11,37.113
937,0.793,36.495,28.253,36.476,22.42,5.358,8.313,36.128
938,0.774,36.497,28.182,36.419,22.41,5.195,8.112,34.939
939,0.784,36.267,28.166,36.418,22.403,5.153,8.028,33.707
940,0.793,36.418,28.158,36.438,22.399,5.234,8.027,32.516
941,0.797,36.506,28.181,36.428,22.409,5.235,8.068,31.406
942,0.794,36.775,28.256,36.447,22.406,5.153,7.987,30.135
943,0.79,36.25,28.214,36.457,22.402,5.234,8.108,29.187
944,0.793,36.408,28.198,36.457,22.409,5.194,8.109,28.08
945,0.79,36.505,28.151,36.457,22.406,5.194,8.028,26.93
946,0.8,36.343,28.162,36.476,22.423,5.316,8.068,26.065
947,0.777,36.342,28.107,36.429,22.406,5.195,7.946,25.04
948,0.793,36.476,28.158,36.447,22.402,5.072,7.864,24.176
949,0.787,36.583,28.166,36.438,22.402,5.193,7.863,23.435
950,0.787,36.057,28.221,36.438,22.402,5.234,7.782,22.777
951,0.78,36.185,28.217,36.457,22.406,5.113,7.781,22.283
952,0.771,36.34,28.131,36.467,22.406,5.234,7.944,21.912
953,0.774,36.419,28.162,36.486,22.413,5.153,7.823,21.38
954,0.777,36.112,28.139,36.457,22.409,5.234,7.781,20.927
955,0.777,36.282,28.173,36.515,22.42,5.316,7.903,20.638
956,0.774,36.38,28.15,36.467,22.403,5.195,7.701,20.147
957,0.774,36.448,28.17,36.457,22.402,5.153,7.618,19.898
958,0.78,36.199,28.174,36.467,22.416,5.193,7.698,19.652
959,0.774,36.312,28.217,36.438,22.403,5.194,7.658,19.609
960,0.777,36.485,28.182,36.486,22.413,5.194,7.617,19.527
961,0.797,36.564,28.092,36.505,22.409,5.397,7.739,19.567
962,0.8,36.143,28.169,36.496,22.409,5.196,7.659,19.486
963,0.794,36.282,28.178,36.496,22.409,5.194,7.698,19.729
964,0.806,36.447,28.213,36.534,22.423,5.316,7.699,20.667
965,0.803,36.439,28.198,36.477,22.399,5.114,7.496,22.018
966,0.803,36.247,28.229,36.476,22.402,5.193,7.453,23.536
967,0.813,36.408,28.245,36.496,22.409,5.194,7.534,24.933
968,0.8,36.477,28.245,36.486,22.406,5.194,7.494,26.005
969,0.794,36.564,28.171,36.515,22.409,5.153,7.453,26.869
970,0.787,36.143,28.174,36.525,22.413,5.234,7.656,27.569
971,0.787,36.263,28.158,36.506,22.413,5.275,7.536,27.86
972,0.793,36.379,28.217,36.506,22.413,5.154,7.494,27.985
973,0.803,36.572,28.252,36.544,22.416,5.275,7.616,28.068
974,0.768,36.133,28.237,36.496,22.403,5.154,7.454,27.743
975,0.78,36.263,28.19,36.515,22.402,5.112,7.412,27.537
976,0.771,36.399,28.197,36.515,22.409,5.193,7.411,27.209
977,0.767,36.179,28.186,36.486,22.406,5.112,7.452,26.759
978,0.793,36.254,28.115,36.534,22.409,5.152,7.452,26.266
979,0.79,36.408,28.138,36.554,22.409,5.234,7.574,25.692
980,0.787,36.496,28.189,36.544,22.413,5.194,7.494,25.077
981,0.797,36.075,28.213,36.535,22.406,5.153,7.453,24.583
982,0.797,36.195,28.202,36.582,22.42,5.234,7.534,24.049
983,0.79,36.264,28.139,36.535,22.403,5.072,7.372,23.353
984,0.8,36.399,28.092,36.554,22.409,5.03,7.289,22.777
985,0.803,36.026,28.118,36.535,22.413,5.151,7.329,22.242
986,0.777,36.128,28.091,36.515,22.403,5.112,7.37,21.79
987,0.79,36.282,28.165,36.544,22.413,5.152,7.37,21.338
988,0.787,36.36,28.15,36.573,22.409,5.193,7.411,21.008
989,0.793,36.054,28.205,36.554,22.409,5.153,7.371,20.598
990,0.8,36.195,28.217,36.573,22.406,5.153,7.33,20.147
991,0.787,36.35,28.178,36.612,22.416,5.275,7.451,20.061
992,0.767,36.38,28.162,36.545,22.403,5.113,7.33,19.816
993,0.764,36.112,28.158,36.554,22.409,5.03,7.37,19.692
994,0.761,36.263,28.174,36.583,22.403,5.151,7.289,19.691
995,0.751,36.36,28.205,36.564,22.402,5.071,7.329,19.772
996,0.767,36.457,28.233,36.583,22.409,5.193,7.289,20.139
997,0.774,36.084,28.21,36.593,22.409,5.234,7.41,20.63
998,0.764,36.215,28.225,36.593,22.409,5.194,7.33,21.082
999,0.767,36.331,28.19,36.593,22.409,5.153,7.37,21.615
1000,0.783,36.399,28.194,36.679,22.416,5.275,7.452,22.393
1001,0.767,36.074,28.147,36.584,22.403,5.154,7.33,23.133
1002,0.774,36.214,28.193,36.602,22.402,5.112,7.37,24.035
1003,0.771,36.35,28.213,36.612,22.402,5.193,7.452,24.979
1004,0.767,36.438,28.233,36.593,22.409,5.153,7.452,25.761
1005,0.757,36.093,28.233,36.593,22.403,5.031,7.452,26.338
1006,0.767,36.253,28.233,36.631,22.409,5.273,7.615,27.563
1007,0.764,36.331,28.237,36.622,22.409,5.195,7.698,29.487
1008,0.777,36.044,28.186,36.622,22.409,5.194,7.618,31.62
1009,0.793,36.118,28.197,36.65,22.413,5.234,7.739,33.552
1010,0.784,36.224,28.155,36.622,22.409,5.235,7.781,34.995
1011,0.761,36.321,28.217,36.631,22.406,5.113,7.618,35.781
1012,0.77,36.035,28.221,36.641,22.409,5.152,7.739,36.155
1013,0.764,36.156,28.202,36.622,22.409,5.193,7.781,36.24
1014,0.754,36.302,28.155,36.622,22.406,5.112,7.618,35.794
1015,0.764,36.399,28.15,36.66,22.413,5.193,7.82,35.505
1016,0.757,35.978,28.127,36.651,22.409,5.194,7.781,34.689
1017,0.774,36.098,28.142,36.651,22.409,5.153,7.781,33.786
1018,0.761,36.282,28.181,36.699,22.42,5.275,7.944,32.842
1019,0.757,36.312,28.158,36.661,22.413,5.195,7.864,31.775
1020,0.751,36.207,28.209,36.641,22.399,5.112,7.741,30.667
1021,0.748,36.388,28.202,36.66,22.402,5.152,7.781,29.68
1022,0.754,36.505,28.135,36.66,22.402,5.193,7.822,28.776
1023,0.757,36.602,28.17,36.699,22.399,5.072,7.781,27.832
1024,0.761,35.865,28.154,36.699,22.409,5.233,7.862,27.253
1025,0.767,36.011,28.17,36.69,22.409,5.153,7.863,26.678
1026,0.757,36.118,28.178,36.689,22.416,5.153,7.822,26.55
1027,0.761,36.205,28.201,36.709,22.416,5.234,7.822,27.281
1028,0.761,36.062,28.194,36.68,22.41,5.153,7.822,28.671
1029,0.757,36.205,28.24,36.689,22.403,5.071,7.741,30.189
1030,0.757,36.34,28.186,36.699,22.406,5.111,7.74,31.424
1031,0.751,36.38,28.186,36.766,22.406,5.112,7.781,32.859
1032,0.764,35.987,28.139,36.69,22.396,4.989,7.659,34.256
1033,0.764,36.156,28.185,36.699,22.413,5.151,7.861,36.181
1034,0.735,36.254,28.19,36.709,22.413,5.153,7.944,37.704
1035,0.747,36.283,28.217,36.718,22.409,5.153,7.864,39.021
1036,0.757,35.986,28.248,36.747,22.42,5.193,7.944,39.684
1037,0.744,36.079,28.257,36.728,22.406,5.153,7.945,40.016
1038,0.747,36.167,28.264,36.699,22.406,5.071,7.864,39.735
1039,0.744,36.187,28.183,36.709,22.409,5.07,7.944,39.366
1040,0.734,36.311,28.174,36.728,22.409,5.111,7.905,38.752
1041,0.757,36.418,28.174,36.709,22.399,4.989,7.823,37.852
1042,0.751,36.553,28.221,36.747,22.416,5.232,8.025,37.029
1043,0.751,35.864,28.264,36.747,22.413,5.153,7.987,35.964
1044,0.754,35.934,28.233,36.738,22.409,5.112,7.986,34.978
1045,0.77,36.127,28.213,36.757,22.416,5.071,7.864,34.033
1046,0.751,36.167,28.19,36.757,22.413,5.193,7.985,33.251
1047,0.767,35.928,28.186,36.748,22.399,5.112,7.864,32.186
1048,0.735,36.088,28.139,36.728,22.406,5.071,7.822,31.443
1049,0.734,36.234,28.142,36.747,22.413,5.111,7.903,30.664
1050,0.747,36.293,28.154,36.738,22.396,4.989,7.782,29.965
1051,0.757,35.929,28.201,36.776,22.413,5.151,7.944,29.389
1052,0.731,36.069,28.221,36.757,22.413,5.153,7.986,28.854
1053,0.731,36.186,28.167,36.776,22.399,5.193,7.946,28.198
1054,0.738,36.273,28.15,36.777,22.416,5.112,7.945,27.582
1055,0.738,35.996,28.119,36.786,22.41,5.112,7.986,27.088
1056,0.731,36.127,28.091,36.767,22.403,4.989,7.864,26.473
1057,0.728,36.225,28.06,36.776,22.406,5.029,7.944,26.101
1058,0.734,36.302,28.149,36.777,22.402,5.192,7.986,25.935
1059,0.734,35.987,28.193,36.748,22.399,4.99,7.946,25.648
1060,0.757,36.146,28.244,36.786,22.416,5.151,8.148,25.727
1061,0.751,36.263,28.194,36.786,22.41,5.153,8.232,25.728
1062,0.744,36.293,28.166,36.805,22.403,5.193,8.233,26.46
1063,0.78,36.092,28.178,36.825,22.416,5.153,8.233,27.89
1064,0.777,36.205,28.17,36.796,22.413,5.153,8.273,29.693
1065,0.784,36.321,28.182,36.786,22.403,5.031,8.152,31.582
1066,0.8,36.255,28.197,36.796,22.402,5.111,8.191,33.674
1067,0.79,35.9,28.198,36.825,22.409,5.152,8.192,35.321
1068,0.79,36.04,28.201,36.777,22.396,5.031,8.029,36.476
1069,0.81,36.157,28.237,36.815,22.409,5.151,8.231,37.301
1070,0.813,36.014,28.128,36.825,22.403,5.193,8.273,37.715
1071,0.81,36.08,28.169,36.815,22.413,5.112,8.274,37.72
1072,0.826,36.262,28.189,36.844,22.416,5.193,8.274,37.394
1073,0.826,36.293,28.209,36.825,22.41,5.112,8.233,36.944
1074,0.82,35.919,28.248,36.815,22.403,5.03,8.192,36.085
1075,0.833,36.05,28.225,36.825,22.409,5.07,8.151,35.223
1076,0.83,36.195,28.221,36.854,22.409,5.07,8.15,34.239
1077,0.833,36.283,28.252,36.835,22.403,4.989,8.069,33.172
1078,0.826,35.967,28.202,36.863,22.409,5.11,8.231,32.145
1079,0.81,36.127,28.139,36.883,22.409,5.112,8.151,31.037
1080,0.803,36.244,28.173,36.854,22.409,5.071,8.191,30.131
1081,0.82,36.35,28.217,36.883,22.416,5.233,8.192,29.187
1082,0.8,35.968,28.237,36.854,22.41,5.153,8.11,28.324
1083,0.807,36.108,28.225,36.854,22.403,5.031,8.028,27.299
1084,0.813,36.244,28.186,36.854,22.406,5.151,8.109,26.475
1085,0.803,36.264,28.143,36.864,22.406,5.112,8.069,25.654
1086,0.813,35.938,28.115,36.864,22.396,5.071,7.987,24.914
1087,0.823,36.079,28.095,36.883,22.413,5.152,8.108,24.54
1088,0.82,36.205,28.146,36.893,22.413,5.071,8.069,24.13
1089,0.833,36.254,28.158,36.874,22.409,5.07,7.987,23.719
1090,0.856,35.986,28.224,36.912,22.42,5.193,8.19,23.471
1091,0.853,36.07,28.217,36.864,22.413,5.072,8.029,23.022
1092,0.869,36.205,28.147,36.864,22.399,5.03,8.027,22.733
1093,0.856,36.235,28.154,36.969,22.409,5.111,8.027,22.892
1094,0.836,36.072,28.142,36.894,22.409,5.152,7.946,23.301
1095,0.833,36.243,28.193,36.893,22.406,5.071,7.945,23.874
1096,0.826,36.35,28.194,36.921,22.413,5.152,8.108,24.693
1097,0.836,36.275,28.186,36.922,22.409,5.153,8.069,25.351
1098,0.82,35.967,28.201,36.893,22.409,5.071,8.028,25.846
1099,0.813,36.156,28.268,36.931,22.42,5.274,8.109,26.217
1100,0.797,36.215,28.179,36.912,22.41,5.032,7.987,26.465
1101,0.79,35.957,28.174,36.912,22.399,5.111,7.946,26.67
1102,0.797,36.031,28.174,36.922,22.409,5.152,7.986,26.997
1103,0.81,36.176,28.182,36.931,22.409,5.193,8.027,27.285
1104,0.807,36.244,28.213,36.912,22.396,5.072,7.987,27.37
1105,0.816,36.015,28.248,36.941,22.416,5.193,8.068,27.492
1106,0.787,36.128,28.264,36.932,22.41,5.234,8.069,27.534
1107,0.8,36.253,28.28,36.951,22.406,5.235,7.987,27.616
1108,0.81,36.379,28.292,36.96,22.42,5.275,7.986,27.901
1109,0.774,35.901,28.195,36.97,22.416,5.235,8.149,28.148
1110,0.774,36.021,28.205,36.961,22.399,5.072,7.907,28.029
1111,0.774,36.166,28.159,36.951,22.406,5.152,7.945,28.027
1112,0.761,36.254,28.224,36.951,22.409,5.153,7.945,27.783
1113,0.748,35.957,28.209,36.922,22.396,5.031,7.783,27.415
1114,0.754,36.156,28.202,36.979,22.416,5.151,7.944,27.249
1115,0.741,36.282,28.174,36.97,22.41,5.193,7.945,27.003
1116,0.747,36.332,28.147,36.97,22.409,5.194,7.945,26.676
1117,0.747,35.958,28.158,36.98,22.409,5.153,7.864,26.266
1118,0.738,36.117,28.115,37.009,22.42,5.234,7.985,25.936
1119,0.741,36.215,28.162,36.971,22.406,5.113,7.905,25.364
1120,0.747,36.264,28.185,36.97,22.402,5.071,7.863,24.789
1121,0.751,35.929,28.244,36.98,22.406,5.111,7.863,24.295
1122,0.735,36.031,28.202,36.98,22.402,5.112,7.863,23.721
1123,0.767,36.224,28.17,36.999,22.409,5.152,7.863,23.268
1124,0.77,36.216,28.096,37.009,22.409,5.193,7.985,22.898
1125,0.767,36.005,28.177,36.999,22.403,5.072,7.946,22.569
1126,0.78,36.127,28.061,37.009,22.409,5.152,7.986,22.484
1127,0.78,36.282,28.188,37.038,22.423,5.234,8.027,22.687
1128,0.761,36.188,28.162,36.99,22.396,5.153,7.865,23.055
1129,0.761,35.985,28.193,36.999,22.402,5.112,7.904,23.627
1130,0.751,36.137,28.252,37.009,22.409,5.152,7.823,24.365
1131,0.735,36.234,28.151,37.009,22.409,5.112,7.944,24.982
1132,0.738,35.967,28.178,37.028,22.406,5.112,7.783,25.395
1133,0.747,36.022,28.17,37.057,22.413,5.112,7.862,25.928
1134,0.718,36.166,28.201,37.038,22.409,5.071,7.822,26.421
1135,0.708,36.263,28.201,37.038,22.406,5.152,7.863,27.483
1136,0.705,35.929,28.201,37.076,22.416,5.315,7.944,29.282
1137,0.718,36.012,28.19,37.038,22.403,5.114,7.742,31.089
1138,0.715,36.147,28.197,37.019,22.399,5.112,7.74,32.734
1139,0.711,36.225,28.198,37.038,22.399,5.152,7.659,33.97
1140,0.711,35.919,28.116,37.057,22.406,5.112,7.739,34.755
1141,0.702,36.088,28.162,37.048,22.406,5.112,7.659,34.966
1142,0.698,36.224,28.178,37.067,22.413,5.112,7.739,34.968
1143,0.695,36.302,28.217,37.077,22.406,5.152,7.699,34.643
1144,0.695,35.958,28.268,37.067,22.406,5.193,7.699,33.948
1145,0.695,36.127,28.296,37.105,22.416,5.234,7.699,33.25
1146,0.675,36.215,28.253,37.058,22.406,5.153,7.658,32.43
1147,0.685,36.273,28.241,37.057,22.406,5.112,7.576,31.609
1148,0.688,35.881,28.225,37.057,22.406,5.152,7.575,31.316
1149,0.675,36.04,28.186,37.105,22.406,5.153,7.657,31.272
1150,0.678,36.157,28.154,37.086,22.402,5.153,7.495,31.15
1151,0.698,36.225,28.22,37.105,22.416,5.275,7.616,31.271
1152,0.708,35.967,28.225,37.106,22.413,5.195,7.576,31.191
1153,0.692,36.117,28.245,37.096,22.409,5.153,7.575,31.19
1154,0.695,36.263,28.217,37.125,22.416,5.234,7.575,31.718
1155,0.675,36.255,28.166,37.096,22.406,5.153,7.535,32.212
1156,0.672,35.967,28.123,37.096,22.399,5.112,7.453,32.623
1157,0.678,36.108,28.111,37.096,22.413,5.152,7.493,33.074
1158,0.669,36.215,28.146,37.115,22.409,5.193,7.534,33.445
1159,0.682,36.178,28.119,37.096,22.399,5.153,7.412,33.652
1160,0.688,36.033,28.216,37.125,22.413,5.234,7.615,33.776
1161,0.705,36.166,28.202,37.135,22.416,5.194,7.535,33.574
1162,0.695,36.283,28.178,37.125,22.406,5.153,7.616,33.287
1163,0.708,36.025,28.1,37.192,22.416,5.275,7.617,32.918
1164,0.695,36.032,28.142,37.135,22.403,5.154,7.495,32.223
1165,0.701,36.185,28.154,37.125,22.399,5.071,7.412,31.566
1166,0.695,36.283,28.178,37.125,22.402,5.111,7.533,31.193
1167,0.672,35.871,28.15,37.135,22.399,5.071,7.494,30.946
1168,0.682,36.03,28.193,37.163,22.402,5.152,7.453,30.943
1169,0.682,36.166,28.272,37.164,22.409,5.234,7.574,31.268
1170,0.672,36.235,28.222,37.164,22.413,5.153,7.616,31.394
1171,0.675,35.919,28.186,37.212,22.409,5.193,7.535,31.517
1172,0.701,36.079,28.19,37.212,22.423,5.234,7.616,31.762
1173,0.669,36.157,28.19,37.155,22.403,5.113,7.535,31.683
1174,0.685,36.234,28.205,37.154,22.399,5.112,7.412,31.52
1175,0.672,35.861,28.268,37.154,22.402,5.112,7.493,31.315
1176,0.669,35.973,28.237,37.144,22.396,5.071,7.534,31.191
1177,0.675,36.127,28.264,37.183,22.409,5.152,7.494,31.149
1178,0.672,36.215,28.237,37.202,22.413,5.234,7.616,31.474
1179,0.672,35.957,28.186,37.164,22.409,5.153,7.657,31.721
1180,0.695,36.108,28.197,37.173,22.406,5.112,7.658,31.968
1181,0.685,36.253,28.213,37.193,22.416,5.274,7.739,32.417
1182,0.659,36.264,28.217,37.174,22.403,5.154,7.577,33.072
1183,0.691,35.842,28.256,37.193,22.402,5.112,7.494,34.786
1184,0.698,35.992,28.218,37.193,22.409,5.112,7.575,36.836
1185,0.682,36.099,28.182,37.183,22.399,5.152,7.535,38.483
1186,0.705,36.148,28.217,37.193,22.409,5.153,7.534,39.557
1187,0.689,36.014,28.19,37.231,22.409,5.275,7.616,40.259
1188,0.675,36.137,28.119,37.222,22.413,5.235,7.657,40.388
1189,0.695,36.263,28.162,37.222,22.409,5.153,7.617,40.43
1190,0.688,36.053,28.205,37.251,22.416,5.315,7.657,40.349
1191,0.682,35.773,28.201,37.193,22.406,5.154,7.536,39.901
1192,0.692,35.924,28.233,37.212,22.409,5.071,7.453,39.205
1193,0.685,36.031,28.171,37.212,22.403,5.152,7.493,38.466
1194,0.672,35.898,28.143,37.193,22.406,5.071,7.534,37.524
1195,0.682,36.03,28.088,37.241,22.413,5.233,7.534,36.579
1196,0.682,36.166,28.079,37.232,22.413,5.194,7.575,35.634
1197,0.679,36.263,28.064,37.251,22.406,5.153,7.575,34.527
1198,0.685,35.785,28.169,37.232,22.409,5.071,7.616,33.5
1199,0.705,35.933,28.189,37.279,22.423,5.314,7.739,32.554
1200,0.689,36.012,28.26,37.222,22.403,5.114,7.496,31.447
1201,0.692,36.108,28.214,37.231,22.399,5.152,7.575,30.46
1202,0.701,35.86,28.131,37.251,22.406,5.112,7.575,29.637
1203,0.688,35.992,28.142,37.27,22.413,5.193,7.575,28.775
1204,0.695,36.127,28.154,37.241,22.403,5.072,7.454,27.832
1205,0.701,36.205,28.162,37.27,22.413,5.233,7.615,27.334
1206,0.698,35.813,28.154,37.27,22.409,5.275,7.617,26.597
1207,0.701,35.953,28.17,37.27,22.406,5.235,7.535,25.818
1208,0.711,36.127,28.197,37.289,22.416,5.194,7.616,25.119
1209,0.685,36.138,28.237,37.28,22.406,5.194,7.617,24.542
1210,0.688,35.832,28.174,37.251,22.402,5.112,7.535,23.764
1211,0.701,35.982,28.182,37.27,22.402,5.071,7.494,23.187
1212,0.695,36.127,28.182,37.28,22.406,5.111,7.494,22.572
1213,0.679,36.167,28.205,37.251,22.402,5.112,7.453,21.834
1214,0.695,35.88,28.244,37.28,22.409,5.274,7.656,21.338
1215,0.688,36.011,28.249,37.299,22.413,5.195,7.576,20.723
1216,0.682,36.128,28.237,37.318,22.409,5.194,7.657,20.189
1217,0.701,36.177,28.241,37.309,22.413,5.194,7.739,19.614
1218,0.695,35.813,28.256,37.309,22.42,5.194,7.821,19.283
1219,0.714,35.934,28.175,37.29,22.403,5.072,7.7,18.589
1220,0.715,36.06,28.178,37.29,22.402,5.07,7.78,18.175
1221,0.724,35.955,28.174,37.299,22.406,5.111,7.862,17.765
1222,0.721,35.839,28.205,37.28,22.396,4.989,7.782,17.273
1223,0.744,36.011,28.283,37.309,22.409,5.192,7.984,17.105
1224,0.757,36.099,28.288,37.328,22.413,5.194,7.946,16.737
1225,0.757,35.783,28.249,37.319,22.403,5.153,8.026,16.49
1226,0.774,35.857,28.241,37.328,22.409,5.193,7.987,16.203
1227,0.764,35.973,28.206,37.328,22.416,5.234,8.027,16.159
1228,0.777,36.05,28.166,37.309,22.399,5.072,7.987,15.915
1229,0.8,35.735,28.162,37.319,22.399,5.03,8.108,16.034
1230,0.816,35.856,28.158,37.319,22.406,5.192,8.109,16.158
1231,0.82,35.963,28.217,37.299,22.402,4.99,8.028,16.362
1232,0.833,36.089,28.237,37.338,22.409,5.151,8.19,16.608
1233,0.833,35.764,28.186,37.328,22.409,5.153,8.192,17.261
1234,0.836,35.904,28.123,37.338,22.409,5.153,8.192,17.796
1235,0.869,36.059,28.138,37.348,22.413,5.071,8.11,18.371
1236,0.924,36.109,28.158,37.367,22.409,5.193,8.191,19.027
1237,0.954,35.755,28.142,37.329,22.399,4.99,8.151,19.603
1238,1.036,35.933,28.146,37.338,22.399,5.029,8.11,20.666
1239,1.092,36.06,28.201,37.367,22.409,5.07,8.191,21.855
1240,1.112,36.08,28.213,37.329,22.396,5.03,8.11,22.884
1241,1.148,35.802,28.205,37.367,22.42,5.111,8.232,23.91
1242,1.148,35.953,28.127,37.396,22.416,5.152,8.314,24.653
1243,1.168,36.089,28.146,37.367,22.41,5.193,8.234,25.188
1244,1.158,36.128,28.158,37.386,22.403,5.072,8.233,25.519
1245,1.155,36.062,28.185,37.386,22.416,5.193,8.314,25.888
1246,1.142,36.186,28.193,37.338,22.403,5.112,8.193,25.77
1247,1.103,36.311,28.225,37.367,22.399,5.03,8.192,25.687
1248,1.093,36.332,28.221,37.377,22.409,5.03,8.151,25.565
1249,1.096,35.565,28.229,37.358,22.396,5.07,8.069,25.197
1250,1.125,35.749,28.21,37.396,22.413,5.152,8.191,24.828
1251,1.125,35.876,28.178,37.473,22.406,5.193,8.232,24.458
1252,1.174,35.819,28.178,37.387,22.402,5.072,8.233,23.967
1253,1.227,35.79,28.178,37.396,22.402,5.193,8.273,23.311
1254,1.273,35.934,28.225,37.425,22.416,5.316,8.436,22.858
1255,1.296,36.021,28.221,37.387,22.399,5.073,8.194,22.121
1256,1.296,35.715,28.256,37.396,22.399,5.111,8.314,21.504
1257,1.329,35.798,28.249,37.386,22.406,5.03,8.356,20.969
1258,1.313,35.924,28.245,37.386,22.402,5.07,8.356,20.435
1259,1.332,36.031,28.21,37.425,22.416,5.111,8.397,19.901
1260,1.283,35.754,28.182,37.425,22.413,5.193,8.478,19.693
1261,1.228,35.885,28.197,37.425,22.409,5.072,8.438,19.569
1262,1.182,36.002,28.209,37.425,22.409,5.152,8.479,19.811
1263,1.119,36.118,28.272,37.463,22.423,5.193,8.56,20.139
1264,1.021,35.716,28.253,37.416,22.399,5.031,8.399,20.183
1265,0.923,35.866,28.245,37.415,22.402,5.07,8.356,20.671
1266,0.837,35.992,28.221,37.435,22.409,5.03,8.356,21.652
1267,0.742,36.031,28.233,37.416,22.399,4.989,8.356,23.451
1268,0.695,35.735,28.178,37.454,22.406,5.11,8.397,25.583
1269,0.646,35.885,28.186,37.483,22.413,5.152,8.478,27.637
1270,0.597,36.011,28.17,37.435,22.413,5.153,8.357,29.162
1271,0.57,36.07,28.209,37.464,22.406,5.071,8.397,30.6
1272,0.57,35.668,28.26,37.483,22.416,5.233,8.519,31.956
1273,0.56,35.779,28.163,37.454,22.403,5.072,8.358,32.742
1274,0.56,35.924,28.146,37.454,22.409,5.07,8.315,33.32
1275,0.567,35.973,28.115,37.473,22.406,5.152,8.356,33.813
1276,0.564,35.744,28.123,37.464,22.396,5.112,8.275,33.981
1277,0.612,35.933,28.111,37.483,22.416,5.152,8.274,33.942
1278,0.626,36.04,28.185,37.502,22.413,5.193,8.355,33.697
1279,0.649,36.032,28.174,37.483,22.403,5.112,8.356,33.248
1280,0.681,35.667,28.244,37.483,22.409,5.234,8.275,32.674
1281,0.714,35.827,28.214,37.521,22.42,5.235,8.436,32.14
1282,0.728,35.915,28.143,37.464,22.403,5.153,8.275,31.402
1283,0.734,35.858,28.193,37.493,22.399,5.071,8.193,30.948
1284,0.751,35.8,28.19,37.493,22.409,5.152,8.151,30.496
1285,0.751,35.905,28.174,37.464,22.396,5.112,8.11,29.963
1286,0.764,36.059,28.201,37.521,22.413,5.193,8.191,29.511
1287,0.754,35.687,28.182,37.522,22.409,5.194,8.192,29.059
1288,0.757,35.76,28.217,37.522,22.409,5.234,8.192,28.485
1289,0.751,35.914,28.28,37.522,22.413,5.153,8.192,28.154
1290,0.761,36.011,28.194,37.57,22.413,5.356,8.314,28.395
1291,0.735,35.619,28.194,37.522,22.396,5.114,8.152,28.519
1292,0.741,35.75,28.178,37.512,22.406,5.152,8.069,28.845
1293,0.734,35.885,28.213,37.541,22.399,5.193,8.109,29.54
1294,0.725,35.954,28.217,37.503,22.399,5.112,8.109,30.279
1295,0.724,35.715,28.233,37.541,22.406,5.152,8.232,31.018
1296,0.721,35.837,28.241,37.56,22.413,5.193,8.314,31.798
1297,0.721,35.963,28.245,37.561,22.409,5.234,8.234,32.212
1298,0.728,36.012,28.237,37.561,22.409,5.194,8.273,32.501
1299,0.731,35.629,28.178,37.589,22.416,5.316,8.477,33.073
1300,0.721,35.759,28.162,37.532,22.399,5.114,8.276,33.973
1301,0.734,35.895,28.178,37.56,22.406,5.112,8.274,35.121
1302,0.731,35.963,28.232,37.58,22.406,5.193,8.314,35.986
1303,0.728,35.724,28.264,37.58,22.396,5.194,8.356,36.727
1304,0.741,35.894,28.257,37.59,22.409,5.194,8.315,36.937
1305,0.741,36.011,28.241,37.599,22.409,5.194,8.437,37.142
1306,0.754,36.041,28.221,37.58,22.409,5.194,8.316,37.063
1307,0.744,35.744,28.174,37.599,22.406,5.153,8.356,36.9
1308,0.751,35.923,28.147,37.628,22.427,5.315,8.478,36.654
1309,0.741,36.002,28.17,37.59,22.399,5.073,8.154,35.96
1310,0.731,36.022,28.193,37.59,22.409,5.152,8.15,35.303
1311,0.728,35.677,28.229,37.609,22.403,5.153,8.191,34.483
1312,0.728,35.779,28.229,37.58,22.406,5.071,8.232,33.54
1313,0.731,35.933,28.178,37.609,22.406,5.111,8.151,32.514
1314,0.731,35.82,28.119,37.628,22.409,5.234,8.273,31.569
1315,0.721,35.78,28.119,37.628,22.409,5.153,8.233,30.462
1316,0.721,35.914,28.138,37.628,22.409,5.112,8.192,29.434
1317,0.731,36.069,28.193,37.734,22.42,5.274,8.273,28.448
1318,0.712,35.639,28.131,37.61,22.406,5.195,8.111,27.503
1319,0.734,35.711,28.189,37.599,22.402,5.072,8.15,26.477
1320,0.738,35.875,28.217,37.618,22.406,5.152,8.15,25.694
1321,0.725,35.944,28.205,37.619,22.402,5.153,8.191,25.036
1322,0.724,35.571,28.088,37.657,22.402,5.153,8.11,24.542
1323,0.734,35.72,28.169,37.657,22.409,5.193,8.191,24.577
1324,0.734,35.847,28.162,37.638,22.403,5.194,8.232,24.618
1325,0.744,35.934,28.193,37.657,22.406,5.194,8.192,24.741
1326,0.767,35.666,28.225,37.686,22.413,5.316,8.273,25.027
1327,0.735,35.769,28.241,37.658,22.406,5.154,8.274,26.005
1328,0.734,35.895,28.256,37.638,22.399,5.071,8.152,27.398
1329,0.734,35.973,28.276,37.657,22.402,5.07,8.273,29.038
1330,0.728,35.6,28.194,37.677,22.409,5.111,8.355,30.518
1331,0.738,35.74,28.174,37.648,22.399,5.112,8.193,31.468
1332,0.751,35.875,28.197,37.696,22.416,5.193,8.436,32.372
1333,0.735,35.934,28.201,37.677,22.41,5.194,8.438,32.543
1334,0.725,35.695,28.237,37.677,22.416,5.112,8.397,32.504
1335,0.734,35.875,28.253,37.696,22.413,5.234,8.438,32.179
1336,0.725,35.954,28.257,37.706,22.406,5.194,8.519,31.85
1337,0.731,35.993,28.229,37.687,22.406,5.112,8.439,31.034
1338,0.731,35.648,28.252,37.686,22.399,5.152,8.438,30.334
1339,0.734,35.779,28.19,37.686,22.409,5.153,8.438,29.636
1340,0.738,35.914,28.17,37.677,22.396,5.031,8.397,28.653
1341,0.744,35.944,28.174,37.715,22.413,5.192,8.519,27.871
1342,0.741,35.657,28.201,37.725,22.413,5.194,8.479,27.009
1343,0.751,35.769,28.221,37.725,22.413,5.153,8.479,26.269
1344,0.767,35.905,28.221,37.725,22.409,5.153,8.438,25.53
1345,0.754,35.762,28.241,37.735,22.413,5.234,8.519,25.156
1346,0.757,35.713,28.194,37.696,22.403,5.113,8.317,24.502
1347,0.757,35.846,28.221,37.725,22.402,5.071,8.234,24.17
1348,0.751,35.953,28.167,37.735,22.409,5.111,8.273,23.964
1349,0.741,35.561,28.185,37.716,22.396,5.071,8.152,23.799
1350,0.754,35.691,28.209,37.763,22.413,5.193,8.273,24.123
1351,0.748,35.827,28.225,37.754,22.409,5.194,8.274,24.329
1352,0.747,35.905,28.252,37.735,22.409,5.153,8.233,24.657
1353,0.747,35.551,28.19,37.754,22.409,5.071,8.233,24.944
1354,0.738,35.691,28.158,37.802,22.42,5.233,8.314,25.313
1355,0.734,35.808,28.115,37.755,22.406,5.032,8.112,25.317
1356,0.734,35.895,28.134,37.764,22.406,5.07,8.069,25.439
1357,0.744,35.522,28.177,37.783,22.402,5.111,8.028,25.603
1358,0.744,35.643,28.186,37.745,22.396,4.989,7.987,26.092
1359,0.754,35.807,28.201,37.783,22.409,5.151,8.027,26.422
1360,0.744,35.857,28.264,37.793,22.409,5.193,8.149,26.751
1361,0.754,35.531,28.198,37.783,22.409,5.112,8.069,26.917
1362,0.738,35.691,28.127,37.802,22.409,5.152,8.15,26.919
1363,0.76,35.827,28.154,37.822,22.42,5.234,8.273,27.0
1364,0.757,35.857,28.146,37.784,22.403,5.032,8.071,26.838
1365,0.761,35.627,28.181,37.793,22.402,5.03,8.109,26.633
1366,0.774,35.759,28.186,37.793,22.406,5.07,8.191,26.428
1367,0.754,35.866,28.193,37.783,22.409,5.03,8.11,26.141
1368,0.764,35.934,28.229,37.812,22.409,5.07,8.028,26.098
1369,0.757,35.59,28.256,37.822,22.413,5.152,8.19,26.3
1370,0.761,35.74,28.222,37.822,22.413,5.153,8.151,26.425
1371,0.735,35.847,28.213,37.841,22.409,4.99,8.232,26.548
1372,0.773,35.896,28.217,37.86,22.42,5.151,8.314,26.874
1373,0.748,35.656,28.17,37.794,22.396,5.031,8.071,26.837
1374,0.76,35.807,28.217,37.812,22.406,5.03,8.109,26.959
1375,0.754,35.915,28.252,37.831,22.409,4.989,8.069,27.163
1376,0.738,35.724,28.233,37.822,22.406,5.07,8.109,27.246
1377,0.754,35.712,28.253,37.832,22.409,5.03,8.109,27.166
1378,0.751,35.837,28.276,37.841,22.413,5.07,8.191,27.084
1379,0.757,35.944,28.206,37.851,22.409,5.03,8.11,26.798
1380,0.754,35.532,28.19,37.832,22.409,5.03,8.109,26.592
1381,0.774,35.662,28.194,37.879,22.416,5.233,8.191,26.346
1382,0.758,35.74,28.205,37.832,22.41,5.032,8.11,26.019
1383,0.754,35.856,28.248,37.832,22.403,5.03,8.028,25.69
1384,0.774,35.57,28.268,37.851,22.409,4.989,8.068,25.402
1385,0.777,35.682,28.249,37.851,22.406,5.029,8.069,25.115
1386,0.777,35.837,28.221,37.861,22.409,5.03,7.987,24.583
1387,0.79,35.934,28.237,37.87,22.413,5.151,8.068,24.253
1388,0.79,35.551,28.221,37.87,22.409,5.031,8.028,23.802
1389,0.761,35.701,28.194,37.947,22.406,5.03,8.027,23.431
1390,0.767,35.856,28.182,37.909,22.42,5.192,8.109,22.899
1391,0.751,35.886,28.201,37.861,22.403,5.072,7.987,22.365
1392,0.777,35.513,28.244,37.861,22.406,4.948,7.905,21.75
1393,0.771,35.701,28.206,37.88,22.413,5.069,7.945,21.256
1394,0.748,35.789,28.17,37.861,22.406,5.03,7.945,20.763
1395,0.751,35.876,28.162,37.899,22.402,5.03,7.945,20.149
1396,0.741,35.541,28.131,37.89,22.413,5.151,8.067,19.695
1397,0.757,35.701,28.154,37.899,22.409,5.112,8.028,19.284
1398,0.764,35.818,28.193,37.909,22.413,5.071,8.027,18.792
1399,0.767,35.895,28.221,37.928,22.416,5.152,8.231,18.34
1400,0.761,35.58,28.233,37.89,22.406,4.99,8.029,17.766
1401,0.774,35.72,28.249,37.89,22.396,4.988,8.068,17.273
1402,0.767,35.837,28.179,37.909,22.409,5.029,8.109,16.902
1403,0.767,35.944,28.182,37.938,22.406,5.07,8.109,16.573
1404,0.777,35.628,28.17,37.909,22.402,5.07,8.069,16.163
1405,0.79,35.769,28.189,37.938,22.413,5.111,8.191,16.118
1406,0.793,35.866,28.174,37.919,22.409,5.112,8.192,15.996
1407,0.774,35.647,28.174,37.928,22.409,5.071,8.192,15.913
1408,0.793,35.664,28.193,37.957,22.423,5.152,8.273,15.994
1409,0.774,35.75,28.252,37.919,22.403,5.031,8.233,15.872
1410,0.787,35.856,28.218,37.919,22.402,4.989,8.07,15.831
1411,0.767,35.474,28.077,37.957,22.409,5.029,8.15,15.749
1412,0.77,35.576,28.177,37.938,22.409,5.03,8.15,15.667
1413,0.78,35.72,28.154,37.929,22.403,4.948,8.11,15.381
1414,0.777,35.818,28.217,37.948,22.42,5.15,8.232,15.501
1415,0.78,35.493,28.217,37.938,22.413,5.071,8.233,15.299
1416,0.784,35.624,28.248,37.948,22.409,5.03,8.111,15.093
1417,0.8,35.788,28.253,37.986,22.423,5.111,8.191,14.969
1418,0.771,35.838,28.264,37.939,22.41,4.989,8.11,14.765
1419,0.774,35.522,28.233,37.929,22.403,4.948,8.109,14.518
1420,0.777,35.701,28.229,37.957,22.409,5.029,8.109,14.313
1421,0.78,35.818,28.206,37.938,22.403,4.989,8.109,14.189
1422,0.78,35.886,28.233,37.948,22.399,4.948,7.947,13.984
1423,0.8,35.493,28.288,37.967,22.409,5.069,8.148,14.104
1424,0.816,35.624,28.245,37.967,22.409,5.111,8.15,14.309
1425,0.807,35.759,28.217,37.967,22.409,5.03,8.15,14.717
1426,0.826,35.857,28.256,38.005,22.42,5.111,8.273,15.616
1427,0.804,35.57,28.237,37.958,22.399,4.989,8.111,16.56
1428,0.787,35.711,28.198,37.967,22.402,4.988,7.987,17.627
1429,0.797,35.856,28.221,37.977,22.409,5.07,8.108,18.938
1430,0.784,35.886,28.186,37.967,22.403,4.989,8.15,20.09
1431,0.787,35.388,28.229,37.967,22.402,4.948,8.028,20.915
1432,0.79,35.546,28.252,37.977,22.413,5.029,8.149,22.102
1433,0.797,35.663,28.194,37.977,22.409,4.989,8.191,23.781
1434,0.781,35.942,28.131,37.986,22.409,5.07,8.151,26.928
1435,0.787,35.647,28.13,38.025,22.42,5.152,8.273,31.798
1436,0.771,35.779,28.091,37.977,22.41,5.031,8.111,37.62
1437,0.774,35.885,28.122,37.986,22.406,4.948,8.028,42.679
1438,0.797,35.589,28.224,37.986,22.409,5.029,8.109,46.511
1439,0.79,35.548,28.186,37.986,22.413,5.07,8.109,49.111
1440,0.8,35.682,28.279,37.986,22.403,4.948,8.069,50.966
1441,0.813,35.827,28.226,38.006,22.413,5.069,8.191,52.367
1442,0.807,35.531,28.163,38.006,22.413,5.111,8.232,53.072
1443,0.803,35.653,28.162,38.006,22.409,5.03,8.111,53.16
1444,0.813,35.817,28.189,38.035,22.42,5.151,8.191,52.633
1445,0.787,35.867,28.201,38.006,22.406,5.112,7.988,51.692
1446,0.813,35.397,28.205,37.977,22.402,4.908,7.946,50.422
1447,0.81,35.546,28.233,38.015,22.406,5.028,8.026,49.312
1448,0.803,35.643,28.213,37.977,22.409,5.07,8.068,48.447
1449,0.813,35.759,28.272,37.996,22.406,5.03,8.028,47.3
1450,0.82,35.511,28.218,38.015,22.413,5.07,8.027,46.475
1451,0.82,35.653,28.233,38.063,22.409,5.07,7.987,45.979
1452,0.813,35.779,28.163,38.006,22.409,5.03,7.986,45.933
1453,0.794,35.866,28.217,38.025,22.42,5.192,8.108,46.787
1454,0.78,35.742,28.209,38.006,22.403,5.031,7.906,47.649
1455,0.787,35.895,28.221,38.006,22.406,4.989,7.904,48.674
1456,0.784,36.03,28.252,37.996,22.409,5.07,7.945,49.417
1457,0.79,36.07,28.245,37.987,22.403,5.03,7.864,49.871
1458,0.797,35.466,28.253,38.015,22.406,4.989,7.944,50.323
1459,0.777,35.595,28.194,38.035,22.409,5.07,8.026,50.734
1460,0.784,35.73,28.186,38.025,22.406,5.03,7.946,50.779
1461,0.806,35.77,28.213,38.006,22.413,5.07,7.945,50.454
1462,0.79,35.626,28.252,38.054,22.416,5.152,8.108,50.207
1463,0.784,35.721,28.272,38.016,22.41,5.031,7.987,49.879
1464,0.79,35.837,28.284,37.996,22.406,4.989,7.905,50.689
1465,0.797,36.174,28.233,38.025,22.409,5.07,7.945,52.079
1466,0.797,35.496,28.206,37.987,22.399,4.989,7.783,53.516
1467,0.816,35.643,28.217,38.034,22.409,5.11,7.984,54.588
1468,0.797,35.769,28.163,38.025,22.413,5.152,7.864,55.168
1469,0.794,35.607,28.182,38.025,22.409,5.071,7.863,55.621
1470,0.803,35.625,28.186,38.035,22.409,5.111,7.782,55.666
1471,0.787,35.75,28.248,38.064,22.42,5.152,7.944,55.463
1472,0.78,35.828,28.245,37.987,22.399,5.031,7.701,54.485
1473,0.797,35.522,28.198,38.006,22.402,4.989,7.74,53.459
1474,0.797,35.614,28.151,38.044,22.406,5.029,7.781,52.757
1475,0.781,35.73,28.115,38.006,22.396,4.907,7.659,52.466
1476,0.787,35.875,28.119,38.054,22.413,5.069,7.78,52.463
1477,0.78,35.685,28.134,38.064,22.42,4.989,7.74,52.138
1478,0.79,35.827,28.17,38.054,22.416,5.07,7.821,51.484
1479,0.803,35.963,28.205,38.054,22.406,5.111,7.781,50.339
1480,0.797,36.031,28.241,38.054,22.416,5.193,7.822,49.067
1481,0.79,35.524,28.217,38.016,22.399,4.99,7.659,47.469
1482,0.774,35.691,28.143,38.044,22.406,4.988,7.658,45.745
1483,0.79,35.827,28.193,38.064,22.413,5.029,7.78,44.02
1484,0.78,35.867,28.194,38.026,22.403,4.907,7.659,42.255
1485,0.8,35.704,28.186,38.064,22.416,5.109,7.739,40.651
1486,0.807,35.856,28.217,38.045,22.413,5.03,7.862,39.131
1487,0.797,35.973,28.225,38.045,22.409,5.07,7.7,37.815
1488,0.8,36.06,28.225,38.045,22.406,4.989,7.78,36.541
1489,0.797,35.725,28.276,38.073,22.42,5.151,7.944,35.471
1490,0.784,35.847,28.202,38.045,22.41,4.949,7.742,34.282
1491,0.784,35.982,28.201,38.045,22.406,5.029,7.821,33.294
1492,0.787,36.022,28.19,38.045,22.409,5.03,7.822,32.593
1493,0.767,35.744,28.201,38.016,22.399,4.907,7.822,31.854
1494,0.777,35.904,28.244,38.073,22.416,5.069,7.944,31.359
1495,0.787,36.031,28.225,38.064,22.41,5.07,7.945,30.704
1496,0.784,36.348,28.272,38.064,22.409,5.111,7.986,30.128
1497,0.79,35.939,28.269,38.074,22.409,4.989,7.946,29.39
1498,0.797,36.088,28.284,38.074,22.416,5.11,8.026,28.854
1499,0.777,36.176,28.187,38.045,22.41,4.949,7.865,27.995
1500,0.787,36.024,28.178,38.054,22.409,4.947,7.904,27.336
1501,0.787,36.051,28.178,38.083,22.406,5.029,7.863,26.638
1502,0.784,36.166,28.232,38.055,22.402,4.948,7.863,26.062
1503,0.8,36.292,28.28,38.083,22.406,4.988,7.863,25.406
1504,0.8,35.919,28.249,38.093,22.423,5.029,7.944,24.993
1505,0.807,36.011,28.218,38.074,22.413,5.03,7.945,24.46
1506,0.81,36.128,28.19,38.074,22.409,5.03,7.823,24.048
1507,0.82,36.253,28.217,38.121,22.42,5.111,7.944,23.719
1508,0.8,35.996,28.159,38.065,22.403,4.949,7.783,23.065
1509,0.794,36.137,28.201,38.074,22.409,4.988,7.659,22.611
1510,0.787,36.263,28.178,38.093,22.413,4.988,7.739,22.159
1511,0.78,36.331,28.26,38.074,22.409,4.948,7.74,21.83
1512,0.8,36.073,28.237,38.054,22.409,4.947,7.699,21.42
1513,0.794,36.224,28.186,38.093,22.409,4.988,7.78,21.293
1514,0.803,36.36,28.1,38.103,22.406,5.029,7.7,21.089
1515,0.79,36.409,28.099,38.083,22.409,4.989,7.699,20.965
1516,0.787,36.218,28.173,38.141,22.423,5.11,7.78,20.964
1517,0.787,36.331,28.174,38.122,22.403,4.949,7.578,20.761
1518,0.8,36.428,28.186,38.074,22.409,4.907,7.575,20.474
1519,0.8,36.496,28.182,38.083,22.409,4.947,7.535,20.39
1520,0.781,36.094,28.236,38.093,22.413,4.988,7.575,20.104
1521,0.806,36.234,28.206,38.112,22.406,4.907,7.494,19.817
1522,0.803,36.379,28.12,38.112,22.416,5.069,7.656,19.773
1523,0.803,36.409,28.185,38.112,22.41,4.989,7.576,19.366
1524,0.807,36.448,28.182,38.093,22.409,4.988,7.616,19.078
1525,0.829,36.611,28.213,38.131,22.416,4.988,7.617,18.831
1526,0.804,36.671,28.205,38.103,22.41,4.988,7.657,18.584
1527,0.803,36.901,28.205,38.093,22.403,4.948,7.576,18.135
1528,0.8,36.156,28.201,38.103,22.409,4.907,7.575,17.845
1529,0.81,36.282,28.268,38.122,22.409,4.987,7.535,17.761
1530,0.794,36.37,28.218,38.084,22.403,4.866,7.453,17.638
1531,0.803,36.38,28.221,38.122,22.413,4.906,7.574,17.759
1532,0.816,36.438,28.217,38.132,22.409,4.987,7.616,17.72
1533,0.803,36.563,28.217,38.122,22.409,4.907,7.576,17.76
1534,0.807,36.708,28.248,38.132,22.409,4.947,7.494,17.76
1535,0.787,36.259,28.268,38.122,22.413,4.988,7.575,17.801
1536,0.771,36.36,28.237,38.112,22.399,4.866,7.494,17.558
1537,0.793,36.524,28.26,38.122,22.413,4.946,7.494,17.677
1538,0.8,36.593,28.257,38.132,22.406,4.866,7.575,17.922
1539,0.784,36.363,28.171,38.113,22.399,4.865,7.454,18.169
1540,0.793,36.524,28.174,38.131,22.409,5.028,7.696,18.7
1541,0.793,36.66,28.197,38.151,22.406,4.989,7.78,19.193
1542,0.79,36.719,28.233,38.151,22.413,5.029,7.7,19.767
1543,0.813,36.346,28.28,38.161,22.413,4.907,7.78,20.505
1544,0.82,36.428,28.245,38.142,22.413,5.028,7.862,21.325
1545,0.826,36.554,28.21,38.141,22.403,4.907,7.741,21.821
1546,0.807,36.632,28.186,38.122,22.406,4.906,7.781,22.314
1547,0.794,36.326,28.162,38.16,22.413,4.947,7.74,22.807
1548,0.8,36.457,28.115,38.132,22.399,4.825,7.659,22.934
1549,0.813,36.631,28.154,38.17,22.409,4.946,7.861,23.138
1550,0.8,36.671,28.162,38.17,22.413,4.988,7.822,23.181
1551,0.803,36.326,28.248,38.17,22.409,4.988,7.781,23.181
1552,0.829,36.495,28.268,38.151,22.409,4.907,7.822,23.019
1553,0.81,36.583,28.202,38.161,22.409,5.028,7.944,22.936
1554,0.781,36.603,28.131,38.142,22.396,4.907,7.823,22.528
1555,0.767,36.392,28.111,38.151,22.413,4.947,7.822,22.402
1556,0.77,36.534,28.224,38.161,22.409,4.907,7.781,22.035
1557,0.764,36.651,28.167,38.161,22.399,4.825,7.7,21.666
1558,0.79,36.901,28.193,38.18,22.409,5.027,7.943,21.418
1559,0.777,36.482,28.229,38.171,22.409,4.989,8.026,21.171
1560,0.777,36.612,28.276,38.17,22.409,4.988,8.027,20.763
1561,0.806,36.747,28.237,38.17,22.409,4.907,8.149,20.474
1562,0.8,36.451,28.163,38.199,22.413,5.028,8.273,20.308
1563,0.777,36.458,28.178,38.18,22.403,4.826,8.152,19.941
1564,0.784,36.611,28.193,38.171,22.399,4.946,8.273,19.652
1565,0.8,36.728,28.213,38.17,22.416,4.947,8.274,19.446
1566,0.797,36.288,28.213,38.132,22.396,4.825,8.274,19.119
1567,0.797,36.418,28.256,38.199,22.409,4.905,8.477,18.953
1568,0.79,36.534,28.257,38.18,22.416,4.906,8.479,18.667
1569,0.774,36.631,28.276,38.18,22.403,4.947,8.52,18.461
1570,0.79,36.373,28.183,38.18,22.409,5.029,8.479,18.296
1571,0.78,36.467,28.19,38.199,22.416,5.03,8.56,18.132
1572,0.787,36.573,28.178,38.171,22.403,4.907,8.399,18.008
1573,0.784,36.68,28.209,38.17,22.406,4.906,8.438,18.17
1574,0.78,36.288,28.264,38.18,22.409,4.906,8.438,18.374
1575,0.771,36.408,28.253,38.161,22.396,4.825,8.357,18.661
1576,0.767,36.592,28.28,38.209,22.416,4.946,8.437,18.949
1577,0.767,36.632,28.261,38.219,22.413,4.947,8.438,19.155
1578,0.764,36.364,28.253,38.209,22.413,4.866,8.397,19.645
1579,0.777,36.553,28.206,38.219,22.409,4.946,8.397,20.503
1580,0.777,36.632,28.209,38.209,22.413,4.988,8.438,21.691
1581,0.764,36.69,28.217,38.18,22.406,4.826,8.235,22.394
1582,0.764,36.211,28.272,38.18,22.409,4.905,8.314,23.296
1583,0.777,36.388,28.241,38.199,22.403,4.987,8.274,23.874
1584,0.78,36.476,28.186,38.18,22.399,4.785,8.274,24.246
1585,0.771,36.544,28.143,38.199,22.413,4.986,8.314,24.859
1586,0.783,36.44,28.119,38.228,22.409,4.948,8.356,25.435
1587,0.771,36.573,28.111,38.219,22.409,4.947,8.275,26.172
1588,0.774,36.718,28.185,38.238,22.413,4.988,8.355,26.871
1589,0.761,36.815,28.182,38.219,22.409,4.948,8.356,27.975
1590,0.767,36.366,28.236,38.209,22.403,4.866,8.275,29.247
1591,0.754,36.505,28.217,38.209,22.409,4.865,8.274,30.967
1592,0.744,36.612,28.143,38.209,22.406,4.906,8.274,33.139
1593,0.764,36.268,28.17,38.2,22.413,4.825,8.193,35.885
1594,0.754,36.303,28.189,38.209,22.409,4.905,8.273,38.677
1595,0.751,36.437,28.194,38.219,22.409,4.987,8.314,40.738
1596,0.751,36.525,28.229,38.209,22.416,4.907,8.274,42.222
1597,0.777,36.219,28.256,38.257,22.42,5.15,8.314,43.416
1598,0.754,36.302,28.21,38.21,22.416,4.949,8.234,44.038
1599,0.754,36.418,28.272,38.19,22.41,4.866,8.151,44.166
1600,0.748,36.515,28.202,38.209,22.409,4.906,8.191,44.086
1601,0.741,36.209,28.186,38.219,22.416,4.987,8.273,43.597
1602,0.738,36.388,28.17,38.228,22.403,4.907,8.111,42.698
1603,0.773,36.524,28.213,38.238,22.413,5.069,8.191,41.713
1604,0.774,36.603,28.272,38.238,22.416,4.948,8.232,40.402
1605,0.767,36.191,28.284,38.238,22.41,5.029,8.111,39.088
1606,0.79,36.369,28.28,38.248,22.416,4.989,8.109,37.733
1607,0.758,36.457,28.3,38.229,22.416,4.988,8.109,36.622
1608,0.761,36.516,28.284,38.2,22.41,4.907,7.947,35.554
1609,0.767,36.113,28.179,38.209,22.409,4.906,7.945,34.892
1610,0.767,36.282,28.209,38.219,22.413,4.906,8.026,34.642
1611,0.767,36.38,28.174,38.209,22.403,4.906,7.865,34.802
1612,0.796,36.476,28.268,38.247,22.416,4.987,8.026,35.414
1613,0.784,36.218,28.253,38.229,22.41,5.029,7.946,36.192
1614,0.78,36.36,28.241,38.248,22.416,4.989,7.945,36.85
1615,0.761,36.495,28.19,38.219,22.413,4.988,7.905,37.182
1616,0.754,36.497,28.186,38.267,22.416,5.07,7.985,37.592
1617,0.748,36.238,28.166,38.229,22.41,4.908,7.783,38.125
1618,0.767,36.389,28.127,38.238,22.409,4.906,7.781,38.903
1619,0.757,36.515,28.216,38.229,22.416,5.028,7.781,39.52
1620,0.735,36.554,28.198,38.19,22.403,4.826,7.659,39.933
1621,0.754,36.219,28.268,38.238,22.416,5.027,7.78,40.018
1622,0.793,36.36,28.253,38.257,22.416,5.07,7.822,39.816
1623,0.787,36.447,28.19,38.248,22.42,4.989,7.741,39.164
1624,0.787,36.199,28.162,38.248,22.416,4.988,7.699,38.344
1625,0.784,36.225,28.103,38.277,22.423,5.07,7.821,37.4
1626,0.784,36.331,28.161,38.267,22.41,4.948,7.659,36.13
1627,0.777,36.438,28.201,38.325,22.403,4.866,7.617,34.979
1628,0.787,36.17,28.178,38.239,22.402,4.946,7.657,33.911
1629,0.771,36.235,28.209,38.219,22.399,4.907,7.576,32.559
1630,0.777,36.427,28.264,38.257,22.413,5.028,7.616,31.447
1631,0.79,36.515,28.222,38.267,22.413,5.03,7.657,30.46
1632,0.787,36.027,28.206,38.325,22.413,5.03,7.658,29.393
1633,0.777,36.156,28.198,38.249,22.413,5.03,7.617,28.488
1634,0.774,36.302,28.225,38.296,22.42,5.151,7.739,27.747
1635,0.758,36.37,28.233,38.239,22.41,4.909,7.537,26.724
1636,0.751,36.131,28.241,38.248,22.406,4.947,7.616,25.981
1637,0.767,36.282,28.225,38.257,22.402,4.907,7.657,25.364
1638,0.757,36.38,28.221,38.229,22.406,4.906,7.698,24.626
1639,0.767,36.486,28.256,38.257,22.409,4.987,7.821,24.172
1640,0.767,36.094,28.163,38.258,22.409,4.988,7.781,23.679
1641,0.774,36.243,28.17,38.267,22.413,4.988,7.903,23.186
1642,0.777,36.379,28.201,38.258,22.413,4.988,7.945,22.734
1643,0.777,36.438,28.244,38.286,22.423,5.07,8.067,22.405
1644,0.784,36.132,28.268,38.248,22.41,4.908,7.946,21.791
1645,0.793,36.273,28.3,38.257,22.409,4.865,7.986,21.663
1646,0.797,36.399,28.277,38.267,22.413,4.906,8.068,21.784
1647,0.794,36.419,28.265,38.238,22.403,4.825,7.987,21.988
1648,0.806,36.141,28.233,38.277,22.413,4.987,8.149,22.275
1649,0.79,36.282,28.174,38.286,22.416,4.988,8.191,22.685
1650,0.777,36.38,28.182,38.267,22.416,4.988,8.11,23.136
1651,0.774,36.438,28.229,38.277,22.416,4.907,8.191,24.076
1652,0.767,36.209,28.264,38.277,22.42,5.109,8.354,25.345
1653,0.774,36.302,28.253,38.267,22.403,4.827,8.153,26.415
1654,0.774,36.408,28.175,38.267,22.406,4.987,8.15,27.361
1655,0.761,36.064,28.162,38.267,22.413,4.948,8.15,28.102
1656,0.748,36.07,28.131,38.258,22.403,4.866,8.11,29.004
1657,0.767,36.262,28.123,38.286,22.409,4.987,8.232,30.396
1658,0.77,36.351,28.193,38.373,22.42,4.988,8.273,31.954
1659,0.774,35.997,28.186,38.278,22.413,4.948,8.233,33.19
1660,0.764,36.147,28.236,38.286,22.416,4.947,8.192,34.015
1661,0.777,36.244,28.241,38.315,22.42,4.988,8.273,34.674
1662,0.784,36.341,28.175,38.287,22.406,4.866,8.193,34.762
1663,0.787,35.977,28.158,38.315,22.406,4.865,8.192,34.6
1664,0.793,36.118,28.15,38.296,22.409,5.028,8.151,34.192
1665,0.784,36.244,28.17,38.267,22.403,4.867,8.069,33.659
1666,0.793,36.36,28.225,38.315,22.416,4.906,8.191,33.247
1667,0.787,35.939,28.213,38.306,22.41,4.947,8.232,32.755
1668,0.787,36.098,28.233,38.296,22.413,4.988,8.151,32.059
1669,0.787,36.205,28.288,38.296,22.413,4.988,8.069,31.361
1670,0.79,36.273,28.253,38.325,22.416,4.988,8.191,30.825
1671,0.784,36.015,28.206,38.277,22.403,4.907,8.029,30.251
1672,0.78,36.156,28.201,38.286,22.402,4.906,7.946,30.204
1673,0.784,36.273,28.225,38.306,22.416,4.987,7.945,30.367
1674,0.78,36.312,28.249,38.296,22.403,4.866,7.945,30.368
1675,0.767,35.958,28.268,38.325,22.416,4.987,7.986,30.612
1676,0.764,36.089,28.261,38.335,22.413,5.029,8.027,30.94
1677,0.777,36.215,28.264,38.325,22.413,4.989,7.946,31.431
1678,0.79,36.264,28.249,38.316,22.413,4.988,7.945,32.371
1679,0.787,36.044,28.206,38.335,22.423,5.029,8.067,34.007
1680,0.761,36.166,28.205,38.287,22.403,4.867,7.946,35.446
1681,0.78,36.292,28.201,38.315,22.402,4.906,7.905,36.843
1682,0.774,36.284,28.237,38.325,22.406,4.947,7.945,37.955
1683,0.764,36.006,28.241,38.287,22.406,4.907,7.864,38.494
1684,0.78,36.175,28.225,38.334,22.413,4.987,7.944,38.906
1685,0.787,36.283,28.178,38.335,22.413,5.07,7.945,39.358
1686,0.78,36.274,28.178,38.316,22.416,4.989,7.945,39.525
1687,0.787,36.389,28.17,38.325,22.41,4.948,7.864,39.527
1688,0.793,36.524,28.189,38.335,22.42,4.988,7.985,39.404
1689,0.764,36.583,28.209,38.316,22.406,4.866,7.905,38.793
1690,0.764,35.75,28.233,38.316,22.409,4.906,7.904,37.974
1691,0.77,35.856,28.253,38.335,22.413,4.865,7.945,37.112
1692,0.761,35.963,28.202,38.297,22.403,4.784,7.864,35.965
1693,0.767,36.108,28.17,38.335,22.416,4.986,8.066,35.059
1694,0.777,36.004,28.201,38.335,22.413,5.029,8.028,34.034
1695,0.761,36.118,28.19,38.325,22.409,4.907,8.109,32.885
1696,0.767,36.263,28.213,38.335,22.409,4.947,8.069,31.857
1697,0.757,36.351,28.233,38.344,22.423,5.069,8.272,30.912
1698,0.757,35.949,28.233,38.316,22.406,4.867,8.03,29.723
1699,0.751,36.098,28.276,38.316,22.409,4.865,8.068,28.695
1700,0.761,36.224,28.257,38.316,22.413,4.906,8.15,27.709
1701,0.741,36.283,28.21,38.316,22.406,4.784,8.069,26.723
1702,0.773,35.967,28.202,38.354,22.416,4.946,8.109,25.859
1703,0.774,36.108,28.209,38.364,22.416,4.947,8.232,25.119
1704,0.771,36.215,28.233,38.354,22.416,4.907,8.192,24.217
1705,0.777,36.273,28.264,38.335,22.416,4.906,8.192,23.395
1706,0.793,36.005,28.28,38.383,22.423,4.987,8.273,22.98
1707,0.774,36.108,28.253,38.345,22.406,4.907,8.152,22.529
1708,0.758,36.215,28.257,38.316,22.399,4.865,8.11,22.24
1709,0.764,36.254,28.218,38.344,22.406,4.865,8.15,22.196
1710,0.751,35.9,28.186,38.345,22.406,4.906,8.15,22.155
1711,0.761,36.04,28.201,38.335,22.406,4.865,8.11,22.114
1712,0.761,36.147,28.233,38.344,22.413,4.987,8.191,22.602
1713,0.774,36.129,28.28,38.354,22.409,4.907,8.151,23.501
1714,0.758,35.927,28.257,38.354,22.413,4.906,8.15,24.648
1715,0.777,36.107,28.249,38.393,22.42,4.987,8.191,25.636
1716,0.745,36.186,28.19,38.364,22.41,4.907,8.232,26.54
1717,0.741,35.707,28.158,38.345,22.406,4.865,8.111,26.996
1718,0.744,35.77,28.178,38.354,22.406,4.865,8.15,27.489
1719,0.754,35.924,28.182,38.354,22.413,4.906,8.232,27.575
1720,0.748,36.031,28.193,38.345,22.403,4.825,8.151,27.494
1721,0.747,35.926,28.26,38.354,22.409,4.987,8.354,27.493
1722,0.751,36.069,28.225,38.383,22.416,4.988,8.315,27.331
1723,0.761,36.205,28.182,38.383,22.416,4.948,8.315,27.045
1724,0.767,36.312,28.154,38.412,22.42,4.988,8.396,26.676
1725,0.754,35.833,28.17,38.364,22.41,4.988,8.356,26.388
1726,0.77,35.943,28.205,38.354,22.406,4.866,8.234,25.816
1727,0.77,36.098,28.17,38.354,22.402,4.865,8.314,25.403
1728,0.77,36.157,28.197,38.354,22.406,4.946,8.356,25.033
1729,0.774,35.87,28.201,38.326,22.402,4.785,8.193,24.42
1730,0.787,36.049,28.248,38.392,22.413,4.905,8.314,24.129
1731,0.793,36.176,28.182,38.383,22.413,4.947,8.356,23.76
1732,0.816,36.235,28.19,38.374,22.409,4.907,8.275,23.838
1733,0.826,35.861,28.209,38.374,22.416,4.906,8.314,24.692
1734,0.8,35.982,28.225,38.383,22.416,4.987,8.274,26.165
1735,0.81,36.098,28.241,38.355,22.403,4.826,8.152,27.562
1736,0.816,36.157,28.26,38.373,22.399,4.824,8.11,28.958
1737,0.826,35.87,28.292,38.383,22.413,4.905,8.191,30.436
1738,0.82,36.011,28.273,38.345,22.403,4.825,8.11,32.605
1739,0.836,36.166,28.3,38.383,22.416,5.027,8.109,35.92
1740,0.833,36.167,28.163,38.393,22.42,4.948,8.191,38.84
1741,0.852,35.995,28.217,38.374,22.413,4.947,8.11,41.146
1742,0.872,36.147,28.221,38.383,22.42,4.988,8.109,42.877
1743,0.872,36.234,28.272,38.393,22.416,4.988,8.15,43.951
1744,0.866,36.139,28.265,38.383,22.41,4.948,7.988,44.287
1745,0.866,35.918,28.241,38.383,22.409,4.947,8.027,44.291
1746,0.853,36.05,28.241,38.393,22.413,5.069,8.027,43.884
1747,0.836,36.157,28.229,38.355,22.396,4.908,7.946,43.351
1748,0.839,36.081,28.225,38.412,22.416,5.069,8.108,43.021
1749,0.83,36.186,28.202,38.403,22.416,4.989,8.15,42.285
1750,0.823,36.311,28.217,38.403,22.416,4.988,8.11,41.384
1751,0.836,36.437,28.233,38.412,22.416,5.029,8.15,40.358
1752,0.836,35.758,28.284,38.374,22.416,5.07,8.191,39.291
1753,0.83,35.837,28.226,38.364,22.403,4.948,7.988,37.979
1754,0.833,36.001,28.167,38.374,22.409,4.907,8.027,36.95
1755,0.836,36.089,28.096,38.393,22.413,4.947,8.027,35.963
1756,0.83,35.898,28.056,38.383,22.406,4.907,7.987,34.815
1757,0.856,36.059,28.149,38.422,22.416,5.028,8.027,34.112
1758,0.885,36.195,28.178,38.403,22.41,4.989,8.068,33.292
1759,0.885,36.264,28.221,38.393,22.42,4.988,8.028,32.674
1760,0.898,35.967,28.264,38.412,22.41,4.988,8.027,32.099
1761,0.889,36.108,28.265,38.412,22.413,5.07,8.109,31.931
1762,0.863,36.196,28.159,38.364,22.406,4.948,7.906,31.522
1763,0.859,36.283,28.189,38.402,22.409,5.029,7.945,31.437
1764,0.882,35.9,28.19,38.403,22.409,4.948,7.986,31.68
1765,0.863,36.03,28.209,38.355,22.403,4.947,7.864,31.723
1766,0.859,36.176,28.244,38.402,22.416,5.029,7.985,31.886
1767,0.853,36.215,28.253,38.393,22.413,5.07,7.986,31.766
1768,0.843,35.899,28.264,38.393,22.409,5.07,8.027,31.48
1769,0.846,36.04,28.3,38.422,22.416,4.989,7.987,31.111
1770,0.833,36.147,28.214,38.412,22.416,5.07,8.068,30.742
1771,0.843,36.177,28.205,38.384,22.41,4.948,7.946,30.494
1772,0.833,35.947,28.178,38.383,22.406,4.947,7.945,30.614
1773,0.83,36.088,28.217,38.402,22.409,4.947,7.945,30.94
1774,0.817,36.186,28.252,38.364,22.399,4.866,7.864,30.943
1775,0.833,36.168,28.264,38.412,22.409,4.987,8.026,31.147
1776,0.797,35.937,28.229,38.412,22.409,5.07,8.027,31.027
1777,0.803,36.079,28.256,38.403,22.409,4.989,8.027,30.944
1778,0.813,36.205,28.288,38.403,22.413,4.988,7.987,30.781
1779,0.797,35.957,28.206,38.422,22.42,5.07,8.149,30.657
1780,0.781,36.012,28.217,38.403,22.403,4.867,8.069,29.965
1781,0.78,36.166,28.229,38.384,22.406,4.946,8.028,29.673
1782,0.79,36.273,28.288,38.393,22.409,4.988,8.19,29.223
1783,0.784,36.293,28.265,38.403,22.403,4.948,8.07,29.178
1784,0.803,36.476,28.225,38.403,22.416,4.988,8.312,29.828
1785,0.794,36.583,28.155,38.431,22.423,4.988,8.356,30.485
1786,0.793,36.661,28.142,38.413,22.413,4.948,8.234,31.101
1787,0.787,35.607,28.088,38.422,22.416,4.988,8.273,31.596
1788,0.777,35.74,28.181,38.432,22.416,4.988,8.396,32.129
1789,0.79,35.866,28.17,38.393,22.403,4.948,8.275,32.256
1790,0.79,35.944,28.236,38.393,22.413,4.947,8.233,32.42
1791,0.793,36.002,28.253,38.412,22.409,4.947,8.233,32.34
1792,0.787,36.127,28.155,38.384,22.396,4.825,8.192,32.096
1793,0.787,36.301,28.217,38.402,22.413,5.027,8.192,31.687
1794,0.784,36.351,28.198,38.412,22.416,5.03,8.232,31.317
1795,0.793,35.91,28.209,38.412,22.416,4.989,8.192,30.825
1796,0.78,36.05,28.202,38.412,22.413,4.948,8.273,30.495
1797,0.787,36.195,28.24,38.432,22.42,5.11,8.314,30.369
1798,0.771,36.206,28.202,38.403,22.41,4.908,8.071,29.921
1799,0.77,36.005,28.268,38.393,22.409,4.987,8.109,29.551
1800,0.767,36.137,28.21,38.403,22.413,4.988,8.15,29.222
1801,0.754,36.263,28.202,38.393,22.403,4.826,8.15,28.69
1802,0.754,36.322,28.221,38.422,22.409,4.946,8.15,28.156
1803,0.748,35.948,28.229,38.412,22.413,5.029,8.191,27.663
1804,0.741,36.108,28.28,38.412,22.416,4.989,8.11,26.885
1805,0.757,36.196,28.296,38.393,22.413,4.988,8.069,26.186
1806,0.774,36.129,28.319,38.431,22.427,5.029,8.191,25.448
1807,0.735,35.899,28.281,38.403,22.413,4.948,8.11,24.749
1808,0.728,36.03,28.269,38.403,22.409,4.907,7.987,23.888
1809,0.734,36.147,28.237,38.403,22.409,4.947,8.027,23.188
1810,0.708,36.004,28.217,38.422,22.409,4.907,8.068,22.572
1811,0.715,36.099,28.186,38.412,22.406,4.865,7.987,21.834
1812,0.718,36.243,28.248,38.432,22.416,4.987,8.108,21.298
1813,0.715,36.341,28.284,38.422,22.416,4.866,8.109,20.804
1814,0.698,35.814,28.222,38.412,22.413,4.946,8.15,20.108
1815,0.721,35.943,28.209,38.441,22.416,4.947,8.11,19.491
1816,0.695,36.05,28.174,38.413,22.41,4.988,8.15,19.201
1817,0.698,36.147,28.178,38.412,22.409,4.907,8.069,18.385
1818,0.701,35.918,28.127,38.412,22.409,4.906,8.109,17.97
1819,0.698,36.079,28.212,38.412,22.416,4.987,8.109,17.559
1820,0.714,36.186,28.194,38.403,22.403,4.826,8.069,17.189
1821,0.715,36.283,28.268,38.412,22.416,4.987,8.231,17.104
1822,0.702,35.996,28.226,38.412,22.413,4.988,8.192,16.9
1823,0.721,36.127,28.174,38.432,22.409,4.988,8.151,16.735
1824,0.724,36.263,28.123,38.422,22.413,4.948,8.11,16.409
1825,0.728,36.322,28.201,38.432,22.416,4.988,8.313,16.405
1826,0.728,35.929,28.198,38.393,22.406,4.866,8.071,15.958
1827,0.731,36.079,28.209,38.403,22.406,4.824,7.987,15.709
1828,0.728,36.205,28.213,38.403,22.409,4.905,8.108,15.463
1829,0.712,36.225,28.241,38.393,22.406,4.825,7.987,15.176
1830,0.731,35.909,28.311,38.422,22.413,4.905,8.068,14.97
1831,0.721,36.05,28.218,38.422,22.413,5.028,8.028,14.683
1832,0.715,36.176,28.205,38.441,22.406,4.948,7.987,14.518
1833,0.718,36.196,28.209,38.422,22.406,4.988,7.946,14.191
1834,0.718,36.024,28.225,38.451,22.423,5.029,8.108,14.025
1835,0.698,36.118,28.245,38.403,22.41,4.867,7.865,13.617
1836,0.711,36.253,28.26,38.412,22.409,4.906,7.944,13.369
1837,0.702,36.101,28.253,38.412,22.409,4.987,7.986,13.204
1838,0.698,35.879,28.28,38.403,22.409,4.948,7.946,12.958
1839,0.708,36.04,28.265,38.431,22.416,4.907,7.864,12.671
1840,0.715,36.157,28.171,38.422,22.413,4.906,8.026,12.587
1841,0.705,35.908,28.189,38.412,22.416,4.987,7.905,12.301
1842,0.708,35.983,28.217,38.422,22.413,4.988,7.945,12.217
1843,0.731,36.175,28.28,38.451,22.423,5.11,8.026,12.094
1844,0.731,36.215,28.265,38.403,22.406,4.949,7.865,11.89
1845,0.721,36.014,28.265,38.403,22.402,4.825,7.822,11.888
1846,0.731,36.156,28.225,38.431,22.409,4.946,7.944,12.254
1847,0.718,36.263,28.249,38.413,22.403,4.947,7.905,12.745
1848,0.728,36.389,28.221,38.412,22.413,4.866,7.782,13.319
1849,0.721,35.92,28.241,38.489,22.409,5.028,7.984,14.057
1850,0.724,36.04,28.19,38.423,22.409,4.948,7.824,14.878
1851,0.698,36.176,28.24,38.403,22.409,4.907,7.863,16.471
1852,0.724,36.273,28.284,38.441,22.416,5.028,7.944,18.805
1853,0.718,35.842,28.241,38.394,22.406,4.907,7.823,20.983
1854,0.715,36.001,28.19,38.393,22.409,4.865,7.741,23.078
1855,0.715,36.147,28.115,38.412,22.413,4.906,7.781,24.766
1856,0.711,36.196,28.115,38.412,22.409,4.947,7.781,26.084
1857,0.711,35.88,28.095,38.422,22.409,4.866,7.659,26.911
1858,0.718,36.078,28.181,38.412,22.413,4.906,7.78,27.732
1859,0.721,36.167,28.217,38.412,22.416,5.028,7.822,27.984
1860,0.705,36.206,28.256,38.412,22.41,4.907,7.822,27.987
1861,0.731,35.89,28.261,38.441,22.42,4.947,7.903,27.742
1862,0.721,36.021,28.19,38.403,22.416,4.988,7.945,27.374
1863,0.698,36.137,28.19,38.422,22.403,4.826,7.783,26.801
1864,0.721,36.158,28.186,38.403,22.402,4.905,7.862,26.267
1865,0.734,35.908,28.197,38.403,22.406,4.987,7.904,25.692
1866,0.731,36.031,28.194,38.384,22.399,4.826,7.823,24.873
1867,0.738,36.185,28.217,38.412,22.42,4.905,8.025,24.337
1868,0.731,36.062,28.205,38.422,22.413,4.947,7.946,23.64
1869,0.731,35.946,28.264,38.403,22.42,4.947,7.945,22.983
1870,0.741,36.098,28.253,38.403,22.413,4.947,8.026,22.285
1871,0.728,36.205,28.14,38.47,22.42,5.069,8.068,21.831
1872,0.731,35.784,28.193,38.384,22.403,4.826,7.824,21.013
1873,0.734,35.828,28.225,38.393,22.413,4.865,7.944,20.395
1874,0.721,35.972,28.252,38.403,22.409,4.946,7.945,20.023
1875,0.728,36.05,28.288,38.355,22.403,4.866,7.864,19.613
1876,0.721,35.879,28.276,38.402,22.416,4.906,8.026,19.364
1877,0.724,36.021,28.296,38.422,22.413,4.987,8.027,19.118
1878,0.724,36.147,28.261,38.393,22.409,4.948,7.987,18.831
1879,0.718,36.215,28.249,38.412,22.409,4.988,8.068,18.422
1880,0.737,35.804,28.194,38.441,22.427,5.11,8.231,18.214
1881,0.728,35.914,28.186,38.394,22.406,4.908,8.029,17.765
1882,0.728,36.04,28.221,38.393,22.409,4.825,8.068,17.394
1883,0.734,36.128,28.268,38.403,22.413,4.905,8.028,17.147
1884,0.731,35.831,28.272,38.384,22.406,4.947,8.027,16.86
1885,0.741,36.011,28.237,38.402,22.406,4.866,8.027,16.491
1886,0.734,36.128,28.221,38.412,22.416,4.987,8.068,16.447
1887,0.738,36.196,28.221,38.393,22.413,4.907,8.069,16.243
1888,0.738,35.861,28.221,38.412,22.409,4.906,8.069,16.16
1889,0.764,36.059,28.217,38.432,22.43,5.028,8.109,16.24
1890,0.754,36.138,28.194,38.393,22.41,4.907,7.947,16.16
1891,0.741,36.167,28.233,38.393,22.406,4.825,7.945,16.078
1892,0.751,35.851,28.256,38.393,22.413,4.987,7.986,16.117
1893,0.754,35.953,28.182,38.383,22.403,4.907,7.986,16.077
1894,0.754,36.108,28.127,38.393,22.406,4.865,7.905,15.955
1895,0.751,36.138,28.216,38.412,22.409,4.946,7.985,16.198
1896,0.757,36.263,28.225,38.403,22.409,4.988,8.027,16.2
1897,0.777,36.389,28.206,38.412,22.413,4.866,7.987,16.159
1898,0.806,36.534,28.205,38.432,22.42,5.028,8.027,16.24
1899,0.813,35.97,28.205,38.393,22.406,4.907,8.068,16.2
1900,0.826,35.6,28.256,38.383,22.406,4.906,7.946,16.159
1901,0.839,35.759,28.225,38.383,22.413,4.865,8.026,16.362
1902,0.869,35.876,28.128,38.402,22.416,4.906,8.068,16.73
1903,0.876,35.877,28.169,38.384,22.406,4.825,8.109,17.059
1904,0.905,35.992,28.209,38.422,22.409,4.987,8.15,17.55
1905,0.912,36.127,28.221,38.393,22.42,4.988,8.232,18.165
1906,0.983,36.205,28.245,38.393,22.416,4.948,8.233,19.35
1907,1.039,35.679,28.284,38.403,22.406,5.029,8.151,20.623
1908,1.092,35.798,28.28,38.393,22.416,5.03,8.191,21.977
1909,1.138,35.876,28.296,38.374,22.41,4.826,8.07,22.966
1910,1.177,36.011,28.218,38.393,22.413,4.946,8.15,23.87
1911,1.214,35.792,28.225,38.374,22.409,4.907,8.11,24.652
1912,1.23,35.905,28.198,38.355,22.403,4.865,7.987,25.432
1913,1.247,36.069,28.24,38.383,22.42,4.906,8.149,26.538
1914,1.218,36.138,28.268,38.412,22.416,5.028,8.11,27.525
1915,1.201,35.716,28.276,38.393,22.416,4.948,8.069,28.348
1916,1.185,35.894,28.249,38.403,22.416,4.907,8.109,28.885
1917,1.171,36.011,28.264,38.431,22.42,5.028,8.232,29.378
1918,1.152,36.051,28.28,38.374,22.406,4.826,8.029,29.545
1919,1.168,35.879,28.198,38.364,22.406,4.905,8.027,29.832
1920,1.181,36.03,28.217,38.383,22.413,4.987,8.109,30.038
1921,1.217,36.128,28.202,38.355,22.409,4.826,8.028,30.121
1922,1.26,36.196,28.268,38.393,22.416,4.987,8.109,30.081
1923,1.306,35.755,28.268,38.393,22.413,4.948,8.191,29.878
1924,1.361,35.914,28.237,38.393,22.413,4.988,8.11,29.51
1925,1.404,36.011,28.21,38.374,22.413,4.866,8.109,29.059
1926,1.395,36.032,28.159,38.412,22.416,5.028,8.232,28.77
1927,1.398,35.888,28.146,38.364,22.403,4.785,8.07,28.197
1928,1.398,36.03,28.096,38.374,22.409,4.864,8.109,27.785
1929,1.372,36.166,28.185,38.364,22.409,4.946,8.191,27.496
1930,1.336,35.841,28.201,38.354,22.399,4.825,8.151,26.884
1931,1.284,35.723,28.24,38.393,22.42,4.905,8.313,26.552
1932,1.228,35.866,28.233,38.403,22.416,4.987,8.356,26.305
1933,1.156,35.963,28.186,38.393,22.413,4.907,8.397,26.181
1934,1.057,35.791,28.072,38.393,22.413,4.906,8.356,26.464
1935,0.942,35.886,28.188,38.403,22.423,5.028,8.559,26.873
1936,0.844,36.002,28.186,38.355,22.41,4.826,8.439,26.918
1937,0.761,36.118,28.209,38.373,22.413,4.865,8.519,27.203
1938,0.696,35.726,28.217,38.374,22.409,4.946,8.723,27.45
1939,0.636,35.827,28.202,38.345,22.399,4.785,8.685,27.534
1940,0.62,35.972,28.264,38.373,22.413,4.946,8.807,27.494
1941,0.593,36.079,28.241,38.393,22.409,4.947,8.97,27.412
1942,0.574,35.764,28.171,38.364,22.42,4.907,8.931,27.005
1943,0.57,35.914,28.209,38.364,22.416,4.947,9.012,26.676
1944,0.593,36.059,28.213,38.393,22.416,5.029,9.176,26.225
1945,0.59,36.08,28.213,38.345,22.413,4.907,9.096,25.489
1946,0.613,35.735,28.225,38.354,22.409,4.906,8.973,24.871
1947,0.642,35.895,28.241,38.364,22.413,4.906,8.972,24.296
1948,0.649,36.002,28.245,38.335,22.409,4.865,9.094,23.884
1949,0.698,36.099,28.327,38.373,22.409,4.987,9.014,23.473
1950,0.708,35.745,28.242,38.374,22.409,4.948,9.013,23.428
1951,0.728,35.895,28.21,38.441,22.416,4.988,9.135,23.55
1952,0.744,36.002,28.186,38.365,22.41,4.907,8.974,23.551
1953,0.783,36.079,28.221,38.393,22.423,5.028,9.094,23.876
1954,0.767,35.687,28.248,38.364,22.41,4.867,8.973,23.798
1955,0.77,35.827,28.268,38.345,22.409,4.824,8.931,23.92
1956,0.774,35.953,28.272,38.345,22.409,4.905,8.809,23.88
1957,0.767,35.954,28.269,38.345,22.406,4.987,8.808,23.717
1958,0.787,35.81,28.265,38.354,22.406,4.866,8.808,23.431
1959,0.787,35.943,28.225,38.373,22.416,5.028,8.767,23.265
1960,0.8,36.06,28.19,38.345,22.41,4.948,8.767,22.857
1961,0.787,35.86,28.213,38.373,22.409,4.988,8.685,22.406
1962,0.797,35.79,28.26,38.383,22.42,5.11,8.766,21.995
1963,0.781,35.895,28.288,38.345,22.41,4.949,8.645,21.462
1964,0.787,36.002,28.269,38.354,22.406,4.907,8.562,21.009
1965,0.787,35.984,28.249,38.364,22.406,4.947,8.561,20.354
1966,0.767,36.079,28.202,38.335,22.409,4.907,8.521,19.901
1967,0.796,36.224,28.209,38.354,22.413,4.947,8.439,19.408
1968,0.787,36.321,28.17,38.364,22.416,4.947,8.519,19.078
1969,0.8,35.565,28.182,38.374,22.413,4.947,8.479,18.628
1970,0.774,35.663,28.162,38.374,22.409,4.866,8.398,18.216
1971,0.78,35.836,28.256,38.393,22.427,5.109,8.519,17.968
1972,0.784,35.905,28.237,38.345,22.406,4.908,8.358,17.437
1973,0.784,35.705,28.178,38.335,22.402,4.865,8.234,17.025
1974,0.774,35.856,28.147,38.344,22.406,4.946,8.355,16.777
1975,0.761,35.992,28.166,38.345,22.399,4.866,8.234,16.49
1976,0.764,36.099,28.225,38.44,22.409,4.946,8.314,16.243
1977,0.78,35.582,28.217,38.355,22.416,4.988,8.315,16.078
1978,0.8,35.749,28.225,38.373,22.406,4.866,8.234,15.833
1979,0.784,35.866,28.229,38.355,22.413,4.946,8.273,15.546
1980,0.774,35.934,28.272,38.364,22.42,5.069,8.396,15.583
1981,0.78,35.81,28.222,38.335,22.41,4.867,8.112,15.381
1982,0.78,35.972,28.155,38.335,22.409,4.824,8.15,15.175
1983,0.774,36.108,28.193,38.344,22.409,4.824,8.15,15.214
1984,0.767,36.1,28.17,38.325,22.406,4.865,8.11,15.011
1985,0.78,35.706,28.213,38.354,22.409,4.906,8.109,15.009
1986,0.79,35.856,28.256,38.354,22.409,4.987,8.232,14.887
1987,0.784,35.963,28.253,38.345,22.409,4.907,8.192,14.642
1988,0.787,35.954,28.276,38.345,22.409,4.947,8.11,14.477
1989,0.787,35.724,28.319,38.383,22.423,4.988,8.313,14.475
1990,0.78,35.827,28.238,38.326,22.406,4.866,8.071,14.109
1991,0.774,35.972,28.221,38.335,22.413,4.865,8.15,13.943
1992,0.777,35.782,28.221,38.344,22.409,4.906,8.15,13.778
1993,0.774,35.703,28.252,38.297,22.403,4.825,8.11,13.533
1994,0.787,35.875,28.257,38.325,22.413,4.865,8.109,13.368
1995,0.793,35.992,28.28,38.354,22.413,4.946,8.15,13.244
1996,0.78,35.648,28.269,38.335,22.406,4.907,8.191,12.999
1997,0.784,35.74,28.28,38.344,22.409,4.906,8.11,12.875
1998,0.784,35.895,28.272,38.364,22.427,4.987,8.272,12.833
1999,0.767,35.954,28.202,38.326,22.406,4.785,8.03,12.548
2000,0.787,35.59,28.221,38.325,22.409,4.824,8.027,12.423
2001,0.777,35.74,28.206,38.325,22.409,4.865,8.109,12.218
2002,0.754,35.837,28.248,38.316,22.406,4.784,8.069,12.176
2003,0.787,35.944,28.268,38.354,22.409,4.905,8.028,11.972
2004,0.806,35.638,28.253,38.364,22.416,4.825,8.109,11.97
2005,0.8,35.769,28.221,38.354,22.41,4.905,8.069,11.807
2006,0.807,35.905,28.19,38.345,22.413,4.865,7.946,11.724
2007,0.82,35.992,28.197,38.373,22.42,5.028,8.23,11.642
2008,0.797,35.59,28.182,38.335,22.406,4.867,8.029,11.438
2009,0.797,35.759,28.213,38.325,22.399,4.824,7.987,11.395
2010,0.797,35.866,28.225,38.335,22.413,4.865,7.946,11.395
2011,0.781,35.915,28.28,38.325,22.409,4.824,8.067,11.436
2012,0.79,35.666,28.253,38.344,22.413,4.824,7.906,11.558
2013,0.793,35.817,28.21,38.345,22.416,4.905,8.026,11.803
2014,0.774,35.943,28.151,38.345,22.416,4.865,8.068,12.05
2015,0.78,35.993,28.17,38.345,22.416,4.906,8.028,12.418
2016,0.79,35.715,28.205,38.373,22.423,4.987,8.068,12.828
2017,0.784,35.818,28.201,38.316,22.41,4.866,7.987,13.076
2018,0.793,35.934,28.186,38.335,22.406,4.824,8.027,13.323
2019,0.8,35.954,28.201,38.344,22.416,4.865,7.987,13.528
2020,0.797,35.667,28.24,38.316,22.413,4.824,8.027,13.815
2021,0.8,35.798,28.241,38.316,22.409,4.865,7.987,13.859
2022,0.794,35.943,28.182,38.344,22.42,4.906,8.108,14.062
2023,0.8,35.724,28.197,38.335,22.413,4.906,8.15,14.105
2024,0.82,35.693,28.213,38.325,22.409,4.865,8.11,14.065
2025,0.836,35.856,28.244,38.373,22.423,5.028,8.232,14.146
2026,0.813,35.896,28.237,38.316,22.406,4.745,8.029,13.943
2027,0.8,35.561,28.253,38.325,22.409,4.783,8.109,13.819
2028,0.823,35.653,28.3,38.316,22.409,4.783,8.069,13.655
2029,0.8,35.769,28.3,38.306,22.406,4.864,8.069,13.613
2030,0.813,35.905,28.218,38.316,22.413,4.784,8.028,13.45
2031,0.807,35.637,28.213,38.325,22.42,4.905,8.068,13.367
2032,0.813,35.769,28.221,38.316,22.416,4.906,8.069,13.285
2033,0.816,35.895,28.237,38.316,22.41,4.947,8.028,13.243
2034,0.816,36.002,28.307,38.344,22.427,4.988,8.149,13.324
2035,0.803,35.475,28.288,38.287,22.403,4.826,7.947,13.244
2036,0.797,35.633,28.276,38.315,22.406,4.783,7.905,13.406
2037,0.797,35.759,28.284,38.306,22.409,4.824,7.945,13.692
2038,0.803,35.809,28.253,38.268,22.409,4.824,7.945,13.979
2039,0.807,35.55,28.198,38.296,22.409,4.783,7.905,14.552
2040,0.797,35.72,28.174,38.325,22.416,4.864,8.026,15.573
2041,0.81,35.837,28.217,38.306,22.413,4.865,7.987,16.722
2042,0.803,35.886,28.233,38.306,22.409,4.865,7.946,17.791
2043,0.816,35.551,28.295,38.335,22.43,4.987,8.108,18.899
2044,0.807,35.634,28.265,38.287,22.406,4.826,7.865,19.602
2045,0.816,35.779,28.253,38.277,22.402,4.743,7.863,20.137
2046,0.829,35.828,28.198,38.277,22.413,4.783,7.863,20.59
2047,0.826,35.617,28.201,38.277,22.406,4.864,7.863,20.879
2048,0.836,35.769,28.19,38.296,22.416,4.865,7.782,21.004
2049,0.83,35.914,28.221,38.296,22.42,4.906,7.944,21.086
2050,0.817,35.925,28.186,38.296,22.416,4.865,7.864,20.965
2051,0.816,35.609,28.236,38.277,22.41,4.865,7.863,20.72
2052,0.829,35.778,28.28,38.296,22.423,4.906,7.863,20.555
2053,0.81,35.847,28.194,38.277,22.413,4.825,7.822,20.106
2054,0.8,35.666,28.166,38.267,22.409,4.743,7.741,19.776
2055,0.797,35.635,28.193,38.334,22.409,4.783,7.781,19.529
2056,0.803,35.779,28.217,38.277,22.413,4.824,7.781,19.486
2057,0.816,35.885,28.202,38.248,22.406,4.783,7.7,19.526
2058,0.816,35.503,28.217,38.296,22.416,4.905,7.821,20.014
2059,0.82,35.585,28.233,38.277,22.413,4.906,7.781,20.263
2060,0.82,35.721,28.288,38.296,22.416,4.865,7.781,20.591
2061,0.823,35.847,28.245,38.306,22.42,4.946,7.862,21.245
2062,0.807,35.551,28.167,38.258,22.413,4.866,7.863,22.308
2063,0.82,35.663,28.174,38.277,22.409,4.824,7.782,23.051
2064,0.839,35.817,28.197,38.267,22.413,4.824,7.74,23.79
2065,0.83,35.895,28.213,38.267,22.413,4.824,7.862,24.448
2066,0.836,35.503,28.264,38.248,22.399,4.783,7.822,24.699
2067,0.843,35.662,28.272,38.277,22.413,4.946,7.985,25.108
2068,0.823,35.788,28.296,38.277,22.413,4.907,7.946,25.112
2069,0.839,35.857,28.304,38.267,22.413,4.865,7.945,25.071
2070,0.846,35.56,28.249,38.286,22.409,4.906,7.986,24.867
2071,0.827,35.672,28.249,38.277,22.42,4.906,8.108,24.825
2072,0.83,35.798,28.198,38.239,22.41,4.825,7.947,24.377
2073,0.836,35.866,28.237,38.248,22.409,4.824,8.026,24.047
2074,0.826,35.627,28.268,38.248,22.409,4.824,7.987,23.759
2075,0.813,35.759,28.272,38.219,22.403,4.743,7.986,23.309
2076,0.829,35.924,28.272,38.276,22.427,4.905,8.068,23.02
2077,0.839,35.954,28.3,38.267,22.41,4.906,8.15,22.651
2078,0.849,35.59,28.284,38.267,22.409,4.865,8.11,22.241
2079,0.849,35.749,28.222,38.258,22.416,4.824,8.15,21.79
2080,0.833,35.856,28.233,38.248,22.42,4.946,8.313,21.704
2081,0.833,35.934,28.202,38.238,22.41,4.744,8.071,21.459
2082,0.836,35.571,28.28,38.238,22.409,4.823,8.231,21.294
2083,0.839,35.701,28.28,38.267,22.403,4.865,8.233,21.333
2084,0.833,35.808,28.249,38.238,22.402,4.702,8.111,21.171
2085,0.839,35.627,28.194,38.267,22.413,4.823,8.272,21.25
2086,0.856,35.587,28.131,38.248,22.409,4.905,8.274,21.129
2087,0.856,35.73,28.138,38.257,22.413,4.825,8.314,20.965
2088,0.866,35.847,28.158,38.258,22.413,4.824,8.274,20.761
2089,0.853,35.493,28.178,38.248,22.416,4.824,8.314,20.759
2090,0.849,35.576,28.205,38.219,22.41,4.702,8.193,20.474
2091,0.853,35.701,28.264,38.238,22.406,4.782,8.192,20.349
2092,0.846,35.818,28.272,38.248,22.409,4.864,8.232,20.226
2093,0.853,35.445,28.163,38.21,22.399,4.662,8.111,19.981
2094,0.853,35.614,28.224,38.267,22.416,4.822,8.313,19.978
2095,0.856,35.74,28.233,38.229,22.42,4.824,8.356,19.694
2096,0.843,35.837,28.206,38.238,22.413,4.905,8.356,19.406
2097,0.846,35.637,28.209,38.238,22.413,4.906,8.356,19.037
2098,0.849,35.759,28.237,38.238,22.416,4.825,8.478,18.911
2099,0.84,35.895,28.253,38.209,22.406,4.743,8.398,18.382
2100,0.839,35.954,28.276,38.228,22.406,4.783,8.356,18.092
2101,0.852,35.437,28.23,38.228,22.413,4.864,8.519,17.926
2102,0.856,35.585,28.217,38.276,22.396,4.743,8.398,17.6
2103,0.849,35.749,28.19,38.239,22.409,4.905,8.56,17.759
2104,0.856,35.808,28.233,38.219,22.416,4.947,8.521,17.557
2105,0.879,35.617,28.26,38.219,22.406,4.866,8.561,17.514
2106,0.876,35.75,28.241,38.238,22.409,4.865,8.561,17.717
2107,0.863,35.866,28.268,38.248,22.416,4.946,8.643,18.411
2108,0.856,35.877,28.265,38.2,22.406,4.785,8.521,18.946
2109,0.869,35.56,28.268,38.199,22.402,4.864,8.479,19.805
2110,0.872,35.701,28.218,38.209,22.413,4.865,8.56,20.708
2111,0.84,35.827,28.202,38.18,22.403,4.865,8.317,21.449
2112,0.849,36.087,28.213,38.199,22.416,4.906,8.518,22.392
2113,0.859,35.543,28.248,38.19,22.416,4.906,8.439,23.417
2114,0.853,35.691,28.272,38.19,22.416,4.865,8.479,24.444
2115,0.859,35.789,28.296,38.199,22.41,4.946,8.438,25.227
