time,ecg,bvp,gsr,rsp,skt,emg_zygo,emg_coru,emg_trap
0,0.862,36.419,32.199,30.649,24.169,18.007,6.754,6.262
1,0.836,36.022,32.18,30.63,24.166,17.76,6.672,6.262
2,0.839,36.158,32.254,30.63,24.173,17.555,6.713,6.262
3,0.823,36.274,32.215,30.62,24.155,17.145,6.549,6.138
4,0.843,36.371,32.144,30.64,24.169,16.98,6.754,6.262
5,0.833,35.974,32.191,30.649,24.176,16.57,6.713,6.302
6,0.81,36.1,32.207,30.63,24.166,16.241,6.631,6.22
7,0.8,36.226,32.187,30.63,24.166,15.953,6.631,6.22
8,0.803,36.245,32.215,30.63,24.155,15.584,6.59,6.138
9,0.816,36.032,32.231,30.669,24.176,15.42,6.754,6.302
10,0.81,36.167,32.219,30.669,24.166,15.173,6.631,6.302
11,0.793,36.293,32.203,30.649,24.166,14.968,6.713,6.302
12,0.793,36.303,32.199,30.649,24.162,14.598,6.672,6.179
13,0.784,35.906,32.231,30.63,24.155,14.393,6.508,6.097
14,0.78,36.071,32.239,30.678,24.169,14.393,6.672,6.302
15,0.78,36.187,32.191,30.688,24.169,14.188,6.672,6.262
16,0.761,36.061,32.116,30.659,24.166,14.228,6.631,6.302
17,0.774,36.051,32.168,30.688,24.166,14.352,6.713,6.138
18,0.761,36.129,32.152,30.649,24.159,14.352,6.508,6.22
19,0.77,36.284,32.191,30.708,24.169,14.639,6.672,6.343
20,0.764,35.867,32.254,30.688,24.176,14.68,6.672,6.262
21,0.757,35.945,32.168,30.688,24.159,14.763,6.631,6.262
22,0.774,36.1,32.187,30.678,24.162,14.763,6.631,6.179
23,0.757,36.167,32.183,30.649,24.155,14.722,6.467,6.015
24,0.764,35.857,32.235,30.698,24.176,14.886,6.672,6.22
25,0.754,35.993,32.219,30.698,24.173,14.927,6.631,6.138
26,0.747,36.129,32.211,30.688,24.166,14.803,6.59,6.22
27,0.747,36.206,32.164,30.698,24.162,14.763,6.508,6.22
28,0.738,35.799,32.113,30.669,24.162,14.639,6.467,6.138
29,0.741,35.974,32.183,30.708,24.162,14.68,6.672,6.262
30,0.734,36.09,32.219,30.708,24.169,14.516,6.631,6.262
31,0.721,36.138,32.235,30.698,24.173,14.434,6.631,6.179
32,0.734,35.877,32.148,30.698,24.169,14.311,6.549,6.138
33,0.721,36.022,32.176,30.698,24.159,14.188,6.426,6.056
34,0.734,36.158,32.191,30.737,24.169,14.352,6.713,6.179
35,0.734,36.196,32.235,30.737,24.173,14.188,6.631,6.097
36,0.731,35.819,32.231,30.708,24.166,14.105,6.631,6.179
37,0.747,35.954,32.25,30.698,24.166,14.023,6.549,6.138
38,0.734,36.042,32.207,30.698,24.159,13.982,6.508,6.056
39,0.757,36.109,32.168,30.727,24.173,14.228,6.672,6.179
40,0.751,35.848,32.191,30.737,24.162,14.475,6.59,6.138
41,0.751,35.964,32.223,30.727,24.162,14.722,6.59,6.138
42,0.738,36.061,32.235,30.737,24.159,14.968,6.549,6.138
43,0.738,36.061,32.16,30.698,24.155,15.338,6.467,6.056
44,0.751,36.09,32.18,30.766,24.173,15.953,6.631,6.22
45,0.744,36.216,32.18,30.746,24.169,16.57,6.631,6.179
46,0.734,36.293,32.199,30.746,24.169,17.185,6.59,6.22
47,0.731,35.625,32.211,30.746,24.166,17.637,6.508,6.138
48,0.718,35.702,32.227,30.708,24.162,18.048,6.549,6.138
49,0.738,35.848,32.254,30.766,24.176,18.459,6.59,6.22
50,0.728,35.945,32.176,30.746,24.169,18.746,6.631,6.179
51,0.724,35.751,32.199,30.766,24.162,19.075,6.672,6.262
52,0.731,35.887,32.207,30.737,24.162,19.157,6.467,6.179
53,0.708,35.983,32.231,30.737,24.159,19.198,6.467,6.179
54,0.728,36.1,32.203,30.775,24.169,19.28,6.631,6.179
55,0.724,35.751,32.105,30.775,24.169,19.198,6.549,6.138
56,0.744,35.906,32.132,30.804,24.173,19.321,6.713,6.262
57,0.741,36.012,32.152,30.756,24.162,19.28,6.549,6.138
58,0.738,36.051,32.191,30.737,24.159,19.444,6.549,6.179
59,0.747,35.732,32.219,30.785,24.166,19.609,6.631,6.179
60,0.741,35.848,32.25,30.766,24.173,19.649,6.549,6.179
61,0.744,35.974,32.144,30.785,24.176,19.855,6.672,6.22
62,0.738,36.022,32.183,30.756,24.169,19.855,6.631,6.179
63,0.728,35.712,32.191,30.766,24.159,19.937,6.467,6.179
64,0.747,35.887,32.235,30.804,24.173,20.184,6.672,6.22
65,0.738,36.012,32.227,30.785,24.166,20.142,6.631,6.262
66,0.728,36.012,32.176,30.804,24.166,20.142,6.672,6.262
67,0.734,35.751,32.14,30.785,24.169,19.978,6.549,6.22
68,0.715,35.867,32.113,30.766,24.162,19.732,6.549,6.22
69,0.715,36.012,32.16,30.814,24.169,19.649,6.713,6.343
70,0.701,35.916,32.168,30.795,24.166,19.321,6.672,6.302
71,0.701,35.79,32.231,30.804,24.173,19.198,6.672,6.385
72,0.698,35.916,32.128,30.795,24.162,18.869,6.59,6.262
73,0.695,36.012,32.168,30.804,24.162,18.705,6.59,6.385
74,0.695,35.664,32.195,30.824,24.176,18.869,6.672,6.426
75,0.698,35.741,32.231,30.814,24.173,19.075,6.59,6.385
76,0.698,35.887,32.227,30.824,24.176,19.444,6.672,6.549
77,0.698,35.954,32.243,30.804,24.166,19.649,6.508,6.343
78,0.701,35.577,32.203,30.785,24.159,19.896,6.631,6.343
79,0.731,35.741,32.132,30.824,24.176,20.184,6.631,6.467
80,0.738,35.877,32.176,30.833,24.169,20.348,6.59,6.467
81,0.754,35.964,32.215,30.853,24.169,20.553,6.713,6.672
82,0.79,35.644,32.191,30.804,24.166,20.471,6.549,6.385
83,0.833,35.799,32.069,30.814,24.166,20.471,6.59,6.549
84,0.869,35.935,32.195,30.843,24.173,20.348,6.713,6.631
85,0.918,36.012,32.195,30.833,24.176,20.101,6.631,6.631
86,0.938,36.138,32.247,30.862,24.176,20.019,6.672,6.754
87,0.954,36.264,32.231,30.804,24.166,19.485,6.467,6.59
88,0.994,36.381,32.247,30.833,24.169,19.239,6.549,6.754
89,1.043,36.439,32.231,30.833,24.176,18.992,6.59,6.795
90,1.083,35.451,32.203,30.853,24.166,18.623,6.631,6.795
91,1.152,35.615,32.18,30.862,24.176,18.377,6.672,6.96
92,1.224,35.683,32.207,30.824,24.162,17.884,6.549,6.837
93,1.283,35.702,32.203,30.843,24.169,17.555,6.549,7.001
94,1.359,35.732,32.148,30.872,24.169,17.35,6.631,7.001
95,1.421,35.867,32.176,30.853,24.173,17.062,6.549,7.083
96,1.49,35.964,32.195,30.882,24.176,16.939,6.631,7.206
97,1.533,35.867,32.207,30.853,24.169,16.528,6.508,7.124
98,1.582,35.586,32.203,30.853,24.162,16.446,6.549,7.165
99,1.605,35.741,32.247,30.882,24.169,16.323,6.631,7.206
100,1.641,35.799,32.195,30.862,24.169,16.077,6.631,7.206
101,1.644,35.654,32.203,30.901,24.187,16.035,6.713,7.37
102,1.615,35.702,32.14,30.872,24.162,15.666,6.508,7.206
103,1.612,35.828,32.231,30.882,24.169,15.584,6.508,7.329
104,1.621,35.945,32.215,30.891,24.176,15.42,6.549,7.288
105,1.625,35.577,32.14,30.882,24.173,15.255,6.549,7.288
106,1.612,35.741,32.109,30.92,24.176,15.173,6.672,7.452
107,1.592,35.838,32.049,30.882,24.162,14.927,6.508,7.247
108,1.582,35.935,32.18,30.901,24.166,14.927,6.549,7.37
109,1.533,35.489,32.183,30.891,24.173,15.091,6.672,7.452
110,1.454,35.625,32.239,30.901,24.173,15.173,6.549,7.494
111,1.382,35.77,32.207,30.92,24.18,15.461,6.631,7.699
112,1.276,35.838,32.152,30.882,24.159,15.42,6.508,7.699
113,1.178,35.644,32.191,30.911,24.169,15.543,6.549,7.945
114,1.076,35.819,32.223,30.93,24.173,15.748,6.59,8.274
115,1.027,35.925,32.258,30.92,24.162,15.912,6.59,8.602
116,1.0,35.974,32.215,30.95,24.18,16.282,6.631,9.136
117,0.974,35.518,32.18,30.882,24.159,16.323,6.426,9.382
118,0.964,35.673,32.132,30.92,24.166,16.487,6.508,9.876
119,0.958,35.819,32.207,30.94,24.169,16.61,6.631,10.368
120,0.961,35.848,32.176,30.93,24.173,16.652,6.467,10.82
121,0.961,35.567,32.239,30.959,24.173,16.693,6.672,11.231
122,0.938,35.673,32.152,30.92,24.162,16.487,6.467,11.313
123,0.925,35.799,32.156,30.94,24.166,16.528,6.426,11.518
124,0.902,35.887,32.16,30.959,24.169,16.446,6.631,11.764
125,0.869,35.509,32.207,30.95,24.169,16.282,6.631,11.806
126,0.846,35.664,32.219,30.979,24.183,16.323,6.631,12.134
127,0.793,35.732,32.239,30.959,24.159,15.953,6.467,11.929
128,0.761,35.606,32.215,30.95,24.166,15.912,6.508,12.052
129,0.764,35.712,32.168,30.959,24.173,15.748,6.549,12.011
130,0.754,35.848,32.164,30.959,24.169,15.584,6.508,12.011
131,0.761,35.954,32.176,30.979,24.173,15.461,6.672,12.175
132,0.764,35.47,32.211,30.94,24.162,15.132,6.467,12.093
133,0.774,35.615,32.156,30.959,24.173,15.05,6.508,12.339
134,0.787,35.78,32.152,30.988,24.169,14.845,6.631,12.504
135,0.79,35.857,32.168,30.969,24.166,14.722,6.59,12.791
136,0.816,35.567,32.199,31.008,24.176,14.639,6.631,12.996
137,0.81,35.654,32.203,30.959,24.162,14.188,6.467,13.038
138,0.807,35.809,32.215,30.969,24.169,14.064,6.467,13.325
139,0.81,35.887,32.215,30.998,24.169,13.982,6.508,13.407
140,0.813,35.518,32.136,30.998,24.169,13.818,6.508,13.571
141,0.816,35.712,32.191,31.046,24.187,13.736,6.631,13.777
142,0.813,35.78,32.187,30.969,24.162,13.366,6.426,13.613
143,0.803,35.848,32.231,30.998,24.166,13.243,6.631,13.571
144,0.803,35.489,32.195,30.998,24.162,13.243,6.549,13.571
145,0.787,35.635,32.116,31.008,24.169,13.202,6.549,13.571
146,0.81,35.761,32.183,31.095,24.176,13.407,6.631,13.613
147,0.777,35.761,32.152,30.979,24.166,13.079,6.508,13.284
148,0.774,35.819,32.176,31.017,24.166,13.079,6.508,13.202
149,0.777,35.954,32.18,31.017,24.169,13.038,6.508,13.079
150,0.764,36.032,32.243,31.008,24.169,12.996,6.549,12.915
151,0.777,36.255,32.124,31.066,24.18,13.12,6.631,12.915
152,0.77,35.528,32.168,30.998,24.162,12.791,6.467,12.586
153,0.761,35.673,32.16,31.046,24.162,12.75,6.508,12.504
154,0.767,35.79,32.243,31.046,24.173,12.668,6.508,12.381
155,0.764,35.548,32.219,31.037,24.173,12.504,6.549,12.175
156,0.777,35.615,32.191,31.066,24.176,12.504,6.672,12.011
157,0.774,35.712,32.152,31.037,24.159,12.134,6.385,11.683
158,0.774,35.809,32.105,31.037,24.162,12.134,6.385,11.6
159,0.78,35.431,32.156,31.046,24.176,12.011,6.467,11.436
160,0.78,35.557,32.176,31.046,24.169,11.888,6.59,11.313
161,0.78,35.702,32.239,31.066,24.18,11.929,6.631,11.272
162,0.78,35.751,32.101,31.046,24.155,11.559,6.426,10.902
163,0.787,35.47,32.176,31.046,24.162,11.6,6.467,10.779
164,0.787,35.635,32.18,31.075,24.166,11.723,6.508,10.697
165,0.78,35.741,32.223,31.056,24.166,11.683,6.59,10.532
166,0.777,35.857,32.239,31.095,24.176,11.847,6.631,10.574
167,0.754,35.393,32.215,31.056,24.159,11.6,6.385,10.245
168,0.774,35.557,32.207,31.056,24.166,11.847,6.467,10.163
169,0.774,35.702,32.132,31.075,24.173,11.97,6.508,9.999
170,0.761,35.761,32.176,31.085,24.169,12.052,6.549,9.876
171,0.78,35.857,32.195,31.104,24.176,12.339,6.631,9.916
172,0.751,35.945,32.231,31.056,24.162,12.298,6.426,9.629
173,0.757,36.051,32.152,31.104,24.162,12.463,6.549,9.506
174,0.774,36.119,32.168,31.095,24.169,12.709,6.549,9.382
175,0.767,35.46,32.164,31.085,24.166,12.791,6.549,9.465
176,0.784,35.625,32.227,31.124,24.183,12.915,6.631,9.424
177,0.77,35.693,32.183,31.075,24.155,12.709,6.426,9.136
178,0.78,36.042,32.227,31.095,24.162,12.873,6.508,9.136
179,0.787,35.509,32.223,31.095,24.166,12.915,6.549,9.095
180,0.78,35.625,32.191,31.095,24.173,12.791,6.508,9.136
181,0.793,35.761,32.168,31.143,24.176,12.873,6.631,9.054
182,0.777,35.509,32.176,31.095,24.159,12.627,6.467,8.808
183,0.78,35.557,32.199,31.114,24.162,12.586,6.508,8.849
184,0.78,35.683,32.191,31.124,24.166,12.586,6.549,8.808
185,0.78,35.78,32.128,31.114,24.166,12.504,6.508,8.726
186,0.78,35.509,32.18,31.153,24.18,12.545,6.672,8.767
187,0.761,35.596,32.156,31.114,24.162,12.298,6.385,8.644
188,0.774,35.732,32.16,31.124,24.166,12.257,6.508,8.52
189,0.78,35.838,32.195,31.133,24.166,12.257,6.467,8.561
190,0.77,35.354,32.219,31.124,24.166,12.093,6.549,8.479
191,0.774,35.538,32.148,31.153,24.18,12.175,6.631,8.52
192,0.754,35.644,32.148,31.114,24.166,11.97,6.426,8.274
193,0.784,35.732,32.16,31.133,24.166,11.888,6.467,8.315
194,0.787,35.509,32.207,31.153,24.169,11.888,6.59,8.315
195,0.774,35.615,32.199,31.153,24.166,12.011,6.59,8.274
196,0.797,35.78,32.18,31.172,24.18,12.134,6.631,8.397
197,0.784,35.79,32.132,31.124,24.152,12.052,6.467,8.109
198,0.797,35.412,32.109,31.143,24.166,12.298,6.549,8.192
199,0.787,35.577,32.16,31.162,24.169,12.627,6.631,8.15
200,0.793,35.683,32.195,31.172,24.169,13.079,6.59,8.109
201,0.8,35.741,32.223,31.192,24.176,13.613,6.672,8.192
202,0.784,35.518,32.116,31.172,24.162,13.982,6.549,7.986
203,0.787,35.673,32.156,31.172,24.166,14.352,6.59,7.945
204,0.774,35.77,32.176,31.162,24.169,14.763,6.631,7.986
205,0.784,35.819,32.199,31.172,24.166,15.05,6.631,7.986
206,0.79,35.47,32.235,31.192,24.18,15.378,6.672,7.986
207,0.77,35.557,32.191,31.172,24.166,15.338,6.549,7.822
208,0.777,35.673,32.168,31.162,24.166,15.543,6.59,7.822
209,0.774,35.567,32.12,31.182,24.169,15.748,6.631,7.822
210,0.777,35.596,32.152,31.182,24.169,15.871,6.672,7.822
211,0.79,35.751,32.211,31.211,24.176,16.118,6.795,7.863
212,0.79,35.799,32.183,31.172,24.159,15.995,6.631,7.617
213,0.79,35.344,32.105,31.182,24.169,16.159,6.631,7.658
214,0.79,35.47,32.176,31.211,24.162,16.077,6.713,7.74
215,0.797,35.606,32.168,31.201,24.159,16.118,6.672,7.658
216,0.816,35.712,32.176,31.221,24.18,16.118,6.795,7.781
217,0.803,35.489,32.187,31.201,24.166,15.83,6.59,7.494
218,0.797,35.625,32.203,31.192,24.169,15.748,6.59,7.575
219,0.803,35.761,32.239,31.221,24.169,15.625,6.631,7.575
220,0.81,35.838,32.128,31.201,24.176,15.502,6.631,7.617
221,0.81,35.276,32.16,31.221,24.176,15.338,6.795,7.617
222,0.797,35.402,32.195,31.192,24.162,15.009,6.631,7.452
223,0.787,35.518,32.215,31.211,24.166,14.886,6.631,7.411
224,0.793,35.625,32.14,31.23,24.169,14.68,6.631,7.452
225,0.807,35.441,32.144,31.23,24.166,14.475,6.672,7.411
226,0.803,35.615,32.164,31.24,24.176,14.311,6.754,7.494
227,0.803,35.693,32.156,31.192,24.159,13.982,6.59,7.288
228,0.793,35.751,32.187,31.201,24.169,13.859,6.631,7.329
229,0.803,35.509,32.183,31.221,24.169,13.736,6.672,7.329
230,0.8,35.625,32.219,31.23,24.173,13.49,6.672,7.247
231,0.803,35.78,32.069,31.259,24.176,13.366,6.754,7.37
232,0.793,35.761,32.156,31.221,24.162,13.038,6.549,7.165
233,0.793,35.48,32.148,31.24,24.162,12.956,6.631,7.165
234,0.793,35.635,32.207,31.24,24.176,12.791,6.631,7.288
235,0.807,35.741,32.183,31.23,24.173,12.668,6.713,7.206
236,0.807,35.538,32.148,31.25,24.176,12.791,6.713,7.329
237,0.81,35.48,32.105,31.24,24.169,12.463,6.549,7.083
238,0.82,35.635,32.081,31.25,24.169,12.381,6.672,7.042
239,0.826,35.761,32.156,31.25,24.169,12.298,6.631,7.124
240,0.823,35.257,32.16,31.269,24.173,12.216,6.631,7.042
241,0.83,35.383,32.223,31.279,24.18,12.216,6.795,7.165
242,0.807,35.499,32.14,31.24,24.159,11.888,6.59,6.96
243,0.816,35.577,32.168,31.25,24.166,11.806,6.59,6.96
244,0.826,35.373,32.183,31.25,24.176,11.764,6.713,7.083
245,0.816,35.518,32.211,31.259,24.173,11.641,6.631,7.001
246,0.813,35.664,32.227,31.279,24.176,11.559,6.754,7.124
247,0.803,35.702,32.195,31.25,24.159,11.313,6.59,6.96
248,0.816,35.296,32.183,31.269,24.166,11.354,6.59,6.96
249,0.82,35.47,32.105,31.279,24.18,11.272,6.672,6.96
250,0.81,35.596,32.16,31.288,24.166,11.354,6.59,6.96
251,0.83,35.664,32.168,31.298,24.176,11.518,6.754,7.042
252,0.816,35.402,32.199,31.269,24.162,11.395,6.508,6.795
253,0.813,35.567,32.097,31.279,24.169,11.518,6.59,6.96
254,0.823,35.702,32.156,31.308,24.173,11.723,6.631,6.96
255,0.836,35.732,32.144,31.279,24.169,11.806,6.59,6.96
256,0.849,35.373,32.195,31.327,24.176,12.011,6.713,7.042
257,0.83,35.451,32.187,31.269,24.162,11.888,6.549,6.837
258,0.836,35.586,32.211,31.288,24.166,12.052,6.549,6.877
259,0.843,35.635,32.227,31.308,24.169,12.093,6.631,6.919
260,0.836,35.451,32.116,31.308,24.166,12.216,6.549,6.877
261,0.853,35.635,32.176,31.346,24.176,12.422,6.713,7.042
262,0.853,35.683,32.16,31.298,24.162,12.422,6.467,6.919
263,0.843,35.412,32.211,31.288,24.173,12.627,6.508,6.877
264,0.843,35.325,32.136,31.317,24.176,12.915,6.549,6.877
265,0.843,35.451,32.081,31.327,24.162,13.325,6.549,6.877
266,0.856,35.586,32.144,31.337,24.18,13.941,6.672,6.96
267,0.82,35.373,32.148,31.288,24.155,14.228,6.426,6.795
268,0.83,35.538,32.16,31.317,24.169,14.722,6.467,6.877
269,0.836,35.693,32.18,31.337,24.169,15.173,6.508,6.919
270,0.833,35.741,32.207,31.317,24.169,15.83,6.508,6.877
271,0.846,35.238,32.101,31.366,24.176,16.61,6.59,7.042
272,0.83,35.344,32.14,31.317,24.162,16.98,6.467,6.837
273,0.843,35.47,32.168,31.337,24.166,17.678,6.426,6.96
274,0.846,35.538,32.207,31.356,24.173,18.253,6.467,7.001
275,0.856,35.334,32.176,31.337,24.176,18.787,6.426,7.042
276,0.862,35.528,32.168,31.366,24.183,19.527,6.631,7.124
277,0.856,35.586,32.12,31.317,24.159,19.773,6.343,7.001
278,0.849,35.673,32.089,31.337,24.162,20.184,6.467,7.042
279,0.862,35.267,32.152,31.366,24.166,20.512,6.467,7.083
280,0.859,35.393,32.164,31.356,24.166,20.717,6.508,7.124
281,0.866,35.518,32.211,31.385,24.169,20.964,6.59,7.124
282,0.856,35.538,32.081,31.356,24.169,20.841,6.426,6.96
283,0.869,35.354,32.144,31.346,24.169,20.923,6.426,7.083
284,0.889,35.499,32.156,31.366,24.169,20.841,6.549,7.083
285,0.869,35.606,32.219,31.366,24.166,20.759,6.426,7.083
286,0.879,35.654,32.215,31.395,24.18,20.676,6.549,7.206
287,0.882,35.238,32.195,31.366,24.159,20.184,6.426,6.919
288,0.882,35.402,32.187,31.385,24.173,20.019,6.467,7.042
289,0.876,35.528,32.093,31.385,24.176,19.649,6.549,7.042
290,0.872,35.46,32.148,31.395,24.169,19.28,6.549,7.042
291,0.889,35.422,32.195,31.424,24.18,18.992,6.672,7.206
292,0.876,35.518,32.203,31.356,24.159,18.377,6.467,6.919
293,0.879,35.625,32.089,31.404,24.166,18.007,6.426,7.042
294,0.882,35.257,32.148,31.424,24.173,17.72,6.508,7.042
295,0.879,35.334,32.144,31.395,24.166,17.227,6.508,7.001
296,0.902,35.499,32.183,31.424,24.176,16.857,6.631,7.165
297,0.895,35.538,32.168,31.375,24.162,16.282,6.385,6.96
298,0.899,35.315,32.199,31.385,24.162,15.995,6.385,6.96
299,0.912,35.489,32.223,31.424,24.173,15.543,6.508,7.042
300,0.925,35.606,32.109,31.424,24.169,15.173,6.467,7.001
301,0.915,35.712,32.183,31.434,24.18,14.927,6.508,7.083
302,0.912,35.373,32.187,31.395,24.159,14.393,6.385,6.96
303,0.918,35.528,32.195,31.404,24.169,14.105,6.426,7.001
304,0.925,35.664,32.132,31.424,24.176,13.859,6.426,6.96
305,0.922,35.722,32.172,31.453,24.169,13.448,6.426,7.042
306,0.918,35.412,32.152,31.453,24.18,13.284,6.631,7.124
307,0.908,35.499,32.164,31.404,24.162,12.832,6.302,6.96
308,0.915,35.635,32.152,31.424,24.169,12.627,6.426,7.001
309,0.931,35.702,32.18,31.434,24.169,12.545,6.549,7.124
310,0.918,35.557,32.172,31.443,24.166,12.298,6.549,7.042
311,0.931,35.751,32.176,31.463,24.18,12.381,6.631,7.165
312,0.922,35.809,32.132,31.424,24.166,12.216,6.549,7.001
313,0.931,35.828,32.176,31.463,24.169,12.339,6.631,7.042
314,0.948,35.538,32.207,31.453,24.176,12.545,6.631,7.124
315,0.951,35.673,32.14,31.443,24.173,12.627,6.59,7.083
316,0.964,35.819,32.132,31.482,24.18,12.873,6.713,7.288
317,0.951,35.819,32.089,31.443,24.155,12.873,6.549,7.042
318,0.964,35.799,32.128,31.463,24.169,13.202,6.713,7.083
319,0.974,35.935,32.132,31.482,24.169,13.407,6.672,7.206
320,0.971,36.022,32.144,31.472,24.169,13.531,6.631,7.206
321,0.994,35.954,32.172,31.482,24.176,13.695,6.754,7.329
322,0.977,36.042,32.14,31.453,24.159,13.613,6.59,7.124
323,0.977,36.187,32.148,31.463,24.166,13.695,6.672,7.206
324,0.968,36.293,32.183,31.482,24.176,13.736,6.672,7.247
325,0.951,35.78,32.207,31.463,24.162,13.531,6.672,7.247
326,0.968,35.935,32.227,31.482,24.18,13.695,6.713,7.37
327,0.971,36.032,32.16,31.463,24.166,13.407,6.59,7.165
328,0.984,36.1,32.132,31.472,24.169,13.366,6.631,7.206
329,0.991,36.09,32.109,31.53,24.173,13.284,6.631,7.288
330,0.984,36.245,32.128,31.501,24.176,13.12,6.631,7.288
331,0.994,36.342,32.18,31.511,24.176,13.038,6.672,7.37
332,0.991,36.4,32.164,31.482,24.166,12.709,6.549,7.206
333,0.994,36.245,32.128,31.521,24.169,12.586,6.672,7.288
334,0.997,36.41,32.144,31.501,24.169,12.545,6.672,7.288
335,1.01,36.516,32.16,31.501,24.162,12.381,6.631,7.288
336,1.027,36.574,32.187,31.55,24.183,12.381,6.795,7.411
337,1.017,36.371,32.223,31.482,24.169,11.929,6.508,7.165
338,1.023,36.526,32.207,31.511,24.166,11.888,6.631,7.165
339,1.03,36.632,32.199,31.511,24.169,11.806,6.631,7.247
340,1.043,36.681,32.156,31.511,24.169,11.723,6.631,7.165
341,1.05,36.981,32.152,31.54,24.18,11.764,6.754,7.37
342,1.033,37.078,32.191,31.501,24.162,11.518,6.549,7.165
343,1.043,37.175,32.183,31.511,24.166,11.436,6.631,7.124
344,1.046,37.175,32.097,31.521,24.176,11.395,6.631,7.247
345,1.04,36.923,32.128,31.511,24.169,11.272,6.59,7.124
346,1.05,37.078,32.16,31.55,24.18,11.395,6.672,7.288
347,1.03,37.146,32.136,31.511,24.162,11.108,6.508,7.124
348,1.037,36.855,32.176,31.521,24.173,11.066,6.549,7.124
349,1.046,36.933,32.176,31.54,24.176,10.984,6.59,7.124
350,1.03,37.049,32.187,31.521,24.169,10.902,6.549,7.165
351,1.04,37.165,32.176,31.569,24.18,10.943,6.713,7.165
352,1.04,36.971,32.156,31.521,24.159,10.656,6.467,7.001
353,1.043,37.117,32.183,31.54,24.166,10.697,6.549,7.042
354,1.056,37.252,32.203,31.55,24.173,10.697,6.631,7.083
355,1.05,37.31,32.152,31.54,24.169,10.697,6.508,7.083
356,1.073,37.078,32.128,31.579,24.176,10.984,6.631,7.165
357,1.06,37.175,32.081,31.53,24.162,10.861,6.385,6.96
358,1.066,37.349,32.089,31.55,24.169,11.313,6.508,6.96
359,1.06,37.407,32.144,31.55,24.166,11.641,6.508,7.083
360,1.066,37.31,32.18,31.54,24.176,11.97,6.467,7.001
361,1.073,37.475,32.195,31.579,24.18,12.504,6.672,7.124
362,1.06,37.543,32.136,31.54,24.162,12.668,6.426,6.96
363,1.066,37.611,32.14,31.54,24.162,12.996,6.426,6.96
364,1.06,37.33,32.176,31.569,24.18,13.284,6.59,7.042
365,1.056,37.456,32.207,31.569,24.166,13.531,6.549,6.96
366,1.06,37.582,32.18,31.588,24.176,13.859,6.631,7.124
367,1.046,37.582,32.152,31.55,24.166,13.818,6.467,7.001
368,1.05,37.485,32.093,31.559,24.169,13.9,6.549,6.96
369,1.043,37.62,32.073,31.588,24.169,14.023,6.59,7.124
370,1.03,37.737,32.128,31.569,24.18,14.105,6.549,7.083
371,1.04,37.882,32.18,31.608,24.183,14.228,6.672,7.288
372,1.03,37.504,32.148,31.55,24.162,14.188,6.508,7.001
373,1.04,37.649,32.144,31.656,24.166,14.434,6.508,7.124
374,1.037,37.756,32.14,31.579,24.18,14.722,6.631,7.165
375,1.027,37.543,32.152,31.569,24.176,14.968,6.508,7.165
376,1.037,37.649,32.176,31.608,24.183,15.338,6.713,7.288
377,1.02,37.727,32.191,31.559,24.162,15.378,6.508,7.124
378,1.023,37.804,32.191,31.579,24.166,15.748,6.631,7.083
379,1.014,38.046,32.152,31.579,24.169,16.077,6.631,7.206
380,1.023,38.192,32.164,31.588,24.176,16.241,6.631,7.206
381,1.03,38.327,32.164,31.617,24.183,16.528,6.672,7.329
382,1.004,38.347,32.187,31.569,24.155,16.405,6.508,7.124
383,1.027,37.214,32.191,31.588,24.169,16.528,6.549,7.124
384,1.004,37.368,32.113,31.588,24.173,16.528,6.631,7.124
385,1.004,37.485,32.136,31.608,24.166,16.528,6.631,7.206
386,1.004,37.591,32.113,31.637,24.183,16.528,6.713,7.288
387,0.961,37.766,32.132,31.579,24.159,16.159,6.508,7.042
388,0.974,37.911,32.144,31.588,24.169,16.077,6.631,7.206
389,0.974,38.037,32.168,31.617,24.169,16.035,6.631,7.165
390,0.948,38.076,32.176,31.588,24.166,15.912,6.59,7.206
391,0.964,37.649,32.183,31.637,24.176,15.912,6.672,7.206
392,0.935,37.727,32.144,31.608,24.162,15.666,6.508,7.083
393,0.931,37.843,32.176,31.617,24.169,15.666,6.508,7.165
394,0.925,37.892,32.191,31.608,24.162,15.707,6.59,7.206
395,0.945,37.678,32.144,31.627,24.173,15.625,6.631,7.247
396,0.945,37.833,32.085,31.656,24.176,15.502,6.672,7.206
397,0.925,37.892,32.053,31.646,24.159,15.297,6.508,7.083
398,0.931,38.163,32.116,31.627,24.166,15.378,6.508,7.083
399,0.931,37.601,32.132,31.637,24.176,15.173,6.549,7.083
400,0.918,37.717,32.168,31.627,24.169,15.091,6.631,7.124
401,0.928,37.833,32.132,31.666,24.176,14.927,6.631,7.165
402,0.912,37.475,32.14,31.617,24.162,14.722,6.508,7.042
403,0.905,37.504,32.148,31.646,24.166,14.639,6.59,7.083
404,0.885,37.62,32.164,31.617,24.169,14.27,6.549,6.96
405,0.892,37.727,32.203,31.646,24.166,14.27,6.59,7.124
406,0.892,37.446,32.144,31.637,24.166,14.023,6.672,7.001
407,0.872,37.543,32.097,31.627,24.159,13.859,6.508,6.96
408,0.866,37.688,32.049,31.646,24.162,13.613,6.59,6.96
409,0.862,37.756,32.077,31.627,24.162,13.49,6.508,6.96
410,0.856,37.436,32.148,31.646,24.176,13.366,6.672,7.042
411,0.862,37.562,32.18,31.656,24.166,13.079,6.672,6.96
412,0.849,37.678,32.128,31.637,24.169,12.956,6.508,6.877
413,0.853,37.766,32.12,31.656,24.166,12.75,6.59,6.919
414,0.843,37.417,32.128,31.656,24.159,12.668,6.467,6.877
415,0.862,37.582,32.168,31.675,24.173,12.668,6.672,6.96
416,0.846,37.688,32.203,31.656,24.166,12.545,6.631,6.96
417,0.843,37.717,32.187,31.656,24.166,12.627,6.631,6.96
418,0.839,37.339,32.187,31.656,24.162,12.75,6.631,6.96
419,0.836,37.475,32.073,31.627,24.152,12.832,6.508,6.877
420,0.839,37.63,32.124,31.675,24.173,13.243,6.672,6.96
421,0.833,37.659,32.152,31.666,24.173,13.448,6.672,6.96
422,0.833,37.349,32.156,31.666,24.166,13.695,6.631,6.96
423,0.836,37.504,32.113,31.666,24.166,13.818,6.631,6.96
424,0.82,37.591,32.109,31.656,24.162,13.941,6.549,6.837
425,0.83,37.95,32.136,31.675,24.169,14.228,6.713,7.001
426,0.82,37.233,32.144,31.675,24.159,14.352,6.713,6.919
427,0.797,37.33,32.18,31.675,24.162,14.434,6.59,6.877
428,0.807,37.446,32.191,31.675,24.162,14.598,6.672,6.919
429,0.797,37.301,32.152,31.666,24.162,14.639,6.631,6.795
430,0.803,37.359,32.113,31.704,24.173,14.845,6.795,6.919
431,0.807,37.494,32.113,31.695,24.169,14.886,6.754,6.877
432,0.8,37.562,32.16,31.685,24.159,14.886,6.672,6.754
433,0.82,37.01,32.164,31.695,24.166,14.886,6.631,6.919
434,0.803,37.136,32.116,31.685,24.155,14.845,6.672,6.795
435,0.807,37.272,32.045,31.714,24.176,14.927,6.754,6.96
436,0.807,37.359,32.105,31.714,24.176,14.763,6.672,6.919
437,0.803,37.0,32.124,31.685,24.166,14.639,6.713,6.877
438,0.793,37.155,32.128,31.695,24.169,14.434,6.713,6.877
439,0.807,37.262,32.152,31.685,24.162,14.311,6.713,6.837
440,0.813,37.339,32.176,31.714,24.169,14.228,6.754,6.96
441,0.807,37.107,32.128,31.714,24.169,14.105,6.754,6.96
442,0.8,37.223,32.128,31.704,24.166,14.023,6.754,6.877
443,0.797,37.359,32.16,31.714,24.162,14.105,6.672,6.837
444,0.8,37.378,32.172,31.675,24.159,14.146,6.59,6.754
445,0.816,36.991,32.172,31.743,24.173,14.598,6.713,6.877
446,0.803,37.136,32.116,31.714,24.169,15.091,6.713,6.877
447,0.784,37.243,32.085,31.714,24.162,15.584,6.754,6.919
448,0.784,37.281,32.038,31.714,24.166,16.035,6.631,6.837
449,0.777,36.942,32.116,31.695,24.159,16.323,6.631,6.713
450,0.787,37.097,32.156,31.734,24.169,16.775,6.795,6.795
451,0.784,37.194,32.183,31.734,24.169,17.062,6.713,6.795
452,0.784,37.262,32.113,31.724,24.173,17.268,6.754,6.837
453,0.78,36.991,32.093,31.724,24.166,17.473,6.631,6.713
454,0.78,37.097,32.132,31.714,24.159,17.555,6.631,6.795
455,0.79,37.223,32.148,31.753,24.173,17.884,6.713,6.795
456,0.793,36.874,32.187,31.753,24.166,17.884,6.672,6.713
457,0.8,36.836,32.187,31.753,24.176,18.007,6.713,6.837
458,0.793,36.942,32.183,31.724,24.166,18.007,6.59,6.672
459,0.79,37.029,32.097,31.724,24.162,17.884,6.549,6.754
460,0.807,36.816,32.132,31.763,24.166,17.884,6.713,6.754
461,0.81,36.923,32.152,31.753,24.166,17.72,6.631,6.754
462,0.79,37.039,32.16,31.763,24.173,17.596,6.631,6.754
463,0.79,37.126,32.093,31.743,24.166,17.268,6.508,6.631
464,0.79,36.69,32.113,31.724,24.152,17.021,6.549,6.631
465,0.79,36.884,32.148,31.772,24.169,16.898,6.631,6.795
466,0.784,36.981,32.132,31.763,24.169,16.652,6.631,6.672
467,0.777,37.039,32.168,31.782,24.176,16.652,6.713,6.754
468,0.777,36.816,32.144,31.753,24.169,16.528,6.549,6.631
469,0.774,36.942,32.156,31.763,24.159,16.57,6.631,6.713
470,0.787,37.078,32.109,31.772,24.176,16.652,6.672,6.713
471,0.79,37.155,32.136,31.772,24.169,16.693,6.713,6.631
472,0.784,36.797,32.16,31.782,24.176,16.734,6.837,6.795
473,0.784,36.904,32.176,31.782,24.169,16.652,6.672,6.672
474,0.774,37.02,32.109,31.782,24.169,16.693,6.631,6.631
475,0.793,37.078,32.061,31.792,24.18,16.734,6.672,6.713
476,0.777,36.671,32.132,31.859,24.169,16.693,6.795,6.713
477,0.803,36.816,32.116,31.801,24.183,16.816,6.919,6.795
478,0.797,36.894,32.097,31.772,24.162,16.487,6.631,6.631
479,0.79,36.913,32.124,31.811,24.176,16.446,6.713,6.59
480,0.81,36.865,32.176,31.792,24.176,16.405,6.754,6.713
481,0.8,36.971,32.097,31.792,24.169,16.2,6.795,6.672
482,0.803,37.126,32.12,31.821,24.183,16.2,6.919,6.713
483,0.797,36.7,32.144,31.772,24.166,15.789,6.672,6.549
484,0.8,36.603,32.172,31.782,24.166,15.584,6.631,6.59
485,0.793,36.758,32.172,31.821,24.169,15.378,6.754,6.631
486,0.79,36.855,32.124,31.792,24.169,15.05,6.754,6.59
487,0.797,36.623,32.101,31.83,24.183,14.968,6.837,6.754
488,0.787,36.71,32.065,31.782,24.166,14.639,6.672,6.508
489,0.79,36.855,32.097,31.811,24.169,14.352,6.754,6.549
490,0.79,36.952,32.144,31.83,24.169,14.188,6.713,6.59
491,0.784,37.485,32.16,31.811,24.166,14.023,6.754,6.59
492,0.79,37.669,32.105,31.83,24.18,13.982,6.877,6.672
493,0.777,37.717,32.105,31.801,24.166,13.613,6.631,6.467
494,0.777,37.814,32.14,31.821,24.169,13.49,6.713,6.549
495,0.787,36.322,32.156,31.83,24.169,13.366,6.754,6.508
496,0.787,36.458,32.164,31.821,24.173,13.243,6.672,6.59
497,0.807,36.594,32.18,31.859,24.176,13.243,6.877,6.631
498,0.793,36.642,32.132,31.811,24.159,12.956,6.631,6.467
499,0.803,36.72,32.065,31.811,24.166,12.915,6.672,6.467
500,0.803,36.874,32.101,31.84,24.169,12.915,6.713,6.508
501,0.803,37.0,32.14,31.83,24.173,12.709,6.713,6.508
502,0.816,37.059,32.18,31.869,24.18,12.627,6.795,6.59
503,0.807,36.545,32.081,31.821,24.155,12.381,6.713,6.426
504,0.803,36.661,32.097,31.821,24.162,12.257,6.713,6.426
505,0.803,36.807,32.144,31.821,24.173,12.216,6.837,6.508
506,0.8,36.807,32.176,31.83,24.162,12.175,6.754,6.467
507,0.807,36.797,32.203,31.869,24.176,12.298,6.837,6.631
508,0.784,36.874,32.148,31.83,24.162,12.257,6.754,6.467
509,0.784,37.0,32.191,31.84,24.162,12.381,6.754,6.508
510,0.784,36.787,32.089,31.85,24.169,12.586,6.754,6.426
511,0.79,36.671,32.12,31.84,24.166,12.75,6.795,6.426
512,0.81,36.836,32.176,31.869,24.18,12.996,6.877,6.59
513,0.787,36.874,32.148,31.821,24.162,12.996,6.713,6.385
514,0.79,36.652,32.109,31.85,24.166,13.325,6.754,6.508
515,0.807,36.807,32.053,31.869,24.166,13.49,6.837,6.467
516,0.81,36.904,32.113,31.859,24.173,13.613,6.837,6.426
517,0.826,37.049,32.136,31.869,24.18,13.777,6.837,6.549
518,0.797,36.632,32.132,31.821,24.155,13.695,6.713,6.426
519,0.81,36.797,32.144,31.859,24.166,13.777,6.795,6.426
520,0.82,36.923,32.183,31.85,24.173,13.736,6.795,6.467
521,0.81,36.991,32.144,31.908,24.169,13.736,6.754,6.467
522,0.816,36.681,32.124,31.888,24.18,13.818,6.96,6.59
523,0.81,36.787,32.128,31.859,24.166,13.49,6.672,6.385
524,0.813,36.894,32.172,31.85,24.162,13.407,6.754,6.426
525,0.81,36.962,32.136,31.869,24.166,13.284,6.754,6.426
526,0.8,36.71,32.069,31.85,24.169,13.161,6.837,6.426
527,0.813,36.894,32.093,31.908,24.183,13.12,6.877,6.467
528,0.803,36.952,32.097,31.917,24.159,12.873,6.672,6.385
529,0.8,37.0,32.14,31.869,24.173,12.791,6.713,6.426
530,0.8,36.7,32.16,31.85,24.162,12.709,6.713,6.385
531,0.793,36.807,32.187,31.869,24.173,12.586,6.795,6.467
532,0.81,36.962,32.128,31.966,24.18,12.545,6.837,6.508
533,0.784,36.933,32.113,31.85,24.155,12.381,6.631,6.343
534,0.79,36.632,32.12,31.879,24.162,12.298,6.672,6.467
535,0.813,36.787,32.187,31.888,24.173,12.339,6.754,6.385
536,0.813,36.894,32.156,31.888,24.176,12.339,6.713,6.343
537,0.823,36.865,32.132,31.908,24.176,12.545,6.837,6.508
538,0.8,36.758,32.105,31.859,24.159,12.463,6.631,6.343
539,0.816,36.913,32.042,31.898,24.173,12.668,6.672,6.385
540,0.823,37.049,32.136,31.888,24.169,12.668,6.672,6.426
541,0.81,36.545,32.152,31.898,24.169,12.75,6.713,6.467
542,0.816,36.671,32.132,31.927,24.173,12.832,6.754,6.467
543,0.81,36.768,32.132,31.927,24.162,12.709,6.631,6.385
544,0.823,36.865,32.116,31.888,24.166,12.75,6.672,6.426
545,0.81,36.623,32.136,31.879,24.166,12.627,6.631,6.385
546,0.807,36.749,32.152,31.908,24.169,12.709,6.713,6.426
547,0.797,36.874,32.191,31.898,24.169,12.463,6.713,6.467
548,0.797,36.923,32.16,31.879,24.162,12.463,6.631,6.302
549,0.8,36.477,32.128,31.898,24.159,12.339,6.631,6.385
550,0.813,36.632,32.124,31.898,24.166,12.134,6.549,6.262
551,0.8,36.768,32.109,31.927,24.169,12.175,6.754,6.426
552,0.807,36.826,32.152,31.917,24.166,12.093,6.754,6.426
553,0.8,36.487,32.109,31.898,24.162,11.806,6.631,6.508
554,0.797,36.642,32.057,31.908,24.166,11.723,6.672,6.385
555,0.797,36.778,32.105,31.908,24.162,11.477,6.549,6.343
556,0.803,36.836,32.097,31.927,24.173,11.518,6.713,6.467
557,0.82,36.545,32.14,31.927,24.166,11.313,6.754,6.508
558,0.8,36.652,32.148,31.898,24.159,11.149,6.631,6.385
559,0.81,36.758,32.172,31.917,24.166,11.025,6.672,6.343
560,0.807,36.807,32.097,31.927,24.159,10.902,6.631,6.262
561,0.803,36.584,32.093,31.937,24.173,10.902,6.713,6.467
562,0.816,36.7,32.14,31.927,24.173,10.779,6.672,6.426
563,0.807,36.787,32.164,31.898,24.162,10.656,6.631,6.343
564,0.803,36.69,32.113,31.908,24.162,10.779,6.59,6.467
565,0.803,36.477,32.085,31.917,24.159,10.984,6.549,6.262
566,0.797,36.642,32.109,31.927,24.162,11.477,6.713,6.426
567,0.8,36.749,32.105,31.946,24.166,11.806,6.713,6.385
568,0.787,36.371,32.109,31.908,24.162,12.175,6.59,6.385
569,0.8,36.506,32.093,31.937,24.169,12.668,6.549,6.385
570,0.78,36.613,32.144,31.927,24.155,13.038,6.508,6.302
571,0.793,36.72,32.065,31.946,24.166,13.49,6.713,6.426
572,0.807,36.293,32.12,31.946,24.166,13.777,6.713,6.385
573,0.793,36.41,32.132,31.927,24.166,13.941,6.631,6.343
574,0.793,36.545,32.164,31.946,24.162,14.105,6.672,6.343
575,0.8,36.632,32.128,31.937,24.159,14.188,6.549,6.302
576,0.81,36.4,32.097,31.946,24.169,14.352,6.672,6.426
577,0.816,36.565,32.018,31.966,24.162,14.393,6.672,6.343
578,0.797,36.652,31.998,31.956,24.159,14.393,6.631,6.343
579,0.82,36.72,32.105,31.966,24.166,14.352,6.631,6.343
580,0.82,36.361,32.136,31.946,24.155,14.311,6.631,6.343
581,0.816,36.526,32.116,31.966,24.169,14.557,6.795,6.385
582,0.816,36.652,32.128,31.956,24.169,14.475,6.754,6.426
583,0.8,36.671,32.077,31.937,24.162,14.516,6.672,6.343
584,0.787,36.332,32.148,31.956,24.166,14.598,6.672,6.426
585,0.803,36.477,32.156,31.937,24.159,14.557,6.631,6.302
586,0.793,36.603,32.144,31.966,24.169,14.803,6.877,6.467
587,0.8,36.632,32.116,31.966,24.166,14.845,6.754,6.426
588,0.79,36.293,32.081,31.946,24.159,14.886,6.754,6.385
589,0.78,36.468,32.132,31.966,24.169,15.009,6.795,6.467
590,0.787,36.555,32.093,31.946,24.162,14.968,6.713,6.343
591,0.79,36.545,32.168,31.985,24.166,15.05,6.837,6.508
592,0.793,36.322,32.105,31.956,24.162,14.968,6.837,6.426
593,0.79,36.429,32.093,31.966,24.162,14.845,6.837,6.385
594,0.793,36.555,32.12,31.985,24.166,14.845,6.795,6.549
595,0.81,36.255,32.136,31.946,24.159,14.68,6.795,6.385
596,0.803,36.351,32.16,31.976,24.169,14.68,6.877,6.549
597,0.807,36.468,32.18,31.995,24.166,14.557,6.837,6.508
598,0.797,36.535,32.156,31.956,24.162,14.311,6.795,6.385
599,0.803,36.187,32.073,31.985,24.162,14.188,6.795,6.467
600,0.807,36.332,32.113,31.966,24.162,13.982,6.713,6.467
601,0.81,36.477,32.124,31.985,24.173,13.982,6.877,6.549
602,0.8,36.535,32.148,31.985,24.169,13.859,6.877,6.59
603,0.803,36.206,32.042,31.976,24.162,13.736,6.795,6.549
604,0.807,36.39,32.073,31.976,24.162,13.531,6.754,6.508
605,0.793,36.458,32.105,31.966,24.155,13.325,6.754,6.343
606,0.793,36.565,32.176,31.985,24.169,13.407,6.837,6.631
607,0.8,36.284,32.199,31.995,24.169,13.366,6.837,6.549
608,0.787,36.419,32.156,31.995,24.162,13.325,6.754,6.672
609,0.787,36.545,32.148,31.995,24.166,13.407,6.754,6.549
610,0.777,36.594,32.105,31.966,24.155,13.613,6.631,6.549
611,0.8,36.351,32.097,32.014,24.173,14.146,6.877,6.672
612,0.79,36.497,32.12,32.005,24.162,14.598,6.713,6.672
613,0.79,36.603,32.116,31.995,24.169,15.091,6.795,6.713
614,0.8,36.642,32.065,32.014,24.166,15.584,6.795,6.713
615,0.793,36.245,32.073,31.995,24.166,15.953,6.631,6.631
616,0.813,36.41,32.093,32.014,24.176,16.487,6.795,6.795
617,0.803,36.516,32.116,32.005,24.169,16.816,6.754,6.795
618,0.8,36.642,32.16,32.005,24.162,17.062,6.754,6.795
619,0.797,36.419,32.207,32.005,24.162,17.185,6.713,6.795
620,0.8,36.526,32.136,31.976,24.155,17.185,6.549,6.713
621,0.803,36.69,32.12,32.024,24.176,17.391,6.754,6.877
622,0.807,36.274,32.124,32.014,24.166,17.227,6.713,6.837
623,0.81,36.303,32.14,32.014,24.166,17.062,6.754,6.795
624,0.81,36.429,32.12,32.005,24.166,16.898,6.672,6.713
625,0.79,36.516,32.038,31.995,24.159,16.734,6.672,6.713
626,0.793,36.371,32.105,32.024,24.169,16.61,6.754,6.919
627,0.787,36.477,32.089,32.024,24.166,16.364,6.713,6.877
628,0.79,36.594,32.12,32.043,24.173,16.241,6.754,6.837
629,0.787,36.671,32.124,32.005,24.166,15.83,6.631,6.754
630,0.774,36.274,32.144,31.976,24.162,15.461,6.508,6.713
631,0.797,36.458,32.12,32.063,24.173,15.297,6.795,6.837
632,0.793,36.574,32.105,32.024,24.162,15.091,6.672,6.837
633,0.784,36.642,32.132,32.043,24.166,14.722,6.754,6.877
634,0.787,36.361,32.152,32.034,24.162,14.475,6.672,6.754
635,0.784,36.516,32.113,32.014,24.166,14.228,6.672,6.795
636,0.803,36.652,32.057,32.053,24.169,14.023,6.713,6.877
637,0.8,36.7,32.006,32.024,24.169,13.695,6.713,6.795
638,0.8,36.351,32.065,32.034,24.169,13.531,6.795,6.96
639,0.813,36.458,32.105,32.024,24.162,13.12,6.672,6.713
640,0.797,36.555,32.116,32.024,24.162,12.873,6.713,6.754
641,0.803,36.603,32.101,32.063,24.176,12.75,6.713,6.877
642,0.79,36.458,32.081,32.043,24.169,12.422,6.754,6.795
643,0.803,36.603,32.097,32.053,24.18,12.298,6.795,6.919
644,0.8,36.681,32.16,32.024,24.162,11.888,6.672,6.713
645,0.784,36.913,32.16,32.024,24.169,11.723,6.672,6.713
646,0.79,36.361,32.105,32.043,24.173,11.641,6.713,6.754
647,0.777,36.497,32.061,32.043,24.169,11.395,6.713,6.795
648,0.787,36.623,32.085,32.082,24.176,11.313,6.837,6.795
649,0.774,36.439,32.042,32.034,24.166,10.984,6.631,6.631
650,0.784,36.497,32.097,32.053,24.169,10.902,6.631,6.754
651,0.777,36.632,32.152,32.063,24.169,10.82,6.713,6.754
652,0.79,36.72,32.097,32.043,24.166,10.738,6.713,6.631
653,0.803,36.39,32.113,32.082,24.176,10.779,6.837,6.795
654,0.793,36.458,32.113,32.024,24.162,10.327,6.631,6.549
655,0.8,36.594,32.156,32.053,24.162,10.409,6.713,6.631
656,0.813,36.69,32.16,32.063,24.169,10.286,6.713,6.713
657,0.813,36.41,32.144,32.072,24.173,10.286,6.713,6.672
658,0.813,36.594,32.136,32.082,24.176,10.245,6.754,6.713
659,0.813,36.652,32.085,32.043,24.155,9.999,6.59,6.508
660,0.823,36.729,32.081,32.063,24.162,10.04,6.631,6.549
661,0.826,36.342,32.097,32.063,24.173,9.999,6.631,6.59
662,0.823,36.487,32.136,32.072,24.169,10.163,6.713,6.631
663,0.836,36.642,32.069,32.092,24.173,10.204,6.713,6.631
664,0.826,36.661,32.073,32.053,24.166,10.122,6.631,6.549
665,0.836,36.468,32.089,32.043,24.155,10.245,6.59,6.549
666,0.82,36.613,32.101,32.063,24.162,10.245,6.59,6.467
667,0.816,36.72,32.156,32.072,24.169,10.327,6.672,6.549
668,0.843,36.758,32.148,32.082,24.169,10.368,6.672,6.549
669,0.82,36.361,32.156,32.053,24.159,10.327,6.508,6.467
670,0.833,36.506,32.042,32.072,24.166,10.409,6.59,6.508
671,0.836,36.632,32.069,32.072,24.159,10.45,6.467,6.385
672,0.856,36.991,32.144,32.063,24.169,10.656,6.631,6.59
673,0.862,36.506,32.148,32.063,24.166,10.82,6.631,6.549
674,0.859,36.594,32.077,32.072,24.166,10.902,6.59,6.467
675,0.876,36.739,32.113,32.13,24.166,11.313,6.549,6.426
676,0.885,36.41,32.081,32.063,24.162,11.6,6.549,6.343
677,0.889,36.439,32.069,32.092,24.176,12.052,6.631,6.467
678,0.902,36.565,32.12,32.092,24.166,12.463,6.631,6.467
679,0.892,36.632,32.124,32.063,24.159,12.668,6.549,6.467
680,0.902,36.661,32.136,32.063,24.166,12.956,6.549,6.508
681,0.899,36.816,32.101,32.063,24.159,13.12,6.508,6.426
682,0.912,36.923,32.113,32.092,24.169,13.366,6.631,6.59
683,0.908,37.01,32.128,32.072,24.159,13.448,6.631,6.59
684,0.895,36.206,32.128,32.063,24.162,13.448,6.508,6.343
685,0.892,36.371,32.045,32.072,24.166,13.613,6.549,6.426
686,0.882,36.497,32.018,32.072,24.162,13.448,6.426,6.385
687,0.876,36.574,32.105,32.14,24.169,13.571,6.672,6.549
688,0.869,36.468,32.077,32.092,24.166,13.407,6.549,6.467
689,0.866,36.603,32.089,32.082,24.166,13.325,6.549,6.426
690,0.869,36.729,32.136,32.082,24.166,13.202,6.549,6.467
691,0.879,36.758,32.081,32.072,24.159,12.956,6.426,6.426
692,0.869,36.371,32.073,32.101,24.162,12.915,6.59,6.467
693,0.872,36.516,32.113,32.101,24.169,12.75,6.549,6.508
694,0.862,36.613,32.136,32.082,24.162,12.463,6.508,6.508
695,0.885,36.652,32.132,32.092,24.162,12.381,6.549,6.549
696,0.876,36.381,32.049,32.082,24.159,12.175,6.508,6.508
697,0.879,36.506,32.042,32.111,24.169,12.134,6.631,6.631
698,0.895,36.642,32.022,32.101,24.166,11.929,6.59,6.631
699,0.879,36.661,32.081,32.101,24.159,11.723,6.59,6.631
700,0.892,36.322,32.105,32.092,24.166,11.6,6.549,6.631
701,0.905,36.458,32.116,32.092,24.155,11.436,6.467,6.59
702,0.912,36.594,32.116,32.13,24.169,11.436,6.672,6.795
703,0.912,36.419,32.073,32.111,24.166,11.272,6.631,6.754
704,0.905,36.458,32.12,32.111,24.169,11.313,6.672,6.795
705,0.918,36.555,32.132,32.082,24.169,11.436,6.549,6.672
706,0.908,36.632,32.093,32.082,24.159,11.6,6.467,6.672
707,0.922,36.303,32.105,32.121,24.169,11.97,6.672,6.837
708,0.908,36.4,32.057,32.111,24.173,12.298,6.713,6.837
709,0.895,36.535,32.093,32.121,24.173,12.791,6.672,6.795
710,0.892,36.623,32.073,32.092,24.159,13.243,6.59,6.713
711,0.879,36.313,32.132,32.092,24.159,13.571,6.631,6.713
712,0.889,36.506,32.081,32.13,24.173,14.105,6.754,6.837
713,0.882,36.642,32.077,32.121,24.162,14.393,6.713,6.837
714,0.879,36.71,32.077,32.14,24.173,14.763,6.795,6.877
715,0.879,36.245,32.109,32.121,24.162,14.845,6.631,6.754
716,0.869,36.371,32.14,32.111,24.166,15.009,6.713,6.754
717,0.879,36.506,32.148,32.14,24.173,15.091,6.795,6.877
718,0.872,36.574,32.148,32.111,24.166,15.091,6.713,6.877
719,0.876,36.255,32.034,32.14,24.176,15.091,6.877,6.96
720,0.879,36.4,32.097,32.121,24.159,14.845,6.713,6.754
721,0.859,36.506,32.101,32.121,24.162,14.763,6.672,6.795
722,0.862,36.574,32.113,32.121,24.169,14.639,6.795,6.795
723,0.862,36.293,32.022,32.14,24.162,14.516,6.754,6.837
724,0.876,36.448,32.097,32.14,24.176,14.475,6.795,6.96
725,0.849,36.526,32.085,32.121,24.162,14.064,6.754,6.795
726,0.836,36.526,32.089,32.121,24.169,14.023,6.713,6.795
727,0.849,36.245,32.132,32.14,24.169,13.859,6.795,6.754
728,0.836,36.39,32.136,32.14,24.173,13.531,6.713,6.713
729,0.833,36.516,32.14,32.159,24.173,13.448,6.795,6.919
730,0.826,36.332,32.069,32.169,24.162,13.038,6.713,6.713
731,0.823,36.322,32.085,32.15,24.169,12.873,6.754,6.631
732,0.839,36.477,32.132,32.14,24.176,12.709,6.754,6.795
733,0.82,36.545,32.14,32.14,24.173,12.545,6.713,6.795
734,0.813,36.167,32.057,32.169,24.18,12.504,6.877,6.919
735,0.79,36.245,32.089,32.13,24.159,12.175,6.631,6.631
736,0.79,36.39,32.057,32.15,24.166,12.093,6.631,6.713
737,0.8,36.497,32.085,32.159,24.166,11.929,6.672,6.713
738,0.793,36.177,32.097,32.13,24.166,11.888,6.713,6.713
739,0.803,36.342,32.144,32.169,24.176,11.806,6.754,6.837
740,0.787,36.41,32.116,32.13,24.155,11.518,6.59,6.549
741,0.797,36.506,32.097,32.14,24.166,11.518,6.754,6.713
742,0.787,36.109,32.105,32.15,24.176,11.436,6.713,6.631
743,0.79,36.245,32.128,32.15,24.169,11.354,6.713,6.672
744,0.793,36.4,32.14,32.169,24.176,11.313,6.837,6.672
745,0.77,36.419,32.057,32.13,24.166,11.025,6.713,6.467
746,0.767,36.129,31.986,32.169,24.169,11.025,6.672,6.631
747,0.767,36.255,32.077,32.159,24.166,11.025,6.672,6.631
748,0.777,36.371,32.093,32.159,24.173,11.066,6.713,6.672
749,0.767,36.429,32.12,32.188,24.176,11.108,6.713,6.631
750,0.734,36.109,32.116,32.121,24.155,11.189,6.672,6.59
751,0.747,36.264,32.042,32.159,24.162,11.477,6.713,6.549
752,0.757,36.4,32.077,32.15,24.162,11.764,6.672,6.549
753,0.757,36.419,32.105,32.159,24.169,12.134,6.754,6.631
754,0.747,36.119,32.136,32.159,24.166,12.422,6.672,6.631
755,0.747,36.206,32.12,32.14,24.162,12.709,6.672,6.672
756,0.757,36.332,32.081,32.14,24.159,13.079,6.713,6.59
757,0.767,36.129,32.057,32.15,24.159,13.325,6.631,6.508
758,0.767,36.051,32.061,32.169,24.169,13.613,6.713,6.754
759,0.78,36.206,32.073,32.179,24.166,13.859,6.754,6.754
760,0.757,36.264,32.116,32.15,24.166,13.941,6.631,6.754
761,0.77,36.08,32.101,32.15,24.166,14.064,6.631,6.713
762,0.764,36.196,32.101,32.208,24.166,14.105,6.631,6.713
763,0.774,36.332,32.057,32.179,24.166,14.27,6.713,6.795
764,0.774,36.429,32.136,32.15,24.176,14.27,6.754,6.837
765,0.751,35.848,32.128,32.159,24.162,14.146,6.672,6.795
766,0.767,36.003,32.128,32.159,24.166,14.146,6.672,6.795
767,0.751,36.119,32.101,32.14,24.152,13.982,6.549,6.713
768,0.757,36.216,32.073,32.159,24.176,13.941,6.672,6.877
769,0.761,36.012,32.069,32.169,24.169,13.859,6.672,6.877
770,0.747,36.158,32.081,32.169,24.166,13.613,6.672,6.919
771,0.741,36.245,32.105,32.159,24.162,13.49,6.672,6.795
772,0.734,36.303,32.049,32.13,24.159,13.243,6.59,6.795
773,0.751,35.954,32.089,32.179,24.176,13.284,6.713,6.96
774,0.744,36.109,32.057,32.188,24.169,13.079,6.672,6.96
775,0.747,36.235,32.101,32.188,24.166,12.915,6.754,6.96
776,0.751,36.274,32.128,32.15,24.162,12.75,6.672,6.837
777,0.744,35.935,32.144,32.14,24.155,12.463,6.549,6.96
778,0.754,36.138,32.148,32.179,24.169,12.463,6.713,7.001
779,0.764,36.216,32.081,32.169,24.162,12.257,6.672,7.001
780,0.764,36.245,32.105,32.198,24.176,12.093,6.754,7.042
781,0.754,35.877,32.073,32.159,24.162,11.847,6.631,6.96
782,0.754,35.993,32.113,32.14,24.162,11.683,6.713,6.919
783,0.767,36.138,32.053,32.198,24.173,11.559,6.713,7.042
784,0.757,36.09,32.089,32.159,24.169,11.354,6.795,7.001
785,0.764,36.042,32.065,32.159,24.176,11.313,6.837,7.083
786,0.744,36.138,32.085,32.159,24.162,11.066,6.713,6.877
787,0.751,36.245,32.085,32.159,24.162,10.943,6.754,6.96
788,0.754,36.012,32.144,32.179,24.169,10.902,6.795,7.042
789,0.761,36.119,32.132,32.169,24.166,10.82,6.837,7.001
790,0.754,36.264,32.045,32.198,24.18,10.82,6.877,7.083
791,0.741,36.322,32.081,32.159,24.162,10.615,6.672,6.877
792,0.738,35.79,32.105,32.169,24.169,10.574,6.754,6.919
793,0.741,35.964,32.128,32.179,24.173,10.656,6.877,7.001
794,0.734,36.071,32.038,32.179,24.166,10.532,6.795,6.96
795,0.741,36.167,32.081,32.208,24.176,10.574,6.877,7.042
796,0.741,35.828,32.049,32.169,24.159,10.327,6.713,6.877
797,0.731,35.974,32.101,32.179,24.169,10.409,6.754,6.877
798,0.734,36.109,32.097,32.198,24.169,10.491,6.795,6.877
799,0.738,36.177,32.12,32.179,24.169,10.656,6.754,6.96
800,0.734,35.906,32.109,32.208,24.176,10.943,6.877,7.124
801,0.728,36.022,32.069,32.169,24.162,10.943,6.713,6.837
802,0.741,36.129,32.085,32.169,24.166,11.231,6.795,6.877
803,0.754,36.206,32.12,32.159,24.176,11.477,6.713,6.877
804,0.767,35.887,32.113,32.179,24.173,11.888,6.754,6.877
805,0.797,36.051,32.049,32.208,24.176,12.216,6.795,6.837
806,0.816,36.109,32.073,32.208,24.162,12.339,6.672,6.837
807,0.866,36.167,32.049,32.169,24.169,12.668,6.795,6.919
808,0.899,35.925,32.057,32.179,24.166,12.832,6.713,6.877
809,0.931,36.051,32.097,32.169,24.169,13.038,6.754,6.96
810,0.974,36.177,32.132,32.188,24.173,13.202,6.754,6.877
811,0.984,36.109,32.045,32.169,24.162,13.202,6.672,6.754
812,1.037,35.993,32.065,32.188,24.166,13.202,6.713,6.877
813,1.092,36.129,32.089,32.169,24.166,13.12,6.631,6.795
814,1.145,36.235,32.132,32.188,24.173,13.12,6.713,7.001
815,1.247,35.828,32.113,32.188,24.173,13.12,6.713,6.919
816,1.313,35.887,32.01,32.159,24.159,12.873,6.672,6.877
817,1.388,36.012,31.99,32.188,24.159,12.832,6.672,6.919
818,1.46,36.129,31.939,32.198,24.162,12.627,6.549,6.754
819,1.536,35.751,32.042,32.179,24.166,12.668,6.713,6.96
820,1.585,35.906,32.081,32.188,24.166,12.463,6.713,6.96
821,1.618,35.983,32.093,32.159,24.159,12.257,6.631,6.877
822,1.648,36.109,32.061,32.188,24.162,12.175,6.631,6.919
823,1.694,35.654,32.045,32.15,24.166,11.97,6.508,6.754
824,1.723,35.828,32.093,32.179,24.166,11.888,6.672,6.96
825,1.717,35.945,32.136,32.179,24.162,11.723,6.631,6.96
826,1.671,35.983,32.069,32.179,24.159,11.559,6.631,6.837
827,1.681,35.896,32.061,32.179,24.162,11.395,6.631,6.877
828,1.69,36.032,32.014,32.169,24.162,11.231,6.549,6.795
829,1.687,36.167,32.073,32.188,24.173,11.231,6.631,6.96
830,1.677,36.226,32.049,32.198,24.166,11.066,6.672,7.001
831,1.674,35.761,32.085,32.169,24.159,10.902,6.59,6.96
832,1.631,35.916,32.057,32.169,24.169,10.82,6.631,6.919
833,1.562,36.012,32.053,32.15,24.155,10.615,6.549,6.877
834,1.5,36.061,32.077,32.198,24.169,10.697,6.754,7.083
835,1.405,35.819,32.113,32.179,24.166,10.574,6.631,7.206
836,1.28,35.916,32.124,32.179,24.169,10.368,6.549,7.288
837,1.181,36.032,32.113,32.188,24.173,10.327,6.549,7.494
838,1.102,36.071,32.089,32.159,24.155,10.122,6.549,7.658
839,1.066,35.877,32.061,32.198,24.173,10.245,6.672,8.15
840,1.046,36.022,32.045,32.188,24.166,10.04,6.713,8.438
841,1.023,36.109,32.081,32.188,24.162,10.081,6.754,8.89
842,1.03,35.722,32.113,32.169,24.166,9.916,6.672,9.218
843,1.027,35.77,32.034,32.14,24.159,9.793,6.549,9.506
844,1.023,35.964,32.049,32.179,24.166,9.916,6.754,9.999
845,0.991,36.032,32.081,32.179,24.169,9.916,6.754,10.245
846,0.951,35.702,32.128,32.179,24.169,9.876,6.837,10.532
847,0.908,35.838,32.128,32.179,24.166,9.876,6.713,10.697
848,0.872,35.916,32.105,32.159,24.155,9.834,6.631,10.779
849,0.853,36.032,32.113,32.188,24.169,10.04,6.795,11.025
850,0.81,35.683,32.089,32.188,24.169,10.081,6.754,11.025
851,0.793,35.819,32.053,32.169,24.169,10.245,6.795,11.149
852,0.777,35.954,32.109,32.159,24.162,10.409,6.713,11.149
853,0.764,35.993,32.073,32.169,24.159,10.574,6.754,11.189
854,0.774,35.751,32.002,32.208,24.166,11.025,6.877,11.354
855,0.764,35.925,32.045,32.188,24.166,11.313,6.837,11.436
856,0.764,36.012,32.061,32.198,24.169,11.683,6.919,11.641
857,0.787,36.08,32.097,32.179,24.162,12.011,6.837,11.683
858,0.787,35.712,32.097,32.159,24.162,12.339,6.837,11.806
859,0.81,35.887,32.148,32.198,24.176,12.832,6.877,12.175
860,0.813,35.983,32.101,32.188,24.169,13.038,6.837,12.339
861,0.826,36.042,32.073,32.188,24.176,13.366,6.919,12.709
862,0.82,35.712,32.085,32.159,24.162,13.448,6.877,12.709
863,0.8,35.819,32.116,32.169,24.162,13.695,6.96,12.915
864,0.813,35.983,32.081,32.188,24.173,13.9,6.919,13.12
865,0.81,36.109,32.006,32.188,24.169,13.982,6.877,13.202
866,0.8,35.79,32.045,32.198,24.173,14.064,7.083,13.49
867,0.803,35.916,32.061,32.169,24.166,13.941,6.837,13.284
868,0.797,36.032,32.073,32.188,24.162,13.982,6.96,13.448
869,0.803,35.683,32.093,32.208,24.169,13.9,6.96,13.448
870,0.793,35.751,32.12,32.188,24.169,13.777,6.919,13.325
871,0.8,35.896,31.994,32.218,24.176,13.777,7.001,13.407
872,0.793,35.983,32.057,32.159,24.162,13.49,6.877,13.12
873,0.787,35.635,32.093,32.188,24.162,13.366,6.877,13.038
874,0.79,35.809,32.089,32.198,24.169,13.284,7.001,12.996
875,0.79,35.925,32.081,32.188,24.169,12.996,6.919,12.832
876,0.797,36.042,32.014,32.208,24.18,13.038,7.042,12.832
877,0.79,35.644,31.955,32.179,24.162,12.627,6.837,12.422
878,0.784,35.799,32.065,32.169,24.169,12.627,6.919,12.381
879,0.79,35.945,32.073,32.208,24.169,12.463,6.877,12.216
880,0.8,35.993,32.14,32.179,24.173,12.381,6.96,12.093
881,0.793,35.673,32.026,32.208,24.176,12.298,7.042,12.093
882,0.797,35.799,32.053,32.169,24.155,12.011,6.837,11.764
883,0.79,35.916,32.069,32.169,24.159,11.888,6.877,11.641
884,0.8,36.003,32.124,32.169,24.169,11.723,6.837,11.559
885,0.787,35.567,32.093,32.179,24.176,11.6,6.837,11.436
886,0.793,35.722,32.081,32.208,24.173,11.559,6.96,11.313
887,0.774,35.79,32.034,32.159,24.159,11.189,6.672,10.984
888,0.78,35.857,31.986,32.188,24.169,11.108,6.837,10.943
889,0.787,35.761,32.097,32.179,24.169,11.066,6.795,10.779
890,0.78,35.887,32.097,32.159,24.169,10.902,6.795,10.656
891,0.79,36.003,32.12,32.198,24.183,11.025,6.837,10.656
892,0.764,36.255,32.026,32.159,24.166,10.656,6.672,10.409
893,0.777,35.702,32.069,32.169,24.166,10.697,6.713,10.327
894,0.774,35.867,32.065,32.169,24.166,10.656,6.754,10.286
895,0.78,35.954,32.12,32.169,24.169,10.574,6.754,10.122
896,0.797,35.761,32.113,32.208,24.18,10.615,6.795,10.081
897,0.79,35.77,32.077,32.13,24.166,10.368,6.713,9.793
898,0.793,35.925,32.034,32.159,24.169,10.409,6.713,9.793
899,0.793,36.022,32.01,32.188,24.173,10.327,6.713,9.711
900,0.8,35.664,32.061,32.179,24.162,10.286,6.713,9.629
901,0.803,35.828,32.12,32.198,24.176,10.245,6.837,9.506
902,0.787,35.906,32.034,32.15,24.169,10.04,6.672,9.301
903,0.793,36.022,32.049,32.169,24.169,10.081,6.713,9.342
904,0.793,35.625,32.049,32.159,24.162,9.834,6.631,9.218
905,0.787,35.751,32.097,32.169,24.166,9.834,6.713,9.136
906,0.79,35.896,32.12,32.179,24.169,9.916,6.713,9.054
907,0.774,35.935,32.105,32.159,24.162,9.711,6.631,8.931
908,0.784,35.673,32.093,32.159,24.169,9.588,6.631,8.89
909,0.777,35.819,32.042,32.169,24.166,9.588,6.672,8.726
910,0.784,35.945,32.057,32.169,24.169,9.506,6.713,8.767
911,0.793,36.042,32.081,32.198,24.173,9.547,6.713,8.767
912,0.78,35.673,32.097,32.15,24.159,9.301,6.59,8.52
913,0.787,35.848,31.99,32.159,24.162,9.259,6.672,8.52
914,0.793,35.983,32.038,32.188,24.166,9.177,6.631,8.438
915,0.797,36.012,32.081,32.15,24.162,9.136,6.672,8.397
916,0.807,35.741,32.093,32.188,24.173,9.218,6.631,8.356
917,0.807,35.838,32.113,32.14,24.159,9.013,6.631,8.233
918,0.813,35.945,32.12,32.159,24.166,9.013,6.631,8.15
919,0.81,36.293,32.113,32.169,24.169,8.972,6.631,8.069
920,0.81,35.683,32.022,32.179,24.166,9.013,6.672,8.109
921,0.813,35.828,32.053,32.188,24.173,9.013,6.754,8.109
922,0.803,35.887,32.101,32.15,24.159,8.808,6.631,7.945
923,0.81,35.606,32.081,32.169,24.166,8.849,6.59,8.027
924,0.803,35.606,32.014,32.169,24.162,8.808,6.672,7.781
925,0.8,35.741,32.053,32.169,24.166,8.849,6.672,7.904
926,0.813,35.877,32.097,32.179,24.169,8.808,6.713,7.945
927,0.793,35.644,32.073,32.14,24.159,8.684,6.631,7.74
928,0.8,35.77,32.12,32.169,24.162,8.767,6.631,7.699
929,0.793,35.896,32.097,32.15,24.166,8.684,6.631,7.74
930,0.803,35.974,32.085,32.159,24.166,8.726,6.631,7.74
931,0.8,35.615,32.069,32.169,24.176,8.726,6.631,7.699
932,0.793,35.702,32.038,32.14,24.155,8.52,6.59,7.617
933,0.79,35.857,32.097,32.14,24.166,8.561,6.631,7.658
934,0.797,35.935,32.057,32.15,24.166,8.602,6.631,7.534
935,0.807,35.673,32.042,32.15,24.176,8.644,6.672,7.658
936,0.813,35.857,32.057,32.188,24.169,8.644,6.672,7.575
937,0.8,35.916,32.057,32.14,24.155,8.684,6.549,7.494
938,0.81,35.993,32.053,32.15,24.166,8.767,6.672,7.452
939,0.82,35.606,32.081,32.14,24.162,8.89,6.59,7.411
940,0.826,35.732,32.097,32.14,24.173,9.136,6.672,7.534
941,0.836,35.877,32.042,32.15,24.169,9.259,6.631,7.452
942,0.813,35.896,32.034,32.121,24.166,9.424,6.631,7.37
943,0.82,35.673,32.077,32.13,24.159,9.67,6.631,7.288
944,0.83,35.809,32.089,32.121,24.162,9.876,6.59,7.288
945,0.813,35.916,32.089,32.14,24.173,10.245,6.713,7.329
946,0.813,35.954,32.053,32.121,24.173,10.615,6.549,7.288
947,0.81,35.702,31.978,32.121,24.162,10.902,6.59,7.206
948,0.807,35.857,32.018,32.159,24.162,11.313,6.59,7.165
949,0.813,35.954,32.049,32.111,24.162,11.806,6.508,7.083
950,0.83,35.673,32.132,32.121,24.169,12.381,6.631,7.165
951,0.81,35.673,32.073,32.14,24.166,12.832,6.631,7.124
952,0.793,35.799,32.061,32.121,24.159,13.202,6.59,7.083
953,0.797,35.896,32.018,32.14,24.166,13.531,6.549,7.083
954,0.813,35.557,32.097,32.101,24.169,13.859,6.508,7.001
955,0.82,35.702,32.116,32.14,24.166,14.188,6.631,7.124
956,0.833,35.857,32.081,32.121,24.166,14.434,6.631,7.124
957,0.82,35.877,32.077,32.092,24.162,14.639,6.631,7.042
958,0.83,35.557,32.022,32.101,24.169,14.886,6.59,7.001
959,0.83,35.702,32.049,32.101,24.162,15.009,6.549,6.877
960,0.839,35.857,32.038,32.121,24.169,15.338,6.631,7.042
961,0.843,35.935,32.12,32.121,24.166,15.338,6.713,6.96
962,0.839,35.625,32.026,32.101,24.162,15.461,6.549,6.96
963,0.843,35.799,32.038,32.111,24.166,15.625,6.549,6.837
964,0.836,35.887,32.042,32.092,24.159,15.748,6.426,6.877
965,0.833,35.964,32.081,32.092,24.173,16.118,6.631,6.919
966,0.836,35.567,32.085,32.101,24.162,16.241,6.631,6.919
967,0.82,35.702,32.073,32.082,24.166,16.323,6.549,6.837
968,0.826,35.828,32.093,32.101,24.166,16.487,6.549,6.877
969,0.83,35.857,31.971,32.082,24.155,16.405,6.385,6.713
970,0.83,35.538,32.038,32.121,24.169,16.57,6.672,6.837
971,0.836,35.683,32.069,32.092,24.166,16.446,6.631,6.795
972,0.826,35.751,32.093,32.072,24.159,16.282,6.631,6.754
973,0.843,35.799,32.01,32.092,24.162,16.2,6.508,6.795
974,0.833,35.702,32.038,32.092,24.159,15.953,6.508,6.713
975,0.839,35.857,32.065,32.101,24.173,15.871,6.672,6.837
976,0.843,35.945,32.085,32.092,24.169,15.625,6.549,6.713
977,0.846,35.683,32.085,32.092,24.159,15.338,6.508,6.754
978,0.843,35.644,32.101,32.072,24.162,15.091,6.549,6.754
979,0.843,35.741,32.042,32.053,24.159,14.763,6.467,6.672
980,0.856,35.877,32.061,32.101,24.166,14.639,6.59,6.795
981,0.859,35.48,32.057,32.092,24.169,14.352,6.59,6.754
982,0.849,35.606,32.085,32.072,24.162,14.023,6.549,6.754
983,0.849,35.732,32.077,32.072,24.162,13.777,6.549,6.672
984,0.843,35.838,31.998,32.101,24.166,13.49,6.549,6.672
985,0.846,35.635,32.053,32.101,24.173,13.325,6.631,6.795
986,0.846,35.79,32.069,32.101,24.166,13.202,6.59,6.795
987,0.856,35.887,32.042,32.063,24.159,13.038,6.549,6.713
988,0.843,35.974,32.081,32.082,24.162,12.956,6.59,6.795
989,0.849,35.509,32.081,32.072,24.162,12.709,6.508,6.672
990,0.849,35.683,32.045,32.092,24.176,12.791,6.631,6.795
991,0.862,35.809,32.03,32.072,24.166,12.709,6.59,6.795
992,0.843,35.867,32.069,32.053,24.166,12.668,6.508,6.713
993,0.853,35.557,32.089,32.072,24.166,12.627,6.549,6.672
994,0.849,35.702,32.049,32.063,24.155,12.463,6.549,6.672
995,0.853,35.819,31.982,32.082,24.173,12.545,6.672,6.795
996,0.869,35.887,32.045,32.063,24.166,12.381,6.59,6.754
997,0.866,35.625,32.038,32.072,24.162,12.175,6.508,6.795
998,0.872,35.77,32.045,32.053,24.169,12.216,6.508,6.754
999,0.872,35.896,32.093,32.053,24.159,11.97,6.508,6.713
1000,0.885,35.916,32.101,32.092,24.166,11.97,6.631,6.919
1001,0.876,35.451,32.065,32.063,24.166,11.888,6.631,6.795
1002,0.879,35.567,32.026,32.063,24.166,11.806,6.672,6.877
1003,0.885,35.683,32.093,32.063,24.159,11.559,6.549,6.837
1004,0.876,35.586,32.081,32.034,24.155,11.477,6.467,6.837
1005,0.885,35.606,32.045,32.063,24.176,11.559,6.631,6.96
1006,0.876,35.761,31.955,32.063,24.169,11.395,6.508,6.877
1007,0.859,35.828,32.038,32.101,24.169,11.395,6.631,6.96
1008,0.879,35.441,32.01,32.063,24.166,11.477,6.508,6.795
1009,0.866,35.538,32.034,32.034,24.159,11.477,6.508,6.795
1010,0.869,35.702,32.073,32.053,24.169,11.806,6.631,6.877
1011,0.879,35.78,32.038,32.053,24.173,11.97,6.59,6.919
1012,0.872,35.47,32.065,32.053,24.166,12.257,6.631,6.837
1013,0.882,35.606,32.045,32.053,24.166,12.545,6.549,6.919
1014,0.882,35.722,32.089,32.024,24.159,12.915,6.508,6.795
1015,0.895,35.819,32.085,32.063,24.166,13.448,6.631,7.001
1016,0.889,35.518,32.034,32.053,24.162,13.736,6.631,6.96
1017,0.892,35.664,31.978,32.034,24.159,14.023,6.549,6.919
1018,0.905,35.78,32.002,32.034,24.166,14.188,6.549,6.837
1019,0.902,35.828,32.002,32.024,24.159,14.228,6.508,6.795
1020,0.918,35.586,32.049,32.063,24.173,14.557,6.59,6.96
1021,0.918,35.712,32.097,32.053,24.173,14.516,6.508,6.96
1022,0.918,35.838,32.065,32.082,24.166,14.557,6.631,6.96
1023,0.925,35.887,32.03,32.014,24.162,14.475,6.467,6.877
1024,0.912,35.557,32.045,32.005,24.152,14.352,6.467,6.837
1025,0.918,35.741,32.101,32.034,24.173,14.352,6.59,6.919
1026,0.908,35.838,32.065,32.014,24.169,14.228,6.549,7.001
1027,0.899,35.857,32.065,32.024,24.162,14.064,6.59,7.001
1028,0.908,35.664,32.03,32.014,24.162,13.941,6.467,6.877
1029,0.902,35.79,32.053,32.053,24.155,13.654,6.426,6.877
1030,0.918,35.945,32.045,32.034,24.162,13.736,6.549,7.001
1031,0.918,35.838,32.097,32.024,24.169,13.531,6.549,6.96
1032,0.931,35.761,32.034,32.014,24.169,13.407,6.508,6.96
1033,0.925,35.935,32.018,32.005,24.159,13.243,6.467,6.96
1034,0.931,36.003,32.03,32.005,24.159,13.12,6.508,6.919
1035,0.958,35.586,32.069,32.043,24.166,13.038,6.631,6.919
1036,0.945,35.673,32.077,32.024,24.169,12.832,6.549,6.919
1037,0.954,35.809,32.113,32.024,24.173,12.832,6.631,7.001
1038,0.958,35.896,32.101,32.005,24.162,12.545,6.467,6.795
1039,0.958,35.654,32.026,31.985,24.155,12.339,6.508,6.919
1040,0.968,35.857,32.057,32.024,24.169,12.339,6.549,7.001
1041,0.971,35.954,32.057,32.024,24.176,12.216,6.549,6.919
1042,0.971,36.042,32.097,32.014,24.166,12.093,6.631,6.96
1043,0.968,35.741,32.002,32.005,24.162,11.97,6.426,6.795
1044,0.958,35.887,32.014,31.995,24.159,11.847,6.426,6.795
1045,0.984,36.032,32.03,32.014,24.169,11.929,6.508,6.919
1046,0.974,36.1,32.042,31.995,24.173,11.847,6.59,6.877
1047,0.964,35.877,32.089,31.995,24.173,11.806,6.631,6.919
1048,0.964,36.012,32.089,31.995,24.166,11.723,6.508,6.795
1049,0.961,36.09,32.089,31.966,24.162,11.559,6.467,6.795
1050,0.977,36.196,32.014,32.005,24.173,11.6,6.631,6.837
1051,0.981,36.129,32.034,32.005,24.162,11.477,6.508,6.795
1052,0.984,36.264,32.057,31.995,24.173,11.518,6.631,6.795
1053,0.977,36.351,32.089,31.985,24.166,11.354,6.549,6.713
1054,0.984,36.381,32.01,31.995,24.162,11.189,6.631,6.754
1055,0.997,36.4,32.026,32.053,24.169,11.231,6.631,6.795
1056,1.0,36.487,32.006,31.995,24.166,11.066,6.631,6.754
1057,1.007,36.623,32.014,31.985,24.166,11.025,6.672,6.795
1058,1.007,36.555,32.053,31.976,24.162,10.943,6.59,6.672
1059,1.004,36.371,32.061,31.966,24.162,10.861,6.508,6.713
1060,1.027,36.545,32.12,31.985,24.176,10.902,6.713,6.713
1061,1.027,36.642,32.069,31.985,24.166,10.82,6.59,6.713
1062,1.03,36.506,32.042,31.985,24.173,10.861,6.713,6.837
1063,1.017,36.603,32.097,31.966,24.162,10.656,6.59,6.631
1064,1.01,36.71,32.073,31.956,24.166,10.615,6.631,6.631
1065,1.027,36.836,32.049,31.995,24.166,10.615,6.672,6.672
1066,1.023,36.69,31.915,31.985,24.166,10.45,6.713,6.631
1067,1.02,36.865,31.923,31.985,24.169,10.45,6.672,6.672
1068,1.023,36.952,32.014,31.956,24.162,10.245,6.508,6.508
1069,1.01,37.039,32.03,31.966,24.159,10.163,6.631,6.59
1070,1.023,36.7,32.073,31.956,24.169,10.122,6.713,6.631
1071,1.023,36.836,32.034,31.966,24.173,10.081,6.631,6.549
1072,1.033,36.971,32.053,31.966,24.166,10.04,6.713,6.672
1073,1.03,37.029,32.03,31.927,24.162,9.834,6.672,6.549
1074,1.017,37.0,32.077,31.917,24.162,9.752,6.672,6.59
1075,1.04,37.175,32.085,31.966,24.173,9.711,6.672,6.631
1076,1.037,37.272,32.065,31.946,24.169,9.629,6.672,6.549
1077,1.043,37.32,31.994,31.966,24.173,9.588,6.713,6.631
1078,1.046,37.01,31.975,31.917,24.162,9.424,6.549,6.467
1079,1.046,37.117,31.978,31.927,24.162,9.301,6.631,6.508
1080,1.069,37.272,32.018,31.946,24.169,9.301,6.713,6.549
1081,1.069,37.281,32.081,31.937,24.169,9.136,6.672,6.467
1082,1.073,37.339,31.963,31.956,24.166,9.136,6.795,6.59
1083,1.053,37.446,32.01,31.917,24.159,8.972,6.631,6.467
1084,1.04,37.533,32.014,31.917,24.162,9.013,6.672,6.426
1085,1.053,37.514,32.081,31.946,24.176,8.972,6.713,6.508
1086,1.037,37.223,32.089,31.927,24.173,8.931,6.713,6.508
1087,1.04,37.378,32.077,31.927,24.173,8.849,6.754,6.59
1088,1.03,37.446,32.03,31.908,24.169,8.684,6.672,6.385
1089,1.027,37.359,31.919,31.908,24.162,8.726,6.672,6.426
1090,1.037,37.514,32.018,31.927,24.169,8.767,6.795,6.508
1091,1.03,37.611,32.053,31.917,24.173,8.684,6.672,6.385
1092,1.037,37.698,32.065,31.917,24.173,8.684,6.795,6.508
1093,1.04,37.465,32.022,31.898,24.162,8.602,6.631,6.467
1094,1.017,37.582,32.022,31.879,24.166,8.52,6.672,6.467
1095,1.04,37.737,32.049,31.908,24.169,8.602,6.713,6.549
1096,1.046,37.775,32.081,31.908,24.166,8.52,6.713,6.508
1097,1.033,37.862,32.081,31.908,24.166,8.561,6.713,6.549
1098,1.027,37.969,32.077,31.888,24.159,8.397,6.631,6.467
1099,1.02,38.056,31.994,31.859,24.159,8.315,6.631,6.508
1100,1.023,38.143,32.034,31.898,24.176,8.438,6.713,6.59
1101,1.023,37.262,32.045,31.908,24.166,8.315,6.672,6.508
1102,1.014,37.407,32.085,31.908,24.183,8.397,6.795,6.59
1103,1.004,37.504,32.042,31.869,24.166,8.15,6.672,6.467
1104,0.997,37.553,32.034,31.869,24.166,8.233,6.631,6.467
1105,0.997,37.785,32.034,31.888,24.176,8.233,6.672,6.508
1106,0.987,37.872,32.042,31.859,24.169,8.192,6.631,6.426
1107,0.977,38.008,32.093,31.888,24.18,8.192,6.754,6.508
1108,0.964,38.008,32.077,31.85,24.162,8.027,6.549,6.343
1109,0.958,37.582,32.081,31.85,24.159,7.945,6.549,6.385
1110,0.961,37.737,32.014,31.859,24.173,8.027,6.672,6.385
1111,0.951,37.853,32.018,31.85,24.173,7.945,6.631,6.467
1112,0.945,37.988,32.057,31.879,24.176,7.986,6.672,6.426
1113,0.935,37.717,32.049,31.85,24.166,7.781,6.549,6.343
1114,0.931,37.804,31.99,31.84,24.159,7.74,6.549,6.385
1115,0.941,37.959,32.014,31.859,24.176,7.822,6.631,6.467
1116,0.938,37.669,32.026,31.84,24.166,7.781,6.59,6.467
1117,0.935,37.727,32.022,31.869,24.169,7.781,6.672,6.508
1118,0.922,37.853,32.065,31.83,24.162,7.658,6.549,6.343
1119,0.915,37.911,32.081,31.821,24.162,7.617,6.549,6.302
1120,0.928,37.562,32.085,31.84,24.169,7.658,6.672,6.426
1121,0.912,37.707,32.034,31.84,24.162,7.617,6.631,6.385
1122,0.915,37.824,32.03,31.85,24.176,7.699,6.754,6.508
1123,0.905,37.882,32.081,31.811,24.162,7.617,6.59,6.262
1124,0.905,37.582,32.034,31.801,24.159,7.617,6.672,6.302
1125,0.899,37.756,32.006,31.84,24.176,7.781,6.713,6.385
1126,0.882,37.882,31.88,31.85,24.173,7.74,6.672,6.343
1127,0.889,37.959,32.045,31.84,24.169,7.863,6.837,6.467
1128,0.872,37.63,32.002,31.801,24.162,7.822,6.713,6.262
1129,0.862,37.775,32.022,31.792,24.166,7.781,6.754,6.262
1130,0.869,37.892,32.073,31.801,24.176,7.945,6.795,6.343
1131,0.849,37.95,31.998,31.801,24.169,7.945,6.713,6.343
1132,0.856,37.649,32.034,31.83,24.176,8.15,6.919,6.467
1133,0.839,37.746,32.034,31.772,24.159,7.986,6.672,6.138
1134,0.839,37.872,32.089,31.811,24.169,8.109,6.672,6.302
1135,0.843,37.911,32.061,31.811,24.162,8.15,6.795,6.343
1136,0.839,37.504,32.018,31.792,24.166,8.192,6.754,6.302
1137,0.853,37.669,31.975,31.821,24.176,8.397,6.877,6.426
1138,0.849,37.727,31.955,31.782,24.159,8.233,6.672,6.22
1139,0.856,37.988,32.057,31.792,24.162,8.356,6.754,6.262
1140,0.846,37.514,32.053,31.792,24.169,8.602,6.754,6.343
1141,0.839,37.601,32.081,31.772,24.173,8.644,6.795,6.343
1142,0.839,37.756,32.045,31.792,24.183,8.931,6.837,6.343
1143,0.83,37.456,32.022,31.743,24.162,8.808,6.631,6.179
1144,0.833,37.533,32.065,31.772,24.166,8.931,6.713,6.262
1145,0.826,37.698,32.081,31.772,24.166,9.095,6.795,6.262
1146,0.823,37.727,32.053,31.753,24.169,9.177,6.754,6.262
1147,0.823,37.368,32.022,31.792,24.176,9.342,6.919,6.385
1148,0.807,37.465,31.998,31.743,24.162,9.218,6.754,6.179
1149,0.803,37.601,32.026,31.772,24.169,9.218,6.754,6.22
1150,0.8,37.688,32.038,31.763,24.176,9.301,6.877,6.262
1151,0.8,37.407,32.081,31.743,24.162,9.342,6.837,6.343
1152,0.8,37.572,32.022,31.763,24.183,9.424,6.96,6.343
1153,0.787,37.659,32.026,31.734,24.162,9.259,6.795,6.179
1154,0.78,37.737,32.002,31.734,24.162,9.259,6.877,6.22
1155,0.787,37.204,32.069,31.753,24.173,9.259,7.001,6.262
1156,0.793,37.339,32.049,31.734,24.169,9.218,6.919,6.262
1157,0.81,37.465,32.073,31.753,24.183,9.342,7.042,6.343
1158,0.8,37.494,32.034,31.714,24.162,9.054,6.877,6.179
1159,0.8,37.175,31.99,31.743,24.169,9.095,6.96,6.262
1160,0.807,37.33,32.045,31.734,24.169,9.177,6.96,6.302
1161,0.803,37.436,32.053,31.734,24.166,9.013,6.96,6.262
1162,0.81,37.485,32.081,31.753,24.176,9.136,7.042,6.262
1163,0.807,37.097,31.986,31.704,24.162,8.931,6.877,6.056
1164,0.8,37.214,32.022,31.704,24.166,8.931,6.96,6.179
1165,0.803,37.349,32.045,31.714,24.166,9.095,6.919,6.262
1166,0.8,37.707,32.081,31.714,24.173,9.136,6.919,6.179
1167,0.807,37.184,32.105,31.743,24.176,9.382,7.001,6.302
1168,0.803,37.32,32.081,31.685,24.162,9.259,6.795,6.179
1169,0.793,37.407,32.065,31.685,24.159,9.465,6.877,6.138
1170,0.797,37.126,32.03,31.734,24.176,9.711,6.919,6.179
1171,0.79,37.136,32.03,31.695,24.173,9.793,6.877,6.22
1172,0.797,37.291,32.057,31.704,24.18,10.081,7.001,6.343
1173,0.784,37.349,32.065,31.685,24.159,10.04,6.754,6.097
1174,0.78,36.981,31.978,31.695,24.162,10.204,6.795,6.179
1175,0.797,37.155,32.014,31.695,24.176,10.409,6.877,6.179
1176,0.797,37.272,32.014,31.695,24.176,10.45,6.795,6.22
1177,0.8,37.349,32.042,31.695,24.176,10.532,6.919,6.262
1178,0.8,36.865,32.03,31.656,24.166,10.409,6.754,6.138
1179,0.79,36.991,32.073,31.675,24.166,10.574,6.837,6.22
1180,0.81,37.146,32.042,31.695,24.166,10.656,6.795,6.138
1181,0.797,37.223,32.006,31.675,24.162,10.532,6.795,6.179
1182,0.8,37.0,32.065,31.695,24.169,10.656,6.877,6.302
1183,0.79,37.136,32.049,31.666,24.166,10.45,6.672,6.097
1184,0.797,37.252,32.038,31.637,24.166,10.491,6.754,6.179
1185,0.793,37.33,31.99,31.666,24.162,10.491,6.754,6.302
1186,0.8,36.768,32.022,31.666,24.169,10.327,6.713,6.22
1187,0.787,36.923,32.026,31.685,24.18,10.409,6.837,6.22
1188,0.787,37.01,32.026,31.627,24.169,10.122,6.631,6.138
1189,0.774,37.059,32.049,31.637,24.166,10.081,6.713,6.138
1190,0.79,37.097,32.081,31.656,24.169,10.081,6.713,6.22
1191,0.774,37.223,31.955,31.656,24.162,9.999,6.713,6.138
1192,0.79,37.359,32.022,31.666,24.18,10.04,6.795,6.343
1193,0.774,37.388,32.053,31.617,24.159,9.752,6.713,6.138
1194,0.784,36.826,32.065,31.637,24.169,9.711,6.754,6.138
1195,0.793,36.971,32.038,31.637,24.169,9.711,6.795,6.179
1196,0.793,37.078,31.986,31.627,24.166,9.629,6.795,6.179
1197,0.81,36.952,31.947,31.637,24.187,9.711,6.919,6.302
1198,0.793,36.962,32.006,31.598,24.162,9.465,6.713,6.138
1199,0.8,37.068,32.014,31.617,24.162,9.424,6.754,6.097
1200,0.81,37.184,32.057,31.637,24.169,9.424,6.877,6.22
1201,0.8,36.768,32.026,31.646,24.166,9.465,6.795,6.22
1202,0.81,36.942,32.022,31.646,24.176,9.465,6.96,6.302
1203,0.793,37.0,32.018,31.598,24.159,9.301,6.754,6.097
1204,0.797,37.107,32.077,31.608,24.166,9.301,6.795,6.056
1205,0.793,36.768,32.069,31.627,24.176,9.342,6.837,6.138
1206,0.784,36.913,32.018,31.598,24.169,9.301,6.837,6.097
1207,0.797,37.049,32.006,31.627,24.18,9.424,6.96,6.262
1208,0.777,37.088,31.907,31.588,24.166,9.095,6.672,6.097
1209,0.784,36.739,31.99,31.579,24.169,9.095,6.754,6.097
1210,0.797,36.923,32.057,31.588,24.173,9.054,6.754,6.179
1211,0.79,37.02,32.073,31.598,24.176,9.054,6.754,6.097
1212,0.803,37.097,31.986,31.608,24.176,9.095,6.919,6.22
1213,0.79,36.836,31.99,31.579,24.155,8.808,6.631,5.974
1214,0.787,36.971,32.034,31.588,24.169,8.849,6.795,6.138
1215,0.797,37.097,32.057,31.579,24.169,8.849,6.795,6.097
1216,0.793,37.126,32.065,31.588,24.169,8.767,6.795,6.138
1217,0.81,36.807,32.053,31.598,24.18,8.808,6.877,6.22
1218,0.793,36.904,32.018,31.55,24.169,8.561,6.713,6.097
1219,0.8,37.029,31.978,31.579,24.162,8.52,6.754,6.138
1220,0.803,37.049,32.034,31.579,24.169,8.644,6.837,6.302
1221,0.797,36.884,32.073,31.569,24.169,8.52,6.754,6.22
1222,0.807,37.039,32.034,31.588,24.176,8.644,6.877,6.302
1223,0.79,37.078,32.022,31.53,24.159,8.397,6.672,6.138
1224,0.8,36.874,32.018,31.55,24.162,8.397,6.713,6.138
1225,0.803,36.855,32.049,31.569,24.169,8.356,6.713,6.22
1226,0.803,36.971,32.057,31.54,24.166,8.315,6.754,6.302
1227,0.807,37.097,32.085,31.598,24.176,8.356,6.795,6.302
1228,0.797,36.797,32.042,31.54,24.159,8.192,6.549,6.138
1229,0.797,36.904,32.006,31.54,24.166,8.192,6.672,6.302
1230,0.793,37.059,32.002,31.54,24.173,8.109,6.713,6.302
1231,0.784,37.146,32.038,31.521,24.173,8.192,6.672,6.385
1232,0.803,36.69,32.053,31.569,24.176,8.233,6.754,6.343
1233,0.784,36.787,31.967,31.511,24.162,8.069,6.59,6.22
1234,0.793,36.923,31.978,31.53,24.166,7.986,6.713,6.262
1235,0.797,37.0,32.026,31.511,24.169,8.027,6.59,6.343
1236,0.793,36.865,32.034,31.521,24.166,8.027,6.713,6.343
1237,0.81,37.02,32.089,31.559,24.169,7.986,6.713,6.343
1238,0.793,37.107,32.073,31.492,24.159,7.863,6.672,6.343
1239,0.797,37.165,32.061,31.511,24.166,7.904,6.672,6.302
1240,0.803,36.768,32.034,31.55,24.169,7.822,6.549,6.262
1241,0.807,36.923,32.006,31.53,24.169,7.822,6.713,6.385
1242,0.813,37.02,32.081,31.511,24.169,7.781,6.672,6.385
1243,0.8,37.039,32.022,31.501,24.166,7.74,6.59,6.302
1244,0.816,36.768,31.975,31.472,24.169,7.781,6.713,6.262
1245,0.797,36.904,32.018,31.492,24.159,7.74,6.467,6.22
1246,0.807,37.029,31.998,31.501,24.169,7.863,6.631,6.343
1247,0.803,37.059,32.014,31.482,24.159,7.781,6.631,6.343
1248,0.79,36.797,32.01,31.482,24.155,7.781,6.59,6.302
1249,0.8,36.952,32.049,31.482,24.162,7.863,6.59,6.343
1250,0.8,37.049,32.042,31.472,24.166,7.863,6.549,6.22
1251,0.793,36.913,32.026,31.492,24.176,7.945,6.672,6.385
1252,0.79,36.894,32.002,31.482,24.169,7.986,6.672,6.343
1253,0.793,36.991,32.053,31.463,24.155,7.863,6.549,6.302
1254,0.803,37.097,32.057,31.472,24.169,7.986,6.631,6.343
1255,0.807,36.72,31.967,31.443,24.155,7.822,6.549,6.343
1256,0.816,36.855,31.955,31.492,24.176,7.945,6.631,6.343
1257,0.816,36.971,31.986,31.482,24.169,7.945,6.631,6.343
1258,0.8,37.02,31.978,31.463,24.162,7.863,6.631,6.302
1259,0.813,36.69,31.994,31.453,24.162,7.986,6.631,6.302
1260,0.81,36.816,32.049,31.434,24.159,7.863,6.59,6.343
1261,0.82,36.952,31.955,31.472,24.18,8.109,6.631,6.385
1262,0.816,37.029,31.99,31.463,24.166,8.109,6.631,6.385
1263,0.82,36.72,32.014,31.434,24.166,8.069,6.59,6.343
1264,0.816,36.855,32.081,31.453,24.159,8.15,6.631,6.343
1265,0.813,36.971,32.042,31.424,24.162,8.15,6.508,6.22
1266,0.803,37.049,32.002,31.463,24.173,8.315,6.672,6.385
1267,0.807,36.749,31.967,31.434,24.162,8.274,6.631,6.467
1268,0.8,36.884,31.994,31.482,24.166,8.356,6.631,6.426
1269,0.797,37.0,31.998,31.424,24.166,8.438,6.672,6.343
1270,0.793,37.029,32.034,31.414,24.159,8.438,6.631,6.302
1271,0.793,36.72,32.022,31.424,24.166,8.684,6.754,6.385
1272,0.79,36.884,31.986,31.434,24.166,8.726,6.631,6.343
1273,0.787,36.952,31.994,31.414,24.169,8.767,6.549,6.385
1274,0.803,36.971,32.026,31.434,24.162,8.849,6.631,6.302
1275,0.803,36.642,32.042,31.395,24.159,8.931,6.467,6.262
1276,0.807,36.787,32.053,31.414,24.173,9.136,6.713,6.385
1277,0.807,36.884,32.026,31.424,24.169,9.136,6.672,6.426
1278,0.797,36.816,31.951,31.404,24.162,9.218,6.631,6.385
1279,0.8,36.778,32.002,31.404,24.162,9.342,6.631,6.302
1280,0.8,36.904,31.986,31.395,24.152,9.465,6.508,6.343
1281,0.803,37.0,32.045,31.424,24.173,9.916,6.631,6.508
1282,0.8,36.545,31.971,31.424,24.169,10.245,6.631,6.385
1283,0.8,36.642,31.982,31.395,24.166,10.738,6.508,6.343
1284,0.793,36.768,32.01,31.385,24.166,11.518,6.549,6.385
1285,0.8,36.826,32.014,31.366,24.159,12.052,6.385,6.343
1286,0.8,36.584,32.061,31.395,24.166,12.832,6.631,6.467
1287,0.797,36.729,32.061,31.385,24.176,13.407,6.631,6.385
1288,0.793,36.826,32.049,31.385,24.169,13.982,6.631,6.467
1289,0.79,36.923,31.986,31.375,24.159,14.352,6.508,6.385
1290,0.777,36.381,31.99,31.356,24.155,14.803,6.426,6.343
1291,0.797,36.565,32.042,31.375,24.173,15.297,6.631,6.343
1292,0.793,36.671,32.03,31.375,24.169,15.625,6.672,6.426
1293,0.78,36.749,31.967,31.395,24.176,15.83,6.59,6.426
1294,0.797,36.565,31.99,31.375,24.159,15.871,6.59,6.343
1295,0.787,36.671,32.002,31.356,24.155,15.871,6.467,6.302
1296,0.8,36.826,32.045,31.385,24.176,16.035,6.631,6.467
1297,0.793,36.855,32.065,31.375,24.169,16.035,6.549,6.385
1298,0.8,36.526,32.057,31.346,24.162,15.871,6.549,6.385
1299,0.79,36.642,32.034,31.346,24.166,15.789,6.508,6.343
1300,0.793,36.749,32.022,31.346,24.155,15.502,6.385,6.302
1301,0.797,36.807,32.018,31.366,24.169,15.502,6.713,6.426
1302,0.79,36.468,32.049,31.356,24.162,15.297,6.631,6.426
1303,0.803,36.594,31.99,31.337,24.166,15.009,6.631,6.426
1304,0.807,36.71,32.01,31.385,24.162,14.763,6.508,6.302
1305,0.793,36.603,31.955,31.317,24.159,14.68,6.508,6.262
1306,0.803,36.526,32.034,31.366,24.173,14.68,6.672,6.426
1307,0.787,36.632,32.026,31.346,24.166,14.516,6.549,6.426
1308,0.787,36.739,32.085,31.346,24.162,14.393,6.631,6.426
1309,0.787,36.4,32.061,31.346,24.166,14.188,6.631,6.302
1310,0.78,36.526,31.99,31.327,24.152,13.982,6.549,6.262
1311,0.79,36.661,32.022,31.337,24.166,14.023,6.713,6.385
1312,0.787,36.758,32.042,31.327,24.166,13.818,6.59,6.343
1313,0.777,36.845,32.065,31.337,24.169,13.654,6.713,6.426
1314,0.78,36.981,31.971,31.337,24.166,13.49,6.631,6.343
1315,0.777,37.088,32.006,31.356,24.155,13.243,6.59,6.343
1316,0.793,37.204,31.975,31.346,24.169,13.202,6.754,6.426
1317,0.79,36.167,32.002,31.327,24.162,12.956,6.672,6.385
1318,0.78,36.303,32.006,31.317,24.169,12.832,6.754,6.508
1319,0.793,36.41,32.018,31.308,24.162,12.586,6.754,6.343
1320,0.787,36.477,32.038,31.308,24.162,12.298,6.631,6.302
1321,0.807,36.516,32.022,31.346,24.176,12.298,6.754,6.426
1322,0.797,36.652,32.006,31.317,24.162,12.093,6.795,6.385
1323,0.803,36.749,32.045,31.308,24.169,11.929,6.795,6.426
1324,0.797,36.787,32.022,31.298,24.169,11.723,6.672,6.343
1325,0.787,36.293,31.923,31.279,24.155,11.559,6.631,6.179
1326,0.79,36.477,31.998,31.327,24.176,11.6,6.837,6.385
1327,0.787,36.565,31.994,31.317,24.162,11.436,6.795,6.385
1328,0.787,36.584,32.014,31.308,24.166,11.395,6.713,6.302
1329,0.777,36.516,32.018,31.288,24.162,11.231,6.672,6.343
1330,0.77,36.623,32.065,31.259,24.148,11.025,6.631,6.179
1331,0.78,36.778,31.943,31.327,24.169,11.025,6.795,6.426
1332,0.79,36.69,32.002,31.308,24.166,10.902,6.713,6.343
1333,0.774,36.439,32.038,31.298,24.162,10.779,6.672,6.302
1334,0.774,36.594,32.053,31.288,24.169,10.656,6.713,6.302
1335,0.78,36.671,32.006,31.269,24.155,10.409,6.59,6.179
1336,0.793,36.497,31.947,31.317,24.169,10.532,6.795,6.343
1337,0.79,36.574,31.923,31.308,24.169,10.491,6.795,6.343
1338,0.787,36.681,31.963,31.288,24.162,10.368,6.795,6.343
1339,0.79,36.787,31.963,31.298,24.169,10.327,6.631,6.302
1340,0.787,36.39,32.026,31.25,24.162,10.245,6.549,6.22
1341,0.797,36.565,32.006,31.317,24.162,10.327,6.713,6.385
1342,0.79,36.69,32.002,31.298,24.169,10.245,6.672,6.262
1343,0.79,36.749,32.006,31.279,24.162,10.163,6.631,6.302
1344,0.79,36.458,32.045,31.259,24.169,10.04,6.713,6.22
1345,0.774,36.594,32.026,31.25,24.159,9.916,6.549,6.179
1346,0.78,36.749,32.01,31.269,24.166,9.957,6.713,6.343
1347,0.777,36.807,31.963,31.288,24.169,9.916,6.631,6.262
1348,0.774,36.419,31.935,31.288,24.169,9.834,6.672,6.343
1349,0.767,36.565,31.986,31.269,24.166,9.752,6.631,6.262
1350,0.761,36.652,31.998,31.25,24.155,9.629,6.508,6.138
1351,0.777,36.739,32.049,31.288,24.169,9.67,6.672,6.343
1352,0.767,36.477,31.943,31.259,24.176,9.588,6.672,6.262
1353,0.767,36.613,32.002,31.259,24.166,9.465,6.713,6.262
1354,0.77,36.729,32.002,31.25,24.162,9.342,6.713,6.262
1355,0.767,36.739,32.053,31.23,24.155,9.136,6.631,6.179
1356,0.777,36.594,32.045,31.269,24.169,9.259,6.795,6.302
1357,0.784,36.72,32.01,31.25,24.162,9.136,6.713,6.262
1358,0.784,36.826,32.006,31.25,24.166,9.095,6.795,6.262
1359,0.787,36.874,31.923,31.259,24.159,8.972,6.713,6.138
1360,0.787,36.555,31.959,31.24,24.152,8.808,6.713,6.179
1361,0.793,36.72,32.026,31.269,24.169,8.89,6.837,6.262
1362,0.787,36.816,32.034,31.24,24.169,8.767,6.877,6.22
1363,0.78,36.429,32.01,31.308,24.169,8.644,6.837,6.262
1364,0.78,36.497,31.99,31.23,24.166,8.479,6.795,6.138
1365,0.764,36.603,31.998,31.211,24.159,8.438,6.754,6.138
1366,0.784,36.729,32.049,31.25,24.169,8.52,6.795,6.22
1367,0.767,36.613,32.053,31.24,24.169,8.397,6.837,6.22
1368,0.764,36.749,32.061,31.23,24.169,8.356,6.795,6.22
1369,0.764,36.865,31.998,31.23,24.166,8.356,6.795,6.22
1370,0.761,36.942,31.994,31.201,24.162,8.274,6.795,6.097
1371,0.761,36.535,32.002,31.25,24.162,8.438,6.877,6.262
1372,0.767,36.661,32.03,31.23,24.162,8.315,6.877,6.179
1373,0.761,36.787,31.982,31.24,24.169,8.397,6.877,6.262
1374,0.764,36.855,31.978,31.288,24.166,8.397,6.795,6.097
1375,0.77,36.613,31.955,31.201,24.159,8.438,6.713,6.138
1376,0.777,36.807,32.018,31.24,24.169,8.602,6.837,6.22
1377,0.787,36.904,32.049,31.211,24.166,8.726,6.795,6.179
1378,0.78,36.942,32.049,31.23,24.173,8.767,6.877,6.302
1379,0.774,36.594,32.065,31.201,24.162,8.849,6.795,6.138
1380,0.767,36.71,31.99,31.201,24.159,9.013,6.795,6.097
1381,0.774,36.845,32.002,31.211,24.169,9.382,6.919,6.262
1382,0.767,36.865,32.01,31.221,24.162,9.67,6.837,6.262
1383,0.787,36.632,32.026,31.221,24.166,10.204,6.919,6.22
1384,0.777,36.739,31.975,31.201,24.159,10.574,6.837,6.138
1385,0.767,36.836,31.848,31.201,24.159,10.943,6.877,6.138
1386,0.784,37.059,31.971,31.211,24.169,11.436,6.919,6.22
1387,0.761,36.594,31.971,31.211,24.166,11.806,6.919,6.22
1388,0.767,36.729,32.022,31.211,24.166,12.175,7.001,6.262
1389,0.774,36.826,32.002,31.192,24.162,12.216,6.919,6.138
1390,0.761,36.613,32.053,31.172,24.162,12.422,6.919,6.138
1391,0.777,36.739,32.026,31.279,24.18,12.75,6.96,6.22
1392,0.774,36.855,31.971,31.201,24.173,12.791,6.96,6.179
1393,0.784,36.933,32.034,31.201,24.173,12.915,7.001,6.343
1394,0.777,36.594,32.002,31.182,24.166,12.873,6.96,6.138
1395,0.787,36.71,31.967,31.172,24.162,12.832,6.877,6.179
1396,0.8,36.845,31.931,31.211,24.173,12.873,6.919,6.22
1397,0.803,36.923,32.006,31.24,24.166,12.75,6.919,6.22
1398,0.813,36.545,31.986,31.211,24.173,12.709,7.001,6.343
1399,0.803,36.681,32.026,31.172,24.162,12.504,6.837,6.138
1400,0.81,36.778,32.026,31.172,24.162,12.463,6.837,6.22
1401,0.833,36.894,31.975,31.192,24.169,12.339,6.919,6.22
1402,0.823,36.584,31.99,31.172,24.169,12.257,6.96,6.179
1403,0.833,36.729,32.026,31.192,24.173,12.216,7.042,6.302
1404,0.83,36.816,32.038,31.153,24.159,11.929,6.795,6.138
1405,0.843,36.865,32.018,31.172,24.166,11.847,6.795,6.179
1406,0.846,36.506,31.947,31.182,24.169,11.723,6.877,6.22
1407,0.839,36.652,31.931,31.162,24.169,11.6,6.837,6.262
1408,0.853,36.768,31.975,31.25,24.176,11.518,7.001,6.385
1409,0.843,36.787,31.975,31.153,24.166,11.272,6.837,6.097
1410,0.846,36.69,32.045,31.162,24.166,11.149,6.837,6.179
1411,0.856,36.845,32.006,31.153,24.173,11.066,6.877,6.262
1412,0.862,36.942,32.002,31.162,24.169,10.943,6.919,6.22
1413,0.862,37.281,31.982,31.182,24.176,10.861,7.001,6.385
1414,0.862,36.632,32.006,31.153,24.159,10.574,6.795,6.138
1415,0.866,36.778,32.022,31.162,24.169,10.45,6.877,6.262
1416,0.885,36.884,32.022,31.162,24.166,10.45,6.919,6.262
1417,0.872,36.778,31.943,31.153,24.166,10.327,6.877,6.22
1418,0.889,36.874,31.939,31.192,24.176,10.204,7.124,6.302
1419,0.876,36.962,31.978,31.133,24.162,9.999,6.837,6.138
1420,0.869,37.078,31.994,31.153,24.169,9.916,6.96,6.22
1421,0.876,36.477,32.049,31.153,24.169,9.876,6.96,6.262
1422,0.876,36.594,31.939,31.143,24.166,9.711,7.042,6.262
1423,0.882,36.729,31.998,31.172,24.173,9.752,7.165,6.343
1424,0.872,36.768,31.99,31.124,24.159,9.465,6.919,6.097
1425,0.862,36.487,32.053,31.124,24.169,9.424,7.001,6.179
1426,0.869,36.652,32.034,31.124,24.169,9.424,7.001,6.22
1427,0.856,36.758,32.014,31.133,24.162,9.259,7.001,6.22
1428,0.862,36.874,31.99,31.162,24.18,9.342,7.083,6.343
1429,0.839,36.439,31.884,31.124,24.155,8.972,6.919,6.138
1430,0.836,36.584,31.971,31.133,24.159,9.054,7.001,6.179
1431,0.846,36.72,32.014,31.143,24.166,9.013,7.042,6.302
1432,0.859,36.758,31.998,31.114,24.162,8.931,6.96,6.262
1433,0.869,36.419,32.006,31.172,24.176,8.931,7.165,6.302
1434,0.869,36.555,31.99,31.124,24.159,8.808,6.877,6.138
1435,0.885,36.652,32.018,31.133,24.166,8.931,7.001,6.179
1436,0.895,36.71,32.057,31.124,24.176,8.972,7.001,6.262
1437,0.899,36.497,32.073,31.124,24.169,9.013,6.96,6.302
1438,0.908,36.681,32.065,31.143,24.183,9.301,7.042,6.343
1439,0.902,36.729,31.99,31.104,24.159,9.259,6.919,6.138
1440,0.912,36.942,31.963,31.124,24.166,9.424,7.001,6.179
1441,0.918,36.4,31.978,31.124,24.166,9.588,7.042,6.262
1442,0.915,36.535,32.014,31.133,24.169,9.711,7.083,6.262
1443,0.918,36.652,31.982,31.133,24.176,9.916,7.083,6.343
1444,0.892,36.371,31.971,31.095,24.162,9.793,6.919,6.097
1445,0.892,36.4,31.986,31.114,24.162,9.999,7.001,6.179
1446,0.885,36.526,32.014,31.124,24.169,10.163,7.001,6.262
1447,0.866,36.623,32.045,31.104,24.162,10.204,7.001,6.22
1448,0.869,36.477,32.057,31.133,24.18,10.409,7.124,6.343
1449,0.849,36.506,32.03,31.066,24.159,10.245,6.96,6.179
1450,0.853,36.661,31.88,31.133,24.169,10.286,6.96,6.179
1451,0.856,36.787,31.986,31.114,24.173,10.368,7.124,6.262
1452,0.846,36.264,32.038,31.095,24.166,10.327,7.042,6.262
1453,0.853,36.448,32.038,31.133,24.176,10.409,7.124,6.385
1454,0.836,36.516,31.935,31.085,24.152,10.163,6.877,6.22
1455,0.843,36.613,32.002,31.095,24.169,10.204,7.001,6.22
1456,0.843,36.419,31.994,31.104,24.169,10.245,7.042,6.262
1457,0.839,36.545,32.002,31.066,24.169,10.245,7.001,6.302
1458,0.853,36.69,32.042,31.114,24.183,10.245,7.083,6.343
1459,0.833,36.681,32.022,31.066,24.159,9.916,6.877,6.179
1460,0.833,36.293,31.978,31.085,24.166,9.957,6.96,6.262
1461,0.839,36.458,31.971,31.114,24.169,9.999,7.001,6.262
1462,0.83,36.565,31.994,31.085,24.166,9.876,6.96,6.302
1463,0.846,36.632,32.053,31.104,24.176,9.957,7.083,6.302
1464,0.83,36.235,31.955,31.066,24.166,9.793,6.919,6.179
1465,0.816,36.371,31.884,31.085,24.166,9.916,6.877,6.179
1466,0.816,36.497,31.967,31.085,24.173,10.122,6.96,6.302
1467,0.8,36.516,31.99,31.075,24.162,10.327,6.877,6.22
1468,0.803,36.255,32.006,31.085,24.183,10.779,7.042,6.302
1469,0.777,36.342,32.045,31.056,24.162,10.984,6.837,6.179
1470,0.777,36.448,32.03,31.075,24.166,11.436,6.919,6.22
1471,0.774,36.313,32.006,31.075,24.169,11.847,6.877,6.179
1472,0.767,36.322,31.971,31.075,24.169,12.257,6.877,6.22
1473,0.761,36.468,32.045,31.114,24.176,12.75,7.042,6.343
1474,0.744,36.497,32.018,31.046,24.162,12.873,6.837,6.22
1475,0.751,36.167,31.955,31.066,24.166,13.12,6.919,6.22
1476,0.764,36.284,31.915,31.075,24.169,13.407,6.96,6.22
1477,0.774,36.41,31.943,31.066,24.169,13.571,6.96,6.262
1478,0.777,36.516,31.99,31.075,24.18,13.695,6.96,6.22
1479,0.751,36.129,31.986,31.046,24.155,13.613,6.877,6.138
1480,0.761,36.284,32.065,31.066,24.162,13.613,7.001,6.22
1481,0.757,36.4,31.967,31.066,24.162,13.613,6.877,6.179
1482,0.761,36.477,31.975,31.075,24.166,13.613,6.96,6.262
1483,0.764,36.245,32.018,31.075,24.176,13.531,6.919,6.138
1484,0.747,36.322,32.026,31.037,24.162,13.243,6.837,6.097
1485,0.741,36.477,32.002,31.046,24.166,13.161,6.877,6.179
1486,0.738,36.535,31.915,31.056,24.166,13.12,6.919,6.138
1487,0.721,36.09,31.9,31.066,24.173,13.12,6.96,6.262
1488,0.747,36.245,31.872,31.104,24.176,12.996,7.001,6.22
1489,0.738,36.322,31.959,31.027,24.166,12.791,6.795,6.179
1490,0.738,36.381,32.002,31.027,24.166,12.75,6.919,6.179
1491,0.738,36.264,32.01,31.056,24.166,12.627,6.877,6.138
1492,0.738,36.4,32.002,31.056,24.173,12.586,6.919,6.22
1493,0.751,36.555,31.986,31.085,24.18,12.422,6.96,6.262
1494,0.734,36.526,32.01,31.017,24.159,12.216,6.795,6.138
1495,0.731,36.129,32.026,31.046,24.169,12.216,6.837,6.22
1496,0.738,36.284,32.002,31.046,24.169,11.929,6.795,6.22
1497,0.741,36.381,31.927,31.037,24.169,11.929,6.877,6.22
1498,0.757,36.119,31.931,31.056,24.176,11.806,6.837,6.179
1499,0.734,35.983,31.943,31.027,24.159,11.518,6.754,6.138
1500,0.741,36.129,31.967,31.046,24.162,11.436,6.795,6.138
1501,0.741,36.226,31.998,31.037,24.166,11.272,6.795,6.179
1502,0.751,36.09,31.967,31.056,24.166,11.189,6.877,6.22
1503,0.747,36.216,31.994,31.037,24.162,11.066,6.795,6.138
1504,0.734,36.303,31.986,31.008,24.162,10.779,6.754,6.138
1505,0.738,36.429,32.018,31.037,24.162,10.738,6.795,6.097
1506,0.731,36.419,32.026,30.998,24.162,10.532,6.672,6.015
1507,0.711,36.555,31.982,31.037,24.166,10.532,6.795,6.22
1508,0.724,36.69,31.947,31.037,24.166,10.45,6.713,6.179
1509,0.721,36.729,31.868,31.017,24.162,10.327,6.713,6.097
1510,0.721,35.712,31.967,31.017,24.166,10.204,6.713,6.138
1511,0.728,35.877,32.022,31.027,24.162,10.04,6.631,6.056
1512,0.728,36.003,31.986,31.017,24.169,10.081,6.713,6.22
1513,0.747,36.1,31.99,31.008,24.169,9.957,6.795,6.179
1514,0.738,36.148,31.967,30.998,24.155,9.752,6.672,6.097
1515,0.734,36.322,31.994,31.008,24.162,9.67,6.754,6.097
1516,0.744,36.439,32.057,31.017,24.166,9.588,6.713,6.015
1517,0.741,36.458,32.022,31.027,24.166,9.588,6.795,6.138
1518,0.744,35.974,32.01,30.998,24.169,9.547,6.837,6.179
1519,0.728,36.09,31.951,30.988,24.166,9.424,6.754,6.056
1520,0.747,36.216,31.967,31.008,24.166,9.342,6.837,6.056
1521,0.741,36.226,31.986,30.998,24.159,9.259,6.795,6.056
1522,0.741,36.012,32.034,30.998,24.169,9.382,6.96,6.179
1523,0.747,36.187,31.963,30.998,24.166,9.506,6.877,6.056
1524,0.738,36.274,31.947,30.988,24.159,9.506,6.837,6.097
1525,0.731,36.138,31.963,30.988,24.162,9.752,6.877,6.138
1526,0.738,36.051,31.986,30.988,24.162,9.793,6.795,6.056
1527,0.721,36.187,32.022,31.008,24.166,10.04,7.001,6.097
1528,0.715,36.303,32.038,30.998,24.166,10.081,7.001,6.138
1529,0.698,35.896,32.006,30.988,24.159,10.122,6.919,6.056
1530,0.701,35.993,31.931,30.979,24.169,10.245,6.96,6.015
1531,0.698,36.138,31.955,30.988,24.159,10.245,6.877,5.974
1532,0.701,36.245,32.026,30.998,24.166,10.409,7.001,6.179
1533,0.688,35.964,32.006,31.008,24.166,10.409,6.96,6.138
1534,0.695,36.1,31.939,30.988,24.162,10.45,6.96,6.097
1535,0.701,36.245,31.939,30.998,24.162,10.409,6.96,6.056
1536,0.715,36.322,31.978,30.979,24.159,10.327,6.837,6.056
1537,0.734,35.867,31.986,30.988,24.173,10.45,6.919,6.179
1538,0.764,36.012,32.022,30.979,24.162,10.368,6.919,6.056
1539,0.78,36.109,31.994,30.959,24.162,10.204,6.919,6.056
1540,0.82,36.187,31.99,30.979,24.169,10.163,6.919,6.097
1541,0.869,36.022,31.978,30.979,24.159,10.04,6.795,5.974
1542,0.905,36.158,31.978,31.008,24.169,10.081,7.042,6.179
1543,0.935,36.274,32.042,30.969,24.169,10.04,6.96,6.056
1544,0.958,36.284,31.963,30.969,24.159,9.916,6.877,6.015
1545,0.984,35.935,31.907,30.959,24.162,9.793,6.919,6.056
1546,1.017,36.071,31.927,30.959,24.159,9.67,6.795,5.974
1547,1.056,36.196,31.967,30.988,24.176,9.752,7.042,6.179
1548,1.125,36.216,32.01,30.969,24.169,9.588,6.96,6.097
1549,1.181,36.032,31.998,30.969,24.166,9.629,6.96,6.097
1550,1.253,36.167,32.038,30.979,24.162,9.506,6.877,6.056
1551,1.322,36.274,31.978,31.017,24.155,9.382,6.877,6.015
1552,1.395,36.206,31.986,30.969,24.173,9.588,6.96,6.138
1553,1.451,36.012,31.994,30.969,24.166,9.506,7.001,6.097
1554,1.51,36.148,32.034,30.969,24.166,9.465,7.001,6.138
1555,1.559,36.245,31.951,30.969,24.169,9.506,6.96,6.097
1556,1.589,35.819,31.911,30.95,24.148,9.424,6.919,6.015
1557,1.625,35.916,31.852,30.998,24.169,9.588,7.001,6.22
1558,1.628,36.032,31.967,30.959,24.162,9.629,7.042,6.262
1559,1.608,36.138,31.994,30.95,24.166,9.629,7.001,6.343
1560,1.589,35.925,32.034,30.959,24.169,9.588,7.001,6.138
1561,1.575,36.051,31.955,30.94,24.155,9.588,6.877,6.22
1562,1.605,36.216,31.963,30.979,24.162,9.711,7.083,6.385
1563,1.595,36.274,31.975,30.959,24.173,9.588,7.083,6.343
1564,1.569,35.819,32.022,30.95,24.166,9.588,7.042,6.426
1565,1.549,35.964,32.018,30.94,24.169,9.588,6.96,6.302
1566,1.51,36.051,31.963,30.92,24.155,9.424,6.919,6.343
1567,1.457,36.158,31.907,30.959,24.173,9.506,7.083,6.549
1568,1.391,35.916,31.864,30.959,24.162,9.506,7.001,6.631
1569,1.296,36.071,31.955,30.94,24.173,9.424,7.001,6.672
1570,1.178,36.177,31.955,30.94,24.162,9.424,7.001,6.713
1571,1.069,36.206,32.006,30.92,24.152,9.259,6.795,6.837
1572,1.007,35.887,31.943,30.94,24.176,9.424,7.042,7.247
1573,0.958,36.032,31.951,30.959,24.169,9.301,6.96,7.617
1574,0.931,36.129,31.963,30.94,24.162,9.301,7.001,7.986
1575,0.922,36.138,32.002,30.93,24.166,9.177,6.919,8.356
1576,0.902,35.867,31.998,30.901,24.152,9.013,6.795,8.808
1577,0.925,36.051,31.978,30.95,24.166,9.054,6.96,9.342
1578,0.935,36.138,31.994,30.93,24.169,9.013,7.001,9.752
1579,0.922,36.071,31.931,30.93,24.173,8.972,6.919,10.081
1580,0.918,35.887,31.978,30.92,24.162,8.89,6.837,10.409
1581,0.892,36.012,31.978,30.901,24.159,8.726,6.754,10.574
1582,0.866,36.119,31.986,30.95,24.173,8.849,6.96,10.861
1583,0.843,35.896,31.951,30.95,24.166,8.767,6.837,10.902
1584,0.82,35.993,31.978,30.901,24.166,8.767,6.877,11.108
1585,0.8,36.109,32.002,30.93,24.155,8.726,6.795,11.108
1586,0.777,36.167,32.018,30.911,24.155,8.644,6.795,11.108
1587,0.764,35.741,32.042,30.94,24.166,8.726,6.877,11.354
1588,0.761,35.848,31.998,30.93,24.166,8.684,6.919,11.313
1589,0.754,35.974,31.955,30.93,24.169,8.684,6.96,11.395
1590,0.774,36.08,31.947,30.92,24.166,8.602,6.877,11.354
1591,0.774,35.761,31.971,30.901,24.155,8.52,6.877,11.354
1592,0.784,35.935,32.01,30.93,24.166,8.602,7.083,11.723
1593,0.8,36.061,31.935,30.95,24.159,8.561,7.042,11.806
1594,0.797,36.119,31.959,30.92,24.169,8.479,7.042,12.093
1595,0.807,35.838,31.963,30.92,24.162,8.438,7.042,12.216
1596,0.8,35.964,31.998,30.901,24.162,8.274,6.919,12.257
1597,0.81,36.129,32.026,30.94,24.173,8.397,7.083,12.586
1598,0.807,36.167,32.03,30.94,24.166,8.315,7.083,12.709
1599,0.8,35.819,31.963,30.92,24.166,8.315,7.124,12.832
1600,0.793,35.993,31.978,30.93,24.162,8.15,7.083,12.832
1601,0.787,36.08,31.947,30.901,24.166,8.109,7.083,12.915
1602,0.79,36.138,32.022,30.94,24.169,8.15,7.124,13.038
1603,0.797,35.945,31.955,30.93,24.169,8.109,7.083,12.915
1604,0.787,36.09,31.955,30.93,24.176,8.109,7.124,12.956
1605,0.777,36.177,31.963,30.901,24.162,8.069,6.96,12.75
1606,0.77,36.167,31.99,30.891,24.159,7.986,7.042,12.627
1607,0.774,35.906,32.03,30.92,24.169,8.109,7.124,12.627
1608,0.777,36.012,32.026,30.93,24.162,8.109,7.042,12.545
1609,0.77,36.1,32.026,30.93,24.169,8.274,7.165,12.463
1610,0.767,35.809,31.86,30.911,24.162,8.15,6.96,12.216
1611,0.757,35.877,31.927,30.891,24.162,8.274,7.042,12.093
1612,0.774,36.032,32.01,30.93,24.166,8.356,7.042,12.011
1613,0.774,36.109,32.018,30.93,24.166,8.397,6.96,11.806
1614,0.774,35.857,31.915,30.92,24.169,8.479,7.083,11.723
1615,0.774,36.003,31.955,30.901,24.166,8.479,6.96,11.477
1616,0.774,36.1,31.982,30.901,24.169,8.52,6.96,11.354
1617,0.787,36.196,31.975,30.911,24.173,8.602,6.96,11.231
1618,0.774,35.867,32.002,30.92,24.166,8.52,6.96,11.108
1619,0.78,36.032,31.994,30.911,24.169,8.602,7.001,11.025
1620,0.774,36.109,31.986,30.882,24.155,8.52,6.877,10.697
1621,0.777,36.167,31.955,30.891,24.159,8.52,6.877,10.697
1622,0.777,35.741,31.963,30.92,24.173,8.602,7.001,10.574
1623,0.787,35.867,31.994,30.901,24.166,8.602,6.877,10.574
1624,0.774,36.003,31.986,30.94,24.169,8.602,7.001,10.491
1625,0.774,36.051,31.896,30.891,24.159,8.602,6.877,10.245
1626,0.774,35.877,31.939,30.901,24.166,8.726,6.919,10.245
1627,0.774,36.012,31.975,30.92,24.169,8.931,6.919,10.245
1628,0.767,36.138,31.971,30.901,24.169,9.054,6.877,9.957
1629,0.764,36.187,31.998,30.92,24.173,9.301,6.96,10.122
1630,0.751,35.935,32.018,30.882,24.162,9.588,6.837,9.834
1631,0.764,36.061,31.943,30.901,24.166,9.999,6.837,9.793
1632,0.767,36.216,31.955,30.901,24.166,10.368,6.877,9.834
1633,0.761,36.381,32.01,30.911,24.169,10.82,6.877,9.67
1634,0.761,35.935,32.03,30.92,24.176,11.272,6.96,9.711
1635,0.764,36.042,31.994,30.882,24.162,11.395,6.795,9.465
1636,0.754,36.138,31.931,30.882,24.166,11.683,6.877,9.424
1637,0.77,35.819,31.907,30.92,24.169,12.011,6.96,9.382
1638,0.774,35.848,31.986,30.901,24.169,12.134,6.877,9.259
1639,0.777,36.012,31.963,30.911,24.176,12.381,7.001,9.259
1640,0.77,36.061,32.014,30.882,24.159,12.298,6.837,9.095
1641,0.777,35.751,31.963,30.891,24.166,12.381,6.919,9.054
1642,0.79,35.916,31.975,30.92,24.166,12.463,6.96,9.054
1643,0.78,36.042,31.963,30.882,24.166,12.463,6.96,8.89
1644,0.784,36.119,32.042,30.92,24.176,12.504,7.042,8.89
1645,0.787,35.741,31.978,30.862,24.166,12.257,6.877,8.684
1646,0.774,35.896,31.967,30.891,24.169,12.257,6.919,8.684
1647,0.78,36.042,31.923,30.901,24.169,12.257,7.001,8.684
1648,0.774,36.109,31.9,30.882,24.169,12.134,7.001,8.602
1649,0.787,35.828,31.971,30.911,24.18,12.216,7.083,8.684
1650,0.767,35.925,31.982,30.891,24.159,11.97,6.877,8.397
1651,0.77,36.051,32.014,30.882,24.162,11.97,6.96,8.397
1652,0.767,36.148,31.963,30.911,24.162,11.929,7.001,8.356
1653,0.761,35.79,31.939,30.882,24.166,11.888,6.96,8.315
1654,0.774,35.945,31.982,30.92,24.176,11.888,7.083,8.397
1655,0.777,36.012,31.994,30.882,24.159,11.641,6.837,8.109
1656,0.764,36.071,31.994,30.882,24.166,11.6,6.837,8.109
1657,0.78,35.838,31.975,30.911,24.169,11.518,6.96,8.069
1658,0.78,35.954,31.971,30.872,24.166,11.436,6.96,8.069
1659,0.787,36.09,31.971,30.969,24.176,11.354,7.001,8.15
1660,0.784,36.41,31.951,30.862,24.162,11.108,6.877,7.904
1661,0.77,35.848,32.01,30.882,24.155,11.025,6.877,7.863
1662,0.79,36.012,31.959,30.901,24.166,10.943,6.877,7.945
1663,0.784,36.119,31.955,30.862,24.173,10.779,6.877,7.822
1664,0.787,35.819,31.971,30.891,24.173,10.82,7.001,7.945
1665,0.77,35.809,31.986,30.843,24.162,10.491,6.795,7.74
1666,0.77,35.935,32.014,30.872,24.169,10.409,6.837,7.74
1667,0.774,36.051,31.994,30.882,24.169,10.368,6.877,7.699
1668,0.777,35.79,31.959,30.862,24.166,10.245,6.877,7.699
1669,0.784,35.935,31.907,30.882,24.18,10.245,7.001,7.863
1670,0.774,36.042,31.959,30.862,24.162,9.957,6.795,7.575
1671,0.777,36.119,31.998,30.853,24.166,9.834,6.754,7.617
1672,0.787,35.857,31.986,30.882,24.176,9.793,6.877,7.617
1673,0.757,35.993,31.955,30.882,24.166,9.711,6.837,7.699
1674,0.797,36.148,31.955,30.901,24.176,9.793,6.919,7.617
1675,0.784,36.167,31.967,30.843,24.155,9.465,6.795,7.452
1676,0.79,35.974,31.99,30.853,24.166,9.465,6.754,7.411
1677,0.797,36.138,32.002,30.872,24.169,9.382,6.877,7.411
1678,0.793,36.235,31.978,30.843,24.169,9.342,6.877,7.494
1679,0.8,36.313,31.978,30.882,24.18,9.382,6.919,7.534
1680,0.787,35.625,31.939,30.843,24.162,9.218,6.754,7.288
1681,0.793,35.78,31.959,30.853,24.169,9.177,6.754,7.329
1682,0.807,35.896,32.018,30.853,24.169,9.054,6.837,7.37
1683,0.797,35.945,31.943,30.833,24.169,9.054,6.795,7.288
1684,0.803,35.799,31.975,30.872,24.176,9.136,6.919,7.329
1685,0.803,35.896,31.947,30.833,24.166,8.849,6.672,7.206
1686,0.8,36.022,31.994,30.824,24.166,8.849,6.754,7.165
1687,0.79,36.245,32.002,30.862,24.166,8.849,6.795,7.206
1688,0.797,35.799,32.03,30.843,24.169,8.849,6.754,7.206
1689,0.803,35.954,32.038,30.862,24.176,8.931,6.919,7.247
1690,0.793,36.022,31.884,30.824,24.159,8.602,6.713,7.083
1691,0.793,35.799,31.951,30.843,24.173,8.602,6.713,7.001
1692,0.797,35.819,32.002,30.843,24.166,8.602,6.754,7.124
1693,0.784,35.935,31.978,30.843,24.169,8.52,6.713,7.124
1694,0.81,36.071,31.88,30.891,24.176,8.602,6.795,7.206
1695,0.79,35.664,31.959,30.814,24.162,8.356,6.672,6.96
1696,0.797,35.799,31.943,30.824,24.162,8.356,6.713,6.96
1697,0.81,35.954,31.994,30.833,24.169,8.356,6.713,7.001
1698,0.813,36.022,31.998,30.833,24.166,8.356,6.713,7.042
1699,0.826,35.799,32.014,30.843,24.173,8.315,6.754,7.001
1700,0.81,35.887,31.939,30.814,24.162,8.192,6.631,6.877
1701,0.816,36.032,31.939,30.843,24.162,8.192,6.672,6.877
1702,0.82,36.09,31.975,30.814,24.162,8.192,6.631,6.877
1703,0.823,35.664,31.982,30.814,24.169,8.397,6.672,6.919
1704,0.826,35.819,31.939,30.843,24.173,8.356,6.631,6.837
1705,0.816,35.935,31.915,30.824,24.155,8.356,6.59,6.795
1706,0.813,36.012,31.963,30.814,24.169,8.479,6.631,6.877
1707,0.8,35.732,31.978,30.804,24.162,8.479,6.549,6.672
1708,0.81,35.906,31.978,30.833,24.169,8.684,6.713,6.877
1709,0.81,35.993,32.006,30.814,24.166,8.726,6.672,6.795
1710,0.807,36.032,31.99,30.795,24.162,8.808,6.631,6.713
1711,0.813,35.644,31.955,30.814,24.166,8.89,6.672,6.713
1712,0.816,35.79,31.939,30.804,24.155,8.849,6.549,6.672
1713,0.813,35.906,31.998,30.833,24.173,9.054,6.672,6.754
1714,0.826,35.925,31.986,30.804,24.169,9.177,6.672,6.754
1715,0.82,35.702,31.923,30.814,24.155,9.218,6.631,6.713
1716,0.826,35.838,31.888,30.804,24.162,9.342,6.631,6.713
1717,0.839,35.945,31.955,30.804,24.155,9.506,6.549,6.631
1718,0.839,35.78,31.943,30.824,24.169,9.957,6.713,6.713
1719,0.839,35.79,31.955,30.814,24.166,10.45,6.59,6.713
1720,0.839,35.896,32.018,30.785,24.159,10.779,6.59,6.631
1721,0.836,36.012,31.935,30.804,24.162,11.189,6.631,6.549
1722,0.836,35.548,31.923,30.795,24.159,11.518,6.549,6.549
1723,0.846,35.683,31.959,30.824,24.166,12.011,6.713,6.672
1724,0.846,35.809,32.002,30.804,24.166,12.339,6.672,6.549
1725,0.83,35.857,31.955,30.795,24.166,12.627,6.631,6.631
1726,0.83,35.635,31.876,30.804,24.169,12.956,6.631,6.508
1727,0.83,35.78,31.876,30.795,24.155,13.12,6.549,6.467
1728,0.843,35.925,31.971,30.882,24.176,13.325,6.713,6.672
1729,0.846,35.993,31.947,30.804,24.166,13.49,6.672,6.549
1730,0.836,35.606,31.986,30.814,24.159,13.448,6.549,6.549
1731,0.839,35.741,31.975,30.804,24.162,13.407,6.631,6.508
1732,0.843,35.867,31.939,30.795,24.152,13.325,6.467,6.385
1733,0.853,35.964,31.943,30.814,24.169,13.448,6.672,6.672
1734,0.853,35.741,31.975,30.804,24.162,13.284,6.672,6.59
1735,0.839,35.877,32.002,30.795,24.166,13.202,6.631,6.549
1736,0.856,36.003,31.978,30.804,24.162,13.038,6.631,6.549
1737,0.862,36.012,31.915,30.785,24.155,12.873,6.59,6.302
1738,0.869,35.635,31.892,30.804,24.176,12.832,6.795,6.59
1739,0.872,35.77,31.951,30.824,24.173,12.75,6.713,6.467
1740,0.876,35.867,31.947,30.804,24.173,12.627,6.795,6.549
1741,0.876,35.867,32.006,30.785,24.169,12.545,6.631,6.426
1742,0.869,35.702,31.907,30.775,24.162,12.298,6.672,6.467
1743,0.885,35.867,31.947,30.814,24.176,12.381,6.795,6.508
1744,0.879,35.954,31.967,30.785,24.166,12.257,6.713,6.385
1745,0.866,35.732,31.986,30.804,24.169,12.216,6.795,6.508
1746,0.872,35.683,32.01,30.785,24.162,11.97,6.713,6.343
1747,0.859,35.79,31.975,30.775,24.155,11.888,6.754,6.385
1748,0.879,35.916,31.963,30.804,24.169,11.806,6.877,6.549
1749,0.882,35.615,31.833,30.814,24.169,11.641,6.837,6.426
1750,0.869,35.751,31.919,30.804,24.173,11.6,6.837,6.385
1751,0.872,35.857,31.931,30.785,24.159,11.313,6.754,6.385
1752,0.879,35.925,31.971,30.785,24.159,11.231,6.754,6.385
1753,0.882,35.741,31.892,30.814,24.169,11.231,6.837,6.508
1754,0.885,35.896,31.943,30.804,24.166,10.984,6.795,6.426
1755,0.885,36.012,31.971,30.814,24.173,10.943,6.877,6.467
1756,0.889,36.09,31.975,30.785,24.162,10.738,6.795,6.343
1757,0.899,35.848,32.002,30.785,24.169,10.574,6.754,6.426
1758,0.918,36.042,31.986,30.795,24.176,10.574,6.837,6.508
1759,0.905,36.129,31.99,30.785,24.162,10.409,6.795,6.467
1760,0.925,36.216,31.907,30.843,24.18,10.368,6.837,6.467
1761,0.928,35.673,31.923,30.785,24.162,10.122,6.795,6.302
1762,0.918,35.78,31.971,30.785,24.162,10.081,6.795,6.426
1763,0.935,35.925,31.967,30.804,24.176,10.04,6.713,6.426
1764,0.931,35.983,31.892,30.804,24.169,9.876,6.754,6.343
1765,0.931,35.896,31.951,30.824,24.169,9.834,6.919,6.467
1766,0.925,35.993,31.947,30.785,24.162,9.588,6.631,6.262
1767,0.922,36.1,31.955,30.795,24.169,9.465,6.754,6.385
1768,0.931,36.148,31.986,30.824,24.169,9.506,6.795,6.426
1769,0.935,35.993,31.982,30.795,24.173,9.342,6.795,6.343
1770,0.938,36.148,31.978,30.804,24.18,9.382,6.837,6.467
1771,0.935,36.245,31.923,30.766,24.162,9.095,6.672,6.22
1772,0.931,36.196,31.955,30.804,24.169,9.095,6.754,6.302
1773,0.948,36.216,31.994,30.814,24.169,9.054,6.754,6.302
1774,0.945,36.322,31.967,30.804,24.166,8.849,6.713,6.302
1775,0.954,36.439,31.892,30.824,24.176,8.89,6.754,6.508
1776,0.951,36.129,31.919,30.795,24.169,8.644,6.631,6.262
1777,0.961,36.235,31.943,30.795,24.166,8.644,6.672,6.262
1778,0.987,36.381,31.963,30.804,24.176,8.644,6.713,6.302
1779,0.981,36.468,31.967,30.804,24.169,8.479,6.754,6.302
1780,0.991,36.574,32.034,30.804,24.176,8.52,6.795,6.508
1781,0.977,36.72,31.884,30.785,24.159,8.274,6.631,6.22
1782,0.974,36.836,31.923,30.804,24.166,8.274,6.672,6.302
1783,0.997,36.923,31.971,30.804,24.169,8.274,6.713,6.262
1784,0.997,36.526,32.018,30.775,24.166,8.15,6.795,6.302
1785,0.997,36.7,31.967,30.824,24.176,8.274,6.795,6.385
1786,0.987,36.787,31.9,30.775,24.162,8.027,6.631,6.22
1787,0.991,36.855,31.833,30.804,24.169,7.986,6.754,6.22
1788,0.997,36.797,31.939,30.814,24.173,7.986,6.795,6.343
1789,0.997,36.913,31.911,30.804,24.166,7.904,6.754,6.302
1790,1.007,37.049,32.002,30.824,24.176,8.027,6.877,6.385
1791,0.994,37.049,31.939,30.766,24.159,7.781,6.713,6.179
1792,1.004,36.884,31.951,30.785,24.169,7.781,6.754,6.262
1793,1.01,37.02,31.955,30.785,24.169,7.781,6.795,6.262
1794,1.007,37.117,31.975,30.795,24.162,7.822,6.754,6.22
1795,1.03,37.175,32.026,30.824,24.173,7.945,6.877,6.385
1796,1.017,37.175,31.967,30.775,24.166,7.617,6.672,6.179
1797,1.027,37.301,31.951,30.775,24.162,7.658,6.672,6.22
1798,1.043,37.417,31.892,30.795,24.176,7.74,6.754,6.262
1799,1.037,37.31,31.935,30.785,24.166,7.575,6.754,6.22
1800,1.05,37.204,31.939,30.824,24.18,7.781,6.837,6.385
1801,1.037,37.291,31.971,30.775,24.159,7.534,6.672,6.138
1802,1.04,37.407,31.872,30.795,24.173,7.534,6.672,6.22
1803,1.05,37.291,31.931,30.775,24.166,7.494,6.672,6.138
1804,1.037,37.407,31.955,30.775,24.166,7.575,6.754,6.262
1805,1.05,37.533,31.986,30.775,24.162,7.494,6.754,6.22
1806,1.037,37.582,31.978,30.766,24.162,7.411,6.631,6.179
1807,1.037,37.446,31.967,30.766,24.162,7.37,6.631,6.22
1808,1.023,37.591,31.951,30.766,24.159,7.288,6.59,6.179
1809,1.037,37.698,31.868,30.785,24.166,7.37,6.754,6.262
1810,1.05,37.795,31.959,30.766,24.176,7.452,6.672,6.22
1811,1.033,37.533,31.994,30.766,24.159,7.329,6.631,6.179
1812,1.043,37.688,31.955,30.766,24.159,7.37,6.672,6.138
1813,1.037,37.795,31.951,30.766,24.159,7.452,6.59,6.097
1814,1.037,37.872,31.927,30.785,24.176,7.699,6.713,6.262
1815,1.056,37.756,31.986,30.775,24.162,7.781,6.713,6.179
1816,1.046,37.833,31.955,30.746,24.155,7.863,6.631,6.138
1817,1.05,37.979,31.998,30.756,24.166,8.069,6.672,6.179
1818,1.056,38.017,31.955,30.737,24.162,8.109,6.59,6.138
1819,1.056,37.746,31.888,30.756,24.176,8.397,6.795,6.179
1820,1.06,37.892,31.963,30.756,24.169,8.52,6.713,6.22
1821,1.043,37.969,31.963,30.746,24.166,8.602,6.754,6.179
1822,1.053,37.988,31.978,30.746,24.159,8.767,6.713,6.138
1823,1.043,37.882,31.88,30.746,24.152,8.767,6.672,6.056
1824,1.046,38.027,31.935,30.766,24.169,8.931,6.837,6.179
1825,1.037,38.114,31.927,30.746,24.169,9.013,6.877,6.179
1826,1.027,38.085,31.975,30.746,24.162,8.972,6.754,6.179
1827,1.023,37.959,31.971,30.737,24.166,9.054,6.795,6.097
1828,1.02,38.076,31.986,30.737,24.159,8.89,6.795,6.015
1829,1.03,38.172,31.982,30.756,24.166,9.095,6.919,6.22
1830,1.0,37.833,31.907,30.766,24.166,9.013,6.837,6.138
1831,1.014,37.911,31.931,30.756,24.162,9.013,6.837,6.179
1832,1.017,38.046,31.975,30.746,24.162,8.972,6.837,6.138
1833,1.0,38.124,31.975,30.737,24.162,8.849,6.713,6.056
1834,1.007,37.969,31.896,30.775,24.173,8.972,6.919,6.179
1835,0.994,38.105,31.939,30.756,24.169,8.89,6.877,6.22
1836,0.991,38.211,31.907,30.756,24.169,8.808,6.919,6.22
1837,0.994,38.279,31.939,30.756,24.162,8.726,6.795,6.097
1838,0.987,37.795,31.982,30.727,24.152,8.602,6.795,6.056
1839,0.997,37.969,32.014,30.775,24.169,8.684,6.96,6.179
1840,0.987,38.066,31.967,30.766,24.176,8.52,6.837,6.179
1841,0.981,38.143,31.935,30.756,24.176,8.561,6.877,6.179
1842,0.974,37.95,31.947,30.737,24.166,8.397,6.754,6.056
1843,0.964,38.056,31.955,30.727,24.155,8.315,6.795,6.056
1844,0.984,38.211,31.943,30.756,24.176,8.438,6.919,6.179
1845,0.954,38.26,31.86,30.756,24.169,8.315,6.877,6.056
1846,0.948,37.959,31.927,30.756,24.169,8.315,6.919,6.179
1847,0.931,38.085,31.9,30.727,24.159,8.233,6.795,6.015
1848,0.922,38.182,31.923,30.737,24.162,8.109,6.837,6.015
1849,0.931,38.221,31.935,30.766,24.169,8.109,6.877,6.097
1850,0.912,37.95,31.986,30.746,24.169,8.109,6.837,6.138
1851,0.912,38.076,31.963,30.814,24.166,8.027,6.919,6.138
1852,0.905,38.153,31.923,30.727,24.162,8.027,6.795,6.015
1853,0.892,38.201,31.959,30.727,24.159,7.945,6.795,6.097
1854,0.899,38.037,31.986,30.775,24.169,7.986,6.837,6.22
1855,0.892,38.153,31.931,30.756,24.169,7.781,6.837,6.097
1856,0.899,38.25,31.904,30.795,24.169,7.904,6.919,6.179
1857,0.899,37.785,31.919,30.804,24.152,7.699,6.713,6.015
1858,0.882,37.804,31.907,30.737,24.155,7.699,6.754,6.056
1859,0.885,37.988,31.943,30.766,24.169,7.699,6.795,6.138
1860,0.879,38.046,31.994,30.756,24.162,7.699,6.754,6.138
1861,0.885,37.824,31.919,30.775,24.176,7.74,6.96,6.179
1862,0.879,37.95,31.927,30.746,24.159,7.534,6.713,5.974
1863,0.866,38.046,31.931,30.737,24.169,7.575,6.754,6.097
1864,0.872,38.153,32.002,30.756,24.173,7.575,6.877,6.056
1865,0.862,37.582,31.971,30.756,24.162,7.534,6.795,6.056
1866,0.859,37.766,31.923,30.766,24.176,7.658,6.919,6.179
1867,0.833,37.824,31.868,30.746,24.162,7.37,6.713,6.015
1868,0.816,37.921,31.86,30.746,24.169,7.494,6.795,6.015
1869,0.833,37.843,31.923,30.775,24.169,7.494,6.837,6.056
1870,0.81,37.969,31.963,30.756,24.166,7.411,6.754,6.056
1871,0.816,38.085,31.967,30.766,24.176,7.575,6.96,6.22
1872,0.83,38.114,31.864,30.746,24.162,7.411,6.713,6.056
1873,0.823,37.553,31.907,30.756,24.166,7.494,6.795,6.097
1874,0.826,37.688,31.943,30.766,24.169,7.494,6.877,6.179
1875,0.826,37.795,31.982,30.766,24.162,7.452,6.877,6.138
1876,0.826,37.833,31.998,30.775,24.176,7.699,6.96,6.302
1877,0.82,37.649,31.947,30.737,24.159,7.494,6.754,6.056
1878,0.82,37.775,31.923,30.756,24.166,7.617,6.795,6.097
1879,0.816,37.892,31.833,30.775,24.169,7.617,6.837,6.179
1880,0.813,38.017,31.939,30.756,24.166,7.658,6.795,6.22
1881,0.813,37.649,31.994,30.785,24.176,7.863,6.96,6.302
1882,0.803,37.737,31.927,30.746,24.159,7.658,6.754,6.097
1883,0.807,37.833,31.943,30.756,24.166,7.822,6.754,6.138
1884,0.816,37.572,31.959,30.746,24.173,7.822,6.795,6.262
1885,0.803,37.649,31.971,30.756,24.169,7.822,6.795,6.179
1886,0.797,37.785,31.99,30.804,24.183,7.986,6.919,6.302
1887,0.777,37.833,31.998,30.737,24.162,7.781,6.795,6.138
1888,0.79,37.775,31.975,30.756,24.166,7.822,6.713,6.22
1889,0.79,37.93,31.911,30.746,24.169,7.945,6.837,6.22
1890,0.784,38.046,31.959,30.756,24.166,7.945,6.795,6.179
1891,0.787,38.153,31.951,30.766,24.176,8.027,6.919,6.343
1892,0.78,37.262,31.955,30.727,24.155,7.781,6.672,6.138
1893,0.774,37.417,31.88,30.746,24.166,7.822,6.713,6.22
1894,0.787,37.562,31.939,30.746,24.169,7.863,6.795,6.302
1895,0.777,37.611,31.931,30.766,24.162,7.781,6.672,6.302
1896,0.784,37.63,31.994,30.785,24.18,7.904,6.837,6.385
1897,0.774,37.717,31.978,30.737,24.162,7.699,6.631,6.22
1898,0.78,37.824,31.994,30.746,24.162,7.781,6.672,6.302
1899,0.787,37.882,31.982,30.737,24.166,7.699,6.754,6.262
1900,0.787,37.281,31.955,30.746,24.166,7.699,6.754,6.343
1901,0.803,37.465,31.955,30.766,24.183,7.822,6.754,6.343
1902,0.78,37.543,31.959,30.727,24.166,7.617,6.631,6.179
1903,0.793,37.543,31.955,30.737,24.166,7.617,6.713,6.22
1904,0.793,37.475,31.896,30.756,24.159,7.534,6.59,6.138
1905,0.784,37.582,31.931,30.737,24.162,7.658,6.837,6.262
1906,0.787,37.717,31.923,30.737,24.169,7.575,6.754,6.302
1907,0.764,37.969,31.931,30.727,24.162,7.494,6.672,6.262
1908,0.774,37.339,31.99,30.737,24.169,7.494,6.631,6.22
1909,0.777,37.456,32.006,30.737,24.162,7.494,6.631,6.179
1910,0.777,37.572,31.943,30.737,24.173,7.575,6.795,6.302
1911,0.774,37.301,31.915,30.746,24.166,7.617,6.713,6.22
1912,0.767,37.291,31.927,30.708,24.162,7.617,6.713,6.22
1913,0.774,37.436,31.963,30.727,24.162,7.658,6.713,6.22
1914,0.77,37.523,31.904,30.698,24.159,7.617,6.713,6.097
1915,0.774,37.291,31.915,30.795,24.169,7.74,6.713,6.262
1916,0.777,37.436,31.9,30.746,24.166,7.74,6.754,6.262
1917,0.764,37.543,31.892,30.708,24.162,7.699,6.672,6.179
1918,0.767,37.62,31.923,30.717,24.162,7.74,6.713,6.22
1919,0.777,37.214,31.931,30.727,24.162,7.74,6.631,6.097
1920,0.777,37.368,31.978,30.737,24.169,7.945,6.795,6.262
1921,0.777,37.456,31.939,30.727,24.166,7.863,6.754,6.22
1922,0.78,37.523,31.911,30.708,24.166,7.945,6.672,6.179
1923,0.787,37.417,31.967,30.727,24.162,7.863,6.631,6.138
1924,0.774,37.562,31.959,30.708,24.159,7.945,6.672,6.138
1925,0.78,37.678,31.919,30.737,24.166,8.027,6.713,6.262
1926,0.774,37.746,31.915,30.737,24.169,8.069,6.672,6.262
1927,0.754,37.291,31.907,30.698,24.166,8.069,6.59,6.138
1928,0.761,37.427,31.907,30.727,24.169,8.109,6.713,6.138
1929,0.767,37.562,31.911,30.727,24.162,8.027,6.59,6.097
1930,0.767,37.572,31.986,30.717,24.162,8.192,6.754,6.179
1931,0.767,37.301,31.904,30.727,24.169,8.274,6.713,6.179
1932,0.767,37.417,31.935,30.717,24.155,8.192,6.549,6.179
1933,0.767,37.514,31.947,30.727,24.169,8.274,6.631,6.22
1934,0.767,37.737,31.978,30.698,24.162,8.274,6.59,6.138
1935,0.777,37.349,31.959,30.737,24.169,8.397,6.672,6.262
1936,0.78,37.494,31.935,30.727,24.155,8.438,6.672,6.22
1937,0.78,37.562,31.876,30.717,24.162,8.356,6.59,6.179
1938,0.78,37.31,31.876,30.746,24.162,8.397,6.631,6.138
1939,0.777,37.291,31.9,30.698,24.159,8.356,6.467,6.056
1940,0.79,37.427,31.959,30.727,24.173,8.52,6.631,6.262
1941,0.793,37.523,31.959,30.727,24.162,8.479,6.631,6.22
1942,0.77,37.136,31.923,30.708,24.159,8.561,6.631,6.262
1943,0.78,37.291,31.923,30.698,24.166,8.438,6.631,6.056
1944,0.784,37.388,31.967,30.688,24.148,8.315,6.508,6.056
1945,0.793,37.504,32.006,30.727,24.169,8.52,6.672,6.22
1946,0.78,37.165,31.955,30.708,24.169,8.561,6.672,6.179
1947,0.767,37.291,31.911,30.717,24.162,8.52,6.672,6.138
1948,0.774,37.417,31.864,30.708,24.162,8.602,6.672,6.138
1949,0.761,37.485,31.923,30.678,24.155,8.684,6.549,6.097
1950,0.774,37.155,31.939,30.708,24.169,8.931,6.754,6.22
1951,0.767,37.291,31.963,30.708,24.169,9.259,6.713,6.179
1952,0.757,37.378,31.904,30.708,24.169,9.711,6.795,6.179
1953,0.767,37.446,31.939,30.708,24.159,10.081,6.631,6.179
1954,0.767,37.252,31.911,30.688,24.162,10.532,6.672,6.22
1955,0.78,37.427,31.982,30.727,24.173,11.108,6.837,6.22
1956,0.787,37.514,31.998,30.708,24.162,11.559,6.713,6.22
1957,0.793,37.553,31.994,30.717,24.173,12.011,6.837,6.302
1958,0.787,37.31,31.927,30.678,24.166,12.257,6.631,6.138
1959,0.787,37.446,31.872,30.717,24.166,12.627,6.672,6.097
1960,0.8,37.582,31.935,30.708,24.173,12.996,6.713,6.22
1961,0.784,37.572,31.943,30.708,24.169,13.243,6.754,6.22
1962,0.797,37.32,31.947,30.737,24.176,13.531,6.837,6.302
1963,0.777,37.398,31.892,30.688,24.166,13.448,6.672,6.097
1964,0.79,37.523,31.927,30.688,24.162,13.654,6.754,6.056
1965,0.79,37.33,31.935,30.698,24.169,13.695,6.795,6.138
1966,0.784,37.31,31.978,30.708,24.166,13.695,6.754,6.179
1967,0.787,37.485,32.01,30.717,24.176,13.818,6.877,6.262
1968,0.774,37.514,31.978,30.688,24.162,13.531,6.672,6.056
1969,0.774,37.63,31.955,30.698,24.169,13.49,6.672,6.138
1970,0.77,37.795,31.951,30.708,24.169,13.407,6.713,6.138
1971,0.78,37.921,31.943,30.698,24.173,13.325,6.672,6.22
1972,0.797,38.027,31.998,30.727,24.18,13.325,6.713,6.22
1973,0.78,36.962,31.915,30.688,24.162,13.038,6.631,6.138
1974,0.784,37.097,31.915,30.737,24.166,12.996,6.672,6.097
1975,0.787,37.223,31.915,30.717,24.166,12.915,6.631,6.138
1976,0.793,37.301,31.939,30.708,24.166,12.873,6.631,6.179
1977,0.807,37.436,31.947,30.727,24.176,12.75,6.713,6.097
1978,0.793,37.523,31.955,30.688,24.162,12.545,6.631,6.015
1979,0.8,37.659,31.963,30.669,24.162,12.463,6.631,6.097
1980,0.797,37.717,31.896,30.708,24.166,12.298,6.672,6.097
1981,0.793,37.223,31.923,30.698,24.162,12.216,6.713,6.138
1982,0.803,37.378,31.963,30.727,24.176,12.052,6.795,6.138
1983,0.8,37.446,31.963,30.669,24.162,11.806,6.672,6.056
1984,0.79,37.494,31.876,30.698,24.166,11.723,6.672,6.056
1985,0.787,37.368,31.896,30.688,24.155,11.477,6.713,6.056
1986,0.784,37.494,31.9,30.698,24.162,11.477,6.877,6.138
1987,0.777,37.63,31.939,30.708,24.169,11.231,6.837,6.179
1988,0.77,37.582,31.943,30.678,24.159,11.149,6.795,6.138
1989,0.77,37.272,31.978,30.688,24.169,10.984,6.877,6.138
1990,0.774,37.398,31.959,30.678,24.162,10.861,6.877,6.015
1991,0.79,37.494,31.943,30.698,24.173,10.902,6.919,6.22
1992,0.8,37.32,31.915,30.688,24.169,10.779,6.877,6.262
1993,0.797,37.281,31.975,30.678,24.159,10.656,6.795,6.138
1994,0.793,37.407,31.955,30.688,24.162,10.574,6.837,6.179
1995,0.8,37.475,31.856,30.669,24.162,10.409,6.754,6.015
1996,0.803,37.243,31.911,30.688,24.166,10.45,6.96,6.179
1997,0.803,37.368,31.896,30.698,24.173,10.245,6.837,6.138
1998,0.8,37.465,31.939,30.688,24.166,10.245,6.877,6.22
1999,0.797,37.553,31.947,30.678,24.166,10.081,6.837,6.179
2000,0.797,37.146,31.994,30.659,24.155,9.957,6.754,6.138
2001,0.803,37.33,31.884,30.708,24.173,9.999,6.96,6.343
2002,0.8,37.456,31.939,30.708,24.169,9.876,6.919,6.302
2003,0.807,37.543,31.939,30.708,24.176,9.834,7.001,6.302
2004,0.8,37.097,31.963,30.678,24.162,9.588,6.754,6.138
2005,0.793,37.262,31.923,30.688,24.166,9.67,6.837,6.138
2006,0.8,37.407,31.88,30.688,24.173,9.506,6.919,6.302
2007,0.784,37.465,31.844,30.708,24.166,9.465,6.795,6.22
2008,0.793,37.262,31.907,30.727,24.18,9.382,7.042,6.426
2009,0.78,37.378,31.911,30.688,24.155,9.177,6.754,6.22
2010,0.787,37.494,31.967,30.678,24.166,9.095,6.837,6.179
2011,0.797,37.523,31.939,30.717,24.169,9.136,6.754,6.138
2012,0.78,37.214,31.923,30.708,24.166,8.972,6.837,6.22
2013,0.797,37.398,31.939,30.708,24.173,9.013,6.877,6.302
2014,0.78,37.446,31.963,30.669,24.159,8.767,6.713,6.179
2015,0.79,37.465,31.967,30.688,24.159,8.808,6.754,6.179
2016,0.8,37.117,31.915,30.698,24.162,8.726,6.713,6.097
2017,0.8,37.233,31.86,30.698,24.162,8.684,6.837,6.262
2018,0.81,37.339,31.833,30.727,24.173,8.602,6.837,6.138
2019,0.79,37.136,31.864,30.669,24.169,8.479,6.713,6.179
2020,0.797,37.059,31.907,30.669,24.166,8.561,6.795,6.138
2021,0.797,37.184,31.931,30.688,24.162,8.52,6.754,6.056
2022,0.78,37.31,31.931,30.698,24.162,8.602,6.795,6.262
2023,0.8,36.962,31.9,30.678,24.162,8.602,6.754,6.179
2024,0.793,37.039,31.931,30.659,24.155,8.602,6.795,6.097
2025,0.793,37.194,31.971,30.678,24.159,8.684,6.713,6.097
2026,0.79,37.272,31.943,30.669,24.162,8.644,6.672,6.015
2027,0.784,36.952,31.951,30.698,24.169,8.849,6.713,6.179
2028,0.784,37.107,31.9,30.688,24.166,8.849,6.754,6.138
2029,0.787,37.214,31.821,30.698,24.162,8.89,6.713,6.179
2030,0.787,37.301,31.892,30.678,24.166,8.931,6.713,6.097
2031,0.784,36.981,31.943,30.659,24.159,8.931,6.672,6.056
2032,0.787,37.155,31.907,30.708,24.169,9.054,6.795,6.138
2033,0.784,37.291,31.923,30.688,24.159,9.095,6.877,6.179
2034,0.78,37.32,31.907,30.678,24.166,9.095,6.754,6.179
2035,0.784,36.952,31.939,30.669,24.166,8.972,6.837,6.138
2036,0.774,37.068,31.939,30.659,24.162,9.013,6.795,6.097
2037,0.784,37.223,31.986,30.698,24.166,9.054,6.877,6.179
2038,0.774,37.252,31.959,30.678,24.169,9.095,6.877,6.138
2039,0.777,36.865,31.9,30.688,24.176,9.095,6.919,6.179
2040,0.777,37.02,31.915,30.659,24.169,8.89,6.795,6.097
2041,0.774,37.117,31.884,30.659,24.162,8.931,6.877,6.015
2042,0.793,37.165,31.978,30.688,24.162,9.013,6.919,6.179
2043,0.797,36.894,31.856,30.688,24.162,8.849,6.919,6.056
2044,0.797,37.039,31.927,30.708,24.173,8.931,6.96,6.22
2045,0.79,37.136,31.892,30.649,24.166,8.767,6.795,6.056
2046,0.787,37.02,31.951,30.659,24.166,8.726,6.837,6.138
2047,0.79,36.923,31.955,30.678,24.162,8.849,6.877,6.179
2048,0.78,37.039,31.975,30.659,24.166,8.767,6.919,6.138
2049,0.79,37.155,31.967,30.708,24.18,8.849,6.919,6.262
2050,0.777,36.913,31.88,30.649,24.166,8.767,6.795,6.015
2051,0.784,37.049,31.896,30.678,24.162,8.808,6.837,6.138
2052,0.787,37.175,31.927,30.669,24.176,8.849,6.837,6.097
2053,0.767,37.233,31.967,30.669,24.166,8.767,6.837,6.097
2054,0.784,36.749,31.892,30.708,24.169,8.89,7.001,6.22
2055,0.777,36.855,31.907,30.659,24.162,8.684,6.795,6.056
2056,0.784,37.0,31.911,30.669,24.169,8.849,6.877,6.097
2057,0.79,37.059,31.959,30.678,24.169,8.767,6.877,6.097
2058,0.78,36.749,31.927,30.669,24.169,8.726,6.837,6.138
2059,0.793,36.942,31.955,30.717,24.18,8.808,6.877,6.097
2060,0.787,37.01,31.923,30.659,24.159,8.644,6.713,5.974
2061,0.79,37.107,31.927,30.669,24.162,8.644,6.754,6.015
2062,0.787,36.816,31.88,30.678,24.173,8.644,6.795,6.056
2063,0.787,36.971,31.963,30.669,24.169,8.602,6.795,6.097
2064,0.8,37.117,31.943,30.708,24.18,8.684,6.877,6.097
2065,0.79,37.107,31.872,30.649,24.169,8.397,6.713,5.933
2066,0.787,36.807,31.876,30.727,24.162,8.479,6.754,5.974
2067,0.777,36.981,31.927,30.678,24.162,8.438,6.795,6.056
2068,0.774,37.078,31.931,30.669,24.166,8.479,6.754,6.056
2069,0.774,37.146,31.939,30.669,24.169,8.438,6.754,6.056
2070,0.757,36.826,31.986,30.63,24.166,8.438,6.754,6.015
2071,0.77,36.991,31.856,30.659,24.166,8.479,6.754,6.056
2072,0.77,37.117,31.907,30.649,24.162,8.52,6.713,5.974
2073,0.77,37.068,31.911,30.649,24.169,8.684,6.713,6.138
2074,0.787,36.904,31.963,30.688,24.162,8.767,6.795,6.138
2075,0.767,37.0,31.907,30.64,24.162,8.89,6.713,6.015
2076,0.774,37.107,31.9,30.649,24.162,8.931,6.754,6.015
2077,0.777,36.942,31.844,30.649,24.166,8.972,6.631,5.974
2078,0.793,37.049,31.892,30.688,24.173,9.177,6.713,6.097
2079,0.803,37.175,31.896,30.649,24.166,9.342,6.754,6.015
2080,0.787,37.223,31.923,30.63,24.159,9.301,6.672,6.015
2081,0.787,36.661,31.919,30.659,24.162,9.424,6.631,6.015
2082,0.793,36.807,31.9,30.649,24.162,9.465,6.631,5.974
2083,0.8,36.942,31.911,30.659,24.166,9.67,6.795,6.138
2084,0.787,37.02,31.923,30.649,24.166,9.67,6.713,6.097
2085,0.77,36.865,31.971,30.63,24.166,9.629,6.672,6.097
2086,0.77,37.029,31.9,30.63,24.162,9.629,6.672,6.097
2087,0.764,37.136,31.884,30.649,24.162,9.588,6.549,6.056
2088,0.77,37.223,31.852,30.669,24.166,9.711,6.713,6.179
2089,0.767,36.836,31.884,30.659,24.162,9.711,6.713,6.138
2090,0.751,36.971,31.872,30.64,24.166,9.629,6.631,6.179
2091,0.757,37.097,31.947,30.649,24.159,9.588,6.631,6.179
2092,0.77,37.136,31.864,30.62,24.159,9.424,6.508,6.097
2093,0.774,36.865,31.892,30.649,24.169,9.506,6.672,6.343
2094,0.774,37.0,31.915,30.649,24.166,9.465,6.631,6.22
2095,0.761,37.117,31.959,30.649,24.159,9.342,6.631,6.262
2096,0.77,37.136,31.955,30.64,24.166,9.259,6.672,6.179
2097,0.77,36.855,31.947,30.63,24.152,9.095,6.467,6.097
2098,0.777,37.0,31.939,30.669,24.169,9.301,6.672,6.343
2099,0.78,37.107,31.829,30.649,24.166,9.177,6.672,6.302
2100,0.78,37.136,31.9,30.649,24.166,9.177,6.631,6.138
2101,0.784,36.894,31.923,30.659,24.162,9.054,6.631,6.22
2102,0.774,37.0,31.911,30.63,24.159,9.013,6.631,6.22
2103,0.793,37.136,31.943,30.717,24.166,9.095,6.672,6.343
2104,0.78,36.874,31.911,30.649,24.169,9.013,6.631,6.262
2105,0.78,36.952,31.939,30.659,24.176,9.013,6.672,6.385
2106,0.77,37.078,31.963,30.64,24.166,8.849,6.508,6.179
2107,0.754,37.146,31.975,30.649,24.159,8.931,6.631,6.22
2108,0.764,36.874,31.939,30.659,24.173,8.931,6.631,6.262
2109,0.757,36.991,31.872,30.649,24.169,8.849,6.59,6.262
2110,0.757,37.146,31.896,30.678,24.18,9.013,6.713,6.385
2111,0.744,37.214,31.907,30.649,24.155,8.726,6.508,6.138
2112,0.744,36.807,31.963,30.649,24.169,8.684,6.631,6.22
2113,0.754,36.971,31.88,30.659,24.169,8.767,6.631,6.262
2114,0.767,37.078,31.911,30.669,24.166,8.767,6.549,6.262
2115,0.787,37.175,31.884,30.698,24.169,8.808,6.754,6.385
2116,0.784,36.991,31.955,30.649,24.162,8.644,6.549,6.22
2117,0.79,37.136,31.971,30.659,24.169,8.684,6.508,6.22
2118,0.79,37.272,31.978,30.669,24.173,8.684,6.631,6.262
2119,0.777,37.291,31.947,30.649,24.166,8.684,6.59,6.302
2120,0.79,36.826,31.915,30.708,24.176,8.808,6.672,6.302
2121,0.777,36.904,31.872,30.63,24.155,8.602,6.467,6.179
2122,0.784,37.01,31.955,30.649,24.166,8.684,6.59,6.22
2123,0.78,37.078,31.939,30.659,24.169,8.767,6.59,6.22
2124,0.774,37.02,31.848,30.659,24.169,8.767,6.549,6.262
2125,0.774,37.155,31.9,30.678,24.18,8.849,6.672,6.385
2126,0.757,37.243,31.919,30.611,24.162,8.726,6.549,6.179
2127,0.761,37.378,31.955,30.64,24.169,8.849,6.59,6.262
2128,0.767,36.933,31.935,30.649,24.176,8.808,6.59,6.302
2129,0.774,37.059,31.963,30.659,24.176,8.808,6.549,6.262
2130,0.78,37.194,31.904,30.669,24.18,8.89,6.631,6.302
2131,0.754,36.874,31.907,30.63,24.155,8.726,6.508,6.22
