time,ecg,bvp,gsr,rsp,skt,emg_zygo,emg_coru,emg_trap
0,0.892,36.128,9.028,32.024,22.48,6.877,6.178,9.382
1,0.882,35.726,8.962,32.014,22.476,6.796,6.017,9.301
2,0.892,35.885,8.989,32.043,22.473,6.877,6.015,9.301
3,0.912,36.021,9.079,32.053,22.483,6.959,6.178,9.341
4,0.899,36.022,9.014,31.986,22.469,6.634,5.935,9.057
5,0.902,35.802,9.013,32.052,22.479,6.916,6.136,9.339
6,0.892,35.934,8.978,32.024,22.476,6.796,6.098,9.26
7,0.899,36.031,9.04,32.043,22.473,6.795,6.097,9.259
8,0.899,36.061,8.998,32.015,22.469,6.755,6.056,9.259
9,0.886,35.773,9.017,32.053,22.476,6.795,6.097,9.259
10,0.872,35.905,8.97,32.043,22.466,6.714,6.097,9.178
11,0.882,36.021,9.016,32.043,22.476,6.713,6.138,9.299
12,0.879,35.85,9.025,32.034,22.469,6.632,6.057,9.219
13,0.882,35.752,9.025,32.043,22.476,6.753,6.137,9.381
14,0.863,35.856,9.056,32.015,22.473,6.673,6.098,9.261
15,0.879,35.982,8.974,32.062,22.479,6.672,6.138,9.259
16,0.895,35.763,9.044,32.101,22.49,6.753,6.179,9.422
17,0.882,35.857,9.048,32.025,22.462,6.47,5.976,9.098
18,0.902,35.982,9.033,32.062,22.483,6.629,6.137,9.298
19,0.908,36.07,9.041,32.043,22.48,6.631,6.057,9.301
20,0.912,35.649,9.009,32.062,22.473,6.59,6.137,9.341
21,0.905,35.779,8.982,32.072,22.473,6.631,6.057,9.382
22,0.912,35.924,8.962,32.063,22.469,6.59,6.097,9.342
23,0.918,35.983,9.055,32.063,22.466,6.549,6.097,9.26
24,0.912,35.734,8.99,32.072,22.476,6.671,6.138,9.381
25,0.922,35.856,9.009,32.072,22.469,6.509,6.016,9.261
26,0.918,36.001,9.001,32.082,22.483,6.711,6.218,9.381
27,0.896,36.06,9.017,32.072,22.473,6.632,6.139,9.261
28,0.908,35.869,9.064,32.063,22.476,6.712,6.057,9.341
29,0.912,36.03,9.01,32.12,22.49,6.835,6.178,9.423
30,0.882,36.089,9.009,32.063,22.469,6.674,6.017,9.261
31,0.898,36.167,8.986,32.091,22.476,6.875,6.137,9.3
32,0.899,35.822,9.013,32.082,22.473,6.877,6.098,9.301
33,0.886,35.943,8.962,32.082,22.479,6.796,6.056,9.341
34,0.882,36.069,9.016,32.092,22.473,6.877,6.097,9.382
35,0.885,36.099,8.97,32.101,22.473,6.918,6.097,9.342
36,0.892,35.879,8.934,32.092,22.476,6.796,6.056,9.301
37,0.912,36.011,8.969,32.101,22.48,6.958,6.219,9.341
38,0.908,36.089,8.993,32.092,22.476,6.878,6.058,9.219
39,0.908,36.243,9.032,32.12,22.48,7.0,6.097,9.34
40,0.905,35.948,8.959,32.082,22.469,6.879,6.016,9.26
41,0.921,36.079,9.001,32.12,22.473,7.04,6.056,9.341
42,0.918,36.205,9.032,32.13,22.483,7.082,6.178,9.464
43,0.912,35.976,9.017,32.083,22.466,6.839,5.976,9.221
44,0.944,36.089,9.068,32.13,22.486,7.08,6.177,9.422
45,0.932,36.186,8.9,32.102,22.473,7.002,6.017,9.261
46,0.905,36.273,9.024,32.111,22.473,7.001,6.137,9.3
47,0.899,35.938,8.947,32.101,22.479,7.041,6.057,9.301
48,0.899,36.079,9.055,32.121,22.473,7.042,6.097,9.301
49,0.892,36.176,9.025,32.121,22.473,7.042,6.056,9.301
50,0.905,36.302,9.025,32.121,22.476,7.082,6.097,9.341
51,0.899,36.188,9.017,32.102,22.476,6.961,6.056,9.26
52,0.892,36.359,8.951,32.13,22.48,7.122,6.219,9.341
53,0.873,36.447,9.032,32.111,22.476,7.083,6.058,9.26
54,0.892,36.535,9.017,32.14,22.476,7.042,6.056,9.341
55,0.886,36.152,9.029,32.169,22.483,7.123,6.178,9.423
56,0.892,36.254,8.97,32.102,22.473,6.961,6.057,9.139
57,0.918,36.408,8.985,32.159,22.49,7.244,6.178,9.38
58,0.899,36.419,9.036,32.121,22.469,7.044,6.017,9.301
59,0.925,36.343,8.974,32.13,22.476,7.042,6.096,9.341
60,0.925,36.486,9.075,32.14,22.469,7.042,6.138,9.382
61,0.912,36.573,8.959,32.15,22.479,7.082,6.179,9.342
62,0.918,36.613,9.001,32.14,22.469,7.123,6.139,9.301
63,0.944,36.498,9.005,32.15,22.479,7.165,6.138,9.423
64,0.938,36.612,9.032,32.14,22.466,7.002,6.098,9.302
65,0.928,36.738,8.97,32.159,22.483,7.123,6.178,9.341
66,0.922,36.921,8.938,32.131,22.469,7.083,6.057,9.26
67,0.931,36.559,9.004,32.169,22.476,7.123,6.178,9.422
68,0.905,36.67,9.017,32.169,22.48,7.205,6.179,9.424
69,0.908,36.738,9.009,32.15,22.466,7.003,6.057,9.383
70,0.931,36.681,8.997,32.188,22.483,7.204,6.3,9.586
71,0.899,36.652,8.989,32.16,22.473,7.125,6.099,9.507
72,0.905,36.815,8.966,32.159,22.483,7.124,6.138,9.546
73,0.908,36.884,9.052,32.159,22.48,7.124,6.138,9.588
74,0.908,36.721,8.998,32.169,22.476,7.165,6.138,9.629
75,0.908,36.844,8.989,32.207,22.473,7.124,6.098,9.548
76,0.925,36.98,8.997,32.179,22.476,7.165,6.138,9.628
77,0.925,37.039,9.001,32.15,22.473,7.084,6.057,9.507
78,0.938,36.79,9.087,32.188,22.479,7.205,6.219,9.587
79,0.941,36.893,9.018,32.179,22.473,7.125,6.098,9.507
80,0.951,37.028,9.079,32.188,22.483,7.124,6.097,9.587
81,0.961,37.116,8.916,32.227,22.49,7.327,6.26,9.71
82,0.948,36.695,8.981,32.16,22.462,7.085,6.058,9.427
83,0.977,36.882,9.067,32.188,22.483,7.205,6.178,9.505
84,0.968,36.961,9.006,32.179,22.469,7.165,6.179,9.546
85,0.971,37.029,9.025,32.188,22.483,7.165,6.098,9.588
86,0.958,36.943,8.951,32.188,22.473,7.124,6.138,9.547
87,0.951,37.086,9.036,32.198,22.473,7.205,6.219,9.547
88,0.948,37.193,9.025,32.179,22.473,7.125,6.139,9.506
89,0.925,37.242,9.033,32.208,22.473,7.205,6.219,9.668
90,0.922,37.022,9.06,32.189,22.469,7.084,6.058,9.548
91,0.928,37.183,8.967,32.208,22.479,7.164,6.178,9.628
92,0.922,37.29,9.001,32.198,22.469,7.084,6.139,9.629
93,0.918,37.31,8.978,32.217,22.476,7.123,6.138,9.629
94,0.935,37.071,9.032,32.237,22.48,7.205,6.219,9.751
95,0.922,37.174,8.986,32.246,22.459,6.962,6.098,9.508
96,0.948,37.328,9.024,32.247,22.483,7.204,6.26,9.628
97,0.935,37.224,9.025,32.227,22.476,7.043,6.099,9.507
98,0.938,37.194,9.037,32.208,22.473,7.001,6.178,9.546
99,0.958,37.328,9.048,32.208,22.469,6.96,6.179,9.547
100,0.948,37.416,9.009,32.208,22.479,7.0,6.179,9.547
101,0.951,37.235,9.048,32.275,22.473,7.001,6.179,9.506
102,0.951,37.367,8.99,32.218,22.479,7.001,6.179,9.506
103,0.945,37.464,9.005,32.208,22.473,6.919,6.139,9.343
104,0.964,37.561,9.001,32.246,22.476,6.959,6.219,9.504
105,0.958,37.112,8.966,32.208,22.473,6.878,6.139,9.343
106,0.945,37.28,9.016,32.227,22.479,6.918,6.138,9.464
107,0.941,37.387,9.04,32.237,22.48,6.959,6.219,9.424
108,0.932,37.426,9.076,32.218,22.473,6.797,6.18,9.302
109,0.928,37.292,9.072,32.275,22.49,6.999,6.301,9.504
110,0.899,37.368,9.045,32.199,22.469,6.838,6.14,9.262
111,0.905,37.503,8.963,32.246,22.476,6.877,6.26,9.341
112,0.902,37.562,8.938,32.237,22.476,6.755,6.221,9.382
113,0.899,37.179,9.047,32.246,22.476,6.795,6.22,9.342
114,0.899,37.309,8.986,32.227,22.476,6.714,6.18,9.301
115,0.889,37.454,8.989,32.256,22.476,6.713,6.261,9.301
116,0.879,37.475,8.931,32.247,22.469,6.713,6.18,9.138
117,0.895,37.322,9.032,32.247,22.476,6.835,6.261,9.217
118,0.902,37.406,9.068,32.237,22.469,6.674,6.221,9.137
119,0.928,37.57,9.002,32.275,22.483,6.875,6.22,9.217
120,0.922,37.581,9.091,32.266,22.473,6.877,6.18,9.259
121,0.905,37.447,8.994,32.275,22.469,6.877,6.139,9.056
122,0.908,37.599,9.013,32.295,22.483,7.121,6.382,9.298
123,0.925,37.611,8.986,32.237,22.466,7.002,6.141,8.975
124,0.918,37.639,9.017,32.266,22.476,7.285,6.179,9.053
125,0.905,37.333,9.013,32.266,22.476,7.329,6.139,9.054
126,0.899,37.474,8.97,32.266,22.473,7.41,6.219,9.095
127,0.889,37.552,9.04,32.275,22.483,7.411,6.139,9.054
128,0.892,37.361,9.002,32.276,22.476,7.615,6.138,9.135
129,0.866,37.416,9.029,32.276,22.469,7.617,6.179,8.974
130,0.885,37.561,9.037,32.285,22.479,7.698,6.261,9.135
131,0.866,37.62,8.966,32.276,22.466,7.618,6.058,9.014
132,0.876,37.313,9.009,32.285,22.479,7.739,6.137,9.257
133,0.866,37.406,9.044,32.276,22.473,7.699,6.098,9.137
134,0.872,37.522,9.045,32.304,22.476,7.74,6.178,9.136
135,0.869,37.629,8.998,32.324,22.49,7.862,6.261,9.299
136,0.872,37.179,8.978,32.266,22.462,7.578,6.058,9.138
137,0.892,37.357,9.028,32.304,22.483,7.779,6.178,9.258
138,0.876,37.445,9.04,32.314,22.469,7.781,6.179,9.259
139,0.879,37.542,9.025,32.286,22.476,7.7,6.179,9.3
140,0.879,37.332,9.033,32.314,22.473,7.658,6.139,9.301
141,0.879,37.474,9.072,32.314,22.476,7.78,6.179,9.341
142,0.879,37.571,8.936,32.305,22.48,7.618,6.179,9.26
143,0.892,37.62,9.079,32.295,22.476,7.657,6.22,9.341
144,0.882,37.275,8.994,32.285,22.469,7.536,6.098,9.26
145,0.889,37.454,9.021,32.324,22.486,7.657,6.219,9.341
146,0.866,37.523,9.052,32.305,22.473,7.536,6.098,9.301
147,0.856,37.562,9.021,32.324,22.476,7.494,6.178,9.26
148,0.875,37.351,9.079,32.362,22.486,7.616,6.301,9.503
149,0.846,37.435,8.963,32.286,22.462,7.454,6.018,9.343
150,0.866,37.58,8.993,32.352,22.483,7.574,6.137,9.464
151,0.859,37.946,9.009,32.324,22.48,7.535,6.138,9.465
152,0.866,37.365,8.951,32.334,22.48,7.494,6.098,9.505
153,0.853,37.455,9.075,32.324,22.473,7.453,6.056,9.465
154,0.853,37.561,8.955,32.353,22.476,7.534,6.178,9.465
155,0.846,37.332,9.001,32.334,22.476,7.453,6.057,9.465
156,0.862,37.406,9.017,32.353,22.48,7.493,6.137,9.505
157,0.862,37.474,8.994,32.334,22.473,7.453,6.057,9.425
158,0.879,37.6,9.067,32.353,22.476,7.574,6.178,9.505
159,0.882,37.237,9.006,32.363,22.48,7.454,6.139,9.587
160,0.872,37.338,9.036,32.353,22.469,7.412,6.016,9.425
161,0.892,37.502,9.005,32.391,22.486,7.737,6.3,9.668
162,0.882,37.542,9.025,32.353,22.473,7.455,6.099,9.548
163,0.876,37.178,9.04,32.353,22.476,7.615,6.097,9.588
164,0.885,37.309,8.974,32.353,22.469,7.535,6.056,9.507
165,0.892,37.445,9.024,32.372,22.486,7.616,6.015,9.587
166,0.879,37.503,9.005,32.363,22.476,7.535,6.056,9.507
167,0.876,37.245,9.071,32.382,22.476,7.534,6.137,9.506
168,0.872,37.367,9.029,32.353,22.473,7.494,6.057,9.465
169,0.869,37.503,9.037,32.372,22.486,7.575,6.097,9.587
170,0.869,37.542,8.982,32.353,22.469,7.454,6.056,9.466
171,0.869,37.14,9.032,32.391,22.479,7.493,6.015,9.546
172,0.859,37.261,9.017,32.392,22.48,7.575,6.096,9.506
173,0.856,37.358,9.033,32.373,22.469,7.454,5.975,9.425
174,0.862,37.445,9.009,32.42,22.493,7.696,6.218,9.627
175,0.83,37.225,8.966,32.373,22.473,7.455,6.017,9.507
176,0.865,37.367,9.028,32.392,22.473,7.452,6.056,9.546
177,0.879,37.445,9.04,32.401,22.476,7.493,6.097,9.466
178,0.892,37.465,9.068,32.392,22.48,7.453,6.097,9.465
179,0.908,37.072,9.025,32.392,22.473,7.412,6.097,9.505
180,0.915,37.212,9.044,32.401,22.479,7.452,6.097,9.506
181,0.912,37.329,9.068,32.401,22.469,7.33,6.056,9.465
182,0.925,37.157,8.998,32.43,22.473,7.492,6.137,9.587
183,0.912,37.06,9.067,32.373,22.462,7.331,5.976,9.425
184,0.905,37.212,8.951,32.411,22.476,7.41,6.137,9.464
185,0.912,37.309,8.997,32.411,22.483,7.452,6.219,9.505
186,0.895,37.032,9.009,32.392,22.462,7.249,6.058,9.343
187,0.905,37.192,9.072,32.43,22.486,7.45,6.137,9.545
188,0.892,37.271,9.06,32.43,22.473,7.29,6.057,9.425
189,0.892,37.358,9.002,32.421,22.476,7.329,6.056,9.464
190,0.876,37.052,9.095,32.402,22.473,7.289,6.015,9.465
191,0.869,37.202,9.002,32.43,22.473,7.288,6.096,9.465
192,0.872,37.328,8.993,32.411,22.476,7.329,6.016,9.505
193,0.882,37.406,8.993,32.43,22.473,7.329,6.137,9.587
194,0.866,36.966,8.97,32.411,22.466,7.289,6.057,9.385
195,0.879,37.115,8.989,32.44,22.479,7.288,6.137,9.505
196,0.892,37.222,8.962,32.402,22.469,7.207,5.976,9.425
197,0.882,37.3,9.04,32.449,22.483,7.369,6.137,9.505
198,0.892,37.032,9.009,32.431,22.469,7.289,6.057,9.465
199,0.895,37.164,9.044,32.44,22.473,7.166,5.975,9.383
200,0.905,37.318,9.033,32.459,22.483,7.409,6.218,9.586
201,0.895,37.301,9.033,32.431,22.466,7.127,6.017,9.344
202,0.915,36.917,9.009,32.45,22.476,7.205,6.096,9.382
203,0.905,37.047,9.04,32.45,22.476,7.206,6.056,9.342
204,0.899,37.154,8.994,32.459,22.476,7.165,6.097,9.382
205,0.912,37.194,8.954,32.431,22.473,7.084,5.975,9.423
206,0.905,37.031,8.981,32.45,22.476,7.083,6.096,9.424
207,0.895,37.135,8.981,32.44,22.48,7.042,6.056,9.383
208,0.905,37.242,9.056,32.469,22.476,7.042,6.097,9.464
209,0.879,37.195,8.99,32.45,22.473,7.001,6.016,9.383
210,0.882,37.022,9.048,32.469,22.479,7.041,6.137,9.545
211,0.885,37.125,9.052,32.517,22.473,6.92,6.057,9.588
212,0.882,37.232,8.967,32.46,22.473,7.0,6.015,9.507
213,0.889,36.849,9.071,32.498,22.49,7.123,6.259,9.709
214,0.869,36.865,8.963,32.431,22.469,6.758,5.936,9.589
215,0.882,37.018,9.02,32.469,22.473,6.836,6.055,9.629
216,0.882,37.106,8.97,32.469,22.479,6.877,6.015,9.548
217,0.892,36.886,9.024,32.488,22.469,6.877,6.137,9.588
218,0.899,36.99,9.052,32.469,22.476,6.959,6.098,9.588
219,0.886,37.135,8.998,32.479,22.476,7.0,6.097,9.507
220,0.889,37.194,9.075,32.479,22.473,7.082,6.016,9.425
221,0.892,36.811,9.025,32.479,22.479,7.123,6.137,9.546
222,0.892,36.912,9.025,32.46,22.466,7.165,6.016,9.344
223,0.908,37.057,9.017,32.488,22.476,7.328,6.137,9.423
224,0.908,37.106,9.001,32.479,22.48,7.37,6.098,9.424
225,0.905,36.733,8.974,32.469,22.469,7.289,6.016,9.261
226,0.902,36.883,9.017,32.517,22.493,7.532,6.218,9.463
227,0.886,36.951,9.033,32.47,22.466,7.372,6.058,9.221
228,0.869,37.01,9.08,32.508,22.479,7.452,6.097,9.259
229,0.859,36.847,9.037,32.489,22.48,7.493,6.056,9.381
230,0.872,36.989,9.002,32.489,22.476,7.575,6.056,9.382
231,0.863,37.096,8.97,32.489,22.473,7.535,6.097,9.342
232,0.853,37.136,8.962,32.498,22.473,7.534,6.056,9.504
233,0.859,36.839,9.044,32.489,22.473,7.534,6.097,9.506
234,0.859,36.989,9.056,32.517,22.479,7.697,6.097,9.628
235,0.84,37.077,9.01,32.498,22.469,7.618,5.975,9.507
236,0.852,37.404,9.017,32.517,22.479,7.779,6.055,9.587
237,0.866,36.87,9.04,32.508,22.473,7.822,6.097,9.588
238,0.869,36.961,9.041,32.489,22.476,7.7,5.975,9.547
239,0.895,37.125,8.963,32.546,22.49,7.902,6.137,9.831
240,0.863,36.685,9.032,32.499,22.466,7.782,5.976,9.712
241,0.885,36.738,8.955,32.556,22.472,7.822,6.055,9.711
242,0.879,36.854,8.993,32.508,22.473,7.781,6.015,9.752
243,0.908,36.951,9.064,32.517,22.476,7.822,6.015,9.712
244,0.895,36.722,8.986,32.508,22.48,7.822,5.974,9.711
245,0.882,36.883,9.032,32.527,22.476,7.822,5.974,9.792
246,0.869,36.99,8.986,32.518,22.476,7.7,5.974,9.631
247,0.856,37.067,9.067,32.527,22.473,7.821,6.015,9.792
248,0.849,37.298,9.01,32.508,22.469,7.7,5.893,9.753
249,0.856,37.464,8.993,32.546,22.479,7.74,6.014,9.833
250,0.846,37.561,9.032,32.518,22.473,7.659,6.015,9.753
251,0.84,37.639,8.9,32.537,22.483,7.617,5.974,9.752
252,0.846,36.336,9.008,32.585,22.493,7.82,6.218,9.955
253,0.83,36.409,8.986,32.518,22.466,7.619,6.017,9.714
254,0.839,36.553,9.032,32.546,22.472,7.657,6.015,9.752
255,0.843,36.612,8.962,32.537,22.476,7.536,6.015,9.712
256,0.853,36.69,9.024,32.556,22.48,7.616,5.934,9.752
257,0.853,36.834,8.978,32.547,22.473,7.495,5.974,9.752
258,0.853,36.932,9.098,32.556,22.476,7.575,6.055,9.712
259,0.853,36.981,9.022,32.547,22.473,7.535,5.934,9.63
260,0.84,36.665,9.056,32.556,22.483,7.534,6.055,9.71
261,0.839,36.767,8.97,32.556,22.469,7.494,5.893,9.63
262,0.859,36.912,8.966,32.575,22.483,7.656,6.014,9.67
263,0.856,36.904,9.087,32.547,22.476,7.576,6.056,9.67
264,0.859,36.606,8.967,32.547,22.473,7.616,5.893,9.589
265,0.879,36.776,9.009,32.614,22.49,7.82,6.176,9.751
266,0.83,36.826,8.982,32.566,22.469,7.619,5.935,9.59
267,0.843,36.644,9.024,32.585,22.483,7.657,5.974,9.629
268,0.83,36.575,9.079,32.557,22.48,7.658,5.974,9.629
269,0.83,36.718,8.979,32.585,22.476,7.698,5.974,9.629
270,0.83,36.825,9.059,32.585,22.476,7.618,5.974,9.588
271,0.82,36.644,8.974,32.585,22.48,7.698,6.055,9.588
272,0.826,36.748,9.017,32.585,22.476,7.618,5.975,9.547
273,0.823,36.873,9.068,32.595,22.483,7.617,6.055,9.588
274,0.813,36.942,8.998,32.576,22.473,7.495,5.934,9.466
275,0.833,36.54,9.021,32.662,22.473,7.575,6.055,9.546
276,0.82,36.67,8.955,32.605,22.473,7.616,6.015,9.506
277,0.817,36.767,8.993,32.595,22.466,7.535,6.015,9.384
278,0.833,36.893,9.021,32.643,22.49,7.697,6.218,9.586
279,0.833,36.539,8.994,32.586,22.469,7.496,5.976,9.425
280,0.846,36.708,9.044,32.605,22.476,7.616,6.015,9.505
281,0.849,36.834,8.974,32.595,22.476,7.535,6.056,9.425
282,0.836,36.893,9.052,32.624,22.476,7.575,6.056,9.464
283,0.83,36.501,9.006,32.614,22.476,7.535,6.015,9.383
284,0.849,36.641,9.056,32.624,22.476,7.494,6.015,9.423
285,0.843,36.757,8.986,32.672,22.476,7.534,6.015,9.302
286,0.839,36.806,8.985,32.634,22.476,7.494,6.096,9.382
287,0.82,36.538,9.036,32.615,22.469,7.494,5.975,9.301
288,0.82,36.689,9.025,32.643,22.483,7.616,6.137,9.382
289,0.807,36.786,9.021,32.634,22.473,7.576,6.016,9.382
290,0.81,36.835,8.966,32.634,22.469,7.616,6.015,9.423
291,0.816,36.539,9.028,32.672,22.49,7.739,6.137,9.546
292,0.794,36.622,9.021,32.615,22.466,7.496,5.976,9.344
293,0.806,36.766,9.017,32.662,22.479,7.616,6.096,9.464
294,0.81,36.691,9.079,32.644,22.476,7.535,6.016,9.505
295,0.8,36.595,8.912,32.663,22.473,7.534,6.015,9.425
296,0.813,36.728,8.992,32.653,22.479,7.494,6.015,9.505
297,0.826,36.825,8.9,32.663,22.476,7.494,6.096,9.465
298,0.817,36.558,9.012,32.634,22.476,7.412,5.975,9.424
299,0.833,36.66,8.954,32.662,22.483,7.533,6.096,9.464
300,0.826,36.767,8.997,32.644,22.469,7.331,6.016,9.465
301,0.826,36.864,9.044,32.672,22.479,7.532,6.178,9.505
302,0.82,36.452,9.025,32.663,22.476,7.372,6.139,9.465
303,0.852,36.602,9.025,32.653,22.473,7.452,6.179,9.383
304,0.859,36.738,9.04,32.691,22.49,7.493,6.261,9.586
305,0.823,36.777,8.986,32.644,22.466,7.331,6.058,9.303
306,0.839,36.442,8.97,32.682,22.479,7.451,6.219,9.463
307,0.83,36.573,8.997,32.682,22.473,7.371,6.139,9.465
308,0.817,36.689,9.036,32.682,22.479,7.452,6.219,9.505
309,0.8,36.758,9.017,32.682,22.48,7.412,6.18,9.465
310,0.797,36.557,8.997,32.682,22.483,7.371,6.179,9.505
311,0.784,36.66,9.028,32.663,22.473,7.289,6.261,9.425
312,0.793,36.786,9.029,32.692,22.483,7.329,6.221,9.586
313,0.793,36.816,8.947,32.701,22.473,7.207,6.18,9.507
314,0.803,36.567,9.055,32.692,22.483,7.328,6.301,9.587
315,0.794,36.689,9.017,32.682,22.469,7.207,6.221,9.547
316,0.819,36.834,8.962,32.72,22.473,7.287,6.261,9.506
317,0.833,36.865,9.012,32.721,22.486,7.288,6.302,9.668
318,0.817,36.529,8.943,32.673,22.466,7.166,6.18,9.426
319,0.826,36.718,8.969,32.72,22.476,7.287,6.342,9.505
320,0.81,36.796,8.966,32.702,22.476,7.288,6.262,9.506
321,0.836,37.018,9.04,32.721,22.476,7.247,6.262,9.587
322,0.83,36.655,8.955,32.711,22.473,7.247,6.302,9.547
323,0.843,36.767,8.977,32.702,22.479,7.247,6.302,9.506
324,0.836,36.854,9.052,32.711,22.48,7.247,6.262,9.465
325,0.843,36.558,8.986,32.711,22.48,7.288,6.343,9.546
326,0.817,36.603,9.017,32.711,22.469,7.207,6.262,9.466
327,0.82,36.709,8.958,32.721,22.483,7.328,6.343,9.668
328,0.803,36.806,8.985,32.721,22.476,7.329,6.303,9.589
329,0.8,36.5,9.052,32.711,22.48,7.329,6.302,9.588
330,0.82,36.641,9.021,32.759,22.487,7.654,6.465,9.791
331,0.794,36.728,9.033,32.702,22.466,7.333,6.264,9.509
332,0.803,36.835,8.978,32.74,22.479,7.492,6.343,9.668
333,0.803,36.5,9.028,32.721,22.476,7.534,6.343,9.711
334,0.807,36.641,9.009,32.74,22.48,7.575,6.425,9.711
335,0.807,36.748,9.06,32.731,22.473,7.616,6.263,9.63
336,0.807,36.806,9.068,32.74,22.483,7.657,6.384,9.751
337,0.81,36.605,8.951,32.731,22.469,7.658,6.303,9.63
338,0.813,36.747,9.059,32.75,22.476,7.658,6.384,9.71
339,0.826,36.825,9.01,32.731,22.469,7.698,6.303,9.752
340,0.843,36.932,9.036,32.759,22.479,7.78,6.425,9.833
341,0.846,36.53,9.017,32.721,22.476,7.578,6.222,9.59
342,0.856,36.679,9.044,32.75,22.48,7.698,6.424,9.71
343,0.875,36.815,9.06,32.827,22.487,7.78,6.507,9.752
344,0.895,36.816,8.912,32.722,22.469,7.578,6.264,9.549
345,0.915,36.711,9.039,32.769,22.479,7.738,6.505,9.71
346,0.889,36.806,9.037,32.74,22.473,7.618,6.386,9.589
347,0.905,36.922,8.998,32.759,22.479,7.617,6.344,9.588
348,0.915,36.961,9.032,32.75,22.473,7.576,6.343,9.588
349,0.892,36.655,8.943,32.759,22.483,7.575,6.425,9.629
350,0.895,36.786,9.004,32.75,22.476,7.535,6.344,9.507
351,0.889,36.883,8.958,32.769,22.483,7.575,6.425,9.628
352,0.892,36.731,9.012,32.74,22.476,7.535,6.426,9.426
353,0.899,36.748,8.939,32.769,22.476,7.616,6.466,9.586
354,0.886,36.844,9.012,32.788,22.473,7.454,6.386,9.466
355,0.866,36.97,9.013,32.779,22.473,7.493,6.425,9.424
356,0.882,36.645,9.017,32.817,22.486,7.534,6.588,9.586
357,0.879,36.7,9.099,32.76,22.466,7.291,6.305,9.303
358,0.898,36.863,8.99,32.807,22.479,7.451,6.425,9.382
359,0.912,36.932,9.067,32.779,22.476,7.371,6.344,9.301
360,0.902,36.492,9.002,32.779,22.48,7.289,6.425,9.382
361,0.921,36.66,9.036,32.779,22.48,7.369,6.344,9.261
362,0.948,36.767,9.017,32.808,22.48,7.289,6.343,9.259
363,0.974,36.835,9.009,32.789,22.473,7.247,6.384,9.219
364,0.984,36.634,9.056,32.856,22.486,7.288,6.385,9.259
365,0.994,36.767,8.963,32.78,22.469,7.247,6.303,9.137
366,1.01,36.893,9.032,32.789,22.479,7.247,6.465,9.177
367,1.007,36.942,9.001,32.779,22.476,7.206,6.304,9.055
368,1.014,36.559,9.048,32.817,22.48,7.287,6.465,9.176
369,1.027,36.67,9.037,32.837,22.483,7.329,6.386,9.218
370,1.004,36.767,9.064,32.799,22.476,7.126,6.303,9.056
371,1.02,36.873,9.072,32.837,22.493,7.327,6.506,9.257
372,1.01,36.731,8.975,32.808,22.473,7.207,6.345,9.137
373,0.991,36.873,9.04,32.818,22.479,7.247,6.384,9.217
374,0.971,36.98,8.966,32.808,22.476,7.206,6.344,9.137
375,0.977,37.0,9.02,32.827,22.476,7.247,6.384,9.177
376,0.994,36.665,9.029,32.818,22.473,7.166,6.344,9.137
377,0.991,36.786,9.056,32.837,22.476,7.287,6.303,9.177
378,0.987,36.854,9.103,32.808,22.469,7.247,6.262,9.096
379,0.994,36.817,9.053,32.837,22.479,7.369,6.384,9.176
380,0.978,36.711,9.08,32.827,22.473,7.33,6.303,9.137
381,0.99,36.834,8.959,32.837,22.473,7.329,6.302,9.095
382,0.997,36.98,9.024,32.866,22.486,7.451,6.425,9.258
383,0.971,36.578,9.009,32.809,22.469,7.29,6.222,9.015
384,0.971,36.699,9.021,32.837,22.479,7.41,6.302,9.054
385,0.964,36.815,9.04,32.837,22.473,7.411,6.221,9.054
386,0.955,36.903,8.97,32.837,22.473,7.411,6.261,9.054
387,0.922,36.635,9.048,32.837,22.473,7.411,6.262,8.932
388,0.909,36.776,9.017,32.856,22.476,7.574,6.221,9.134
389,0.873,36.912,9.033,32.837,22.466,7.413,6.18,8.974
390,0.872,36.99,8.99,32.866,22.476,7.493,6.301,9.135
391,0.85,36.607,8.974,32.809,22.469,7.331,6.18,8.974
392,0.856,36.785,9.005,32.856,22.479,7.41,6.261,9.135
393,0.833,36.893,8.974,32.847,22.476,7.371,6.18,9.136
394,0.839,36.951,9.056,32.847,22.476,7.411,6.179,9.136
395,0.839,36.655,8.967,32.895,22.486,7.574,6.301,9.258
396,0.81,36.738,8.989,32.828,22.459,7.291,6.099,8.975
397,0.82,36.902,9.005,32.866,22.479,7.451,6.178,9.135
398,0.813,36.923,8.978,32.876,22.476,7.371,6.22,9.095
399,0.8,36.578,9.005,32.876,22.473,7.411,6.139,9.176
400,0.797,36.689,8.947,32.876,22.473,7.371,6.179,9.218
401,0.807,36.806,9.024,32.876,22.479,7.37,6.179,9.259
402,0.794,36.845,8.997,32.857,22.473,7.289,6.139,9.137
403,0.78,36.596,9.017,32.885,22.469,7.329,6.179,9.217
404,0.787,36.689,9.079,32.857,22.469,7.207,6.098,9.096
405,0.793,36.834,9.014,32.895,22.476,7.328,6.219,9.258
406,0.771,36.941,9.021,32.876,22.473,7.207,6.139,9.219
407,0.767,36.683,8.939,32.895,22.473,7.328,6.138,9.3
408,0.774,36.815,9.008,32.914,22.479,7.37,6.301,9.423
409,0.754,36.855,8.993,32.857,22.466,7.126,6.058,9.302
410,0.783,36.644,9.036,32.914,22.476,7.327,6.219,9.504
411,0.764,36.661,9.06,32.895,22.476,7.248,6.22,9.425
412,0.774,36.786,8.974,32.895,22.476,7.288,6.18,9.424
413,0.771,36.883,9.013,32.905,22.469,7.207,6.098,9.546
414,0.774,36.549,8.982,32.905,22.483,7.206,6.178,9.506
415,0.761,36.66,9.056,32.895,22.469,7.287,6.057,9.506
416,0.767,36.796,9.013,32.895,22.483,7.288,6.137,9.628
417,0.777,36.874,8.997,32.943,22.466,7.166,6.057,9.426
418,0.777,36.481,9.013,32.915,22.479,7.287,6.137,9.546
419,0.797,36.592,9.064,32.895,22.473,7.207,6.098,9.588
420,0.79,36.737,9.041,32.905,22.479,7.206,6.097,9.588
421,0.787,36.825,9.009,32.953,22.487,7.247,6.219,9.669
422,0.767,36.51,9.052,32.876,22.466,7.044,5.976,9.507
423,0.8,36.708,8.982,32.933,22.486,7.286,6.137,9.628
424,0.79,36.796,8.981,32.934,22.476,7.125,6.057,9.588
425,0.777,36.855,9.005,32.915,22.48,7.124,6.137,9.588
426,0.771,36.481,9.036,32.934,22.469,7.124,6.057,9.588
427,0.767,36.602,9.037,32.924,22.483,7.165,6.056,9.629
428,0.764,36.728,8.998,32.915,22.476,7.084,6.056,9.588
429,0.78,36.768,9.025,32.934,22.473,7.123,6.137,9.588
430,0.738,36.547,8.986,32.905,22.476,6.961,5.976,9.588
431,0.751,36.718,9.032,32.934,22.486,7.122,6.137,9.751
432,0.748,36.815,8.998,32.915,22.473,7.043,6.016,9.671
433,0.757,37.027,9.009,32.924,22.476,6.96,6.096,9.751
434,0.757,36.588,9.013,32.972,22.486,7.122,6.178,9.793
435,0.735,36.651,8.939,32.915,22.466,6.88,5.976,9.631
436,0.767,36.796,9.016,32.953,22.479,6.959,6.096,9.71
437,0.764,36.605,9.052,32.924,22.48,6.878,6.056,9.67
438,0.783,36.613,9.049,32.953,22.476,6.959,6.015,9.629
439,0.777,36.747,9.006,32.944,22.466,6.96,5.974,9.588
440,0.764,36.825,9.071,32.953,22.476,6.96,6.177,9.751
441,0.77,36.442,9.006,32.944,22.473,6.878,6.057,9.671
442,0.79,36.592,9.009,32.953,22.476,6.877,6.097,9.67
443,0.774,36.651,9.04,32.934,22.473,6.796,6.016,9.507
444,0.78,36.767,9.005,32.982,22.479,6.917,6.096,9.628
445,0.79,36.423,9.005,32.944,22.473,6.796,6.138,9.507
446,0.787,36.592,8.95,32.943,22.473,6.877,6.098,9.506
447,0.78,36.728,9.067,32.991,22.479,7.04,6.26,9.668
448,0.758,36.748,9.006,32.915,22.459,6.717,6.017,9.467
449,0.761,36.384,9.068,32.962,22.476,6.876,6.137,9.587
450,0.754,36.524,9.06,32.963,22.476,6.796,6.098,9.629
451,0.757,36.631,8.924,32.992,22.476,6.877,6.219,9.588
452,0.764,36.69,9.008,32.973,22.476,6.877,6.098,9.547
453,0.741,36.556,9.017,32.973,22.48,6.918,6.138,9.588
454,0.738,36.66,9.021,32.944,22.473,6.796,6.098,9.547
455,0.747,36.786,8.97,32.972,22.476,7.039,6.178,9.588
456,0.741,36.816,8.981,32.944,22.473,6.879,6.057,9.466
457,0.764,36.337,9.028,32.982,22.479,6.959,6.219,9.505
458,0.761,36.447,9.04,32.953,22.476,6.96,6.139,9.506
459,0.77,36.554,9.056,32.953,22.469,6.919,6.057,9.425
460,0.793,36.632,9.068,33.02,22.483,7.122,6.259,9.505
461,0.764,36.441,8.971,32.944,22.469,6.921,6.099,9.343
462,0.774,36.602,8.938,32.982,22.476,6.959,6.178,9.342
463,0.774,36.68,9.016,32.973,22.473,6.96,6.139,9.301
464,0.777,36.489,9.025,32.973,22.476,6.96,6.179,9.301
465,0.777,36.391,9.001,32.963,22.473,6.919,6.139,9.301
466,0.761,36.505,9.017,32.992,22.479,6.959,6.138,9.26
467,0.748,36.593,8.986,32.973,22.473,6.919,6.057,9.259
468,0.751,36.325,9.095,32.982,22.486,6.959,6.137,9.341
469,0.735,36.409,8.987,32.973,22.476,6.919,6.098,9.219
470,0.731,36.563,8.97,32.992,22.483,6.919,6.178,9.381
471,0.725,36.641,9.016,32.992,22.473,6.959,6.139,9.382
472,0.728,36.287,8.97,33.001,22.473,6.838,6.016,9.301
473,0.757,36.485,9.028,33.021,22.486,6.958,6.3,9.544
474,0.731,36.535,8.974,32.983,22.466,6.716,5.977,9.262
475,0.738,36.67,9.02,33.001,22.476,6.876,6.137,9.381
476,0.786,36.278,8.99,33.011,22.476,6.837,6.057,9.423
477,0.813,36.437,8.993,33.021,22.48,6.877,6.178,9.424
478,0.852,36.525,9.017,32.992,22.473,6.796,6.057,9.342
479,0.875,36.631,8.986,33.011,22.479,6.836,6.178,9.342
480,0.898,36.364,8.978,32.992,22.466,6.796,6.139,9.382
481,0.954,36.515,8.978,33.03,22.479,6.877,6.26,9.464
482,0.977,36.612,9.02,33.002,22.476,6.755,6.099,9.262
483,1.026,36.709,8.947,33.011,22.48,6.836,6.219,9.422
484,1.059,36.298,9.051,32.992,22.473,6.837,6.18,9.424
485,1.118,36.437,9.037,33.001,22.476,6.755,6.098,9.261
486,1.151,36.592,9.017,33.059,22.49,6.998,6.3,9.544
487,1.155,36.555,8.997,33.012,22.466,6.797,6.058,9.344
488,1.184,36.449,9.013,33.03,22.479,6.917,6.219,9.464
489,1.207,36.583,9.04,33.011,22.473,6.919,6.18,9.424
490,1.246,36.699,8.978,33.011,22.479,6.919,6.22,9.464
491,1.292,36.643,9.032,33.002,22.469,6.959,6.302,9.465
492,1.338,36.297,8.974,33.03,22.479,7.041,6.221,9.505
493,1.368,36.418,8.954,33.002,22.48,6.96,6.18,9.465
494,1.404,36.534,9.036,33.03,22.483,7.041,6.261,9.546
495,1.427,36.296,9.025,33.002,22.466,7.001,6.18,9.384
496,1.467,36.389,9.025,33.03,22.483,7.082,6.22,9.464
497,1.467,36.534,8.955,33.05,22.476,7.123,6.22,9.383
498,1.467,36.603,9.012,33.031,22.469,7.002,6.139,9.342
499,1.5,36.258,9.072,33.05,22.493,7.163,6.301,9.504
500,1.516,36.322,8.978,33.012,22.469,6.962,6.14,9.303
501,1.591,36.485,9.028,33.05,22.469,7.041,6.26,9.341
502,1.647,36.545,9.009,33.04,22.476,7.001,6.18,9.423
503,1.709,36.162,9.044,33.021,22.48,7.001,6.261,9.424
504,1.772,36.273,8.97,33.04,22.473,6.96,6.221,9.383
505,1.805,36.408,9.048,33.05,22.473,7.082,6.22,9.464
506,1.809,36.448,9.037,33.012,22.473,7.002,6.139,9.465
507,1.825,36.237,9.002,33.05,22.486,7.082,6.301,9.587
508,1.799,36.36,9.032,33.031,22.473,7.002,6.14,9.507
509,1.76,36.495,8.947,33.05,22.483,7.041,6.219,9.709
510,1.649,36.545,9.028,33.05,22.476,7.082,6.22,9.792
511,1.488,36.248,8.978,33.031,22.473,6.92,6.098,9.712
512,1.344,36.418,9.059,33.079,22.49,7.325,6.341,10.118
513,1.15,36.458,8.971,33.021,22.469,7.045,6.181,10.081
514,1.038,36.544,9.013,33.069,22.473,7.204,6.179,10.325
515,0.92,37.034,8.993,33.06,22.476,7.206,6.22,10.368
516,0.811,37.154,9.017,33.06,22.48,7.287,6.22,10.612
517,0.745,37.232,9.072,33.05,22.48,7.329,6.139,10.655
518,0.689,37.511,8.971,33.05,22.48,7.41,6.179,10.94
519,0.623,35.807,8.993,33.05,22.476,7.371,6.139,10.902
520,0.571,35.934,9.001,33.079,22.48,7.492,6.26,11.146
521,0.505,36.04,9.036,33.031,22.473,7.371,6.18,11.108
522,0.472,36.224,9.005,33.059,22.483,7.452,6.301,11.23
523,0.458,36.321,9.064,33.06,22.476,7.452,6.221,11.231
524,0.458,36.457,9.049,33.088,22.473,7.412,6.18,11.149
525,0.471,36.583,8.978,33.108,22.49,7.615,6.342,11.393
526,0.413,35.999,9.024,33.022,22.466,7.373,6.018,11.232
527,0.393,36.127,9.029,33.069,22.483,7.533,6.178,11.312
528,0.389,36.253,9.056,33.06,22.473,7.534,6.179,11.272
529,0.373,36.351,8.986,33.079,22.473,7.494,6.179,11.312
530,0.379,36.15,9.036,33.06,22.473,7.412,6.098,11.272
531,0.393,36.301,9.009,33.146,22.473,7.493,6.178,11.394
532,0.396,36.418,9.001,33.07,22.473,7.412,6.057,11.314
533,0.428,36.496,9.079,33.079,22.479,7.411,6.178,11.597
534,0.445,36.056,8.982,33.05,22.473,7.33,6.098,11.56
535,0.481,36.224,9.024,33.088,22.483,7.329,6.178,11.762
536,0.511,36.312,8.939,33.089,22.48,7.37,6.261,11.805
537,0.543,36.351,9.016,33.07,22.466,7.289,6.139,11.806
538,0.612,36.16,9.036,33.117,22.493,7.451,6.341,12.172
539,0.623,36.263,9.033,33.089,22.469,7.29,6.181,12.175
540,0.658,36.399,9.08,33.079,22.473,7.288,6.179,12.297
541,0.698,36.429,8.951,33.098,22.476,7.247,6.22,12.339
542,0.727,36.103,9.02,33.079,22.48,7.247,6.22,12.421
543,0.751,36.224,9.025,33.098,22.473,7.206,6.18,12.422
544,0.748,36.331,9.037,33.089,22.476,7.206,6.22,12.462
545,0.764,36.342,8.986,33.07,22.469,7.206,6.18,12.463
546,0.764,36.169,8.97,33.108,22.483,7.247,6.22,12.503
547,0.764,36.273,8.966,33.079,22.476,7.125,6.18,12.341
548,0.78,36.408,9.024,33.108,22.483,7.205,6.301,12.421
549,0.767,36.17,9.017,33.089,22.483,7.206,6.343,12.462
550,0.764,36.024,8.982,33.06,22.473,7.003,6.14,12.178
551,0.78,36.185,8.997,33.117,22.483,7.285,6.219,12.419
552,0.761,36.283,8.978,33.089,22.48,7.166,6.18,12.3
553,0.757,36.073,9.044,33.098,22.48,7.165,6.22,12.258
554,0.748,36.176,9.045,33.089,22.476,7.206,6.18,12.135
555,0.764,36.321,9.006,33.146,22.48,7.247,6.301,12.175
556,0.777,36.39,8.997,33.089,22.48,7.206,6.18,12.094
557,0.777,35.949,8.993,33.098,22.483,7.328,6.22,12.093
558,0.777,36.069,9.036,33.079,22.469,7.207,6.139,11.93
559,0.784,36.205,8.962,33.108,22.476,7.287,6.26,12.01
560,0.797,36.245,9.028,33.079,22.469,7.166,6.18,11.808
561,0.8,36.053,8.982,33.117,22.479,7.287,6.261,11.887
562,0.8,36.195,9.009,33.118,22.487,7.288,6.221,11.888
563,0.803,36.264,9.001,33.079,22.469,7.166,6.058,11.603
564,0.823,36.389,9.021,33.146,22.493,7.45,6.259,11.722
565,0.807,36.035,9.025,33.089,22.473,7.208,6.18,11.601
566,0.803,36.204,8.978,33.108,22.476,7.247,6.22,11.519
567,0.8,36.302,9.056,33.108,22.48,7.288,6.18,11.396
568,0.794,36.351,9.049,33.118,22.48,7.288,6.261,11.436
569,0.764,35.997,9.041,33.089,22.476,7.166,6.18,11.233
570,0.77,36.127,9.005,33.117,22.48,7.206,6.261,11.271
571,0.77,36.215,8.99,33.099,22.473,7.206,6.221,11.15
572,0.774,36.273,9.005,33.098,22.479,7.206,6.302,11.189
573,0.754,36.053,8.974,33.108,22.466,7.084,6.302,10.986
574,0.78,36.195,9.056,33.137,22.476,7.245,6.221,11.066
575,0.774,36.321,8.963,33.137,22.483,7.288,6.383,11.066
576,0.774,36.284,9.012,33.099,22.473,7.044,6.181,10.782
577,0.806,36.121,9.029,33.146,22.479,7.326,6.383,10.82
578,0.79,36.186,8.982,33.118,22.476,7.126,6.222,10.739
579,0.806,36.321,9.013,33.118,22.48,7.165,6.302,10.697
580,0.803,36.025,8.943,33.137,22.469,7.165,6.221,10.575
581,0.8,36.07,8.981,33.108,22.479,7.165,6.261,10.492
582,0.794,36.205,8.962,33.118,22.476,7.124,6.18,10.41
583,0.826,36.292,9.009,33.118,22.48,7.205,6.301,10.369
584,0.826,36.092,9.044,33.089,22.473,7.206,6.221,10.246
585,0.83,36.253,8.963,33.127,22.479,7.369,6.383,10.245
586,0.81,36.36,9.009,33.099,22.473,7.37,6.181,10.123
587,0.807,36.476,8.982,33.108,22.479,7.452,6.261,10.122
588,0.81,35.854,9.067,33.146,22.483,7.412,6.343,10.203
589,0.79,35.963,8.924,33.08,22.473,7.371,6.1,9.919
590,0.8,36.137,9.043,33.146,22.486,7.573,6.3,10.161
591,0.787,36.167,9.017,33.118,22.476,7.454,6.221,10.0
592,0.797,35.899,9.009,33.166,22.476,7.493,6.22,9.999
593,0.79,36.021,8.986,33.118,22.476,7.412,6.18,9.999
594,0.79,36.128,9.028,33.127,22.476,7.533,6.179,9.958
595,0.78,36.177,9.048,33.137,22.476,7.494,6.179,9.835
596,0.8,36.11,8.943,33.137,22.476,7.534,6.261,9.834
597,0.803,36.234,9.004,33.127,22.476,7.412,6.099,9.712
598,0.81,36.369,9.005,33.137,22.483,7.533,6.219,9.752
599,0.82,36.38,9.079,33.118,22.469,7.494,6.18,9.63
600,0.83,35.892,9.025,33.127,22.479,7.371,6.179,9.629
601,0.836,36.04,9.013,33.166,22.493,7.533,6.342,9.832
602,0.82,36.089,9.025,33.089,22.459,7.291,6.1,9.55
603,0.852,36.512,8.997,33.146,22.486,7.491,6.138,9.628
604,0.849,36.008,8.993,33.128,22.48,7.371,6.219,9.588
605,0.856,36.118,9.04,33.147,22.476,7.33,6.18,9.588
606,0.84,36.224,9.002,33.128,22.476,7.329,6.139,9.588
607,0.826,35.947,8.935,33.137,22.48,7.37,6.26,9.629
608,0.817,35.935,8.946,33.118,22.48,7.289,6.099,9.629
609,0.823,36.088,9.016,33.127,22.476,7.329,6.26,9.588
610,0.807,36.157,8.884,33.127,22.469,7.248,6.099,9.507
611,0.813,35.928,9.008,33.147,22.479,7.288,6.219,9.668
612,0.8,36.06,8.997,33.108,22.476,7.207,6.18,9.589
613,0.807,36.166,8.986,33.118,22.473,7.206,6.139,9.547
614,0.82,36.283,9.005,33.166,22.486,7.369,6.301,9.669
615,0.8,35.737,8.954,33.109,22.469,7.167,6.099,9.467
616,0.826,35.914,9.055,33.137,22.476,7.328,6.26,9.546
617,0.826,36.021,8.994,33.137,22.48,7.289,6.139,9.466
618,0.826,36.108,8.982,33.137,22.476,7.369,6.138,9.465
619,0.826,35.937,8.927,33.127,22.473,7.411,6.138,9.424
620,0.839,36.079,9.036,33.127,22.479,7.411,6.219,9.505
621,0.849,36.176,8.978,33.147,22.473,7.452,6.139,9.465
622,0.853,36.244,9.036,33.128,22.479,7.493,6.26,9.465
623,0.853,35.756,9.041,33.108,22.466,7.453,6.099,9.302
624,0.866,35.914,9.025,33.156,22.479,7.574,6.138,9.463
625,0.853,36.031,9.025,33.128,22.473,7.535,6.179,9.424
626,0.836,36.089,9.009,33.147,22.476,7.575,6.098,9.342
627,0.843,35.927,9.072,33.176,22.493,7.698,6.3,9.504
628,0.83,36.012,9.01,33.109,22.462,7.455,6.058,9.262
629,0.826,36.166,8.997,33.137,22.476,7.615,6.178,9.463
630,0.83,36.167,9.001,33.108,22.473,7.617,6.139,9.383
631,0.833,35.841,9.025,33.166,22.476,7.617,6.219,9.505
632,0.83,35.963,9.025,33.118,22.476,7.576,6.139,9.506
633,0.81,36.05,9.044,33.127,22.476,7.657,6.219,9.587
634,0.823,36.118,9.045,33.127,22.473,7.576,6.139,9.547
635,0.836,36.148,8.998,33.147,22.479,7.616,6.179,9.628
636,0.843,36.254,8.986,33.108,22.473,7.454,6.017,9.507
637,0.862,36.379,8.966,33.146,22.479,7.534,6.178,9.587
638,0.849,35.748,9.024,33.147,22.483,7.534,6.179,9.588
639,0.856,35.799,8.99,33.108,22.466,7.412,6.017,9.507
640,0.875,35.972,9.032,33.146,22.49,7.574,6.259,9.75
641,0.856,36.012,9.072,33.099,22.473,7.454,6.017,9.549
642,0.862,35.754,8.963,33.118,22.469,7.412,6.096,9.588
643,0.862,35.885,9.075,33.127,22.476,7.371,6.097,9.507
644,0.866,36.011,9.014,33.137,22.48,7.411,6.056,9.628
645,0.859,36.089,8.993,33.127,22.48,7.289,6.097,9.588
646,0.846,35.937,9.009,33.137,22.48,7.288,6.097,9.588
647,0.84,36.069,8.986,33.118,22.473,7.247,6.016,9.507
648,0.849,36.205,9.063,33.127,22.479,7.328,6.137,9.668
649,0.849,36.245,8.959,33.099,22.469,7.167,6.057,9.507
650,0.853,36.734,9.059,33.146,22.479,7.287,6.097,9.587
651,0.859,36.873,9.013,33.156,22.49,7.329,6.219,9.669
652,0.836,36.942,9.005,33.128,22.469,7.045,5.976,9.426
653,0.852,37.038,9.083,33.147,22.479,7.164,6.096,9.627
654,0.846,35.38,8.986,33.128,22.473,7.124,6.056,9.507
655,0.84,35.526,9.009,33.137,22.479,7.124,6.056,9.506
656,0.849,35.662,8.97,33.127,22.473,7.165,6.097,9.506
657,0.866,35.683,9.048,33.137,22.486,7.206,6.016,9.425
658,0.866,35.952,9.072,33.127,22.473,7.165,6.015,9.383
659,0.872,36.108,9.01,33.156,22.479,7.246,6.056,9.464
660,0.872,36.176,9.029,33.109,22.476,7.206,5.975,9.383
661,0.882,36.148,8.962,33.127,22.483,7.369,6.137,9.423
662,0.879,35.908,9.005,33.127,22.483,7.37,6.016,9.342
663,0.892,36.05,9.017,33.137,22.48,7.37,6.015,9.219
664,0.895,36.157,9.048,33.147,22.49,7.533,6.178,9.462
665,0.879,35.803,8.967,33.099,22.466,7.331,5.976,9.18
666,0.895,35.934,8.973,33.146,22.479,7.532,6.096,9.34
667,0.889,36.04,9.044,33.128,22.48,7.453,6.016,9.26
668,0.882,36.137,9.045,33.137,22.48,7.452,6.096,9.381
669,0.879,35.841,9.072,33.127,22.48,7.493,5.975,9.301
670,0.856,35.982,8.967,33.127,22.48,7.453,6.055,9.423
671,0.859,36.07,9.036,33.137,22.48,7.493,6.015,9.383
672,0.872,36.176,9.002,33.156,22.476,7.453,6.096,9.423
673,0.863,35.707,9.009,33.128,22.476,7.371,6.016,9.342
674,0.856,35.885,9.021,33.147,22.483,7.452,6.137,9.423
675,0.856,35.954,9.013,33.137,22.473,7.493,6.057,9.464
676,0.879,36.069,8.974,33.118,22.473,7.412,5.975,9.302
677,0.885,35.86,9.017,33.166,22.486,7.615,6.218,9.544
678,0.866,35.944,9.033,33.089,22.469,7.332,5.936,9.262
679,0.898,36.088,9.072,33.137,22.479,7.41,6.096,9.422
680,0.899,36.138,9.057,33.137,22.48,7.411,6.016,9.424
681,0.895,35.784,9.017,33.127,22.473,7.533,6.015,9.383
682,0.902,35.895,8.99,33.127,22.476,7.534,6.056,9.342
683,0.905,36.04,8.982,33.137,22.483,7.534,6.097,9.382
684,0.912,36.061,9.024,33.127,22.48,7.534,6.056,9.301
685,0.912,35.744,9.001,33.127,22.483,7.616,6.015,9.301
686,0.895,35.847,8.958,33.108,22.462,7.535,5.974,9.219
687,0.905,36.011,8.966,33.204,22.483,7.697,6.015,9.34
688,0.908,36.329,8.989,33.138,22.48,7.618,5.974,9.301
689,0.886,35.757,9.044,33.118,22.483,7.617,6.015,9.341
690,0.879,35.924,9.013,33.204,22.49,7.779,6.218,9.464
691,0.876,35.983,8.997,33.099,22.473,7.496,5.895,9.262
692,0.898,35.82,9.001,33.127,22.479,7.656,6.054,9.463
693,0.866,35.847,8.986,33.137,22.48,7.658,6.056,9.383
694,0.879,35.972,8.954,33.127,22.48,7.698,6.015,9.342
695,0.869,36.06,9.04,33.118,22.473,7.658,5.974,9.301
696,0.876,35.706,9.045,33.127,22.476,7.658,6.055,9.423
697,0.885,35.818,9.025,33.108,22.476,7.576,5.975,9.302
698,0.889,35.953,9.072,33.194,22.476,7.698,6.055,9.382
699,0.889,35.993,8.943,33.099,22.473,7.658,5.893,9.342
700,0.905,35.763,8.965,33.146,22.479,7.78,6.014,9.545
701,0.902,35.904,8.954,33.099,22.469,7.74,5.893,9.344
702,0.905,36.04,9.036,33.118,22.483,7.862,5.973,9.423
703,0.921,36.128,8.974,33.137,22.487,8.026,6.137,9.505
704,0.912,35.678,8.993,33.08,22.469,7.783,5.813,9.262
705,0.925,35.865,8.985,33.146,22.479,8.106,5.972,9.463
706,0.899,35.944,9.044,33.108,22.476,8.109,5.974,9.383
707,0.895,36.002,9.056,33.127,22.48,8.15,5.974,9.382
708,0.899,35.705,8.951,33.118,22.473,8.11,5.893,9.342
709,0.892,35.837,8.977,33.118,22.479,8.191,5.933,9.504
710,0.886,35.934,8.989,33.089,22.476,8.192,5.892,9.384
711,0.892,36.002,9.021,33.117,22.476,8.232,5.973,9.464
712,0.879,35.945,9.013,33.089,22.469,8.111,5.811,9.343
713,0.892,36.088,9.04,33.127,22.476,8.232,5.972,9.545
714,0.866,36.176,9.056,33.147,22.473,8.111,5.771,9.425
715,0.876,36.225,8.99,33.128,22.479,8.109,5.891,9.383
716,0.889,35.938,9.04,33.127,22.48,8.272,5.973,9.505
717,0.892,36.04,9.095,33.079,22.473,8.03,5.811,9.343
718,0.899,36.176,9.053,33.146,22.486,8.19,6.013,9.586
719,0.889,35.995,9.076,33.099,22.476,8.029,5.934,9.425
720,0.912,35.983,9.033,33.108,22.476,7.987,5.933,9.505
721,0.912,36.118,9.021,33.108,22.476,7.946,5.852,9.425
722,0.905,36.215,8.97,33.108,22.483,7.945,5.932,9.464
723,0.925,35.928,9.071,33.07,22.476,7.864,5.933,9.465
724,0.918,36.06,8.994,33.098,22.473,7.904,5.892,9.505
725,0.912,36.166,8.978,33.07,22.473,7.823,5.892,9.384
726,0.918,36.254,9.032,33.098,22.483,7.863,5.892,9.423
727,0.892,36.072,8.994,33.07,22.476,7.822,5.77,9.342
728,0.905,36.243,9.118,33.098,22.473,7.863,5.931,9.504
729,0.905,36.379,9.01,33.098,22.483,7.904,5.974,9.546
730,0.873,36.419,8.986,33.07,22.469,7.742,5.771,9.384
731,0.892,36.151,8.978,33.108,22.486,7.984,6.013,9.586
732,0.879,36.244,8.962,33.089,22.469,7.742,5.893,9.466
733,0.885,36.379,9.04,33.079,22.476,7.821,5.973,9.546
734,0.879,36.428,8.994,33.079,22.473,7.659,5.933,9.425
735,0.892,36.247,9.028,33.079,22.479,7.739,5.892,9.546
736,0.892,36.37,9.017,33.079,22.473,7.659,5.892,9.384
737,0.912,36.486,8.99,33.079,22.473,7.698,5.892,9.545
738,0.905,36.506,9.056,33.069,22.479,7.658,5.892,9.384
739,0.915,36.334,9.002,33.088,22.476,7.658,5.892,9.586
740,0.909,36.447,9.032,33.06,22.473,7.576,5.811,9.466
741,0.918,36.554,8.974,33.098,22.483,7.657,5.972,9.546
742,0.925,36.574,9.036,33.079,22.473,7.617,5.933,9.547
743,0.925,36.526,9.009,33.079,22.479,7.495,5.892,9.425
744,0.938,36.67,9.056,33.089,22.487,7.697,6.095,9.586
745,0.922,36.748,8.97,33.05,22.469,7.455,5.813,9.466
746,0.915,36.758,9.016,33.088,22.483,7.656,5.972,9.505
747,0.905,36.614,9.036,33.079,22.476,7.495,5.974,9.506
748,0.912,36.728,9.068,33.069,22.48,7.534,6.015,9.628
749,0.899,36.816,9.041,33.06,22.48,7.412,5.934,9.629
750,0.912,36.596,8.974,33.079,22.48,7.493,5.933,9.67
751,0.912,36.68,9.032,33.06,22.476,7.412,5.933,9.67
752,0.908,36.834,9.025,33.088,22.48,7.452,6.014,9.792
753,0.879,36.903,9.044,33.06,22.473,7.29,5.934,9.671
754,0.895,36.952,9.076,33.088,22.486,7.41,6.014,9.751
755,0.912,37.096,8.959,33.07,22.476,7.289,5.974,9.712
756,0.915,37.203,8.977,33.06,22.473,7.207,5.974,9.548
757,0.951,37.309,8.954,33.088,22.486,7.369,6.055,9.791
758,0.915,36.61,9.008,33.022,22.466,7.045,5.893,9.59
759,0.931,36.776,9.044,33.069,22.472,7.164,5.973,9.669
760,0.948,36.902,8.982,33.05,22.479,7.206,5.974,9.589
761,0.941,36.961,9.06,33.06,22.487,7.084,5.893,9.629
762,0.928,36.904,8.963,33.04,22.48,7.083,5.933,9.588
763,0.941,37.038,9.016,33.05,22.483,7.083,6.014,9.547
764,0.958,37.125,9.029,33.031,22.473,7.002,5.974,9.506
765,0.958,37.193,8.974,33.069,22.476,7.123,6.015,9.546
766,0.922,36.945,8.985,33.041,22.466,6.961,5.893,9.466
767,0.935,37.057,8.974,33.059,22.479,7.041,6.014,9.627
768,0.928,37.164,9.056,33.031,22.476,6.92,5.974,9.426
769,0.944,37.194,8.947,33.05,22.48,6.959,6.015,9.586
770,0.938,37.05,9.032,33.06,22.49,7.041,5.974,9.588
771,0.925,37.145,9.064,33.012,22.466,6.798,5.933,9.466
772,0.938,37.29,9.025,33.069,22.49,7.039,6.136,9.709
773,0.925,37.512,9.021,33.041,22.473,6.92,5.976,9.589
774,0.922,37.13,8.997,33.04,22.473,6.959,6.015,9.669
775,0.912,37.251,8.997,33.031,22.479,6.96,6.015,9.589
776,0.912,37.329,8.884,33.05,22.476,6.96,6.056,9.629
777,0.931,37.167,8.953,33.031,22.473,6.919,5.934,9.629
778,0.938,37.251,9.005,33.05,22.479,6.919,6.014,9.588
779,0.945,37.339,9.009,33.012,22.48,6.878,5.974,9.507
780,0.938,37.454,9.052,33.05,22.48,6.959,6.055,9.668
781,0.945,36.957,8.994,33.012,22.466,6.96,6.015,9.507
782,0.948,37.105,9.009,33.03,22.479,7.0,6.015,9.628
783,0.958,37.232,9.017,33.031,22.487,7.082,6.137,9.588
784,0.935,37.29,8.962,33.011,22.473,6.88,5.976,9.466
785,0.958,38.039,9.106,33.069,22.486,7.081,6.177,9.709
786,0.925,38.123,8.987,33.012,22.469,6.92,6.017,9.386
787,0.931,38.268,8.954,33.059,22.479,7.081,6.137,9.505
788,0.915,38.336,8.923,33.04,22.48,7.042,6.057,9.546
789,0.922,36.774,9.012,33.012,22.48,7.082,6.097,9.547
790,0.905,36.893,8.814,33.05,22.476,7.002,6.097,9.506
791,0.899,37.038,8.988,33.021,22.476,7.123,6.178,9.546
792,0.902,37.078,9.04,33.002,22.473,7.002,6.057,9.466
793,0.905,37.461,8.908,33.03,22.479,7.123,6.178,9.587
794,0.879,37.561,9.008,33.002,22.473,7.083,6.057,9.507
795,0.889,37.696,9.005,33.03,22.476,7.205,6.137,9.628
796,0.889,37.707,9.079,33.021,22.476,7.125,6.098,9.507
797,0.912,37.19,8.971,33.011,22.473,7.124,6.097,9.425
798,0.899,37.357,9.016,33.107,22.49,7.205,6.219,9.627
799,0.899,37.397,8.954,32.983,22.466,7.003,6.058,9.385
800,0.908,37.455,8.934,33.011,22.476,7.123,6.097,9.423
801,0.908,37.436,8.981,33.011,22.476,7.124,6.097,9.464
802,0.905,37.561,9.04,33.011,22.469,7.165,6.056,9.465
803,0.905,37.639,8.963,33.002,22.473,7.124,6.137,9.465
804,0.925,37.371,8.989,33.011,22.469,7.246,6.138,9.424
805,0.912,37.301,9.04,33.011,22.469,7.166,6.098,9.342
806,0.905,37.445,9.045,33.011,22.476,7.246,6.138,9.382
807,0.886,37.503,9.037,32.982,22.469,7.125,6.016,9.261
808,0.895,37.274,8.955,33.03,22.479,7.327,6.137,9.381
809,0.879,37.377,8.993,33.002,22.476,7.248,5.976,9.301
810,0.876,37.493,9.005,32.992,22.473,7.206,6.015,9.301
811,0.876,37.619,8.974,33.03,22.49,7.369,6.178,9.463
812,0.859,37.294,9.013,32.964,22.466,7.126,5.976,9.262
813,0.869,37.483,9.06,33.02,22.483,7.327,6.137,9.341
814,0.869,37.581,9.025,33.002,22.473,7.289,6.138,9.342
815,0.856,37.658,9.044,32.992,22.476,7.329,6.016,9.342
816,0.869,37.256,9.025,32.992,22.48,7.37,6.015,9.179
817,0.882,37.377,9.076,33.001,22.476,7.411,6.096,9.259
818,0.879,37.484,9.021,32.982,22.473,7.371,6.056,9.259
819,0.889,37.561,8.982,33.011,22.479,7.37,6.097,9.259
820,0.885,37.246,8.989,32.982,22.469,7.33,6.056,9.097
821,0.895,37.415,9.028,33.011,22.483,7.492,6.097,9.258
822,0.895,37.494,8.982,32.992,22.473,7.453,6.056,9.178
823,0.905,37.542,9.067,32.992,22.469,7.534,6.137,9.096
824,0.925,37.274,9.064,33.078,22.486,7.738,6.179,9.339
825,0.905,37.348,8.986,32.954,22.473,7.455,6.017,9.016
826,0.921,37.483,9.032,33.011,22.483,7.615,6.056,9.094
827,0.918,37.485,9.017,32.992,22.48,7.617,6.056,9.095
828,0.909,37.293,9.068,32.992,22.476,7.698,6.097,9.176
829,0.882,37.416,8.971,32.992,22.473,7.699,6.097,9.055
830,0.879,37.522,9.028,33.001,22.476,7.74,6.056,9.135
831,0.876,37.418,8.994,33.021,22.476,7.659,6.015,9.095
832,0.885,37.283,8.985,32.992,22.483,7.698,6.096,9.217
833,0.879,37.377,9.04,32.963,22.469,7.618,5.975,9.137
834,0.879,37.484,8.986,32.982,22.483,7.698,6.177,9.258
835,0.869,37.14,9.032,32.963,22.473,7.699,6.017,9.137
836,0.885,37.251,8.966,32.992,22.476,7.658,6.056,9.136
837,0.908,37.386,9.059,33.021,22.483,7.698,6.137,9.258
838,0.899,37.407,9.013,32.935,22.469,7.496,5.854,8.975
839,0.925,37.168,9.005,33.01,22.483,7.697,6.135,9.216
840,0.905,37.251,9.029,32.963,22.473,7.577,5.976,9.137
841,0.915,37.386,9.005,33.049,22.476,7.657,6.096,9.136
842,0.922,37.474,8.993,32.973,22.48,7.617,5.935,9.095
843,0.935,37.235,9.013,32.973,22.476,7.617,6.014,9.095
844,0.938,37.338,8.997,32.973,22.469,7.535,5.974,9.014
845,0.932,37.483,8.982,32.973,22.479,7.616,6.015,9.176
846,0.925,37.523,9.005,32.973,22.48,7.495,5.934,9.055
847,0.909,37.006,9.056,32.982,22.483,7.656,6.055,9.135
848,0.899,37.135,9.049,32.944,22.473,7.455,5.934,9.136
849,0.912,37.261,9.013,32.972,22.476,7.534,6.055,9.217
850,0.902,37.3,9.009,32.973,22.48,7.534,6.056,9.34
851,0.905,37.186,8.99,32.953,22.466,7.453,5.893,9.138
852,0.921,37.367,8.966,33.001,22.493,7.574,6.136,9.339
853,0.892,37.407,9.059,32.954,22.476,7.494,5.935,9.301
854,0.889,37.465,8.971,32.963,22.483,7.534,5.933,9.341
855,0.895,37.072,9.016,32.953,22.48,7.494,5.974,9.342
856,0.912,37.193,8.927,32.953,22.476,7.494,6.015,9.382
857,0.912,37.28,8.993,32.944,22.476,7.534,5.934,9.301
858,0.915,37.425,9.032,32.943,22.476,7.575,5.974,9.504
859,0.918,37.101,8.974,32.953,22.469,7.454,5.893,9.303
860,0.928,37.241,9.067,32.972,22.476,7.574,5.973,9.463
861,0.925,37.329,8.916,32.934,22.476,7.535,5.893,9.302
862,0.944,37.042,9.024,32.943,22.48,7.616,6.014,9.382
863,0.938,37.068,9.001,32.934,22.48,7.535,5.974,9.423
864,0.935,37.164,8.997,32.934,22.466,7.494,5.933,9.302
865,0.951,37.309,9.021,32.972,22.49,7.616,6.014,9.544
866,0.915,37.013,8.935,32.915,22.469,7.413,5.893,9.425
867,0.922,37.154,9.008,32.934,22.479,7.533,5.973,9.424
868,0.905,37.261,8.997,32.943,22.476,7.453,5.893,9.505
869,0.902,37.348,9.028,32.934,22.476,7.493,5.933,9.506
870,0.902,36.822,9.189,32.924,22.473,7.371,5.933,9.587
871,0.902,36.96,9.081,32.934,22.479,7.492,5.933,9.629
872,0.892,37.086,9.057,32.915,22.473,7.331,5.811,9.67
873,0.889,37.155,8.974,32.953,22.479,7.41,5.972,9.711
874,0.885,37.012,9.056,32.896,22.466,7.289,5.893,9.589
875,0.902,37.183,9.033,32.924,22.479,7.369,5.973,9.751
876,0.905,37.309,8.998,32.953,22.48,7.452,5.974,9.793
877,0.908,37.32,8.993,32.896,22.469,7.208,5.771,9.59
878,0.931,44.349,9.025,32.962,22.483,7.409,6.013,9.71
879,0.915,44.391,9.079,32.915,22.476,7.289,5.852,9.63
880,0.922,44.419,8.975,32.924,22.476,7.369,5.973,9.629
881,0.925,44.401,9.052,32.915,22.476,7.33,5.974,9.67
882,0.931,33.642,8.947,32.924,22.483,7.37,5.852,9.629
883,0.931,33.753,9.008,32.915,22.476,7.289,5.891,9.629
884,0.944,33.919,8.99,32.895,22.483,7.369,5.973,9.588
885,0.928,33.968,9.06,32.895,22.469,7.37,5.852,9.547
886,0.922,38.178,9.041,32.924,22.476,7.452,5.973,9.588
887,0.918,38.307,8.978,32.915,22.476,7.33,5.893,9.507
888,0.922,38.413,9.017,32.924,22.48,7.451,5.973,9.628
889,0.922,36.746,8.997,32.895,22.48,7.452,5.974,9.629
890,0.899,36.25,8.927,32.914,22.466,7.371,5.811,9.507
891,0.908,36.437,8.977,32.934,22.486,7.533,6.054,9.79
892,0.895,36.477,9.063,32.876,22.473,7.291,5.893,9.509
893,0.915,36.995,8.9,32.895,22.476,7.451,5.973,9.668
894,0.909,37.163,8.988,32.895,22.473,7.452,5.974,9.589
895,0.905,37.28,9.028,32.905,22.483,7.452,5.933,9.588
896,0.912,37.358,9.013,32.886,22.476,7.371,5.892,9.507
897,0.922,36.659,9.04,32.885,22.48,7.411,5.933,9.587
898,0.905,36.786,8.838,32.905,22.473,7.371,5.811,9.466
899,0.921,36.912,8.972,32.895,22.483,7.452,5.972,9.465
900,0.918,36.961,8.977,32.876,22.469,7.33,5.811,9.424
901,0.935,36.674,9.005,32.895,22.483,7.289,5.972,9.505
902,0.922,36.805,9.052,32.886,22.483,7.369,5.893,9.546
903,0.931,36.912,8.998,32.847,22.469,7.208,5.811,9.262
904,0.938,37.028,9.028,32.914,22.49,7.409,5.972,9.463
905,0.922,36.703,8.974,32.857,22.469,7.167,5.893,9.343
906,0.925,36.854,9.091,32.856,22.476,7.328,5.933,9.342
907,0.909,36.97,9.018,32.866,22.476,7.207,5.892,9.382
908,0.905,37.019,8.97,32.876,22.483,7.287,5.892,9.342
909,0.905,36.684,9.013,32.866,22.476,7.166,5.973,9.301
910,0.892,36.805,9.017,32.866,22.48,7.206,5.974,9.382
911,0.889,36.903,9.029,32.866,22.466,7.165,5.893,9.342
912,0.902,36.952,8.994,32.895,22.476,7.206,6.014,9.423
913,0.886,36.712,9.04,32.838,22.469,7.084,5.893,9.342
914,0.882,36.873,8.951,32.914,22.479,7.245,6.054,9.423
915,0.882,36.97,8.958,32.876,22.48,7.206,6.015,9.464
916,0.892,36.789,9.028,32.847,22.473,7.043,5.812,9.262
917,0.905,36.72,9.068,32.895,22.493,7.367,6.094,9.585
918,0.899,36.767,9.053,32.828,22.473,7.126,5.935,9.344
919,0.908,36.902,9.013,32.846,22.483,7.205,5.974,9.423
920,0.905,36.549,9.095,32.847,22.473,7.247,5.852,9.464
921,0.912,36.651,8.987,32.856,22.476,7.328,5.973,9.465
922,0.899,36.757,8.993,32.847,22.473,7.167,6.015,9.383
923,0.912,36.845,9.052,32.837,22.479,7.287,5.974,9.423
924,0.925,36.615,8.97,32.856,22.473,7.166,5.933,9.342
925,0.931,36.776,9.005,32.856,22.479,7.368,6.014,9.423
926,0.912,36.864,8.993,32.818,22.473,7.33,5.974,9.342
927,0.899,36.961,9.064,32.837,22.479,7.37,6.055,9.423
928,0.882,36.482,9.013,32.866,22.48,7.411,6.097,9.505
929,0.863,36.612,9.009,32.809,22.473,7.249,5.975,9.343
930,0.895,36.786,9.048,32.856,22.486,7.491,6.137,9.545
931,0.869,36.787,8.916,32.847,22.476,7.29,6.016,9.384
932,0.866,36.557,8.985,32.837,22.473,7.329,5.974,9.423
933,0.862,36.68,8.978,32.827,22.476,7.329,6.015,9.342
934,0.853,36.825,8.981,32.837,22.48,7.451,6.015,9.342
935,0.859,36.855,9.04,32.837,22.476,7.33,6.096,9.26
936,0.859,36.606,8.97,32.847,22.473,7.41,6.056,9.463
937,0.862,36.718,9.02,32.818,22.469,7.371,5.975,9.302
938,0.872,36.835,9.021,32.827,22.476,7.411,6.055,9.423
939,0.882,36.865,9.001,32.827,22.469,7.289,5.975,9.342
940,0.898,36.481,8.962,32.837,22.476,7.41,6.055,9.423
941,0.895,36.592,8.997,32.837,22.476,7.289,6.056,9.383
942,0.886,36.699,8.954,32.799,22.473,7.288,6.015,9.301
943,0.905,36.815,9.044,32.856,22.483,7.41,6.218,9.585
944,0.886,36.529,9.009,32.799,22.469,7.167,5.936,9.344
945,0.895,36.698,8.997,32.827,22.473,7.287,6.055,9.382
946,0.889,36.786,8.989,32.827,22.473,7.288,6.056,9.342
947,0.876,36.49,8.997,32.818,22.473,7.247,6.097,9.423
948,0.866,36.554,9.06,32.808,22.469,7.288,5.975,9.424
949,0.866,36.67,8.955,32.818,22.479,7.288,6.055,9.546
950,0.862,36.767,8.981,32.808,22.476,7.247,5.975,9.384
951,0.856,36.327,9.017,32.827,22.476,7.328,6.177,9.464
952,0.843,36.418,8.978,32.808,22.466,7.207,5.976,9.383
953,0.862,36.563,9.017,32.837,22.483,7.328,6.055,9.464
954,0.846,36.641,9.009,32.818,22.476,7.289,6.056,9.465
955,0.843,36.517,8.986,32.808,22.473,7.288,5.975,9.343
956,0.879,36.698,8.939,32.856,22.49,7.451,6.177,9.586
957,0.863,36.758,8.973,32.799,22.462,7.29,5.976,9.344
958,0.879,36.854,9.048,32.817,22.472,7.369,6.096,9.382
959,0.872,36.385,8.963,32.808,22.476,7.411,5.935,9.423
960,0.872,36.534,9.016,32.808,22.48,7.411,6.055,9.383
961,0.872,36.631,8.997,32.808,22.473,7.371,6.015,9.342
962,0.879,36.709,9.028,32.818,22.483,7.411,6.056,9.464
963,0.879,36.47,8.974,32.789,22.473,7.371,6.015,9.302
964,0.869,36.592,9.075,32.808,22.476,7.492,6.056,9.341
965,0.879,36.709,8.978,32.789,22.473,7.412,5.975,9.26
966,0.869,36.777,9.009,32.827,22.476,7.452,6.055,9.463
967,0.846,36.519,8.962,32.799,22.473,7.412,6.056,9.383
968,0.846,36.679,8.997,32.798,22.476,7.411,5.975,9.342
969,0.859,36.796,9.064,32.837,22.493,7.615,6.177,9.545
970,0.833,37.046,8.955,32.77,22.466,7.332,5.895,9.425
971,0.839,36.416,9.024,32.798,22.479,7.532,6.095,9.505
972,0.83,36.515,8.962,32.798,22.48,7.412,6.097,9.506
973,0.833,36.641,9.024,32.808,22.48,7.452,6.056,9.587
974,0.83,36.46,8.935,32.818,22.48,7.452,6.056,9.507
975,0.826,36.458,9.047,32.798,22.48,7.534,6.056,9.587
976,0.839,36.592,9.002,32.779,22.473,7.494,6.056,9.588
977,0.852,36.68,8.931,32.789,22.483,7.534,6.097,9.629
978,0.84,36.403,8.977,32.779,22.469,7.412,6.016,9.507
979,0.846,36.534,8.974,32.817,22.479,7.533,6.096,9.546
980,0.849,36.631,9.017,32.779,22.476,7.372,6.016,9.588
981,0.866,36.757,8.974,32.789,22.48,7.452,6.015,9.588
982,0.882,36.461,9.079,32.827,22.487,7.534,6.218,9.669
983,0.863,36.554,9.037,32.808,22.462,7.331,5.936,9.467
984,0.882,36.699,8.994,32.779,22.479,7.41,6.055,9.627
985,0.876,36.758,9.036,32.769,22.48,7.33,6.097,9.588
986,0.869,36.384,8.994,32.779,22.473,7.329,6.016,9.669
987,0.856,36.534,9.005,32.789,22.479,7.289,6.056,9.629
988,0.856,36.651,8.986,32.798,22.48,7.369,5.975,9.71
989,0.833,36.69,8.993,32.779,22.48,7.289,5.974,9.589
990,0.852,36.46,8.993,32.779,22.476,7.329,6.137,9.751
991,0.833,36.573,8.985,32.76,22.469,7.248,5.976,9.671
992,0.843,36.718,9.067,32.779,22.479,7.41,6.055,9.751
993,0.833,36.729,8.986,32.769,22.476,7.371,6.056,9.712
994,0.839,36.499,9.044,32.76,22.469,7.411,6.056,9.67
995,0.846,36.65,8.978,32.788,22.483,7.615,6.137,9.873
996,0.846,36.709,9.095,32.741,22.469,7.413,5.854,9.509
997,0.885,36.787,9.049,32.788,22.486,7.533,6.095,9.668
998,0.885,36.567,8.994,32.75,22.48,7.575,5.975,9.629
999,0.898,36.708,9.064,32.769,22.483,7.616,5.974,9.67
1000,0.892,36.787,9.013,32.76,22.469,7.535,5.974,9.629
1001,0.895,36.586,9.056,32.76,22.483,7.616,5.974,9.67
1002,0.902,36.498,8.955,32.76,22.473,7.657,5.974,9.589
1003,0.944,36.631,9.012,32.76,22.479,7.658,6.015,9.669
1004,0.948,36.709,8.99,32.731,22.473,7.617,5.893,9.548
1005,0.954,36.499,8.946,32.778,22.479,7.698,6.095,9.628
1006,0.941,36.583,9.024,32.741,22.476,7.618,5.935,9.507
1007,0.948,36.709,8.997,32.779,22.48,7.657,6.014,9.587
1008,0.938,36.825,9.009,32.779,22.487,7.698,6.096,9.669
1009,0.935,36.385,9.017,32.731,22.469,7.536,5.894,9.467
1010,0.954,36.553,9.04,32.769,22.486,7.697,6.095,9.668
1011,0.935,36.67,9.052,32.75,22.473,7.658,6.056,9.548
1012,0.935,36.738,8.955,32.74,22.479,7.536,5.975,9.547
1013,0.935,36.442,9.04,32.74,22.476,7.534,6.015,9.547
1014,0.928,36.592,8.912,32.769,22.476,7.534,6.056,9.547
1015,0.915,36.689,8.969,32.74,22.469,7.494,5.934,9.466
1016,0.918,36.758,8.985,32.759,22.476,7.412,6.014,9.465
1017,0.928,36.528,9.04,32.74,22.469,7.371,5.974,9.383
1018,0.951,36.679,9.095,32.74,22.479,7.452,6.055,9.423
1019,0.967,36.786,8.963,32.731,22.473,7.371,5.975,9.383
1020,0.997,36.854,9.067,32.759,22.479,7.452,6.015,9.464
1021,1.026,36.472,9.006,32.74,22.476,7.412,6.015,9.465
1022,1.056,36.583,9.013,32.74,22.469,7.33,6.015,9.343
1023,1.102,36.728,9.036,32.779,22.486,7.573,6.137,9.586
1024,1.076,36.72,8.959,32.702,22.466,7.291,5.894,9.303
1025,1.083,36.672,8.93,32.74,22.479,7.288,5.973,9.341
1026,1.083,36.796,9.02,32.721,22.483,7.288,5.974,9.301
1027,1.076,36.893,9.056,32.721,22.476,7.288,6.055,9.423
1028,1.06,36.827,9.06,32.721,22.476,7.207,6.056,9.424
1029,1.05,36.577,9.041,32.73,22.48,7.287,5.975,9.505
1030,1.037,36.661,9.005,32.721,22.48,7.207,5.974,9.384
1031,1.04,36.815,8.978,32.73,22.48,7.287,6.015,9.505
1032,1.024,36.557,8.966,32.702,22.473,7.166,5.934,9.384
1033,1.01,36.66,9.036,32.73,22.476,7.206,6.014,9.545
1034,0.991,36.776,9.029,32.731,22.473,7.206,6.015,9.506
1035,1.01,36.835,8.994,32.721,22.466,7.084,5.893,9.425
1036,1.023,36.567,9.013,32.74,22.49,7.286,6.136,9.586
1037,0.997,36.651,8.986,32.683,22.473,7.085,5.854,9.344
1038,1.007,36.786,9.044,32.72,22.469,7.205,5.932,9.382
1039,1.014,36.874,9.045,32.711,22.479,7.165,5.974,9.423
1040,1.001,36.529,9.009,32.702,22.473,7.165,5.974,9.424
1041,0.991,36.67,8.958,32.711,22.476,7.124,5.933,9.342
1042,0.987,36.805,9.001,32.702,22.476,7.124,6.055,9.423
1043,0.965,36.835,9.056,32.701,22.473,7.002,5.975,9.261
1044,0.977,36.596,8.998,32.721,22.483,7.123,6.055,9.341
1045,0.951,36.709,9.001,32.692,22.469,6.961,5.853,9.26
1046,0.948,36.863,9.001,32.721,22.479,7.082,5.973,9.259
1047,0.925,36.913,9.04,32.73,22.483,7.123,6.055,9.422
1048,0.902,36.491,8.998,32.683,22.469,6.961,5.893,9.139
1049,0.908,36.679,9.001,32.74,22.486,7.041,6.054,9.339
1050,0.886,36.796,8.97,32.702,22.473,7.042,6.015,9.26
1051,0.879,36.816,9.063,32.711,22.479,7.042,6.056,9.341
1052,0.866,36.673,9.025,32.692,22.476,7.082,6.015,9.26
1053,0.846,36.796,9.025,32.711,22.48,7.083,5.974,9.341
1054,0.843,36.893,9.06,32.702,22.466,7.083,6.015,9.179
1055,0.82,37.287,8.947,32.701,22.476,7.123,6.015,9.299
1056,0.813,36.649,9.008,32.701,22.469,7.002,5.974,9.097
1057,0.82,36.786,8.954,32.701,22.476,7.163,6.096,9.258
1058,0.807,36.883,9.032,32.711,22.483,7.246,6.138,9.3
1059,0.803,36.587,9.064,32.663,22.462,7.003,5.935,8.975
1060,0.829,36.68,9.021,32.739,22.479,7.285,6.055,9.216
1061,0.813,36.748,9.06,32.683,22.469,7.166,5.975,9.056
1062,0.826,36.864,8.928,32.692,22.469,7.206,5.933,9.095
1063,0.836,36.558,9.039,32.663,22.473,7.206,5.974,9.014
1064,0.839,36.699,8.986,32.692,22.473,7.247,5.974,9.135
1065,0.836,36.806,9.028,32.682,22.466,7.166,5.974,9.136
1066,0.826,36.903,8.994,32.701,22.472,7.287,6.055,9.095
1067,0.83,36.539,8.974,32.673,22.473,7.207,5.893,9.054
1068,0.839,36.689,9.028,32.692,22.476,7.287,6.054,9.257
1069,0.81,36.786,9.009,32.663,22.469,7.207,5.975,9.178
1070,0.813,36.883,9.021,32.682,22.476,7.247,6.015,9.34
1071,0.803,36.52,9.013,32.692,22.486,7.288,6.137,9.423
1072,0.784,36.602,9.013,32.653,22.462,7.247,5.854,9.261
1073,0.8,36.785,9.025,32.711,22.476,7.45,6.135,9.463
1074,0.787,36.816,8.986,32.682,22.469,7.29,6.016,9.424
1075,0.79,36.692,9.048,32.673,22.479,7.329,6.096,9.464
1076,0.793,36.825,8.974,32.672,22.469,7.248,5.975,9.465
1077,0.806,36.941,9.001,32.672,22.469,7.328,6.015,9.424
1078,0.794,36.952,8.978,32.663,22.479,7.248,5.974,9.342
1079,0.806,37.173,8.974,32.692,22.476,7.328,6.055,9.464
1080,0.81,37.271,8.962,32.663,22.466,7.289,5.975,9.383
1081,0.826,37.396,8.977,32.672,22.479,7.329,6.137,9.464
1082,0.81,37.378,9.04,32.663,22.469,7.289,6.016,9.343
1083,0.816,36.18,8.912,32.653,22.473,7.288,6.015,9.382
1084,0.826,36.33,9.035,32.691,22.483,7.41,6.096,9.464
1085,0.81,36.38,8.947,32.625,22.466,7.127,5.935,9.221
1086,0.826,36.601,9.055,32.672,22.479,7.287,6.014,9.34
1087,0.804,36.709,8.986,32.653,22.473,7.288,6.056,9.301
1088,0.797,36.834,9.048,32.701,22.476,7.288,6.056,9.423
1089,0.797,36.922,9.033,32.663,22.473,7.207,5.975,9.302
1090,0.787,36.501,8.962,32.653,22.476,7.247,6.015,9.423
1091,0.787,36.583,9.005,32.644,22.469,7.206,5.974,9.302
1092,0.8,36.737,8.966,32.663,22.473,7.287,5.933,9.382
1093,0.794,36.806,8.989,32.634,22.466,7.125,5.852,9.342
1094,0.787,36.509,8.946,32.672,22.476,7.205,6.013,9.423
1095,0.78,36.612,8.969,32.653,22.476,7.125,5.934,9.424
1096,0.79,36.718,9.005,32.634,22.473,7.165,5.974,9.342
1097,0.81,36.863,9.04,32.672,22.483,7.287,6.096,9.545
1098,0.781,36.462,9.017,32.625,22.462,7.085,5.772,9.262
1099,0.803,36.65,8.974,32.662,22.483,7.245,6.013,9.503
1100,0.803,36.728,9.028,32.644,22.473,7.206,5.934,9.506
1101,0.816,36.806,8.978,32.663,22.476,7.165,5.892,9.546
1102,0.807,36.605,9.048,32.624,22.469,7.124,5.973,9.466
1103,0.813,36.738,9.002,32.643,22.473,7.083,5.974,9.465
1104,0.81,36.844,9.036,32.605,22.469,7.042,5.974,9.424
1105,0.829,36.913,9.013,32.643,22.469,7.123,5.933,9.424
1106,0.804,36.357,9.001,32.605,22.466,7.043,5.933,9.342
1107,0.81,36.514,9.025,32.614,22.479,7.123,6.014,9.504
1108,0.794,36.602,8.916,32.624,22.469,7.043,5.852,9.506
1109,0.79,36.642,9.016,32.643,22.476,7.082,5.932,9.506
1110,0.8,36.527,9.017,32.653,22.483,7.123,6.055,9.668
1111,0.777,36.612,9.025,32.586,22.455,6.961,5.893,9.426
1112,0.79,36.757,8.986,32.633,22.479,7.163,6.054,9.546
1113,0.777,36.682,9.028,32.634,22.476,7.165,5.975,9.506
1114,0.793,36.508,8.962,32.624,22.466,7.165,5.933,9.506
1115,0.784,36.602,8.966,32.624,22.472,7.084,5.974,9.465
1116,0.787,36.718,8.993,32.634,22.469,7.123,5.974,9.383
1117,0.793,36.394,8.935,32.615,22.473,7.043,5.893,9.382
1118,0.8,36.486,8.997,32.624,22.476,7.164,5.973,9.505
1119,0.807,36.583,9.025,32.605,22.466,7.084,5.933,9.343
1120,0.81,36.709,9.04,32.643,22.476,7.164,6.055,9.464
1121,0.787,36.384,9.056,32.595,22.469,7.165,5.934,9.383
1122,0.797,36.534,8.974,32.624,22.476,7.206,5.974,9.423
1123,0.8,36.66,9.067,32.653,22.483,7.247,6.055,9.464
1124,0.787,36.719,8.92,32.586,22.459,7.084,5.853,9.262
1125,0.793,36.394,8.996,32.624,22.483,7.286,5.973,9.422
1126,0.774,36.505,8.974,32.605,22.476,7.369,5.974,9.342
1127,0.774,36.612,9.056,32.633,22.469,7.289,6.015,9.342
1128,0.774,36.68,9.002,32.595,22.476,7.247,5.974,9.382
1129,0.784,36.451,9.044,32.614,22.476,7.247,5.974,9.342
1130,0.78,36.583,9.048,32.595,22.473,7.206,5.893,9.382
1131,0.787,36.689,8.986,32.614,22.476,7.287,5.973,9.342
1132,0.793,36.738,9.032,32.586,22.466,7.247,5.893,9.26
1133,0.826,36.365,9.029,32.614,22.472,7.328,6.014,9.381
1134,0.839,36.495,9.029,32.595,22.473,7.248,5.934,9.423
1135,0.879,36.612,9.056,32.585,22.473,7.247,5.892,9.342
1136,0.915,36.661,9.002,32.614,22.483,7.45,6.136,9.464
1137,0.935,36.297,9.009,32.566,22.459,7.168,5.854,9.18
1138,0.984,36.485,9.029,32.614,22.479,7.409,5.973,9.34
1139,1.007,36.573,8.943,32.605,22.476,7.33,5.933,9.382
1140,1.043,36.91,8.934,32.595,22.469,7.37,5.974,9.342
1141,1.092,36.482,9.016,32.585,22.469,7.33,5.933,9.342
1142,1.141,36.631,8.986,32.605,22.469,7.37,5.974,9.382
1143,1.165,36.709,8.997,32.586,22.473,7.33,5.893,9.22
1144,1.197,36.259,9.036,32.585,22.483,7.329,5.973,9.34
1145,1.22,36.245,8.931,32.547,22.466,7.207,5.893,9.26
1146,1.253,36.418,9.036,32.604,22.486,7.409,6.014,9.381
1147,1.292,36.477,8.943,32.557,22.466,7.33,5.893,9.342
1148,1.345,36.353,9.024,32.585,22.476,7.329,5.892,9.423
1149,1.381,36.495,9.04,32.605,22.483,7.573,6.054,9.505
1150,1.378,36.583,9.033,32.547,22.462,7.332,5.812,9.303
1151,1.421,36.699,8.978,32.575,22.472,7.41,5.932,9.463
1152,1.424,36.278,8.954,32.585,22.469,7.411,5.892,9.424
1153,1.398,36.408,9.012,32.576,22.473,7.452,5.973,9.505
1154,1.401,36.525,8.99,32.556,22.469,7.371,5.893,9.546
1155,1.408,36.593,9.063,32.575,22.476,7.492,5.933,9.588
1156,1.437,36.172,8.908,32.566,22.466,7.371,5.852,9.547
1157,1.493,36.34,9.02,32.576,22.479,7.452,5.851,9.466
1158,1.536,36.419,8.951,32.547,22.466,7.29,5.851,9.465
1159,1.614,36.506,9.047,32.585,22.479,7.451,5.973,9.587
1160,1.696,36.257,9.033,32.566,22.476,7.371,5.933,9.588
1161,1.749,36.389,8.982,32.556,22.473,7.289,5.852,9.547
1162,1.772,36.553,9.04,32.585,22.486,7.573,5.973,9.71
1163,1.782,36.536,8.963,32.528,22.469,7.25,5.771,9.589
1164,1.792,36.353,8.97,32.546,22.469,7.328,5.891,9.669
1165,1.753,36.486,8.981,32.547,22.473,7.329,5.933,9.67
1166,1.688,36.583,8.989,32.547,22.473,7.329,5.892,9.629
1167,1.577,36.594,8.915,32.556,22.476,7.248,5.811,9.71
1168,1.426,36.325,8.977,32.566,22.476,7.288,5.891,9.914
1169,1.262,36.447,8.981,32.528,22.473,7.288,5.851,10.039
1170,1.123,36.544,8.974,32.556,22.479,7.288,5.932,10.324
1171,0.979,36.392,8.974,32.518,22.466,7.288,5.77,10.571
1172,0.867,36.371,9.009,32.546,22.472,7.369,5.972,10.818
1173,0.778,36.486,8.997,32.537,22.476,7.289,5.893,11.023
1174,0.712,36.583,8.966,32.537,22.469,7.329,5.851,11.147
1175,0.65,36.172,8.985,32.566,22.483,7.532,6.013,11.393
1176,0.571,36.244,9.048,32.547,22.469,7.412,5.893,11.436
1177,0.534,36.36,8.97,32.556,22.476,7.411,5.851,11.477
1178,0.472,36.467,8.934,32.537,22.469,7.411,5.851,11.518
1179,0.478,36.132,8.922,32.537,22.476,7.452,5.891,11.64
1180,0.485,36.273,8.981,32.527,22.469,7.452,5.77,11.479
1181,0.475,36.408,9.024,32.556,22.469,7.493,5.891,11.64
1182,0.465,36.448,9.013,32.518,22.462,7.453,5.811,11.56
1183,0.462,36.132,9.017,32.537,22.476,7.574,5.891,11.559
1184,0.442,36.263,8.978,32.518,22.466,7.494,5.851,11.437
1185,0.429,36.389,9.017,32.518,22.469,7.494,5.81,11.558
1186,0.409,36.448,8.986,32.537,22.479,7.494,5.85,11.6
1187,0.409,36.094,9.009,32.489,22.462,7.412,5.81,11.56
1188,0.445,36.282,8.966,32.546,22.486,7.655,5.972,11.762
1189,0.452,36.351,9.024,32.489,22.462,7.495,5.771,11.602
1190,0.491,36.409,9.06,32.517,22.472,7.494,5.931,11.641
1191,0.517,36.189,9.017,32.518,22.473,7.494,5.852,11.804
1192,0.544,36.321,9.017,32.518,22.476,7.494,5.851,11.928
1193,0.573,36.428,9.025,32.508,22.469,7.412,5.769,11.97
1194,0.606,36.477,9.009,32.527,22.476,7.411,5.85,12.214
1195,0.642,36.765,8.958,32.508,22.469,7.371,5.81,12.135
1196,0.678,36.893,9.005,32.537,22.479,7.411,5.932,12.337
1197,0.708,36.961,9.005,32.508,22.459,7.249,5.73,12.299
1198,0.737,36.463,8.97,32.527,22.479,7.328,5.89,12.461
1199,0.76,35.931,8.97,32.518,22.473,7.329,5.851,12.544
1200,0.767,36.05,8.962,32.498,22.469,7.207,5.932,12.504
1201,0.8,36.195,9.005,32.527,22.483,7.328,6.014,12.748
1202,0.794,36.062,8.986,32.46,22.469,7.045,5.73,12.466
1203,0.829,36.205,9.028,32.498,22.476,7.245,5.931,12.585
1204,0.836,36.34,8.962,32.498,22.473,7.166,5.852,12.586
1205,0.839,36.409,9.016,32.479,22.476,7.165,5.851,12.464
1206,0.826,36.055,9.036,32.498,22.473,7.124,5.891,12.381
1207,0.804,36.195,9.052,32.508,22.476,7.124,5.892,12.381
1208,0.797,36.321,9.002,32.489,22.473,7.083,5.811,12.258
1209,0.803,36.409,8.904,32.508,22.476,7.205,5.932,12.298
1210,0.79,35.93,9.024,32.47,22.466,7.084,5.811,12.176
1211,0.8,36.127,9.025,32.517,22.476,7.123,5.85,12.297
1212,0.807,36.234,8.99,32.489,22.48,7.205,5.891,12.136
1213,0.803,36.274,9.021,32.479,22.476,7.287,5.811,12.093
1214,0.8,36.111,8.962,32.536,22.483,7.451,6.013,12.174
1215,0.787,36.196,8.997,32.46,22.462,7.168,5.771,11.972
1216,0.803,36.34,9.009,32.488,22.476,7.287,5.891,12.011
1217,0.807,36.361,9.095,32.479,22.469,7.369,5.811,11.97
1218,0.816,36.073,9.018,32.498,22.473,7.37,5.85,11.889
1219,0.803,36.224,8.986,32.479,22.469,7.37,5.81,11.888
1220,0.826,36.331,9.028,32.498,22.476,7.411,5.891,11.888
1221,0.826,36.37,9.005,32.479,22.466,7.371,5.851,11.806
1222,0.83,36.122,9.009,32.469,22.479,7.452,5.891,11.806
1223,0.826,36.234,9.025,32.469,22.466,7.371,5.77,11.643
1224,0.839,36.369,8.97,32.508,22.483,7.492,5.891,11.641
1225,0.836,36.553,8.946,32.45,22.473,7.371,5.77,11.601
1226,0.833,35.903,9.024,32.459,22.476,7.533,5.85,11.478
1227,0.833,36.03,9.021,32.488,22.483,7.616,5.932,11.558
1228,0.813,36.089,9.044,32.441,22.459,7.454,5.77,11.315
1229,0.833,36.061,9.025,32.488,22.479,7.493,5.891,11.435
1230,0.82,36.128,8.99,32.45,22.473,7.494,5.811,11.314
1231,0.81,36.244,9.044,32.45,22.469,7.453,5.85,11.272
1232,0.81,36.341,8.982,32.469,22.469,7.493,5.81,11.19
1233,0.807,35.997,9.052,32.46,22.476,7.534,5.81,11.149
1234,0.803,36.108,9.029,32.44,22.469,7.575,5.891,11.149
1235,0.803,36.263,8.974,32.469,22.476,7.535,5.851,11.067
1236,0.807,36.322,9.009,32.45,22.466,7.575,5.891,10.985
1237,0.813,35.977,8.993,32.459,22.472,7.657,5.851,10.944
1238,0.826,36.098,9.048,32.431,22.462,7.617,5.729,10.821
1239,0.843,36.224,9.013,32.459,22.476,7.739,5.89,10.901
1240,0.836,36.302,9.06,32.45,22.48,7.781,5.892,10.78
1241,0.839,35.987,9.01,32.45,22.469,7.822,5.851,10.616
1242,0.856,36.185,9.04,32.526,22.486,7.985,6.054,10.696
1243,0.84,36.235,8.916,32.412,22.466,7.783,5.812,10.453
1244,0.865,36.331,9.008,32.44,22.472,7.862,5.891,10.491
1245,0.859,35.987,8.986,32.421,22.473,7.944,5.933,10.369
1246,0.862,36.146,8.993,32.478,22.473,7.986,5.974,10.409
1247,0.846,36.254,8.997,32.441,22.473,7.946,5.893,10.409
1248,0.846,36.283,8.97,32.44,22.476,7.905,5.892,10.369
1249,0.84,36.034,9.106,32.431,22.473,7.863,5.973,10.206
1250,0.833,36.176,9.014,32.45,22.483,7.904,5.974,10.204
1251,0.823,36.283,9.001,32.44,22.466,7.782,5.933,10.245
1252,0.836,36.303,9.036,32.44,22.479,7.862,5.933,10.204
1253,0.83,36.015,8.994,32.431,22.469,7.822,5.892,10.204
1254,0.82,36.147,8.985,32.45,22.473,7.863,5.933,10.082
1255,0.843,36.282,9.005,32.459,22.486,7.985,6.014,10.243
1256,0.82,35.996,9.009,32.402,22.466,7.742,5.771,9.96
1257,0.846,36.031,8.884,32.43,22.469,7.943,5.972,10.039
1258,0.836,36.147,8.988,32.421,22.469,7.945,5.974,9.918
1259,0.849,36.244,8.97,32.43,22.473,7.986,5.974,9.957
1260,0.849,35.89,9.009,32.488,22.473,7.986,5.974,9.917
1261,0.853,36.011,9.013,32.421,22.479,7.946,5.974,9.916
1262,0.859,36.099,9.017,32.411,22.466,7.945,5.852,9.794
1263,0.872,36.234,9.029,32.488,22.479,7.945,5.973,9.793
1264,0.866,35.832,8.974,32.393,22.469,7.864,5.852,9.712
1265,0.879,35.982,9.024,32.411,22.479,8.026,6.013,9.833
1266,0.866,36.089,8.994,32.402,22.469,8.027,5.893,9.631
1267,0.859,36.186,8.997,32.411,22.473,8.027,5.973,9.67
1268,0.862,36.043,9.001,32.43,22.483,8.149,6.096,9.751
1269,0.849,36.137,8.982,32.383,22.462,7.947,5.853,9.63
1270,0.856,36.282,8.954,32.42,22.476,8.148,5.932,9.751
1271,0.843,36.322,8.997,32.411,22.476,8.11,5.933,9.63
1272,0.846,35.929,9.028,32.402,22.473,8.069,5.974,9.751
1273,0.833,36.06,8.947,32.392,22.473,8.028,5.893,9.833
1274,0.836,36.205,9.005,32.411,22.469,8.109,6.014,9.794
1275,0.836,36.225,8.966,32.402,22.469,7.947,5.893,9.753
1276,0.846,35.928,9.044,32.401,22.473,7.945,5.973,9.833
1277,0.846,36.04,8.978,32.373,22.466,7.905,5.893,9.631
1278,0.869,36.185,8.981,32.392,22.476,7.985,5.933,9.71
1279,0.859,36.196,8.981,32.382,22.469,7.986,5.892,9.63
1280,0.872,35.957,8.981,32.382,22.469,7.824,5.933,9.71
1281,0.885,36.117,9.02,32.401,22.486,7.944,6.014,9.833
1282,0.856,36.186,8.974,32.354,22.462,7.701,5.812,9.55
1283,0.879,36.129,9.005,32.391,22.476,7.943,5.972,9.588
1284,0.879,35.966,8.958,32.363,22.476,7.783,5.974,9.629
1285,0.892,36.098,8.993,32.363,22.476,7.822,5.974,9.67
1286,0.886,36.196,9.064,32.372,22.476,7.781,5.852,9.589
1287,0.885,35.909,9.025,32.392,22.473,7.781,5.932,9.588
1288,0.869,36.011,8.943,32.363,22.476,7.7,5.811,9.588
1289,0.872,36.156,8.907,32.391,22.476,7.78,5.891,9.588
1290,0.866,36.225,9.02,32.325,22.469,7.659,5.892,9.629
1291,0.872,35.784,9.001,32.362,22.476,7.739,5.973,9.71
1292,0.866,35.895,8.978,32.324,22.466,7.577,5.933,9.63
1293,0.856,36.04,9.052,32.362,22.472,7.657,5.852,9.629
1294,0.866,36.128,9.017,32.42,22.483,7.698,5.973,9.832
1295,0.853,35.784,8.99,32.325,22.462,7.536,5.73,9.55
1296,0.882,35.991,9.009,32.391,22.479,7.779,5.972,9.75
1297,0.882,36.089,9.025,32.344,22.473,7.74,5.852,9.63
1298,0.879,36.157,8.97,32.334,22.469,7.781,5.932,9.67
1299,0.892,35.784,9.005,32.353,22.473,7.74,5.852,9.629
1300,0.908,35.933,9.029,32.353,22.466,7.984,5.891,9.548
1301,0.908,36.031,8.994,32.334,22.469,7.946,5.851,9.547
1302,0.902,36.089,9.013,32.343,22.473,8.108,5.973,9.547
1303,0.915,35.869,8.993,32.315,22.466,8.069,5.811,9.506
1304,0.909,36.049,9.06,32.353,22.476,8.191,5.891,9.628
1305,0.908,36.118,8.928,32.324,22.473,8.07,5.811,9.426
1306,0.905,36.186,9.036,32.343,22.473,8.231,5.932,9.586
1307,0.899,35.88,9.091,32.353,22.479,8.233,5.974,9.466
1308,0.886,35.973,8.986,32.305,22.469,8.111,5.811,9.343
1309,0.895,36.127,9.063,32.381,22.49,8.354,5.932,9.545
1310,0.853,36.205,8.947,32.305,22.476,8.193,5.852,9.425
1311,0.866,35.88,8.95,32.343,22.476,8.273,5.891,9.464
1312,0.869,36.002,9.008,32.315,22.473,8.274,5.851,9.424
1313,0.879,36.108,9.017,32.333,22.473,8.355,5.891,9.464
1314,0.859,35.937,9.001,32.324,22.473,8.315,5.811,9.424
1315,0.872,36.021,8.97,32.324,22.479,8.437,5.85,9.424
1316,0.869,36.128,9.001,32.314,22.469,8.357,5.81,9.342
1317,0.902,36.234,9.044,32.324,22.476,8.519,5.85,9.382
1318,0.892,35.65,9.048,32.305,22.466,8.398,5.729,9.22
1319,0.912,35.788,9.029,32.333,22.476,8.519,5.89,9.3
1320,0.908,35.914,8.986,32.334,22.48,8.479,5.851,9.301
1321,0.908,35.973,9.032,32.286,22.466,8.398,5.729,9.26
1322,0.934,35.887,9.001,32.343,22.483,8.519,5.89,9.422
1323,0.918,35.954,8.986,32.315,22.466,8.317,5.811,9.261
1324,0.925,36.069,9.06,32.314,22.476,8.396,5.85,9.219
1325,0.925,36.147,8.971,32.324,22.473,8.397,5.81,9.178
1326,0.918,35.745,9.04,32.314,22.473,8.397,5.81,9.218
1327,0.915,35.866,8.939,32.305,22.476,8.397,5.85,9.218
1328,0.918,35.973,9.032,32.314,22.469,8.397,5.851,9.34
1329,0.909,36.05,9.072,32.295,22.473,8.397,5.81,9.219
1330,0.902,35.85,9.025,32.324,22.473,8.478,5.891,9.34
1331,0.899,35.963,9.025,32.295,22.466,8.357,5.77,9.301
1332,0.915,36.089,8.978,32.314,22.476,8.478,5.891,9.382
1333,0.886,36.138,9.001,32.314,22.473,8.438,5.77,9.301
1334,0.889,35.764,8.939,32.305,22.469,8.397,5.809,9.26
1335,0.915,35.914,9.036,32.324,22.483,8.519,5.972,9.422
1336,0.886,35.973,8.986,32.276,22.466,8.317,5.689,9.261
1337,0.911,36.108,8.989,32.324,22.472,8.356,5.768,9.259
1338,0.915,35.802,8.974,32.295,22.473,8.275,5.85,9.341
1339,0.918,35.914,8.989,32.295,22.476,8.274,5.851,9.301
1340,0.931,36.011,9.017,32.285,22.469,8.274,5.851,9.301
1341,0.944,35.859,8.974,32.295,22.473,8.314,5.891,9.301
1342,0.932,35.829,9.052,32.276,22.466,8.193,5.77,9.26
1343,0.925,35.991,8.986,32.304,22.472,8.273,5.891,9.3
1344,0.935,36.07,8.966,32.276,22.466,8.111,5.851,9.138
1345,0.945,35.725,9.036,32.304,22.479,8.191,5.932,9.258
1346,0.935,35.808,9.017,32.285,22.469,8.11,5.892,9.178
1347,0.935,35.962,8.986,32.295,22.476,8.15,5.892,9.259
1348,0.935,36.06,8.978,32.305,22.48,8.15,5.973,9.422
1349,0.912,35.687,8.985,32.257,22.466,7.947,5.852,9.18
1350,0.935,35.885,8.978,32.314,22.486,8.108,5.973,9.421
1351,0.918,35.992,8.974,32.295,22.48,8.028,5.893,9.342
1352,0.918,36.07,9.075,32.276,22.473,7.946,5.892,9.423
1353,0.899,35.792,8.936,32.295,22.473,7.945,5.933,9.342
1354,0.895,35.943,8.989,32.285,22.473,7.986,5.974,9.423
1355,0.895,36.031,9.024,32.276,22.469,7.905,5.933,9.342
1356,0.912,36.128,9.021,32.285,22.476,8.026,5.974,9.382
1357,0.931,35.688,9.021,32.276,22.466,7.905,5.893,9.261
1358,0.948,35.846,8.923,32.304,22.483,7.945,5.973,9.503
1359,0.951,35.944,9.0,32.276,22.473,7.905,5.974,9.384
1360,0.961,35.983,8.95,32.266,22.469,7.904,5.893,9.342
1361,0.964,35.945,9.044,32.304,22.479,8.067,6.095,9.545
1362,0.942,36.002,9.025,32.247,22.466,7.824,5.853,9.344
1363,0.971,36.127,8.986,32.275,22.472,7.903,5.973,9.423
1364,0.951,36.177,9.024,32.276,22.476,7.863,5.974,9.342
1365,0.938,35.88,8.966,32.276,22.473,7.904,6.015,9.342
1366,0.945,35.992,9.044,32.256,22.469,7.782,5.893,9.301
1367,0.941,36.108,8.97,32.275,22.469,7.822,6.014,9.382
1368,0.938,36.483,8.931,32.247,22.473,7.741,5.974,9.342
1369,0.941,36.708,9.012,32.275,22.476,7.821,6.015,9.464
1370,0.922,36.815,9.009,32.247,22.466,7.7,5.934,9.302
1371,0.928,36.922,9.064,32.285,22.479,7.821,5.974,9.504
1372,0.931,35.782,8.955,32.247,22.473,7.7,5.933,9.465
1373,0.918,35.799,9.071,32.256,22.469,7.78,6.014,9.505
1374,0.928,35.972,8.959,32.323,22.49,7.862,6.137,9.587
1375,0.909,36.012,8.981,32.238,22.466,7.66,5.894,9.385
1376,0.928,36.137,8.978,32.266,22.476,7.739,5.973,9.545
1377,0.938,36.244,8.993,32.256,22.469,7.699,5.933,9.384
1378,0.932,36.389,8.978,32.247,22.473,7.699,5.974,9.382
1379,0.935,36.467,8.981,32.247,22.476,7.699,5.893,9.464
1380,0.951,36.094,9.044,32.256,22.476,7.658,5.973,9.424
1381,0.948,36.243,9.009,32.247,22.466,7.658,5.974,9.383
1382,0.958,36.37,9.017,32.266,22.476,7.739,5.893,9.505
1383,0.971,36.39,8.997,32.228,22.466,7.618,5.933,9.343
1384,0.968,36.256,8.954,32.246,22.476,7.698,6.055,9.423
1385,0.958,36.389,8.966,32.227,22.473,7.658,5.934,9.342
1386,0.961,36.515,9.005,32.246,22.476,7.617,6.014,9.382
1387,0.951,36.574,9.044,32.266,22.476,7.779,6.056,9.586
1388,0.925,36.382,9.025,32.199,22.459,7.537,5.853,9.344
1389,0.941,36.563,9.06,32.246,22.479,7.697,6.013,9.504
1390,0.922,36.651,8.974,32.227,22.473,7.618,5.974,9.546
1391,0.912,36.69,9.001,32.227,22.469,7.617,5.974,9.547
1392,0.912,36.46,9.017,32.227,22.469,7.617,5.933,9.506
1393,0.908,36.573,8.997,32.237,22.476,7.576,5.933,9.546
1394,0.905,36.67,9.052,32.227,22.473,7.698,5.974,9.547
1395,0.915,36.796,8.908,32.266,22.479,7.699,6.055,9.506
1396,0.922,36.615,8.989,32.228,22.459,7.699,5.975,9.506
1397,0.951,36.757,8.95,32.227,22.479,7.78,6.015,9.546
1398,0.945,36.835,9.055,32.218,22.473,7.74,6.015,9.425
1399,0.954,36.663,8.99,32.237,22.479,7.821,6.015,9.424
1400,0.964,36.786,9.04,32.256,22.483,7.863,6.137,9.586
1401,0.948,36.854,9.005,32.18,22.462,7.7,5.813,9.344
1402,0.958,36.98,8.978,32.246,22.476,7.861,6.013,9.504
1403,0.964,36.674,9.001,32.227,22.473,7.822,5.974,9.384
1404,0.981,36.796,9.04,32.208,22.476,7.781,5.974,9.342
1405,0.974,36.931,9.037,32.198,22.473,7.781,5.974,9.382
1406,0.964,37.019,8.881,32.217,22.476,7.74,5.974,9.382
1407,0.938,36.751,9.0,32.198,22.469,7.74,5.933,9.301
1408,0.935,36.892,8.962,32.217,22.469,7.699,6.055,9.463
1409,0.938,37.009,9.052,32.198,22.469,7.618,5.934,9.302
1410,0.941,37.087,9.021,32.217,22.479,7.698,6.014,9.423
1411,0.928,36.886,9.001,32.198,22.473,7.577,5.852,9.342
1412,0.931,37.047,9.028,32.198,22.479,7.657,5.973,9.382
1413,0.922,37.174,8.986,32.227,22.48,7.698,6.015,9.545
1414,0.918,37.184,8.997,32.179,22.459,7.496,5.852,9.303
1415,0.948,37.002,8.997,32.217,22.479,7.819,6.135,9.544
1416,0.925,37.077,9.021,32.189,22.466,7.7,5.935,9.384
1417,0.948,37.203,8.986,32.198,22.476,7.74,5.974,9.382
1418,0.941,37.233,8.95,32.189,22.473,7.659,5.974,9.342
1419,0.961,37.003,9.001,32.198,22.473,7.78,5.974,9.423
1420,0.958,37.106,8.986,32.208,22.476,7.862,5.933,9.342
1421,0.958,37.251,9.017,32.189,22.469,7.904,6.014,9.382
1422,0.961,37.559,9.001,32.16,22.466,7.823,5.893,9.382
1423,0.984,37.188,9.013,32.227,22.476,8.025,6.014,9.423
1424,0.978,37.271,8.939,32.17,22.466,7.987,5.893,9.302
1425,0.977,37.377,9.043,32.179,22.479,7.986,5.973,9.382
1426,0.974,37.129,9.033,32.188,22.48,8.108,6.015,9.464
1427,0.945,37.136,8.962,32.169,22.469,7.987,5.893,9.302
1428,0.967,37.309,9.032,32.217,22.483,8.19,6.095,9.544
1429,0.938,37.349,8.92,32.15,22.466,8.07,5.975,9.425
1430,0.938,37.186,9.024,32.179,22.476,8.069,6.015,9.424
1431,0.932,37.328,8.97,32.188,22.469,8.109,5.974,9.424
1432,0.931,37.435,9.048,32.179,22.476,8.069,6.055,9.464
1433,0.928,37.494,9.025,32.169,22.476,8.028,5.975,9.424
1434,0.938,37.264,9.009,32.179,22.469,8.068,6.055,9.505
1435,0.928,37.406,9.009,32.15,22.466,7.906,5.975,9.425
1436,0.944,37.532,9.032,32.179,22.476,8.026,6.096,9.464
1437,0.938,37.562,9.013,32.16,22.469,7.824,5.935,9.424
1438,0.948,37.179,8.919,32.159,22.476,7.944,5.974,9.424
1439,0.951,37.338,8.969,32.179,22.48,7.945,6.096,9.424
1440,0.945,37.407,8.962,32.141,22.466,7.783,5.975,9.342
1441,0.961,37.541,9.009,32.207,22.486,7.944,6.177,9.586
1442,0.945,37.543,9.036,32.15,22.473,7.783,6.017,9.425
1443,0.958,37.696,8.986,32.15,22.466,7.822,6.096,9.424
1444,0.948,37.813,9.048,32.15,22.476,7.822,6.016,9.464
1445,0.951,37.833,8.97,32.159,22.473,7.781,6.096,9.424
1446,0.938,37.316,9.048,32.121,22.469,7.781,6.016,9.342
1447,0.938,37.464,9.009,32.169,22.476,7.781,6.015,9.464
1448,0.919,37.542,8.974,32.14,22.469,7.7,5.974,9.383
1449,0.918,37.6,8.966,32.159,22.479,7.821,6.055,9.382
1450,0.892,37.39,8.977,32.15,22.469,7.822,6.015,9.342
1451,0.908,37.541,9.032,32.15,22.479,7.985,6.056,9.464
1452,0.925,37.658,8.986,32.159,22.48,8.068,6.137,9.505
1453,0.886,37.448,9.067,32.121,22.469,7.906,5.894,9.343
1454,0.902,37.436,8.986,32.178,22.486,8.27,6.054,9.545
1455,0.918,37.523,9.024,32.16,22.473,8.274,6.015,9.384
1456,0.909,37.619,8.974,32.15,22.469,8.233,6.056,9.423
1457,0.912,37.476,9.04,32.121,22.473,8.314,6.015,9.383
1458,0.915,37.59,9.052,32.14,22.466,8.356,6.056,9.382
1459,0.909,37.697,8.986,32.13,22.466,8.275,5.893,9.342
1460,0.915,37.803,9.052,32.14,22.476,8.518,6.054,9.382
1461,0.905,37.315,8.935,32.14,22.469,8.398,5.975,9.261
1462,0.918,37.483,9.028,32.15,22.476,8.6,6.055,9.3
1463,0.922,37.581,8.998,32.102,22.466,8.399,5.893,9.219
1464,0.925,37.658,9.013,32.14,22.472,8.519,6.014,9.381
1465,0.935,37.333,8.982,32.14,22.473,8.52,6.056,9.342
1466,0.922,37.445,9.001,32.092,22.462,8.358,5.934,9.097
1467,0.915,37.599,9.044,32.168,22.483,8.519,6.014,9.339
1468,0.886,37.601,9.048,32.121,22.469,8.317,5.974,9.219
1469,0.885,37.438,8.92,32.13,22.473,8.356,5.974,9.3
1470,0.889,37.561,8.957,32.121,22.476,8.315,5.974,9.26
1471,0.882,37.677,9.071,32.13,22.476,8.396,5.933,9.3
1472,0.879,37.736,8.978,32.13,22.473,8.316,5.892,9.301
1473,0.869,37.487,9.024,32.14,22.476,8.274,5.973,9.382
1474,0.879,37.6,9.033,32.111,22.473,8.233,5.893,9.261
1475,0.885,37.716,9.013,32.14,22.476,8.233,6.014,9.422
1476,0.879,37.727,9.001,32.121,22.469,8.111,5.893,9.261
1477,0.898,37.267,8.989,32.111,22.473,8.15,5.973,9.381
1478,0.899,37.387,9.04,32.14,22.479,8.15,6.055,9.423
1479,0.886,37.436,8.99,32.092,22.466,7.947,5.853,9.342
1480,0.915,37.561,9.071,32.13,22.479,8.108,5.973,9.423
1481,0.912,37.409,9.002,32.111,22.469,7.947,6.015,9.424
1482,0.915,37.522,8.962,32.121,22.476,7.986,6.015,9.505
1483,0.935,37.629,8.985,32.102,22.469,7.864,5.934,9.425
1484,0.931,37.381,9.024,32.121,22.476,7.944,6.055,9.546
1485,0.918,37.445,9.037,32.092,22.469,7.864,5.934,9.425
1486,0.918,37.571,8.908,32.101,22.476,7.782,6.055,9.546
1487,0.899,37.668,8.996,32.092,22.466,7.74,5.934,9.425
1488,0.902,37.285,8.935,32.12,22.483,7.781,6.096,9.546
1489,0.908,37.406,9.04,32.102,22.466,7.74,5.975,9.506
1490,0.902,37.532,9.033,32.092,22.472,7.699,5.974,9.506
1491,0.892,37.619,9.013,32.13,22.49,7.821,6.137,9.668
1492,0.886,37.256,9.052,32.073,22.466,7.537,5.894,9.426
1493,0.892,37.444,8.986,32.12,22.476,7.616,6.014,9.627
1494,0.886,37.542,8.981,32.111,22.473,7.617,5.974,9.507
1495,0.882,37.61,9.04,32.101,22.469,7.617,6.015,9.587
1496,0.879,37.361,9.025,32.082,22.476,7.454,5.934,9.466
1497,0.898,37.512,9.009,32.092,22.476,7.534,6.014,9.546
1498,0.899,37.619,8.962,32.082,22.466,7.372,6.015,9.506
1499,0.908,37.678,9.001,32.101,22.476,7.452,6.056,9.506
1500,0.915,37.228,8.97,32.082,22.466,7.33,5.975,9.465
1501,0.918,37.386,9.001,32.092,22.472,7.41,6.055,9.587
1502,0.925,37.474,9.056,32.082,22.473,7.289,6.056,9.507
1503,0.941,37.513,8.955,32.082,22.469,7.288,5.975,9.384
1504,0.945,37.293,9.028,32.12,22.486,7.41,6.177,9.545
1505,0.925,37.368,8.943,32.054,22.459,7.086,5.895,9.384
1506,0.925,37.503,9.032,32.091,22.472,7.286,5.973,9.423
1507,0.915,37.821,8.97,32.073,22.473,7.166,6.015,9.464
1508,0.909,37.239,8.974,32.082,22.473,7.246,6.056,9.505
1509,0.908,37.377,8.977,32.072,22.473,7.206,5.975,9.506
1510,0.905,37.464,9.079,32.072,22.473,7.165,5.974,9.587
1511,0.895,37.254,9.002,32.053,22.473,7.084,5.974,9.507
1512,0.905,37.3,9.048,32.072,22.479,7.164,6.055,9.546
1513,0.889,37.387,9.041,32.053,22.473,7.043,5.893,9.506
1514,0.895,37.522,8.935,32.091,22.479,7.164,5.973,9.506
1515,0.902,37.13,8.997,32.092,22.473,7.124,6.015,9.668
1516,0.902,37.232,8.982,32.053,22.466,7.043,5.934,9.426
1517,0.928,37.386,9.044,32.101,22.479,7.164,6.096,9.586
1518,0.912,37.426,8.998,32.063,22.469,7.043,5.975,9.507
1519,0.915,37.139,8.974,32.063,22.473,7.001,5.933,9.465
1520,0.935,37.27,8.946,32.072,22.476,6.96,5.974,9.424
1521,0.938,37.377,8.985,32.063,22.48,7.0,5.933,9.424
1522,0.941,37.464,8.935,32.072,22.473,6.96,5.974,9.424
1523,0.938,37.139,9.036,32.053,22.479,7.041,5.974,9.342
1524,0.938,37.251,8.978,32.072,22.473,7.001,5.933,9.219
1525,0.948,37.367,9.017,32.063,22.476,7.041,6.055,9.422
1526,0.935,37.426,8.978,32.053,22.469,7.001,5.934,9.261
1527,0.938,37.005,8.989,32.063,22.479,7.041,5.974,9.381
1528,0.935,37.125,9.079,32.063,22.476,7.082,6.055,9.505
1529,0.912,37.174,8.979,32.015,22.462,6.92,5.893,9.303
1530,0.931,37.299,9.024,32.081,22.483,7.081,6.054,9.423
1531,0.915,37.071,9.06,32.044,22.476,7.042,6.015,9.424
1532,0.922,37.212,8.963,32.043,22.476,7.082,6.015,9.464
1533,0.909,37.319,8.989,32.062,22.476,7.002,5.974,9.424
1534,0.912,37.339,9.001,32.053,22.476,7.001,6.015,9.505
1535,0.892,37.081,9.064,32.053,22.469,7.001,5.974,9.384
1536,0.895,37.231,8.912,32.053,22.469,7.041,6.015,9.423
1537,0.915,37.319,8.985,32.043,22.469,7.001,5.934,9.424
1538,0.922,37.09,8.997,32.062,22.476,7.001,6.055,9.464
1539,0.928,37.001,8.958,32.024,22.466,6.879,5.934,9.343
1540,0.938,37.135,9.032,32.043,22.469,6.959,6.014,9.545
1541,0.938,37.232,8.966,32.062,22.479,7.041,6.096,9.588
1542,0.928,37.166,9.016,32.015,22.459,6.798,5.894,9.344
1543,0.977,37.357,8.978,32.081,22.483,7.039,6.054,9.504
1544,0.945,37.445,9.017,32.005,22.469,6.92,6.056,9.384
1545,0.941,37.523,9.033,32.024,22.476,6.959,5.975,9.464
1546,0.932,36.843,9.017,32.014,22.469,6.96,6.015,9.424
1547,0.915,36.96,9.033,32.033,22.476,7.0,6.056,9.424
1548,0.915,37.115,8.962,32.014,22.469,6.96,5.975,9.342
1549,0.931,37.174,9.009,32.024,22.473,7.041,6.055,9.504
1550,0.905,37.041,8.947,32.014,22.466,7.001,5.893,9.465
1551,0.905,37.202,9.005,32.043,22.476,7.082,6.095,9.627
1552,0.902,37.271,9.044,31.995,22.476,7.042,5.975,9.507
1553,0.908,37.377,8.994,32.014,22.469,7.082,6.055,9.668
1554,0.905,36.927,8.978,32.024,22.483,7.164,6.137,9.711
1555,0.902,37.019,9.009,31.976,22.466,6.921,5.894,9.427
1556,0.912,37.183,9.056,32.043,22.483,7.122,6.136,9.668
1557,0.915,37.184,9.01,32.015,22.48,7.083,6.016,9.589
1558,0.925,36.916,8.954,32.024,22.473,7.002,6.096,9.629
1559,0.918,37.019,8.977,32.005,22.466,7.041,5.975,9.588
1560,0.918,37.135,9.048,32.024,22.476,7.001,6.015,9.629
1561,0.915,37.155,8.982,32.005,22.473,7.001,6.056,9.629
1562,0.912,36.916,9.02,32.005,22.483,7.041,6.015,9.629
1563,0.922,37.009,8.974,31.985,22.473,6.92,5.974,9.507
1564,0.925,37.144,9.028,31.995,22.479,7.0,6.096,9.587
1565,0.922,37.079,9.013,31.985,22.473,6.919,5.975,9.588
1566,0.931,36.953,9.056,31.985,22.476,6.959,6.015,9.588
1567,0.918,37.077,9.088,32.024,22.476,6.96,6.096,9.751
1568,0.886,37.145,8.983,31.976,22.466,6.797,6.016,9.59
1569,0.902,36.887,9.04,32.014,22.486,6.999,6.178,9.751
1570,0.886,36.932,8.982,31.985,22.473,6.879,6.017,9.712
1571,0.895,37.048,9.017,32.004,22.476,6.796,6.096,9.711
1572,0.905,37.126,9.001,31.976,22.473,6.795,6.056,9.752
1573,0.882,36.781,9.001,31.985,22.473,6.795,6.015,9.793
1574,0.872,36.902,9.009,32.004,22.473,6.836,5.974,9.631
1575,0.885,37.057,8.951,32.005,22.476,6.837,6.096,9.792
1576,0.882,37.106,8.962,31.976,22.469,6.755,6.016,9.671
1577,0.895,36.858,8.973,32.004,22.479,6.876,6.137,9.751
1578,0.895,36.961,9.024,31.966,22.466,6.837,6.016,9.712
1579,0.899,37.106,9.017,31.985,22.476,6.837,6.015,9.752
1580,0.918,37.184,9.005,32.004,22.48,6.958,6.137,9.752
1581,0.899,36.686,9.06,31.957,22.466,6.716,5.894,9.549
1582,0.905,36.863,9.013,32.004,22.483,6.957,6.095,9.791
1583,0.902,36.951,8.993,31.985,22.48,6.838,6.056,9.59
1584,0.908,37.0,9.021,31.985,22.473,6.877,6.097,9.629
1585,0.905,36.742,9.017,31.976,22.473,6.837,6.016,9.588
1586,0.889,36.883,8.939,31.976,22.479,6.958,6.178,9.588
1587,0.882,36.98,8.962,31.956,22.476,6.838,6.057,9.588
1588,0.889,37.029,8.985,31.985,22.483,6.837,6.137,9.71
1589,0.876,36.742,9.017,31.956,22.466,6.837,6.057,9.63
1590,0.885,36.921,9.029,31.985,22.476,6.837,6.137,9.751
1591,0.869,37.0,8.998,31.966,22.473,6.714,6.057,9.671
1592,0.876,37.25,9.052,31.956,22.483,6.876,6.178,9.751
1593,0.863,36.84,8.982,31.985,22.483,6.918,6.179,9.752
1594,0.856,36.922,8.997,31.947,22.469,6.634,6.057,9.63
1595,0.872,37.057,8.989,32.014,22.486,6.875,6.219,9.832
1596,0.863,36.79,9.005,31.966,22.473,6.755,6.098,9.672
1597,0.869,36.835,8.974,31.966,22.483,6.714,6.138,9.629
1598,0.872,36.97,8.942,31.985,22.473,6.672,6.219,9.588
1599,0.882,37.048,8.989,31.985,22.483,6.672,6.098,9.588
1600,0.882,36.569,8.864,31.966,22.48,6.631,6.056,9.466
1601,0.882,36.728,8.984,31.966,22.48,6.712,6.137,9.587
1602,0.882,36.816,9.009,31.966,22.473,6.632,6.057,9.466
1603,0.918,36.941,8.986,31.985,22.483,6.712,6.137,9.546
1604,0.905,36.597,8.962,31.947,22.473,6.551,6.098,9.425
1605,0.899,36.757,9.02,31.966,22.479,6.63,6.097,9.424
1606,0.899,36.864,9.079,31.985,22.483,6.672,6.138,9.505
1607,0.873,36.894,8.986,31.928,22.466,6.509,5.976,9.303
1608,0.889,36.673,8.919,32.004,22.486,6.67,6.177,9.504
1609,0.876,36.796,8.946,31.966,22.469,6.591,6.139,9.465
1610,0.859,36.883,9.098,31.966,22.476,6.549,6.179,9.465
1611,0.853,36.951,9.029,31.956,22.473,6.59,6.098,9.546
1612,0.846,36.856,8.994,31.966,22.476,6.59,6.097,9.506
1613,0.84,36.98,9.017,31.956,22.476,6.59,6.097,9.506
1614,0.836,37.096,8.966,31.966,22.483,6.59,6.138,9.546
1615,0.846,37.107,8.981,31.947,22.473,6.549,6.057,9.466
1616,0.859,36.627,8.985,31.966,22.479,6.63,6.178,9.546
1617,0.859,36.709,9.044,31.956,22.473,6.55,6.017,9.425
1618,0.859,36.863,8.97,31.966,22.479,6.63,6.137,9.546
1619,0.869,36.884,9.016,31.956,22.483,6.631,6.179,9.588
1620,0.853,36.664,9.075,31.927,22.466,6.509,6.057,9.425
1621,0.879,36.844,9.018,31.985,22.483,6.792,6.178,9.586
1622,0.856,36.932,9.005,31.937,22.48,6.633,6.057,9.466
1623,0.875,36.703,9.005,31.966,22.476,6.712,6.137,9.424
1624,0.859,36.691,8.978,31.966,22.473,6.754,6.098,9.424
1625,0.859,36.806,8.942,31.966,22.476,6.714,6.097,9.464
1626,0.856,36.893,9.02,31.947,22.476,6.632,6.056,9.302
1627,0.849,36.683,9.06,31.946,22.476,6.753,6.097,9.504
1628,0.846,36.777,9.033,31.937,22.469,6.632,6.056,9.384
1629,0.843,36.941,9.033,32.004,22.479,6.794,6.137,9.505
1630,0.826,37.009,8.986,31.938,22.469,6.714,6.016,9.465
1631,0.843,36.598,9.044,31.927,22.483,6.794,6.096,9.546
1632,0.856,36.776,9.002,31.985,22.487,6.958,6.26,9.628
1633,0.814,36.845,8.982,31.918,22.466,6.716,6.017,9.466
1634,0.833,36.98,9.009,31.975,22.479,6.957,6.178,9.505
1635,0.817,36.55,9.005,31.956,22.48,6.96,6.017,9.506
1636,0.826,36.708,8.993,31.937,22.48,6.96,6.137,9.506
1637,0.839,36.806,8.997,31.927,22.48,6.96,6.057,9.465
1638,0.839,36.864,9.036,31.965,22.483,7.041,6.137,9.505
1639,0.836,36.644,9.037,31.937,22.473,7.001,6.016,9.506
1640,0.849,36.795,9.076,31.966,22.476,7.041,6.096,9.546
1641,0.836,36.893,8.99,31.928,22.469,7.123,6.016,9.466
1642,0.852,36.951,9.005,31.975,22.479,7.124,6.178,9.505
1643,0.836,36.683,8.954,31.937,22.473,7.124,6.057,9.465
1644,0.859,36.825,9.016,31.937,22.473,7.205,6.097,9.424
1645,0.872,36.96,8.997,31.975,22.49,7.328,6.178,9.668
1646,0.843,36.923,8.939,31.918,22.476,7.045,5.976,9.304
1647,0.849,36.702,8.962,31.965,22.48,7.286,6.137,9.423
1648,0.827,36.806,8.989,31.947,22.473,7.288,6.138,9.424
1649,0.833,36.893,9.044,31.937,22.476,7.329,6.138,9.586
1650,0.817,36.769,8.935,31.937,22.469,7.329,5.976,9.507
1651,0.826,36.643,9.008,31.956,22.476,7.37,6.096,9.587
1652,0.813,36.738,8.993,31.937,22.469,7.37,6.016,9.466
1653,0.816,36.864,8.985,31.966,22.483,7.492,6.056,9.627
1654,0.803,36.615,8.97,31.928,22.466,7.371,6.015,9.466
1655,0.81,36.757,9.036,31.946,22.483,7.614,6.178,9.587
1656,0.807,36.845,9.076,31.946,22.476,7.617,6.057,9.629
1657,0.833,36.951,8.951,31.927,22.466,7.535,6.015,9.466
1658,0.843,36.559,9.04,32.023,22.49,7.819,6.218,9.668
1659,0.836,36.612,8.943,31.928,22.469,7.619,5.976,9.467
1660,0.852,36.766,8.989,31.937,22.479,7.698,6.096,9.546
1661,0.853,36.864,8.978,31.946,22.48,7.618,6.016,9.547
1662,0.846,36.74,9.028,31.937,22.473,7.657,6.056,9.547
1663,0.866,36.864,9.013,31.946,22.473,7.658,5.975,9.506
1664,0.866,36.999,8.993,31.927,22.479,7.698,6.055,9.506
1665,0.853,37.058,9.017,31.918,22.48,7.618,6.015,9.506
1666,0.853,36.598,8.994,31.937,22.483,7.617,6.056,9.587
1667,0.84,36.709,9.028,31.927,22.476,7.617,5.934,9.507
1668,0.849,36.854,8.947,31.956,22.483,7.617,6.096,9.668
1669,0.849,36.903,8.993,31.937,22.49,7.657,6.056,9.629
1670,0.833,36.664,9.017,31.908,22.473,7.495,5.975,9.507
1671,0.839,36.844,9.033,31.984,22.486,7.738,6.177,9.75
1672,0.833,36.884,9.001,31.918,22.476,7.618,5.976,9.59
1673,0.83,36.923,9.048,31.946,22.486,7.617,6.015,9.751
1674,0.833,36.702,9.009,31.946,22.473,7.657,6.096,9.63
1675,0.839,36.863,8.954,31.946,22.479,7.698,6.097,9.67
1676,0.843,36.942,9.008,31.937,22.476,7.618,6.016,9.67
1677,0.862,37.086,9.017,31.937,22.48,7.657,6.056,9.629
1678,0.846,36.752,9.103,31.918,22.473,7.536,5.975,9.548
1679,0.866,36.902,8.963,31.946,22.483,7.657,6.015,9.669
1680,0.879,36.98,9.005,31.937,22.473,7.658,6.015,9.629
1681,0.905,36.674,9.048,31.927,22.476,7.698,6.056,9.548
1682,0.928,36.748,9.013,31.937,22.486,7.78,6.137,9.75
1683,0.931,36.816,9.013,31.899,22.469,7.537,5.894,9.468
1684,0.954,36.96,9.052,31.946,22.479,7.697,6.095,9.546
1685,0.951,36.626,8.986,31.927,22.476,7.577,5.975,9.547
1686,0.948,36.738,8.993,31.918,22.48,7.657,6.015,9.506
1687,0.938,36.864,9.017,31.908,22.476,7.576,6.056,9.546
1688,0.932,36.951,8.978,31.927,22.473,7.616,6.097,9.466
1689,0.915,36.76,9.056,31.908,22.479,7.495,6.016,9.465
1690,0.905,36.931,9.013,31.937,22.473,7.575,6.056,9.505
1691,0.918,37.019,9.021,31.899,22.469,7.494,6.015,9.384
1692,0.905,37.106,9.025,31.927,22.479,7.534,6.137,9.464
1693,0.889,36.752,8.97,31.918,22.473,7.372,6.057,9.424
1694,0.912,36.912,9.028,31.908,22.479,7.492,6.097,9.464
1695,0.935,37.028,8.99,31.927,22.483,7.453,6.138,9.546
1696,0.918,37.039,8.978,31.889,22.473,7.249,5.976,9.262
1697,0.951,36.751,9.001,31.946,22.493,7.491,6.177,9.463
1698,0.935,36.816,8.962,31.918,22.476,7.371,6.098,9.343
1699,0.938,36.941,9.036,31.917,22.483,7.33,6.097,9.382
1700,0.964,36.99,8.994,31.917,22.473,7.289,6.056,9.342
1701,0.984,36.799,8.989,31.927,22.479,7.247,6.056,9.342
1702,0.994,36.912,9.028,31.908,22.473,7.206,6.056,9.301
1703,1.036,37.028,9.025,31.927,22.479,7.287,6.137,9.341
1704,1.056,37.125,8.955,31.879,22.48,7.125,6.016,9.26
1705,1.053,36.733,9.048,31.907,22.483,7.205,6.137,9.341
1706,1.05,36.835,8.955,31.889,22.469,7.125,6.098,9.26
1707,1.043,36.951,8.946,31.927,22.483,7.124,6.138,9.341
1708,1.05,36.76,8.997,31.937,22.493,7.287,6.179,9.504
1709,1.02,36.701,8.954,31.87,22.466,6.963,6.057,9.262
1710,1.017,36.873,9.001,31.917,22.479,7.122,6.137,9.422
1711,1.01,36.951,8.986,31.908,22.48,7.083,6.138,9.302
1712,1.004,36.741,9.075,31.898,22.48,7.164,6.138,9.463
1713,0.997,36.844,8.959,31.917,22.473,7.043,6.098,9.424
1714,0.997,36.98,9.028,31.917,22.473,7.123,6.138,9.424
1715,0.991,37.058,8.962,31.889,22.476,7.083,6.098,9.383
1716,1.01,36.723,9.048,31.908,22.483,7.123,6.138,9.464
1717,1.017,36.854,9.006,31.898,22.473,7.083,6.098,9.383
1718,1.017,36.98,8.986,31.908,22.479,7.327,6.138,9.464
1719,1.007,37.048,9.021,31.889,22.473,7.126,6.057,9.424
1720,1.004,36.656,9.06,31.898,22.476,7.246,6.137,9.464
1721,0.984,36.796,9.049,31.936,22.483,7.328,6.179,9.546
1722,0.968,36.883,8.97,31.87,22.469,7.126,5.976,9.384
1723,0.99,36.98,9.036,31.927,22.483,7.287,6.137,9.505
1724,0.955,36.732,9.017,31.946,22.48,7.207,6.098,9.425
1725,0.932,36.854,8.954,31.889,22.48,7.247,6.097,9.424
1726,0.918,36.961,9.016,31.898,22.466,7.206,6.138,9.424
1727,0.896,36.99,9.013,31.908,22.479,7.287,6.057,9.383
1728,0.873,36.665,9.06,31.898,22.476,7.288,6.056,9.382
1729,0.879,36.796,8.998,31.917,22.476,7.288,6.137,9.423
1730,0.856,36.893,9.025,31.879,22.473,7.369,6.057,9.383
1731,0.849,36.951,9.009,31.907,22.476,7.411,6.178,9.423
1732,0.836,36.808,8.962,31.889,22.476,7.371,6.057,9.342
1733,0.846,36.941,8.981,31.888,22.473,7.452,6.056,9.423
1734,0.833,37.057,9.036,31.927,22.483,7.615,6.219,9.546
1735,0.813,36.828,8.908,31.889,22.466,7.373,5.976,9.303
1736,0.826,36.749,8.957,31.898,22.479,7.573,6.055,9.423
1737,0.83,36.844,9.005,31.898,22.473,7.616,6.015,9.424
1738,0.82,36.941,9.009,31.898,22.473,7.617,6.056,9.424
1739,0.81,36.712,9.04,31.888,22.479,7.617,6.056,9.302
1740,0.82,36.834,9.041,31.898,22.48,7.698,6.056,9.341
1741,0.807,36.96,9.048,31.888,22.48,7.74,6.097,9.342
1742,0.81,37.019,8.939,31.898,22.483,7.821,6.097,9.423
1743,0.8,36.54,8.95,31.86,22.469,7.741,5.935,9.139
1744,0.813,36.699,9.036,31.888,22.476,7.862,6.014,9.339
1745,0.813,36.796,8.974,31.888,22.48,7.782,6.096,9.26
1746,0.79,36.874,9.024,31.917,22.469,7.74,5.975,9.259
1747,0.806,36.721,8.986,31.927,22.493,7.943,6.218,9.422
1748,0.781,36.796,8.97,31.87,22.473,7.823,6.017,9.22
1749,0.784,36.95,9.032,31.898,22.473,7.781,6.096,9.259
1750,0.774,37.0,9.021,31.888,22.476,7.822,6.016,9.341
1751,0.784,36.636,9.009,31.908,22.48,7.781,6.096,9.382
1752,0.774,36.757,8.986,31.879,22.476,7.74,5.975,9.261
1753,0.758,36.902,9.048,31.898,22.48,7.781,6.055,9.422
1754,0.751,36.923,8.939,31.879,22.476,7.7,6.015,9.383
1755,0.767,36.674,9.059,31.898,22.483,7.699,6.137,9.423
1756,0.757,36.777,9.06,31.869,22.466,7.618,5.976,9.302
1757,0.78,36.912,8.92,31.898,22.476,7.698,6.055,9.423
1758,0.79,36.952,8.993,31.908,22.483,7.699,6.219,9.546
1759,0.774,36.578,8.919,31.86,22.469,7.455,5.976,9.262
1760,0.793,36.737,8.977,31.926,22.479,7.696,6.137,9.463
1761,0.793,36.806,8.938,31.889,22.476,7.577,6.016,9.424
1762,0.787,36.864,9.055,31.888,22.48,7.575,6.056,9.424
1763,0.793,36.644,8.931,31.888,22.476,7.535,6.015,9.342
1764,0.813,36.805,8.997,31.888,22.469,7.575,6.096,9.423
1765,0.803,36.864,9.017,31.869,22.476,7.575,5.975,9.424
1766,0.794,36.568,9.021,31.888,22.476,7.616,6.096,9.383
1767,0.774,36.612,9.001,31.869,22.476,7.495,6.056,9.382
1768,0.777,36.776,8.927,31.869,22.48,7.697,6.097,9.545
1769,0.774,36.826,8.977,31.879,22.473,7.618,6.016,9.547
1770,0.774,36.653,9.028,31.888,22.473,7.739,6.056,9.588
1771,0.771,36.796,9.029,31.908,22.483,7.781,6.178,9.629
1772,0.761,36.902,9.029,31.86,22.469,7.659,5.895,9.507
1773,0.774,37.009,9.04,31.907,22.486,7.983,6.217,9.75
1774,0.748,36.483,9.045,31.879,22.473,7.783,6.017,9.63
1775,0.751,36.631,8.966,31.869,22.479,7.903,6.096,9.67
1776,0.757,36.757,9.032,31.898,22.48,7.904,6.097,9.629
1777,0.774,36.816,8.998,31.869,22.476,7.945,6.097,9.588
1778,0.771,36.51,9.025,31.869,22.473,7.905,6.016,9.547
1779,0.78,36.66,9.013,31.898,22.479,7.945,6.056,9.628
1780,0.78,36.767,8.982,31.86,22.476,7.945,6.015,9.548
1781,0.79,36.825,8.981,31.888,22.476,8.026,6.096,9.669
1782,0.79,36.423,8.95,31.869,22.48,7.946,5.975,9.507
1783,0.806,36.582,9.055,31.888,22.473,8.026,6.015,9.546
1784,0.813,36.689,8.982,31.888,22.49,8.109,6.178,9.669
1785,0.79,36.7,9.005,31.85,22.462,7.865,5.976,9.385
1786,0.803,36.604,8.943,31.888,22.49,8.148,6.096,9.505
1787,0.784,36.709,9.008,31.888,22.483,7.947,6.097,9.465
1788,0.78,36.806,9.052,31.879,22.48,7.986,6.056,9.546
1789,0.793,37.152,8.982,31.86,22.473,7.946,5.975,9.547
1790,0.767,36.503,9.001,31.888,22.483,7.945,6.055,9.506
1791,0.767,36.621,9.017,31.86,22.473,7.864,6.015,9.465
1792,0.767,36.738,9.068,31.898,22.483,7.863,6.056,9.505
1793,0.757,36.509,8.955,31.85,22.48,7.782,5.975,9.506
1794,0.748,36.545,9.04,31.898,22.48,7.862,6.096,9.506
1795,0.751,36.641,9.041,31.86,22.473,7.7,5.975,9.465
1796,0.767,36.738,8.927,31.888,22.473,7.699,6.015,9.505
1797,0.78,36.432,9.016,31.898,22.483,7.821,6.096,9.546
1798,0.758,36.525,8.939,31.85,22.469,7.619,5.853,9.303
1799,0.774,36.698,9.028,31.898,22.486,7.82,6.054,9.504
1800,0.771,36.739,8.986,31.869,22.48,7.741,6.015,9.384
1801,0.764,36.355,8.993,31.879,22.483,7.699,6.056,9.342
1802,0.77,36.486,9.017,31.888,22.48,7.74,6.015,9.26
1803,0.764,36.64,8.978,31.85,22.473,7.74,5.974,9.341
1804,0.774,36.7,8.997,31.859,22.479,7.659,6.015,9.219
1805,0.78,36.384,8.993,31.859,22.476,7.739,5.974,9.34
1806,0.774,36.515,8.978,31.869,22.473,7.659,5.893,9.342
1807,0.758,36.641,8.981,31.946,22.479,7.739,6.014,9.301
1808,0.748,36.68,8.966,31.87,22.466,7.659,5.934,9.26
1809,0.751,36.451,9.016,31.869,22.479,7.698,6.014,9.381
1810,0.761,36.583,8.966,31.869,22.48,7.74,6.056,9.464
1811,0.757,36.68,9.02,31.831,22.469,7.496,5.893,9.262
1812,0.78,36.786,9.013,31.888,22.493,7.778,6.095,9.381
1813,0.784,36.413,8.974,31.85,22.476,7.578,5.894,9.423
1814,0.803,36.582,8.966,31.869,22.469,7.575,6.014,9.424
1815,0.836,36.68,8.993,31.86,22.479,7.575,5.974,9.342
1816,0.859,36.69,9.071,31.859,22.476,7.454,6.015,9.301
1817,0.905,36.441,8.955,31.85,22.476,7.534,5.974,9.301
1818,0.957,36.573,9.008,31.888,22.473,7.453,5.974,9.301
1819,0.994,36.651,8.943,31.85,22.473,7.371,5.893,9.26
1820,1.043,36.517,9.02,31.878,22.476,7.492,6.014,9.341
1821,1.076,36.449,9.029,31.85,22.462,7.412,5.893,9.26
1822,1.115,36.611,9.001,31.869,22.483,7.411,6.014,9.381
1823,1.135,36.69,9.017,31.86,22.48,7.371,5.974,9.423
1824,1.177,36.182,8.954,31.85,22.466,7.33,5.974,9.18
1825,1.201,36.331,9.008,31.888,22.483,7.41,6.096,9.421
1826,1.207,36.39,8.993,31.831,22.476,7.167,5.894,9.302
1827,1.256,36.515,9.025,31.878,22.476,7.328,5.973,9.301
1828,1.289,36.305,9.04,31.86,22.476,7.207,5.974,9.301
1829,1.319,36.437,9.017,31.84,22.473,7.247,5.974,9.341
1830,1.345,36.563,9.044,31.85,22.476,7.125,5.933,9.26
1831,1.362,36.632,8.939,31.869,22.48,7.246,5.974,9.341
1832,1.346,36.287,8.993,31.85,22.48,7.125,5.974,9.301
1833,1.365,36.447,9.001,31.869,22.483,7.165,6.055,9.341
1834,1.355,36.506,9.005,31.84,22.473,7.002,5.893,9.301
1835,1.359,36.631,8.993,31.878,22.479,7.041,5.973,9.382
1836,1.368,36.278,8.943,31.85,22.473,7.042,5.933,9.301
1837,1.407,36.399,9.024,31.84,22.473,6.96,5.892,9.301
1838,1.483,36.534,9.048,31.878,22.486,7.041,6.095,9.463
1839,1.535,36.526,9.052,31.821,22.469,6.798,5.813,9.14
1840,1.617,36.305,8.982,31.869,22.486,6.958,5.932,9.339
1841,1.667,36.437,9.063,31.85,22.48,6.838,5.974,9.26
1842,1.706,36.554,8.994,31.926,22.473,6.918,5.974,9.3
1843,1.707,36.574,9.005,31.841,22.476,6.837,6.015,9.178
1844,1.684,36.267,9.04,31.859,22.48,6.837,5.974,9.259
1845,1.632,36.37,9.009,31.84,22.476,6.796,5.893,9.178
1846,1.589,36.515,9.009,31.859,22.483,6.917,6.014,9.259
1847,1.497,36.516,8.939,31.85,22.469,6.919,5.852,9.219
1848,1.386,36.363,9.028,31.859,22.483,6.919,5.932,9.34
1849,1.209,36.476,8.982,31.84,22.473,6.837,5.974,9.342
1850,1.051,36.592,9.013,31.859,22.476,6.918,6.015,9.667
1851,0.936,36.2,8.997,31.888,22.493,7.041,6.178,9.995
1852,0.814,36.187,8.997,31.85,22.469,6.92,5.976,9.958
1853,0.751,36.34,8.993,31.869,22.469,7.0,5.974,10.283
1854,0.653,36.438,8.985,31.86,22.476,7.001,6.015,10.286
1855,0.587,36.371,9.075,31.85,22.483,7.041,6.056,10.449
1856,0.547,36.534,9.002,31.84,22.476,7.042,6.015,10.654
1857,0.511,36.66,9.032,31.859,22.483,7.164,6.096,10.656
1858,0.488,36.738,8.974,31.85,22.469,7.124,5.975,10.778
1859,0.478,36.058,9.024,31.85,22.473,7.287,6.096,10.982
1860,0.481,36.176,8.947,31.85,22.473,7.247,6.016,10.862
1861,0.488,36.321,9.016,31.869,22.479,7.41,6.056,10.983
1862,0.472,36.37,9.072,31.85,22.473,7.411,6.015,10.984
1863,0.462,36.237,9.006,31.84,22.473,7.493,6.015,10.984
1864,0.455,36.408,9.025,31.888,22.486,7.697,6.178,11.106
1865,0.426,36.477,9.013,31.821,22.466,7.577,5.935,10.945
1866,0.455,36.554,9.068,31.849,22.483,7.779,6.014,11.106
1867,0.455,36.19,8.951,31.84,22.48,7.781,6.056,11.189
1868,0.475,36.331,8.993,31.859,22.473,7.944,6.056,11.23
1869,0.494,36.418,8.923,31.84,22.473,7.823,6.015,11.231
1870,0.511,36.458,8.954,31.85,22.476,7.863,6.015,11.475
1871,0.543,36.276,9.02,31.85,22.469,7.904,5.893,11.436
1872,0.58,36.389,8.994,31.85,22.473,7.945,6.014,11.68
1873,0.619,36.476,8.993,31.85,22.473,7.823,5.974,11.764
1874,0.642,36.842,8.962,31.859,22.486,8.025,6.055,12.09
1875,0.662,36.27,9.012,31.859,22.48,7.905,6.015,12.134
1876,0.678,36.379,9.075,31.85,22.473,7.863,5.974,12.215
1877,0.734,36.524,9.025,31.888,22.493,8.107,6.096,12.46
1878,0.728,36.181,9.001,31.831,22.469,7.825,5.853,12.3
1879,0.773,36.235,8.962,31.84,22.486,7.985,6.013,12.461
1880,0.79,36.322,9.044,31.84,22.476,7.946,5.934,12.503
1881,0.803,36.447,8.966,31.83,22.486,7.945,6.014,12.544
1882,0.8,36.017,9.013,31.84,22.48,7.945,5.893,12.586
1883,0.8,36.128,8.978,31.859,22.487,8.067,6.054,12.586
1884,0.816,36.263,8.978,31.821,22.473,7.946,5.975,12.423
1885,0.82,36.341,9.001,31.859,22.479,8.067,6.055,12.503
1886,0.803,36.169,8.978,31.811,22.473,7.946,5.893,12.26
1887,0.797,36.33,9.079,31.84,22.479,8.067,5.973,12.298
1888,0.794,36.438,9.014,31.869,22.476,8.028,6.055,12.298
1889,0.787,36.496,8.978,31.84,22.466,7.946,5.893,12.095
1890,0.793,36.084,9.044,31.869,22.493,8.148,6.054,12.256
1891,0.774,36.167,8.966,31.84,22.473,7.988,5.893,12.095
1892,0.774,36.311,9.013,31.84,22.479,8.027,5.933,12.052
1893,0.78,36.361,8.986,31.83,22.476,7.987,5.933,11.971
1894,0.777,36.15,9.009,31.83,22.476,7.986,5.933,11.929
1895,0.78,36.292,8.978,31.888,22.473,7.946,5.852,11.766
1896,0.78,36.389,9.001,31.812,22.479,7.945,5.891,11.846
1897,0.784,36.4,8.997,31.821,22.473,7.864,5.892,11.643
1898,0.793,36.17,9.056,31.84,22.479,7.904,5.933,11.682
1899,0.793,36.283,9.013,31.811,22.473,7.863,5.852,11.56
1900,0.813,36.428,8.993,31.849,22.486,7.944,5.932,11.559
1901,0.813,36.429,9.079,31.84,22.48,7.864,5.933,11.519
1902,0.803,36.017,8.99,31.821,22.466,7.7,5.852,11.355
1903,0.816,36.204,9.005,31.859,22.49,7.902,6.054,11.476
1904,0.813,36.235,9.025,31.811,22.469,7.701,5.893,11.233
1905,0.829,36.226,9.009,31.83,22.473,7.658,5.973,11.231
1906,0.82,36.254,8.993,31.83,22.476,7.658,5.893,11.109
1907,0.81,36.379,8.962,31.83,22.469,7.698,5.933,11.067
1908,0.797,36.476,9.016,31.811,22.479,7.699,5.892,10.985
1909,0.8,36.027,9.036,31.84,22.473,7.699,5.973,10.984
1910,0.777,36.137,9.025,31.811,22.473,7.618,5.893,10.822
1911,0.79,36.263,8.958,31.84,22.476,7.739,5.933,10.942
1912,0.78,36.331,8.993,31.802,22.469,7.618,5.892,10.74
1913,0.79,35.939,8.95,31.83,22.479,7.779,6.014,10.819
1914,0.78,36.079,9.005,31.849,22.487,7.781,6.015,10.82
1915,0.793,36.167,9.017,31.792,22.462,7.659,5.852,10.535
1916,0.816,36.292,9.009,31.868,22.479,7.861,6.013,10.655
1917,0.807,36.034,9.036,31.879,22.469,7.822,5.974,10.534
1918,0.82,36.176,8.966,31.812,22.476,7.944,5.893,10.451
1919,0.817,36.283,8.997,31.83,22.473,7.823,5.973,10.369
1920,0.823,36.341,8.978,31.849,22.473,7.944,5.974,10.409
1921,0.826,36.025,8.966,31.831,22.476,7.905,5.893,10.247
1922,0.83,36.166,9.052,31.821,22.48,7.945,5.973,10.326
1923,0.817,36.273,8.99,31.859,22.473,7.864,5.893,10.165
1924,0.836,36.341,8.989,31.85,22.483,7.985,6.014,10.244
1925,0.82,35.929,9.013,31.811,22.473,7.864,5.974,10.082
1926,0.833,36.098,9.036,31.811,22.476,7.944,5.974,10.081
1927,0.823,36.205,8.998,31.849,22.48,8.108,6.055,10.162
1928,0.804,36.216,8.974,31.802,22.473,7.825,5.934,9.878
1929,0.826,36.964,8.985,31.84,22.476,7.985,6.014,9.997
1930,0.797,37.038,8.993,31.821,22.48,7.905,5.974,9.917
1931,0.803,37.164,9.025,31.83,22.48,7.945,6.015,9.957
1932,0.794,36.455,8.974,31.811,22.48,7.864,5.974,9.876
1933,0.79,35.767,9.013,31.83,22.469,7.863,6.015,9.916
1934,0.793,35.914,8.986,31.83,22.473,7.822,5.974,9.876
1935,0.816,36.011,8.974,31.84,22.476,7.903,6.015,9.835
1936,0.807,36.051,9.052,31.811,22.476,7.742,5.934,9.672
1937,0.816,36.224,9.006,31.821,22.486,7.781,6.014,9.792
1938,0.81,36.312,8.974,31.792,22.469,7.822,5.893,9.59
1939,0.839,36.418,8.935,31.83,22.483,7.863,6.014,9.71
1940,0.843,35.911,9.067,31.83,22.476,7.985,6.096,9.67
1941,0.836,36.031,8.975,31.811,22.473,7.824,5.935,9.507
1942,0.843,36.214,9.036,31.859,22.486,8.188,6.136,9.709
1943,0.833,36.225,8.994,31.792,22.473,8.029,5.935,9.589
1944,0.849,35.967,8.962,31.82,22.476,8.19,6.055,9.425
1945,0.849,36.098,8.985,31.792,22.48,8.192,5.975,9.424
1946,0.84,36.215,9.013,31.82,22.473,8.273,6.015,9.464
1947,0.823,36.273,9.068,31.811,22.469,8.233,5.934,9.465
1948,0.836,35.89,8.971,31.821,22.476,8.273,6.014,9.424
1949,0.83,35.992,8.993,31.802,22.476,8.274,5.893,9.342
1950,0.823,36.147,8.974,31.821,22.483,8.355,6.054,9.464
1951,0.804,36.167,8.962,31.802,22.469,8.356,5.975,9.343
1952,0.816,35.985,9.005,31.821,22.473,8.315,6.015,9.464
1953,0.82,36.108,9.048,31.83,22.493,8.396,6.096,9.587
1954,0.81,36.186,9.009,31.782,22.469,8.194,5.853,9.303
1955,0.829,36.292,8.982,31.83,22.479,8.395,6.013,9.463
1956,0.813,36.034,8.997,31.802,22.473,8.316,5.974,9.383
1957,0.826,36.166,8.993,31.811,22.473,8.274,5.933,9.382
1958,0.83,36.263,9.048,31.801,22.473,8.274,5.933,9.342
1959,0.833,36.456,8.963,31.811,22.476,8.314,5.974,9.342
1960,0.839,36.074,9.009,31.801,22.469,8.274,5.893,9.301
1961,0.839,36.205,9.048,31.811,22.483,8.274,5.973,9.341
1962,0.856,36.273,8.986,31.782,22.469,8.274,5.933,9.26
1963,0.869,35.967,9.017,31.811,22.473,8.314,6.014,9.3
1964,0.863,35.954,8.994,31.792,22.473,8.234,5.893,9.219
1965,0.856,36.089,9.001,31.811,22.479,8.355,5.973,9.34
1966,0.866,36.195,8.943,31.811,22.48,8.397,5.974,9.301
1967,0.849,35.89,9.001,31.782,22.469,8.234,5.852,9.138
1968,0.859,36.059,9.091,31.839,22.493,8.436,6.054,9.339
1969,0.836,36.138,9.061,31.783,22.473,8.194,5.853,9.219
1970,0.843,36.253,9.072,31.811,22.476,8.314,5.851,9.259
1971,0.833,35.977,8.986,31.792,22.473,8.274,5.932,9.259
1972,0.836,36.127,8.997,31.811,22.483,8.233,5.974,9.259
1973,0.833,36.244,8.927,31.792,22.476,8.151,5.933,9.259
1974,0.823,36.331,8.993,31.811,22.48,8.273,5.933,9.341
1975,0.843,35.814,8.993,31.792,22.48,8.111,5.852,9.301
1976,0.846,35.982,8.966,31.811,22.48,8.232,5.973,9.26
1977,0.849,36.089,9.001,31.801,22.469,8.07,5.893,9.219
1978,0.856,36.157,8.974,31.811,22.476,8.109,5.973,9.259
1979,0.866,35.985,9.024,31.821,22.486,8.109,6.015,9.341
1980,0.853,36.098,8.962,31.83,22.469,7.865,5.812,9.138
1981,0.879,36.263,9.024,31.84,22.479,8.066,6.013,9.339
1982,0.869,36.255,8.962,31.792,22.473,7.865,5.934,9.26
1983,0.866,35.804,9.005,31.811,22.479,7.944,5.892,9.259
1984,0.879,35.914,8.966,31.801,22.48,7.823,5.892,9.219
1985,0.882,36.031,8.993,31.811,22.48,7.863,5.973,9.178
1986,0.876,36.07,9.025,31.782,22.476,7.7,5.893,9.137
1987,0.859,35.936,8.974,31.82,22.473,7.78,5.973,9.217
1988,0.856,36.04,9.02,31.773,22.466,7.618,5.852,9.096
1989,0.869,36.166,8.982,31.811,22.479,7.779,5.973,9.298
1990,0.846,36.004,9.036,31.782,22.48,7.618,5.852,9.26
1991,0.856,36.032,8.959,31.801,22.473,7.698,5.973,9.3
1992,0.853,36.185,9.012,31.821,22.486,7.699,6.015,9.423
1993,0.84,36.225,8.986,31.763,22.466,7.536,5.812,9.098
1994,0.856,35.804,8.993,31.82,22.486,7.657,5.972,9.339
1995,0.853,35.876,9.028,31.792,22.476,7.576,5.893,9.301
1996,0.853,35.973,9.001,31.811,22.473,7.657,5.973,9.301
1997,0.869,36.079,9.04,31.792,22.476,7.536,5.933,9.26
1998,0.879,35.917,8.939,31.801,22.48,7.616,5.974,9.341
1999,0.879,36.059,9.028,31.792,22.476,7.535,5.933,9.26
2000,0.892,36.176,9.044,31.792,22.48,7.616,6.014,9.341
2001,0.866,36.244,9.009,31.792,22.466,7.454,5.812,9.179
2002,0.898,35.813,9.001,31.811,22.486,7.574,5.972,9.259
2003,0.902,35.934,9.028,31.792,22.48,7.535,5.974,9.219
2004,0.905,36.05,8.998,31.792,22.473,7.412,5.893,9.137
2005,0.908,36.166,8.97,31.84,22.486,7.615,6.014,9.38
2006,0.892,35.909,8.977,31.763,22.469,7.373,5.852,9.139
2007,0.882,36.079,8.997,31.791,22.473,7.492,5.932,9.136
2008,0.879,36.176,9.036,31.801,22.476,7.412,5.974,9.177
2009,0.882,36.215,8.931,31.801,22.476,7.452,5.974,9.218
2010,0.872,35.804,8.942,31.773,22.469,7.412,5.852,9.178
2011,0.879,35.934,9.024,31.791,22.479,7.452,5.973,9.259
2012,0.885,36.04,8.986,31.792,22.473,7.29,5.933,9.137
2013,0.892,36.07,8.997,31.811,22.479,7.369,6.014,9.258
2014,0.879,35.869,9.013,31.773,22.476,7.208,5.812,9.178
2015,0.882,36.03,9.017,31.791,22.483,7.328,5.85,9.177
2016,0.885,36.137,9.005,31.811,22.483,7.37,5.973,9.218
2017,0.895,36.052,8.966,31.792,22.469,7.208,5.893,9.096
2018,0.912,35.984,9.028,31.83,22.486,7.409,5.973,9.339
2019,0.899,36.031,9.009,31.773,22.466,7.208,5.73,9.097
2020,0.905,36.166,9.017,31.791,22.469,7.206,5.931,9.136
2021,0.915,35.822,8.997,31.792,22.479,7.247,5.892,9.014
2022,0.918,35.876,9.013,31.811,22.48,7.166,5.892,9.135
2023,0.915,36.011,8.962,31.792,22.473,7.124,5.933,9.055
2024,0.925,36.128,9.032,31.792,22.476,7.124,5.933,9.135
2025,0.925,35.726,9.072,31.782,22.473,7.124,5.892,9.014
2026,0.928,35.875,8.928,31.801,22.479,7.124,5.892,9.094
2027,0.909,35.963,9.0,31.763,22.476,7.043,5.892,9.014
2028,0.915,36.079,8.954,31.801,22.48,7.123,5.973,9.176
2029,0.915,35.821,9.055,31.782,22.469,7.083,5.974,9.137
2030,0.896,35.953,8.986,31.782,22.469,7.042,5.852,9.095
2031,0.912,36.117,9.017,31.83,22.49,7.164,6.054,9.258
2032,0.886,36.129,9.029,31.773,22.469,6.921,5.853,9.137
2033,0.898,35.736,9.009,31.801,22.476,7.0,5.891,9.258
2034,0.882,35.885,9.005,31.792,22.473,6.96,5.933,9.178
2035,0.892,36.002,9.017,31.811,22.479,7.041,5.892,9.137
2036,0.905,36.032,9.056,31.801,22.473,6.96,5.933,9.177
2037,0.915,35.936,8.92,31.821,22.479,6.96,5.933,9.137
2038,0.918,36.04,9.004,31.802,22.469,6.878,5.852,9.055
2039,0.922,36.176,9.001,31.792,22.476,6.918,5.932,9.135
2040,0.925,36.168,8.95,31.782,22.473,6.837,5.811,9.095
2041,0.931,35.976,9.044,31.811,22.479,6.918,5.972,9.176
2042,0.931,36.079,9.025,31.792,22.473,6.837,5.933,9.218
2043,0.931,36.186,9.009,31.782,22.473,6.796,5.852,9.096
2044,0.948,36.35,8.962,31.82,22.493,6.999,6.054,9.258
2045,0.938,35.977,9.001,31.763,22.469,6.716,5.812,9.056
2046,0.945,36.146,8.978,31.791,22.479,6.835,5.891,9.176
2047,0.925,36.254,9.017,31.792,22.473,6.837,5.892,9.177
2048,0.922,36.14,8.923,31.82,22.483,6.796,5.973,9.177
2049,0.918,36.215,8.985,31.802,22.469,6.877,5.893,9.259
2050,0.909,36.34,9.052,31.782,22.479,6.959,5.933,9.3
2051,0.908,36.438,9.033,31.782,22.473,6.878,5.892,9.301
2052,0.905,35.978,9.017,31.811,22.479,7.04,5.973,9.382
2053,0.895,36.089,9.029,31.773,22.466,6.96,5.893,9.301
2054,0.905,36.253,9.021,31.811,22.479,7.082,5.933,9.423
2055,0.908,36.322,8.939,31.792,22.476,7.042,5.933,9.424
2056,0.905,36.227,8.989,31.782,22.469,7.042,5.811,9.261
2057,0.934,36.436,9.017,31.82,22.486,7.164,6.054,9.503
2058,0.915,36.477,9.029,31.773,22.466,7.002,5.893,9.303
2059,0.925,36.573,9.029,31.859,22.469,7.041,5.892,9.341
2060,0.925,36.239,8.994,31.802,22.483,7.082,5.933,9.301
2061,0.931,36.36,9.044,31.782,22.473,7.083,5.974,9.341
2062,0.931,36.476,8.99,31.792,22.476,7.083,5.893,9.342
2063,0.935,36.554,9.036,31.792,22.476,7.123,5.933,9.342
2064,0.935,36.325,8.974,31.772,22.473,7.002,5.811,9.342
2065,0.931,36.476,8.868,31.801,22.479,7.123,5.932,9.342
2066,0.935,36.554,8.969,31.773,22.469,7.002,5.852,9.26
2067,0.938,36.641,8.966,31.791,22.483,7.041,5.973,9.381
2068,0.919,36.469,9.055,31.782,22.48,7.042,5.852,9.342
2069,0.915,36.612,9.01,31.772,22.473,7.001,5.81,9.342
2070,0.922,36.766,9.079,31.83,22.49,7.204,6.013,9.504
2071,0.905,36.902,8.982,31.754,22.469,6.962,5.771,9.343
2072,0.908,36.616,8.989,31.782,22.479,7.082,5.891,9.423
2073,0.918,36.738,9.005,31.772,22.48,7.042,5.851,9.424
2074,0.912,36.835,8.99,31.782,22.476,7.123,5.891,9.505
2075,0.908,36.778,9.028,31.772,22.476,7.083,5.851,9.425
2076,0.912,36.835,8.959,31.791,22.48,7.164,5.891,9.424
2077,0.918,36.941,8.993,31.753,22.473,7.002,5.851,9.342
2078,0.941,37.048,8.919,31.791,22.479,7.285,5.932,9.464
2079,0.938,36.665,9.024,31.772,22.473,7.085,5.852,9.302
2080,0.945,36.824,8.982,31.791,22.479,7.205,5.891,9.382
2081,0.938,36.922,8.993,31.792,22.476,7.206,5.933,9.382
2082,0.938,36.971,9.028,31.763,22.473,7.125,5.811,9.179
2083,0.961,36.808,9.017,31.81,22.486,7.368,5.972,9.421
2084,0.948,36.883,8.99,31.763,22.473,7.167,5.811,9.18
2085,0.948,37.028,9.028,31.782,22.479,7.246,5.932,9.177
2086,0.951,37.097,9.037,31.772,22.48,7.206,5.892,9.177
2087,0.951,36.915,8.861,31.791,22.476,7.328,5.892,9.299
2088,0.938,37.0,8.945,31.772,22.476,7.289,5.892,9.219
2089,0.941,37.144,8.985,31.772,22.48,7.207,5.892,9.218
2090,0.922,37.174,8.939,31.753,22.469,7.247,5.811,9.259
2091,0.931,37.088,9.004,31.782,22.479,7.328,5.972,9.341
2092,0.931,37.193,9.017,31.753,22.466,7.248,5.893,9.26
2093,0.944,37.328,8.986,31.791,22.483,7.328,5.892,9.381
2094,0.932,37.368,8.939,31.782,22.476,7.37,5.933,9.382
2095,0.931,37.1,9.008,31.734,22.466,7.208,5.892,9.22
2096,0.935,37.279,9.075,31.791,22.486,7.409,6.054,9.422
2097,0.931,37.31,8.963,31.734,22.466,7.33,5.893,9.261
2098,0.944,37.358,8.973,31.762,22.476,7.41,5.851,9.341
2099,0.948,37.292,8.919,31.782,22.473,7.33,5.891,9.342
2100,0.954,37.396,9.02,31.763,22.479,7.37,5.892,9.382
2101,0.958,37.503,8.951,31.743,22.473,7.37,5.892,9.301
2102,0.958,37.37,9.016,31.762,22.483,7.452,5.973,9.423
2103,0.941,37.263,8.939,31.743,22.469,7.452,5.811,9.261
2104,0.964,37.415,8.993,31.772,22.476,7.452,6.013,9.381
2105,0.961,37.494,9.005,31.734,22.469,7.412,5.812,9.261
2106,0.971,37.236,9.032,31.781,22.479,7.411,6.013,9.422
2107,0.955,37.358,9.041,31.763,22.48,7.493,6.015,9.383
2108,0.954,37.426,8.923,31.763,22.469,7.331,5.852,9.261
2109,0.945,37.59,9.004,31.791,22.493,7.492,6.054,9.422
2110,0.919,37.294,8.939,31.734,22.476,7.331,5.934,9.342
2111,0.931,37.444,8.962,31.753,22.476,7.37,5.974,9.382
2112,0.918,37.561,8.977,31.753,22.473,7.411,5.933,9.342
2113,0.922,37.629,9.02,31.753,22.483,7.371,6.014,9.464
2114,0.918,37.409,9.009,31.763,22.473,7.289,5.934,9.383
2115,0.915,37.57,9.009,31.763,22.479,7.329,5.933,9.464
2116,0.899,37.677,8.99,31.743,22.476,7.329,5.933,9.343
2117,0.902,37.746,8.997,31.762,22.483,7.289,6.096,9.342
2118,0.912,37.257,9.052,31.743,22.469,7.125,5.894,9.301
2119,0.925,37.415,8.982,31.762,22.476,7.246,6.014,9.341
2120,0.925,37.522,9.005,31.753,22.48,7.206,6.015,9.342
2121,0.931,37.562,9.001,31.743,22.476,7.165,5.934,9.301
2122,0.938,37.505,9.04,31.791,22.493,7.287,6.055,9.382
2123,0.925,37.562,8.994,31.725,22.462,7.044,5.893,9.179
2124,0.948,37.706,9.056,31.772,22.483,7.123,6.054,9.259
2125,0.928,37.717,9.033,31.753,22.476,7.043,6.015,9.219
2126,0.931,37.468,8.998,31.734,22.476,7.001,5.974,9.178
2127,0.912,37.59,9.013,31.762,22.473,6.96,5.893,9.218
2128,0.905,37.687,8.986,31.753,22.473,6.96,5.933,9.259
2129,0.908,37.679,9.036,31.724,22.476,6.919,5.892,9.3
2130,0.899,37.439,8.994,31.762,22.48,6.919,6.054,9.341
2131,0.876,37.561,9.001,31.734,22.476,6.837,5.934,9.301
2132,0.882,37.648,8.993,31.734,22.48,6.877,6.014,9.382
2133,0.866,37.458,9.005,31.724,22.469,6.755,5.852,9.261
2134,0.876,37.571,9.025,31.772,22.479,6.836,5.973,9.422
2135,0.876,37.687,8.997,31.772,22.483,6.877,6.096,9.424
2136,0.856,37.755,9.021,31.724,22.466,6.715,5.813,9.18
2137,0.888,37.449,8.994,31.81,22.49,6.835,6.013,9.421
2138,0.872,37.532,8.958,31.744,22.483,6.796,5.934,9.261
2139,0.879,37.667,9.009,31.753,22.48,6.755,5.974,9.259
2140,0.882,37.698,8.97,31.763,22.48,6.795,5.893,9.3
2141,0.885,37.41,9.005,31.753,22.48,6.795,5.973,9.301
2142,0.895,37.532,8.986,31.734,22.469,6.836,5.933,9.26
2143,0.902,37.677,9.032,31.82,22.483,6.918,6.014,9.3
2144,0.892,37.698,8.939,31.725,22.473,6.878,5.934,9.097
2145,0.895,38.964,9.04,31.753,22.479,7.0,5.892,9.298
2146,0.889,39.053,9.029,31.734,22.469,6.96,5.973,9.138
2147,0.879,39.159,8.935,31.753,22.476,7.041,5.893,9.136
2148,0.872,39.227,8.993,31.772,22.486,7.123,6.014,9.299
2149,0.863,36.668,8.946,31.715,22.466,6.961,5.812,9.219
2150,0.866,36.863,9.028,31.772,22.49,7.163,6.013,9.34
2151,0.856,36.951,8.962,31.744,22.48,7.124,5.934,9.26
2152,0.859,37.0,9.071,31.743,22.48,7.083,5.892,9.3
2153,0.853,37.729,8.971,31.753,22.48,7.042,5.933,9.26
2154,0.853,37.871,8.985,31.753,22.483,7.082,5.974,9.259
2155,0.853,37.958,8.993,31.743,22.476,7.042,5.852,9.259
2156,0.856,38.285,8.982,31.753,22.483,7.123,5.973,9.3
2157,0.859,37.291,9.017,31.734,22.48,7.043,5.852,9.178
2158,0.859,37.425,8.939,31.753,22.48,7.123,6.013,9.299
2159,0.853,37.503,9.012,31.743,22.469,7.124,5.893,9.178
2160,0.859,37.37,9.025,31.753,22.483,7.083,5.892,9.218
2161,0.872,37.445,9.033,31.772,22.49,7.286,6.014,9.3
2162,0.863,37.523,9.005,31.715,22.469,7.044,5.73,9.056
2163,0.882,37.667,9.013,31.8,22.479,7.286,5.972,9.257
2164,0.879,37.429,9.029,31.753,22.469,7.125,5.933,9.137
2165,0.889,37.532,8.923,31.763,22.483,7.165,5.892,9.136
2166,0.872,37.648,8.989,31.724,22.476,7.165,5.811,9.177
2167,0.863,37.726,8.989,31.753,22.483,7.165,5.891,9.137
2168,0.862,37.276,9.017,31.753,22.473,7.124,5.811,9.136
2169,0.853,37.425,8.958,31.753,22.486,7.124,5.891,9.258
2170,0.843,37.522,8.973,31.734,22.476,7.083,5.811,9.178
2171,0.859,37.6,9.001,31.753,22.48,7.123,5.972,9.299
2172,0.84,37.265,8.989,31.743,22.473,7.043,5.771,9.219
2173,0.849,37.415,9.032,31.762,22.483,7.123,5.931,9.34
2174,0.853,37.532,8.982,31.753,22.48,7.124,5.892,9.342
2175,0.843,37.581,9.044,31.724,22.469,7.002,5.811,9.219
2176,0.853,37.419,8.955,31.801,22.483,7.163,6.013,9.422
2177,0.853,37.522,9.016,31.744,22.473,7.084,5.934,9.342
2178,0.875,37.639,9.036,31.772,22.479,7.083,5.933,9.342
2179,0.879,37.678,9.025,31.753,22.473,7.123,5.892,9.342
2180,0.879,37.295,8.99,31.753,22.479,7.165,5.892,9.382
2181,0.872,37.406,9.044,31.734,22.473,7.165,5.851,9.342
2182,0.879,37.513,9.041,31.743,22.479,7.206,5.851,9.382
2183,0.882,37.514,8.963,31.724,22.473,7.206,5.81,9.261
2184,0.895,37.332,9.059,31.753,22.479,7.287,5.891,9.381
2185,0.879,37.445,8.967,31.734,22.473,7.207,5.77,9.261
2186,0.885,37.561,9.02,31.762,22.479,7.45,5.891,9.341
2187,0.885,37.418,8.974,31.782,22.487,7.452,5.973,9.382
