time,ecg,bvp,gsr,rsp,skt,emg_zygo,emg_coru,emg_trap
0,1.063,36.108,35.921,35.75,25.589,4.905,6.015,26.095
1,1.079,36.196,35.937,35.731,25.586,4.865,5.974,26.626
2,1.102,36.225,35.902,35.741,25.579,4.702,5.893,27.282
3,1.128,36.321,35.882,35.703,25.572,4.742,5.933,28.02
4,1.122,36.447,35.831,35.693,25.568,4.783,5.892,28.556
5,1.135,36.506,35.854,35.692,25.572,4.702,5.973,28.887
6,1.142,35.528,35.874,35.702,25.572,4.701,5.893,28.931
7,1.148,35.672,35.882,35.702,25.572,4.742,5.811,29.012
8,1.155,35.789,35.846,35.693,25.575,4.701,5.85,29.135
9,1.165,35.857,35.846,35.683,25.568,4.742,5.891,29.177
10,1.148,35.8,35.846,35.692,25.575,4.742,5.933,29.381
11,1.148,35.943,35.881,35.712,25.572,4.742,5.892,29.423
12,1.132,36.069,35.893,35.702,25.575,4.742,5.933,29.424
13,1.116,36.128,35.932,35.683,25.575,4.701,5.892,29.383
14,1.122,35.716,35.921,35.692,25.572,4.782,5.892,29.22
15,1.132,35.866,35.855,35.692,25.579,4.742,5.933,28.934
16,1.145,35.992,35.858,35.702,25.579,4.742,5.933,28.687
17,1.165,36.031,35.874,35.702,25.579,4.783,5.892,28.359
18,1.187,35.84,35.917,35.693,25.582,4.702,5.973,27.909
19,1.197,35.953,35.859,35.712,25.575,4.742,5.974,27.579
20,1.175,36.089,35.815,35.702,25.579,4.742,5.974,27.047
21,1.168,36.282,35.842,35.693,25.572,4.701,5.893,26.676
22,1.184,35.862,35.846,35.683,25.575,4.66,5.892,26.51
23,1.194,35.992,35.842,35.664,25.568,4.579,5.892,26.874
24,1.201,36.099,35.85,35.654,25.565,4.7,5.892,27.569
25,1.214,35.85,35.893,35.654,25.558,4.62,5.973,28.633
26,1.204,35.905,35.843,35.673,25.571,4.659,5.974,29.497
27,1.227,36.059,35.85,35.673,25.572,4.7,5.974,29.994
28,1.25,36.157,35.854,35.683,25.572,4.701,5.974,30.283
29,1.27,35.736,35.889,35.654,25.572,4.701,6.055,30.327
30,1.267,35.866,35.921,35.682,25.575,4.701,6.015,30.205
31,1.27,35.992,35.87,35.664,25.568,4.66,6.015,30.123
32,1.254,36.06,35.796,35.683,25.575,4.7,6.015,30.203
33,1.24,35.716,35.834,35.683,25.568,4.742,6.096,30.326
34,1.253,35.866,35.834,35.702,25.572,4.701,6.056,30.612
35,1.247,35.982,35.819,35.673,25.579,4.66,6.056,30.981
36,1.257,36.051,35.873,35.654,25.579,4.7,6.015,31.269
37,1.253,35.811,35.87,35.663,25.572,4.701,5.974,31.353
38,1.25,35.962,35.839,35.663,25.568,4.701,6.055,31.435
39,1.214,36.079,35.823,35.654,25.565,4.62,5.975,31.233
40,1.24,36.128,35.858,35.663,25.572,4.619,6.015,31.15
41,1.266,35.87,35.889,35.644,25.565,4.7,6.015,31.027
42,1.257,35.982,35.921,35.663,25.568,4.66,5.974,30.863
43,1.266,36.108,35.933,35.663,25.565,4.741,6.137,30.82
44,1.286,36.119,35.921,35.673,25.572,4.701,6.138,30.657
45,1.306,35.889,35.781,35.683,25.579,4.782,6.179,30.371
46,1.319,36.05,35.853,35.683,25.579,4.824,6.179,30.124
47,1.313,36.176,35.874,35.683,25.586,4.865,6.22,29.959
48,1.326,36.148,35.913,35.702,25.589,4.906,6.22,29.754
49,1.332,35.966,35.835,35.683,25.579,4.825,6.098,29.549
50,1.339,36.098,35.866,35.683,25.575,4.783,6.138,29.181
51,1.339,36.186,35.85,35.673,25.575,4.702,6.057,29.015
52,1.339,35.985,35.846,35.654,25.568,4.701,6.097,28.972
53,1.342,36.06,35.881,35.644,25.572,4.782,6.097,29.013
54,1.319,36.176,35.87,35.654,25.575,4.783,6.056,29.094
55,1.313,36.263,35.893,35.644,25.561,4.702,6.097,28.811
56,1.303,35.948,35.819,35.654,25.578,4.782,6.138,28.564
57,1.303,36.088,35.834,35.654,25.568,4.742,6.098,28.236
58,1.293,36.224,35.862,35.663,25.579,4.742,6.056,27.826
59,1.293,36.283,35.889,35.654,25.572,4.783,6.137,27.578
60,1.29,36.217,35.886,35.635,25.575,4.783,6.098,27.698
61,1.29,36.379,35.831,35.644,25.572,4.742,6.097,28.227
62,1.299,36.496,35.823,35.644,25.575,4.742,6.097,29.534
63,1.306,36.554,35.772,35.654,25.579,4.823,6.097,31.051
64,1.293,36.171,35.849,35.635,25.579,4.865,6.138,32.815
65,1.316,36.311,35.834,35.654,25.579,4.743,6.098,34.255
66,1.319,36.389,35.897,35.663,25.579,4.823,6.138,35.205
67,1.329,36.457,35.851,35.644,25.586,4.824,6.138,35.743
68,1.339,36.381,35.866,35.644,25.579,4.865,6.016,35.951
69,1.358,36.515,35.842,35.634,25.575,4.743,6.096,35.953
70,1.346,36.631,35.897,35.634,25.575,4.701,6.016,35.75
71,1.339,36.613,35.917,35.615,25.568,4.66,5.974,35.301
72,1.329,36.44,35.886,35.605,25.568,4.7,5.893,34.727
73,1.313,36.554,35.889,35.605,25.561,4.579,5.973,33.908
74,1.309,36.641,35.839,35.567,25.565,4.7,5.893,33.087
75,1.274,36.642,35.834,35.586,25.568,4.66,5.933,32.225
76,1.26,36.632,35.838,35.605,25.579,4.7,6.055,31.159
77,1.26,36.738,35.893,35.605,25.575,4.742,6.056,30.173
78,1.276,36.864,35.89,35.615,25.568,4.823,6.015,29.187
79,1.28,36.625,35.854,35.682,25.579,4.661,6.015,28.324
80,1.263,36.747,35.846,35.625,25.575,4.7,6.056,27.38
81,1.267,36.864,35.838,35.606,25.568,4.742,6.015,26.76
82,1.26,36.932,35.893,35.596,25.572,4.742,6.015,26.348
83,1.24,36.683,35.886,35.596,25.572,4.742,5.974,26.14
84,1.25,36.786,35.897,35.605,25.572,4.742,5.933,26.016
85,1.227,36.912,35.886,35.586,25.572,4.661,6.014,26.015
86,1.214,37.0,35.862,35.586,25.565,4.7,6.015,26.056
87,1.214,36.818,35.823,35.567,25.565,4.66,6.015,26.056
88,1.214,36.979,35.873,35.576,25.565,4.66,5.974,25.853
89,1.214,37.077,35.885,35.567,25.558,4.66,5.933,25.607
90,1.208,37.145,35.811,35.576,25.568,4.66,5.974,25.36
91,1.214,36.954,35.83,35.595,25.568,4.741,6.015,25.033
92,1.204,37.077,35.834,35.567,25.575,4.742,6.056,24.582
93,1.181,37.183,35.846,35.586,25.582,4.742,6.137,24.09
94,1.162,37.252,35.854,35.596,25.582,4.823,6.179,23.597
95,1.145,37.089,35.885,35.596,25.582,4.824,6.179,22.942
96,1.139,37.222,35.886,35.586,25.586,4.905,6.179,22.325
97,1.129,37.329,35.874,35.672,25.582,4.865,6.179,21.75
98,1.119,37.349,35.827,35.606,25.582,4.784,6.098,21.134
99,1.089,37.272,35.877,35.586,25.575,4.783,6.097,20.559
100,1.086,37.377,35.897,35.567,25.568,4.702,6.097,20.106
101,1.073,37.455,35.89,35.567,25.579,4.701,6.097,19.613
102,1.069,37.341,35.847,35.557,25.575,4.742,6.097,19.202
103,1.069,37.339,35.823,35.567,25.572,4.742,6.138,18.832
104,1.056,37.464,35.787,35.567,25.579,4.701,6.138,18.544
105,1.027,37.561,35.826,35.557,25.568,4.782,6.098,18.419
106,1.023,37.217,35.885,35.567,25.575,4.702,6.097,18.255
107,1.036,37.329,35.874,35.557,25.572,4.742,6.056,18.172
108,1.017,37.454,35.772,35.576,25.572,4.742,6.097,18.13
109,1.023,37.542,35.826,35.567,25.579,4.742,6.097,18.171
110,1.02,37.284,35.869,35.567,25.579,4.742,6.097,18.659
111,1.017,37.416,35.905,35.547,25.575,4.742,6.138,19.558
112,1.01,37.532,35.929,35.557,25.579,4.742,6.138,20.665
113,0.994,37.619,35.906,35.547,25.579,4.823,6.098,21.774
114,0.997,37.476,35.89,35.557,25.579,4.824,6.097,22.639
115,0.961,37.638,35.823,35.547,25.582,4.783,6.138,23.298
116,0.955,37.755,35.854,35.547,25.575,4.824,6.057,23.874
117,0.938,37.785,35.901,35.538,25.572,4.661,6.056,24.368
118,0.919,37.545,35.882,35.518,25.565,4.7,6.015,24.82
119,0.915,37.658,35.8,35.518,25.565,4.62,5.934,25.19
120,0.899,37.774,35.818,35.518,25.561,4.7,6.055,25.397
121,0.876,37.804,35.826,35.509,25.565,4.66,6.056,25.48
122,0.879,37.507,35.811,35.518,25.568,4.7,6.097,25.603
123,0.885,37.629,35.877,35.528,25.575,4.701,6.097,25.889
124,0.882,37.755,35.866,35.528,25.565,4.66,6.138,26.461
125,0.882,38.101,35.905,35.528,25.575,4.782,6.057,27.077
126,0.869,37.606,35.804,35.537,25.568,4.783,6.097,27.652
127,0.879,37.726,35.842,35.528,25.568,4.742,6.097,27.942
128,0.882,37.804,35.87,35.509,25.568,4.661,6.056,28.149
129,0.895,37.67,35.909,35.518,25.572,4.741,6.097,28.069
130,0.886,37.726,35.874,35.499,25.565,4.742,6.056,28.15
131,0.882,37.871,35.792,35.499,25.568,4.742,6.015,28.11
132,0.869,37.949,35.791,35.508,25.572,4.701,6.096,28.028
133,0.863,37.537,35.818,35.509,25.565,4.66,6.097,27.783
134,0.853,37.658,35.811,35.499,25.565,4.7,6.056,27.415
135,0.836,37.784,35.807,35.489,25.568,4.62,6.015,27.086
136,0.826,37.843,35.885,35.48,25.575,4.7,6.056,26.514
137,0.817,37.594,35.784,35.489,25.572,4.701,6.137,26.02
138,0.829,37.745,35.846,35.489,25.572,4.742,6.219,25.365
139,0.81,37.852,35.834,35.508,25.575,4.742,6.18,24.708
140,0.807,37.929,35.893,35.528,25.579,4.783,6.261,24.091
141,0.81,37.671,35.936,35.528,25.586,4.864,6.262,23.556
142,0.823,37.832,35.894,35.537,25.582,4.865,6.262,22.982
143,0.83,37.939,35.901,35.538,25.579,4.824,6.262,22.448
144,0.813,37.978,35.866,35.547,25.575,4.824,6.221,22.117
145,0.829,37.729,35.842,35.528,25.579,4.743,6.139,21.87
146,0.826,37.852,35.834,35.499,25.572,4.783,6.098,21.745
147,0.823,37.939,35.881,35.499,25.579,4.742,6.097,21.744
148,0.81,37.95,35.866,35.499,25.572,4.661,6.097,21.581
149,0.81,37.681,35.85,35.575,25.568,4.782,6.097,21.539
150,0.833,37.793,35.823,35.509,25.572,4.783,6.138,21.417
151,0.833,37.91,35.842,35.518,25.568,4.661,6.057,21.212
152,0.82,37.901,35.885,35.509,25.575,4.7,6.137,21.048
153,0.803,37.662,35.897,35.509,25.579,4.742,6.098,20.802
154,0.813,37.784,35.874,35.489,25.572,4.742,6.138,20.596
155,0.8,37.852,35.889,35.508,25.579,4.701,6.179,20.472
156,0.803,37.565,35.843,35.499,25.572,4.782,6.22,20.227
157,0.787,37.658,35.834,35.499,25.579,4.742,6.22,20.021
158,0.79,37.774,35.869,35.499,25.575,4.701,6.18,19.857
159,0.777,37.871,35.893,35.499,25.579,4.742,6.139,19.692
160,0.784,37.537,35.827,35.489,25.579,4.823,6.179,19.528
161,0.777,37.687,35.803,35.508,25.582,4.783,6.098,19.364
162,0.787,37.794,35.838,35.509,25.568,4.702,6.097,19.199
163,0.81,37.871,35.827,35.489,25.568,4.62,6.056,18.954
164,0.797,37.546,35.819,35.46,25.565,4.619,5.975,18.87
165,0.794,37.658,35.83,35.46,25.558,4.659,6.055,18.747
166,0.793,37.755,35.881,35.46,25.565,4.66,6.097,18.543
167,0.774,37.852,35.8,35.498,25.568,4.741,6.138,18.378
168,0.767,37.527,35.857,35.489,25.572,4.701,6.057,17.97
169,0.79,37.667,35.877,35.48,25.572,4.782,6.097,17.844
170,0.819,37.774,35.889,35.489,25.572,4.702,6.138,17.558
171,0.81,37.814,35.866,35.47,25.575,4.66,6.098,17.23
172,0.807,37.478,35.835,35.479,25.568,4.7,6.138,16.983
173,0.79,37.6,35.815,35.48,25.572,4.66,6.098,16.736
174,0.784,37.697,35.772,35.48,25.565,4.66,6.097,16.531
175,0.78,37.736,35.83,35.47,25.568,4.66,6.056,16.122
176,0.767,37.497,35.842,35.46,25.565,4.66,6.097,15.874
177,0.757,37.619,35.873,35.451,25.568,4.7,6.016,15.546
178,0.757,37.716,35.772,35.47,25.565,4.66,6.015,15.299
179,0.754,37.64,35.818,35.46,25.565,4.619,6.056,15.052
180,0.751,37.515,35.803,35.451,25.568,4.619,6.056,14.765
181,0.751,37.658,35.873,35.46,25.565,4.7,6.015,14.518
182,0.77,37.726,35.897,35.479,25.579,4.66,6.137,14.272
183,0.777,37.458,35.89,35.46,25.579,4.741,6.138,14.188
184,0.79,37.58,35.901,35.489,25.582,4.864,6.219,14.025
185,0.8,37.706,35.839,35.499,25.582,4.784,6.261,13.82
186,0.807,37.784,35.877,35.518,25.582,4.742,6.18,13.574
187,0.813,37.305,35.878,35.499,25.582,4.823,6.179,13.409
188,0.82,37.416,35.893,35.489,25.579,4.743,6.057,13.204
189,0.836,37.542,35.831,35.47,25.568,4.661,6.056,13.039
190,0.826,37.591,35.846,35.451,25.572,4.7,6.097,12.916
191,0.817,37.275,35.823,35.479,25.568,4.701,6.097,12.792
192,0.816,37.425,35.826,35.46,25.568,4.742,6.056,12.71
193,0.797,37.532,35.834,35.451,25.568,4.701,6.137,12.628
194,0.807,37.6,35.854,35.479,25.575,4.742,6.098,12.505
195,0.813,37.38,35.866,35.46,25.575,4.701,6.178,12.341
196,0.784,37.503,35.839,35.451,25.572,4.742,6.139,12.299
197,0.793,37.629,35.854,35.46,25.572,4.823,6.219,12.136
198,0.803,37.668,35.846,35.46,25.575,4.743,6.22,12.093
199,0.784,37.314,35.897,35.479,25.568,4.661,6.22,12.174
200,0.787,37.445,35.893,35.47,25.575,4.741,6.261,12.338
201,0.767,37.561,35.858,35.451,25.575,4.783,6.221,12.543
202,0.783,37.562,35.807,35.47,25.579,4.783,6.302,12.87
203,0.803,37.284,35.775,35.431,25.572,4.702,6.221,13.077
204,0.826,37.387,35.822,35.45,25.568,4.66,6.139,13.363
205,0.82,37.484,35.811,35.422,25.565,4.579,6.098,13.773
206,0.826,37.283,35.857,35.412,25.561,4.537,6.138,14.265
207,0.839,37.233,35.827,35.412,25.561,4.659,6.179,15.083
208,0.843,37.377,35.838,35.45,25.572,4.66,6.22,15.945
209,0.826,37.484,35.827,35.422,25.568,4.66,6.139,16.726
210,0.82,37.063,35.858,35.45,25.572,4.619,6.219,17.547
211,0.852,37.154,35.889,35.422,25.575,4.659,6.18,18.653
212,0.81,37.27,35.897,35.421,25.568,4.66,6.22,20.412
213,0.807,37.367,35.882,35.421,25.572,4.66,6.22,22.503
214,0.8,37.062,35.878,35.421,25.579,4.782,6.22,24.842
215,0.777,37.222,35.804,35.421,25.568,4.702,6.139,26.939
216,0.784,37.338,35.818,35.412,25.568,4.62,6.219,28.545
217,0.79,37.397,35.873,35.421,25.572,4.619,6.139,29.74
218,0.8,37.004,35.878,35.393,25.568,4.619,6.098,30.484
219,0.794,37.154,35.819,35.402,25.565,4.578,6.219,30.858
220,0.8,37.27,35.826,35.383,25.568,4.659,6.139,30.78
221,0.794,37.32,35.834,35.402,25.572,4.66,6.138,30.535
222,0.793,37.052,35.858,35.392,25.565,4.66,6.219,30.085
223,0.81,37.164,35.838,35.412,25.579,4.7,6.302,29.552
224,0.813,37.299,35.866,35.421,25.579,4.782,6.262,28.897
225,0.826,37.339,35.881,35.441,25.582,4.905,6.343,28.321
226,0.846,36.965,35.796,35.45,25.582,4.825,6.343,27.746
227,0.833,37.115,35.83,35.431,25.579,4.743,6.262,27.252
228,0.843,37.222,35.873,35.412,25.572,4.742,6.18,27.044
229,0.862,37.444,35.897,35.393,25.572,4.661,6.179,27.083
230,0.84,37.12,35.862,35.392,25.572,4.7,6.22,27.164
231,0.843,37.241,35.792,35.383,25.579,4.823,6.22,27.287
232,0.839,37.358,35.834,35.421,25.568,4.743,6.302,27.37
233,0.826,36.937,35.827,35.374,25.572,4.742,6.14,27.411
234,0.807,36.904,35.826,35.402,25.575,4.701,6.219,27.33
235,0.784,37.019,35.854,35.373,25.579,4.742,6.22,27.085
236,0.8,37.106,35.889,35.392,25.575,4.742,6.18,26.676
237,0.79,37.021,35.776,35.402,25.572,4.742,6.22,26.306
238,0.793,37.154,35.838,35.392,25.579,4.701,6.261,25.855
239,0.803,37.27,35.862,35.373,25.572,4.782,6.221,25.282
240,0.797,37.358,35.889,35.354,25.575,4.783,6.22,24.707
241,0.8,36.793,35.905,35.392,25.579,4.783,6.139,24.091
242,0.803,36.912,35.866,35.383,25.579,4.742,6.219,23.475
243,0.807,37.038,35.85,35.373,25.579,4.701,6.098,22.859
244,0.816,37.116,35.792,35.363,25.579,4.66,6.138,22.284
245,0.829,36.867,35.842,35.354,25.572,4.619,6.098,21.749
246,0.813,36.999,35.827,35.363,25.568,4.578,6.016,21.338
247,0.82,37.106,35.873,35.315,25.558,4.578,6.056,21.008
248,0.826,37.155,35.788,35.334,25.565,4.659,6.056,20.68
249,0.839,36.858,35.818,35.315,25.561,4.66,6.097,20.229
250,0.836,36.989,35.819,35.334,25.572,4.7,6.097,19.818
251,0.833,37.115,35.85,35.334,25.572,4.701,6.097,19.448
252,0.826,37.126,35.889,35.344,25.572,4.701,6.097,19.038
253,0.826,36.839,35.909,35.344,25.572,4.701,6.097,18.627
254,0.839,36.96,35.929,35.354,25.572,4.62,6.097,18.257
255,0.83,37.067,35.839,35.344,25.572,4.7,6.138,17.887
256,0.813,37.231,35.834,35.334,25.579,4.701,6.016,17.64
257,0.81,36.907,35.83,35.315,25.565,4.66,6.015,17.271
258,0.8,37.009,35.889,35.315,25.568,4.66,6.056,17.064
259,0.781,37.106,35.827,35.325,25.565,4.619,6.056,16.818
260,0.79,36.781,35.85,35.373,25.558,4.7,5.975,16.572
261,0.787,36.806,35.803,35.325,25.565,4.62,6.015,16.366
262,0.793,36.951,35.818,35.315,25.565,4.578,6.056,16.08
263,0.793,37.029,35.842,35.305,25.565,4.578,6.015,15.914
264,0.787,36.819,35.858,35.305,25.575,4.7,6.056,15.912
265,0.803,36.96,35.901,35.334,25.568,4.66,6.097,15.994
266,0.816,37.086,35.815,35.334,25.582,4.741,6.178,16.076
267,0.829,37.164,35.85,35.353,25.582,4.823,6.139,16.158
268,0.846,36.657,35.842,35.344,25.582,4.824,6.219,16.159
269,0.84,36.805,35.912,35.344,25.582,4.824,6.18,16.159
270,0.843,36.903,35.87,35.325,25.572,4.743,6.098,16.281
271,0.849,36.99,35.811,35.315,25.572,4.701,6.056,16.323
272,0.827,36.77,35.791,35.315,25.568,4.701,6.137,16.364
273,0.82,36.912,35.826,35.363,25.572,4.66,6.098,16.405
274,0.82,37.028,35.819,35.315,25.568,4.66,6.138,16.405
275,0.794,37.068,35.838,35.325,25.575,4.741,6.179,16.486
276,0.8,36.579,35.877,35.305,25.568,4.701,6.179,16.528
277,0.794,36.718,35.8,35.315,25.579,4.701,6.139,16.569
278,0.813,36.815,35.826,35.305,25.582,4.701,6.098,16.651
279,0.803,36.855,35.819,35.315,25.568,4.782,6.138,16.611
280,0.81,36.73,35.881,35.305,25.579,4.702,6.179,16.61
281,0.807,36.873,35.905,35.315,25.575,4.742,6.139,16.488
282,0.813,36.98,35.851,35.296,25.579,4.742,6.138,16.447
283,0.82,36.876,35.846,35.315,25.572,4.783,6.179,16.243
284,0.813,36.664,35.791,35.315,25.579,4.702,6.179,16.078
285,0.833,36.796,35.846,35.296,25.579,4.701,6.179,15.914
286,0.823,36.893,35.85,35.296,25.572,4.742,6.179,15.709
287,0.836,36.549,35.866,35.296,25.572,4.701,6.139,15.463
288,0.839,36.67,35.811,35.286,25.565,4.66,6.057,15.095
289,0.843,36.786,35.803,35.276,25.565,4.619,6.015,14.806
290,0.859,36.845,35.826,35.257,25.561,4.537,6.015,14.6
291,0.84,36.519,35.826,35.247,25.565,4.618,5.974,14.395
292,0.817,36.631,35.865,35.257,25.565,4.659,6.096,14.312
293,0.813,36.767,35.866,35.266,25.568,4.619,6.056,14.27
294,0.803,36.845,35.905,35.276,25.565,4.659,6.056,14.229
295,0.813,36.452,35.835,35.267,25.575,4.66,6.097,14.188
296,0.803,36.621,35.827,35.267,25.572,4.66,6.097,14.106
297,0.8,36.738,35.834,35.267,25.575,4.66,6.056,14.065
298,0.803,36.768,35.877,35.257,25.572,4.66,6.097,14.024
299,0.81,36.49,35.858,35.266,25.568,4.66,6.056,13.983
300,0.81,36.602,35.784,35.267,25.568,4.66,6.015,13.901
301,0.8,36.747,35.834,35.257,25.568,4.66,6.015,13.819
302,0.8,36.768,35.807,35.266,25.565,4.7,6.056,13.655
303,0.82,36.586,35.83,35.247,25.568,4.66,6.056,13.491
304,0.813,36.709,35.815,35.257,25.565,4.619,5.975,13.408
305,0.833,36.796,35.881,35.247,25.572,4.619,6.015,13.245
306,0.82,36.807,35.819,35.247,25.568,4.659,6.015,13.162
307,0.817,36.49,35.83,35.247,25.568,4.66,6.015,12.958
308,0.826,36.621,35.846,35.238,25.572,4.619,6.015,12.996
309,0.856,36.719,35.87,35.238,25.568,4.659,5.974,13.078
310,0.827,36.576,35.874,35.238,25.572,4.7,6.055,13.201
311,0.826,36.536,35.827,35.266,25.579,4.782,6.097,13.446
312,0.826,36.689,35.811,35.286,25.589,4.824,6.219,13.773
313,0.839,36.786,35.74,35.286,25.586,4.824,6.098,14.305
314,0.839,36.356,35.826,35.276,25.582,4.743,6.138,15.083
315,0.813,36.447,35.803,35.257,25.579,4.661,6.016,16.189
316,0.79,36.563,35.85,35.247,25.579,4.7,5.974,17.298
317,0.793,36.632,35.815,35.228,25.575,4.701,6.096,18.488
318,0.793,36.412,35.85,35.247,25.572,4.701,5.975,19.435
319,0.784,36.553,35.819,35.228,25.572,4.742,6.055,20.136
320,0.784,36.68,35.854,35.237,25.575,4.742,6.097,20.671
321,0.793,36.729,35.897,35.228,25.575,4.742,6.097,21.001
322,0.797,36.422,35.886,35.237,25.575,4.701,6.056,21.249
323,0.787,36.553,35.882,35.238,25.568,4.701,6.056,21.129
324,0.777,36.66,35.846,35.228,25.575,4.701,6.097,21.006
325,0.793,36.748,35.834,35.237,25.579,4.742,6.056,20.883
326,0.8,36.355,35.807,35.228,25.572,4.742,6.056,20.597
327,0.826,36.486,35.885,35.218,25.579,4.701,6.056,20.35
328,0.839,36.621,35.854,35.247,25.579,4.782,6.056,20.063
329,0.826,36.671,35.866,35.247,25.572,4.783,6.015,19.776
330,0.843,36.489,35.807,35.218,25.575,4.742,6.015,19.813
331,0.826,36.621,35.842,35.218,25.572,4.701,5.974,19.895
332,0.826,36.728,35.858,35.199,25.565,4.62,5.893,20.343
333,0.8,36.729,35.881,35.189,25.565,4.619,5.851,21.202
334,0.787,36.269,35.882,35.18,25.565,4.578,5.851,22.43
335,0.78,36.389,35.862,35.16,25.565,4.578,5.891,23.54
336,0.771,36.505,35.838,35.179,25.565,4.7,5.973,24.527
337,0.767,36.411,35.799,35.208,25.572,4.701,6.055,25.228
338,0.774,36.458,35.869,35.208,25.575,4.701,6.056,25.763
339,0.777,36.592,35.87,35.208,25.572,4.701,6.056,26.013
340,0.784,36.67,35.815,35.218,25.565,4.701,5.975,26.056
341,0.777,36.278,35.799,35.218,25.568,4.66,6.055,26.016
342,0.79,36.418,35.822,35.199,25.565,4.66,6.015,25.934
343,0.803,36.515,35.799,35.199,25.575,4.7,5.974,25.852
344,0.81,36.602,35.807,35.189,25.572,4.66,6.015,25.648
345,0.8,36.306,35.842,35.189,25.568,4.7,5.974,25.361
346,0.797,36.447,35.873,35.18,25.565,4.66,5.974,25.033
347,0.777,36.563,35.843,35.189,25.565,4.66,5.974,24.664
348,0.784,36.651,35.815,35.17,25.568,4.66,5.974,24.172
349,0.806,36.306,35.846,35.16,25.565,4.66,5.933,23.72
350,0.813,36.437,35.885,35.16,25.568,4.619,5.974,23.268
351,0.816,36.563,35.874,35.16,25.568,4.659,5.974,22.776
352,0.813,36.603,35.819,35.17,25.565,4.66,5.933,22.283
353,0.8,36.296,35.791,35.17,25.575,4.741,6.055,21.871
354,0.797,36.447,35.787,35.179,25.579,4.742,6.056,21.42
355,0.79,36.554,35.814,35.179,25.586,4.905,6.137,20.968
356,0.79,36.622,35.854,35.189,25.582,4.865,6.138,20.557
357,0.803,36.46,35.893,35.189,25.579,4.865,6.098,20.187
358,0.803,36.592,35.811,35.199,25.579,4.784,6.097,19.696
359,0.79,36.689,35.834,35.199,25.579,4.824,6.016,19.365
360,0.771,36.988,35.834,35.18,25.572,4.702,6.015,19.118
361,0.761,36.463,35.866,35.16,25.568,4.742,6.056,18.872
362,0.77,36.583,35.885,35.15,25.568,4.742,6.015,18.625
363,0.777,36.661,35.897,35.16,25.568,4.742,6.015,18.379
364,0.79,36.316,35.866,35.15,25.579,4.742,6.015,18.173
365,0.816,36.361,35.839,35.16,25.575,4.742,6.096,18.049
366,0.813,36.495,35.807,35.16,25.572,4.701,5.975,17.967
367,0.803,36.593,35.842,35.15,25.565,4.742,5.974,17.925
368,0.803,36.383,35.858,35.15,25.575,4.742,5.974,17.884
369,0.826,36.505,35.811,35.16,25.575,4.742,6.055,17.721
370,0.813,36.641,35.826,35.15,25.575,4.742,6.056,17.679
371,0.807,36.728,35.834,35.141,25.572,4.783,6.015,17.638
372,0.803,36.25,35.838,35.16,25.582,4.783,6.015,17.719
373,0.803,36.408,35.834,35.15,25.572,4.783,6.056,17.801
374,0.794,36.505,35.858,35.141,25.568,4.783,6.056,17.802
375,0.797,36.593,35.905,35.141,25.565,4.661,6.015,17.842
376,0.777,36.363,35.796,35.122,25.565,4.7,5.974,17.883
377,0.777,36.515,35.814,35.112,25.565,4.62,5.893,17.924
378,0.777,36.622,35.834,35.093,25.561,4.537,5.933,18.047
379,0.774,36.651,35.846,35.102,25.565,4.659,5.933,18.211
380,0.754,36.402,35.838,35.112,25.561,4.66,5.974,18.253
381,0.751,36.534,35.78,35.112,25.572,4.741,5.974,18.294
382,0.754,36.651,35.763,35.131,25.568,4.661,5.933,18.335
383,0.754,36.709,35.81,35.179,25.561,4.7,6.014,18.457
384,0.77,36.432,35.803,35.122,25.575,4.742,5.974,18.621
385,0.774,36.534,35.814,35.112,25.568,4.701,5.933,18.786
386,0.787,36.651,35.854,35.121,25.565,4.742,5.933,18.95
387,0.784,36.671,35.807,35.102,25.575,4.701,5.974,19.074
388,0.78,36.422,35.803,35.102,25.572,4.701,5.893,19.725
389,0.797,36.534,35.834,35.102,25.572,4.701,5.892,20.748
390,0.8,36.622,35.862,35.083,25.568,4.701,5.973,22.263
391,0.803,36.335,35.889,35.073,25.561,4.579,5.893,23.823
392,0.794,36.428,35.823,35.092,25.568,4.659,5.892,25.14
393,0.78,36.534,35.783,35.083,25.568,4.66,5.933,26.494
394,0.79,36.631,35.744,35.083,25.561,4.66,5.974,28.093
395,0.787,36.354,35.783,35.092,25.572,4.7,5.974,30.549
396,0.797,36.476,35.787,35.083,25.568,4.782,6.055,33.745
397,0.777,36.602,35.888,35.092,25.575,4.783,5.975,37.314
398,0.754,36.709,35.808,35.111,25.579,4.824,6.096,40.562
399,0.738,36.384,35.834,35.121,25.586,4.824,6.097,42.952
400,0.734,36.524,35.842,35.121,25.579,4.905,6.138,44.399
401,0.741,36.66,35.881,35.131,25.582,4.865,6.057,45.105
402,0.747,36.719,35.913,35.121,25.582,4.784,6.015,45.356
403,0.773,36.365,35.898,35.102,25.575,4.783,6.015,45.724
404,0.767,36.495,35.917,35.092,25.565,4.702,5.974,45.931
405,0.774,36.593,35.812,35.083,25.572,4.701,6.015,45.974
406,0.793,36.642,35.834,35.083,25.568,4.782,5.974,45.73
407,0.803,36.45,35.846,35.092,25.572,4.702,5.933,45.24
408,0.813,36.592,35.866,35.092,25.575,4.782,5.933,44.706
409,0.82,36.689,35.811,35.083,25.579,4.702,6.014,44.173
410,0.826,36.738,35.834,35.092,25.575,4.742,5.893,44.086
411,0.8,36.461,35.827,35.083,25.579,4.783,5.892,44.37
412,0.787,36.583,35.842,35.073,25.579,4.742,5.892,45.023
413,0.793,36.689,35.862,35.073,25.579,4.742,5.933,45.883
414,0.787,36.585,35.881,35.073,25.582,4.823,5.933,46.543
415,0.758,36.498,35.87,35.083,25.579,4.661,5.974,46.874
416,0.754,36.631,35.792,35.083,25.582,4.782,5.974,46.553
417,0.77,36.738,35.826,35.083,25.579,4.661,5.974,46.061
418,0.767,36.365,35.842,35.073,25.572,4.66,5.852,45.121
419,0.777,36.457,35.854,35.063,25.565,4.619,5.729,44.014
420,0.771,36.583,35.799,35.044,25.561,4.619,5.727,42.783
421,0.748,36.661,35.791,35.044,25.561,4.578,5.809,41.551
422,0.78,36.393,35.791,35.034,25.568,4.659,5.85,40.197
423,0.8,36.553,35.81,35.053,25.572,4.7,5.851,38.923
424,0.81,36.68,35.818,35.063,25.575,4.701,5.851,37.609
425,0.833,36.777,35.881,35.063,25.568,4.742,5.891,36.336
426,0.83,36.365,35.87,35.044,25.579,4.661,5.851,35.307
427,0.843,36.524,35.854,35.14,25.575,4.7,5.851,34.402
428,0.862,36.631,35.835,35.054,25.568,4.701,5.81,33.905
429,0.879,36.68,35.854,35.044,25.568,4.701,5.85,33.738
430,0.859,36.441,35.854,35.054,25.568,4.66,5.769,33.736
431,0.843,36.582,35.827,35.025,25.572,4.66,5.728,33.736
432,0.839,36.709,35.807,35.025,25.565,4.7,5.768,33.899
433,0.836,36.729,35.764,35.034,25.572,4.579,5.768,33.859
434,0.817,36.432,35.818,35.053,25.561,4.618,5.768,34.266
435,0.803,36.544,35.811,35.034,25.561,4.659,5.809,34.676
436,0.813,36.67,35.838,35.025,25.572,4.741,5.85,35.128
437,0.813,36.681,35.85,35.053,25.575,4.742,5.891,35.335
438,0.813,36.499,35.834,35.111,25.579,4.742,5.892,35.378
439,0.82,36.65,35.823,35.064,25.582,4.823,6.014,35.175
440,0.813,36.767,35.842,35.073,25.586,4.824,6.056,34.807
441,0.859,36.557,35.881,35.063,25.586,4.865,5.975,34.438
442,0.895,36.526,35.87,35.073,25.586,4.784,5.893,34.149
443,0.944,36.65,35.889,35.044,25.572,4.742,5.811,34.106
444,0.954,36.738,35.843,35.044,25.579,4.742,5.85,34.187
445,0.906,36.288,35.795,35.044,25.572,4.701,5.851,34.106
446,0.934,36.418,35.83,35.034,25.572,4.782,5.891,33.943
447,0.971,36.515,35.862,35.044,25.572,4.661,5.851,33.779
448,0.984,36.602,35.85,35.044,25.579,4.7,5.932,33.492
449,0.974,36.344,35.831,35.006,25.572,4.701,5.933,33.205
450,0.994,36.486,35.826,35.034,25.579,4.701,5.892,32.633
451,1.02,36.612,35.83,35.034,25.575,4.782,5.892,32.058
452,0.994,36.661,35.854,35.034,25.572,4.742,5.892,31.442
453,0.961,36.412,35.87,35.034,25.572,4.701,5.933,30.786
454,0.899,36.563,35.913,35.025,25.568,4.742,5.933,30.169
455,0.86,36.689,35.89,35.015,25.572,4.742,5.974,29.472
456,0.879,36.748,35.835,35.024,25.575,4.742,5.933,28.814
457,0.872,36.375,35.834,35.044,25.579,4.783,5.974,28.157
458,0.885,36.515,35.869,35.034,25.579,4.742,5.974,27.459
459,0.898,36.622,35.87,35.025,25.575,4.742,5.974,26.924
460,0.905,36.661,35.803,35.005,25.565,4.62,5.852,26.553
461,0.905,36.383,35.814,34.996,25.568,4.537,5.891,26.305
462,0.895,36.505,35.791,34.996,25.561,4.537,5.892,26.221
463,0.912,36.621,35.771,34.986,25.565,4.577,5.892,26.18
464,0.882,36.901,35.806,34.995,25.565,4.578,5.973,26.139
465,0.885,36.395,35.834,34.986,25.572,4.74,5.933,25.976
466,0.892,36.534,35.854,35.005,25.572,4.701,5.974,25.933
467,0.882,36.651,35.842,35.005,25.579,4.66,5.974,26.624
468,0.866,36.402,35.823,35.005,25.565,4.66,5.933,28.054
469,0.866,36.429,35.858,35.015,25.572,4.66,5.974,29.898
470,0.892,36.544,35.874,34.996,25.572,4.66,5.974,31.584
471,0.889,36.641,35.843,35.005,25.572,4.66,5.974,33.186
472,0.912,36.335,35.772,34.996,25.572,4.66,5.974,35.316
473,0.908,36.457,35.783,34.986,25.575,4.66,5.933,37.94
474,0.889,36.583,35.748,35.024,25.572,4.66,5.933,40.812
475,0.892,36.67,35.794,34.986,25.572,4.619,5.892,43.483
476,0.882,36.297,35.834,35.005,25.568,4.659,5.933,45.868
477,0.876,36.418,35.827,34.986,25.572,4.66,5.892,48.25
478,0.892,36.544,35.78,35.005,25.568,4.66,5.973,50.754
479,0.895,36.612,35.81,34.986,25.568,4.619,5.974,53.056
480,0.886,36.364,35.826,34.986,25.575,4.7,5.974,55.478
481,0.889,36.486,35.865,34.995,25.572,4.66,6.015,59.039
482,0.938,36.612,35.885,35.015,25.582,4.782,6.096,64.604
483,0.941,36.68,35.878,35.024,25.582,4.824,6.097,71.043
484,0.932,36.249,35.87,35.025,25.586,4.824,6.097,75.987
485,0.974,36.389,35.807,35.044,25.586,4.824,6.138,80.386
486,0.955,36.534,35.834,35.044,25.582,4.824,6.098,87.911
487,0.896,36.564,35.846,35.015,25.579,4.743,6.016,99.493
488,0.847,36.363,35.854,35.015,25.582,4.742,6.015,113.88
489,0.814,36.486,35.815,34.996,25.579,4.701,5.974,129.27
490,0.797,36.602,35.818,35.015,25.586,4.742,6.055,143.736
491,0.787,36.738,35.815,35.034,25.586,4.742,6.015,154.736
492,0.777,36.384,35.838,34.996,25.582,4.742,6.015,160.944
493,0.745,36.515,35.854,35.024,25.586,4.823,6.015,162.51
494,0.712,36.631,35.885,35.015,25.586,4.783,6.056,161.387
495,0.702,36.268,35.866,35.005,25.579,4.783,6.015,159.587
496,0.695,36.341,35.839,35.005,25.582,4.783,6.096,157.78
497,0.688,36.457,35.807,35.015,25.582,4.783,6.056,156.664
498,0.698,36.564,35.846,35.024,25.582,4.783,6.056,157.466
499,0.737,36.239,35.873,35.005,25.586,4.824,6.097,158.979
500,0.767,36.389,35.831,35.015,25.582,4.824,6.016,158.994
501,0.77,36.515,35.76,35.024,25.582,4.824,6.096,156.514
502,0.806,36.602,35.818,35.072,25.582,4.783,5.975,152.504
503,0.862,36.335,35.799,34.996,25.568,4.702,5.974,148.642
504,0.898,36.447,35.811,34.976,25.572,4.66,5.893,145.757
505,0.892,36.554,35.799,34.986,25.565,4.66,5.851,142.883
506,0.928,36.612,35.861,34.948,25.568,4.66,5.932,139.195
507,0.935,36.22,35.799,34.995,25.568,4.66,6.014,135.946
508,0.909,36.398,35.811,34.996,25.579,4.7,6.015,135.71
509,0.866,36.496,35.838,34.996,25.575,4.66,5.974,138.961
510,0.879,36.554,35.869,34.996,25.579,4.741,5.974,144.32
511,0.879,36.2,35.874,34.986,25.575,4.783,6.015,149.415
512,0.84,36.35,35.846,34.986,25.579,4.742,5.974,152.515
513,0.8,36.467,35.811,34.986,25.582,4.742,6.015,152.79
514,0.794,36.487,35.799,34.986,25.582,4.701,5.934,150.272
515,0.745,36.19,35.818,34.995,25.575,4.742,5.974,146.912
516,0.731,36.321,35.819,34.996,25.572,4.661,5.974,144.399
517,0.734,36.418,35.858,34.967,25.579,4.741,5.974,143.235
518,0.741,36.438,35.799,34.986,25.575,4.701,5.893,142.532
519,0.796,36.333,35.811,34.967,25.575,4.66,5.933,141.468
520,0.813,36.486,35.791,34.986,25.568,4.66,5.933,139.303
521,0.807,36.564,35.834,34.967,25.575,4.741,5.974,135.541
522,0.797,36.143,35.866,34.976,25.575,4.701,5.974,130.827
523,0.781,36.234,35.909,34.967,25.575,4.782,5.974,125.698
524,0.728,36.36,35.886,34.986,25.586,4.824,6.055,120.727
525,0.725,36.447,35.866,34.986,25.589,4.946,6.056,116.408
526,0.832,36.199,35.85,34.986,25.586,4.825,6.097,112.706
527,0.872,36.321,35.842,35.005,25.593,4.865,6.097,109.62
528,0.876,36.447,35.901,34.996,25.586,4.784,6.016,107.231
529,0.918,36.487,35.827,34.986,25.575,4.742,5.974,106.068
530,0.951,36.151,35.819,34.995,25.572,4.742,5.974,105.65
531,1.01,36.321,35.795,34.957,25.579,4.742,5.974,105.646
532,1.03,36.409,35.803,34.957,25.575,4.742,6.015,105.565
533,1.066,36.477,35.807,34.976,25.579,4.783,6.015,104.792
534,1.043,36.247,35.826,34.947,25.582,4.742,6.015,102.995
535,1.011,36.37,35.865,34.947,25.579,4.701,6.056,101.472
536,0.906,36.476,35.823,34.947,25.575,4.66,6.056,101.782
537,0.85,36.535,35.85,34.947,25.579,4.741,6.056,104.916
538,0.807,36.114,35.823,34.938,25.586,4.742,6.056,110.03
539,0.738,36.234,35.85,34.947,25.582,4.742,6.056,115.001
540,0.738,36.35,35.858,34.938,25.579,4.783,6.097,118.019
541,0.741,36.38,35.827,34.947,25.582,4.702,6.097,119.309
542,0.731,36.15,35.776,34.928,25.589,4.742,6.138,120.379
543,0.777,36.282,35.763,34.937,25.586,4.742,6.057,120.715
544,0.784,36.399,35.806,34.918,25.575,4.701,6.097,119.458
545,0.813,36.227,35.799,34.928,25.572,4.66,6.016,116.599
546,0.732,36.168,35.85,34.909,25.568,4.66,5.974,112.748
547,0.689,36.292,35.85,34.899,25.568,4.66,5.974,109.051
548,0.662,36.389,35.819,34.889,25.565,4.579,5.974,106.778
549,0.682,35.93,35.803,34.87,25.568,4.659,6.055,106.389
550,0.659,36.012,35.842,34.879,25.572,4.741,6.056,106.141
551,0.649,36.156,35.866,34.899,25.579,4.783,6.097,104.96
552,0.652,36.254,35.885,34.889,25.579,4.702,6.016,102.712
553,0.662,36.015,35.854,34.889,25.575,4.782,6.096,99.64
554,0.678,36.147,35.854,34.889,25.572,4.661,6.056,96.072
555,0.672,36.273,35.749,34.879,25.572,4.7,6.056,92.336
556,0.656,36.341,35.818,34.879,25.572,4.701,6.056,88.681
557,0.662,36.006,35.834,34.86,25.572,4.742,6.097,86.001
558,0.678,36.137,35.862,34.85,25.568,4.661,6.016,84.673
559,0.695,36.273,35.768,34.879,25.575,4.66,6.015,84.01
560,0.701,36.341,35.802,34.851,25.568,4.619,6.056,83.556
561,0.695,35.891,35.799,34.841,25.572,4.659,6.056,83.674
562,0.731,36.03,35.814,34.85,25.565,4.66,5.975,83.512
563,0.734,36.128,35.85,34.841,25.568,4.741,6.015,82.453
564,0.747,36.167,35.87,34.831,25.575,4.742,6.096,80.898
565,0.728,35.918,35.889,34.85,25.572,4.742,6.138,78.93
566,0.692,36.079,35.804,34.869,25.582,4.783,6.138,76.959
567,0.669,36.215,35.826,34.87,25.579,4.824,6.219,74.988
568,0.584,36.245,35.846,34.86,25.589,4.824,6.18,73.423
569,0.534,36.13,35.897,34.86,25.586,4.824,6.139,71.619
570,0.557,36.263,35.827,34.85,25.579,4.743,6.098,69.649
571,0.576,36.379,35.764,34.831,25.579,4.742,6.016,67.881
572,0.541,35.978,35.798,34.812,25.568,4.742,6.056,66.44
573,0.557,35.945,35.787,34.821,25.572,4.701,6.097,66.263
574,0.573,36.069,35.803,34.802,25.575,4.782,6.056,68.864
575,0.59,36.157,35.811,34.812,25.579,4.702,6.056,74.663
576,0.557,35.908,35.857,34.792,25.575,4.742,6.137,81.715
577,0.567,36.04,35.78,34.802,25.579,4.742,6.016,87.6
578,0.573,36.166,35.818,34.773,25.575,4.742,6.056,91.277
579,0.492,36.273,35.819,34.782,25.582,4.742,6.097,92.858
580,0.56,35.862,35.861,34.773,25.572,4.783,6.056,93.931
581,0.557,36.011,35.885,34.782,25.579,4.783,6.097,95.405
582,0.541,36.128,35.85,34.763,25.579,4.783,6.056,97.412
583,0.593,36.205,35.815,34.754,25.575,4.742,6.097,99.14
584,0.626,35.89,35.764,34.754,25.579,4.823,6.056,99.808
585,0.645,36.04,35.81,34.744,25.579,4.702,6.056,99.53
586,0.659,36.166,35.807,34.734,25.579,4.823,6.015,100.503
587,0.711,36.187,35.85,34.705,25.572,4.702,5.934,103.196
588,0.682,35.842,35.756,34.686,25.565,4.66,5.892,106.476
589,0.692,35.972,35.798,34.676,25.565,4.66,5.973,108.582
590,0.701,36.079,35.814,34.667,25.568,4.66,6.015,108.969
591,0.688,36.109,35.838,34.666,25.579,4.741,6.015,108.037
592,0.672,35.831,35.85,34.666,25.579,4.701,6.015,106.971
593,0.649,35.953,35.85,34.657,25.575,4.742,6.015,106.025
594,0.698,36.069,35.854,34.647,25.582,4.701,6.015,105.243
595,0.727,36.397,35.764,34.637,25.568,4.782,6.056,107.228
596,0.721,35.949,35.798,34.618,25.575,4.783,6.015,112.167
597,0.747,36.098,35.853,34.608,25.575,4.702,5.974,117.137
598,0.741,36.186,35.846,34.599,25.579,4.701,5.974,119.951
599,0.751,35.803,35.764,34.599,25.572,4.742,6.015,120.914
600,0.728,35.838,35.795,34.579,25.572,4.742,5.974,122.346
601,0.78,35.972,35.814,34.56,25.572,4.742,5.974,126.833
602,0.81,36.05,35.822,34.56,25.568,4.701,6.015,134.075
603,0.794,35.783,35.877,34.541,25.579,4.782,6.056,142.279
604,0.819,35.924,35.885,34.541,25.572,4.824,6.137,148.419
605,0.862,36.06,35.897,34.541,25.579,4.905,6.179,150.838
606,0.849,36.186,35.808,34.56,25.586,4.906,6.22,151.187
607,0.862,35.727,35.834,34.522,25.589,4.906,6.261,154.484
608,0.898,35.866,35.877,34.54,25.593,4.947,6.18,162.527
609,0.925,35.982,35.874,34.521,25.582,4.866,6.179,170.861
610,0.931,36.051,35.8,34.483,25.582,4.824,6.179,175.132
611,0.831,35.898,35.807,34.473,25.586,4.865,6.22,176.516
612,0.849,36.002,35.783,34.454,25.579,4.865,6.139,179.864
613,0.827,36.137,35.799,34.425,25.582,4.824,6.138,188.313
614,0.895,36.167,35.822,34.444,25.582,4.865,6.179,200.474
615,0.918,35.774,35.858,34.405,25.582,4.865,6.22,211.37
616,0.974,35.914,35.885,34.415,25.575,4.865,6.139,216.683
617,0.981,36.031,35.823,34.424,25.586,4.824,6.138,216.411
618,0.955,36.061,35.807,34.405,25.586,4.865,6.138,212.829
619,0.912,35.831,35.854,34.376,25.586,4.865,6.138,208.321
620,0.964,35.991,35.874,34.376,25.586,4.824,6.179,204.291
621,1.062,36.079,35.854,34.347,25.586,4.865,6.22,200.144
622,1.021,36.071,35.803,34.318,25.586,4.865,6.22,195.305
623,0.965,35.821,35.764,34.318,25.586,4.865,6.139,189.931
624,0.994,35.943,35.744,34.308,25.593,4.865,6.138,183.778
625,1.023,36.05,35.771,34.299,25.586,4.824,6.138,176.398
626,1.098,35.764,35.845,34.279,25.586,4.743,6.098,168.274
627,1.112,35.828,35.831,34.241,25.579,4.742,6.056,160.346
628,1.154,35.934,35.772,34.231,25.565,4.701,6.015,153.111
629,1.178,36.012,35.799,34.192,25.565,4.66,6.015,146.249
630,1.214,35.696,35.811,34.183,25.575,4.782,6.096,139.878
631,1.276,35.846,35.873,34.202,25.575,4.824,6.097,134.326
632,1.341,35.992,35.87,34.164,25.579,4.783,6.138,129.229
633,1.397,36.051,35.862,34.173,25.575,4.742,6.057,123.852
634,1.395,35.831,35.835,34.163,25.572,4.742,6.056,118.391
635,1.378,35.972,35.784,34.144,25.572,4.783,6.056,112.888
636,1.212,36.098,35.81,34.125,25.575,4.783,6.015,107.791
637,1.12,36.148,35.83,34.105,25.575,4.783,6.056,103.39
638,1.037,35.697,35.85,34.105,25.572,4.742,6.056,99.321
639,0.867,35.846,35.799,34.095,25.568,4.701,6.056,96.109
640,0.674,35.963,35.807,34.076,25.568,4.701,6.015,93.638
641,0.503,36.012,35.799,34.057,25.565,4.66,5.974,91.418
642,0.371,35.763,35.826,34.047,25.565,4.66,6.015,89.2
643,0.314,35.885,35.823,34.028,25.572,4.741,6.056,86.657
644,0.187,35.992,35.838,34.018,25.579,4.783,6.137,83.785
645,0.121,36.031,35.842,34.037,25.582,4.824,6.138,80.504
646,0.13,35.85,35.795,34.037,25.582,4.865,6.179,77.015
647,0.136,35.992,35.81,34.028,25.593,4.865,6.22,73.403
648,0.136,36.07,35.834,34.037,25.586,4.865,6.139,69.951
649,0.221,35.898,35.889,34.009,25.582,4.865,6.138,66.868
650,0.228,35.752,35.823,33.979,25.579,4.743,6.057,64.519
651,0.248,35.876,35.776,33.979,25.575,4.783,5.975,63.927
652,0.245,35.963,35.802,34.017,25.575,4.702,6.096,65.425
653,0.242,35.782,35.783,33.932,25.565,4.742,6.056,68.002
654,0.245,35.895,35.803,33.931,25.579,4.742,5.975,70.182
655,0.232,36.002,35.799,33.902,25.572,4.783,6.096,71.465
656,0.267,36.089,35.853,33.911,25.572,4.824,6.056,72.006
657,0.349,35.726,35.784,33.902,25.579,4.783,6.056,71.93
658,0.431,35.866,35.81,33.892,25.579,4.824,6.097,71.604
659,0.484,35.963,35.811,33.892,25.575,4.783,6.056,72.576
660,0.582,36.07,35.873,33.883,25.575,4.783,6.056,76.246
661,0.684,35.764,35.858,33.882,25.579,4.783,6.056,82.666
662,0.737,35.895,35.835,33.863,25.572,4.824,6.056,90.577
663,0.783,36.002,35.811,33.873,25.582,4.824,6.097,97.934
664,0.819,36.051,35.799,33.854,25.582,4.865,6.056,103.049
665,0.836,35.85,35.807,33.834,25.582,4.824,6.056,106.474
666,0.839,35.982,35.811,33.834,25.579,4.824,6.056,109.721
667,0.836,36.089,35.85,33.834,25.579,4.783,6.056,112.68
668,0.865,36.109,35.799,33.805,25.579,4.783,5.975,114.214
669,0.902,35.783,35.787,33.776,25.575,4.783,5.974,113.66
670,0.912,35.885,35.803,33.757,25.572,4.702,6.015,111.581
671,0.938,35.982,35.811,33.737,25.568,4.66,5.934,110.218
672,0.915,35.974,35.83,33.737,25.561,4.741,5.974,111.872
673,0.915,35.859,35.862,33.737,25.575,4.783,6.015,116.117
674,0.915,35.982,35.858,33.728,25.582,4.824,6.015,121.486
675,0.889,36.108,35.835,33.737,25.579,4.783,6.056,125.89
676,0.859,35.898,35.823,33.718,25.572,4.783,6.015,127.804
677,0.849,35.839,35.826,33.718,25.572,4.783,6.015,129.368
678,0.849,35.944,35.838,33.699,25.579,4.824,5.934,132.677
679,0.83,36.021,35.83,33.689,25.582,4.783,6.055,136.572
680,0.833,35.83,35.733,33.718,25.579,4.824,5.975,138.685
681,0.878,35.943,35.798,33.699,25.575,4.824,6.015,138.543
682,0.931,36.05,35.814,33.66,25.568,4.824,6.015,138.826
683,0.997,36.157,35.811,33.641,25.575,4.824,5.974,142.529
684,0.978,35.765,35.834,33.64,25.579,4.743,5.893,148.34
685,0.899,35.885,35.842,33.631,25.572,4.742,5.973,152.83
686,0.879,35.992,35.827,33.621,25.568,4.742,6.055,154.541
687,0.872,36.07,35.826,33.621,25.579,4.823,5.975,156.469
688,0.807,35.831,35.807,33.611,25.582,4.824,6.055,160.148
689,0.781,35.963,35.842,33.611,25.575,4.783,6.056,164.454
690,0.803,36.089,35.854,33.611,25.582,4.905,6.219,167.506
691,0.816,36.157,35.799,33.631,25.586,4.947,6.18,167.577
692,0.856,35.87,35.768,33.621,25.589,5.069,6.098,164.65
693,0.862,35.992,35.763,33.621,25.589,4.908,6.138,159.457
694,0.833,36.127,35.806,33.592,25.582,4.784,5.976,153.712
695,0.865,36.148,35.803,33.563,25.572,4.783,6.055,149.264
696,0.846,35.832,35.83,33.544,25.575,4.783,5.975,145.52
697,0.856,35.972,35.838,33.524,25.579,4.824,5.974,141.376
698,0.888,36.079,35.799,33.543,25.572,4.824,6.055,136.537
699,0.915,36.368,35.803,33.534,25.579,4.824,6.056,131.081
700,0.912,35.987,35.83,33.505,25.575,4.824,5.975,125.781
701,0.925,36.098,35.865,33.514,25.575,4.824,6.015,121.5
702,0.915,36.196,35.881,33.505,25.582,4.824,5.974,118.774
703,0.85,35.899,35.815,33.495,25.582,4.905,6.015,115.901
704,0.853,35.915,35.803,33.476,25.575,4.825,6.015,112.335
705,0.882,36.05,35.76,33.495,25.579,4.783,6.056,109.169
706,0.898,36.147,35.806,33.466,25.582,4.824,6.056,110.763
707,0.912,35.832,35.826,33.457,25.575,4.824,6.015,120.375
708,0.951,35.972,35.83,33.457,25.579,4.824,6.056,137.06
709,0.984,36.108,35.784,33.476,25.575,4.783,6.015,156.54
710,0.965,36.167,35.799,33.418,25.568,4.742,5.893,173.445
711,0.912,35.88,35.807,33.399,25.568,4.783,5.933,183.819
712,0.892,36.03,35.834,33.389,25.568,4.783,5.974,187.622
713,0.928,36.137,35.854,33.379,25.572,4.783,5.974,186.196
714,0.944,36.206,35.85,33.398,25.579,4.824,5.974,181.18
715,0.909,35.784,35.866,33.379,25.575,4.824,6.055,173.73
716,0.821,35.943,35.772,33.389,25.582,4.783,6.015,165.036
717,0.83,36.079,35.814,33.379,25.579,4.783,6.015,155.638
718,0.849,36.109,35.846,33.36,25.579,4.824,5.974,146.193
719,0.866,36.052,35.866,33.35,25.575,4.824,6.015,137.316
720,0.833,36.185,35.811,33.321,25.572,4.743,5.974,130.275
721,0.852,36.292,35.779,33.35,25.575,4.823,6.015,126.424
722,0.892,36.322,35.791,33.312,25.579,4.743,5.934,126.304
723,0.918,35.958,35.775,33.311,25.572,4.783,5.974,128.824
724,0.886,36.108,35.787,33.283,25.572,4.783,5.974,133.444
725,0.885,36.186,35.795,33.282,25.568,4.702,5.933,142.435
726,0.895,36.302,35.842,33.292,25.568,4.823,6.014,155.942
727,0.915,35.9,35.78,33.282,25.579,4.783,5.974,170.837
728,0.944,36.04,35.818,33.282,25.582,4.946,6.015,182.41
729,0.945,36.147,35.815,33.273,25.586,4.907,6.096,187.933
730,0.915,35.908,35.873,33.282,25.589,4.987,6.178,188.394
731,0.918,36.021,35.866,33.273,25.593,5.029,6.179,185.756
732,0.941,36.137,35.866,33.273,25.593,4.989,6.139,182.192
733,0.964,36.244,35.842,33.273,25.586,4.988,6.098,178.334
734,0.945,35.881,35.791,33.253,25.579,4.907,6.056,173.986
735,0.912,36.002,35.775,33.224,25.582,4.865,5.975,168.982
736,0.873,36.099,35.802,33.205,25.579,4.865,6.015,163.281
737,0.911,36.186,35.853,33.214,25.579,4.865,6.096,157.247
738,0.925,35.909,35.795,33.186,25.582,4.906,5.975,151.617
739,0.909,36.05,35.807,33.195,25.582,4.825,6.055,146.966
740,0.889,36.176,35.779,33.166,25.575,4.865,6.015,142.773
741,0.908,36.215,35.834,33.166,25.579,4.946,5.974,138.38
742,0.934,35.89,35.85,33.147,25.586,4.825,5.933,133.498
743,0.935,36.03,35.881,33.166,25.579,4.865,5.974,128.367
744,1.042,36.137,35.886,33.147,25.582,4.906,6.015,124.778
745,1.164,36.186,35.835,33.147,25.579,4.906,6.015,125.922
746,1.201,35.957,35.834,33.137,25.575,4.906,6.015,132.967
747,1.263,36.089,35.795,33.137,25.586,4.987,6.056,143.203
748,1.263,36.215,35.846,33.127,25.582,4.948,6.015,151.762
749,1.27,36.245,35.85,33.108,25.582,4.907,5.974,156.117
750,1.302,35.861,35.752,33.118,25.579,4.825,5.893,158.518
751,1.332,35.982,35.794,33.079,25.572,4.824,5.933,164.437
752,1.319,36.07,35.795,33.05,25.565,4.824,5.892,174.702
753,1.3,36.08,35.803,33.05,25.572,4.824,5.892,186.433
754,1.234,35.908,35.811,33.06,25.568,4.824,5.933,195.983
755,1.159,36.04,35.842,33.05,25.575,4.946,5.974,200.713
756,1.1,36.128,35.842,33.05,25.579,4.947,5.974,200.394
757,1.001,35.966,35.815,33.06,25.579,4.988,6.015,196.081
758,0.935,36.07,35.803,33.04,25.579,4.907,6.015,189.369
759,0.883,36.176,35.834,33.021,25.575,4.906,5.974,181.78
760,0.882,36.273,35.866,33.021,25.582,4.987,5.974,175.037
761,0.853,35.785,35.796,33.011,25.575,4.866,5.893,168.667
762,0.869,35.905,35.736,32.992,25.579,4.865,5.892,162.18
763,0.846,36.011,35.783,32.992,25.579,4.946,5.892,156.179
764,0.827,36.089,35.787,32.982,25.579,4.825,5.933,152.907
765,0.843,35.85,35.799,32.963,25.575,4.824,5.852,153.241
766,0.846,35.972,35.869,32.972,25.568,4.824,5.891,154.26
767,0.875,36.098,35.823,32.944,25.568,4.865,5.892,153.702
768,0.85,36.167,35.799,32.953,25.572,4.865,5.811,153.249
769,0.869,35.803,35.803,32.924,25.575,4.906,5.85,154.627
770,0.876,35.953,35.842,32.943,25.575,4.865,5.973,157.161
771,0.853,36.069,35.866,32.924,25.579,4.946,5.974,158.772
772,0.879,36.09,35.823,32.934,25.586,4.947,5.933,157.772
773,0.866,35.898,35.803,32.934,25.589,5.029,6.014,154.916
774,0.82,36.05,35.764,32.943,25.593,5.07,6.056,150.984
775,0.852,36.185,35.802,32.924,25.593,5.07,6.097,146.757
776,0.833,36.187,35.803,32.934,25.579,5.03,6.016,148.097
777,0.758,35.957,35.873,32.905,25.589,4.907,5.974,160.105
778,0.783,36.079,35.803,32.895,25.582,4.947,6.096,177.424
779,0.774,36.186,35.814,32.895,25.582,4.988,6.056,192.397
780,0.728,36.014,35.799,32.895,25.579,4.988,6.056,201.369
781,0.773,35.926,35.818,32.876,25.579,4.907,6.015,212.476
782,0.816,36.06,35.846,32.866,25.582,5.028,6.096,234.746
783,0.908,36.138,35.854,32.866,25.582,5.03,6.138,266.439
784,0.954,35.87,35.881,32.876,25.586,4.989,6.179,300.137
785,1.013,35.963,35.823,32.866,25.589,5.07,6.139,328.935
786,1.004,36.127,35.822,32.876,25.593,5.07,6.219,348.006
787,0.981,36.196,35.803,32.866,25.593,5.111,6.261,355.962
788,0.951,35.899,35.853,32.856,25.589,5.152,6.262,353.763
789,0.967,36.03,35.811,32.856,25.593,5.153,6.18,347.438
790,0.932,36.156,35.826,32.837,25.6,5.112,6.179,343.512
791,0.925,36.244,35.811,32.827,25.593,5.03,6.179,342.335
792,0.912,35.775,35.807,32.818,25.596,5.192,6.261,340.738
793,0.938,35.895,35.822,32.818,25.586,5.112,6.139,336.615
794,0.987,36.021,35.842,32.818,25.586,5.112,6.138,328.442
795,0.926,36.08,35.877,32.779,25.579,4.949,6.057,316.162
796,0.928,35.86,35.796,32.75,25.575,5.029,6.015,301.159
797,0.954,35.973,35.783,32.74,25.565,4.989,6.137,284.623
798,0.974,36.079,35.81,32.74,25.579,4.988,6.138,267.585
799,0.948,36.128,35.846,32.75,25.579,4.988,6.098,253.184
800,0.99,35.822,35.823,32.759,25.575,4.988,6.138,244.624
801,1.023,35.982,35.725,32.74,25.586,5.029,6.098,241.49
802,1.082,36.079,35.814,32.711,25.582,4.989,6.138,241.418
803,1.001,36.109,35.776,32.711,25.579,5.11,6.098,240.971
804,0.974,35.879,35.787,32.692,25.586,4.989,6.097,237.063
805,1.039,35.992,35.799,32.692,25.575,4.988,6.138,229.827
806,1.056,36.079,35.857,32.663,25.582,4.988,6.098,220.688
807,1.076,35.869,35.776,32.663,25.575,4.948,5.975,210.879
808,1.164,35.886,35.787,32.644,25.572,4.947,6.055,200.82
809,1.22,35.982,35.818,32.605,25.579,4.947,6.097,191.815
810,1.234,36.079,35.822,32.614,25.572,4.988,6.056,187.7
811,1.208,35.936,35.834,32.595,25.572,5.029,6.015,188.066
812,1.116,36.06,35.764,32.595,25.575,4.948,6.056,187.907
813,1.148,36.195,35.756,32.585,25.579,4.947,6.097,187.703
814,1.269,36.312,35.701,32.585,25.582,5.11,6.178,193.555
815,1.335,35.68,35.79,32.605,25.586,5.071,6.22,207.519
816,1.378,35.827,35.81,32.576,25.593,5.111,6.18,226.159
817,1.398,35.963,35.865,32.604,25.596,5.193,6.22,241.308
818,1.378,36.041,35.784,32.595,25.593,5.153,6.18,248.29
819,1.391,35.878,35.803,32.595,25.589,5.112,6.139,250.717
820,1.421,36.011,35.822,32.557,25.586,5.071,6.016,251.391
821,1.369,36.118,35.846,32.528,25.586,5.03,6.015,249.161
822,1.362,36.138,35.862,32.518,25.579,5.03,6.137,243.406
823,1.287,35.774,35.858,32.489,25.586,5.07,6.138,236.762
824,1.264,35.924,35.85,32.498,25.579,5.07,6.057,230.84
825,1.237,36.04,35.776,32.479,25.579,5.111,6.056,224.113
826,1.191,36.08,35.818,32.488,25.582,5.071,6.056,216.321
827,1.201,35.936,35.819,32.45,25.582,4.989,6.097,207.461
828,1.344,36.06,35.834,32.44,25.579,5.07,6.138,198.062
829,1.456,36.205,35.776,32.44,25.579,5.07,6.016,187.925
830,1.503,36.494,35.783,32.44,25.579,4.989,6.056,177.293
831,1.607,35.873,35.795,32.421,25.579,5.07,6.056,166.738
832,1.644,36.011,35.799,32.421,25.579,5.03,6.056,160.452
833,1.709,36.108,35.842,32.421,25.579,5.03,6.015,167.221
834,1.684,35.908,35.858,32.392,25.582,5.07,6.056,187.252
835,1.616,35.963,35.889,32.363,25.586,4.989,5.975,211.117
836,1.527,36.089,35.811,32.382,25.579,5.07,5.974,228.147
837,1.474,36.205,35.811,32.353,25.582,4.948,5.893,237.587
838,1.506,35.957,35.803,32.334,25.565,4.947,5.933,250.325
839,1.532,36.089,35.846,32.324,25.568,4.907,5.892,272.449
840,1.484,36.215,35.827,32.324,25.575,5.028,6.054,300.644
841,1.438,36.302,35.741,32.334,25.593,5.151,6.015,326.663
842,1.431,35.996,35.787,32.334,25.586,5.153,6.056,342.82
843,1.359,36.137,35.775,32.334,25.589,5.112,6.056,347.006
844,1.352,36.253,35.787,32.334,25.586,5.112,6.015,343.102
845,1.306,36.322,35.822,32.314,25.586,5.112,6.015,336.313
846,1.238,36.111,35.854,32.305,25.586,5.152,6.096,328.357
847,1.156,36.244,35.795,32.305,25.582,5.071,6.056,318.764
848,1.106,36.36,35.807,32.295,25.582,5.07,6.015,307.08
849,1.067,36.409,35.818,32.247,25.579,4.989,6.015,293.221
850,1.021,36.208,35.834,32.247,25.579,5.07,5.974,277.835
851,0.975,36.331,35.834,32.227,25.579,5.03,6.015,261.825
852,0.945,36.447,35.787,32.218,25.579,4.989,5.893,245.971
853,0.899,36.477,35.764,32.208,25.575,4.988,5.973,231.053
854,0.866,36.382,35.736,32.198,25.572,4.988,5.893,216.796
855,0.869,36.515,35.779,32.208,25.579,4.948,5.933,203.074
856,0.944,36.622,35.803,32.198,25.572,4.988,5.933,189.723
857,0.964,36.68,35.834,32.208,25.579,5.07,6.014,178.368
858,1.013,36.508,35.772,32.198,25.582,5.07,6.015,171.831
859,1.043,36.66,35.81,32.208,25.586,5.111,6.137,171.644
860,1.024,36.757,35.811,32.217,25.589,5.152,6.098,177.741
861,1.004,36.519,35.822,32.198,25.593,5.193,6.056,188.699
862,0.939,36.593,35.862,32.208,25.589,5.072,6.015,202.308
863,0.938,36.709,35.87,32.189,25.586,5.07,6.015,218.057
864,1.023,36.787,35.862,32.16,25.579,5.03,6.015,234.396
865,1.062,36.596,35.846,32.159,25.582,5.07,6.015,246.757
866,1.112,36.747,35.834,32.15,25.586,5.07,5.974,252.165
867,1.171,36.854,35.838,32.14,25.582,5.07,5.974,251.406
868,1.171,36.951,35.854,32.14,25.582,5.111,6.015,249.812
869,1.214,36.741,35.835,32.14,25.575,5.152,6.015,252.195
870,1.227,36.883,35.807,32.169,25.589,5.071,5.934,260.391
871,1.208,37.009,35.787,32.131,25.586,5.152,6.055,274.623
872,1.246,37.058,35.807,32.121,25.586,5.112,6.056,292.614
873,1.208,36.943,35.822,32.121,25.589,5.152,6.056,309.627
874,1.194,37.096,35.834,32.13,25.589,5.153,6.056,320.246
875,1.139,37.212,35.889,32.13,25.593,5.112,6.015,322.019
876,1.116,37.252,35.839,32.111,25.593,5.193,6.056,316.099
877,1.089,37.032,35.819,32.101,25.589,5.112,6.056,304.777
878,1.037,37.154,35.826,32.092,25.586,5.152,6.015,289.986
879,1.03,37.242,35.838,32.082,25.589,5.071,5.974,273.208
880,1.011,37.252,35.838,32.072,25.579,4.989,5.893,255.924
881,0.942,37.223,35.756,32.024,25.572,4.948,5.811,239.65
882,0.896,37.367,35.701,32.034,25.572,4.988,5.81,224.648
883,0.954,37.455,35.751,32.062,25.572,4.988,5.81,211.853
884,0.984,37.312,35.779,32.063,25.572,4.948,5.85,201.48
885,1.059,37.176,35.763,32.072,25.579,5.069,5.851,192.188
886,1.076,37.299,35.845,32.091,25.579,4.989,5.81,184.126
887,1.043,37.387,35.784,32.082,25.579,4.988,5.85,176.727
888,1.017,37.254,35.803,32.092,25.579,5.029,5.891,168.684
889,1.092,37.358,35.807,32.053,25.579,4.989,5.811,160.635
890,1.018,37.474,35.826,32.063,25.579,5.029,5.81,153.521
891,0.958,37.533,35.846,32.043,25.579,4.948,5.85,148.327
892,0.974,37.341,35.795,32.053,25.572,4.907,5.891,143.965
893,1.026,37.464,35.764,32.034,25.575,4.947,5.77,141.889
894,1.053,37.58,35.74,32.024,25.575,4.988,5.85,146.056
895,1.04,37.658,35.755,32.024,25.572,4.988,5.769,154.23
896,0.965,37.304,35.779,32.014,25.568,4.988,5.809,160.817
897,0.863,37.454,35.826,32.005,25.572,4.988,5.81,163.485
898,0.853,37.561,35.78,31.985,25.568,4.988,5.891,163.674
899,0.846,37.62,35.795,31.995,25.582,5.07,5.892,164.895
900,0.807,37.592,35.787,31.995,25.572,5.07,5.933,170.274
901,0.823,37.725,35.826,32.004,25.582,5.03,6.055,180.005
902,0.846,37.861,35.858,32.024,25.593,5.192,6.219,191.406
903,0.872,37.92,35.897,32.024,25.593,5.275,6.22,202.01
904,0.908,37.537,35.874,32.014,25.589,5.154,6.139,209.962
905,0.993,37.648,35.803,31.985,25.582,5.153,6.138,213.579
906,1.049,37.736,35.811,31.976,25.582,5.153,6.219,212.517
907,0.972,37.746,35.791,31.966,25.582,5.193,6.261,208.277
908,0.951,37.708,35.838,31.975,25.579,5.153,6.262,205.592
909,0.997,37.832,35.791,31.956,25.582,5.193,6.302,205.931
910,0.984,37.929,35.803,32.023,25.579,5.153,6.465,205.935
911,0.932,37.748,35.795,31.957,25.579,5.193,6.426,203.129
912,0.899,37.717,35.787,31.956,25.582,5.234,6.466,197.45
913,0.879,37.851,35.818,31.937,25.582,5.113,6.548,190.034
914,0.885,37.92,35.826,31.946,25.582,5.112,6.712,181.95
915,0.846,37.671,35.858,31.937,25.582,5.152,6.632,174.591
916,0.827,37.774,35.842,31.946,25.579,5.193,6.672,172.566
917,0.778,37.91,35.811,31.956,25.582,5.153,6.713,175.636
918,0.712,37.988,35.803,31.927,25.582,5.234,6.794,179.164
919,0.669,37.787,35.846,31.946,25.579,5.194,6.836,179.769
920,0.682,37.919,35.846,31.937,25.582,5.194,6.837,178.961
921,0.721,38.026,35.772,31.937,25.579,5.072,6.796,179.481
922,0.692,38.104,35.709,31.908,25.568,5.03,6.795,180.259
923,0.643,37.759,35.771,31.898,25.572,5.03,6.836,178.966
924,0.694,37.871,35.779,31.898,25.572,5.03,6.877,174.928
925,0.773,37.958,35.763,31.888,25.565,5.07,7.04,169.114
926,0.865,38.026,35.834,31.908,25.575,5.07,7.082,161.859
927,0.976,37.701,35.791,31.927,25.568,5.152,7.083,153.777
928,1.013,37.87,35.787,31.937,25.575,5.153,7.083,145.28
929,1.017,37.978,35.791,31.918,25.572,5.112,7.164,136.86
930,0.984,37.979,35.834,31.917,25.579,4.989,7.043,129.457
931,0.991,37.787,35.85,31.917,25.572,5.07,7.123,122.675
932,0.919,37.9,35.807,31.927,25.575,5.07,7.165,119.151
933,0.844,38.007,35.795,31.918,25.572,5.07,7.165,122.166
934,0.791,38.286,35.744,31.908,25.575,5.111,7.165,127.075
935,0.709,37.809,35.79,31.984,25.568,5.071,7.206,130.459
936,0.685,37.929,35.787,31.909,25.572,5.07,7.287,135.737
937,0.669,38.007,35.822,31.908,25.568,5.03,7.207,145.548
938,0.61,37.816,35.803,31.908,25.579,5.151,7.165,158.901
939,0.564,37.872,35.795,31.937,25.579,5.193,7.246,171.679
940,0.603,38.016,35.795,31.937,25.582,5.112,7.328,180.02
941,0.593,38.104,35.795,31.946,25.586,5.234,7.329,183.111
942,0.6,37.769,35.846,31.966,25.589,5.235,7.451,185.419
943,0.704,37.919,35.854,31.975,25.589,5.316,7.371,192.15
944,0.796,38.036,35.889,31.976,25.582,5.276,7.37,204.293
945,0.878,38.094,35.835,31.966,25.582,5.154,7.33,219.459
946,0.924,37.673,35.819,31.966,25.586,5.234,7.289,231.97
947,1.055,37.832,35.795,31.975,25.582,5.194,7.207,237.584
948,1.131,37.92,35.822,31.966,25.589,5.153,7.287,238.534
949,1.031,37.978,35.846,31.966,25.586,5.153,7.247,241.105
950,0.978,37.729,35.768,31.975,25.579,5.234,7.247,247.636
951,0.935,37.871,35.791,32.052,25.586,5.153,7.206,254.938
952,0.86,37.987,35.787,31.976,25.586,5.153,7.165,258.996
953,0.794,38.046,35.791,32.004,25.586,5.153,7.246,258.752
954,0.754,37.826,35.768,31.985,25.586,5.153,7.206,253.951
955,0.722,37.977,35.838,31.985,25.589,5.234,7.125,245.649
956,0.611,38.065,35.862,31.985,25.586,5.194,7.165,235.727
957,0.583,38.104,35.768,31.995,25.589,5.234,7.165,226.276
958,0.544,37.75,35.81,31.985,25.582,5.235,7.165,218.294
959,0.462,37.909,35.822,32.004,25.579,5.153,7.124,211.709
960,0.403,37.978,35.862,31.976,25.575,5.153,7.043,205.951
961,0.445,38.046,35.842,31.966,25.575,5.071,6.92,201.584
962,0.523,37.538,35.791,31.966,25.572,4.948,6.919,199.589
963,0.505,37.648,35.725,31.956,25.565,4.988,7.0,199.854
964,0.501,37.745,35.665,31.975,25.575,5.11,6.96,202.093
965,0.589,37.717,35.743,31.976,25.579,5.112,6.96,203.173
966,0.541,37.813,35.779,31.985,25.579,5.071,7.0,201.842
967,0.55,37.939,35.826,32.004,25.582,5.193,7.082,202.885
968,0.593,38.036,35.768,32.005,25.582,5.194,7.123,207.653
969,0.642,37.433,35.779,31.976,25.579,5.153,7.124,214.003
970,0.639,37.542,35.791,31.976,25.579,5.071,7.165,219.23
971,0.629,37.677,35.846,31.985,25.575,5.03,7.165,221.478
972,0.61,37.746,35.846,31.966,25.579,5.151,7.206,220.443
973,0.609,37.583,35.846,31.966,25.575,5.112,7.247,216.488
974,0.632,37.706,35.842,31.966,25.579,5.071,7.288,209.862
975,0.626,37.832,35.749,31.966,25.572,5.03,7.288,201.298
976,0.613,37.9,35.798,31.966,25.575,5.07,7.329,192.836
977,0.619,37.451,35.775,31.947,25.568,5.111,7.289,186.084
978,0.636,37.599,35.842,31.946,25.572,5.03,7.369,179.959
979,0.61,37.697,35.772,31.946,25.572,4.989,7.411,173.392
980,0.645,37.736,35.806,31.937,25.575,5.07,7.452,166.293
981,0.662,37.42,35.775,31.966,25.579,5.111,7.493,158.985
982,0.675,37.551,35.806,31.966,25.582,5.234,7.575,152.0
983,0.757,37.677,35.842,31.966,25.586,5.194,7.535,145.628
984,0.767,37.698,35.85,31.966,25.589,5.194,7.534,139.954
985,0.735,37.516,35.858,31.966,25.589,5.194,7.575,134.327
986,0.708,37.638,35.803,31.966,25.582,5.153,7.413,129.229
987,0.672,37.736,35.803,31.947,25.579,5.112,7.493,126.576
988,0.636,37.612,35.799,31.937,25.579,5.152,7.534,126.591
989,0.642,37.381,35.842,31.937,25.579,5.071,7.534,127.079
990,0.678,37.493,35.788,31.937,25.575,5.152,7.616,126.718
991,0.724,37.6,35.74,31.956,25.568,5.153,7.698,124.966
992,0.75,37.332,35.759,31.937,25.579,5.153,7.658,123.037
993,0.708,37.426,35.795,31.937,25.579,5.193,7.82,122.774
994,0.705,37.551,35.787,31.937,25.579,5.112,7.822,125.13
995,0.731,37.639,35.799,31.937,25.572,5.152,7.863,129.219
996,0.695,37.323,35.865,31.918,25.586,5.153,7.985,132.716
997,0.701,37.435,35.753,31.937,25.579,5.071,8.068,133.971
998,0.718,37.561,35.787,31.937,25.579,5.07,8.069,132.967
999,0.744,37.648,35.791,31.946,25.579,5.193,8.191,130.273
1000,0.686,37.314,35.857,31.927,25.582,5.194,8.273,126.18
1001,0.633,37.445,35.815,31.927,25.572,5.112,8.274,121.098
1002,0.623,37.561,35.791,31.918,25.579,5.071,8.233,115.639
1003,0.681,37.601,35.697,31.898,25.565,5.03,8.233,110.909
1004,0.675,37.227,35.724,31.888,25.561,4.989,8.192,107.853
1005,0.711,37.348,35.74,31.869,25.565,5.029,8.273,106.684
1006,0.877,37.474,35.787,31.869,25.572,5.07,8.355,106.388
1007,0.944,37.504,35.799,31.898,25.575,5.111,8.356,106.141
1008,0.974,37.092,35.752,31.908,25.572,5.112,8.397,105.163
1009,0.987,37.231,35.771,31.889,25.568,5.152,8.397,104.828
1010,1.0,37.31,35.783,31.908,25.575,5.112,8.397,111.452
1011,0.939,37.33,35.818,31.908,25.572,5.03,8.356,124.285
1012,0.912,37.205,35.819,31.908,25.575,5.07,8.356,136.734
1013,0.85,37.328,35.826,31.898,25.579,5.07,8.315,144.664
1014,0.755,37.426,35.783,31.898,25.579,5.07,8.315,149.5
1015,0.695,37.225,35.756,31.908,25.579,5.152,8.356,154.712
1016,0.627,37.137,35.775,31.908,25.572,5.071,8.397,161.797
1017,0.584,37.27,35.806,31.898,25.572,5.152,8.356,169.919
1018,0.586,37.348,35.815,31.908,25.572,5.112,8.356,176.831
1019,0.57,37.071,35.74,31.917,25.572,5.071,8.315,180.477
1020,0.56,37.193,35.783,31.898,25.572,5.111,8.356,180.188
1021,0.531,37.328,35.775,31.936,25.572,5.071,8.234,176.688
1022,0.527,37.406,35.81,31.908,25.572,5.111,8.273,171.368
1023,0.553,36.985,35.834,31.917,25.579,5.193,8.274,166.598
1024,0.583,37.115,35.842,31.927,25.579,5.153,8.233,163.298
1025,0.648,37.232,35.838,31.918,25.582,5.193,8.273,159.809
1026,0.704,37.329,35.764,31.956,25.589,5.316,8.314,155.098
1027,0.718,37.023,35.787,31.956,25.589,5.276,8.234,148.993
1028,0.65,37.154,35.853,31.947,25.586,5.357,8.151,142.508
1029,0.577,37.28,35.827,31.966,25.582,5.236,8.069,139.556
1030,0.603,37.32,35.741,31.937,25.582,5.194,7.987,140.747
1031,0.619,37.004,35.771,31.937,25.582,5.153,7.986,142.101
1032,0.714,37.135,35.771,31.937,25.575,5.153,7.905,141.993
1033,0.76,37.261,35.771,31.937,25.582,5.153,7.945,143.821
1034,0.803,37.291,35.806,31.927,25.579,5.153,7.945,150.263
1035,0.852,37.051,35.811,31.927,25.572,5.193,7.864,159.192
1036,0.83,37.174,35.818,31.927,25.579,5.194,7.863,165.908
1037,0.745,37.309,35.783,31.946,25.582,5.153,7.782,168.252
1038,0.699,37.32,35.771,31.937,25.582,5.193,7.862,166.73
1039,0.63,37.004,35.826,31.937,25.579,5.194,7.822,162.811
1040,0.61,37.115,35.842,31.956,25.579,5.194,7.822,160.048
1041,0.596,37.222,35.819,31.937,25.582,5.153,7.7,160.712
1042,0.655,36.974,35.737,31.946,25.582,5.193,7.74,163.239
1043,0.698,36.971,35.708,31.937,25.589,5.234,7.699,164.241
1044,0.679,37.096,35.653,31.956,25.579,5.235,7.658,163.6
1045,0.685,37.193,35.758,31.937,25.579,5.153,7.536,165.789
1046,0.737,36.859,35.806,31.927,25.579,5.153,7.575,172.235
1047,0.734,36.951,35.815,31.918,25.572,5.031,7.454,180.919
1048,0.738,37.096,35.756,31.917,25.572,5.07,7.452,189.056
1049,0.731,37.136,35.771,31.889,25.561,5.07,7.33,194.261
1050,0.744,36.877,35.775,31.898,25.568,5.152,7.451,195.004
1051,0.741,36.999,35.838,31.908,25.568,5.112,7.412,192.653
1052,0.754,37.115,35.834,31.889,25.582,5.152,7.371,190.027
1053,0.728,37.213,35.815,31.936,25.586,5.112,7.37,189.431
1054,0.685,36.792,35.791,31.918,25.582,5.112,7.289,189.994
1055,0.662,36.95,35.732,31.927,25.572,5.152,7.369,190.57
1056,0.688,37.057,35.763,31.908,25.575,5.112,7.33,189.965
1057,0.688,37.097,35.787,31.917,25.579,5.193,7.289,187.56
1058,0.662,36.877,35.834,31.917,25.579,5.112,7.329,183.267
1059,0.639,36.999,35.764,31.908,25.572,5.071,7.289,176.922
1060,0.655,37.125,35.787,31.937,25.572,5.07,7.207,169.052
1061,0.626,37.136,35.771,31.908,25.572,5.07,7.165,160.354
1062,0.616,36.887,35.802,31.898,25.572,4.989,7.165,151.078
1063,0.645,37.018,35.814,31.898,25.565,5.07,7.124,141.634
1064,0.649,37.106,35.842,31.898,25.565,5.07,7.165,132.27
1065,0.629,37.366,35.827,31.888,25.572,5.07,7.124,123.232
1066,0.655,36.899,35.772,31.879,25.568,5.07,7.083,115.01
1067,0.685,37.019,35.775,31.898,25.575,5.07,7.042,107.731
1068,0.675,37.116,35.795,31.888,25.572,5.07,7.123,101.885
1069,0.711,36.771,35.834,31.898,25.579,5.111,7.124,97.273
1070,0.721,36.787,35.772,31.908,25.579,5.234,7.124,93.487
1071,0.731,36.931,35.74,31.937,25.586,5.194,7.165,90.359
1072,0.734,37.048,35.767,31.946,25.586,5.234,7.165,87.522
1073,0.741,36.752,35.783,31.927,25.579,5.194,7.084,84.607
1074,0.708,36.883,35.791,31.918,25.582,5.112,7.002,81.529
1075,0.689,36.98,35.81,31.898,25.575,5.112,6.919,78.449
1076,0.649,37.048,35.815,31.879,25.572,5.071,7.0,75.694
1077,0.636,36.809,35.733,31.879,25.565,5.07,6.96,73.756
1078,0.639,36.97,35.767,31.888,25.579,5.03,6.96,72.923
1079,0.629,37.077,35.775,31.888,25.572,5.151,7.0,73.443
1080,0.61,37.135,35.826,31.869,25.572,5.153,6.879,74.384
1081,0.619,36.647,35.838,31.888,25.568,5.071,6.918,75.613
1082,0.629,36.795,35.788,31.888,25.565,5.07,6.959,76.561
1083,0.665,36.902,35.764,31.879,25.572,5.111,6.96,77.22
1084,0.698,36.971,35.728,31.879,25.572,5.071,6.96,77.146
1085,0.714,36.751,35.767,31.869,25.575,5.03,6.797,76.413
1086,0.685,36.873,35.787,31.869,25.579,5.03,6.917,75.064
1087,0.711,36.99,35.834,31.879,25.572,5.111,6.959,73.505
1088,0.763,37.02,35.756,31.879,25.579,5.071,6.878,72.351
1089,0.774,36.751,35.779,31.879,25.575,5.07,6.959,72.015
1090,0.735,36.873,35.76,31.869,25.579,5.152,6.838,72.215
1091,0.741,36.97,35.806,31.86,25.572,5.071,6.837,72.013
1092,0.78,36.943,35.826,31.859,25.579,5.07,6.796,72.052
1093,0.764,36.674,35.838,31.85,25.568,4.908,6.714,73.313
1094,0.767,36.815,35.819,31.84,25.565,4.947,6.672,76.09
1095,0.78,36.893,35.737,31.84,25.565,4.907,6.672,79.289
1096,0.738,36.549,35.775,31.821,25.565,4.906,6.631,81.72
1097,0.773,36.641,35.74,31.821,25.568,4.987,6.672,82.517
1098,0.784,36.757,35.822,31.83,25.572,4.948,6.794,82.118
1099,0.793,36.873,35.744,31.849,25.575,5.029,6.714,80.732
1100,0.754,36.644,35.79,31.85,25.572,4.989,6.672,78.848
1101,0.744,36.786,35.764,31.859,25.572,5.029,6.672,76.471
1102,0.728,36.893,35.787,31.84,25.568,4.989,6.672,73.682
1103,0.764,36.99,35.81,31.85,25.568,4.988,6.631,70.727
1104,0.754,36.569,35.815,31.84,25.568,4.988,6.59,68.014
1105,0.676,36.68,35.869,31.84,25.568,4.988,6.59,65.425
1106,0.682,36.825,35.776,31.83,25.572,4.988,6.549,62.919
1107,0.695,36.893,35.806,31.859,25.572,4.866,6.508,60.577
1108,0.701,36.616,35.772,31.821,25.561,4.987,6.467,59.578
1109,0.737,36.747,35.845,31.821,25.568,4.907,6.426,61.519
1110,0.718,36.873,35.768,31.811,25.565,4.947,6.507,64.751
1111,0.702,36.913,35.752,31.83,25.561,4.947,6.549,67.467
1112,0.767,36.558,35.732,31.821,25.572,5.029,6.508,68.876
1113,0.748,36.68,35.786,31.83,25.572,5.07,6.549,69.134
1114,0.738,36.834,35.771,31.84,25.579,5.193,6.63,68.689
1115,0.712,36.845,35.795,31.869,25.579,5.194,6.59,67.669
1116,0.698,36.625,35.865,31.86,25.589,5.194,6.59,66.398
1117,0.708,36.757,35.772,31.859,25.586,5.194,6.671,64.84
1118,0.633,36.883,35.783,31.879,25.589,5.194,6.631,62.914
1119,0.593,36.692,35.767,31.86,25.579,5.031,6.55,60.739
1120,0.583,36.566,35.838,31.84,25.572,5.03,6.549,58.441
1121,0.59,36.68,35.803,31.84,25.579,5.03,6.549,56.304
1122,0.596,36.767,35.787,31.85,25.568,5.07,6.59,54.859
1123,0.668,36.519,35.736,31.85,25.579,5.07,6.549,53.829
1124,0.717,36.641,35.693,31.84,25.575,5.07,6.549,53.412
1125,0.763,36.748,35.755,31.85,25.568,5.07,6.549,54.505
1126,0.77,36.835,35.81,31.831,25.575,5.03,6.59,57.281
1127,0.761,36.491,35.846,31.859,25.575,5.03,6.59,61.049
1128,0.748,36.66,35.772,31.859,25.565,5.151,6.59,65.112
1129,0.738,36.776,35.771,31.859,25.579,5.112,6.59,68.243
1130,0.734,36.845,35.748,31.85,25.575,5.071,6.549,70.307
1131,0.721,36.414,35.806,31.85,25.572,5.111,6.63,71.71
1132,0.77,36.573,35.811,31.85,25.579,5.071,6.672,72.496
1133,0.741,36.68,35.842,31.859,25.579,5.152,6.631,72.463
1134,0.715,36.738,35.834,31.85,25.575,5.193,6.631,71.772
1135,0.728,36.499,35.838,31.859,25.586,5.072,6.55,71.724
1136,0.698,36.65,35.78,31.926,25.579,5.07,6.508,72.659
1137,0.692,36.757,35.767,31.85,25.579,5.03,6.467,73.685
1138,0.701,36.787,35.83,31.859,25.565,4.989,6.386,73.98
1139,0.695,36.442,35.787,31.85,25.568,4.907,6.344,73.576
1140,0.672,36.573,35.713,31.831,25.558,4.987,6.343,72.515
1141,0.698,36.68,35.739,31.859,25.565,4.948,6.425,70.837
1142,0.672,36.71,35.755,31.859,25.575,5.029,6.426,68.625
1143,0.665,36.374,35.771,31.869,25.575,5.03,6.507,66.123
1144,0.688,36.515,35.818,31.869,25.572,4.989,6.467,63.414
1145,0.737,36.612,35.826,31.86,25.572,5.029,6.386,60.785
1146,0.708,36.555,35.838,31.888,25.568,4.989,6.385,58.075
1147,0.731,36.603,35.772,31.888,25.568,4.988,6.425,55.365
1148,0.741,36.718,35.771,31.888,25.565,5.07,6.385,52.654
1149,0.77,36.815,35.799,31.869,25.572,4.989,6.344,50.025
1150,0.78,36.462,35.814,31.888,25.575,4.988,6.303,47.478
1151,0.806,36.602,35.756,31.879,25.575,4.988,6.343,44.973
1152,0.829,36.747,35.716,31.888,25.565,4.988,6.343,42.711
1153,0.839,36.825,35.763,31.955,25.568,4.907,6.343,40.493
1154,0.82,36.251,35.763,31.899,25.565,4.906,6.221,38.56
1155,0.794,36.379,35.744,31.908,25.565,4.947,6.302,37.077
1156,0.777,36.515,35.771,31.869,25.565,4.907,6.262,36.412
1157,0.754,36.583,35.783,31.898,25.565,4.947,6.343,36.812
1158,0.728,36.498,35.764,31.888,25.565,4.947,6.303,38.239
1159,0.695,36.65,35.752,31.917,25.568,4.947,6.384,40.327
1160,0.688,36.786,35.791,31.937,25.575,5.029,6.507,42.34
1161,0.646,36.845,35.822,31.937,25.579,5.07,6.427,44.596
1162,0.646,36.433,35.834,31.966,25.582,5.111,6.466,48.319
1163,0.629,36.611,35.819,31.975,25.582,5.152,6.507,53.316
1164,0.632,36.728,35.834,31.995,25.582,5.071,6.427,58.489
1165,0.658,36.758,35.748,31.976,25.579,5.03,6.385,62.973
1166,0.682,36.471,35.771,31.966,25.572,4.989,6.385,65.945
1167,0.666,36.583,35.783,31.956,25.572,4.988,6.425,67.438
1168,0.652,36.68,35.818,31.975,25.572,4.948,6.385,67.9
1169,0.688,37.026,35.729,31.995,25.572,4.988,6.344,67.417
1170,0.721,36.531,35.783,31.985,25.572,5.029,6.384,66.314
1171,0.715,36.66,35.787,31.985,25.565,4.989,6.344,64.758
1172,0.695,36.776,35.803,31.976,25.568,4.988,6.343,62.75
1173,0.662,36.404,35.85,31.995,25.579,4.988,6.343,61.022
1174,0.682,36.4,35.838,32.014,25.579,5.029,6.425,60.314
1175,0.695,36.534,35.842,32.014,25.572,4.989,6.385,59.86
1176,0.685,36.612,35.752,32.005,25.572,4.988,6.385,59.571
1177,0.692,36.364,35.779,32.014,25.572,4.948,6.385,59.893
1178,0.659,36.495,35.803,32.014,25.575,5.069,6.385,60.75
1179,0.675,36.602,35.803,32.033,25.575,5.03,6.385,61.694
1180,0.665,36.69,35.775,32.034,25.579,5.07,6.385,62.15
1181,0.665,36.432,35.67,32.034,25.572,4.989,6.466,62.033
1182,0.659,36.592,35.751,32.062,25.572,4.988,6.386,61.544
1183,0.717,36.689,35.748,32.053,25.572,4.988,6.344,61.214
1184,0.692,36.758,35.787,32.063,25.572,4.988,6.343,62.39
1185,0.714,36.48,35.74,32.034,25.565,4.866,6.303,65.125
1186,0.721,36.602,35.81,32.043,25.565,4.865,6.221,68.771
1187,0.76,36.718,35.736,32.024,25.568,4.784,6.22,71.654
1188,0.787,36.767,35.759,32.034,25.561,4.824,6.22,73.35
1189,0.79,36.375,35.775,32.034,25.565,4.865,6.302,74.871
1190,0.784,36.534,35.799,32.062,25.568,4.987,6.343,77.326
1191,0.741,36.66,35.818,32.082,25.572,4.988,6.303,80.806
1192,0.718,36.709,35.772,32.092,25.568,4.948,6.262,84.5
1193,0.708,36.374,35.701,32.082,25.579,4.988,6.302,87.261
1194,0.663,36.496,35.708,32.092,25.575,4.988,6.302,88.305
1195,0.662,36.612,35.767,32.082,25.572,4.948,6.302,87.827
1196,0.62,36.738,35.783,32.092,25.572,4.907,6.262,86.156
1197,0.619,36.47,35.814,32.101,25.572,4.987,6.262,83.862
1198,0.616,36.602,35.764,32.101,25.572,4.907,6.262,81.034
1199,0.616,36.69,35.791,32.101,25.565,4.865,6.262,77.956
1200,0.597,36.317,35.779,32.101,25.575,4.906,6.139,74.916
1201,0.619,36.389,35.799,32.101,25.561,4.865,6.179,71.796
1202,0.642,36.515,35.822,32.121,25.568,4.906,6.261,68.756
1203,0.678,36.593,35.834,32.111,25.575,4.906,6.18,65.799
1204,0.721,36.546,35.811,32.111,25.568,4.906,6.342,62.76
1205,0.728,36.67,35.795,32.14,25.568,4.987,6.303,59.803
1206,0.747,36.815,35.783,32.159,25.575,4.988,6.302,56.927
1207,0.79,36.903,35.779,32.169,25.582,5.029,6.343,54.134
1208,0.803,36.395,35.834,32.169,25.582,5.07,6.425,51.504
1209,0.81,36.534,35.795,32.179,25.582,5.07,6.304,49.119
1210,0.777,36.679,35.736,32.198,25.582,4.989,6.302,47.469
1211,0.787,36.757,35.751,32.169,25.572,5.029,6.221,46.395
1212,0.784,36.279,35.771,32.16,25.572,4.948,6.18,45.816
1213,0.764,36.418,35.763,32.159,25.579,4.988,6.22,45.159
1214,0.813,36.525,35.798,32.169,25.572,4.948,6.261,44.421
1215,0.8,36.583,35.795,32.179,25.575,4.947,6.221,43.6
1216,0.758,36.44,35.81,32.169,25.568,4.907,6.139,42.982
1217,0.738,36.582,35.787,32.179,25.568,4.865,6.138,42.488
1218,0.744,36.699,35.771,32.169,25.575,4.906,6.179,42.158
1219,0.751,36.729,35.818,32.179,25.568,4.906,6.139,42.277
1220,0.731,36.413,35.807,32.188,25.572,4.987,6.219,42.807
1221,0.725,36.563,35.779,32.198,25.568,4.948,6.18,43.097
1222,0.721,36.651,35.685,32.198,25.579,4.988,6.139,43.262
1223,0.718,36.556,35.731,32.246,25.575,4.866,6.138,44.28
1224,0.721,36.392,35.755,32.218,25.579,4.906,6.219,46.405
1225,0.721,36.515,35.744,32.218,25.572,4.987,6.22,48.703
1226,0.734,36.602,35.779,32.237,25.579,4.948,6.22,50.474
1227,0.734,36.45,35.803,32.227,25.572,4.907,6.18,51.305
1228,0.721,36.592,35.756,32.237,25.572,4.825,6.098,51.638
1229,0.702,36.689,35.74,32.218,25.568,4.824,6.056,51.601
1230,0.75,36.738,35.763,32.208,25.558,4.743,6.015,51.356
1231,0.757,36.135,35.802,32.217,25.558,4.783,6.015,51.07
1232,0.754,36.244,35.795,32.218,25.565,4.824,6.096,50.863
1233,0.725,36.37,35.787,32.227,25.565,4.905,6.178,50.455
1234,0.737,36.476,35.76,32.256,25.568,4.906,6.22,49.922
1235,0.754,36.305,35.736,32.247,25.575,4.906,6.22,48.941
1236,0.728,36.456,35.751,32.275,25.565,4.906,6.261,47.874
1237,0.712,36.573,35.783,32.256,25.568,4.947,6.262,46.806
1238,0.702,36.641,35.81,32.256,25.568,4.907,6.302,45.982
1239,0.685,36.278,35.725,32.275,25.565,4.947,6.302,45.364
1240,0.672,36.427,35.767,32.266,25.565,4.866,6.302,45.521
1241,0.691,36.544,35.752,32.285,25.565,4.906,6.384,46.01
1242,0.724,36.603,35.783,32.285,25.568,4.865,6.385,47.804
1243,0.757,36.383,35.779,32.285,25.558,4.865,6.385,51.603
1244,0.783,36.515,35.822,32.295,25.568,4.824,6.425,56.52
1245,0.8,36.602,35.795,32.285,25.565,4.824,6.385,61.164
1246,0.833,36.613,35.787,32.304,25.565,4.905,6.385,64.626
1247,0.839,36.306,35.756,32.305,25.565,4.947,6.466,67.872
1248,0.813,36.437,35.759,32.314,25.565,4.907,6.548,74.247
1249,0.813,36.563,35.826,32.324,25.575,5.028,6.549,83.459
1250,0.833,36.402,35.787,32.343,25.579,5.03,6.63,92.496
1251,0.843,36.381,35.725,32.363,25.586,5.111,6.672,99.051
1252,0.862,36.515,35.771,32.391,25.586,5.152,6.631,103.507
1253,0.869,36.641,35.791,32.392,25.586,5.071,6.631,109.813
1254,0.833,36.306,35.756,32.411,25.579,4.989,6.509,119.227
1255,0.813,36.408,35.787,32.373,25.579,4.948,6.508,130.055
1256,0.833,36.515,35.818,32.392,25.568,4.988,6.63,139.108
1257,0.81,36.602,35.811,32.373,25.579,5.07,6.59,144.444
1258,0.781,36.21,35.787,32.392,25.582,5.03,6.631,147.261
1259,0.813,36.35,35.76,32.401,25.579,4.989,6.59,150.298
1260,0.813,36.476,35.791,32.401,25.575,4.907,6.59,152.808
1261,0.8,36.535,35.826,32.421,25.579,4.987,6.631,153.484
1262,0.807,36.238,35.807,32.421,25.582,4.988,6.59,151.702
1263,0.826,36.369,35.787,32.411,25.575,4.948,6.631,147.902
1264,0.82,36.476,35.76,32.402,25.579,4.988,6.631,142.619
1265,0.784,36.535,35.74,32.43,25.575,5.029,6.59,136.712
1266,0.797,36.267,35.763,32.43,25.586,4.989,6.59,130.351
1267,0.807,36.418,35.806,32.45,25.579,4.988,6.631,124.066
1268,0.803,36.534,35.787,32.44,25.572,5.029,6.509,119.369
1269,0.8,36.583,35.682,32.478,25.582,4.989,6.549,115.947
1270,0.803,36.287,35.751,32.441,25.572,4.988,6.59,112.742
1271,0.813,36.437,35.74,32.45,25.579,4.988,6.549,109.01
1272,0.794,36.535,35.794,32.44,25.572,4.907,6.427,104.826
1273,0.797,36.545,35.83,32.44,25.572,4.825,6.426,100.149
1274,0.777,36.267,35.85,32.44,25.565,4.824,6.385,95.304
1275,0.761,36.379,35.811,32.431,25.561,4.824,6.344,90.458
1276,0.741,36.476,35.74,32.44,25.568,4.783,6.425,85.978
1277,0.734,36.209,35.744,32.45,25.565,4.864,6.385,82.03
1278,0.708,36.197,35.794,32.469,25.568,4.946,6.425,78.698
1279,0.715,36.35,35.822,32.469,25.572,4.907,6.304,75.737
1280,0.711,36.447,35.744,32.488,25.575,4.906,6.425,73.268
1281,0.711,36.113,35.779,32.508,25.565,4.906,6.426,70.885
1282,0.672,36.234,35.748,32.479,25.568,4.865,6.385,68.341
1283,0.675,36.35,35.748,32.469,25.575,4.865,6.344,65.754
1284,0.685,36.447,35.748,32.488,25.575,4.906,6.384,63.045
1285,0.695,36.132,35.783,32.498,25.565,4.784,6.303,60.578
1286,0.711,36.263,35.799,32.498,25.568,4.864,6.384,58.236
1287,0.734,36.399,35.729,32.508,25.572,4.824,6.263,56.18
1288,0.747,36.486,35.763,32.498,25.565,4.824,6.221,54.126
1289,0.728,36.151,35.779,32.489,25.568,4.783,6.261,52.317
1290,0.721,36.292,35.795,32.498,25.565,4.824,6.18,50.428
1291,0.708,36.399,35.775,32.498,25.568,4.824,6.22,48.539
1292,0.682,36.448,35.721,32.508,25.565,4.824,6.18,46.61
1293,0.672,36.094,35.685,32.527,25.568,4.824,6.22,44.761
1294,0.678,36.263,35.673,32.537,25.572,4.824,6.261,42.872
1295,0.636,36.351,35.751,32.537,25.572,4.946,6.302,41.023
1296,0.633,36.399,35.752,32.537,25.582,4.988,6.343,39.338
1297,0.645,36.045,35.81,32.556,25.579,4.988,6.384,37.41
1298,0.626,36.205,35.736,32.585,25.579,4.988,6.303,35.846
1299,0.606,36.321,35.759,32.595,25.579,4.988,6.302,34.163
1300,0.639,36.639,35.771,32.595,25.579,4.907,6.262,32.805
1301,0.655,36.326,35.834,32.595,25.572,4.825,6.221,31.45
1302,0.629,36.437,35.815,32.566,25.579,4.905,6.22,30.379
1303,0.645,36.535,35.799,32.556,25.568,4.906,6.18,29.515
1304,0.642,36.133,35.76,32.585,25.568,4.865,6.179,28.977
1305,0.668,36.148,35.709,32.576,25.565,4.906,6.261,28.809
1306,0.675,36.292,35.743,32.576,25.572,4.906,6.18,28.726
1307,0.714,36.37,35.763,32.585,25.575,4.947,6.139,28.685
1308,0.715,36.045,35.83,32.595,25.572,4.907,6.219,28.847
1309,0.689,36.185,35.733,32.585,25.565,4.865,6.18,28.808
1310,0.718,36.321,35.744,32.605,25.572,4.865,6.22,28.686
1311,0.708,36.399,35.755,32.586,25.572,4.865,6.22,28.562
1312,0.689,35.978,35.775,32.605,25.572,4.906,6.22,28.277
1313,0.669,36.118,35.795,32.605,25.572,4.865,6.18,27.827
1314,0.691,36.244,35.826,32.614,25.572,4.946,6.22,27.416
1315,0.669,36.302,35.803,32.614,25.579,4.866,6.18,26.924
1316,0.646,36.054,35.729,32.605,25.579,4.906,6.139,26.431
1317,0.61,36.185,35.74,32.633,25.565,4.825,6.057,25.857
1318,0.58,36.311,35.759,32.615,25.565,4.783,6.056,25.363
1319,0.586,36.322,35.822,32.595,25.561,4.742,6.015,24.87
1320,0.56,35.929,35.748,32.614,25.561,4.701,6.015,24.499
1321,0.557,36.06,35.677,32.624,25.561,4.823,6.096,23.926
1322,0.563,36.195,35.712,32.605,25.565,4.865,6.097,23.474
1323,0.606,36.206,35.751,32.624,25.572,4.906,6.097,22.9
1324,0.616,36.062,35.759,32.624,25.565,4.744,6.138,22.609
1325,0.613,36.195,35.783,32.624,25.572,4.823,6.098,22.566
1326,0.658,36.292,35.822,32.653,25.565,4.824,6.138,22.85
1327,0.695,36.236,35.713,32.634,25.565,4.824,6.098,23.178
1328,0.688,35.967,35.751,32.634,25.568,4.865,6.097,23.588
1329,0.679,36.108,35.759,32.634,25.565,4.824,6.056,24.121
1330,0.678,36.186,35.798,32.634,25.565,4.824,6.056,24.817
1331,0.688,35.909,35.772,32.634,25.565,4.783,5.975,25.8
1332,0.672,36.04,35.752,32.643,25.568,4.783,6.015,26.989
1333,0.662,36.176,35.693,32.643,25.561,4.783,5.974,28.017
1334,0.675,36.244,35.696,32.653,25.568,4.783,5.974,28.841
1335,0.656,35.871,35.704,32.634,25.565,4.702,6.096,29.337
1336,0.636,36.021,35.739,32.634,25.565,4.782,6.056,29.545
1337,0.646,36.118,35.802,32.643,25.568,4.824,6.056,29.628
1338,0.642,36.215,35.764,32.663,25.568,4.905,6.137,29.629
1339,0.629,35.842,35.759,32.672,25.568,4.906,6.138,29.629
1340,0.619,36.011,35.756,32.692,25.579,4.947,6.219,29.67
1341,0.623,36.128,35.802,32.682,25.582,4.988,6.139,29.67
1342,0.636,36.186,35.83,32.701,25.579,4.988,6.219,29.426
1343,0.659,35.937,35.826,32.701,25.586,4.988,6.139,29.261
1344,0.675,36.06,35.811,32.701,25.579,4.907,6.138,29.3
1345,0.678,36.176,35.791,32.682,25.572,4.865,6.098,29.87
1346,0.701,36.206,35.764,32.682,25.572,4.865,6.056,31.136
1347,0.675,35.976,35.744,32.682,25.572,4.865,6.056,32.45
1348,0.662,36.098,35.802,32.682,25.579,4.824,6.056,33.886
1349,0.665,36.215,35.787,32.673,25.568,4.824,6.015,36.258
1350,0.691,36.245,35.767,32.72,25.568,4.905,6.015,39.657
1351,0.672,35.842,35.728,32.692,25.575,4.825,6.015,43.838
1352,0.669,35.982,35.759,32.682,25.572,4.865,6.015,47.701
1353,0.682,36.079,35.81,32.682,25.572,4.906,6.056,50.708
1354,0.675,35.984,35.811,32.682,25.572,4.865,6.015,52.73
1355,0.701,35.878,35.834,32.701,25.579,4.824,6.096,53.482
1356,0.701,36.021,35.784,32.701,25.572,4.946,6.097,53.815
1357,0.675,36.118,35.787,32.701,25.575,4.907,6.056,54.143
1358,0.649,35.822,35.756,32.711,25.582,4.825,6.097,55.285
1359,0.642,35.924,35.806,32.711,25.575,4.905,6.097,56.394
1360,0.642,36.031,35.803,32.711,25.579,4.906,6.056,57.3
1361,0.649,36.128,35.744,32.73,25.572,4.906,6.097,57.919
1362,0.649,35.64,35.689,32.721,25.575,4.906,6.016,58.454
1363,0.649,35.798,35.731,32.74,25.579,4.825,5.974,58.947
1364,0.655,35.895,35.755,32.74,25.565,4.865,5.974,58.992
1365,0.672,35.973,35.74,32.711,25.568,4.784,5.893,58.423
1366,0.721,35.763,35.79,32.673,25.561,4.742,5.933,58.377
1367,0.711,35.885,35.787,32.682,25.558,4.701,5.811,59.718
1368,0.708,35.992,35.767,32.692,25.561,4.782,5.932,61.724
1369,0.708,36.079,35.728,32.721,25.572,4.905,6.014,63.289
1370,0.734,35.802,35.771,32.73,25.568,4.906,6.056,64.037
1371,0.728,35.943,35.81,32.711,25.572,4.865,6.015,63.963
1372,0.708,36.06,35.795,32.74,25.568,4.865,5.974,63.596
1373,0.682,36.109,35.771,32.731,25.572,4.824,5.974,63.348
1374,0.672,35.745,35.74,32.74,25.579,4.824,6.055,62.98
1375,0.682,35.885,35.693,32.74,25.568,4.824,5.975,62.163
1376,0.672,35.992,35.716,32.75,25.572,4.743,5.974,61.016
1377,0.662,36.003,35.767,32.731,25.572,4.864,5.974,59.501
1378,0.665,35.744,35.787,32.74,25.565,4.784,5.974,57.615
1379,0.649,35.866,35.693,32.75,25.568,4.783,5.974,55.564
1380,0.626,35.973,35.759,32.759,25.565,4.824,5.933,53.226
1381,0.636,35.763,35.759,32.74,25.565,4.702,5.892,50.925
1382,0.616,35.713,35.779,32.74,25.572,4.823,5.892,48.544
1383,0.603,35.837,35.791,32.75,25.565,4.783,5.933,46.366
1384,0.593,35.934,35.799,32.759,25.561,4.783,5.892,44.108
1385,0.587,35.638,35.803,32.76,25.568,4.783,5.933,42.011
1386,0.609,35.769,35.717,32.76,25.572,4.864,6.055,39.958
1387,0.649,35.905,35.743,32.779,25.572,4.946,6.097,38.148
1388,0.694,35.983,35.79,32.798,25.579,4.947,6.056,36.667
1389,0.698,35.629,35.818,32.808,25.579,4.907,6.056,35.717
1390,0.721,35.807,35.756,32.818,25.586,4.987,6.056,35.097
1391,0.737,35.934,35.783,32.818,25.582,4.948,5.934,35.01
1392,0.744,36.012,35.779,32.798,25.579,4.907,5.974,35.172
1393,0.738,35.677,35.76,32.798,25.572,4.865,5.974,35.539
1394,0.725,35.789,35.748,32.779,25.579,4.824,5.974,36.031
1395,0.711,35.876,35.775,32.789,25.579,4.824,5.974,36.402
1396,0.728,35.944,35.818,32.789,25.568,4.865,5.933,36.568
1397,0.79,35.753,35.686,32.808,25.565,4.906,5.974,36.57
1398,0.797,35.904,35.755,32.798,25.572,4.825,5.893,36.285
1399,0.836,36.002,35.752,32.808,25.579,4.865,5.892,36.079
1400,0.878,36.041,35.822,32.818,25.568,4.824,5.973,35.711
1401,0.928,35.668,35.783,32.827,25.565,4.905,5.893,35.545
1402,0.977,35.798,35.74,32.818,25.568,4.865,5.973,35.34
1403,1.056,35.914,35.693,32.827,25.572,4.946,5.974,35.175
1404,1.151,36.232,35.692,32.846,25.572,4.907,5.933,35.092
1405,1.184,35.708,35.731,32.818,25.568,4.865,5.974,35.01
1406,1.266,35.818,35.759,32.846,25.572,4.906,5.974,34.643
1407,1.299,35.934,35.814,32.828,25.579,4.865,5.974,34.355
1408,1.332,35.714,35.74,32.827,25.572,4.906,5.893,33.742
1409,1.401,35.76,35.755,32.837,25.568,4.825,5.811,33.045
1410,1.47,35.885,35.744,32.799,25.565,4.824,5.81,32.184
1411,1.5,35.944,35.802,32.817,25.572,4.743,5.81,31.24
1412,1.503,35.609,35.814,32.798,25.561,4.701,5.81,30.377
1413,1.542,35.702,35.807,32.808,25.554,4.701,5.81,29.433
1414,1.575,35.827,35.76,32.808,25.568,4.782,5.85,28.489
1415,1.624,35.924,35.716,32.837,25.568,4.824,5.891,27.503
1416,1.608,35.551,35.732,32.837,25.568,4.824,5.933,26.558
1417,1.491,35.701,35.728,32.847,25.572,4.824,5.974,25.492
1418,1.422,35.808,35.802,32.847,25.565,4.824,5.811,24.587
1419,1.359,35.867,35.74,32.837,25.568,4.824,5.932,23.724
1420,1.209,35.589,35.759,32.847,25.565,4.743,5.892,22.902
1421,1.055,35.701,35.744,32.866,25.568,4.864,6.014,22.122
1422,0.92,35.846,35.771,32.856,25.558,4.824,5.974,21.504
1423,0.769,35.886,35.787,32.847,25.571,4.743,5.974,20.888
1424,0.653,35.599,35.807,32.856,25.568,4.823,5.974,20.516
1425,0.545,35.721,35.803,32.866,25.568,4.824,5.974,20.187
1426,0.466,35.827,35.74,32.856,25.558,4.783,5.933,19.939
1427,0.4,35.867,35.759,32.856,25.565,4.702,6.014,19.856
1428,0.376,35.608,35.736,32.866,25.565,4.823,6.015,19.692
1429,0.344,35.711,35.798,32.876,25.565,4.824,6.015,19.528
1430,0.334,35.827,35.76,32.885,25.572,4.824,6.137,19.404
1431,0.363,35.963,35.748,32.952,25.579,4.946,6.179,19.241
1432,0.392,35.6,35.74,32.905,25.572,4.947,6.22,18.873
1433,0.354,35.74,35.74,32.895,25.586,4.988,6.22,18.707
1434,0.33,35.837,35.783,32.914,25.582,4.948,6.22,18.298
1435,0.333,35.57,35.795,32.934,25.579,4.866,6.139,18.294
1436,0.353,35.605,35.803,32.895,25.572,4.784,6.138,19.148
1437,0.373,35.73,35.74,32.895,25.568,4.905,6.138,20.336
1438,0.399,35.818,35.755,32.914,25.572,4.784,6.219,21.73
1439,0.468,35.569,35.767,32.905,25.568,4.864,6.139,22.964
1440,0.51,35.701,35.814,32.924,25.572,4.906,6.219,23.83
1441,0.537,35.818,35.791,32.924,25.568,4.906,6.18,24.57
1442,0.596,35.895,35.721,32.924,25.572,4.906,6.179,25.066
1443,0.645,35.57,35.689,32.915,25.561,4.825,6.179,25.396
1444,0.675,35.701,35.673,32.934,25.575,4.865,6.179,25.643
1445,0.701,35.837,35.739,32.924,25.575,4.906,6.22,26.052
1446,0.744,35.896,35.755,32.924,25.575,4.906,6.18,27.235
1447,0.793,35.628,35.81,32.934,25.579,4.947,6.22,29.321
1448,0.833,35.769,35.733,32.943,25.575,4.907,6.18,31.984
1449,0.836,35.876,35.755,32.953,25.565,4.865,6.179,34.41
1450,0.83,35.925,35.775,32.963,25.579,4.906,6.22,36.63
1451,0.859,35.686,35.802,32.972,25.572,4.906,6.261,38.847
1452,0.879,35.817,35.818,32.953,25.572,4.947,6.139,40.78
1453,0.872,35.915,35.787,32.953,25.572,4.785,6.179,42.141
1454,0.876,35.935,35.795,32.963,25.565,4.824,6.098,42.927
1455,0.846,35.666,35.709,32.944,25.565,4.783,6.016,43.342
1456,0.814,35.779,35.739,32.934,25.568,4.742,6.015,43.996
1457,0.813,35.895,35.74,32.943,25.558,4.783,6.056,44.979
1458,0.803,35.781,35.79,32.943,25.565,4.824,6.137,45.802
1459,0.81,35.588,35.725,32.972,25.565,4.865,6.098,46.135
1460,0.813,35.73,35.747,32.982,25.572,4.865,6.138,46.016
1461,0.81,35.827,35.748,32.982,25.572,4.865,6.179,45.69
1462,0.807,35.589,35.771,32.973,25.572,4.865,6.098,45.402
1463,0.813,35.701,35.806,32.982,25.565,4.865,6.138,44.952
1464,0.826,35.798,35.815,32.992,25.568,4.743,6.098,44.378
1465,0.856,35.866,35.811,32.992,25.572,4.823,6.138,43.478
1466,0.875,35.522,35.694,32.992,25.579,4.783,6.138,42.615
1467,0.885,35.662,35.755,32.992,25.568,4.742,6.098,41.793
1468,0.889,35.779,35.779,33.001,25.568,4.783,6.016,41.419
1469,0.885,35.847,35.783,32.982,25.561,4.742,6.096,41.334
1470,0.928,35.551,35.713,33.001,25.565,4.783,6.016,41.456
1471,0.951,35.701,35.747,33.011,25.568,4.864,6.056,41.497
1472,0.945,35.798,35.744,33.002,25.565,4.784,6.056,41.335
1473,0.883,35.847,35.751,33.011,25.565,4.783,6.097,41.008
1474,0.863,35.618,35.779,33.011,25.568,4.783,6.056,40.395
1475,0.859,35.74,35.76,33.021,25.565,4.824,6.097,39.657
1476,0.853,35.866,35.795,33.021,25.575,4.865,6.178,38.958
1477,0.84,35.906,35.768,33.04,25.572,4.906,6.179,38.179
1478,0.856,35.532,35.748,33.069,25.579,4.987,6.261,37.439
1479,0.853,35.682,35.802,33.088,25.586,4.948,6.262,36.782
1480,0.846,35.789,35.795,33.089,25.582,4.988,6.139,36.368
1481,0.827,35.79,35.771,33.098,25.582,4.826,6.098,35.876
1482,0.823,35.761,35.689,33.079,25.568,4.824,6.097,35.79
1483,0.826,35.857,35.673,33.089,25.568,4.905,6.056,36.155
1484,0.852,35.934,35.712,33.089,25.572,4.865,6.097,36.606
1485,0.846,35.772,35.728,33.07,25.572,4.906,6.138,36.977
1486,0.833,35.684,35.728,33.079,25.568,4.784,6.057,37.305
1487,0.82,35.798,35.786,33.089,25.568,4.864,6.056,37.228
1488,0.839,35.895,35.713,33.098,25.568,4.865,6.056,37.186
1489,0.862,35.589,35.735,33.089,25.565,4.824,6.178,37.389
1490,0.869,35.682,35.771,33.098,25.572,4.824,6.098,38.001
1491,0.863,35.808,35.802,33.089,25.572,4.905,6.097,39.105
1492,0.862,35.886,35.811,33.108,25.572,4.825,6.016,40.132
1493,0.892,35.541,35.799,33.118,25.579,4.865,6.096,41.118
1494,0.879,35.662,35.795,33.127,25.575,4.865,6.097,41.819
1495,0.905,35.798,35.752,33.118,25.579,4.865,6.138,42.477
1496,0.902,35.866,35.72,33.137,25.575,4.865,6.098,43.947
1497,0.905,35.551,35.712,33.127,25.572,4.906,6.138,45.629
1498,0.892,35.711,35.802,33.137,25.579,4.906,6.138,46.947
1499,0.899,35.818,35.744,33.147,25.572,4.865,6.016,48.017
1500,0.889,35.876,35.755,33.147,25.572,4.906,6.056,49.735
1501,0.902,35.752,35.732,33.147,25.568,4.784,5.934,52.354
1502,0.882,35.866,35.744,33.137,25.568,4.783,5.974,55.837
1503,0.895,35.982,35.763,33.137,25.561,4.783,5.974,59.328
1504,0.905,36.003,35.798,33.156,25.565,4.824,5.974,61.883
1505,0.921,35.61,35.803,33.176,25.568,4.865,6.015,63.169
1506,0.922,35.759,35.787,33.157,25.565,4.946,5.974,63.466
1507,0.905,35.885,35.764,33.176,25.575,4.866,6.015,63.022
1508,0.908,35.887,35.74,33.185,25.572,4.824,6.056,62.692
1509,0.925,35.666,35.798,33.205,25.572,4.783,5.975,63.38
1510,0.954,35.788,35.76,33.205,25.565,4.905,6.055,64.566
1511,0.938,35.895,35.685,33.214,25.575,4.825,6.056,65.35
1512,0.912,35.733,35.724,33.205,25.568,4.824,5.975,65.562
1513,0.899,35.703,35.74,33.224,25.568,4.865,5.933,65.726
1514,0.902,35.846,35.767,33.215,25.565,4.865,6.014,66.582
1515,0.882,35.934,35.771,33.215,25.572,4.865,5.974,67.973
1516,0.84,35.571,35.787,33.205,25.568,4.824,5.933,69.613
1517,0.879,35.663,35.736,33.214,25.568,4.824,5.933,70.524
1518,0.924,35.798,35.747,33.224,25.568,4.824,5.892,70.655
1519,0.928,35.876,35.724,33.224,25.565,4.865,5.892,69.924
1520,0.918,35.589,35.779,33.234,25.561,4.824,5.973,68.86
1521,0.931,35.74,35.775,33.234,25.568,4.905,5.974,68.158
1522,0.938,35.866,35.732,33.253,25.572,4.906,5.974,68.07
1523,0.948,35.953,35.704,33.272,25.579,4.865,6.137,68.516
1524,0.977,35.532,35.685,33.282,25.586,5.028,6.098,69.496
1525,0.971,35.71,35.751,33.301,25.589,5.07,6.138,70.157
1526,0.984,35.846,35.763,33.321,25.593,4.948,6.057,70.285
1527,0.994,35.896,35.83,33.302,25.579,4.947,5.975,69.717
1528,0.971,35.743,35.744,33.302,25.579,4.866,6.015,68.776
1529,0.971,35.856,35.763,33.292,25.568,4.865,6.015,68.279
1530,0.977,35.963,35.748,33.292,25.575,4.865,6.056,68.64
1531,0.945,36.002,35.798,33.302,25.572,4.946,5.975,69.782
1532,0.919,35.6,35.799,33.292,25.572,4.907,6.015,70.932
1533,0.915,35.701,35.838,33.311,25.579,4.865,6.015,71.228
1534,0.925,35.827,35.788,33.321,25.579,4.987,6.056,70.824
1535,0.918,36.174,35.748,33.331,25.579,4.907,6.015,69.926
1536,0.905,35.765,35.736,33.321,25.575,4.865,6.056,68.738
1537,0.895,35.876,35.728,33.331,25.568,4.906,6.056,67.425
1538,0.921,35.963,35.79,33.321,25.575,4.947,6.056,65.867
1539,0.938,35.887,35.732,33.331,25.575,4.907,6.056,64.306
1540,0.932,35.973,35.751,33.35,25.572,4.947,6.056,62.42
1541,0.938,36.118,35.748,33.36,25.579,4.947,6.015,60.369
1542,0.951,36.186,35.751,33.36,25.575,4.947,6.056,58.152
1543,0.941,35.506,35.798,33.36,25.575,4.907,6.056,55.772
1544,0.977,35.633,35.807,33.35,25.572,4.825,6.015,53.349
1545,0.984,35.759,35.811,33.36,25.572,4.865,5.974,50.886
1546,0.994,35.828,35.74,33.36,25.572,4.824,5.974,48.503
1547,0.974,35.685,35.759,33.36,25.561,4.702,5.893,46.243
1548,0.99,35.827,35.74,33.331,25.558,4.782,5.851,44.188
1549,0.997,35.915,35.79,33.359,25.554,4.702,5.932,42.216
1550,1.004,35.983,35.721,33.35,25.561,4.823,5.933,40.61
1551,1.02,35.466,35.708,33.388,25.568,4.824,6.014,39.415
1552,1.03,35.623,35.735,33.379,25.579,4.865,6.056,38.712
1553,1.02,35.75,35.732,33.379,25.568,4.784,6.056,38.217
1554,1.01,35.799,35.744,33.389,25.572,4.864,6.015,37.684
1555,1.014,35.713,35.767,33.398,25.572,4.824,5.974,37.272
1556,1.004,35.837,35.779,33.398,25.572,4.946,6.015,36.699
1557,1.007,35.944,35.74,33.398,25.565,4.866,6.015,36.53
1558,1.027,35.983,35.755,33.418,25.572,4.865,6.015,36.406
1559,1.007,35.667,35.752,33.399,25.568,4.865,6.015,36.487
1560,0.988,35.798,35.787,33.398,25.565,4.865,6.015,36.528
1561,1.004,35.905,35.795,33.398,25.565,4.906,5.974,36.488
1562,1.017,35.944,35.729,33.398,25.565,4.906,6.055,36.325
1563,1.03,35.734,35.681,33.418,25.572,4.744,5.934,36.079
1564,1.056,35.847,35.649,33.408,25.565,4.823,6.014,35.67
1565,1.043,35.953,35.719,33.408,25.561,4.824,5.974,35.219
1566,1.046,35.561,35.7,33.418,25.558,4.824,5.974,34.808
1567,1.063,35.634,35.778,33.427,25.565,4.865,6.015,34.438
1568,1.069,35.75,35.721,33.437,25.568,4.865,6.096,34.19
1569,1.066,35.856,35.743,33.437,25.572,4.906,6.097,34.35
1570,1.073,35.522,35.74,33.456,25.579,4.906,6.138,34.84
1571,1.076,35.672,35.787,33.485,25.582,4.947,6.219,35.333
1572,1.073,35.789,35.807,33.476,25.579,4.988,6.18,35.704
1573,1.076,35.886,35.818,33.485,25.582,5.029,6.179,35.951
1574,1.089,35.599,35.795,33.486,25.579,4.907,6.179,35.913
1575,1.096,35.74,35.729,33.495,25.579,4.865,6.098,35.587
1576,1.092,35.866,35.732,33.476,25.572,4.906,6.056,35.096
1577,1.096,35.915,35.712,33.476,25.561,4.865,6.056,34.481
1578,1.089,35.637,35.806,33.466,25.572,4.906,6.015,33.662
1579,1.092,35.779,35.721,33.476,25.575,4.987,6.015,32.759
1580,1.096,35.905,35.747,33.495,25.568,4.866,6.056,31.896
1581,1.083,35.944,35.74,33.486,25.568,4.906,6.015,30.872
1582,1.06,35.513,35.755,33.505,25.568,4.865,6.096,29.845
1583,1.095,35.643,35.814,33.495,25.572,4.865,5.975,28.737
1584,1.141,35.75,35.815,33.505,25.572,4.906,6.055,27.668
1585,1.122,35.77,35.818,33.514,25.572,4.865,6.015,26.682
1586,1.145,35.684,35.752,33.495,25.572,4.865,6.056,25.737
1587,1.135,35.827,35.752,33.524,25.579,4.865,6.056,24.833
1588,1.135,35.934,35.716,33.515,25.575,4.906,6.097,24.133
1589,1.148,35.81,35.786,33.534,25.582,4.947,6.097,23.638
1590,1.178,35.694,35.744,33.534,25.575,4.866,6.097,23.389
1591,1.194,35.837,35.685,33.524,25.568,4.824,6.056,23.265
1592,1.201,35.934,35.72,33.524,25.582,4.824,6.015,23.304
1593,1.191,35.475,35.732,33.534,25.568,4.824,5.974,23.467
1594,1.181,35.547,35.744,33.534,25.565,4.824,5.974,23.632
1595,1.162,35.663,35.767,33.515,25.558,4.743,5.933,23.633
1596,1.122,35.75,35.775,33.524,25.568,4.701,5.974,23.836
1597,1.142,35.655,35.74,33.515,25.558,4.742,5.974,24.286
1598,1.145,35.817,35.732,33.524,25.565,4.783,5.974,25.713
1599,1.165,35.934,35.712,33.524,25.565,4.824,5.974,27.72
1600,1.161,36.002,35.771,33.553,25.572,4.783,6.055,29.651
1601,1.181,35.552,35.76,33.544,25.568,4.824,6.015,31.215
1602,1.22,35.701,35.736,33.582,25.568,4.783,5.974,32.328
1603,1.224,35.846,35.681,33.554,25.579,4.824,6.055,33.519
1604,1.227,35.867,35.7,33.582,25.572,4.824,6.015,35.238
1605,1.234,35.599,35.747,33.554,25.579,4.824,6.056,37.735
1606,1.227,35.721,35.751,33.563,25.565,4.865,6.015,40.281
1607,1.224,35.866,35.798,33.563,25.561,4.824,6.056,42.299
1608,1.253,35.896,35.705,33.592,25.568,4.783,6.015,43.824
1609,1.234,35.628,35.735,33.573,25.565,4.783,6.056,45.058
1610,1.256,35.73,35.732,33.573,25.565,4.824,6.015,46.087
1611,1.247,35.856,35.775,33.553,25.565,4.865,6.015,46.626
1612,1.253,35.867,35.783,33.553,25.565,4.865,5.974,46.55
1613,1.234,35.627,35.775,33.572,25.572,4.824,5.974,46.143
1614,1.214,35.769,35.763,33.573,25.568,4.824,6.055,45.325
1615,1.224,35.866,35.713,33.601,25.575,4.865,6.097,44.301
1616,1.23,35.742,35.763,33.611,25.572,4.946,6.097,43.274
1617,1.234,35.741,35.74,33.621,25.579,4.947,6.219,42.369
1618,1.23,35.885,35.802,33.602,25.579,4.947,6.18,41.628
1619,1.247,35.982,35.729,33.621,25.582,4.947,6.139,40.971
1620,1.214,35.705,35.755,33.64,25.582,4.907,6.098,40.313
1621,1.211,35.827,35.728,33.631,25.568,4.865,6.056,39.534
1622,1.207,35.924,35.771,33.64,25.579,4.824,6.056,38.754
1623,1.25,35.992,35.779,33.621,25.572,4.783,6.015,38.055
1624,1.279,35.725,35.775,33.611,25.572,4.824,5.974,37.601
1625,1.267,35.856,35.818,33.64,25.568,4.783,6.055,37.271
1626,1.267,35.982,35.748,33.612,25.561,4.783,6.097,37.227
1627,1.273,36.07,35.755,33.65,25.572,4.864,6.056,37.389
1628,1.283,35.86,35.755,33.631,25.572,4.824,6.056,38.163
1629,1.296,35.982,35.806,33.64,25.572,4.865,5.975,39.676
1630,1.29,36.089,35.768,33.64,25.575,4.824,6.096,41.805
1631,1.27,36.167,35.713,33.65,25.575,4.946,6.016,44.428
1632,1.312,35.832,35.728,33.631,25.572,4.825,6.015,47.016
1633,1.29,35.963,35.736,33.64,25.572,4.865,6.056,48.953
1634,1.303,36.098,35.767,33.669,25.572,4.824,6.097,50.151
1635,1.309,36.109,35.744,33.669,25.575,4.946,6.056,51.424
1636,1.313,36.052,35.794,33.669,25.579,4.825,6.056,52.941
1637,1.306,36.166,35.748,33.65,25.572,4.865,6.097,54.948
1638,1.3,36.292,35.759,33.669,25.575,4.824,6.016,57.204
1639,1.309,36.562,35.744,33.66,25.572,4.824,6.015,59.219
1640,1.306,36.095,35.798,33.66,25.568,4.783,6.015,60.54
1641,1.293,36.224,35.795,33.66,25.568,4.702,5.974,60.96
1642,1.28,36.302,35.74,33.66,25.568,4.742,5.974,60.679
1643,1.283,36.159,35.693,33.631,25.565,4.742,5.893,59.823
1644,1.273,36.196,35.661,33.65,25.561,4.701,5.892,58.473
1645,1.273,36.321,35.708,33.65,25.561,4.823,5.973,56.792
1646,1.293,36.418,35.677,33.669,25.565,4.824,6.015,54.905
1647,1.306,36.189,35.774,33.66,25.565,4.865,6.096,52.894
1648,1.309,36.331,35.701,33.688,25.572,4.743,5.975,50.8
1649,1.303,36.466,35.747,33.689,25.568,4.864,6.015,48.706
1650,1.306,36.554,35.744,33.679,25.568,4.824,6.015,46.489
1651,1.296,36.286,35.787,33.67,25.568,4.865,5.974,44.393
1652,1.293,36.428,35.818,33.679,25.579,4.865,6.055,42.34
1653,1.28,36.544,35.787,33.679,25.568,4.784,6.015,40.327
1654,1.26,36.612,35.787,33.679,25.572,4.783,5.974,38.64
1655,1.263,36.383,35.736,33.65,25.565,4.742,5.974,37.241
1656,1.234,36.544,35.732,33.717,25.565,4.823,6.015,36.088
1657,1.227,36.66,35.724,33.68,25.568,4.743,6.015,35.386
1658,1.24,36.7,35.786,33.67,25.561,4.742,5.974,34.891
1659,1.231,36.566,35.748,33.669,25.565,4.783,5.974,34.561
1660,1.221,36.689,35.724,33.717,25.565,4.824,5.974,34.882
1661,1.185,36.806,35.732,33.67,25.565,4.783,5.974,35.862
1662,1.178,36.835,35.728,33.679,25.565,4.783,6.096,37.335
1663,1.194,36.586,35.763,33.708,25.568,4.742,6.097,38.773
1664,1.188,36.699,35.787,33.699,25.579,4.905,6.178,39.966
1665,1.188,36.825,35.814,33.718,25.579,4.906,6.179,41.157
1666,1.158,37.018,35.803,33.727,25.582,4.947,6.179,42.796
1667,1.145,36.751,35.772,33.737,25.579,4.947,6.098,45.129
1668,1.145,36.873,35.752,33.728,25.582,4.866,6.097,47.999
1669,1.174,36.951,35.802,33.708,25.572,4.824,6.056,50.996
1670,1.184,36.894,35.775,33.708,25.572,4.865,6.056,53.302
1671,1.178,36.98,35.717,33.708,25.568,4.784,6.178,54.83
1672,1.178,37.086,35.736,33.699,25.568,4.783,6.098,55.373
1673,1.129,37.193,35.736,33.708,25.568,4.824,6.056,55.094
1674,1.077,36.83,35.736,33.699,25.568,4.824,6.097,54.197
1675,1.021,36.96,35.74,33.708,25.572,4.824,6.056,52.887
1676,1.017,37.077,35.798,33.699,25.575,4.865,6.137,51.247
1677,1.001,37.174,35.768,33.708,25.568,4.865,6.057,49.523
1678,0.981,36.945,35.744,33.708,25.572,4.906,6.097,47.88
1679,0.991,37.115,35.759,33.718,25.579,4.906,6.138,46.115
1680,0.945,37.213,35.795,33.718,25.579,4.906,6.138,44.471
1681,0.915,37.252,35.799,33.708,25.572,4.865,6.138,43.154
1682,0.935,37.003,35.732,33.718,25.579,4.906,6.098,41.961
1683,0.948,37.135,35.72,33.727,25.572,4.865,6.138,40.852
1684,0.974,37.242,35.681,33.708,25.572,4.865,6.098,39.905
1685,0.964,37.31,35.72,33.699,25.561,4.824,6.056,38.758
1686,0.987,37.071,35.716,33.708,25.568,4.743,6.056,37.73
1687,0.984,37.174,35.743,33.689,25.565,4.742,5.893,36.866
1688,0.978,37.261,35.744,33.679,25.561,4.742,5.973,36.085
1689,0.945,37.281,35.716,33.689,25.565,4.742,6.055,35.223
1690,0.932,37.07,35.72,33.67,25.565,4.701,6.015,34.483
1691,0.948,37.212,35.751,33.689,25.572,4.823,6.015,34.028
1692,0.941,37.309,35.783,33.708,25.572,4.865,6.056,34.023
1693,0.906,37.301,35.771,33.708,25.572,4.824,6.137,34.227
1694,0.915,37.186,35.771,33.699,25.568,4.824,6.057,34.473
1695,0.902,37.328,35.748,33.698,25.572,4.783,6.097,34.597
1696,0.892,37.416,35.767,33.698,25.568,4.824,6.016,34.598
1697,0.863,37.129,35.74,33.698,25.572,4.783,6.056,34.517
1698,0.84,37.213,35.79,33.698,25.568,4.824,5.975,34.638
1699,0.83,37.338,35.725,33.679,25.572,4.824,6.137,34.68
1700,0.846,37.426,35.743,33.698,25.568,4.783,6.098,34.721
1701,0.849,37.196,35.736,33.698,25.561,4.824,6.056,34.356
1702,0.833,37.338,35.755,33.689,25.561,4.824,6.015,33.905
1703,0.862,37.445,35.775,33.698,25.565,4.783,6.056,33.494
1704,0.888,37.513,35.806,33.689,25.561,4.824,6.015,33.042
1705,0.872,37.14,35.811,33.698,25.572,4.783,6.056,32.469
1706,0.869,37.27,35.736,33.708,25.575,4.783,6.097,32.097
1707,0.879,37.415,35.763,33.718,25.572,4.946,6.178,31.605
1708,0.863,37.484,35.763,33.718,25.582,4.947,6.22,31.112
1709,0.862,37.312,35.802,33.747,25.582,4.988,6.18,30.782
1710,0.869,37.473,35.744,33.747,25.582,4.988,6.179,30.251
1711,0.879,37.59,35.744,33.747,25.582,4.948,6.139,29.635
1712,0.872,37.62,35.724,33.737,25.575,4.866,6.138,29.223
1713,0.84,37.707,35.743,33.718,25.568,4.824,6.098,28.609
1714,0.846,37.832,35.748,33.708,25.565,4.865,6.138,28.196
1715,0.856,37.929,35.771,33.718,25.572,4.824,6.057,27.826
1716,0.856,37.949,35.783,33.699,25.572,4.865,6.097,27.416
1717,0.872,37.067,35.701,33.708,25.572,4.865,6.056,27.208
1718,0.863,37.183,35.747,33.699,25.572,4.865,6.097,26.881
1719,0.879,37.28,35.763,33.718,25.565,4.784,6.056,26.877
1720,0.872,37.329,35.795,33.699,25.568,4.783,6.097,27.325
1721,0.85,37.378,35.764,33.727,25.572,4.864,6.097,28.061
1722,0.875,37.484,35.709,33.728,25.572,4.865,6.138,28.719
1723,0.856,37.609,35.677,33.737,25.568,4.906,6.057,29.376
1724,0.849,37.189,35.731,33.718,25.565,4.865,6.137,29.789
1725,0.856,37.29,35.724,33.718,25.572,4.946,6.098,30.078
1726,0.84,37.416,35.74,33.718,25.575,4.866,6.138,30.162
1727,0.768,37.494,35.755,33.718,25.575,4.865,6.057,29.96
1728,0.725,37.12,35.642,33.708,25.565,4.824,6.056,29.511
1729,0.721,37.232,35.735,33.699,25.561,4.783,5.975,28.977
1730,0.731,37.358,35.759,33.689,25.561,4.661,5.933,28.322
1731,0.718,37.407,35.791,33.689,25.558,4.7,5.974,27.705
1732,0.754,37.139,35.748,33.679,25.565,4.782,6.015,27.089
1733,0.787,37.299,35.72,33.698,25.568,4.864,6.015,26.392
1734,0.803,37.425,35.697,33.718,25.572,4.865,6.015,25.693
1735,0.82,37.494,35.653,33.727,25.568,4.824,6.015,24.914
1736,0.807,37.072,35.708,33.728,25.568,4.905,6.056,24.215
1737,0.784,37.212,35.732,33.728,25.565,4.825,6.056,23.395
1738,0.764,37.309,35.751,33.699,25.572,4.865,6.015,22.696
1739,0.767,37.349,35.642,33.718,25.565,4.784,5.974,22.079
1740,0.735,37.138,35.731,33.708,25.575,4.783,5.974,21.503
1741,0.712,37.28,35.732,33.718,25.565,4.824,5.933,20.969
1742,0.708,37.377,35.786,33.708,25.561,4.824,6.014,20.639
1743,0.724,37.407,35.779,33.708,25.561,4.783,5.974,20.31
1744,0.737,37.024,35.783,33.699,25.568,4.824,5.974,20.144
1745,0.731,37.144,35.764,33.718,25.565,4.743,5.893,20.02
1746,0.741,37.251,35.677,33.718,25.568,4.661,5.973,19.816
1747,0.702,37.08,35.712,33.708,25.561,4.822,5.974,19.57
1748,0.698,37.068,35.775,33.708,25.565,4.743,5.933,19.486
1749,0.734,37.212,35.76,33.708,25.568,4.823,5.974,19.16
1750,0.777,37.319,35.744,33.737,25.568,4.824,6.055,18.954
1751,0.81,36.927,35.724,33.737,25.572,4.905,6.097,18.748
1752,0.829,37.057,35.747,33.737,25.579,4.987,6.138,18.461
1753,0.817,37.183,35.775,33.756,25.582,4.948,6.179,18.337
1754,0.813,37.28,35.802,33.766,25.582,5.029,6.098,18.213
1755,0.813,36.994,35.814,33.766,25.579,4.907,6.056,18.05
1756,0.794,37.135,35.787,33.738,25.579,4.865,6.056,17.804
1757,0.777,37.242,35.748,33.737,25.572,4.824,6.056,17.72
1758,0.761,37.29,35.728,33.728,25.572,4.783,6.056,17.475
1759,0.748,36.898,35.786,33.728,25.572,4.864,6.056,17.31
1760,0.751,37.009,35.771,33.737,25.572,4.865,6.015,17.065
1761,0.78,37.135,35.681,33.747,25.568,4.784,6.056,16.737
1762,0.774,37.222,35.731,33.747,25.568,4.824,6.056,16.531
1763,0.784,36.888,35.716,33.747,25.568,4.865,5.975,16.162
1764,0.787,37.028,35.732,33.747,25.572,4.824,6.055,15.874
1765,0.774,37.116,35.744,33.737,25.568,4.905,6.137,15.668
1766,0.784,37.155,35.779,33.756,25.579,4.865,5.976,15.463
1767,0.784,36.896,35.771,33.757,25.565,4.824,6.055,15.217
1768,0.79,37.028,35.736,33.747,25.575,4.824,5.975,15.052
1769,0.8,37.145,35.751,33.756,25.572,4.865,6.055,14.887
1770,0.826,37.424,35.791,33.757,25.579,4.906,6.015,14.967
1771,0.823,36.899,35.799,33.747,25.579,4.865,6.015,14.887
1772,0.836,37.028,35.764,33.756,25.572,4.906,5.974,14.926
1773,0.833,37.106,35.693,33.766,25.565,4.865,5.974,15.049
1774,0.823,36.771,35.673,33.747,25.561,4.784,5.933,15.131
1775,0.817,36.787,35.696,33.756,25.568,4.742,5.892,15.213
1776,0.803,36.922,35.724,33.728,25.558,4.701,5.851,15.255
1777,0.79,37.0,35.732,33.747,25.554,4.701,5.851,15.337
1778,0.797,36.722,35.732,33.728,25.558,4.742,5.851,15.419
1779,0.784,36.854,35.732,33.728,25.558,4.742,5.973,15.623
1780,0.774,36.98,35.708,33.728,25.568,4.783,6.015,15.625
1781,0.754,37.058,35.759,33.756,25.561,4.824,5.974,15.625
1782,0.757,36.694,35.783,33.757,25.572,4.824,6.015,15.91
1783,0.748,36.844,35.799,33.766,25.565,4.824,6.015,16.319
1784,0.77,36.951,35.764,33.766,25.568,4.783,5.974,16.892
1785,0.78,37.01,35.752,33.766,25.568,4.864,5.974,17.589
1786,0.784,36.617,35.701,33.776,25.568,4.784,5.974,18.287
1787,0.8,36.757,35.7,33.757,25.565,4.824,6.015,18.945
1788,0.794,36.873,35.771,33.747,25.568,4.783,5.974,19.602
1789,0.806,36.922,35.752,33.776,25.568,4.783,6.015,20.178
1790,0.803,36.654,35.728,33.786,25.561,4.824,5.974,20.631
1791,0.803,36.786,35.716,33.757,25.565,4.824,5.974,20.92
1792,0.823,36.912,35.72,33.757,25.565,4.702,5.974,21.289
1793,0.82,36.923,35.747,33.757,25.558,4.782,5.974,21.902
1794,0.8,36.501,35.791,33.747,25.568,4.742,5.974,22.559
1795,0.79,36.641,35.791,33.766,25.565,4.823,6.096,23.379
1796,0.793,36.748,35.756,33.785,25.572,4.865,6.056,24.119
1797,0.78,36.844,35.752,33.786,25.579,4.906,6.137,24.736
1798,0.777,36.711,35.752,33.795,25.579,4.947,6.179,25.189
1799,0.767,36.844,35.791,33.814,25.586,5.029,6.098,25.56
1800,0.757,36.951,35.799,33.824,25.579,4.989,6.178,25.97
1801,0.761,36.52,35.693,33.834,25.579,4.948,6.057,26.503
1802,0.77,36.583,35.739,33.824,25.579,4.866,6.056,27.524
1803,0.793,36.68,35.712,33.824,25.572,4.865,6.097,28.958
1804,0.819,36.757,35.712,33.805,25.568,4.906,6.097,30.639
1805,0.843,36.451,35.72,33.815,25.572,4.825,6.016,31.916
1806,0.843,36.573,35.743,33.824,25.572,4.905,6.096,32.945
1807,0.823,36.708,35.751,33.815,25.568,4.865,6.056,33.484
1808,0.826,36.796,35.74,33.815,25.572,4.865,6.137,33.774
1809,0.807,36.423,35.708,33.824,25.572,4.865,6.138,33.614
1810,0.823,36.553,35.763,33.834,25.572,4.865,6.057,33.247
1811,0.826,36.67,35.783,33.824,25.572,4.946,6.097,32.593
1812,0.823,36.748,35.756,33.824,25.575,4.866,6.097,31.895
1813,0.826,36.403,35.709,33.824,25.575,4.946,6.097,31.075
1814,0.807,36.534,35.673,33.834,25.575,4.988,6.138,30.416
1815,0.807,36.641,35.7,33.882,25.579,4.988,6.098,29.718
1816,0.8,36.69,35.712,33.854,25.568,4.948,6.056,29.101
1817,0.787,36.355,35.763,33.844,25.572,4.907,6.097,28.363
1818,0.79,36.476,35.748,33.825,25.568,4.825,5.975,27.665
1819,0.79,36.592,35.755,33.824,25.568,4.824,5.933,27.007
1820,0.79,36.613,35.716,33.815,25.561,4.743,5.974,26.431
1821,0.761,36.335,35.736,33.824,25.565,4.783,5.974,25.857
1822,0.754,36.476,35.771,33.815,25.558,4.864,5.974,25.241
1823,0.767,36.554,35.802,33.834,25.568,4.906,6.015,24.706
1824,0.803,36.459,35.772,33.844,25.565,4.947,6.056,24.132
1825,0.8,36.391,35.76,33.853,25.572,4.907,6.015,23.435
1826,0.81,36.515,35.666,33.882,25.561,4.906,6.056,22.899
1827,0.816,36.622,35.719,33.844,25.565,4.947,6.015,22.244
1828,0.826,36.182,35.743,33.863,25.565,4.907,5.974,21.79
1829,0.813,36.273,35.744,33.853,25.568,4.906,6.055,21.379
1830,0.855,36.418,35.642,33.853,25.568,4.865,6.015,21.13
1831,0.849,36.515,35.719,33.863,25.568,4.906,6.015,20.965
1832,0.83,36.181,35.736,33.853,25.568,4.865,5.974,20.842
1833,0.813,36.302,35.74,33.853,25.568,4.906,5.974,20.759
1834,0.803,36.428,35.787,33.863,25.565,4.825,5.974,20.84
1835,0.8,36.496,35.779,33.873,25.561,4.824,6.015,20.841
1836,0.797,36.199,35.795,33.854,25.565,4.905,5.934,20.963
1837,0.797,36.34,35.693,33.92,25.565,4.906,6.014,21.004
1838,0.781,36.486,35.72,33.864,25.568,4.947,6.137,20.964
1839,0.777,36.535,35.775,33.901,25.579,4.988,6.138,20.842
1840,0.793,36.2,35.767,33.902,25.589,4.988,6.138,20.881
1841,0.78,36.36,35.72,33.921,25.579,5.07,6.179,20.76
1842,0.787,36.495,35.708,33.94,25.579,5.03,6.179,20.474
1843,0.8,36.526,35.739,33.931,25.579,5.03,6.098,20.349
1844,0.81,36.171,35.751,33.921,25.572,4.907,5.975,20.673
1845,0.781,36.292,35.744,33.911,25.572,4.987,6.015,21.246
1846,0.774,36.389,35.763,33.892,25.572,4.948,5.974,21.82
1847,0.774,36.409,35.767,33.911,25.568,4.988,6.055,22.396
1848,0.803,36.131,35.74,33.892,25.572,4.907,6.056,22.93
1849,0.813,36.263,35.728,33.921,25.568,4.906,6.015,23.342
1850,0.823,36.36,35.759,33.911,25.568,4.987,6.015,23.468
1851,0.836,36.169,35.795,33.902,25.575,4.866,5.974,23.713
1852,0.839,36.148,35.764,33.921,25.572,4.946,6.055,24.366
1853,0.839,36.292,35.689,33.931,25.568,4.988,6.015,25.795
1854,0.82,36.36,35.673,33.931,25.572,5.029,5.974,27.639
1855,0.794,36.054,35.708,33.94,25.568,4.948,6.055,29.528
1856,0.78,36.176,35.743,33.94,25.572,4.988,5.975,30.889
1857,0.78,36.302,35.755,33.931,25.572,4.988,6.015,32.0
1858,0.784,36.361,35.798,33.921,25.579,4.948,6.056,32.865
1859,0.784,36.064,35.744,33.959,25.582,4.947,5.975,33.605
1860,0.777,36.205,35.708,33.931,25.565,4.907,6.055,34.06
1861,0.771,36.321,35.739,33.921,25.568,4.865,5.893,34.227
1862,0.793,36.39,35.759,33.911,25.561,4.784,5.892,34.269
1863,0.79,35.92,35.775,33.931,25.561,4.742,5.933,34.351
1864,0.797,36.05,35.775,33.902,25.554,4.823,5.974,34.352
1865,0.787,36.157,35.756,33.911,25.565,4.743,5.974,34.393
1866,0.78,36.234,35.677,33.931,25.568,4.986,5.974,34.434
1867,0.8,35.986,35.7,33.921,25.568,4.948,5.974,34.881
1868,0.807,36.146,35.747,33.94,25.568,4.907,5.974,35.374
1869,0.794,36.234,35.751,33.94,25.565,4.865,6.015,35.745
1870,0.79,36.274,35.697,33.94,25.572,4.906,5.974,35.87
1871,0.79,36.034,35.708,33.94,25.565,4.906,5.974,35.79
1872,0.8,36.166,35.7,33.95,25.568,4.865,5.933,36.033
1873,0.823,36.273,35.716,33.941,25.565,4.824,5.974,36.524
1874,0.813,36.571,35.755,33.94,25.568,4.865,6.015,37.098
1875,0.781,35.884,35.783,33.931,25.565,4.824,5.934,37.469
1876,0.774,36.011,35.771,33.921,25.561,4.824,5.892,37.554
1877,0.777,36.099,35.689,33.94,25.572,4.824,5.892,37.555
1878,0.787,35.965,35.716,33.94,25.565,4.783,5.851,37.677
1879,0.754,36.031,35.751,33.931,25.565,4.905,5.932,38.654
1880,0.757,36.156,35.779,33.95,25.568,4.825,6.014,40.86
1881,0.744,36.273,35.744,33.969,25.568,4.946,6.015,44.338
1882,0.764,35.929,35.673,33.979,25.575,4.907,6.096,48.357
1883,0.761,36.05,35.712,33.979,25.582,5.028,6.097,52.382
1884,0.774,36.195,35.7,33.998,25.586,4.989,6.178,55.959
1885,0.793,36.264,35.708,33.999,25.589,5.07,6.139,58.678
1886,0.813,35.804,35.747,33.999,25.582,4.989,6.138,60.169
1887,0.803,35.924,35.787,33.999,25.575,4.907,6.057,60.59
1888,0.8,36.04,35.701,33.979,25.572,4.825,6.015,60.31
1889,0.8,36.118,35.704,33.979,25.572,4.905,6.015,59.535
1890,0.807,35.879,35.747,33.998,25.565,4.906,6.056,58.388
1891,0.82,36.011,35.771,33.979,25.575,4.865,6.056,56.994
1892,0.807,36.118,35.783,33.979,25.575,4.824,6.015,55.354
1893,0.82,36.167,35.724,33.979,25.575,4.987,6.056,53.671
1894,0.794,35.774,35.685,33.979,25.579,4.826,6.137,52.028
1895,0.787,35.895,35.645,33.979,25.572,4.824,6.057,50.588
1896,0.8,36.04,35.719,33.989,25.572,4.905,6.056,49.679
1897,0.784,36.061,35.732,33.989,25.579,4.865,6.056,49.101
1898,0.78,36.013,35.759,33.979,25.572,4.906,6.056,49.014
1899,0.78,36.147,35.732,33.989,25.579,4.947,6.137,49.338
1900,0.764,36.273,35.732,33.998,25.568,4.866,6.138,49.83
1901,0.744,36.322,35.74,34.008,25.579,4.906,6.138,50.526
1902,0.751,35.881,35.787,34.018,25.575,4.865,6.219,51.305
1903,0.764,36.011,35.787,33.989,25.572,4.824,6.098,51.72
1904,0.77,36.099,35.775,33.989,25.572,4.824,6.016,51.968
1905,0.748,35.802,35.752,33.96,25.558,4.743,5.974,51.929
1906,0.76,35.857,35.681,33.96,25.558,4.742,5.974,51.807
1907,0.748,35.992,35.704,33.979,25.554,4.742,6.015,51.318
1908,0.754,36.06,35.732,33.979,25.561,4.783,6.137,50.419
1909,0.754,35.754,35.755,33.96,25.568,4.864,6.138,49.556
1910,0.754,35.924,35.677,33.998,25.572,4.824,6.138,49.059
1911,0.793,36.05,35.716,33.979,25.565,4.824,6.057,49.176
1912,0.793,36.138,35.7,33.998,25.568,4.824,6.137,49.991
1913,0.793,35.764,35.763,33.999,25.568,4.824,6.138,50.893
1914,0.771,35.876,35.775,33.999,25.568,4.865,6.098,51.838
1915,0.78,35.992,35.783,33.979,25.572,4.784,6.056,52.213
1916,0.764,36.051,35.791,33.989,25.565,4.824,6.137,52.094
1917,0.78,35.859,35.693,33.998,25.561,4.824,6.098,51.483
1918,0.78,36.011,35.716,33.979,25.565,4.824,6.097,50.624
1919,0.777,36.099,35.739,33.998,25.561,4.824,6.056,49.721
1920,0.78,36.148,35.783,33.979,25.568,4.865,6.097,49.305
1921,0.797,35.784,35.717,33.998,25.561,4.784,6.016,49.504
1922,0.816,35.924,35.712,33.989,25.561,4.824,6.096,50.197
1923,0.797,36.031,35.716,33.989,25.572,4.783,6.097,50.855
1924,0.8,36.061,35.724,33.989,25.565,4.783,6.097,51.146
1925,0.816,35.831,35.74,34.008,25.565,4.864,6.056,51.068
1926,0.82,35.953,35.728,34.008,25.575,4.987,6.137,50.66
1927,0.803,36.06,35.779,34.018,25.568,5.029,6.26,50.087
1928,0.787,36.08,35.682,34.027,25.582,5.07,6.262,49.756
1929,0.819,36.004,35.727,34.047,25.586,5.03,6.384,49.63
1930,0.797,36.118,35.755,34.028,25.586,5.03,6.303,49.914
1931,0.807,36.205,35.798,34.018,25.579,5.07,6.221,51.665
1932,0.787,35.832,35.764,34.037,25.575,4.948,6.139,55.83
1933,0.758,35.915,35.713,33.999,25.568,4.907,6.138,62.417
1934,0.787,36.05,35.7,34.018,25.572,4.947,6.219,70.574
1935,0.777,36.118,35.685,34.018,25.575,4.947,6.139,78.869
1936,0.784,35.87,35.731,34.008,25.568,4.947,6.179,85.66
1937,0.787,36.011,35.728,34.018,25.572,4.947,6.139,89.631
1938,0.754,36.099,35.802,34.018,25.572,4.988,6.219,91.297
1939,0.751,36.205,35.666,34.037,25.572,4.988,6.22,91.517
1940,0.738,35.899,35.716,33.999,25.579,4.988,6.22,91.275
1941,0.728,36.03,35.7,34.018,25.575,5.029,6.139,90.906
1942,0.695,36.166,35.747,34.027,25.572,5.03,6.219,90.008
1943,0.714,36.215,35.794,34.047,25.582,5.03,6.22,88.291
1944,0.744,35.775,35.779,34.028,25.575,4.989,6.18,86.079
1945,0.744,35.933,35.799,34.028,25.579,4.948,6.179,83.699
1946,0.725,36.021,35.732,34.018,25.568,4.947,6.098,81.439
1947,0.718,36.08,35.755,34.018,25.568,4.907,6.138,79.18
1948,0.715,35.965,35.72,34.008,25.565,4.825,6.138,76.88
1949,0.708,36.07,35.759,33.989,25.558,4.824,6.016,75.15
1950,0.731,36.176,35.709,33.989,25.565,4.905,6.096,74.807
1951,0.754,36.177,35.677,34.037,25.568,4.865,6.097,76.268
1952,0.735,35.87,35.696,34.018,25.568,4.946,6.178,79.251
1953,0.741,36.001,35.7,34.008,25.568,4.947,6.179,82.492
1954,0.738,36.118,35.751,34.008,25.575,4.907,6.22,85.411
1955,0.744,35.956,35.744,34.018,25.565,4.947,6.22,87.148
1956,0.744,35.897,35.787,34.018,25.572,4.947,6.22,87.572
1957,0.747,36.021,35.732,34.018,25.565,4.907,6.261,86.641
1958,0.741,36.137,35.74,34.008,25.575,4.947,6.262,84.68
1959,0.76,35.822,35.712,34.018,25.565,4.947,6.343,81.936
1960,0.738,35.934,35.778,34.008,25.572,4.907,6.343,78.656
1961,0.741,36.079,35.771,33.989,25.568,4.906,6.384,75.086
1962,0.738,36.128,35.717,34.018,25.561,4.906,6.425,71.269
1963,0.728,35.841,35.677,34.008,25.565,4.947,6.466,67.491
1964,0.767,35.953,35.63,33.999,25.565,4.907,6.589,63.753
1965,0.754,36.089,35.711,33.989,25.568,4.906,6.59,60.219
1966,0.761,36.176,35.685,33.998,25.568,4.947,6.631,56.809
1967,0.78,35.851,35.755,33.999,25.565,5.029,6.834,53.888
1968,0.79,36.001,35.732,34.018,25.572,5.03,6.837,51.705
1969,0.78,36.118,35.74,34.027,25.579,5.151,7.04,50.219
1970,0.777,36.205,35.732,34.047,25.579,5.193,7.082,49.635
1971,0.784,35.928,35.751,34.037,25.586,5.153,7.164,49.67
1972,0.793,36.06,35.802,34.047,25.582,5.112,7.206,49.833
1973,0.803,36.195,35.799,34.047,25.582,5.152,7.287,49.713
1974,0.794,36.235,35.756,34.037,25.572,5.031,7.329,49.386
1975,0.81,35.89,35.709,34.018,25.572,4.989,7.451,48.773
1976,0.81,36.03,35.712,34.056,25.572,5.07,7.615,47.913
1977,0.761,36.099,35.708,34.028,25.568,5.03,7.82,46.888
1978,0.744,36.128,35.751,34.018,25.572,5.07,7.944,45.739
1979,0.76,35.927,35.716,34.018,25.568,5.03,8.148,44.549
1980,0.738,36.05,35.72,34.018,25.565,5.07,8.273,43.561
1981,0.751,36.166,35.72,34.027,25.565,5.111,8.518,43.185
1982,0.735,35.937,35.739,34.028,25.568,5.112,8.642,43.059
1983,0.721,35.935,35.771,34.018,25.575,5.03,8.684,42.977
1984,0.731,36.05,35.775,34.027,25.568,5.07,8.725,42.732
1985,0.747,36.147,35.779,34.028,25.572,5.07,8.807,42.283
1986,0.741,35.803,35.74,34.028,25.579,5.111,8.889,41.709
1987,0.777,35.953,35.72,34.028,25.575,5.112,8.93,41.134
1988,0.819,36.06,35.708,34.037,25.575,5.071,8.972,40.762
1989,0.82,36.138,35.774,34.028,25.572,5.152,8.972,40.677
1990,0.846,35.927,35.721,34.037,25.572,5.153,8.891,40.514
1991,0.872,36.079,35.751,34.066,25.575,5.153,8.93,40.187
1992,0.879,36.195,35.732,34.038,25.579,5.112,8.89,39.696
1993,0.876,36.264,35.716,34.028,25.568,5.03,8.93,39.122
1994,0.853,35.881,35.736,34.018,25.565,5.03,8.809,38.262
1995,0.843,36.011,35.74,34.008,25.565,4.989,8.645,37.359
1996,0.846,36.118,35.767,33.999,25.558,4.948,8.684,36.334
1997,0.827,36.167,35.689,33.989,25.565,5.029,8.644,35.429
1998,0.823,35.928,35.704,33.989,25.558,5.03,8.684,34.566
1999,0.82,36.05,35.728,33.989,25.565,5.03,8.644,33.663
2000,0.836,36.195,35.763,34.027,25.568,5.111,8.644,32.841
2001,0.826,36.254,35.724,34.028,25.572,5.071,8.521,32.304
2002,0.817,35.996,35.65,34.028,25.572,5.03,8.52,31.729
2003,0.807,36.127,35.708,34.008,25.565,5.07,8.52,31.154
2004,0.829,36.215,35.693,34.018,25.579,5.03,8.479,30.702
2005,0.826,36.523,35.712,34.008,25.565,5.03,8.438,30.128
2006,0.839,35.912,35.724,33.999,25.561,4.989,8.397,29.675
2007,0.833,36.031,35.771,34.008,25.568,4.948,8.316,29.67
2008,0.849,36.137,35.678,34.018,25.565,4.988,8.356,30.158
2009,0.849,35.889,35.704,34.008,25.561,4.948,8.275,30.935
2010,0.862,35.944,35.732,33.999,25.561,4.947,8.314,31.757
2011,0.856,36.06,35.755,33.979,25.558,4.947,8.315,32.456
2012,0.846,36.138,35.744,33.989,25.565,4.988,8.274,32.869
2013,0.84,35.841,35.685,33.989,25.565,4.988,8.233,33.402
2014,0.833,35.972,35.661,33.989,25.565,5.029,8.355,33.651
2015,0.784,36.098,35.704,34.066,25.579,5.151,8.397,33.776
2016,0.81,36.196,35.716,34.018,25.579,5.153,8.356,33.777
2017,0.794,35.803,35.755,34.027,25.572,5.234,8.437,33.533
2018,0.793,35.962,35.763,34.018,25.582,5.194,8.438,33.165
2019,0.81,36.089,35.736,34.085,25.579,5.153,8.397,32.714
2020,0.816,36.167,35.724,34.028,25.579,5.071,8.275,32.343
2021,0.807,36.052,35.755,34.018,25.579,5.07,8.314,32.014
2022,0.794,36.176,35.763,33.999,25.572,4.989,8.274,31.767
2023,0.803,36.283,35.771,33.999,25.572,5.029,8.274,31.927
2024,0.826,36.303,35.799,33.999,25.575,5.03,8.355,33.474
2025,0.82,35.872,35.729,33.999,25.572,5.07,8.315,36.213
2026,0.846,36.011,35.701,33.999,25.572,5.07,8.315,39.453
2027,0.879,36.128,35.72,33.999,25.568,5.03,8.396,42.494
2028,0.898,36.148,35.755,33.989,25.572,5.07,8.275,44.639
2029,0.912,35.918,35.732,33.998,25.575,5.03,8.355,45.92
2030,0.912,36.011,35.693,34.008,25.579,5.03,8.275,46.706
2031,0.882,36.147,35.716,33.999,25.572,5.111,8.314,47.486
2032,0.889,36.167,35.72,34.018,25.579,4.989,8.234,48.754
2033,0.885,35.88,35.755,33.989,25.579,5.07,8.233,50.23
2034,0.889,36.011,35.752,34.008,25.572,5.03,8.233,51.302
2035,0.882,36.108,35.806,33.999,25.575,5.07,8.151,51.679
2036,0.872,35.908,35.807,33.999,25.572,5.03,8.15,51.479
2037,0.843,36.002,35.705,33.989,25.579,4.989,8.11,50.705
2038,0.846,36.127,35.696,33.989,25.579,4.948,8.028,49.681
2039,0.84,36.196,35.759,33.979,25.568,4.947,7.865,49.02
2040,0.833,36.014,35.752,33.979,25.558,4.907,7.904,49.013
2041,0.804,36.137,35.693,33.979,25.551,4.906,7.863,49.298
2042,0.787,36.244,35.642,33.97,25.568,4.987,7.904,49.382
2043,0.8,36.331,35.68,33.969,25.572,4.907,7.904,48.976
2044,0.816,35.651,35.673,33.979,25.572,4.987,7.863,48.159
2045,0.803,35.779,35.677,33.979,25.572,5.029,7.822,47.094
2046,0.807,35.914,35.731,33.979,25.575,4.989,7.781,45.782
2047,0.823,35.983,35.771,34.008,25.575,4.948,7.781,44.264
2048,0.82,35.916,35.685,33.999,25.565,5.029,7.74,42.704
2049,0.81,36.079,35.716,33.989,25.568,4.948,7.781,41.062
2050,0.81,36.186,35.728,33.979,25.572,4.988,7.7,39.501
2051,0.823,36.225,35.775,33.989,25.565,4.948,7.699,38.347
2052,0.797,35.708,35.744,33.989,25.561,4.907,7.618,37.97
2053,0.767,35.856,35.681,33.979,25.565,4.906,7.617,38.494
2054,0.761,35.963,35.669,33.979,25.561,4.865,7.617,39.882
2055,0.751,35.993,35.657,33.97,25.565,4.906,7.576,41.97
2056,0.738,35.888,35.692,33.979,25.561,4.906,7.575,44.471
2057,0.738,36.011,35.712,33.979,25.568,4.865,7.535,46.732
2058,0.718,36.108,35.767,33.979,25.568,4.987,7.494,48.218
2059,0.705,35.975,35.693,33.979,25.572,4.948,7.494,48.965
2060,0.702,35.83,35.688,33.989,25.579,5.069,7.494,49.338
2061,0.695,35.972,35.724,34.008,25.579,5.03,7.616,49.342
2062,0.705,36.098,35.79,34.037,25.579,5.07,7.535,49.179
2063,0.718,35.754,35.814,34.028,25.579,5.07,7.494,49.015
2064,0.715,35.828,35.791,34.037,25.582,5.03,7.371,48.566
2065,0.721,35.943,35.771,33.999,25.579,4.989,7.411,47.992
2066,0.721,36.041,35.685,34.008,25.568,5.029,7.33,47.173
2067,0.741,35.802,35.716,34.008,25.568,4.948,7.248,46.108
2068,0.741,35.934,35.743,33.999,25.572,4.988,7.288,44.878
2069,0.718,36.05,35.759,33.999,25.568,4.866,7.247,43.524
2070,0.734,36.128,35.677,33.989,25.568,4.987,7.206,42.128
2071,0.725,35.764,35.696,33.979,25.568,4.907,7.206,40.528
2072,0.721,35.904,35.72,33.979,25.572,4.947,7.165,39.049
2073,0.724,36.011,35.728,33.998,25.572,4.988,7.165,37.611
2074,0.708,36.089,35.759,33.999,25.579,4.988,7.043,36.173
2075,0.698,35.735,35.771,33.989,25.572,4.948,7.123,35.265
2076,0.708,35.866,35.775,33.989,25.572,4.947,7.083,34.727
2077,0.695,35.982,35.685,33.998,25.572,4.947,7.083,34.478
2078,0.701,36.06,35.708,33.999,25.572,4.947,7.123,34.231
2079,0.695,35.792,35.732,33.999,25.572,4.988,7.165,33.904
2080,0.685,35.934,35.779,33.999,25.572,4.907,7.002,33.819
2081,0.682,36.012,35.709,34.018,25.572,4.947,7.001,33.777
2082,0.695,36.041,35.72,34.008,25.575,4.907,6.96,33.899
2083,0.692,35.917,35.712,34.008,25.572,4.947,6.96,33.9
2084,0.711,36.031,35.712,33.999,25.568,4.907,6.878,33.738
2085,0.718,36.118,35.693,33.989,25.565,4.825,6.715,33.451
2086,0.715,35.812,35.731,33.951,25.565,4.743,6.794,33.123
2087,0.698,35.723,35.74,33.969,25.561,4.701,6.836,32.957
2088,0.698,35.856,35.677,33.96,25.561,4.782,6.796,33.118
2089,0.688,35.953,35.708,33.969,25.561,4.824,6.836,33.405
2090,0.701,35.571,35.739,33.969,25.565,4.865,6.837,33.936
2091,0.708,35.701,35.779,33.969,25.568,4.946,6.796,34.714
2092,0.711,35.818,35.744,33.989,25.565,4.866,6.755,35.535
2093,0.721,35.934,35.697,33.97,25.572,4.906,6.754,36.275
2094,0.715,35.628,35.646,33.998,25.568,4.906,6.754,36.892
2095,0.715,35.778,35.692,33.979,25.572,4.825,6.673,36.979
2096,0.702,35.895,35.673,33.979,25.565,4.905,6.672,37.021
2097,0.695,35.973,35.739,33.96,25.568,4.865,6.713,36.737
2098,0.705,35.705,35.732,33.96,25.561,4.824,6.672,36.449
2099,0.679,35.837,35.704,33.979,25.568,4.865,6.672,35.958
2100,0.685,35.972,35.712,33.96,25.565,4.824,6.631,35.669
2101,0.688,36.012,35.72,33.969,25.561,4.824,6.59,35.382
2102,0.679,35.648,35.739,33.96,25.561,4.824,6.671,35.501
2103,0.662,35.769,35.794,33.979,25.565,4.743,6.631,35.827
2104,0.688,35.876,35.775,33.96,25.561,4.783,6.59,36.359
2105,0.695,35.934,35.74,33.969,25.565,4.905,6.671,36.852
2106,0.708,35.571,35.669,33.989,25.568,4.865,6.713,37.02
