time,ecg,bvp,gsr,rsp,skt,emg_zygo,emg_coru,emg_trap
0,0.968,39.179,56.249,46.311,28.201,5.727,7.823,5.482
1,0.961,38.815,56.312,46.301,28.201,5.646,7.944,5.603
2,0.958,38.946,56.191,46.311,28.208,5.727,8.026,5.686
3,0.954,39.11,56.272,46.34,28.215,5.85,8.19,5.768
4,0.958,39.179,56.3,46.359,28.222,5.81,8.07,5.687
5,0.958,38.863,56.254,46.34,28.215,5.688,8.069,5.605
6,0.945,38.985,56.284,46.33,28.208,5.727,8.028,5.604
7,0.935,39.082,56.25,46.311,28.211,5.727,7.946,5.604
8,0.912,39.14,56.253,46.359,28.211,5.768,8.067,5.604
9,0.918,38.834,56.191,46.33,28.215,5.768,8.069,5.645
10,0.915,38.984,56.256,46.349,28.215,5.768,8.109,5.686
11,0.918,39.091,56.327,46.33,28.212,5.768,8.109,5.646
12,0.915,39.419,56.242,46.34,28.208,5.687,8.028,5.523
13,0.899,38.789,56.261,46.321,28.201,5.605,7.946,5.563
14,0.889,38.888,56.226,46.311,28.208,5.686,8.067,5.645
15,0.892,39.023,56.311,46.33,28.208,5.687,8.069,5.605
16,0.895,38.756,56.215,46.311,28.201,5.687,8.028,5.564
17,0.889,38.754,56.245,46.34,28.204,5.646,7.987,5.563
18,0.895,38.878,56.292,46.311,28.204,5.605,8.027,5.563
19,0.889,38.995,56.156,46.311,28.201,5.564,7.987,5.523
20,0.872,38.679,56.272,46.301,28.211,5.604,8.068,5.522
21,0.869,38.801,56.238,46.339,28.218,5.645,8.191,5.644
22,0.872,38.955,56.315,46.369,28.225,5.727,8.232,5.645
23,0.882,39.062,56.371,46.321,28.212,5.605,8.07,5.605
24,0.859,38.574,56.239,46.32,28.208,5.645,8.069,5.482
25,0.853,38.723,56.273,46.32,28.215,5.645,8.15,5.562
26,0.849,38.868,56.203,46.34,28.208,5.605,8.069,5.604
27,0.843,38.937,56.3,46.321,28.215,5.564,8.109,5.604
28,0.849,38.592,56.183,46.33,28.212,5.563,8.069,5.604
29,0.849,38.762,56.272,46.34,28.215,5.645,8.028,5.604
30,0.843,38.878,56.238,46.33,28.208,5.442,7.946,5.482
31,0.833,38.937,56.265,46.311,28.194,5.481,7.823,5.44
32,0.826,38.516,56.327,46.32,28.211,5.481,7.944,5.481
33,0.839,38.665,56.188,46.33,28.208,5.481,7.905,5.522
34,0.839,38.82,56.26,46.33,28.211,5.44,7.782,5.441
35,0.839,38.841,56.144,46.33,28.208,5.481,7.822,5.481
36,0.826,38.572,56.276,46.311,28.201,5.44,7.7,5.481
37,0.826,38.723,56.203,46.32,28.208,5.44,7.699,5.44
38,0.833,38.84,56.182,46.311,28.208,5.44,7.699,5.562
39,0.826,38.86,56.241,46.33,28.215,5.643,7.78,5.563
40,0.843,38.611,56.277,46.359,28.218,5.605,7.74,5.563
41,0.833,38.733,56.328,46.34,28.205,5.482,7.659,5.523
42,0.82,38.811,56.231,46.33,28.211,5.481,7.698,5.563
43,0.826,38.495,56.249,46.34,28.208,5.562,7.699,5.563
44,0.813,38.396,56.218,46.33,28.208,5.482,7.74,5.482
45,0.816,38.529,56.214,46.349,28.211,5.481,7.781,5.562
46,0.816,38.665,56.186,46.35,28.215,5.481,7.74,5.482
47,0.826,38.427,56.272,46.33,28.215,5.481,7.862,5.481
48,0.82,38.511,56.203,46.34,28.208,5.359,7.741,5.4
49,0.807,38.636,56.19,46.292,28.194,5.277,7.821,5.48
50,0.81,38.733,56.284,46.33,28.215,5.398,7.944,5.522
51,0.826,38.312,56.234,46.321,28.208,5.399,8.067,5.441
52,0.807,38.452,56.292,46.349,28.208,5.358,8.15,5.481
53,0.813,38.578,56.109,46.33,28.208,5.317,8.191,5.44
54,0.833,38.666,56.232,46.321,28.201,5.317,8.314,5.399
55,0.81,38.273,56.136,46.349,28.204,5.398,8.315,5.48
56,0.816,38.413,56.221,46.33,28.215,5.399,8.518,5.562
57,0.833,38.558,56.296,46.378,28.225,5.48,8.601,5.604
58,0.839,38.656,56.16,46.369,28.215,5.44,8.521,5.482
59,0.826,38.148,56.276,46.311,28.212,5.399,8.561,5.522
60,0.83,38.297,56.222,46.33,28.215,5.358,8.521,5.482
61,0.817,38.433,56.296,46.321,28.215,5.358,8.52,5.481
62,0.829,38.463,56.211,46.34,28.215,5.317,8.561,5.522
63,0.833,38.348,56.19,46.417,28.218,5.398,8.521,5.522
64,0.83,38.51,56.194,46.341,28.215,5.358,8.479,5.441
65,0.82,38.617,56.21,46.359,28.205,5.317,8.398,5.399
66,0.817,38.618,56.245,46.302,28.198,5.195,8.356,5.48
67,0.816,38.186,56.214,46.32,28.211,5.316,8.356,5.522
68,0.82,38.374,56.167,46.349,28.208,5.236,8.356,5.522
69,0.823,38.472,56.178,46.33,28.208,5.194,8.356,5.522
70,0.817,38.338,56.303,46.321,28.208,5.234,8.275,5.482
71,0.826,38.145,56.281,46.311,28.208,5.275,8.193,5.4
72,0.826,38.278,56.269,46.311,28.201,5.195,8.232,5.44
73,0.813,38.404,56.249,46.32,28.208,5.234,8.192,5.481
74,0.826,38.146,56.191,46.32,28.215,5.316,8.314,5.644
75,0.843,38.239,56.296,46.349,28.218,5.398,8.274,5.605
76,0.83,38.374,56.098,46.34,28.205,5.318,8.193,5.523
77,0.83,38.453,56.224,46.321,28.215,5.317,8.232,5.603
78,0.833,38.156,56.218,46.311,28.215,5.236,8.192,5.564
79,0.833,38.287,56.202,46.33,28.215,5.235,8.273,5.604
80,0.826,38.423,56.249,46.321,28.212,5.235,8.314,5.604
81,0.83,38.52,56.222,46.32,28.215,5.275,8.315,5.564
82,0.83,37.917,56.3,46.32,28.222,5.235,8.274,5.604
83,0.833,38.045,56.219,46.32,28.205,5.194,8.274,5.482
84,0.817,38.152,56.233,46.292,28.201,5.072,8.274,5.481
85,0.816,38.211,56.226,46.32,28.208,5.233,8.396,5.481
86,0.816,38.077,56.179,46.32,28.215,5.194,8.356,5.562
87,0.836,38.21,56.256,46.311,28.205,5.072,8.478,5.563
88,0.83,38.336,56.238,46.311,28.204,5.193,8.479,5.482
89,0.826,38.385,56.198,46.426,28.208,5.112,8.438,5.522
90,0.833,38.021,56.249,46.293,28.204,5.112,8.438,5.522
91,0.833,38.152,56.249,46.282,28.201,5.152,8.479,5.603
92,0.839,38.287,56.296,46.33,28.211,5.193,8.601,5.726
93,0.846,38.346,56.195,46.321,28.222,5.316,8.602,5.687
94,0.862,38.011,56.245,46.32,28.212,5.154,8.562,5.605
95,0.849,38.123,56.218,46.311,28.208,5.193,8.521,5.604
96,0.849,38.229,56.19,46.301,28.208,5.112,8.561,5.604
97,0.853,38.336,56.315,46.301,28.211,5.193,8.521,5.564
98,0.856,37.858,56.172,46.32,28.215,5.194,8.601,5.604
99,0.853,38.006,56.241,46.32,28.212,5.194,8.643,5.604
100,0.859,38.123,56.163,46.311,28.215,5.234,8.521,5.604
101,0.846,38.028,56.26,46.311,28.208,5.194,8.561,5.564
102,0.84,38.065,56.245,46.282,28.204,5.072,8.439,5.523
103,0.839,38.181,56.077,46.291,28.194,5.111,8.479,5.563
104,0.83,38.336,56.251,46.33,28.211,5.152,8.438,5.523
105,0.836,37.733,56.152,46.311,28.208,5.153,8.438,5.563
106,0.83,37.852,56.24,46.292,28.208,5.153,8.397,5.563
107,0.843,37.977,56.183,46.291,28.208,5.112,8.316,5.563
108,0.83,38.065,56.217,46.291,28.198,5.112,8.274,5.523
109,0.826,37.788,56.218,46.291,28.201,5.03,8.314,5.603
110,0.833,37.9,56.198,46.282,28.208,5.07,8.315,5.645
111,0.849,38.055,56.264,46.339,28.218,5.274,8.437,5.686
112,0.853,38.152,56.171,46.349,28.215,5.235,8.397,5.646
113,0.859,37.722,56.198,46.321,28.208,5.153,8.275,5.483
114,0.84,37.851,56.198,46.32,28.211,5.193,8.274,5.562
115,0.856,37.997,56.257,46.32,28.215,5.112,8.233,5.604
116,0.856,38.036,56.183,46.311,28.208,5.112,8.233,5.645
117,0.846,37.663,56.21,46.311,28.218,5.193,8.233,5.564
118,0.846,37.803,56.292,46.32,28.212,5.153,8.233,5.604
119,0.849,37.919,56.121,46.311,28.211,5.153,8.111,5.564
120,0.836,37.978,56.217,46.311,28.208,5.071,7.987,5.401
121,0.826,37.72,56.218,46.272,28.201,5.03,8.068,5.44
122,0.843,37.851,56.206,46.301,28.208,5.07,8.028,5.562
123,0.849,37.968,56.253,46.311,28.211,5.07,7.987,5.523
124,0.83,38.084,56.156,46.282,28.205,5.111,7.946,5.603
125,0.833,37.529,56.229,46.301,28.204,5.071,7.905,5.523
126,0.826,37.686,56.171,46.292,28.204,5.07,7.863,5.563
127,0.83,37.803,56.233,46.291,28.204,5.07,7.782,5.482
128,0.82,37.565,56.237,46.291,28.204,5.03,7.984,5.481
129,0.823,37.562,56.136,46.311,28.208,5.111,7.986,5.644
130,0.836,37.744,56.244,46.349,28.215,5.193,8.068,5.645
131,0.843,37.861,56.198,46.33,28.215,5.072,7.987,5.523
132,0.839,37.489,56.221,46.301,28.215,5.03,8.027,5.522
133,0.826,37.581,56.206,46.311,28.208,5.111,8.109,5.603
134,0.833,37.735,56.182,46.311,28.208,5.193,8.109,5.645
135,0.836,37.832,56.194,46.32,28.215,5.153,8.15,5.564
136,0.839,37.344,56.167,46.301,28.215,5.234,8.15,5.563
137,0.836,37.464,56.256,46.311,28.208,5.235,8.191,5.523
138,0.843,37.6,56.242,46.32,28.211,5.235,8.151,5.441
139,0.836,37.697,56.167,46.282,28.205,5.113,8.11,5.399
140,0.82,37.266,56.256,46.263,28.194,5.152,8.109,5.48
141,0.826,37.444,56.175,46.301,28.211,5.315,8.232,5.481
142,0.833,37.571,56.206,46.301,28.205,5.317,8.192,5.481
143,0.83,37.629,56.225,46.292,28.208,5.358,8.192,5.522
144,0.83,37.256,56.163,46.301,28.211,5.317,8.192,5.482
145,0.823,37.386,56.233,46.301,28.201,5.317,8.11,5.44
146,0.823,37.522,56.152,46.272,28.204,5.358,8.109,5.44
147,0.813,37.571,56.28,46.291,28.215,5.48,8.191,5.603
148,0.823,37.246,56.168,46.32,28.215,5.644,8.314,5.686
149,0.833,37.415,56.252,46.349,28.222,5.564,8.274,5.605
150,0.83,37.532,56.167,46.311,28.208,5.482,8.233,5.523
151,0.83,37.543,56.245,46.311,28.204,5.562,8.273,5.441
152,0.826,37.284,56.265,46.292,28.211,5.604,8.274,5.481
153,0.82,37.444,56.136,46.311,28.215,5.564,8.314,5.522
154,0.826,37.551,56.229,46.32,28.212,5.685,8.274,5.522
155,0.81,37.313,56.12,46.32,28.215,5.605,8.314,5.563
156,0.82,37.157,56.225,46.301,28.215,5.686,8.234,5.441
157,0.82,37.318,56.257,46.272,28.205,5.483,8.029,5.318
158,0.817,37.378,56.121,46.272,28.204,5.522,8.109,5.398
159,0.816,37.138,56.24,46.291,28.208,5.603,8.191,5.44
160,0.816,37.222,56.187,46.272,28.204,5.604,8.151,5.399
161,0.813,37.377,56.264,46.291,28.211,5.564,8.11,5.521
162,0.8,37.445,56.171,46.291,28.205,5.604,8.028,5.4
163,0.807,37.158,56.12,46.33,28.204,5.482,8.027,5.399
164,0.794,37.29,56.127,46.292,28.204,5.562,8.027,5.48
165,0.8,37.435,56.158,46.32,28.215,5.685,8.149,5.603
166,0.813,37.561,56.159,46.33,28.229,5.727,8.191,5.523
167,0.813,37.073,56.217,46.301,28.208,5.605,8.07,5.482
168,0.803,37.212,56.151,46.292,28.215,5.564,8.109,5.44
169,0.803,37.338,56.139,46.301,28.208,5.645,8.109,5.481
170,0.807,37.407,56.24,46.292,28.204,5.645,8.109,5.481
171,0.813,37.168,56.179,46.291,28.211,5.605,8.15,5.481
172,0.81,37.309,56.249,46.32,28.218,5.645,8.15,5.44
173,0.82,37.464,56.187,46.292,28.215,5.605,8.15,5.481
174,0.813,37.485,56.214,46.282,28.205,5.482,8.11,5.4
175,0.803,36.996,56.257,46.272,28.201,5.481,8.069,5.318
176,0.807,37.154,56.093,46.301,28.204,5.603,8.069,5.48
177,0.816,37.309,56.189,46.292,28.208,5.604,8.028,5.359
178,0.81,37.33,56.178,46.272,28.204,5.523,8.068,5.317
179,0.803,37.138,56.143,46.282,28.204,5.522,8.069,5.398
180,0.803,37.28,56.186,46.272,28.201,5.522,7.987,5.318
181,0.794,37.396,56.178,46.282,28.201,5.482,8.068,5.398
182,0.803,37.407,56.237,46.291,28.211,5.562,8.028,5.44
183,0.81,37.196,56.187,46.301,28.222,5.685,8.109,5.562
184,0.803,37.367,56.245,46.33,28.222,5.646,7.987,5.482
185,0.807,37.445,56.257,46.282,28.215,5.564,7.986,5.44
186,0.797,37.072,56.163,46.301,28.208,5.523,7.946,5.44
187,0.807,37.126,56.244,46.292,28.208,5.522,7.945,5.399
188,0.797,37.289,56.167,46.282,28.211,5.563,7.945,5.399
189,0.8,37.387,56.233,46.397,28.208,5.604,7.905,5.48
190,0.807,37.033,56.155,46.293,28.211,5.523,7.863,5.4
191,0.813,37.154,56.237,46.301,28.215,5.522,7.782,5.399
192,0.803,37.29,56.276,46.282,28.201,5.482,7.659,5.318
193,0.8,37.349,56.136,46.263,28.201,5.481,7.698,5.317
194,0.797,37.071,56.24,46.291,28.215,5.522,7.699,5.48
195,0.81,37.212,56.058,46.311,28.205,5.482,7.74,5.359
196,0.8,37.348,56.204,46.292,28.208,5.522,7.659,5.439
197,0.803,37.426,56.225,46.263,28.201,5.522,7.658,5.399
198,0.803,37.062,56.085,46.272,28.201,5.563,7.617,5.277
199,0.8,37.231,56.212,46.282,28.201,5.604,7.698,5.316
200,0.794,37.348,56.19,46.291,28.208,5.726,7.78,5.52
201,0.793,37.455,56.284,46.32,28.218,5.89,8.066,5.522
202,0.806,37.091,56.183,46.311,28.208,5.811,7.987,5.36
203,0.803,37.222,56.171,46.282,28.204,5.81,8.068,5.439
204,0.781,37.357,56.131,46.291,28.211,5.85,8.272,5.359
205,0.79,37.416,56.186,46.291,28.215,5.932,8.396,5.48
206,0.79,37.254,56.202,46.291,28.215,5.892,8.519,5.44
207,0.793,37.425,56.147,46.301,28.212,5.892,8.723,5.521
208,0.79,37.542,56.244,46.311,28.208,5.892,8.766,5.482
209,0.793,37.878,56.179,46.282,28.211,5.933,8.807,5.4
210,0.787,37.182,56.139,46.272,28.205,5.77,8.808,5.358
211,0.79,37.338,56.209,46.272,28.204,5.85,8.889,5.399
212,0.78,37.454,56.183,46.291,28.208,5.891,8.93,5.318
213,0.79,37.254,56.253,46.291,28.204,5.851,8.972,5.439
214,0.793,37.262,56.12,46.282,28.204,5.891,9.175,5.399
215,0.8,37.396,56.189,46.272,28.208,5.811,9.137,5.318
216,0.787,37.503,56.112,46.272,28.208,5.891,9.177,5.317
217,0.8,37.121,56.201,46.272,28.204,5.811,9.259,5.398
218,0.797,37.222,56.167,46.282,28.215,6.013,9.381,5.521
219,0.8,37.396,56.12,46.33,28.225,6.096,9.423,5.4
220,0.816,37.503,56.228,46.311,28.208,5.894,9.342,5.399
221,0.79,37.188,56.194,46.292,28.211,5.892,9.382,5.48
222,0.79,37.338,56.245,46.282,28.208,5.933,9.382,5.481
223,0.79,37.464,56.132,46.282,28.208,5.892,9.423,5.44
224,0.79,37.571,56.158,46.291,28.211,5.973,9.424,5.44
225,0.787,37.112,56.19,46.282,28.215,5.974,9.342,5.44
226,0.78,37.289,56.139,46.32,28.212,5.974,9.301,5.481
227,0.78,37.406,56.209,46.292,28.205,5.852,9.138,5.4
228,0.777,37.455,56.128,46.253,28.194,5.729,9.095,5.399
229,0.78,37.158,56.186,46.387,28.204,5.931,9.136,5.44
230,0.784,37.338,56.229,46.283,28.201,5.933,9.095,5.44
231,0.787,37.445,56.202,46.272,28.208,5.892,8.973,5.359
232,0.774,37.494,56.225,46.282,28.208,5.851,8.891,5.399
233,0.777,37.216,56.175,46.272,28.201,5.891,8.809,5.358
234,0.784,37.357,56.182,46.272,28.204,5.811,8.686,5.358
235,0.79,37.474,56.077,46.272,28.204,5.728,8.684,5.399
236,0.793,37.504,56.185,46.291,28.211,5.931,8.766,5.521
237,0.803,37.312,56.186,46.311,28.218,5.974,8.767,5.522
238,0.81,37.464,56.155,46.301,28.212,5.893,8.523,5.4
239,0.8,37.561,56.194,46.292,28.208,5.851,8.561,5.399
240,0.797,37.332,56.182,46.301,28.215,5.851,8.561,5.399
241,0.781,37.282,56.241,46.292,28.215,5.851,8.643,5.44
242,0.793,37.416,56.136,46.311,28.212,5.891,8.603,5.481
243,0.793,37.542,56.119,46.292,28.215,5.892,8.643,5.481
244,0.793,37.274,56.178,46.301,28.212,5.851,8.603,5.4
245,0.78,37.348,56.1,46.272,28.208,5.81,8.521,5.318
246,0.774,37.483,56.174,46.263,28.198,5.728,8.479,5.317
247,0.774,37.561,56.178,46.272,28.204,5.768,8.52,5.439
248,0.78,37.217,56.163,46.301,28.204,5.728,8.561,5.44
249,0.774,37.367,56.155,46.292,28.204,5.768,8.48,5.399
250,0.784,37.474,56.151,46.282,28.204,5.809,8.398,5.358
251,0.787,37.571,56.26,46.291,28.204,5.769,8.438,5.317
252,0.787,37.198,56.148,46.272,28.204,5.728,8.316,5.398
253,0.79,37.357,56.096,46.291,28.218,5.809,8.437,5.44
254,0.797,37.522,56.15,46.33,28.225,5.972,8.479,5.603
255,0.803,37.591,56.112,46.311,28.212,5.771,8.316,5.482
256,0.794,37.208,56.185,46.301,28.215,5.809,8.234,5.481
257,0.79,37.328,56.174,46.272,28.208,5.81,8.233,5.44
258,0.797,37.435,56.178,46.282,28.215,5.81,8.151,5.44
259,0.79,37.513,56.128,46.291,28.208,5.81,8.11,5.44
260,0.787,37.581,56.205,46.291,28.215,5.85,8.15,5.481
261,0.797,37.745,56.222,46.301,28.215,5.769,8.11,5.481
262,0.787,37.861,56.21,46.292,28.208,5.809,7.987,5.4
263,0.787,37.853,56.124,46.263,28.204,5.647,7.824,5.399
264,0.774,37.114,56.115,46.282,28.204,5.767,7.985,5.44
265,0.784,37.27,56.166,46.282,28.211,5.728,7.905,5.481
266,0.774,37.406,56.1,46.291,28.208,5.687,7.863,5.44
267,0.78,37.369,56.217,46.291,28.204,5.727,7.863,5.399
268,0.771,37.263,56.163,46.301,28.198,5.646,7.863,5.399
269,0.78,37.396,56.135,46.301,28.204,5.686,7.863,5.399
270,0.774,37.522,56.201,46.272,28.208,5.768,8.026,5.521
271,0.8,37.178,56.155,46.301,28.218,5.809,8.149,5.563
272,0.807,37.251,56.237,46.311,28.218,5.81,8.069,5.441
273,0.803,37.367,56.081,46.292,28.215,5.688,8.028,5.44
274,0.79,37.484,56.209,46.291,28.212,5.687,7.987,5.44
275,0.787,37.034,56.081,46.301,28.215,5.768,8.068,5.44
276,0.777,37.183,56.173,46.311,28.208,5.768,8.109,5.481
277,0.79,37.29,56.241,46.311,28.211,5.728,8.028,5.44
278,0.79,37.406,56.116,46.292,28.208,5.809,8.068,5.481
279,0.793,37.024,56.201,46.301,28.211,5.688,8.069,5.44
280,0.79,37.144,56.085,46.263,28.201,5.646,7.946,5.277
281,0.764,37.261,56.185,46.262,28.201,5.605,8.026,5.398
282,0.78,37.339,56.167,46.301,28.211,5.767,8.027,5.44
283,0.784,37.109,56.147,46.32,28.211,5.728,7.946,5.359
284,0.78,37.251,56.194,46.282,28.208,5.687,7.945,5.399
285,0.78,37.386,56.057,46.282,28.211,5.687,7.945,5.44
286,0.78,37.445,56.181,46.263,28.198,5.646,7.905,5.318
287,0.777,37.101,56.139,46.262,28.197,5.686,7.945,5.358
288,0.777,37.232,56.135,46.282,28.201,5.727,7.945,5.48
289,0.793,37.405,56.186,46.32,28.218,5.85,8.108,5.562
290,0.797,37.455,56.167,46.32,28.212,5.81,7.906,5.401
291,0.794,37.082,56.225,46.292,28.205,5.769,7.863,5.399
292,0.78,37.193,56.132,46.282,28.211,5.768,7.904,5.399
293,0.758,37.319,56.1,46.33,28.205,5.687,7.823,5.44
294,0.78,37.473,56.142,46.292,28.211,5.768,7.781,5.481
295,0.774,37.072,56.115,46.311,28.211,5.728,7.781,5.44
296,0.78,37.212,56.189,46.311,28.211,5.727,7.781,5.481
297,0.797,37.338,56.198,46.282,28.215,5.727,7.781,5.4
298,0.784,36.908,56.136,46.253,28.201,5.605,7.618,5.318
299,0.774,36.904,56.119,46.253,28.201,5.604,7.657,5.439
300,0.777,37.067,56.209,46.281,28.208,5.686,7.78,5.318
301,0.784,37.193,56.147,46.291,28.215,5.605,7.781,5.439
302,0.784,37.022,56.178,46.282,28.205,5.686,7.74,5.318
303,0.787,37.144,56.108,46.282,28.201,5.646,7.699,5.398
304,0.777,37.261,56.127,46.282,28.201,5.605,7.78,5.399
305,0.771,37.358,56.135,46.263,28.201,5.686,7.781,5.44
306,0.774,36.822,56.108,46.291,28.204,5.687,8.066,5.481
307,0.78,36.96,56.197,46.311,28.215,5.809,8.15,5.562
308,0.777,37.115,56.159,46.311,28.218,5.769,8.191,5.441
309,0.787,37.213,56.143,46.292,28.215,5.687,8.192,5.399
310,0.784,36.849,56.213,46.291,28.212,5.727,8.273,5.44
311,0.787,36.999,56.175,46.291,28.211,5.687,8.314,5.359
312,0.787,37.135,56.233,46.291,28.215,5.727,8.356,5.399
313,0.784,37.203,56.07,46.291,28.208,5.768,8.397,5.521
314,0.79,36.715,56.169,46.301,28.211,5.728,8.478,5.482
315,0.793,36.863,56.12,46.301,28.215,5.768,8.398,5.481
316,0.79,36.999,56.146,46.301,28.205,5.728,8.316,5.44
317,0.787,37.029,56.19,46.244,28.201,5.565,8.274,5.318
318,0.777,36.703,56.089,46.262,28.201,5.685,8.436,5.398
319,0.79,36.882,56.173,46.291,28.208,5.646,8.397,5.358
320,0.79,37.018,56.139,46.272,28.204,5.686,8.397,5.439
321,0.78,37.049,56.225,46.272,28.211,5.646,8.316,5.359
322,0.8,36.713,56.124,46.301,28.208,5.605,8.315,5.358
323,0.777,36.844,56.104,46.263,28.204,5.564,8.356,5.399
324,0.767,36.97,56.162,46.272,28.201,5.604,8.315,5.521
325,0.774,36.914,56.116,46.301,28.208,5.604,8.437,5.522
326,0.787,36.99,56.174,46.33,28.222,5.726,8.438,5.603
327,0.784,37.135,56.167,46.311,28.215,5.687,8.438,5.523
328,0.784,37.222,56.135,46.292,28.208,5.646,8.316,5.522
329,0.787,36.504,56.108,46.291,28.204,5.564,8.274,5.522
330,0.777,36.564,56.178,46.291,28.208,5.645,8.233,5.522
331,0.787,36.718,56.167,46.291,28.215,5.686,8.273,5.522
332,0.78,36.806,56.221,46.282,28.212,5.646,8.193,5.522
333,0.784,36.586,56.136,46.282,28.222,5.727,8.273,5.522
334,0.78,36.728,56.162,46.301,28.208,5.646,8.274,5.563
335,0.79,36.863,56.147,46.263,28.208,5.564,8.111,5.482
336,0.774,36.922,56.092,46.272,28.194,5.441,8.109,5.4
337,0.784,36.539,56.174,46.253,28.208,5.643,8.272,5.521
338,0.793,36.708,56.131,46.291,28.208,5.564,8.314,5.482
339,0.787,36.844,56.147,46.291,28.201,5.523,8.396,5.44
340,0.787,36.913,56.205,46.272,28.204,5.563,8.6,5.481
341,0.78,36.635,56.175,46.263,28.204,5.523,8.684,5.4
342,0.78,36.776,56.225,46.282,28.201,5.522,8.888,5.48
343,0.767,36.902,56.073,46.282,28.208,5.563,9.052,5.562
344,0.77,36.999,56.142,46.311,28.218,5.645,9.257,5.604
345,0.783,36.435,56.201,46.32,28.218,5.645,9.341,5.523
346,0.78,36.573,56.108,46.292,28.212,5.564,9.423,5.441
347,0.771,36.67,56.181,46.291,28.215,5.563,9.464,5.481
348,0.777,36.729,56.116,46.291,28.208,5.604,9.587,5.481
349,0.78,36.499,56.111,46.311,28.215,5.604,9.629,5.562
350,0.777,36.641,56.131,46.311,28.212,5.645,9.751,5.523
351,0.784,36.795,56.193,46.301,28.208,5.605,9.712,5.482
352,0.79,36.529,56.241,46.292,28.208,5.564,9.752,5.522
353,0.784,36.344,56.132,46.272,28.194,5.401,9.63,5.4
354,0.777,36.476,56.135,46.291,28.211,5.521,9.792,5.521
355,0.787,36.621,56.076,46.272,28.208,5.482,9.712,5.482
356,0.79,36.364,56.13,46.291,28.204,5.522,9.711,5.481
357,0.793,36.476,56.213,46.291,28.208,5.441,9.67,5.4
358,0.8,36.592,56.155,46.282,28.201,5.399,9.589,5.399
359,0.794,36.709,56.104,46.272,28.204,5.44,9.547,5.399
360,0.793,36.192,56.139,46.301,28.215,5.521,9.588,5.562
361,0.803,36.34,56.19,46.32,28.218,5.644,9.71,5.523
362,0.82,36.495,56.171,46.311,28.212,5.523,9.548,5.4
363,0.813,36.554,56.182,46.301,28.208,5.563,9.506,5.521
364,0.82,36.306,56.202,46.301,28.218,5.563,9.506,5.482
365,0.83,36.476,56.124,46.292,28.212,5.563,9.425,5.522
366,0.839,36.612,56.158,46.301,28.208,5.563,9.383,5.482
367,0.83,36.709,56.127,46.311,28.215,5.645,9.382,5.481
368,0.833,36.221,56.209,46.301,28.215,5.686,9.261,5.44
369,0.843,36.36,56.073,46.301,28.205,5.605,9.178,5.399
370,0.839,36.495,56.13,46.272,28.198,5.523,9.096,5.399
371,0.849,36.526,56.193,46.291,28.208,5.563,9.054,5.399
372,0.869,36.2,56.175,46.291,28.208,5.604,9.054,5.48
373,0.863,36.331,56.19,46.282,28.208,5.645,9.054,5.44
374,0.872,36.476,56.108,46.282,28.204,5.605,8.973,5.481
375,0.879,36.506,56.127,46.272,28.201,5.523,8.972,5.4
376,0.892,36.171,56.162,46.291,28.201,5.603,8.972,5.399
377,0.886,36.302,56.124,46.291,28.208,5.604,9.053,5.48
378,0.895,36.456,56.236,46.301,28.215,5.767,9.176,5.603
379,0.905,36.516,56.159,46.33,28.218,5.768,9.015,5.523
380,0.892,36.267,56.198,46.292,28.205,5.687,8.891,5.482
381,0.886,36.399,56.104,46.291,28.204,5.687,8.849,5.522
382,0.898,36.505,56.178,46.301,28.208,5.687,8.849,5.4
383,0.905,36.132,56.17,46.292,28.215,5.646,8.849,5.521
384,0.895,36.205,56.069,46.291,28.212,5.686,8.889,5.441
385,0.908,36.34,56.177,46.301,28.215,5.687,8.768,5.481
386,0.918,36.486,56.135,46.301,28.215,5.687,8.767,5.4
387,0.915,36.027,56.17,46.292,28.201,5.646,8.604,5.318
388,0.922,36.128,56.209,46.272,28.194,5.605,8.602,5.439
389,0.931,36.273,56.038,46.301,28.208,5.767,8.602,5.481
390,0.941,36.399,56.177,46.282,28.204,5.728,8.562,5.481
391,0.958,36.007,56.092,46.301,28.208,5.727,8.439,5.44
392,0.961,36.147,56.166,46.282,28.204,5.727,8.397,5.44
393,0.961,36.273,56.174,46.282,28.204,5.85,8.397,5.44
394,0.971,36.351,56.104,46.291,28.204,5.932,8.234,5.481
395,0.974,35.949,56.131,46.282,28.208,6.014,8.314,5.481
396,0.977,36.136,56.111,46.311,28.215,6.137,8.396,5.644
397,0.984,36.292,56.205,46.33,28.222,6.219,8.356,5.483
398,0.981,36.332,56.202,46.292,28.208,6.098,8.193,5.44
399,0.958,35.872,56.155,46.33,28.208,6.178,8.151,5.521
400,0.958,36.049,56.194,46.292,28.208,6.139,8.069,5.441
401,0.958,36.176,56.124,46.301,28.208,6.219,8.028,5.481
402,0.971,36.225,56.217,46.301,28.215,6.261,7.987,5.481
403,0.974,35.967,56.085,46.292,28.215,6.302,7.986,5.522
404,0.971,36.127,56.134,46.301,28.212,6.343,7.905,5.441
405,0.958,36.253,56.182,46.301,28.201,6.181,7.823,5.359
406,0.945,36.581,56.085,46.272,28.201,6.139,7.741,5.399
407,0.925,35.98,56.209,46.301,28.204,6.26,7.862,5.48
408,0.931,36.118,56.128,46.301,28.208,6.302,7.863,5.522
409,0.931,36.253,56.069,46.311,28.208,6.18,7.904,5.482
410,0.925,35.948,56.181,46.282,28.215,6.22,7.945,5.359
411,0.931,35.935,56.147,46.291,28.208,6.18,7.905,5.399
412,0.922,36.06,56.201,46.272,28.201,6.139,7.985,5.358
413,0.925,36.166,56.112,46.282,28.204,6.26,8.027,5.48
414,0.925,35.784,56.154,46.33,28.211,6.384,8.19,5.562
415,0.931,35.905,56.159,46.33,28.218,6.303,8.192,5.563
416,0.935,36.059,56.135,46.311,28.212,6.18,8.07,5.523
417,0.915,36.128,56.193,46.272,28.205,6.261,8.069,5.441
418,0.905,35.831,56.116,46.291,28.204,6.262,8.191,5.481
419,0.899,35.982,56.022,46.311,28.211,6.302,8.11,5.522
420,0.886,36.118,56.2,46.301,28.208,6.302,8.109,5.482
421,0.866,36.224,56.12,46.32,28.211,6.384,8.109,5.522
422,0.869,35.957,56.228,46.292,28.211,6.263,8.069,5.482
423,0.853,36.098,56.152,46.282,28.208,6.18,7.987,5.4
424,0.836,36.224,56.135,46.253,28.194,6.139,7.946,5.48
425,0.817,36.293,56.174,46.281,28.208,6.219,7.986,5.522
426,0.813,35.613,56.12,46.291,28.204,6.261,8.068,5.441
427,0.807,35.759,56.217,46.282,28.204,6.221,7.946,5.44
428,0.81,35.895,56.12,46.291,28.208,6.22,7.905,5.44
429,0.807,35.963,56.104,46.291,28.208,6.22,7.863,5.44
430,0.8,35.772,56.025,46.272,28.208,6.18,7.782,5.399
431,0.794,35.895,56.153,46.291,28.215,6.139,7.862,5.562
432,0.797,36.021,56.139,46.311,28.215,6.26,7.904,5.645
433,0.803,36.08,56.197,46.33,28.222,6.384,7.904,5.605
434,0.803,35.783,56.202,46.321,28.212,6.303,7.782,5.482
435,0.79,35.914,56.128,46.301,28.205,6.302,7.781,5.562
436,0.787,36.031,56.186,46.301,28.204,6.221,7.7,5.523
437,0.797,35.773,56.077,46.292,28.208,6.18,7.699,5.482
438,0.787,35.674,56.185,46.301,28.215,6.261,7.74,5.522
439,0.774,35.817,56.085,46.311,28.218,6.262,7.659,5.482
440,0.764,35.943,56.146,46.311,28.215,6.343,7.617,5.481
441,0.754,35.609,56.186,46.292,28.215,6.221,7.535,5.359
442,0.741,35.692,56.132,46.272,28.201,6.098,7.453,5.317
443,0.738,35.808,56.178,46.282,28.204,6.26,7.534,5.398
444,0.747,35.943,56.053,46.291,28.211,6.221,7.534,5.399
445,0.738,35.973,56.2,46.291,28.211,6.22,7.534,5.358
446,0.747,36.137,56.151,46.301,28.205,6.22,7.494,5.358
447,0.744,36.253,56.151,46.282,28.204,6.22,7.494,5.399
448,0.731,36.341,56.209,46.272,28.198,6.139,7.575,5.44
449,0.718,35.402,56.093,46.291,28.201,6.179,7.616,5.44
450,0.724,35.565,56.146,46.291,28.208,6.261,7.698,5.521
451,0.734,35.72,56.096,46.339,28.215,6.302,7.821,5.603
452,0.734,35.818,56.209,46.321,28.218,6.302,7.822,5.401
453,0.734,35.56,56.128,46.292,28.212,6.18,7.822,5.562
454,0.741,35.72,56.17,46.301,28.218,6.139,7.903,5.563
455,0.738,35.856,56.198,46.292,28.208,6.219,7.945,5.523
456,0.731,35.905,56.097,46.301,28.204,6.139,7.945,5.522
457,0.738,36.011,56.185,46.301,28.211,6.179,7.986,5.563
458,0.731,36.166,56.085,46.301,28.208,6.179,8.027,5.563
459,0.728,36.321,56.072,46.282,28.201,6.098,7.946,5.441
460,0.718,36.294,56.169,46.282,28.201,6.016,7.905,5.481
461,0.724,35.277,56.131,46.301,28.201,6.137,8.026,5.522
462,0.731,35.439,56.186,46.292,28.208,6.138,8.068,5.563
463,0.728,35.575,56.132,46.291,28.208,6.138,8.15,5.523
464,0.725,35.701,56.182,46.291,28.208,6.057,8.232,5.482
465,0.711,35.702,56.112,46.263,28.201,6.056,8.192,5.44
466,0.711,35.866,56.146,46.282,28.204,6.056,8.151,5.521
467,0.702,35.973,56.1,46.291,28.208,6.137,8.273,5.644
468,0.714,35.446,56.185,46.32,28.218,6.179,8.436,5.727
469,0.724,35.489,56.116,46.34,28.215,6.057,8.397,5.605
470,0.715,35.633,56.088,46.311,28.205,6.097,8.356,5.523
471,0.721,35.721,56.162,46.301,28.201,6.097,8.356,5.685
472,0.721,35.358,56.131,46.292,28.204,6.056,8.315,5.605
473,0.718,35.469,56.17,46.291,28.208,6.056,8.356,5.604
474,0.715,35.633,56.194,46.301,28.215,6.097,8.315,5.645
475,0.728,35.731,56.128,46.311,28.208,6.097,8.396,5.645
476,0.728,35.453,56.123,46.301,28.204,6.016,8.316,5.605
477,0.725,35.604,56.139,46.292,28.201,5.893,8.274,5.564
478,0.718,35.692,56.182,46.253,28.201,5.933,8.233,5.523
479,0.715,35.789,56.081,46.291,28.208,5.974,8.273,5.563
480,0.721,35.406,56.15,46.291,28.201,5.974,8.193,5.604
481,0.721,35.556,56.147,46.282,28.208,5.974,8.192,5.564
482,0.721,35.691,56.17,46.282,28.208,5.933,8.192,5.563
483,0.718,35.75,56.163,46.282,28.208,5.892,8.151,5.563
484,0.705,35.454,56.069,46.282,28.198,5.892,8.15,5.645
485,0.708,35.585,56.15,46.272,28.204,5.892,8.15,5.645
486,0.718,35.749,56.077,46.32,28.215,6.054,8.313,5.767
487,0.724,35.808,56.166,46.33,28.215,6.015,8.274,5.728
488,0.728,35.493,56.209,46.292,28.205,5.893,8.111,5.727
489,0.715,35.605,56.054,46.311,28.208,5.892,8.15,5.646
490,0.721,35.749,56.185,46.292,28.211,5.851,8.15,5.605
491,0.721,36.039,56.116,46.291,28.211,5.81,8.15,5.726
492,0.721,35.437,56.213,46.291,28.211,5.81,8.069,5.687
493,0.728,35.594,56.101,46.301,28.208,5.85,8.028,5.687
494,0.734,35.721,56.142,46.311,28.208,5.81,8.027,5.687
495,0.731,35.396,56.151,46.263,28.204,5.728,8.027,5.564
496,0.718,35.402,56.131,46.262,28.194,5.646,7.865,5.523
497,0.724,35.565,56.197,46.253,28.211,5.727,7.985,5.563
498,0.744,35.701,56.143,46.281,28.205,5.727,7.986,5.604
499,0.738,35.348,56.127,46.282,28.204,5.646,7.946,5.523
500,0.731,35.459,56.162,46.263,28.204,5.645,7.986,5.522
501,0.721,35.614,56.174,46.282,28.204,5.645,7.946,5.482
502,0.724,35.711,56.217,46.282,28.208,5.686,7.823,5.4
503,0.721,35.329,56.116,46.272,28.201,5.646,7.863,5.643
504,0.721,35.507,56.123,46.301,28.215,5.727,7.944,5.686
505,0.728,35.691,56.119,46.311,28.215,5.768,7.945,5.564
506,0.721,35.77,56.127,46.292,28.205,5.728,7.783,5.604
507,0.718,35.205,56.123,46.272,28.208,5.687,7.74,5.564
508,0.711,35.343,56.154,46.282,28.208,5.687,7.781,5.604
509,0.721,35.498,56.1,46.311,28.208,5.687,7.74,5.564
510,0.737,35.566,56.119,46.292,28.211,5.687,7.74,5.645
511,0.738,35.471,56.205,46.291,28.208,5.687,7.699,5.564
512,0.734,35.595,56.159,46.291,28.211,5.727,7.699,5.523
513,0.744,35.721,56.221,46.272,28.205,5.524,7.455,5.482
514,0.741,35.741,56.069,46.253,28.201,5.563,7.534,5.522
515,0.773,35.3,56.177,46.301,28.208,5.604,7.575,5.603
516,0.79,35.478,56.151,46.292,28.208,5.564,7.494,5.482
517,0.816,35.595,56.151,46.272,28.201,5.645,7.494,5.4
518,0.826,35.606,56.194,46.253,28.208,5.564,7.534,5.521
519,0.836,35.27,56.038,46.272,28.204,5.563,7.494,5.441
520,0.852,35.41,56.107,46.282,28.201,5.523,7.494,5.44
521,0.885,35.556,56.15,46.272,28.215,5.644,7.575,5.603
522,0.911,35.375,56.17,46.282,28.215,5.727,7.698,5.645
523,0.938,35.364,56.233,46.32,28.218,5.687,7.699,5.564
524,0.98,35.517,56.097,46.292,28.212,5.605,7.618,5.563
525,1.004,35.595,56.197,46.282,28.211,5.645,7.698,5.563
526,1.033,35.299,56.093,46.291,28.208,5.605,7.699,5.604
527,1.069,35.411,56.181,46.301,28.208,5.604,7.74,5.604
528,1.128,35.546,56.225,46.292,28.208,5.604,7.781,5.686
529,1.168,35.653,56.105,46.291,28.215,5.604,7.903,5.727
530,1.194,35.261,56.197,46.387,28.208,5.564,7.904,5.768
531,1.224,35.391,56.12,46.283,28.204,5.563,7.863,5.606
532,1.227,35.517,56.186,46.263,28.201,5.441,7.782,5.604
533,1.227,35.576,56.171,46.272,28.201,5.481,7.944,5.726
534,1.237,35.203,56.174,46.291,28.211,5.603,7.986,5.727
535,1.237,35.343,56.128,46.282,28.201,5.523,7.905,5.768
536,1.24,35.498,56.143,46.282,28.204,5.522,7.945,5.891
537,1.27,35.566,56.119,46.263,28.204,5.522,7.986,5.851
538,1.299,35.231,56.154,46.243,28.204,5.522,7.986,5.81
539,1.312,35.391,56.159,46.281,28.201,5.482,8.027,5.891
540,1.3,35.546,56.061,46.282,28.211,5.603,8.149,6.095
541,1.221,35.624,56.165,46.33,28.215,5.604,8.232,6.138
542,1.178,35.251,56.131,46.311,28.215,5.564,8.111,6.057
543,1.129,35.353,56.205,46.282,28.212,5.482,8.109,6.219
544,1.116,35.498,56.179,46.301,28.215,5.481,8.191,6.261
545,1.073,35.528,56.163,46.292,28.208,5.44,8.11,6.302
546,0.965,35.202,56.194,46.291,28.211,5.562,8.109,6.506
547,0.811,35.381,56.093,46.301,28.208,5.563,8.191,6.67
548,0.722,35.488,56.201,46.292,28.208,5.482,8.07,6.875
549,0.637,35.374,56.077,46.311,28.204,5.44,8.028,6.918
550,0.554,35.21,56.099,46.33,28.201,5.318,7.905,7.0
551,0.472,35.343,56.162,46.254,28.204,5.398,8.026,7.285
552,0.393,35.478,56.124,46.291,28.198,5.48,8.068,7.369
553,0.328,35.221,56.225,46.291,28.204,5.44,8.109,7.573
554,0.272,35.305,56.081,46.272,28.201,5.359,8.109,7.657
555,0.239,35.449,56.181,46.253,28.197,5.358,8.191,7.739
556,0.199,35.556,56.1,46.272,28.201,5.317,8.273,7.903
557,0.183,35.135,56.135,46.282,28.204,5.398,8.436,8.107
558,0.169,35.294,56.209,46.311,28.218,5.521,8.601,8.272
559,0.166,35.468,56.097,46.311,28.215,5.482,8.602,8.193
560,0.133,35.556,56.162,46.292,28.215,5.4,8.602,8.273
561,0.094,35.078,56.104,46.291,28.212,5.44,8.684,8.396
562,0.09,35.246,56.209,46.311,28.208,5.399,8.766,8.397
563,0.071,35.391,56.147,46.282,28.208,5.44,8.807,8.397
564,0.038,35.469,56.155,46.291,28.215,5.399,8.889,8.519
565,0.015,35.211,56.217,46.301,28.208,5.399,8.89,8.561
566,0.018,35.391,56.101,46.301,28.208,5.44,8.768,8.561
567,0.018,35.527,56.174,46.272,28.201,5.277,8.685,8.561
568,0.041,35.557,56.1,46.263,28.194,5.316,8.766,8.724
569,0.07,35.068,56.107,46.291,28.208,5.398,8.767,8.888
570,0.113,35.245,56.162,46.291,28.211,5.318,8.767,9.012
571,0.152,35.362,56.12,46.291,28.201,5.317,8.726,9.135
572,0.185,35.402,56.197,46.291,28.204,5.317,8.685,9.258
573,0.208,35.124,56.116,46.272,28.201,5.317,8.644,9.341
574,0.238,35.256,56.174,46.291,28.204,5.398,8.603,9.504
575,0.248,35.391,56.104,46.282,28.201,5.358,8.602,9.668
576,0.274,35.527,56.181,46.301,28.218,5.48,8.684,9.833
577,0.304,35.154,56.198,46.32,28.218,5.562,8.644,9.875
578,0.314,35.294,56.167,46.32,28.208,5.482,8.562,9.794
579,0.314,35.392,56.108,46.292,28.208,5.44,8.521,9.875
580,0.337,35.105,56.084,46.291,28.208,5.521,8.561,9.876
581,0.343,35.15,56.181,46.282,28.208,5.522,8.521,9.916
582,0.373,35.285,56.12,46.282,28.208,5.644,8.561,9.957
583,0.392,35.392,56.182,46.301,28.215,5.686,8.602,9.998
584,0.419,35.162,56.116,46.301,28.208,5.687,8.521,9.877
585,0.435,35.304,56.178,46.292,28.208,5.605,8.479,9.794
586,0.461,35.42,56.178,46.282,28.201,5.604,8.438,9.631
587,0.475,35.517,56.116,46.263,28.191,5.645,8.397,9.67
588,0.498,35.26,56.166,46.291,28.201,5.645,8.438,9.751
589,0.527,35.43,56.053,46.291,28.208,5.686,8.479,9.671
590,0.553,35.575,56.126,46.311,28.204,5.727,8.438,9.548
591,0.583,35.653,56.213,46.282,28.201,5.646,8.397,9.425
592,0.599,34.877,56.179,46.291,28.201,5.645,8.316,9.383
593,0.616,35.052,56.233,46.272,28.197,5.686,8.356,9.342
594,0.632,35.197,56.093,46.282,28.204,5.687,8.356,9.301
595,0.658,35.304,56.185,46.301,28.211,5.809,8.519,9.301
596,0.685,35.046,56.1,46.339,28.222,5.85,8.398,9.301
597,0.705,35.197,56.154,46.311,28.208,5.729,8.356,9.056
598,0.711,35.314,56.1,46.292,28.211,5.768,8.356,9.013
599,0.721,35.353,56.119,46.301,28.205,5.687,8.356,9.013
600,0.718,34.932,56.186,46.311,28.204,5.687,8.275,8.932
601,0.734,35.091,56.128,46.311,28.208,5.768,8.314,8.972
602,0.747,35.217,56.236,46.32,28.218,5.768,8.315,8.85
603,0.751,35.305,56.148,46.32,28.215,5.768,8.396,8.808
604,0.767,35.075,56.166,46.32,28.205,5.768,8.275,8.686
605,0.764,35.207,56.135,46.273,28.198,5.565,8.111,8.562
606,0.767,35.314,56.033,46.339,28.201,5.685,8.15,8.602
607,0.77,35.047,56.146,46.292,28.208,5.727,8.15,8.521
608,0.777,35.044,56.147,46.301,28.201,5.727,8.15,8.479
609,0.79,35.149,56.158,46.301,28.204,5.687,8.15,8.398
610,0.784,35.304,56.006,46.311,28.208,5.564,8.069,8.356
611,0.81,34.855,56.165,46.292,28.198,5.645,8.028,8.356
612,0.813,34.965,56.127,46.263,28.197,5.686,7.946,8.397
613,0.803,35.11,56.201,46.291,28.211,5.727,8.026,8.316
614,0.813,35.256,56.21,46.32,28.211,5.809,8.149,8.396
615,0.826,35.027,56.175,46.32,28.215,5.81,7.988,8.234
616,0.83,35.178,56.167,46.311,28.201,5.769,7.946,8.192
617,0.826,35.314,56.096,46.292,28.211,5.687,7.945,8.11
618,0.83,35.382,56.213,46.291,28.208,5.727,7.945,8.109
619,0.833,34.884,56.023,46.301,28.208,5.768,7.945,8.109
620,0.82,35.052,56.122,46.311,28.208,5.809,7.945,8.028
621,0.83,35.217,56.104,46.311,28.208,5.769,7.945,7.987
622,0.826,35.276,56.209,46.311,28.208,5.728,7.864,7.864
623,0.83,34.912,56.194,46.292,28.201,5.605,7.782,7.782
624,0.82,35.062,56.077,46.263,28.201,5.604,7.659,7.74
625,0.817,35.178,56.228,46.282,28.201,5.726,7.739,7.781
626,0.826,35.266,56.085,46.282,28.201,5.727,7.74,7.74
627,0.83,34.854,56.142,46.291,28.204,5.646,7.699,7.699
628,0.823,34.984,56.209,46.272,28.201,5.686,7.618,7.658
629,0.833,35.101,56.093,46.301,28.197,5.646,7.657,7.536
630,0.836,35.16,56.17,46.339,28.204,5.727,7.698,7.494
631,0.833,35.524,56.096,46.282,28.201,5.687,7.74,7.534
632,0.826,35.672,56.181,46.311,28.215,5.809,7.903,7.616
633,0.856,35.808,56.167,46.33,28.218,5.81,7.985,7.617
634,0.859,35.052,56.155,46.33,28.218,5.769,7.946,7.454
635,0.853,34.488,56.17,46.292,28.208,5.687,7.864,7.412
636,0.849,34.664,56.116,46.291,28.208,5.646,7.904,7.371
637,0.846,34.781,56.185,46.301,28.204,5.686,7.945,7.289
638,0.853,34.878,56.159,46.301,28.208,5.687,7.945,7.329
639,0.846,35.023,56.162,46.301,28.208,5.687,7.986,7.289
640,0.846,35.188,56.077,46.32,28.211,5.646,8.068,7.207
641,0.843,35.275,56.134,46.32,28.208,5.727,8.069,7.165
642,0.849,34.643,56.19,46.282,28.204,5.484,7.987,6.962
643,0.836,34.743,56.089,46.263,28.194,5.562,8.027,7.041
644,0.839,34.907,56.15,46.291,28.208,5.604,8.109,7.001
645,0.852,35.023,56.108,46.272,28.201,5.645,8.191,7.001
646,0.843,34.698,56.1,46.301,28.204,5.523,8.273,7.001
647,0.843,34.849,56.142,46.272,28.208,5.522,8.314,6.96
648,0.843,34.975,56.155,46.291,28.201,5.522,8.437,6.96
649,0.843,35.062,56.186,46.291,28.201,5.482,8.601,6.919
650,0.849,34.756,56.085,46.291,28.197,5.603,8.602,6.959
651,0.859,34.945,56.166,46.311,28.215,5.686,8.846,7.041
652,0.866,35.11,56.209,46.33,28.218,5.727,8.849,6.96
653,0.859,35.14,56.116,46.282,28.205,5.687,8.808,6.919
654,0.866,34.661,56.146,46.311,28.208,5.646,8.767,6.919
655,0.869,34.829,56.123,46.292,28.208,5.686,8.848,6.837
656,0.869,34.975,56.174,46.291,28.208,5.646,8.808,6.796
657,0.872,35.005,56.19,46.291,28.211,5.686,8.93,6.795
658,0.859,34.67,56.178,46.291,28.208,5.687,8.85,6.795
659,0.869,34.81,56.174,46.301,28.211,5.768,8.808,6.673
660,0.859,34.946,56.139,46.368,28.205,5.606,8.604,6.631
661,0.856,34.985,56.139,46.244,28.201,5.686,8.765,6.672
662,0.869,34.775,56.123,46.291,28.208,5.809,8.726,6.672
663,0.859,34.926,56.193,46.272,28.204,5.728,8.726,6.591
664,0.862,35.043,56.112,46.282,28.201,5.727,8.644,6.631
665,0.866,34.708,56.178,46.263,28.201,5.727,8.603,6.55
666,0.862,34.753,56.163,46.282,28.197,5.687,8.602,6.508
667,0.866,34.926,56.135,46.272,28.201,5.768,8.684,6.508
668,0.866,35.033,56.201,46.291,28.211,5.891,8.684,6.63
669,0.869,34.555,56.085,46.291,28.218,5.892,8.725,6.672
670,0.885,34.694,56.138,46.368,28.215,5.933,8.603,6.631
671,0.879,34.82,56.131,46.292,28.208,5.852,8.602,6.509
672,0.869,34.898,56.166,46.263,28.208,5.81,8.562,6.508
673,0.879,34.688,56.209,46.272,28.201,5.81,8.48,6.508
674,0.879,34.848,56.116,46.291,28.204,5.81,8.56,6.467
675,0.882,34.994,56.209,46.282,28.204,5.81,8.643,6.467
676,0.885,35.082,56.136,46.291,28.211,5.85,8.725,6.548
677,0.892,34.488,56.205,46.272,28.208,5.891,8.685,6.386
678,0.886,34.626,56.136,46.272,28.208,5.729,8.684,6.303
679,0.879,34.752,56.092,46.253,28.194,5.646,8.684,6.262
680,0.876,34.82,56.177,46.262,28.204,5.645,8.684,6.343
681,0.889,34.706,56.12,46.272,28.204,5.767,8.766,6.384
682,0.885,34.849,56.213,46.263,28.208,5.809,8.726,6.303
683,0.882,34.984,56.108,46.272,28.204,5.728,8.807,6.384
684,0.879,35.053,56.154,46.272,28.201,5.727,8.726,6.222
685,0.879,34.449,56.201,46.263,28.197,5.768,8.766,6.22
686,0.876,34.597,56.1,46.272,28.201,5.728,8.726,6.22
687,0.866,34.742,56.197,46.272,28.208,5.85,8.766,6.383
688,0.882,35.089,56.139,46.291,28.211,5.973,8.848,6.425
689,0.889,34.642,56.154,46.311,28.215,5.974,8.889,6.344
690,0.889,34.791,56.159,46.292,28.201,5.852,8.768,6.262
691,0.889,34.888,56.139,46.272,28.204,5.851,8.767,6.221
692,0.889,34.544,56.19,46.263,28.208,5.891,8.889,6.22
693,0.895,34.521,56.151,46.272,28.208,5.933,8.89,6.22
694,0.902,34.655,56.182,46.272,28.208,5.974,8.89,6.22
695,0.892,34.781,56.135,46.282,28.215,5.933,8.971,6.261
696,0.902,34.533,56.162,46.291,28.208,5.974,8.972,6.221
697,0.905,34.646,56.159,46.272,28.204,5.974,8.931,6.139
698,0.902,34.781,56.178,46.253,28.201,5.852,8.85,6.016
699,0.882,34.869,56.092,46.253,28.197,5.769,8.889,6.137
700,0.889,34.39,56.103,46.272,28.208,5.891,8.849,6.138
701,0.905,34.558,56.15,46.272,28.204,5.892,8.849,6.098
702,0.902,34.694,56.108,46.291,28.204,5.851,8.849,6.056
703,0.899,34.772,56.189,46.263,28.201,5.851,8.767,6.056
704,0.892,34.485,56.186,46.272,28.197,5.851,8.767,6.056
705,0.895,34.645,56.159,46.253,28.197,5.81,8.726,6.056
706,0.895,34.8,56.178,46.291,28.208,5.891,8.888,6.056
707,0.905,34.878,56.116,46.311,28.215,5.933,8.93,6.219
708,0.905,34.553,56.193,46.32,28.215,5.974,8.89,6.098
709,0.899,34.703,56.116,46.292,28.208,5.852,8.849,6.056
710,0.902,34.83,56.104,46.291,28.208,5.81,8.808,6.056
711,0.912,34.869,56.119,46.291,28.208,5.769,8.767,6.056
712,0.912,34.39,56.111,46.291,28.204,5.85,8.848,6.015
713,0.918,34.548,56.182,46.291,28.215,5.891,8.808,6.056
714,0.925,34.694,56.159,46.311,28.212,5.811,8.848,6.015
715,0.912,34.734,56.174,46.292,28.208,5.81,8.808,6.015
716,0.931,34.389,56.167,46.311,28.211,5.728,8.767,5.974
717,0.918,34.51,56.12,46.253,28.198,5.646,8.604,5.852
718,0.909,34.597,56.182,46.253,28.197,5.727,8.643,5.973
719,0.931,34.56,56.038,46.291,28.204,5.727,8.644,5.974
720,0.928,34.54,56.138,46.301,28.208,5.809,8.644,5.974
721,0.915,34.684,56.143,46.292,28.201,5.769,8.521,5.893
722,0.922,34.791,56.123,46.282,28.201,5.768,8.479,5.892
723,0.918,34.293,56.17,46.282,28.201,5.687,8.398,5.892
724,0.912,34.375,56.116,46.282,28.204,5.727,8.397,5.851
725,0.912,34.519,56.213,46.282,28.204,5.768,8.438,5.973
726,0.918,34.655,56.14,46.311,28.215,5.809,8.601,6.055
727,0.935,34.378,56.197,46.33,28.212,5.891,8.521,5.975
728,0.931,34.539,56.147,46.311,28.208,5.77,8.479,5.933
729,0.925,34.665,56.076,46.311,28.201,5.768,8.479,5.933
730,0.928,34.762,56.134,46.311,28.201,5.728,8.438,5.933
731,0.938,34.293,56.088,46.301,28.201,5.727,8.397,5.974
732,0.932,34.461,56.181,46.311,28.208,5.768,8.397,5.974
733,0.935,34.587,56.108,46.311,28.204,5.768,8.316,5.893
734,0.938,34.694,56.181,46.311,28.208,5.768,8.274,5.933
735,0.945,34.312,56.096,46.301,28.201,5.687,8.274,5.852
736,0.945,34.49,56.138,46.301,28.194,5.605,8.111,5.81
737,0.938,34.597,56.186,46.292,28.197,5.604,8.191,5.891
738,0.945,34.665,56.135,46.301,28.215,5.686,8.273,5.892
739,0.941,34.417,56.135,46.292,28.212,5.687,8.314,5.811
740,0.945,34.577,56.08,46.32,28.205,5.687,8.356,5.81
741,0.945,34.713,56.162,46.292,28.204,5.524,8.519,5.769
742,0.935,34.734,56.194,46.291,28.198,5.644,8.601,5.891
743,0.938,34.456,56.151,46.291,28.204,5.564,8.765,5.851
744,0.941,34.616,56.17,46.32,28.198,5.563,8.889,5.851
745,0.948,34.762,56.124,46.301,28.215,5.645,9.134,6.013
746,0.948,34.821,56.182,46.339,28.218,5.727,9.177,5.934
747,0.961,34.706,56.124,46.34,28.194,5.605,9.096,5.892
748,0.948,34.81,56.166,46.311,28.208,5.645,9.217,5.811
749,0.945,34.927,56.085,46.311,28.204,5.645,9.259,5.891
750,0.961,34.63,56.131,46.34,28.208,5.645,9.259,5.851
751,0.958,34.704,56.115,46.33,28.208,5.605,9.3,5.851
752,0.958,34.849,56.189,46.33,28.204,5.564,9.301,5.851
753,0.974,34.946,56.186,46.321,28.215,5.604,9.301,5.891
754,0.977,34.736,56.135,46.32,28.198,5.482,9.016,5.729
755,0.958,34.839,56.197,46.292,28.197,5.481,9.135,5.727
756,0.964,35.003,56.1,46.32,28.201,5.562,9.136,5.89
757,0.974,35.12,56.158,46.311,28.204,5.482,9.095,5.77
758,0.984,35.467,56.108,46.311,28.211,5.522,9.014,5.768
759,0.981,35.614,56.103,46.311,28.201,5.441,8.932,5.728
760,0.984,35.778,56.17,46.311,28.201,5.481,8.931,5.768
761,0.974,35.838,56.159,46.32,28.201,5.4,8.89,5.768
762,0.987,34.697,56.198,46.33,28.201,5.521,8.93,5.891
763,0.987,34.868,56.167,46.369,28.215,5.563,8.972,6.014
764,0.997,35.023,56.186,46.35,28.212,5.563,8.85,5.812
765,0.991,35.092,56.202,46.33,28.201,5.441,8.767,5.81
766,0.994,35.466,56.136,46.407,28.208,5.481,8.767,5.81
767,0.991,35.643,56.147,46.331,28.211,5.481,8.645,5.81
768,0.991,35.769,56.112,46.321,28.208,5.44,8.684,5.85
769,1.0,35.818,56.139,46.349,28.208,5.562,8.644,5.81
770,1.01,35.531,56.084,46.369,28.215,5.482,8.644,5.85
771,1.014,35.701,56.162,46.34,28.205,5.522,8.603,5.729
772,1.01,35.779,56.202,46.311,28.198,5.4,8.521,5.687
773,1.017,36.154,56.136,46.292,28.201,5.399,8.561,5.768
774,1.01,35.995,56.154,46.339,28.208,5.44,8.764,5.809
775,1.023,36.118,56.112,46.33,28.215,5.44,8.848,5.81
776,1.027,36.253,56.162,46.349,28.208,5.562,8.93,5.769
777,1.03,36.14,56.096,46.311,28.204,5.482,8.931,5.687
778,1.03,36.196,56.181,46.311,28.201,5.44,9.012,5.646
779,1.024,36.321,56.135,46.33,28.201,5.44,9.054,5.686
780,1.027,36.437,56.123,46.311,28.208,5.521,9.135,5.687
781,1.037,36.343,56.209,46.359,28.215,5.603,9.299,5.89
782,1.043,36.505,56.124,46.369,28.218,5.645,9.382,5.851
783,1.043,36.631,56.209,46.35,28.208,5.442,9.261,5.729
784,1.046,36.709,56.085,46.35,28.208,5.481,9.341,5.768
785,1.04,36.691,56.166,46.33,28.215,5.481,9.342,5.728
786,1.04,36.834,56.155,46.445,28.215,5.522,9.382,5.768
787,1.037,36.98,56.104,46.341,28.212,5.482,9.301,5.768
788,1.04,37.058,56.209,46.359,28.215,5.522,9.341,5.809
789,1.05,36.963,56.104,46.369,28.208,5.522,9.342,5.728
790,1.063,37.106,56.084,46.359,28.208,5.522,9.179,5.727
791,1.06,37.222,56.158,46.33,28.204,5.441,9.096,5.565
792,1.06,37.262,56.143,46.33,28.198,5.399,9.095,5.685
793,1.056,37.089,56.209,46.349,28.208,5.399,9.095,5.768
794,1.06,37.26,56.108,46.33,28.211,5.521,9.014,5.728
795,1.06,37.377,56.17,46.359,28.208,5.482,8.932,5.687
796,1.069,37.426,56.124,46.34,28.201,5.44,8.972,5.646
797,1.066,37.494,56.178,46.34,28.208,5.399,8.85,5.605
798,1.076,37.629,56.128,46.33,28.201,5.358,8.808,5.564
799,1.079,37.755,56.147,46.33,28.208,5.48,8.808,5.645
800,1.079,37.794,56.057,46.436,28.215,5.522,9.011,5.767
801,1.083,47.058,56.197,46.408,28.222,5.563,9.135,5.768
802,1.083,47.161,56.179,46.379,28.212,5.482,9.014,5.728
803,1.076,47.142,56.147,46.379,28.211,5.44,9.135,5.687
804,1.07,38.176,56.166,46.35,28.211,5.399,9.055,5.646
805,1.076,33.876,56.096,46.369,28.208,5.44,9.257,5.686
806,1.079,34.073,56.123,46.369,28.208,5.44,9.259,5.646
807,1.07,34.257,56.154,46.378,28.208,5.481,9.341,5.727
808,1.076,38.977,56.19,46.379,28.215,5.481,9.423,5.687
809,1.079,39.485,56.171,46.379,28.208,5.4,9.342,5.646
810,1.076,39.605,56.022,46.369,28.198,5.277,9.26,5.564
811,1.073,39.654,56.142,46.34,28.197,5.398,9.3,5.645
812,1.076,37.43,56.166,46.378,28.201,5.44,9.341,5.645
813,1.083,37.522,56.12,46.369,28.204,5.399,9.301,5.645
814,1.092,37.677,56.131,46.369,28.204,5.358,9.341,5.645
815,1.083,37.765,56.123,46.359,28.204,5.399,9.301,5.564
816,1.083,38.523,56.115,46.388,28.201,5.358,9.26,5.523
817,1.089,38.665,56.088,46.369,28.197,5.358,9.219,5.563
818,1.083,38.791,56.197,46.369,28.204,5.399,9.259,5.645
819,1.096,38.879,56.179,46.398,28.215,5.643,9.381,5.767
820,1.102,38.237,56.061,46.427,28.215,5.686,9.342,5.687
821,1.096,38.403,56.169,46.389,28.212,5.564,9.179,5.646
822,1.096,38.501,56.057,46.379,28.205,5.645,9.218,5.605
823,1.092,38.55,56.15,46.398,28.208,5.645,9.096,5.686
824,1.083,38.56,56.135,46.379,28.201,5.605,9.054,5.564
825,1.086,38.694,56.162,46.388,28.208,5.604,9.135,5.604
826,1.083,38.82,56.112,46.388,28.208,5.686,9.014,5.726
827,1.073,38.841,56.135,46.407,28.211,5.646,9.054,5.687
828,1.086,38.649,56.209,46.408,28.211,5.727,8.973,5.687
829,1.073,38.772,56.101,46.369,28.205,5.646,8.809,5.564
830,1.086,38.888,56.119,46.369,28.198,5.645,8.767,5.563
831,1.073,38.812,56.162,46.369,28.208,5.727,8.848,5.604
832,1.063,38.687,56.12,46.378,28.204,5.727,8.849,5.564
833,1.066,38.82,56.193,46.398,28.208,5.646,8.686,5.604
834,1.066,38.917,56.089,46.379,28.208,5.686,8.644,5.523
835,1.073,38.592,56.201,46.369,28.201,5.687,8.603,5.563
836,1.06,38.637,56.034,46.378,28.194,5.687,8.521,5.523
837,1.05,38.781,56.142,46.369,28.204,5.646,8.561,5.522
838,1.053,38.879,56.119,46.398,28.208,5.767,8.602,5.644
839,1.063,38.803,56.146,46.408,28.215,5.891,8.643,5.767
840,1.063,38.955,56.143,46.408,28.215,5.851,8.521,5.606
841,1.047,39.082,56.123,46.398,28.208,5.81,8.439,5.645
842,1.043,39.15,56.174,46.388,28.201,5.85,8.438,5.564
843,1.033,38.662,56.131,46.388,28.204,5.891,8.397,5.604
844,1.03,38.82,56.178,46.407,28.208,5.933,8.356,5.645
845,1.024,38.956,56.19,46.417,28.208,6.014,8.397,5.645
846,1.014,39.043,56.108,46.408,28.215,6.015,8.356,5.605
847,1.01,38.737,56.185,46.398,28.215,5.974,8.356,5.686
848,1.004,38.83,56.085,46.408,28.201,5.974,8.275,5.564
849,0.994,38.956,56.134,46.369,28.201,5.893,8.152,5.523
850,0.987,38.995,56.057,46.369,28.201,6.014,8.232,5.644
851,1.004,38.823,56.048,46.417,28.204,6.056,8.233,5.605
852,0.994,38.946,56.15,46.408,28.208,6.015,8.233,5.564
853,0.991,39.053,56.1,46.398,28.208,6.056,8.192,5.563
854,0.991,39.083,56.181,46.379,28.201,6.015,8.232,5.645
855,0.978,38.795,56.1,46.388,28.211,5.974,8.192,5.564
856,0.974,38.946,56.099,46.388,28.205,6.015,8.192,5.645
857,0.964,39.072,56.103,46.388,28.215,6.178,8.273,5.686
858,0.974,39.303,56.178,46.427,28.218,6.22,8.233,5.727
859,0.977,38.884,56.174,46.389,28.212,6.098,8.192,5.605
860,0.961,39.004,56.022,46.407,28.208,6.056,8.151,5.604
861,0.948,39.13,56.157,46.398,28.208,6.056,8.11,5.564
862,0.945,38.7,56.127,46.398,28.208,6.056,8.028,5.645
863,0.938,38.686,56.205,46.417,28.208,6.056,8.027,5.727
864,0.922,38.839,56.089,46.417,28.208,6.097,8.068,5.646
865,0.912,38.937,56.193,46.417,28.208,6.056,8.069,5.645
866,0.908,38.746,56.085,46.408,28.201,5.975,7.987,5.564
867,0.899,38.869,56.131,46.379,28.194,5.933,7.946,5.523
868,0.892,38.975,56.174,46.388,28.204,5.974,8.067,5.644
869,0.892,39.101,56.116,46.407,28.208,6.015,7.987,5.564
870,0.886,38.652,56.096,46.427,28.204,5.974,8.027,5.645
871,0.885,38.772,56.041,46.417,28.215,5.893,8.068,5.523
872,0.872,38.888,56.126,46.408,28.205,5.973,8.109,5.522
873,0.872,38.966,56.193,46.388,28.204,5.893,8.109,5.522
874,0.866,38.612,56.104,46.407,28.204,5.973,8.232,5.644
875,0.866,38.771,56.213,46.417,28.208,6.015,8.273,5.727
876,0.872,38.926,56.12,46.446,28.222,6.096,8.396,5.687
877,0.872,39.005,56.158,46.437,28.205,5.975,8.397,5.687
878,0.866,38.593,56.194,46.427,28.215,5.974,8.397,5.646
879,0.853,38.742,56.085,46.427,28.205,5.974,8.438,5.645
880,0.849,38.869,56.052,46.446,28.204,5.974,8.479,5.605
881,0.833,38.908,56.091,46.427,28.215,6.015,8.479,5.686
882,0.833,38.698,56.15,46.427,28.212,5.974,8.52,5.687
883,0.833,38.83,56.186,46.427,28.208,5.974,8.52,5.605
884,0.833,38.956,56.124,46.427,28.208,5.974,8.479,5.645
885,0.82,38.957,56.166,46.408,28.208,5.974,8.316,5.442
886,0.81,38.449,55.963,46.417,28.198,5.852,8.437,5.521
887,0.81,38.597,56.125,46.417,28.204,5.973,8.357,5.563
888,0.816,38.714,56.178,46.427,28.208,5.974,8.437,5.563
889,0.813,38.638,56.089,46.427,28.208,5.974,8.357,5.604
890,0.81,38.666,56.052,46.408,28.201,5.974,8.234,5.482
891,0.813,38.791,56.087,46.427,28.201,6.055,8.233,5.522
892,0.8,38.879,56.138,46.408,28.197,6.015,8.192,5.482
893,0.807,38.371,56.162,46.408,28.204,6.096,8.273,5.562
894,0.807,38.472,56.139,46.446,28.215,6.178,8.314,5.645
895,0.813,38.636,56.174,46.446,28.218,6.261,8.193,5.605
896,0.82,38.743,56.088,46.446,28.205,6.139,8.151,5.645
897,0.803,38.245,56.154,46.437,28.208,6.219,8.15,5.483
898,0.81,38.355,56.123,46.427,28.204,6.261,8.11,5.522
899,0.807,38.51,56.15,46.427,28.211,6.262,8.15,5.563
900,0.803,38.607,55.998,46.446,28.218,6.302,8.069,5.523
901,0.794,38.369,56.13,46.427,28.205,6.384,8.028,5.603
902,0.8,38.491,56.037,46.446,28.208,6.344,8.068,5.645
903,0.79,38.626,56.181,46.446,28.204,6.303,7.946,5.483
904,0.777,38.676,56.139,46.418,28.198,6.262,7.905,5.4
905,0.767,38.245,56.151,46.427,28.208,6.262,7.945,5.521
906,0.78,38.413,56.088,46.437,28.204,6.302,7.945,5.482
907,0.78,38.549,56.099,46.446,28.208,6.302,7.945,5.522
908,0.787,38.589,56.185,46.437,28.204,6.262,7.905,5.482
909,0.78,38.224,56.077,46.446,28.201,6.262,7.823,5.44
910,0.8,38.355,56.099,46.427,28.197,6.221,7.822,5.44
911,0.781,38.471,56.131,46.532,28.208,6.261,7.944,5.481
912,0.787,38.511,56.119,46.447,28.208,6.343,8.067,5.603
913,0.797,38.262,56.186,46.466,28.218,6.384,8.15,5.604
914,0.8,38.423,56.077,46.485,28.215,6.344,8.069,5.564
915,0.794,38.52,56.154,46.437,28.212,6.262,8.069,5.523
916,0.79,38.291,56.092,46.485,28.211,6.302,8.069,5.563
917,0.797,38.126,56.088,46.437,28.211,6.262,8.069,5.563
918,0.784,38.277,56.185,46.427,28.215,6.221,8.15,5.563
919,0.79,38.384,56.085,46.456,28.212,6.18,8.15,5.645
920,0.787,38.232,56.115,46.485,28.211,6.22,8.15,5.605
921,0.78,38.336,56.197,46.466,28.208,6.22,8.15,5.482
922,0.793,38.462,56.112,46.447,28.201,6.058,7.988,5.481
923,0.777,38.53,56.197,46.398,28.194,6.015,8.027,5.481
924,0.784,37.936,56.073,46.455,28.215,6.096,8.109,5.522
925,0.784,38.065,56.154,46.446,28.201,6.178,7.987,5.441
926,0.784,38.191,56.038,46.456,28.204,5.976,8.027,5.481
927,0.797,38.297,56.095,46.427,28.204,6.096,7.987,5.481
928,0.781,38.001,56.162,46.427,28.208,5.975,7.946,5.481
929,0.774,38.142,56.088,46.417,28.201,5.933,7.945,5.44
930,0.777,38.278,56.06,46.446,28.208,6.014,7.945,5.481
931,0.787,38.365,56.06,46.475,28.215,6.137,8.067,5.603
932,0.806,38.002,56.197,46.475,28.222,6.138,8.028,5.564
933,0.803,38.132,56.206,46.466,28.208,5.976,7.946,5.482
934,0.79,38.22,56.093,46.466,28.208,5.974,7.945,5.562
935,0.8,38.288,56.158,46.456,28.208,5.933,7.905,5.482
936,0.797,37.915,55.987,46.466,28.215,5.933,7.863,5.522
937,0.803,38.055,56.137,46.456,28.208,5.933,7.863,5.522
938,0.807,38.2,56.084,46.446,28.211,5.974,7.782,5.482
939,0.81,38.211,56.134,46.456,28.215,5.974,7.903,5.522
940,0.8,37.952,56.022,46.466,28.205,5.893,7.782,5.441
941,0.79,38.084,56.099,46.408,28.198,5.729,7.7,5.399
942,0.787,38.2,56.158,46.427,28.201,5.85,7.821,5.399
943,0.79,38.153,56.123,46.456,28.208,5.851,7.903,5.44
944,0.787,37.769,56.154,46.437,28.204,5.81,7.863,5.44
945,0.787,37.909,56.092,46.427,28.201,5.769,7.863,5.399
946,0.793,38.026,56.095,46.437,28.201,5.768,7.863,5.399
947,0.79,37.855,56.138,46.427,28.204,5.768,7.822,5.48
948,0.793,37.91,56.147,46.446,28.204,5.768,7.822,5.44
949,0.797,38.036,56.139,46.446,28.204,5.728,7.944,5.481
950,0.797,38.161,56.045,46.485,28.218,5.89,8.026,5.562
951,0.81,37.75,56.107,46.504,28.215,5.851,7.987,5.482
952,0.807,37.861,56.119,46.456,28.205,5.729,7.864,5.522
953,0.807,37.987,56.166,46.456,28.208,5.727,7.822,5.482
954,0.8,38.075,56.147,46.475,28.211,5.768,7.781,5.4
955,0.81,37.778,56.127,46.456,28.208,5.728,7.822,5.48
956,0.81,37.91,56.092,46.475,28.211,5.768,7.863,5.522
957,0.813,38.045,56.099,46.485,28.205,5.728,7.863,5.441
958,0.813,38.123,56.162,46.456,28.211,5.768,7.863,5.44
959,0.816,37.635,56.151,46.437,28.201,5.687,7.7,5.318
960,0.797,37.755,55.991,46.446,28.197,5.605,7.74,5.439
961,0.803,37.938,56.087,46.561,28.211,5.726,7.862,5.481
962,0.807,37.988,56.088,46.457,28.208,5.727,7.863,5.44
963,0.803,37.624,56.146,46.446,28.204,5.687,7.863,5.318
964,0.803,37.774,56.158,46.446,28.204,5.727,7.822,5.358
965,0.794,37.881,56.123,46.446,28.201,5.687,7.863,5.358
966,0.797,37.901,56.068,46.446,28.201,5.605,7.904,5.317
967,0.794,37.623,56.056,46.466,28.208,5.645,7.985,5.439
968,0.793,37.793,56.154,46.494,28.208,5.808,8.027,5.562
969,0.803,37.938,56.19,46.504,28.215,5.769,8.027,5.482
970,0.803,38.266,56.038,46.466,28.205,5.687,8.027,5.44
971,0.8,37.646,56.126,46.466,28.204,5.727,7.987,5.44
972,0.8,37.774,56.045,46.475,28.211,5.687,8.027,5.399
973,0.8,37.871,56.177,46.466,28.211,5.687,8.109,5.44
974,0.81,37.575,56.131,46.475,28.211,5.687,8.15,5.44
975,0.813,37.562,56.154,46.475,28.205,5.687,8.273,5.399
976,0.803,37.706,56.112,46.485,28.208,5.687,8.274,5.48
977,0.813,37.794,56.084,46.475,28.201,5.646,8.274,5.318
978,0.794,37.44,56.177,46.447,28.194,5.605,8.314,5.358
979,0.793,37.503,56.069,46.446,28.204,5.686,8.477,5.399
980,0.797,37.696,56.068,46.466,28.204,5.687,8.52,5.399
981,0.79,37.784,56.15,46.475,28.208,5.687,8.601,5.358
982,0.797,37.401,56.08,46.475,28.201,5.727,8.521,5.399
983,0.79,37.503,56.197,46.466,28.204,5.687,8.561,5.399
984,0.793,37.658,56.069,46.466,28.204,5.646,8.48,5.358
985,0.793,37.736,56.177,46.437,28.204,5.727,8.56,5.399
986,0.803,37.257,56.014,46.475,28.208,5.85,8.643,5.48
987,0.8,37.415,56.122,46.523,28.225,5.932,8.684,5.522
988,0.797,37.561,56.182,46.514,28.219,5.892,8.562,5.36
989,0.79,37.601,56.116,46.495,28.215,5.851,8.521,5.399
990,0.79,37.256,56.045,46.485,28.208,5.932,8.601,5.44
991,0.793,37.425,56.048,46.495,28.208,5.974,8.48,5.359
992,0.793,37.532,56.154,46.485,28.208,5.974,8.56,5.399
993,0.797,37.571,56.194,46.485,28.211,6.055,8.602,5.358
994,0.8,37.246,56.136,46.504,28.215,6.097,8.521,5.399
995,0.794,37.396,56.19,46.495,28.215,6.138,8.561,5.399
996,0.8,37.513,55.995,46.504,28.205,6.138,8.399,5.318
997,0.79,37.543,56.106,46.456,28.198,6.057,8.356,5.276
998,0.793,37.111,56.135,46.466,28.201,6.219,8.397,5.316
999,0.806,37.28,56.115,46.485,28.201,6.22,8.397,5.276
1000,0.787,37.387,56.088,46.485,28.211,6.302,8.478,5.357
1001,0.777,37.234,56.072,46.485,28.205,6.302,8.438,5.358
1002,0.797,37.166,56.142,46.485,28.204,6.384,8.397,5.317
1003,0.784,37.299,56.108,46.504,28.204,6.385,8.438,5.317
1004,0.774,37.406,56.123,46.485,28.201,6.425,8.479,5.398
1005,0.767,37.072,56.186,46.504,28.211,6.588,8.601,5.48
1006,0.787,37.183,56.046,46.524,28.225,6.671,8.643,5.4
1007,0.79,37.338,56.154,46.524,28.215,6.591,8.603,5.44
1008,0.777,37.416,56.084,46.505,28.212,6.59,8.562,5.399
1009,0.764,36.985,56.131,46.504,28.208,6.631,8.521,5.44
1010,0.787,37.115,56.002,46.514,28.208,6.631,8.479,5.44
1011,0.78,37.26,56.091,46.505,28.204,6.672,8.479,5.44
1012,0.777,37.358,56.154,46.514,28.208,6.713,8.52,5.44
1013,0.79,37.081,56.096,46.524,28.208,6.672,8.439,5.44
1014,0.793,37.212,56.166,46.505,28.208,6.672,8.397,5.44
1015,0.793,37.367,56.104,46.504,28.208,6.631,8.275,5.318
1016,0.784,37.407,56.053,46.476,28.194,6.55,8.193,5.317
1017,0.787,36.64,56.048,46.495,28.208,6.671,8.314,5.358
1018,0.79,36.795,56.157,46.504,28.211,6.753,8.274,5.399
1019,0.793,36.931,56.053,46.504,28.208,6.714,8.193,5.399
1020,0.78,37.009,56.025,46.524,28.201,6.754,8.151,5.399
1021,0.767,37.048,56.157,46.485,28.204,6.673,8.11,5.318
1022,0.78,37.193,56.084,46.485,28.201,6.631,8.069,5.358
1023,0.777,37.319,56.193,46.495,28.204,6.712,8.109,5.439
1024,0.767,37.378,56.085,46.533,28.215,6.794,8.15,5.521
1025,0.78,36.87,56.15,46.533,28.222,6.755,8.11,5.482
1026,0.78,37.028,56.084,46.524,28.208,6.714,7.987,5.44
1027,0.777,37.145,56.045,46.505,28.208,6.632,7.946,5.399
1028,0.774,37.117,56.15,46.524,28.211,6.631,7.864,5.48
1029,0.774,36.982,56.069,46.514,28.215,6.631,7.822,5.44
1030,0.777,37.144,56.048,46.543,28.212,6.631,7.822,5.481
1031,0.78,37.261,56.142,46.534,28.205,6.631,7.863,5.44
1032,0.774,36.869,56.147,46.524,28.204,6.631,7.782,5.481
1033,0.771,36.922,56.225,46.505,28.201,6.59,7.781,5.4
1034,0.767,37.067,56.062,46.495,28.197,6.468,7.659,5.358
1035,0.77,37.154,56.154,46.495,28.197,6.548,7.698,5.48
1036,0.774,36.801,56.034,46.619,28.208,6.59,7.74,5.4
1037,0.774,36.931,56.134,46.506,28.201,6.631,7.821,5.44
1038,0.774,37.057,56.154,46.514,28.211,6.631,7.741,5.318
1039,0.787,37.145,56.038,46.514,28.201,6.631,7.74,5.317
1040,0.767,36.743,56.099,46.562,28.204,6.55,7.699,5.398
1041,0.77,36.873,56.041,46.505,28.201,6.549,7.74,5.358
1042,0.767,37.009,56.138,46.533,28.208,6.671,7.862,5.48
1043,0.77,37.116,56.182,46.543,28.222,6.713,7.985,5.562
1044,0.774,36.867,56.12,46.534,28.215,6.632,7.824,5.482
1045,0.774,36.999,56.193,46.524,28.208,6.55,7.822,5.44
1046,0.758,37.135,56.112,46.562,28.201,6.63,7.781,5.399
1047,0.764,37.213,56.1,46.534,28.204,6.631,7.74,5.48
1048,0.757,36.907,56.103,46.553,28.211,6.55,7.821,5.562
1049,0.754,37.047,56.103,46.524,28.215,6.59,7.863,5.523
1050,0.761,37.193,56.045,46.543,28.215,6.509,7.822,5.522
1051,0.767,37.252,56.083,46.543,28.208,6.549,7.822,5.4
1052,0.764,36.907,56.115,46.524,28.201,6.386,7.781,5.358
1053,0.751,37.028,56.092,46.505,28.204,6.344,7.822,5.439
1054,0.757,37.173,56.146,46.552,28.204,6.466,7.863,5.399
1055,0.764,37.424,56.073,46.524,28.208,6.426,7.863,5.44
1056,0.761,36.899,56.107,46.533,28.204,6.466,7.822,5.44
1057,0.767,37.028,56.033,46.533,28.201,6.386,7.781,5.359
1058,0.757,37.145,56.126,46.514,28.194,6.303,7.7,5.399
1059,0.761,36.992,56.108,46.505,28.201,6.302,7.74,5.358
1060,0.757,37.077,56.08,46.572,28.215,6.425,7.862,5.602
1061,0.757,37.231,56.146,46.601,28.222,6.466,7.985,5.645
1062,0.767,37.367,56.073,46.553,28.215,6.345,7.824,5.564
1063,0.748,36.908,56.138,46.524,28.215,6.262,7.741,5.523
1064,0.744,37.038,56.073,46.553,28.201,6.221,7.781,5.563
1065,0.76,37.183,56.115,46.543,28.204,6.342,7.781,5.604
1066,0.754,37.28,56.053,46.553,28.211,6.221,7.781,5.564
1067,0.748,36.946,56.083,46.562,28.208,6.302,7.822,5.604
1068,0.757,37.096,56.158,46.562,28.211,6.262,7.781,5.604
1069,0.748,37.222,56.073,46.582,28.208,6.221,7.74,5.564
1070,0.757,37.3,56.037,46.524,28.198,6.098,7.699,5.441
1071,0.744,36.812,56.075,46.533,28.194,6.138,7.74,5.562
1072,0.751,36.979,56.052,46.562,28.204,6.179,7.821,5.604
1073,0.754,37.115,56.138,46.553,28.211,6.139,7.822,5.604
1074,0.754,37.193,56.026,46.543,28.198,6.138,7.903,5.604
1075,0.754,37.06,56.126,46.534,28.201,6.098,7.863,5.564
1076,0.751,37.212,56.022,46.562,28.201,6.097,7.863,5.604
1077,0.754,37.329,56.048,46.543,28.194,6.016,7.944,5.564
1078,0.761,37.378,56.146,46.543,28.208,6.056,8.108,5.645
1079,0.761,36.966,56.045,46.572,28.215,6.178,8.191,5.727
1080,0.757,37.144,56.072,46.582,28.218,6.179,8.273,5.727
1081,0.754,37.28,56.13,46.572,28.208,6.098,8.274,5.646
1082,0.748,37.272,56.069,46.582,28.208,5.975,8.274,5.645
1083,0.747,36.936,56.126,46.563,28.208,6.015,8.314,5.686
1084,0.741,37.076,56.022,46.582,28.215,5.974,8.315,5.646
1085,0.751,37.222,56.114,46.572,28.208,6.015,8.356,5.686
1086,0.754,37.146,56.006,46.572,28.208,6.015,8.397,5.727
1087,0.744,37.194,56.099,46.582,28.208,5.934,8.356,5.687
1088,0.751,37.319,56.088,46.591,28.211,5.933,8.315,5.605
1089,0.744,37.435,56.084,46.544,28.198,5.811,8.152,5.523
1090,0.731,37.014,56.025,46.553,28.197,5.81,8.273,5.644
1091,0.744,37.125,56.025,46.582,28.208,5.85,8.314,5.686
1092,0.741,37.28,56.11,46.572,28.204,5.891,8.274,5.605
1093,0.76,37.348,56.092,46.572,28.208,5.892,8.274,5.604
1094,0.748,37.004,56.045,46.572,28.204,5.77,8.274,5.645
1095,0.754,37.135,56.157,46.572,28.204,5.891,8.274,5.645
1096,0.754,37.27,56.057,46.563,28.201,5.851,8.233,5.645
1097,0.761,37.367,56.134,46.582,28.201,5.729,8.314,5.727
1098,0.751,41.655,56.092,46.591,28.208,5.931,8.356,5.809
1099,0.767,41.823,56.092,46.63,28.218,5.974,8.397,5.81
1100,0.748,41.91,56.021,46.611,28.215,5.73,8.275,5.647
1101,0.741,41.921,56.064,46.592,28.208,5.768,8.233,5.767
1102,0.754,35.046,56.142,46.582,28.211,5.768,8.192,5.728
1103,0.754,35.177,56.096,46.572,28.208,5.768,8.11,5.727
1104,0.757,35.362,56.115,46.591,28.204,5.768,8.191,5.727
1105,0.757,35.44,56.064,46.601,28.215,5.85,8.11,5.727
1106,0.751,37.857,56.08,46.611,28.215,5.851,8.109,5.727
1107,0.751,38.016,56.107,46.601,28.205,5.769,7.987,5.687
1108,0.744,38.104,56.084,46.572,28.198,5.687,7.864,5.646
1109,0.744,38.105,56.103,46.582,28.208,5.768,7.985,5.727
1110,0.754,36.676,55.99,46.601,28.204,5.809,7.946,5.646
1111,0.754,36.824,56.102,46.592,28.208,5.769,7.905,5.727
1112,0.744,36.922,56.045,46.592,28.204,5.728,7.945,5.605
1113,0.751,37.115,56.134,46.582,28.204,5.727,7.864,5.564
1114,0.754,37.222,56.072,46.591,28.204,5.727,7.985,5.604
1115,0.761,37.348,56.084,46.582,28.204,5.727,7.946,5.686
1116,0.748,37.464,56.041,46.62,28.204,5.809,8.108,5.809
1117,0.764,37.024,56.044,46.63,28.218,5.891,8.191,5.81
1118,0.767,37.097,56.161,46.64,28.212,5.851,8.07,5.728
1119,0.77,37.212,56.01,46.611,28.208,5.729,8.069,5.687
1120,0.751,37.3,55.962,46.611,28.211,5.85,8.109,5.727
1121,0.748,37.071,56.118,46.601,28.208,5.81,8.069,5.727
1122,0.747,37.193,56.022,46.611,28.208,5.81,8.191,5.768
1123,0.744,37.328,56.145,46.62,28.211,5.81,8.232,5.809
1124,0.747,37.416,56.037,46.621,28.208,5.728,8.233,5.728
1125,0.751,37.033,56.15,46.611,28.208,5.727,8.273,5.687
1126,0.751,37.154,56.014,46.63,28.201,5.687,8.233,5.564
1127,0.738,37.28,56.06,46.582,28.204,5.646,8.192,5.604
1128,0.738,37.329,56.138,46.62,28.201,5.808,8.354,5.645
1129,0.744,37.119,56.041,46.611,28.208,5.769,8.397,5.767
1130,0.747,37.28,56.029,46.611,28.204,5.728,8.438,5.647
1131,0.754,37.416,56.025,46.688,28.198,5.768,8.479,5.645
1132,0.748,37.465,56.083,46.621,28.197,5.768,8.479,5.605
1133,0.738,36.9,56.17,46.592,28.201,5.728,8.601,5.604
1134,0.747,37.047,56.081,46.639,28.201,5.768,8.643,5.726
1135,0.744,37.202,56.15,46.65,28.211,5.931,8.847,5.85
1136,0.751,37.252,56.01,46.678,28.222,5.892,8.767,5.81
1137,0.761,36.984,56.083,46.631,28.205,5.811,8.685,5.728
1138,0.754,37.096,56.037,46.621,28.208,5.81,8.644,5.687
1139,0.744,37.212,56.068,46.64,28.204,5.85,8.644,5.727
1140,0.751,37.386,56.002,46.64,28.208,5.851,8.684,5.727
1141,0.748,37.043,56.02,46.65,28.201,5.851,8.684,5.809
1142,0.744,37.173,56.075,46.659,28.215,5.891,8.725,5.769
1143,0.751,37.28,56.072,46.65,28.215,5.892,8.603,5.768
1144,0.738,36.974,56.064,46.64,28.205,5.77,8.48,5.647
1145,0.734,37.01,56.142,46.611,28.194,5.768,8.357,5.645
1146,0.738,37.106,55.979,46.601,28.201,5.809,8.437,5.727
1147,0.738,37.241,56.071,46.668,28.211,5.81,8.438,5.687
1148,0.741,36.888,56.056,46.631,28.201,5.81,8.357,5.687
1149,0.738,36.99,56.08,46.64,28.204,5.81,8.397,5.768
1150,0.744,37.154,56.009,46.64,28.201,5.85,8.397,5.606
1151,0.741,37.232,55.927,46.678,28.208,5.769,8.438,5.686
1152,0.751,36.792,56.07,46.64,28.204,5.768,8.479,5.646
1153,0.754,36.95,56.084,46.64,28.204,5.809,8.642,5.727
1154,0.754,37.115,56.111,46.659,28.218,5.932,8.684,5.809
1155,0.754,37.222,56.076,46.678,28.215,5.892,8.603,5.769
1156,0.748,36.744,56.041,46.65,28.205,5.77,8.643,5.728
1157,0.751,36.892,56.091,46.64,28.204,5.809,8.562,5.687
1158,0.761,37.038,56.049,46.65,28.215,5.728,8.602,5.727
1159,0.757,37.106,56.107,46.659,28.212,5.809,8.602,5.768
1160,0.748,36.637,55.928,46.65,28.215,5.769,8.643,5.728
1161,0.747,36.815,56.055,46.678,28.208,5.809,8.644,5.768
1162,0.747,36.951,56.068,46.669,28.204,5.728,8.644,5.647
1163,0.744,36.962,56.103,46.64,28.201,5.605,8.44,5.564
1164,0.725,36.674,56.072,46.621,28.197,5.645,8.479,5.604
1165,0.737,36.863,56.052,46.64,28.208,5.686,8.52,5.686
1166,0.747,36.999,56.048,46.65,28.204,5.646,8.479,5.646
1167,0.751,37.077,56.005,46.669,28.208,5.686,8.398,5.645
1168,0.748,36.685,56.087,46.659,28.204,5.646,8.356,5.645
1169,0.744,36.825,56.092,46.659,28.201,5.564,8.397,5.645
1170,0.744,36.932,56.025,46.659,28.201,5.563,8.275,5.564
1171,0.738,36.741,56.095,46.688,28.208,5.645,8.396,5.726
1172,0.741,36.768,56.064,46.679,28.215,5.645,8.519,5.809
1173,0.76,36.931,56.142,46.688,28.215,5.645,8.479,5.688
1174,0.757,37.038,55.998,46.688,28.205,5.605,8.479,5.646
1175,0.744,36.521,56.087,46.66,28.208,5.564,8.479,5.686
1176,0.744,36.593,56.013,46.678,28.208,5.604,8.52,5.727
1177,0.747,36.785,56.021,46.688,28.204,5.564,8.601,5.727
1178,0.741,36.864,56.114,46.679,28.208,5.563,8.684,5.646
1179,0.751,36.596,56.018,46.659,28.211,5.563,8.725,5.686
1180,0.748,36.747,56.032,46.707,28.208,5.523,8.848,5.605
1181,0.751,36.892,56.068,46.669,28.204,5.482,8.767,5.604
1182,0.741,36.942,56.06,46.65,28.198,5.44,8.767,5.482
1183,0.728,36.597,56.126,46.659,28.208,5.521,9.011,5.644
1184,0.738,36.795,56.029,46.678,28.204,5.603,9.135,5.645
1185,0.744,36.922,56.099,46.669,28.198,5.523,9.055,5.564
1186,0.744,37.009,55.928,46.679,28.208,5.522,9.095,5.563
1187,0.747,36.262,56.043,46.679,28.201,5.522,9.136,5.563
1188,0.734,36.398,56.091,46.679,28.197,5.482,9.258,5.563
1189,0.731,36.534,56.033,46.688,28.208,5.562,9.259,5.604
1190,0.747,36.603,56.025,46.717,28.208,5.645,9.381,5.808
1191,0.764,36.402,55.919,46.756,28.215,5.727,9.382,5.688
1192,0.761,36.572,56.082,46.699,28.208,5.605,9.261,5.646
1193,0.748,36.661,56.037,46.698,28.201,5.604,9.3,5.605
1194,0.744,36.681,56.071,46.717,28.204,5.523,9.178,5.645
1195,0.751,36.336,56.017,46.698,28.208,5.603,9.177,5.605
1196,0.751,36.476,56.013,46.698,28.208,5.604,9.218,5.645
1197,0.751,36.631,56.044,46.717,28.211,5.564,9.178,5.686
1198,0.764,36.489,56.04,46.698,28.211,5.685,9.096,5.605
1199,0.767,36.391,56.075,46.708,28.205,5.646,9.014,5.523
1200,0.748,36.534,55.951,46.708,28.194,5.483,8.85,5.441
1201,0.741,36.612,55.965,46.698,28.194,5.481,8.767,5.521
1202,0.744,36.229,56.102,46.688,28.208,5.603,8.807,5.522
1203,0.751,36.302,56.068,46.698,28.204,5.686,8.767,5.522
1204,0.754,36.466,56.068,46.708,28.204,5.605,8.726,5.563
1205,0.744,36.583,56.013,46.698,28.198,5.645,8.726,5.482
1206,0.754,36.181,55.993,46.688,28.201,5.605,8.726,5.44
1207,0.751,36.321,56.005,46.707,28.194,5.645,8.644,5.481
1208,0.748,36.447,56.071,46.698,28.194,5.645,8.603,5.562
1209,0.754,36.554,56.095,46.717,28.208,5.645,8.806,5.685
1210,0.77,36.219,56.025,46.746,28.225,5.849,8.808,5.646
1211,0.79,36.408,56.028,46.766,28.208,5.648,8.726,5.523
1212,0.78,36.515,56.005,46.727,28.208,5.645,8.685,5.563
1213,0.797,36.554,56.095,46.737,28.201,5.686,8.644,5.563
1214,0.803,36.171,55.982,46.727,28.208,5.687,8.725,5.563
1215,0.803,36.33,56.051,46.727,28.211,5.646,8.726,5.523
1216,0.81,36.447,56.021,46.727,28.208,5.686,8.685,5.563
1217,0.816,36.535,55.989,46.756,28.204,5.727,8.725,5.604
1218,0.823,35.999,56.098,46.746,28.208,5.687,8.726,5.523
1219,0.826,36.118,56.017,46.718,28.201,5.646,8.603,5.4
1220,0.813,36.253,55.958,46.708,28.197,5.564,8.602,5.44
1221,0.823,36.274,55.958,46.756,28.201,5.645,8.643,5.521
1222,0.833,36.178,56.02,46.737,28.204,5.686,8.725,5.522
1223,0.836,36.321,56.126,46.718,28.204,5.605,8.685,5.563
1224,0.836,36.447,55.959,46.727,28.208,5.604,8.725,5.523
1225,0.836,36.391,56.051,46.737,28.208,5.604,8.766,5.441
1226,0.833,36.045,56.009,46.727,28.201,5.482,8.848,5.44
1227,0.826,36.176,55.993,46.737,28.201,5.562,8.93,5.521
1228,0.849,36.292,56.083,46.737,28.204,5.645,9.012,5.563
1229,0.853,35.958,56.025,46.775,28.218,5.727,9.176,5.726
1230,0.872,36.012,56.017,46.766,28.215,5.687,9.177,5.605
1231,0.876,36.147,56.005,46.756,28.212,5.564,9.137,5.523
1232,0.872,36.254,56.009,46.756,28.215,5.563,9.136,5.522
1233,0.879,35.881,56.067,46.737,28.205,5.563,9.095,5.522
1234,0.885,36.002,55.963,46.746,28.204,5.563,9.095,5.563
1235,0.898,36.175,56.055,46.756,28.211,5.563,9.054,5.563
1236,0.905,36.244,56.056,46.766,28.208,5.645,9.095,5.482
1237,0.921,35.861,56.005,46.766,28.208,5.645,9.014,5.562
1238,0.925,36.02,56.11,46.747,28.198,5.523,8.932,5.482
1239,0.931,36.128,56.029,46.727,28.197,5.441,8.809,5.481
1240,0.918,36.215,56.005,46.737,28.201,5.562,8.808,5.522
1241,0.931,35.947,55.97,46.765,28.204,5.563,8.767,5.482
1242,0.931,36.079,56.016,46.756,28.204,5.563,8.726,5.44
1243,0.938,36.215,56.056,46.756,28.201,5.523,8.685,5.481
1244,0.945,36.293,55.951,46.756,28.201,5.603,8.562,5.522
1245,0.938,36.034,56.039,46.737,28.204,5.482,8.521,5.482
1246,0.932,36.147,55.954,46.746,28.204,5.562,8.479,5.481
1247,0.931,36.33,56.024,46.775,28.208,5.645,8.479,5.603
1248,0.922,36.39,56.083,46.814,28.215,5.808,8.642,5.604
1249,0.931,35.805,56.076,46.814,28.215,5.688,8.44,5.564
1250,0.935,35.905,56.037,46.785,28.205,5.687,8.479,5.604
1251,0.931,36.04,55.966,46.756,28.198,5.687,8.56,5.523
1252,0.935,36.406,55.973,46.766,28.208,5.727,8.602,5.482
1253,0.925,35.901,56.071,46.785,28.215,5.727,8.684,5.562
1254,0.925,36.059,55.974,46.776,28.212,5.727,8.766,5.604
1255,0.915,36.176,56.028,46.804,28.215,5.85,8.726,5.442
1256,0.905,35.861,56.005,46.785,28.198,5.729,8.807,5.44
1257,0.905,35.838,56.013,46.756,28.201,5.565,8.848,5.399
1258,0.895,35.982,56.067,46.756,28.204,5.766,9.011,5.44
1259,0.895,36.137,56.005,46.794,28.208,5.809,9.094,5.481
1260,0.882,35.707,56.056,46.795,28.204,5.688,9.054,5.44
1261,0.882,35.808,55.904,46.776,28.211,5.727,9.054,5.44
1262,0.892,35.943,56.016,46.766,28.205,5.687,9.135,5.359
1263,0.889,36.031,55.997,46.785,28.201,5.646,9.136,5.399
1264,0.879,35.687,56.001,46.766,28.201,5.686,9.258,5.48
1265,0.879,35.865,56.063,46.804,28.208,5.849,9.341,5.603
1266,0.872,36.03,56.009,46.833,28.218,5.891,9.382,5.604
1267,0.866,36.128,56.056,46.834,28.208,5.77,9.179,5.482
1268,0.84,35.611,55.966,46.795,28.204,5.728,9.218,5.562
1269,0.833,35.769,56.079,46.795,28.208,5.768,9.218,5.482
1270,0.833,35.885,56.068,46.814,28.204,5.728,9.178,5.562
1271,0.823,35.973,55.92,46.795,28.208,5.768,9.137,5.401
1272,0.817,35.667,56.023,46.833,28.211,5.809,9.136,5.562
1273,0.803,35.808,55.997,46.805,28.211,5.81,9.095,5.482
1274,0.8,35.934,56.059,46.814,28.208,5.728,9.014,5.44
1275,0.781,35.973,55.966,46.795,28.201,5.727,8.81,5.399
1276,0.774,35.676,55.997,46.776,28.194,5.727,8.93,5.48
1277,0.771,35.836,56.024,46.814,28.208,5.809,8.89,5.44
1278,0.764,35.972,55.997,46.805,28.204,5.769,8.809,5.399
1279,0.764,35.983,56.055,46.795,28.201,5.809,8.726,5.318
1280,0.751,35.494,55.951,46.814,28.204,5.769,8.685,5.48
1281,0.751,35.643,55.985,46.805,28.198,5.728,8.562,5.4
1282,0.754,35.769,55.946,46.804,28.197,5.809,8.561,5.44
1283,0.748,35.655,56.051,46.785,28.204,5.891,8.602,5.521
1284,0.751,35.654,56.06,46.833,28.208,5.892,8.602,5.563
1285,0.761,35.817,56.041,46.853,28.215,5.933,8.521,5.563
1286,0.751,35.905,56.032,46.815,28.205,5.811,8.358,5.441
1287,0.721,35.436,55.923,46.833,28.204,5.769,8.315,5.481
1288,0.724,35.527,56.039,46.824,28.208,5.728,8.315,5.562
1289,0.721,35.682,56.001,46.833,28.204,5.768,8.315,5.482
1290,0.724,35.779,56.024,46.834,28.208,5.768,8.315,5.481
1291,0.724,35.531,55.9,46.843,28.208,5.809,8.315,5.522
1292,0.724,35.701,55.98,46.834,28.204,5.769,8.193,5.482
1293,0.731,35.808,56.063,46.834,28.201,5.687,8.07,5.359
1294,0.715,35.886,55.986,46.795,28.194,5.687,7.987,5.439
1295,0.705,35.292,56.087,46.814,28.201,5.727,8.068,5.481
1296,0.702,35.468,55.943,46.824,28.201,5.727,7.987,5.44
1297,0.698,35.623,56.024,46.814,28.204,5.727,7.946,5.481
1298,0.698,35.692,55.97,46.805,28.204,5.646,7.905,5.4
1299,0.701,35.549,56.024,46.824,28.204,5.645,7.945,5.358
1300,0.688,35.701,55.982,46.805,28.201,5.605,7.864,5.399
1301,0.698,35.846,55.841,46.824,28.201,5.604,7.904,5.399
1302,0.685,35.915,56.015,46.862,28.215,5.645,8.026,5.602
1303,0.695,35.369,55.989,46.863,28.222,5.686,8.027,5.523
1304,0.701,35.536,56.044,46.863,28.215,5.646,7.987,5.441
1305,0.688,35.634,56.064,46.843,28.205,5.605,7.986,5.44
1306,0.682,35.673,55.97,46.853,28.201,5.645,8.027,5.481
1307,0.685,35.53,56.02,46.853,28.208,5.564,8.068,5.481
1308,0.682,35.682,55.958,46.853,28.211,5.645,8.15,5.481
1309,0.688,35.798,56.047,46.843,28.215,5.564,8.232,5.522
1310,0.708,35.646,55.994,46.862,28.201,5.645,8.273,5.441
1311,0.702,35.347,55.899,46.863,28.208,5.564,8.152,5.399
1312,0.688,35.498,55.965,46.834,28.201,5.401,8.11,5.358
1313,0.692,35.576,55.977,46.814,28.197,5.48,8.232,5.399
1314,0.685,35.299,56.005,46.852,28.208,5.481,8.233,5.48
1315,0.695,35.344,55.966,46.843,28.201,5.481,8.314,5.44
1316,0.695,35.478,55.973,46.843,28.204,5.481,8.234,5.44
1317,0.698,35.614,55.989,46.843,28.201,5.44,8.111,5.318
1318,0.688,35.299,55.981,46.824,28.197,5.44,8.109,5.358
1319,0.692,35.411,56.044,46.833,28.201,5.399,8.232,5.399
1320,0.682,35.556,55.931,46.853,28.208,5.48,8.314,5.44
1321,0.688,35.672,55.946,46.882,28.215,5.644,8.356,5.643
1322,0.688,35.261,56.004,46.901,28.222,5.523,8.356,5.483
1323,0.675,35.401,56.036,46.853,28.201,5.522,8.234,5.562
1324,0.682,35.537,56.021,46.862,28.204,5.441,8.192,5.482
1325,0.679,35.605,55.95,46.863,28.208,5.521,8.192,5.562
1326,0.682,35.337,55.993,46.863,28.204,5.441,8.192,5.523
1327,0.675,35.507,56.005,46.872,28.204,5.44,8.11,5.563
1328,0.682,35.662,55.977,46.872,28.208,5.521,8.191,5.523
1329,0.688,35.712,56.055,46.882,28.204,5.4,8.11,5.4
1330,0.685,35.242,55.9,46.853,28.201,5.318,7.947,5.358
1331,0.679,35.401,55.906,46.853,28.194,5.317,7.986,5.439
1332,0.675,35.546,55.988,46.862,28.204,5.398,7.986,5.521
1333,0.695,35.586,56.012,46.872,28.204,5.399,7.986,5.482
1334,0.692,35.26,56.017,46.863,28.204,5.48,7.864,5.481
1335,0.698,35.42,55.989,46.872,28.201,5.4,7.944,5.44
1336,0.688,35.546,55.997,46.853,28.201,5.358,7.823,5.44
1337,0.685,35.797,55.907,46.834,28.201,5.358,7.822,5.399
1338,0.685,35.368,56.012,46.853,28.204,5.439,7.863,5.48
1339,0.698,35.517,56.009,46.872,28.218,5.521,7.944,5.644
1340,0.698,35.662,55.997,46.891,28.215,5.522,7.905,5.564
1341,0.692,35.213,55.927,46.863,28.205,5.4,7.782,5.482
1342,0.692,35.209,55.949,46.872,28.208,5.399,7.74,5.562
1343,0.692,35.352,55.969,46.872,28.208,5.358,7.781,5.523
1344,0.682,35.469,55.938,46.882,28.201,5.358,7.781,5.563
1345,0.682,35.154,56.004,46.882,28.204,5.317,7.74,5.563
1346,0.692,35.265,55.946,46.882,28.211,5.398,7.781,5.563
1347,0.682,35.42,55.981,46.911,28.205,5.399,7.74,5.523
1348,0.688,35.517,56.012,46.873,28.204,5.277,7.618,5.36
1349,0.679,35.192,55.985,46.853,28.201,5.235,7.657,5.561
1350,0.678,35.371,56.012,46.891,28.208,5.316,7.739,5.482
1351,0.682,35.488,55.919,46.882,28.204,5.358,7.74,5.481
1352,0.682,35.595,55.981,46.901,28.208,5.277,7.862,5.522
1353,0.672,35.117,55.977,46.873,28.204,5.235,7.944,5.482
1354,0.669,35.275,55.95,46.872,28.204,5.275,7.945,5.481
1355,0.662,35.42,56.016,46.872,28.201,5.357,8.067,5.562
1356,0.669,35.489,55.935,46.891,28.211,5.399,8.191,5.685
1357,0.682,35.221,56.012,46.92,28.215,5.48,8.314,5.605
1358,0.692,35.372,56.005,46.901,28.208,5.318,8.234,5.564
1359,0.679,35.479,55.993,46.873,28.204,5.317,8.355,5.523
1360,0.682,35.518,56.009,46.882,28.208,5.317,8.437,5.603
1361,0.692,35.097,55.962,46.901,28.201,5.317,8.438,5.645
1362,0.714,35.255,56.024,46.911,28.208,5.317,8.519,5.605
1363,0.734,35.382,55.982,46.911,28.208,5.317,8.52,5.645
1364,0.728,35.431,56.012,46.921,28.208,5.317,8.52,5.564
1365,0.738,35.297,56.005,46.882,28.204,5.236,8.398,5.482
1366,0.754,35.43,55.935,46.863,28.194,5.194,8.478,5.481
1367,0.774,35.566,55.969,46.91,28.204,5.316,8.601,5.603
1368,0.813,35.193,55.926,46.911,28.208,5.276,8.602,5.564
1369,0.826,35.122,56.012,46.892,28.201,5.276,8.602,5.523
1370,0.856,35.256,55.923,46.892,28.204,5.276,8.521,5.522
1371,0.872,35.353,55.879,46.892,28.201,5.276,8.52,5.522
1372,0.905,35.114,55.992,46.892,28.197,5.235,8.561,5.482
1373,0.934,35.236,55.946,46.901,28.204,5.316,8.683,5.684
1374,0.967,35.381,56.0,46.93,28.215,5.398,8.684,5.727
1375,1.039,35.546,55.935,46.921,28.215,5.399,8.684,5.565
1376,1.089,35.039,55.93,46.911,28.205,5.318,8.522,5.645
1377,1.118,35.178,55.985,46.911,28.208,5.317,8.601,5.645
1378,1.145,35.314,55.934,46.892,28.204,5.358,8.602,5.686
1379,1.168,35.411,55.992,46.92,28.204,5.317,8.684,5.646
1380,1.168,35.105,55.876,46.921,28.208,5.439,8.603,5.686
1381,1.168,35.246,55.871,46.93,28.215,5.481,8.684,5.768
1382,1.158,35.381,55.957,46.911,28.205,5.44,8.725,5.728
1383,1.145,35.46,55.958,46.911,28.204,5.359,8.685,5.646
1384,1.152,34.962,55.985,46.892,28.194,5.358,8.847,5.686
1385,1.181,35.12,55.919,46.911,28.204,5.399,8.93,5.768
1386,1.24,35.275,55.973,46.93,28.204,5.358,9.134,5.728
1387,1.25,35.363,55.876,46.93,28.204,5.48,9.095,5.809
1388,1.218,35.22,56.0,46.911,28.198,5.44,9.176,5.85
1389,1.133,35.391,55.923,46.911,28.197,5.399,9.218,5.81
1390,1.122,35.488,55.934,46.921,28.197,5.399,9.259,5.932
1391,1.083,35.518,55.899,46.911,28.197,5.48,9.3,6.055
1392,1.073,35.145,55.914,46.94,28.215,5.684,9.423,6.178
1393,1.03,35.323,56.027,46.969,28.215,5.564,9.424,6.261
1394,0.9,35.43,55.892,46.959,28.205,5.441,9.261,6.302
1395,0.801,35.201,56.008,46.931,28.208,5.481,9.259,6.425
1396,0.719,35.007,55.931,46.93,28.204,5.481,9.219,6.507
1397,0.656,35.159,55.926,46.93,28.215,5.481,9.259,6.63
1398,0.564,35.304,55.988,46.959,28.205,5.522,9.219,6.794
1399,0.489,35.133,55.958,46.94,28.211,5.563,9.218,6.836
1400,0.403,35.237,55.958,46.921,28.208,5.482,9.137,6.958
1401,0.354,35.381,55.837,46.921,28.198,5.4,8.933,6.96
1402,0.311,35.469,55.929,46.921,28.194,5.318,9.012,7.122
1403,0.255,34.962,55.934,46.93,28.204,5.48,9.094,7.246
1404,0.245,35.11,55.934,46.93,28.208,5.481,9.095,7.369
1405,0.222,35.256,55.973,46.949,28.198,5.481,9.014,7.452
1406,0.225,35.343,55.884,46.94,28.208,5.481,9.013,7.452
1407,0.202,34.98,55.933,46.921,28.191,5.4,9.013,7.493
1408,0.199,35.129,55.93,46.94,28.201,5.358,9.013,7.616
1409,0.176,35.275,55.973,46.94,28.204,5.48,9.054,7.739
1410,0.16,35.372,55.965,46.988,28.215,5.562,9.135,7.862
1411,0.133,35.133,55.86,46.988,28.215,5.563,9.014,7.822
1412,0.107,35.265,55.925,46.95,28.205,5.441,8.972,7.944
1413,0.094,35.401,56.0,46.959,28.201,5.44,8.972,7.986
1414,0.081,35.45,55.927,46.94,28.201,5.399,9.013,8.027
1415,0.081,34.99,56.004,46.959,28.204,5.399,8.932,8.149
1416,0.107,35.13,55.907,46.95,28.204,5.44,8.972,8.273
1417,0.143,35.294,55.957,46.978,28.211,5.481,9.013,8.314
1418,0.159,35.324,55.965,46.96,28.208,5.44,8.932,8.437
1419,0.202,34.97,55.938,46.95,28.198,5.359,8.809,8.438
1420,0.205,35.101,55.93,46.94,28.191,5.399,8.889,8.601
1421,0.209,35.265,55.832,46.978,28.201,5.48,8.93,8.684
1422,0.241,35.391,55.948,46.969,28.201,5.522,8.89,8.725
1423,0.238,35.105,55.895,46.95,28.197,5.522,8.768,8.848
1424,0.254,35.275,55.984,46.959,28.201,5.4,8.767,8.93
1425,0.258,35.401,55.946,46.969,28.194,5.48,8.726,8.931
1426,0.264,34.98,55.926,46.959,28.197,5.481,8.766,9.053
1427,0.274,35.034,55.942,46.979,28.201,5.522,8.726,9.257
1428,0.274,35.216,55.922,46.988,28.215,5.644,8.807,9.341
1429,0.304,35.333,56.0,46.998,28.208,5.564,8.604,9.179
1430,0.32,34.903,55.872,46.969,28.204,5.563,8.602,9.259
1431,0.333,35.042,55.89,46.988,28.211,5.563,8.684,9.178
1432,0.347,35.178,55.957,46.969,28.215,5.523,8.603,9.177
1433,0.373,35.285,55.946,46.988,28.201,5.685,8.562,9.177
1434,0.396,34.893,55.973,46.979,28.215,5.605,8.643,9.137
1435,0.422,35.052,55.934,46.998,28.208,5.564,8.562,9.055
1436,0.445,35.197,55.934,46.988,28.204,5.523,8.439,8.973
1437,0.468,35.285,55.856,46.96,28.194,5.482,8.316,8.809
1438,0.475,34.902,55.906,46.95,28.194,5.522,8.396,8.848
1439,0.507,35.052,55.984,46.969,28.197,5.563,8.356,8.849
1440,0.524,35.207,55.884,46.988,28.204,5.523,8.356,8.849
1441,0.547,35.295,55.906,46.998,28.201,5.522,8.275,8.767
1442,0.567,34.941,55.836,46.988,28.208,5.522,8.233,8.645
1443,0.583,35.1,55.921,46.988,28.198,5.441,8.192,8.603
1444,0.596,35.207,55.848,46.969,28.194,5.44,8.151,8.602
1445,0.603,35.285,55.917,46.988,28.204,5.562,8.232,8.643
1446,0.629,34.874,55.977,47.017,28.215,5.645,8.314,8.603
1447,0.639,35.052,55.887,47.046,28.208,5.564,8.193,8.602
1448,0.642,35.159,55.949,46.999,28.201,5.482,8.192,8.562
1449,0.649,35.371,55.887,46.988,28.208,5.481,8.192,8.48
1450,0.668,35.009,55.918,47.008,28.208,5.522,8.192,8.398
1451,0.685,35.168,55.918,47.017,28.211,5.522,8.273,8.356
1452,0.695,35.294,55.86,47.017,28.208,5.482,8.274,8.315
1453,0.705,34.989,55.98,47.027,28.208,5.562,8.436,8.234
1454,0.708,34.967,55.876,47.008,28.208,5.482,8.397,8.111
1455,0.728,35.12,55.961,46.989,28.198,5.318,8.356,7.987
1456,0.721,35.188,55.887,46.969,28.201,5.317,8.478,8.068
1457,0.734,34.786,55.883,46.998,28.201,5.48,8.56,7.987
1458,0.741,34.897,55.922,46.979,28.201,5.4,8.602,7.864
1459,0.754,35.052,55.938,47.007,28.201,5.399,8.562,7.822
1460,0.748,35.14,55.942,47.017,28.204,5.399,8.521,7.822
1461,0.751,34.796,55.84,46.998,28.194,5.358,8.52,7.741
1462,0.748,34.974,55.933,46.988,28.204,5.399,8.561,7.699
1463,0.751,35.11,55.836,46.988,28.208,5.44,8.643,7.861
1464,0.754,35.236,55.952,47.046,28.218,5.562,8.725,7.782
1465,0.757,34.883,55.965,47.046,28.208,5.523,8.522,7.7
1466,0.754,34.994,55.88,46.989,28.201,5.482,8.52,7.658
1467,0.751,35.149,55.902,47.027,28.208,5.4,8.52,7.658
1468,0.754,35.237,55.93,47.027,28.208,5.399,8.479,7.617
1469,0.757,34.892,55.918,47.018,28.211,5.358,8.56,7.576
1470,0.754,35.061,55.934,47.017,28.205,5.399,8.439,7.535
1471,0.757,35.207,55.825,47.027,28.215,5.44,8.438,7.534
1472,0.761,35.256,55.894,47.037,28.205,5.399,8.397,7.494
1473,0.774,37.108,55.867,47.018,28.201,5.358,8.234,7.331
1474,0.774,37.241,55.879,46.989,28.191,5.195,8.192,7.329
1475,0.771,37.338,55.953,46.988,28.204,5.397,8.192,7.329
1476,0.774,37.359,55.848,47.027,28.208,5.358,8.232,7.289
1477,0.777,33.763,55.913,47.008,28.201,5.317,8.151,7.247
1478,0.774,33.918,55.863,47.008,28.204,5.236,8.11,7.206
1479,0.78,34.064,55.96,47.017,28.194,5.194,8.109,7.165
1480,0.774,34.727,55.868,47.008,28.208,5.234,8.069,7.124
1481,0.774,35.185,55.812,47.008,28.191,5.235,8.109,7.205
1482,0.774,35.323,55.898,47.027,28.204,5.357,8.191,7.206
1483,0.777,35.469,55.852,47.037,28.215,5.48,8.314,7.328
1484,0.79,34.626,55.929,47.056,28.215,5.4,8.315,7.085
1485,0.774,34.637,55.922,47.027,28.201,5.318,8.193,7.042
1486,0.771,34.781,55.895,47.027,28.204,5.398,8.192,7.042
1487,0.774,34.888,55.914,47.027,28.208,5.399,8.232,7.082
1488,0.774,34.822,55.883,47.027,28.211,5.318,8.273,7.042
1489,0.777,34.975,55.984,47.027,28.208,5.358,8.314,7.042
1490,0.79,35.11,55.888,47.046,28.215,5.399,8.274,7.001
1491,0.793,35.208,55.863,47.056,28.198,5.318,8.233,6.919
1492,0.797,34.576,55.832,47.027,28.201,5.317,8.151,6.878
1493,0.797,34.713,55.874,46.998,28.197,5.195,8.15,6.755
1494,0.784,34.839,55.914,47.027,28.204,5.356,8.273,6.876
1495,0.79,34.946,55.871,47.008,28.208,5.358,8.274,6.796
1496,0.787,34.717,55.867,47.008,28.204,5.358,8.355,6.795
1497,0.784,34.878,55.851,47.017,28.208,5.317,8.397,6.714
1498,0.787,35.004,55.941,46.998,28.201,5.276,8.438,6.713
1499,0.78,35.043,55.879,47.008,28.197,5.316,8.479,6.672
1500,0.78,34.641,55.867,47.027,28.201,5.317,8.52,6.713
1501,0.787,34.791,55.816,47.037,28.208,5.398,8.723,6.794
1502,0.806,34.965,55.866,47.046,28.215,5.48,8.726,6.755
1503,0.807,35.005,55.914,47.027,28.208,5.359,8.685,6.673
1504,0.79,34.66,55.828,47.018,28.208,5.358,8.684,6.672
1505,0.8,34.791,55.921,47.017,28.208,5.358,8.725,6.631
1506,0.794,34.926,55.895,47.027,28.204,5.399,8.766,6.59
1507,0.787,34.985,55.863,47.018,28.215,5.48,8.807,6.631
1508,0.806,34.784,55.933,47.037,28.208,5.481,8.808,6.55
1509,0.807,34.926,55.91,47.018,28.208,5.481,8.808,6.508
1510,0.813,35.043,55.902,47.037,28.201,5.44,8.848,6.508
1511,0.813,34.651,55.77,47.008,28.194,5.359,8.686,6.467
1512,0.8,34.675,55.878,46.989,28.194,5.399,8.766,6.467
1513,0.81,34.829,55.937,47.017,28.204,5.399,8.767,6.426
1514,0.816,34.965,55.852,47.017,28.204,5.48,8.767,6.385
1515,0.807,34.477,55.937,47.017,28.194,5.44,8.767,6.425
1516,0.813,34.587,55.817,47.017,28.197,5.44,8.726,6.466
1517,0.816,34.742,55.878,46.998,28.197,5.481,8.807,6.304
1518,0.813,34.849,55.871,47.008,28.197,5.522,8.767,6.343
1519,0.807,34.601,55.925,47.008,28.201,5.563,8.889,6.384
1520,0.81,34.761,55.789,47.037,28.211,5.645,9.012,6.547
1521,0.82,34.936,55.768,47.066,28.222,5.645,9.013,6.468
1522,0.82,35.004,55.889,47.008,28.208,5.564,8.972,6.345
1523,0.81,34.449,55.859,47.008,28.201,5.563,8.972,6.343
1524,0.813,34.606,55.914,47.017,28.208,5.645,8.931,6.343
1525,0.81,34.742,55.906,47.037,28.204,5.645,8.972,6.343
1526,0.816,34.811,55.832,47.037,28.204,5.645,9.013,6.343
1527,0.816,34.572,55.909,47.056,28.204,5.605,8.972,6.343
1528,0.816,34.723,55.867,47.037,28.208,5.604,9.013,6.343
1529,0.826,34.859,55.957,47.027,28.204,5.564,8.932,6.262
1530,0.833,34.898,55.786,47.018,28.201,5.523,8.85,6.18
1531,0.826,34.41,55.784,47.008,28.194,5.482,8.889,6.261
1532,0.817,34.558,55.823,47.037,28.197,5.603,8.93,6.221
1533,0.839,34.713,55.816,47.037,28.211,5.564,8.89,6.22
1534,0.826,35.06,55.921,47.027,28.205,5.563,8.89,6.261
1535,0.826,34.478,55.836,47.037,28.194,5.523,8.849,6.058
1536,0.83,34.635,55.902,47.018,28.201,5.563,8.849,6.137
1537,0.839,34.733,55.875,47.017,28.204,5.523,8.767,6.098
1538,0.836,34.475,55.789,47.037,28.204,5.603,8.889,6.138
1539,0.859,34.492,55.866,47.066,28.211,5.686,8.89,6.301
1540,0.856,34.645,55.863,47.066,28.211,5.727,8.768,6.18
1541,0.856,34.771,55.898,47.066,28.201,5.565,8.726,6.179
1542,0.843,34.447,55.816,47.027,28.204,5.604,8.644,6.057
1543,0.839,34.578,55.886,47.056,28.208,5.564,8.603,6.097
1544,0.836,34.713,55.89,47.037,28.208,5.523,8.521,6.138
1545,0.836,34.839,55.855,47.075,28.204,5.603,8.439,6.098
1546,0.843,34.246,55.917,47.056,28.215,5.604,8.438,6.097
1547,0.846,34.374,55.836,47.066,28.208,5.564,8.357,6.178
1548,0.849,34.539,55.87,47.066,28.204,5.563,8.234,6.057
1549,0.84,34.617,55.875,47.037,28.194,5.482,8.192,5.975
1550,0.843,34.503,55.898,47.037,28.197,5.562,8.151,5.974
1551,0.843,34.664,55.902,47.056,28.204,5.563,8.191,6.015
1552,0.849,34.82,55.813,47.047,28.204,5.563,8.151,5.974
1553,0.859,34.898,55.87,47.066,28.204,5.523,8.069,5.974
1554,0.849,34.362,55.773,47.047,28.204,5.522,8.028,5.974
1555,0.853,34.519,55.866,47.046,28.194,5.482,7.946,6.015
1556,0.856,34.646,55.906,47.037,28.201,5.481,8.026,6.096
1557,0.862,34.714,55.805,47.085,28.204,5.603,8.149,6.097
1558,0.879,34.446,55.886,47.095,28.225,5.726,8.191,6.138
1559,0.882,34.597,55.82,47.076,28.212,5.565,8.07,6.016
1560,0.856,34.704,55.894,47.085,28.208,5.563,8.109,6.015
1561,0.859,34.734,55.855,47.066,28.208,5.604,8.069,5.974
1562,0.869,34.235,55.769,47.066,28.208,5.564,8.069,5.974
1563,0.863,34.403,55.866,47.066,28.208,5.563,8.109,5.974
1564,0.866,34.539,55.769,47.104,28.208,5.645,8.069,5.974
1565,0.866,34.473,55.874,47.095,28.208,5.564,8.028,5.974
1566,0.869,34.472,55.898,47.057,28.201,5.482,7.946,5.852
1567,0.859,34.597,55.734,47.047,28.197,5.4,7.905,5.891
1568,0.862,34.713,55.869,47.056,28.197,5.521,8.026,5.973
1569,0.872,34.216,55.816,47.075,28.201,5.603,7.946,5.974
1570,0.876,34.307,55.862,47.076,28.201,5.564,7.945,5.974
1571,0.866,34.432,55.75,47.076,28.197,5.604,7.864,5.893
1572,0.866,34.558,55.807,47.095,28.197,5.604,7.863,5.851
1573,0.866,34.32,55.855,47.076,28.201,5.523,7.822,5.932
1574,0.872,34.48,55.839,47.076,28.197,5.603,7.863,5.933
1575,0.885,34.645,55.906,47.085,28.208,5.726,7.985,6.055
1576,0.892,34.762,55.809,47.114,28.218,5.727,8.068,5.975
1577,0.902,34.226,55.851,47.076,28.208,5.768,7.743,5.852
1578,0.895,34.355,55.789,47.076,28.208,5.647,7.862,5.973
1579,0.895,34.481,55.878,47.085,28.208,5.686,7.863,5.852
1580,0.892,34.588,55.886,47.085,28.204,5.646,7.7,5.891
1581,0.899,34.186,55.777,47.085,28.201,5.686,7.74,5.892
1582,0.902,34.335,55.815,47.085,28.208,5.727,7.699,5.933
1583,0.908,34.5,55.784,47.085,28.201,5.687,7.74,5.892
1584,0.905,34.578,55.846,47.095,28.204,5.646,7.577,5.77
1585,0.889,34.378,55.855,47.047,28.198,5.523,7.535,5.728
1586,0.885,34.51,55.851,47.075,28.197,5.563,7.534,5.809
1587,0.892,34.674,55.851,47.219,28.208,5.563,7.575,5.85
1588,0.895,34.705,55.796,47.106,28.201,5.563,7.494,5.81
1589,0.895,34.264,55.893,47.076,28.201,5.563,7.534,5.769
1590,0.908,34.422,55.793,47.076,28.201,5.523,7.534,5.809
1591,0.905,34.529,55.815,47.085,28.194,5.563,7.453,5.728
1592,0.905,34.492,55.816,47.076,28.19,5.523,7.493,5.768
1593,0.899,34.31,55.843,47.085,28.204,5.563,7.575,5.891
1594,0.915,34.519,55.882,47.123,28.211,5.645,7.738,5.973
1595,0.938,34.665,55.836,47.133,28.215,5.727,7.659,5.893
1596,0.928,34.263,55.851,47.086,28.208,5.565,7.576,5.77
1597,0.928,34.346,55.757,47.104,28.201,5.563,7.616,5.809
1598,0.935,34.471,55.819,47.095,28.208,5.604,7.657,5.81
1599,0.931,34.578,55.894,47.085,28.201,5.604,7.658,5.769
1600,0.925,35.087,55.844,47.095,28.208,5.645,7.698,5.809
1601,0.922,35.246,55.831,47.114,28.211,5.727,7.78,5.769
1602,0.944,35.41,55.804,47.114,28.205,5.646,7.74,5.728
1603,0.935,35.469,55.862,47.105,28.201,5.564,7.781,5.687
1604,0.922,33.936,55.781,47.066,28.197,5.523,7.862,5.646
1605,0.912,34.074,55.815,47.085,28.201,5.522,8.148,5.686
1606,0.931,34.248,55.862,47.095,28.204,5.603,8.232,5.768
1607,0.928,34.346,55.777,47.172,28.201,5.645,8.436,5.768
1608,0.944,34.663,55.831,47.105,28.197,5.564,8.56,5.687
1609,0.958,34.82,55.765,47.095,28.197,5.523,8.602,5.727
1610,0.951,34.955,55.862,47.095,28.197,5.522,8.724,5.646
1611,0.941,35.024,55.839,47.076,28.204,5.522,8.766,5.686
1612,0.951,34.689,55.785,47.095,28.208,5.563,8.97,5.727
1613,0.961,34.839,55.854,47.133,28.215,5.685,9.175,5.85
1614,0.974,35.032,55.785,47.143,28.215,5.646,9.096,5.729
1615,0.971,35.044,55.831,47.124,28.205,5.645,9.095,5.768
1616,0.961,34.958,55.804,47.114,28.201,5.564,9.176,5.809
1617,0.971,35.11,55.773,47.105,28.208,5.726,9.096,5.769
1618,0.971,35.246,55.846,47.105,28.204,5.565,9.217,5.768
1619,0.961,35.592,55.785,47.105,28.211,5.645,9.056,5.768
1620,0.981,35.145,55.862,47.105,28.208,5.686,9.135,5.728
1621,0.974,35.304,55.734,47.114,28.208,5.687,9.014,5.768
1622,0.987,35.43,55.756,47.114,28.201,5.605,8.972,5.647
1623,0.978,35.403,55.85,47.076,28.194,5.523,8.931,5.605
1624,0.971,35.489,55.789,47.104,28.201,5.603,9.012,5.645
1625,0.977,35.643,55.843,47.105,28.208,5.645,9.013,5.686
1626,0.971,35.779,55.726,47.105,28.201,5.645,9.013,5.687
1627,0.981,35.703,55.815,47.095,28.197,5.605,8.932,5.646
1628,0.968,35.808,55.8,47.104,28.201,5.564,8.931,5.605
1629,0.971,35.953,55.831,47.085,28.197,5.563,8.89,5.604
1630,0.984,36.031,55.866,47.104,28.201,5.604,8.89,5.645
1631,0.987,35.878,55.734,47.124,28.215,5.686,9.012,5.808
1632,0.994,36.069,55.83,47.143,28.215,5.768,9.013,5.728
1633,1.01,36.186,55.824,47.124,28.208,5.647,8.85,5.646
1634,1.001,36.244,55.788,47.124,28.208,5.686,8.808,5.727
1635,0.997,36.283,55.831,47.124,28.204,5.646,8.767,5.646
1636,1.01,36.408,55.781,47.114,28.204,5.686,8.726,5.727
1637,1.017,36.553,55.823,47.153,28.208,5.687,8.685,5.646
1638,1.02,36.632,55.757,47.143,28.208,5.687,8.644,5.686
1639,1.01,36.623,55.846,47.134,28.215,5.646,8.603,5.564
1640,1.001,36.747,55.855,47.105,28.201,5.523,8.48,5.523
1641,0.994,36.854,55.769,47.085,28.194,5.482,8.438,5.603
1642,0.987,36.913,55.776,47.114,28.204,5.603,8.519,5.645
1643,1.0,36.817,55.772,47.124,28.201,5.564,8.439,5.564
1644,1.013,36.96,55.749,47.124,28.201,5.563,8.357,5.563
1645,1.001,37.096,55.717,47.105,28.204,5.523,8.275,5.604
1646,1.004,37.097,55.858,47.105,28.198,5.563,8.314,5.604
1647,1.004,36.992,55.668,47.124,28.201,5.563,8.193,5.564
1648,1.004,37.154,55.802,47.124,28.201,5.523,8.192,5.685
1649,1.004,37.29,55.847,47.143,28.211,5.685,8.232,5.809
1650,1.027,37.329,55.832,47.153,28.222,5.727,8.192,5.728
1651,1.03,37.358,55.827,47.134,28.205,5.646,8.07,5.727
1652,1.02,37.483,55.671,47.124,28.208,5.605,8.069,5.687
1653,1.03,37.59,55.779,47.153,28.208,5.645,7.987,5.687
1654,1.037,37.419,55.679,47.124,28.204,5.645,7.986,5.687
1655,1.033,37.532,55.787,47.143,28.204,5.686,7.946,5.687
1656,1.043,37.667,55.862,47.124,28.208,5.646,7.905,5.687
1657,1.05,37.755,55.722,47.133,28.208,5.686,7.904,5.646
1658,1.043,37.593,55.795,47.134,28.194,5.564,7.701,5.523
1659,1.024,37.697,55.745,47.105,28.197,5.604,7.74,5.685
1660,1.03,37.851,55.834,47.124,28.201,5.645,7.74,5.646
1661,1.04,37.939,55.839,47.143,28.208,5.645,7.659,5.686
1662,1.027,37.815,55.71,47.162,28.204,5.605,7.617,5.727
1663,1.027,37.958,55.779,47.124,28.201,5.564,7.657,5.605
1664,1.023,38.065,55.667,47.114,28.197,5.563,7.617,5.604
1665,1.023,38.133,55.791,47.114,28.201,5.604,7.617,5.645
1666,1.023,37.99,55.753,47.124,28.204,5.686,7.779,5.808
1667,1.04,38.151,55.76,47.181,28.211,5.727,7.862,5.85
1668,1.037,38.297,55.835,47.163,28.218,5.687,7.782,5.769
1669,1.024,38.317,55.804,47.143,28.208,5.687,7.74,5.768
1670,1.033,38.03,55.858,47.153,28.204,5.605,7.781,5.768
1671,1.037,38.171,55.722,47.143,28.201,5.686,7.862,5.728
1672,1.04,38.297,55.713,47.143,28.208,5.687,7.822,5.768
1673,1.05,38.337,55.666,47.162,28.208,5.687,7.944,5.809
1674,1.05,38.28,55.775,47.239,28.208,5.687,7.945,5.769
1675,1.05,38.423,55.815,47.154,28.204,5.687,7.945,5.728
1676,1.04,38.511,55.8,47.143,28.201,5.524,7.783,5.565
1677,1.037,38.416,55.757,47.124,28.194,5.603,7.781,5.645
1678,1.037,38.328,55.698,47.133,28.204,5.686,7.781,5.645
1679,1.037,38.49,55.822,47.153,28.204,5.646,7.781,5.727
1680,1.04,38.569,55.773,47.143,28.201,5.564,7.822,5.687
1681,1.024,38.445,55.776,47.143,28.204,5.604,7.741,5.768
1682,1.017,38.53,55.694,47.153,28.204,5.523,7.618,5.647
1683,1.01,38.684,55.728,47.124,28.198,5.522,7.657,5.686
1684,1.001,38.734,55.744,47.143,28.201,5.563,7.617,5.605
1685,1.013,38.331,55.745,47.143,28.201,5.563,7.698,5.726
1686,1.017,38.462,55.862,47.143,28.211,5.726,7.861,5.809
1687,1.023,38.645,55.668,47.172,28.215,5.687,7.7,5.769
1688,1.017,38.685,55.779,47.144,28.205,5.646,7.658,5.647
1689,1.01,38.494,55.768,47.143,28.201,5.605,7.617,5.686
1690,1.01,38.626,55.803,47.143,28.215,5.645,7.617,5.687
1691,1.01,38.733,55.796,47.153,28.208,5.483,7.617,5.727
1692,1.001,38.84,55.644,47.162,28.208,5.644,7.617,5.687
1693,1.007,38.371,55.767,47.182,28.204,5.605,7.617,5.727
1694,1.01,38.52,55.671,47.22,28.204,5.523,7.617,5.687
1695,1.004,38.627,55.752,47.154,28.194,5.482,7.617,5.605
1696,0.997,38.656,55.834,47.124,28.194,5.4,7.535,5.604
1697,0.984,38.417,55.628,47.153,28.201,5.521,7.738,5.686
1698,0.984,38.587,55.786,47.143,28.201,5.482,7.821,5.564
1699,0.984,38.714,55.78,47.143,28.204,5.481,7.903,5.645
1700,0.981,38.753,55.784,47.143,28.201,5.44,8.026,5.605
1701,0.968,38.475,55.776,47.143,28.197,5.481,8.068,5.645
1702,0.961,38.607,55.679,47.153,28.197,5.4,8.109,5.605
1703,0.945,38.743,55.791,47.153,28.191,5.48,8.272,5.645
1704,0.961,39.08,55.644,47.153,28.211,5.522,8.436,5.727
1705,0.958,39.112,55.783,47.201,28.215,5.563,8.56,5.768
1706,0.961,39.246,55.804,47.163,28.208,5.563,8.561,5.728
1707,0.948,39.334,55.683,47.153,28.208,5.563,8.561,5.646
1708,0.935,38.29,55.779,47.162,28.211,5.563,8.521,5.645
1709,0.931,38.193,55.69,47.163,28.201,5.563,8.601,5.686
1710,0.928,38.326,55.775,47.172,28.204,5.523,8.684,5.646
1711,0.928,38.433,55.792,47.153,28.204,5.563,8.684,5.686
1712,0.925,38.434,55.636,47.191,28.208,5.563,8.603,5.687
1713,0.928,38.568,55.775,47.182,28.208,5.523,8.602,5.646
1714,0.912,38.675,55.655,47.153,28.194,5.4,8.521,5.523
1715,0.899,38.753,55.759,47.124,28.194,5.48,8.479,5.522
1716,0.895,38.264,55.784,47.153,28.201,5.562,8.56,5.603
1717,0.902,38.413,55.683,47.162,28.204,5.523,8.521,5.564
1718,0.886,38.52,55.775,47.163,28.204,5.482,8.439,5.604
1719,0.879,38.617,55.706,47.153,28.201,5.481,8.438,5.564
1720,0.879,38.407,55.807,47.153,28.201,5.481,8.397,5.523
1721,0.866,38.549,55.734,47.162,28.201,5.522,8.316,5.482
1722,0.876,38.684,55.702,47.153,28.194,5.482,8.315,5.644
1723,0.869,38.743,55.74,47.172,28.211,5.644,8.356,5.645
1724,0.872,38.274,55.706,47.201,28.215,5.686,8.356,5.767
1725,0.879,38.442,55.775,47.201,28.212,5.687,8.275,5.647
1726,0.872,38.53,55.698,47.173,28.205,5.605,8.274,5.605
1727,0.863,38.55,55.705,47.201,28.201,5.645,8.193,5.645
1728,0.866,38.358,55.744,47.192,28.204,5.727,8.192,5.564
1729,0.859,38.51,55.713,47.182,28.208,5.768,8.151,5.563
1730,0.859,38.626,55.787,47.201,28.204,5.85,8.11,5.685
1731,0.853,38.656,55.698,47.192,28.204,5.891,8.028,5.646
1732,0.853,38.206,55.721,47.173,28.204,6.054,7.987,5.483
1733,0.853,38.336,55.721,47.172,28.191,6.056,7.824,5.481
1734,0.83,38.423,55.659,47.163,28.201,6.3,7.944,5.644
1735,0.839,38.261,55.74,47.201,28.204,6.343,7.864,5.645
1736,0.839,38.24,55.721,47.163,28.201,6.466,7.944,5.605
1737,0.836,38.384,55.717,47.163,28.201,6.548,7.823,5.564
1738,0.833,38.491,55.682,47.153,28.197,6.59,7.781,5.604
1739,0.836,37.965,55.728,47.162,28.197,6.631,7.74,5.564
1740,0.826,38.074,55.764,47.163,28.197,6.712,7.699,5.604
1741,0.82,38.21,55.714,47.182,28.204,6.835,7.821,5.726
1742,0.826,38.336,55.721,47.211,28.215,6.999,7.903,5.809
1743,0.823,38.174,55.682,47.211,28.218,7.001,7.742,5.688
1744,0.82,38.287,55.717,47.182,28.208,6.96,7.699,5.646
1745,0.81,38.432,55.725,47.182,28.208,6.96,7.74,5.645
1746,0.81,38.511,55.741,47.192,28.204,6.96,7.699,5.645
1747,0.803,37.917,55.698,47.201,28.204,7.082,7.699,5.727
1748,0.803,38.064,55.682,47.192,28.215,7.083,7.618,5.687
1749,0.807,38.2,55.752,47.201,28.205,7.042,7.535,5.768
1750,0.816,38.288,55.706,47.192,28.201,7.082,7.575,5.647
1751,0.816,37.819,55.756,47.163,28.194,6.961,7.454,5.483
1752,0.803,37.958,55.706,47.163,28.201,7.0,7.493,5.644
1753,0.816,38.103,55.658,47.172,28.204,7.123,7.453,5.645
1754,0.807,38.153,55.697,47.182,28.208,7.043,7.452,5.564
1755,0.813,37.789,55.678,47.172,28.201,7.042,7.452,5.563
1756,0.813,37.938,55.748,47.163,28.197,7.001,7.452,5.645
1757,0.81,38.045,55.698,47.163,28.201,6.96,7.412,5.564
1758,0.803,38.104,55.686,47.163,28.204,7.041,7.452,5.645
1759,0.826,37.874,55.779,47.191,28.211,7.164,7.656,5.808
1760,0.817,38.035,55.706,47.22,28.218,7.124,7.658,5.647
1761,0.807,38.133,55.752,47.192,28.208,7.002,7.576,5.686
1762,0.807,37.904,55.674,47.182,28.211,6.96,7.535,5.646
1763,0.79,37.767,55.709,47.201,28.205,6.96,7.657,5.686
1764,0.8,37.881,55.694,47.182,28.208,6.919,7.617,5.687
1765,0.807,38.006,55.654,47.172,28.208,6.919,7.617,5.605
1766,0.8,37.663,55.755,47.191,28.215,6.959,7.617,5.645
1767,0.794,37.755,55.628,47.182,28.201,6.919,7.617,5.645
1768,0.8,37.89,55.7,47.172,28.191,6.715,7.535,5.523
1769,0.803,37.959,55.744,47.163,28.19,6.713,7.534,5.603
1770,0.803,37.461,55.706,47.163,28.201,6.754,7.657,5.604
1771,0.813,37.599,55.744,47.172,28.204,6.754,7.739,5.564
1772,0.813,37.745,55.62,47.163,28.201,6.714,7.862,5.645
1773,0.803,37.833,55.693,47.182,28.201,6.672,7.944,5.605
1774,0.807,37.45,55.674,47.182,28.201,6.672,7.986,5.604
1775,0.81,37.609,55.666,47.163,28.197,6.509,8.149,5.564
1776,0.813,37.735,55.748,47.143,28.204,6.589,8.273,5.685
1777,0.813,37.832,55.604,47.182,28.208,6.631,8.436,5.687
1778,0.826,37.527,55.728,47.201,28.218,6.712,8.641,5.687
1779,0.83,37.658,55.756,47.201,28.201,6.551,8.603,5.646
1780,0.804,37.774,55.745,47.173,28.204,6.468,8.684,5.605
1781,0.807,37.833,55.741,47.172,28.204,6.507,8.766,5.645
1782,0.8,37.383,55.678,47.211,28.208,6.467,8.807,5.645
1783,0.797,37.532,55.709,47.201,28.208,6.467,8.889,5.645
1784,0.803,37.687,55.549,47.182,28.211,6.467,8.93,5.605
1785,0.797,37.717,55.672,47.201,28.208,6.426,8.972,5.645
1786,0.803,37.449,55.74,47.192,28.204,6.385,8.931,5.564
1787,0.797,37.561,55.612,47.153,28.194,6.263,8.85,5.523
1788,0.787,37.658,55.712,47.182,28.204,6.302,8.971,5.603
1789,0.797,37.688,55.69,47.192,28.201,6.302,9.013,5.604
1790,0.813,37.391,55.728,47.182,28.201,6.221,8.972,5.564
1791,0.81,37.551,55.686,47.172,28.204,6.302,8.972,5.563
1792,0.807,37.648,55.6,47.182,28.204,6.18,8.891,5.645
1793,0.813,37.237,55.731,47.163,28.198,6.179,8.89,5.523
1794,0.816,37.281,55.678,47.239,28.208,6.098,8.89,5.522
1795,0.813,37.425,55.713,47.154,28.208,6.219,8.93,5.603
1796,0.82,37.532,55.694,47.182,28.208,6.302,8.972,5.686
1797,0.826,37.341,55.678,47.23,28.225,6.262,8.931,5.605
1798,0.826,37.454,55.678,47.182,28.201,6.139,8.809,5.523
1799,0.82,37.58,55.685,47.192,28.208,6.138,8.767,5.563
1800,0.813,37.668,55.748,47.201,28.208,6.098,8.726,5.563
1801,0.81,37.141,55.659,47.201,28.208,6.097,8.685,5.563
1802,0.81,37.328,55.619,47.22,28.204,6.097,8.684,5.563
1803,0.816,37.435,55.665,47.202,28.204,6.178,8.684,5.604
1804,0.807,37.513,55.662,47.22,28.208,6.139,8.644,5.564
1805,0.81,37.149,55.627,47.202,28.204,5.976,8.481,5.523
1806,0.803,37.261,55.728,47.163,28.191,5.893,8.398,5.441
1807,0.797,37.387,55.635,47.182,28.197,5.973,8.438,5.521
1808,0.807,37.445,55.646,47.182,28.201,6.055,8.397,5.644
1809,0.807,37.35,55.732,47.182,28.204,5.975,8.438,5.564
1810,0.826,37.503,55.651,47.192,28.204,5.974,8.438,5.482
1811,0.81,37.629,55.701,47.192,28.201,5.933,8.438,5.481
1812,0.81,37.64,55.463,47.201,28.197,5.811,8.438,5.481
1813,0.807,36.863,55.672,47.182,28.194,5.85,8.438,5.562
1814,0.8,36.999,55.709,47.297,28.197,5.932,8.56,5.604
1815,0.81,37.144,55.662,47.221,28.215,6.014,8.683,5.686
1816,0.823,37.5,55.748,47.221,28.215,6.015,8.644,5.605
1817,0.823,36.996,55.557,47.259,28.201,5.934,8.562,5.564
1818,0.804,37.106,55.704,47.202,28.208,5.892,8.561,5.563
1819,0.816,37.222,55.69,47.201,28.211,5.933,8.561,5.604
1820,0.813,36.974,55.728,47.211,28.205,5.974,8.521,5.523
1821,0.82,36.981,55.581,47.211,28.204,5.933,8.601,5.563
1822,0.82,37.134,55.681,47.288,28.208,6.014,8.643,5.563
1823,0.823,37.242,55.697,47.231,28.208,5.934,8.603,5.523
1824,0.82,36.955,55.658,47.297,28.198,5.811,8.562,5.4
1825,0.807,37.029,55.693,47.202,28.194,5.769,8.561,5.358
1826,0.8,37.164,55.647,47.173,28.201,5.809,8.643,5.48
1827,0.807,37.299,55.607,47.22,28.204,5.85,8.644,5.481
1828,0.803,36.668,55.638,47.211,28.208,5.851,8.725,5.481
1829,0.81,36.776,55.665,47.211,28.208,5.891,8.644,5.522
1830,0.807,36.912,55.724,47.201,28.194,5.851,8.644,5.482
1831,0.81,36.98,55.612,47.201,28.197,5.769,8.603,5.4
1832,0.807,36.77,55.665,47.192,28.197,5.809,8.643,5.44
1833,0.81,36.941,55.67,47.22,28.208,5.81,8.644,5.562
1834,0.813,37.067,55.674,47.269,28.215,5.972,8.765,5.645
1835,0.826,37.174,55.709,47.24,28.208,5.852,8.685,5.564
1836,0.813,36.638,55.658,47.202,28.198,5.891,8.603,5.482
1837,0.807,36.757,55.642,47.211,28.208,5.851,8.562,5.44
1838,0.803,36.893,55.685,47.192,28.208,5.851,8.602,5.44
1839,0.813,36.942,55.697,47.201,28.204,5.891,8.602,5.481
1840,0.81,36.53,55.693,47.23,28.211,5.933,8.602,5.522
1841,0.797,36.679,55.65,47.211,28.205,5.974,8.724,5.482
1842,0.8,36.825,55.588,47.24,28.201,5.974,8.766,5.481
1843,0.79,36.855,55.622,47.211,28.201,5.893,8.807,5.359
1844,0.793,36.558,55.626,47.192,28.194,5.851,8.808,5.358
1845,0.79,36.708,55.587,47.211,28.208,5.973,9.011,5.439
1846,0.8,36.844,55.696,47.211,28.208,5.933,8.972,5.521
1847,0.79,36.797,55.631,47.211,28.204,6.014,9.013,5.4
1848,0.806,36.797,55.603,47.211,28.198,5.974,9.094,5.48
1849,0.8,36.912,55.689,47.211,28.201,5.974,9.054,5.44
1850,0.8,37.019,55.615,47.211,28.201,5.974,9.095,5.44
1851,0.8,36.349,55.685,47.211,28.194,5.974,9.136,5.399
1852,0.807,36.409,55.584,47.221,28.201,6.015,9.177,5.521
1853,0.813,36.582,55.622,47.24,28.218,6.218,9.259,5.603
1854,0.823,36.709,55.63,47.24,28.215,6.017,9.097,5.482
1855,0.804,36.298,55.587,47.221,28.208,6.015,9.136,5.522
1856,0.8,36.418,55.712,47.221,28.204,6.015,9.055,5.522
1857,0.8,36.563,55.635,47.221,28.204,5.974,8.973,5.482
1858,0.794,36.68,55.622,47.221,28.204,5.933,8.972,5.481
1859,0.793,36.201,55.704,47.211,28.201,6.055,8.972,5.522
1860,0.793,36.35,55.6,47.24,28.215,6.015,8.891,5.522
1861,0.793,36.486,55.677,47.221,28.205,5.934,8.768,5.441
1862,0.774,36.535,55.572,47.202,28.187,5.852,8.604,5.399
1863,0.771,36.267,55.665,47.211,28.201,5.973,8.724,5.48
1864,0.79,36.437,55.623,47.221,28.208,6.015,8.685,5.481
1865,0.784,36.573,55.615,47.221,28.201,5.893,8.603,5.4
1866,0.784,36.632,55.689,47.211,28.197,5.933,8.602,5.48
1867,0.774,36.191,55.545,47.211,28.197,5.892,8.602,5.481
1868,0.78,36.35,55.61,47.221,28.204,5.811,8.44,5.4
1869,0.78,36.476,55.583,47.221,28.204,5.891,8.519,5.48
1870,0.797,36.516,55.735,47.249,28.211,6.014,8.561,5.644
1871,0.79,36.391,55.721,47.259,28.215,5.974,8.48,5.564
1872,0.8,36.544,55.577,47.231,28.201,5.893,8.357,5.523
1873,0.787,36.651,55.673,47.221,28.208,5.973,8.356,5.522
1874,0.784,36.585,55.568,47.221,28.201,5.933,8.356,5.563
1875,0.784,36.354,55.641,47.23,28.208,6.014,8.315,5.523
1876,0.79,36.505,55.654,47.23,28.208,6.015,8.356,5.563
1877,0.793,36.631,55.564,47.25,28.215,6.015,8.275,5.563
1878,0.793,36.249,55.653,47.24,28.215,5.974,8.274,5.523
1879,0.787,36.302,55.623,47.23,28.198,5.893,8.233,5.36
1880,0.787,36.428,55.693,47.202,28.197,5.851,8.07,5.358
1881,0.774,36.525,55.572,47.211,28.191,5.973,8.109,5.48
1882,0.78,36.161,55.602,47.24,28.204,6.015,8.191,5.481
1883,0.774,36.311,55.669,47.23,28.204,6.015,8.192,5.481
1884,0.774,36.428,55.517,47.23,28.194,6.056,8.11,5.4
1885,0.774,36.534,55.649,47.23,28.201,5.975,8.15,5.44
1886,0.777,36.257,55.591,47.211,28.201,5.974,8.15,5.359
1887,0.764,36.389,55.567,47.23,28.197,5.893,8.191,5.439
1888,0.774,36.544,55.622,47.24,28.204,6.054,8.232,5.521
1889,0.774,36.651,55.618,47.269,28.218,6.137,8.314,5.685
1890,0.787,36.259,55.681,47.269,28.218,6.057,8.274,5.524
1891,0.78,36.389,55.615,47.25,28.205,5.934,8.193,5.522
1892,0.787,36.505,55.568,47.25,28.204,6.014,8.11,5.441
1893,0.777,36.564,55.649,47.24,28.204,5.974,8.272,5.521
1894,0.78,36.315,55.552,47.24,28.201,5.974,8.233,5.563
1895,0.777,36.466,55.626,47.25,28.208,5.974,8.273,5.482
1896,0.787,36.602,55.583,47.25,28.208,5.933,8.355,5.603
1897,0.79,36.632,55.563,47.25,28.211,6.014,8.356,5.523
1898,0.78,36.393,55.641,47.24,28.201,5.893,8.315,5.36
1899,0.777,36.515,55.599,47.23,28.197,5.811,8.193,5.439
1900,0.764,36.612,55.649,47.221,28.194,5.891,8.273,5.521
1901,0.764,36.939,55.584,47.24,28.201,5.973,8.355,5.482
1902,0.774,36.405,55.54,47.25,28.204,5.933,8.234,5.481
1903,0.767,36.563,55.59,47.25,28.201,5.933,8.233,5.4
1904,0.764,36.651,55.556,47.24,28.204,5.892,8.233,5.48
1905,0.774,36.498,55.63,47.24,28.198,5.851,8.151,5.481
1906,0.767,36.535,55.56,47.221,28.204,5.891,8.232,5.522
1907,0.767,36.689,55.606,47.249,28.204,5.933,8.314,5.563
1908,0.77,36.806,55.591,47.269,28.218,6.096,8.274,5.645
1909,0.777,36.385,55.669,47.279,28.215,5.975,8.193,5.523
1910,0.774,36.448,55.685,47.25,28.201,5.974,8.11,5.522
1911,0.761,36.592,55.615,47.25,28.197,5.852,8.109,5.522
1912,0.764,36.689,55.591,47.259,28.201,5.851,8.109,5.482
1913,0.77,36.46,55.501,47.25,28.201,5.851,8.069,5.603
1914,0.777,36.592,55.563,47.259,28.208,5.81,8.069,5.564
1915,0.774,36.737,55.579,47.269,28.208,5.85,8.069,5.604
1916,0.774,36.825,55.661,47.269,28.208,5.891,8.069,5.564
1917,0.774,36.423,55.611,47.26,28.204,5.729,7.906,5.401
1918,0.761,36.553,55.579,47.231,28.191,5.768,7.863,5.44
1919,0.767,36.708,55.641,47.25,28.204,5.809,7.944,5.481
1920,0.77,36.787,55.572,47.269,28.208,5.728,7.823,5.481
1921,0.77,36.557,55.649,47.25,28.204,5.809,7.822,5.481
1922,0.761,36.699,55.588,47.259,28.204,5.728,7.822,5.44
1923,0.751,36.825,55.552,47.25,28.198,5.727,7.7,5.44
1924,0.757,36.864,55.579,47.231,28.201,5.687,7.74,5.359
1925,0.754,36.606,55.501,47.24,28.197,5.768,7.699,5.48
1926,0.757,36.757,55.617,47.269,28.201,5.809,7.821,5.522
1927,0.767,36.902,55.622,47.307,28.215,5.932,7.863,5.685
1928,0.774,36.942,55.591,47.298,28.208,5.77,7.7,5.442
1929,0.758,36.751,55.606,47.269,28.201,5.687,7.658,5.481
1930,0.764,36.883,55.579,47.26,28.204,5.687,7.698,5.562
1931,0.761,36.98,55.634,47.269,28.204,5.687,7.699,5.523
1932,0.764,36.732,55.552,47.26,28.204,5.687,7.74,5.522
1933,0.777,36.652,55.559,47.288,28.208,5.727,7.699,5.522
1934,0.78,36.796,55.587,47.279,28.201,5.687,7.74,5.563
1935,0.787,36.902,55.548,47.298,28.204,5.687,7.699,5.482
1936,0.774,36.635,55.641,47.25,28.191,5.646,7.496,5.359
1937,0.771,36.69,55.498,47.24,28.197,5.564,7.575,5.399
1938,0.77,36.844,55.59,47.278,28.208,5.645,7.616,5.44
1939,0.774,36.97,55.634,47.279,28.201,5.686,7.576,5.521
1940,0.767,36.636,55.619,47.269,28.204,5.646,7.616,5.441
1941,0.761,36.767,55.65,47.279,28.194,5.727,7.535,5.44
1942,0.77,36.893,55.478,47.26,28.204,5.768,7.575,5.481
1943,0.761,36.99,55.598,47.269,28.198,5.687,7.616,5.44
1944,0.748,36.646,55.61,47.25,28.204,5.727,7.698,5.521
1945,0.754,36.795,55.548,47.279,28.215,5.85,7.74,5.603
1946,0.774,36.97,55.649,47.307,28.222,5.932,7.821,5.604
1947,0.761,37.038,55.595,47.298,28.212,5.811,7.781,5.564
1948,0.761,36.838,55.595,47.308,28.205,5.728,7.781,5.523
1949,0.774,36.951,55.493,47.269,28.204,5.687,7.822,5.482
1950,0.767,37.067,55.617,47.269,28.208,5.849,7.944,5.481
1951,0.77,37.116,55.626,47.298,28.204,5.81,8.026,5.562
1952,0.77,36.81,55.537,47.298,28.208,5.81,8.027,5.604
1953,0.783,36.941,55.571,47.298,28.204,5.81,8.19,5.523
1954,0.777,37.077,55.548,47.269,28.204,5.728,8.151,5.4
1955,0.774,37.087,55.571,47.26,28.194,5.646,8.11,5.48
1956,0.767,36.857,55.548,47.269,28.204,5.686,8.15,5.481
1957,0.777,37.028,55.579,47.279,28.204,5.768,8.191,5.522
1958,0.767,37.125,55.544,47.279,28.198,5.687,8.192,5.482
1959,0.761,36.954,55.555,47.269,28.201,5.646,8.192,5.522
1960,0.767,36.722,55.63,47.269,28.201,5.686,8.192,5.482
1961,0.761,36.863,55.576,47.24,28.197,5.646,8.232,5.562
1962,0.767,36.97,55.579,47.259,28.208,5.808,8.273,5.604
1963,0.764,36.837,55.583,47.307,28.215,5.81,8.355,5.645
1964,0.767,36.941,55.571,47.298,28.215,5.769,8.234,5.605
1965,0.764,37.057,55.61,47.279,28.201,5.728,8.233,5.482
1966,0.757,37.164,55.532,47.269,28.201,5.768,8.151,5.562
1967,0.757,36.829,55.621,47.279,28.208,5.768,8.15,5.563
1968,0.764,36.97,55.443,47.279,28.208,5.768,8.191,5.563
1969,0.77,37.115,55.562,47.298,28.208,5.809,8.192,5.563
1970,0.774,37.203,55.618,47.298,28.208,5.81,8.151,5.563
1971,0.767,36.734,55.548,47.279,28.204,5.769,8.069,5.482
1972,0.767,36.863,55.61,47.26,28.198,5.687,8.028,5.44
1973,0.757,36.98,55.486,47.269,28.201,5.727,7.946,5.481
1974,0.754,37.067,55.574,47.279,28.204,5.809,8.108,5.522
1975,0.761,36.608,55.524,47.288,28.201,5.728,8.028,5.522
1976,0.767,36.776,55.571,47.269,28.194,5.768,8.068,5.441
1977,0.764,36.893,55.606,47.25,28.204,5.768,7.987,5.359
1978,0.754,36.98,55.54,47.279,28.201,5.687,7.946,5.399
1979,0.761,36.789,55.583,47.26,28.201,5.768,7.945,5.399
1980,0.754,36.912,55.505,47.259,28.208,5.809,8.026,5.521
1981,0.761,37.057,55.625,47.269,28.211,5.891,8.027,5.603
1982,0.78,37.135,55.619,47.317,28.215,5.851,8.109,5.564
1983,0.771,36.733,55.572,47.289,28.208,5.81,7.987,5.441
1984,0.764,36.844,55.61,47.269,28.198,5.81,7.986,5.481
1985,0.767,36.98,55.501,47.279,28.201,5.81,7.986,5.44
1986,0.757,37.096,55.606,47.269,28.208,5.81,7.986,5.521
1987,0.757,36.752,55.568,47.269,28.204,5.728,8.068,5.563
1988,0.757,36.902,55.434,47.298,28.201,5.809,8.069,5.523
1989,0.77,37.038,55.558,47.279,28.201,5.85,8.15,5.563
1990,0.77,36.627,55.516,47.288,28.204,5.769,8.11,5.401
1991,0.761,36.651,55.578,47.279,28.194,5.687,8.028,5.358
1992,0.754,36.757,55.548,47.25,28.19,5.646,8.149,5.399
1993,0.767,36.893,55.536,47.279,28.204,5.727,8.15,5.399
1994,0.767,36.635,55.567,47.269,28.194,5.727,8.232,5.399
1995,0.767,36.767,55.501,47.279,28.201,5.687,8.192,5.44
1996,0.764,36.893,55.598,47.269,28.201,5.646,8.273,5.359
1997,0.764,36.999,55.509,47.26,28.191,5.605,8.193,5.399
1998,0.761,36.511,55.547,47.25,28.201,5.686,8.192,5.358
1999,0.764,36.66,55.493,47.259,28.204,5.727,8.192,5.48
2000,0.764,36.834,55.586,47.288,28.211,5.768,8.314,5.603
2001,0.777,36.912,55.595,47.298,28.215,5.809,8.234,5.482
2002,0.774,36.635,55.521,47.26,28.205,5.647,8.151,5.522
2003,0.761,36.776,55.539,47.279,28.208,5.686,8.15,5.482
2004,0.764,36.921,55.536,47.269,28.198,5.646,8.069,5.522
2005,0.774,36.98,55.559,47.279,28.208,5.727,8.109,5.482
2006,0.767,36.924,55.516,47.279,28.201,5.727,8.109,5.562
2007,0.767,37.067,55.551,47.279,28.211,5.727,7.947,5.482
2008,0.777,37.183,55.477,47.279,28.205,5.687,7.945,5.522
2009,0.777,37.242,55.527,47.26,28.194,5.687,7.783,5.36
2010,0.774,36.312,55.559,47.231,28.194,5.564,7.74,5.48
2011,0.774,36.437,55.524,47.24,28.194,5.685,7.821,5.481
2012,0.8,36.573,55.567,47.25,28.201,5.687,7.781,5.481
2013,0.8,36.622,55.497,47.259,28.201,5.687,7.74,5.562
2014,0.807,36.479,55.512,47.25,28.197,5.646,7.659,5.441
2015,0.81,36.621,55.551,47.259,28.194,5.605,7.617,5.399
2016,0.81,36.757,55.536,47.24,28.197,5.604,7.617,5.44
2017,0.823,36.375,55.532,47.25,28.197,5.726,7.657,5.481
2018,0.826,36.361,55.485,47.355,28.215,5.809,7.739,5.603
2019,0.839,36.534,55.562,47.299,28.218,5.81,7.699,5.523
2020,0.839,36.631,55.594,47.269,28.205,5.688,7.618,5.482
2021,0.839,36.373,55.544,47.25,28.204,5.605,7.617,5.522
2022,0.836,36.496,55.547,47.269,28.211,5.604,7.617,5.482
2023,0.843,36.65,55.458,47.269,28.198,5.686,7.698,5.481
2024,0.859,36.748,55.527,47.279,28.204,5.687,7.78,5.481
2025,0.853,36.231,55.555,47.269,28.211,5.687,7.822,5.603
2026,0.866,36.36,55.516,47.26,28.208,5.727,7.944,5.564
2027,0.859,36.515,55.567,47.259,28.204,5.687,7.905,5.401
2028,0.853,36.564,55.47,47.259,28.194,5.524,7.945,5.358
2029,0.843,36.267,55.539,47.221,28.201,5.644,8.148,5.48
2030,0.859,36.446,55.579,47.259,28.194,5.645,8.15,5.481
2031,0.882,36.583,55.54,47.24,28.201,5.645,8.273,5.44
2032,0.882,36.622,55.571,47.25,28.201,5.564,8.233,5.44
2033,0.885,36.114,55.489,47.25,28.197,5.523,8.273,5.44
2034,0.885,36.263,55.523,47.221,28.194,5.563,8.274,5.399
2035,0.892,36.408,55.469,47.249,28.194,5.523,8.314,5.399
2036,0.899,36.458,55.523,47.24,28.197,5.522,8.356,5.44
2037,0.915,36.237,55.508,47.259,28.211,5.685,8.478,5.562
2038,0.935,36.408,55.461,47.279,28.215,5.687,8.398,5.523
2039,0.945,36.525,55.535,47.25,28.201,5.524,8.316,5.482
2040,0.928,36.545,55.524,47.259,28.208,5.563,8.315,5.481
2041,0.938,36.114,55.555,47.25,28.201,5.604,8.356,5.4
2042,0.941,36.253,55.54,47.259,28.204,5.564,8.397,5.521
2043,0.951,36.389,55.473,47.259,28.208,5.645,8.275,5.482
2044,0.951,36.208,55.516,47.24,28.208,5.686,8.355,5.481
2045,0.951,36.11,55.446,47.25,28.211,5.646,8.315,5.481
2046,0.951,36.253,55.496,47.25,28.208,5.564,8.193,5.481
2047,0.938,36.341,55.516,47.221,28.194,5.523,8.232,5.4
2048,0.938,35.949,55.481,47.297,28.201,5.603,8.233,5.44
2049,0.938,36.06,55.535,47.241,28.197,5.604,8.273,5.481
2050,0.945,36.195,55.512,47.221,28.201,5.645,8.193,5.44
2051,0.938,36.302,55.598,47.23,28.197,5.605,8.314,5.44
2052,0.945,36.025,55.478,47.221,28.197,5.564,8.396,5.481
2053,0.948,36.147,55.5,47.221,28.194,5.645,8.641,5.481
2054,0.945,36.292,55.41,47.23,28.194,5.645,8.887,5.481
2055,0.945,36.408,55.48,47.25,28.211,5.808,9.256,5.644
2056,0.948,35.882,55.574,47.259,28.215,5.891,9.503,5.605
2057,0.938,36.04,55.438,47.231,28.205,5.689,9.628,5.482
2058,0.925,36.176,55.507,47.23,28.198,5.687,9.832,5.481
2059,0.922,36.235,55.469,47.221,28.204,5.646,10.078,5.522
2060,0.918,35.948,55.539,47.221,28.211,5.767,10.243,5.522
2061,0.918,36.079,55.571,47.23,28.205,5.768,10.408,5.482
2062,0.912,36.243,55.493,47.23,28.204,5.687,10.531,5.522
2063,0.912,36.312,55.52,47.24,28.208,5.727,10.614,5.482
2064,0.912,35.766,55.422,47.211,28.198,5.646,10.615,5.359
2065,0.895,35.904,55.488,47.192,28.194,5.564,10.615,5.399
2066,0.899,36.05,55.43,47.192,28.201,5.685,10.696,5.48
2067,0.892,36.099,55.488,47.23,28.201,5.646,10.697,5.44
2068,0.895,35.831,55.527,47.202,28.201,5.645,10.656,5.481
2069,0.876,35.991,55.504,47.201,28.197,5.564,10.615,5.481
2070,0.866,36.099,55.543,47.201,28.197,5.645,10.533,5.44
2071,0.853,36.071,55.497,47.182,28.194,5.483,10.41,5.44
2072,0.84,35.764,55.496,47.192,28.194,5.562,10.409,5.44
2073,0.846,35.933,55.434,47.22,28.201,5.645,10.369,5.603
2074,0.843,36.04,55.476,47.24,28.215,5.645,10.409,5.645
2075,0.836,35.783,55.441,47.259,28.215,5.605,10.206,5.523
2076,0.83,35.78,55.496,47.202,28.205,5.523,10.082,5.482
2077,0.82,35.914,55.52,47.201,28.204,5.522,9.999,5.481
2078,0.813,36.04,55.477,47.211,28.204,5.563,9.917,5.44
2079,0.807,35.591,55.531,47.211,28.204,5.563,9.876,5.521
2080,0.794,35.721,55.469,47.211,28.208,5.563,9.794,5.482
2081,0.793,35.856,55.515,47.221,28.208,5.563,9.671,5.481
2082,0.787,35.973,55.434,47.221,28.211,5.563,9.589,5.481
2083,0.78,35.696,55.468,47.182,28.198,5.482,9.303,5.359
2084,0.761,35.798,55.476,47.163,28.194,5.44,9.219,5.399
2085,0.754,35.953,55.414,47.182,28.197,5.481,9.259,5.521
2086,0.761,36.06,55.527,47.192,28.208,5.481,9.219,5.482
2087,0.761,35.591,55.43,47.192,28.201,5.4,9.056,5.481
2088,0.741,35.759,55.476,47.22,28.197,5.399,9.013,5.522
2089,0.738,35.895,55.422,47.192,28.197,5.399,8.932,5.441
2090,0.738,35.944,55.468,47.182,28.191,5.399,8.972,5.44
2091,0.738,35.59,55.515,47.172,28.194,5.358,8.931,5.44
2092,0.738,35.74,55.403,47.182,28.204,5.48,9.093,5.562
2093,0.747,35.904,55.499,47.23,28.222,5.603,9.136,5.645
2094,0.751,35.954,55.438,47.211,28.212,5.442,9.055,5.605
2095,0.748,35.532,55.464,47.192,28.198,5.359,9.054,5.523
2096,0.747,35.682,55.523,47.182,28.204,5.358,9.054,5.522
2097,0.741,35.817,55.45,47.192,28.204,5.399,9.013,5.482
2098,0.738,36.193,55.519,47.192,28.204,5.399,8.972,5.522
2099,0.725,35.573,55.426,47.192,28.208,5.399,9.094,5.563
2100,0.715,35.72,55.515,47.192,28.204,5.399,9.014,5.523
2101,0.711,35.827,55.52,47.192,28.201,5.399,9.094,5.563
2102,0.715,35.598,55.438,47.182,28.201,5.358,8.932,5.482
2103,0.698,35.615,55.437,47.134,28.194,5.277,8.931,5.44
2104,0.695,35.759,55.398,47.153,28.204,5.316,8.931,5.562
2105,0.701,35.895,55.476,47.162,28.201,5.317,8.931,5.523
2106,0.711,35.35,55.41,47.172,28.201,5.276,8.931,5.482
2107,0.705,35.44,55.499,47.182,28.201,5.316,8.768,5.522
2108,0.705,35.594,55.328,47.172,28.194,5.236,8.848,5.441
2109,0.698,35.692,55.475,47.163,28.19,5.235,8.686,5.481
2110,0.705,35.367,55.531,47.134,28.194,5.235,8.766,5.481
2111,0.708,35.526,55.52,47.153,28.208,5.275,8.807,5.562
2112,0.715,35.672,55.496,47.191,28.208,5.357,8.97,5.645
2113,0.724,35.808,55.449,47.201,28.211,5.317,8.85,5.483
2114,0.721,35.358,55.472,47.153,28.205,5.236,8.889,5.522
2115,0.708,35.517,55.383,47.182,28.201,5.316,8.89,5.603
2116,0.708,35.653,55.522,47.153,28.204,5.276,8.93,5.523
2117,0.708,35.712,55.434,47.162,28.208,5.316,8.972,5.563
2118,0.708,35.386,55.386,47.201,28.208,5.276,9.094,5.523
2119,0.705,35.555,55.409,47.163,28.201,5.316,9.095,5.522
2120,0.708,35.663,55.488,47.163,28.204,5.276,9.136,5.522
2121,0.708,35.731,55.535,47.153,28.194,5.235,9.095,5.441
2122,0.698,35.31,55.383,47.124,28.19,5.072,9.095,5.399
2123,0.692,35.468,55.472,47.133,28.197,5.233,9.258,5.44
2124,0.692,35.604,55.406,47.143,28.197,5.235,9.219,5.44
2125,0.695,35.654,55.429,47.143,28.201,5.235,9.3,5.481
2126,0.695,35.414,55.499,47.143,28.197,5.194,9.26,5.481
2127,0.695,35.565,55.422,47.143,28.194,5.194,9.219,5.481
2128,0.695,35.682,55.398,47.143,28.194,5.153,9.178,5.481
2129,0.698,35.434,55.382,47.124,28.194,5.153,9.218,5.481
2130,0.718,35.374,55.491,47.143,28.211,5.275,9.3,5.603
2131,0.711,35.527,55.523,47.162,28.215,5.316,9.341,5.604
2132,0.724,35.653,55.465,47.163,28.205,5.236,9.179,5.523
2133,0.721,35.318,55.465,47.143,28.204,5.113,9.177,5.522
2134,0.702,35.401,55.422,47.143,28.204,5.193,9.096,5.482
2135,0.711,35.556,55.445,47.143,28.204,5.234,9.095,5.522
2136,0.718,35.672,55.414,47.134,28.201,5.153,9.054,5.482
2137,0.711,35.184,55.464,47.124,28.208,5.193,9.013,5.522
2138,0.718,35.323,55.351,47.153,28.208,5.194,9.013,5.522
2139,0.721,35.478,55.389,47.143,28.201,5.234,9.013,5.482
2140,0.708,35.547,55.476,47.124,28.191,5.072,8.85,5.318
2141,0.698,35.154,55.375,47.076,28.194,5.03,8.808,5.439
2142,0.701,35.294,55.44,47.104,28.197,5.192,8.93,5.521
2143,0.701,35.449,55.359,47.114,28.204,5.112,8.809,5.4
2144,0.701,35.537,55.468,47.105,28.201,5.152,8.889,5.44
2145,0.698,35.221,55.48,47.124,28.204,5.153,8.809,5.399
2146,0.695,35.391,55.41,47.105,28.198,5.112,8.808,5.44
2147,0.698,35.508,55.476,47.114,28.194,5.03,8.848,5.399
2148,0.701,35.576,55.344,47.114,28.194,5.111,8.93,5.48
2149,0.701,35.193,55.444,47.133,28.208,5.152,9.053,5.562
2150,0.718,35.352,55.402,47.143,28.208,5.275,9.339,5.645
2151,0.715,35.536,55.484,47.143,28.215,5.235,9.301,5.523
2152,0.708,35.519,55.422,47.105,28.205,5.113,9.463,5.603
2153,0.708,35.25,55.417,47.133,28.204,5.193,9.587,5.564
2154,0.708,35.372,55.511,47.105,28.204,5.194,9.751,5.604
2155,0.711,35.498,55.383,47.114,28.211,5.194,9.874,5.564
