time,ecg,bvp,gsr,rsp,skt,emg_zygo,emg_coru,emg_trap
0,0.682,37.154,20.979,27.194,32.075,5.44,9.587,-67.573
1,0.685,37.242,20.971,27.223,32.078,5.562,9.873,-67.66
2,0.688,36.907,20.979,27.204,32.078,5.563,9.876,-67.783
3,0.672,37.057,20.967,27.194,32.078,5.523,9.835,-67.703
4,0.675,37.174,20.982,27.204,32.082,5.563,9.956,-67.458
5,0.678,37.251,20.983,27.204,32.085,5.523,9.998,-67.333
6,0.672,36.83,20.99,27.184,32.075,5.441,9.917,-67.414
7,0.665,36.97,20.967,27.175,32.068,5.44,9.876,-67.536
8,0.669,37.086,20.986,27.222,32.085,5.521,10.079,-67.375
9,0.672,37.145,20.967,27.185,32.082,5.482,10.162,-67.292
10,0.672,36.839,20.979,27.184,32.085,5.481,10.204,-66.844
11,0.672,36.989,20.983,27.203,32.089,5.522,10.285,-66.595
12,0.685,37.096,20.994,27.213,32.085,5.522,10.327,-66.512
13,0.675,37.097,20.975,27.185,32.075,5.482,10.286,-66.714
14,0.669,36.896,20.975,27.175,32.068,5.44,10.123,-66.879
15,0.669,37.057,20.986,27.194,32.085,5.521,10.325,-66.881
16,0.665,37.145,20.975,27.204,32.082,5.563,10.286,-66.921
17,0.659,37.5,20.998,27.194,32.082,5.563,10.327,-66.922
18,0.659,36.862,20.979,27.223,32.096,5.563,10.286,-66.962
19,0.675,36.989,20.99,27.223,32.085,5.523,10.245,-66.922
20,0.656,37.067,20.967,27.223,32.085,5.482,10.164,-67.491
21,0.659,36.79,20.971,27.185,32.068,5.359,9.96,-67.822
22,0.685,36.874,20.975,27.213,32.078,5.521,10.08,-67.784
23,0.679,36.98,20.998,27.204,32.082,5.441,10.121,-67.581
24,0.669,37.096,20.987,27.204,32.075,5.481,10.0,-67.457
25,0.675,36.733,21.01,27.204,32.085,5.562,10.121,-67.333
26,0.682,36.873,20.979,27.223,32.092,5.523,10.041,-67.292
27,0.672,36.98,20.994,27.194,32.085,5.482,9.918,-67.413
28,0.659,37.058,20.963,27.184,32.071,5.481,9.916,-67.536
29,0.665,36.675,20.986,27.203,32.085,5.562,9.916,-67.294
30,0.649,36.796,20.971,27.204,32.075,5.523,9.957,-66.885
31,0.655,36.931,20.994,27.194,32.082,5.482,9.957,-66.636
32,0.668,37.009,20.987,27.204,32.089,5.644,9.917,-66.471
33,0.665,36.713,20.987,27.232,32.082,5.645,9.876,-66.551
34,0.665,36.854,20.99,27.204,32.075,5.483,9.672,-66.877
35,0.646,36.951,20.971,27.194,32.064,5.481,9.629,-67.043
36,0.652,37.01,20.982,27.204,32.078,5.644,9.832,-66.923
37,0.636,36.761,20.979,27.204,32.075,5.645,9.672,-66.962
38,0.659,36.912,20.975,27.194,32.078,5.686,9.629,-66.922
39,0.669,37.009,20.975,27.223,32.085,5.727,9.588,-66.922
40,0.672,37.068,20.99,27.252,32.085,5.727,9.507,-67.45
41,0.662,36.694,20.963,27.204,32.075,5.687,9.465,-67.74
42,0.662,36.815,20.971,27.194,32.071,5.646,9.343,-67.865
43,0.665,36.931,20.971,27.204,32.089,5.767,9.342,-67.582
44,0.665,36.75,20.967,27.204,32.075,5.687,9.26,-67.457
45,0.665,36.681,20.971,27.204,32.075,5.768,9.178,-67.374
46,0.662,36.815,20.982,27.213,32.085,5.809,9.137,-67.333
47,0.662,36.922,20.994,27.232,32.092,5.769,9.136,-67.373
48,0.659,36.731,20.967,27.204,32.078,5.687,8.974,-67.373
49,0.649,36.873,20.975,27.213,32.075,5.727,8.891,-67.373
50,0.659,36.999,20.967,27.204,32.078,5.809,8.971,-66.926
51,0.659,37.058,20.971,27.194,32.068,5.728,8.809,-66.637
52,0.659,36.579,20.971,27.194,32.082,5.809,8.848,-66.431
53,0.669,36.737,20.99,27.213,32.085,5.85,8.849,-66.591
54,0.672,36.883,21.006,27.242,32.092,5.973,8.93,-66.756
55,0.656,36.903,20.991,27.214,32.082,5.811,8.768,-66.961
56,0.652,36.731,20.971,27.204,32.075,5.85,8.807,-67.003
57,0.642,36.835,20.982,27.213,32.085,5.891,8.848,-66.963
58,0.655,36.97,20.963,27.194,32.075,5.851,8.727,-66.963
59,0.659,37.019,20.978,27.204,32.085,5.932,8.766,-66.963
60,0.652,36.675,20.983,27.242,32.078,6.014,8.807,-67.41
61,0.675,36.825,20.979,27.242,32.092,6.096,8.889,-67.496
62,0.662,36.903,20.963,27.204,32.082,5.853,8.687,-67.863
63,0.656,36.961,20.978,27.232,32.078,5.891,8.766,-67.704
64,0.639,36.741,20.975,27.223,32.078,5.851,8.604,-67.417
65,0.652,36.835,20.983,27.204,32.071,5.81,8.562,-67.414
66,0.639,36.941,20.947,27.204,32.071,5.81,8.561,-67.374
67,0.655,37.23,20.974,27.213,32.078,5.85,8.561,-67.333
68,0.662,36.763,20.975,27.242,32.092,5.932,8.561,-67.21
69,0.656,36.883,20.986,27.214,32.075,5.811,8.439,-67.412
70,0.659,36.98,20.979,27.242,32.082,5.891,8.479,-66.723
71,0.646,36.78,20.979,27.214,32.078,5.933,8.438,-66.594
72,0.642,36.835,20.955,27.213,32.075,5.852,8.316,-66.552
73,0.639,36.941,20.963,27.165,32.071,5.769,8.274,-66.674
74,0.652,37.067,20.963,27.213,32.092,5.931,8.314,-66.878
75,0.655,36.656,20.971,27.232,32.092,6.055,8.437,-66.921
76,0.646,36.767,20.967,27.213,32.089,5.893,8.275,-67.003
77,0.655,36.902,20.979,27.232,32.085,5.973,8.396,-66.882
78,0.655,36.98,20.983,27.223,32.082,5.852,8.356,-66.881
79,0.642,36.655,20.979,27.185,32.082,5.769,8.437,-67.003
80,0.636,36.776,20.94,27.194,32.071,5.728,8.357,-67.451
81,0.659,36.931,20.978,27.223,32.082,5.89,8.6,-67.7
82,0.652,37.009,20.983,27.252,32.099,5.933,8.765,-67.702
83,0.655,36.78,20.979,27.233,32.082,5.852,8.767,-67.621
84,0.659,36.95,20.975,27.233,32.089,5.851,8.889,-67.376
85,0.643,37.029,20.979,27.223,32.085,5.81,9.012,-67.333
86,0.639,37.058,20.955,27.223,32.078,5.728,8.972,-67.373
87,0.626,36.617,20.951,27.185,32.075,5.768,9.013,-67.455
88,0.636,36.805,20.982,27.242,32.085,5.809,9.176,-67.333
89,0.629,36.903,20.986,27.233,32.092,5.891,9.34,-67.292
90,0.629,36.904,20.979,27.204,32.085,5.77,9.138,-66.803
91,0.629,36.894,20.971,27.223,32.085,5.85,9.339,-66.636
92,0.639,37.009,20.979,27.194,32.085,5.81,9.26,-66.471
93,0.629,37.116,20.967,27.213,32.082,5.81,9.219,-66.714
94,0.626,36.848,20.94,27.185,32.068,5.688,9.259,-66.919
95,0.639,36.788,20.974,27.223,32.085,5.809,9.381,-66.881
96,0.642,36.922,20.983,27.252,32.096,5.85,9.382,-66.881
97,0.633,37.019,20.959,27.233,32.085,5.688,9.301,-66.962
98,0.642,36.742,20.978,27.242,32.089,5.849,9.301,-66.963
99,0.639,36.854,20.975,27.214,32.082,5.81,9.341,-67.003
100,0.642,36.941,20.975,27.223,32.078,5.688,9.179,-67.573
101,0.649,37.029,20.955,27.204,32.071,5.687,9.177,-67.741
102,0.649,36.79,20.978,27.242,32.089,5.809,9.259,-67.784
103,0.649,36.931,20.986,27.261,32.092,5.85,9.381,-67.499
104,0.642,37.048,20.971,27.214,32.089,5.769,9.22,-67.415
105,0.642,37.097,20.975,27.232,32.085,5.728,9.218,-67.292
106,0.642,36.81,20.959,27.233,32.082,5.768,9.259,-67.413
107,0.629,36.931,20.978,27.204,32.078,5.647,9.137,-67.455
108,0.626,37.019,20.951,27.204,32.071,5.645,9.014,-67.374
109,0.636,37.106,20.978,27.242,32.085,5.808,9.135,-67.292
110,0.636,36.896,20.947,27.242,32.092,5.769,9.177,-66.803
111,0.626,36.99,20.974,27.214,32.082,5.728,9.055,-66.676
112,0.636,37.135,20.971,27.223,32.096,5.727,9.013,-66.431
113,0.623,37.136,20.975,27.213,32.085,5.727,8.972,-66.632
114,0.623,36.848,20.955,27.204,32.082,5.646,8.931,-66.959
115,0.629,36.961,20.971,27.204,32.071,5.564,8.728,-67.003
116,0.632,37.106,20.975,27.232,32.092,5.685,8.766,-66.922
117,0.616,37.184,20.971,27.233,32.085,5.768,8.807,-66.922
118,0.626,36.906,20.967,27.233,32.082,5.647,8.726,-67.003
119,0.636,37.076,20.982,27.233,32.092,5.686,8.685,-66.922
120,0.639,37.174,20.963,27.252,32.082,5.727,8.603,-67.491
121,0.629,36.83,20.982,27.214,32.082,5.605,8.562,-67.741
122,0.632,36.912,20.963,27.213,32.075,5.564,8.521,-67.987
123,0.632,37.047,20.967,27.242,32.078,5.645,8.683,-67.664
124,0.623,37.116,20.951,27.204,32.082,5.645,8.644,-67.539
125,0.629,36.752,20.963,27.223,32.082,5.686,8.725,-67.416
126,0.632,36.883,20.963,27.233,32.089,5.809,8.766,-67.333
127,0.632,37.028,20.975,27.252,32.085,5.728,8.767,-67.414
128,0.629,37.068,20.967,27.223,32.078,5.605,8.685,-67.374
129,0.623,36.819,20.979,27.204,32.071,5.645,8.684,-67.455
130,0.619,36.979,20.975,27.242,32.089,5.727,8.807,-66.846
131,0.619,37.077,20.967,27.204,32.082,5.646,8.808,-66.595
132,0.632,37.145,20.975,27.223,32.089,5.686,8.889,-66.471
133,0.636,36.772,20.955,27.242,32.085,5.727,8.93,-66.632
134,0.639,36.941,20.971,27.242,32.092,5.768,8.972,-66.878
135,0.633,37.019,20.979,27.214,32.089,5.606,8.85,-66.962
136,0.623,37.049,20.975,27.223,32.078,5.523,8.889,-67.125
137,0.629,36.8,20.951,27.223,32.085,5.725,9.052,-66.964
138,0.623,36.922,20.974,27.233,32.082,5.605,9.054,-66.963
139,0.629,37.028,20.971,27.242,32.078,5.686,9.054,-66.963
140,0.629,37.068,20.975,27.242,32.089,5.727,9.054,-67.451
141,0.636,36.809,20.979,27.261,32.092,5.687,9.135,-67.618
142,0.629,36.893,20.967,27.243,32.075,5.524,9.014,-67.864
143,0.642,36.98,20.959,27.223,32.071,5.522,8.932,-67.866
144,0.629,36.789,20.971,27.242,32.085,5.644,9.093,-67.5
145,0.629,36.749,20.967,27.223,32.082,5.564,9.014,-67.456
146,0.629,36.873,20.967,27.233,32.075,5.604,9.013,-67.333
147,0.632,36.98,20.959,27.233,32.078,5.645,9.054,-67.373
148,0.636,36.665,20.994,27.242,32.085,5.645,9.095,-67.373
149,0.633,36.786,20.967,27.223,32.075,5.523,9.014,-67.373
150,0.626,36.883,20.951,27.204,32.071,5.522,9.013,-67.007
151,0.619,36.98,20.982,27.223,32.085,5.644,9.257,-66.679
152,0.626,36.674,20.967,27.213,32.085,5.483,9.259,-66.513
153,0.636,36.815,20.967,27.242,32.085,5.522,9.3,-66.633
154,0.646,36.96,20.963,27.252,32.085,5.603,9.504,-66.878
155,0.652,37.048,20.971,27.281,32.089,5.686,9.628,-66.84
156,0.646,36.608,20.967,27.233,32.082,5.483,9.629,-67.043
157,0.649,36.766,20.955,27.233,32.085,5.481,9.588,-67.045
158,0.652,36.873,20.971,27.242,32.085,5.562,9.751,-67.004
159,0.659,36.894,20.967,27.223,32.078,5.482,9.833,-67.004
160,0.682,36.654,20.967,27.252,32.085,5.562,9.753,-67.492
161,0.682,36.796,20.979,27.242,32.089,5.523,9.833,-67.659
162,0.701,36.941,20.99,27.281,32.099,5.563,9.956,-67.702
163,0.701,36.914,20.971,27.233,32.079,5.441,9.795,-67.702
164,0.714,36.587,20.971,27.242,32.075,5.521,9.834,-67.458
165,0.711,36.718,20.967,27.261,32.085,5.563,9.794,-67.374
166,0.724,36.806,20.971,27.223,32.085,5.482,9.753,-67.414
167,0.731,36.826,20.963,27.233,32.085,5.44,9.752,-67.333
168,0.744,36.692,20.975,27.252,32.085,5.521,9.712,-67.292
169,0.747,36.834,20.998,27.271,32.099,5.644,9.752,-67.251
170,0.734,36.884,20.967,27.233,32.089,5.442,9.549,-66.966
171,0.744,36.462,20.959,27.242,32.089,5.521,9.506,-66.637
172,0.744,36.544,20.967,27.223,32.085,5.522,9.425,-66.471
173,0.747,36.66,20.947,27.233,32.075,5.441,9.424,-66.754
174,0.747,36.729,20.971,27.213,32.075,5.521,9.342,-66.92
175,0.751,36.499,20.959,27.252,32.092,5.522,9.301,-66.962
176,0.748,36.641,20.99,27.262,32.096,5.603,9.341,-66.881
177,0.721,36.728,20.959,27.223,32.079,5.442,9.138,-67.003
178,0.721,36.796,20.963,27.233,32.085,5.521,9.217,-67.004
179,0.705,36.461,20.963,27.233,32.089,5.4,9.3,-66.963
180,0.692,36.583,20.963,27.233,32.078,5.358,9.219,-67.613
181,0.695,36.689,20.963,27.242,32.078,5.48,9.34,-67.66
182,0.708,36.786,20.978,27.252,32.085,5.481,9.464,-67.823
183,0.715,36.5,20.983,27.281,32.092,5.562,9.709,-67.54
184,0.705,36.593,20.971,27.243,32.078,5.401,9.67,-67.416
185,0.718,36.718,20.979,27.261,32.085,5.399,9.914,-67.374
186,0.724,36.748,20.959,27.243,32.078,5.44,9.916,-67.373
187,0.728,36.442,20.959,27.223,32.078,5.318,9.998,-67.373
188,0.725,36.573,20.955,27.233,32.075,5.317,10.08,-67.414
189,0.734,36.689,20.959,27.271,32.085,5.398,10.203,-67.414
190,0.747,36.738,20.971,27.271,32.099,5.521,10.326,-66.723
191,0.747,36.442,20.959,27.233,32.079,5.4,10.246,-66.676
192,0.741,36.563,20.975,27.242,32.089,5.44,10.286,-66.513
193,0.747,36.651,20.975,27.252,32.078,5.44,10.327,-66.633
194,0.734,36.441,20.971,27.223,32.071,5.318,10.205,-66.878
195,0.715,36.458,20.959,27.213,32.078,5.358,10.285,-66.962
196,0.728,36.611,20.959,27.252,32.085,5.399,10.327,-67.003
197,0.718,36.718,20.971,27.262,32.096,5.48,10.408,-66.841
198,0.718,36.346,20.959,27.243,32.079,5.359,10.206,-67.002
199,0.741,36.495,20.967,27.252,32.085,5.48,10.285,-67.004
200,0.744,36.602,20.979,27.242,32.078,5.359,10.327,-67.451
201,0.741,36.68,20.963,27.242,32.078,5.399,10.205,-67.781
202,0.731,36.182,20.967,27.252,32.082,5.44,10.204,-67.865
203,0.741,36.359,20.963,27.262,32.085,5.481,10.204,-67.663
204,0.747,36.495,20.978,27.271,32.099,5.603,10.245,-67.336
205,0.728,36.535,20.959,27.223,32.079,5.401,10.082,-67.454
206,0.721,36.372,20.978,27.242,32.085,5.521,10.162,-67.415
207,0.711,36.486,20.971,27.242,32.089,5.4,10.082,-67.374
208,0.695,36.593,20.963,27.242,32.078,5.399,9.918,-67.455
209,0.695,36.613,20.955,27.242,32.078,5.358,9.957,-67.456
210,0.698,36.172,20.963,27.242,32.089,5.521,9.917,-66.805
211,0.695,36.34,20.986,27.281,32.092,5.603,9.916,-66.554
212,0.685,36.419,20.947,27.243,32.078,5.36,9.672,-66.511
213,0.685,36.458,20.971,27.242,32.085,5.48,9.711,-66.592
214,0.685,36.324,20.967,27.242,32.085,5.481,9.508,-66.878
215,0.679,36.437,20.975,27.242,32.075,5.44,9.546,-67.003
216,0.675,36.525,20.971,27.214,32.075,5.318,9.506,-67.044
217,0.698,36.411,20.967,27.242,32.089,5.48,9.628,-66.964
218,0.698,36.208,20.979,27.261,32.099,5.644,9.751,-66.922
219,0.682,36.312,20.963,27.243,32.085,5.401,9.59,-67.044
220,0.675,36.418,20.959,27.252,32.089,5.48,9.791,-67.451
221,0.675,36.132,20.955,27.262,32.078,5.44,9.793,-67.74
222,0.678,36.234,20.963,27.233,32.078,5.399,9.793,-67.946
223,0.662,36.341,20.947,27.223,32.078,5.399,9.834,-67.786
224,0.669,36.486,20.971,27.252,32.085,5.44,9.997,-67.499
225,0.672,36.065,20.963,27.242,32.096,5.603,10.161,-67.293
226,0.656,36.186,20.967,27.252,32.079,5.442,10.0,-67.372
227,0.646,36.321,20.959,27.271,32.092,5.481,10.039,-67.373
228,0.642,36.39,20.959,27.262,32.085,5.359,10.08,-67.373
229,0.62,36.103,20.967,27.243,32.078,5.439,9.999,-67.414
230,0.616,36.234,20.943,27.214,32.071,5.359,9.999,-67.008
231,0.626,36.379,20.974,27.252,32.089,5.48,10.121,-66.679
232,0.619,36.438,20.971,27.252,32.089,5.481,10.203,-66.431
233,0.61,36.132,20.971,27.242,32.082,5.4,10.082,-66.754
234,0.609,36.282,20.967,27.271,32.078,5.48,10.121,-66.798
235,0.613,36.38,20.971,27.262,32.082,5.481,9.959,-66.92
236,0.597,36.4,20.959,27.243,32.078,5.4,9.917,-67.084
237,0.587,36.055,20.943,27.223,32.071,5.277,9.794,-67.086
238,0.586,36.233,20.967,27.233,32.082,5.479,9.793,-66.964
239,0.59,36.331,20.955,27.242,32.082,5.4,9.834,-67.003
240,0.58,36.62,20.947,27.242,32.078,5.399,9.712,-67.532
241,0.59,36.067,20.951,27.261,32.085,5.399,9.792,-67.619
242,0.59,36.186,20.947,27.252,32.085,5.44,9.671,-67.782
243,0.58,36.254,20.963,27.242,32.078,5.399,9.589,-67.784
244,0.57,36.072,20.936,27.233,32.064,5.277,9.466,-67.621
245,0.58,36.147,20.959,27.261,32.089,5.357,9.627,-67.335
246,0.573,36.282,20.971,27.271,32.089,5.48,9.588,-67.373
247,0.57,36.36,20.947,27.243,32.075,5.4,9.507,-67.414
248,0.573,35.853,20.967,27.261,32.089,5.399,9.546,-67.292
249,0.573,35.953,20.947,27.262,32.085,5.399,9.466,-67.454
250,0.57,36.098,20.951,27.243,32.078,5.277,9.343,-66.927
251,0.564,36.148,20.947,27.214,32.071,5.235,9.301,-66.8
252,0.564,35.956,20.959,27.271,32.078,5.357,9.382,-66.554
253,0.573,36.117,20.959,27.252,32.085,5.358,9.382,-66.633
254,0.57,36.224,20.975,27.252,32.082,5.358,9.22,-66.878
255,0.573,36.312,20.959,27.262,32.092,5.439,9.34,-66.962
256,0.573,35.92,20.959,27.233,32.082,5.359,9.26,-67.003
257,0.564,36.04,20.959,27.242,32.075,5.236,9.056,-67.044
258,0.56,36.137,20.939,27.223,32.068,5.275,9.013,-67.126
259,0.576,36.244,20.959,27.252,32.089,5.357,9.176,-67.005
260,0.57,35.89,20.955,27.271,32.085,5.439,9.096,-67.41
261,0.59,36.011,20.967,27.262,32.085,5.318,9.014,-67.78
262,0.587,36.147,20.967,27.271,32.085,5.398,9.054,-67.825
263,0.577,36.148,20.971,27.262,32.085,5.358,9.054,-67.662
264,0.564,35.784,20.94,27.243,32.075,5.277,8.932,-67.62
265,0.56,35.885,20.939,27.233,32.068,5.195,8.85,-67.579
266,0.567,36.011,20.967,27.242,32.085,5.356,9.011,-67.416
267,0.56,36.003,20.94,27.252,32.078,5.358,8.932,-67.414
268,0.55,35.964,20.947,27.252,32.082,5.317,8.931,-67.496
269,0.57,36.137,20.959,27.281,32.085,5.48,8.85,-67.374
270,0.57,36.215,20.955,27.262,32.085,5.44,8.808,-66.845
271,0.56,35.746,20.951,27.233,32.085,5.318,8.726,-66.799
272,0.56,35.856,20.955,27.242,32.068,5.317,8.563,-66.676
273,0.567,35.992,20.955,27.271,32.082,5.398,8.643,-66.553
274,0.564,36.051,20.947,27.252,32.078,5.44,8.603,-66.877
275,0.564,35.725,20.967,27.262,32.085,5.44,8.602,-66.962
276,0.567,35.875,20.959,27.262,32.085,5.44,8.684,-66.963
277,0.567,36.011,20.971,27.271,32.089,5.521,8.644,-66.922
278,0.56,36.051,20.94,27.243,32.075,5.4,8.603,-67.084
279,0.57,35.811,20.943,27.242,32.075,5.318,8.602,-67.127
280,0.57,35.962,20.963,27.281,32.085,5.48,8.927,-67.533
281,0.564,36.079,20.967,27.262,32.078,5.481,9.012,-67.66
282,0.577,36.167,20.947,27.252,32.089,5.481,9.176,-67.823
283,0.573,35.659,20.959,27.271,32.085,5.481,9.38,-67.662
284,0.573,35.827,20.955,27.262,32.085,5.44,9.464,-67.417
285,0.564,35.924,20.932,27.233,32.075,5.399,9.587,-67.496
286,0.564,35.925,20.943,27.233,32.075,5.358,9.71,-67.537
287,0.577,35.829,20.955,27.252,32.085,5.439,9.874,-67.334
288,0.573,35.953,20.959,27.262,32.075,5.44,9.997,-67.373
289,0.57,36.06,20.939,27.252,32.078,5.359,10.08,-67.414
290,0.58,36.396,20.967,27.262,32.089,5.521,10.162,-66.886
291,0.58,35.767,20.959,27.252,32.078,5.482,10.244,-66.677
292,0.57,35.866,20.943,27.242,32.078,5.359,10.245,-66.594
293,0.577,35.953,20.931,27.242,32.071,5.317,10.204,-66.837
294,0.586,35.686,20.939,27.261,32.085,5.52,10.326,-66.921
295,0.583,35.721,20.924,27.271,32.085,5.4,10.286,-67.044
296,0.583,35.856,20.947,27.252,32.078,5.44,10.327,-67.085
297,0.583,35.953,20.947,27.262,32.085,5.44,10.286,-66.964
298,0.593,35.638,20.939,27.271,32.078,5.481,10.164,-67.044
299,0.583,35.75,20.955,27.262,32.075,5.4,10.244,-67.085
300,0.573,35.856,20.939,27.243,32.075,5.318,10.123,-67.614
301,0.593,35.982,20.939,27.261,32.082,5.52,10.366,-67.701
302,0.593,35.648,20.951,27.262,32.078,5.522,10.49,-67.783
303,0.6,35.769,20.959,27.271,32.085,5.441,10.369,-67.743
304,0.606,35.924,20.955,27.271,32.085,5.481,10.571,-67.458
305,0.596,35.992,20.955,27.262,32.078,5.481,10.614,-67.415
306,0.583,35.571,20.939,27.233,32.068,5.4,10.737,-67.414
307,0.58,35.692,20.935,27.233,32.075,5.318,10.779,-67.496
308,0.583,35.827,20.955,27.252,32.078,5.561,11.064,-67.415
309,0.583,35.876,20.967,27.262,32.082,5.563,11.148,-67.292
310,0.567,35.532,20.955,27.252,32.082,5.482,11.026,-66.925
311,0.573,35.682,20.959,27.271,32.085,5.522,11.147,-66.718
312,0.57,35.789,20.963,27.243,32.089,5.482,11.149,-66.513
313,0.56,35.79,20.932,27.223,32.075,5.44,11.108,-66.714
314,0.554,35.627,20.959,27.233,32.075,5.399,10.985,-66.96
315,0.57,35.788,20.955,27.261,32.085,5.48,11.106,-66.963
316,0.58,35.895,20.955,27.271,32.092,5.644,11.148,-66.922
317,0.593,35.714,20.955,27.262,32.085,5.523,10.864,-67.084
318,0.619,35.635,20.939,27.271,32.089,5.563,10.902,-66.964
319,0.632,35.779,20.947,27.252,32.078,5.563,10.739,-66.963
320,0.655,35.818,20.947,27.262,32.071,5.482,10.616,-67.532
321,0.688,35.521,20.931,27.233,32.071,5.44,10.411,-67.822
322,0.714,35.681,20.943,27.281,32.082,5.562,10.491,-67.825
323,0.731,35.798,20.963,27.271,32.089,5.604,10.491,-67.622
324,0.754,35.886,20.955,27.271,32.085,5.523,10.288,-67.538
325,0.777,35.551,20.939,27.281,32.085,5.603,10.245,-67.375
326,0.797,35.691,20.935,27.262,32.085,5.523,10.164,-67.373
327,0.833,35.798,20.931,27.243,32.078,5.522,10.122,-67.455
328,0.862,35.847,20.947,27.242,32.068,5.441,10.0,-67.496
329,0.924,35.455,20.967,27.281,32.078,5.643,10.161,-67.415
330,0.983,35.585,20.967,27.252,32.089,5.645,10.163,-66.805
331,1.023,35.701,20.963,27.262,32.085,5.564,10.082,-66.758
332,1.079,35.779,20.967,27.252,32.085,5.604,10.162,-66.473
333,1.122,35.425,20.955,27.262,32.082,5.564,10.0,-66.632
334,1.168,35.565,20.932,27.243,32.075,5.563,9.958,-66.959
335,1.22,35.672,20.935,27.242,32.071,5.482,9.835,-67.044
336,1.276,35.741,20.943,27.252,32.089,5.562,9.916,-66.964
337,1.319,35.617,20.939,27.29,32.099,5.645,9.957,-66.841
338,1.326,35.73,20.955,27.262,32.079,5.483,9.714,-67.002
339,1.348,35.856,20.951,27.262,32.085,5.684,9.792,-66.963
340,1.345,36.02,20.951,27.271,32.089,5.564,9.753,-67.451
341,1.355,35.514,20.935,27.243,32.085,5.482,9.671,-67.74
342,1.398,35.633,20.924,27.252,32.075,5.481,9.711,-67.865
343,1.421,35.75,20.939,27.271,32.082,5.603,9.711,-67.622
344,1.463,35.492,20.955,27.31,32.096,5.645,9.752,-67.376
345,1.477,35.528,20.943,27.253,32.082,5.483,9.508,-67.414
346,1.529,35.643,20.955,27.281,32.089,5.562,9.506,-67.414
347,1.549,35.74,20.955,27.262,32.078,5.523,9.587,-67.414
348,1.575,35.444,20.939,27.243,32.071,5.482,9.466,-67.414
349,1.598,35.556,20.939,27.242,32.071,5.522,9.383,-67.414
350,1.637,35.72,20.951,27.261,32.085,5.563,9.382,-66.926
351,1.68,35.818,20.951,27.271,32.092,5.685,9.505,-66.596
352,1.668,35.464,20.947,27.252,32.078,5.524,9.262,-66.512
353,1.661,35.604,20.947,27.271,32.078,5.563,9.3,-66.592
354,1.563,35.721,20.963,27.262,32.075,5.482,9.26,-66.837
355,1.484,35.76,20.939,27.233,32.071,5.562,9.178,-66.962
356,1.409,35.396,20.916,27.223,32.068,5.482,9.137,-67.044
357,1.353,35.565,20.951,27.242,32.085,5.562,9.177,-67.004
358,1.3,35.701,20.928,27.271,32.092,5.645,9.259,-66.882
359,1.231,35.722,20.935,27.262,32.078,5.442,9.137,-66.962
360,1.156,35.358,20.947,27.271,32.085,5.562,9.136,-67.451
361,1.031,35.478,20.935,27.271,32.075,5.563,9.095,-67.7
362,0.926,35.566,20.947,27.262,32.075,5.645,9.095,-67.905
363,0.811,35.586,20.931,27.243,32.075,5.483,9.095,-67.826
364,0.738,35.481,20.951,27.271,32.082,5.603,9.136,-67.5
365,0.679,35.633,20.947,27.291,32.089,5.645,9.217,-67.293
366,0.626,35.74,20.943,27.262,32.075,5.564,9.056,-67.372
367,0.561,35.511,20.939,27.252,32.078,5.604,9.054,-67.373
368,0.534,35.413,20.939,27.262,32.078,5.645,9.013,-67.414
369,0.521,35.546,20.92,27.252,32.078,5.523,8.972,-67.536
370,0.505,35.615,20.916,27.233,32.071,5.563,8.931,-66.968
371,0.498,35.28,20.939,27.261,32.089,5.645,9.053,-66.759
372,0.472,35.391,20.939,27.252,32.092,5.727,9.095,-66.391
373,0.449,35.498,20.939,27.252,32.085,5.605,9.014,-66.632
374,0.439,35.605,20.943,27.281,32.085,5.645,9.135,-66.919
375,0.429,35.433,20.943,27.281,32.085,5.645,9.055,-66.922
376,0.413,35.566,20.931,27.233,32.071,5.645,8.932,-67.084
377,0.419,35.682,20.931,27.223,32.064,5.523,8.931,-67.127
378,0.432,35.769,20.943,27.261,32.082,5.644,9.053,-66.964
379,0.435,35.358,20.943,27.281,32.085,5.767,9.095,-66.963
380,0.448,35.517,20.928,27.252,32.075,5.647,8.932,-67.451
381,0.468,35.634,20.939,27.29,32.085,5.727,8.972,-67.7
382,0.484,35.711,20.939,27.262,32.075,5.646,8.931,-67.824
383,0.488,35.29,20.943,27.233,32.075,5.605,8.931,-67.784
384,0.504,35.392,20.935,27.223,32.071,5.482,8.89,-67.54
385,0.524,35.546,20.924,27.261,32.085,5.684,8.971,-67.456
386,0.537,35.576,20.943,27.271,32.085,5.727,8.931,-67.374
387,0.547,35.509,20.943,27.252,32.078,5.646,8.931,-67.455
388,0.563,35.643,20.955,27.271,32.085,5.645,8.85,-67.456
389,0.57,35.74,20.939,27.271,32.082,5.727,8.808,-67.333
390,0.573,35.741,20.943,27.233,32.075,5.605,8.726,-66.966
391,0.58,35.377,20.924,27.233,32.068,5.564,8.644,-66.841
392,0.606,35.527,20.943,27.271,32.085,5.685,8.684,-66.514
393,0.609,35.624,20.935,27.271,32.085,5.768,8.766,-66.592
394,0.619,35.309,20.951,27.262,32.078,5.606,8.523,-66.878
395,0.642,35.401,20.947,27.271,32.089,5.726,8.561,-67.003
396,0.646,35.527,20.935,27.243,32.078,5.687,8.439,-67.044
397,0.649,35.624,20.939,27.252,32.075,5.646,8.357,-67.126
398,0.633,35.27,20.92,27.233,32.068,5.523,8.275,-67.086
399,0.652,35.43,20.943,27.281,32.078,5.644,8.274,-67.005
400,0.649,35.566,20.947,27.281,32.085,5.727,8.396,-67.451
401,0.646,35.634,20.935,27.262,32.082,5.687,8.234,-67.74
402,0.652,35.251,20.931,27.281,32.092,5.809,8.314,-67.743
403,0.639,35.391,20.931,27.262,32.085,5.688,8.193,-67.743
404,0.649,35.488,20.916,27.243,32.071,5.646,8.151,-67.58
405,0.639,35.537,20.935,27.233,32.068,5.605,8.11,-67.497
406,0.639,35.317,20.951,27.261,32.085,5.686,8.313,-67.293
407,0.649,35.469,20.939,27.271,32.092,5.727,8.477,-67.291
408,0.649,35.585,20.924,27.252,32.078,5.565,8.438,-67.494
409,0.636,35.615,20.931,27.252,32.082,5.645,8.641,-67.374
410,0.642,35.328,20.943,27.252,32.078,5.686,8.644,-66.967
411,0.642,35.469,20.939,27.233,32.075,5.605,8.644,-66.8
412,0.623,35.556,20.939,27.233,32.075,5.482,8.765,-66.636
413,0.636,35.605,20.939,27.271,32.082,5.725,8.929,-66.675
414,0.646,35.404,20.931,27.281,32.092,5.687,9.093,-66.756
415,0.639,35.498,20.931,27.262,32.078,5.564,9.014,-67.042
416,0.655,35.633,20.947,27.252,32.089,5.685,9.176,-66.964
417,0.649,35.395,20.931,27.242,32.085,5.605,9.218,-66.963
418,0.636,35.373,20.924,27.242,32.071,5.564,9.178,-67.085
419,0.626,35.46,20.92,27.242,32.071,5.563,9.137,-67.086
420,0.649,35.604,20.927,27.261,32.082,5.685,9.299,-67.492
421,0.646,35.241,20.935,27.281,32.085,5.768,9.463,-67.578
422,0.642,35.343,20.924,27.243,32.075,5.525,9.343,-67.904
423,0.646,35.498,20.951,27.281,32.085,5.644,9.464,-67.704
424,0.639,35.576,20.928,27.252,32.078,5.686,9.383,-67.499
425,0.642,35.231,20.935,27.242,32.075,5.564,9.342,-67.537
426,0.639,35.353,20.935,27.223,32.068,5.523,9.301,-67.497
427,0.646,35.517,20.935,27.261,32.078,5.685,9.423,-67.415
428,0.652,35.566,20.939,27.262,32.085,5.646,9.383,-67.374
429,0.642,35.222,20.939,27.252,32.075,5.605,9.301,-67.495
430,0.652,35.362,20.943,27.242,32.078,5.645,9.341,-66.805
431,0.655,35.507,20.931,27.261,32.071,5.645,9.301,-66.758
432,0.649,35.547,20.916,27.233,32.075,5.564,9.178,-66.676
433,0.642,35.222,20.931,27.223,32.071,5.441,9.055,-66.838
434,0.659,35.381,20.943,27.252,32.082,5.643,9.217,-66.88
435,0.649,35.479,20.931,27.262,32.078,5.605,9.137,-66.962
436,0.655,35.518,20.947,27.262,32.078,5.604,9.095,-67.044
437,0.662,35.355,20.943,27.281,32.078,5.604,9.217,-67.004
438,0.665,35.507,20.931,27.271,32.082,5.604,9.137,-67.004
439,0.649,35.566,20.939,27.252,32.078,5.564,9.217,-67.085
440,0.655,35.529,20.916,27.262,32.064,5.441,9.096,-67.533
441,0.668,35.288,20.927,27.262,32.082,5.603,9.298,-67.741
442,0.656,35.411,20.943,27.252,32.082,5.523,9.341,-67.906
443,0.662,35.517,20.928,27.271,32.078,5.603,9.342,-67.704
444,0.662,35.288,20.951,27.271,32.082,5.604,9.423,-67.458
445,0.669,35.42,20.932,27.291,32.085,5.564,9.464,-67.415
446,0.665,35.508,20.931,27.252,32.078,5.482,9.465,-67.455
447,0.669,35.595,20.927,27.223,32.071,5.481,9.383,-67.578
448,0.665,35.088,20.939,27.242,32.085,5.522,9.505,-67.416
449,0.656,35.226,20.916,27.233,32.078,5.522,9.465,-67.496
450,0.665,35.343,20.939,27.242,32.085,5.482,9.546,-66.968
451,0.669,35.43,20.939,27.252,32.085,5.481,9.588,-66.678
452,0.678,35.172,20.931,27.271,32.092,5.562,9.629,-66.513
453,0.669,35.294,20.935,27.243,32.075,5.441,9.426,-66.755
454,0.662,35.401,20.943,27.242,32.078,5.44,9.424,-66.961
455,0.662,35.469,20.928,27.242,32.085,5.521,9.586,-66.963
456,0.665,35.221,20.939,27.242,32.078,5.482,9.507,-67.125
457,0.669,35.372,20.928,27.261,32.078,5.481,9.465,-67.046
458,0.675,35.507,20.927,27.262,32.085,5.522,9.546,-67.045
459,0.691,35.557,20.947,27.29,32.089,5.603,9.547,-66.923
460,0.675,35.183,20.924,27.252,32.075,5.482,9.425,-67.613
461,0.685,35.314,20.927,27.271,32.075,5.481,9.424,-67.823
462,0.692,35.43,20.947,27.262,32.085,5.44,9.383,-67.866
463,0.682,35.45,20.92,27.243,32.075,5.44,9.301,-67.785
464,0.682,35.278,20.927,27.261,32.078,5.481,9.341,-67.54
465,0.701,35.42,20.927,27.271,32.089,5.481,9.382,-67.456
466,0.701,35.546,20.947,27.271,32.092,5.562,9.423,-67.293
467,0.688,35.193,20.92,27.252,32.075,5.441,9.302,-67.454
468,0.695,35.18,20.947,27.262,32.078,5.44,9.26,-67.456
469,0.688,35.323,20.924,27.252,32.078,5.521,9.3,-67.293
470,0.682,35.401,20.931,27.233,32.071,5.4,9.341,-67.007
471,0.679,35.134,20.943,27.233,32.078,5.44,9.464,-66.76
472,0.688,35.294,20.928,27.252,32.082,5.521,9.546,-66.513
473,0.695,35.449,20.955,27.281,32.089,5.603,9.75,-66.633
474,0.682,35.479,20.939,27.243,32.078,5.482,9.793,-66.959
475,0.695,35.125,20.943,27.252,32.075,5.44,9.834,-67.085
476,0.688,35.294,20.955,27.252,32.082,5.481,9.997,-67.005
477,0.682,35.382,20.908,27.242,32.075,5.44,9.999,-67.085
478,0.682,35.46,20.951,27.252,32.085,5.44,10.243,-67.045
479,0.692,35.144,20.939,27.242,32.078,5.521,10.286,-67.004
480,0.701,35.304,20.924,27.271,32.092,5.603,10.53,-67.41
481,0.701,35.392,20.92,27.243,32.078,5.401,10.41,-67.74
482,0.705,35.45,20.923,27.271,32.085,5.44,10.45,-67.865
483,0.698,35.182,20.923,27.243,32.085,5.44,10.572,-67.704
484,0.692,35.323,20.908,27.242,32.075,5.318,10.451,-67.621
485,0.692,35.44,20.915,27.242,32.075,5.398,10.572,-67.498
486,0.698,35.499,20.923,27.252,32.085,5.48,10.655,-67.415
487,0.708,35.163,20.92,27.29,32.092,5.522,10.737,-67.292
488,0.692,35.266,20.916,27.243,32.072,5.36,10.575,-67.413
489,0.714,35.372,20.947,27.252,32.082,5.439,10.574,-67.455
490,0.708,35.296,20.928,27.242,32.078,5.481,10.574,-66.927
491,0.695,35.123,20.916,27.242,32.075,5.318,10.451,-66.8
492,0.695,35.265,20.935,27.223,32.078,5.398,10.45,-66.554
493,0.701,35.382,20.935,27.252,32.082,5.44,10.369,-66.674
494,0.721,35.047,20.939,27.29,32.089,5.562,10.449,-66.797
495,0.702,35.111,20.935,27.243,32.082,5.401,10.206,-67.002
496,0.711,35.246,20.931,27.252,32.085,5.44,10.163,-67.085
497,0.705,35.362,20.916,27.242,32.078,5.44,10.041,-67.005
498,0.698,35.124,20.919,27.242,32.075,5.318,9.918,-67.085
499,0.698,35.275,20.92,27.242,32.075,5.358,9.916,-67.086
500,0.711,35.42,20.92,27.261,32.082,5.399,9.835,-67.452
501,0.721,35.517,20.943,27.281,32.089,5.521,9.916,-67.618
502,0.711,34.981,20.939,27.243,32.082,5.319,9.672,-67.782
503,0.728,35.129,20.928,27.252,32.078,5.398,9.629,-67.743
504,0.721,35.246,20.935,27.242,32.075,5.358,9.588,-67.54
505,0.708,35.305,20.924,27.233,32.075,5.317,9.425,-67.537
506,0.711,35.085,20.923,27.233,32.085,5.398,9.464,-67.456
507,0.724,35.246,20.931,27.252,32.085,5.358,9.465,-67.374
508,0.724,35.391,20.951,27.29,32.096,5.561,9.546,-67.333
509,0.724,35.402,20.912,27.233,32.075,5.401,9.384,-67.454
510,0.731,35.067,20.927,27.233,32.082,5.44,9.423,-67.008
511,0.728,35.197,20.939,27.242,32.078,5.399,9.424,-66.719
512,0.731,35.266,20.916,27.204,32.071,5.358,9.424,-66.554
513,0.721,35.554,20.923,27.232,32.085,5.439,9.464,-66.715
514,0.731,35.183,20.923,27.242,32.082,5.521,9.505,-66.879
515,0.747,35.333,20.947,27.271,32.096,5.644,9.587,-66.881
516,0.734,35.373,20.924,27.223,32.079,5.483,9.466,-67.084
517,0.747,35.009,20.916,27.261,32.075,5.481,9.383,-67.045
518,0.741,34.996,20.919,27.243,32.085,5.481,9.301,-67.045
519,0.741,35.12,20.92,27.214,32.068,5.4,9.26,-67.045
520,0.734,35.217,20.923,27.232,32.075,5.399,9.259,-67.573
521,0.744,34.978,20.935,27.252,32.085,5.562,9.259,-67.741
522,0.751,35.129,20.947,27.281,32.092,5.604,9.259,-67.743
523,0.741,35.237,20.928,27.214,32.078,5.523,9.015,-67.824
524,0.747,35.333,20.908,27.242,32.082,5.482,9.094,-67.5
525,0.741,34.855,20.896,27.233,32.075,5.562,8.973,-67.537
526,0.744,35.004,20.911,27.233,32.075,5.441,8.891,-67.456
527,0.744,35.139,20.919,27.223,32.071,5.481,8.809,-67.496
528,0.751,35.237,20.912,27.242,32.085,5.522,8.93,-67.374
529,0.754,35.017,20.923,27.261,32.096,5.685,8.89,-67.292
530,0.751,35.13,20.92,27.214,32.079,5.483,8.646,-67.088
531,0.754,35.265,20.923,27.242,32.089,5.562,8.603,-66.679
532,0.757,35.324,20.927,27.214,32.078,5.523,8.562,-66.594
533,0.754,34.98,20.916,27.204,32.075,5.482,8.521,-66.796
534,0.741,35.101,20.9,27.223,32.071,5.481,8.52,-67.002
535,0.764,35.255,20.931,27.242,32.085,5.562,8.601,-66.963
536,0.774,35.295,20.924,27.242,32.089,5.685,8.846,-67.003
537,0.774,34.931,20.92,27.233,32.082,5.524,8.808,-67.044
538,0.777,35.1,20.92,27.242,32.085,5.603,8.97,-67.085
539,0.771,35.188,20.927,27.233,32.082,5.564,9.135,-67.045
540,0.774,35.103,20.912,27.213,32.075,5.563,9.299,-67.573
541,0.774,35.025,20.912,27.213,32.071,5.482,9.423,-67.823
542,0.787,35.168,20.908,27.242,32.085,5.603,9.668,-67.866
543,0.793,35.294,20.923,27.261,32.089,5.726,9.873,-67.704
544,0.79,34.855,20.916,27.243,32.075,5.565,9.916,-67.539
545,0.803,34.984,20.916,27.252,32.085,5.645,10.039,-67.456
546,0.787,35.11,20.908,27.223,32.078,5.645,10.162,-67.374
547,0.787,35.169,20.896,27.213,32.071,5.605,10.204,-67.455
548,0.787,34.777,20.919,27.213,32.078,5.604,10.367,-67.456
549,0.793,34.964,20.927,27.232,32.082,5.645,10.49,-67.415
550,0.806,35.101,20.931,27.261,32.089,5.767,10.654,-66.845
551,0.8,35.14,20.92,27.214,32.075,5.647,10.493,-66.799
552,0.81,34.997,20.916,27.223,32.082,5.645,10.573,-66.636
553,0.81,35.13,20.927,27.223,32.078,5.727,10.614,-66.675
554,0.807,35.227,20.92,27.213,32.071,5.605,10.493,-66.96
555,0.816,35.305,20.92,27.223,32.085,5.686,10.491,-67.003
556,0.823,34.893,20.923,27.242,32.089,5.727,10.491,-67.004
557,0.83,35.042,20.943,27.252,32.096,5.809,10.614,-66.963
558,0.826,35.13,20.928,27.233,32.079,5.728,10.33,-67.166
559,0.83,35.16,20.912,27.223,32.082,5.809,10.327,-67.087
560,0.836,35.016,20.908,27.223,32.078,5.688,10.286,-67.574
561,0.833,35.111,20.915,27.213,32.078,5.646,10.164,-67.863
562,0.83,35.246,20.9,27.213,32.075,5.727,10.163,-67.907
563,0.839,35.621,20.931,27.242,32.078,5.809,10.041,-67.704
564,0.852,34.915,20.927,27.252,32.092,5.891,10.08,-67.336
565,0.849,35.033,20.904,27.214,32.075,5.77,9.878,-67.454
566,0.856,35.14,20.904,27.232,32.082,5.687,9.713,-67.496
567,0.859,34.891,20.923,27.204,32.075,5.727,9.752,-67.456
568,0.856,34.966,20.927,27.213,32.071,5.727,9.63,-67.578
569,0.856,35.101,20.923,27.213,32.075,5.768,9.548,-67.416
570,0.862,35.207,20.923,27.223,32.078,5.809,9.506,-66.967
571,0.875,34.969,20.935,27.242,32.089,5.85,9.587,-66.637
572,0.856,35.081,20.912,27.194,32.078,5.769,9.344,-66.553
573,0.869,35.207,20.939,27.232,32.082,5.809,9.342,-66.715
574,0.863,35.276,20.931,27.233,32.078,5.85,9.382,-66.879
575,0.859,34.835,20.912,27.194,32.075,5.729,9.261,-67.043
576,0.862,35.003,20.908,27.213,32.082,5.85,9.259,-67.045
577,0.879,35.139,20.9,27.223,32.085,5.81,9.3,-67.045
578,0.885,35.227,20.931,27.252,32.092,5.891,9.463,-66.923
579,0.872,34.95,20.916,27.214,32.075,5.689,9.343,-67.125
580,0.885,35.091,20.908,27.223,32.082,5.809,9.301,-67.533
581,0.876,35.227,20.919,27.213,32.078,5.81,9.301,-67.741
582,0.885,35.247,20.904,27.194,32.078,5.647,9.26,-67.946
583,0.879,35.113,20.915,27.204,32.078,5.727,9.219,-67.745
584,0.885,35.275,20.931,27.223,32.078,5.809,9.3,-67.54
585,0.905,35.391,20.939,27.223,32.092,5.85,9.341,-67.375
586,0.895,35.383,20.9,27.204,32.075,5.729,9.179,-67.455
587,0.899,35.143,20.908,27.213,32.082,5.768,9.259,-67.415
588,0.902,35.256,20.9,27.204,32.078,5.809,9.097,-67.455
589,0.895,35.372,20.912,27.194,32.078,5.688,9.136,-67.496
590,0.892,35.344,20.9,27.175,32.071,5.727,9.055,-67.049
591,0.905,35.354,20.919,27.213,32.085,5.768,9.095,-66.76
592,0.905,35.507,20.92,27.242,32.089,5.891,9.217,-66.513
593,0.902,35.585,20.927,27.204,32.078,5.811,9.015,-66.674
594,0.915,35.433,20.923,27.213,32.082,5.81,9.054,-66.919
595,0.909,35.556,20.916,27.223,32.078,5.769,9.095,-66.962
596,0.908,35.644,20.916,27.194,32.071,5.687,9.014,-67.207
597,0.905,35.731,20.912,27.194,32.068,5.646,8.972,-67.046
598,0.921,35.645,20.904,27.213,32.085,5.767,9.094,-67.004
599,0.925,35.788,20.931,27.242,32.096,5.891,9.298,-66.922
600,0.925,35.895,20.908,27.204,32.079,5.729,9.26,-67.491
601,0.938,35.973,20.915,27.223,32.082,5.768,9.341,-67.659
602,0.935,35.887,20.896,27.204,32.085,5.768,9.464,-67.905
603,0.931,35.982,20.896,27.194,32.071,5.687,9.465,-67.867
604,0.928,36.098,20.911,27.194,32.071,5.646,9.587,-67.582
605,0.938,36.167,20.912,27.204,32.075,5.808,9.629,-67.416
606,0.945,36.177,20.935,27.251,32.092,5.891,9.71,-67.252
607,0.932,36.283,20.916,27.194,32.078,5.689,9.548,-67.453
608,0.938,36.399,20.916,27.213,32.078,5.727,9.75,-67.415
609,0.935,36.409,20.916,27.204,32.078,5.687,9.671,-67.496
610,0.931,36.342,20.904,27.175,32.078,5.646,9.548,-66.968
611,0.915,36.457,20.892,27.165,32.078,5.645,9.628,-66.8
612,0.931,36.602,20.911,27.184,32.082,5.727,9.751,-66.636
613,0.935,36.91,20.916,27.223,32.085,5.85,9.833,-66.553
614,0.938,36.654,20.912,27.204,32.075,5.648,9.672,-66.959
615,0.935,36.757,20.916,27.204,32.085,5.686,9.751,-67.003
616,0.935,36.864,20.916,27.213,32.078,5.646,9.671,-67.044
617,0.938,36.779,20.908,27.204,32.071,5.564,9.589,-67.126
618,0.935,36.874,20.908,27.194,32.068,5.645,9.588,-67.046
619,0.945,37.009,20.927,27.204,32.085,5.645,9.669,-67.045
620,0.945,37.116,20.931,27.232,32.092,5.808,9.711,-67.329
621,0.935,37.059,20.904,27.204,32.078,5.647,9.427,-67.82
622,0.938,37.222,20.904,27.204,32.075,5.645,9.464,-67.866
623,0.935,37.31,20.931,27.204,32.078,5.645,9.465,-67.785
624,0.918,37.378,20.896,27.194,32.075,5.564,9.343,-67.662
625,0.909,37.254,20.908,27.184,32.075,5.645,9.342,-67.539
626,0.921,37.415,20.915,27.203,32.085,5.645,9.423,-67.375
627,0.922,37.551,20.931,27.232,32.089,5.808,9.505,-67.333
628,0.905,37.553,20.9,27.204,32.071,5.647,9.384,-67.495
629,0.902,37.485,20.912,27.223,32.085,5.605,9.545,-67.415
630,0.902,37.581,20.919,27.194,32.078,5.645,9.71,-67.008
631,0.876,37.687,20.877,27.165,32.068,5.605,9.792,-66.882
632,0.872,37.717,20.9,27.165,32.071,5.645,9.996,-66.596
633,0.879,37.698,20.919,27.194,32.078,5.645,10.243,-66.715
634,0.876,37.822,20.931,27.223,32.096,5.727,10.57,-66.879
635,0.866,37.92,20.888,27.194,32.079,5.687,10.614,-67.043
636,0.859,37.94,20.907,27.213,32.089,5.605,10.696,-67.085
637,0.856,37.873,20.912,27.194,32.078,5.645,10.778,-67.045
638,0.836,37.978,20.896,27.175,32.071,5.564,10.657,-67.126
639,0.82,38.075,20.896,27.184,32.068,5.604,10.778,-67.046
640,0.833,38.047,20.904,27.203,32.082,5.645,10.901,-67.533
641,0.836,38.094,20.927,27.213,32.096,5.808,10.943,-67.66
642,0.82,38.191,20.904,27.204,32.079,5.647,10.781,-67.945
643,0.81,38.278,20.912,27.204,32.078,5.605,10.738,-67.786
644,0.807,38.068,20.908,27.184,32.075,5.564,10.697,-67.581
645,0.794,38.181,20.904,27.175,32.078,5.523,10.534,-67.579
646,0.78,38.297,20.9,27.184,32.071,5.563,10.573,-67.416
647,0.787,38.404,20.923,27.194,32.078,5.645,10.533,-67.455
648,0.784,38.29,20.923,27.223,32.092,5.686,10.695,-67.252
649,0.754,38.413,20.904,27.185,32.078,5.524,10.412,-67.494
650,0.757,38.52,20.915,27.194,32.078,5.563,10.45,-67.049
651,0.748,38.569,20.9,27.175,32.075,5.523,10.369,-66.76
652,0.731,38.32,20.892,27.155,32.075,5.441,10.165,-66.717
653,0.725,38.423,20.9,27.184,32.078,5.521,10.285,-66.798
654,0.721,38.568,20.908,27.184,32.085,5.563,10.245,-66.839
655,0.734,38.646,20.935,27.213,32.092,5.685,10.245,-66.84
656,0.721,38.273,20.912,27.175,32.078,5.483,9.96,-67.165
657,0.715,38.432,20.908,27.175,32.082,5.562,9.998,-67.087
658,0.708,38.511,20.904,27.194,32.078,5.523,9.917,-67.086
659,0.698,38.521,20.904,27.175,32.068,5.482,9.794,-67.127
660,0.685,38.454,20.892,27.194,32.075,5.522,9.712,-67.493
661,0.692,38.626,20.919,27.194,32.078,5.603,9.711,-67.741
662,0.682,38.714,20.927,27.223,32.089,5.645,9.792,-67.824
663,0.675,38.801,20.892,27.175,32.078,5.523,9.59,-67.866
664,0.675,38.591,20.9,27.203,32.078,5.522,9.588,-67.5
665,0.672,38.704,20.884,27.194,32.075,5.482,9.507,-67.456
666,0.669,38.772,20.904,27.184,32.071,5.481,9.384,-67.456
667,0.646,38.428,20.888,27.165,32.075,5.44,9.382,-67.456
668,0.659,38.549,20.904,27.194,32.085,5.562,9.382,-67.456
669,0.659,38.694,20.935,27.213,32.096,5.604,9.423,-67.333
670,0.643,38.724,20.896,27.175,32.072,5.523,9.261,-66.966
671,0.646,38.523,20.908,27.175,32.078,5.482,9.219,-66.8
672,0.636,38.617,20.908,27.194,32.078,5.481,9.137,-66.595
673,0.636,38.752,20.904,27.165,32.075,5.44,9.014,-66.756
674,0.623,38.773,20.888,27.165,32.068,5.44,9.054,-67.042
675,0.629,38.428,20.904,27.174,32.078,5.562,9.095,-67.004
676,0.629,38.578,20.919,27.203,32.082,5.523,9.217,-66.922
677,0.619,38.666,20.908,27.165,32.075,5.441,8.934,-67.125
678,0.619,38.743,20.904,27.203,32.075,5.603,8.972,-67.046
679,0.619,38.514,20.9,27.165,32.078,5.523,8.85,-67.126
680,0.616,38.646,20.892,27.174,32.075,5.441,8.808,-67.493
681,0.597,38.743,20.896,27.165,32.071,5.481,8.848,-67.781
682,0.613,38.801,20.911,27.184,32.078,5.562,8.849,-67.906
683,0.619,38.543,20.916,27.203,32.089,5.645,8.93,-67.663
684,0.6,38.656,20.9,27.175,32.071,5.442,8.687,-67.58
685,0.6,38.762,20.915,27.194,32.085,5.481,8.725,-67.538
686,0.596,38.763,20.912,27.165,32.078,5.481,8.726,-67.456
687,0.59,38.389,20.904,27.165,32.078,5.4,8.603,-67.537
688,0.59,38.501,20.915,27.165,32.075,5.399,8.521,-67.497
689,0.596,38.646,20.9,27.184,32.078,5.521,8.601,-67.456
690,0.603,38.513,20.904,27.184,32.092,5.644,8.684,-66.927
691,0.59,38.511,20.904,27.165,32.078,5.483,8.522,-66.718
692,0.587,38.665,20.919,27.174,32.082,5.522,8.642,-66.472
693,0.586,38.743,20.92,27.165,32.078,5.482,8.644,-66.714
694,0.58,38.37,20.892,27.165,32.071,5.44,8.644,-67.001
695,0.58,38.462,20.896,27.165,32.078,5.44,8.684,-67.044
696,0.59,38.616,20.9,27.184,32.078,5.481,8.766,-67.085
697,0.59,38.714,20.927,27.223,32.089,5.603,9.011,-66.883
698,0.583,38.341,20.92,27.165,32.075,5.482,8.932,-67.084
699,0.59,38.471,20.916,27.184,32.078,5.522,9.012,-66.964
700,0.59,38.597,20.904,27.184,32.078,5.482,9.094,-67.532
701,0.59,38.618,20.9,27.184,32.071,5.481,9.176,-67.822
702,0.593,38.311,20.9,27.184,32.075,5.481,9.177,-67.866
703,0.59,38.49,20.9,27.175,32.078,5.522,9.38,-67.744
704,0.596,38.626,20.923,27.203,32.089,5.603,9.545,-67.458
705,0.587,38.628,20.892,27.165,32.075,5.482,9.425,-67.456
706,0.58,38.254,20.908,27.165,32.075,5.481,9.464,-67.456
707,0.58,38.403,20.888,27.184,32.075,5.44,9.587,-67.456
708,0.577,38.462,20.904,27.155,32.071,5.44,9.507,-67.496
709,0.577,38.511,20.892,27.155,32.071,5.44,9.587,-67.497
710,0.586,38.358,20.9,27.174,32.078,5.481,9.629,-67.009
711,0.586,38.51,20.931,27.203,32.092,5.603,9.71,-66.638
712,0.573,38.569,20.892,27.146,32.075,5.401,9.548,-66.634
713,0.577,38.483,20.911,27.165,32.078,5.44,9.588,-66.797
714,0.577,38.243,20.908,27.184,32.085,5.481,9.547,-66.961
715,0.57,38.336,20.888,27.165,32.075,5.4,9.506,-67.125
716,0.58,38.433,20.904,27.184,32.078,5.48,9.465,-67.086
717,0.58,38.165,20.915,27.165,32.075,5.522,9.587,-67.086
718,0.586,38.268,20.923,27.213,32.092,5.644,9.629,-66.964
719,0.583,38.365,20.904,27.185,32.075,5.442,9.426,-67.085
720,0.58,38.452,20.908,27.194,32.082,5.521,9.505,-67.533
721,0.593,37.993,20.888,27.175,32.071,5.482,9.546,-67.782
722,0.58,38.113,20.907,27.165,32.078,5.44,9.588,-68.028
723,0.577,38.191,20.88,27.146,32.071,5.44,9.791,-67.827
724,0.577,38.316,20.896,27.174,32.075,5.481,10.078,-67.5
725,0.586,38.145,20.9,27.184,32.089,5.562,10.406,-67.415
726,0.583,38.258,20.888,27.165,32.071,5.441,10.491,-67.536
727,0.59,38.403,20.904,27.184,32.085,5.562,10.695,-67.416
728,0.59,38.414,20.892,27.165,32.078,5.482,10.819,-67.455
729,0.574,37.916,20.904,27.165,32.071,5.44,10.861,-67.496
730,0.577,38.026,20.892,27.127,32.064,5.359,10.942,-67.049
731,0.59,38.19,20.908,27.174,32.075,5.521,11.065,-66.801
732,0.59,38.201,20.896,27.175,32.085,5.522,11.229,-66.514
733,0.59,38.067,20.9,27.165,32.078,5.482,11.109,-66.755
734,0.577,38.21,20.9,27.174,32.082,5.562,11.189,-66.92
735,0.586,38.307,20.896,27.184,32.075,5.401,11.149,-66.962
736,0.586,38.318,20.904,27.136,32.068,5.399,11.067,-67.125
737,0.583,37.877,20.884,27.145,32.061,5.44,11.026,-67.127
738,0.603,38.045,20.904,27.155,32.078,5.521,11.107,-67.046
739,0.596,38.133,20.908,27.174,32.082,5.563,11.148,-66.964
740,0.59,37.951,20.908,27.155,32.078,5.482,10.945,-67.491
741,0.593,37.988,20.912,27.193,32.085,5.522,10.902,-67.781
742,0.587,38.113,20.896,27.165,32.075,5.522,10.861,-67.865
743,0.59,38.172,20.896,27.155,32.071,5.441,10.861,-67.785
744,0.583,37.722,20.884,27.136,32.071,5.562,10.902,-67.621
745,0.586,37.89,20.915,27.165,32.078,5.563,10.943,-67.498
746,0.596,38.016,20.923,27.194,32.089,5.685,11.146,-67.293
747,0.587,38.085,20.892,27.165,32.075,5.646,11.067,-67.494
748,0.586,37.74,20.9,27.146,32.085,5.605,11.148,-67.456
749,0.59,37.871,20.884,27.174,32.085,5.604,11.149,-67.496
750,0.59,37.958,20.9,27.136,32.068,5.482,11.23,-67.09
751,0.577,38.007,20.876,27.145,32.071,5.522,11.353,-66.801
752,0.593,37.682,20.9,27.155,32.078,5.603,11.557,-66.595
753,0.609,37.822,20.908,27.174,32.089,5.686,11.844,-66.593
754,0.59,37.929,20.9,27.165,32.075,5.524,11.887,-66.878
755,0.6,37.969,20.9,27.184,32.085,5.644,12.05,-67.043
756,0.593,37.681,20.908,27.165,32.082,5.605,12.133,-67.085
757,0.593,37.793,20.888,27.146,32.068,5.564,12.175,-67.127
758,0.596,37.91,20.892,27.146,32.071,5.604,12.216,-67.046
759,0.603,37.968,20.896,27.174,32.082,5.604,12.379,-67.045
760,0.603,37.643,20.9,27.184,32.085,5.767,12.421,-67.411
761,0.603,37.736,20.88,27.165,32.075,5.606,12.178,-67.78
762,0.616,37.852,20.888,27.165,32.085,5.686,12.175,-67.906
763,0.6,37.766,20.896,27.174,32.082,5.646,12.135,-67.785
764,0.6,37.641,20.888,27.127,32.068,5.483,12.012,-67.703
765,0.596,37.736,20.892,27.136,32.078,5.644,11.93,-67.499
766,0.603,37.852,20.892,27.174,32.078,5.686,11.807,-67.415
767,0.609,37.556,20.908,27.175,32.089,5.727,11.846,-67.333
768,0.6,37.639,20.88,27.146,32.071,5.524,11.562,-67.454
769,0.609,37.755,20.919,27.155,32.089,5.644,11.559,-67.496
770,0.609,37.842,20.896,27.146,32.075,5.564,11.397,-67.049
771,0.6,37.431,20.884,27.126,32.075,5.563,11.232,-66.882
772,0.593,37.58,20.884,27.126,32.068,5.563,11.19,-66.718
773,0.606,37.716,20.896,27.155,32.075,5.685,11.23,-66.716
774,0.609,37.794,20.911,27.184,32.085,5.727,11.149,-66.798
775,0.613,37.421,20.892,27.146,32.075,5.565,10.986,-67.042
776,0.61,37.59,20.923,27.165,32.078,5.604,10.944,-67.085
777,0.596,37.687,20.892,27.146,32.078,5.604,10.902,-67.127
778,0.616,37.746,20.896,27.146,32.064,5.564,10.699,-67.208
779,0.603,37.42,20.888,27.126,32.071,5.645,10.656,-67.087
780,0.609,37.57,20.888,27.155,32.078,5.645,10.696,-67.492
781,0.629,37.697,20.892,27.184,32.085,5.686,10.737,-67.619
782,0.623,37.698,20.892,27.165,32.075,5.605,10.657,-67.986
783,0.632,37.429,20.884,27.165,32.085,5.645,10.737,-67.786
784,0.616,37.532,20.923,27.146,32.078,5.564,10.9,-67.581
785,0.616,37.619,20.873,27.146,32.071,5.563,10.943,-67.579
786,0.61,37.965,20.888,27.146,32.068,5.401,10.943,-67.579
787,0.609,37.394,20.884,27.165,32.078,5.562,11.228,-67.457
788,0.616,37.522,20.907,27.174,32.082,5.604,11.393,-67.333
789,0.616,37.6,20.873,27.146,32.078,5.482,11.354,-67.535
790,0.619,37.342,20.903,27.146,32.085,5.562,11.476,-66.968
791,0.61,37.378,20.896,27.136,32.071,5.604,11.518,-66.8
792,0.606,37.493,20.896,27.126,32.075,5.523,11.477,-66.717
793,0.6,37.571,20.884,27.126,32.071,5.4,11.436,-66.757
794,0.603,37.323,20.892,27.145,32.082,5.562,11.558,-66.961
795,0.609,37.445,20.908,27.165,32.085,5.604,11.559,-66.881
796,0.616,37.542,20.888,27.136,32.071,5.482,11.397,-67.125
797,0.619,37.629,20.892,27.165,32.078,5.522,11.273,-67.046
798,0.623,37.275,20.88,27.146,32.078,5.482,11.272,-67.045
799,0.616,37.387,20.892,27.136,32.064,5.481,11.028,-67.167
800,0.61,37.484,20.88,27.136,32.071,5.481,11.025,-67.534
801,0.629,37.581,20.9,27.165,32.075,5.562,11.066,-67.741
802,0.636,37.169,20.892,27.194,32.092,5.685,11.026,-67.784
803,0.62,37.29,20.884,27.146,32.072,5.564,10.781,-67.906
804,0.636,37.406,20.896,27.155,32.082,5.523,10.657,-67.582
805,0.623,37.436,20.896,27.165,32.085,5.482,10.656,-67.538
806,0.619,37.235,20.876,27.127,32.071,5.4,10.493,-67.497
807,0.616,37.348,20.9,27.117,32.075,5.44,10.369,-67.537
808,0.626,37.493,20.915,27.145,32.078,5.521,10.49,-67.416
809,0.626,37.542,20.916,27.165,32.089,5.603,10.573,-67.292
810,0.623,37.14,20.892,27.136,32.075,5.482,10.37,-67.169
811,0.623,37.261,20.908,27.145,32.078,5.562,10.368,-66.802
812,0.616,37.358,20.9,27.136,32.075,5.523,10.287,-66.595
813,0.616,37.273,20.892,27.107,32.071,5.441,10.083,-66.837
814,0.61,37.176,20.88,27.126,32.068,5.481,10.081,-66.962
815,0.629,37.347,20.907,27.155,32.078,5.522,10.121,-66.963
816,0.632,37.435,20.9,27.165,32.089,5.603,10.163,-66.963
817,0.629,37.014,20.88,27.127,32.068,5.442,9.919,-67.166
818,0.636,37.135,20.896,27.145,32.078,5.481,9.957,-67.087
819,0.629,37.242,20.892,27.136,32.075,5.522,9.835,-67.086
820,0.629,37.31,20.884,27.126,32.071,5.441,9.712,-67.655
821,0.623,37.061,20.88,27.126,32.075,5.44,9.67,-67.823
822,0.636,37.25,20.9,27.164,32.078,5.521,9.629,-67.866
823,0.646,37.367,20.888,27.174,32.085,5.603,9.71,-67.704
824,0.636,37.426,20.868,27.136,32.078,5.482,9.508,-67.661
825,0.629,36.861,20.892,27.145,32.075,5.522,9.465,-67.539
826,0.616,36.989,20.896,27.136,32.078,5.441,9.465,-67.537
827,0.616,37.096,20.876,27.117,32.071,5.44,9.343,-67.537
828,0.61,37.145,20.9,27.107,32.068,5.44,9.382,-67.497
829,0.619,36.983,20.896,27.136,32.071,5.521,9.464,-67.415
830,0.616,37.125,20.9,27.165,32.085,5.644,9.505,-66.926
831,0.616,37.213,20.884,27.127,32.071,5.523,9.343,-66.8
832,0.613,37.271,20.907,27.155,32.078,5.644,9.342,-66.636
833,0.613,36.936,20.884,27.136,32.078,5.523,9.342,-66.797
834,0.616,37.057,20.876,27.126,32.075,5.441,9.26,-67.002
835,0.61,37.135,20.876,27.107,32.064,5.481,9.219,-67.126
836,0.619,37.414,20.884,27.145,32.078,5.522,9.259,-67.086
837,0.626,36.851,20.892,27.165,32.089,5.644,9.341,-66.964
838,0.616,36.941,20.88,27.127,32.078,5.523,9.179,-67.125
839,0.623,37.067,20.896,27.155,32.078,5.482,9.299,-67.127
840,0.626,36.828,20.888,27.146,32.078,5.603,9.219,-67.452
841,0.623,36.903,20.896,27.126,32.068,5.523,9.259,-67.781
842,0.616,37.019,20.884,27.136,32.078,5.482,9.3,-67.865
843,0.623,37.125,20.892,27.136,32.078,5.522,9.301,-67.785
844,0.632,36.714,20.896,27.165,32.092,5.644,9.504,-67.459
845,0.619,36.815,20.884,27.127,32.078,5.523,9.262,-67.537
846,0.619,36.941,20.904,27.136,32.078,5.482,9.3,-67.497
847,0.616,37.009,20.873,27.117,32.078,5.481,9.26,-67.456
848,0.61,36.694,20.884,27.116,32.068,5.44,9.219,-67.496
849,0.603,36.834,20.868,27.107,32.075,5.44,9.096,-67.537
850,0.622,36.96,20.876,27.136,32.078,5.481,9.136,-67.05
851,0.616,37.058,20.892,27.145,32.085,5.644,9.339,-66.638
852,0.6,36.608,20.888,27.136,32.071,5.483,9.016,-66.715
853,0.609,36.766,20.884,27.126,32.075,5.44,9.054,-66.716
854,0.606,36.864,20.884,27.126,32.078,5.481,9.013,-66.96
855,0.603,36.884,20.872,27.117,32.071,5.44,8.932,-67.085
856,0.596,36.529,20.868,27.126,32.082,5.359,8.972,-67.086
857,0.613,36.698,20.899,27.126,32.078,5.399,8.891,-67.086
858,0.616,36.806,20.892,27.155,32.089,5.643,9.134,-66.964
859,0.603,36.797,20.892,27.117,32.075,5.442,8.892,-67.085
860,0.603,36.644,20.888,27.145,32.078,5.521,8.93,-67.492
861,0.609,36.767,20.884,27.136,32.078,5.522,8.85,-67.903
862,0.606,36.835,20.876,27.126,32.068,5.36,8.808,-67.948
863,0.606,36.615,20.864,27.097,32.068,5.439,8.767,-67.867
864,0.606,36.575,20.899,27.135,32.082,5.481,8.889,-67.582
865,0.616,36.718,20.888,27.155,32.085,5.603,8.971,-67.375
866,0.61,36.796,20.88,27.117,32.071,5.401,8.809,-67.536
867,0.606,36.538,20.896,27.136,32.071,5.562,8.848,-67.456
868,0.606,36.67,20.88,27.136,32.078,5.441,8.889,-67.578
869,0.603,36.786,20.876,27.107,32.071,5.399,8.768,-67.538
870,0.587,36.845,20.876,27.097,32.064,5.318,8.767,-67.212
871,0.593,36.337,20.872,27.135,32.075,5.48,8.848,-66.803
872,0.596,36.476,20.884,27.136,32.078,5.644,8.93,-66.554
873,0.59,36.583,20.88,27.126,32.075,5.483,8.85,-66.796
874,0.596,36.68,20.9,27.126,32.078,5.562,9.011,-66.92
875,0.596,36.451,20.872,27.126,32.078,5.482,9.054,-67.044
876,0.59,36.554,20.876,27.097,32.068,5.4,9.176,-67.248
877,0.59,36.67,20.864,27.097,32.071,5.358,9.218,-67.209
878,0.606,36.767,20.892,27.135,32.075,5.521,9.462,-67.168
879,0.593,36.461,20.915,27.126,32.085,5.482,9.587,-67.005
880,0.603,36.592,20.884,27.136,32.075,5.44,9.629,-67.614
881,0.606,36.709,20.884,27.136,32.078,5.562,9.751,-67.782
882,0.603,36.748,20.892,27.126,32.085,5.482,9.752,-67.947
883,0.596,36.413,20.865,27.117,32.075,5.481,9.752,-67.948
884,0.593,36.534,20.853,27.097,32.061,5.359,9.712,-67.704
885,0.606,36.66,20.884,27.116,32.078,5.521,9.792,-67.458
886,0.596,36.786,20.876,27.097,32.085,5.522,9.834,-67.374
887,0.6,36.5,20.888,27.126,32.075,5.441,9.834,-67.495
888,0.603,36.641,20.88,27.136,32.078,5.44,9.875,-67.415
889,0.596,36.738,20.884,27.126,32.082,5.521,9.916,-67.496
890,0.6,36.461,20.872,27.097,32.071,5.441,9.713,-67.131
891,0.583,36.554,20.872,27.088,32.061,5.399,9.63,-66.924
892,0.59,36.689,20.876,27.116,32.082,5.399,9.71,-66.637
893,0.583,36.777,20.892,27.126,32.075,5.44,9.711,-66.797
894,0.603,36.413,20.872,27.117,32.078,5.44,9.67,-67.002
895,0.6,36.525,20.88,27.126,32.082,5.481,9.751,-67.044
896,0.606,36.66,20.9,27.145,32.085,5.522,9.671,-67.085
897,0.59,36.69,20.884,27.117,32.071,5.4,9.589,-67.127
898,0.596,36.499,20.892,27.107,32.075,5.399,9.507,-67.208
899,0.6,36.631,20.884,27.126,32.078,5.48,9.587,-67.087
900,0.6,36.728,20.872,27.117,32.071,5.4,9.466,-67.574
901,0.6,36.806,20.868,27.136,32.075,5.44,9.465,-67.782
902,0.609,36.414,20.884,27.126,32.085,5.562,9.505,-67.865
903,0.609,36.573,20.896,27.164,32.082,5.563,9.506,-67.825
904,0.603,36.651,20.876,27.127,32.071,5.36,9.425,-67.622
905,0.606,36.68,20.872,27.126,32.071,5.399,9.464,-67.62
906,0.606,36.403,20.876,27.126,32.075,5.48,9.709,-67.457
907,0.603,36.534,20.88,27.107,32.075,5.4,9.752,-67.496
908,0.603,36.679,20.876,27.126,32.071,5.48,9.833,-67.497
909,0.606,36.69,20.88,27.126,32.082,5.481,10.16,-67.456
910,0.619,36.479,20.892,27.164,32.085,5.603,10.569,-67.008
911,0.603,36.573,20.888,27.117,32.071,5.401,10.899,-66.801
912,0.6,36.67,20.884,27.116,32.078,5.399,11.431,-66.676
913,0.603,36.527,20.88,27.116,32.078,5.521,12.046,-66.716
914,0.59,36.555,20.892,27.107,32.071,5.4,12.377,-67.041
915,0.6,36.689,20.884,27.088,32.075,5.48,12.909,-67.045
916,0.609,36.786,20.884,27.126,32.082,5.522,13.321,-67.045
917,0.616,36.394,20.896,27.136,32.099,5.644,13.732,-66.923
918,0.606,36.457,20.884,27.117,32.075,5.483,13.736,-67.125
919,0.613,36.602,20.884,27.107,32.071,5.522,13.98,-67.086
920,0.616,36.67,20.876,27.126,32.078,5.522,14.063,-67.574
921,0.61,36.479,20.872,27.117,32.068,5.4,14.105,-67.863
922,0.609,36.602,20.868,27.116,32.071,5.44,14.187,-67.947
923,0.613,36.747,20.899,27.126,32.078,5.481,14.269,-67.826
924,0.619,36.825,20.888,27.164,32.085,5.603,14.31,-67.459
925,0.606,36.49,20.876,27.127,32.071,5.401,14.148,-67.578
926,0.609,36.64,20.872,27.126,32.082,5.48,14.187,-67.416
927,0.606,36.748,20.88,27.117,32.078,5.481,14.025,-67.455
928,0.603,36.787,20.888,27.088,32.071,5.359,13.942,-67.537
929,0.6,36.509,20.876,27.097,32.075,5.439,13.819,-67.537
930,0.609,36.669,20.868,27.116,32.085,5.481,13.859,-67.09
931,0.616,36.796,20.892,27.136,32.082,5.522,13.859,-66.679
932,0.61,36.807,20.892,27.107,32.071,5.36,13.574,-66.716
933,0.619,36.615,20.884,27.126,32.078,5.48,13.531,-66.716
934,0.61,36.718,20.884,27.136,32.075,5.4,13.449,-66.96
935,0.596,36.806,20.865,27.107,32.071,5.399,13.164,-67.125
936,0.603,36.835,20.872,27.088,32.068,5.277,13.039,-67.208
937,0.606,36.663,20.876,27.135,32.075,5.438,12.997,-66.965
938,0.609,36.796,20.892,27.136,32.089,5.481,12.875,-67.003
939,0.606,36.883,20.876,27.107,32.078,5.359,12.629,-67.085
940,0.613,36.587,20.892,27.145,32.085,5.439,12.464,-67.492
941,0.616,36.661,20.888,27.126,32.075,5.399,12.341,-67.781
942,0.606,36.767,20.876,27.117,32.071,5.318,12.095,-67.947
943,0.593,36.845,20.876,27.097,32.068,5.317,11.93,-67.948
944,0.616,36.539,20.88,27.126,32.078,5.398,11.888,-67.623
945,0.619,36.689,20.911,27.145,32.085,5.521,11.969,-67.457
946,0.619,36.806,20.869,27.107,32.075,5.36,11.645,-67.537
947,0.619,36.864,20.872,27.116,32.085,5.399,11.723,-67.456
948,0.619,36.596,20.884,27.107,32.078,5.358,11.52,-67.496
949,0.619,36.728,20.865,27.116,32.071,5.399,11.477,-67.537
950,0.61,36.816,20.853,27.069,32.064,5.318,11.355,-67.09
951,0.616,36.912,20.884,27.135,32.082,5.439,11.395,-66.842
952,0.616,36.606,20.88,27.126,32.085,5.481,11.436,-66.555
953,0.606,36.747,20.884,27.126,32.075,5.4,11.273,-66.796
954,0.609,36.854,20.876,27.136,32.075,5.44,11.312,-66.961
955,0.609,36.874,20.892,27.126,32.071,5.399,11.191,-67.085
956,0.603,36.606,20.872,27.107,32.068,5.399,11.068,-67.208
957,0.59,36.728,20.868,27.088,32.071,5.44,11.026,-67.128
958,0.609,36.873,20.888,27.135,32.071,5.481,10.985,-67.005
959,0.616,36.894,20.868,27.145,32.085,5.522,11.106,-66.963
960,0.6,36.635,20.86,27.107,32.078,5.441,10.823,-67.532
961,0.609,36.757,20.876,27.126,32.078,5.481,10.82,-67.782
962,0.616,36.825,20.872,27.117,32.078,5.481,10.739,-67.947
963,0.616,36.749,20.864,27.116,32.075,5.359,10.494,-67.867
964,0.606,36.777,20.868,27.088,32.071,5.439,10.451,-67.622
965,0.619,36.941,20.876,27.126,32.078,5.481,10.41,-67.498
966,0.626,37.029,20.896,27.155,32.089,5.644,10.45,-67.415
967,0.61,36.521,20.853,27.107,32.075,5.442,10.206,-67.496
968,0.616,36.65,20.888,27.136,32.078,5.481,10.163,-67.537
969,0.619,36.767,20.876,27.126,32.078,5.44,10.163,-67.497
970,0.613,36.854,20.876,27.107,32.071,5.399,10.082,-67.131
971,0.606,36.491,20.876,27.097,32.068,5.44,10.203,-66.883
972,0.619,36.669,20.872,27.116,32.075,5.562,10.285,-66.636
973,0.616,36.815,20.892,27.145,32.092,5.604,10.367,-66.512
974,0.613,36.836,20.896,27.126,32.072,5.523,10.206,-66.958
975,0.613,36.73,20.88,27.126,32.078,5.522,10.245,-67.085
976,0.616,36.854,20.884,27.126,32.075,5.563,10.204,-67.167
977,0.603,36.941,20.872,27.097,32.071,5.523,10.082,-67.168
978,0.616,36.981,20.864,27.097,32.075,5.482,10.203,-67.168
979,0.619,36.607,20.876,27.126,32.075,5.562,10.163,-67.127
980,0.619,36.757,20.88,27.155,32.085,5.685,10.244,-67.452
981,0.613,36.825,20.884,27.136,32.075,5.483,9.96,-67.862
982,0.619,36.884,20.872,27.126,32.075,5.562,9.998,-67.866
983,0.603,36.721,20.86,27.117,32.071,5.523,9.958,-67.866
984,0.603,36.825,20.864,27.116,32.064,5.441,9.795,-67.704
985,0.593,36.922,20.872,27.107,32.071,5.399,9.793,-67.58
986,0.609,36.846,20.88,27.136,32.078,5.521,9.793,-67.497
987,0.616,36.673,20.876,27.145,32.089,5.644,9.753,-67.334
988,0.603,36.767,20.884,27.088,32.075,5.442,9.549,-67.495
989,0.606,36.873,20.876,27.116,32.082,5.562,9.547,-67.497
990,0.596,36.539,20.876,27.116,32.075,5.523,9.384,-67.171
991,0.596,36.631,20.876,27.107,32.071,5.482,9.261,-66.883
992,0.59,36.709,20.861,27.078,32.064,5.318,9.137,-66.799
993,0.6,36.844,20.872,27.126,32.082,5.52,9.217,-66.758
994,0.606,36.606,20.88,27.136,32.078,5.563,9.218,-66.839
995,0.6,36.738,20.861,27.117,32.071,5.482,9.015,-67.124
996,0.603,36.873,20.864,27.136,32.071,5.522,9.013,-67.168
997,0.613,36.932,20.876,27.107,32.068,5.482,8.891,-67.127
998,0.603,36.482,20.868,27.097,32.071,5.4,8.727,-67.168
999,0.596,36.592,20.86,27.097,32.061,5.399,8.644,-67.249
1000,0.603,36.737,20.868,27.135,32.075,5.44,8.765,-67.616
1001,0.6,36.806,20.888,27.145,32.085,5.603,8.767,-67.66
1002,0.603,36.529,20.876,27.117,32.071,5.564,8.604,-67.986
1003,0.609,36.679,20.864,27.136,32.082,5.563,8.602,-67.867
1004,0.606,36.786,20.88,27.107,32.071,5.523,8.48,-67.663
1005,0.603,36.807,20.868,27.097,32.071,5.4,8.438,-67.58
1006,0.596,36.481,20.86,27.097,32.068,5.358,8.397,-67.619
1007,0.609,36.64,20.876,27.107,32.085,5.439,8.438,-67.498
1008,0.609,36.757,20.872,27.126,32.082,5.562,8.56,-67.456
1009,0.603,36.94,20.868,27.117,32.068,5.482,8.317,-67.537
1010,0.609,36.559,20.872,27.126,32.075,5.481,8.437,-67.05
1011,0.616,36.68,20.884,27.097,32.071,5.44,8.357,-66.842
1012,0.606,36.757,20.853,27.097,32.071,5.359,8.315,-66.717
1013,0.616,36.49,20.864,27.097,32.068,5.358,8.274,-66.838
1014,0.626,36.564,20.864,27.116,32.078,5.48,8.396,-66.921
1015,0.623,36.68,20.868,27.126,32.089,5.4,8.356,-66.962
1016,0.642,36.767,20.864,27.117,32.075,5.44,8.234,-67.125
1017,0.646,36.404,20.872,27.136,32.071,5.481,8.273,-67.127
1018,0.662,36.515,20.864,27.107,32.075,5.44,8.233,-67.086
1019,0.659,36.622,20.864,27.126,32.061,5.359,8.151,-67.167
1020,0.669,36.68,20.845,27.107,32.057,5.236,8.028,-67.615
1021,0.691,36.384,20.884,27.116,32.078,5.397,8.149,-67.782
1022,0.692,36.524,20.872,27.126,32.075,5.44,8.11,-67.947
1023,0.708,36.612,20.872,27.126,32.071,5.44,8.028,-67.989
1024,0.718,36.709,20.884,27.117,32.085,5.481,8.027,-67.623
1025,0.731,36.432,20.884,27.145,32.078,5.481,8.027,-67.538
1026,0.731,36.534,20.872,27.117,32.071,5.4,7.946,-67.578
1027,0.741,36.631,20.853,27.088,32.064,5.318,7.783,-67.538
1028,0.738,36.709,20.868,27.126,32.078,5.48,7.862,-67.497
1029,0.741,36.298,20.864,27.107,32.071,5.4,7.944,-67.537
1030,0.747,36.437,20.876,27.097,32.071,5.358,7.783,-67.131
1031,0.744,36.554,20.884,27.116,32.085,5.48,7.822,-66.761
1032,0.744,36.603,20.865,27.136,32.082,5.522,7.822,-66.635
1033,0.728,36.392,20.868,27.107,32.068,5.36,7.741,-66.797
1034,0.734,36.534,20.845,27.116,32.071,5.317,7.699,-67.042
1035,0.721,36.622,20.876,27.126,32.071,5.48,7.861,-67.045
1036,0.711,36.479,20.868,27.107,32.068,5.4,7.944,-67.207
1037,0.734,36.334,20.868,27.126,32.075,5.44,8.026,-67.168
1038,0.725,36.486,20.864,27.126,32.082,5.481,8.231,-67.127
1039,0.724,36.612,20.872,27.164,32.089,5.481,8.477,-67.005
1040,0.715,36.239,20.864,27.117,32.071,5.359,8.438,-67.573
1041,0.721,36.35,20.884,27.136,32.071,5.439,8.519,-67.904
1042,0.724,36.476,20.872,27.107,32.075,5.44,8.683,-67.948
1043,0.724,36.535,20.857,27.097,32.064,5.359,8.766,-67.908
1044,0.728,36.075,20.872,27.116,32.071,5.399,8.848,-67.623
1045,0.741,36.253,20.876,27.116,32.078,5.399,8.889,-67.579
1046,0.741,36.398,20.884,27.145,32.089,5.521,9.052,-67.335
1047,0.744,36.429,20.872,27.107,32.071,5.4,9.013,-67.535
1048,0.747,36.218,20.884,27.126,32.075,5.399,9.094,-67.497
1049,0.747,36.36,20.857,27.126,32.078,5.399,9.136,-67.497
1050,0.734,36.457,20.876,27.088,32.068,5.318,9.095,-67.212
1051,0.728,36.516,20.864,27.097,32.071,5.398,9.136,-66.924
1052,0.728,36.133,20.868,27.126,32.082,5.48,9.258,-66.678
1053,0.728,36.311,20.88,27.145,32.089,5.522,9.259,-66.634
1054,0.715,36.409,20.864,27.117,32.071,5.441,9.178,-66.959
1055,0.728,36.438,20.884,27.116,32.078,5.44,9.177,-67.044
1056,0.725,36.199,20.865,27.107,32.078,5.399,9.137,-67.085
1057,0.721,36.312,20.872,27.097,32.071,5.318,9.095,-67.167
1058,0.731,36.418,20.853,27.107,32.071,5.358,9.095,-67.087
1059,0.744,36.784,20.856,27.107,32.078,5.399,9.095,-67.086
1060,0.754,36.126,20.872,27.155,32.085,5.521,9.176,-67.37
1061,0.754,36.224,20.88,27.107,32.075,5.319,8.974,-67.82
1062,0.751,36.35,20.861,27.116,32.078,5.439,8.972,-67.906
1063,0.748,36.093,20.864,27.116,32.075,5.359,8.972,-67.907
1064,0.728,36.119,20.864,27.107,32.071,5.317,8.769,-67.704
1065,0.705,36.234,20.857,27.097,32.064,5.358,8.767,-67.621
1066,0.708,36.36,20.864,27.126,32.078,5.358,8.848,-67.498
1067,0.695,35.997,20.857,27.117,32.075,5.358,8.889,-67.497
1068,0.685,36.089,20.86,27.116,32.064,5.358,8.849,-67.578
1069,0.698,36.243,20.88,27.136,32.078,5.399,8.889,-67.538
1070,0.688,36.331,20.868,27.117,32.075,5.358,8.849,-67.131
1071,0.682,35.92,20.868,27.097,32.068,5.277,8.889,-66.964
1072,0.679,36.059,20.853,27.097,32.064,5.195,8.849,-66.881
1073,0.682,36.186,20.86,27.107,32.078,5.438,9.011,-66.758
1074,0.685,36.244,20.864,27.107,32.071,5.318,9.054,-66.961
1075,0.688,36.015,20.868,27.107,32.071,5.358,9.054,-67.166
1076,0.682,36.156,20.864,27.126,32.082,5.399,9.054,-67.127
1077,0.682,36.292,20.884,27.126,32.078,5.358,9.013,-67.127
1078,0.669,36.303,20.868,27.117,32.068,5.317,8.932,-67.168
1079,0.669,35.929,20.849,27.097,32.071,5.358,8.85,-67.249
1080,0.656,36.079,20.868,27.126,32.075,5.358,8.971,-67.453
1081,0.655,36.195,20.876,27.107,32.071,5.358,8.85,-67.862
1082,0.662,36.206,20.853,27.126,32.078,5.358,8.889,-67.988
1083,0.656,35.966,20.872,27.126,32.071,5.48,8.849,-67.867
1084,0.662,36.098,20.872,27.136,32.078,5.44,8.849,-67.622
1085,0.643,36.167,20.86,27.107,32.068,5.318,8.686,-67.62
1086,0.636,36.014,20.876,27.088,32.064,5.358,8.684,-67.62
1087,0.626,35.926,20.864,27.126,32.071,5.439,8.684,-67.498
1088,0.619,36.05,20.876,27.097,32.061,5.399,8.603,-67.578
1089,0.616,36.157,20.868,27.097,32.071,5.399,8.562,-67.619
1090,0.619,35.745,20.868,27.107,32.078,5.399,8.602,-67.091
1091,0.613,35.895,20.864,27.145,32.078,5.521,8.521,-66.842
1092,0.593,35.973,20.86,27.098,32.075,5.36,8.479,-66.799
1093,0.587,36.06,20.849,27.097,32.071,5.317,8.479,-66.839
1094,0.577,35.86,20.868,27.116,32.068,5.48,8.56,-66.962
1095,0.573,35.973,20.86,27.097,32.075,5.44,8.643,-67.166
1096,0.573,36.127,20.86,27.116,32.075,5.399,8.725,-67.168
1097,0.57,36.186,20.868,27.116,32.071,5.562,8.848,-67.127
1098,0.567,35.803,20.876,27.164,32.082,5.563,9.093,-67.168
1099,0.554,35.905,20.864,27.107,32.071,5.36,9.014,-67.209
1100,0.557,36.04,20.868,27.107,32.071,5.358,9.094,-67.656
1101,0.56,36.089,20.868,27.136,32.071,5.521,9.217,-67.783
1102,0.554,35.841,20.849,27.107,32.071,5.441,9.259,-67.947
1103,0.563,35.982,20.872,27.116,32.071,5.44,9.3,-67.948
1104,0.573,36.079,20.876,27.126,32.085,5.44,9.423,-67.704
1105,0.564,36.167,20.861,27.126,32.075,5.44,9.424,-67.58
1106,0.544,35.784,20.856,27.107,32.064,5.399,9.342,-67.579
1107,0.541,35.933,20.853,27.097,32.068,5.399,9.26,-67.579
1108,0.544,36.069,20.86,27.097,32.075,5.44,9.381,-67.538
1109,0.544,36.282,20.86,27.107,32.071,5.44,9.301,-67.537
1110,0.541,35.814,20.884,27.116,32.071,5.399,9.301,-67.253
1111,0.531,35.953,20.868,27.126,32.075,5.44,9.341,-66.844
1112,0.55,36.05,20.88,27.145,32.085,5.562,9.342,-66.677
1113,0.531,35.773,20.868,27.107,32.071,5.401,9.179,-66.756
1114,0.531,35.857,20.86,27.126,32.071,5.44,9.137,-67.082
1115,0.534,35.973,20.856,27.126,32.071,5.481,9.136,-67.127
1116,0.531,36.05,20.868,27.097,32.075,5.318,9.055,-67.208
1117,0.524,35.658,20.857,27.126,32.075,5.439,9.054,-67.168
1118,0.54,35.817,20.876,27.126,32.075,5.562,9.054,-67.127
1119,0.541,35.972,20.88,27.145,32.085,5.604,9.054,-67.046
1120,0.531,36.012,20.857,27.117,32.071,5.523,8.851,-67.573
1121,0.534,35.648,20.86,27.126,32.071,5.4,8.767,-67.904
1122,0.537,35.798,20.856,27.126,32.068,5.44,8.807,-67.948
1123,0.531,35.914,20.845,27.117,32.068,5.481,8.686,-67.989
1124,0.534,35.954,20.852,27.116,32.071,5.4,8.766,-67.745
1125,0.537,35.58,20.841,27.136,32.075,5.562,8.726,-67.58
1126,0.544,35.74,20.88,27.136,32.082,5.563,8.766,-67.416
1127,0.537,35.828,20.864,27.117,32.064,5.482,8.604,-67.577
1128,0.544,35.867,20.86,27.126,32.068,5.44,8.562,-67.538
1129,0.531,35.685,20.86,27.117,32.071,5.481,8.521,-67.537
1130,0.527,35.798,20.872,27.097,32.071,5.4,8.479,-67.172
1131,0.518,35.895,20.853,27.088,32.068,5.44,8.479,-66.883
1132,0.537,35.954,20.852,27.107,32.075,5.481,8.56,-66.718
1133,0.531,35.763,20.868,27.126,32.089,5.562,8.602,-66.716
1134,0.524,35.847,20.868,27.126,32.075,5.401,8.44,-66.96
1135,0.524,35.963,20.88,27.126,32.071,5.48,8.438,-67.085
1136,0.531,35.734,20.849,27.107,32.075,5.481,8.601,-67.127
1137,0.518,35.664,20.856,27.116,32.068,5.4,8.48,-67.249
1138,0.521,35.779,20.845,27.078,32.064,5.44,8.438,-67.209
1139,0.524,35.895,20.864,27.107,32.078,5.521,8.601,-67.168
1140,0.537,35.599,20.864,27.136,32.075,5.522,8.643,-67.412
1141,0.537,35.701,20.872,27.136,32.075,5.441,8.603,-67.862
1142,0.54,35.837,20.868,27.145,32.075,5.44,8.643,-68.029
1143,0.537,35.915,20.857,27.117,32.071,5.481,8.603,-67.908
1144,0.537,35.494,20.864,27.097,32.071,5.4,8.521,-67.704
1145,0.534,35.633,20.837,27.097,32.064,5.44,8.52,-67.661
1146,0.55,35.798,20.86,27.126,32.075,5.521,8.642,-67.498
1147,0.541,35.857,20.872,27.136,32.078,5.603,8.725,-67.456
1148,0.544,35.436,20.853,27.107,32.068,5.482,8.726,-67.537
1149,0.554,35.594,20.856,27.145,32.075,5.644,8.848,-67.497
1150,0.547,35.701,20.868,27.098,32.071,5.523,8.849,-67.171
1151,0.547,35.75,20.864,27.088,32.068,5.522,9.011,-66.924
1152,0.537,35.626,20.833,27.078,32.057,5.441,8.891,-66.759
1153,0.544,35.778,20.844,27.126,32.075,5.603,9.174,-66.757
1154,0.541,35.895,20.868,27.126,32.075,5.645,9.218,-66.961
1155,0.544,35.925,20.868,27.117,32.068,5.645,9.259,-67.166
1156,0.55,35.542,20.872,27.116,32.071,5.686,9.422,-67.168
1157,0.56,35.682,20.853,27.107,32.068,5.524,9.464,-67.127
1158,0.544,35.798,20.841,27.116,32.068,5.603,9.424,-67.249
1159,0.544,35.809,20.841,27.088,32.057,5.482,9.383,-67.209
1160,0.563,35.483,20.856,27.126,32.078,5.644,9.545,-67.534
1161,0.557,35.614,20.864,27.126,32.071,5.605,9.588,-67.822
1162,0.557,35.702,20.86,27.117,32.071,5.604,9.629,-67.947
1163,0.57,35.453,20.853,27.126,32.078,5.726,9.792,-67.867
1164,0.567,35.537,20.86,27.117,32.075,5.646,9.834,-67.704
1165,0.56,35.653,20.856,27.097,32.075,5.605,9.875,-67.702
1166,0.557,35.731,20.845,27.097,32.061,5.482,9.794,-67.58
1167,0.554,35.425,20.872,27.135,32.071,5.644,10.037,-67.579
1168,0.55,35.546,20.841,27.107,32.075,5.645,9.999,-67.538
1169,0.55,35.701,20.856,27.126,32.064,5.564,10.039,-67.578
1170,0.55,35.779,20.868,27.126,32.071,5.685,10.202,-67.254
1171,0.55,35.368,20.853,27.126,32.078,5.646,10.123,-66.884
1172,0.534,35.479,20.849,27.088,32.068,5.645,10.041,-66.799
1173,0.537,35.595,20.852,27.097,32.064,5.523,9.999,-66.92
1174,0.563,35.673,20.876,27.107,32.071,5.685,10.121,-67.084
1175,0.55,35.453,20.857,27.107,32.064,5.564,9.959,-67.167
1176,0.573,35.623,20.864,27.116,32.078,5.604,10.039,-67.209
1177,0.59,35.74,20.857,27.136,32.078,5.645,10.121,-67.168
1178,0.622,35.808,20.856,27.145,32.082,5.767,10.122,-67.127
1179,0.632,35.435,20.845,27.117,32.075,5.606,10.041,-67.168
1180,0.681,35.566,20.852,27.116,32.064,5.564,9.999,-67.575
1181,0.698,35.672,20.864,27.116,32.078,5.645,10.08,-67.782
1182,0.708,35.664,20.829,27.088,32.071,5.523,9.959,-68.069
1183,0.737,35.386,20.852,27.097,32.068,5.603,10.08,-67.949
1184,0.773,35.536,20.856,27.116,32.075,5.564,10.04,-67.704
1185,0.803,35.682,20.864,27.136,32.085,5.726,10.162,-67.458
1186,0.826,35.549,20.845,27.107,32.071,5.646,9.96,-67.618
1187,0.878,35.567,20.845,27.126,32.075,5.645,9.957,-67.579
1188,0.934,35.682,20.852,27.097,32.075,5.605,9.876,-67.538
1189,0.984,35.76,20.864,27.088,32.068,5.564,9.835,-67.578
1190,1.026,35.204,20.853,27.107,32.071,5.563,9.834,-67.213
1191,1.069,35.352,20.876,27.126,32.075,5.645,9.916,-66.803
1192,1.125,35.498,20.861,27.164,32.085,5.686,10.039,-66.676
1193,1.161,35.547,20.856,27.098,32.075,5.646,9.836,-66.838
1194,1.223,35.384,20.86,27.126,32.075,5.605,9.916,-67.002
1195,1.253,35.517,20.856,27.117,32.071,5.645,9.916,-67.126
1196,1.266,35.624,20.849,27.088,32.064,5.605,9.794,-67.249
1197,1.286,35.692,20.852,27.087,32.071,5.645,9.834,-67.169
1198,1.309,35.223,20.845,27.107,32.071,5.645,9.916,-67.127
1199,1.348,35.391,20.856,27.136,32.078,5.686,9.998,-67.046
1200,1.384,35.479,20.841,27.117,32.068,5.687,9.836,-67.573
1201,1.421,35.556,20.86,27.136,32.075,5.687,9.794,-67.863
1202,1.463,35.327,20.853,27.126,32.071,5.687,9.753,-67.907
1203,1.477,35.44,20.856,27.088,32.064,5.524,9.712,-67.988
1204,1.5,35.546,20.829,27.097,32.071,5.603,9.67,-67.705
1205,1.558,35.615,20.852,27.107,32.078,5.645,9.67,-67.499
1206,1.601,35.376,20.852,27.145,32.078,5.767,9.751,-67.415
1207,1.624,35.488,20.845,27.107,32.071,5.647,9.468,-67.536
1208,1.683,35.605,20.86,27.116,32.078,5.686,9.465,-67.456
1209,1.69,35.586,20.864,27.116,32.075,5.646,9.424,-67.496
1210,1.7,35.318,20.864,27.088,32.071,5.564,9.261,-67.253
1211,1.697,35.411,20.833,27.078,32.064,5.563,9.097,-66.966
1212,1.642,35.585,20.868,27.097,32.075,5.726,9.176,-66.759
1213,1.547,35.423,20.849,27.126,32.082,5.727,9.177,-66.635
1214,1.461,35.517,20.852,27.107,32.075,5.565,9.137,-67.081
1215,1.389,35.662,20.845,27.107,32.078,5.685,9.095,-67.127
1216,1.307,35.74,20.848,27.107,32.071,5.646,8.932,-67.208
1217,1.215,35.166,20.856,27.097,32.071,5.564,8.89,-67.25
1218,1.129,35.285,20.833,27.088,32.061,5.563,8.768,-67.291
1219,1.021,35.439,20.844,27.126,32.075,5.726,8.848,-67.169
1220,0.913,35.508,20.872,27.126,32.075,5.687,8.889,-67.493
1221,0.843,35.259,20.841,27.117,32.075,5.646,8.809,-67.903
1222,0.739,35.43,20.868,27.126,32.071,5.727,8.93,-67.948
1223,0.656,35.556,20.864,27.126,32.075,5.768,8.931,-67.867
1224,0.594,35.596,20.841,27.107,32.064,5.647,8.89,-67.785
1225,0.531,35.145,20.845,27.078,32.064,5.605,9.012,-67.743
1226,0.492,35.294,20.845,27.107,32.071,5.767,9.257,-67.58
1227,0.465,35.44,20.845,27.097,32.068,5.647,9.422,-67.538
1228,0.442,35.479,20.837,27.107,32.071,5.767,9.627,-67.537
1229,0.403,35.317,20.837,27.116,32.082,5.768,9.873,-67.537
1230,0.409,35.469,20.852,27.116,32.075,5.687,9.997,-67.212
1231,0.399,35.556,20.856,27.107,32.068,5.646,10.161,-66.965
1232,0.396,35.576,20.833,27.088,32.064,5.605,10.122,-66.841
1233,0.409,35.299,20.841,27.107,32.075,5.808,10.284,-66.717
1234,0.416,35.392,20.841,27.097,32.075,5.728,10.367,-67.041
1235,0.435,35.527,20.833,27.126,32.075,5.768,10.449,-67.167
1236,0.445,35.288,20.852,27.126,32.075,5.768,10.45,-67.127
1237,0.481,35.296,20.86,27.126,32.078,5.728,10.491,-67.208
1238,0.488,35.392,20.841,27.088,32.071,5.646,10.369,-67.209
1239,0.517,35.469,20.837,27.097,32.064,5.645,10.287,-67.25
1240,0.531,35.173,20.833,27.126,32.071,5.767,10.367,-67.535
1241,0.557,35.294,20.833,27.117,32.071,5.687,10.328,-67.904
1242,0.573,35.42,20.821,27.116,32.064,5.768,10.246,-67.988
1243,0.593,35.517,20.848,27.136,32.075,5.768,10.164,-67.908
1244,0.6,35.269,20.849,27.136,32.075,5.809,10.163,-67.704
1245,0.596,35.401,20.829,27.107,32.064,5.606,10.041,-67.661
1246,0.613,35.498,20.841,27.097,32.061,5.645,9.918,-67.702
1247,0.619,35.585,20.845,27.116,32.071,5.686,9.916,-67.539
1248,0.626,35.193,20.837,27.107,32.068,5.727,9.794,-67.619
1249,0.632,35.343,20.848,27.097,32.075,5.687,9.753,-67.62
1250,0.655,35.478,20.845,27.107,32.071,5.768,9.793,-67.213
1251,0.662,35.547,20.864,27.107,32.078,5.768,9.712,-66.884
1252,0.652,35.154,20.841,27.088,32.071,5.728,9.467,-66.881
1253,0.652,35.285,20.833,27.087,32.064,5.646,9.465,-66.881
1254,0.668,35.411,20.856,27.107,32.075,5.808,9.546,-67.084
1255,0.665,35.421,20.853,27.107,32.071,5.728,9.384,-67.127
1256,0.665,35.249,20.833,27.097,32.071,5.687,9.342,-67.249
1257,0.669,35.391,20.841,27.116,32.078,5.727,9.26,-67.169
1258,0.669,35.508,20.856,27.126,32.078,5.727,9.259,-67.168
1259,0.649,35.394,20.837,27.088,32.068,5.687,9.219,-67.249
1260,0.652,35.201,20.833,27.097,32.064,5.646,9.137,-67.616
1261,0.662,35.333,20.86,27.116,32.075,5.727,9.299,-67.782
1262,0.662,35.43,20.849,27.097,32.071,5.687,9.301,-67.987
1263,0.662,35.22,20.833,27.107,32.075,5.687,9.423,-67.989
1264,0.662,35.324,20.848,27.107,32.078,5.727,9.546,-67.623
1265,0.669,35.478,20.856,27.145,32.078,5.809,9.75,-67.538
1266,0.656,35.528,20.856,27.078,32.068,5.647,9.752,-67.578
1267,0.655,35.135,20.837,27.087,32.068,5.645,9.833,-67.619
1268,0.649,35.265,20.852,27.107,32.064,5.645,9.997,-67.579
1269,0.655,35.363,20.845,27.097,32.068,5.686,10.121,-67.66
1270,0.662,35.488,20.833,27.097,32.068,5.646,10.244,-67.214
1271,0.669,35.183,20.844,27.088,32.078,5.727,10.286,-66.884
1272,0.672,35.342,20.864,27.135,32.085,5.89,10.408,-66.677
1273,0.652,35.43,20.849,27.078,32.068,5.648,10.328,-66.797
1274,0.662,35.498,20.845,27.107,32.071,5.645,10.408,-67.042
1275,0.662,35.173,20.829,27.097,32.075,5.686,10.409,-67.126
1276,0.669,35.304,20.841,27.097,32.071,5.646,10.369,-67.249
1277,0.652,35.43,20.837,27.097,32.071,5.686,10.409,-67.209
1278,0.662,35.47,20.837,27.107,32.071,5.727,10.491,-67.168
1279,0.669,35.259,20.86,27.136,32.089,5.809,10.614,-67.087
1280,0.659,35.362,20.841,27.126,32.071,5.688,10.371,-67.614
1281,0.662,35.488,20.837,27.126,32.071,5.727,10.409,-67.904
1282,0.662,35.681,20.845,27.117,32.071,5.727,10.328,-67.988
1283,0.665,35.194,20.841,27.088,32.064,5.646,10.205,-67.989
1284,0.649,35.333,20.821,27.087,32.068,5.605,10.245,-67.705
1285,0.659,35.449,20.852,27.116,32.071,5.726,10.286,-67.621
1286,0.682,35.259,20.864,27.126,32.089,5.809,10.367,-67.376
1287,0.652,35.267,20.841,27.117,32.068,5.525,10.124,-67.617
1288,0.668,35.401,20.852,27.126,32.075,5.685,10.163,-67.538
1289,0.669,35.489,20.841,27.107,32.071,5.687,10.204,-67.578
1290,0.662,35.144,20.845,27.088,32.064,5.605,10.163,-67.335
1291,0.652,35.275,20.833,27.097,32.068,5.564,10.163,-66.966
1292,0.668,35.42,20.844,27.107,32.075,5.685,10.244,-66.759
1293,0.678,35.527,20.841,27.145,32.085,5.727,10.367,-66.676
1294,0.678,35.068,20.837,27.098,32.068,5.646,10.206,-67.082
1295,0.688,35.236,20.856,27.116,32.078,5.686,10.245,-67.127
1296,0.685,35.343,20.849,27.107,32.071,5.564,10.245,-67.208
1297,0.672,35.392,20.821,27.088,32.064,5.604,10.082,-67.331
1298,0.678,35.114,20.837,27.068,32.061,5.564,10.081,-67.251
1299,0.682,35.284,20.841,27.097,32.078,5.645,10.162,-67.128
1300,0.688,35.411,20.829,27.135,32.082,5.686,10.163,-67.493
1301,0.682,35.469,20.837,27.126,32.071,5.646,10.082,-67.944
1302,0.688,35.163,20.852,27.126,32.075,5.605,10.081,-67.948
1303,0.682,35.275,20.837,27.117,32.068,5.645,9.959,-67.948
1304,0.679,35.372,20.829,27.088,32.071,5.523,9.835,-67.826
1305,0.678,35.392,20.833,27.078,32.064,5.522,9.834,-67.662
1306,0.678,35.191,20.833,27.097,32.075,5.644,9.875,-67.58
1307,0.682,35.343,20.825,27.126,32.078,5.727,9.835,-67.538
1308,0.682,35.43,20.852,27.117,32.068,5.565,9.712,-67.578
1309,0.698,35.316,20.852,27.126,32.075,5.645,9.67,-67.538
1310,0.682,35.181,20.841,27.097,32.071,5.564,9.589,-67.212
1311,0.669,35.295,20.845,27.088,32.071,5.523,9.425,-66.965
1312,0.665,35.382,20.837,27.078,32.061,5.441,9.383,-66.841
1313,0.682,35.028,20.841,27.116,32.071,5.603,9.382,-66.799
1314,0.682,35.14,20.848,27.126,32.089,5.686,9.423,-66.92
1315,0.682,35.237,20.841,27.126,32.071,5.564,9.18,-67.166
1316,0.695,35.324,20.86,27.126,32.078,5.645,9.218,-67.168
1317,0.695,35.133,20.856,27.107,32.071,5.605,9.096,-67.249
1318,0.688,35.284,20.821,27.097,32.068,5.482,8.932,-67.209
1319,0.688,35.392,20.821,27.068,32.068,5.4,8.85,-67.29
1320,0.695,35.479,20.844,27.126,32.078,5.602,8.93,-67.535
1321,0.698,35.058,20.86,27.117,32.078,5.604,8.931,-67.782
1322,0.698,35.197,20.837,27.097,32.071,5.482,8.768,-67.987
1323,0.701,35.314,20.852,27.116,32.078,5.562,8.726,-67.908
1324,0.708,35.382,20.852,27.097,32.071,5.523,8.726,-67.745
1325,0.682,35.162,20.829,27.088,32.068,5.482,8.644,-67.702
1326,0.688,35.304,20.817,27.068,32.057,5.4,8.603,-67.743
1327,0.695,35.44,20.833,27.116,32.071,5.48,8.765,-67.621
1328,0.688,35.47,20.833,27.116,32.075,5.522,8.807,-67.579
1329,0.695,35.067,20.825,27.088,32.068,5.482,8.93,-67.619
1330,0.705,35.207,20.841,27.097,32.078,5.522,9.093,-67.132
1331,0.702,35.352,20.852,27.126,32.085,5.522,9.176,-66.924
1332,0.679,35.689,20.837,27.088,32.071,5.482,9.177,-66.922
1333,0.691,35.165,20.837,27.078,32.061,5.4,9.259,-66.84
1334,0.701,35.304,20.86,27.097,32.071,5.521,9.341,-67.002
1335,0.695,35.392,20.837,27.097,32.071,5.4,9.423,-67.207
1336,0.695,35.057,20.825,27.107,32.071,5.399,9.424,-67.209
1337,0.705,35.111,20.852,27.107,32.071,5.562,9.505,-67.209
1338,0.721,35.246,20.852,27.145,32.078,5.563,9.546,-67.128
1339,0.702,35.324,20.825,27.098,32.064,5.401,9.344,-67.249
1340,0.708,35.123,20.821,27.116,32.075,5.399,9.382,-67.697
1341,0.718,35.256,20.844,27.116,32.071,5.48,9.382,-67.865
1342,0.718,35.372,20.837,27.107,32.064,5.44,9.382,-68.029
1343,0.728,35.46,20.837,27.116,32.071,5.44,9.423,-68.03
1344,0.731,35.019,20.841,27.088,32.075,5.481,9.342,-67.705
1345,0.741,35.187,20.845,27.126,32.082,5.562,9.301,-67.58
1346,0.721,35.275,20.837,27.097,32.068,5.401,9.138,-67.579
1347,0.721,35.343,20.841,27.088,32.071,5.48,9.095,-67.619
1348,0.711,35.047,20.852,27.107,32.068,5.481,9.176,-67.579
1349,0.715,35.169,20.821,27.097,32.064,5.4,9.096,-67.701
1350,0.724,35.275,20.829,27.088,32.071,5.48,9.014,-67.295
1351,0.724,35.363,20.844,27.097,32.075,5.481,9.094,-66.966
1352,0.731,35.076,20.845,27.145,32.092,5.644,9.176,-66.719
1353,0.712,35.178,20.86,27.088,32.068,5.401,8.974,-66.919
1354,0.724,35.314,20.849,27.107,32.075,5.48,8.972,-67.044
1355,0.731,35.334,20.841,27.097,32.071,5.522,9.053,-67.126
1356,0.728,35.018,20.837,27.088,32.064,5.4,9.013,-67.208
1357,0.738,35.159,20.841,27.097,32.068,5.48,9.216,-67.25
1358,0.744,35.275,20.833,27.116,32.078,5.481,9.422,-67.209
1359,0.744,35.2,20.852,27.126,32.089,5.562,9.627,-67.046
1360,0.741,35.103,20.849,27.088,32.065,5.441,9.588,-67.573
1361,0.751,35.227,20.849,27.126,32.071,5.521,9.751,-67.863
1362,0.754,35.333,20.829,27.107,32.071,5.482,9.793,-67.988
1363,0.741,34.951,20.813,27.107,32.061,5.4,9.793,-68.111
1364,0.738,35.024,20.813,27.088,32.061,5.44,9.956,-67.787
1365,0.76,35.197,20.829,27.116,32.075,5.521,10.08,-67.621
1366,0.754,35.295,20.852,27.126,32.082,5.563,10.243,-67.498
1367,0.748,35.037,20.841,27.097,32.068,5.482,10.164,-67.619
1368,0.754,35.197,20.833,27.116,32.071,5.481,10.285,-67.579
1369,0.751,35.304,20.825,27.107,32.075,5.481,10.286,-67.579
1370,0.754,35.363,20.844,27.088,32.061,5.4,10.245,-67.294
1371,0.744,34.932,20.821,27.078,32.061,5.318,10.204,-66.966
1372,0.76,35.1,20.833,27.097,32.075,5.52,10.326,-66.759
1373,0.751,35.217,20.837,27.107,32.078,5.563,10.368,-66.757
1374,0.764,35.276,20.829,27.097,32.078,5.482,10.246,-66.961
1375,0.77,34.989,20.825,27.107,32.071,5.481,10.286,-67.125
1376,0.767,35.11,20.844,27.116,32.071,5.481,10.164,-67.168
1377,0.77,35.208,20.825,27.097,32.068,5.44,10.082,-67.209
1378,0.774,35.237,20.817,27.088,32.061,5.318,9.959,-67.372
1379,0.774,34.979,20.833,27.116,32.068,5.52,9.998,-67.211
1380,0.777,35.11,20.837,27.107,32.071,5.482,10.039,-67.453
1381,0.784,35.236,20.825,27.126,32.064,5.44,9.999,-67.903
1382,0.78,35.497,20.841,27.117,32.071,5.481,10.039,-67.988
1383,0.797,34.972,20.833,27.107,32.064,5.481,10.121,-68.03
1384,0.787,35.081,20.841,27.088,32.064,5.359,10.081,-67.827
1385,0.787,35.169,20.821,27.078,32.054,5.317,10.081,-67.784
1386,0.793,34.863,20.829,27.107,32.071,5.48,10.365,-67.621
1387,0.793,34.927,20.825,27.088,32.071,5.44,10.531,-67.579
1388,0.806,35.062,20.833,27.097,32.068,5.399,10.573,-67.619
1389,0.816,35.169,20.872,27.107,32.075,5.44,10.858,-67.579
1390,0.82,34.882,20.841,27.097,32.068,5.44,10.861,-67.213
1391,0.807,34.994,20.821,27.088,32.064,5.318,10.902,-66.965
1392,0.794,35.12,20.84,27.078,32.057,5.358,10.902,-66.922
1393,0.813,35.227,20.845,27.107,32.075,5.439,11.024,-66.759
1394,0.816,34.95,20.813,27.097,32.071,5.399,10.985,-67.001
1395,0.836,35.11,20.829,27.097,32.064,5.399,10.984,-67.207
1396,0.833,35.236,20.837,27.107,32.071,5.48,11.025,-67.209
1397,0.823,35.333,20.841,27.126,32.075,5.481,10.985,-67.168
1398,0.817,34.845,20.837,27.088,32.064,5.4,10.862,-67.249
1399,0.826,34.975,20.817,27.087,32.068,5.358,10.739,-67.25
1400,0.82,35.101,20.817,27.107,32.071,5.399,10.738,-67.616
1401,0.83,35.15,20.821,27.107,32.068,5.48,10.697,-67.904
1402,0.843,34.978,20.837,27.107,32.071,5.4,10.616,-67.988
1403,0.853,35.11,20.825,27.116,32.071,5.399,10.574,-67.949
1404,0.856,35.275,20.829,27.116,32.071,5.44,10.492,-67.745
1405,0.84,35.257,20.829,27.097,32.071,5.318,10.369,-67.662
1406,0.852,34.883,20.821,27.068,32.057,5.317,10.287,-67.702
1407,0.853,35.033,20.813,27.097,32.075,5.398,10.327,-67.58
1408,0.843,35.13,20.833,27.097,32.064,5.399,10.286,-67.619
1409,0.856,34.968,20.837,27.088,32.068,5.358,10.245,-67.62
1410,0.869,34.928,20.833,27.107,32.075,5.317,10.367,-67.254
1411,0.879,35.1,20.856,27.126,32.075,5.48,10.409,-66.966
1412,0.866,35.15,20.833,27.088,32.064,5.359,10.369,-66.841
1413,0.859,34.834,20.817,27.097,32.068,5.358,10.328,-66.962
1414,0.869,34.984,20.833,27.097,32.075,5.358,10.449,-67.044
1415,0.876,35.082,20.809,27.088,32.061,5.358,10.41,-67.207
1416,0.882,35.188,20.836,27.078,32.061,5.399,10.45,-67.29
1417,0.892,34.863,20.825,27.097,32.075,5.44,10.491,-67.21
1418,0.889,35.023,20.856,27.145,32.078,5.521,10.532,-67.128
1419,0.889,35.12,20.833,27.088,32.068,5.36,10.329,-67.249
1420,0.899,35.208,20.825,27.107,32.075,5.399,10.327,-67.657
1421,0.908,34.892,20.829,27.107,32.071,5.399,10.286,-67.864
1422,0.905,35.014,20.809,27.097,32.064,5.399,10.164,-68.029
1423,0.905,35.111,20.825,27.078,32.068,5.399,10.122,-67.949
1424,0.908,35.217,20.841,27.126,32.071,5.44,10.163,-67.664
1425,0.921,35.007,20.841,27.145,32.078,5.562,10.163,-67.498
1426,0.918,35.13,20.821,27.088,32.071,5.401,9.96,-67.619
1427,0.925,35.265,20.825,27.116,32.071,5.44,9.917,-67.579
1428,0.925,35.295,20.825,27.088,32.071,5.44,9.876,-67.579
1429,0.925,35.085,20.821,27.087,32.061,5.318,9.753,-67.66
1430,0.925,35.188,20.825,27.068,32.061,5.358,9.671,-67.336
1431,0.941,35.352,20.829,27.087,32.071,5.399,9.67,-66.926
1432,0.935,35.469,20.833,27.097,32.071,5.48,9.629,-66.8
1433,0.938,35.096,20.841,27.107,32.064,5.44,9.588,-66.88
1434,0.948,35.246,20.825,27.107,32.075,5.521,9.588,-67.084
1435,0.951,35.324,20.829,27.107,32.068,5.482,9.669,-67.167
1436,0.958,35.2,20.829,27.078,32.064,5.44,9.589,-67.29
1437,0.948,35.276,20.829,27.087,32.057,5.359,9.547,-67.332
1438,0.971,35.449,20.844,27.107,32.071,5.48,9.669,-67.21
1439,0.971,35.518,20.841,27.116,32.075,5.603,9.711,-67.128
1440,0.968,35.384,20.841,27.107,32.071,5.482,9.63,-67.574
1441,0.971,35.527,20.829,27.116,32.078,5.562,9.71,-67.823
1442,0.987,35.662,20.837,27.097,32.078,5.563,9.67,-67.947
1443,0.978,35.721,20.825,27.088,32.064,5.523,9.711,-68.03
1444,0.974,35.53,20.805,27.078,32.064,5.441,9.589,-67.786
1445,0.987,35.72,20.829,27.107,32.071,5.643,9.669,-67.662
1446,1.004,35.847,20.833,27.107,32.071,5.645,9.751,-67.498
1447,1.01,35.886,20.825,27.088,32.068,5.605,9.59,-67.659
1448,1.001,35.733,20.825,27.097,32.071,5.686,9.547,-67.58
1449,1.01,35.856,20.841,27.107,32.075,5.605,9.588,-67.66
1450,1.001,35.934,20.821,27.068,32.064,5.523,9.466,-67.295
1451,0.997,35.983,20.805,27.049,32.061,5.522,9.343,-67.047
1452,1.01,36.051,20.836,27.097,32.075,5.644,9.545,-66.801
1453,1.007,36.185,20.833,27.097,32.078,5.686,9.628,-66.758
1454,1.01,36.283,20.829,27.088,32.068,5.646,9.466,-67.082
1455,1.01,36.312,20.821,27.097,32.075,5.727,9.587,-67.086
1456,1.014,36.351,20.844,27.107,32.064,5.687,9.507,-67.249
1457,1.017,36.447,20.813,27.088,32.068,5.605,9.465,-67.291
1458,1.007,36.544,20.833,27.068,32.057,5.686,9.302,-67.332
1459,1.017,36.612,20.817,27.097,32.075,5.727,9.382,-67.17
1460,1.01,36.671,20.829,27.088,32.071,5.687,9.382,-67.615
1461,1.01,36.815,20.821,27.097,32.064,5.687,9.301,-67.904
1462,1.023,36.912,20.829,27.107,32.075,5.687,9.301,-67.948
1463,1.036,36.702,20.841,27.116,32.078,5.768,9.26,-67.948
1464,1.03,36.767,20.833,27.088,32.068,5.565,9.178,-67.786
1465,1.027,36.893,20.829,27.087,32.064,5.604,9.055,-67.825
1466,1.04,36.971,20.833,27.107,32.075,5.645,9.095,-67.622
1467,1.03,36.933,20.841,27.088,32.064,5.645,9.014,-67.701
1468,1.04,37.086,20.837,27.087,32.071,5.686,8.932,-67.58
1469,1.04,37.193,20.829,27.107,32.075,5.687,9.012,-67.619
1470,1.066,37.271,20.844,27.126,32.078,5.768,9.054,-67.295
1471,1.03,37.291,20.825,27.088,32.064,5.606,9.013,-66.966
1472,1.037,37.425,20.844,27.087,32.064,5.645,8.972,-66.963
1473,1.037,37.522,20.841,27.087,32.075,5.727,9.216,-66.881
1474,1.014,37.581,20.813,27.068,32.071,5.646,9.218,-67.084
1475,1.02,37.409,20.825,27.097,32.071,5.645,9.34,-67.167
1476,1.023,37.532,20.825,27.107,32.071,5.686,9.545,-67.249
1477,1.036,37.639,20.852,27.136,32.085,5.809,9.71,-67.128
1478,1.024,37.659,20.821,27.088,32.068,5.688,9.67,-67.29
1479,1.03,37.745,20.809,27.087,32.068,5.727,9.751,-67.332
1480,1.017,37.852,20.829,27.097,32.071,5.727,9.793,-67.617
1481,1.001,37.929,20.821,27.068,32.064,5.605,9.753,-67.904
1482,1.004,38.026,20.829,27.106,32.075,5.686,9.874,-68.07
1483,1.007,37.922,20.821,27.097,32.075,5.687,9.835,-68.072
1484,1.007,38.045,20.856,27.107,32.085,5.809,9.997,-67.624
1485,0.997,38.104,20.821,27.078,32.068,5.647,9.795,-67.66
1486,1.004,38.105,20.829,27.116,32.078,5.645,9.793,-67.539
1487,0.984,38.201,20.837,27.097,32.071,5.645,9.793,-67.619
1488,0.971,38.297,20.821,27.088,32.068,5.523,9.712,-67.62
1489,0.958,38.356,20.813,27.087,32.064,5.685,9.67,-67.742
1490,0.958,38.174,20.813,27.078,32.078,5.687,9.67,-67.214
1491,0.951,38.326,20.833,27.107,32.082,5.768,9.711,-66.803
1492,0.938,38.414,20.817,27.078,32.071,5.647,9.508,-66.88
1493,0.935,38.491,20.844,27.087,32.078,5.645,9.506,-66.799
1494,0.928,38.3,20.837,27.087,32.078,5.645,9.465,-67.042
1495,0.915,38.423,20.829,27.078,32.061,5.523,9.262,-67.207
1496,0.909,38.52,20.825,27.078,32.064,5.522,9.3,-67.209
1497,0.915,38.598,20.833,27.097,32.078,5.685,9.341,-67.168
1498,0.912,38.541,20.829,27.107,32.085,5.687,9.342,-67.087
1499,0.908,38.636,20.837,27.088,32.068,5.605,9.138,-67.289
1500,0.882,38.772,20.829,27.107,32.082,5.604,9.258,-67.576
1501,0.872,38.783,20.833,27.097,32.071,5.645,9.137,-67.945
1502,0.863,38.495,20.833,27.088,32.071,5.564,8.974,-68.03
1503,0.859,38.645,20.833,27.078,32.068,5.563,8.972,-67.908
1504,0.866,38.762,20.817,27.087,32.078,5.645,8.931,-67.704
1505,0.869,38.792,20.833,27.135,32.082,5.727,9.053,-67.499
1506,0.85,38.648,20.821,27.098,32.071,5.565,8.81,-67.7
1507,0.843,38.781,20.829,27.116,32.064,5.685,8.97,-67.539
1508,0.836,38.859,20.825,27.088,32.071,5.687,8.972,-67.578
1509,0.817,38.63,20.837,27.068,32.061,5.564,8.972,-67.701
1510,0.81,38.666,20.805,27.068,32.057,5.563,9.135,-67.295
1511,0.81,38.801,20.84,27.097,32.075,5.604,9.339,-66.925
1512,0.816,38.907,20.837,27.116,32.082,5.767,9.586,-66.718
1513,0.79,38.726,20.817,27.088,32.068,5.606,9.629,-66.879
1514,0.784,38.878,20.833,27.107,32.075,5.645,9.832,-67.043
1515,0.777,38.975,20.809,27.097,32.071,5.645,10.038,-67.207
1516,0.767,39.034,20.805,27.078,32.064,5.523,10.08,-67.29
1517,0.767,38.622,20.817,27.087,32.071,5.603,10.243,-67.251
1518,0.757,38.771,20.837,27.107,32.068,5.604,10.408,-67.25
1519,0.764,38.898,20.837,27.126,32.085,5.767,10.613,-67.047
1520,0.748,38.918,20.845,27.078,32.071,5.565,10.493,-67.655
1521,0.757,38.736,20.829,27.107,32.068,5.604,10.573,-67.905
1522,0.751,38.878,20.821,27.097,32.075,5.686,10.614,-67.988
1523,0.738,38.956,20.825,27.068,32.071,5.564,10.574,-68.111
1524,0.728,38.986,20.821,27.078,32.064,5.604,10.574,-67.787
1525,0.731,38.756,20.829,27.107,32.071,5.686,10.655,-67.581
1526,0.744,38.897,20.825,27.116,32.078,5.768,10.737,-67.497
1527,0.725,38.966,20.821,27.078,32.064,5.647,10.535,-67.7
1528,0.728,38.995,20.825,27.107,32.071,5.686,10.492,-67.621
1529,0.715,38.833,20.821,27.097,32.075,5.687,10.451,-67.66
1530,0.705,38.946,20.817,27.068,32.061,5.605,10.288,-67.417
1531,0.689,39.024,20.797,27.039,32.064,5.604,10.327,-67.008
1532,0.692,38.986,20.813,27.097,32.071,5.645,10.246,-66.801
1533,0.692,38.842,20.809,27.107,32.085,5.767,10.326,-66.758
1534,0.692,38.917,20.829,27.097,32.071,5.606,10.165,-67.082
1535,0.688,39.033,20.825,27.097,32.078,5.686,10.122,-67.208
1536,0.688,38.756,20.833,27.107,32.071,5.646,10.041,-67.25
1537,0.672,38.84,20.829,27.068,32.064,5.605,9.918,-67.331
1538,0.659,38.927,20.798,27.068,32.057,5.604,9.794,-67.332
1539,0.691,39.053,20.813,27.087,32.068,5.604,9.915,-67.21
1540,0.682,38.737,20.821,27.087,32.082,5.726,9.876,-67.534
1541,0.679,38.888,20.837,27.097,32.068,5.687,9.753,-67.904
1542,0.688,39.004,20.837,27.107,32.071,5.687,9.874,-67.948
1543,0.679,39.053,20.841,27.088,32.071,5.646,9.916,-68.07
1544,0.665,38.584,20.802,27.087,32.064,5.645,9.794,-67.909
1545,0.672,38.694,20.813,27.049,32.061,5.564,9.793,-67.826
1546,0.669,38.839,20.817,27.097,32.071,5.685,9.956,-67.581
1547,0.662,38.889,20.825,27.078,32.064,5.646,9.917,-67.579
1548,0.665,38.726,20.829,27.078,32.068,5.645,10.079,-67.579
1549,0.669,38.868,20.825,27.097,32.075,5.727,10.081,-67.579
1550,0.675,39.014,20.817,27.126,32.078,5.727,10.081,-67.213
1551,0.656,38.996,20.809,27.059,32.075,5.646,10.081,-67.006
1552,0.649,38.65,20.805,27.078,32.064,5.645,9.999,-66.922
1553,0.646,38.781,20.813,27.087,32.071,5.808,10.08,-66.84
1554,0.652,38.859,20.84,27.078,32.068,5.728,10.121,-67.002
1555,0.652,39.129,20.813,27.068,32.068,5.727,10.163,-67.207
1556,0.668,38.7,20.825,27.087,32.078,5.809,10.244,-67.29
1557,0.675,38.839,20.848,27.126,32.078,5.769,10.286,-67.169
1558,0.656,38.889,20.813,27.078,32.064,5.728,10.245,-67.371
1559,0.659,38.563,20.825,27.078,32.064,5.727,10.164,-67.292
1560,0.662,38.569,20.825,27.087,32.068,5.768,10.366,-67.576
1561,0.646,38.675,20.801,27.078,32.061,5.647,10.287,-67.985
1562,0.652,38.762,20.825,27.087,32.068,5.686,10.367,-67.989
1563,0.665,38.456,20.805,27.087,32.071,5.809,10.409,-68.03
1564,0.669,38.607,20.844,27.126,32.078,5.891,10.653,-67.664
1565,0.649,38.695,20.821,27.078,32.064,5.648,10.574,-67.702
1566,0.655,38.763,20.825,27.097,32.071,5.686,10.533,-67.58
1567,0.662,38.437,20.833,27.078,32.075,5.727,10.532,-67.619
1568,0.652,38.578,20.809,27.078,32.064,5.646,10.492,-67.701
1569,0.659,38.685,20.817,27.068,32.064,5.686,10.695,-67.702
1570,0.669,38.753,20.829,27.087,32.075,5.768,10.819,-67.336
1571,0.678,38.466,20.825,27.097,32.078,5.85,11.145,-66.844
1572,0.662,38.588,20.821,27.068,32.064,5.769,11.23,-66.88
1573,0.659,38.694,20.825,27.087,32.071,5.728,11.597,-66.799
1574,0.669,38.734,20.821,27.087,32.071,5.768,11.844,-67.083
1575,0.659,38.399,20.813,27.059,32.064,5.728,11.928,-67.289
1576,0.659,38.501,20.801,27.068,32.057,5.646,12.132,-67.251
1577,0.675,38.655,20.836,27.106,32.071,5.808,12.378,-67.169
1578,0.665,38.638,20.837,27.097,32.071,5.769,12.584,-67.249
1579,0.656,38.359,20.802,27.078,32.068,5.728,12.464,-67.209
1580,0.659,38.491,20.836,27.107,32.075,5.809,12.544,-67.534
1581,0.669,38.559,20.817,27.088,32.064,5.728,12.545,-67.985
1582,0.669,38.406,20.821,27.087,32.057,5.687,12.464,-68.071
1583,0.669,38.242,20.801,27.068,32.05,5.564,12.3,-68.112
1584,0.682,38.413,20.813,27.087,32.068,5.726,12.502,-67.747
1585,0.679,38.491,20.817,27.078,32.068,5.687,12.382,-67.662
1586,0.682,38.195,20.801,27.087,32.064,5.646,12.299,-67.62
1587,0.666,38.316,20.817,27.107,32.075,5.808,12.217,-67.579
1588,0.662,38.452,20.837,27.088,32.078,5.728,12.176,-67.619
1589,0.659,38.482,20.813,27.059,32.071,5.605,12.053,-67.62
1590,0.652,38.128,20.805,27.058,32.061,5.604,11.849,-67.498
1591,0.655,38.297,20.821,27.068,32.071,5.686,11.887,-66.968
1592,0.652,38.385,20.821,27.068,32.071,5.687,11.806,-66.841
1593,0.646,38.472,20.817,27.087,32.068,5.687,11.643,-66.88
1594,0.672,38.166,20.84,27.087,32.071,5.768,11.601,-67.003
1595,0.675,38.316,20.841,27.107,32.082,5.768,11.478,-67.126
1596,0.659,38.375,20.813,27.088,32.061,5.687,11.314,-67.371
1597,0.675,38.433,20.836,27.068,32.064,5.727,11.15,-67.292
1598,0.678,38.07,20.817,27.087,32.071,5.727,11.067,-67.21
1599,0.675,38.191,20.817,27.068,32.064,5.727,10.944,-67.29
1600,0.672,38.316,20.801,27.087,32.071,5.727,10.821,-67.576
1601,0.678,38.356,20.829,27.107,32.068,5.768,10.739,-67.863
1602,0.704,38.145,20.829,27.107,32.075,5.768,10.738,-67.947
1603,0.695,38.23,20.813,27.088,32.061,5.728,10.453,-68.07
1604,0.669,38.336,20.805,27.068,32.061,5.687,10.247,-67.949
1605,0.672,38.663,20.821,27.078,32.071,5.727,10.367,-67.704
1606,0.678,38.034,20.813,27.087,32.068,5.687,10.206,-67.661
1607,0.685,38.171,20.817,27.078,32.068,5.727,10.082,-67.661
1608,0.688,38.249,20.821,27.107,32.071,5.727,9.999,-67.58
1609,0.685,38.001,20.829,27.107,32.078,5.809,9.958,-67.579
1610,0.672,38.017,20.813,27.068,32.061,5.769,9.754,-67.294
1611,0.672,38.123,20.813,27.078,32.064,5.728,9.671,-67.047
1612,0.665,38.239,20.825,27.078,32.068,5.727,9.67,-66.882
1613,0.659,37.933,20.809,27.068,32.064,5.646,9.548,-66.881
1614,0.665,38.074,20.809,27.087,32.071,5.727,9.506,-67.043
1615,0.672,38.191,20.813,27.087,32.075,5.687,9.506,-67.167
1616,0.688,38.288,20.829,27.116,32.085,5.849,9.628,-67.087
1617,0.682,37.79,20.813,27.078,32.078,5.688,9.507,-67.208
1618,0.688,37.929,20.821,27.087,32.071,5.687,9.709,-67.209
1619,0.682,38.026,20.801,27.068,32.068,5.727,9.752,-67.29
1620,0.679,38.085,20.809,27.078,32.064,5.687,9.833,-67.616
1621,0.669,37.893,20.801,27.068,32.057,5.646,9.956,-67.945
1622,0.682,38.045,20.813,27.087,32.071,5.808,9.998,-67.948
1623,0.685,38.181,20.836,27.116,32.078,5.85,10.161,-67.908
1624,0.685,38.172,20.817,27.069,32.064,5.607,10.082,-67.867
1625,0.695,37.866,20.821,27.097,32.068,5.767,10.162,-67.744
1626,0.688,37.978,20.801,27.088,32.068,5.728,10.0,-67.621
1627,0.679,38.055,20.821,27.078,32.057,5.646,10.039,-67.66
1628,0.669,38.075,20.794,27.039,32.061,5.605,9.958,-67.702
1629,0.682,37.836,20.817,27.077,32.075,5.808,10.08,-67.621
1630,0.688,37.987,20.821,27.116,32.082,5.85,10.121,-67.254
1631,0.679,38.056,20.821,27.069,32.068,5.769,9.878,-66.966
1632,0.688,37.884,20.805,27.078,32.078,5.85,9.916,-66.759
1633,0.695,37.824,20.825,27.078,32.068,5.81,9.876,-66.798
1634,0.692,37.91,20.798,27.059,32.057,5.647,9.672,-67.124
1635,0.692,38.007,20.809,27.049,32.054,5.645,9.507,-67.29
1636,0.685,37.71,20.813,27.097,32.068,5.767,9.628,-67.251
1637,0.675,37.813,20.805,27.068,32.068,5.768,9.588,-67.169
1638,0.695,37.92,20.825,27.058,32.068,5.768,9.547,-67.29
1639,0.701,38.036,20.837,27.087,32.075,5.768,9.588,-67.291
1640,0.698,37.701,20.809,27.097,32.071,5.728,9.588,-67.535
1641,0.698,37.813,20.821,27.059,32.064,5.727,9.588,-67.944
1642,0.705,37.929,20.805,27.058,32.064,5.687,9.669,-68.111
1643,0.715,38.007,20.821,27.087,32.068,5.809,9.833,-67.99
1644,0.692,37.787,20.809,27.068,32.061,5.728,9.834,-67.867
1645,0.698,37.938,20.813,27.068,32.071,5.768,9.956,-67.704
1646,0.705,38.065,20.817,27.087,32.064,5.809,10.161,-67.539
1647,0.711,38.123,20.825,27.116,32.075,5.891,10.285,-67.537
1648,0.702,37.625,20.798,27.069,32.068,5.811,10.367,-67.66
1649,0.711,37.745,20.801,27.078,32.064,5.728,10.49,-67.702
1650,0.708,37.861,20.821,27.087,32.078,5.89,10.695,-67.295
1651,0.695,37.882,20.813,27.059,32.071,5.811,10.737,-67.047
1652,0.701,37.776,20.817,27.068,32.064,5.81,10.86,-66.882
1653,0.701,37.919,20.833,27.087,32.068,5.891,10.902,-66.84
1654,0.714,38.026,20.817,27.107,32.078,5.933,10.983,-67.083
1655,0.708,38.113,20.821,27.078,32.061,5.811,10.944,-67.208
1656,0.705,37.731,20.798,27.087,32.064,5.85,10.902,-67.331
1657,0.708,37.832,20.809,27.068,32.075,5.851,10.943,-67.21
1658,0.708,37.948,20.805,27.058,32.057,5.851,10.821,-67.331
1659,0.721,37.643,20.813,27.087,32.064,5.891,10.82,-67.292
1660,0.721,37.726,20.821,27.087,32.071,6.014,10.739,-67.535
1661,0.737,37.871,20.833,27.116,32.085,6.096,10.819,-67.741
1662,0.712,37.901,20.809,27.069,32.061,5.894,10.617,-68.028
1663,0.718,37.546,20.821,27.078,32.064,5.892,10.533,-68.071
1664,0.715,37.677,20.805,27.097,32.068,5.933,10.41,-67.787
1665,0.711,37.774,20.805,27.068,32.057,5.933,10.247,-67.743
1666,0.711,37.833,20.825,27.068,32.061,5.852,10.245,-67.662
1667,0.724,37.498,20.817,27.087,32.075,5.973,10.204,-67.58
1668,0.718,37.638,20.817,27.097,32.071,6.015,10.204,-67.579
1669,0.718,37.736,20.813,27.078,32.064,5.893,10.001,-67.619
1670,0.718,37.794,20.821,27.068,32.075,5.933,9.958,-67.254
1671,0.705,37.545,20.798,27.068,32.071,5.933,9.876,-67.006
1672,0.705,37.648,20.805,27.049,32.064,5.892,9.713,-66.922
1673,0.679,37.745,20.782,27.039,32.05,5.77,9.63,-66.962
1674,0.701,37.804,20.817,27.068,32.071,5.972,9.67,-67.044
1675,0.698,37.536,20.797,27.078,32.075,5.933,9.629,-67.167
1676,0.708,37.658,20.805,27.078,32.064,5.933,9.507,-67.209
1677,0.715,37.765,20.813,27.097,32.071,5.974,9.506,-67.209
1678,0.721,37.804,20.821,27.078,32.071,5.893,9.384,-67.29
1679,0.715,37.344,20.798,27.059,32.061,5.811,9.342,-67.372
1680,0.718,37.464,20.797,27.058,32.054,5.769,9.179,-67.658
1681,0.718,37.58,20.809,27.068,32.071,5.891,9.259,-67.864
1682,0.715,37.486,20.813,27.068,32.064,5.811,9.219,-67.988
1683,0.711,37.542,20.825,27.078,32.068,5.891,9.137,-68.071
1684,0.718,37.658,20.813,27.087,32.071,5.851,9.136,-67.787
1685,0.721,37.784,20.833,27.116,32.075,5.851,9.095,-67.703
1686,0.705,37.353,20.798,27.069,32.061,5.81,9.054,-67.702
1687,0.702,37.474,20.805,27.068,32.061,5.769,9.013,-67.702
1688,0.701,37.6,20.797,27.068,32.075,5.85,9.176,-67.621
1689,0.701,37.658,20.801,27.049,32.064,5.769,9.177,-67.66
1690,0.701,37.314,20.793,27.068,32.068,5.809,9.137,-67.336
1691,0.708,37.445,20.809,27.068,32.068,5.891,9.258,-67.007
1692,0.715,37.599,20.809,27.106,32.078,6.014,9.381,-66.882
1693,0.695,37.62,20.793,27.049,32.061,5.812,9.301,-66.799
1694,0.698,37.323,20.801,27.077,32.064,5.85,9.301,-67.124
1695,0.698,37.464,20.825,27.078,32.071,5.851,9.26,-67.208
1696,0.688,37.542,20.79,27.03,32.068,5.81,9.178,-67.25
1697,0.695,37.6,20.809,27.077,32.061,5.891,9.218,-67.209
1698,0.701,37.169,20.821,27.068,32.068,5.851,9.259,-67.25
1699,0.724,37.328,20.833,27.126,32.082,5.973,9.3,-67.128
1700,0.695,37.406,20.805,27.059,32.068,5.771,9.056,-67.655
1701,0.714,37.436,20.797,27.087,32.064,5.768,9.013,-68.067
1702,0.708,37.292,20.801,27.068,32.071,5.85,9.054,-67.99
1703,0.695,37.406,20.809,27.078,32.064,5.769,8.891,-68.152
1704,0.692,37.513,20.809,27.078,32.068,5.85,8.849,-67.869
1705,0.692,37.514,20.817,27.087,32.071,5.891,8.849,-67.704
1706,0.698,37.245,20.817,27.107,32.089,6.014,8.849,-67.539
1707,0.685,37.319,20.813,27.078,32.065,5.771,8.646,-67.7
1708,0.682,37.426,20.801,27.078,32.068,5.891,8.684,-67.621
1709,0.688,37.101,20.809,27.068,32.071,5.811,8.644,-67.62
1710,0.679,37.136,20.805,27.068,32.061,5.728,8.603,-67.457
1711,0.675,37.27,20.809,27.058,32.064,5.768,8.562,-66.968
1712,0.688,37.387,20.813,27.087,32.068,5.768,8.561,-66.841
1713,0.682,37.052,20.821,27.097,32.085,5.891,8.643,-66.758
1714,0.672,37.174,20.821,27.059,32.071,5.729,8.44,-67.082
1715,0.695,37.299,20.809,27.087,32.071,5.809,8.519,-67.127
1716,0.675,37.368,20.821,27.068,32.064,5.728,8.439,-67.29
1717,0.672,36.956,20.786,27.058,32.064,5.687,8.357,-67.372
1718,0.672,37.086,20.793,27.049,32.057,5.646,8.315,-67.333
1719,0.688,37.222,20.809,27.087,32.071,5.767,8.437,-67.251
1720,0.685,37.281,20.801,27.087,32.078,5.85,8.479,-67.535
1721,0.679,37.07,20.817,27.078,32.064,5.81,8.357,-67.944
1722,0.682,37.241,20.813,27.087,32.068,5.769,8.356,-67.948
1723,0.682,37.338,20.813,27.078,32.071,5.687,8.397,-68.07
1724,0.672,37.359,20.809,27.049,32.061,5.687,8.356,-67.868
1725,0.662,36.994,20.793,27.049,32.054,5.687,8.356,-67.866
1726,0.672,37.182,20.809,27.087,32.071,5.727,8.519,-67.622
1727,0.682,37.252,20.813,27.068,32.071,5.809,8.683,-67.579
1728,0.682,37.271,20.801,27.068,32.064,5.728,8.684,-67.701
1729,0.679,36.946,20.821,27.087,32.064,5.768,8.888,-67.621
1730,0.685,37.057,20.798,27.059,32.061,5.728,8.849,-67.335
1731,0.659,37.164,20.805,27.049,32.064,5.605,8.849,-67.088
1732,0.649,37.012,20.801,27.03,32.061,5.604,8.889,-67.045
1733,0.649,37.058,20.829,27.077,32.068,5.808,9.174,-66.842
1734,0.665,37.164,20.813,27.059,32.061,5.728,9.259,-67.043
1735,0.659,37.28,20.801,27.068,32.064,5.687,9.259,-67.207
1736,0.669,36.869,20.817,27.087,32.071,5.727,9.463,-67.25
1737,0.678,37.018,20.813,27.097,32.068,5.727,9.546,-67.25
1738,0.669,37.116,20.809,27.078,32.068,5.687,9.547,-67.291
1739,0.669,37.165,20.801,27.049,32.057,5.646,9.628,-67.372
1740,0.662,36.839,20.813,27.087,32.068,5.727,9.873,-67.536
1741,0.659,36.97,20.801,27.068,32.068,5.687,9.997,-67.944
1742,0.652,37.086,20.801,27.068,32.068,5.727,10.08,-68.03
1743,0.668,37.164,20.801,27.078,32.068,5.809,10.243,-67.99
1744,0.669,36.858,20.797,27.087,32.071,5.769,10.286,-67.786
1745,0.656,36.98,20.809,27.059,32.061,5.687,10.408,-67.743
1746,0.655,37.077,20.793,27.03,32.057,5.687,10.369,-67.743
1747,0.659,37.135,20.809,27.049,32.068,5.809,10.571,-67.662
1748,0.652,36.944,20.801,27.058,32.071,5.728,10.614,-67.702
1749,0.659,37.077,20.797,27.068,32.064,5.768,10.655,-67.661
1750,0.659,37.183,20.821,27.068,32.071,5.891,10.778,-67.376
1751,0.656,37.232,20.821,27.087,32.071,5.77,10.779,-67.048
1752,0.646,36.849,20.801,27.059,32.064,5.809,10.901,-66.964
1753,0.652,36.989,20.805,27.049,32.057,5.688,10.739,-66.963
1754,0.655,37.087,20.79,27.068,32.071,5.809,10.941,-67.044
1755,0.636,37.097,20.805,27.068,32.064,5.728,10.984,-67.207
1756,0.655,36.982,20.821,27.058,32.068,5.727,10.944,-67.331
1757,0.655,37.106,20.829,27.087,32.078,5.809,11.024,-67.21
1758,0.659,37.222,20.813,27.087,32.075,5.85,10.985,-67.29
1759,0.652,36.926,20.797,27.068,32.068,5.688,10.903,-67.291
1760,0.659,37.028,20.801,27.068,32.061,5.646,10.78,-67.698
1761,0.662,37.164,20.793,27.068,32.071,5.808,10.86,-67.865
1762,0.652,37.232,20.809,27.049,32.068,5.728,10.82,-68.069
1763,0.668,36.792,20.801,27.058,32.064,5.768,10.657,-68.112
1764,0.678,36.941,20.805,27.087,32.068,5.768,10.696,-67.747
1765,0.665,37.077,20.809,27.097,32.078,5.85,10.575,-67.784
1766,0.649,37.107,20.809,27.049,32.064,5.688,10.411,-67.743
1767,0.642,36.877,20.809,27.039,32.061,5.727,10.287,-67.784
1768,0.639,37.038,20.801,27.068,32.068,5.727,10.245,-67.703
1769,0.646,37.145,20.797,27.058,32.064,5.727,10.204,-67.702
1770,0.646,37.222,20.793,27.058,32.064,5.809,10.204,-67.377
1771,0.652,36.859,20.805,27.068,32.075,5.769,10.123,-67.007
1772,0.655,37.028,20.813,27.097,32.085,5.809,10.122,-66.841
1773,0.639,37.106,20.817,27.049,32.068,5.728,9.919,-66.921
1774,0.639,37.155,20.809,27.077,32.064,5.727,9.916,-67.125
1775,0.639,36.791,20.813,27.078,32.071,5.727,9.916,-67.208
1776,0.636,36.931,20.794,27.059,32.064,5.687,9.835,-67.331
1777,0.649,37.038,20.813,27.078,32.075,5.727,9.916,-67.292
1778,0.646,37.193,20.813,27.059,32.068,5.768,9.916,-67.251
1779,0.668,37.079,20.821,27.087,32.078,5.85,10.039,-67.209
1780,0.643,37.174,20.825,27.049,32.058,5.688,9.755,-67.616
1781,0.655,37.29,20.798,27.068,32.068,5.727,9.752,-67.904
1782,0.659,36.946,20.809,27.078,32.068,5.646,9.752,-68.11
1783,0.639,36.923,20.79,27.059,32.064,5.686,9.752,-68.113
1784,0.646,37.038,20.809,27.058,32.068,5.646,9.793,-67.869
1785,0.652,37.154,20.813,27.068,32.075,5.767,9.753,-67.622
1786,0.649,36.935,20.813,27.097,32.078,5.809,9.915,-67.498
1787,0.642,37.038,20.805,27.068,32.061,5.647,9.794,-67.781
1788,0.649,37.164,20.801,27.068,32.071,5.686,9.915,-67.621
1789,0.642,37.232,20.813,27.078,32.068,5.687,9.916,-67.66
1790,0.639,36.878,20.801,27.049,32.068,5.646,9.835,-67.376
1791,0.629,37.018,20.809,27.058,32.068,5.686,9.956,-67.089
1792,0.642,37.135,20.79,27.068,32.068,5.646,9.998,-66.923
1793,0.652,37.213,20.809,27.097,32.078,5.849,10.202,-66.718
1794,0.642,36.945,20.782,27.059,32.064,5.729,10.041,-67.123
1795,0.655,37.086,20.809,27.078,32.064,5.727,10.04,-67.249
1796,0.652,37.174,20.797,27.068,32.071,5.687,9.999,-67.291
1797,0.646,37.223,20.797,27.039,32.057,5.605,9.917,-67.372
1798,0.636,37.022,20.789,27.029,32.064,5.645,9.916,-67.333
1799,0.646,37.183,20.805,27.087,32.071,5.686,10.039,-67.251
1800,0.659,37.299,20.793,27.097,32.078,5.727,10.04,-67.494
1801,0.652,37.301,20.813,27.078,32.068,5.646,9.918,-67.944
1802,0.652,36.888,20.801,27.087,32.071,5.686,9.876,-68.03
1803,0.649,37.018,20.809,27.078,32.064,5.646,9.794,-68.03
1804,0.652,37.097,20.793,27.059,32.061,5.523,9.631,-67.908
1805,0.649,37.059,20.786,27.049,32.064,5.603,9.629,-67.745
1806,0.649,37.03,20.785,27.077,32.064,5.686,9.629,-67.621
1807,0.655,37.173,20.801,27.097,32.085,5.687,9.71,-67.538
1808,0.646,37.251,20.805,27.068,32.065,5.564,9.508,-67.741
1809,0.659,36.897,20.809,27.068,32.064,5.604,9.506,-67.702
1810,0.646,37.009,20.801,27.039,32.071,5.564,9.465,-67.417
1811,0.636,37.125,20.793,27.039,32.064,5.482,9.343,-67.17
1812,0.636,37.184,20.801,27.02,32.057,5.481,9.301,-67.005
1813,0.649,36.973,20.821,27.068,32.071,5.522,9.341,-66.882
1814,0.642,37.134,20.805,27.078,32.068,5.644,9.423,-67.084
1815,0.642,37.232,20.813,27.059,32.061,5.564,9.261,-67.249
1816,0.649,37.319,20.797,27.068,32.071,5.645,9.259,-67.291
1817,0.652,36.783,20.801,27.058,32.068,5.645,9.219,-67.291
1818,0.646,36.893,20.801,27.058,32.061,5.605,9.015,-67.372
1819,0.652,36.999,20.793,27.049,32.057,5.523,8.972,-67.373
1820,0.655,37.096,20.786,27.068,32.064,5.644,8.972,-67.658
1821,0.649,37.021,20.797,27.078,32.071,5.645,9.053,-67.986
1822,0.652,37.192,20.782,27.078,32.068,5.564,9.054,-68.03
1823,0.668,37.29,20.809,27.087,32.068,5.685,9.135,-68.071
1824,0.665,37.329,20.797,27.087,32.068,5.687,9.095,-67.827
1825,0.649,36.946,20.797,27.059,32.064,5.646,9.176,-67.784
1826,0.652,37.077,20.797,27.049,32.05,5.564,9.177,-67.784
1827,0.646,37.183,20.801,27.077,32.075,5.645,9.34,-67.621
1828,0.646,37.539,20.801,27.059,32.057,5.605,9.342,-67.66
1829,0.649,36.939,20.801,27.058,32.064,5.726,9.342,-67.661
1830,0.649,37.086,20.805,27.068,32.064,5.687,9.342,-67.336
1831,0.655,37.203,20.801,27.097,32.078,5.687,9.464,-66.926
1832,0.646,36.897,20.801,27.059,32.061,5.646,9.343,-67.003
1833,0.636,36.951,20.793,27.068,32.061,5.645,9.342,-66.963
1834,0.629,37.067,20.778,27.068,32.068,5.645,9.382,-67.044
1835,0.629,37.145,20.785,27.049,32.061,5.564,9.261,-67.207
1836,0.636,36.896,20.778,27.068,32.071,5.685,9.259,-67.331
1837,0.642,37.038,20.789,27.078,32.064,5.687,9.259,-67.332
1838,0.655,37.173,20.809,27.097,32.082,5.687,9.259,-67.251
1839,0.649,37.213,20.793,27.068,32.071,5.564,9.097,-67.331
1840,0.642,36.878,20.805,27.068,32.068,5.563,9.136,-67.576
1841,0.655,37.009,20.801,27.087,32.071,5.685,9.095,-67.904
1842,0.646,37.096,20.782,27.068,32.071,5.564,9.054,-68.07
1843,0.652,37.174,20.805,27.058,32.068,5.604,9.013,-68.194
1844,0.636,36.868,20.797,27.068,32.068,5.645,9.135,-67.87
1845,0.655,37.037,20.821,27.116,32.075,5.727,9.177,-67.622
1846,0.646,37.106,20.786,27.059,32.068,5.565,9.015,-67.742
1847,0.646,37.155,20.813,27.058,32.061,5.563,8.932,-67.784
1848,0.636,36.868,20.79,27.078,32.068,5.604,9.053,-67.703
1849,0.646,36.98,20.809,27.068,32.064,5.604,8.973,-67.702
1850,0.646,37.106,20.801,27.058,32.071,5.564,9.013,-67.336
1851,0.642,37.126,20.797,27.087,32.071,5.645,9.054,-67.088
1852,0.652,36.848,20.829,27.097,32.078,5.767,9.135,-66.842
1853,0.646,36.951,20.805,27.068,32.068,5.606,9.177,-66.921
1854,0.639,37.048,20.801,27.058,32.068,5.645,9.34,-67.166
1855,0.626,36.924,20.782,27.068,32.071,5.686,9.626,-67.249
1856,0.629,36.856,20.797,27.058,32.064,5.646,9.751,-67.291
1857,0.645,36.98,20.797,27.078,32.061,5.686,10.159,-67.291
1858,0.616,37.096,20.801,27.087,32.071,5.727,10.407,-67.21
1859,0.639,36.714,20.821,27.107,32.071,5.809,10.734,-67.209
1860,0.636,36.787,20.794,27.068,32.064,5.728,10.738,-67.616
1861,0.633,36.931,20.789,27.068,32.061,5.687,10.9,-68.067
1862,0.632,36.99,20.782,27.068,32.068,5.727,11.146,-68.031
1863,0.626,36.693,20.778,27.049,32.064,5.646,11.149,-68.153
1864,0.632,36.834,20.801,27.068,32.061,5.727,11.271,-67.869
1865,0.636,36.98,20.79,27.068,32.075,5.768,11.434,-67.663
1866,0.646,37.058,20.809,27.097,32.078,5.768,11.395,-67.58
1867,0.633,36.732,20.786,27.068,32.064,5.687,11.273,-67.701
1868,0.636,36.873,20.805,27.058,32.068,5.646,11.272,-67.702
1869,0.633,36.98,20.809,27.058,32.068,5.767,11.272,-67.661
1870,0.626,37.019,20.793,27.058,32.057,5.647,11.15,-67.498
1871,0.623,36.723,20.786,27.068,32.061,5.686,11.149,-67.049
1872,0.619,36.892,20.778,27.087,32.075,5.727,11.149,-66.882
1873,0.629,37.009,20.813,27.107,32.082,5.89,11.149,-66.758
1874,0.639,37.02,20.786,27.068,32.071,5.689,10.945,-67.123
1875,0.649,36.675,20.793,27.068,32.068,5.727,10.943,-67.208
1876,0.633,36.815,20.797,27.058,32.071,5.646,10.902,-67.331
1877,0.619,36.893,20.778,27.049,32.057,5.645,10.78,-67.373
1878,0.619,37.134,20.797,27.039,32.061,5.645,10.738,-67.292
1879,0.636,36.724,20.793,27.068,32.064,5.727,10.819,-67.251
1880,0.642,36.844,20.809,27.106,32.075,5.809,10.779,-67.535
1881,0.636,36.951,20.793,27.049,32.064,5.688,10.616,-68.026
1882,0.642,36.636,20.789,27.068,32.071,5.646,10.696,-67.949
1883,0.626,36.709,20.778,27.058,32.068,5.686,10.575,-68.07
1884,0.626,36.796,20.766,27.049,32.061,5.605,10.451,-67.99
1885,0.632,36.874,20.777,27.039,32.064,5.564,10.45,-67.867
1886,0.645,36.568,20.797,27.077,32.075,5.645,10.572,-67.663
1887,0.652,36.718,20.809,27.078,32.075,5.727,10.777,-67.539
1888,0.646,36.835,20.801,27.068,32.064,5.646,10.738,-67.7
1889,0.662,36.893,20.79,27.068,32.064,5.686,10.779,-67.702
1890,0.656,36.616,20.797,27.068,32.068,5.646,10.82,-67.417
1891,0.662,36.766,20.778,27.058,32.064,5.605,10.739,-67.089
1892,0.669,36.845,20.778,27.03,32.054,5.523,10.738,-67.045
1893,0.678,36.951,20.793,27.068,32.068,5.685,10.9,-66.842
1894,0.695,36.549,20.809,27.078,32.075,5.727,10.943,-67.043
1895,0.698,36.679,20.786,27.068,32.068,5.646,10.781,-67.167
1896,0.698,36.786,20.793,27.078,32.068,5.686,10.942,-67.249
1897,0.705,36.807,20.778,27.059,32.071,5.687,10.781,-67.372
1898,0.711,36.529,20.785,27.058,32.057,5.605,10.738,-67.414
1899,0.724,36.65,20.785,27.039,32.061,5.442,10.779,-67.414
1900,0.737,36.776,20.774,27.058,32.064,5.684,10.779,-67.536
1901,0.754,36.806,20.801,27.078,32.064,5.727,10.901,-67.863
1902,0.751,36.586,20.786,27.068,32.068,5.687,10.739,-68.069
1903,0.764,36.718,20.805,27.087,32.068,5.727,10.697,-68.031
1904,0.774,36.806,20.79,27.078,32.071,5.646,10.656,-67.868
1905,0.767,36.5,20.793,27.059,32.061,5.605,10.493,-67.825
1906,0.764,36.382,20.766,27.039,32.054,5.523,10.491,-67.825
1907,0.774,36.524,20.781,27.068,32.068,5.685,10.491,-67.622
1908,0.764,36.631,20.785,27.078,32.071,5.687,10.491,-67.62
1909,0.748,36.489,20.789,27.078,32.068,5.646,10.329,-67.701
1910,0.76,36.621,20.789,27.078,32.071,5.686,10.408,-67.377
1911,0.728,36.719,20.782,27.059,32.064,5.687,10.45,-67.048
1912,0.715,36.806,20.805,27.039,32.064,5.646,10.328,-66.964
1913,0.708,36.289,20.766,27.029,32.057,5.645,10.327,-66.963
1914,0.721,36.456,20.789,27.068,32.068,5.727,10.49,-67.085
1915,0.721,36.564,20.801,27.087,32.075,5.85,10.654,-67.086
1916,0.708,36.66,20.786,27.087,32.068,5.729,10.615,-67.37
1917,0.718,36.46,20.805,27.087,32.071,5.85,10.777,-67.292
1918,0.724,36.621,20.797,27.087,32.064,5.729,10.738,-67.372
1919,0.721,36.699,20.774,27.078,32.057,5.687,10.738,-67.333
1920,0.728,36.719,20.793,27.049,32.054,5.646,10.738,-67.698
1921,0.731,36.24,20.789,27.087,32.068,5.767,10.941,-67.986
1922,0.721,36.379,20.782,27.078,32.075,5.809,10.862,-67.989
1923,0.741,36.496,20.797,27.078,32.061,5.728,10.82,-68.071
1924,0.747,36.516,20.786,27.068,32.071,5.809,10.942,-67.868
1925,0.744,36.43,20.809,27.068,32.064,5.728,10.902,-67.704
1926,0.741,36.515,20.778,27.058,32.061,5.727,10.78,-67.743
1927,0.731,36.612,20.789,27.039,32.061,5.687,10.657,-67.865
1928,0.731,36.728,20.786,27.068,32.068,5.768,10.778,-67.704
1929,0.728,36.365,20.789,27.068,32.071,5.728,10.698,-67.661
1930,0.728,36.495,20.778,27.049,32.061,5.727,10.656,-67.458
1931,0.728,36.602,20.781,27.068,32.064,5.768,10.615,-67.049
1932,0.751,36.268,20.809,27.058,32.075,5.809,10.574,-67.045
1933,0.738,36.312,20.782,27.049,32.061,5.688,10.411,-66.964
1934,0.731,36.437,20.785,27.058,32.054,5.646,10.328,-67.247
1935,0.734,36.525,20.809,27.068,32.068,5.767,10.408,-67.25
1936,0.728,36.181,20.79,27.058,32.064,5.647,10.247,-67.372
1937,0.725,36.34,20.789,27.078,32.064,5.767,10.164,-67.373
1938,0.721,36.447,20.789,27.078,32.064,5.768,10.285,-67.292
1939,0.731,36.563,20.801,27.078,32.071,5.85,10.164,-67.251
1940,0.702,36.143,20.797,27.068,32.057,5.648,10.0,-67.697
1941,0.708,36.282,20.782,27.068,32.064,5.686,9.999,-68.068
1942,0.695,36.399,20.789,27.078,32.061,5.768,9.999,-68.072
1943,0.688,36.448,20.789,27.068,32.061,5.687,9.877,-68.194
1944,0.679,36.189,20.793,27.049,32.064,5.687,9.753,-67.87
1945,0.662,36.34,20.782,27.068,32.064,5.809,9.752,-67.744
1946,0.682,36.495,20.805,27.078,32.078,5.81,9.752,-67.621
1947,0.669,36.497,20.774,27.049,32.064,5.688,9.63,-67.782
1948,0.656,36.113,20.789,27.049,32.061,5.646,9.507,-67.825
1949,0.652,36.244,20.786,27.077,32.068,5.727,9.546,-67.622
1950,0.646,36.341,20.785,27.039,32.064,5.727,9.466,-67.457
1951,0.642,36.39,20.785,27.077,32.068,5.727,9.424,-67.13
1952,0.629,36.227,20.797,27.087,32.068,5.768,9.505,-66.924
1953,0.662,36.389,20.801,27.078,32.071,5.809,9.465,-66.922
1954,0.659,36.457,20.797,27.049,32.061,5.647,9.343,-67.206
1955,0.672,36.161,20.782,27.03,32.061,5.645,9.26,-67.29
1956,0.669,36.129,20.782,27.068,32.061,5.767,9.422,-67.291
1957,0.649,36.253,20.785,27.049,32.064,5.647,9.261,-67.332
1958,0.639,36.351,20.789,27.077,32.064,5.727,9.259,-67.414
1959,0.642,36.093,20.789,27.078,32.071,5.727,9.3,-67.333
1960,0.646,36.243,20.821,27.107,32.078,5.809,9.301,-67.495
1961,0.649,36.322,20.782,27.059,32.061,5.647,9.178,-68.025
1962,0.639,36.409,20.778,27.068,32.064,5.605,9.137,-68.193
1963,0.62,35.988,20.789,27.078,32.068,5.645,9.217,-68.154
1964,0.603,36.108,20.766,27.049,32.054,5.523,9.015,-67.991
1965,0.613,36.253,20.789,27.039,32.068,5.603,9.094,-67.827
1966,0.613,36.322,20.809,27.077,32.064,5.645,9.095,-67.703
1967,0.619,36.064,20.805,27.097,32.082,5.849,9.258,-67.58
1968,0.603,36.166,20.778,27.059,32.058,5.607,8.975,-67.701
1969,0.6,36.302,20.805,27.078,32.068,5.686,9.013,-67.743
1970,0.6,36.361,20.79,27.049,32.064,5.646,8.932,-67.377
1971,0.57,35.987,20.786,27.049,32.061,5.564,8.809,-67.17
1972,0.557,36.108,20.778,27.049,32.054,5.523,8.848,-67.046
1973,0.583,36.244,20.789,27.077,32.064,5.644,8.849,-66.882
1974,0.583,36.302,20.801,27.078,32.078,5.727,8.971,-67.003
1975,0.564,35.929,20.786,27.059,32.068,5.605,8.809,-67.329
1976,0.57,36.079,20.801,27.078,32.064,5.686,8.767,-67.292
1977,0.57,36.167,20.79,27.059,32.064,5.646,8.848,-67.332
1978,0.554,36.225,20.766,27.058,32.057,5.605,8.686,-67.373
1979,0.547,36.053,20.774,27.03,32.043,5.482,8.725,-67.414
1980,0.567,36.195,20.801,27.068,32.068,5.684,8.888,-67.496
1981,0.57,36.302,20.797,27.087,32.075,5.727,8.971,-67.903
1982,0.57,35.929,20.786,27.049,32.061,5.646,8.931,-68.029
1983,0.557,36.04,20.801,27.068,32.068,5.767,9.012,-68.071
1984,0.557,36.147,20.786,27.058,32.061,5.687,9.013,-67.909
1985,0.563,36.225,20.77,27.049,32.061,5.646,9.013,-67.867
1986,0.554,35.842,20.781,27.02,32.05,5.564,8.932,-67.866
1987,0.554,36.001,20.774,27.077,32.064,5.645,9.134,-67.744
1988,0.55,36.108,20.774,27.059,32.064,5.645,9.055,-67.621
1989,0.557,36.186,20.778,27.068,32.064,5.686,9.095,-67.701
1990,0.56,35.899,20.778,27.068,32.068,5.727,9.095,-67.458
1991,0.57,36.059,20.766,27.068,32.064,5.768,9.054,-67.171
1992,0.541,36.157,20.766,27.058,32.061,5.647,8.973,-67.046
1993,0.541,36.206,20.777,27.03,32.061,5.523,8.85,-67.045
1994,0.554,35.899,20.801,27.058,32.071,5.685,8.971,-67.167
1995,0.55,36.04,20.774,27.049,32.064,5.687,8.931,-67.249
1996,0.547,36.157,20.778,27.068,32.064,5.687,8.89,-67.372
1997,0.557,36.187,20.781,27.078,32.071,5.809,8.89,-67.333
1998,0.573,35.976,20.782,27.068,32.068,5.769,8.809,-67.332
1999,0.564,36.079,20.774,27.049,32.061,5.647,8.604,-67.332
2000,0.554,36.195,20.766,27.068,32.057,5.645,8.643,-67.698
2001,0.557,36.216,20.777,27.068,32.071,5.727,8.644,-67.946
2002,0.55,35.871,20.801,27.068,32.061,5.687,8.644,-68.03
2003,0.557,35.992,20.786,27.058,32.064,5.727,8.603,-68.193
2004,0.544,36.127,20.778,27.078,32.075,5.646,8.643,-67.87
2005,0.554,35.927,20.793,27.078,32.061,5.686,8.603,-67.785
2006,0.544,35.906,20.793,27.059,32.061,5.646,8.602,-67.784
2007,0.544,36.031,20.77,27.02,32.054,5.564,8.643,-67.865
2008,0.547,36.156,20.793,27.077,32.061,5.766,8.928,-67.744
2009,0.541,35.726,20.789,27.068,32.061,5.728,9.175,-67.743
2010,0.554,35.875,20.782,27.049,32.061,5.727,9.421,-67.499
2011,0.541,35.992,20.778,27.077,32.071,5.727,9.668,-67.049
2012,0.563,36.089,20.793,27.078,32.064,5.727,9.914,-66.964
2013,0.537,35.773,20.77,27.059,32.057,5.605,10.12,-67.003
2014,0.531,35.914,20.758,27.049,32.057,5.564,10.203,-67.288
2015,0.537,36.05,20.793,27.049,32.064,5.685,10.407,-67.251
2016,0.54,36.109,20.774,27.049,32.064,5.687,10.572,-67.372
2017,0.544,35.745,20.793,27.068,32.064,5.687,10.736,-67.333
2018,0.56,35.904,20.786,27.058,32.064,5.768,10.86,-67.292
2019,0.563,36.031,20.793,27.087,32.071,5.809,10.902,-67.332
2020,0.557,36.051,20.782,27.059,32.057,5.606,10.902,-67.576
2021,0.557,35.783,20.778,27.058,32.061,5.645,10.821,-68.107
2022,0.57,35.924,20.758,27.068,32.061,5.727,10.942,-68.031
2023,0.564,36.021,20.777,27.058,32.064,5.687,10.902,-68.153
2024,0.567,36.07,20.789,27.078,32.064,5.646,10.861,-67.95
2025,0.557,35.85,20.766,27.078,32.071,5.727,10.82,-67.826
2026,0.567,36.001,20.781,27.097,32.078,5.85,10.861,-67.622
2027,0.567,36.041,20.766,27.04,32.061,5.648,10.739,-67.782
2028,0.573,35.965,20.789,27.068,32.064,5.645,10.616,-67.865
2029,0.567,35.743,20.766,27.068,32.064,5.686,10.655,-67.663
2030,0.56,35.856,20.766,27.049,32.064,5.605,10.493,-67.498
2031,0.567,35.982,20.766,27.068,32.064,5.645,10.491,-67.131
2032,0.567,35.667,20.789,27.058,32.068,5.645,10.532,-66.964
2033,0.58,35.788,20.793,27.087,32.078,5.727,10.41,-66.881
2034,0.573,35.886,20.786,27.068,32.058,5.646,10.369,-67.206
2035,0.573,35.973,20.774,27.058,32.064,5.605,10.287,-67.372
2036,0.58,35.667,20.785,27.058,32.071,5.645,10.327,-67.333
2037,0.577,35.788,20.77,27.049,32.054,5.564,10.286,-67.414
2038,0.577,35.934,20.766,27.068,32.061,5.604,10.327,-67.374
2039,0.586,36.002,20.777,27.078,32.068,5.686,10.449,-67.292
2040,0.6,35.658,20.797,27.107,32.075,5.768,10.491,-67.576
2041,0.583,35.76,20.786,27.059,32.064,5.606,10.369,-68.107
2042,0.586,35.885,20.778,27.058,32.057,5.564,10.409,-68.194
2043,0.573,35.944,20.778,27.078,32.064,5.563,10.531,-68.195
2044,0.567,35.657,20.766,27.049,32.057,5.563,10.451,-67.951
2045,0.567,35.817,20.781,27.058,32.061,5.604,10.491,-67.826
2046,0.57,35.915,20.778,27.078,32.071,5.564,10.573,-67.703
2047,0.583,35.992,20.797,27.116,32.075,5.726,10.614,-67.621
2048,0.58,35.744,20.766,27.059,32.057,5.565,10.411,-67.782
2049,0.586,35.875,20.777,27.058,32.061,5.441,10.409,-67.825
2050,0.606,35.992,20.774,27.078,32.064,5.643,10.409,-67.54
2051,0.616,36.175,20.778,27.049,32.057,5.523,10.328,-67.172
2052,0.636,35.669,20.789,27.058,32.068,5.603,10.368,-67.005
2053,0.675,35.788,20.789,27.087,32.068,5.686,10.368,-66.922
2054,0.717,35.943,20.801,27.087,32.071,5.646,10.368,-67.084
2055,0.708,35.724,20.79,27.059,32.061,5.483,10.165,-67.33
2056,0.741,35.76,20.782,27.058,32.057,5.603,10.122,-67.414
2057,0.741,35.895,20.766,27.068,32.068,5.645,10.122,-67.374
2058,0.773,35.973,20.781,27.049,32.061,5.564,9.959,-67.373
2059,0.813,35.571,20.785,27.058,32.064,5.563,9.917,-67.455
2060,0.859,35.72,20.766,27.087,32.064,5.604,9.876,-67.578
2061,0.918,35.847,20.809,27.107,32.075,5.686,9.794,-67.945
2062,0.948,35.886,20.766,27.068,32.061,5.564,9.631,-68.152
