time,ecg,bvp,gsr,rsp,skt,emg_zygo,emg_coru,emg_trap
0,0.751,34.267,7.937,27.707,29.088,7.534,5.809,5.316
1,0.754,34.394,7.913,27.716,29.095,7.616,5.972,5.358
2,0.764,34.433,7.921,27.707,29.088,7.413,5.73,5.195
3,0.754,34.098,7.937,27.697,29.091,7.452,5.85,5.234
4,0.754,34.229,7.941,27.688,29.095,7.412,5.769,5.235
5,0.751,34.336,7.921,27.678,29.088,7.371,5.809,5.072
6,0.754,34.404,7.909,27.659,29.077,7.37,5.728,5.07
7,0.764,34.146,7.921,27.687,29.088,7.411,5.85,5.314
8,0.767,34.287,7.925,27.697,29.095,7.411,5.891,5.317
9,0.774,34.413,7.929,27.707,29.085,7.493,5.729,5.195
10,0.777,34.481,7.929,27.707,29.095,7.453,5.89,5.234
11,0.78,34.118,7.929,27.707,29.091,7.412,5.77,5.275
12,0.767,34.239,7.925,27.678,29.084,7.371,5.728,5.235
13,0.774,34.345,7.921,27.687,29.084,7.411,5.727,5.194
14,0.771,34.481,7.921,27.697,29.091,7.452,5.809,5.275
15,0.764,34.166,7.917,27.669,29.084,7.371,5.769,5.154
16,0.77,34.297,7.901,27.678,29.088,7.411,5.728,5.153
17,0.777,34.423,7.921,27.668,29.095,7.493,5.85,5.234
18,0.787,34.184,7.948,27.716,29.098,7.575,5.932,5.357
19,0.78,34.163,7.925,27.678,29.091,7.494,5.73,5.114
20,0.777,34.306,7.917,27.687,29.091,7.494,5.768,5.234
21,0.767,34.404,7.921,27.678,29.095,7.494,5.809,5.235
22,0.78,33.944,7.917,27.659,29.085,7.412,5.769,5.153
23,0.764,34.074,7.933,27.63,29.074,7.289,5.728,5.153
24,0.783,34.248,7.937,27.668,29.095,7.41,5.809,5.234
25,0.78,34.317,7.944,27.678,29.102,7.452,5.85,5.357
26,0.78,33.982,7.921,27.678,29.088,7.33,5.769,5.236
27,0.79,34.141,7.929,27.668,29.095,7.37,5.809,5.235
28,0.787,34.258,7.929,27.649,29.091,7.289,5.81,5.235
29,0.774,34.326,7.925,27.649,29.084,7.247,5.688,5.113
30,0.78,34.02,7.925,27.639,29.077,7.125,5.646,5.03
31,0.797,34.18,7.94,27.668,29.091,7.205,5.767,5.273
32,0.797,34.287,7.937,27.659,29.088,7.206,5.728,5.154
33,0.8,34.355,7.925,27.668,29.091,7.125,5.727,5.234
34,0.803,33.982,7.944,27.649,29.095,7.205,5.809,5.316
35,0.813,34.141,7.945,27.706,29.102,7.247,5.85,5.317
36,0.8,34.21,7.921,27.649,29.092,7.084,5.769,5.236
37,0.794,34.249,7.921,27.639,29.084,7.083,5.687,5.194
38,0.797,34.077,7.925,27.649,29.084,7.042,5.768,5.194
39,0.807,34.2,7.925,27.63,29.084,7.001,5.647,5.153
40,0.8,34.278,7.921,27.639,29.081,7.041,5.686,5.193
41,0.81,34.154,7.933,27.649,29.088,7.082,5.727,5.316
42,0.813,33.98,7.937,27.678,29.098,7.123,5.85,5.358
43,0.794,34.093,7.921,27.64,29.081,6.961,5.729,5.195
44,0.813,34.219,7.917,27.649,29.091,7.082,5.768,5.194
45,0.803,33.847,7.921,27.63,29.088,7.042,5.728,5.194
46,0.807,33.939,7.925,27.62,29.088,7.001,5.687,5.153
47,0.797,34.055,7.921,27.61,29.081,6.838,5.605,5.112
48,0.81,34.2,7.921,27.639,29.091,6.958,5.686,5.315
49,0.807,33.923,7.921,27.639,29.088,7.082,5.727,5.195
50,0.813,34.112,7.933,27.63,29.088,7.042,5.727,5.153
51,0.813,34.229,7.929,27.649,29.098,7.082,5.809,5.234
52,0.82,34.307,7.933,27.639,29.088,7.123,5.769,5.275
53,0.803,33.8,7.921,27.63,29.084,7.083,5.647,5.195
54,0.81,33.957,7.913,27.62,29.077,7.002,5.564,5.112
55,0.82,34.093,7.929,27.658,29.091,7.245,5.726,5.234
56,0.81,34.133,7.917,27.63,29.091,7.206,5.687,5.235
57,0.82,33.855,7.925,27.62,29.088,7.247,5.687,5.194
58,0.82,33.977,7.921,27.649,29.091,7.328,5.727,5.234
59,0.826,34.132,7.937,27.639,29.091,7.37,5.727,5.235
60,0.81,34.143,7.917,27.63,29.088,7.33,5.727,5.153
61,0.826,33.951,7.917,27.61,29.088,7.41,5.687,5.071
62,0.826,34.084,7.913,27.629,29.091,7.371,5.727,5.193
63,0.807,34.181,7.909,27.61,29.084,7.452,5.687,5.153
64,0.816,34.632,7.921,27.601,29.081,7.493,5.687,5.112
65,0.823,33.88,7.925,27.62,29.091,7.575,5.727,5.234
66,0.833,34.025,7.948,27.649,29.105,7.698,5.809,5.316
67,0.826,34.094,7.925,27.611,29.085,7.496,5.688,5.154
68,0.826,33.96,7.921,27.629,29.088,7.534,5.727,5.153
69,0.833,34.036,7.917,27.63,29.091,7.575,5.727,5.234
70,0.823,34.142,7.933,27.591,29.081,7.535,5.687,5.153
71,0.823,34.249,7.929,27.6,29.088,7.534,5.809,5.112
72,0.826,33.818,7.933,27.629,29.088,7.616,5.769,5.234
73,0.839,33.996,7.941,27.649,29.109,7.779,5.891,5.235
74,0.836,34.065,7.929,27.611,29.088,7.578,5.729,5.194
75,0.843,34.161,7.94,27.61,29.095,7.616,5.809,5.234
76,0.836,33.779,7.937,27.61,29.088,7.617,5.81,5.153
77,0.833,33.919,7.905,27.591,29.084,7.495,5.688,5.071
78,0.823,34.035,7.917,27.581,29.077,7.494,5.646,5.152
79,0.839,34.132,7.921,27.61,29.088,7.534,5.808,5.193
80,0.836,33.798,7.944,27.62,29.098,7.534,5.85,5.316
81,0.833,33.9,7.925,27.601,29.091,7.412,5.769,5.154
82,0.839,34.054,7.929,27.61,29.098,7.493,5.809,5.193
83,0.839,34.094,7.925,27.581,29.085,7.494,5.81,5.153
84,0.83,33.836,7.905,27.562,29.088,7.412,5.769,5.071
85,0.82,33.958,7.913,27.571,29.074,7.371,5.687,5.03
86,0.833,34.112,7.925,27.61,29.091,7.614,5.809,5.233
87,0.833,34.133,7.913,27.591,29.074,7.617,5.728,5.153
88,0.839,33.942,7.925,27.6,29.091,7.657,5.768,5.153
89,0.843,34.103,7.925,27.6,29.091,7.658,5.809,5.275
90,0.853,34.219,7.933,27.61,29.095,7.698,5.81,5.154
91,0.843,33.99,7.925,27.562,29.088,7.577,5.728,5.153
92,0.853,33.883,7.925,27.571,29.088,7.575,5.727,5.112
93,0.853,34.035,7.933,27.6,29.091,7.738,5.809,5.193
94,0.846,34.113,7.921,27.562,29.088,7.74,5.688,5.153
95,0.856,33.855,7.937,27.571,29.088,7.781,5.768,5.153
96,0.859,33.996,7.925,27.6,29.095,7.862,5.85,5.153
97,0.866,34.151,7.956,27.62,29.098,7.985,5.891,5.356
98,0.853,34.172,7.929,27.562,29.085,7.783,5.77,5.114
99,0.856,33.98,7.929,27.581,29.091,7.822,5.891,5.152
100,0.866,34.093,7.925,27.572,29.091,7.822,5.77,5.153
101,0.853,34.219,7.921,27.552,29.084,7.741,5.728,5.112
102,0.84,34.288,7.933,27.533,29.084,7.699,5.727,5.152
103,0.852,33.924,7.937,27.571,29.091,7.78,5.809,5.193
104,0.862,34.055,7.909,27.591,29.091,7.822,5.891,5.275
105,0.849,34.19,7.917,27.562,29.091,7.781,5.729,5.073
106,0.856,34.268,7.925,27.562,29.091,7.822,5.931,5.233
107,0.869,34.192,7.913,27.552,29.091,7.781,5.852,5.194
108,0.85,34.316,7.913,27.542,29.088,7.74,5.769,5.031
109,0.862,34.413,7.913,27.542,29.077,7.618,5.687,5.07
110,0.875,34.462,7.925,27.571,29.084,7.779,5.89,5.152
111,0.859,34.3,7.905,27.562,29.091,7.7,5.811,5.153
112,0.853,34.432,7.94,27.562,29.091,7.699,5.769,5.112
113,0.869,34.539,7.925,27.571,29.095,7.78,5.85,5.193
114,0.879,34.905,7.94,27.591,29.102,7.822,5.891,5.275
115,0.863,34.429,7.917,27.543,29.085,7.659,5.811,5.154
116,0.859,34.558,7.936,27.552,29.095,7.658,5.688,5.153
117,0.856,34.684,7.913,27.562,29.091,7.617,5.809,5.112
118,0.866,34.436,7.921,27.533,29.078,7.535,5.728,5.152
119,0.849,34.501,7.929,27.542,29.084,7.575,5.85,5.193
120,0.862,34.655,7.937,27.552,29.095,7.657,5.81,5.194
121,0.869,34.771,7.925,27.571,29.095,7.658,5.932,5.275
122,0.856,34.629,7.913,27.543,29.088,7.536,5.811,5.113
123,0.856,34.781,7.921,27.533,29.091,7.657,5.81,5.152
124,0.859,34.869,7.921,27.533,29.091,7.658,5.769,5.193
125,0.856,34.956,7.925,27.523,29.081,7.617,5.687,5.072
126,0.84,34.736,7.905,27.513,29.074,7.576,5.646,5.03
127,0.852,34.907,7.936,27.542,29.091,7.779,5.849,5.233
128,0.866,35.004,7.913,27.552,29.091,7.74,5.851,5.153
129,0.859,35.082,7.929,27.533,29.088,7.781,5.769,5.153
130,0.856,35.131,7.913,27.542,29.091,7.822,5.85,5.234
131,0.879,35.304,7.929,27.552,29.095,7.781,5.81,5.194
132,0.866,35.363,7.917,27.514,29.081,7.822,5.728,5.153
133,0.869,35.431,7.913,27.523,29.084,7.741,5.727,5.112
134,0.859,35.374,7.936,27.542,29.084,7.821,5.727,5.234
135,0.853,35.488,7.917,27.533,29.081,7.863,5.687,5.113
136,0.862,35.605,7.929,27.513,29.084,7.863,5.687,5.112
137,0.862,35.625,7.944,27.523,29.095,7.944,5.809,5.193
138,0.859,35.539,7.937,27.561,29.102,8.067,5.932,5.316
139,0.849,35.634,7.913,27.523,29.092,8.028,5.73,5.154
140,0.859,35.721,7.929,27.533,29.098,8.149,5.809,5.153
141,0.846,35.712,7.933,27.523,29.091,8.15,5.728,5.112
142,0.846,35.722,7.921,27.504,29.084,8.11,5.605,5.112
143,0.853,35.837,7.925,27.465,29.084,8.191,5.564,5.03
144,0.862,35.944,7.929,27.522,29.091,8.354,5.726,5.151
145,0.856,35.964,7.937,27.494,29.088,8.437,5.727,5.153
146,0.849,36.117,7.905,27.513,29.084,8.438,5.687,5.153
147,0.862,36.253,7.921,27.523,29.095,8.56,5.727,5.234
148,0.879,36.331,7.933,27.533,29.088,8.521,5.687,5.153
149,0.856,36.044,7.929,27.494,29.091,8.52,5.687,5.071
150,0.869,36.195,7.933,27.494,29.084,8.439,5.646,5.111
151,0.879,36.34,7.944,27.523,29.091,8.56,5.727,5.152
152,0.872,36.361,7.913,27.494,29.088,8.439,5.646,5.112
153,0.866,36.323,7.913,27.513,29.088,8.519,5.605,5.193
154,0.859,36.476,7.933,27.523,29.091,8.52,5.686,5.194
155,0.879,36.631,7.944,27.552,29.098,8.601,5.809,5.234
156,0.856,36.632,7.913,27.504,29.091,8.44,5.647,5.072
157,0.853,36.45,7.933,27.513,29.091,8.438,5.686,5.111
158,0.859,36.573,7.925,27.513,29.088,8.479,5.727,5.152
159,0.859,36.661,7.905,27.475,29.084,8.357,5.605,5.071
160,0.849,36.7,7.905,27.494,29.084,8.356,5.645,5.193
161,0.856,36.585,7.925,27.513,29.084,8.437,5.686,5.194
162,0.862,36.718,7.94,27.513,29.098,8.438,5.768,5.316
163,0.859,36.806,7.925,27.485,29.091,8.316,5.647,5.032
164,0.859,36.97,7.937,27.494,29.095,8.315,5.686,5.151
165,0.862,36.741,7.921,27.494,29.091,8.274,5.727,5.153
166,0.862,36.825,7.933,27.475,29.084,8.152,5.605,5.153
167,0.853,36.912,7.913,27.475,29.081,8.069,5.564,4.99
168,0.859,36.817,7.925,27.494,29.091,8.15,5.685,5.192
169,0.866,36.874,7.921,27.475,29.095,8.11,5.687,5.194
170,0.872,36.999,7.94,27.484,29.088,7.947,5.564,5.153
171,0.879,37.125,7.925,27.484,29.091,8.026,5.726,5.193
172,0.879,36.915,7.937,27.494,29.091,7.987,5.687,5.153
173,0.863,37.038,7.925,27.475,29.091,7.864,5.564,5.112
174,0.872,37.125,7.913,27.475,29.088,7.822,5.563,5.071
175,0.869,37.222,7.925,27.494,29.091,7.903,5.685,5.193
176,0.863,36.945,7.929,27.484,29.081,7.823,5.605,5.153
177,0.869,37.105,7.921,27.475,29.088,7.822,5.686,5.153
178,0.885,37.222,7.921,27.484,29.095,7.944,5.687,5.193
179,0.885,37.3,7.94,27.523,29.102,7.945,5.687,5.275
180,0.872,37.09,7.925,27.475,29.088,7.823,5.605,5.073
181,0.879,37.241,7.933,27.475,29.091,7.822,5.686,5.111
182,0.876,37.319,7.921,27.484,29.088,7.985,5.727,5.152
183,0.872,37.349,7.937,27.446,29.088,7.986,5.565,5.071
184,0.869,37.129,7.933,27.455,29.088,8.068,5.645,5.111
185,0.882,37.28,7.933,27.474,29.091,8.231,5.645,5.193
186,0.895,37.387,7.937,27.494,29.102,8.273,5.808,5.234
187,0.876,37.369,7.933,27.475,29.092,8.274,5.606,5.113
188,0.892,37.157,7.937,27.475,29.088,8.314,5.645,5.234
189,0.886,37.261,7.921,27.455,29.088,8.315,5.727,5.153
190,0.879,37.348,7.917,27.455,29.084,8.234,5.605,5.071
191,0.882,37.177,7.909,27.436,29.084,8.151,5.523,5.03
192,0.895,37.213,7.925,27.474,29.091,8.313,5.725,5.192
193,0.899,37.329,7.937,27.475,29.091,8.274,5.646,5.234
194,0.886,37.426,7.917,27.446,29.084,8.274,5.605,5.194
195,0.892,37.101,7.925,27.484,29.091,8.314,5.686,5.234
196,0.908,37.232,7.929,27.475,29.091,8.234,5.646,5.113
197,0.889,37.329,7.913,27.446,29.081,8.111,5.605,5.071
198,0.879,37.406,7.921,27.446,29.084,8.069,5.564,5.07
199,0.892,37.091,7.921,27.474,29.091,8.191,5.645,5.193
200,0.882,37.222,7.933,27.446,29.088,8.151,5.564,5.112
201,0.885,37.348,7.944,27.465,29.088,8.15,5.645,5.112
202,0.885,37.416,7.937,27.455,29.095,8.232,5.686,5.152
203,0.898,37.283,7.929,27.484,29.105,8.273,5.768,5.193
204,0.876,37.377,7.917,27.446,29.092,8.152,5.606,5.072
205,0.882,37.493,7.921,27.455,29.088,8.232,5.604,5.07
206,0.876,37.542,7.937,27.455,29.095,8.314,5.645,5.152
207,0.869,37.131,7.925,27.427,29.085,8.274,5.564,5.153
208,0.876,37.27,7.917,27.436,29.084,8.396,5.604,5.153
209,0.876,37.377,7.933,27.436,29.095,8.519,5.645,5.193
210,0.882,37.436,7.933,27.474,29.098,8.601,5.767,5.275
211,0.879,37.177,7.905,27.427,29.085,8.48,5.687,5.113
212,0.879,37.309,7.932,27.455,29.098,8.601,5.727,5.193
213,0.879,37.406,7.944,27.465,29.091,8.521,5.727,5.153
214,0.866,37.369,7.945,27.427,29.081,8.479,5.605,5.031
215,0.853,37.119,7.937,27.407,29.081,8.52,5.523,4.989
216,0.866,37.308,7.937,27.436,29.095,8.601,5.685,5.232
217,0.859,37.387,7.925,27.445,29.091,8.643,5.768,5.194
218,0.866,37.119,7.925,27.446,29.088,8.603,5.647,5.112
219,0.866,37.222,7.933,27.465,29.095,8.684,5.727,5.193
220,0.859,37.319,7.937,27.446,29.091,8.603,5.687,5.112
221,0.836,37.387,7.917,27.426,29.081,8.562,5.646,4.989
222,0.846,37.052,7.936,27.417,29.088,8.439,5.645,4.988
223,0.84,37.202,7.933,27.436,29.088,8.56,5.727,5.11
224,0.826,37.328,7.917,27.407,29.084,8.48,5.646,5.03
225,0.826,37.378,7.929,27.416,29.088,8.52,5.686,5.111
226,0.83,37.09,7.921,27.455,29.088,8.52,5.687,5.193
227,0.833,37.251,7.94,27.455,29.102,8.642,5.809,5.316
228,0.817,37.339,7.917,27.436,29.085,8.44,5.728,5.114
229,0.823,37.416,7.936,27.436,29.091,8.438,5.646,5.152
230,0.826,37.053,7.921,27.445,29.088,8.397,5.727,5.193
231,0.82,37.183,7.929,27.407,29.084,8.275,5.605,5.072
232,0.81,37.299,7.917,27.388,29.088,8.233,5.645,5.07
233,0.82,37.349,7.948,27.426,29.095,8.233,5.808,5.193
234,0.82,36.985,7.945,27.436,29.095,8.273,5.728,5.275
235,0.817,37.106,7.929,27.417,29.085,8.193,5.646,5.113
236,0.813,37.232,7.94,27.426,29.095,8.192,5.727,5.152
237,0.813,37.338,7.925,27.407,29.088,8.11,5.809,5.071
238,0.813,36.985,7.909,27.407,29.084,7.987,5.647,5.03
239,0.8,37.115,7.913,27.369,29.077,7.946,5.645,5.03
240,0.807,37.232,7.925,27.435,29.091,8.026,5.727,5.151
241,0.79,37.012,7.925,27.417,29.088,7.946,5.727,5.112
242,0.793,37.039,7.94,27.397,29.095,7.945,5.727,5.152
243,0.79,37.164,7.917,27.407,29.098,7.945,5.809,5.153
244,0.806,37.28,7.925,27.407,29.095,7.945,5.688,5.071
245,0.794,36.965,7.917,27.397,29.085,7.823,5.687,5.07
246,0.793,37.096,7.917,27.378,29.081,7.781,5.646,4.989
247,0.787,37.212,7.925,27.416,29.091,7.862,5.767,5.11
248,0.787,37.281,7.909,27.388,29.084,7.822,5.687,5.071
249,0.784,36.898,7.917,27.407,29.091,7.863,5.687,5.07
250,0.81,37.076,7.933,27.407,29.091,7.904,5.727,5.193
251,0.813,37.203,7.956,27.445,29.105,7.985,5.89,5.234
252,0.79,37.233,7.929,27.378,29.088,7.783,5.648,5.072
253,0.806,36.945,7.905,27.387,29.088,7.781,5.727,5.111
254,0.797,37.096,7.929,27.397,29.091,7.781,5.768,5.112
255,0.784,37.155,7.921,27.378,29.084,7.659,5.647,5.03
256,0.79,37.213,7.909,27.368,29.091,7.658,5.686,5.07
257,0.8,36.983,7.913,27.387,29.095,7.78,5.727,5.111
258,0.797,37.115,7.929,27.407,29.105,7.781,5.768,5.315
259,0.787,37.193,7.929,27.397,29.085,7.7,5.728,5.114
260,0.79,37.223,7.933,27.397,29.091,7.78,5.687,5.112
261,0.797,36.926,7.933,27.378,29.088,7.7,5.727,5.112
262,0.784,37.038,7.929,27.359,29.088,7.577,5.687,4.989
263,0.774,37.135,7.929,27.339,29.074,7.454,5.564,4.948
264,0.793,37.078,7.933,27.368,29.091,7.615,5.685,5.11
265,0.78,36.953,7.925,27.378,29.088,7.495,5.687,5.112
266,0.787,37.077,7.917,27.378,29.088,7.534,5.687,5.03
267,0.777,37.203,7.936,27.387,29.091,7.575,5.727,5.192
268,0.8,36.887,7.937,27.416,29.105,7.698,5.85,5.194
269,0.79,36.913,7.929,27.349,29.081,7.455,5.607,5.112
270,0.8,37.067,7.921,27.377,29.091,7.452,5.686,5.071
271,0.8,37.145,7.933,27.378,29.091,7.534,5.727,5.152
272,0.784,36.896,7.921,27.359,29.078,7.372,5.646,5.071
273,0.793,37.047,7.921,27.368,29.088,7.492,5.686,5.152
274,0.793,37.174,7.944,27.378,29.095,7.534,5.849,5.153
275,0.8,37.29,7.952,27.407,29.109,7.738,5.81,5.315
276,0.784,36.754,7.937,27.369,29.088,7.537,5.688,5.073
277,0.787,36.912,7.96,27.368,29.095,7.657,5.727,5.152
278,0.787,37.028,7.933,27.359,29.088,7.617,5.727,5.071
279,0.793,37.068,7.917,27.358,29.088,7.576,5.646,5.07
280,0.793,36.752,7.917,27.339,29.081,7.575,5.645,5.07
281,0.793,36.912,7.925,27.368,29.091,7.698,5.727,5.152
282,0.793,37.028,7.925,27.378,29.091,7.699,5.809,5.275
283,0.8,37.058,7.925,27.349,29.088,7.74,5.606,5.154
284,0.8,36.857,7.929,27.349,29.091,7.659,5.726,5.153
285,0.81,37.009,7.944,27.358,29.095,7.658,5.727,5.153
286,0.794,37.096,7.933,27.339,29.088,7.658,5.687,5.071
287,0.793,37.49,7.933,27.339,29.084,7.536,5.564,5.03
288,0.803,36.833,7.937,27.339,29.084,7.697,5.685,5.151
289,0.794,36.941,7.913,27.33,29.088,7.618,5.646,5.071
290,0.797,37.057,7.929,27.339,29.084,7.617,5.686,5.07
291,0.807,36.637,7.929,27.368,29.091,7.698,5.687,5.193
292,0.826,36.69,7.937,27.397,29.105,7.74,5.809,5.234
293,0.804,36.786,7.913,27.359,29.085,7.618,5.647,5.072
294,0.81,36.874,7.925,27.349,29.091,7.739,5.686,5.152
295,0.81,36.548,7.917,27.349,29.091,7.699,5.646,5.112
296,0.803,36.66,7.925,27.32,29.081,7.74,5.564,5.03
297,0.797,36.767,7.937,27.31,29.077,7.618,5.563,5.111
298,0.807,36.864,7.948,27.348,29.091,7.901,5.645,5.152
299,0.807,36.52,7.929,27.349,29.095,8.026,5.727,5.193
300,0.8,36.67,7.913,27.339,29.088,8.149,5.646,5.153
301,0.807,36.796,7.921,27.339,29.098,8.395,5.686,5.071
302,0.81,36.864,7.925,27.349,29.091,8.56,5.687,5.07
303,0.803,36.472,7.921,27.301,29.081,8.683,5.646,5.07
304,0.8,36.592,7.913,27.3,29.081,8.847,5.605,4.989
305,0.797,36.728,7.94,27.32,29.091,9.093,5.726,5.07
306,0.81,36.758,7.929,27.31,29.084,9.176,5.646,5.111
307,0.813,36.288,7.944,27.329,29.088,9.34,5.686,5.03
308,0.813,36.437,7.929,27.329,29.098,9.464,5.687,5.151
309,0.826,36.563,7.94,27.358,29.102,9.668,5.809,5.234
310,0.807,36.555,7.925,27.32,29.092,9.548,5.606,5.032
311,0.816,36.258,7.925,27.329,29.091,9.628,5.645,5.111
312,0.813,36.389,7.917,27.32,29.088,9.588,5.686,5.112
313,0.803,36.476,7.921,27.329,29.084,9.507,5.646,5.071
314,0.81,36.305,7.917,27.301,29.084,9.506,5.605,5.111
315,0.82,36.255,7.929,27.329,29.088,9.587,5.726,5.112
316,0.817,36.36,7.933,27.339,29.098,9.629,5.768,5.274
317,0.813,36.467,7.921,27.291,29.091,9.466,5.728,5.113
318,0.82,36.036,7.929,27.329,29.091,9.505,5.768,5.112
319,0.81,36.128,7.925,27.329,29.095,9.343,5.687,5.112
320,0.81,36.244,7.937,27.291,29.085,9.301,5.727,5.071
321,0.803,36.322,7.913,27.31,29.084,9.178,5.605,4.989
322,0.807,36.083,7.929,27.31,29.084,9.177,5.726,5.11
323,0.803,36.186,7.913,27.3,29.084,9.096,5.687,5.03
324,0.8,36.331,7.921,27.31,29.084,9.054,5.727,5.03
325,0.803,36.418,7.929,27.32,29.095,9.013,5.768,5.111
326,0.813,35.94,7.94,27.349,29.105,9.054,5.809,5.152
327,0.81,36.069,7.913,27.301,29.088,8.81,5.688,5.071
328,0.813,36.195,7.925,27.329,29.095,8.848,5.727,5.07
329,0.82,36.254,7.925,27.32,29.095,8.727,5.646,5.193
330,0.82,36.015,7.905,27.301,29.085,8.603,5.645,5.031
331,0.807,36.147,7.929,27.3,29.081,8.643,5.727,5.111
332,0.813,36.273,7.94,27.31,29.091,8.481,5.809,5.193
333,0.823,36.332,7.937,27.339,29.102,8.601,5.81,5.316
334,0.81,35.862,7.909,27.291,29.088,8.399,5.728,5.114
335,0.826,36.001,7.936,27.31,29.095,8.397,5.727,5.193
336,0.82,36.089,7.929,27.31,29.088,8.356,5.727,5.112
337,0.817,36.339,7.929,27.291,29.084,8.275,5.727,5.03
338,0.807,35.929,7.913,27.262,29.071,8.233,5.646,5.03
339,0.813,36.079,7.925,27.3,29.091,8.355,5.686,5.07
340,0.826,36.186,7.921,27.3,29.088,8.275,5.687,5.111
341,0.813,35.717,7.913,27.291,29.088,8.274,5.727,5.03
342,0.807,35.77,7.933,27.3,29.095,8.274,5.768,5.151
343,0.826,35.924,7.948,27.3,29.102,8.274,5.728,5.112
344,0.804,35.954,7.929,27.3,29.088,8.193,5.687,5.03
345,0.807,35.839,7.929,27.291,29.084,8.192,5.646,5.07
346,0.803,35.992,7.933,27.291,29.088,8.273,5.767,5.111
347,0.807,36.099,7.921,27.272,29.084,8.193,5.728,5.071
348,0.81,36.186,7.925,27.291,29.088,8.192,5.687,5.07
349,0.82,35.746,7.937,27.291,29.095,8.151,5.727,5.111
350,0.83,35.923,7.941,27.348,29.105,8.273,5.89,5.234
351,0.82,36.012,7.921,27.301,29.092,8.111,5.729,5.113
352,0.817,36.07,7.925,27.3,29.088,8.109,5.727,5.03
353,0.82,35.773,7.933,27.3,29.088,8.069,5.727,5.151
354,0.807,35.905,7.925,27.291,29.077,7.946,5.687,5.071
355,0.81,36.021,7.929,27.272,29.091,7.945,5.727,5.152
356,0.816,36.089,7.933,27.3,29.095,7.945,5.727,5.112
357,0.826,35.927,7.929,27.32,29.098,8.108,5.89,5.193
358,0.81,36.031,7.933,27.301,29.088,7.947,5.689,5.112
359,0.816,36.147,7.948,27.32,29.098,7.945,5.809,5.112
360,0.803,36.158,7.933,27.291,29.095,7.864,5.728,5.071
361,0.803,35.736,7.913,27.272,29.078,7.822,5.646,5.03
362,0.797,35.856,7.897,27.262,29.077,7.619,5.605,4.948
363,0.803,35.982,7.913,27.31,29.088,7.779,5.726,5.069
364,0.797,35.801,7.917,27.291,29.088,7.7,5.727,5.111
365,0.794,35.79,7.909,27.281,29.084,7.699,5.727,5.03
366,0.797,35.914,7.933,27.3,29.088,7.699,5.809,5.111
367,0.807,36.04,7.937,27.32,29.091,7.658,5.647,5.152
368,0.797,35.725,7.925,27.301,29.088,7.576,5.686,5.071
369,0.8,35.875,7.921,27.291,29.091,7.535,5.646,4.989
370,0.803,35.982,7.944,27.31,29.091,7.575,5.767,5.151
371,0.8,36.06,7.933,27.291,29.084,7.494,5.687,5.112
372,0.81,35.792,7.933,27.3,29.088,7.412,5.687,5.152
373,0.816,35.934,7.944,27.329,29.091,7.452,5.727,5.153
374,0.82,36.088,7.929,27.329,29.102,7.452,5.727,5.153
375,0.8,36.128,7.913,27.291,29.081,7.371,5.687,5.031
376,0.81,35.879,7.917,27.291,29.084,7.289,5.687,5.03
377,0.803,36.03,7.921,27.3,29.084,7.288,5.727,5.111
378,0.794,36.128,7.913,27.291,29.084,7.125,5.646,4.989
379,0.8,36.186,7.913,27.281,29.091,7.246,5.727,5.07
380,0.797,35.928,7.929,27.319,29.098,7.288,5.727,5.111
381,0.8,36.088,7.956,27.339,29.102,7.329,5.85,5.193
382,0.794,36.167,7.929,27.291,29.095,7.167,5.648,5.072
383,0.79,36.215,7.929,27.3,29.091,7.165,5.767,5.07
384,0.787,35.861,7.929,27.3,29.088,7.165,5.768,5.07
385,0.787,35.982,7.917,27.281,29.084,7.043,5.647,4.989
386,0.793,36.07,7.913,27.262,29.084,7.042,5.645,5.029
387,0.79,36.186,7.929,27.281,29.084,7.164,5.767,5.07
388,0.797,35.957,7.925,27.291,29.095,7.206,5.809,5.233
389,0.797,36.06,7.929,27.291,29.088,7.043,5.728,4.991
390,0.81,36.176,7.937,27.31,29.098,7.164,5.809,5.11
391,0.8,35.985,7.933,27.281,29.088,7.165,5.728,4.989
392,0.8,36.051,7.921,27.271,29.084,7.043,5.646,5.07
393,0.797,36.176,7.921,27.281,29.084,7.001,5.605,5.03
394,0.8,36.273,7.937,27.3,29.091,7.123,5.767,5.111
395,0.787,35.862,7.925,27.281,29.084,7.043,5.687,5.071
396,0.806,35.992,7.929,27.291,29.091,7.082,5.727,5.07
397,0.81,36.147,7.933,27.3,29.091,7.164,5.768,5.111
398,0.81,36.254,7.948,27.32,29.098,7.287,5.809,5.152
399,0.794,35.804,7.929,27.291,29.088,7.125,5.688,4.949
400,0.8,35.972,7.929,27.291,29.088,7.124,5.646,4.988
401,0.794,36.07,7.929,27.291,29.091,7.124,5.645,5.151
402,0.78,36.128,7.909,27.262,29.081,7.083,5.605,4.949
403,0.793,36.033,7.913,27.271,29.091,7.083,5.604,5.069
404,0.797,36.185,7.936,27.281,29.091,7.245,5.645,5.07
405,0.803,36.321,7.944,27.31,29.105,7.288,5.767,5.193
406,0.79,36.332,7.925,27.281,29.085,7.125,5.606,4.99
407,0.784,35.958,7.937,27.291,29.091,7.124,5.726,5.11
408,0.78,36.089,7.929,27.281,29.091,7.083,5.687,5.152
409,0.774,36.167,7.921,27.281,29.084,7.002,5.646,5.071
410,0.777,36.167,7.909,27.271,29.077,7.041,5.645,4.989
411,0.793,35.976,7.933,27.291,29.091,7.123,5.645,5.11
412,0.797,36.098,7.937,27.291,29.095,7.205,5.727,5.152
413,0.781,36.186,7.913,27.291,29.088,7.165,5.605,5.071
414,0.793,36.062,7.929,27.3,29.095,7.165,5.686,5.152
415,0.8,36.07,7.925,27.3,29.095,7.124,5.727,5.071
416,0.784,36.186,7.905,27.272,29.088,7.083,5.646,5.03
417,0.787,36.273,7.901,27.281,29.077,7.083,5.523,4.948
418,0.787,35.9,7.932,27.281,29.091,7.205,5.685,5.069
419,0.767,36.011,7.937,27.271,29.084,7.206,5.605,5.07
420,0.78,36.147,7.937,27.271,29.091,7.247,5.564,5.111
421,0.78,36.206,7.929,27.281,29.088,7.369,5.685,5.152
422,0.79,35.966,7.937,27.3,29.095,7.452,5.687,5.153
423,0.784,36.06,7.925,27.281,29.085,7.371,5.605,4.99
424,0.78,36.186,7.94,27.271,29.091,7.492,5.564,5.029
425,0.78,36.244,7.925,27.281,29.091,7.616,5.685,5.07
426,0.771,35.861,7.94,27.262,29.091,7.617,5.524,4.948
427,0.774,36.011,7.929,27.281,29.084,7.739,5.644,5.069
428,0.787,36.156,7.933,27.291,29.095,7.862,5.645,5.07
429,0.793,36.206,7.944,27.31,29.102,7.985,5.767,5.193
430,0.79,36.053,7.929,27.262,29.092,7.946,5.647,5.072
431,0.797,36.195,7.929,27.29,29.091,7.945,5.645,5.111
432,0.787,36.312,7.917,27.291,29.091,7.986,5.645,5.071
433,0.78,36.322,7.929,27.281,29.084,7.946,5.605,5.03
434,0.777,35.805,7.921,27.271,29.074,7.905,5.523,4.989
435,0.787,35.953,7.925,27.3,29.091,8.067,5.685,5.07
436,0.787,36.031,7.937,27.281,29.088,8.069,5.687,5.07
437,0.803,36.156,7.917,27.281,29.091,8.069,5.687,5.03
438,0.797,36.11,7.925,27.281,29.088,8.109,5.687,5.111
439,0.803,36.244,7.937,27.31,29.098,8.15,5.768,5.152
440,0.784,36.293,7.933,27.291,29.085,7.988,5.647,5.071
441,0.79,35.766,7.933,27.291,29.084,8.027,5.727,5.111
442,0.784,35.837,7.929,27.291,29.091,7.946,5.687,5.03
443,0.784,35.944,7.929,27.252,29.084,7.986,5.646,4.948
444,0.787,36.012,7.913,27.252,29.084,7.946,5.605,5.069
445,0.797,35.83,7.925,27.271,29.091,7.986,5.726,5.07
446,0.784,35.982,7.925,27.3,29.098,8.108,5.809,5.152
447,0.79,36.089,7.929,27.281,29.088,7.865,5.647,5.071
448,0.8,36.176,7.925,27.291,29.098,7.985,5.727,5.07
449,0.803,35.803,7.909,27.281,29.088,7.905,5.727,5.07
450,0.8,35.924,7.905,27.271,29.084,7.863,5.646,5.03
451,0.797,36.04,7.929,27.243,29.077,7.822,5.605,5.03
452,0.807,36.128,7.913,27.3,29.098,7.985,5.726,5.151
453,0.816,35.784,7.917,27.3,29.091,8.068,5.768,5.234
454,0.816,35.924,7.921,27.272,29.088,7.946,5.647,5.072
455,0.82,36.05,7.921,27.319,29.084,7.986,5.686,5.152
456,0.83,36.08,7.913,27.281,29.091,7.946,5.687,5.071
457,0.83,35.649,7.917,27.271,29.081,7.945,5.605,4.989
458,0.83,35.779,7.909,27.243,29.084,7.864,5.523,4.988
459,0.846,35.905,7.929,27.281,29.091,7.985,5.685,5.07
460,0.836,36.136,7.925,27.262,29.088,7.946,5.687,5.152
461,0.846,35.764,7.925,27.262,29.088,7.945,5.646,4.99
462,0.853,35.895,7.94,27.281,29.098,7.945,5.727,5.151
463,0.862,36.011,7.941,27.31,29.098,7.945,5.727,5.071
464,0.869,35.725,7.913,27.272,29.081,7.783,5.646,4.948
465,0.876,35.751,7.929,27.262,29.091,7.822,5.564,4.988
466,0.879,35.895,7.944,27.271,29.084,7.781,5.645,5.07
467,0.872,35.973,7.917,27.262,29.084,7.74,5.645,4.989
468,0.879,35.609,7.925,27.271,29.081,7.699,5.645,5.07
469,0.885,35.749,7.937,27.281,29.091,7.74,5.686,5.07
470,0.908,35.904,7.944,27.319,29.095,7.903,5.768,5.193
471,0.905,35.944,7.929,27.272,29.085,7.701,5.565,5.072
472,0.921,35.561,7.905,27.271,29.088,7.658,5.604,5.03
473,0.918,35.672,7.917,27.291,29.091,7.698,5.686,5.111
474,0.912,35.789,7.921,27.262,29.084,7.618,5.605,5.03
475,0.905,35.857,7.937,27.3,29.088,7.657,5.645,5.07
476,0.925,35.551,7.937,27.3,29.088,7.658,5.686,5.152
477,0.931,35.701,7.933,27.31,29.109,7.698,5.768,5.193
478,0.935,35.808,7.921,27.272,29.081,7.577,5.565,5.112
479,0.938,35.857,7.933,27.271,29.098,7.698,5.645,5.112
480,0.932,35.551,7.925,27.281,29.085,7.658,5.645,5.03
481,0.925,35.682,7.913,27.262,29.084,7.576,5.523,4.989
482,0.915,35.769,7.917,27.262,29.077,7.535,5.563,4.988
483,0.931,35.847,7.909,27.271,29.095,7.657,5.645,5.11
484,0.938,35.522,7.921,27.271,29.085,7.739,5.645,5.03
485,0.945,35.643,7.909,27.262,29.084,7.781,5.645,5.03
486,0.948,35.769,7.936,27.281,29.091,7.781,5.686,5.111
487,0.967,35.713,7.933,27.3,29.095,7.903,5.646,5.112
488,0.951,35.559,7.913,27.262,29.085,7.742,5.605,4.949
489,0.948,35.701,7.913,27.281,29.084,7.862,5.604,5.069
490,0.958,35.789,7.933,27.271,29.091,7.863,5.686,5.111
491,0.958,35.387,7.925,27.271,29.084,7.863,5.646,4.908
492,0.951,35.498,7.925,27.262,29.088,7.944,5.645,5.069
493,0.938,35.614,7.948,27.281,29.098,8.067,5.686,5.193
494,0.941,35.74,7.937,27.329,29.098,8.231,5.768,5.194
495,0.938,35.329,7.929,27.282,29.085,8.111,5.647,5.031
496,0.941,35.478,7.937,27.291,29.095,8.191,5.727,5.03
497,0.941,35.595,7.933,27.272,29.088,8.273,5.768,5.07
498,0.945,35.673,7.909,27.252,29.084,8.274,5.647,5.03
499,0.938,35.347,7.921,27.242,29.077,8.274,5.564,4.948
500,0.951,35.526,7.933,27.281,29.088,8.436,5.726,5.11
501,0.945,35.634,7.913,27.281,29.084,8.56,5.768,5.071
502,0.961,35.683,7.917,27.281,29.084,8.602,5.687,4.948
503,0.968,35.252,7.929,27.291,29.095,8.724,5.727,5.069
504,0.984,35.401,7.933,27.281,29.091,8.848,5.687,5.111
505,0.952,35.479,7.929,27.262,29.088,8.849,5.605,4.989
506,0.951,35.509,7.929,27.262,29.084,8.93,5.645,4.948
507,0.958,35.384,7.929,27.262,29.088,9.093,5.686,5.11
508,0.948,35.498,7.937,27.252,29.084,9.136,5.646,5.03
509,0.948,35.614,7.925,27.262,29.088,9.258,5.686,5.03
510,0.945,36.028,7.937,27.281,29.091,9.3,5.768,5.111
511,0.951,35.351,7.948,27.3,29.102,9.423,5.809,5.193
512,0.935,35.44,7.929,27.262,29.085,9.342,5.647,5.112
513,0.945,35.546,7.929,27.281,29.098,9.382,5.686,5.112
514,0.935,35.241,7.921,27.281,29.088,9.301,5.687,5.071
515,0.912,35.266,7.933,27.271,29.077,9.301,5.605,5.03
516,0.899,35.382,7.913,27.243,29.077,9.219,5.645,4.989
517,0.892,35.488,7.933,27.29,29.088,9.3,5.686,5.11
518,0.886,35.173,7.929,27.262,29.088,9.219,5.727,5.03
519,0.859,35.333,7.929,27.281,29.084,9.096,5.768,5.03
520,0.846,35.469,7.94,27.291,29.091,9.136,5.687,5.07
521,0.853,35.566,7.925,27.3,29.095,9.055,5.646,5.07
522,0.84,35.126,7.929,27.252,29.091,8.973,5.605,4.989
523,0.826,35.256,7.937,27.252,29.084,8.891,5.604,4.948
524,0.813,35.401,7.933,27.281,29.098,8.93,5.645,5.069
525,0.8,35.441,7.913,27.233,29.085,8.768,5.605,4.948
526,0.813,35.172,7.921,27.252,29.084,8.807,5.645,5.069
527,0.8,35.333,7.925,27.29,29.095,8.767,5.767,5.111
528,0.81,35.469,7.952,27.319,29.105,8.767,5.85,5.152
529,0.807,35.48,7.917,27.272,29.085,8.604,5.648,5.071
530,0.807,35.211,7.929,27.281,29.088,8.684,5.686,5.03
531,0.803,35.333,7.929,27.262,29.095,8.562,5.768,4.989
532,0.8,35.449,7.925,27.262,29.081,8.439,5.606,4.988
533,0.781,35.451,7.921,27.252,29.084,8.357,5.686,5.029
534,0.79,35.24,7.925,27.281,29.095,8.356,5.687,5.111
535,0.78,35.391,7.937,27.3,29.098,8.437,5.727,5.234
536,0.777,35.488,7.913,27.272,29.088,8.235,5.727,4.991
537,0.78,35.24,7.925,27.271,29.095,8.233,5.768,5.192
538,0.774,35.094,7.925,27.271,29.088,8.192,5.647,5.112
539,0.754,35.227,7.917,27.262,29.091,8.11,5.564,5.03
540,0.748,35.314,7.917,27.252,29.078,7.987,5.563,4.907
541,0.751,35.085,7.933,27.271,29.095,8.108,5.645,5.069
542,0.738,35.207,7.925,27.252,29.088,8.028,5.645,5.03
543,0.747,35.314,7.929,27.262,29.091,7.987,5.686,4.989
544,0.747,35.421,7.944,27.281,29.088,7.946,5.809,5.07
545,0.754,34.942,7.933,27.281,29.102,7.986,5.728,5.111
546,0.735,35.043,7.921,27.252,29.085,7.824,5.687,4.989
547,0.734,35.178,7.94,27.262,29.091,7.863,5.646,4.988
548,0.741,35.247,7.933,27.271,29.091,7.782,5.686,5.029
549,0.734,35.008,7.921,27.262,29.088,7.659,5.605,4.989
550,0.738,35.13,7.913,27.252,29.091,7.698,5.645,5.029
551,0.734,35.275,7.936,27.29,29.091,7.699,5.686,5.07
552,0.747,35.353,7.929,27.31,29.102,7.78,5.809,5.193
553,0.741,34.989,7.933,27.272,29.088,7.537,5.647,4.99
554,0.747,35.139,7.937,27.281,29.095,7.616,5.727,5.07
555,0.738,35.256,7.921,27.271,29.095,7.535,5.727,5.152
556,0.731,35.276,7.925,27.252,29.078,7.453,5.646,4.99
557,0.721,34.931,7.909,27.252,29.077,7.452,5.564,5.07
558,0.734,35.1,7.929,27.281,29.088,7.534,5.604,5.111
559,0.734,35.207,7.929,27.281,29.091,7.534,5.726,5.152
560,0.747,35.429,7.921,27.262,29.084,7.494,5.646,4.99
561,0.738,34.981,7.933,27.29,29.091,7.534,5.767,5.07
562,0.744,35.11,7.937,27.272,29.081,7.453,5.687,5.07
563,0.734,35.198,7.925,27.252,29.088,7.412,5.646,4.948
564,0.725,34.911,7.913,27.252,29.077,7.371,5.564,4.866
565,0.728,34.995,7.921,27.262,29.095,7.452,5.685,4.987
566,0.721,35.12,7.921,27.262,29.091,7.412,5.687,4.988
567,0.734,35.208,7.937,27.262,29.091,7.452,5.727,5.029
568,0.731,34.777,7.937,27.281,29.095,7.452,5.646,5.03
569,0.734,34.945,7.952,27.31,29.098,7.493,5.767,5.151
570,0.725,35.014,7.925,27.281,29.088,7.371,5.565,4.99
571,0.731,35.12,7.929,27.271,29.088,7.37,5.563,4.988
572,0.728,34.786,7.944,27.271,29.084,7.37,5.645,5.029
573,0.725,34.917,7.929,27.262,29.081,7.33,5.645,4.989
574,0.724,35.052,7.925,27.271,29.088,7.37,5.645,5.07
575,0.737,35.13,7.917,27.281,29.095,7.37,5.727,5.07
576,0.747,34.834,7.94,27.291,29.105,7.492,5.768,5.193
577,0.728,34.965,7.933,27.243,29.088,7.331,5.687,4.95
578,0.731,35.072,7.921,27.271,29.088,7.37,5.727,5.069
579,0.734,35.13,7.921,27.281,29.091,7.37,5.687,5.07
580,0.725,34.824,7.921,27.262,29.084,7.248,5.605,5.03
581,0.724,34.946,7.917,27.243,29.074,7.328,5.482,4.989
582,0.731,35.12,7.929,27.271,29.095,7.37,5.725,5.11
583,0.744,35.112,7.921,27.271,29.095,7.411,5.727,5.071
584,0.741,34.853,7.913,27.252,29.085,7.371,5.605,5.03
585,0.751,35.013,7.921,27.271,29.091,7.452,5.645,4.989
586,0.741,35.101,7.921,27.262,29.091,7.412,5.686,5.07
587,0.731,34.862,7.917,27.252,29.081,7.289,5.605,5.03
588,0.741,34.822,7.925,27.252,29.084,7.247,5.564,4.907
589,0.747,34.965,7.933,27.252,29.081,7.41,5.645,5.028
590,0.741,35.053,7.925,27.252,29.081,7.289,5.523,4.989
591,0.751,34.689,7.909,27.262,29.091,7.288,5.563,5.029
592,0.751,34.81,7.921,27.29,29.091,7.369,5.645,5.111
593,0.764,34.955,7.937,27.291,29.098,7.452,5.727,5.152
594,0.751,35.014,7.929,27.272,29.081,7.33,5.646,5.031
595,0.751,34.766,7.944,27.281,29.095,7.329,5.686,5.151
596,0.754,34.907,7.929,27.271,29.095,7.289,5.646,5.112
597,0.738,35.023,7.944,27.252,29.085,7.166,5.523,4.908
598,0.734,35.063,7.925,27.242,29.084,7.124,5.563,4.987
599,0.747,34.699,7.933,27.271,29.088,7.246,5.604,5.151
600,0.751,34.849,7.937,27.291,29.102,7.288,5.767,5.193
601,0.744,34.956,7.937,27.262,29.085,7.166,5.606,5.031
602,0.751,35.005,7.921,27.281,29.091,7.246,5.686,5.07
603,0.754,34.746,7.921,27.281,29.091,7.206,5.646,5.03
604,0.744,34.849,7.913,27.243,29.084,7.165,5.483,4.948
605,0.754,34.975,7.901,27.242,29.081,7.084,5.4,4.907
606,0.774,35.014,7.929,27.252,29.091,7.205,5.602,4.987
607,0.78,34.65,7.917,27.271,29.084,7.165,5.645,5.07
608,0.806,34.781,7.925,27.262,29.084,7.124,5.564,5.03
609,0.833,34.888,7.925,27.271,29.091,7.165,5.563,5.07
610,0.872,35.014,7.94,27.271,29.095,7.206,5.645,5.03
611,0.892,34.785,7.913,27.271,29.081,7.084,5.523,4.989
612,0.925,34.897,7.913,27.262,29.084,6.961,5.482,4.988
613,0.954,35.004,7.929,27.262,29.095,7.204,5.644,5.07
614,0.974,34.602,7.909,27.252,29.088,7.003,5.605,4.989
615,1.0,34.675,7.909,27.281,29.095,7.123,5.564,5.029
616,1.013,34.82,7.929,27.281,29.091,7.002,5.604,5.07
617,1.046,34.917,7.937,27.319,29.102,7.082,5.686,5.152
618,1.053,34.649,7.909,27.243,29.088,7.002,5.524,4.99
619,1.082,34.8,7.925,27.261,29.088,7.001,5.563,5.07
620,1.105,34.907,7.925,27.252,29.088,7.001,5.645,5.111
621,1.096,34.966,7.925,27.252,29.084,6.879,5.442,4.949
622,1.07,34.64,7.901,27.242,29.084,6.959,5.481,5.029
623,1.092,34.819,7.925,27.261,29.091,6.96,5.522,4.989
624,1.112,34.936,7.933,27.271,29.091,7.041,5.644,5.151
625,1.112,34.995,7.925,27.243,29.084,6.96,5.564,4.949
626,1.089,34.65,7.929,27.271,29.091,6.96,5.604,5.069
627,1.076,34.8,7.929,27.262,29.088,6.96,5.564,5.111
628,1.03,34.888,7.917,27.252,29.084,6.797,5.523,4.989
629,0.984,34.918,7.925,27.242,29.077,6.836,5.522,4.948
630,0.935,34.678,7.921,27.261,29.084,6.837,5.563,4.988
631,0.873,34.8,7.909,27.262,29.084,6.837,5.523,5.07
632,0.827,34.926,7.929,27.262,29.091,6.837,5.603,5.03
633,0.758,34.947,7.925,27.271,29.095,6.918,5.726,5.111
634,0.689,34.611,7.933,27.3,29.102,6.959,5.687,5.112
635,0.591,34.704,7.917,27.252,29.081,6.797,5.524,4.989
636,0.525,34.82,7.921,27.271,29.088,6.755,5.644,4.988
637,0.43,34.696,7.937,27.262,29.088,6.795,5.645,5.029
638,0.341,34.695,7.921,27.252,29.084,6.714,5.483,4.907
639,0.249,34.81,7.913,27.233,29.088,6.754,5.603,4.987
640,0.225,34.946,7.921,27.271,29.088,6.836,5.604,5.07
641,0.199,34.631,7.929,27.281,29.091,6.918,5.726,5.152
642,0.163,34.704,7.921,27.243,29.084,6.715,5.565,5.071
643,0.159,34.868,7.933,27.271,29.091,6.794,5.685,5.07
644,0.104,34.937,7.933,27.262,29.088,6.714,5.524,4.989
645,0.051,34.525,7.937,27.243,29.084,6.632,5.522,5.029
646,0.012,34.655,7.921,27.214,29.071,6.55,5.482,4.907
647,0.012,34.81,7.94,27.271,29.088,6.793,5.603,5.109
648,-0.011,34.85,7.921,27.271,29.088,6.795,5.645,5.112
649,-0.041,34.495,7.925,27.243,29.088,6.755,5.645,5.071
650,-0.061,34.645,7.937,27.261,29.091,6.836,5.686,5.152
651,-0.067,34.762,7.933,27.271,29.091,6.877,5.605,5.071
652,-0.084,34.801,7.925,27.252,29.084,6.837,5.604,5.03
653,-0.067,34.457,7.917,27.223,29.084,6.714,5.482,4.989
654,-0.022,34.626,7.925,27.271,29.084,6.916,5.725,5.151
655,0.031,34.733,7.913,27.262,29.081,6.919,5.687,5.193
656,0.087,34.791,7.925,27.252,29.084,6.878,5.687,5.153
657,0.142,34.524,7.921,27.262,29.091,6.959,5.809,5.193
658,0.208,34.684,7.94,27.271,29.091,6.96,5.81,5.234
659,0.235,34.772,7.925,27.252,29.084,6.797,5.81,5.153
660,0.28,34.801,7.937,27.262,29.084,6.877,5.81,5.153
661,0.32,34.658,7.933,27.281,29.095,6.959,5.81,5.234
662,0.343,34.771,7.933,27.243,29.078,6.838,5.85,5.113
663,0.369,34.869,7.944,27.261,29.084,6.918,5.81,5.071
664,0.412,34.563,7.937,27.252,29.088,7.041,5.932,5.193
665,0.442,34.655,7.937,27.271,29.105,7.082,6.055,5.316
666,0.465,34.752,7.921,27.252,29.085,7.002,5.893,5.114
667,0.501,34.859,7.929,27.271,29.091,7.041,5.973,5.315
668,0.527,34.438,7.921,27.252,29.084,7.001,5.933,5.195
669,0.557,34.558,7.933,27.242,29.088,7.001,5.933,5.153
670,0.576,34.665,7.913,27.223,29.077,6.96,5.811,5.031
671,0.603,34.791,7.936,27.261,29.084,7.041,5.972,5.273
672,0.619,34.552,7.909,27.243,29.088,7.123,5.974,5.235
673,0.652,34.694,7.925,27.261,29.088,7.083,5.933,5.235
674,0.672,34.801,7.929,27.281,29.091,7.164,5.974,5.316
675,0.691,34.888,7.929,27.271,29.091,7.084,6.015,5.317
676,0.708,34.438,7.921,27.233,29.084,7.042,5.974,5.154
677,0.708,34.568,7.921,27.233,29.081,7.001,5.852,5.153
678,0.744,34.713,7.913,27.242,29.091,7.082,6.013,5.315
679,0.757,34.753,7.909,27.242,29.084,7.042,5.974,5.317
680,0.774,34.485,7.917,27.242,29.088,7.042,5.933,5.195
681,0.774,34.616,7.933,27.261,29.088,7.123,5.974,5.316
682,0.797,34.771,7.937,27.262,29.098,7.124,6.096,5.276
683,0.784,34.859,7.921,27.223,29.085,7.002,5.935,5.195
684,0.8,34.505,7.917,27.242,29.091,7.082,6.055,5.234
685,0.803,34.626,7.929,27.261,29.088,7.083,6.056,5.235
686,0.8,34.714,7.925,27.243,29.077,7.083,5.975,5.153
687,0.813,34.513,7.929,27.242,29.084,7.205,6.055,5.275
688,0.813,34.559,7.933,27.261,29.088,7.125,6.097,5.276
689,0.823,34.703,7.933,27.262,29.098,7.327,6.138,5.398
690,0.817,34.772,7.937,27.252,29.088,7.207,5.976,5.277
691,0.836,34.447,7.921,27.262,29.091,7.287,6.055,5.357
692,0.826,34.558,7.925,27.262,29.088,7.288,5.975,5.277
693,0.826,34.665,7.917,27.262,29.088,7.288,5.933,5.276
694,0.826,34.752,7.913,27.233,29.071,7.247,5.892,5.276
695,0.843,34.379,7.936,27.261,29.088,7.369,5.973,5.357
696,0.83,34.51,7.921,27.243,29.088,7.37,5.933,5.317
697,0.833,34.645,7.929,27.242,29.091,7.37,6.014,5.317
698,0.833,34.733,7.929,27.252,29.091,7.492,6.056,5.358
699,0.846,34.427,7.933,27.271,29.098,7.575,6.056,5.358
700,0.827,34.539,7.929,27.252,29.081,7.454,6.015,5.236
701,0.839,34.674,7.917,27.252,29.088,7.33,6.056,5.275
702,0.839,34.705,7.925,27.252,29.084,7.451,6.097,5.276
703,0.83,34.398,7.921,27.233,29.084,7.29,5.975,5.195
704,0.826,34.51,7.925,27.233,29.077,7.329,6.055,5.234
705,0.836,34.636,7.933,27.252,29.091,7.37,6.056,5.316
706,0.839,34.695,7.929,27.271,29.102,7.492,6.178,5.439
707,0.836,34.398,7.929,27.262,29.088,7.331,6.057,5.237
708,0.846,34.52,7.929,27.271,29.091,7.451,6.097,5.397
709,0.84,34.655,7.933,27.252,29.095,7.33,6.097,5.236
710,0.846,34.561,7.929,27.233,29.091,7.207,5.975,5.194
711,0.836,34.425,7.917,27.242,29.081,7.287,5.974,5.153
712,0.849,34.587,7.936,27.252,29.084,7.329,6.096,5.315
713,0.846,34.675,7.925,27.242,29.091,7.289,6.016,5.317
714,0.853,34.216,7.929,27.252,29.088,7.329,6.056,5.317
715,0.846,34.326,7.933,27.262,29.091,7.289,6.178,5.317
716,0.859,34.481,7.937,27.31,29.088,7.451,6.139,5.317
717,0.846,34.54,7.929,27.243,29.088,7.29,6.057,5.236
718,0.853,34.348,7.94,27.242,29.091,7.369,6.015,5.194
719,0.853,34.481,7.921,27.242,29.091,7.37,6.096,5.316
720,0.836,34.578,7.929,27.233,29.078,7.33,6.016,5.195
721,0.839,34.684,7.917,27.242,29.091,7.37,6.015,5.234
722,0.849,34.216,7.929,27.261,29.091,7.411,6.096,5.316
723,0.859,34.383,7.937,27.271,29.102,7.533,6.219,5.398
724,0.849,34.481,7.917,27.243,29.088,7.372,6.058,5.196
725,0.853,34.578,7.936,27.261,29.091,7.492,6.137,5.275
726,0.853,34.253,7.933,27.252,29.088,7.412,6.016,5.195
727,0.853,34.374,7.929,27.223,29.088,7.452,5.974,5.194
728,0.846,34.51,7.913,27.213,29.074,7.412,5.933,5.153
729,0.853,34.559,7.917,27.252,29.095,7.533,6.055,5.234
730,0.853,34.358,7.909,27.242,29.091,7.453,6.056,5.275
731,0.862,34.49,7.94,27.252,29.088,7.493,6.056,5.235
732,0.866,34.616,7.921,27.281,29.095,7.616,6.056,5.357
733,0.866,35.068,7.921,27.271,29.098,7.657,6.097,5.399
734,0.859,34.325,7.921,27.223,29.085,7.576,5.975,5.236
735,0.872,34.48,7.925,27.252,29.084,7.657,6.015,5.235
736,0.859,34.559,7.917,27.252,29.091,7.698,6.056,5.235
737,0.853,34.214,7.917,27.242,29.081,7.658,5.893,5.194
738,0.862,34.249,7.933,27.242,29.091,7.698,5.973,5.316
739,0.869,34.403,7.937,27.261,29.091,7.821,6.015,5.236
740,0.876,34.52,7.929,27.29,29.098,7.863,6.137,5.397
741,0.859,34.137,7.933,27.233,29.085,7.7,5.976,5.236
742,0.872,34.296,7.929,27.252,29.091,7.74,6.015,5.275
743,0.869,34.413,7.917,27.242,29.088,7.659,5.974,5.235
744,0.872,34.481,7.929,27.233,29.081,7.576,5.852,5.153
745,0.853,33.964,7.929,27.213,29.074,7.616,5.891,5.153
746,0.862,34.151,7.933,27.242,29.091,7.576,6.054,5.193
747,0.869,34.258,7.937,27.252,29.098,7.657,6.056,5.316
748,0.879,34.336,7.933,27.233,29.085,7.495,5.893,5.195
749,0.879,34.203,7.941,27.242,29.088,7.534,5.973,5.275
750,0.895,34.355,7.929,27.242,29.084,7.575,5.974,5.195
751,0.879,34.442,7.933,27.242,29.084,7.413,5.893,5.194
752,0.879,34.482,7.917,27.214,29.071,7.371,5.811,5.153
753,0.885,34.166,7.925,27.242,29.088,7.533,5.972,5.356
754,0.882,34.306,7.933,27.242,29.098,7.534,5.893,5.236
755,0.892,34.423,7.929,27.242,29.088,7.494,5.851,5.194
756,0.905,34.462,7.921,27.252,29.091,7.575,6.054,5.316
757,0.902,34.146,7.929,27.242,29.091,7.616,5.893,5.276
758,0.892,34.239,7.913,27.233,29.084,7.576,5.851,5.195
759,0.892,34.355,7.917,27.233,29.074,7.575,5.769,5.153
760,0.905,34.203,7.929,27.233,29.088,7.698,5.891,5.193
761,0.886,34.096,7.925,27.213,29.084,7.74,5.77,5.194
762,0.895,34.238,7.929,27.252,29.091,7.74,5.85,5.234
763,0.912,34.336,7.925,27.242,29.095,7.781,5.973,5.194
764,0.915,34.059,7.937,27.261,29.098,7.944,6.055,5.316
765,0.889,34.123,7.925,27.214,29.088,7.742,5.893,5.114
766,0.902,34.287,7.933,27.252,29.084,7.821,5.933,5.234
767,0.905,34.375,7.925,27.252,29.095,7.822,5.892,5.275
768,0.895,33.925,7.901,27.214,29.074,7.659,5.811,5.154
769,0.902,34.055,7.913,27.223,29.088,7.739,5.85,5.234
770,0.912,34.209,7.925,27.242,29.098,7.781,5.932,5.316
771,0.922,34.316,7.921,27.281,29.098,7.822,6.096,5.398
772,0.912,34.068,7.925,27.233,29.091,7.619,5.853,5.236
773,0.915,34.257,7.937,27.261,29.091,7.617,5.932,5.316
774,0.918,34.336,7.933,27.243,29.088,7.617,5.892,5.317
775,0.912,34.394,7.933,27.223,29.084,7.535,5.811,5.154
776,0.912,33.887,7.905,27.194,29.084,7.494,5.81,5.153
777,0.912,34.054,7.921,27.251,29.091,7.616,5.891,5.234
778,0.915,34.181,7.921,27.252,29.088,7.617,5.892,5.316
779,0.915,34.22,7.933,27.242,29.088,7.535,5.851,5.195
780,0.918,34.105,7.925,27.242,29.095,7.616,5.891,5.234
781,0.915,34.248,7.925,27.252,29.091,7.495,5.851,5.194
782,0.909,34.336,7.909,27.223,29.084,7.412,5.851,5.153
783,0.912,34.586,7.929,27.213,29.081,7.411,5.729,5.071
784,0.915,33.985,7.944,27.242,29.091,7.533,5.809,5.233
785,0.912,34.122,7.937,27.223,29.088,7.372,5.85,5.153
786,0.912,34.258,7.941,27.242,29.091,7.492,5.851,5.112
787,0.922,33.952,7.945,27.242,29.091,7.534,5.891,5.234
788,0.938,34.055,7.929,27.252,29.102,7.534,5.933,5.235
789,0.922,34.152,7.933,27.242,29.081,7.372,5.811,5.194
790,0.922,34.258,7.941,27.242,29.084,7.33,5.81,5.194
791,0.925,33.952,7.937,27.233,29.088,7.37,5.85,5.194
792,0.922,34.084,7.921,27.223,29.077,7.208,5.81,5.153
793,0.918,34.2,7.905,27.233,29.084,7.247,5.81,5.234
794,0.938,34.316,7.917,27.242,29.091,7.247,5.81,5.275
795,0.948,33.895,7.936,27.261,29.098,7.41,5.891,5.357
796,0.932,34.016,7.925,27.233,29.088,7.208,5.729,5.236
797,0.944,34.171,7.917,27.252,29.091,7.247,5.809,5.194
798,0.932,34.21,7.913,27.242,29.084,7.206,5.81,5.194
799,0.922,33.894,7.917,27.223,29.081,7.084,5.688,5.112
800,0.931,34.045,7.921,27.213,29.077,7.042,5.646,5.03
801,0.935,34.171,7.913,27.232,29.084,7.164,5.849,5.233
802,0.925,34.201,7.921,27.213,29.084,7.084,5.81,5.194
803,0.935,34.009,7.921,27.232,29.088,7.123,5.81,5.112
804,0.945,34.17,7.925,27.233,29.088,7.205,5.891,5.234
805,0.941,34.287,7.929,27.261,29.091,7.206,5.892,5.275
806,0.938,34.279,7.929,27.214,29.088,7.084,5.77,5.154
807,0.948,34.02,7.933,27.223,29.091,7.123,5.809,5.153
808,0.948,34.151,7.929,27.242,29.098,7.083,5.85,5.234
809,0.945,34.249,7.937,27.223,29.078,7.083,5.688,5.194
810,0.935,34.077,7.929,27.233,29.084,7.123,5.849,5.153
811,0.948,34.066,7.917,27.233,29.095,7.124,5.851,5.193
812,0.964,34.209,7.936,27.261,29.098,7.246,5.932,5.316
813,0.945,34.278,7.917,27.223,29.091,7.166,5.811,5.195
814,0.951,33.962,7.921,27.242,29.095,7.165,5.81,5.194
815,0.941,34.065,7.929,27.233,29.091,7.124,5.81,5.234
816,0.945,34.19,7.929,27.233,29.078,7.002,5.728,5.153
817,0.935,34.268,7.921,27.204,29.077,6.96,5.727,5.112
818,0.951,34.087,7.925,27.232,29.084,7.122,5.727,5.234
819,0.948,34.229,7.925,27.213,29.091,7.043,5.727,5.194
820,0.951,34.355,7.933,27.232,29.084,7.082,5.768,5.153
821,0.954,34.433,7.929,27.242,29.091,7.002,5.85,5.315
822,0.954,34.194,7.933,27.261,29.091,7.001,5.729,5.195
823,0.948,34.316,7.921,27.243,29.091,6.879,5.727,5.153
824,0.951,34.433,7.937,27.204,29.084,6.959,5.687,5.112
825,0.941,34.501,7.925,27.232,29.084,7.0,5.768,5.193
826,0.948,34.31,7.901,27.204,29.084,6.879,5.647,5.112
827,0.938,34.471,7.913,27.223,29.084,7.04,5.767,5.152
828,0.945,34.597,7.909,27.233,29.091,7.001,5.809,5.234
829,0.971,34.646,7.929,27.261,29.102,7.204,5.891,5.397
830,0.958,34.522,7.937,27.223,29.088,7.043,5.689,5.155
831,0.954,34.674,7.944,27.233,29.091,7.082,5.768,5.275
832,0.964,34.772,7.925,27.223,29.091,7.123,5.728,5.195
833,0.961,34.888,7.929,27.223,29.078,7.083,5.687,5.072
834,0.958,34.63,7.905,27.213,29.074,7.042,5.646,5.07
835,0.961,34.79,7.932,27.223,29.091,7.123,5.767,5.274
836,0.961,34.888,7.937,27.252,29.095,7.165,5.809,5.316
837,0.968,34.86,7.941,27.233,29.081,7.124,5.688,5.195
838,0.971,34.994,7.941,27.242,29.095,7.246,5.809,5.194
839,0.977,35.12,7.937,27.233,29.098,7.166,5.728,5.234
840,0.958,35.198,7.925,27.213,29.081,7.206,5.646,5.153
841,0.961,35.093,7.933,27.223,29.081,7.125,5.605,5.153
842,0.955,35.236,7.929,27.213,29.095,7.165,5.686,5.193
843,0.958,35.343,7.925,27.204,29.088,7.165,5.687,5.072
844,0.958,35.43,7.913,27.204,29.091,7.206,5.727,5.07
845,0.954,35.307,7.925,27.213,29.088,7.206,5.727,5.233
846,0.971,35.468,7.929,27.252,29.105,7.287,5.89,5.275
847,0.961,35.528,7.929,27.204,29.088,7.085,5.607,5.073
848,0.971,35.614,7.925,27.242,29.091,7.123,5.726,5.193
849,0.964,35.625,7.921,27.223,29.088,7.124,5.687,5.153
850,0.964,35.74,7.929,27.204,29.081,7.083,5.564,5.193
851,0.961,35.837,7.913,27.213,29.088,7.123,5.685,5.153
852,0.981,35.896,7.936,27.232,29.098,7.083,5.687,5.193
853,0.964,35.858,7.933,27.271,29.095,7.205,5.809,5.316
854,0.974,35.963,7.929,27.223,29.085,7.125,5.606,5.195
855,0.984,36.079,7.937,27.252,29.091,7.205,5.726,5.194
856,0.991,36.099,7.937,27.214,29.088,7.287,5.687,5.153
857,0.971,36.119,7.913,27.185,29.091,7.125,5.605,5.153
858,0.968,36.263,7.925,27.203,29.081,7.205,5.523,5.071
859,0.977,36.341,7.921,27.223,29.091,7.328,5.644,5.233
860,0.958,36.284,7.913,27.204,29.091,7.289,5.605,5.194
861,0.971,36.322,7.925,27.223,29.088,7.329,5.604,5.112
862,0.971,36.457,7.921,27.223,29.102,7.37,5.645,5.234
863,0.977,36.564,7.937,27.242,29.105,7.492,5.727,5.235
864,0.977,36.555,7.944,27.214,29.085,7.371,5.565,5.113
865,0.977,36.708,7.937,27.204,29.102,7.452,5.604,5.152
866,0.971,36.796,7.929,27.213,29.092,7.493,5.645,5.153
867,0.968,36.883,7.933,27.204,29.088,7.453,5.523,5.112
868,0.958,36.654,7.921,27.194,29.071,7.412,5.522,5.071
869,0.981,36.824,7.929,27.223,29.095,7.533,5.685,5.152
870,0.977,36.951,7.948,27.233,29.095,7.575,5.727,5.275
871,0.971,37.0,7.929,27.233,29.091,7.535,5.605,5.073
872,0.977,37.058,7.921,27.242,29.091,7.534,5.645,5.152
873,0.984,37.164,7.933,27.223,29.091,7.575,5.645,5.193
874,0.974,37.271,7.933,27.204,29.084,7.535,5.564,5.112
875,0.971,37.31,7.913,27.184,29.077,7.412,5.523,5.03
876,0.974,37.176,7.921,27.213,29.091,7.574,5.685,5.233
877,0.974,37.299,7.917,27.204,29.088,7.575,5.646,5.153
878,0.981,37.397,7.94,27.213,29.091,7.657,5.564,5.071
879,0.977,37.436,7.941,27.223,29.091,7.698,5.726,5.233
880,0.984,37.302,7.945,27.242,29.102,7.699,5.727,5.194
881,0.971,37.377,7.917,27.204,29.085,7.536,5.565,5.072
882,0.974,37.512,7.925,27.223,29.084,7.534,5.563,5.07
883,0.971,37.6,7.913,27.213,29.091,7.616,5.645,5.07
884,0.971,37.457,7.909,27.204,29.084,7.454,5.605,5.07
885,0.958,37.58,7.909,27.204,29.088,7.534,5.686,5.07
886,0.984,37.687,7.94,27.223,29.088,7.534,5.687,5.111
887,0.981,37.429,7.937,27.242,29.098,7.657,5.849,5.315
888,0.968,37.484,7.913,27.214,29.091,7.373,5.688,5.154
889,0.987,37.609,7.913,27.213,29.091,7.492,5.768,5.153
890,0.981,37.678,7.925,27.223,29.091,7.453,5.768,5.153
891,0.981,37.487,7.933,27.204,29.078,7.412,5.687,5.071
892,0.977,37.609,7.925,27.184,29.074,7.33,5.687,5.07
893,0.977,37.745,7.929,27.223,29.091,7.532,5.768,5.193
894,0.977,37.823,7.921,27.223,29.095,7.616,5.809,5.234
895,0.984,37.507,7.925,27.204,29.088,7.698,5.769,5.153
896,0.987,37.629,7.94,27.223,29.091,7.861,5.85,5.234
897,0.987,37.755,7.941,27.223,29.088,7.944,5.81,5.153
898,0.978,37.794,7.925,27.185,29.091,7.986,5.728,5.071
899,0.977,37.67,7.921,27.194,29.078,8.027,5.646,4.948
900,0.977,37.822,7.929,27.204,29.091,8.271,5.849,5.11
901,0.971,37.91,7.921,27.184,29.084,8.274,5.729,5.112
902,0.981,37.949,7.925,27.203,29.084,8.436,5.85,5.152
903,0.991,37.7,7.933,27.204,29.095,8.519,5.81,5.234
904,0.997,37.842,7.933,27.242,29.102,8.683,5.932,5.153
905,0.978,37.901,7.921,27.194,29.085,8.522,5.852,4.949
906,0.987,37.997,7.937,27.223,29.091,8.601,5.851,5.15
907,0.978,37.73,7.925,27.213,29.088,8.684,5.851,5.193
908,0.987,37.813,7.913,27.194,29.088,8.562,5.81,5.031
909,0.978,37.91,7.929,27.175,29.088,8.643,5.769,5.151
910,0.994,37.652,7.921,27.194,29.088,8.684,5.85,5.153
911,1.0,37.659,7.94,27.232,29.095,8.807,5.891,5.234
912,0.997,37.755,7.933,27.185,29.085,8.645,5.851,5.113
913,0.997,37.842,7.948,27.213,29.095,8.765,5.81,5.234
914,0.994,37.699,7.941,27.223,29.091,8.685,5.769,5.194
915,0.997,37.822,7.941,27.194,29.081,8.644,5.768,5.072
916,0.994,37.91,7.925,27.184,29.077,8.521,5.728,4.989
917,0.997,38.026,7.937,27.213,29.095,8.642,5.85,5.192
918,0.991,37.663,7.921,27.213,29.085,8.521,5.769,5.153
919,0.997,37.793,7.929,27.204,29.084,8.561,5.809,5.153
920,1.004,37.919,7.925,27.204,29.088,8.602,5.891,5.193
921,1.007,38.007,7.948,27.223,29.098,8.602,5.851,5.153
922,0.997,37.72,7.933,27.194,29.088,8.358,5.769,5.071
923,0.991,37.851,7.925,27.194,29.081,8.437,5.768,5.03
924,0.991,37.949,7.925,27.204,29.088,8.357,5.809,5.192
925,0.987,37.998,7.917,27.175,29.084,8.315,5.647,5.072
926,0.991,37.682,7.921,27.203,29.088,8.315,5.808,5.111
927,0.991,37.832,7.921,27.204,29.088,8.315,5.891,5.193
928,0.987,37.958,7.933,27.223,29.105,8.356,6.014,5.316
929,0.991,37.94,7.937,27.204,29.088,8.153,5.73,5.114
930,1.0,37.662,7.925,27.213,29.095,8.191,5.85,5.152
931,0.991,37.784,7.929,27.213,29.088,8.11,5.81,5.153
932,0.994,37.881,7.933,27.194,29.088,8.028,5.728,5.071
933,0.984,37.834,7.933,27.165,29.077,7.946,5.727,5.03
934,0.997,37.776,7.913,27.222,29.088,7.986,5.809,5.151
935,0.991,37.929,7.913,27.213,29.091,7.946,5.85,5.234
936,0.984,37.997,7.925,27.204,29.095,7.945,5.729,5.194
937,0.984,37.662,7.921,27.213,29.091,7.945,5.85,5.194
938,0.987,37.793,7.921,27.223,29.098,7.823,5.769,5.194
939,0.971,37.871,7.913,27.204,29.081,7.781,5.728,5.153
940,0.977,37.958,7.921,27.194,29.084,7.7,5.687,5.071
941,0.981,37.643,7.917,27.204,29.091,7.78,5.809,5.152
942,0.971,37.755,7.905,27.184,29.084,7.618,5.728,5.071
943,0.964,37.89,7.913,27.184,29.088,7.617,5.809,5.07
944,0.964,37.959,7.917,27.213,29.095,7.698,5.81,5.111
945,0.977,37.643,7.929,27.223,29.098,7.658,5.891,5.234
946,0.958,37.736,7.921,27.194,29.088,7.536,5.689,5.072
947,0.961,37.88,7.921,27.223,29.098,7.534,5.727,5.111
948,0.955,37.834,7.933,27.194,29.091,7.494,5.809,5.234
949,0.954,37.402,7.921,27.184,29.084,7.453,5.688,5.072
950,0.941,37.532,7.937,27.203,29.091,7.534,5.727,5.152
951,0.964,37.677,7.933,27.204,29.095,7.657,5.85,5.193
952,0.961,37.755,7.937,27.223,29.098,7.698,5.891,5.234
953,0.945,37.804,7.925,27.204,29.081,7.536,5.689,5.072
954,0.948,37.948,7.937,27.223,29.095,7.657,5.809,5.152
955,0.948,38.055,7.921,27.213,29.088,7.617,5.769,5.153
956,0.935,38.421,7.913,27.185,29.077,7.617,5.647,5.071
957,0.925,37.619,7.925,27.184,29.084,7.657,5.727,5.03
958,0.935,37.774,7.929,27.213,29.091,7.698,5.768,5.192
959,0.928,37.871,7.937,27.213,29.098,7.78,5.809,5.153
960,0.925,37.623,7.933,27.204,29.091,7.7,5.688,5.071
961,0.931,37.687,7.921,27.213,29.098,7.78,5.89,5.193
962,0.925,37.813,7.937,27.204,29.088,7.74,5.851,5.153
963,0.922,37.872,7.933,27.184,29.081,7.74,5.769,5.031
964,0.918,37.508,7.933,27.165,29.084,7.699,5.647,4.989
965,0.912,37.658,7.944,27.194,29.095,7.821,5.767,5.11
966,0.908,37.774,7.933,27.165,29.085,7.741,5.687,5.03
967,0.908,37.842,7.937,27.184,29.084,7.781,5.727,5.07
968,0.912,37.67,7.933,27.203,29.091,7.822,5.809,5.193
969,0.912,37.832,7.929,27.213,29.098,7.944,5.85,5.234
970,0.918,37.91,7.921,27.194,29.085,7.701,5.729,5.032
971,0.909,37.988,7.929,27.194,29.084,7.78,5.727,5.111
972,0.908,37.701,7.921,27.204,29.091,7.781,5.809,5.152
973,0.899,37.822,7.925,27.175,29.084,7.659,5.728,5.071
974,0.895,37.929,7.937,27.194,29.088,7.698,5.727,5.152
975,0.905,37.997,7.925,27.213,29.091,7.74,5.727,5.193
976,0.912,37.71,7.937,27.213,29.098,7.821,5.809,5.316
977,0.899,37.784,7.909,27.175,29.088,7.741,5.728,5.073
978,0.905,37.919,7.929,27.203,29.091,7.781,5.809,5.152
979,0.899,37.921,7.925,27.184,29.095,7.7,5.647,5.153
980,0.892,37.662,7.913,27.175,29.078,7.618,5.645,5.071
981,0.879,37.784,7.909,27.165,29.084,7.617,5.645,4.989
982,0.898,37.9,7.936,27.203,29.091,7.698,5.727,5.11
983,0.892,37.709,7.929,27.175,29.098,7.658,5.85,5.071
984,0.892,37.621,7.917,27.175,29.095,7.495,5.729,5.111
985,0.886,37.755,7.936,27.184,29.091,7.616,5.768,5.152
986,0.892,37.861,7.941,27.184,29.091,7.617,5.687,5.071
987,0.879,37.68,7.929,27.184,29.084,7.495,5.646,4.989
988,0.885,37.803,7.921,27.175,29.081,7.453,5.564,4.907
989,0.898,37.939,7.921,27.203,29.091,7.615,5.685,5.069
990,0.892,37.997,7.913,27.175,29.088,7.535,5.687,5.07
991,0.899,37.605,7.933,27.184,29.088,7.494,5.687,5.111
992,0.899,37.726,7.933,27.203,29.091,7.534,5.727,5.071
993,0.902,37.871,7.948,27.213,29.098,7.575,5.727,5.152
994,0.899,37.901,7.925,27.194,29.085,7.454,5.646,5.071
995,0.902,37.681,7.905,27.184,29.088,7.452,5.605,5.07
996,0.905,37.803,7.917,27.203,29.088,7.452,5.726,5.111
997,0.889,37.91,7.936,27.165,29.081,7.452,5.646,5.071
998,0.892,37.959,7.921,27.174,29.084,7.574,5.686,5.07
999,0.899,37.652,7.929,27.184,29.084,7.535,5.687,5.111
1000,0.908,37.832,7.952,27.194,29.095,7.738,5.809,5.274
1001,0.892,37.891,7.921,27.194,29.081,7.537,5.688,5.113
1002,0.902,37.939,7.925,27.194,29.095,7.575,5.768,5.152
1003,0.902,37.719,7.929,27.175,29.091,7.535,5.728,5.112
1004,0.889,37.832,7.925,27.165,29.081,7.453,5.605,4.989
1005,0.885,37.929,7.917,27.146,29.084,7.412,5.564,4.988
1006,0.902,38.112,7.936,27.184,29.098,7.574,5.766,5.07
1007,0.902,37.587,7.944,27.184,29.095,7.535,5.768,5.152
1008,0.899,37.706,7.945,27.184,29.091,7.494,5.728,4.99
1009,0.908,37.803,7.948,27.184,29.098,7.453,5.89,5.232
1010,0.912,37.574,7.925,27.194,29.091,7.371,5.851,5.113
1011,0.899,37.629,7.905,27.184,29.084,7.37,5.81,5.03
1012,0.899,37.755,7.917,27.165,29.084,7.289,5.891,5.03
1013,0.899,37.842,7.929,27.194,29.084,7.369,5.973,5.111
1014,0.899,37.421,7.925,27.165,29.084,7.33,5.974,5.03
1015,0.895,37.561,7.937,27.174,29.088,7.41,6.096,5.111
1016,0.908,37.687,7.929,27.175,29.091,7.411,6.219,5.234
1017,0.921,37.794,7.94,27.222,29.098,7.452,6.464,5.235
1018,0.902,37.392,7.929,27.175,29.085,7.29,6.223,5.113
1019,0.902,37.551,7.925,27.203,29.098,7.369,6.342,5.112
1020,0.908,37.639,7.925,27.165,29.091,7.33,6.303,5.152
1021,0.895,37.688,7.913,27.165,29.084,7.248,6.302,4.99
1022,0.892,37.333,7.909,27.146,29.081,7.247,6.343,4.988
1023,0.908,37.502,7.921,27.184,29.088,7.369,6.588,5.07
1024,0.902,37.629,7.905,27.194,29.095,7.411,6.549,5.152
1025,0.902,37.64,7.921,27.165,29.078,7.411,6.508,4.99
1026,0.905,37.342,7.921,27.174,29.091,7.411,6.589,5.11
1027,0.912,37.483,7.917,27.184,29.091,7.493,6.549,5.112
1028,0.899,37.552,7.917,27.165,29.084,7.494,6.468,4.989
1029,0.899,37.562,7.913,27.146,29.088,7.412,6.467,4.988
1030,0.905,37.342,7.929,27.193,29.088,7.493,6.548,5.11
1031,0.895,37.454,7.917,27.175,29.084,7.453,6.549,5.071
1032,0.908,37.542,7.925,27.165,29.088,7.574,6.63,5.07
1033,0.915,37.236,7.948,27.184,29.095,7.616,6.631,5.193
1034,0.928,37.194,7.952,27.223,29.098,7.698,6.794,5.275
1035,0.909,37.271,7.921,27.175,29.085,7.536,6.551,5.032
1036,0.908,37.367,7.929,27.194,29.095,7.616,6.63,5.07
1037,0.908,37.215,7.921,27.194,29.095,7.535,6.672,5.152
1038,0.902,37.319,7.909,27.165,29.085,7.453,6.631,5.031
1039,0.905,37.416,7.929,27.155,29.088,7.534,6.59,5.111
1040,0.902,37.522,7.933,27.184,29.091,7.534,6.671,5.03
1041,0.908,36.958,7.933,27.194,29.095,7.616,6.753,5.233
1042,0.905,37.077,7.933,27.165,29.085,7.535,6.592,5.072
1043,0.902,37.203,7.937,27.174,29.095,7.534,6.712,5.111
1044,0.905,37.252,7.929,27.165,29.088,7.494,6.632,5.152
1045,0.902,37.032,7.921,27.155,29.091,7.371,6.55,5.031
1046,0.895,37.173,7.909,27.126,29.078,7.37,6.427,4.948
1047,0.908,37.319,7.921,27.174,29.091,7.533,6.629,5.11
1048,0.899,37.349,7.917,27.165,29.088,7.534,6.59,5.112
1049,0.905,36.803,7.905,27.174,29.088,7.575,6.631,5.071
1050,0.915,36.922,7.921,27.175,29.095,7.698,6.672,5.152
1051,0.922,37.057,7.925,27.184,29.091,7.74,6.631,5.031
1052,0.909,37.039,7.909,27.155,29.091,7.74,6.55,5.07
1053,0.908,36.828,7.905,27.155,29.078,7.699,6.508,5.03
1054,0.918,36.979,7.913,27.184,29.091,7.902,6.67,5.151
1055,0.909,37.058,7.921,27.165,29.091,7.945,6.713,5.193
1056,0.912,37.068,7.925,27.165,29.091,7.986,6.551,5.072
1057,0.922,36.79,7.925,27.194,29.091,8.027,6.59,5.152
1058,0.922,36.922,7.925,27.184,29.095,8.068,6.671,5.153
1059,0.909,37.0,7.921,27.165,29.088,7.987,6.55,5.031
1060,0.915,36.636,7.933,27.146,29.084,8.108,6.508,4.948
1061,0.915,36.719,7.921,27.174,29.091,8.109,6.589,5.15
1062,0.912,36.844,7.909,27.146,29.088,8.191,6.509,5.031
1063,0.912,36.922,7.921,27.165,29.084,8.151,6.589,5.07
1064,0.922,36.501,7.921,27.165,29.088,8.191,6.549,5.07
1065,0.925,36.65,7.921,27.194,29.095,8.314,6.63,5.233
1066,0.909,36.738,7.925,27.165,29.091,8.112,6.428,5.032
1067,0.918,36.835,7.925,27.194,29.098,8.191,6.588,5.192
1068,0.918,36.577,7.929,27.165,29.091,8.151,6.631,5.112
1069,0.909,36.737,7.913,27.165,29.084,8.191,6.428,5.071
1070,0.905,36.806,7.917,27.136,29.084,8.192,6.466,5.07
1071,0.915,36.893,7.936,27.174,29.084,8.314,6.548,5.193
1072,0.922,36.568,7.921,27.184,29.095,8.356,6.59,5.234
1073,0.918,36.68,7.917,27.175,29.088,8.315,6.468,5.153
1074,0.925,36.805,7.925,27.175,29.091,8.315,6.548,5.153
1075,0.931,36.826,7.925,27.175,29.091,8.315,6.468,5.153
1076,0.918,36.596,7.921,27.165,29.081,8.193,6.386,5.071
1077,0.912,36.728,7.913,27.146,29.077,8.232,6.303,4.948
1078,0.908,36.844,7.933,27.174,29.091,8.233,6.465,5.15
1079,0.915,36.855,7.925,27.175,29.088,8.233,6.426,5.071
1080,0.912,36.491,7.925,27.146,29.084,8.192,6.385,5.03
1081,0.912,36.631,7.933,27.184,29.095,8.192,6.385,5.111
1082,0.922,36.738,7.933,27.203,29.095,8.314,6.425,5.152
1083,0.905,36.528,7.921,27.137,29.088,8.071,6.304,4.99
1084,0.905,36.535,7.921,27.155,29.091,7.987,6.302,5.07
1085,0.905,36.679,7.917,27.165,29.084,8.068,6.302,5.07
1086,0.899,36.729,7.925,27.146,29.084,7.987,6.262,5.07
1087,0.902,36.384,7.921,27.174,29.084,7.986,6.302,5.111
1088,0.908,36.524,7.909,27.165,29.091,7.986,6.343,5.071
1089,0.905,36.67,7.929,27.184,29.105,8.027,6.425,5.314
1090,0.908,36.729,7.921,27.175,29.092,7.865,6.263,5.073
1091,0.918,36.413,7.933,27.184,29.088,8.026,6.302,5.152
1092,0.909,36.544,7.909,27.175,29.091,7.905,6.302,5.071
1093,0.908,36.641,7.929,27.146,29.084,7.823,6.18,5.111
1094,0.899,36.68,7.921,27.136,29.077,7.7,6.098,5.03
1095,0.908,36.412,7.929,27.174,29.091,7.821,6.26,5.111
1096,0.908,36.534,7.917,27.165,29.088,7.822,6.302,5.112
1097,0.908,36.641,7.905,27.174,29.088,7.741,6.14,5.03
1098,0.905,36.709,7.94,27.165,29.091,7.74,6.219,5.192
1099,0.915,36.537,7.937,27.184,29.091,7.74,6.261,5.031
1100,0.905,36.612,7.929,27.146,29.084,7.659,6.139,5.07
1101,0.908,36.747,7.94,27.165,29.084,7.698,6.057,5.03
1102,0.905,36.777,7.941,27.165,29.084,7.658,6.137,5.07
1103,0.899,36.356,7.913,27.146,29.088,7.576,6.098,4.908
1104,0.902,36.505,7.917,27.165,29.088,7.575,6.138,5.15
1105,0.915,36.621,7.933,27.165,29.091,7.698,6.179,5.071
1106,0.915,36.632,7.937,27.194,29.102,7.658,6.261,5.193
1107,0.905,36.469,7.925,27.146,29.085,7.536,6.139,4.99
1108,0.915,36.612,7.925,27.165,29.088,7.616,6.179,5.07
1109,0.905,36.699,7.929,27.165,29.084,7.617,6.057,5.152
1110,0.905,36.422,7.921,27.165,29.088,7.454,6.015,5.031
1111,0.899,36.525,7.933,27.136,29.081,7.534,6.015,5.111
1112,0.902,36.66,7.933,27.165,29.091,7.494,6.015,5.112
1113,0.905,36.767,7.952,27.194,29.095,7.616,6.178,5.234
1114,0.902,36.423,7.933,27.165,29.088,7.495,6.017,5.072
1115,0.908,36.582,7.921,27.174,29.091,7.575,6.137,5.152
1116,0.902,36.68,7.921,27.165,29.091,7.454,6.057,5.153
1117,0.892,36.748,7.921,27.146,29.078,7.371,5.975,4.99
1118,0.889,36.461,7.925,27.117,29.081,7.248,5.852,4.907
1119,0.902,36.631,7.921,27.174,29.091,7.288,6.095,5.15
1120,0.899,36.738,7.921,27.165,29.095,7.369,6.056,5.153
1121,0.899,36.777,7.921,27.165,29.091,7.289,5.934,5.071
1122,0.895,36.432,7.933,27.174,29.091,7.329,6.055,5.193
1123,0.895,36.573,7.921,27.165,29.088,7.289,6.015,5.031
1124,0.882,36.67,7.917,27.146,29.081,7.288,5.934,4.948
1125,0.892,36.709,7.936,27.155,29.084,7.288,5.974,4.907
1126,0.889,36.604,7.933,27.146,29.088,7.369,5.974,5.069
1127,0.892,36.728,7.929,27.146,29.088,7.33,5.974,5.07
1128,0.892,36.844,7.909,27.165,29.088,7.37,5.974,5.03
1129,0.889,37.181,7.921,27.165,29.098,7.33,6.015,5.07
1130,0.905,36.484,7.944,27.184,29.098,7.41,6.096,5.193
1131,0.889,36.583,7.925,27.136,29.088,7.33,5.935,5.031
1132,0.892,36.709,7.933,27.165,29.091,7.451,5.974,5.07
1133,0.886,36.528,7.929,27.174,29.088,7.371,6.015,5.152
1134,0.885,36.574,7.913,27.146,29.081,7.33,5.852,5.031
1135,0.882,36.689,7.905,27.146,29.081,7.329,5.851,5.111
1136,0.889,36.786,7.913,27.174,29.088,7.37,5.973,5.152
1137,0.899,36.423,7.929,27.175,29.102,7.492,6.015,5.234
1138,0.889,36.525,7.913,27.146,29.092,7.412,5.893,5.032
1139,0.895,36.66,7.917,27.165,29.091,7.411,5.973,5.192
1140,0.892,36.729,7.929,27.165,29.088,7.371,5.974,5.072
1141,0.882,36.394,7.913,27.146,29.084,7.33,5.811,5.07
1142,0.876,36.524,7.917,27.126,29.081,7.289,5.81,4.908
1143,0.889,36.66,7.925,27.155,29.084,7.41,5.891,5.028
1144,0.876,36.719,7.917,27.165,29.084,7.33,5.973,4.989
1145,0.892,36.432,7.905,27.155,29.091,7.329,5.933,5.029
1146,0.886,36.573,7.925,27.165,29.088,7.37,5.933,5.151
1147,0.898,36.708,7.948,27.184,29.098,7.452,5.933,5.112
1148,0.886,36.719,7.933,27.146,29.088,7.29,5.811,5.03
1149,0.895,36.441,7.941,27.146,29.091,7.207,5.81,5.03
1150,0.895,36.573,7.937,27.155,29.091,7.287,5.932,5.03
1151,0.886,36.67,7.925,27.165,29.084,7.207,5.77,5.03
1152,0.885,36.671,7.937,27.165,29.091,7.287,5.809,5.07
1153,0.889,36.326,7.937,27.174,29.095,7.207,5.932,5.152
1154,0.895,36.476,7.933,27.194,29.102,7.328,6.014,5.193
1155,0.886,36.554,7.933,27.146,29.085,7.126,5.812,5.072
1156,0.892,36.651,7.941,27.146,29.091,7.205,5.85,5.07
1157,0.882,36.613,7.929,27.155,29.088,7.125,5.851,5.03
1158,0.879,36.738,7.933,27.136,29.088,7.002,5.81,5.07
1159,0.869,36.835,7.921,27.126,29.084,7.001,5.85,5.03
1160,0.882,36.299,7.921,27.164,29.091,7.082,5.851,5.111
1161,0.879,36.408,7.929,27.174,29.091,7.042,5.891,5.193
1162,0.876,36.486,7.933,27.146,29.088,7.001,5.811,5.072
1163,0.882,36.602,7.937,27.165,29.095,7.001,5.891,5.03
1164,0.879,36.277,7.925,27.155,29.091,7.001,5.851,5.07
1165,0.869,36.427,7.905,27.126,29.081,6.838,5.729,4.989
1166,0.876,36.515,7.897,27.126,29.081,6.796,5.727,4.988
1167,0.879,36.612,7.905,27.164,29.091,6.958,5.85,5.07
1168,0.876,36.191,7.909,27.146,29.088,6.96,5.81,5.03
1169,0.879,36.34,7.917,27.136,29.084,6.919,5.81,4.989
1170,0.889,36.457,7.925,27.184,29.095,6.959,5.891,5.07
1171,0.899,36.535,7.913,27.165,29.091,6.96,5.933,5.152
1172,0.895,36.325,7.925,27.127,29.084,6.838,5.73,4.99
1173,0.902,36.485,7.921,27.155,29.084,6.796,5.809,4.988
1174,0.892,36.593,7.921,27.165,29.088,6.917,5.85,5.07
1175,0.882,36.594,7.901,27.146,29.084,6.796,5.769,5.07
1176,0.898,36.229,7.913,27.146,29.091,6.836,5.85,4.989
1177,0.892,36.369,7.925,27.165,29.088,6.958,5.891,5.11
1178,0.886,36.515,7.933,27.184,29.098,7.0,5.933,5.152
1179,0.892,36.871,7.929,27.136,29.088,6.757,5.811,5.031
1180,0.886,36.405,7.925,27.174,29.095,6.876,5.81,5.07
1181,0.882,36.515,7.921,27.155,29.091,6.755,5.81,5.111
1182,0.879,36.574,7.921,27.136,29.084,6.714,5.769,4.989
1183,0.872,36.152,7.905,27.136,29.077,6.632,5.768,5.029
1184,0.885,36.215,7.921,27.145,29.095,6.753,5.85,5.07
1185,0.885,36.34,7.929,27.146,29.095,6.836,5.891,5.193
1186,0.882,36.409,7.929,27.146,29.085,6.674,5.77,5.031
1187,0.889,36.103,7.925,27.165,29.091,6.794,5.85,5.111
1188,0.879,36.253,7.929,27.174,29.088,6.673,5.769,5.071
1189,0.876,36.36,7.909,27.146,29.077,6.631,5.687,5.03
1190,0.866,36.438,7.917,27.117,29.081,6.631,5.646,4.907
1191,0.882,36.132,7.917,27.164,29.084,6.794,5.727,5.15
1192,0.879,36.253,7.909,27.136,29.088,6.714,5.727,5.071
1193,0.882,36.389,7.925,27.145,29.084,6.794,5.727,5.07
1194,0.885,36.448,7.921,27.165,29.095,6.755,5.809,5.152
1195,0.892,36.132,7.925,27.203,29.098,6.957,5.769,5.112
1196,0.886,36.234,7.921,27.156,29.085,6.878,5.687,5.112
1197,0.885,36.36,7.913,27.165,29.088,6.877,5.646,4.989
1198,0.882,36.39,7.913,27.146,29.088,6.877,5.808,5.11
1199,0.879,35.978,7.913,27.126,29.088,6.837,5.688,5.071
1200,0.872,36.118,7.921,27.126,29.088,6.918,5.727,5.03
1201,0.879,36.244,7.933,27.136,29.095,7.0,5.768,5.07
1202,0.892,36.264,7.925,27.174,29.095,7.123,5.891,5.233
1203,0.876,36.092,7.94,27.136,29.088,6.921,5.729,4.991
1204,0.889,36.243,7.925,27.136,29.095,7.041,5.768,5.07
1205,0.879,36.341,7.921,27.136,29.088,6.96,5.728,5.111
1206,0.876,36.083,7.925,27.145,29.084,6.96,5.687,5.071
1207,0.879,35.975,7.913,27.098,29.077,6.878,5.687,4.989
1208,0.885,36.137,7.917,27.135,29.088,7.0,5.768,5.029
1209,0.892,36.225,7.933,27.145,29.098,7.041,5.85,5.192
1210,0.899,35.89,7.921,27.146,29.091,6.96,5.769,5.031
1211,0.908,36.011,7.937,27.146,29.102,7.0,5.809,5.111
1212,0.912,36.128,7.921,27.136,29.085,6.919,5.81,5.071
1213,0.908,36.196,7.925,27.136,29.077,6.878,5.728,4.989
1214,0.908,35.794,7.905,27.126,29.077,6.796,5.646,4.988
1215,0.931,35.953,7.921,27.164,29.095,6.999,5.808,5.07
1216,0.922,36.06,7.929,27.146,29.081,6.96,5.85,5.07
1217,0.931,36.147,7.921,27.126,29.091,6.878,5.81,5.03
1218,0.941,35.899,7.921,27.145,29.088,7.0,5.891,5.07
1219,0.958,36.04,7.929,27.165,29.098,6.96,5.973,5.07
1220,0.938,36.128,7.909,27.136,29.081,6.797,5.893,5.03
1221,0.948,36.196,7.909,27.145,29.084,6.877,5.892,4.948
1222,0.958,35.775,7.929,27.146,29.088,6.877,5.973,5.069
1223,0.954,35.895,7.933,27.126,29.084,6.796,5.893,4.908
1224,0.961,36.011,7.929,27.155,29.088,6.877,5.973,5.028
1225,0.974,36.06,7.921,27.165,29.091,6.837,6.015,5.111
1226,0.971,35.783,7.94,27.165,29.105,6.999,6.178,5.152
1227,0.971,35.876,7.933,27.136,29.085,6.797,5.976,4.99
1228,0.981,36.002,7.921,27.165,29.091,6.836,6.055,5.07
1229,0.984,36.166,7.925,27.146,29.084,6.796,6.097,5.152
1230,0.984,35.813,7.909,27.126,29.081,6.673,6.016,4.99
1231,0.987,35.934,7.905,27.117,29.088,6.631,5.974,4.988
1232,1.01,36.04,7.929,27.155,29.088,6.834,6.096,5.07
1233,1.01,35.744,7.933,27.165,29.102,6.755,6.219,5.111
1234,1.01,35.799,7.921,27.165,29.092,6.632,6.098,4.989
1235,1.01,35.934,7.933,27.165,29.098,6.672,6.138,5.11
1236,1.023,36.031,7.929,27.146,29.085,6.672,6.057,5.071
1237,1.01,35.715,7.921,27.126,29.088,6.631,6.097,5.03
1238,1.014,35.837,7.909,27.117,29.077,6.509,6.056,4.826
1239,1.02,35.972,7.917,27.145,29.091,6.67,6.097,5.027
1240,1.014,36.05,7.921,27.126,29.084,6.672,6.138,5.07
1241,1.017,35.572,7.917,27.145,29.088,6.713,6.057,5.111
1242,1.03,35.72,7.929,27.146,29.098,6.713,6.097,5.152
1243,1.05,35.866,7.944,27.174,29.095,6.754,6.138,5.071
1244,1.037,35.915,7.921,27.127,29.085,6.754,6.057,5.07
1245,1.046,35.724,7.925,27.117,29.091,6.754,6.056,4.989
1246,1.05,35.856,7.925,27.145,29.088,6.795,6.137,5.029
1247,1.043,35.944,7.921,27.117,29.084,6.714,6.057,5.07
1248,1.046,35.993,7.897,27.145,29.088,6.754,6.097,5.03
1249,1.056,35.619,7.921,27.155,29.084,6.836,6.138,5.07
1250,1.06,35.759,7.937,27.184,29.102,6.918,6.26,5.233
1251,1.04,35.866,7.921,27.146,29.085,6.796,6.18,5.032
1252,1.037,35.877,7.929,27.136,29.098,6.795,6.139,5.03
1253,1.03,35.637,7.921,27.145,29.088,6.795,6.219,5.07
1254,1.037,35.731,7.917,27.126,29.084,6.714,6.058,4.989
1255,1.03,35.818,7.894,27.126,29.088,6.754,6.178,5.029
1256,1.037,35.646,7.932,27.155,29.091,6.795,6.179,5.07
1257,1.05,35.635,7.917,27.165,29.098,6.917,6.261,5.193
1258,1.046,35.75,7.913,27.136,29.085,6.715,6.18,4.99
1259,1.063,35.856,7.94,27.145,29.098,6.876,6.261,5.11
1260,1.056,35.445,7.921,27.146,29.088,6.796,6.139,5.03
1261,1.063,35.556,7.917,27.117,29.084,6.714,6.098,4.948
1262,1.06,35.663,7.921,27.116,29.074,6.672,6.138,4.947
1263,1.066,35.798,7.921,27.145,29.091,6.794,6.219,5.069
1264,1.05,35.492,7.917,27.117,29.091,6.755,6.139,4.989
1265,1.04,35.652,7.921,27.126,29.084,6.754,6.179,4.988
1266,1.05,35.779,7.929,27.136,29.091,6.754,6.261,5.029
1267,1.053,35.876,7.925,27.174,29.091,6.876,6.221,5.07
1268,1.037,35.321,7.913,27.117,29.084,6.715,6.098,4.989
1269,1.027,35.488,7.929,27.126,29.091,6.672,6.219,4.988
1270,1.03,35.585,7.921,27.136,29.095,6.713,6.22,5.11
1271,1.02,35.634,7.913,27.117,29.085,6.713,6.058,4.989
1272,1.02,35.51,7.917,27.136,29.095,6.672,6.097,4.948
1273,1.004,35.662,7.929,27.145,29.091,6.713,6.138,5.15
1274,1.0,35.779,7.94,27.165,29.095,6.835,6.219,5.234
1275,0.994,35.79,7.925,27.136,29.098,6.714,6.139,5.032
1276,0.987,35.473,7.921,27.145,29.091,6.794,6.219,5.03
1277,0.961,35.585,7.921,27.136,29.095,6.755,6.18,5.111
1278,0.948,35.682,7.913,27.136,29.085,6.632,6.098,4.989
1279,0.932,35.683,7.925,27.107,29.084,6.631,6.016,5.029
1280,0.931,35.463,7.921,27.145,29.091,6.753,6.178,4.989
1281,0.918,35.575,7.917,27.165,29.095,6.714,6.179,5.151
1282,0.912,35.663,7.929,27.127,29.085,6.672,6.057,4.99
1283,0.918,35.376,7.933,27.126,29.091,6.753,6.219,5.11
1284,0.909,35.44,7.925,27.126,29.088,6.754,6.098,4.989
1285,0.905,35.566,7.921,27.107,29.088,6.714,6.056,4.948
1286,0.899,35.634,7.921,27.107,29.081,6.713,5.893,4.907
1287,0.902,35.309,7.925,27.145,29.091,6.876,6.095,5.069
1288,0.895,35.43,7.917,27.126,29.088,7.04,6.138,5.03
1289,0.899,35.546,7.933,27.126,29.084,6.96,6.057,5.03
1290,0.905,35.643,7.941,27.164,29.091,7.041,6.137,5.07
1291,0.905,35.309,7.933,27.155,29.095,7.123,6.098,5.07
1292,0.873,35.401,7.929,27.117,29.088,6.961,6.097,4.989
1293,0.876,35.508,7.913,27.145,29.084,7.041,5.975,4.907
1294,0.869,35.576,7.921,27.146,29.088,7.164,6.055,5.109
1295,0.863,35.222,7.901,27.136,29.084,7.124,6.015,4.949
1296,0.859,35.352,7.929,27.155,29.091,7.205,6.015,5.069
1297,0.856,35.488,7.917,27.155,29.088,7.206,6.096,5.111
1298,0.866,35.547,7.917,27.165,29.098,7.369,6.219,5.234
1299,0.849,35.164,7.913,27.136,29.091,7.126,6.017,4.991
1300,0.849,35.323,7.917,27.145,29.091,7.287,6.015,5.07
1301,0.836,35.43,7.921,27.126,29.084,7.166,5.974,4.989
1302,0.83,35.441,7.917,27.107,29.081,7.124,5.974,4.988
1303,0.83,35.278,7.921,27.107,29.091,7.165,5.893,4.988
1304,0.833,35.439,7.929,27.145,29.091,7.287,6.014,5.029
1305,0.83,35.556,7.933,27.165,29.098,7.288,6.056,5.07
1306,0.833,35.289,7.921,27.127,29.088,7.288,5.934,5.03
1307,0.833,35.305,7.929,27.155,29.091,7.288,6.014,5.03
1308,0.826,35.42,7.937,27.146,29.084,7.329,6.015,4.989
1309,0.817,35.479,7.917,27.117,29.077,7.37,5.934,4.988
1310,0.82,35.067,7.917,27.107,29.077,7.248,5.811,4.907
1311,0.83,35.217,7.929,27.145,29.091,7.45,5.932,5.028
1312,0.823,35.314,7.921,27.126,29.088,7.452,5.892,5.07
1313,0.826,35.43,7.913,27.136,29.088,7.493,5.892,5.07
1314,0.826,35.086,7.925,27.165,29.091,7.534,6.014,5.152
1315,0.833,35.255,7.94,27.174,29.098,7.616,6.015,5.112
1316,0.826,35.305,7.921,27.127,29.088,7.454,5.934,5.03
1317,0.823,35.401,7.925,27.145,29.084,7.452,5.811,5.03
1318,0.82,35.134,7.921,27.136,29.088,7.534,5.972,5.07
1319,0.81,35.246,7.937,27.126,29.084,7.453,5.893,4.948
1320,0.813,35.334,7.925,27.117,29.088,7.452,5.933,5.029
1321,0.826,35.421,7.933,27.155,29.091,7.656,5.892,5.07
1322,0.83,35.144,7.921,27.155,29.102,7.739,6.014,5.152
1323,0.82,35.237,7.933,27.126,29.085,7.537,5.893,4.99
1324,0.817,35.391,7.929,27.145,29.095,7.697,5.851,5.029
1325,0.816,35.402,7.929,27.126,29.091,7.577,5.891,5.03
1326,0.81,35.124,7.929,27.097,29.081,7.616,5.851,4.989
1327,0.81,35.256,7.925,27.107,29.081,7.576,5.688,4.866
1328,0.81,35.372,7.929,27.145,29.091,7.657,5.849,5.028
1329,0.81,35.249,7.917,27.126,29.088,7.658,5.81,5.07
1330,0.82,35.065,7.921,27.136,29.091,7.658,5.85,5.03
1331,0.82,35.197,7.905,27.136,29.095,7.78,5.932,5.07
1332,0.826,35.333,7.932,27.165,29.091,7.781,5.933,5.07
1333,0.813,35.095,7.925,27.136,29.088,7.578,5.811,5.03
1334,0.826,35.217,7.929,27.136,29.091,7.616,5.81,5.03
1335,0.813,35.324,7.917,27.165,29.084,7.698,5.85,5.03
1336,0.807,35.411,7.921,27.117,29.081,7.577,5.729,5.03
1337,0.813,34.837,7.894,27.107,29.084,7.616,5.768,5.07
1338,0.816,35.003,7.921,27.136,29.091,7.698,5.85,5.111
1339,0.82,35.12,7.917,27.155,29.098,7.658,5.973,5.152
1340,0.81,35.179,7.909,27.136,29.088,7.536,5.771,4.949
1341,0.823,34.94,7.925,27.126,29.091,7.616,5.891,5.029
1342,0.813,35.072,7.94,27.145,29.084,7.535,5.811,4.989
1343,0.82,35.169,7.913,27.107,29.084,7.494,5.769,4.907
1344,0.817,35.237,7.913,27.097,29.077,7.331,5.687,4.947
1345,0.826,35.007,7.917,27.135,29.088,7.532,5.768,4.988
1346,0.82,35.101,7.909,27.126,29.088,7.453,5.85,4.988
1347,0.833,35.236,7.921,27.126,29.084,7.452,5.851,5.029
1348,0.826,35.276,7.921,27.145,29.091,7.452,5.851,5.111
1349,0.843,35.132,7.921,27.165,29.095,7.452,5.973,5.03
1350,0.826,35.217,7.921,27.127,29.088,7.371,5.771,4.989
1351,0.833,35.324,7.921,27.126,29.088,7.289,5.768,4.907
1352,0.83,35.67,7.925,27.136,29.088,7.329,5.85,5.028
1353,0.823,34.906,7.913,27.117,29.077,7.289,5.81,4.989
1354,0.826,35.023,7.921,27.136,29.084,7.207,5.81,5.11
1355,0.836,35.13,7.921,27.145,29.084,7.287,5.81,5.112
1356,0.852,35.016,7.929,27.165,29.098,7.369,5.891,5.071
1357,0.827,35.034,7.913,27.127,29.085,7.208,5.811,5.03
1358,0.83,35.168,7.921,27.164,29.088,7.165,5.85,5.07
1359,0.826,35.275,7.925,27.136,29.091,7.124,5.81,5.03
1360,0.82,34.739,7.909,27.107,29.081,7.002,5.769,4.989
1361,0.82,34.859,7.905,27.097,29.074,7.001,5.728,4.988
1362,0.839,35.013,7.925,27.145,29.088,7.041,5.809,4.988
1363,0.846,35.111,7.909,27.136,29.095,7.164,5.891,5.11
1364,0.862,34.891,7.913,27.136,29.088,7.043,5.811,4.989
1365,0.869,35.052,7.925,27.145,29.098,7.123,5.891,5.07
1366,0.885,35.169,7.917,27.126,29.091,7.083,5.77,4.989
1367,0.905,35.237,7.921,27.107,29.081,7.002,5.728,4.988
1368,0.931,34.797,7.909,27.097,29.077,6.96,5.687,4.948
1369,0.967,34.974,7.913,27.135,29.098,7.122,5.809,5.069
1370,0.99,35.082,7.913,27.136,29.091,7.165,5.81,5.03
1371,1.02,35.131,7.921,27.126,29.091,7.165,5.85,4.989
1372,1.053,34.949,7.925,27.145,29.098,7.246,5.81,5.11
1373,1.095,35.11,7.937,27.155,29.088,7.288,5.81,5.071
1374,1.092,35.169,7.909,27.117,29.084,7.166,5.769,4.989
1375,1.112,35.218,7.921,27.116,29.084,7.328,5.728,4.948
1376,1.135,34.844,7.921,27.126,29.095,7.37,5.768,5.029
1377,1.158,34.975,7.909,27.117,29.085,7.33,5.687,4.948
1378,1.171,35.072,7.913,27.136,29.088,7.37,5.768,5.029
1379,1.184,35.073,7.917,27.136,29.091,7.533,5.809,5.07
1380,1.175,35.015,7.929,27.165,29.098,7.697,5.972,5.152
1381,1.171,35.111,7.925,27.117,29.088,7.577,5.771,4.99
1382,1.184,35.217,7.937,27.145,29.088,7.575,5.768,5.07
1383,1.207,34.777,7.913,27.126,29.088,7.535,5.768,5.03
1384,1.159,34.859,7.909,27.097,29.081,7.534,5.647,4.948
1385,1.142,34.984,7.893,27.097,29.074,7.494,5.605,4.907
1386,1.096,35.11,7.932,27.126,29.091,7.656,5.808,4.987
1387,1.066,34.719,7.917,27.117,29.095,7.617,5.728,5.07
1388,1.024,34.849,7.921,27.136,29.091,7.535,5.687,5.03
1389,0.952,34.994,7.929,27.126,29.098,7.657,5.727,5.07
1390,0.915,35.082,7.929,27.126,29.091,7.617,5.768,5.07
1391,0.834,34.699,7.909,27.136,29.084,7.454,5.687,4.989
1392,0.765,34.858,7.905,27.107,29.077,7.371,5.646,4.866
1393,0.683,34.984,7.921,27.145,29.084,7.533,5.767,5.109
1394,0.6,35.034,7.909,27.117,29.084,7.494,5.687,5.071
1395,0.528,34.804,7.913,27.145,29.091,7.534,5.768,5.03
1396,0.44,34.946,7.936,27.136,29.098,7.616,5.768,5.07
1397,0.39,35.081,7.937,27.165,29.105,7.698,5.809,5.193
1398,0.334,35.083,7.913,27.117,29.085,7.618,5.647,4.99
1399,0.301,34.776,7.921,27.126,29.098,7.617,5.645,4.988
1400,0.278,34.888,7.925,27.126,29.091,7.657,5.767,4.988
1401,0.239,34.985,7.917,27.097,29.084,7.576,5.606,5.029
1402,0.17,35.369,7.905,27.097,29.081,7.535,5.645,4.989
1403,0.146,34.836,7.929,27.135,29.095,7.697,5.767,5.07
1404,0.11,34.955,7.925,27.126,29.095,7.74,5.768,5.233
1405,0.097,35.053,7.909,27.117,29.091,7.74,5.647,5.032
1406,0.077,34.728,7.921,27.126,29.091,7.781,5.727,5.151
1407,0.041,34.772,7.929,27.145,29.102,7.822,5.727,5.071
1408,0.018,34.888,7.913,27.098,29.078,7.741,5.646,5.03
1409,0.005,34.966,7.921,27.116,29.074,7.699,5.523,4.989
1410,0.011,34.64,7.925,27.126,29.091,7.78,5.644,5.11
1411,0.031,34.781,7.909,27.117,29.084,7.862,5.645,5.112
1412,0.077,34.917,7.925,27.126,29.091,7.863,5.686,5.112
1413,0.126,34.995,7.921,27.136,29.091,7.863,5.687,5.193
1414,0.192,34.746,7.944,27.155,29.105,7.944,5.809,5.275
1415,0.235,34.878,7.925,27.126,29.085,7.701,5.647,5.073
1416,0.293,35.013,7.913,27.145,29.095,7.821,5.686,5.152
1417,0.333,35.053,7.936,27.126,29.091,7.7,5.687,5.153
1418,0.373,34.603,7.921,27.117,29.088,7.699,5.605,5.153
1419,0.405,34.733,7.921,27.116,29.088,7.699,5.726,5.112
1420,0.442,34.878,7.909,27.116,29.088,7.658,5.687,5.234
1421,0.481,34.946,7.925,27.145,29.098,7.78,5.809,5.316
1422,0.504,34.669,7.905,27.126,29.088,7.578,5.647,5.154
1423,0.537,34.81,7.909,27.145,29.095,7.616,5.686,5.153
1424,0.553,34.927,7.921,27.117,29.085,7.454,5.687,5.193
1425,0.593,34.908,7.917,27.107,29.081,7.371,5.605,5.153
1426,0.606,34.659,7.917,27.097,29.084,7.33,5.564,5.153
1427,0.635,34.839,7.917,27.126,29.095,7.37,5.685,5.315
1428,0.675,34.936,7.925,27.126,29.091,7.452,5.727,5.317
1429,0.695,34.813,7.917,27.136,29.091,7.371,5.605,5.195
1430,0.731,34.773,7.921,27.145,29.095,7.411,5.726,5.234
1431,0.757,34.907,7.933,27.146,29.088,7.33,5.687,5.316
1432,0.764,34.966,7.929,27.136,29.084,7.289,5.646,5.195
1433,0.774,34.592,7.913,27.117,29.084,7.207,5.605,5.153
1434,0.797,34.742,7.925,27.136,29.091,7.287,5.686,5.234
1435,0.813,34.849,7.913,27.126,29.088,7.247,5.646,5.275
1436,0.836,34.946,7.921,27.136,29.091,7.206,5.727,5.316
1437,0.852,34.554,7.917,27.145,29.098,7.206,5.727,5.317
1438,0.866,34.742,7.925,27.165,29.095,7.328,5.809,5.398
1439,0.869,34.82,7.909,27.107,29.088,7.126,5.728,5.236
1440,0.879,34.907,7.921,27.136,29.088,7.165,5.646,5.235
1441,0.879,34.611,7.917,27.117,29.088,7.165,5.686,5.357
1442,0.882,34.742,7.925,27.116,29.088,7.043,5.605,5.195
1443,0.882,34.859,7.913,27.107,29.088,7.123,5.645,5.275
1444,0.885,34.937,7.925,27.126,29.088,7.205,5.686,5.276
1445,0.892,34.515,7.94,27.145,29.102,7.287,5.809,5.357
1446,0.886,34.645,7.917,27.117,29.081,7.247,5.688,5.277
1447,0.892,34.771,7.933,27.126,29.091,7.328,5.687,5.357
1448,0.899,34.811,7.929,27.126,29.091,7.41,5.646,5.317
1449,0.889,34.61,7.921,27.117,29.088,7.33,5.605,5.195
1450,0.892,34.761,7.917,27.116,29.077,7.289,5.523,5.112
1451,0.899,34.878,7.936,27.145,29.088,7.451,5.725,5.356
1452,0.902,35.052,7.913,27.126,29.095,7.452,5.646,5.277
1453,0.899,34.632,7.901,27.126,29.091,7.412,5.645,5.316
1454,0.908,34.771,7.913,27.126,29.095,7.574,5.645,5.398
1455,0.915,34.888,7.921,27.174,29.095,7.616,5.645,5.358
1456,0.902,34.563,7.909,27.117,29.088,7.454,5.605,5.277
1457,0.915,34.627,7.905,27.126,29.084,7.534,5.604,5.235
1458,0.905,34.762,7.917,27.136,29.091,7.575,5.686,5.275
1459,0.905,34.821,7.905,27.107,29.084,7.454,5.524,5.276
1460,0.892,34.37,7.905,27.088,29.081,7.452,5.603,5.235
1461,0.905,34.519,7.929,27.135,29.088,7.493,5.645,5.316
1462,0.912,34.665,7.921,27.145,29.095,7.616,5.686,5.398
1463,0.905,34.743,7.909,27.107,29.095,7.413,5.564,5.196
1464,0.912,34.465,7.909,27.107,29.095,7.452,5.604,5.356
1465,0.902,34.597,7.913,27.116,29.091,7.452,5.604,5.195
1466,0.892,34.704,7.905,27.116,29.081,7.33,5.564,5.194
1467,0.895,34.762,7.909,27.107,29.081,7.289,5.523,5.153
1468,0.905,34.466,7.921,27.136,29.091,7.369,5.603,5.356
1469,0.905,34.559,7.909,27.117,29.088,7.289,5.523,5.277
1470,0.912,34.684,7.901,27.126,29.091,7.288,5.522,5.235
1471,0.912,34.743,7.913,27.145,29.091,7.288,5.685,5.438
1472,0.925,34.533,7.921,27.146,29.091,7.369,5.605,5.318
1473,0.912,34.626,7.909,27.126,29.084,7.248,5.523,5.276
1474,0.922,34.733,7.901,27.136,29.084,7.247,5.522,5.235
1475,0.922,34.763,7.909,27.145,29.088,7.166,5.685,5.235
1476,0.915,34.485,7.921,27.107,29.091,7.043,5.483,5.235
1477,0.925,34.626,7.921,27.126,29.091,7.164,5.644,5.235
1478,0.931,34.752,7.925,27.136,29.084,7.124,5.605,5.357
1479,0.935,34.542,7.917,27.165,29.102,7.246,5.686,5.358
1480,0.928,34.454,7.917,27.117,29.088,7.125,5.564,5.236
1481,0.925,34.616,7.921,27.136,29.095,7.124,5.604,5.235
1482,0.928,34.704,7.909,27.126,29.088,7.002,5.523,5.316
1483,0.931,34.254,7.905,27.088,29.081,7.001,5.522,5.154
1484,0.925,34.355,7.917,27.097,29.081,6.879,5.482,5.153
1485,0.931,34.519,7.929,27.135,29.091,7.04,5.562,5.275
1486,0.922,34.607,7.929,27.126,29.088,7.082,5.604,5.316
1487,0.925,34.311,7.917,27.107,29.081,6.961,5.482,5.236
1488,0.938,34.471,7.94,27.145,29.098,7.082,5.603,5.316
1489,0.941,34.578,7.917,27.126,29.088,6.961,5.523,5.317
1490,0.935,34.656,7.929,27.117,29.088,7.0,5.441,5.195
1491,0.935,34.311,7.917,27.107,29.088,6.879,5.399,5.153
1492,0.941,34.509,7.921,27.136,29.091,6.959,5.521,5.315
1493,0.951,34.588,7.921,27.126,29.084,6.96,5.522,5.317
1494,0.951,34.656,7.921,27.145,29.091,7.0,5.563,5.317
1495,0.951,34.378,7.929,27.136,29.098,6.96,5.563,5.398
1496,0.964,34.558,7.937,27.165,29.098,7.041,5.523,5.318
1497,0.951,34.627,7.929,27.107,29.088,6.96,5.441,5.195
1498,0.948,34.675,7.917,27.136,29.088,6.96,5.481,5.153
1499,0.945,34.331,7.921,27.136,29.081,6.96,5.481,5.234
1500,0.941,34.433,7.921,27.107,29.081,6.878,5.44,5.153
1501,0.945,34.578,7.925,27.126,29.088,6.918,5.521,5.275
1502,0.945,34.598,7.913,27.136,29.095,6.959,5.563,5.276
1503,0.951,34.32,7.94,27.165,29.102,7.041,5.604,5.316
1504,0.951,34.461,7.929,27.127,29.088,6.879,5.482,5.195
1505,0.954,34.539,7.933,27.126,29.091,6.959,5.522,5.275
1506,0.945,34.224,7.909,27.117,29.088,6.878,5.522,5.195
1507,0.951,34.307,7.897,27.088,29.084,6.837,5.441,5.194
1508,0.948,34.432,7.905,27.097,29.077,6.755,5.399,5.031
1509,0.945,34.539,7.944,27.135,29.084,6.876,5.521,5.314
1510,0.954,34.099,7.925,27.117,29.088,6.837,5.522,5.236
1511,0.951,34.238,7.933,27.126,29.088,6.837,5.522,5.316
1512,0.958,34.384,7.921,27.136,29.084,6.837,5.563,5.276
1513,0.974,34.491,7.94,27.145,29.095,6.877,5.604,5.316
1514,0.958,34.214,7.913,27.117,29.091,6.755,5.564,5.154
1515,0.961,34.374,7.913,27.145,29.084,6.714,5.523,5.234
1516,0.968,34.481,7.929,27.126,29.088,6.794,5.603,5.235
1517,0.958,34.54,7.917,27.107,29.084,6.673,5.523,5.153
1518,0.961,34.224,7.917,27.116,29.088,6.672,5.482,5.193
1519,0.971,34.374,7.921,27.136,29.091,6.794,5.562,5.194
1520,0.971,34.51,7.921,27.155,29.102,6.795,5.685,5.356
1521,0.958,34.521,7.913,27.107,29.085,6.551,5.564,5.195
1522,0.971,34.089,7.921,27.136,29.091,6.712,5.563,5.194
1523,0.964,34.229,7.909,27.107,29.088,6.713,5.563,5.194
1524,0.955,34.326,7.913,27.116,29.084,6.551,5.523,5.194
1525,0.958,34.337,7.901,27.097,29.081,6.549,5.441,5.072
1526,0.958,34.231,7.909,27.116,29.081,6.671,5.562,5.193
1527,0.964,34.365,7.901,27.116,29.084,6.55,5.604,5.194
1528,0.971,34.481,7.917,27.107,29.088,6.63,5.523,5.194
1529,0.971,34.262,7.933,27.126,29.088,6.631,5.685,5.316
1530,0.994,34.269,7.937,27.164,29.098,6.672,5.605,5.276
1531,0.971,34.355,7.929,27.117,29.091,6.509,5.482,5.195
1532,0.977,34.471,7.933,27.126,29.084,6.63,5.562,5.194
1533,0.977,33.993,7.909,27.117,29.091,6.59,5.523,5.234
1534,0.977,34.113,7.913,27.116,29.084,6.509,5.522,5.194
1535,0.968,34.239,7.909,27.126,29.084,6.549,5.563,5.194
1536,0.984,34.365,7.921,27.126,29.088,6.549,5.563,5.316
1537,0.994,34.059,7.933,27.164,29.098,6.671,5.685,5.317
1538,0.978,34.19,7.917,27.107,29.081,6.55,5.524,5.154
1539,0.987,34.326,7.925,27.136,29.088,6.508,5.644,5.193
1540,0.974,34.404,7.909,27.126,29.091,6.549,5.564,5.194
1541,0.971,34.088,7.909,27.107,29.084,6.386,5.523,5.153
1542,0.961,34.21,7.905,27.088,29.081,6.385,5.522,5.112
1543,0.984,34.374,7.929,27.135,29.091,6.425,5.603,5.193
1544,0.978,34.395,7.921,27.117,29.088,6.507,5.645,5.275
1545,0.981,33.992,7.921,27.116,29.091,6.467,5.605,5.154
1546,0.981,34.132,7.921,27.145,29.091,6.507,5.645,5.193
1547,0.994,34.248,7.921,27.146,29.095,6.427,5.645,5.194
1548,0.987,34.25,7.921,27.107,29.088,6.385,5.645,5.072
1549,0.981,34.039,7.921,27.126,29.088,6.344,5.605,5.152
1550,0.981,34.18,7.925,27.126,29.091,6.506,5.645,5.193
1551,0.984,34.268,7.913,27.117,29.084,6.345,5.605,5.194
1552,0.991,34.259,7.925,27.126,29.091,6.303,5.645,5.153
1553,0.991,34.106,7.929,27.126,29.095,6.465,5.645,5.275
1554,1.004,34.258,7.944,27.174,29.102,6.467,5.808,5.316
1555,0.997,34.317,7.925,27.136,29.085,6.264,5.647,5.195
1556,0.997,34.087,7.913,27.117,29.088,6.302,5.645,5.194
1557,0.991,34.2,7.905,27.116,29.088,6.343,5.686,5.194
1558,0.984,34.307,7.917,27.116,29.084,6.262,5.605,5.112
1559,0.994,34.404,7.905,27.116,29.088,6.262,5.645,5.112
1560,1.0,33.935,7.921,27.145,29.091,6.302,5.686,5.152
1561,1.0,34.093,7.929,27.155,29.098,6.384,5.768,5.315
1562,0.991,34.191,7.925,27.117,29.088,6.303,5.606,5.154
1563,1.0,34.307,7.937,27.145,29.095,6.343,5.726,5.234
1564,0.991,33.895,7.933,27.126,29.088,6.303,5.646,5.194
1565,0.991,34.025,7.921,27.088,29.091,6.262,5.605,5.031
1566,0.987,34.142,7.909,27.087,29.074,6.18,5.604,5.03
1567,0.991,34.229,7.925,27.126,29.088,6.383,5.645,5.233
1568,0.994,34.058,7.917,27.117,29.088,6.344,5.727,5.194
1569,0.997,34.209,7.913,27.145,29.091,6.303,5.646,5.153
1570,1.0,34.336,7.925,27.136,29.088,6.343,5.727,5.193
1571,1.013,34.394,7.921,27.145,29.091,6.384,5.687,5.234
1572,0.994,34.011,7.917,27.117,29.088,6.344,5.605,5.153
1573,1.0,34.17,7.894,27.107,29.077,6.262,5.604,5.112
1574,1.004,34.287,7.893,27.136,29.084,6.384,5.645,5.234
1575,1.0,34.49,7.893,27.126,29.084,6.303,5.564,5.194
1576,0.997,34.281,7.909,27.117,29.084,6.384,5.645,5.194
1577,1.01,34.403,7.925,27.126,29.095,6.466,5.645,5.194
1578,1.017,34.52,7.913,27.164,29.102,6.548,5.808,5.234
1579,1.01,34.233,7.901,27.107,29.088,6.386,5.606,5.153
1580,1.004,34.259,7.921,27.116,29.088,6.466,5.645,5.153
1581,1.01,34.384,7.921,27.126,29.091,6.467,5.727,5.112
1582,1.01,34.462,7.921,27.107,29.088,6.304,5.565,5.112
1583,1.004,34.242,7.909,27.088,29.084,6.425,5.604,5.112
1584,1.017,34.403,7.917,27.116,29.088,6.507,5.645,5.193
1585,1.014,34.529,7.921,27.126,29.102,6.63,5.808,5.275
1586,1.023,34.617,7.909,27.097,29.088,6.509,5.566,5.113
1587,1.027,34.503,7.925,27.126,29.091,6.549,5.726,5.234
1588,1.01,34.655,7.921,27.107,29.091,6.63,5.646,5.194
1589,1.01,34.762,7.913,27.107,29.084,6.631,5.645,5.072
1590,1.004,34.801,7.917,27.088,29.074,6.631,5.523,4.989
1591,1.02,34.648,7.925,27.126,29.091,6.794,5.685,5.151
1592,1.02,34.771,7.921,27.117,29.091,6.795,5.727,5.234
1593,1.02,34.888,7.921,27.116,29.091,6.755,5.646,5.235
1594,1.017,34.966,7.925,27.136,29.095,6.836,5.645,5.275
1595,1.02,34.87,7.921,27.136,29.088,6.877,5.727,5.154
1596,1.014,34.975,7.905,27.107,29.084,6.755,5.605,5.153
1597,1.007,35.072,7.905,27.107,29.081,6.714,5.523,5.031
1598,1.02,35.13,7.925,27.116,29.088,6.835,5.725,5.151
1599,1.01,35.169,7.913,27.116,29.088,6.837,5.646,5.193
1600,1.014,35.304,7.921,27.107,29.088,6.837,5.645,5.153
1601,1.017,35.44,7.925,27.126,29.091,6.877,5.645,5.153
1602,1.023,35.489,7.937,27.145,29.098,7.04,5.808,5.234
1603,1.01,35.432,7.913,27.126,29.085,6.798,5.688,5.153
1604,1.017,35.566,7.905,27.126,29.084,6.877,5.605,5.071
1605,1.014,35.653,7.897,27.117,29.084,6.918,5.686,5.152
1606,1.01,35.549,7.913,27.097,29.081,6.796,5.646,5.071
1607,1.01,35.701,7.917,27.116,29.088,6.877,5.645,5.152
1608,1.02,35.827,7.921,27.136,29.091,6.877,5.727,5.193
1609,1.017,35.915,7.933,27.165,29.102,6.959,5.85,5.275
1610,1.02,35.714,7.929,27.117,29.085,6.756,5.648,5.073
1611,1.02,35.885,7.937,27.136,29.095,6.917,5.686,5.193
1612,1.017,35.982,7.921,27.117,29.095,6.756,5.687,5.153
1613,1.01,36.051,7.929,27.107,29.088,6.714,5.564,5.153
1614,1.007,36.08,7.917,27.097,29.077,6.632,5.604,5.153
1615,1.027,36.243,7.925,27.145,29.091,6.834,5.686,5.193
1616,1.017,36.36,7.917,27.126,29.095,6.837,5.687,5.194
1617,1.017,36.399,7.909,27.117,29.088,6.714,5.605,5.072
1618,1.027,36.314,7.921,27.136,29.095,6.876,5.645,5.152
1619,1.023,36.437,7.909,27.126,29.088,6.755,5.645,5.112
1620,1.01,36.535,7.905,27.107,29.081,6.795,5.564,5.071
1621,0.997,36.545,7.913,27.097,29.077,6.714,5.523,5.03
1622,1.017,36.612,7.925,27.126,29.084,6.916,5.644,5.192
1623,1.007,36.728,7.921,27.107,29.091,6.837,5.605,5.072
1624,1.01,36.835,7.913,27.116,29.088,6.918,5.686,5.07
1625,1.014,37.325,7.925,27.116,29.091,6.878,5.646,5.193
1626,1.017,36.927,7.937,27.145,29.102,7.0,5.767,5.153
1627,1.01,36.99,7.925,27.126,29.081,6.96,5.606,5.112
1628,1.014,37.125,7.929,27.126,29.091,6.96,5.645,5.071
1629,1.004,36.963,7.921,27.117,29.091,7.041,5.645,5.233
1630,1.017,37.019,7.929,27.107,29.088,6.879,5.564,5.072
1631,1.01,37.144,7.933,27.107,29.091,7.04,5.685,5.233
1632,1.023,37.251,7.944,27.116,29.088,7.082,5.727,5.235
1633,1.036,37.041,7.929,27.145,29.105,7.164,5.809,5.316
1634,1.014,37.145,7.917,27.126,29.092,7.043,5.606,5.154
1635,1.02,37.251,7.921,27.126,29.091,7.164,5.726,5.193
1636,1.017,37.339,7.929,27.126,29.091,7.206,5.646,5.194
1637,1.014,37.311,7.929,27.117,29.088,7.125,5.605,5.072
1638,1.014,37.416,7.898,27.088,29.077,7.246,5.604,5.07
1639,1.023,37.58,7.921,27.135,29.091,7.369,5.686,5.152
1640,1.02,37.639,7.913,27.145,29.102,7.533,5.849,5.275
1641,1.017,37.218,7.913,27.126,29.092,7.453,5.566,5.113
1642,1.017,37.367,7.921,27.117,29.088,7.534,5.645,5.152
1643,1.014,37.455,7.921,27.107,29.091,7.494,5.686,5.193
1644,1.01,37.504,7.909,27.097,29.088,7.453,5.646,5.072
1645,1.01,37.418,7.909,27.078,29.081,7.371,5.564,4.908
1646,1.017,37.599,7.913,27.107,29.088,7.655,5.604,5.15
1647,1.014,37.697,7.921,27.107,29.091,7.617,5.686,5.153
1648,1.017,37.698,7.917,27.107,29.088,7.657,5.605,5.112
1649,1.02,37.64,7.905,27.126,29.091,7.698,5.645,5.274
1650,1.027,37.784,7.929,27.136,29.098,7.74,5.686,5.154
1651,1.027,37.833,7.905,27.117,29.081,7.618,5.687,5.071
1652,1.023,37.651,7.913,27.116,29.081,7.617,5.564,5.07
1653,1.027,37.563,7.905,27.126,29.095,7.698,5.645,5.111
1654,1.02,37.677,7.917,27.117,29.088,7.618,5.605,5.112
1655,1.033,37.765,7.913,27.107,29.091,7.698,5.645,5.193
1656,1.027,37.641,7.909,27.136,29.088,7.699,5.686,5.194
1657,1.037,37.774,7.933,27.165,29.105,7.821,5.768,5.234
1658,1.03,37.852,7.921,27.098,29.085,7.659,5.647,5.113
1659,1.037,37.949,7.909,27.116,29.095,7.698,5.645,5.193
1660,1.03,37.643,7.913,27.116,29.088,7.618,5.686,5.153
1661,1.024,37.755,7.913,27.107,29.084,7.535,5.564,5.031
1662,1.017,37.852,7.894,27.088,29.081,7.494,5.563,5.07
1663,1.023,37.939,7.917,27.135,29.091,7.575,5.563,5.152
1664,1.02,37.614,7.921,27.126,29.095,7.616,5.685,5.112
1665,1.027,37.754,7.921,27.117,29.081,7.454,5.646,5.071
1666,1.023,37.861,7.929,27.126,29.091,7.574,5.727,5.152
1667,1.04,37.91,7.917,27.117,29.088,7.454,5.646,5.112
1668,1.024,37.623,7.909,27.107,29.084,7.33,5.605,5.071
1669,1.027,37.745,7.905,27.116,29.081,7.37,5.523,4.989
1670,1.033,37.852,7.917,27.116,29.088,7.37,5.603,5.151
1671,1.03,37.872,7.925,27.097,29.088,7.289,5.564,5.112
1672,1.033,37.68,7.913,27.116,29.095,7.288,5.685,5.03
1673,1.043,37.813,7.917,27.126,29.088,7.288,5.646,5.192
1674,1.043,37.929,7.929,27.145,29.105,7.451,5.727,5.234
1675,1.04,38.112,7.905,27.098,29.088,7.29,5.605,5.072
1676,1.037,37.712,7.932,27.107,29.095,7.369,5.645,5.152
1677,1.04,37.813,7.925,27.126,29.091,7.167,5.605,5.112
1678,1.03,37.891,7.913,27.107,29.081,7.165,5.564,5.03
1679,1.017,37.527,7.905,27.097,29.084,7.124,5.604,5.111
1680,1.027,37.61,7.913,27.116,29.091,7.246,5.645,5.112
1681,1.023,37.735,7.933,27.126,29.095,7.328,5.645,5.193
1682,1.027,37.813,7.929,27.117,29.091,7.329,5.645,5.072
1683,1.03,37.699,7.925,27.136,29.098,7.289,5.686,5.233
1684,1.024,37.832,7.933,27.107,29.091,7.329,5.646,5.072
1685,1.02,37.929,7.929,27.088,29.088,7.329,5.523,5.03
1686,1.017,37.988,7.917,27.078,29.084,7.329,5.482,4.948
1687,1.023,37.499,7.925,27.116,29.091,7.41,5.644,5.11
1688,1.017,37.638,7.909,27.126,29.084,7.493,5.523,5.071
1689,1.02,37.745,7.897,27.107,29.088,7.494,5.563,5.07
1690,1.027,37.823,7.917,27.126,29.091,7.575,5.645,5.152
1691,1.04,37.594,7.933,27.145,29.105,7.616,5.686,5.112
1692,1.027,37.697,7.905,27.117,29.088,7.535,5.605,5.071
1693,1.02,37.813,7.913,27.107,29.084,7.534,5.604,4.989
1694,1.014,37.852,7.909,27.145,29.091,7.616,5.564,5.151
1695,1.01,37.565,7.913,27.098,29.088,7.454,5.563,5.071
1696,1.007,37.706,7.925,27.126,29.091,7.615,5.645,5.152
1697,1.01,37.803,7.937,27.126,29.095,7.657,5.645,5.234
1698,1.017,37.862,7.952,27.136,29.098,7.698,5.645,5.153
1699,1.007,37.536,7.941,27.126,29.095,7.536,5.523,5.153
1700,1.004,37.706,7.913,27.126,29.088,7.575,5.522,5.031
1701,0.997,37.775,7.913,27.117,29.088,7.535,5.603,5.07
1702,0.984,37.622,7.909,27.107,29.077,7.412,5.564,5.111
1703,0.991,37.63,7.921,27.116,29.084,7.411,5.604,5.112
1704,0.994,37.774,7.905,27.107,29.095,7.533,5.645,5.112
1705,0.994,37.881,7.925,27.155,29.105,7.575,5.686,5.193
1706,0.987,37.498,7.909,27.098,29.085,7.413,5.564,4.99
1707,0.991,37.629,7.921,27.126,29.091,7.493,5.645,5.11
1708,0.978,37.745,7.913,27.117,29.088,7.412,5.523,5.112
1709,0.964,37.813,7.894,27.116,29.077,7.371,5.482,5.071
1710,0.974,37.469,7.897,27.078,29.081,7.289,5.481,4.989
1711,0.971,37.628,7.901,27.126,29.091,7.451,5.562,5.192
1712,0.968,37.726,7.905,27.126,29.098,7.493,5.604,5.194
1713,0.968,37.794,7.917,27.126,29.088,7.494,5.523,5.153
1714,0.964,37.584,7.921,27.126,29.091,7.534,5.603,5.193
1715,0.964,37.716,7.933,27.145,29.091,7.534,5.604,5.194
1716,0.958,37.794,7.909,27.107,29.081,7.453,5.482,5.072
1717,0.954,37.843,7.913,27.116,29.088,7.452,5.481,5.03
1718,0.948,37.527,7.921,27.116,29.091,7.493,5.562,5.192
1719,0.954,37.629,7.921,27.097,29.088,7.453,5.523,4.99
1720,0.938,37.735,7.917,27.107,29.088,7.452,5.522,5.07
1721,0.954,37.765,7.917,27.116,29.084,7.493,5.563,5.152
1722,0.951,37.574,7.936,27.155,29.102,7.616,5.685,5.315
1723,0.935,37.658,7.913,27.107,29.085,7.454,5.524,5.114
1724,0.941,37.765,7.929,27.116,29.098,7.493,5.563,5.112
1725,0.935,37.852,7.929,27.107,29.091,7.453,5.523,5.112
1726,0.938,37.651,7.905,27.097,29.084,7.29,5.482,5.03
1727,0.928,37.745,7.909,27.078,29.074,7.288,5.4,4.989
1728,0.931,37.871,7.929,27.126,29.088,7.491,5.602,5.11
1729,0.922,37.556,7.917,27.117,29.084,7.453,5.523,5.152
1730,0.925,37.648,7.901,27.126,29.091,7.412,5.482,5.112
1731,0.935,37.784,7.936,27.126,29.095,7.452,5.562,5.193
1732,0.941,37.9,7.941,27.145,29.088,7.493,5.563,5.153
1733,0.935,37.518,7.933,27.117,29.084,7.412,5.482,5.071
1734,0.931,37.667,7.913,27.107,29.091,7.411,5.522,5.07
1735,0.925,37.765,7.917,27.136,29.095,7.452,5.563,5.152
1736,0.925,37.823,7.925,27.117,29.085,7.371,5.482,5.031
1737,0.935,37.488,7.921,27.116,29.084,7.37,5.522,5.151
1738,0.931,37.629,7.929,27.126,29.091,7.37,5.563,5.112
1739,0.935,37.735,7.937,27.145,29.105,7.573,5.685,5.274
1740,0.922,37.765,7.921,27.107,29.081,7.372,5.524,5.032
1741,0.931,37.545,7.921,27.126,29.091,7.411,5.522,5.151
1742,0.922,37.667,7.909,27.117,29.084,7.33,5.522,5.153
1743,0.915,37.765,7.909,27.097,29.088,7.37,5.441,5.071
1744,0.909,37.794,7.909,27.097,29.077,7.37,5.44,4.989
1745,0.921,37.497,7.933,27.126,29.098,7.452,5.521,5.151
1746,0.922,37.609,7.937,27.126,29.095,7.452,5.644,5.234
1747,0.918,37.726,7.921,27.097,29.088,7.371,5.483,5.032
1748,0.922,37.746,7.937,27.126,29.098,7.411,5.603,5.151
1749,0.915,37.612,7.937,27.117,29.088,7.371,5.482,5.071
1750,0.915,37.716,7.917,27.088,29.084,7.289,5.44,5.03
1751,0.912,37.803,7.89,27.097,29.081,7.247,5.481,5.07
1752,0.922,37.536,7.924,27.107,29.095,7.45,5.562,5.111
1753,0.918,37.504,7.921,27.126,29.095,7.371,5.645,5.274
1754,0.915,37.638,7.921,27.126,29.091,7.37,5.483,5.073
1755,0.922,37.707,7.929,27.126,29.095,7.33,5.603,5.193
1756,0.922,37.535,7.917,27.126,29.091,7.248,5.564,5.153
1757,0.915,37.61,7.901,27.107,29.088,7.206,5.523,5.071
1758,0.915,37.735,7.905,27.088,29.081,7.165,5.441,4.908
1759,0.922,37.832,7.905,27.116,29.095,7.246,5.603,5.15
1760,0.912,37.383,7.909,27.097,29.085,7.247,5.523,5.153
1761,0.918,37.532,7.921,27.107,29.088,7.247,5.563,5.071
1762,0.915,37.658,7.921,27.136,29.091,7.288,5.563,5.152
1763,0.922,37.745,7.933,27.145,29.102,7.288,5.604,5.193
1764,0.918,37.391,7.925,27.088,29.088,7.166,5.442,5.031
1765,0.909,37.551,7.929,27.097,29.088,7.246,5.481,5.07
1766,0.908,37.658,7.929,27.116,29.091,7.166,5.603,5.152
1767,0.902,37.697,7.913,27.107,29.084,7.124,5.482,5.031
1768,0.912,37.429,7.913,27.097,29.088,7.165,5.603,4.989
1769,0.912,37.561,7.917,27.126,29.091,7.246,5.564,5.151
1770,0.931,37.668,7.925,27.145,29.098,7.288,5.726,5.275
1771,0.925,37.678,7.909,27.107,29.088,7.207,5.565,5.073
1772,0.925,37.439,7.921,27.116,29.098,7.206,5.604,5.111
1773,0.925,37.571,7.917,27.107,29.095,7.165,5.604,5.071
1774,0.918,37.639,7.913,27.097,29.081,7.124,5.564,4.989
1775,0.925,37.515,7.901,27.088,29.081,7.002,5.482,4.988
1776,0.931,37.312,7.925,27.135,29.084,7.163,5.684,5.07
1777,0.915,37.435,7.909,27.107,29.088,7.124,5.605,5.07
1778,0.922,37.542,7.905,27.116,29.091,7.083,5.645,5.152
1779,0.935,37.293,7.917,27.126,29.088,7.123,5.645,5.153
1780,0.938,37.425,7.913,27.126,29.091,7.083,5.645,5.071
1781,0.922,37.494,7.929,27.107,29.091,7.002,5.564,4.989
1782,0.925,37.581,7.925,27.097,29.084,6.919,5.482,4.907
1783,0.918,37.179,7.913,27.116,29.091,7.041,5.644,5.109
1784,0.918,37.28,7.917,27.097,29.088,6.96,5.645,5.03
1785,0.931,37.435,7.917,27.107,29.088,7.0,5.605,5.03
1786,0.931,37.503,7.925,27.126,29.098,7.082,5.645,5.07
1787,0.941,37.216,7.937,27.145,29.102,7.123,5.727,5.111
1788,0.928,37.29,7.925,27.117,29.088,7.043,5.605,5.071
1789,0.935,37.425,7.917,27.107,29.088,7.082,5.645,5.07
1790,0.931,37.484,7.925,27.116,29.095,7.083,5.605,5.07
1791,0.922,36.948,7.913,27.088,29.078,7.042,5.564,5.07
1792,0.931,37.077,7.925,27.107,29.088,7.164,5.604,5.03
1793,0.935,37.212,7.905,27.126,29.091,7.206,5.645,5.111
1794,0.954,37.261,7.925,27.136,29.102,7.328,5.686,5.234
1795,0.941,37.013,7.925,27.107,29.085,7.207,5.646,5.113
1796,0.941,37.144,7.933,27.126,29.095,7.287,5.645,5.112
1797,0.932,37.242,7.894,27.107,29.091,7.207,5.564,5.071
1798,0.925,37.549,7.893,27.107,29.084,7.165,5.523,5.03
1799,0.925,36.747,7.913,27.078,29.084,7.124,5.482,4.989
1800,0.931,36.921,7.917,27.126,29.088,7.205,5.603,5.11
1801,0.931,37.0,7.909,27.126,29.098,7.247,5.645,5.152
1802,0.938,36.895,7.905,27.117,29.088,7.288,5.605,5.071
1803,0.935,36.961,7.909,27.126,29.091,7.288,5.686,5.152
1804,0.941,37.096,7.929,27.126,29.095,7.247,5.687,5.112
1805,0.925,37.145,7.917,27.088,29.085,7.206,5.564,4.989
1806,0.928,36.638,7.917,27.087,29.084,7.165,5.441,4.907
1807,0.928,36.786,7.917,27.107,29.091,7.287,5.603,5.028
1808,0.925,36.902,7.905,27.107,29.091,7.247,5.523,5.07
1809,0.941,36.99,7.897,27.107,29.088,7.166,5.603,5.07
1810,0.932,36.703,7.921,27.116,29.088,7.246,5.645,5.152
1811,0.951,36.902,7.921,27.136,29.105,7.247,5.645,5.112
1812,0.932,36.961,7.913,27.107,29.092,7.084,5.523,4.989
1813,0.941,37.029,7.913,27.116,29.088,7.083,5.563,4.988
1814,0.941,36.502,7.921,27.107,29.088,7.123,5.604,5.151
1815,0.938,36.621,7.913,27.088,29.081,7.083,5.564,4.99
1816,0.935,36.738,7.929,27.116,29.088,7.123,5.604,5.029
1817,0.938,36.787,7.925,27.116,29.098,7.165,5.604,5.07
1818,0.945,36.643,7.933,27.155,29.105,7.368,5.726,5.233
1819,0.932,36.719,7.917,27.117,29.088,7.208,5.524,5.032
1820,0.931,36.844,7.921,27.116,29.091,7.247,5.603,5.03
1821,0.922,36.855,7.937,27.107,29.084,7.166,5.604,5.111
1822,0.922,36.481,7.921,27.107,29.081,7.124,5.523,5.03
1823,0.925,36.621,7.913,27.088,29.081,7.165,5.4,4.948
1824,0.931,36.728,7.913,27.116,29.091,7.328,5.562,5.069
1825,0.922,36.672,7.909,27.107,29.091,7.41,5.604,5.193
1826,0.925,36.585,7.921,27.107,29.091,7.289,5.564,4.99
1827,0.935,36.728,7.921,27.116,29.091,7.369,5.604,5.11
1828,0.938,36.835,7.929,27.116,29.095,7.33,5.604,5.071
1829,0.919,36.318,7.905,27.097,29.081,7.329,5.523,5.03
1830,0.922,36.418,7.921,27.078,29.084,7.329,5.482,4.989
1831,0.925,36.553,7.901,27.135,29.095,7.451,5.562,5.11
1832,0.918,36.622,7.909,27.098,29.088,7.452,5.523,5.112
1833,0.931,36.345,7.909,27.107,29.088,7.493,5.563,5.071
1834,0.931,36.486,7.925,27.116,29.091,7.575,5.604,5.152
1835,0.935,36.631,7.925,27.164,29.095,7.698,5.604,5.193
1836,0.928,36.69,7.917,27.107,29.091,7.496,5.523,5.072
1837,0.925,36.307,7.921,27.107,29.091,7.575,5.482,5.07
1838,0.925,36.428,7.929,27.126,29.091,7.616,5.562,5.111
1839,0.918,36.525,7.921,27.097,29.084,7.576,5.441,5.03
1840,0.912,36.583,7.921,27.097,29.081,7.616,5.521,5.07
1841,0.918,36.258,7.921,27.126,29.091,7.739,5.603,5.152
1842,0.918,36.408,7.937,27.155,29.098,7.862,5.645,5.193
1843,0.912,36.496,7.905,27.107,29.088,7.66,5.442,5.072
1844,0.912,36.545,7.917,27.136,29.095,7.78,5.603,5.07
1845,0.905,36.421,7.909,27.107,29.088,7.7,5.564,5.03
1846,0.899,36.525,7.893,27.107,29.084,7.658,5.441,4.989
1847,0.902,36.641,7.882,27.078,29.074,7.658,5.481,4.988
1848,0.912,37.016,7.889,27.116,29.091,7.739,5.522,5.07
1849,0.912,36.329,7.905,27.107,29.091,7.862,5.644,5.193
1850,0.908,36.457,7.913,27.126,29.088,7.782,5.483,5.072
1851,0.921,36.573,7.929,27.126,29.095,7.984,5.562,5.152
1852,0.912,36.325,7.925,27.107,29.088,7.905,5.563,5.153
1853,0.908,36.361,7.921,27.107,29.084,7.945,5.523,4.949
1854,0.902,36.457,7.909,27.088,29.077,7.905,5.482,5.069
1855,0.918,36.592,7.913,27.126,29.091,8.067,5.562,5.152
1856,0.918,36.344,7.917,27.126,29.095,8.191,5.645,5.112
1857,0.918,36.457,7.913,27.107,29.088,8.11,5.564,4.989
1858,0.915,36.573,7.936,27.126,29.098,8.15,5.645,5.11
1859,0.909,36.651,7.929,27.117,29.088,8.11,5.564,5.071
1860,0.902,36.201,7.921,27.107,29.084,8.069,5.482,4.989
1861,0.902,36.34,7.897,27.097,29.081,7.987,5.44,4.948
1862,0.895,36.486,7.928,27.126,29.091,8.19,5.562,5.069
1863,0.899,36.525,7.917,27.126,29.088,8.151,5.604,5.07
1864,0.905,36.363,7.933,27.117,29.088,8.11,5.523,4.989
1865,0.912,36.515,7.921,27.126,29.088,8.191,5.603,5.07
1866,0.908,36.622,7.929,27.126,29.095,8.151,5.564,5.07
1867,0.899,36.661,7.913,27.088,29.085,8.15,5.523,4.948
1868,0.895,36.297,7.921,27.097,29.084,8.11,5.441,4.988
1869,0.895,36.437,7.917,27.126,29.088,8.191,5.521,5.11
1870,0.892,36.535,7.909,27.107,29.088,8.192,5.563,5.071
1871,0.905,36.574,7.909,27.116,29.081,8.232,5.563,5.07
1872,0.905,36.315,7.909,27.126,29.098,8.273,5.563,5.111
1873,0.912,36.485,7.925,27.126,29.098,8.314,5.645,5.152
1874,0.902,36.554,7.921,27.097,29.088,8.274,5.523,5.071
1875,0.905,36.401,7.925,27.116,29.088,8.274,5.522,5.07
1876,0.912,36.342,7.925,27.126,29.091,8.233,5.603,5.111
1877,0.899,36.428,7.921,27.107,29.088,8.111,5.482,5.071
1878,0.899,36.563,7.913,27.116,29.088,8.191,5.562,5.07
1879,0.899,36.239,7.909,27.126,29.095,8.192,5.563,5.152
1880,0.899,36.36,7.936,27.145,29.102,8.232,5.645,5.153
1881,0.889,36.447,7.902,27.117,29.088,7.989,5.523,4.99
1882,0.895,36.525,7.909,27.107,29.084,7.946,5.522,4.988
1883,0.895,36.42,7.925,27.126,29.091,8.026,5.522,4.988
1884,0.889,36.544,7.913,27.097,29.084,7.946,5.482,4.988
1885,0.889,36.66,7.921,27.116,29.091,7.986,5.522,5.029
1886,0.889,36.738,7.913,27.116,29.091,7.986,5.563,5.111
1887,0.902,36.288,7.929,27.155,29.105,8.068,5.685,5.112
1888,0.895,36.389,7.901,27.107,29.088,7.946,5.524,5.03
1889,0.892,36.534,7.917,27.107,29.088,7.986,5.603,4.989
1890,0.899,36.564,7.913,27.107,29.088,7.946,5.523,5.029
1891,0.886,36.239,7.921,27.097,29.077,7.905,5.522,4.989
1892,0.892,36.36,7.905,27.088,29.088,7.904,5.522,5.07
1893,0.895,36.524,7.925,27.126,29.095,8.026,5.644,5.111
1894,0.899,36.564,7.929,27.155,29.095,8.027,5.686,5.193
1895,0.905,36.373,7.917,27.107,29.085,7.987,5.524,5.031
1896,0.899,36.496,7.917,27.136,29.095,8.068,5.644,5.151
1897,0.899,36.602,7.921,27.107,29.091,8.109,5.523,5.071
1898,0.882,36.785,7.901,27.107,29.081,8.069,5.441,4.948
1899,0.882,36.423,7.909,27.088,29.077,7.987,5.399,4.947
1900,0.892,36.563,7.921,27.116,29.084,8.068,5.521,5.069
1901,0.886,36.632,7.917,27.107,29.084,8.15,5.563,5.03
1902,0.885,36.421,7.929,27.116,29.084,8.11,5.563,5.03
1903,0.885,36.515,7.929,27.126,29.088,8.232,5.645,5.192
1904,0.902,36.679,7.925,27.136,29.098,8.233,5.686,5.072
1905,0.873,36.719,7.925,27.117,29.085,8.07,5.524,4.989
1906,0.898,36.144,7.913,27.097,29.088,8.109,5.563,4.988
1907,0.899,36.253,7.921,27.135,29.095,8.069,5.563,5.029
1908,0.882,36.36,7.909,27.088,29.085,7.987,5.482,5.03
1909,0.885,36.447,7.905,27.097,29.084,8.068,5.481,4.989
1910,0.892,36.257,7.901,27.107,29.084,8.109,5.562,5.11
1911,0.899,36.418,7.917,27.164,29.098,8.15,5.645,5.152
1912,0.886,36.506,7.921,27.107,29.088,8.028,5.483,5.071
1913,0.892,36.574,7.933,27.136,29.095,8.109,5.562,5.07
1914,0.892,36.335,7.925,27.126,29.088,7.987,5.523,5.152
1915,0.886,36.447,7.937,27.097,29.084,7.946,5.4,5.031
1916,0.882,36.554,7.913,27.078,29.077,7.864,5.44,5.03
1917,0.892,36.622,7.925,27.116,29.091,7.863,5.521,5.111
1918,0.889,36.172,7.905,27.126,29.095,7.863,5.563,5.152
1919,0.892,36.321,7.909,27.097,29.088,7.863,5.563,5.031
1920,0.892,36.418,7.921,27.145,29.095,7.863,5.523,5.111
1921,0.899,36.438,7.929,27.136,29.088,7.782,5.482,5.03
1922,0.879,36.343,7.905,27.107,29.088,7.7,5.481,5.07
1923,0.879,36.476,7.913,27.097,29.077,7.618,5.359,4.867
1924,0.882,36.583,7.925,27.107,29.095,7.657,5.521,5.068
1925,0.876,36.306,7.909,27.097,29.085,7.617,5.522,4.948
1926,0.879,36.274,7.921,27.097,29.091,7.576,5.563,4.988
1927,0.885,36.408,7.921,27.107,29.088,7.657,5.563,5.11
1928,0.895,36.525,7.929,27.164,29.102,7.698,5.604,5.112
1929,0.882,36.094,7.917,27.117,29.085,7.536,5.482,5.03
1930,0.889,36.224,7.925,27.116,29.095,7.534,5.481,5.07
1931,0.879,36.321,7.925,27.126,29.088,7.534,5.481,5.111
1932,0.879,36.399,7.917,27.088,29.084,7.453,5.4,4.989
1933,0.879,36.074,7.913,27.107,29.084,7.493,5.44,4.948
1934,0.889,36.234,7.921,27.126,29.088,7.534,5.481,5.069
1935,0.889,36.379,7.921,27.145,29.095,7.616,5.644,5.193
1936,0.892,36.419,7.909,27.107,29.081,7.495,5.483,5.031
1937,0.882,36.141,7.905,27.126,29.091,7.494,5.603,5.07
1938,0.885,36.273,7.921,27.117,29.091,7.494,5.482,5.07
1939,0.876,36.37,7.921,27.088,29.088,7.371,5.481,5.03
1940,0.882,36.409,7.905,27.097,29.071,7.289,5.318,4.907
1941,0.879,36.074,7.917,27.116,29.091,7.491,5.52,5.069
1942,0.879,36.195,7.913,27.107,29.088,7.494,5.563,5.03
1943,0.876,36.302,7.921,27.097,29.091,7.494,5.482,5.03
1944,0.876,36.351,7.917,27.116,29.102,7.534,5.562,5.03
1945,0.889,36.102,7.925,27.126,29.098,7.575,5.645,5.07
1946,0.876,36.186,7.917,27.097,29.085,7.454,5.401,4.948
1947,0.879,36.283,7.917,27.107,29.088,7.574,5.44,4.988
1948,0.879,36.341,7.925,27.136,29.091,7.616,5.481,5.029
1949,0.876,36.092,7.905,27.098,29.078,7.576,5.44,4.989
1950,0.879,36.215,7.913,27.116,29.088,7.738,5.521,5.07
1951,0.885,36.321,7.905,27.136,29.091,7.821,5.563,5.07
1952,0.905,36.054,7.925,27.136,29.098,7.944,5.604,5.193
1953,0.886,36.09,7.921,27.117,29.085,7.661,5.482,4.99
1954,0.885,36.224,7.933,27.136,29.091,7.78,5.522,5.11
1955,0.879,36.312,7.929,27.126,29.091,7.781,5.563,5.071
1956,0.882,35.929,7.921,27.097,29.088,7.74,5.482,4.948
1957,0.872,36.05,7.905,27.088,29.077,7.699,5.4,4.988
1958,0.879,36.195,7.913,27.126,29.095,7.821,5.521,5.07
1959,0.882,36.273,7.925,27.136,29.095,7.781,5.563,5.152
1960,0.879,35.89,7.929,27.107,29.091,7.7,5.482,4.99
1961,0.879,36.04,7.921,27.126,29.091,7.821,5.603,5.07
1962,0.876,36.157,7.925,27.107,29.088,7.781,5.523,5.07
1963,0.869,36.187,7.917,27.097,29.088,7.659,5.482,4.989
1964,0.866,35.832,7.905,27.088,29.084,7.576,5.4,4.907
1965,0.885,36.011,7.913,27.107,29.084,7.779,5.48,5.028
1966,0.879,36.099,7.925,27.107,29.095,7.74,5.562,5.07
1967,0.885,36.138,7.925,27.116,29.085,7.74,5.482,5.07
1968,0.885,35.822,7.925,27.136,29.091,7.781,5.644,5.07
1969,0.889,35.972,7.929,27.136,29.098,7.74,5.523,5.111
1970,0.882,36.05,7.917,27.107,29.081,7.699,5.522,5.071
1971,0.879,36.09,7.909,27.097,29.081,7.618,5.4,4.948
1972,0.885,35.86,7.921,27.116,29.091,7.698,5.562,5.069
1973,0.879,35.982,7.901,27.097,29.088,7.618,5.523,4.948
1974,0.882,36.098,7.913,27.107,29.088,7.698,5.522,5.069
1975,0.889,35.841,7.925,27.145,29.091,7.658,5.522,5.111
1976,0.892,35.838,7.933,27.155,29.102,7.78,5.685,5.152
1977,0.886,35.934,7.929,27.117,29.081,7.618,5.524,5.071
1978,0.882,36.05,7.917,27.126,29.091,7.576,5.603,5.07
1979,0.882,35.725,7.917,27.117,29.088,7.616,5.604,4.989
1980,0.872,35.808,7.913,27.088,29.077,7.454,5.523,4.988
1981,0.872,35.924,7.917,27.116,29.084,7.452,5.603,4.988
1982,0.882,35.973,7.929,27.107,29.091,7.574,5.564,5.029
1983,0.882,35.609,7.929,27.145,29.105,7.575,5.645,5.192
1984,0.882,35.73,7.929,27.107,29.088,7.494,5.564,5.031
1985,0.892,35.866,7.933,27.126,29.091,7.494,5.726,5.07
1986,0.882,35.953,7.913,27.117,29.091,7.453,5.605,4.989
1987,0.876,35.542,7.897,27.107,29.084,7.33,5.604,4.948
1988,0.879,35.672,7.901,27.088,29.077,7.248,5.482,4.866
1989,0.889,35.836,7.917,27.116,29.088,7.41,5.644,5.109
1990,0.879,35.857,7.913,27.097,29.084,7.289,5.605,5.112
1991,0.879,35.656,7.913,27.126,29.088,7.288,5.645,5.03
1992,0.892,35.807,7.917,27.126,29.091,7.288,5.686,5.111
1993,0.902,35.962,7.917,27.126,29.098,7.288,5.768,5.112
1994,0.882,35.935,7.913,27.107,29.091,7.207,5.647,5.03
1995,0.882,35.59,7.913,27.136,29.091,7.206,5.645,4.989
1996,0.885,35.74,7.925,27.126,29.088,7.206,5.686,5.151
1997,0.876,35.837,7.909,27.097,29.077,7.084,5.646,4.99
1998,0.872,35.752,7.921,27.107,29.088,7.205,5.686,4.988
1999,0.889,35.626,7.933,27.126,29.091,7.165,5.727,5.029
2000,0.882,35.769,7.929,27.155,29.102,7.328,5.85,5.151
2001,0.879,35.837,7.913,27.098,29.085,7.126,5.607,4.99
2002,0.882,35.493,7.921,27.126,29.098,7.205,5.767,4.988
2003,0.872,35.585,7.925,27.126,29.095,7.165,5.687,4.988
2004,0.872,35.711,7.909,27.097,29.085,7.124,5.564,4.948
2005,0.866,35.77,7.913,27.088,29.081,7.083,5.645,4.947
2006,0.879,35.55,7.921,27.116,29.088,7.164,5.686,5.029
2007,0.872,35.691,7.921,27.126,29.095,7.206,5.768,5.151
2008,0.885,35.808,7.94,27.117,29.088,7.043,5.687,5.031
2009,0.876,35.895,7.925,27.126,29.088,7.164,5.687,5.07
2010,0.889,35.446,7.925,27.117,29.095,7.124,5.727,5.07
2011,0.885,35.594,7.917,27.116,29.088,6.961,5.605,4.948
2012,0.895,35.692,7.909,27.088,29.084,6.96,5.564,4.907
2013,0.895,35.779,7.929,27.126,29.095,7.082,5.645,5.028
2014,0.895,35.492,7.921,27.107,29.078,7.042,5.645,5.03
2015,0.902,35.633,7.921,27.126,29.088,6.96,5.727,4.989
2016,0.908,35.759,7.921,27.136,29.098,7.082,5.727,5.151
2017,0.925,35.828,7.948,27.136,29.098,7.083,5.809,5.112
2018,0.918,35.454,7.917,27.107,29.091,7.002,5.606,5.03
2019,0.912,35.604,7.905,27.107,29.081,7.001,5.645,5.03
2020,0.918,35.692,7.925,27.107,29.084,7.001,5.645,5.03
2021,0.922,36.057,7.913,27.097,29.084,7.001,5.645,4.989
2022,0.931,35.351,7.909,27.097,29.084,7.123,5.645,4.988
2023,0.935,35.507,7.933,27.097,29.091,7.165,5.727,5.11
2024,0.948,35.624,7.921,27.145,29.098,7.287,5.768,5.03
2025,0.948,35.347,7.929,27.107,29.088,7.125,5.647,4.989
2026,0.948,35.402,7.909,27.116,29.091,7.205,5.727,5.07
2027,0.954,35.517,7.913,27.126,29.088,7.287,5.687,5.03
2028,0.954,35.595,7.917,27.107,29.088,7.207,5.564,4.989
2029,0.958,35.289,7.913,27.097,29.074,7.206,5.563,4.866
2030,0.964,35.449,7.925,27.126,29.088,7.369,5.726,5.068
2031,0.968,35.556,7.921,27.117,29.091,7.37,5.727,5.152
2032,0.977,35.644,7.913,27.107,29.084,7.411,5.646,5.031
2033,0.974,35.27,7.909,27.126,29.088,7.533,5.686,5.151
2034,0.997,35.449,7.909,27.136,29.102,7.494,5.727,5.071
2035,0.991,35.527,7.917,27.117,29.092,7.453,5.646,5.03
2036,1.004,35.614,7.917,27.116,29.084,7.452,5.645,4.989
2037,1.004,35.222,7.929,27.126,29.091,7.493,5.727,4.988
2038,0.997,35.352,7.929,27.097,29.088,7.453,5.605,4.988
2039,0.997,35.478,7.913,27.107,29.091,7.493,5.686,5.029
2040,0.997,35.556,7.913,27.116,29.095,7.534,5.768,4.989
2041,1.013,35.298,7.921,27.155,29.102,7.657,5.85,5.11
2042,1.01,35.392,7.897,27.107,29.088,7.414,5.688,4.949
2043,1.017,35.546,7.917,27.116,29.091,7.533,5.687,5.069
2044,1.014,35.548,7.925,27.097,29.091,7.534,5.687,4.989
2045,1.014,35.327,7.901,27.097,29.078,7.372,5.605,4.988
2046,1.01,35.43,7.897,27.078,29.088,7.37,5.645,4.988
2047,1.027,35.566,7.921,27.126,29.091,7.573,5.686,5.029
2048,1.04,35.346,7.937,27.126,29.091,7.575,5.727,5.111
2049,1.037,35.162,7.921,27.107,29.084,7.454,5.646,5.03
2050,1.05,35.285,7.933,27.107,29.091,7.452,5.686,5.03
2051,1.037,35.382,7.913,27.116,29.088,7.493,5.687,5.03
2052,1.043,35.22,7.913,27.107,29.084,7.412,5.605,4.989
2053,1.04,35.324,7.913,27.088,29.077,7.371,5.564,4.988
2054,1.04,35.478,7.933,27.126,29.095,7.533,5.685,5.07
2055,1.03,35.547,7.929,27.136,29.095,7.534,5.727,5.111
2056,1.024,34.982,7.925,27.117,29.085,7.412,5.605,5.03
2057,1.03,35.158,7.921,27.116,29.098,7.533,5.686,5.07
2058,1.03,35.285,7.933,27.116,29.098,7.575,5.646,5.07
2059,1.02,35.334,7.925,27.097,29.085,7.535,5.645,4.948
2060,1.023,35.162,7.917,27.097,29.081,7.534,5.564,4.907
2061,1.033,35.304,7.933,27.135,29.091,7.697,5.645,4.987
2062,1.024,35.401,7.933,27.107,29.088,7.618,5.605,4.988
2063,1.04,35.479,7.921,27.116,29.084,7.739,5.645,5.029
2064,1.043,35.087,7.921,27.107,29.095,7.821,5.645,5.151
2065,1.059,35.246,7.937,27.145,29.098,7.903,5.645,5.071
2066,1.037,35.314,7.929,27.088,29.088,7.823,5.605,5.03
2067,1.046,35.363,7.921,27.116,29.084,7.781,5.564,4.907
2068,1.04,35.162,7.917,27.097,29.091,7.944,5.604,4.987
2069,1.033,35.266,7.921,27.097,29.084,7.864,5.645,5.029
2070,1.037,35.401,7.917,27.107,29.091,7.944,5.645,4.989
2071,1.02,35.757,7.933,27.107,29.095,7.986,5.767,5.029
2072,1.033,35.157,7.933,27.145,29.102,8.108,5.768,5.111
2073,1.017,35.237,7.921,27.107,29.085,7.865,5.606,4.949
2074,1.02,35.362,7.909,27.116,29.095,7.944,5.604,5.029
2075,1.014,35.114,7.921,27.126,29.085,7.945,5.726,5.03
2076,1.01,35.169,7.905,27.097,29.081,7.945,5.605,4.989
2077,0.988,35.285,7.905,27.107,29.084,7.945,5.686,4.988
2078,0.987,35.392,7.917,27.107,29.088,8.108,5.646,5.029
2079,0.974,34.99,7.921,27.136,29.102,8.15,5.767,5.07
2080,0.964,35.11,7.921,27.117,29.092,8.11,5.647,4.948
2081,0.958,35.246,7.921,27.126,29.091,8.272,5.686,5.11
2082,0.945,35.324,7.921,27.107,29.088,8.314,5.646,4.989
2083,0.935,34.941,7.917,27.088,29.088,8.356,5.605,4.907
2084,0.909,35.081,7.925,27.078,29.081,8.437,5.564,4.865
2085,0.912,35.217,7.925,27.116,29.088,8.641,5.726,4.987
2086,0.905,35.276,7.921,27.088,29.091,8.684,5.687,4.988
2087,0.908,34.998,7.913,27.097,29.084,8.766,5.646,5.07
2088,0.912,35.149,7.925,27.126,29.091,8.889,5.727,5.03
2089,0.915,35.294,7.937,27.145,29.098,8.93,5.768,5.03
2090,0.902,35.305,7.913,27.107,29.085,8.85,5.687,4.948
2091,0.905,35.046,7.925,27.116,29.091,8.889,5.646,4.988
2092,0.892,35.14,7.921,27.116,29.091,8.93,5.645,5.07
2093,0.895,35.246,7.905,27.107,29.081,8.85,5.605,4.989
2094,0.892,35.286,7.913,27.097,29.091,8.889,5.686,4.988
2095,0.892,35.018,7.929,27.126,29.098,8.971,5.687,5.07
2096,0.886,35.207,7.921,27.164,29.091,9.053,5.768,5.233
2097,0.866,35.256,7.913,27.107,29.084,8.851,5.647,4.95
2098,0.872,35.008,7.921,27.107,29.091,8.808,5.727,5.069
2099,0.863,34.9,7.913,27.107,29.084,8.889,5.687,4.989
2100,0.856,35.014,7.929,27.126,29.084,8.727,5.646,4.988
2101,0.843,35.111,7.909,27.078,29.081,8.603,5.605,4.866
2102,0.856,34.853,7.925,27.107,29.095,8.806,5.686,5.028
2103,0.843,34.984,7.909,27.116,29.095,8.726,5.809,5.07
2104,0.836,35.101,7.921,27.097,29.088,8.685,5.688,4.989
2105,0.839,35.207,7.944,27.126,29.088,8.766,5.768,4.988
2106,0.843,34.815,7.933,27.136,29.091,8.645,5.768,4.988
2107,0.826,34.936,7.909,27.098,29.084,8.562,5.647,4.907
2108,0.83,35.072,7.905,27.088,29.084,8.48,5.645,4.947
2109,0.833,35.14,7.921,27.116,29.088,8.52,5.686,5.069
2110,0.823,34.796,7.917,27.088,29.084,8.479,5.727,5.03
2111,0.83,34.945,7.925,27.116,29.095,8.52,5.687,4.989
2112,0.843,35.091,7.925,27.116,29.095,8.52,5.849,5.07
2113,0.856,35.159,7.929,27.145,29.098,8.601,5.973,5.111
2114,0.84,34.853,7.921,27.098,29.088,8.399,5.771,4.989
2115,0.839,35.004,7.929,27.116,29.091,8.438,5.85,5.029
2116,0.839,35.111,7.921,27.126,29.088,8.397,5.891,5.03
2117,0.83,35.121,7.913,27.088,29.084,8.275,5.77,4.948
2118,0.826,34.757,7.901,27.087,29.084,8.314,5.809,4.947
2119,0.836,34.935,7.913,27.116,29.088,8.396,5.891,5.029
2120,0.833,35.052,7.921,27.126,29.098,8.356,5.973,5.151
2121,0.83,35.236,7.917,27.107,29.088,8.275,5.852,4.949
2122,0.833,34.883,7.936,27.116,29.091,8.274,5.891,5.069
2123,0.83,35.004,7.921,27.107,29.088,8.233,5.933,4.989
2124,0.826,35.101,7.917,27.097,29.084,8.151,5.852,4.907
2125,0.813,34.824,7.917,27.068,29.077,8.11,5.81,4.987
2126,0.826,34.927,7.929,27.116,29.091,8.232,5.932,5.029
2127,0.82,35.033,7.921,27.116,29.088,8.111,5.892,4.989
2128,0.833,35.13,7.921,27.107,29.088,8.15,5.933,4.988
2129,0.839,34.719,7.921,27.116,29.091,8.11,6.014,5.029
2130,0.839,34.887,7.937,27.136,29.088,8.109,6.015,5.07
2131,0.833,34.966,7.925,27.117,29.088,7.947,5.893,4.989
2132,0.826,35.062,7.921,27.107,29.081,7.986,5.933,4.948
2133,0.83,34.785,7.929,27.107,29.084,8.068,5.974,5.029
2134,0.826,34.907,7.913,27.107,29.084,7.946,5.933,5.03
2135,0.826,35.052,7.925,27.136,29.088,7.986,5.892,5.07
2136,0.83,35.121,7.921,27.136,29.091,7.946,6.014,5.111
2137,0.839,34.747,7.925,27.145,29.102,8.067,6.056,5.193
2138,0.826,34.849,7.913,27.098,29.085,7.865,5.934,4.95
2139,0.833,34.975,7.917,27.126,29.088,7.904,6.014,4.988
2140,0.826,35.024,7.921,27.107,29.091,7.904,5.974,5.07
2141,0.813,34.775,7.909,27.097,29.084,7.782,5.933,4.948
2142,0.81,34.907,7.905,27.097,29.084,7.781,5.933,5.029
2143,0.829,35.043,7.917,27.126,29.098,7.862,6.014,5.07
2144,0.833,35.053,7.929,27.126,29.091,7.985,6.096,5.07
2145,0.826,34.67,7.917,27.107,29.088,7.783,5.975,4.908
2146,0.833,34.81,7.936,27.116,29.084,7.862,6.096,4.987
2147,0.826,34.898,7.921,27.097,29.095,7.863,6.016,5.029
2148,0.82,34.716,7.917,27.107,29.085,7.7,6.015,4.948
2149,0.823,34.686,7.909,27.097,29.077,7.618,5.974,4.947
2150,0.833,34.829,7.921,27.107,29.095,7.698,6.096,5.029
2151,0.83,34.946,7.933,27.126,29.088,7.699,6.097,5.111
2152,0.839,34.631,7.917,27.117,29.088,7.658,6.016,4.989
2153,0.843,34.771,7.921,27.126,29.091,7.617,6.056,5.07
2154,0.843,34.897,7.913,27.117,29.095,7.617,5.975,5.07
2155,0.836,34.956,7.913,27.107,29.085,7.535,5.974,4.948
2156,0.83,34.564,7.909,27.097,29.084,7.534,5.893,4.988
2157,0.843,34.732,7.929,27.135,29.088,7.534,6.054,5.07
2158,0.83,34.83,7.917,27.117,29.084,7.453,5.934,4.948
2159,0.83,34.927,7.921,27.107,29.091,7.452,5.974,5.029
2160,0.836,34.659,7.925,27.126,29.091,7.452,6.015,5.07
2161,0.852,34.848,7.933,27.145,29.098,7.574,6.137,5.07
2162,0.833,34.908,7.902,27.098,29.085,7.372,5.894,4.989
2163,0.833,34.975,7.925,27.107,29.091,7.411,5.973,4.988
2164,0.846,34.573,7.921,27.107,29.081,7.371,5.933,4.988
2165,0.83,34.684,7.913,27.097,29.088,7.37,5.892,4.907
2166,0.833,34.801,7.913,27.107,29.081,7.37,5.933,5.028
2167,0.859,34.878,7.921,27.107,29.091,7.452,6.014,5.111
2168,0.882,34.774,7.917,27.136,29.091,7.534,6.096,5.152
2169,0.889,34.859,7.921,27.107,29.088,7.291,5.975,4.99
2170,0.902,34.994,7.952,27.126,29.095,7.41,5.974,5.11
2171,0.931,34.89,7.913,27.126,29.091,7.452,6.015,4.989
2172,0.957,34.448,7.921,27.107,29.084,7.371,5.893,4.948
2173,0.977,34.558,7.905,27.097,29.077,7.33,5.892,4.988
2174,1.013,34.694,7.905,27.126,29.091,7.41,6.014,5.11
2175,1.043,34.657,7.901,27.145,29.091,7.533,6.056,5.152
2176,1.066,34.743,7.913,27.117,29.088,7.372,5.975,5.031
2177,1.092,34.897,7.921,27.126,29.095,7.37,6.015,5.111
2178,1.102,34.985,7.897,27.097,29.095,7.37,5.974,5.071
2179,1.112,34.449,7.886,27.107,29.088,7.33,5.893,4.948
2180,1.128,34.597,7.905,27.088,29.081,7.207,5.77,4.947
2181,1.161,34.723,7.921,27.116,29.091,7.369,5.972,5.069
2182,1.168,34.801,7.913,27.097,29.084,7.33,5.974,4.989
2183,1.155,34.581,7.905,27.097,29.088,7.207,5.933,4.907
2184,1.161,34.742,7.909,27.126,29.095,7.287,5.974,5.028
2185,1.178,34.897,7.936,27.126,29.098,7.288,5.974,5.111
2186,1.181,34.899,7.925,27.097,29.085,7.125,5.933,4.949
2187,1.165,34.573,7.929,27.097,29.084,7.165,5.852,4.907
2188,1.148,34.723,7.921,27.126,29.091,7.165,5.932,4.987
2189,1.093,34.83,7.921,27.088,29.078,7.124,5.892,4.988
