time,ecg,bvp,gsr,rsp,skt,emg_zygo,emg_coru,emg_trap
0,0.892,36.951,13.026,37.725,22.262,4.987,10.656,12.629
1,0.882,36.981,13.03,37.696,22.252,4.826,10.452,12.342
2,0.879,36.262,13.058,37.696,22.262,4.905,10.491,12.217
3,0.872,36.408,13.042,37.687,22.259,4.825,10.288,11.972
4,0.872,36.553,13.038,37.734,22.269,5.027,10.327,11.889
5,0.879,36.632,12.995,37.716,22.262,4.948,10.246,11.725
6,0.882,36.872,12.964,37.706,22.262,4.988,10.204,11.601
7,0.882,37.038,12.999,37.677,22.259,4.948,10.123,11.397
8,0.872,37.116,13.03,37.677,22.248,4.866,10.081,11.232
9,0.895,37.213,13.034,37.705,22.269,5.028,10.081,11.231
10,0.895,36.715,12.98,37.696,22.255,4.948,10.04,11.149
11,0.899,36.902,12.995,37.754,22.273,5.069,10.121,11.108
12,0.882,36.971,12.979,37.668,22.252,4.948,9.837,10.823
13,0.889,36.991,12.96,37.686,22.262,4.907,9.753,10.739
14,0.895,36.952,13.014,37.677,22.262,4.987,9.752,10.657
15,0.889,37.096,13.022,37.696,22.269,4.988,9.712,10.737
16,0.892,37.203,13.066,37.706,22.262,5.029,9.63,10.657
17,0.869,37.213,12.968,37.667,22.259,4.907,9.548,10.452
18,0.872,36.84,12.979,37.677,22.255,4.987,9.588,10.491
19,0.872,36.96,12.999,37.667,22.252,4.988,9.507,10.288
20,0.872,37.077,13.054,37.686,22.259,4.988,9.587,10.327
21,0.872,36.934,13.042,37.658,22.259,4.948,9.507,10.286
22,0.853,36.904,13.054,37.648,22.262,4.907,9.465,10.164
23,0.853,37.047,13.023,37.676,22.259,4.987,9.465,10.082
24,0.84,37.145,12.984,37.638,22.252,4.948,9.262,9.999
25,0.859,36.925,12.952,37.667,22.269,5.069,9.422,9.999
26,0.872,37.028,12.971,37.657,22.262,4.989,9.342,9.917
27,0.853,37.154,13.034,37.657,22.269,4.988,9.464,9.916
28,0.866,37.213,13.019,37.648,22.262,4.907,9.424,9.754
29,0.859,36.945,12.929,37.638,22.255,4.987,9.546,9.712
30,0.869,37.115,12.971,37.667,22.262,5.029,9.628,9.752
31,0.863,37.222,12.964,37.648,22.259,5.03,9.792,9.671
32,0.872,37.319,12.999,37.676,22.273,5.111,10.037,9.711
33,0.859,36.927,13.018,37.629,22.255,4.908,9.918,9.467
34,0.859,37.067,13.054,37.648,22.259,4.987,10.161,9.505
35,0.856,37.193,13.07,37.667,22.262,5.029,10.326,9.587
36,0.84,37.28,13.023,37.657,22.262,4.948,10.53,9.71
37,0.862,36.955,13.023,37.677,22.273,5.15,10.777,9.914
38,0.846,37.057,12.98,37.629,22.259,4.868,10.738,9.835
39,0.84,37.174,13.022,37.638,22.262,4.946,10.86,10.038
40,0.839,37.232,13.054,37.638,22.259,4.988,10.902,10.202
41,0.839,36.984,13.011,37.638,22.266,4.988,11.024,10.57
42,0.846,37.154,12.98,37.657,22.266,4.988,11.107,10.777
43,0.817,37.232,12.94,37.609,22.252,4.907,11.026,10.982
44,0.836,37.271,12.924,37.638,22.259,4.947,11.066,11.309
45,0.826,37.032,12.971,37.619,22.259,4.907,11.026,11.394
46,0.826,37.192,12.987,37.638,22.262,4.947,11.147,11.883
47,0.83,37.29,13.046,37.638,22.259,5.029,11.026,12.01
48,0.83,37.569,12.972,37.619,22.255,4.907,10.985,12.174
49,0.833,36.997,12.991,37.609,22.259,4.906,10.944,12.216
50,0.823,37.115,12.952,37.619,22.248,4.784,10.781,12.298
51,0.83,37.251,12.987,37.638,22.269,5.027,10.942,12.38
52,0.82,36.984,13.026,37.638,22.266,4.948,10.862,12.381
53,0.83,37.0,13.03,37.619,22.266,4.947,10.861,12.381
54,0.82,37.125,13.073,37.628,22.259,4.907,10.739,12.218
55,0.82,37.213,13.046,37.628,22.255,4.947,10.657,12.176
56,0.813,36.84,13.015,37.676,22.262,4.988,10.737,12.175
57,0.807,36.941,12.98,37.61,22.262,4.948,10.738,12.053
58,0.813,37.086,13.007,37.638,22.269,5.11,10.779,12.093
59,0.79,37.136,13.046,37.6,22.262,4.908,10.616,11.727
60,0.797,36.81,13.019,37.609,22.266,4.906,10.615,11.683
61,0.79,36.989,12.944,37.619,22.262,4.987,10.696,11.56
62,0.79,37.106,12.92,37.609,22.269,5.029,10.697,11.519
63,0.81,37.203,12.998,37.647,22.273,5.111,10.859,11.64
64,0.803,36.82,12.976,37.6,22.255,4.908,10.82,11.641
65,0.81,36.96,12.944,37.599,22.259,4.987,10.983,12.048
66,0.81,37.096,13.033,37.599,22.255,4.866,10.944,12.296
67,0.81,37.145,13.019,37.609,22.259,4.987,11.187,12.827
68,0.803,37.002,12.96,37.638,22.269,5.029,11.23,13.117
69,0.81,37.087,12.963,37.6,22.259,4.948,11.231,13.445
70,0.813,37.222,12.999,37.599,22.255,4.947,11.271,13.611
71,0.807,37.262,13.03,37.561,22.255,4.825,11.069,13.857
72,0.826,36.782,13.062,37.618,22.262,4.987,11.31,14.062
73,0.813,36.912,13.05,37.59,22.262,4.988,11.232,14.227
74,0.797,37.047,13.042,37.59,22.262,4.988,11.312,14.798
75,0.807,37.039,12.984,37.57,22.255,4.907,11.11,15.657
76,0.807,36.867,12.956,37.561,22.255,4.906,11.189,17.008
77,0.813,37.028,13.006,37.58,22.262,5.028,11.23,18.526
78,0.803,37.125,13.019,37.58,22.266,4.989,11.231,19.76
79,0.813,37.165,13.034,37.59,22.273,5.07,11.434,20.83
80,0.8,36.772,12.98,37.561,22.259,4.908,11.233,21.41
81,0.777,36.921,12.94,37.57,22.259,4.906,11.393,21.944
82,0.787,37.038,12.975,37.58,22.262,5.028,11.476,22.356
83,0.787,36.79,12.979,37.59,22.266,4.907,11.64,22.563
84,0.813,36.893,12.987,37.599,22.276,5.109,11.845,22.688
85,0.8,36.951,13.014,37.542,22.255,4.827,12.009,22.323
86,0.813,37.057,13.058,37.541,22.259,4.946,12.255,22.156
87,0.816,36.752,12.999,37.551,22.262,4.947,12.542,21.83
88,0.826,36.873,13.007,37.56,22.266,4.907,12.829,21.542
89,0.83,37.018,13.007,37.561,22.262,4.987,12.954,21.092
90,0.813,37.068,13.034,37.532,22.255,4.907,13.078,20.599
91,0.823,36.761,13.073,37.522,22.262,4.947,13.119,20.269
92,0.82,36.873,13.039,37.541,22.252,4.866,13.201,19.778
93,0.826,37.018,13.058,37.522,22.262,4.906,13.446,19.529
94,0.823,37.097,13.027,37.541,22.259,4.987,13.57,19.364
95,0.817,36.647,12.941,37.512,22.259,4.948,13.694,19.159
96,0.823,36.805,12.963,37.522,22.259,4.988,13.776,18.791
97,0.804,36.903,12.999,37.512,22.259,4.866,13.858,18.706
98,0.82,36.999,13.054,37.541,22.269,4.946,14.022,18.583
99,0.813,36.694,12.984,37.512,22.262,4.988,14.105,18.297
100,0.807,36.844,12.956,37.541,22.273,5.029,14.187,18.172
101,0.803,36.941,12.971,37.493,22.255,4.907,14.147,17.805
102,0.8,37.009,12.967,37.512,22.262,4.947,14.228,17.476
103,0.807,36.722,13.022,37.522,22.262,5.069,14.351,17.188
104,0.816,36.863,13.007,37.503,22.266,4.989,14.393,16.901
105,0.826,36.999,13.069,37.522,22.262,5.07,14.434,16.573
106,0.813,36.962,13.027,37.464,22.262,4.989,14.312,16.204
107,0.81,36.645,13.023,37.56,22.262,4.988,14.351,15.997
108,0.816,36.786,12.984,37.474,22.255,4.907,14.23,15.751
109,0.829,36.912,13.022,37.502,22.269,5.028,14.228,15.748
110,0.817,36.865,13.081,37.503,22.262,5.03,14.107,15.626
111,0.82,36.731,13.062,37.503,22.266,4.989,14.065,15.503
112,0.817,36.854,13.05,37.493,22.255,4.988,13.861,15.502
113,0.813,36.932,12.992,37.464,22.255,4.907,13.696,15.38
114,0.823,36.645,12.991,37.483,22.262,5.069,13.654,15.501
115,0.81,36.719,12.964,37.493,22.259,4.989,13.45,15.38
116,0.816,36.835,12.975,37.502,22.266,5.151,13.448,15.338
117,0.81,36.912,13.014,37.464,22.255,4.909,13.082,15.053
118,0.803,36.587,12.995,37.464,22.259,4.987,12.957,15.05
119,0.8,36.737,12.925,37.483,22.266,4.988,12.874,14.969
120,0.807,36.873,12.967,37.464,22.255,4.988,12.629,14.724
121,0.81,36.97,12.999,37.483,22.276,5.11,12.586,14.681
122,0.797,36.588,12.999,37.426,22.252,4.908,12.342,14.355
123,0.794,36.737,13.018,37.444,22.262,4.906,12.258,14.23
124,0.806,36.873,13.046,37.454,22.259,4.987,12.135,14.025
125,0.797,36.951,13.054,37.464,22.262,5.029,12.012,13.901
126,0.813,36.588,13.003,37.464,22.262,4.989,11.889,13.737
127,0.8,36.718,12.987,37.416,22.255,4.907,11.644,13.492
128,0.82,36.844,13.007,37.425,22.262,4.947,11.682,13.245
129,0.813,36.893,13.038,37.425,22.255,4.907,11.52,12.999
130,0.826,36.606,13.058,37.444,22.269,4.987,11.477,12.875
131,0.826,36.766,13.003,37.435,22.262,4.988,11.314,12.711
132,0.826,36.845,12.948,37.416,22.262,4.948,11.191,12.546
133,0.836,36.884,12.928,37.435,22.259,4.947,11.027,12.22
134,0.823,36.52,12.979,37.425,22.248,4.866,10.903,12.135
135,0.833,36.698,12.983,37.435,22.272,4.946,10.943,12.053
136,0.82,36.806,12.999,37.435,22.262,5.029,10.862,11.849
137,0.82,36.816,13.054,37.416,22.262,5.111,10.82,11.806
138,0.82,36.605,12.933,37.406,22.255,4.908,10.576,11.521
139,0.817,36.766,12.955,37.387,22.262,4.947,10.533,11.396
140,0.816,36.902,12.991,37.425,22.266,5.029,10.573,11.314
141,0.823,36.683,13.011,37.387,22.262,4.989,10.451,11.11
142,0.833,36.575,13.038,37.444,22.276,5.11,10.491,11.148
143,0.807,36.689,13.034,37.397,22.255,4.949,10.247,10.823
144,0.816,36.796,13.073,37.386,22.262,4.907,10.204,10.82
145,0.8,36.624,13.027,37.386,22.262,5.028,10.163,10.657
146,0.826,36.738,13.027,37.396,22.269,5.07,10.163,10.615
147,0.833,36.883,13.003,37.415,22.266,5.03,10.163,10.533
148,0.82,36.923,13.015,37.367,22.255,4.907,10.122,10.288
149,0.833,36.52,13.062,37.367,22.259,4.987,10.244,10.327
150,0.826,36.67,12.992,37.357,22.255,4.948,10.082,10.083
151,0.826,36.805,12.96,37.376,22.255,5.029,10.243,10.121
152,0.81,36.864,12.956,37.386,22.252,4.989,10.164,10.122
153,0.829,36.491,12.975,37.444,22.259,4.907,10.204,10.284
154,0.817,36.631,12.956,37.368,22.255,5.028,10.245,10.327
155,0.803,36.728,12.987,37.338,22.248,4.907,10.164,10.327
156,0.803,36.825,13.05,37.367,22.266,5.069,10.407,10.571
157,0.813,36.395,13.007,37.357,22.262,5.03,10.409,10.655
158,0.826,36.534,12.999,37.376,22.269,5.03,10.613,10.981
159,0.804,36.651,12.964,37.329,22.259,5.03,10.615,11.025
160,0.79,36.719,13.002,37.338,22.262,4.989,10.696,11.31
161,0.8,36.585,13.085,37.348,22.269,5.07,10.9,11.638
162,0.79,36.699,13.047,37.357,22.259,5.07,10.902,11.763
163,0.816,36.825,13.054,37.386,22.273,5.233,11.105,12.09
164,0.807,36.855,13.031,37.319,22.252,4.95,10.904,12.012
165,0.787,36.414,12.906,37.338,22.262,4.988,11.065,12.133
166,0.8,36.563,12.975,37.357,22.259,5.029,11.066,12.256
167,0.807,36.699,13.01,37.319,22.262,5.03,11.188,12.257
168,0.81,36.71,13.073,37.357,22.262,5.03,11.149,12.217
169,0.807,36.499,13.004,37.309,22.255,4.948,11.026,12.176
170,0.813,36.65,12.956,37.319,22.259,5.069,11.066,12.135
171,0.82,36.757,12.983,37.319,22.262,4.908,10.985,12.012
172,0.813,36.567,12.96,37.319,22.262,5.069,11.066,11.97
173,0.829,36.565,12.979,37.309,22.259,4.989,11.066,11.97
174,0.826,36.68,12.964,37.328,22.259,4.948,11.026,11.929
175,0.81,36.767,12.991,37.29,22.252,5.029,10.985,12.051
176,0.8,36.356,13.003,37.27,22.245,4.907,10.944,12.459
177,0.81,36.514,12.972,37.328,22.276,5.109,11.065,13.195
178,0.8,36.631,12.975,37.3,22.259,5.112,11.066,13.934
179,0.807,36.738,12.999,37.299,22.266,5.112,11.148,14.592
180,0.79,36.298,13.054,37.28,22.248,4.908,10.945,15.208
181,0.784,36.437,13.07,37.28,22.262,5.028,11.024,16.515
182,0.793,36.592,13.07,37.309,22.266,5.111,10.944,17.992
183,0.797,36.661,13.05,37.299,22.259,5.03,10.902,19.47
184,0.81,36.259,13.011,37.338,22.269,5.192,10.983,20.868
185,0.777,36.36,12.819,37.29,22.259,4.99,10.74,21.613
186,0.803,36.515,12.958,37.29,22.259,5.07,10.738,22.434
187,0.8,36.583,13.006,37.27,22.259,5.03,10.657,22.971
188,0.803,36.469,13.026,37.27,22.262,5.151,10.737,23.301
189,0.807,36.631,12.968,37.299,22.269,5.112,10.657,23.305
190,0.81,36.728,12.967,37.261,22.255,4.908,10.574,23.183
191,0.813,36.787,12.975,37.27,22.262,4.947,10.574,22.978
192,0.826,36.308,12.979,37.251,22.252,4.947,10.574,22.57
193,0.82,36.466,13.014,37.28,22.262,5.069,10.696,22.403
194,0.797,36.573,13.007,37.261,22.262,5.07,10.656,21.873
195,0.803,36.603,13.065,37.261,22.259,5.03,10.696,21.542
196,0.8,36.287,13.007,37.251,22.255,4.989,10.737,21.01
197,0.794,36.399,12.979,37.241,22.252,4.948,10.779,20.558
198,0.803,36.572,12.987,37.27,22.262,5.11,10.982,20.228
199,0.79,36.862,13.034,37.261,22.259,5.03,11.025,19.818
200,0.797,36.347,13.077,37.261,22.262,5.111,11.229,19.692
201,0.79,36.476,13.054,37.251,22.255,5.03,11.231,19.609
202,0.78,36.592,12.999,37.26,22.262,4.989,11.393,20.096
203,0.787,36.527,12.983,37.251,22.262,5.151,11.436,20.589
204,0.787,36.574,12.932,37.26,22.266,5.031,11.517,21.123
205,0.797,36.728,12.951,37.289,22.273,5.111,11.599,21.535
206,0.774,36.787,12.971,37.213,22.255,4.949,11.478,21.905
207,0.78,36.26,13.042,37.231,22.259,4.988,11.64,22.64
208,0.793,36.379,13.034,37.222,22.255,4.988,11.601,23.379
209,0.803,36.505,12.956,37.26,22.269,5.029,11.682,24.363
210,0.8,36.612,12.987,37.232,22.269,5.03,11.723,24.901
211,0.8,36.335,12.983,37.212,22.259,4.989,11.723,25.435
212,0.807,36.457,12.999,37.203,22.255,4.988,11.764,25.643
213,0.797,36.564,13.018,37.193,22.248,4.907,11.724,25.605
214,0.797,36.67,13.054,37.222,22.266,4.987,11.968,25.605
215,0.79,36.364,13.031,37.212,22.262,5.07,11.889,25.238
216,0.784,36.505,12.976,37.231,22.269,5.03,11.969,24.95
217,0.774,36.641,12.999,37.203,22.255,4.989,11.889,24.337
218,0.774,36.69,13.018,37.212,22.255,5.07,11.806,23.843
219,0.774,36.374,13.062,37.203,22.266,5.03,11.846,23.269
220,0.774,36.515,13.062,37.202,22.269,5.03,11.765,22.654
221,0.774,36.679,13.015,37.231,22.269,5.111,11.887,22.119
222,0.767,36.69,12.956,37.193,22.252,4.908,11.563,21.3
223,0.767,36.355,12.913,37.193,22.262,4.987,11.559,20.804
224,0.77,36.505,12.975,37.289,22.262,4.988,11.519,20.352
225,0.754,36.631,12.936,37.194,22.269,5.029,11.518,19.901
226,0.787,36.68,13.014,37.222,22.273,5.07,11.396,19.327
227,0.774,36.345,13.03,37.155,22.259,4.908,11.314,18.874
228,0.787,36.514,12.948,37.192,22.259,4.947,11.394,18.625
229,0.777,36.631,12.967,37.193,22.252,4.907,11.314,18.216
230,0.784,36.728,12.979,37.193,22.266,5.028,11.394,18.009
231,0.78,36.413,13.01,37.183,22.255,4.989,11.314,17.641
232,0.78,36.525,13.026,37.173,22.262,4.988,11.313,17.271
233,0.78,36.631,13.069,37.154,22.255,4.907,11.232,16.902
234,0.774,36.345,13.046,37.135,22.248,4.906,11.109,16.573
235,0.8,36.419,13.015,37.192,22.262,4.987,11.23,16.407
236,0.784,36.553,12.995,37.164,22.266,4.988,11.068,15.999
237,0.78,36.67,12.999,37.192,22.273,5.11,11.229,15.751
238,0.761,36.316,13.022,37.145,22.252,4.908,10.946,15.301
239,0.764,36.447,13.038,37.164,22.255,5.028,10.943,15.012
240,0.77,36.592,12.995,37.173,22.262,4.989,10.943,14.765
241,0.761,36.699,12.944,37.173,22.262,5.029,10.943,14.518
242,0.774,36.336,12.979,37.212,22.269,5.03,10.984,14.272
243,0.751,36.428,12.948,37.212,22.255,4.948,10.781,13.945
244,0.764,36.563,12.967,37.164,22.262,4.947,10.779,13.738
245,0.757,36.66,13.026,37.145,22.259,4.907,10.698,13.411
246,0.764,36.374,13.05,37.144,22.262,5.028,10.737,13.285
247,0.767,36.505,13.007,37.135,22.259,4.907,10.657,13.121
248,0.767,36.612,13.003,37.135,22.252,4.947,10.696,12.835
249,0.774,36.69,12.964,37.135,22.255,4.988,10.575,12.588
250,0.774,36.441,13.018,37.106,22.248,4.907,10.451,12.301
251,0.774,36.63,13.058,37.144,22.269,5.069,10.572,12.258
252,0.777,36.719,13.058,37.135,22.266,4.989,10.451,12.176
253,0.784,36.748,13.042,37.125,22.269,5.029,10.41,12.013
254,0.761,36.25,13.042,37.135,22.259,4.907,10.206,11.686
255,0.754,36.37,12.906,37.125,22.259,4.947,10.245,11.56
256,0.77,36.543,12.955,37.144,22.269,4.988,10.164,11.437
257,0.774,36.555,13.002,37.125,22.262,4.988,10.041,11.273
258,0.774,36.421,13.061,37.163,22.273,5.151,10.202,11.272
259,0.767,36.515,13.003,37.106,22.259,4.949,9.919,10.906
260,0.754,36.65,12.937,37.125,22.255,4.947,9.916,10.821
261,0.764,36.575,12.99,37.135,22.262,5.029,9.957,10.657
262,0.761,36.344,12.999,37.116,22.269,5.07,9.754,10.656
263,0.78,36.534,13.018,37.144,22.266,5.07,9.833,10.574
264,0.764,36.545,12.999,37.106,22.255,4.908,9.672,10.248
265,0.757,36.421,13.116,37.106,22.262,5.028,9.589,10.245
266,0.767,36.496,13.059,37.096,22.252,4.948,9.507,10.123
267,0.77,36.66,12.98,37.096,22.266,5.029,9.668,10.163
268,0.774,36.748,12.999,37.106,22.262,4.989,9.589,10.082
269,0.774,36.346,13.011,37.096,22.259,4.988,9.547,10.121
270,0.777,36.476,13.046,37.106,22.259,4.948,9.466,10.0
271,0.771,36.602,13.042,37.067,22.255,4.907,9.424,9.999
272,0.79,36.709,13.058,37.115,22.269,5.069,9.586,10.121
273,0.774,36.288,13.054,37.087,22.262,5.03,9.669,10.122
274,0.767,36.447,13.007,37.115,22.262,5.07,9.751,10.244
275,0.761,36.573,12.999,37.154,22.255,4.989,9.833,10.082
276,0.751,36.632,12.972,37.077,22.259,4.988,9.875,10.284
277,0.77,35.932,13.014,37.096,22.266,5.151,9.957,10.489
278,0.783,36.06,13.03,37.086,22.259,4.99,10.08,10.735
279,0.784,36.214,12.976,37.115,22.273,5.192,10.284,10.982
280,0.771,36.264,12.971,37.077,22.262,4.99,10.123,11.025
281,0.777,36.571,12.991,37.077,22.255,4.948,10.244,11.269
282,0.79,36.728,13.007,37.077,22.259,5.029,10.286,11.434
283,0.81,36.835,13.034,37.077,22.255,5.03,10.367,11.558
284,0.839,36.903,13.093,37.105,22.276,5.111,10.449,11.803
285,0.82,36.357,13.097,37.058,22.259,4.908,10.328,11.765
286,0.833,36.514,12.996,37.076,22.255,4.987,10.327,11.927
287,0.843,36.631,12.991,37.077,22.262,5.029,10.368,11.97
288,0.856,36.642,13.003,37.077,22.266,5.111,10.49,11.97
289,0.866,36.479,13.042,37.077,22.259,4.989,10.41,12.011
290,0.869,36.583,13.07,37.057,22.255,5.07,10.409,12.052
291,0.892,36.689,13.043,37.067,22.255,5.03,10.328,12.011
292,0.879,36.566,12.976,37.048,22.248,4.948,10.246,11.848
293,0.905,36.488,12.964,37.057,22.272,5.029,10.367,12.009
294,0.915,36.612,12.932,37.067,22.259,4.989,10.287,11.93
295,0.892,36.709,12.92,37.048,22.255,5.029,10.327,12.051
296,0.886,36.422,12.998,37.048,22.259,4.948,10.246,12.296
297,0.846,36.477,13.03,37.0,22.245,4.866,10.123,12.746
298,0.849,36.65,13.007,37.076,22.266,5.028,10.203,13.482
299,0.846,36.748,12.999,37.038,22.266,5.07,10.041,14.059
300,0.856,36.279,12.96,37.057,22.266,5.07,10.202,14.796
301,0.843,36.418,12.999,37.048,22.252,4.948,9.96,15.454
302,0.826,36.525,13.03,37.038,22.259,4.988,9.998,16.762
303,0.826,36.631,13.05,37.067,22.269,5.11,9.999,18.442
304,0.813,36.46,13.054,37.029,22.259,4.989,9.917,20.085
305,0.839,36.64,13.046,37.076,22.276,5.151,9.998,21.606
306,0.856,36.728,12.941,37.029,22.255,4.909,9.755,22.597
307,0.866,36.806,12.971,37.019,22.262,4.987,9.752,23.582
308,0.882,36.423,13.018,37.028,22.259,4.866,9.671,24.121
309,0.918,36.573,13.062,37.047,22.259,5.109,9.751,24.533
310,0.918,36.68,13.062,37.048,22.269,5.03,9.671,24.781
311,0.915,36.729,12.988,37.028,22.266,4.989,9.589,24.702
312,0.912,36.422,12.944,37.019,22.255,4.988,9.588,24.416
313,0.895,36.544,12.912,36.999,22.248,4.866,9.547,24.129
314,0.895,36.699,12.99,37.057,22.269,5.109,9.547,23.841
315,0.886,36.719,12.952,37.0,22.262,4.989,9.588,23.391
316,0.859,36.422,13.049,37.038,22.269,5.07,9.669,23.102
317,0.849,36.534,13.027,37.009,22.262,4.989,9.507,22.449
318,0.836,36.641,12.921,37.009,22.255,4.948,9.465,22.076
319,0.856,36.68,12.994,37.018,22.262,5.069,9.505,21.585
320,0.84,36.451,12.991,37.009,22.266,5.111,9.425,21.173
321,0.839,36.611,13.038,37.047,22.269,5.193,9.627,20.966
322,0.833,36.68,13.054,37.0,22.252,5.031,9.385,20.435
323,0.833,36.566,13.066,36.999,22.259,5.07,9.423,20.145
324,0.852,36.545,13.058,36.999,22.259,5.03,9.464,19.858
325,0.846,36.689,12.976,36.999,22.262,4.989,9.587,19.692
326,0.846,36.825,12.999,37.038,22.269,5.11,9.71,19.447
327,0.827,36.318,12.987,36.99,22.255,4.908,9.589,19.078
328,0.833,36.409,13.042,36.98,22.262,5.028,9.71,18.749
329,0.817,36.534,13.042,36.999,22.262,4.989,9.63,18.421
330,0.813,36.67,12.984,37.009,22.266,5.07,9.832,18.214
331,0.839,36.46,12.995,37.028,22.259,5.07,9.834,17.806
332,0.82,36.554,12.968,36.99,22.259,4.908,9.794,17.395
333,0.813,36.699,12.975,36.98,22.259,4.947,9.834,17.147
334,0.807,36.758,12.967,36.941,22.252,4.907,9.753,16.697
335,0.803,36.356,12.983,36.999,22.262,5.069,10.077,16.489
336,0.794,36.476,13.069,36.99,22.262,4.948,10.081,16.203
337,0.81,36.612,12.992,36.98,22.266,5.029,10.162,16.159
338,0.8,36.671,13.011,36.97,22.262,4.907,10.244,15.996
339,0.794,36.403,12.999,36.97,22.259,4.947,10.367,15.954
340,0.787,36.582,13.05,36.97,22.266,5.029,10.49,16.035
341,0.79,36.67,13.07,36.961,22.259,5.111,10.491,16.117
342,0.793,36.748,13.062,36.999,22.273,5.152,10.735,16.565
343,0.803,36.375,13.015,36.951,22.255,5.031,10.657,16.976
344,0.816,36.515,12.999,36.96,22.262,4.989,10.778,17.509
345,0.813,36.67,12.882,36.98,22.266,4.988,10.982,18.002
346,0.813,36.7,12.955,36.961,22.266,4.948,10.984,18.454
347,0.82,36.297,13.038,37.008,22.269,5.11,11.187,18.703
348,0.794,36.408,13.05,36.942,22.255,4.989,10.946,18.786
349,0.8,36.534,12.968,36.97,22.259,5.029,11.065,18.909
350,0.807,36.862,12.987,36.97,22.262,4.948,10.985,18.788
351,0.803,36.462,12.983,36.961,22.269,5.029,11.066,18.828
352,0.803,36.611,13.018,36.951,22.262,5.111,10.944,18.584
353,0.777,36.68,13.019,36.951,22.262,4.949,10.902,18.338
354,0.774,36.403,13.042,36.941,22.255,4.988,10.902,18.132
355,0.774,36.371,13.093,36.932,22.255,4.907,10.739,17.845
356,0.771,36.505,13.047,36.96,22.262,5.069,10.86,17.68
357,0.767,36.621,13.015,36.941,22.259,5.03,10.82,17.434
358,0.735,36.201,12.995,36.922,22.255,4.907,10.779,17.107
359,0.738,36.331,13.014,36.941,22.262,4.947,10.738,16.737
360,0.718,36.457,13.038,36.912,22.248,4.907,10.616,16.368
361,0.721,36.564,13.034,36.941,22.266,5.069,10.859,16.202
362,0.718,36.306,12.995,36.951,22.262,5.07,10.78,15.956
363,0.728,36.447,12.972,36.922,22.259,5.03,10.82,15.709
364,0.728,36.563,12.96,36.931,22.252,4.989,10.739,15.382
365,0.721,36.632,12.975,36.922,22.252,4.907,10.616,15.175
366,0.741,36.258,12.987,36.931,22.269,5.109,10.737,15.011
367,0.741,36.389,13.061,36.922,22.259,4.989,10.697,14.765
368,0.744,36.544,13.019,36.96,22.269,5.11,10.737,14.6
369,0.747,36.584,12.894,36.951,22.259,4.989,10.575,14.273
370,0.747,36.325,12.971,36.912,22.266,4.988,10.533,14.066
371,0.747,36.476,12.987,36.941,22.266,5.07,10.614,13.902
372,0.747,36.583,13.018,36.922,22.262,5.07,10.574,13.615
373,0.757,36.641,13.054,36.96,22.266,5.111,10.614,13.409
374,0.738,36.278,13.062,36.913,22.259,4.908,10.411,13.082
375,0.754,36.437,13.101,36.922,22.259,4.987,10.491,12.876
376,0.757,36.563,12.996,36.941,22.259,5.029,10.41,12.629
377,0.741,36.593,12.995,36.922,22.266,4.989,10.409,12.586
378,0.751,36.287,13.018,36.931,22.269,5.029,10.409,12.301
379,0.725,36.37,13.054,36.912,22.255,4.948,10.409,12.054
380,0.728,36.486,13.031,36.883,22.259,4.947,10.613,11.971
381,0.734,36.688,12.991,36.883,22.248,4.988,10.655,11.726
382,0.738,36.317,12.972,36.931,22.262,5.029,11.022,11.886
383,0.738,36.457,12.936,36.922,22.259,5.03,11.147,11.766
384,0.738,36.583,12.944,36.931,22.255,4.989,11.271,11.561
385,0.734,36.277,12.948,36.903,22.262,4.907,11.353,11.397
386,0.721,36.293,12.983,36.883,22.255,4.947,11.476,11.395
387,0.747,36.476,13.053,36.893,22.269,5.069,11.762,11.314
388,0.747,36.564,12.96,36.921,22.259,5.03,11.642,11.232
389,0.747,36.181,12.979,36.912,22.269,5.111,11.763,11.353
390,0.747,36.302,12.94,36.893,22.255,4.949,11.642,11.029
391,0.751,36.437,13.006,36.893,22.262,4.907,11.723,11.025
392,0.761,36.544,13.03,36.902,22.262,5.069,11.805,10.863
393,0.764,36.21,13.046,36.883,22.259,4.989,11.724,10.78
394,0.761,36.36,13.066,36.931,22.276,5.151,11.886,10.86
395,0.748,36.447,13.066,36.874,22.255,4.909,11.603,10.495
396,0.751,36.563,13.007,36.96,22.262,4.987,11.56,10.41
397,0.741,36.047,13.003,36.893,22.262,4.948,11.559,10.45
398,0.744,36.205,13.046,36.883,22.259,4.988,11.478,10.41
399,0.747,36.36,13.066,36.902,22.269,5.07,11.477,10.409
400,0.725,36.39,13.015,36.874,22.255,4.908,11.396,10.247
401,0.734,36.237,12.999,36.873,22.259,4.987,11.395,10.245
402,0.728,36.398,12.976,36.864,22.255,4.988,11.354,10.123
403,0.728,36.525,12.952,36.883,22.266,4.988,11.476,10.244
404,0.728,36.574,12.967,36.873,22.266,4.988,11.396,10.204
405,0.715,36.267,12.987,36.873,22.255,4.948,11.395,10.204
406,0.734,36.427,13.018,36.864,22.255,5.029,11.354,10.163
407,0.725,36.496,13.023,36.844,22.248,4.867,11.273,10.244
408,0.734,36.593,12.929,36.863,22.269,4.987,11.353,10.286
409,0.744,36.248,12.963,36.873,22.266,4.988,11.313,10.327
410,0.757,36.379,12.983,36.893,22.266,5.07,11.394,10.49
411,0.754,36.476,13.03,36.845,22.255,4.948,11.151,10.288
412,0.761,36.487,13.038,36.863,22.259,4.988,11.189,10.286
413,0.744,36.324,13.058,36.864,22.269,4.948,11.149,10.327
414,0.747,36.466,13.07,36.844,22.259,5.029,11.189,10.286
415,0.757,36.602,13.054,36.892,22.269,5.151,11.23,10.327
416,0.744,36.114,12.996,36.835,22.259,4.909,11.027,10.124
417,0.744,36.176,12.999,36.844,22.262,4.947,11.025,10.081
418,0.754,36.311,13.061,36.844,22.262,4.988,11.066,10.121
419,0.757,36.418,13.054,36.835,22.262,4.948,11.148,10.203
420,0.757,36.064,13.015,36.863,22.259,5.029,11.067,10.611
421,0.738,36.118,12.968,36.844,22.248,4.907,10.944,10.981
422,0.731,36.292,12.967,36.844,22.266,4.947,11.024,11.553
423,0.728,36.37,12.952,36.816,22.259,4.825,10.944,11.925
424,0.744,36.093,12.983,36.834,22.262,4.987,11.065,12.661
425,0.747,36.253,12.991,36.835,22.269,4.948,10.985,13.4
426,0.747,36.351,13.046,36.806,22.255,4.947,11.066,14.505
427,0.754,36.438,12.988,36.825,22.255,4.907,10.985,15.695
428,0.757,36.093,12.987,36.767,22.252,4.865,10.822,16.601
429,0.761,36.272,13.014,36.834,22.259,5.028,10.983,17.627
430,0.767,36.379,13.046,36.835,22.262,4.989,10.862,18.329
431,0.777,36.438,13.077,36.815,22.259,4.988,10.983,18.945
432,0.78,36.093,13.054,36.806,22.252,4.907,10.822,19.317
433,0.78,36.195,13.031,36.806,22.248,4.947,10.739,19.646
434,0.813,36.36,13.011,36.834,22.262,5.029,10.779,20.016
435,0.826,36.409,12.929,36.835,22.262,4.989,10.698,20.141
436,0.823,36.208,12.975,36.825,22.269,5.029,10.697,20.224
437,0.82,36.321,13.006,36.806,22.262,4.907,10.697,19.981
438,0.817,36.457,13.038,36.815,22.262,4.906,10.737,19.856
439,0.839,36.516,12.972,36.825,22.269,4.987,10.9,19.733
440,0.849,36.017,12.983,36.806,22.262,5.029,10.902,19.447
441,0.866,36.195,12.991,36.844,22.273,5.03,11.146,19.241
442,0.879,36.254,13.003,36.787,22.252,4.907,11.067,18.832
443,0.898,36.264,13.034,36.786,22.262,4.987,11.27,18.503
444,0.918,36.207,13.038,36.805,22.262,4.907,11.353,18.296
445,0.925,36.34,13.066,36.806,22.262,4.987,11.557,18.254
446,0.948,36.486,13.031,36.825,22.266,5.029,11.64,18.213
447,0.99,36.075,13.007,36.777,22.259,4.907,11.601,18.293
448,1.043,36.138,12.999,36.796,22.269,4.987,11.803,18.335
449,1.092,36.292,13.03,36.777,22.259,4.907,11.765,18.498
450,1.151,36.399,13.066,36.777,22.262,5.028,11.887,18.662
451,1.187,36.083,13.039,36.796,22.259,4.989,11.888,18.542
452,1.201,36.176,12.992,36.767,22.255,4.907,11.766,18.581
453,1.237,36.321,12.979,36.767,22.259,4.987,11.764,18.379
454,1.237,36.39,12.944,36.767,22.252,4.826,11.602,18.132
455,1.231,35.997,12.952,36.776,22.266,4.987,11.722,18.049
456,1.217,36.127,12.983,36.786,22.259,4.988,11.683,17.804
457,1.191,36.244,13.053,36.767,22.262,4.988,11.642,17.517
458,1.149,36.322,13.011,36.776,22.255,4.948,11.479,17.148
459,1.113,36.016,12.929,36.767,22.255,4.907,11.436,16.9
460,1.167,36.204,12.983,36.786,22.269,5.028,11.517,16.654
461,1.171,36.321,12.983,36.777,22.255,4.948,11.396,16.448
462,1.188,36.399,13.007,36.777,22.273,5.11,11.436,16.324
463,1.246,36.007,13.015,36.748,22.248,4.989,11.111,15.957
464,1.299,36.147,13.065,36.767,22.262,4.948,11.23,15.872
465,1.325,36.282,13.093,36.767,22.269,4.988,11.271,15.749
466,1.329,36.341,13.019,36.767,22.262,4.988,11.109,15.464
467,1.339,36.208,13.046,36.796,22.273,5.07,11.189,15.339
468,1.313,36.292,13.015,36.738,22.259,4.867,11.068,15.134
469,1.3,36.418,13.069,36.747,22.259,4.987,11.066,15.091
470,1.293,36.429,13.066,36.757,22.262,5.029,11.148,14.928
471,1.241,36.103,13.011,36.767,22.259,5.03,11.23,15.049
472,1.179,36.253,12.995,36.767,22.262,5.03,11.109,15.335
473,1.097,36.341,12.921,36.738,22.259,4.907,10.985,15.947
474,1.024,36.208,12.955,36.738,22.259,4.947,11.106,16.97
475,0.949,36.168,12.963,36.719,22.248,4.947,10.945,18.078
476,0.841,36.302,12.983,36.757,22.269,5.029,11.106,19.309
477,0.742,36.38,13.034,36.748,22.262,4.989,11.067,20.093
478,0.65,36.026,12.968,36.747,22.259,4.988,11.148,20.833
479,0.594,36.137,12.983,36.738,22.262,4.907,11.026,21.085
480,0.557,36.253,12.987,36.709,22.259,4.987,11.147,21.412
481,0.56,36.379,13.01,36.738,22.269,5.07,11.23,21.538
482,0.534,36.016,13.007,36.719,22.262,4.989,11.19,21.539
483,0.544,36.147,13.061,36.747,22.266,5.07,11.434,21.539
484,0.557,36.244,13.05,36.709,22.255,4.908,11.314,21.092
485,0.567,36.35,13.046,36.728,22.259,4.947,11.435,20.924
486,0.596,36.073,12.988,36.776,22.259,5.029,11.599,20.638
487,0.626,36.195,12.991,36.729,22.262,4.989,11.56,20.188
488,0.665,36.379,13.05,36.757,22.269,5.11,11.803,19.939
489,0.685,36.4,13.066,36.69,22.252,4.908,11.684,19.409
490,0.718,36.026,13.031,36.728,22.259,4.987,11.804,19.119
491,0.747,36.185,12.976,36.719,22.252,4.948,11.846,18.791
492,0.793,36.311,12.932,36.738,22.262,5.029,11.887,18.746
493,0.819,36.37,12.944,36.728,22.252,4.948,11.928,18.583
494,0.813,35.987,12.952,36.69,22.252,4.907,11.807,18.46
495,0.826,36.137,12.975,36.699,22.252,4.906,11.806,18.54
496,0.823,36.263,13.014,36.699,22.255,4.947,11.765,18.419
497,0.82,36.283,13.038,36.709,22.269,4.947,11.927,18.621
498,0.813,36.14,13.019,36.709,22.262,4.866,11.848,18.542
499,0.807,36.244,12.983,36.69,22.252,4.906,11.806,18.5
500,0.8,36.379,12.987,36.68,22.259,4.906,11.724,18.296
501,0.787,36.582,13.018,36.689,22.248,4.784,11.642,18.05
502,0.797,35.999,13.038,36.718,22.266,4.986,11.723,18.089
503,0.787,36.137,13.054,36.69,22.269,4.988,11.764,17.804
504,0.79,36.244,13.066,36.699,22.266,5.07,11.887,17.598
505,0.78,36.091,13.027,36.69,22.255,4.948,11.644,17.19
506,0.774,36.09,12.964,36.68,22.259,4.866,11.723,16.901
507,0.784,36.272,12.971,36.708,22.262,5.028,11.927,16.613
508,0.797,36.351,13.034,36.69,22.262,4.948,11.766,16.285
509,0.794,36.102,13.07,36.718,22.266,5.029,11.927,16.079
510,0.787,36.196,12.988,36.69,22.248,4.948,11.726,15.63
511,0.797,36.35,12.944,36.689,22.259,4.947,11.723,15.259
512,0.81,36.457,12.987,36.795,22.269,4.988,11.805,14.971
513,0.81,35.911,13.003,36.7,22.262,5.029,11.765,14.765
514,0.82,36.069,12.995,36.747,22.276,5.151,11.846,14.478
515,0.803,36.138,13.022,36.68,22.259,4.99,11.603,14.028
516,0.797,36.244,13.046,36.699,22.255,5.029,11.641,13.82
517,0.79,36.091,12.995,36.699,22.259,4.948,11.641,13.615
518,0.8,36.243,12.999,36.69,22.262,4.988,11.601,13.45
519,0.8,36.379,12.991,36.689,22.262,4.988,11.519,13.204
520,0.794,36.419,13.022,36.67,22.255,4.988,11.396,13.08
521,0.806,36.017,13.073,36.67,22.255,4.988,11.395,12.957
522,0.8,36.156,13.082,36.66,22.255,4.907,11.232,12.671
523,0.79,36.292,13.058,36.689,22.262,5.069,11.312,12.749
524,0.797,36.341,13.027,36.68,22.259,5.03,11.232,12.628
525,0.797,36.064,12.941,36.661,22.255,4.948,11.149,12.464
526,0.8,36.205,12.967,36.67,22.252,4.988,11.108,12.3
527,0.803,36.321,12.967,36.651,22.255,4.907,10.904,12.014
528,0.813,36.37,13.038,36.689,22.266,5.109,10.983,12.092
529,0.807,35.968,12.992,36.68,22.262,5.03,10.944,11.971
530,0.787,36.098,12.979,36.68,22.266,5.03,10.862,11.929
531,0.81,36.224,12.96,36.651,22.252,4.989,10.78,11.726
532,0.803,36.417,12.963,36.66,22.252,4.948,10.698,11.642
533,0.816,36.064,13.014,36.67,22.269,5.029,10.737,11.641
534,0.803,36.195,13.022,36.67,22.266,5.07,10.657,11.56
535,0.813,36.321,13.038,36.689,22.262,5.152,10.737,11.64
536,0.816,35.987,13.019,36.651,22.252,4.99,10.494,11.479
537,0.807,36.012,12.999,36.727,22.255,5.07,10.532,11.477
538,0.81,36.166,12.995,36.671,22.276,5.07,10.492,11.477
539,0.81,36.263,13.014,36.67,22.259,5.07,10.573,11.436
540,0.82,35.986,13.081,36.68,22.269,5.152,10.696,11.395
541,0.807,36.06,13.054,36.641,22.259,4.99,10.534,11.192
542,0.797,36.224,12.999,36.66,22.259,5.029,10.614,11.23
543,0.807,36.331,12.991,36.651,22.262,5.07,10.615,11.068
544,0.813,36.073,12.94,36.679,22.262,5.111,10.737,11.148
545,0.813,36.224,12.987,36.67,22.262,5.071,10.738,11.311
546,0.8,36.341,12.956,36.641,22.259,5.03,10.819,11.597
547,0.803,36.419,13.034,36.66,22.262,4.989,10.861,12.169
548,0.807,35.892,13.007,36.641,22.248,4.948,10.78,12.622
549,0.82,36.059,12.96,36.67,22.266,5.15,11.023,13.399
550,0.826,36.166,12.959,36.67,22.259,5.071,11.066,14.099
551,0.823,36.244,12.991,36.67,22.266,5.111,11.27,15.61
552,0.82,36.044,13.011,36.641,22.255,5.071,11.231,17.048
553,0.826,36.157,13.019,36.641,22.252,5.03,11.271,18.811
554,0.833,36.321,13.042,36.66,22.262,5.07,11.516,20.333
555,0.836,36.361,13.07,36.66,22.259,5.07,11.477,21.567
556,0.839,36.035,13.007,36.68,22.276,5.233,11.599,22.678
557,0.826,36.156,12.991,36.632,22.255,4.991,11.438,23.177
558,0.826,36.292,12.991,36.651,22.259,5.07,11.517,23.71
559,0.839,36.322,13.042,36.651,22.259,5.152,11.599,23.919
560,0.83,36.025,13.077,36.632,22.266,5.112,11.6,23.921
561,0.826,36.185,13.043,36.689,22.269,5.234,11.722,23.88
562,0.813,36.254,12.972,36.632,22.252,5.032,11.398,23.514
563,0.826,36.264,12.944,36.641,22.255,5.151,11.476,23.144
564,0.83,36.053,12.912,36.641,22.266,5.031,11.396,22.652
565,0.826,36.205,12.959,36.631,22.262,5.151,11.395,22.282
566,0.836,36.321,12.999,36.631,22.262,5.153,11.354,21.831
567,0.83,35.996,13.038,36.603,22.252,5.071,11.151,21.216
568,0.843,36.079,12.976,36.631,22.262,5.111,11.149,20.641
569,0.83,36.224,12.975,36.593,22.252,4.989,10.986,20.107
570,0.833,36.321,12.971,36.65,22.262,5.11,11.066,19.817
571,0.846,35.929,12.991,36.622,22.262,5.152,10.985,19.285
572,0.84,36.04,13.038,36.612,22.259,5.071,10.944,18.914
573,0.852,36.166,13.05,36.612,22.252,5.07,10.943,18.504
574,0.836,36.225,13.066,36.593,22.248,4.989,10.943,18.093
575,0.846,35.976,13.031,36.631,22.266,5.151,11.065,17.967
576,0.843,36.108,12.956,36.622,22.266,5.112,11.107,17.722
577,0.843,36.234,12.998,36.612,22.262,5.112,11.23,17.557
578,0.843,36.331,13.022,36.612,22.252,4.989,11.19,17.067
579,0.836,35.891,13.073,36.583,22.255,5.07,11.23,16.778
580,0.852,36.059,13.054,36.593,22.259,5.111,11.312,16.612
581,0.846,36.195,12.988,36.602,22.262,5.071,11.232,16.245
582,0.843,36.292,12.96,36.631,22.269,5.233,11.353,16.078
583,0.833,35.871,12.928,36.583,22.259,5.072,11.069,15.63
584,0.839,36.03,12.983,36.583,22.259,5.111,11.107,15.422
585,0.836,36.156,12.96,36.583,22.266,5.112,11.108,15.257
586,0.839,36.215,12.999,36.593,22.266,5.112,11.026,15.052
587,0.849,36.053,13.03,36.621,22.276,5.234,11.025,14.847
588,0.84,36.138,12.937,36.574,22.255,4.991,10.781,14.56
589,0.843,36.263,12.979,36.583,22.266,5.151,10.779,14.354
590,0.866,36.293,13.007,36.564,22.259,5.031,10.698,14.23
591,0.866,35.986,13.034,36.573,22.262,5.111,10.697,14.066
592,0.869,36.137,13.054,36.573,22.262,5.071,10.656,13.82
593,0.856,36.225,13.074,36.554,22.255,4.989,10.574,13.615
594,0.856,36.101,13.074,36.554,22.255,5.07,10.574,13.409
595,0.853,35.908,13.023,36.535,22.248,4.948,10.451,13.245
596,0.859,36.088,12.991,36.602,22.266,5.069,10.613,13.243
597,0.856,36.167,12.96,36.583,22.259,5.111,10.655,13.04
598,0.843,35.957,13.018,36.564,22.259,5.112,10.696,12.916
599,0.843,36.031,13.05,36.554,22.259,4.989,10.575,12.589
600,0.836,36.147,13.007,36.525,22.252,4.988,10.533,12.545
601,0.846,36.282,12.979,36.563,22.266,5.151,10.614,12.504
602,0.853,35.919,12.917,36.554,22.262,5.153,10.574,12.504
603,0.843,36.05,12.912,36.583,22.269,5.234,10.696,12.544
604,0.866,36.176,12.959,36.525,22.252,5.072,10.372,12.301
605,0.869,36.263,12.987,36.534,22.262,5.07,10.49,12.217
606,0.866,35.842,13.046,36.544,22.262,5.111,10.451,12.216
607,0.856,35.972,13.031,36.544,22.262,5.152,10.41,12.135
608,0.859,36.146,13.03,36.563,22.266,5.193,10.45,11.972
609,0.862,36.186,12.968,36.535,22.259,5.031,10.288,11.807
610,0.872,35.947,12.999,36.535,22.255,5.07,10.245,11.765
611,0.869,36.088,13.022,36.515,22.255,5.03,10.245,11.561
612,0.889,36.205,13.062,36.554,22.259,5.111,10.408,11.6
613,0.879,36.254,13.074,36.516,22.259,5.112,10.369,11.478
614,0.869,35.957,13.046,36.506,22.266,5.112,10.409,11.721
615,0.869,36.098,13.015,36.534,22.252,5.03,10.409,12.049
616,0.856,36.205,12.991,36.515,22.252,4.989,10.491,12.743
617,0.875,36.283,12.979,36.534,22.266,5.151,10.614,13.401
618,0.872,35.938,13.026,36.535,22.255,5.071,10.655,14.058
619,0.863,36.098,13.023,36.525,22.276,5.152,10.737,15.04
620,0.853,36.176,12.96,36.515,22.259,5.071,10.616,15.863
621,0.859,36.215,12.885,36.544,22.259,5.111,10.696,17.294
622,0.885,36.034,12.974,36.525,22.262,5.152,10.697,18.772
623,0.872,36.166,12.979,36.525,22.259,5.112,10.697,20.048
624,0.892,36.292,13.014,36.563,22.273,5.193,10.737,21.158
625,0.879,36.006,13.003,36.497,22.252,5.031,10.575,21.82
626,0.882,35.916,13.046,36.496,22.255,5.03,10.614,22.395
627,0.882,36.05,12.995,36.515,22.262,5.07,10.533,22.808
628,0.898,36.166,13.003,36.496,22.262,5.111,10.655,23.096
629,0.895,35.803,12.999,36.515,22.262,5.112,10.656,23.14
630,0.886,35.857,13.026,36.496,22.266,5.071,10.656,23.018
631,0.898,36.011,13.062,36.505,22.259,5.03,10.696,22.773
632,0.892,36.099,13.039,36.486,22.255,4.989,10.697,22.405
633,0.895,36.109,13.046,36.515,22.269,5.151,10.941,22.157
634,0.892,36.244,13.015,36.515,22.266,5.071,10.984,21.667
635,0.889,36.389,12.917,36.515,22.266,5.111,11.066,21.459
636,0.889,36.467,12.975,36.496,22.255,4.989,10.985,20.806
637,0.889,35.748,12.983,36.486,22.259,5.07,11.066,20.434
638,0.905,35.904,13.03,36.515,22.269,5.07,11.188,20.064
639,0.879,36.031,12.976,36.496,22.262,5.03,11.108,19.776
640,0.892,36.118,12.987,36.592,22.273,5.192,11.351,19.651
641,0.895,35.831,12.952,36.458,22.248,4.99,11.191,19.284
642,0.886,35.972,13.01,36.486,22.259,4.988,11.23,19.117
643,0.895,36.108,13.034,36.496,22.259,5.11,11.271,18.912
644,0.889,36.167,13.042,36.505,22.262,5.071,11.272,18.748
645,0.899,35.832,13.093,36.515,22.273,5.111,11.312,18.38
646,0.889,35.924,13.027,36.477,22.255,4.989,11.191,18.092
647,0.902,36.088,13.015,36.467,22.255,4.988,11.189,17.886
648,0.908,36.119,12.991,36.467,22.252,4.948,11.149,17.437
649,0.905,35.937,13.042,36.486,22.266,5.11,11.23,17.31
650,0.918,36.06,13.077,36.467,22.262,5.071,11.231,16.984
651,0.909,36.157,13.035,36.476,22.262,5.07,11.149,16.655
652,0.912,36.263,13.015,36.467,22.259,4.989,11.067,16.286
653,0.908,35.89,12.96,36.438,22.248,4.948,10.985,16.038
654,0.921,36.078,12.94,36.476,22.269,5.15,11.147,15.914
655,0.918,36.205,12.944,36.486,22.269,5.071,11.067,15.628
656,0.922,35.899,12.975,36.477,22.266,5.03,11.107,15.381
657,0.905,35.839,13.038,36.457,22.255,4.948,10.985,15.053
658,0.902,35.963,13.023,36.467,22.252,5.029,11.025,14.806
659,0.905,36.108,12.882,36.505,22.259,5.03,11.066,14.6
660,0.902,35.841,12.994,36.458,22.259,5.07,11.066,14.395
661,0.912,35.992,13.011,36.495,22.269,5.111,11.188,14.23
662,0.895,36.089,13.022,36.438,22.255,4.949,11.068,13.944
663,0.908,36.186,13.046,36.467,22.259,4.988,11.066,13.982
664,0.912,35.88,13.046,36.457,22.262,4.988,11.026,14.267
665,0.915,35.982,13.046,36.457,22.262,5.07,11.107,14.717
666,0.925,36.175,12.953,36.476,22.269,5.111,11.148,15.372
667,0.899,36.196,12.975,36.429,22.255,4.908,10.945,15.745
668,0.912,35.938,12.999,36.457,22.266,4.947,10.943,16.48
669,0.912,36.088,13.05,36.467,22.255,4.947,10.902,17.341
670,0.925,36.186,13.074,36.438,22.262,4.988,10.943,18.691
671,0.941,36.273,13.039,36.447,22.262,4.988,10.821,20.413
672,0.945,35.833,12.999,36.428,22.259,4.948,10.779,22.097
673,0.938,36.001,12.94,36.418,22.255,4.907,10.657,23.537
674,0.925,36.089,12.936,36.428,22.248,4.865,10.493,24.527
675,0.928,36.176,12.971,36.457,22.262,5.028,10.614,25.472
676,0.935,36.446,12.999,36.457,22.262,5.03,10.411,25.847
677,0.935,36.583,13.054,36.419,22.269,5.03,10.409,26.176
678,0.925,36.68,12.984,36.428,22.259,4.948,10.206,25.935
679,0.922,36.719,12.991,36.438,22.262,4.947,10.204,25.811
680,0.918,36.077,12.991,36.438,22.262,5.11,10.204,25.485
681,0.925,36.214,13.022,36.438,22.266,4.989,10.082,25.034
682,0.931,36.36,13.069,36.476,22.273,5.151,10.162,24.745
683,0.922,36.582,13.039,36.39,22.255,4.949,9.96,23.97
684,0.931,35.884,13.062,36.418,22.255,4.988,9.957,23.515
685,0.941,36.03,13.085,36.428,22.262,4.988,9.917,22.941
686,0.925,36.137,12.965,36.418,22.262,5.029,9.957,22.447
687,0.941,36.09,12.983,36.447,22.266,5.07,10.039,21.914
688,0.938,36.128,12.999,36.38,22.255,4.908,9.958,21.339
689,0.951,36.273,13.054,36.408,22.255,5.028,10.12,21.049
690,0.948,36.37,13.023,36.399,22.252,4.948,10.081,20.517
691,0.948,36.026,12.976,36.418,22.262,5.069,10.243,20.309
692,0.948,36.118,12.944,36.399,22.259,4.989,10.245,19.9
693,0.935,36.253,12.909,36.37,22.262,4.988,10.123,19.611
694,0.941,36.36,12.982,36.389,22.259,4.948,10.122,19.202
695,0.938,36.045,12.971,36.38,22.248,4.988,10.163,18.791
696,0.925,36.205,13.045,36.399,22.259,5.07,10.326,18.462
697,0.925,36.331,13.05,36.409,22.259,5.03,10.246,18.133
698,0.925,36.418,12.999,36.418,22.273,5.111,10.286,17.886
699,0.931,36.122,12.983,36.361,22.255,4.989,10.123,17.274
700,0.941,36.253,12.983,36.379,22.259,5.07,10.122,16.902
701,0.951,36.389,13.014,36.389,22.269,5.07,10.163,16.532
702,0.935,36.448,13.058,36.399,22.259,5.111,10.082,16.244
703,0.948,36.276,13.078,36.428,22.276,5.152,10.121,15.916
704,0.948,36.351,13.062,36.371,22.255,5.031,9.837,15.424
705,0.948,36.476,13.039,36.37,22.252,5.07,9.834,15.135
706,0.948,36.535,12.995,36.37,22.262,5.03,9.753,14.726
707,0.945,36.334,12.991,36.37,22.259,5.151,9.874,14.559
708,0.951,36.476,13.05,36.37,22.262,5.071,9.835,14.151
709,0.945,36.554,13.035,36.341,22.252,5.03,9.712,13.902
710,0.951,36.574,12.991,36.351,22.259,4.989,9.711,13.615
711,0.948,36.402,12.913,36.341,22.248,4.988,9.548,13.287
712,0.961,36.553,12.885,36.37,22.259,5.11,9.628,13.162
713,0.958,36.66,12.963,36.389,22.262,5.071,9.71,12.836
714,0.945,36.729,12.991,36.37,22.262,5.152,9.67,12.71
715,0.948,36.49,13.003,36.332,22.255,5.071,9.507,12.262
716,0.945,36.612,13.046,36.341,22.255,5.07,9.587,12.176
717,0.948,36.728,13.027,36.37,22.262,5.111,9.588,12.053
718,0.948,36.499,13.003,36.36,22.269,5.152,9.507,11.767
719,0.958,36.593,12.987,36.379,22.273,5.234,9.587,11.683
720,0.941,36.67,13.014,36.332,22.252,4.991,9.425,11.357
721,0.941,36.796,13.042,36.322,22.266,5.07,9.424,11.151
722,0.948,36.576,13.054,36.35,22.266,5.07,9.424,11.149
723,0.935,36.708,13.05,36.351,22.259,5.111,9.302,11.067
724,0.958,36.834,13.058,36.37,22.262,5.112,9.341,10.863
725,0.945,36.884,12.933,36.351,22.255,5.03,9.179,10.658
726,0.948,36.558,12.979,36.322,22.262,4.989,9.177,10.656
727,0.945,36.708,13.003,36.312,22.252,5.029,9.096,10.371
728,0.951,36.834,13.042,36.331,22.259,5.111,9.258,10.409
729,0.951,36.884,13.011,36.322,22.259,5.071,9.178,10.247
730,0.948,36.692,12.956,36.331,22.259,5.03,9.259,10.164
731,0.945,36.834,12.967,36.331,22.262,5.07,9.097,10.0
732,0.945,36.951,12.952,36.303,22.252,4.989,9.136,9.795
733,0.954,37.038,13.014,36.321,22.262,5.11,9.217,9.915
734,0.945,36.742,13.007,36.331,22.262,5.112,9.259,9.713
735,0.948,36.883,13.065,36.341,22.269,5.193,9.3,9.711
736,0.932,36.97,13.054,36.322,22.252,5.031,9.219,9.427
737,0.912,37.038,12.957,36.322,22.259,5.111,9.259,9.424
738,0.918,36.838,12.987,36.331,22.269,5.152,9.3,9.342
739,0.941,36.96,12.999,36.322,22.262,5.112,9.341,9.342
740,0.945,37.115,13.061,36.341,22.273,5.234,9.423,9.301
741,0.915,37.078,13.05,36.293,22.252,4.991,9.261,9.016
742,0.912,36.963,13.035,36.312,22.259,5.07,9.259,8.932
743,0.918,37.106,12.999,36.302,22.255,5.07,9.3,8.89
744,0.899,37.212,12.987,36.302,22.266,5.111,9.341,8.93
745,0.918,37.185,12.995,36.341,22.266,5.03,9.342,8.768
746,0.918,37.002,12.952,36.283,22.255,4.948,9.26,8.726
747,0.922,37.135,13.026,36.293,22.259,4.988,9.381,8.644
748,0.931,37.222,13.027,36.264,22.255,4.988,9.261,8.481
749,0.941,36.974,12.984,36.292,22.269,5.11,9.381,8.642
750,0.932,37.038,12.983,36.302,22.262,5.071,9.464,8.644
751,0.941,37.154,12.991,36.293,22.255,5.03,9.465,8.562
752,0.938,37.251,12.987,36.273,22.255,5.03,9.343,8.561
753,0.932,36.974,13.022,36.254,22.241,4.948,9.342,8.602
754,0.931,37.115,13.03,36.302,22.269,5.069,9.504,8.846
755,0.918,37.27,13.058,36.293,22.259,4.989,9.384,8.971
756,0.899,37.3,13.019,36.293,22.269,5.07,9.505,9.257
757,0.902,36.975,12.991,36.273,22.255,4.989,9.303,9.341
758,0.892,37.086,12.987,36.264,22.266,4.988,9.301,9.748
759,0.895,37.251,13.053,36.283,22.269,5.07,9.301,10.403
760,0.892,37.291,13.085,36.283,22.259,5.07,9.26,11.141
761,0.889,37.09,13.07,36.283,22.273,5.233,9.381,11.921
762,0.879,37.183,13.027,36.254,22.255,4.95,9.139,12.335
763,0.885,37.328,12.999,36.254,22.262,5.029,9.177,13.031
764,0.885,37.406,12.983,36.283,22.259,5.111,9.218,13.526
765,0.872,37.1,12.991,36.283,22.262,5.112,9.3,13.937
766,0.885,37.27,12.991,36.273,22.269,5.071,9.26,14.226
767,0.872,37.367,13.011,36.254,22.262,4.948,9.178,14.351
768,0.866,37.416,13.03,36.244,22.252,5.029,9.177,14.514
769,0.876,37.091,12.972,36.273,22.252,4.907,9.177,14.516
770,0.892,37.251,12.971,36.254,22.262,5.069,9.299,14.719
771,0.879,37.339,12.979,36.254,22.262,5.03,9.301,14.681
772,0.869,37.387,12.983,36.254,22.255,4.989,9.301,14.518
773,0.872,37.129,13.053,36.235,22.262,5.029,9.26,14.394
774,0.856,37.251,13.031,36.234,22.248,4.989,9.259,14.271
775,0.879,37.367,13.089,36.244,22.269,5.07,9.463,14.27
776,0.866,37.522,12.988,36.244,22.255,5.07,9.343,14.148
777,0.856,37.6,12.999,36.254,22.262,5.07,9.464,14.024
778,0.862,37.726,13.003,36.235,22.262,4.989,9.383,13.779
779,0.866,37.804,13.057,36.234,22.259,5.029,9.505,13.655
780,0.853,36.97,13.066,36.254,22.262,5.151,9.465,13.735
781,0.836,37.0,13.0,36.244,22.262,5.112,9.465,13.492
782,0.846,37.135,12.956,36.263,22.269,5.234,9.587,13.571
783,0.82,37.222,12.916,36.225,22.259,5.032,9.303,13.165
784,0.833,37.156,12.865,36.234,22.259,5.07,9.423,13.161
785,0.836,37.328,13.001,36.254,22.259,5.152,9.464,13.039
786,0.83,37.445,13.015,36.225,22.266,5.071,9.505,12.916
787,0.852,37.542,13.062,36.263,22.269,5.152,9.668,12.874
788,0.83,36.987,12.972,36.206,22.255,4.949,9.548,12.67
789,0.836,37.134,12.987,36.234,22.259,5.11,9.831,12.79
790,0.839,37.28,12.975,36.234,22.255,4.989,9.956,13.116
791,0.843,37.339,13.003,36.244,22.262,5.07,10.202,13.689
792,0.853,37.397,13.038,36.225,22.255,5.03,10.326,14.142
793,0.843,37.503,13.054,36.196,22.252,4.989,10.49,14.675
794,0.843,37.629,13.062,36.225,22.255,5.029,10.735,15.534
795,0.836,37.688,13.015,36.196,22.255,4.948,10.738,16.681
796,0.817,36.844,12.901,36.234,22.262,5.069,10.941,18.482
797,0.813,36.999,12.998,36.215,22.262,5.03,11.106,20.004
798,0.826,37.096,13.022,36.206,22.259,5.03,11.189,21.402
799,0.823,37.136,13.062,36.205,22.259,5.07,11.189,22.473
800,0.8,37.088,13.027,36.177,22.241,4.908,11.23,23.175
801,0.81,37.26,12.98,36.224,22.259,5.109,11.353,23.751
802,0.81,37.367,12.952,36.215,22.262,5.112,11.273,24.082
803,0.8,37.388,12.858,36.234,22.262,5.071,11.434,24.207
804,0.807,37.484,12.974,36.196,22.262,4.989,11.233,23.883
805,0.8,37.609,12.987,36.186,22.255,5.029,11.271,23.717
806,0.816,37.735,13.034,36.224,22.262,5.07,11.272,23.512
807,0.82,37.094,13.054,36.187,22.262,5.07,11.231,23.063
808,0.817,36.886,13.003,36.224,22.273,5.193,11.353,22.814
809,0.813,37.009,12.976,36.206,22.259,5.031,11.151,22.08
810,0.813,37.096,12.999,36.196,22.262,4.989,11.067,21.625
811,0.839,37.001,13.054,36.215,22.262,5.11,11.229,21.092
812,0.836,37.115,13.07,36.196,22.262,5.071,11.231,20.599
813,0.833,37.27,13.078,36.215,22.269,5.111,11.231,20.106
814,0.817,37.329,13.054,36.167,22.255,5.03,11.109,19.613
815,0.816,36.812,13.019,36.186,22.259,5.07,11.067,19.324
816,0.816,36.96,12.995,36.196,22.262,4.989,11.066,18.874
817,0.816,37.077,12.983,36.205,22.269,5.192,11.148,18.788
818,0.807,37.155,13.049,36.186,22.269,5.072,11.149,18.503
819,0.8,36.906,13.035,36.167,22.262,5.07,11.067,18.256
820,0.797,37.047,12.98,36.167,22.255,4.989,11.066,18.009
821,0.784,37.174,12.948,36.167,22.252,4.907,10.985,17.844
822,0.8,37.261,12.971,36.176,22.266,5.109,11.106,17.721
823,0.803,36.878,12.964,36.148,22.262,5.03,11.026,17.516
824,0.8,36.999,12.979,36.176,22.262,5.07,10.985,17.392
825,0.8,37.115,13.003,36.157,22.259,5.07,10.862,17.025
826,0.807,37.145,13.034,36.128,22.255,5.07,10.82,16.899
827,0.82,37.021,12.995,36.176,22.266,5.193,10.779,16.898
828,0.803,37.164,13.011,36.157,22.259,5.112,10.738,17.061
829,0.807,37.28,13.007,36.195,22.269,5.193,10.697,17.428
830,0.816,37.3,13.046,36.157,22.255,5.031,10.453,17.513
831,0.813,36.965,13.07,36.119,22.266,5.03,10.369,17.799
832,0.826,37.125,13.085,36.166,22.259,5.111,10.409,17.924
833,0.836,37.222,13.062,36.157,22.262,5.112,10.369,18.047
834,0.826,37.568,13.066,36.195,22.276,5.193,10.409,18.211
835,0.823,36.968,12.929,36.148,22.255,4.99,10.084,17.968
836,0.82,37.106,12.99,36.147,22.259,5.07,10.162,17.885
837,0.826,37.212,13.003,36.157,22.266,5.07,10.082,17.68
838,0.823,36.897,13.061,36.157,22.266,5.152,10.081,17.638
839,0.846,36.903,13.019,36.148,22.259,5.112,9.999,17.353
840,0.82,36.99,12.937,36.138,22.266,5.03,9.877,17.025
841,0.813,37.115,12.987,36.147,22.262,5.07,9.794,16.777
842,0.807,36.819,12.999,36.128,22.255,5.03,9.712,16.328
843,0.803,36.96,12.987,36.147,22.266,5.192,9.792,16.242
844,0.823,37.077,13.007,36.128,22.266,5.112,9.671,15.916
845,0.826,37.155,13.046,36.128,22.259,5.03,9.67,15.668
846,0.833,36.916,13.054,36.138,22.262,5.03,9.67,15.341
847,0.81,37.038,12.96,36.099,22.252,4.989,9.589,14.85
848,0.833,37.202,12.983,36.147,22.262,5.151,9.669,14.723
849,0.836,37.261,13.014,36.147,22.255,5.112,9.629,14.355
850,0.83,36.83,13.05,36.147,22.262,5.152,9.751,14.189
851,0.839,36.941,13.05,36.119,22.255,5.071,9.59,13.862
852,0.839,37.057,13.062,36.118,22.259,5.111,9.669,13.656
853,0.843,37.154,13.062,36.137,22.266,5.152,9.751,13.45
854,0.833,36.772,13.011,36.119,22.259,5.153,9.752,13.204
855,0.826,36.941,13.03,36.166,22.269,5.234,9.915,13.121
856,0.813,37.029,13.003,36.109,22.252,5.032,9.754,12.673
857,0.826,37.097,13.034,36.118,22.255,5.03,9.752,12.546
858,0.843,36.752,13.023,36.118,22.262,5.07,9.752,12.382
859,0.836,36.902,12.964,36.118,22.262,5.111,9.833,12.218
860,0.826,37.057,12.999,36.128,22.259,5.152,9.875,12.013
861,0.813,37.039,12.976,36.09,22.248,5.031,9.794,11.889
862,0.82,36.847,13.003,36.08,22.262,5.111,9.793,11.725
863,0.813,36.98,13.022,36.089,22.252,4.989,9.712,11.601
864,0.82,37.106,13.03,36.099,22.262,5.07,9.752,11.803
865,0.82,37.212,13.05,36.089,22.266,5.03,9.752,11.846
866,0.813,36.724,13.007,36.099,22.259,5.111,9.752,12.05
867,0.813,36.883,13.007,36.08,22.259,5.071,9.752,12.174
868,0.807,36.97,12.979,36.08,22.252,4.989,9.671,12.46
869,0.842,36.856,13.038,36.108,22.262,5.151,9.792,13.073
870,0.839,36.922,13.077,36.08,22.259,5.112,9.753,13.648
871,0.852,37.048,13.039,36.118,22.269,5.112,9.915,14.264
872,0.84,37.135,12.988,36.07,22.255,5.03,9.632,14.676
873,0.839,36.657,12.968,36.08,22.262,5.07,9.67,15.168
874,0.843,36.805,12.94,36.118,22.262,5.111,9.751,15.661
875,0.836,36.912,13.006,36.09,22.269,5.152,9.752,15.951
876,0.843,37.038,13.007,36.128,22.269,5.275,9.752,16.198
877,0.833,36.771,13.05,36.061,22.255,5.032,9.549,16.2
878,0.833,36.921,13.007,36.079,22.255,5.03,9.628,16.2
879,0.826,37.067,12.991,36.08,22.262,5.03,9.507,16.241
880,0.823,37.126,12.983,36.08,22.262,5.111,9.587,16.282
881,0.826,36.772,13.018,36.108,22.273,5.112,9.791,16.201
882,0.8,36.883,13.034,36.051,22.255,4.949,9.671,15.956
883,0.82,37.018,13.034,36.07,22.255,5.029,9.792,15.831
884,0.826,37.097,13.058,36.06,22.259,5.03,9.875,15.627
885,0.839,36.733,13.074,36.07,22.262,4.989,9.997,15.381
886,0.836,36.883,12.972,36.08,22.266,5.151,10.08,15.175
887,0.81,36.98,12.971,36.06,22.252,4.99,10.203,14.889
888,0.816,37.048,12.995,36.07,22.252,5.07,10.367,14.723
889,0.826,36.713,13.054,36.041,22.259,4.948,10.449,14.437
890,0.846,36.873,13.058,36.06,22.259,5.029,10.613,14.393
891,0.849,36.999,13.035,36.06,22.259,5.03,10.615,14.149
892,0.843,37.0,12.945,36.041,22.255,4.948,10.818,13.943
893,0.846,36.761,12.909,36.07,22.262,4.947,10.942,13.738
894,0.83,36.893,12.959,36.051,22.255,4.907,10.902,13.533
895,0.843,36.999,12.979,36.07,22.262,5.069,11.146,13.449
896,0.836,36.943,13.003,36.051,22.262,5.07,11.067,13.204
897,0.823,36.693,13.061,36.051,22.259,5.07,11.188,13.08
898,0.82,36.825,12.984,36.031,22.255,4.989,11.108,12.876
899,0.817,36.922,13.003,36.012,22.255,4.988,11.067,12.629
900,0.816,36.645,12.999,36.05,22.266,5.07,11.066,12.586
901,0.784,36.7,13.034,36.041,22.255,5.07,11.107,12.545
902,0.8,36.863,13.085,36.07,22.269,5.152,11.148,12.464
903,0.81,36.913,13.074,36.032,22.259,4.99,10.945,12.3
904,0.813,36.597,13.082,36.031,22.266,5.029,10.902,12.38
905,0.813,36.766,13.043,36.05,22.266,5.07,10.943,12.665
906,0.813,36.864,12.964,36.051,22.262,5.03,10.862,13.115
907,0.833,37.009,12.991,36.07,22.266,5.111,10.82,13.567
908,0.826,36.655,13.03,36.003,22.252,4.949,10.576,13.856
909,0.833,36.824,13.066,36.041,22.259,5.029,10.574,14.469
910,0.846,36.951,13.043,36.022,22.252,4.907,10.451,15.329
911,0.849,37.019,12.988,36.041,22.262,5.069,10.45,16.72
912,0.849,36.636,12.94,36.041,22.266,4.989,10.45,17.953
913,0.833,36.786,12.971,36.031,22.259,4.948,10.41,19.023
914,0.839,36.912,12.967,36.012,22.252,5.029,10.287,19.969
915,0.823,36.923,12.975,35.993,22.259,4.989,10.245,20.669
916,0.833,36.626,13.034,36.04,22.259,4.988,10.245,21.408
917,0.83,36.747,13.019,36.022,22.259,5.07,10.164,21.782
918,0.823,36.873,13.023,36.127,22.262,5.07,10.204,22.07
919,0.817,36.903,13.003,35.994,22.255,4.948,9.96,21.91
920,0.813,36.654,13.03,36.021,22.255,4.988,9.957,21.786
921,0.823,36.796,13.066,36.012,22.262,5.029,10.08,21.826
922,0.813,36.922,13.078,36.012,22.262,4.989,10.121,21.542
923,0.816,36.98,13.086,36.041,22.276,5.151,10.406,21.336
924,0.816,36.684,13.035,35.993,22.255,4.99,10.328,20.764
925,0.816,36.844,12.968,35.993,22.262,4.988,10.449,20.474
926,0.813,36.961,12.979,35.993,22.259,4.948,10.491,20.064
927,0.82,36.827,12.979,36.012,22.262,4.947,10.695,19.654
928,0.833,36.711,13.049,36.012,22.266,5.069,10.697,19.284
929,0.823,36.796,13.003,35.993,22.255,4.948,10.656,18.914
930,0.826,36.931,12.948,35.993,22.262,4.947,10.696,18.788
931,0.83,36.664,12.955,35.993,22.259,4.947,10.778,18.381
932,0.823,36.757,12.963,35.993,22.262,4.988,10.779,18.377
933,0.826,36.873,13.002,35.993,22.259,4.948,10.82,18.173
934,0.82,36.951,13.015,35.993,22.252,4.988,10.779,17.968
935,0.83,36.511,13.042,35.964,22.259,4.948,10.738,17.803
936,0.817,36.602,13.07,35.954,22.252,4.825,10.575,17.558
937,0.81,36.776,12.968,35.983,22.262,5.027,10.696,17.514
938,0.81,36.854,12.999,35.992,22.266,4.989,10.616,17.27
939,0.807,36.606,13.03,35.964,22.259,4.948,10.655,17.105
940,0.813,36.738,13.042,35.963,22.252,4.866,10.656,16.737
941,0.79,36.835,13.05,35.944,22.248,4.906,10.696,16.571
942,0.797,36.96,13.05,35.973,22.262,5.028,10.819,16.61
943,0.794,36.463,13.023,35.973,22.255,4.948,10.861,16.488
944,0.787,36.631,13.015,35.983,22.266,5.029,11.024,16.528
945,0.78,36.776,12.909,35.983,22.255,4.907,10.944,16.325
946,0.777,36.816,12.971,35.954,22.259,5.028,11.106,16.323
947,0.79,36.577,13.065,35.973,22.266,5.03,11.23,16.282
948,0.803,36.689,13.039,35.954,22.262,5.03,11.231,16.119
949,0.807,36.844,12.988,36.002,22.269,5.03,11.312,16.077
950,0.816,36.845,12.979,35.935,22.255,4.907,11.232,15.792
951,0.839,36.615,12.964,35.954,22.255,4.987,11.271,15.627
952,0.83,36.757,13.01,35.954,22.255,4.948,11.19,15.422
953,0.826,36.873,13.026,35.963,22.262,4.947,11.271,15.298
954,0.817,36.903,13.073,35.973,22.266,4.907,11.109,15.012
955,0.807,36.578,13.062,35.925,22.252,4.865,11.026,14.724
956,0.807,36.728,13.023,35.944,22.259,4.906,10.944,14.518
957,0.803,36.863,13.015,35.935,22.252,4.865,10.862,14.191
958,0.807,36.644,13.011,35.963,22.259,5.028,10.902,14.065
959,0.813,36.575,13.069,35.954,22.262,4.989,10.78,13.861
960,0.803,36.708,13.082,35.915,22.266,4.948,10.657,13.656
961,0.787,36.815,13.05,35.915,22.255,4.947,10.615,13.288
962,0.777,36.481,12.964,35.886,22.245,4.866,10.452,13.121
963,0.793,36.621,12.975,35.944,22.259,5.028,10.532,12.957
964,0.8,36.738,12.944,35.935,22.259,4.907,10.329,12.711
965,0.8,36.854,12.998,35.934,22.269,5.028,10.449,12.628
966,0.794,36.519,12.987,35.906,22.259,4.948,10.247,12.261
967,0.793,36.66,13.065,35.915,22.266,4.947,10.245,12.095
968,0.803,36.796,13.003,35.925,22.266,4.947,10.286,12.012
969,0.8,36.883,12.979,35.925,22.262,4.907,10.245,11.848
970,0.813,36.501,12.979,35.934,22.269,5.028,10.367,11.765
971,0.81,36.612,13.003,35.906,22.255,4.826,10.206,11.439
972,0.81,36.757,13.061,35.925,22.255,4.946,10.285,11.273
973,0.81,36.825,13.066,35.915,22.259,4.988,10.408,11.19
974,0.8,36.5,13.074,35.915,22.262,4.988,10.45,11.027
975,0.813,36.679,13.07,35.953,22.269,5.07,10.572,10.944
976,0.787,36.767,12.968,35.906,22.252,4.867,10.451,10.659
977,0.793,36.825,12.967,35.905,22.262,4.946,10.654,10.574
978,0.797,36.529,13.006,35.915,22.266,4.947,10.737,10.411
979,0.794,36.66,13.069,35.886,22.259,4.988,10.9,10.369
980,0.787,36.796,13.035,35.896,22.262,4.907,10.861,10.287
981,0.771,36.797,12.968,35.877,22.248,4.906,10.902,10.327
982,0.77,36.548,12.932,35.895,22.259,4.947,10.983,10.571
983,0.774,36.67,12.901,35.886,22.255,4.866,10.944,10.899
984,0.793,36.805,12.963,35.915,22.266,4.987,11.024,11.349
985,0.777,37.094,13.002,35.896,22.255,4.988,10.944,11.76
986,0.777,36.599,13.026,35.886,22.255,4.948,10.984,12.293
987,0.79,36.728,13.054,35.867,22.262,4.866,10.862,12.99
988,0.784,36.825,12.968,35.867,22.252,4.865,10.82,13.972
989,0.79,36.548,12.999,35.905,22.269,4.987,10.861,14.958
990,0.784,36.516,13.003,35.877,22.255,4.988,10.78,15.7
991,0.79,36.641,13.042,35.895,22.269,5.029,10.82,16.479
992,0.797,36.728,13.073,35.877,22.255,4.989,10.576,16.853
993,0.794,36.566,13.074,35.867,22.259,4.907,10.574,17.345
994,0.803,36.699,13.086,35.876,22.269,5.028,10.492,17.634
995,0.787,36.815,13.035,35.867,22.266,5.03,10.288,17.637
996,0.8,36.941,12.999,35.905,22.276,5.111,10.408,17.8
997,0.787,36.425,12.979,35.848,22.252,4.908,10.165,17.517
998,0.79,36.534,13.034,35.867,22.259,4.947,10.122,17.473
999,0.79,36.689,13.058,35.848,22.259,4.988,10.0,17.27
1000,0.787,36.777,13.003,35.857,22.259,5.029,10.039,17.146
1001,0.784,36.519,12.948,35.876,22.259,4.989,10.04,16.86
1002,0.771,36.641,12.975,35.838,22.252,4.948,9.877,16.572
1003,0.774,36.776,12.991,35.857,22.262,4.907,9.835,16.325
1004,0.774,36.835,12.972,35.819,22.248,4.784,9.753,15.917
1005,0.774,36.558,13.022,35.866,22.262,5.027,9.833,15.831
1006,0.774,36.689,13.046,35.857,22.262,5.03,9.753,15.464
1007,0.777,36.806,12.976,35.857,22.266,4.989,9.833,15.176
1008,0.78,36.864,12.999,35.847,22.252,4.948,9.712,14.807
1009,0.787,36.596,12.995,35.847,22.262,4.988,9.711,14.56
1010,0.79,36.776,13.069,35.867,22.269,4.948,9.752,14.476
1011,0.784,36.864,13.082,35.848,22.262,4.988,9.793,14.353
1012,0.79,36.951,13.086,35.886,22.276,5.11,9.834,14.718
1013,0.787,36.52,13.058,35.819,22.252,4.867,9.712,14.884
1014,0.79,36.65,13.046,35.837,22.262,4.906,9.752,15.414
1015,0.79,36.796,12.953,35.838,22.255,4.947,9.671,15.908
1016,0.79,36.97,12.987,35.838,22.266,4.988,9.833,16.604
1017,0.784,36.607,13.018,35.838,22.259,4.948,9.753,17.586
1018,0.774,36.69,13.023,35.818,22.255,4.947,9.833,19.06
1019,0.774,36.806,12.98,35.828,22.255,4.947,9.875,20.945
1020,0.774,36.5,12.975,35.79,22.255,4.785,9.794,22.59
1021,0.771,36.554,12.975,35.837,22.259,5.027,10.078,24.111
1022,0.774,36.699,13.01,35.838,22.259,4.907,10.121,25.183
1023,0.764,36.777,13.019,35.828,22.255,4.987,10.284,25.966
1024,0.78,36.519,13.034,35.818,22.255,4.866,10.245,26.34
1025,0.774,36.602,13.101,35.809,22.259,4.906,10.286,26.588
1026,0.784,36.776,13.066,35.837,22.266,4.947,10.367,26.753
1027,0.777,36.864,13.035,35.828,22.259,4.907,10.328,26.47
1028,0.777,36.568,13.011,35.838,22.269,5.028,10.49,26.264
1029,0.777,36.68,13.019,35.809,22.259,4.867,10.329,25.733
1030,0.777,36.805,13.069,35.828,22.259,4.946,10.368,25.199
1031,0.793,36.893,13.046,35.838,22.273,5.029,10.409,24.747
1032,0.803,36.501,13.007,35.809,22.269,4.989,10.369,24.173
1033,0.813,36.669,13.011,35.847,22.273,5.029,10.409,23.557
1034,0.79,36.757,12.94,35.79,22.259,4.826,10.287,22.738
1035,0.79,36.835,12.983,35.808,22.259,4.905,10.164,22.12
1036,0.78,36.606,12.991,35.799,22.259,4.825,10.163,21.341
1037,0.777,36.738,13.053,35.818,22.262,4.946,10.204,20.886
1038,0.774,36.873,13.023,35.809,22.259,4.907,10.123,20.231
1039,0.771,36.932,12.984,35.799,22.252,4.865,10.081,19.574
1040,0.761,36.52,12.983,35.789,22.262,4.906,10.04,18.958
1041,0.757,36.65,12.987,35.78,22.248,4.825,9.918,18.342
1042,0.767,36.796,13.03,35.818,22.262,4.946,10.039,18.051
1043,0.77,36.807,13.03,35.79,22.262,4.907,10.08,17.479
1044,0.77,36.586,13.077,35.808,22.266,4.906,10.325,17.148
1045,0.764,36.709,13.054,35.799,22.255,4.865,10.205,16.535
1046,0.764,36.815,12.996,35.77,22.255,4.784,10.367,16.244
1047,0.787,36.855,12.983,35.799,22.266,4.986,10.531,15.753
1048,0.78,36.663,12.999,35.809,22.262,4.948,10.614,15.301
1049,0.784,36.815,13.077,35.818,22.273,5.029,10.899,15.297
1050,0.777,36.884,13.07,35.79,22.255,4.867,10.821,14.727
1051,0.78,36.529,13.015,35.789,22.259,4.865,10.942,14.559
1052,0.79,36.603,12.96,35.799,22.262,4.906,11.065,14.395
1053,0.784,36.709,12.928,35.799,22.262,4.906,11.188,14.23
1054,0.78,36.863,12.912,35.809,22.273,5.028,11.312,14.188
1055,0.78,36.481,12.998,35.761,22.262,4.867,11.272,13.822
1056,0.774,36.602,13.007,35.77,22.262,4.906,11.434,13.737
1057,0.774,36.738,13.081,35.789,22.259,4.865,11.558,13.533
1058,0.78,36.835,12.988,35.789,22.266,4.987,11.722,13.49
1059,0.78,36.462,12.999,35.761,22.259,4.907,11.723,13.245
1060,0.764,36.564,12.983,35.77,22.255,4.825,11.764,12.999
1061,0.774,36.708,13.026,35.76,22.255,4.865,11.805,12.793
1062,0.758,36.758,13.058,35.751,22.252,4.824,11.846,12.588
1063,0.774,36.682,13.054,35.77,22.262,4.905,12.05,12.505
1064,0.774,36.805,13.062,35.77,22.259,4.947,12.174,12.341
1065,0.764,36.941,13.066,35.77,22.262,4.907,12.256,12.217
1066,0.77,37.019,12.945,35.77,22.259,4.906,12.298,11.932
1067,0.767,36.349,12.971,35.722,22.255,4.784,12.339,11.766
1068,0.764,36.524,13.014,35.769,22.266,4.946,12.502,11.724
1069,0.774,36.631,13.042,35.779,22.259,4.947,12.544,11.52
1070,0.793,36.69,13.054,35.799,22.269,5.029,12.707,11.396
1071,0.787,36.518,12.984,35.761,22.252,4.948,12.546,11.07
1072,0.793,36.66,12.948,35.77,22.255,5.029,12.707,10.985
1073,0.8,36.796,12.92,35.76,22.266,4.989,12.79,10.903
1074,0.79,36.816,12.971,35.837,22.262,4.988,12.751,10.739
1075,0.8,36.874,13.003,35.799,22.269,5.029,12.831,10.616
1076,0.777,36.97,13.03,35.741,22.255,4.907,12.629,10.33
1077,0.777,37.077,13.042,35.76,22.266,4.987,12.627,10.327
1078,0.774,36.781,12.96,35.741,22.252,4.907,12.505,10.124
1079,0.767,36.442,12.971,35.75,22.269,4.906,12.544,10.081
1080,0.764,36.563,12.991,35.741,22.255,4.906,12.342,10.04
1081,0.764,36.641,13.018,35.731,22.255,4.865,12.339,9.918
1082,0.764,36.431,13.073,35.76,22.259,4.906,12.136,9.794
1083,0.761,36.525,13.074,35.722,22.248,4.825,11.972,9.59
1084,0.77,36.66,13.086,35.741,22.262,4.946,12.051,9.669
1085,0.767,36.738,13.039,35.731,22.259,4.947,11.93,9.507
1086,0.764,36.336,13.011,35.76,22.262,4.988,11.807,9.546
1087,0.767,36.447,12.983,35.741,22.248,4.948,11.724,9.425
1088,0.767,36.573,13.018,35.712,22.248,4.866,11.561,9.261
1089,0.78,36.689,13.054,35.76,22.262,4.946,11.6,9.3
1090,0.784,36.489,13.027,35.731,22.255,4.907,11.519,9.26
1091,0.78,36.631,12.968,35.76,22.262,5.069,11.559,9.341
1092,0.777,36.738,12.905,35.722,22.259,4.867,11.315,9.016
1093,0.761,36.806,12.955,35.741,22.255,4.987,11.313,9.094
1094,0.783,36.404,12.975,35.731,22.266,4.948,11.272,9.176
1095,0.78,36.515,13.006,35.741,22.259,4.988,11.19,9.299
1096,0.784,36.67,13.038,35.77,22.28,5.11,11.271,9.748
1097,0.764,36.681,13.015,35.703,22.252,4.908,10.906,9.915
1098,0.774,36.326,12.964,35.76,22.255,4.906,10.943,10.445
1099,0.774,36.457,12.967,35.722,22.262,4.987,10.862,10.938
1100,0.771,36.564,12.999,35.721,22.262,4.988,10.82,11.675
1101,0.777,36.641,13.034,35.721,22.269,4.988,10.82,12.618
1102,0.761,36.46,13.058,35.712,22.259,4.866,10.698,13.643
1103,0.757,36.611,13.097,35.741,22.262,4.987,10.616,14.548
1104,0.761,36.709,13.082,35.693,22.259,4.866,10.411,15.37
1105,0.764,36.758,13.078,35.721,22.269,4.987,10.45,16.11
1106,0.767,36.346,13.023,35.721,22.259,4.988,10.328,16.687
1107,0.761,36.486,13.003,35.712,22.255,4.988,10.286,17.14
1108,0.761,36.602,13.018,35.693,22.255,4.948,10.123,17.267
1109,0.757,36.507,13.046,35.712,22.259,4.866,10.081,17.512
1110,0.777,36.516,12.999,35.721,22.276,4.946,10.081,17.88
1111,0.784,36.66,12.925,35.731,22.262,4.907,10.081,18.128
1112,0.793,36.786,12.889,35.76,22.269,5.109,10.243,18.699
1113,0.793,36.413,12.959,35.703,22.252,4.908,10.082,18.827
1114,0.793,36.505,12.979,35.712,22.262,4.947,10.243,19.235
1115,0.79,36.65,12.991,35.721,22.259,4.988,10.326,19.808
1116,0.793,36.748,13.053,35.702,22.266,4.948,10.53,20.79
1117,0.803,36.279,13.031,35.721,22.266,4.988,10.736,22.263
1118,0.774,36.36,13.015,35.702,22.245,4.866,10.738,23.62
1119,0.767,36.515,13.007,35.693,22.255,4.906,10.941,24.934
1120,0.767,36.583,13.05,35.683,22.255,4.906,10.984,25.964
1121,0.767,36.421,13.077,35.683,22.262,4.906,11.228,27.113
1122,0.77,36.553,13.07,35.683,22.262,4.987,11.231,27.774
1123,0.751,36.651,13.074,35.683,22.262,4.948,11.231,28.31
1124,0.764,36.728,13.05,35.692,22.255,4.988,11.312,28.518
1125,0.757,36.279,12.976,35.654,22.252,4.907,11.272,28.561
1126,0.767,36.475,12.975,35.692,22.269,4.987,11.434,28.561
1127,0.77,36.573,12.999,35.683,22.266,4.988,11.314,28.195
1128,0.774,36.632,13.057,35.683,22.262,4.988,11.435,27.785
1129,0.79,36.431,13.019,35.692,22.262,4.948,11.273,27.09
1130,0.784,36.554,12.956,35.664,22.255,4.866,11.312,26.473
1131,0.797,36.718,13.002,35.74,22.262,4.987,11.353,25.898
1132,0.781,36.739,12.976,35.683,22.262,4.988,11.232,25.16
1133,0.784,36.71,12.979,35.702,22.262,5.029,11.271,24.502
1134,0.774,36.825,12.975,35.645,22.259,4.907,11.069,23.52
1135,0.784,36.922,13.022,35.673,22.259,4.947,11.148,22.9
1136,0.787,36.961,13.066,35.683,22.266,4.988,11.149,22.244
1137,0.787,36.175,12.988,35.692,22.259,4.948,11.189,21.668
1138,0.79,36.321,13.01,35.721,22.276,5.069,11.23,21.255
1139,0.777,36.399,12.987,35.635,22.252,4.908,11.027,20.56
1140,0.777,36.4,13.046,35.654,22.262,4.987,11.025,20.35
1141,0.774,36.448,13.093,35.644,22.255,4.907,10.985,19.941
1142,0.764,36.583,13.094,35.702,22.269,5.028,11.025,19.693
1143,0.777,36.699,13.047,35.683,22.266,4.989,11.025,19.284
1144,0.764,36.307,13.023,35.664,22.255,4.948,11.025,18.914
1145,0.777,36.437,12.956,35.673,22.259,4.988,10.985,18.544
1146,0.774,36.554,12.963,35.654,22.255,4.907,10.862,18.175
1147,0.777,36.66,13.002,35.663,22.262,5.028,11.064,18.009
1148,0.767,36.518,13.054,35.663,22.266,4.989,11.026,17.641
1149,0.78,36.66,13.023,35.683,22.259,4.988,11.066,17.475
1150,0.774,36.776,12.999,35.664,22.255,4.907,10.985,17.066
1151,0.787,36.854,12.979,35.654,22.259,4.987,10.862,16.9
1152,0.8,36.088,12.983,35.663,22.266,5.07,10.983,16.573
1153,0.784,36.234,12.999,35.654,22.262,4.867,11.025,16.285
1154,0.787,36.369,13.018,35.682,22.273,5.15,11.147,16.119
1155,0.784,36.419,13.038,35.635,22.248,4.909,10.986,15.63
1156,0.764,36.208,13.023,35.644,22.262,4.906,11.066,15.381
1157,0.78,36.388,12.948,35.644,22.269,4.947,11.229,15.094
1158,0.787,36.496,13.006,35.654,22.262,5.029,11.271,14.847
1159,0.797,36.573,13.046,35.682,22.266,5.03,11.353,14.56
1160,0.774,36.219,13.023,35.644,22.259,4.907,11.354,14.191
1161,0.774,36.369,13.062,35.634,22.259,4.906,11.435,13.944
1162,0.78,36.496,13.062,35.634,22.252,4.865,11.395,13.738
1163,0.771,36.526,13.019,35.654,22.266,5.028,11.558,13.533
1164,0.787,36.2,12.999,35.654,22.266,4.989,11.519,13.368
1165,0.787,36.321,12.894,35.635,22.255,4.988,11.437,13.122
1166,0.806,36.466,12.994,35.644,22.255,4.907,11.314,12.917
1167,0.807,36.765,13.014,35.615,22.248,4.865,11.313,12.792
1168,0.829,36.308,13.062,35.663,22.269,5.028,11.394,12.71
1169,0.826,36.418,13.0,35.644,22.262,4.989,11.273,12.546
1170,0.846,36.553,13.022,35.663,22.269,5.11,11.394,12.545
1171,0.856,36.229,12.991,35.606,22.255,4.949,11.11,12.179
1172,0.856,36.245,13.022,35.644,22.262,4.907,11.067,12.053
1173,0.869,36.389,13.019,35.634,22.269,5.069,11.066,11.971
1174,0.872,36.476,13.03,35.625,22.266,5.03,10.944,11.889
1175,0.895,36.151,13.05,35.673,22.269,5.07,10.943,11.806
1176,0.886,36.225,13.007,35.616,22.255,4.867,10.699,11.48
1177,0.898,36.369,12.991,35.634,22.262,4.906,10.616,11.396
1178,0.899,36.467,12.968,35.615,22.259,4.865,10.574,11.192
1179,0.869,36.122,13.03,35.644,22.262,4.987,10.574,11.23
1180,0.863,36.282,13.046,35.625,22.262,4.988,10.533,10.987
1181,0.843,36.389,13.035,35.606,22.255,4.866,10.451,10.903
1182,0.843,36.476,13.019,35.615,22.259,4.987,10.41,10.739
1183,0.83,36.084,12.96,35.605,22.248,4.907,10.369,10.657
1184,0.843,36.262,12.959,35.644,22.266,4.987,10.49,10.696
1185,0.843,36.389,12.999,35.625,22.259,4.988,10.532,10.575
1186,0.846,36.476,13.011,35.634,22.259,5.07,10.736,10.736
1187,0.843,36.238,13.069,35.596,22.259,4.948,10.616,10.616
1188,0.843,36.36,13.023,35.615,22.255,4.907,10.737,10.615
1189,0.869,36.534,12.948,35.672,22.269,4.987,10.941,10.94
1190,0.892,36.574,12.983,35.635,22.262,4.988,11.024,10.902
1191,0.915,36.277,12.999,35.634,22.269,5.07,11.147,11.024
1192,0.918,36.399,13.011,35.596,22.255,4.867,11.067,10.863
1193,0.931,36.496,13.042,35.624,22.259,4.987,11.148,10.78
1194,0.918,36.554,13.081,35.625,22.262,4.948,11.149,10.82
1195,0.918,36.066,13.101,35.606,22.259,5.029,11.189,10.901
1196,0.912,36.243,13.008,35.653,22.269,5.07,11.312,10.821
1197,0.899,36.312,12.999,35.606,22.252,4.867,11.069,10.657
1198,0.879,36.457,12.995,35.605,22.262,4.946,11.188,10.696
1199,0.879,36.218,13.046,35.586,22.255,4.825,11.149,10.575
1200,0.856,36.36,13.035,35.605,22.266,4.946,11.189,10.533
1201,0.849,36.486,13.003,35.605,22.255,4.947,11.23,10.41
1202,0.843,36.18,12.917,35.605,22.259,4.907,11.231,10.409
1203,0.853,36.215,12.908,35.605,22.259,4.987,11.231,10.328
1204,0.853,36.35,12.881,35.596,22.252,4.907,11.109,10.246
1205,0.872,36.486,12.97,35.615,22.266,4.947,11.23,10.286
1206,0.859,36.132,13.006,35.586,22.255,4.947,11.068,10.123
1207,0.859,36.244,13.054,35.615,22.262,5.069,11.148,10.122
1208,0.866,36.37,12.984,35.586,22.248,4.989,10.904,9.878
1209,0.869,36.467,13.003,35.615,22.259,4.948,10.943,9.957
1210,0.866,36.151,13.018,35.625,22.259,4.947,10.984,9.876
1211,0.859,36.292,13.023,35.615,22.262,4.947,10.984,9.876
1212,0.849,36.466,13.058,35.625,22.269,5.069,10.944,9.835
1213,0.823,36.477,13.054,35.586,22.252,4.826,10.781,9.875
1214,0.817,35.998,13.074,35.586,22.255,4.905,10.738,10.689
1215,0.82,36.166,13.058,35.576,22.255,4.865,10.657,11.632
1216,0.813,36.321,12.999,35.643,22.262,4.906,10.737,12.902
1217,0.807,36.351,12.987,35.606,22.262,4.987,10.738,14.053
1218,0.8,36.131,13.026,35.586,22.252,4.866,10.657,15.528
1219,0.813,36.282,13.062,35.596,22.252,4.906,10.574,17.86
1220,0.813,36.399,13.023,35.567,22.248,4.744,10.411,20.892
1221,0.823,36.486,12.968,35.605,22.259,4.986,10.572,24.175
1222,0.81,36.017,13.002,35.605,22.259,4.948,10.411,26.851
1223,0.8,36.166,12.901,35.625,22.273,4.947,10.409,28.951
1224,0.797,36.273,12.975,35.586,22.255,4.907,10.287,30.273
1225,0.8,36.293,12.995,35.576,22.252,4.947,10.164,31.262
1226,0.826,36.236,13.05,35.605,22.262,4.907,10.163,31.882
1227,0.833,36.341,13.035,35.596,22.269,4.947,10.041,32.01
1228,0.843,36.534,12.972,35.653,22.269,5.11,10.121,32.011
1229,0.83,36.344,12.991,35.577,22.248,4.827,9.878,31.442
1230,0.826,36.073,13.022,35.605,22.259,4.905,9.916,31.03
1231,0.843,36.214,13.062,35.596,22.266,4.947,9.916,30.375
1232,0.839,36.321,13.101,35.596,22.259,4.947,9.876,29.718
1233,0.843,36.169,13.101,35.644,22.269,5.069,9.876,29.061
1234,0.823,36.206,13.047,35.567,22.252,4.867,9.713,28.119
1235,0.826,36.369,13.015,35.567,22.259,4.946,9.752,27.418
1236,0.813,36.476,12.999,35.586,22.266,4.907,9.752,26.68
1237,0.797,36.017,12.999,35.596,22.266,4.987,9.752,26.062
1238,0.794,36.166,13.069,35.605,22.262,4.988,9.793,25.406
1239,0.754,36.244,13.05,35.567,22.255,4.907,9.671,24.83
1240,0.78,36.36,13.003,35.576,22.262,4.906,9.751,24.54
1241,0.758,36.035,12.94,35.576,22.252,4.865,9.712,24.171
1242,0.735,36.166,12.975,35.595,22.262,5.028,9.874,24.126
1243,0.741,36.292,12.995,35.586,22.262,4.989,9.835,24.045
1244,0.741,36.351,12.983,35.576,22.262,4.948,9.875,23.841
1245,0.757,36.102,12.995,35.586,22.252,4.988,9.753,23.513
1246,0.741,36.215,13.061,35.538,22.255,4.866,9.752,23.266
1247,0.747,36.369,13.019,35.586,22.269,4.946,9.955,22.938
1248,0.747,36.428,13.011,35.576,22.262,4.947,9.795,22.569
1249,0.754,36.18,13.007,35.586,22.269,5.11,10.037,22.321
1250,0.757,36.321,13.042,35.567,22.262,4.908,9.918,21.669
1251,0.754,36.437,13.077,35.567,22.262,4.987,9.916,21.337
1252,0.754,36.496,13.105,35.576,22.266,5.029,9.957,20.967
1253,0.764,36.008,13.082,35.576,22.262,5.03,9.957,20.557
1254,0.767,36.166,13.062,35.605,22.273,5.111,10.039,20.228
1255,0.741,36.235,12.949,35.567,22.255,4.908,9.918,19.615
1256,0.747,36.264,12.987,35.576,22.255,4.947,9.998,19.243
1257,0.754,36.149,13.022,35.576,22.255,5.029,10.08,18.751
1258,0.748,36.273,13.073,35.576,22.262,5.07,10.162,18.38
1259,0.747,36.418,13.023,35.586,22.266,5.03,10.244,17.97
1260,0.741,36.16,12.952,35.538,22.262,4.989,10.245,17.478
1261,0.747,36.033,12.975,35.576,22.259,4.988,10.448,17.107
1262,0.741,36.147,12.991,35.557,22.248,4.907,10.45,16.656
1263,0.747,36.292,13.038,35.567,22.262,4.987,10.654,16.489
1264,0.744,36.025,13.062,35.586,22.259,5.029,10.696,16.081
1265,0.751,36.128,13.054,35.567,22.259,4.989,10.778,15.792
1266,0.748,36.234,13.046,35.557,22.259,4.948,10.779,15.342
1267,0.744,36.331,12.972,35.547,22.248,4.947,10.779,15.093
1268,0.764,35.977,13.006,35.566,22.262,4.988,10.982,14.928
1269,0.761,36.098,13.022,35.567,22.259,5.07,10.944,14.724
1270,0.77,36.243,13.054,35.595,22.269,5.111,11.106,14.681
1271,0.761,36.293,13.054,35.548,22.255,4.949,10.904,14.355
1272,0.767,35.986,13.023,35.557,22.262,5.029,10.943,14.352
1273,0.77,36.146,13.05,35.586,22.259,4.989,11.024,14.23
1274,0.754,36.254,13.031,35.576,22.259,4.988,11.025,14.228
1275,0.767,36.36,12.995,35.605,22.269,5.151,11.107,14.107
1276,0.744,36.073,12.983,35.548,22.259,4.909,10.863,13.983
1277,0.76,36.243,13.026,35.547,22.259,4.987,10.942,13.86
1278,0.754,36.37,13.066,35.538,22.262,4.907,10.902,13.737
1279,0.751,36.419,13.003,35.557,22.269,5.028,10.943,13.614
1280,0.748,35.949,13.015,35.595,22.262,5.03,10.943,13.531
1281,0.747,36.098,12.991,35.529,22.255,4.948,10.902,13.327
1282,0.741,36.205,13.003,35.547,22.255,4.947,10.821,13.203
1283,0.747,36.245,12.999,35.509,22.248,4.866,10.779,12.958
1284,0.757,36.063,13.03,35.547,22.262,5.028,10.982,13.037
1285,0.754,36.205,13.066,35.538,22.259,4.948,10.903,12.875
1286,0.754,36.312,13.078,35.547,22.266,5.029,11.024,12.873
1287,0.757,36.332,12.992,35.538,22.259,4.907,10.944,12.548
1288,0.754,36.073,12.972,35.528,22.259,4.987,10.984,12.504
1289,0.764,36.224,13.03,35.557,22.259,4.988,11.066,12.423
1290,0.764,36.321,13.062,35.547,22.262,4.988,11.026,12.3
1291,0.79,36.092,13.093,35.576,22.269,5.07,11.147,12.298
1292,0.774,35.984,13.051,35.538,22.252,4.867,10.945,11.892
1293,0.771,36.137,13.046,35.547,22.255,4.987,11.024,11.888
1294,0.757,36.225,12.984,35.538,22.266,5.029,10.985,11.725
1295,0.754,36.043,12.921,35.547,22.255,5.03,11.106,11.683
1296,0.757,36.185,12.975,35.538,22.255,4.989,11.067,11.52
1297,0.757,36.263,13.026,35.528,22.262,4.866,10.944,11.355
1298,0.754,36.36,13.046,35.528,22.255,4.987,10.984,11.232
1299,0.751,35.891,12.976,35.499,22.252,4.866,10.862,10.946
1300,0.751,36.05,13.003,35.528,22.259,5.028,11.024,10.984
1301,0.748,36.185,12.972,35.518,22.255,5.03,10.903,10.822
1302,0.741,36.263,13.003,35.528,22.259,5.03,10.943,10.779
1303,0.744,36.005,13.022,35.528,22.255,4.989,10.862,10.616
1304,0.747,36.127,13.03,35.518,22.255,4.988,10.82,10.452
1305,0.751,36.263,13.062,35.528,22.266,5.029,10.779,10.45
1306,0.754,36.341,13.039,35.528,22.262,4.989,10.698,10.328
1307,0.767,36.073,13.023,35.557,22.273,5.07,10.778,10.327
1308,0.761,36.186,12.984,35.528,22.259,4.908,10.494,10.083
1309,0.777,36.311,12.999,35.518,22.259,5.028,10.491,10.121
1310,0.8,36.37,13.077,35.537,22.262,4.989,10.491,10.081
1311,0.8,36.006,13.082,35.509,22.266,5.029,10.532,10.162
1312,0.81,36.156,13.035,35.547,22.266,4.907,10.41,10.082
1313,0.8,36.225,12.999,35.509,22.255,4.987,10.369,9.999
1314,0.8,36.274,12.944,35.537,22.262,4.988,10.368,10.08
1315,0.803,36.034,12.979,35.49,22.252,4.785,10.287,10.121
1316,0.82,36.195,12.956,35.537,22.266,4.986,10.408,10.691
1317,0.826,36.302,13.022,35.509,22.259,4.988,10.409,11.429
1318,0.839,36.639,13.058,35.528,22.266,5.029,10.491,12.574
1319,0.862,35.98,12.953,35.499,22.252,4.989,10.247,13.48
1320,0.885,36.118,12.967,35.499,22.252,4.907,10.367,14.668
1321,0.931,36.244,13.014,35.528,22.269,4.987,10.368,16.388
1322,0.938,36.015,13.034,35.509,22.266,4.907,10.409,18.804
1323,0.961,36.06,13.062,35.556,22.28,5.069,10.45,21.715
1324,0.974,36.147,13.054,35.499,22.259,4.908,10.247,24.184
1325,1.02,36.263,13.093,35.499,22.262,4.947,10.286,26.404
1326,1.069,35.938,13.035,35.518,22.266,4.947,10.327,28.215
1327,1.095,36.04,13.007,35.528,22.266,4.988,10.286,29.574
1328,1.161,36.205,12.999,35.547,22.266,5.029,10.245,30.442
1329,1.178,36.245,13.026,35.48,22.259,4.867,10.164,31.02
1330,1.201,36.005,13.077,35.518,22.262,4.987,10.163,31.473
1331,1.23,36.108,13.043,35.499,22.252,4.907,10.0,31.477
1332,1.25,36.272,13.058,35.528,22.269,4.987,10.121,31.477
1333,1.227,36.351,12.984,35.509,22.269,4.988,10.122,31.071
1334,1.211,35.901,12.96,35.509,22.266,4.907,10.0,30.579
1335,1.194,36.04,12.987,35.499,22.259,4.987,9.917,29.882
1336,1.136,36.166,12.971,35.489,22.248,4.907,9.835,29.022
1337,1.119,36.263,13.022,35.528,22.259,5.028,9.916,28.403
1338,1.158,35.938,13.003,35.518,22.259,5.07,9.835,27.503
1339,1.165,36.088,12.964,35.528,22.269,5.111,9.956,26.802
1340,1.171,36.205,12.963,35.48,22.252,5.03,9.714,25.82
1341,1.214,36.245,12.987,35.499,22.259,4.948,9.711,25.2
1342,1.292,35.948,13.026,35.518,22.262,5.029,9.792,24.624
1343,1.303,36.108,13.081,35.509,22.262,5.03,9.712,24.09
1344,1.312,36.244,13.109,35.537,22.273,5.151,9.792,23.8
1345,1.319,36.226,13.105,35.49,22.259,4.99,9.509,23.066
1346,1.29,36.053,13.043,35.499,22.262,4.948,9.587,22.692
1347,1.283,36.195,13.027,35.508,22.266,5.029,9.547,22.242
1348,1.244,36.312,13.023,35.509,22.262,5.07,9.547,21.952
1349,1.205,36.437,13.034,35.528,22.266,5.03,9.547,21.502
1350,1.116,35.978,13.058,35.499,22.259,4.989,9.344,21.051
1351,1.073,36.137,13.027,35.489,22.266,4.988,9.423,20.843
1352,0.998,36.234,12.98,35.48,22.252,4.948,9.261,20.637
1353,0.913,36.12,12.967,35.489,22.266,5.029,9.422,20.838
1354,0.811,36.196,12.932,35.499,22.259,5.07,9.342,20.922
1355,0.706,36.302,12.975,35.489,22.259,5.03,9.26,21.126
1356,0.64,36.408,12.983,35.489,22.259,4.907,9.178,21.169
1357,0.59,35.863,13.053,35.47,22.252,4.906,9.177,21.372
1358,0.58,35.992,13.027,35.508,22.262,4.987,9.177,21.497
1359,0.551,36.127,12.987,35.489,22.259,4.988,9.299,21.376
1360,0.544,36.215,13.003,35.508,22.269,5.029,9.423,21.334
1361,0.544,35.909,12.987,35.47,22.255,4.907,9.302,21.008
1362,0.547,36.059,13.018,35.479,22.262,4.987,9.585,20.802
1363,0.576,36.195,13.05,35.499,22.269,5.029,9.751,20.637
1364,0.606,36.273,13.077,35.48,22.259,5.03,9.915,20.31
1365,0.655,35.958,13.082,35.508,22.276,5.111,10.201,20.103
1366,0.662,36.079,13.023,35.451,22.255,4.989,10.163,19.613
1367,0.695,36.205,13.019,35.479,22.255,4.988,10.407,19.283
1368,0.727,36.283,12.999,35.47,22.259,5.029,10.572,18.873
1369,0.767,35.91,13.026,35.489,22.262,4.989,10.736,18.625
1370,0.826,36.069,13.069,35.489,22.266,5.029,10.86,18.257
1371,0.83,36.166,13.046,35.46,22.252,4.907,10.861,17.847
1372,0.843,36.206,12.984,35.47,22.259,4.906,10.902,17.477
1373,0.846,36.014,12.94,35.451,22.252,4.906,10.861,17.066
1374,0.856,36.185,12.936,35.489,22.259,5.069,11.146,16.778
1375,0.843,36.292,12.967,35.46,22.255,5.03,11.026,16.45
1376,0.836,36.313,12.963,35.47,22.259,4.989,11.025,16.08
1377,0.839,35.939,13.057,35.451,22.259,4.988,10.985,15.752
1378,0.82,36.04,12.999,35.46,22.255,4.907,10.944,15.382
1379,0.833,36.205,12.999,35.546,22.262,4.947,10.943,15.216
1380,0.813,36.187,12.987,35.471,22.266,5.029,10.943,14.889
1381,0.81,35.976,13.034,35.489,22.262,5.03,10.902,14.723
1382,0.8,36.118,13.038,35.46,22.259,4.826,10.739,14.315
1383,0.803,36.234,13.054,35.46,22.262,4.946,10.738,14.108
1384,0.813,35.957,13.081,35.479,22.266,4.947,10.738,13.983
1385,0.807,36.031,13.089,35.48,22.259,4.988,10.616,13.698
1386,0.813,36.176,13.008,35.508,22.269,5.11,10.737,13.532
1387,0.813,36.235,12.995,35.461,22.255,4.908,10.453,13.205
1388,0.82,35.842,13.018,35.47,22.255,4.947,10.369,13.039
1389,0.826,35.963,13.058,35.47,22.262,4.947,10.368,12.794
1390,0.826,36.089,13.039,35.47,22.262,4.947,10.368,12.669
1391,0.839,36.205,13.027,35.499,22.259,4.988,10.246,12.424
1392,0.823,35.918,12.98,35.451,22.255,4.948,10.123,12.218
1393,0.82,36.05,12.964,35.479,22.252,4.988,10.041,12.054
1394,0.81,36.205,12.936,35.451,22.255,4.866,9.836,11.808
1395,0.81,36.283,12.975,35.489,22.259,5.109,9.997,11.765
1396,0.807,35.843,13.026,35.46,22.259,4.989,9.836,11.561
1397,0.803,35.972,13.042,35.46,22.255,4.988,9.834,11.437
1398,0.807,36.127,12.999,35.46,22.259,4.948,9.753,11.233
1399,0.794,36.148,13.003,35.431,22.255,4.825,9.63,10.946
1400,0.797,35.928,12.983,35.469,22.269,4.987,9.751,10.984
1401,0.79,36.069,12.999,35.47,22.255,4.988,9.752,10.862
1402,0.813,36.186,13.022,35.479,22.266,5.07,9.752,10.82
1403,0.797,36.216,13.069,35.451,22.255,4.948,9.59,10.576
1404,0.813,35.919,13.058,35.479,22.262,4.907,9.669,10.492
1405,0.813,36.059,13.062,35.48,22.262,4.987,9.711,10.451
1406,0.816,36.176,12.98,35.48,22.262,4.988,9.833,10.41
1407,0.833,36.225,13.003,35.489,22.266,5.07,9.834,10.287
1408,0.817,35.938,13.026,35.441,22.252,4.867,9.834,10.083
1409,0.82,36.088,13.085,35.46,22.252,4.987,9.956,10.121
1410,0.83,36.186,13.039,35.451,22.252,4.907,9.917,9.919
1411,0.83,36.129,12.984,35.47,22.262,4.987,10.079,9.998
1412,0.839,36.052,12.956,35.47,22.255,4.988,10.081,9.836
1413,0.823,36.166,12.944,35.46,22.255,4.988,10.081,9.712
1414,0.826,36.283,12.975,35.508,22.255,4.907,10.162,9.63
1415,0.817,35.804,12.983,35.441,22.248,4.906,10.122,9.466
1416,0.829,35.924,13.049,35.479,22.269,5.028,10.244,9.505
1417,0.826,36.05,13.05,35.46,22.255,4.989,10.204,9.546
1418,0.817,36.166,13.003,35.489,22.262,5.07,10.204,10.238
1419,0.813,35.822,12.999,35.451,22.259,4.867,10.082,11.384
1420,0.807,35.963,12.991,35.45,22.259,4.946,10.121,13.062
1421,0.82,36.108,13.022,35.45,22.259,4.988,10.163,14.786
1422,0.807,36.186,13.054,35.46,22.262,4.988,10.204,16.47
1423,0.816,36.005,13.124,35.489,22.273,5.151,10.448,18.602
1424,0.813,36.118,13.094,35.451,22.255,4.868,10.41,21.225
1425,0.826,36.244,13.086,35.431,22.259,4.946,10.653,24.748
1426,0.83,36.341,13.035,35.479,22.262,4.947,10.818,27.995
1427,0.823,35.853,12.988,35.47,22.266,4.988,11.105,30.67
1428,0.83,36.011,13.026,35.489,22.266,4.988,11.351,32.567
1429,0.826,36.099,13.054,35.46,22.252,4.907,11.476,33.765
1430,0.823,36.167,13.003,35.46,22.259,4.987,11.721,34.468
1431,0.826,35.803,12.937,35.431,22.252,4.866,11.846,34.638
1432,0.833,35.962,12.889,35.469,22.266,4.987,12.009,34.68
1433,0.839,36.089,12.97,35.499,22.259,4.988,12.133,34.233
1434,0.839,36.09,12.991,35.451,22.266,5.029,12.256,33.66
1435,0.846,36.368,13.022,35.46,22.255,4.948,12.217,32.678
1436,0.83,36.467,13.073,35.441,22.252,4.907,12.257,31.774
1437,0.843,36.631,13.046,35.479,22.259,4.987,12.298,30.87
1438,0.839,36.642,13.035,35.508,22.266,4.988,12.298,29.845
1439,0.843,35.616,12.995,35.47,22.269,5.029,12.339,28.899
1440,0.836,35.711,13.011,35.431,22.259,4.907,12.095,27.629
1441,0.83,35.846,13.038,35.441,22.262,4.987,12.052,26.56
1442,0.83,36.001,13.062,35.45,22.269,4.988,12.093,25.614
1443,0.833,36.06,13.046,35.45,22.262,4.988,11.971,24.669
1444,0.849,36.224,13.066,35.479,22.269,5.151,12.011,24.009
1445,0.84,36.283,12.968,35.432,22.255,4.827,11.767,23.149
1446,0.849,35.804,12.983,35.441,22.259,4.905,11.764,22.815
1447,0.862,35.886,12.999,35.441,22.262,4.987,11.724,22.568
1448,0.853,36.002,13.046,35.45,22.262,4.948,11.764,22.525
1449,0.869,36.127,13.054,35.45,22.259,4.988,11.724,22.443
1450,0.843,35.851,12.953,35.431,22.252,4.866,11.683,22.239
1451,0.859,35.992,12.991,35.489,22.255,4.906,11.642,22.034
1452,0.846,36.089,12.968,35.422,22.259,4.784,11.438,21.706
1453,0.853,36.195,12.983,35.431,22.259,4.986,11.599,21.703
1454,0.859,35.755,12.999,35.422,22.262,4.988,11.56,21.337
1455,0.849,35.876,13.038,35.421,22.259,4.948,11.478,21.211
1456,0.846,35.992,13.073,35.402,22.255,4.866,11.436,21.007
1457,0.843,36.06,12.988,35.412,22.252,4.824,11.477,20.842
1458,0.866,35.86,13.007,35.441,22.262,4.987,11.599,20.8
1459,0.849,35.992,13.015,35.431,22.266,4.907,11.519,20.555
1460,0.836,36.118,13.058,35.431,22.262,4.947,11.681,20.309
1461,0.839,36.167,13.081,35.393,22.259,4.866,11.56,19.982
1462,0.83,35.765,13.074,35.392,22.262,4.865,11.64,19.653
1463,0.852,35.924,13.035,35.421,22.262,4.987,11.641,19.406
1464,0.849,36.06,13.03,35.412,22.262,4.907,11.641,19.078
1465,0.843,36.118,12.972,35.46,22.266,5.028,11.763,18.831
1466,0.849,35.908,12.975,35.403,22.252,4.785,11.642,18.259
1467,0.849,36.05,12.991,35.402,22.259,4.905,11.723,18.009
1468,0.862,36.176,13.053,35.431,22.262,4.987,11.764,17.641
1469,0.859,36.359,13.011,35.431,22.262,4.907,11.724,17.353
1470,0.875,35.863,12.976,35.46,22.273,5.028,11.723,17.065
1471,0.872,35.934,12.991,35.403,22.252,4.867,11.52,16.574
1472,0.869,36.069,12.991,35.412,22.255,4.865,11.518,16.244
1473,0.869,35.908,12.995,35.421,22.259,4.906,11.477,15.834
1474,0.872,35.915,13.026,35.412,22.262,4.947,11.396,15.708
1475,0.882,36.079,13.066,35.421,22.259,4.988,11.232,15.341
1476,0.866,36.128,13.046,35.374,22.255,4.866,11.149,15.134
1477,0.869,35.716,12.984,35.411,22.259,4.824,11.149,14.929
1478,0.859,35.798,12.995,35.383,22.255,4.824,10.986,14.724
1479,0.879,35.962,13.026,35.411,22.255,4.946,10.984,14.64
1480,0.866,36.041,13.066,35.393,22.262,4.866,10.944,14.395
1481,0.849,35.869,13.074,35.392,22.248,4.906,10.781,14.271
1482,0.856,36.021,13.089,35.373,22.259,4.865,10.657,13.945
1483,0.849,36.128,13.012,35.373,22.245,4.824,10.656,13.778
1484,0.866,36.234,12.999,35.431,22.269,4.905,10.737,13.818
1485,0.866,35.689,12.858,35.412,22.255,4.865,10.697,13.615
1486,0.866,35.827,12.966,35.412,22.269,4.987,10.737,13.572
1487,0.862,35.934,13.03,35.383,22.259,4.826,10.575,13.206
1488,0.859,36.002,13.062,35.373,22.255,4.824,10.696,13.08
1489,0.882,35.792,12.984,35.421,22.262,4.905,10.819,12.997
1490,0.879,35.924,13.003,35.412,22.259,4.906,10.82,12.834
1491,0.895,36.069,12.995,35.431,22.259,5.028,10.983,12.873
1492,0.886,36.09,12.999,35.393,22.252,4.867,10.781,12.467
1493,0.882,35.802,13.046,35.402,22.255,4.906,10.82,12.259
1494,0.892,35.943,13.062,35.402,22.262,4.947,10.901,12.135
1495,0.892,36.06,13.027,35.412,22.255,4.866,10.943,12.053
1496,0.892,36.138,13.03,35.431,22.269,5.028,10.943,11.849
1497,0.882,35.716,13.011,35.383,22.255,4.826,10.821,11.562
1498,0.885,35.875,13.003,35.392,22.262,4.905,10.983,11.437
1499,0.895,35.973,13.046,35.392,22.255,4.865,10.944,11.273
1500,0.882,36.242,13.085,35.412,22.262,4.946,11.065,11.15
1501,0.889,35.804,13.082,35.402,22.259,4.907,10.985,10.945
1502,0.879,35.905,13.023,35.383,22.262,4.865,10.984,10.821
1503,0.885,36.031,13.015,35.383,22.259,4.906,10.944,10.698
1504,0.882,35.667,12.96,35.364,22.252,4.825,10.781,10.534
1505,0.885,35.75,13.002,35.411,22.269,4.987,10.901,10.492
1506,0.895,35.866,12.983,35.393,22.255,4.907,10.861,10.329
1507,0.895,35.973,13.053,35.392,22.269,4.987,10.942,10.246
1508,0.905,35.638,13.019,35.383,22.255,4.907,10.659,10.042
1509,0.895,35.74,12.968,35.411,22.255,4.987,10.696,9.958
1510,0.912,35.895,12.975,35.402,22.266,4.988,10.737,9.876
1511,0.925,35.983,12.967,35.392,22.262,4.948,10.575,9.794
1512,0.935,35.782,13.014,35.44,22.269,5.069,10.696,9.834
1513,0.909,35.866,13.042,35.374,22.259,4.826,10.534,9.509
1514,0.918,36.021,13.05,35.373,22.255,4.946,10.573,9.425
1515,0.912,36.099,13.093,35.383,22.255,4.866,10.533,9.342
1516,0.912,35.563,13.019,35.402,22.259,4.987,10.614,9.708
1517,0.912,35.749,13.011,35.383,22.262,4.907,10.533,9.955
1518,0.892,35.837,12.98,35.392,22.248,4.825,10.451,10.364
1519,0.895,35.924,13.049,35.373,22.255,4.905,10.369,10.775
1520,0.892,35.695,13.054,35.373,22.252,4.865,10.246,11.267
1521,0.908,35.865,13.035,35.383,22.259,4.946,10.367,12.329
1522,0.899,35.982,12.968,35.392,22.255,4.907,10.287,13.722
1523,0.902,36.031,12.921,35.383,22.262,4.947,10.327,15.159
1524,0.895,35.744,12.908,35.392,22.255,4.866,10.205,16.637
1525,0.899,35.856,12.998,35.373,22.255,4.865,10.204,17.912
1526,0.912,36.001,13.046,35.392,22.269,4.906,10.285,19.104
1527,0.912,36.041,13.077,35.392,22.262,4.906,10.327,19.929
1528,0.922,35.744,12.984,35.392,22.269,4.987,10.449,20.628
1529,0.915,35.847,13.01,35.383,22.252,4.866,10.288,20.92
1530,0.938,35.982,13.003,35.392,22.259,4.906,10.408,21.207
1531,0.938,36.031,13.022,35.383,22.262,4.947,10.328,21.535
1532,0.928,35.821,13.05,35.383,22.269,4.947,10.286,21.701
1533,0.925,35.982,13.077,35.411,22.269,5.029,10.408,21.906
1534,0.899,36.041,13.07,35.354,22.259,4.867,10.287,21.746
1535,0.912,35.754,13.054,35.382,22.252,4.865,10.367,21.907
1536,0.912,35.828,12.933,35.373,22.248,4.824,10.287,22.071
1537,0.935,35.972,12.99,35.383,22.266,4.946,10.408,22.601
1538,0.931,36.06,13.003,35.373,22.262,4.988,10.409,22.891
1539,0.925,35.658,13.073,35.354,22.259,4.907,10.369,23.097
1540,0.928,35.779,13.035,35.354,22.255,4.906,10.287,23.343
1541,0.922,35.895,12.991,35.344,22.252,4.825,10.205,23.386
1542,0.938,36.021,12.948,35.373,22.266,4.946,10.326,23.59
1543,0.928,35.677,12.913,35.383,22.259,4.866,10.327,23.673
1544,0.935,35.808,12.967,35.373,22.262,4.906,10.286,23.552
1545,0.935,35.953,12.963,35.354,22.259,4.865,10.245,23.429
1546,0.918,36.002,13.03,35.325,22.252,4.784,10.204,23.184
1547,0.938,35.792,13.054,35.353,22.259,4.946,10.326,23.019
1548,0.928,35.924,12.957,35.354,22.269,4.947,10.327,22.651
1549,0.931,36.06,12.998,35.382,22.266,4.988,10.449,22.322
1550,0.931,36.109,13.003,35.364,22.255,4.907,10.328,21.75
1551,0.925,35.726,13.069,35.354,22.255,4.906,10.408,21.297
1552,0.931,35.894,13.093,35.373,22.269,4.987,10.369,20.764
1553,0.922,36.011,13.094,35.383,22.259,4.988,10.409,20.23
1554,0.944,36.08,13.066,35.402,22.276,5.151,10.572,19.859
1555,0.938,35.879,13.019,35.345,22.255,4.909,10.33,19.083
1556,0.948,36.021,13.003,35.344,22.262,4.947,10.327,18.587
1557,0.958,36.156,12.96,35.354,22.262,4.947,10.408,18.175
1558,0.961,36.167,13.03,35.363,22.259,4.907,10.369,17.724
1559,0.964,35.841,13.046,35.373,22.273,4.987,10.409,17.231
1560,0.945,35.934,12.984,35.325,22.259,4.866,10.206,16.698
1561,0.932,36.088,12.964,35.334,22.255,4.906,10.204,16.408
1562,0.931,36.061,12.987,35.353,22.252,4.865,10.204,15.917
1563,0.951,35.994,12.987,35.363,22.262,4.946,10.245,15.75
1564,0.964,36.118,12.991,35.335,22.266,4.988,10.164,15.382
1565,0.955,36.215,12.983,35.344,22.262,4.948,10.122,15.094
1566,0.948,35.947,13.061,35.334,22.255,4.947,10.0,14.766
1567,0.938,36.002,13.003,35.296,22.245,4.825,9.958,14.397
1568,0.967,36.156,13.007,35.344,22.266,4.987,9.957,14.19
1569,0.964,36.254,13.007,35.334,22.259,5.029,9.957,13.984
1570,0.961,35.948,13.046,35.353,22.255,4.948,9.998,13.738
1571,0.974,36.079,13.066,35.325,22.255,4.866,9.795,13.451
1572,0.964,36.186,13.074,35.315,22.252,4.946,9.834,13.408
1573,0.977,36.311,13.082,35.334,22.262,4.947,9.834,13.245
1574,0.968,36.063,13.043,35.344,22.259,4.947,9.794,13.121
1575,0.964,36.243,12.98,35.354,22.266,5.029,9.915,13.282
1576,0.961,36.322,12.979,35.325,22.252,4.826,9.672,13.162
1577,0.961,36.418,13.003,35.325,22.255,4.865,9.67,13.161
1578,0.964,36.132,13.05,35.334,22.259,5.028,9.751,13.283
1579,0.948,36.273,12.984,35.325,22.259,4.907,9.712,13.284
1580,0.958,36.427,12.971,35.353,22.276,5.069,9.792,13.406
1581,0.954,36.448,12.979,35.296,22.259,4.826,9.631,13.204
1582,0.961,36.343,12.975,35.324,22.252,4.783,9.67,13.202
1583,0.958,36.476,13.003,35.325,22.259,4.824,9.629,13.121
1584,0.961,36.602,13.034,35.325,22.266,4.905,9.751,13.16
1585,0.974,36.661,13.062,35.325,22.259,4.947,9.833,13.08
1586,0.964,36.422,13.062,35.296,22.252,4.866,9.753,13.038
1587,0.968,36.563,12.945,35.324,22.259,4.906,9.752,12.875
1588,0.968,36.68,12.971,35.296,22.248,4.825,9.793,12.629
1589,0.971,36.729,13.014,35.324,22.262,4.987,9.915,12.749
1590,0.977,36.499,13.05,35.315,22.266,4.907,9.835,12.547
1591,0.984,36.621,13.074,35.325,22.259,4.906,9.916,12.464
1592,0.981,36.728,13.035,35.296,22.259,4.947,9.876,12.219
1593,0.974,36.652,13.015,35.296,22.255,4.866,9.916,12.013
1594,0.984,36.671,12.987,35.334,22.269,4.906,9.957,11.97
1595,0.974,36.796,13.03,35.382,22.262,4.906,9.957,11.848
1596,0.984,36.912,13.015,35.335,22.269,5.069,10.08,11.847
1597,0.974,36.549,13.054,35.306,22.248,4.826,9.959,11.481
1598,0.971,36.651,13.027,35.315,22.255,4.865,9.998,11.436
1599,0.981,36.805,12.96,35.315,22.269,4.946,10.161,11.314
1600,0.984,36.903,12.999,35.315,22.259,4.866,10.163,11.232
1601,0.978,36.693,13.007,35.353,22.262,5.028,10.244,11.109
1602,0.955,36.786,13.011,35.296,22.252,4.948,10.164,10.904
1603,0.967,36.941,13.054,35.324,22.259,4.947,10.366,10.861
1604,0.961,37.019,13.07,35.305,22.255,4.866,10.328,10.617
1605,0.981,36.799,13.089,35.305,22.259,4.987,10.449,10.655
1606,0.987,36.95,12.988,35.296,22.255,4.907,10.532,10.493
1607,0.968,37.057,12.979,35.276,22.255,4.906,10.532,10.41
1608,0.977,37.135,13.007,35.295,22.255,4.947,10.492,10.328
1609,0.977,36.81,13.046,35.286,22.248,4.866,10.491,10.165
1610,0.994,36.979,13.066,35.305,22.262,4.987,10.654,10.326
1611,0.984,37.077,13.0,35.315,22.262,4.988,10.656,10.205
1612,0.997,37.145,12.96,35.315,22.269,4.988,10.574,10.204
1613,0.974,36.925,12.92,35.296,22.259,4.907,10.411,9.96
1614,0.977,37.067,12.928,35.296,22.259,4.906,10.45,10.08
1615,0.984,37.222,12.975,35.296,22.269,4.987,10.41,10.365
1616,0.971,37.252,13.018,35.315,22.262,4.907,10.409,10.897
1617,0.994,37.099,13.073,35.325,22.273,5.069,10.491,11.593
1618,0.961,37.184,13.0,35.286,22.255,4.867,10.207,12.007
1619,0.971,37.299,12.983,35.295,22.259,4.865,10.245,12.661
1620,0.964,37.349,13.018,35.305,22.259,4.987,10.164,13.644
1621,0.951,37.129,13.026,35.296,22.269,4.988,10.204,15.117
1622,0.958,37.289,13.101,35.334,22.269,5.07,10.204,16.84
1623,0.935,37.349,13.07,35.286,22.252,4.908,10.123,18.442
1624,0.941,37.119,13.062,35.295,22.259,4.906,10.244,19.8
1625,0.945,37.088,13.007,35.267,22.259,4.865,10.204,20.83
1626,0.967,37.231,12.96,35.314,22.262,4.987,10.407,21.857
1627,0.977,37.329,12.975,35.296,22.262,4.988,10.409,22.396
1628,0.971,37.09,13.003,35.296,22.255,4.988,10.328,22.686
1629,0.974,37.193,13.057,35.286,22.255,4.948,10.408,22.851
1630,0.968,37.29,13.011,35.257,22.252,4.825,10.369,22.731
1631,0.984,37.425,12.972,35.295,22.262,4.987,10.612,22.73
1632,0.974,37.177,12.897,35.296,22.259,4.948,10.533,22.445
1633,0.971,37.29,12.877,35.315,22.266,5.029,10.492,22.239
1634,0.955,37.406,12.966,35.267,22.259,4.907,10.369,21.668
1635,0.951,37.503,12.971,35.286,22.255,4.987,10.409,21.255
1636,0.958,37.121,13.038,35.295,22.266,5.029,10.409,20.845
1637,0.935,37.241,13.038,35.296,22.262,4.989,10.369,20.271
1638,0.938,37.415,13.019,35.372,22.28,5.07,10.409,19.94
1639,0.922,37.426,13.003,35.277,22.255,4.867,10.247,19.287
1640,0.925,37.225,13.038,35.286,22.255,4.906,10.245,19.036
1641,0.931,37.377,13.07,35.286,22.255,4.947,10.245,18.749
1642,0.935,37.512,13.093,35.295,22.269,4.947,10.286,18.583
1643,0.931,37.571,13.086,35.296,22.259,5.029,10.367,18.419
1644,0.922,37.15,13.023,35.276,22.255,4.826,10.328,18.214
1645,0.922,37.309,12.995,35.295,22.262,4.905,10.246,18.009
1646,0.915,37.416,12.983,35.267,22.248,4.825,10.286,17.804
1647,0.928,37.474,12.999,35.286,22.269,4.946,10.449,17.679
1648,0.922,37.331,13.042,35.276,22.259,4.988,10.369,17.475
1649,0.902,37.454,13.031,35.295,22.262,4.988,10.409,17.27
1650,0.915,37.561,12.952,35.305,22.259,4.907,10.328,16.942
1651,0.912,37.802,12.952,35.277,22.259,4.825,10.286,16.776
1652,0.925,37.152,12.991,35.305,22.262,5.027,10.408,16.694
1653,0.912,37.28,13.014,35.286,22.259,4.989,10.369,16.571
1654,0.908,37.406,13.011,35.295,22.269,5.07,10.409,16.651
1655,0.895,37.235,13.026,35.286,22.255,4.908,10.247,16.53
1656,0.895,37.29,13.062,35.267,22.255,4.906,10.286,16.813
1657,0.905,37.425,12.996,35.295,22.259,5.069,10.245,17.385
1658,0.886,37.522,12.999,35.286,22.255,4.989,10.245,18.082
1659,0.895,37.169,13.015,35.334,22.269,5.07,10.326,18.739
1660,0.886,37.223,13.038,35.296,22.255,4.908,10.124,19.071
1661,0.882,37.367,13.066,35.267,22.262,4.987,10.122,19.563
1662,0.869,37.464,13.074,35.276,22.262,4.988,10.244,19.811
1663,0.879,37.206,13.043,35.276,22.262,5.029,10.204,20.017
1664,0.882,37.357,13.027,35.295,22.273,4.948,10.245,20.141
1665,0.859,37.435,12.96,35.267,22.255,4.907,10.204,20.02
1666,0.872,37.542,12.987,35.286,22.259,4.947,10.204,19.897
1667,0.885,37.131,13.034,35.257,22.252,4.866,10.123,19.652
1668,0.879,37.27,13.066,35.286,22.266,5.028,10.244,19.528
1669,0.872,37.387,12.996,35.276,22.269,4.907,10.164,19.201
1670,0.866,37.426,12.893,35.305,22.255,4.906,10.082,18.791
1671,0.872,37.206,12.986,35.267,22.252,4.865,10.081,18.462
1672,0.866,37.309,12.968,35.267,22.245,4.784,10.081,18.012
1673,0.872,37.473,13.014,35.295,22.262,4.946,10.243,17.885
1674,0.863,37.523,13.038,35.286,22.266,4.988,10.164,17.559
1675,0.866,37.197,13.089,35.295,22.266,5.07,10.204,17.596
1676,0.853,37.3,13.054,35.267,22.252,4.867,10.082,17.149
1677,0.846,37.445,12.953,35.286,22.259,4.865,10.121,17.104
1678,0.853,37.475,12.987,35.286,22.266,4.987,10.163,16.9
1679,0.853,37.139,13.034,35.276,22.259,4.948,10.204,16.735
1680,0.853,37.289,13.077,35.305,22.273,5.069,10.245,16.693
1681,0.833,37.349,13.074,35.257,22.252,4.948,10.042,16.286
1682,0.836,37.416,13.039,35.257,22.262,4.988,10.04,16.363
1683,0.833,37.168,13.003,35.276,22.262,4.988,9.999,16.242
1684,0.833,37.29,12.999,35.276,22.259,4.988,10.08,16.241
1685,0.836,37.406,12.886,35.305,22.266,4.948,10.04,16.078
1686,0.826,37.158,12.99,35.257,22.259,4.947,9.918,15.995
1687,0.826,37.251,13.057,35.257,22.255,4.988,9.916,15.832
1688,0.826,37.329,13.046,35.238,22.248,4.907,9.876,15.546
1689,0.843,37.445,12.972,35.276,22.259,4.947,9.957,15.543
1690,0.839,36.957,12.979,35.276,22.259,4.947,9.917,15.462
1691,0.846,37.067,12.999,35.276,22.269,4.907,9.835,15.339
1692,0.856,37.183,12.991,35.257,22.255,4.947,9.875,15.134
1693,0.843,37.261,12.999,35.228,22.255,4.785,9.794,14.929
1694,0.846,37.099,13.03,35.285,22.262,4.986,9.875,14.846
1695,0.833,37.241,13.054,35.276,22.255,4.907,9.794,14.641
1696,0.836,37.358,13.027,35.267,22.262,5.028,9.875,14.599
1697,0.833,37.426,13.003,35.267,22.259,4.907,9.794,14.273
1698,0.826,36.966,12.995,35.257,22.255,4.947,9.834,14.066
1699,0.826,37.115,13.05,35.266,22.269,4.988,9.834,13.983
1700,0.826,37.241,13.093,35.267,22.255,4.988,9.794,13.82
1701,0.833,37.329,13.078,35.295,22.269,5.07,9.996,13.94
1702,0.82,37.032,13.004,35.238,22.255,4.908,9.836,13.616
1703,0.823,37.183,12.96,35.276,22.259,4.947,9.875,13.694
1704,0.826,37.319,12.936,35.267,22.255,4.947,9.876,13.654
1705,0.817,37.358,12.955,35.267,22.266,4.988,9.997,13.654
1706,0.829,37.052,12.979,35.257,22.259,5.029,10.039,13.654
1707,0.817,37.164,13.022,35.257,22.259,4.948,9.918,13.41
1708,0.826,37.28,13.003,35.257,22.259,4.907,9.998,13.285
1709,0.823,37.31,12.999,35.247,22.255,4.906,9.877,13.203
1710,0.843,37.253,13.007,35.295,22.266,5.028,10.079,13.283
1711,0.849,37.377,13.015,35.267,22.262,4.948,10.04,13.081
1712,0.846,37.464,13.038,35.267,22.262,4.947,9.999,12.997
1713,0.84,37.197,13.054,35.247,22.255,4.947,9.836,12.875
1714,0.839,36.83,13.05,35.238,22.252,4.907,9.916,12.711
1715,0.846,36.999,13.07,35.276,22.262,4.987,9.916,12.628
1716,0.846,37.096,12.984,35.257,22.262,4.948,9.835,12.505
1717,0.84,36.992,12.999,35.286,22.269,5.15,9.997,12.423
1718,0.826,37.087,12.987,35.238,22.259,4.909,9.836,12.259
1719,0.839,37.203,13.042,35.247,22.255,4.865,9.916,12.461
1720,0.836,37.328,13.046,35.257,22.262,5.028,9.998,12.747
1721,0.823,36.764,12.976,35.247,22.266,4.907,9.958,13.238
1722,0.836,36.912,12.956,35.286,22.269,5.028,10.12,13.731
1723,0.826,36.98,12.916,35.257,22.252,4.867,9.878,14.102
1724,0.836,37.086,12.967,35.228,22.259,4.906,9.957,15.163
1725,0.836,36.848,12.995,35.257,22.262,4.947,9.917,16.637
1726,0.839,36.989,13.05,35.257,22.262,4.988,9.998,18.278
1727,0.852,37.144,13.054,35.257,22.262,4.948,9.917,19.677
1728,0.84,37.184,12.984,35.238,22.259,4.866,9.876,20.748
1729,0.852,36.983,12.983,35.247,22.255,4.906,9.916,21.775
1730,0.843,37.134,13.003,35.228,22.245,4.784,9.876,22.354
1731,0.856,37.242,13.057,35.247,22.259,4.905,10.16,22.889
1732,0.859,37.29,13.05,35.238,22.262,4.987,10.285,22.975
1733,0.846,36.85,13.05,35.228,22.259,4.907,10.489,23.017
1734,0.853,36.951,13.081,35.237,22.255,4.906,10.573,22.773
1735,0.836,37.067,13.039,35.218,22.248,4.784,10.818,22.568
1736,0.846,37.135,13.015,35.266,22.262,4.986,11.145,22.24
1737,0.836,36.915,13.003,35.247,22.255,4.988,11.311,21.83
1738,0.826,37.028,13.046,35.266,22.269,5.029,11.557,21.542
1739,0.83,37.154,13.042,35.219,22.252,4.867,11.6,20.847
1740,0.826,37.136,12.98,35.247,22.259,4.987,11.803,20.353
1741,0.826,36.983,12.944,35.257,22.262,4.907,12.009,19.941
1742,0.826,37.125,12.987,35.247,22.266,4.987,12.092,19.327
1743,0.843,37.251,12.983,35.266,22.276,5.029,12.134,19.118
1744,0.83,37.022,12.995,35.228,22.255,4.867,11.972,18.547
1745,0.843,36.924,13.022,35.228,22.259,4.906,12.011,18.256
1746,0.833,37.048,13.081,35.228,22.255,4.865,11.93,17.847
1747,0.843,37.154,12.996,35.237,22.259,4.987,11.97,17.599
1748,0.856,36.925,13.003,35.228,22.262,4.988,11.848,17.393
1749,0.833,37.0,12.976,35.209,22.248,4.826,11.765,17.066
1750,0.843,37.135,13.053,35.218,22.259,4.865,11.764,16.818
1751,0.853,37.203,13.066,35.209,22.248,4.865,11.521,16.45
1752,0.859,36.791,13.078,35.228,22.266,4.987,11.559,16.365
1753,0.849,36.912,13.062,35.237,22.259,4.988,11.437,15.998
1754,0.849,37.028,13.062,35.199,22.255,4.866,11.355,15.791
1755,0.843,37.125,12.976,35.218,22.255,4.865,11.232,15.505
1756,0.839,36.752,12.995,35.218,22.248,4.865,11.231,15.136
1757,0.839,36.892,13.034,35.247,22.266,4.987,11.19,15.051
1758,0.836,37.019,13.073,35.238,22.262,4.988,11.068,14.847
1759,0.826,37.106,13.011,35.238,22.273,4.988,11.026,14.723
1760,0.826,36.791,12.952,35.238,22.255,4.907,10.822,14.518
1761,0.823,36.912,12.975,35.218,22.259,4.865,10.82,14.76
1762,0.833,37.067,12.991,35.237,22.269,4.906,10.779,15.088
1763,0.83,37.107,12.979,35.238,22.262,4.947,10.698,15.62
1764,0.843,36.925,13.018,35.257,22.269,5.069,10.575,16.235
1765,0.817,37.019,13.046,35.219,22.255,4.908,10.451,16.566
1766,0.833,37.135,13.062,35.228,22.259,4.906,10.369,17.017
1767,0.836,37.194,12.968,35.228,22.262,4.987,10.287,17.387
1768,0.83,36.82,12.999,35.228,22.262,4.907,10.245,17.675
1769,0.83,36.989,13.003,35.247,22.259,4.987,10.123,17.922
1770,0.826,37.058,13.057,35.218,22.252,4.907,10.041,17.965
1771,0.843,37.087,13.066,35.228,22.259,4.906,9.918,17.925
1772,0.859,36.81,13.043,35.199,22.259,4.825,9.835,17.803
1773,0.866,36.951,13.031,35.228,22.262,4.905,9.834,17.842
1774,0.853,37.048,12.984,35.228,22.262,4.906,9.753,17.68
1775,0.849,36.819,12.917,35.237,22.262,4.865,9.671,17.516
1776,0.853,36.826,12.998,35.218,22.259,4.865,9.548,17.229
1777,0.84,36.922,13.038,35.189,22.245,4.865,9.466,16.983
1778,0.836,37.067,13.038,35.256,22.269,4.946,9.505,16.858
1779,0.83,36.694,12.976,35.228,22.262,4.947,9.343,16.45
1780,0.817,36.786,12.999,35.237,22.266,4.988,9.423,16.406
1781,0.829,36.912,12.987,35.209,22.255,4.826,9.18,15.999
1782,0.82,37.019,12.979,35.218,22.259,4.946,9.259,15.832
1783,0.839,36.809,13.018,35.247,22.262,4.988,9.259,15.708
1784,0.846,36.941,13.038,35.238,22.259,4.988,9.219,15.544
1785,0.859,37.077,13.046,35.247,22.276,5.07,9.259,15.502
1786,0.836,37.126,12.988,35.209,22.255,4.867,8.975,15.177
1787,0.843,36.695,12.991,35.218,22.262,4.946,9.013,15.092
1788,0.846,36.853,12.975,35.209,22.259,4.907,8.932,14.928
1789,0.846,36.97,13.03,35.237,22.266,4.906,9.012,14.886
1790,0.853,37.058,13.081,35.228,22.262,4.947,8.972,14.601
1791,0.853,36.732,13.066,35.199,22.252,4.907,8.85,14.395
1792,0.849,36.892,13.007,35.218,22.255,4.906,8.93,14.271
1793,0.849,36.99,12.999,35.189,22.248,4.784,8.89,13.985
1794,0.856,37.067,12.944,35.218,22.255,4.946,8.971,13.901
1795,0.853,36.637,13.002,35.228,22.269,4.866,8.931,13.656
1796,0.84,36.767,12.972,35.209,22.262,4.906,9.012,13.45
1797,0.843,36.883,13.049,35.218,22.255,4.865,8.891,13.204
1798,0.839,36.903,12.976,35.189,22.255,4.824,9.012,13.039
1799,0.852,36.779,12.991,35.227,22.266,4.946,9.013,12.834
1800,0.836,36.912,12.979,35.218,22.266,4.988,9.013,12.629
1801,0.836,37.019,12.999,35.237,22.269,5.029,9.013,12.749
1802,0.823,37.327,13.054,35.218,22.255,4.948,8.972,12.547
1803,0.817,36.745,13.081,35.228,22.262,4.907,9.053,12.586
1804,0.833,36.902,13.074,35.228,22.262,4.987,9.095,12.586
1805,0.826,36.99,13.082,35.218,22.269,4.948,9.136,12.545
1806,0.839,36.761,12.992,35.247,22.269,5.029,9.258,12.626
1807,0.823,36.729,12.975,35.209,22.255,4.826,9.056,12.383
1808,0.836,36.873,12.987,35.218,22.248,4.865,9.095,12.381
1809,0.833,36.97,13.077,35.209,22.248,4.865,9.136,12.34
1810,0.833,36.732,13.062,35.228,22.266,4.906,9.217,12.421
1811,0.843,36.844,13.011,35.228,22.262,4.987,9.218,12.178
1812,0.849,36.951,12.937,35.218,22.252,4.866,9.259,12.094
1813,0.853,37.057,12.901,35.218,22.255,4.824,9.3,11.93
1814,0.846,36.646,12.943,35.189,22.248,4.824,9.341,11.726
1815,0.836,36.795,12.971,35.227,22.266,4.987,9.545,11.723
1816,0.833,36.922,13.042,35.209,22.262,4.988,9.547,11.642
1817,0.83,36.99,13.038,35.218,22.262,5.029,9.669,11.56
1818,0.82,36.578,12.984,35.228,22.262,4.907,9.589,11.356
1819,0.813,36.718,12.975,35.199,22.248,4.865,9.751,11.191
1820,0.826,36.873,13.042,35.218,22.259,4.906,9.833,11.312
1821,0.817,36.932,13.077,35.218,22.266,4.906,9.956,11.719
1822,0.826,36.645,13.097,35.237,22.269,5.028,10.12,12.537
1823,0.813,36.757,13.105,35.209,22.255,4.826,10.0,13.155
1824,0.826,36.883,13.07,35.199,22.255,4.905,10.08,14.096
1825,0.833,36.942,13.0,35.199,22.262,4.987,10.121,15.0
1826,0.82,36.674,13.007,35.199,22.266,4.907,10.203,16.066
1827,0.833,36.853,12.995,35.237,22.266,4.906,10.163,17.703
1828,0.817,36.913,13.05,35.18,22.252,4.825,10.122,19.224
1829,0.823,36.942,13.046,35.199,22.259,4.905,10.122,20.865
1830,0.836,36.664,12.98,35.218,22.259,4.825,10.244,22.101
1831,0.846,36.796,12.874,35.247,22.259,4.905,10.245,23.211
1832,0.84,36.902,12.986,35.218,22.259,4.865,10.245,23.832
1833,0.826,36.98,12.968,35.199,22.255,4.906,10.123,24.164
1834,0.823,36.655,12.975,35.199,22.259,4.865,10.122,24.248
1835,0.823,36.786,12.999,35.18,22.255,4.824,10.081,24.127
1836,0.836,36.912,13.061,35.208,22.266,4.946,10.203,24.085
1837,0.826,36.674,13.0,35.199,22.262,4.907,10.163,23.719
1838,0.82,36.709,12.999,35.218,22.262,5.028,10.163,23.431
1839,0.813,36.834,13.003,35.189,22.259,4.907,9.96,22.818
1840,0.8,36.922,13.061,35.18,22.259,4.947,9.957,22.283
1841,0.816,36.568,13.074,35.218,22.262,4.988,10.039,21.79
1842,0.81,36.689,13.07,35.199,22.262,5.029,9.958,21.257
1843,0.813,36.834,13.05,35.228,22.273,5.07,10.039,20.926
1844,0.816,36.874,12.999,35.18,22.255,4.867,9.796,20.272
1845,0.813,36.673,12.983,35.218,22.255,4.987,9.834,19.9
1846,0.82,36.825,13.01,35.209,22.266,5.029,9.916,19.571
1847,0.817,36.922,13.058,35.218,22.262,4.989,9.957,19.161
1848,0.829,37.028,13.093,35.218,22.273,5.07,10.08,18.791
1849,0.813,36.512,12.996,35.18,22.255,4.948,9.999,18.259
1850,0.823,36.689,12.983,35.266,22.252,4.988,10.121,17.969
1851,0.83,36.806,12.975,35.19,22.248,4.988,10.163,17.437
1852,0.83,36.864,12.967,35.218,22.262,4.988,10.366,17.229
1853,0.826,36.692,12.979,35.189,22.262,4.988,10.409,16.82
1854,0.81,36.815,13.01,35.189,22.255,4.988,10.328,16.491
1855,0.81,36.941,13.026,35.199,22.255,4.988,10.449,15.999
1856,0.79,36.952,13.003,35.16,22.245,4.948,10.328,15.588
1857,0.81,36.664,13.011,35.189,22.262,5.11,10.571,15.421
1858,0.8,36.805,12.991,35.208,22.255,5.071,10.574,15.054
1859,0.794,36.893,13.018,35.199,22.262,5.111,10.614,14.806
1860,0.8,36.923,13.069,35.189,22.255,4.989,10.533,14.56
1861,0.787,36.578,13.05,35.199,22.262,5.029,10.532,14.313
1862,0.793,36.747,13.015,35.208,22.262,5.07,10.695,14.189
1863,0.79,36.825,12.964,35.18,22.266,5.03,10.656,14.025
1864,0.806,36.912,12.956,35.218,22.269,5.192,10.818,13.942
1865,0.797,36.808,12.979,35.189,22.255,4.95,10.657,13.575
1866,0.8,36.96,12.983,35.199,22.259,5.029,10.737,13.409
1867,0.797,37.058,13.049,35.208,22.266,5.03,10.819,13.285
1868,0.794,36.531,13.038,35.218,22.255,5.07,10.901,13.121
1869,0.803,36.612,13.027,35.314,22.273,5.07,10.902,13.201
1870,0.787,36.699,12.984,35.181,22.262,4.989,10.821,13.161
1871,0.793,36.806,13.03,35.189,22.266,4.988,10.901,13.486
1872,0.803,36.605,13.058,35.189,22.262,5.029,10.902,13.733
1873,0.803,36.747,13.058,35.218,22.266,5.03,10.983,14.183
1874,0.8,36.864,13.062,35.189,22.259,5.07,10.984,14.554
1875,0.79,36.913,13.066,35.18,22.259,4.989,10.903,15.167
1876,0.793,36.558,12.988,35.189,22.252,5.029,10.943,16.108
1877,0.787,36.718,12.979,35.189,22.252,4.907,10.821,17.053
1878,0.787,36.844,13.003,35.199,22.262,4.987,10.942,18.16
1879,0.784,36.903,13.065,35.208,22.259,4.948,10.821,18.944
1880,0.784,36.52,13.039,35.17,22.255,4.988,10.779,19.643
1881,0.787,36.679,12.999,35.199,22.255,5.029,10.698,19.975
1882,0.78,36.786,12.956,35.151,22.245,4.826,10.616,20.222
1883,0.79,36.893,12.948,35.217,22.266,5.068,10.655,20.509
1884,0.78,36.673,13.002,35.276,22.255,5.111,10.574,20.553
1885,0.784,36.815,12.972,35.209,22.259,5.03,10.574,20.512
1886,0.777,36.941,13.01,35.199,22.255,4.907,10.37,20.227
1887,0.774,36.942,13.026,35.18,22.252,4.987,10.287,19.94
1888,0.787,36.683,12.96,35.218,22.262,5.07,10.286,19.774
1889,0.784,36.805,13.01,35.199,22.259,4.989,10.205,19.366
1890,0.793,36.922,13.015,35.237,22.276,5.192,10.245,19.078
1891,0.78,36.942,13.038,35.19,22.259,5.031,10.001,18.506
1892,0.8,36.645,13.062,35.199,22.262,4.989,9.958,18.215
1893,0.807,36.776,13.113,35.218,22.266,5.151,9.917,17.928
1894,0.8,36.893,13.094,35.199,22.262,4.99,9.916,17.681
1895,0.803,36.75,13.054,35.228,22.269,5.151,9.957,17.516
1896,0.79,36.595,13.003,35.228,22.255,4.949,9.714,17.108
1897,0.787,36.747,12.979,35.199,22.259,5.029,9.67,16.859
1898,0.79,36.835,13.046,35.218,22.266,5.03,9.711,16.613
1899,0.787,36.586,13.077,35.218,22.262,5.111,9.833,16.448
1900,0.79,36.689,13.031,35.256,22.266,5.071,9.794,16.243
1901,0.774,36.806,12.941,35.199,22.255,4.948,9.753,15.997
1902,0.774,36.922,12.87,35.218,22.262,5.029,9.915,15.913
1903,0.764,36.491,12.982,35.189,22.252,4.989,9.835,15.75
1904,0.777,36.612,12.971,35.218,22.262,5.07,10.038,15.829
1905,0.777,36.738,12.999,35.218,22.262,5.07,10.08,15.546
1906,0.78,36.835,13.046,35.199,22.259,5.03,10.121,15.502
1907,0.78,36.606,13.027,35.189,22.255,5.03,10.081,15.136
1908,0.777,36.747,12.941,35.189,22.248,4.948,10.121,15.051
1909,0.803,36.883,13.018,35.218,22.262,5.15,10.163,15.009
1910,0.79,36.961,13.011,35.199,22.262,5.112,10.204,14.846
1911,0.787,36.751,13.058,35.237,22.269,5.234,10.326,14.885
1912,0.784,36.864,13.089,35.18,22.255,5.032,10.124,14.601
1913,0.787,36.98,13.093,35.218,22.259,5.07,10.163,14.517
1914,0.8,37.058,13.094,35.218,22.262,5.111,10.163,14.516
1915,0.79,36.445,13.015,35.218,22.255,5.071,10.122,14.435
1916,0.8,36.63,13.022,35.237,22.259,5.111,10.081,14.393
1917,0.777,36.7,12.984,35.199,22.252,4.949,10.04,14.23
1918,0.774,36.729,13.038,35.208,22.266,5.029,10.08,14.269
1919,0.774,36.614,13.027,35.189,22.252,4.948,9.918,14.066
1920,0.771,36.766,12.964,35.227,22.262,5.15,9.998,14.064
1921,0.764,36.893,12.971,35.228,22.262,5.031,9.917,13.983
1922,0.757,36.875,12.999,35.199,22.259,5.03,9.835,13.86
1923,0.764,36.654,13.015,35.208,22.248,5.07,9.794,13.737
1924,0.767,36.767,12.999,35.17,22.248,4.948,9.753,13.614
1925,0.774,36.912,13.057,35.227,22.262,5.029,9.793,13.938
1926,0.764,36.645,13.081,35.218,22.259,5.111,9.712,14.307
1927,0.774,36.575,13.0,35.218,22.262,5.071,9.711,14.758
1928,0.767,36.708,12.999,35.209,22.259,4.989,9.589,15.088
1929,0.77,36.796,13.003,35.218,22.255,5.029,9.547,15.66
1930,0.79,36.538,13.046,35.237,22.269,5.07,9.588,16.642
1931,0.8,36.603,13.089,35.238,22.255,5.07,9.466,17.953
1932,0.803,36.766,13.074,35.257,22.276,5.152,9.587,19.673
1933,0.771,36.825,13.039,35.199,22.252,5.031,9.425,21.073
1934,0.774,36.577,13.015,35.218,22.262,5.07,9.464,22.347
1935,0.777,36.728,12.905,35.237,22.262,5.07,9.505,23.254
1936,0.774,36.835,12.967,35.228,22.255,5.07,9.465,24.117
1937,0.787,36.951,13.065,35.237,22.259,5.111,9.465,24.573
1938,0.767,36.559,13.035,35.199,22.255,4.989,9.424,24.781
1939,0.77,36.699,12.988,35.228,22.262,5.029,9.464,24.946
1940,0.77,36.844,12.987,35.218,22.255,4.948,9.465,24.825
1941,0.77,36.922,12.964,35.228,22.269,5.11,9.668,24.702
1942,0.78,36.607,12.983,35.218,22.262,5.071,9.67,24.335
1943,0.767,36.709,13.022,35.218,22.262,4.989,9.629,23.884
1944,0.764,36.854,13.034,35.218,22.262,5.029,9.67,23.473
1945,0.774,36.874,13.077,35.209,22.252,4.867,9.589,22.818
1946,0.771,36.558,13.039,35.228,22.262,5.028,9.751,22.446
1947,0.78,36.718,12.995,35.228,22.262,5.03,9.752,21.832
1948,0.767,36.806,12.983,35.218,22.266,5.111,9.793,21.379
1949,0.77,36.845,13.053,35.228,22.248,4.949,9.793,20.724
1950,0.777,36.529,13.085,35.209,22.252,4.947,9.753,20.311
1951,0.79,36.689,13.062,35.256,22.262,5.029,9.793,20.063
1952,0.787,36.806,12.984,35.238,22.255,5.111,9.915,19.816
1953,0.787,37.133,12.948,35.247,22.262,5.112,10.039,19.773
1954,0.767,36.637,12.924,35.228,22.248,4.989,9.918,19.488
1955,0.774,36.757,12.971,35.218,22.255,5.07,10.079,19.404
1956,0.777,36.873,12.999,35.247,22.269,5.07,10.121,19.362
1957,0.767,36.606,13.05,35.247,22.262,5.03,10.122,19.24
1958,0.767,36.651,13.019,35.276,22.273,5.151,10.244,19.32
1959,0.767,36.748,13.007,35.228,22.252,4.909,10.123,18.996
1960,0.77,36.864,12.995,35.237,22.255,5.069,10.122,18.952
1961,0.764,36.52,13.034,35.247,22.262,4.989,10.203,18.952
1962,0.744,36.593,13.062,35.247,22.269,5.07,10.163,18.992
1963,0.773,36.757,13.117,35.266,22.266,5.152,10.204,18.952
1964,0.758,36.806,13.098,35.238,22.259,4.949,10.082,18.707
1965,0.761,36.442,13.074,35.218,22.262,4.988,10.081,18.542
1966,0.764,36.602,12.972,35.237,22.259,4.988,10.04,18.297
1967,0.77,36.738,12.991,35.238,22.259,5.029,10.121,18.254
1968,0.77,36.825,13.022,35.228,22.259,4.989,10.081,17.847
1969,0.764,36.414,13.073,35.228,22.255,4.948,9.959,17.599
1970,0.777,36.563,13.054,35.247,22.259,4.907,10.039,17.271
1971,0.777,36.67,12.976,35.238,22.248,4.865,9.918,16.821
1972,0.8,36.767,12.932,35.266,22.255,5.028,9.998,16.653
1973,0.794,36.528,12.971,35.267,22.255,4.989,9.999,16.326
1974,0.787,36.689,12.991,35.247,22.259,4.988,9.999,15.957
1975,0.787,36.796,12.999,35.247,22.255,4.866,9.958,15.547
1976,0.767,36.826,13.057,35.228,22.248,4.906,9.917,15.177
1977,0.78,36.49,13.046,35.266,22.262,5.028,10.161,14.97
1978,0.774,36.64,13.011,35.334,22.259,4.989,10.122,14.683
1979,0.777,36.767,13.007,35.277,22.273,5.151,10.244,14.436
1980,0.764,36.778,13.011,35.238,22.252,4.99,10.123,13.987
1981,0.77,36.442,13.061,35.266,22.262,4.988,10.244,13.86
1982,0.767,36.592,13.023,35.267,22.259,4.988,10.286,13.574
1983,0.761,36.689,13.069,35.267,22.259,5.029,10.245,13.287
1984,0.777,36.901,13.105,35.295,22.269,5.07,10.408,13.162
1985,0.764,36.482,13.023,35.257,22.252,4.908,10.247,12.714
1986,0.767,36.65,13.011,35.276,22.259,4.947,10.367,12.546
1987,0.777,36.767,13.019,35.286,22.262,4.907,10.328,12.382
1988,0.78,36.413,13.05,35.276,22.262,4.987,10.368,12.137
1989,0.793,36.448,13.062,35.286,22.262,4.988,10.368,12.012
1990,0.771,36.554,12.968,35.267,22.255,4.826,10.368,11.686
1991,0.796,36.68,12.952,35.314,22.255,4.946,10.368,11.601
1992,0.784,36.412,12.928,35.267,22.252,4.785,10.328,11.356
1993,0.787,36.534,12.99,35.286,22.269,4.986,10.368,11.313
1994,0.784,36.67,13.011,35.295,22.262,4.907,10.368,11.394
1995,0.777,36.738,13.022,35.276,22.259,4.947,10.368,11.395
1996,0.774,36.49,13.077,35.276,22.255,4.866,10.368,11.354
1997,0.761,36.612,12.984,35.257,22.248,4.824,10.368,11.395
1998,0.774,36.786,12.987,35.286,22.262,4.987,10.409,11.801
1999,0.761,36.854,12.995,35.286,22.266,4.907,10.369,12.253
2000,0.761,36.261,13.038,35.286,22.262,4.947,10.449,12.949
2001,0.761,36.389,13.062,35.286,22.259,4.866,10.328,13.443
2002,0.767,36.544,13.074,35.286,22.262,4.906,10.368,14.14
2003,0.764,36.593,13.058,35.305,22.262,4.987,10.368,14.675
2004,0.767,36.431,13.05,35.296,22.262,4.948,10.328,15.168
2005,0.78,36.602,12.976,35.334,22.266,4.988,10.286,15.458
2006,0.758,36.699,12.987,35.277,22.252,4.826,10.205,15.623
2007,0.767,36.758,13.022,35.295,22.259,4.946,10.245,15.747
2008,0.761,36.298,13.046,35.286,22.255,4.907,10.164,15.789
2009,0.77,36.447,13.019,35.305,22.259,4.947,10.244,15.911
2010,0.767,36.563,12.96,35.324,22.255,4.988,10.245,15.872
2011,0.77,36.574,12.975,35.296,22.252,4.948,10.245,15.79
2012,0.774,36.459,12.975,35.305,22.248,4.907,10.286,15.545
2013,0.764,36.573,12.999,35.286,22.248,4.744,10.286,15.421
2014,0.774,36.737,13.018,35.315,22.259,4.986,10.571,15.338
2015,0.774,36.624,13.026,35.305,22.255,4.907,10.574,15.093
2016,0.767,36.364,13.089,35.334,22.269,5.028,10.777,15.172
2017,0.757,36.495,13.004,35.315,22.255,4.867,10.698,14.767
2018,0.761,36.612,12.983,35.325,22.262,4.946,10.778,14.722
2019,0.774,36.316,13.003,35.325,22.262,4.988,10.779,14.64
2020,0.754,36.361,13.054,35.315,22.262,4.907,10.738,14.395
2021,0.764,36.534,13.078,35.344,22.276,5.069,10.86,14.393
2022,0.751,36.583,13.043,35.315,22.252,4.867,10.658,14.068
2023,0.757,36.335,13.019,35.325,22.262,4.946,10.696,13.983
2024,0.764,36.457,12.983,35.334,22.262,4.988,10.656,13.86
2025,0.761,36.631,12.995,35.373,22.255,4.907,10.696,13.818
2026,0.77,36.719,12.983,35.373,22.266,4.947,10.737,14.143
2027,0.754,36.278,13.053,35.306,22.255,4.785,10.657,14.716
2028,0.761,36.418,13.058,35.334,22.259,4.864,10.574,15.535
2029,0.764,36.563,12.98,35.334,22.252,4.824,10.574,16.356
2030,0.764,36.651,12.999,35.363,22.262,4.905,10.614,17.299
2031,0.767,36.278,12.991,35.354,22.266,4.906,10.615,18.569
2032,0.761,36.408,12.999,35.344,22.252,4.865,10.493,20.452
2033,0.761,36.525,13.018,35.325,22.262,4.824,10.451,23.195
2034,0.761,36.583,13.042,35.334,22.248,4.783,10.328,25.906
2035,0.77,36.277,13.054,35.353,22.262,4.986,10.449,28.535
2036,0.757,36.427,13.023,35.354,22.262,4.907,10.328,30.391
2037,0.757,36.544,12.987,35.363,22.262,5.028,10.368,31.751
2038,0.754,36.612,12.999,35.354,22.259,4.867,10.206,32.456
2039,0.757,36.268,13.042,35.335,22.255,4.865,10.204,32.869
2040,0.757,36.427,13.081,35.373,22.262,4.987,10.326,32.955
2041,0.754,36.525,13.027,35.344,22.262,4.866,10.286,32.59
2042,0.761,36.564,13.003,35.382,22.269,5.068,10.408,32.261
2043,0.748,36.363,12.964,35.364,22.262,4.867,10.247,31.404
2044,0.747,36.505,12.944,35.373,22.262,4.906,10.326,30.663
2045,0.754,36.641,13.01,35.373,22.266,4.947,10.49,29.802
2046,0.754,36.412,13.022,35.383,22.269,4.988,10.614,28.899
2047,0.774,36.256,13.066,35.392,22.276,5.07,10.899,28.077
2048,0.741,36.341,13.003,35.373,22.259,4.826,10.861,26.889
2049,0.747,36.466,13.011,35.363,22.259,4.824,10.983,26.064
2050,0.747,36.276,13.015,35.373,22.259,4.905,11.106,25.243
2051,0.757,36.36,13.042,35.402,22.259,4.987,11.23,24.584
2052,0.757,36.495,13.046,35.392,22.259,4.907,11.271,23.805
2053,0.735,36.564,13.035,35.354,22.255,4.906,11.231,23.35
2054,0.734,36.085,13.054,35.392,22.262,4.906,11.353,22.858
2055,0.731,36.195,13.035,35.383,22.252,4.784,11.232,22.324
2056,0.725,36.35,12.964,35.392,22.262,4.986,11.393,22.075
2057,0.737,36.438,13.002,35.402,22.255,4.907,11.314,21.625
2058,0.728,36.17,13.007,35.383,22.255,4.865,11.272,21.255
2059,0.76,36.321,13.038,35.392,22.262,4.906,11.272,20.723
2060,0.748,36.418,13.034,35.373,22.245,4.825,11.15,20.392
2061,0.76,36.534,12.999,35.392,22.266,4.987,11.149,20.145
2062,0.738,36.19,12.921,35.392,22.266,4.948,11.23,19.776
2063,0.747,36.35,12.928,35.431,22.269,4.988,11.231,19.448
2064,0.764,36.447,12.998,35.402,22.255,4.907,11.231,19.078
2065,0.761,36.506,12.999,35.392,22.262,4.906,11.231,18.953
2066,0.774,36.257,13.042,35.412,22.269,4.987,11.312,18.829
2067,0.771,36.398,13.081,35.412,22.266,4.948,11.394,18.666
2068,0.787,36.544,12.992,35.46,22.276,5.15,11.476,18.583
2069,0.764,36.555,13.011,35.403,22.259,4.827,11.396,18.094
2070,0.777,36.238,13.015,35.431,22.252,4.946,11.476,17.926
2071,0.774,36.369,13.038,35.422,22.266,4.947,11.558,17.681
2072,0.767,36.486,13.054,35.421,22.266,4.866,11.559,17.394
2073,0.764,36.516,13.113,35.46,22.269,5.028,11.64,17.066
2074,0.751,36.152,13.082,35.412,22.255,4.826,11.56,16.696
2075,0.744,36.33,13.07,35.421,22.262,4.905,11.64,16.327
2076,0.734,36.438,13.011,35.412,22.248,4.865,11.641,15.998
2077,0.721,36.285,12.987,35.431,22.259,4.906,11.682,15.751
2078,0.731,36.236,13.034,35.422,22.255,4.947,11.723,15.464
2079,0.738,36.35,13.03,35.421,22.259,4.866,11.642,15.135
2080,0.76,36.476,12.995,35.441,22.255,4.906,11.56,14.766
2081,0.751,36.065,12.944,35.412,22.248,4.744,11.478,14.437
2082,0.761,36.214,12.991,35.45,22.269,4.986,11.558,14.271
2083,0.767,36.35,12.983,35.45,22.266,4.948,11.478,13.985
2084,0.777,36.438,13.018,35.46,22.269,4.988,11.477,13.86
2085,0.767,35.988,13.011,35.431,22.252,4.907,11.274,13.412
2086,0.767,36.108,13.061,35.441,22.266,4.906,11.353,13.245
2087,0.78,36.272,13.066,35.46,22.259,4.947,11.232,12.958
2088,0.774,36.332,13.039,35.451,22.262,4.866,11.271,12.752
2089,0.787,36.217,13.023,35.479,22.269,5.068,11.272,12.588
2090,0.78,36.321,13.015,35.451,22.252,4.826,10.947,12.179
