time,ecg,bvp,gsr,rsp,skt,emg_zygo,emg_coru,emg_trap
0,0.787,37.668,13.854,29.856,23.307,4.864,6.877,6.097
1,0.816,37.458,13.858,29.865,23.297,4.906,6.837,6.056
2,0.82,37.58,13.862,29.856,23.296,4.825,6.837,5.975
3,0.807,37.716,13.831,29.856,23.296,4.865,6.877,6.015
4,0.8,37.784,13.843,29.837,23.3,4.824,6.837,6.015
5,0.816,37.363,13.823,29.856,23.293,4.865,6.796,6.015
6,0.826,37.551,13.85,29.865,23.303,4.906,6.917,6.137
7,0.852,37.677,13.905,29.885,23.314,4.987,7.0,6.098
8,0.866,37.755,13.847,29.885,23.307,4.826,6.919,6.016
9,0.843,37.545,13.87,29.866,23.303,4.905,6.919,6.015
10,0.853,37.687,13.886,29.875,23.307,4.906,6.919,6.015
11,0.843,37.803,13.921,29.875,23.3,4.906,6.878,6.096
12,0.839,37.833,13.898,29.885,23.303,4.906,6.877,6.056
13,0.833,37.45,13.835,29.885,23.307,4.906,6.959,6.015
14,0.82,37.58,13.87,29.885,23.307,4.906,6.838,6.056
15,0.813,37.677,13.87,29.885,23.303,4.865,6.877,5.934
16,0.794,37.688,13.843,29.866,23.286,4.702,6.715,5.892
17,0.78,37.621,13.847,29.875,23.3,4.863,6.876,6.054
18,0.8,37.764,13.831,29.885,23.303,4.865,6.796,6.056
19,0.79,37.871,13.882,29.885,23.296,4.824,6.755,5.975
20,0.787,38.045,13.82,29.894,23.3,4.824,6.795,6.015
21,0.777,37.538,13.87,29.894,23.296,4.783,6.673,5.934
22,0.78,37.648,13.94,29.885,23.296,4.824,6.713,6.014
23,0.777,37.745,13.894,29.885,23.293,4.865,6.794,6.056
24,0.793,37.468,13.874,29.923,23.31,4.987,6.877,6.137
25,0.81,37.552,13.839,29.914,23.307,4.948,6.796,6.057
26,0.813,37.639,13.858,29.914,23.3,4.866,6.714,5.975
27,0.803,37.716,13.866,29.895,23.307,4.824,6.672,6.015
28,0.803,37.468,13.843,29.904,23.307,4.824,6.753,6.015
29,0.8,37.59,13.85,29.895,23.307,4.905,6.754,6.056
30,0.8,37.716,13.843,29.894,23.303,4.906,6.754,6.097
31,0.803,37.794,13.897,29.923,23.31,4.865,6.754,6.016
32,0.803,37.43,13.902,29.904,23.307,4.865,6.673,5.974
33,0.794,37.561,13.878,29.885,23.297,4.743,6.509,5.933
34,0.767,37.658,13.835,29.875,23.293,4.783,6.63,6.055
35,0.78,37.736,13.885,29.885,23.307,4.824,6.631,6.015
36,0.79,37.458,13.874,29.904,23.3,4.865,6.631,6.015
37,0.777,37.599,13.847,29.904,23.296,4.824,6.509,6.015
38,0.78,37.716,13.854,29.895,23.303,4.865,6.63,6.056
39,0.774,37.756,13.815,29.923,23.303,4.743,6.55,5.975
40,0.771,37.459,13.842,29.914,23.293,4.742,6.59,5.974
41,0.777,37.58,13.878,29.943,23.303,4.945,6.671,6.177
42,0.806,37.754,13.898,29.933,23.307,4.988,6.672,6.139
43,0.797,37.775,13.882,29.943,23.307,4.866,6.631,6.016
44,0.794,37.497,13.851,29.924,23.307,4.865,6.631,6.096
45,0.793,37.619,13.784,29.933,23.303,4.906,6.631,6.016
46,0.8,37.697,13.83,29.924,23.307,4.906,6.55,6.056
47,0.803,38.062,13.928,29.933,23.307,4.906,6.63,6.015
48,0.8,37.577,13.89,29.943,23.303,4.906,6.672,6.056
49,0.81,37.716,13.835,29.943,23.307,4.906,6.631,5.975
50,0.794,37.794,13.866,29.914,23.293,4.784,6.387,5.893
51,0.774,37.507,13.909,29.895,23.293,4.742,6.507,5.973
52,0.78,37.523,13.886,29.933,23.303,4.783,6.589,6.015
53,0.78,37.648,13.89,29.943,23.303,4.783,6.549,5.974
54,0.787,37.745,13.87,29.924,23.3,4.783,6.549,5.974
55,0.78,37.459,13.835,29.923,23.3,4.742,6.59,5.974
56,0.78,37.58,13.831,29.914,23.296,4.783,6.631,6.015
57,0.767,37.697,13.87,29.952,23.3,4.783,6.672,6.056
58,0.774,37.794,13.835,29.962,23.31,4.946,6.835,6.219
59,0.78,37.421,13.835,29.991,23.317,4.947,6.796,6.18
60,0.777,37.542,13.854,29.962,23.297,4.866,6.795,6.057
61,0.79,37.658,13.886,29.953,23.307,4.865,6.795,6.097
62,0.793,37.717,13.909,29.953,23.303,4.824,6.836,6.097
63,0.793,37.305,13.878,29.953,23.303,4.865,6.837,6.138
64,0.8,37.454,13.882,29.972,23.307,4.906,6.877,6.179
65,0.807,37.561,13.882,29.972,23.307,4.906,6.959,6.179
66,0.816,37.639,13.835,29.962,23.303,4.865,6.919,5.976
67,0.813,37.544,13.87,29.933,23.293,4.743,6.796,5.974
68,0.816,37.639,13.819,29.943,23.296,4.783,6.917,6.055
69,0.826,37.784,13.842,29.962,23.296,4.905,6.919,6.137
70,0.843,37.814,13.858,29.962,23.303,4.865,7.0,6.098
71,0.83,37.363,13.847,29.953,23.303,4.784,6.879,6.056
72,0.81,37.512,13.878,29.953,23.293,4.742,7.0,6.056
73,0.833,37.619,13.862,29.943,23.3,4.742,7.001,6.097
74,0.82,37.63,13.87,29.943,23.296,4.905,7.041,6.097
75,0.81,37.505,13.898,29.972,23.303,4.906,7.123,6.26
76,0.816,37.667,13.902,30.01,23.317,4.947,7.205,6.18
77,0.803,37.736,13.894,29.982,23.307,4.866,7.084,6.139
78,0.794,37.506,13.909,29.972,23.297,4.906,7.083,6.219
79,0.819,37.514,13.906,30.001,23.307,4.825,7.164,6.139
80,0.833,37.629,13.8,29.991,23.31,4.824,7.165,6.179
81,0.83,37.716,13.842,29.991,23.307,4.865,7.124,6.098
82,0.823,37.334,13.862,29.982,23.3,4.865,7.124,6.138
83,0.839,37.445,13.866,29.991,23.296,4.824,7.043,6.016
84,0.839,37.571,13.792,29.953,23.289,4.661,7.001,5.974
85,0.813,37.62,13.811,29.972,23.293,4.782,7.041,6.137
86,0.816,37.371,13.831,29.991,23.307,4.905,7.123,6.057
87,0.816,37.493,13.839,29.991,23.307,4.784,7.043,6.015
88,0.816,37.6,13.893,29.991,23.29,4.783,7.123,6.015
89,0.82,37.697,13.89,29.972,23.3,4.742,7.002,5.974
90,0.81,37.343,13.847,29.972,23.296,4.742,7.001,5.974
91,0.79,37.493,13.897,29.972,23.296,4.864,7.163,6.096
92,0.816,37.6,13.882,30.01,23.307,4.946,7.206,6.178
93,0.826,37.697,13.886,30.02,23.314,4.988,7.165,6.179
94,0.82,37.592,13.89,30.001,23.307,4.826,7.043,6.098
95,0.817,37.678,13.898,29.991,23.303,4.865,7.082,6.097
96,0.803,37.813,13.886,30.01,23.307,4.784,7.083,6.138
97,0.797,37.843,13.847,30.02,23.307,4.864,7.042,6.098
98,0.797,37.373,13.901,30.011,23.307,4.906,7.082,6.097
99,0.8,37.512,13.871,30.087,23.31,4.825,7.123,6.138
100,0.784,37.638,13.859,30.011,23.3,4.865,7.043,6.138
101,0.803,37.649,13.882,30.011,23.296,4.784,6.96,5.894
102,0.774,37.4,13.905,29.982,23.289,4.742,7.0,5.933
103,0.774,37.522,13.867,30.01,23.303,4.823,7.041,6.055
104,0.787,37.648,13.874,30.011,23.3,4.824,7.082,6.056
105,0.81,37.534,13.851,30.001,23.303,4.783,7.042,6.056
106,0.81,37.495,13.831,30.011,23.3,4.783,7.082,6.015
107,0.803,37.609,13.85,30.011,23.3,4.742,7.042,5.893
108,0.803,37.678,13.847,30.011,23.296,4.742,6.96,6.014
109,0.813,37.362,13.823,30.011,23.303,4.864,7.204,6.137
110,0.82,37.503,13.831,30.039,23.314,4.906,7.287,6.219
111,0.813,37.648,13.897,30.059,23.307,4.865,7.207,6.017
112,0.807,37.697,13.859,30.03,23.303,4.784,7.125,6.137
113,0.794,37.295,13.905,30.049,23.31,4.824,7.165,6.057
114,0.78,37.454,13.898,30.03,23.303,4.783,7.165,6.097
115,0.784,37.561,13.906,30.04,23.307,4.864,7.246,6.178
116,0.78,37.639,13.855,30.049,23.303,4.824,7.288,6.098
117,0.774,37.39,13.897,30.059,23.303,4.905,7.207,6.056
118,0.787,37.522,13.874,30.059,23.303,4.825,7.206,6.015
119,0.777,37.619,13.827,30.021,23.293,4.661,7.125,6.015
120,0.767,37.668,13.835,30.02,23.296,4.822,7.124,6.096
121,0.787,37.295,13.854,30.049,23.296,4.824,7.205,6.097
122,0.78,37.425,13.909,30.03,23.3,4.824,7.125,6.097
123,0.797,37.561,13.878,30.04,23.303,4.783,7.205,6.016
124,0.803,37.572,13.882,30.04,23.3,4.783,7.206,6.056
125,0.807,37.294,13.82,30.02,23.296,4.702,7.125,6.015
126,0.807,37.425,13.823,30.039,23.296,4.782,7.083,6.096
127,0.826,37.551,13.881,30.068,23.307,4.864,7.245,6.178
128,0.852,37.572,13.827,30.078,23.317,4.906,7.369,6.179
129,0.859,37.38,13.839,30.098,23.311,4.784,7.208,6.057
130,0.849,37.484,13.843,30.069,23.297,4.824,7.206,6.056
131,0.823,37.561,13.839,30.059,23.307,4.824,7.165,6.097
132,0.807,37.495,13.882,30.069,23.297,4.824,7.165,6.097
133,0.797,37.408,13.827,30.069,23.303,4.824,7.165,6.056
134,0.787,37.513,13.893,30.078,23.3,4.905,7.124,6.097
135,0.793,37.61,13.89,30.069,23.307,4.865,7.124,6.097
136,0.813,37.294,13.855,30.069,23.307,4.784,7.002,6.056
137,0.794,37.368,13.866,30.069,23.29,4.661,7.001,6.015
138,0.767,37.484,13.816,30.05,23.296,4.782,7.041,6.015
139,0.777,37.6,13.862,30.088,23.3,4.783,7.042,5.974
140,0.78,37.217,13.839,30.069,23.303,4.864,7.082,6.015
141,0.8,37.357,13.901,30.069,23.3,4.824,7.002,6.015
142,0.816,37.455,13.906,30.069,23.3,4.743,7.001,5.974
143,0.803,37.532,13.886,30.069,23.293,4.783,6.96,6.015
144,0.813,37.217,13.874,30.088,23.296,4.702,7.041,6.015
145,0.807,37.348,13.816,30.098,23.303,4.904,7.123,6.137
146,0.816,37.483,13.866,30.117,23.314,4.987,7.165,6.138
147,0.829,37.542,13.874,30.107,23.3,4.826,7.084,6.016
148,0.8,37.217,13.784,30.088,23.307,4.824,6.961,6.056
149,0.787,37.367,13.826,30.098,23.307,4.824,7.0,6.097
150,0.784,37.484,13.85,30.098,23.303,4.783,6.96,6.016
151,0.784,37.523,13.893,30.117,23.307,4.864,7.041,6.096
152,0.8,37.197,13.82,30.127,23.307,4.946,7.042,6.178
153,0.803,37.338,13.835,30.117,23.307,4.907,7.042,6.017
154,0.79,37.426,13.866,30.107,23.3,4.825,6.879,5.934
155,0.793,37.417,13.812,30.079,23.296,4.743,6.837,5.974
156,0.78,37.283,13.862,30.107,23.3,4.905,6.958,5.974
157,0.784,37.425,13.878,30.117,23.303,4.865,6.919,6.055
158,0.764,37.522,13.827,30.136,23.3,4.784,6.919,6.015
159,0.754,37.485,13.85,30.098,23.296,4.824,6.919,6.056
160,0.751,37.264,13.87,30.098,23.3,4.824,6.878,6.015
161,0.754,37.367,13.905,30.088,23.286,4.783,6.918,6.015
162,0.754,37.484,13.839,30.107,23.3,4.864,6.959,6.096
163,0.751,37.178,13.839,30.136,23.31,4.946,6.96,6.178
164,0.777,37.271,13.87,30.156,23.31,4.988,7.041,6.098
165,0.79,37.406,13.874,30.185,23.3,4.866,6.879,6.097
166,0.767,37.484,13.855,30.127,23.3,4.824,6.877,6.056
167,0.787,37.226,13.89,30.108,23.296,4.905,6.877,6.137
168,0.8,37.377,13.882,30.136,23.303,4.825,6.877,6.057
169,0.777,37.474,13.847,30.136,23.307,4.865,6.959,6.137
170,0.777,37.561,13.886,30.136,23.307,4.946,6.96,6.138
171,0.764,37.016,13.886,30.127,23.3,4.825,6.838,5.976
172,0.774,37.154,13.788,30.127,23.293,4.783,6.755,5.974
173,0.761,37.251,13.815,30.136,23.296,4.783,6.876,6.055
174,0.77,37.339,13.807,30.136,23.303,4.824,6.877,6.056
175,0.764,37.176,13.811,30.136,23.3,4.783,6.837,6.015
176,0.764,37.319,13.795,30.117,23.3,4.783,6.837,6.096
177,0.757,37.406,13.873,30.136,23.293,4.702,6.796,6.016
178,0.748,37.465,13.777,30.127,23.293,4.782,6.755,6.056
179,0.754,37.091,13.819,30.156,23.307,4.905,6.836,6.097
180,0.767,37.241,13.854,30.185,23.321,5.028,6.999,6.219
181,0.787,37.367,13.929,30.185,23.311,4.867,6.919,6.058
182,0.771,37.359,13.89,30.146,23.3,4.906,6.837,6.097
183,0.787,37.196,13.859,30.156,23.3,4.865,6.877,6.138
184,0.797,37.338,13.866,30.137,23.31,4.906,6.918,6.179
185,0.794,37.454,13.835,30.165,23.3,4.825,6.919,6.098
186,0.793,37.504,13.846,30.175,23.3,4.824,6.878,6.138
187,0.803,37.111,13.905,30.166,23.303,4.865,6.877,6.057
188,0.807,37.212,13.793,30.146,23.3,4.784,6.755,6.015
189,0.787,37.281,13.803,30.137,23.293,4.783,6.754,5.974
190,0.78,37.07,13.866,30.136,23.303,4.864,6.957,6.055
191,0.777,37.154,13.897,30.165,23.303,4.865,6.878,6.097
192,0.754,37.28,13.867,30.156,23.303,4.865,6.796,6.097
193,0.754,37.377,13.855,30.156,23.296,4.824,6.836,6.016
194,0.748,37.138,13.851,30.146,23.303,4.783,6.796,6.096
195,0.754,37.28,13.78,30.165,23.29,4.742,6.877,6.138
196,0.761,37.416,13.819,30.146,23.296,4.823,6.959,6.138
197,0.777,37.513,13.905,30.184,23.307,4.987,7.122,6.301
198,0.761,37.025,13.851,30.214,23.31,4.948,7.083,6.221
199,0.757,37.173,13.811,30.195,23.3,4.866,7.042,6.18
200,0.77,37.271,13.838,30.175,23.3,4.824,6.96,6.179
201,0.78,37.329,13.917,30.175,23.3,4.865,7.041,6.22
202,0.787,37.013,13.878,30.194,23.303,4.824,7.042,6.22
203,0.784,37.173,13.855,30.185,23.303,4.865,7.042,6.22
204,0.784,37.29,13.87,30.214,23.307,4.865,7.001,6.22
205,0.787,37.339,13.901,30.185,23.307,4.865,6.96,6.18
206,0.787,37.042,13.82,30.175,23.297,4.743,6.878,6.057
207,0.774,37.135,13.889,30.185,23.303,4.783,6.959,6.137
208,0.8,37.28,13.839,30.194,23.303,4.864,6.96,6.098
209,0.81,37.3,13.839,30.185,23.3,4.824,6.919,6.138
210,0.79,37.023,13.874,30.175,23.296,4.865,6.959,6.138
211,0.797,37.183,13.87,30.194,23.293,4.824,6.919,6.098
212,0.787,37.261,13.827,30.195,23.296,4.783,6.837,6.138
213,0.764,37.617,13.827,30.185,23.293,4.824,6.958,6.219
214,0.761,37.179,13.846,30.204,23.314,4.946,7.041,6.302
215,0.77,37.328,13.827,30.243,23.314,4.947,7.123,6.18
216,0.764,37.445,13.827,30.224,23.307,4.825,6.961,6.179
217,0.738,37.062,13.87,30.214,23.303,4.865,7.0,6.179
218,0.728,37.078,13.812,30.243,23.3,4.824,7.041,6.179
219,0.721,37.212,13.799,30.205,23.303,4.824,7.001,6.22
220,0.731,37.3,13.85,30.233,23.296,4.905,6.919,6.18
221,0.741,37.061,13.901,30.224,23.3,4.906,7.041,6.22
222,0.76,37.183,13.894,30.214,23.307,4.784,6.96,6.22
223,0.777,37.328,13.859,30.214,23.3,4.824,6.919,6.098
224,0.78,37.378,13.886,30.185,23.293,4.661,6.837,6.056
225,0.774,36.995,13.827,30.252,23.3,4.782,6.958,6.137
226,0.78,37.144,13.831,30.224,23.303,4.824,6.96,6.179
227,0.78,37.27,13.866,30.214,23.3,4.783,6.96,6.139
228,0.79,37.339,13.874,30.223,23.293,4.783,6.878,6.138
229,0.784,37.004,13.859,30.224,23.296,4.742,6.837,6.098
230,0.784,37.125,13.839,30.224,23.296,4.742,6.877,6.056
231,0.771,37.222,13.886,30.214,23.296,4.823,6.877,6.097
232,0.77,37.31,13.784,30.252,23.307,4.946,7.0,6.178
233,0.787,37.119,13.842,30.281,23.314,4.907,7.041,6.261
234,0.793,37.222,13.827,30.253,23.3,4.744,6.92,6.139
235,0.797,37.31,13.815,30.243,23.3,4.823,6.878,6.057
236,0.79,37.358,13.846,30.243,23.3,4.865,6.959,6.178
237,0.803,37.052,13.901,30.252,23.3,4.865,6.96,6.22
238,0.794,37.202,13.8,30.253,23.3,4.865,6.96,6.139
239,0.79,37.309,13.83,30.262,23.303,4.906,6.878,6.219
240,0.78,37.473,13.835,30.262,23.31,4.865,6.877,6.098
241,0.787,37.005,13.866,30.243,23.293,4.702,6.796,6.016
242,0.777,37.096,13.823,30.214,23.289,4.782,6.836,6.096
243,0.748,37.203,13.835,30.243,23.296,4.783,6.958,6.056
244,0.78,37.108,13.823,30.252,23.307,4.783,6.919,6.056
245,0.793,37.155,13.842,30.243,23.303,4.824,7.0,6.137
246,0.777,37.261,13.85,30.233,23.3,4.783,6.879,6.138
247,0.774,37.348,13.85,30.243,23.293,4.783,6.837,6.016
248,0.777,36.908,13.866,30.252,23.296,4.702,6.958,6.096
249,0.774,37.047,13.827,30.262,23.307,4.863,7.0,6.178
250,0.79,37.164,13.944,30.281,23.314,4.946,7.123,6.301
251,0.784,37.251,13.894,30.291,23.307,4.947,7.002,6.221
252,0.784,36.955,13.863,30.272,23.31,4.825,7.082,6.22
253,0.758,37.086,13.851,30.272,23.307,4.824,6.961,6.18
254,0.748,37.203,13.882,30.272,23.303,4.783,6.96,6.139
255,0.741,37.3,13.843,30.272,23.307,4.905,6.96,6.26
256,0.741,37.023,13.854,30.282,23.307,4.825,7.0,6.18
257,0.747,37.135,13.839,30.282,23.303,4.783,6.919,6.179
258,0.741,37.251,13.854,30.291,23.3,4.783,6.837,6.057
259,0.747,37.281,13.815,30.253,23.289,4.661,6.877,6.137
260,0.76,37.07,13.897,30.272,23.303,4.863,6.959,6.138
261,0.787,37.222,13.851,30.282,23.307,4.784,6.878,6.138
262,0.784,37.319,13.819,30.272,23.303,4.824,6.837,6.179
263,0.767,37.368,13.811,30.262,23.296,4.783,6.837,6.139
264,0.767,36.966,13.803,30.262,23.3,4.824,6.796,6.138
265,0.761,37.115,13.858,30.272,23.293,4.783,6.755,6.179
266,0.774,37.203,13.835,30.291,23.296,4.783,6.836,6.261
267,0.774,37.252,13.889,30.32,23.31,4.946,6.999,6.262
268,0.784,37.051,13.874,30.311,23.31,4.866,6.879,6.18
269,0.78,37.154,13.843,30.291,23.297,4.824,6.755,6.22
270,0.78,37.251,13.889,30.291,23.303,4.783,6.876,6.22
271,0.771,37.147,13.831,30.301,23.307,4.824,6.877,6.22
272,0.761,37.165,13.882,30.311,23.307,4.824,6.837,6.22
273,0.774,37.271,13.866,30.32,23.303,4.824,6.958,6.22
274,0.754,37.367,13.847,30.311,23.307,4.865,6.878,6.22
275,0.761,36.87,13.847,30.359,23.307,4.865,6.918,6.18
276,0.754,36.942,13.811,30.292,23.297,4.702,6.796,6.017
277,0.731,37.038,13.877,30.282,23.286,4.742,6.795,6.137
278,0.725,37.145,13.874,30.358,23.3,4.783,6.836,6.179
279,0.728,36.887,13.812,30.311,23.307,4.742,6.877,6.139
280,0.721,37.038,13.874,30.311,23.307,4.823,6.918,6.098
281,0.741,37.135,13.874,30.32,23.297,4.743,6.837,6.178
282,0.744,37.194,13.82,30.311,23.3,4.701,6.837,6.017
283,0.741,36.811,13.811,30.301,23.3,4.701,6.796,6.096
284,0.751,36.979,13.838,30.32,23.3,4.742,6.917,6.178
285,0.761,37.115,13.866,30.359,23.31,4.905,7.081,6.261
286,0.79,37.193,13.823,30.369,23.31,4.906,6.92,6.18
287,0.784,36.945,13.858,30.321,23.297,4.703,6.878,6.22
288,0.797,37.077,13.847,30.33,23.3,4.782,6.877,6.139
289,0.803,37.174,13.819,30.33,23.307,4.783,6.877,6.179
290,0.8,37.213,13.885,30.33,23.3,4.864,6.877,6.139
291,0.781,36.849,13.894,30.359,23.307,4.824,6.918,6.219
292,0.774,36.98,13.847,30.369,23.303,4.824,7.0,6.18
293,0.764,37.106,13.874,30.359,23.307,4.743,6.879,6.139
294,0.757,37.097,13.851,30.33,23.293,4.701,6.755,5.976
295,0.751,36.877,13.819,30.311,23.3,4.782,6.876,6.055
296,0.748,37.028,13.827,30.349,23.303,4.824,6.796,6.137
297,0.747,37.125,13.885,30.33,23.303,4.783,6.836,6.138
298,0.744,37.021,13.808,30.349,23.3,4.742,6.796,6.057
299,0.731,36.981,13.842,30.349,23.293,4.701,6.755,6.097
300,0.725,37.096,13.854,30.34,23.293,4.742,6.795,6.056
301,0.75,37.164,13.897,30.34,23.296,4.783,6.795,6.097
302,0.764,36.829,13.855,30.359,23.307,4.864,6.877,6.138
303,0.761,36.96,13.854,30.397,23.321,4.946,6.877,6.26
304,0.783,37.096,13.901,30.379,23.304,4.825,6.837,6.099
305,0.777,37.155,13.792,30.369,23.3,4.824,6.918,6.097
306,0.79,36.772,13.807,30.369,23.303,4.865,6.837,6.178
307,0.806,36.883,13.87,30.359,23.303,4.824,6.755,6.057
308,0.82,37.028,13.804,30.388,23.307,4.865,6.836,6.056
309,0.817,37.116,13.831,30.388,23.307,4.865,6.837,6.178
310,0.816,36.781,13.835,30.359,23.307,4.824,6.837,6.098
311,0.816,36.902,13.882,30.369,23.3,4.824,6.755,6.056
312,0.8,37.019,13.804,30.35,23.293,4.661,6.632,5.975
313,0.794,37.058,13.831,30.359,23.293,4.741,6.794,6.137
314,0.787,36.771,13.905,30.378,23.303,4.783,6.795,6.057
315,0.787,36.902,13.867,30.359,23.3,4.824,6.795,6.056
316,0.78,37.028,13.882,30.369,23.296,4.702,6.795,6.097
317,0.793,37.049,13.894,30.378,23.296,4.742,6.755,5.975
318,0.777,36.761,13.828,30.359,23.293,4.661,6.754,5.974
319,0.754,36.893,13.846,30.397,23.293,4.782,6.754,6.055
320,0.761,37.019,13.823,30.398,23.31,4.905,6.957,6.137
321,0.767,37.077,13.85,30.427,23.31,4.906,6.96,6.138
322,0.78,36.867,13.858,30.398,23.297,4.784,6.838,6.057
323,0.758,36.98,13.827,30.398,23.3,4.824,6.837,5.975
324,0.767,37.077,13.858,30.417,23.307,4.824,6.755,6.015
325,0.757,36.992,13.788,30.417,23.307,4.743,6.795,6.056
326,0.761,36.828,13.826,30.398,23.307,4.823,6.836,6.097
327,0.761,36.951,13.878,30.407,23.307,4.905,6.877,6.056
328,0.78,37.038,13.765,30.427,23.31,4.825,6.796,6.015
329,0.797,36.751,13.854,30.398,23.297,4.743,6.755,5.934
330,0.777,36.787,13.866,30.359,23.296,4.701,6.673,5.974
331,0.745,36.931,13.866,30.407,23.3,4.782,6.794,5.974
332,0.757,37.048,13.8,30.427,23.307,4.824,6.755,6.055
333,0.757,36.713,13.834,30.398,23.3,4.824,6.714,5.975
334,0.728,36.825,13.878,30.407,23.3,4.783,6.713,5.974
335,0.708,36.951,13.82,30.388,23.303,4.742,6.713,5.852
336,0.702,37.019,13.831,30.417,23.296,4.783,6.672,5.932
337,0.718,36.924,13.854,30.398,23.3,4.824,6.713,6.055
338,0.715,37.096,13.815,30.455,23.314,4.946,6.876,6.137
339,0.731,37.232,13.846,30.456,23.31,4.988,6.837,6.016
340,0.741,37.3,13.878,30.427,23.307,4.866,6.755,6.015
341,0.747,36.524,13.913,30.427,23.307,4.784,6.754,5.934
342,0.757,36.66,13.82,30.417,23.303,4.824,6.714,5.933
343,0.774,36.776,13.854,30.427,23.303,4.865,6.794,6.014
344,0.777,36.835,13.87,30.446,23.3,4.906,6.795,5.974
345,0.784,36.663,13.859,30.446,23.307,4.825,6.877,6.055
346,0.787,36.815,13.839,30.437,23.307,4.865,6.877,6.056
347,0.771,36.903,13.85,30.427,23.297,4.743,6.715,5.812
348,0.78,36.904,13.858,30.417,23.296,4.823,6.835,5.932
349,0.774,36.645,13.808,30.417,23.303,4.824,6.918,5.974
350,0.784,36.757,13.885,30.427,23.303,4.865,6.959,5.974
351,0.761,36.883,13.851,30.427,23.296,4.865,7.0,6.015
352,0.764,36.913,13.722,30.456,23.296,4.906,6.96,5.974
353,0.731,36.693,13.818,30.418,23.3,4.825,6.96,5.933
354,0.738,36.796,13.827,30.436,23.293,4.905,7.082,6.014
355,0.738,36.941,13.881,30.532,23.31,4.987,7.205,6.056
356,0.751,36.655,13.812,30.485,23.317,5.07,7.247,6.056
357,0.751,36.7,13.885,30.447,23.304,4.948,7.084,6.056
358,0.738,36.806,13.87,30.465,23.303,4.907,7.164,5.975
359,0.738,36.903,13.855,30.475,23.3,4.906,7.084,5.974
360,0.731,36.539,13.89,30.466,23.307,4.906,7.123,6.015
361,0.76,36.66,13.882,30.446,23.307,4.947,7.124,6.015
362,0.757,36.776,13.82,30.465,23.31,5.029,7.165,5.974
363,0.764,36.845,13.846,30.466,23.303,4.907,7.124,5.974
364,0.764,36.5,13.85,30.456,23.307,4.865,7.002,5.811
365,0.757,36.612,13.874,30.437,23.293,4.784,7.123,5.932
366,0.761,36.728,13.777,30.456,23.296,4.905,7.124,5.974
367,0.787,36.806,13.873,30.456,23.3,4.906,7.124,5.974
368,0.793,36.442,13.851,30.446,23.293,4.906,7.165,5.893
369,0.793,36.582,13.811,30.475,23.3,4.825,7.124,5.851
370,0.774,36.68,13.866,30.475,23.3,4.905,7.124,5.851
371,0.761,36.738,13.839,30.456,23.296,4.825,7.043,5.891
372,0.761,36.48,13.807,30.485,23.3,4.905,7.204,6.014
373,0.77,36.65,13.799,30.494,23.31,5.028,7.247,6.137
374,0.777,36.796,13.889,30.514,23.307,4.948,7.166,6.016
375,0.764,36.787,13.761,30.476,23.297,4.988,7.084,5.974
376,0.754,36.576,13.799,30.485,23.307,4.866,7.164,5.974
377,0.751,36.689,13.877,30.475,23.3,4.865,7.124,6.015
378,0.728,36.796,13.781,30.514,23.3,4.946,7.165,6.015
379,0.757,37.046,13.842,30.485,23.303,4.988,7.206,6.015
380,0.78,36.589,13.886,30.504,23.307,4.988,7.165,6.056
381,0.797,36.709,13.886,30.495,23.303,4.907,7.084,5.975
382,0.797,36.806,13.839,30.485,23.293,4.906,7.002,5.893
383,0.787,36.433,13.85,30.456,23.293,4.784,6.96,5.973
384,0.803,36.496,13.893,30.504,23.303,4.905,7.082,5.974
385,0.803,36.631,13.882,30.533,23.3,4.865,7.042,5.933
386,0.794,36.719,13.835,30.485,23.3,4.865,7.042,5.852
387,0.8,36.365,13.897,30.475,23.3,4.865,7.001,5.851
388,0.807,36.495,13.835,30.485,23.3,4.906,7.041,5.851
389,0.807,36.612,13.843,30.466,23.296,4.784,7.082,5.891
390,0.803,36.69,13.839,30.494,23.303,4.905,7.042,6.014
391,0.803,36.412,13.835,30.514,23.317,4.987,7.164,6.056
392,0.784,36.582,13.796,30.543,23.311,5.029,7.084,5.975
393,0.771,36.67,13.846,30.514,23.303,4.907,7.042,5.893
394,0.741,36.729,13.858,30.504,23.303,4.906,6.96,5.973
395,0.744,36.326,13.776,30.514,23.3,4.947,7.082,5.893
396,0.757,36.447,13.826,30.524,23.307,4.947,7.042,6.014
397,0.761,36.583,13.858,30.524,23.3,4.907,7.001,5.934
398,0.741,36.632,13.851,30.572,23.31,4.947,7.001,5.933
399,0.741,36.508,13.808,30.534,23.307,4.866,7.041,5.933
400,0.764,36.631,13.823,30.505,23.293,4.784,6.879,5.852
401,0.767,36.7,13.831,30.466,23.289,4.702,6.918,5.891
402,0.777,36.767,13.807,30.513,23.303,4.904,6.919,5.892
403,0.784,36.193,13.831,30.524,23.3,4.906,6.959,5.973
404,0.784,36.359,13.905,30.524,23.3,4.825,6.919,5.852
405,0.784,36.457,13.871,30.514,23.293,4.783,6.919,5.851
406,0.81,36.803,13.882,30.514,23.296,4.824,6.919,5.851
407,0.82,36.385,13.835,30.504,23.296,4.824,6.919,5.891
408,0.83,36.534,13.874,30.523,23.3,4.987,7.041,5.973
409,0.839,36.651,13.827,30.552,23.314,5.029,7.123,5.974
410,0.865,36.402,13.909,30.553,23.314,4.948,7.002,5.893
411,0.856,36.4,13.859,30.524,23.3,4.907,6.96,5.973
412,0.84,36.515,13.761,30.552,23.3,4.906,7.041,5.933
413,0.826,36.612,13.814,30.533,23.303,4.906,7.001,5.974
414,0.83,36.21,13.795,30.533,23.303,4.906,7.041,5.974
415,0.836,36.34,13.78,30.533,23.307,4.906,7.082,5.893
416,0.82,36.457,13.838,30.552,23.307,4.947,7.083,5.933
417,0.826,36.544,13.854,30.543,23.303,4.947,7.042,5.811
418,0.807,36.248,13.796,30.533,23.296,4.785,7.001,5.81
419,0.784,36.36,13.823,30.505,23.293,4.783,7.001,5.891
420,0.803,36.505,13.854,30.543,23.303,4.864,7.123,5.933
421,0.807,36.593,13.858,30.553,23.296,4.824,7.043,5.892
422,0.803,36.124,13.839,30.524,23.296,4.865,7.042,5.892
423,0.803,36.282,13.87,30.543,23.296,4.865,7.042,5.811
424,0.81,36.389,13.823,30.543,23.296,4.865,7.042,5.932
425,0.81,36.448,13.858,30.543,23.3,4.824,7.082,5.933
426,0.839,36.257,13.823,30.543,23.303,4.905,7.205,6.014
427,0.846,36.418,13.913,30.591,23.31,4.987,7.206,5.934
428,0.879,36.544,13.894,30.591,23.314,4.907,7.125,5.974
429,0.863,36.564,13.859,30.572,23.304,4.865,7.083,5.933
430,0.875,36.248,13.894,30.562,23.307,4.906,7.164,5.974
431,0.866,36.36,13.882,30.572,23.297,4.906,7.084,5.974
432,0.866,36.486,13.859,30.572,23.307,4.906,7.164,6.015
433,0.879,36.516,13.819,30.572,23.31,4.906,7.124,6.056
434,0.879,36.171,13.842,30.562,23.307,4.947,7.124,5.975
435,0.863,36.302,13.839,30.572,23.303,4.825,7.002,5.974
436,0.859,36.399,13.827,30.553,23.3,4.783,6.919,5.893
437,0.853,36.218,13.881,30.562,23.293,4.824,7.081,6.014
438,0.853,36.273,13.859,30.61,23.303,4.865,7.042,6.015
439,0.853,36.389,13.815,30.572,23.307,4.824,7.082,6.056
440,0.836,36.486,13.862,30.562,23.3,4.865,7.123,5.975
441,0.852,36.075,13.874,30.572,23.289,4.784,7.083,6.015
442,0.879,36.176,13.82,30.562,23.296,4.824,7.123,6.015
443,0.879,36.292,13.827,30.562,23.293,4.824,7.124,5.974
444,0.882,36.399,13.85,30.582,23.307,4.865,7.327,6.177
445,0.895,36.17,13.854,30.62,23.307,5.028,7.329,6.139
446,0.905,36.34,13.835,30.592,23.307,4.867,7.248,6.016
447,0.889,36.419,13.862,30.572,23.307,4.865,7.206,6.056
448,0.895,36.496,13.855,30.582,23.303,4.865,7.287,6.056
449,0.889,36.123,13.874,30.591,23.303,4.824,7.288,6.056
450,0.885,36.253,13.905,30.591,23.3,4.905,7.288,6.097
451,0.863,36.408,13.863,30.601,23.307,4.906,7.288,6.097
452,0.846,36.477,13.843,30.601,23.31,4.906,7.288,6.056
453,0.846,36.075,13.831,30.591,23.3,4.825,7.125,6.015
454,0.84,36.195,13.866,30.582,23.296,4.743,7.165,6.056
455,0.839,36.302,13.812,30.591,23.3,4.823,7.246,6.137
456,0.849,36.37,13.815,30.591,23.303,4.824,7.247,6.098
457,0.846,36.122,13.831,30.591,23.303,4.905,7.206,6.097
458,0.83,36.272,13.843,30.582,23.293,4.865,7.125,6.056
459,0.83,36.37,13.827,30.582,23.296,4.743,7.124,6.056
460,0.83,36.371,13.85,30.591,23.293,4.823,7.165,6.056
461,0.843,36.045,13.827,30.591,23.3,4.783,7.124,6.137
462,0.826,36.185,13.76,30.639,23.31,4.905,7.287,6.219
463,0.846,36.331,13.853,30.64,23.314,4.987,7.288,6.22
464,0.856,36.159,13.874,30.611,23.307,4.785,7.085,6.139
465,0.849,36.119,13.847,30.62,23.307,4.864,7.123,6.179
466,0.846,36.215,13.839,30.611,23.3,4.865,7.124,6.139
467,0.84,36.331,13.846,30.62,23.307,4.906,7.124,6.138
468,0.839,36.131,13.854,30.62,23.307,4.947,7.124,6.138
469,0.82,36.244,13.851,30.62,23.307,4.907,7.165,6.219
470,0.803,36.36,13.858,30.611,23.31,4.825,7.084,6.098
471,0.781,36.438,13.854,30.611,23.297,4.702,6.961,6.056
472,0.754,35.892,13.819,30.63,23.293,4.782,7.041,6.137
473,0.764,36.04,13.858,30.611,23.3,4.864,7.082,6.138
474,0.741,36.166,13.854,30.611,23.303,4.865,7.083,6.179
475,0.728,36.263,13.749,30.62,23.3,4.824,7.123,6.139
476,0.728,36.025,13.842,30.601,23.293,4.824,7.043,6.098
477,0.721,36.156,13.854,30.591,23.293,4.824,7.082,6.138
478,0.721,36.273,13.847,30.678,23.3,4.824,7.205,6.138
479,0.737,36.341,13.819,30.64,23.307,4.905,7.328,6.382
480,0.767,36.016,13.854,30.649,23.314,4.987,7.451,6.303
481,0.764,36.118,13.854,30.63,23.3,4.907,7.412,6.18
482,0.767,36.224,13.772,30.63,23.307,4.865,7.411,6.22
483,0.764,36.293,13.842,30.63,23.307,4.906,7.493,6.22
484,0.764,35.967,13.854,30.64,23.307,4.865,7.534,6.342
485,0.748,36.127,13.854,30.63,23.303,4.824,7.616,6.303
486,0.754,36.244,13.811,30.64,23.307,4.865,7.657,6.302
487,0.764,36.245,13.858,30.64,23.307,4.865,7.658,6.262
488,0.77,36.015,13.874,30.621,23.293,4.743,7.576,6.139
489,0.741,36.108,13.812,30.611,23.293,4.742,7.657,6.26
490,0.734,36.215,13.874,30.639,23.303,4.783,7.739,6.262
491,0.712,36.12,13.82,30.64,23.303,4.864,7.659,6.18
492,0.705,35.994,13.784,30.649,23.293,4.824,7.698,6.22
493,0.682,36.127,13.823,30.64,23.303,4.824,7.658,6.22
494,0.672,36.205,13.85,30.621,23.296,4.743,7.698,6.22
495,0.678,35.89,13.827,30.63,23.3,4.783,7.78,6.22
496,0.665,36.002,13.819,30.649,23.3,4.864,7.822,6.383
497,0.675,36.127,13.893,30.659,23.317,4.987,7.863,6.425
498,0.669,36.244,13.902,30.697,23.314,4.907,7.741,6.304
499,0.669,35.871,13.843,30.65,23.3,4.825,7.74,6.343
500,0.662,36.001,13.893,30.649,23.307,4.865,7.781,6.343
501,0.685,36.108,13.867,30.649,23.3,4.865,7.7,6.384
502,0.701,36.196,13.804,30.659,23.314,4.865,7.74,6.303
503,0.708,35.89,13.831,30.659,23.307,4.906,7.699,6.384
504,0.711,36.05,13.839,30.669,23.307,4.906,7.699,6.385
505,0.711,36.157,13.846,30.65,23.293,4.906,7.618,6.303
506,0.708,36.215,13.8,30.63,23.293,4.744,7.576,6.18
507,0.698,35.842,13.823,30.611,23.296,4.823,7.575,6.342
508,0.698,36.001,13.842,30.649,23.296,4.824,7.616,6.303
509,0.711,36.118,13.819,30.659,23.307,4.824,7.535,6.302
510,0.715,36.177,13.901,30.65,23.297,4.783,7.494,6.302
511,0.711,35.861,13.851,30.64,23.3,4.824,7.534,6.221
512,0.702,35.973,13.823,30.649,23.296,4.824,7.372,6.302
513,0.711,36.098,13.835,30.64,23.296,4.743,7.492,6.302
514,0.695,36.138,13.811,30.669,23.307,4.864,7.575,6.384
515,0.692,36.014,13.846,30.688,23.314,5.028,7.657,6.425
516,0.701,36.166,13.854,30.679,23.31,4.826,7.536,6.385
517,0.698,36.215,13.901,30.659,23.303,4.824,7.453,6.466
518,0.685,36.187,13.913,30.688,23.303,4.905,7.493,6.345
519,0.688,35.957,13.851,30.669,23.303,4.906,7.453,6.384
520,0.675,36.098,13.929,30.678,23.303,4.865,7.371,6.385
521,0.698,36.176,13.859,30.678,23.307,4.906,7.411,6.385
522,0.692,35.861,13.784,30.688,23.307,4.906,7.371,6.303
523,0.688,35.905,13.834,30.669,23.297,4.744,7.208,6.221
524,0.685,36.021,13.811,30.65,23.296,4.823,7.247,6.302
525,0.692,36.128,13.834,30.678,23.303,4.865,7.328,6.302
526,0.698,35.908,13.8,30.688,23.3,4.824,7.248,6.262
527,0.701,36.05,13.85,30.679,23.303,4.743,7.247,6.302
528,0.711,36.176,13.847,30.65,23.296,4.783,7.288,6.302
529,0.724,36.244,13.808,30.649,23.296,4.783,7.207,6.262
530,0.715,35.785,13.901,30.678,23.3,4.783,7.287,6.302
531,0.708,35.953,13.851,30.698,23.303,4.864,7.41,6.506
532,0.721,36.098,13.854,30.717,23.307,4.946,7.493,6.427
533,0.724,36.176,13.819,30.679,23.303,4.825,7.371,6.344
534,0.715,35.794,13.866,30.678,23.296,4.824,7.492,6.303
535,0.698,35.972,13.835,30.688,23.31,4.783,7.534,6.384
536,0.692,36.089,13.815,30.688,23.303,4.864,7.534,6.385
537,0.695,36.138,13.901,30.707,23.307,4.906,7.697,6.385
538,0.708,35.832,13.843,30.736,23.307,4.906,7.618,6.385
539,0.718,35.963,13.862,30.679,23.307,4.865,7.698,6.222
540,0.715,36.079,13.851,30.669,23.293,4.784,7.496,6.22
541,0.721,36.061,13.886,30.669,23.296,4.783,7.575,6.342
542,0.721,35.802,13.855,30.698,23.307,4.783,7.698,6.303
543,0.731,35.924,13.858,30.698,23.303,4.864,7.577,6.262
544,0.725,36.04,13.874,30.688,23.303,4.824,7.657,6.221
545,0.724,36.214,13.839,30.698,23.3,4.824,7.617,6.22
546,0.721,35.957,13.807,30.679,23.3,4.783,7.617,6.22
547,0.715,36.079,13.842,30.678,23.296,4.783,7.698,6.342
548,0.715,36.224,13.823,30.707,23.314,4.905,7.821,6.384
549,0.737,35.727,13.842,30.727,23.314,4.947,7.781,6.263
550,0.734,35.703,13.835,30.689,23.3,4.825,7.74,6.221
551,0.728,35.837,13.811,30.698,23.303,4.824,7.699,6.302
552,0.738,35.944,13.846,30.707,23.307,4.865,7.699,6.302
553,0.747,35.762,13.835,30.717,23.307,4.824,7.74,6.343
554,0.773,35.904,13.882,30.708,23.3,4.865,7.74,6.262
555,0.81,36.021,13.851,30.708,23.307,4.824,7.659,6.302
556,0.829,36.099,13.854,30.688,23.3,4.743,7.495,6.18
557,0.846,35.716,13.87,30.669,23.293,4.701,7.534,6.22
558,0.833,35.885,13.847,30.707,23.296,4.823,7.616,6.302
559,0.862,36.021,13.847,30.708,23.303,4.865,7.657,6.384
560,0.869,36.089,13.882,30.708,23.303,4.743,7.576,6.263
561,0.895,35.63,13.847,30.708,23.293,4.742,7.575,6.221
562,0.938,35.778,13.843,30.698,23.3,4.823,7.535,6.261
563,0.954,35.895,13.819,30.707,23.293,4.743,7.494,6.302
564,0.958,35.935,13.831,30.717,23.3,4.783,7.534,6.425
565,1.007,35.839,13.835,30.727,23.31,4.946,7.697,6.466
566,1.02,36.02,13.843,30.756,23.317,4.866,7.577,6.386
567,1.04,36.099,13.866,30.718,23.304,4.865,7.535,6.344
568,1.098,36.119,13.851,30.708,23.307,4.865,7.494,6.343
569,1.151,35.764,13.854,30.708,23.3,4.824,7.575,6.384
570,1.184,35.885,13.882,30.727,23.31,4.865,7.535,6.466
571,1.217,35.992,13.804,30.727,23.3,4.865,7.534,6.467
572,1.266,36.377,13.807,30.746,23.303,4.824,7.494,6.467
573,1.28,35.796,13.819,30.737,23.303,4.824,7.453,6.467
574,1.293,35.905,13.854,30.737,23.293,4.702,7.33,6.345
575,1.286,36.011,13.843,30.698,23.296,4.782,7.451,6.466
576,1.306,35.801,13.807,30.717,23.303,4.783,7.534,6.467
577,1.319,35.819,13.873,30.727,23.3,4.824,7.453,6.507
578,1.313,35.943,13.827,30.727,23.3,4.783,7.371,6.508
579,1.339,36.041,13.839,30.727,23.296,4.742,7.37,6.467
580,1.342,35.629,13.901,30.708,23.3,4.701,7.452,6.548
581,1.336,35.759,13.867,30.708,23.296,4.823,7.493,6.59
582,1.332,35.866,13.753,30.765,23.303,4.946,7.534,6.631
583,1.31,35.992,13.834,30.766,23.314,4.907,7.534,6.672
584,1.274,35.686,13.854,30.746,23.3,4.784,7.453,6.631
585,1.218,35.817,13.858,30.737,23.303,4.824,7.412,6.712
586,1.178,35.934,13.851,30.746,23.3,4.824,7.411,6.794
587,1.123,36.012,13.843,30.746,23.303,4.824,7.452,6.877
588,1.119,35.629,13.835,30.746,23.303,4.824,7.452,7.0
589,1.05,35.759,13.874,30.746,23.307,4.824,7.371,7.204
590,0.985,35.876,13.882,30.756,23.307,4.743,7.289,7.287
591,0.883,35.915,13.788,30.727,23.293,4.661,7.207,7.451
592,0.794,35.743,13.819,30.736,23.307,4.822,7.287,7.778
593,0.712,35.875,13.811,30.746,23.297,4.783,7.288,8.066
594,0.61,36.002,13.838,30.746,23.303,4.783,7.166,8.231
595,0.548,36.051,13.827,30.727,23.293,4.742,7.206,8.477
596,0.489,36.348,13.835,30.736,23.293,4.823,7.247,8.601
597,0.449,36.467,13.874,30.717,23.293,4.743,7.206,8.887
598,0.426,36.583,13.843,30.746,23.3,4.823,7.287,9.134
599,0.429,36.613,13.831,30.756,23.307,4.865,7.41,9.38
600,0.435,35.338,13.858,30.785,23.314,4.865,7.371,9.464
601,0.491,35.449,13.89,30.766,23.31,4.824,7.289,9.424
602,0.527,35.547,13.765,30.766,23.303,4.783,7.207,9.505
603,0.563,35.711,13.811,30.766,23.3,4.824,7.206,9.668
604,0.606,35.837,13.858,30.756,23.3,4.865,7.328,9.792
605,0.639,35.972,13.843,30.766,23.303,4.824,7.289,9.956
606,0.675,36.05,13.839,30.766,23.307,4.824,7.369,10.12
607,0.701,35.428,13.843,30.785,23.307,4.783,7.37,10.325
608,0.741,35.537,13.858,30.756,23.297,4.742,7.33,10.53
609,0.764,35.634,13.843,30.718,23.289,4.701,7.329,10.858
610,0.78,35.711,13.893,30.746,23.303,4.782,7.451,11.146
611,0.787,35.664,13.874,30.765,23.296,4.864,7.371,11.515
612,0.787,35.808,13.859,30.737,23.3,4.743,7.37,11.762
613,0.8,35.934,13.819,30.765,23.296,4.742,7.37,11.968
614,0.784,35.993,13.823,30.766,23.3,4.742,7.37,12.254
615,0.79,35.437,13.811,30.746,23.296,4.701,7.37,12.379
616,0.79,35.594,13.811,30.765,23.296,4.863,7.492,12.625
617,0.797,35.721,13.827,30.775,23.314,4.906,7.616,12.79
618,0.803,35.827,13.842,30.814,23.31,4.906,7.617,12.832
619,0.807,35.646,13.831,30.776,23.3,4.825,7.576,12.873
620,0.797,35.788,13.897,30.785,23.307,4.783,7.616,12.792
621,0.803,35.895,13.89,30.785,23.307,4.783,7.535,12.751
622,0.813,35.935,13.816,30.785,23.307,4.864,7.616,12.709
623,0.816,35.628,13.877,30.804,23.307,4.906,7.657,12.75
624,0.82,35.75,13.87,30.785,23.307,4.825,7.617,12.628
625,0.81,35.866,13.851,30.785,23.303,4.865,7.535,12.464
626,0.816,35.858,13.831,30.756,23.29,4.662,7.453,12.3
627,0.82,35.493,13.831,30.766,23.296,4.782,7.534,12.258
628,0.83,35.672,13.87,30.775,23.3,4.824,7.534,12.217
629,0.833,35.769,13.823,30.775,23.3,4.865,7.494,12.094
630,0.826,35.646,13.854,30.785,23.303,4.784,7.453,12.012
631,0.8,35.664,13.854,30.775,23.293,4.783,7.452,11.93
632,0.781,35.779,13.851,30.747,23.293,4.742,7.412,11.807
633,0.777,35.866,13.847,30.785,23.296,4.783,7.411,11.765
634,0.767,35.532,13.886,30.785,23.303,4.905,7.574,11.724
635,0.764,35.672,13.89,30.862,23.31,4.947,7.575,11.642
636,0.78,35.817,13.82,30.795,23.307,4.825,7.413,11.479
637,0.79,35.876,13.87,30.775,23.307,4.865,7.452,11.355
638,0.774,35.541,13.823,30.785,23.3,4.824,7.412,11.232
639,0.777,35.682,13.831,30.785,23.303,4.865,7.371,11.149
640,0.787,35.779,13.854,30.795,23.3,4.824,7.452,11.067
641,0.8,35.876,13.851,30.804,23.314,4.865,7.452,10.863
642,0.8,35.484,13.769,30.804,23.307,4.824,7.452,10.739
643,0.81,35.624,13.791,30.776,23.297,4.743,7.29,10.535
644,0.797,35.692,13.85,30.766,23.293,4.742,7.288,10.532
645,0.794,35.779,13.835,30.766,23.293,4.823,7.369,10.41
646,0.8,35.646,13.843,30.785,23.3,4.824,7.37,10.328
647,0.797,35.759,13.858,30.785,23.3,4.824,7.37,10.083
648,0.81,35.895,13.866,30.785,23.296,4.824,7.289,9.959
649,0.807,35.935,13.831,30.785,23.293,4.743,7.329,9.795
650,0.813,35.465,13.897,30.756,23.3,4.742,7.329,9.793
651,0.826,35.595,13.835,30.785,23.303,4.864,7.451,9.834
652,0.83,35.749,13.85,30.862,23.314,4.946,7.452,9.794
653,0.852,35.789,13.854,30.824,23.31,4.825,7.371,9.509
654,0.817,35.56,13.827,30.795,23.307,4.865,7.411,9.465
655,0.813,35.672,13.757,30.804,23.303,4.824,7.371,9.343
656,0.807,35.798,13.822,30.795,23.303,4.905,7.411,9.26
657,0.794,35.675,13.878,30.785,23.307,4.865,7.371,9.178
658,0.784,35.587,13.874,30.814,23.31,4.865,7.37,9.137
659,0.771,35.711,13.847,30.814,23.307,4.824,7.37,9.014
660,0.777,35.798,13.882,30.785,23.3,4.743,7.33,8.769
661,0.784,35.454,13.851,30.737,23.289,4.701,7.207,8.767
662,0.787,35.556,13.776,30.784,23.3,4.823,7.369,8.767
663,0.806,35.701,13.819,30.804,23.307,4.865,7.37,8.604
664,0.826,35.808,13.807,30.804,23.297,4.824,7.289,8.602
665,0.83,35.397,13.838,30.804,23.307,4.824,7.329,8.602
666,0.826,35.517,13.811,30.785,23.293,4.824,7.329,8.48
667,0.82,35.624,13.858,30.775,23.296,4.743,7.289,8.357
668,0.843,35.721,13.835,30.794,23.3,4.823,7.369,8.397
669,0.849,35.386,13.835,30.804,23.31,4.905,7.411,8.438
670,0.849,35.565,13.905,30.823,23.31,4.947,7.411,8.235
671,0.827,35.663,13.867,30.805,23.307,4.825,7.289,8.233
672,0.82,35.731,13.831,30.862,23.297,4.824,7.288,8.192
673,0.823,35.396,13.858,30.805,23.3,4.824,7.329,8.11
674,0.804,35.546,13.808,30.823,23.303,4.865,7.289,8.028
675,0.816,35.653,13.838,30.872,23.307,4.784,7.329,8.027
676,0.813,35.75,13.831,30.824,23.307,4.905,7.329,7.987
677,0.836,35.502,13.874,30.814,23.307,4.825,7.289,7.824
678,0.81,35.614,13.886,30.804,23.293,4.743,7.166,7.781
679,0.8,35.702,13.82,30.814,23.296,4.742,7.328,7.781
680,0.81,35.75,13.881,30.804,23.307,4.864,7.289,7.659
681,0.82,35.454,13.839,30.814,23.297,4.865,7.288,7.698
682,0.81,35.604,13.788,30.804,23.3,4.743,7.329,7.577
683,0.813,35.702,13.815,30.814,23.3,4.701,7.248,7.535
684,0.82,35.597,13.799,30.804,23.296,4.782,7.247,7.494
685,0.82,35.337,13.815,30.804,23.3,4.783,7.288,7.534
686,0.826,35.488,13.772,30.843,23.31,4.824,7.451,7.657
687,0.833,35.614,13.865,30.881,23.317,4.946,7.412,7.576
688,0.836,35.452,13.862,30.815,23.3,4.825,7.411,7.454
689,0.826,35.556,13.819,30.814,23.303,4.865,7.33,7.412
690,0.843,35.653,13.909,30.804,23.293,4.824,7.329,7.411
691,0.839,35.76,13.871,30.823,23.303,4.824,7.37,7.411
692,0.852,35.291,13.738,30.833,23.303,4.824,7.452,7.371
693,0.853,35.43,13.849,30.843,23.307,4.905,7.452,7.33
694,0.853,35.556,13.839,30.824,23.303,4.784,7.33,7.207
695,0.833,35.624,13.87,30.795,23.29,4.661,7.289,7.125
696,0.833,35.395,13.808,30.795,23.296,4.782,7.41,7.205
697,0.83,35.556,13.881,30.814,23.303,4.742,7.371,7.206
698,0.83,35.701,13.878,30.814,23.296,4.783,7.411,7.206
699,0.823,35.741,13.816,30.824,23.3,4.742,7.411,7.084
700,0.807,35.348,13.881,30.824,23.3,4.701,7.289,7.042
701,0.82,35.469,13.874,30.814,23.296,4.701,7.329,7.082
702,0.813,35.604,13.78,30.814,23.3,4.782,7.37,7.164
703,0.836,35.673,13.85,30.833,23.31,4.824,7.492,7.124
704,0.852,35.367,13.835,30.862,23.31,4.905,7.331,7.083
705,0.859,35.507,13.846,30.824,23.3,4.825,7.329,7.042
706,0.872,35.585,13.796,30.824,23.296,4.824,7.329,7.082
707,0.882,35.625,13.834,30.814,23.303,4.905,7.37,7.002
708,0.866,35.337,13.823,30.852,23.307,4.784,7.33,6.96
709,0.866,35.469,13.819,30.843,23.307,4.824,7.329,6.96
710,0.866,35.595,13.889,30.833,23.3,4.905,7.329,7.0
711,0.869,35.701,13.859,30.824,23.3,4.865,7.289,6.96
712,0.859,35.405,13.839,30.814,23.293,4.662,7.166,6.716
713,0.84,35.508,13.807,30.804,23.3,4.741,7.246,6.876
714,0.852,35.633,13.893,30.823,23.307,4.742,7.247,6.877
715,0.869,35.309,13.828,30.843,23.303,4.783,7.206,6.837
716,0.879,35.334,13.827,30.824,23.296,4.783,7.206,6.755
717,0.859,35.43,13.905,30.814,23.296,4.742,7.247,6.714
718,0.836,35.546,13.855,30.814,23.296,4.823,7.206,6.713
719,0.856,35.413,13.858,30.814,23.3,4.783,7.287,6.794
720,0.862,35.556,13.866,30.852,23.314,4.946,7.329,6.877
721,0.885,35.711,13.886,30.862,23.31,4.907,7.289,6.796
722,0.889,35.77,13.804,30.843,23.297,4.825,7.247,6.673
723,0.885,35.128,13.834,30.824,23.293,4.824,7.288,6.713
724,0.885,35.275,13.858,30.824,23.3,4.783,7.288,6.713
725,0.882,35.411,13.835,30.843,23.307,4.783,7.207,6.713
726,0.885,35.479,13.823,30.833,23.303,4.824,7.206,6.713
727,0.872,35.355,13.831,30.833,23.307,4.824,7.165,6.672
728,0.882,35.507,13.819,30.833,23.303,4.783,7.165,6.55
729,0.882,35.614,13.835,30.814,23.29,4.661,7.002,6.508
730,0.889,35.634,13.823,30.804,23.296,4.741,7.123,6.589
731,0.892,35.213,13.819,30.833,23.3,4.783,7.124,6.59
732,0.889,35.352,13.796,30.833,23.296,4.783,7.124,6.59
733,0.885,35.459,13.78,30.824,23.3,4.742,7.083,6.549
734,0.879,35.508,13.819,30.824,23.293,4.701,7.042,6.468
735,0.853,35.288,13.831,30.814,23.3,4.742,7.001,6.467
736,0.853,35.411,13.835,30.824,23.293,4.701,7.082,6.507
737,0.849,35.537,13.858,30.843,23.307,4.904,7.205,6.63
738,0.843,35.912,13.858,30.872,23.314,4.987,7.328,6.59
739,0.853,35.379,13.866,30.853,23.304,4.785,7.207,6.468
740,0.833,35.479,13.901,30.843,23.3,4.742,7.247,6.467
741,0.846,35.585,13.843,30.833,23.3,4.864,7.328,6.467
742,0.846,35.26,13.843,30.824,23.303,4.824,7.329,6.426
743,0.859,35.276,13.8,30.852,23.307,4.824,7.41,6.507
744,0.869,35.42,13.83,30.853,23.307,4.824,7.493,6.467
745,0.879,35.508,13.811,30.843,23.307,4.783,7.494,6.426
746,0.882,35.183,13.842,30.833,23.297,4.783,7.412,6.344
747,0.889,35.285,13.78,30.795,23.293,4.661,7.452,6.466
748,0.899,35.42,13.811,30.823,23.303,4.822,7.534,6.386
749,0.899,35.527,13.842,30.833,23.296,4.783,7.534,6.344
750,0.915,35.116,13.835,30.833,23.303,4.783,7.575,6.262
751,0.909,35.275,13.835,30.843,23.3,4.702,7.535,6.343
752,0.928,35.372,13.764,30.824,23.296,4.742,7.453,6.343
753,0.928,35.479,13.795,30.833,23.303,4.783,7.574,6.384
754,0.905,35.182,13.776,30.853,23.31,4.905,7.698,6.547
755,0.908,35.381,13.834,30.881,23.314,4.947,7.618,6.427
756,0.902,35.488,13.862,30.863,23.304,4.785,7.576,6.344
757,0.882,35.509,13.847,30.853,23.307,4.783,7.535,6.384
758,0.872,35.144,13.874,30.853,23.3,4.824,7.616,6.385
759,0.866,35.285,13.862,30.853,23.307,4.824,7.617,6.385
760,0.866,35.411,13.886,30.843,23.307,4.824,7.576,6.466
761,0.872,35.431,13.855,30.853,23.31,4.865,7.535,6.386
762,0.876,35.211,13.819,30.843,23.307,4.824,7.494,6.222
763,0.872,35.304,13.796,30.833,23.297,4.702,7.331,6.18
764,0.895,35.401,13.795,30.814,23.296,4.782,7.492,6.301
765,0.918,35.565,13.83,30.833,23.3,4.742,7.453,6.262
766,0.918,35.203,13.835,30.833,23.296,4.823,7.452,6.302
767,0.922,35.314,13.792,30.843,23.296,4.702,7.412,6.262
768,0.935,35.43,13.846,30.833,23.3,4.782,7.371,6.139
769,0.941,35.201,13.847,30.824,23.296,4.783,7.37,6.179
770,0.951,35.208,13.866,30.824,23.293,4.702,7.411,6.22
771,0.958,35.372,13.788,30.852,23.31,4.945,7.493,6.424
772,0.971,35.498,13.873,30.862,23.31,4.907,7.494,6.304
773,0.977,35.135,13.827,30.843,23.303,4.825,7.331,6.343
774,0.958,35.217,13.827,30.824,23.307,4.905,7.329,6.262
775,0.951,35.372,13.839,30.862,23.3,4.825,7.329,6.262
776,0.948,35.469,13.796,30.862,23.31,4.824,7.37,6.221
777,0.935,35.154,13.85,30.843,23.303,4.743,7.37,6.302
778,0.918,35.313,13.835,30.862,23.307,4.864,7.33,6.221
779,0.909,35.449,13.831,30.834,23.307,4.784,7.167,6.098
780,0.918,35.47,13.893,30.833,23.293,4.702,7.206,6.138
781,0.912,35.039,13.867,30.824,23.3,4.823,7.287,6.219
782,0.922,35.207,13.866,30.862,23.3,4.783,7.247,6.139
783,0.902,35.343,13.831,30.834,23.3,4.783,7.247,6.138
784,0.912,35.392,13.854,30.824,23.293,4.783,7.166,6.098
785,0.902,35.162,13.843,30.833,23.296,4.783,7.124,6.097
786,0.918,35.323,13.804,30.833,23.3,4.742,7.205,6.178
787,0.925,35.421,13.823,30.853,23.303,4.823,7.247,6.22
788,0.957,35.508,13.819,30.881,23.31,4.987,7.328,6.22
789,0.961,35.221,13.838,30.853,23.3,4.826,7.207,6.18
790,0.955,35.295,13.854,30.834,23.303,4.824,7.287,6.139
791,0.945,35.42,13.796,30.853,23.307,4.865,7.125,6.138
792,0.961,35.46,13.838,30.853,23.307,4.865,7.246,6.179
793,0.958,35.211,13.811,30.853,23.307,4.824,7.247,6.139
794,0.954,35.343,13.858,30.843,23.307,4.824,7.288,6.219
795,0.971,35.469,13.843,30.853,23.307,4.824,7.247,6.058
796,0.977,35.25,13.815,30.824,23.297,4.702,7.125,6.056
797,0.981,35.171,13.827,30.814,23.296,4.66,7.124,6.097
798,0.977,35.314,13.839,30.843,23.303,4.741,7.287,6.097
799,0.994,35.43,13.811,30.843,23.303,4.783,7.247,6.097
800,1.004,35.163,13.889,30.833,23.3,4.783,7.206,6.097
801,1.023,35.275,13.788,30.814,23.3,4.783,7.206,6.056
802,1.033,35.391,13.842,30.843,23.3,4.702,7.206,6.056
803,1.011,35.479,13.792,30.824,23.296,4.701,7.165,6.097
804,1.014,35.115,13.838,30.843,23.3,4.863,7.206,6.178
805,1.043,35.294,13.846,30.853,23.307,4.865,7.369,6.22
806,1.02,35.42,13.893,30.881,23.31,4.824,7.289,6.098
807,1.01,35.47,13.828,30.834,23.303,4.824,7.288,6.178
808,1.01,35.24,13.819,30.824,23.303,4.824,7.329,6.139
809,1.001,35.372,13.881,30.843,23.31,4.905,7.207,6.179
810,1.004,35.479,13.874,30.843,23.303,4.865,7.328,6.098
811,0.984,35.537,13.862,30.843,23.307,4.865,7.329,6.138
812,1.017,35.269,13.843,30.843,23.307,4.865,7.289,6.138
813,1.023,35.41,13.835,30.843,23.3,4.824,7.288,6.098
814,1.023,35.517,13.839,30.814,23.296,4.702,7.288,6.056
815,1.017,35.547,13.819,30.814,23.293,4.782,7.247,6.178
816,1.017,35.298,13.831,30.814,23.3,4.783,7.288,6.098
817,1.03,35.43,13.803,30.824,23.3,4.783,7.288,6.097
818,1.02,35.546,13.807,30.824,23.3,4.742,7.288,6.138
819,1.033,35.548,13.831,30.814,23.3,4.783,7.166,6.138
820,1.03,35.471,13.846,30.824,23.296,4.742,7.206,6.179
821,1.066,35.585,13.827,30.805,23.296,4.783,7.206,6.139
822,1.069,35.721,13.803,30.843,23.303,4.905,7.409,6.179
823,1.082,35.588,13.827,30.853,23.31,4.906,7.33,6.261
824,1.096,35.49,13.842,30.843,23.307,4.825,7.289,6.139
825,1.099,35.595,13.85,30.824,23.307,4.824,7.288,6.179
826,1.099,35.692,13.858,30.843,23.3,4.824,7.288,6.139
827,1.109,35.52,13.792,30.833,23.303,4.783,7.369,6.179
828,1.115,35.662,13.85,30.824,23.307,4.742,7.33,6.179
829,1.096,35.779,13.854,30.843,23.307,4.823,7.329,6.139
830,1.096,35.876,13.89,30.824,23.307,4.824,7.329,6.138
831,1.083,35.522,13.8,30.814,23.297,4.743,7.207,5.976
832,1.07,35.634,13.811,30.785,23.289,4.701,7.287,6.096
833,1.073,35.759,13.827,30.823,23.293,4.742,7.329,6.097
834,1.066,35.857,13.835,30.833,23.303,4.742,7.451,6.097
835,1.063,35.762,13.823,30.805,23.303,4.661,7.493,6.016
836,1.066,35.885,13.827,30.804,23.303,4.741,7.412,6.056
837,1.066,35.982,13.839,30.804,23.293,4.62,7.411,6.056
838,1.056,36.07,13.858,30.823,23.303,4.741,7.493,6.137
839,1.053,35.869,13.819,30.805,23.3,4.783,7.575,6.26
840,1.079,36.03,13.87,30.843,23.317,4.905,7.616,6.262
841,1.096,36.176,13.827,30.853,23.314,4.784,7.535,6.139
842,1.106,36.187,13.815,30.881,23.297,4.742,7.616,6.138
843,1.115,35.985,13.807,30.815,23.31,4.783,7.576,6.098
844,1.112,36.098,13.799,30.824,23.31,4.824,7.616,6.178
845,1.125,36.224,13.803,30.814,23.307,4.824,7.535,6.139
846,1.129,36.254,13.854,30.824,23.307,4.824,7.575,6.219
847,1.135,36.044,13.843,30.824,23.3,4.783,7.575,6.139
848,1.171,36.185,13.835,30.814,23.3,4.783,7.494,6.016
849,1.168,36.254,13.882,30.795,23.293,4.661,7.453,6.015
850,1.162,36.255,13.886,30.795,23.296,4.7,7.452,6.137
851,1.155,36.207,13.878,30.852,23.303,4.742,7.493,6.098
852,1.145,36.34,13.831,30.795,23.3,4.783,7.453,6.056
853,1.145,36.419,13.819,30.814,23.307,4.742,7.493,6.056
854,1.106,36.141,13.842,30.795,23.297,4.742,7.412,6.097
855,1.099,36.225,13.819,30.795,23.296,4.701,7.452,6.056
856,1.086,36.35,13.842,30.785,23.303,4.782,7.534,6.137
857,1.096,36.457,13.831,30.833,23.314,4.864,7.575,6.301
858,1.102,36.42,13.846,30.833,23.31,4.824,7.413,6.18
859,1.096,36.563,13.85,30.814,23.303,4.743,7.371,6.261
860,1.099,36.66,13.874,30.804,23.303,4.742,7.37,6.221
861,1.109,36.738,13.788,30.823,23.303,4.823,7.33,6.22
862,1.119,36.518,13.842,30.805,23.303,4.783,7.41,6.22
863,1.112,36.65,13.819,30.804,23.31,4.905,7.371,6.22
864,1.122,36.767,13.878,30.823,23.303,4.744,7.411,6.18
865,1.132,36.845,13.796,30.814,23.3,4.701,7.249,6.057
866,1.135,36.615,13.834,30.766,23.286,4.66,7.288,6.056
867,1.132,36.718,13.757,30.794,23.296,4.822,7.369,6.137
868,1.158,36.883,13.822,30.804,23.3,4.783,7.37,6.138
869,1.152,36.932,13.827,30.785,23.307,4.742,7.37,6.138
870,1.158,36.741,13.858,30.775,23.303,4.783,7.37,6.138
871,1.142,36.864,13.819,30.785,23.296,4.742,7.33,6.057
872,1.129,36.98,13.838,30.775,23.293,4.783,7.329,6.137
873,1.116,37.01,13.858,30.794,23.296,4.783,7.532,6.341
874,1.122,36.924,13.862,30.823,23.317,4.946,7.616,6.303
875,1.102,37.076,13.89,30.814,23.307,4.825,7.535,6.18
876,1.073,37.135,13.835,30.804,23.307,4.783,7.534,6.098
877,1.063,37.174,13.843,30.795,23.303,4.783,7.534,6.219
878,1.05,36.925,13.847,30.814,23.303,4.864,7.534,6.139
879,1.037,37.067,13.808,30.804,23.31,4.865,7.575,6.219
880,1.011,37.164,13.85,30.804,23.307,4.906,7.657,6.22
881,1.027,37.712,13.847,30.776,23.303,4.825,7.536,6.139
882,1.014,37.88,13.796,30.814,23.3,4.743,7.412,6.057
883,1.001,37.978,13.815,30.766,23.296,4.742,7.533,6.137
884,1.01,38.065,13.807,30.794,23.307,4.864,7.534,6.179
885,1.017,36.704,13.834,30.785,23.3,4.824,7.453,6.139
886,1.017,36.796,13.854,30.775,23.3,4.743,7.371,6.138
887,1.01,36.893,13.804,30.775,23.296,4.701,7.452,6.057
888,1.014,36.999,13.834,30.756,23.303,4.742,7.371,6.015
889,0.997,37.25,13.827,30.746,23.3,4.701,7.37,6.137
890,1.004,37.396,13.854,30.775,23.314,4.782,7.533,6.26
891,0.997,37.551,13.804,30.833,23.314,4.864,7.575,6.302
892,1.0,37.61,13.842,30.795,23.307,4.824,7.494,6.14
893,0.991,37.112,13.839,30.775,23.307,4.824,7.494,6.098
894,0.961,37.251,13.854,30.766,23.297,4.824,7.494,6.097
895,0.955,37.358,13.882,30.766,23.307,4.824,7.575,6.056
896,0.932,37.426,13.847,30.766,23.307,4.783,7.616,6.097
897,0.922,37.187,13.819,30.775,23.31,4.864,7.576,6.097
898,0.909,37.347,13.846,30.775,23.31,4.784,7.616,6.016
899,0.892,37.435,13.804,30.766,23.3,4.783,7.454,5.974
900,0.882,37.436,13.85,30.746,23.293,4.62,7.493,6.015
901,0.885,37.35,13.804,30.737,23.296,4.781,7.494,6.056
902,0.889,37.493,13.838,30.746,23.307,4.783,7.534,6.097
903,0.882,37.609,13.819,30.765,23.3,4.783,7.453,6.056
904,0.889,37.85,13.823,30.756,23.296,4.742,7.493,6.015
905,0.895,37.306,13.835,30.737,23.296,4.783,7.412,6.015
906,0.889,37.425,13.827,30.746,23.293,4.702,7.411,5.974
907,0.879,37.513,13.8,30.746,23.296,4.823,7.493,6.137
908,0.892,37.303,13.827,30.775,23.31,4.865,7.575,6.098
909,0.892,37.368,13.839,30.794,23.314,4.824,7.454,6.016
910,0.873,37.474,13.87,30.737,23.3,4.783,7.452,6.096
911,0.866,37.552,13.761,30.756,23.3,4.742,7.412,6.056
912,0.859,37.351,13.826,30.756,23.3,4.905,7.411,6.015
913,0.859,37.483,13.854,30.756,23.296,4.825,7.411,6.056
914,0.853,37.59,13.874,30.766,23.307,4.824,7.411,6.015
915,0.846,37.697,13.851,30.746,23.3,4.865,7.371,6.096
916,0.83,37.305,13.847,30.756,23.31,4.784,7.33,5.975
917,0.833,37.435,13.847,30.718,23.297,4.702,7.207,5.933
918,0.81,37.523,13.862,30.708,23.293,4.701,7.287,5.974
919,0.816,37.6,13.839,30.746,23.3,4.782,7.288,5.974
920,0.823,37.409,13.905,30.737,23.303,4.783,7.247,6.055
921,0.836,37.522,13.777,30.746,23.307,4.783,7.206,5.975
922,0.823,37.648,13.819,30.727,23.297,4.783,7.206,5.893
923,0.836,37.697,13.784,30.727,23.296,4.783,7.165,5.892
924,0.839,37.372,13.807,30.727,23.296,4.824,7.165,6.014
925,0.843,37.503,13.811,30.736,23.3,4.865,7.287,6.096
926,0.846,37.648,13.846,30.765,23.317,4.987,7.329,6.056
927,0.849,37.688,13.796,30.737,23.304,4.744,7.207,6.015
928,0.833,37.372,13.791,30.737,23.3,4.783,7.125,5.974
929,0.833,37.484,13.862,30.727,23.307,4.824,7.205,5.974
930,0.826,37.6,13.897,30.736,23.3,4.824,7.206,5.933
931,0.81,37.965,13.859,30.737,23.303,4.865,7.165,6.014
932,0.81,37.662,13.808,30.756,23.307,4.865,7.246,5.974
933,0.813,37.784,13.838,30.737,23.307,4.865,7.206,5.974
934,0.803,37.862,13.823,30.717,23.293,4.702,7.043,5.893
935,0.8,37.316,13.827,30.698,23.293,4.701,7.042,5.892
936,0.781,37.262,13.827,30.717,23.3,4.823,7.164,6.014
937,0.797,37.406,13.85,30.717,23.303,4.743,7.084,5.893
938,0.794,37.513,13.831,30.708,23.3,4.823,7.123,5.973
939,0.787,37.418,13.858,30.708,23.296,4.743,7.124,5.933
940,0.79,37.522,13.866,30.698,23.296,4.701,7.043,5.933
941,0.79,37.639,13.835,30.707,23.293,4.66,7.042,5.933
942,0.79,37.726,13.858,30.717,23.303,4.822,7.123,6.055
943,0.823,37.353,13.819,30.746,23.314,4.946,7.246,6.137
944,0.859,37.503,13.835,30.746,23.307,4.907,7.125,5.976
945,0.84,37.61,13.831,30.708,23.3,4.825,7.124,6.055
946,0.833,37.659,13.835,30.736,23.303,4.783,7.043,5.975
947,0.846,37.362,13.753,30.717,23.303,4.742,7.164,6.055
948,0.84,37.522,13.818,30.708,23.307,4.864,7.124,6.056
949,0.826,37.619,13.858,30.698,23.307,4.824,7.083,6.015
950,0.826,37.668,13.847,30.717,23.307,4.783,7.123,6.056
951,0.81,37.352,13.85,30.736,23.293,4.742,6.961,5.812
952,0.797,37.445,13.835,30.689,23.3,4.742,7.041,5.972
953,0.794,37.59,13.846,30.727,23.307,4.864,7.001,5.933
954,0.793,37.639,13.893,30.679,23.303,4.743,6.96,5.974
955,0.78,37.381,13.843,30.698,23.296,4.823,6.96,5.974
956,0.787,37.503,13.886,30.688,23.289,4.743,6.96,5.933
957,0.774,37.59,13.8,30.679,23.296,4.742,6.878,5.933
958,0.771,37.61,13.869,30.678,23.3,4.783,7.0,5.974
959,0.774,37.448,13.87,30.698,23.314,4.905,7.123,6.218
960,0.793,37.609,13.866,30.727,23.314,4.906,7.083,6.139
961,0.803,37.687,13.8,30.689,23.297,4.784,7.002,6.016
962,0.82,37.477,13.834,30.707,23.3,4.783,6.96,5.974
963,0.813,37.446,13.835,30.698,23.31,4.783,7.041,5.933
964,0.813,37.561,13.866,30.688,23.303,4.783,7.042,6.055
965,0.82,37.658,13.831,30.679,23.31,4.864,7.082,5.975
966,0.813,37.189,13.882,30.698,23.303,4.784,7.002,5.933
967,0.82,37.309,13.738,30.717,23.3,4.824,6.919,5.974
968,0.83,37.416,13.806,30.669,23.296,4.783,6.878,5.852
969,0.817,37.465,13.842,30.63,23.296,4.702,6.837,5.932
970,0.82,37.36,13.792,30.649,23.3,4.863,6.877,5.974
971,0.807,37.522,13.83,30.669,23.303,4.784,6.959,5.933
972,0.797,37.648,13.784,30.65,23.303,4.824,6.96,5.933
973,0.79,37.697,13.838,30.678,23.3,4.783,6.878,5.892
974,0.777,37.238,13.831,30.65,23.3,4.742,6.877,5.811
975,0.784,37.386,13.827,30.669,23.293,4.742,6.796,5.972
976,0.774,37.503,13.819,30.659,23.303,4.783,6.917,6.015
977,0.774,37.581,13.788,30.678,23.317,4.905,7.0,6.056
978,0.784,37.332,13.815,30.688,23.307,4.865,6.96,6.015
979,0.787,37.435,13.838,30.669,23.3,4.865,6.878,6.096
980,0.784,37.551,13.913,30.669,23.31,4.865,6.877,6.056
981,0.803,37.6,13.781,30.669,23.303,4.784,6.959,6.056
982,0.81,37.313,13.854,30.659,23.307,4.824,6.838,6.097
983,0.82,37.454,13.851,30.659,23.307,4.865,6.918,6.016
984,0.833,37.58,13.862,30.659,23.303,4.865,6.878,6.056
985,0.833,37.591,13.855,30.65,23.296,4.743,6.755,5.975
986,0.817,37.352,13.847,30.621,23.289,4.742,6.714,6.015
987,0.813,37.493,13.796,30.659,23.307,4.783,6.794,6.015
988,0.82,37.6,13.791,30.659,23.303,4.783,6.836,5.974
989,0.826,37.4,13.834,30.63,23.303,4.661,6.796,5.974
990,0.83,37.282,13.835,30.649,23.3,4.782,6.795,5.974
991,0.813,37.416,13.804,30.697,23.3,4.742,6.836,5.933
992,0.8,37.494,13.795,30.621,23.296,4.742,6.755,6.096
993,0.81,37.303,13.784,30.64,23.3,4.783,6.917,6.138
994,0.794,37.445,13.819,30.659,23.31,4.946,7.041,6.26
995,0.803,37.59,13.85,30.669,23.314,4.907,6.879,6.058
996,0.794,37.649,13.823,30.64,23.297,4.784,6.877,6.097
997,0.787,37.18,13.839,30.63,23.3,4.864,6.837,6.016
998,0.78,37.299,13.831,30.63,23.307,4.824,6.877,6.056
999,0.777,37.425,13.835,30.64,23.303,4.865,6.959,6.056
1000,0.78,37.503,13.897,30.649,23.307,4.865,6.919,6.137
1001,0.803,37.178,13.792,30.649,23.307,4.824,6.878,6.179
1002,0.81,37.328,13.811,30.63,23.307,4.824,6.877,6.057
1003,0.797,37.426,13.788,30.611,23.293,4.743,6.796,5.934
1004,0.8,37.465,13.823,30.592,23.293,4.783,6.836,6.096
1005,0.803,37.254,13.823,30.62,23.3,4.864,6.837,6.097
1006,0.833,37.396,13.881,30.62,23.3,4.824,6.918,6.056
1007,0.833,37.493,13.835,30.611,23.296,4.783,6.878,6.056
1008,0.846,37.523,13.831,30.611,23.303,4.742,6.796,6.015
1009,0.853,37.284,13.87,30.592,23.293,4.701,6.836,6.056
1010,0.846,37.368,13.874,30.611,23.3,4.701,6.837,6.137
1011,0.827,37.512,13.765,30.63,23.31,4.863,6.877,6.138
1012,0.826,37.552,13.834,30.64,23.314,4.906,7.0,6.138
1013,0.83,37.265,13.804,30.64,23.31,4.784,6.838,6.138
1014,0.807,37.367,13.803,30.601,23.303,4.824,6.837,6.098
1015,0.803,37.484,13.791,30.62,23.303,4.824,6.877,6.138
1016,0.803,37.398,13.803,30.62,23.303,4.783,6.877,6.057
1017,0.794,37.254,13.827,30.62,23.31,4.864,6.918,6.178
1018,0.79,37.377,13.842,30.63,23.307,4.824,6.959,6.179
1019,0.797,37.464,13.815,30.611,23.303,4.824,6.96,6.057
1020,0.797,37.235,13.819,30.592,23.296,4.743,6.797,5.975
1021,0.797,37.319,13.823,30.582,23.293,4.783,6.917,6.096
1022,0.8,37.464,13.854,30.61,23.307,4.783,6.878,6.056
1023,0.826,37.552,13.835,30.601,23.297,4.824,6.959,6.097
1024,0.83,37.121,13.866,30.582,23.3,4.743,6.96,6.056
1025,0.833,37.232,13.855,30.591,23.3,4.823,6.919,6.015
1026,0.836,37.367,13.847,30.572,23.296,4.743,6.919,6.015
1027,0.836,37.407,13.819,30.572,23.296,4.701,6.959,6.056
1028,0.839,37.129,13.827,30.591,23.303,4.863,7.122,6.219
1029,0.865,37.289,13.858,30.62,23.317,4.946,7.165,6.139
1030,0.862,37.406,13.858,30.601,23.307,4.866,7.165,6.138
1031,0.83,37.436,13.827,30.563,23.307,4.865,7.206,6.016
1032,0.826,37.177,13.831,30.582,23.303,4.824,7.287,6.096
1033,0.817,37.309,13.843,30.591,23.307,4.783,7.329,6.097
1034,0.8,37.406,13.854,30.572,23.31,4.824,7.451,6.138
1035,0.794,37.474,13.851,30.591,23.307,4.865,7.493,6.057
1036,0.787,37.849,13.819,30.572,23.307,4.865,7.534,6.056
1037,0.787,37.939,13.819,30.572,23.297,4.743,7.453,5.975
1038,0.774,38.026,13.827,30.553,23.286,4.742,7.493,5.974
1039,0.771,38.046,13.811,30.572,23.3,4.864,7.616,6.055
1040,0.8,36.771,13.854,30.582,23.296,4.824,7.617,6.056
1041,0.813,36.893,13.811,30.582,23.303,4.743,7.617,5.934
1042,0.807,36.99,13.823,30.553,23.296,4.783,7.657,5.933
1043,0.8,37.25,13.803,30.553,23.293,4.742,7.739,5.974
1044,0.813,37.367,13.827,30.543,23.3,4.783,7.74,5.974
1045,0.829,37.484,13.831,30.553,23.303,4.742,7.943,6.096
1046,0.836,37.59,13.893,30.591,23.317,4.905,7.945,6.138
1047,0.843,37.073,13.855,30.611,23.314,4.865,7.864,6.057
1048,0.839,37.049,13.831,30.563,23.3,4.784,7.822,5.975
1049,0.843,37.164,13.831,30.553,23.303,4.824,7.781,6.055
1050,0.839,37.232,13.854,30.572,23.303,4.865,7.862,6.056
1051,0.826,37.022,13.851,30.582,23.307,4.824,7.863,6.056
1052,0.826,37.173,13.843,30.563,23.314,4.865,7.782,6.097
1053,0.82,37.29,13.889,30.553,23.307,4.784,7.781,6.016
1054,0.813,37.329,13.843,30.533,23.293,4.742,7.7,5.852
1055,0.8,36.937,13.85,30.543,23.293,4.701,7.699,5.932
1056,0.803,37.105,13.823,30.543,23.3,4.823,7.658,5.974
1057,0.829,37.222,13.796,30.543,23.3,4.783,7.658,5.933
1058,0.81,37.3,13.819,30.553,23.296,4.824,7.658,5.974
1059,0.81,37.214,13.846,30.543,23.3,4.783,7.576,5.974
1060,0.81,37.338,13.85,30.524,23.3,4.702,7.698,5.933
1061,0.8,37.464,13.765,30.533,23.293,4.782,7.658,5.933
1062,0.8,37.485,13.803,30.524,23.31,4.783,7.658,6.014
1063,0.803,37.034,13.827,30.552,23.314,4.864,7.78,6.096
1064,0.826,37.173,13.842,30.572,23.31,4.784,7.578,5.935
1065,0.8,37.251,13.85,30.543,23.307,4.824,7.535,5.974
1066,0.8,37.271,13.839,30.543,23.3,4.824,7.616,5.974
1067,0.803,37.013,13.831,30.543,23.303,4.865,7.535,5.974
1068,0.813,37.154,13.788,30.543,23.307,4.824,7.575,5.974
1069,0.81,37.261,13.846,30.543,23.31,4.824,7.535,5.933
1070,0.807,37.473,13.85,30.533,23.31,4.824,7.534,6.014
1071,0.79,37.024,13.769,30.543,23.3,4.702,7.372,5.893
1072,0.79,37.106,13.807,30.505,23.3,4.66,7.289,5.811
1073,0.78,37.203,13.838,30.514,23.296,4.863,7.451,5.932
1074,0.767,37.079,13.866,30.514,23.303,4.784,7.452,5.892
1075,0.767,37.164,13.847,30.514,23.3,4.702,7.452,5.892
1076,0.77,37.29,13.854,30.495,23.303,4.782,7.452,5.892
1077,0.761,37.349,13.854,30.514,23.296,4.742,7.452,5.851
1078,0.767,36.937,13.843,30.514,23.296,4.701,7.452,5.891
1079,0.78,37.076,13.804,30.514,23.307,4.823,7.534,5.973
1080,0.793,37.203,13.85,30.571,23.31,4.987,7.616,6.015
1081,0.81,37.3,13.811,30.524,23.31,4.826,7.413,5.934
1082,0.794,36.84,13.815,30.533,23.297,4.783,7.371,5.852
1083,0.8,36.951,13.795,30.524,23.3,4.742,7.37,5.932
1084,0.826,37.057,13.776,30.514,23.307,4.823,7.411,5.974
1085,0.817,37.126,13.815,30.524,23.307,4.824,7.411,5.893
1086,0.833,37.04,13.831,30.524,23.307,4.743,7.371,5.973
1087,0.826,37.173,13.823,30.533,23.303,4.864,7.37,5.974
1088,0.846,37.29,13.839,30.495,23.3,4.784,7.33,5.852
1089,0.83,37.32,13.835,30.475,23.3,4.702,7.207,5.81
1090,0.823,36.831,13.874,30.485,23.303,4.742,7.328,5.85
1091,0.82,37.008,13.839,30.494,23.3,4.823,7.248,5.891
1092,0.803,37.116,13.804,30.495,23.3,4.743,7.288,5.892
1093,0.803,37.155,13.811,30.495,23.296,4.783,7.288,5.851
1094,0.787,36.954,13.834,30.495,23.3,4.702,7.329,5.81
1095,0.784,37.096,13.839,30.475,23.3,4.823,7.329,5.85
1096,0.774,37.193,13.815,30.485,23.3,4.824,7.41,5.932
1097,0.78,37.559,13.823,30.504,23.314,4.905,7.452,6.014
1098,0.79,37.035,13.862,30.514,23.314,4.947,7.534,6.056
1099,0.784,37.154,13.847,30.504,23.3,4.825,7.412,5.893
1100,0.761,37.222,13.878,30.495,23.3,4.824,7.33,5.892
1101,0.787,36.955,13.835,30.495,23.307,4.824,7.41,5.892
1102,0.8,36.962,13.835,30.495,23.307,4.824,7.411,5.892
1103,0.797,37.106,13.796,30.504,23.31,4.865,7.452,5.973
1104,0.807,37.174,13.788,30.495,23.307,4.865,7.412,5.933
1105,0.781,36.916,13.823,30.495,23.31,4.784,7.452,5.811
1106,0.777,37.019,13.846,30.475,23.293,4.702,7.412,5.81
1107,0.78,37.125,13.768,30.466,23.3,4.823,7.574,5.891
1108,0.8,37.241,13.818,30.475,23.3,4.865,7.657,5.851
1109,0.803,36.821,13.819,30.466,23.296,4.784,7.658,5.891
1110,0.803,36.931,13.846,30.456,23.296,4.742,7.698,5.851
1111,0.79,37.067,13.765,30.456,23.293,4.823,7.658,5.932
1112,0.774,37.116,13.818,30.465,23.296,4.783,7.698,5.852
1113,0.774,36.915,13.827,30.466,23.296,4.783,7.861,5.932
1114,0.771,37.095,13.858,30.466,23.314,4.864,7.944,6.055
1115,0.774,37.232,13.894,30.504,23.314,4.906,7.986,5.975
1116,0.758,37.262,13.843,30.466,23.297,4.825,7.946,5.893
1117,0.751,36.926,13.874,30.456,23.307,4.824,7.905,5.933
1118,0.754,37.076,13.855,30.456,23.303,4.865,7.985,6.055
1119,0.754,37.183,13.804,30.456,23.303,4.906,8.027,6.015
1120,0.744,37.223,13.87,30.475,23.307,4.825,7.987,5.974
1121,0.767,36.964,13.823,30.485,23.31,4.905,7.986,6.055
1122,0.777,37.115,13.842,30.466,23.307,4.865,7.986,5.975
1123,0.767,37.193,13.819,30.437,23.297,4.743,7.824,5.852
1124,0.78,37.194,13.788,30.417,23.289,4.823,7.944,6.054
1125,0.787,36.954,13.823,30.455,23.3,4.865,7.864,5.934
1126,0.803,37.105,13.811,30.446,23.3,4.743,7.863,5.974
1127,0.8,37.184,13.807,30.437,23.303,4.742,7.863,5.974
1128,0.803,36.983,13.78,30.417,23.296,4.783,7.904,5.974
1129,0.803,36.971,13.854,30.417,23.3,4.824,7.782,5.893
1130,0.8,37.077,13.874,30.417,23.293,4.783,7.862,5.933
1131,0.784,37.193,13.792,30.455,23.303,4.864,7.985,6.096
1132,0.79,36.954,13.858,30.465,23.314,5.028,7.986,6.138
1133,0.793,37.105,13.815,30.456,23.304,4.867,7.824,5.976
1134,0.764,37.203,13.835,30.418,23.307,4.906,7.903,6.015
1135,0.754,37.281,13.827,30.417,23.303,4.865,7.863,5.974
1136,0.757,36.965,13.815,30.436,23.3,4.906,7.863,5.974
1137,0.757,37.106,13.827,30.437,23.3,4.947,7.863,6.015
1138,0.751,37.222,13.842,30.437,23.3,4.907,7.985,6.015
1139,0.748,37.31,13.858,30.427,23.303,4.987,7.986,6.056
1140,0.767,36.917,13.905,30.436,23.303,4.948,7.986,5.975
1141,0.79,37.038,13.8,30.417,23.296,4.785,7.905,5.974
1142,0.784,37.125,13.827,30.388,23.293,4.824,8.067,5.893
1143,0.774,37.222,13.796,30.417,23.3,4.865,8.15,5.933
1144,0.79,37.031,13.862,30.398,23.3,4.906,8.15,5.974
1145,0.787,37.173,13.843,30.388,23.296,4.865,8.191,5.893
1146,0.8,37.271,13.87,30.379,23.296,4.824,8.314,5.973
1147,0.787,37.3,13.71,30.417,23.296,4.783,8.274,5.893
1148,0.806,36.927,13.755,30.388,23.296,4.824,8.436,5.973
1149,0.81,37.057,13.873,30.417,23.31,4.987,8.519,6.137
1150,0.813,37.202,13.831,30.417,23.31,5.07,8.601,6.057
1151,0.803,37.194,13.831,30.388,23.3,4.908,8.521,6.015
1152,0.774,36.983,13.772,30.379,23.307,4.865,8.601,6.015
1153,0.767,37.086,13.834,30.388,23.307,4.906,8.521,6.015
1154,0.767,37.212,13.843,30.388,23.307,4.906,8.601,5.974
1155,0.754,37.07,13.839,30.398,23.307,4.987,8.602,6.096
1156,0.757,37.039,13.878,30.379,23.31,4.948,8.562,6.056
1157,0.761,37.154,13.812,30.388,23.307,4.825,8.399,5.934
1158,0.744,37.242,13.831,30.369,23.293,4.743,8.397,5.892
1159,0.738,36.955,13.882,30.378,23.303,4.864,8.438,6.054
1160,0.721,37.096,13.851,30.378,23.296,4.865,8.479,5.975
1161,0.741,37.212,13.847,30.378,23.296,4.865,8.357,5.974
1162,0.751,37.3,13.804,30.359,23.3,4.906,8.315,5.974
1163,0.774,36.812,13.78,30.378,23.303,4.865,8.315,5.893
1164,0.764,36.941,13.807,30.369,23.296,4.824,8.274,5.973
1165,0.767,37.057,13.834,30.359,23.303,4.905,8.396,6.137
1166,0.78,37.154,13.901,30.378,23.314,5.028,8.478,6.138
1167,0.803,36.954,13.734,30.398,23.31,5.03,8.357,6.016
1168,0.81,37.086,13.81,30.35,23.3,4.989,8.234,5.974
1169,0.803,37.174,13.877,30.369,23.307,4.866,8.233,6.015
1170,0.794,37.223,13.843,30.359,23.307,4.865,8.192,5.974
1171,0.774,36.945,13.847,30.359,23.303,4.946,8.192,6.015
1172,0.764,37.096,13.776,30.369,23.303,4.947,8.192,6.056
1173,0.767,37.174,13.799,30.369,23.31,4.907,8.151,6.015
1174,0.754,37.223,13.819,30.35,23.297,4.865,8.028,5.893
1175,0.751,36.964,13.764,30.34,23.296,4.824,7.987,5.892
1176,0.741,37.077,13.834,30.34,23.3,4.905,7.986,5.973
1177,0.751,37.203,13.78,30.359,23.3,4.906,7.986,5.974
1178,0.748,37.242,13.815,30.34,23.3,4.865,7.946,5.893
1179,0.734,37.022,13.842,30.33,23.303,4.865,7.864,5.933
1180,0.731,37.135,13.882,30.32,23.293,4.865,7.822,5.974
1181,0.725,37.232,13.874,30.33,23.3,4.865,7.863,5.893
1182,0.76,37.108,13.827,30.349,23.307,4.946,8.026,5.973
1183,0.777,36.982,13.866,30.359,23.314,4.988,8.027,6.055
1184,0.777,37.125,13.847,30.359,23.3,4.907,7.865,5.975
1185,0.777,37.193,13.843,30.34,23.31,4.906,7.863,5.974
1186,0.806,36.83,13.878,30.34,23.297,4.906,7.863,6.015
1187,0.807,36.932,13.706,30.359,23.31,4.987,7.863,5.974
1188,0.807,37.067,13.806,30.33,23.303,4.907,7.782,5.893
1189,0.82,37.145,13.881,30.33,23.307,4.947,7.822,5.973
1190,0.817,36.983,13.839,30.32,23.307,4.866,7.781,5.852
1191,0.8,37.125,13.835,30.301,23.29,4.824,7.659,5.769
1192,0.774,37.203,13.8,30.291,23.296,4.824,7.739,5.809
1193,0.767,37.309,13.873,30.32,23.307,4.865,7.821,5.891
1194,0.754,36.869,13.804,30.301,23.3,4.824,7.741,5.933
1195,0.757,36.999,13.827,30.311,23.296,4.905,7.821,5.852
1196,0.741,37.106,13.85,30.301,23.3,4.906,7.822,5.851
1197,0.747,37.155,13.776,30.32,23.296,4.865,7.863,5.769
1198,0.747,36.896,13.838,30.311,23.293,4.865,7.863,5.891
1199,0.731,37.019,13.796,30.311,23.303,4.946,7.985,5.933
1200,0.725,37.154,13.854,30.33,23.307,5.069,8.149,6.096
1201,0.741,37.232,13.8,30.34,23.307,4.989,7.988,5.975
1202,0.751,36.868,13.846,30.301,23.303,4.826,8.027,5.893
1203,0.761,36.989,13.823,30.32,23.3,4.865,7.987,5.933
1204,0.774,37.115,13.842,30.301,23.307,4.946,8.068,5.933
1205,0.78,37.145,13.854,30.311,23.303,4.907,8.069,5.892
1206,0.806,36.983,13.858,30.301,23.314,4.947,8.109,5.973
1207,0.803,37.134,13.804,30.311,23.307,4.988,8.109,5.933
1208,0.8,37.222,13.823,30.311,23.303,4.907,7.947,5.77
1209,0.781,37.127,13.858,30.272,23.293,4.784,7.864,5.728
1210,0.771,36.867,13.843,30.262,23.303,4.905,8.026,5.85
1211,0.754,37.028,13.827,30.339,23.303,4.865,7.987,5.851
1212,0.748,37.116,13.792,30.292,23.296,4.946,7.986,5.851
1213,0.738,36.791,13.83,30.291,23.296,4.866,7.946,5.851
1214,0.728,36.854,13.815,30.282,23.296,4.824,7.945,5.851
1215,0.734,36.999,13.835,30.272,23.289,4.905,7.945,5.769
1216,0.725,37.068,13.792,30.262,23.296,4.906,7.905,5.85
1217,0.737,36.771,13.803,30.291,23.31,4.947,7.985,6.054
1218,0.751,36.96,13.811,30.33,23.31,5.069,8.068,6.056
1219,0.751,37.077,13.834,30.311,23.303,4.867,7.946,5.975
1220,0.751,37.116,13.874,30.282,23.3,4.946,7.905,5.974
1221,0.761,36.771,13.78,30.282,23.307,4.907,7.904,5.893
1222,0.774,36.893,13.826,30.291,23.31,4.947,7.904,5.933
1223,0.777,37.019,13.8,30.282,23.307,4.947,7.863,5.933
1224,0.784,37.087,13.854,30.301,23.303,4.907,7.863,5.974
1225,0.787,36.79,13.87,30.282,23.303,4.947,7.904,5.893
1226,0.793,36.902,13.827,30.262,23.296,4.825,7.701,5.811
1227,0.784,36.98,13.835,30.224,23.289,4.783,7.78,5.85
1228,0.793,37.067,13.796,30.271,23.3,4.864,7.74,5.851
1229,0.8,36.761,13.838,30.253,23.3,4.865,7.659,5.891
1230,0.807,36.893,13.886,30.253,23.303,4.824,7.576,5.811
1231,0.781,36.99,13.804,30.262,23.307,4.905,7.575,5.85
1232,0.767,37.029,13.823,30.234,23.303,4.784,7.535,5.81
1233,0.761,37.279,13.815,30.233,23.296,4.864,7.575,5.85
1234,0.748,37.406,13.87,30.252,23.303,4.906,7.616,6.013
1235,0.744,37.561,13.847,30.281,23.314,5.069,7.657,6.015
1236,0.747,37.39,13.843,30.262,23.3,4.867,7.536,5.893
1237,0.747,36.343,13.839,30.234,23.303,4.906,7.494,5.811
1238,0.734,36.486,13.846,30.243,23.307,4.906,7.575,5.972
1239,0.731,36.593,13.839,30.262,23.3,4.865,7.494,5.974
1240,0.741,36.747,13.843,30.253,23.303,4.946,7.534,5.933
1241,0.738,36.902,13.78,30.262,23.303,4.988,7.412,5.933
1242,0.751,37.028,13.819,30.272,23.307,4.907,7.452,5.892
1243,0.751,37.116,13.788,30.234,23.297,4.906,7.371,5.811
1244,0.751,36.56,13.807,30.214,23.293,4.784,7.33,5.85
1245,0.757,36.689,13.811,30.243,23.307,4.864,7.37,5.851
1246,0.796,36.834,13.842,30.243,23.297,4.784,7.37,5.851
1247,0.794,36.903,13.835,30.233,23.3,4.824,7.33,5.81
1248,0.784,36.606,13.823,30.224,23.296,4.824,7.329,5.769
1249,0.777,36.728,13.881,30.204,23.3,4.824,7.289,5.768
1250,0.767,36.854,13.827,30.204,23.293,4.824,7.288,5.768
1251,0.751,36.932,13.823,30.243,23.303,4.946,7.369,5.931
1252,0.764,36.578,13.827,30.272,23.314,5.069,7.492,5.974
1253,0.777,36.708,13.878,30.243,23.3,4.908,7.29,5.811
1254,0.754,36.806,13.831,30.214,23.3,4.906,7.288,5.891
1255,0.754,36.855,13.803,30.223,23.3,4.906,7.288,5.892
1256,0.748,36.769,13.85,30.224,23.303,4.906,7.329,5.851
1257,0.741,36.893,13.78,30.224,23.307,4.906,7.329,5.851
1258,0.741,37.019,13.826,30.252,23.303,4.947,7.37,5.973
1259,0.751,37.058,13.885,30.243,23.307,4.947,7.33,5.893
1260,0.748,36.608,13.851,30.214,23.297,4.866,7.167,5.689
1261,0.734,36.718,13.8,30.185,23.293,4.784,7.246,5.768
1262,0.744,36.835,13.791,30.204,23.307,4.905,7.288,5.809
1263,0.751,37.191,13.795,30.204,23.3,4.825,7.247,5.81
1264,0.761,36.58,13.819,30.214,23.3,4.824,7.247,5.85
1265,0.767,36.699,13.807,30.195,23.3,4.824,7.288,5.81
1266,0.777,36.796,13.838,30.185,23.296,4.783,7.288,5.81
1267,0.764,36.634,13.765,30.214,23.296,4.824,7.288,5.85
1268,0.78,36.661,13.803,30.214,23.303,4.905,7.41,5.891
1269,0.78,36.805,13.893,30.233,23.317,5.028,7.493,5.973
1270,0.803,36.903,13.851,30.214,23.311,4.948,7.29,5.811
1271,0.781,36.501,13.87,30.204,23.297,4.866,7.329,5.81
1272,0.771,36.612,13.827,30.185,23.307,4.865,7.329,5.81
1273,0.767,36.728,13.858,30.194,23.307,4.946,7.329,5.85
1274,0.77,36.816,13.831,30.195,23.303,4.907,7.289,5.891
1275,0.77,36.481,13.827,30.195,23.296,4.987,7.329,5.851
1276,0.777,36.602,13.858,30.214,23.307,4.948,7.329,5.851
1277,0.764,36.728,13.8,30.185,23.3,4.866,7.248,5.729
1278,0.735,36.768,13.819,30.166,23.286,4.824,7.166,5.768
1279,0.731,36.557,13.85,30.185,23.303,4.905,7.246,5.809
1280,0.738,36.727,13.819,30.185,23.296,4.825,7.288,5.85
1281,0.751,36.854,13.854,30.204,23.307,4.865,7.166,5.851
1282,0.744,36.903,13.796,30.166,23.3,4.824,7.287,5.729
1283,0.76,36.578,13.807,30.194,23.3,4.783,7.247,5.727
1284,0.761,36.689,13.827,30.166,23.296,4.824,7.206,5.809
1285,0.757,36.825,13.815,30.185,23.3,4.946,7.287,5.932
1286,0.777,36.884,13.874,30.194,23.317,5.029,7.451,5.974
1287,0.777,36.462,13.851,30.185,23.307,4.907,7.33,5.852
1288,0.8,36.544,13.847,30.185,23.3,4.865,7.41,5.81
1289,0.807,36.641,13.831,30.175,23.3,4.865,7.411,5.891
1290,0.8,36.7,13.807,30.175,23.3,4.865,7.33,5.811
1291,0.803,36.537,13.85,30.204,23.314,4.946,7.451,5.85
1292,0.81,36.66,13.85,30.175,23.304,4.866,7.493,5.891
1293,0.813,36.767,13.882,30.175,23.303,4.906,7.453,5.811
1294,0.81,36.499,13.843,30.156,23.293,4.784,7.452,5.769
1295,0.79,36.42,13.827,30.137,23.293,4.742,7.493,5.768
1296,0.79,36.573,13.842,30.146,23.303,4.864,7.575,5.809
1297,0.8,36.661,13.78,30.165,23.293,4.865,7.575,5.85
1298,0.794,36.46,13.819,30.175,23.296,4.865,7.575,5.851
1299,0.793,36.554,13.811,30.146,23.296,4.865,7.575,5.851
1300,0.8,36.68,13.85,30.146,23.3,4.824,7.616,5.729
1301,0.81,36.757,13.839,30.184,23.293,4.743,7.657,5.809
1302,0.813,36.356,13.78,30.156,23.3,4.823,7.698,5.932
1303,0.836,36.514,13.854,30.156,23.31,5.027,7.78,6.014
1304,0.859,36.67,13.823,30.194,23.314,4.948,7.74,5.893
1305,0.872,36.709,13.842,30.147,23.3,4.907,7.74,5.892
1306,0.876,36.671,13.866,30.127,23.303,4.906,7.74,5.811
1307,0.866,36.815,13.855,30.165,23.3,4.825,7.74,5.891
1308,0.885,36.951,13.847,30.146,23.303,4.865,7.659,5.892
1309,0.892,37.0,13.843,30.156,23.3,4.906,7.739,5.892
1310,0.892,36.089,13.831,30.165,23.31,4.865,7.699,5.892
1311,0.876,36.215,13.803,30.156,23.307,4.824,7.618,5.851
1312,0.869,36.331,13.831,30.137,23.3,4.743,7.535,5.729
1313,0.846,36.351,13.866,30.108,23.296,4.742,7.575,5.768
1314,0.846,36.495,13.843,30.127,23.296,4.905,7.494,5.85
1315,0.84,36.631,13.858,30.136,23.3,4.825,7.534,5.81
1316,0.833,36.747,13.835,30.127,23.296,4.865,7.534,5.769
1317,0.846,36.739,13.827,30.136,23.3,4.824,7.412,5.85
1318,0.853,36.24,13.858,30.127,23.293,4.824,7.411,5.851
1319,0.849,36.36,13.812,30.127,23.293,4.783,7.371,5.81
1320,0.83,36.476,13.866,30.117,23.303,4.864,7.452,5.972
1321,0.846,36.362,13.784,30.165,23.317,4.987,7.534,5.974
1322,0.849,36.323,13.807,30.156,23.307,4.907,7.453,5.974
1323,0.856,36.428,13.792,30.127,23.3,4.825,7.371,5.852
1324,0.853,36.515,13.803,30.127,23.303,4.865,7.452,5.932
1325,0.879,36.209,13.819,30.136,23.303,4.824,7.33,5.892
1326,0.889,36.34,13.846,30.146,23.307,4.824,7.41,5.892
1327,0.885,36.457,13.815,30.127,23.3,4.946,7.289,5.933
1328,0.898,36.544,13.803,30.136,23.307,4.907,7.288,5.852
1329,0.912,36.363,13.831,30.108,23.3,4.825,7.329,5.81
1330,0.918,36.505,13.858,30.107,23.293,4.743,7.126,5.769
1331,0.896,36.583,13.694,30.107,23.296,4.823,7.124,5.85
1332,0.882,36.718,13.798,30.107,23.296,4.824,7.246,5.81
1333,0.902,36.173,13.823,30.117,23.3,4.824,7.288,5.81
1334,0.876,36.292,13.827,30.127,23.303,4.783,7.207,5.81
1335,0.853,36.408,13.839,30.098,23.3,4.742,7.125,5.769
1336,0.84,36.477,13.846,30.079,23.293,4.701,7.083,5.809
1337,0.839,36.305,13.819,30.098,23.296,4.823,7.164,5.81
1338,0.833,36.447,13.803,30.117,23.303,4.865,7.287,6.013
1339,0.843,36.592,13.897,30.136,23.307,4.987,7.329,6.056
1340,0.839,36.632,13.898,30.136,23.303,4.866,7.207,5.893
1341,0.839,36.21,13.835,30.156,23.303,4.865,7.247,5.851
1342,0.849,36.36,13.815,30.108,23.307,4.824,7.288,5.891
1343,0.853,36.467,13.815,30.088,23.307,4.824,7.247,5.892
1344,0.866,36.477,13.842,30.117,23.307,4.824,7.288,5.933
1345,0.862,36.238,13.862,30.107,23.31,4.824,7.288,5.974
1346,0.859,36.36,13.862,30.107,23.307,4.946,7.329,5.852
1347,0.862,36.457,13.843,30.107,23.297,4.785,7.207,5.729
1348,0.846,36.381,13.784,30.059,23.293,4.702,7.165,5.809
1349,0.83,36.256,13.854,30.078,23.307,4.863,7.246,5.891
1350,0.826,36.427,13.78,30.107,23.297,4.784,7.288,5.851
1351,0.81,36.515,13.791,30.098,23.296,4.824,7.247,5.851
1352,0.79,36.276,13.85,30.069,23.296,4.743,7.206,5.81
1353,0.8,36.389,13.819,30.069,23.293,4.742,7.206,5.85
1354,0.768,36.486,13.835,30.05,23.3,4.742,7.247,5.891
1355,0.761,36.602,13.807,30.088,23.307,4.864,7.369,5.973
1356,0.754,36.201,13.893,30.117,23.314,5.028,7.37,5.974
1357,0.754,36.34,13.882,30.107,23.297,4.826,7.248,5.933
1358,0.731,36.438,13.812,30.088,23.3,4.743,7.288,5.892
1359,0.728,36.506,13.889,30.098,23.296,4.823,7.288,5.973
1360,0.712,36.132,13.785,30.088,23.307,4.824,7.288,6.015
1361,0.715,36.292,13.862,30.098,23.307,4.783,7.288,5.934
1362,0.734,36.399,13.831,30.098,23.303,4.864,7.329,5.974
1363,0.728,36.457,13.87,30.098,23.303,4.824,7.329,5.974
1364,0.744,36.228,13.847,30.069,23.303,4.783,7.167,5.771
1365,0.741,36.341,13.827,30.059,23.286,4.62,7.287,5.85
1366,0.718,36.438,13.897,30.069,23.3,4.822,7.288,5.891
1367,0.734,36.544,13.851,30.078,23.307,4.783,7.329,5.892
1368,0.741,36.152,13.835,30.078,23.293,4.742,7.289,5.892
1369,0.741,36.263,13.893,30.069,23.3,4.783,7.288,5.892
1370,0.741,36.379,13.761,30.069,23.293,4.783,7.288,5.811
1371,0.725,36.419,13.814,30.05,23.3,4.742,7.207,5.891
1372,0.705,36.18,13.776,30.049,23.296,4.783,7.369,5.933
1373,0.698,36.331,13.846,30.059,23.303,4.864,7.411,6.055
1374,0.695,36.466,13.847,30.117,23.31,4.946,7.411,6.015
1375,0.698,36.429,13.815,30.088,23.307,4.785,7.371,5.893
1376,0.679,36.199,13.85,30.069,23.307,4.783,7.33,5.973
1377,0.675,36.34,13.726,30.078,23.307,4.783,7.329,5.893
1378,0.669,36.428,13.818,30.069,23.303,4.824,7.289,5.933
1379,0.678,36.141,13.854,30.078,23.307,4.905,7.369,5.933
1380,0.685,36.234,13.843,30.069,23.307,4.865,7.33,6.014
1381,0.685,36.36,13.835,30.069,23.307,4.824,7.289,5.852
1382,0.685,36.438,13.831,30.059,23.297,4.661,7.166,5.81
1383,0.679,35.998,13.858,30.03,23.283,4.741,7.246,5.81
1384,0.695,36.147,13.886,30.049,23.307,4.783,7.288,5.891
1385,0.708,36.282,13.855,30.049,23.297,4.783,7.207,5.933
1386,0.698,36.351,13.925,30.049,23.303,4.783,7.206,5.811
1387,0.695,36.112,13.824,30.059,23.3,4.702,7.125,5.85
1388,0.708,36.253,13.803,30.011,23.283,4.742,7.165,5.851
1389,0.711,36.341,13.85,30.011,23.293,4.742,7.124,5.891
1390,0.718,36.438,13.757,30.039,23.303,4.823,7.205,6.014
1391,0.721,36.132,13.803,30.078,23.314,4.905,7.328,6.096
1392,0.728,36.282,13.819,30.069,23.307,4.865,7.167,5.975
1393,0.712,36.37,13.862,30.05,23.3,4.784,7.124,5.974
1394,0.711,36.409,13.823,30.049,23.3,4.824,7.165,5.974
1395,0.685,36.112,13.846,30.049,23.307,4.824,7.206,5.974
1396,0.675,36.244,13.858,30.04,23.31,4.824,7.125,5.974
1397,0.678,36.36,13.843,30.088,23.303,4.824,7.205,6.015
1398,0.678,36.399,13.8,30.059,23.303,4.824,7.206,6.015
1399,0.675,36.074,13.866,30.04,23.3,4.743,7.043,5.934
1400,0.662,36.166,13.769,30.03,23.296,4.701,7.082,5.892
1401,0.649,36.283,13.818,30.03,23.293,4.782,7.164,5.933
1402,0.668,36.428,13.799,30.03,23.296,4.742,7.165,5.974
1403,0.672,36.208,13.834,30.04,23.3,4.742,7.165,5.933
1404,0.672,36.35,13.862,30.04,23.3,4.742,7.165,5.974
1405,0.688,36.428,13.835,30.011,23.296,4.701,7.084,5.974
1406,0.682,35.93,13.901,30.011,23.296,4.742,7.123,5.974
1407,0.688,35.983,13.851,30.03,23.3,4.783,7.205,6.015
1408,0.695,36.127,13.85,30.049,23.314,4.986,7.328,6.056
1409,0.711,36.234,13.886,30.049,23.317,4.907,7.248,6.015
1410,0.689,36.034,13.855,30.04,23.304,4.784,7.206,5.974
1411,0.698,36.137,13.823,30.04,23.303,4.824,7.287,6.015
1412,0.714,36.273,13.799,30.011,23.307,4.783,7.247,5.974
1413,0.695,36.341,13.823,30.03,23.303,4.864,7.206,6.055
1414,0.679,36.025,13.788,30.03,23.307,4.824,7.247,6.015
1415,0.685,36.176,13.799,30.04,23.307,4.824,7.288,6.015
1416,0.675,36.292,13.842,30.02,23.303,4.743,7.207,5.934
1417,0.669,36.36,13.792,30.011,23.296,4.701,7.084,5.852
1418,0.656,35.978,13.791,29.982,23.289,4.66,7.123,5.932
1419,0.646,36.127,13.815,30.001,23.303,4.822,7.205,5.974
1420,0.655,36.253,13.835,30.011,23.296,4.702,7.206,5.974
1421,0.691,36.322,13.807,30.001,23.3,4.782,7.165,5.893
1422,0.701,36.016,13.831,30.001,23.3,4.702,7.165,5.933
1423,0.714,36.156,13.843,29.991,23.296,4.742,7.206,5.933
1424,0.721,36.254,13.804,29.991,23.296,4.742,7.247,5.974
1425,0.711,36.312,13.834,30.02,23.303,4.864,7.369,6.096
1426,0.721,36.006,13.882,30.03,23.321,4.987,7.452,6.138
1427,0.737,36.156,13.855,30.049,23.307,4.826,7.371,5.976
1428,0.725,36.225,13.831,29.992,23.3,4.824,7.33,6.055
1429,0.711,36.542,13.87,29.991,23.307,4.783,7.451,6.015
1430,0.708,36.056,13.819,30.01,23.303,4.824,7.371,6.015
1431,0.702,36.205,13.842,30.02,23.303,4.824,7.411,6.015
1432,0.708,36.302,13.811,30.001,23.307,4.824,7.533,6.056
1433,0.705,35.987,13.858,30.03,23.303,4.824,7.453,5.975
1434,0.698,35.993,13.812,30.001,23.303,4.783,7.452,5.852
1435,0.688,36.118,13.831,29.991,23.293,4.661,7.29,5.891
1436,0.675,36.186,13.858,29.972,23.296,4.741,7.451,6.014
1437,0.688,35.985,13.815,30.02,23.3,4.783,7.371,5.974
1438,0.685,36.108,13.795,29.992,23.296,4.702,7.452,6.015
1439,0.688,36.205,13.83,29.982,23.3,4.782,7.412,5.974
1440,0.695,36.273,13.823,29.991,23.3,4.742,7.411,5.974
1441,0.724,35.862,13.788,29.972,23.296,4.742,7.371,5.974
1442,0.744,35.982,13.791,29.972,23.296,4.742,7.452,5.974
1443,0.786,36.137,13.842,30.001,23.303,4.864,7.534,6.177
1444,0.823,36.225,13.8,30.03,23.317,4.906,7.575,6.098
1445,0.872,35.995,13.85,30.02,23.307,4.825,7.413,6.097
1446,0.892,36.118,13.87,29.972,23.297,4.702,7.452,6.056
1447,0.899,36.253,13.866,29.981,23.303,4.782,7.412,5.975
1448,0.934,36.293,13.874,29.982,23.303,4.783,7.411,5.974
1449,0.928,35.871,13.882,29.982,23.303,4.905,7.371,6.015
1450,0.941,36.021,13.808,29.991,23.31,4.865,7.411,6.056
1451,0.948,36.128,13.827,29.982,23.31,4.824,7.371,6.015
1452,0.987,36.177,13.815,29.962,23.307,4.743,7.289,5.852
1453,0.987,35.937,13.862,29.953,23.293,4.661,7.288,6.013
1454,1.01,36.088,13.831,29.991,23.303,4.741,7.329,5.974
1455,1.062,36.224,13.831,29.982,23.3,4.783,7.329,5.974
1456,1.108,36.389,13.846,29.962,23.303,4.783,7.37,6.015
1457,1.161,35.93,13.835,29.972,23.307,4.661,7.37,5.974
1458,1.184,36.04,13.78,29.953,23.3,4.7,7.33,5.933
1459,1.243,36.118,13.842,29.953,23.296,4.701,7.329,6.096
1460,1.257,35.735,13.784,29.962,23.307,4.782,7.41,6.219
1461,1.273,35.703,13.819,30.001,23.31,4.946,7.574,6.261
1462,1.289,35.827,13.831,30.011,23.314,4.907,7.454,6.058
1463,1.273,35.896,13.85,29.963,23.31,4.784,7.493,6.178
1464,1.325,35.973,13.85,29.972,23.303,4.864,7.494,6.179
1465,1.352,36.127,13.85,29.981,23.303,4.906,7.534,6.179
1466,1.346,36.234,13.858,29.972,23.303,4.784,7.575,6.22
1467,1.313,36.341,13.843,29.981,23.303,4.824,7.575,6.261
1468,1.29,35.834,13.796,29.972,23.303,4.783,7.616,6.18
1469,1.28,35.953,13.85,29.962,23.303,4.824,7.535,6.139
1470,1.267,36.069,13.808,29.933,23.293,4.661,7.494,6.138
1471,1.195,36.138,13.807,29.952,23.286,4.66,7.534,6.219
1472,1.129,35.822,13.834,29.953,23.3,4.822,7.616,6.383
1473,1.093,35.963,13.87,29.953,23.3,4.783,7.576,6.466
1474,1.011,36.098,13.878,29.953,23.3,4.702,7.616,6.507
1475,0.955,36.167,13.859,29.953,23.3,4.782,7.617,6.752
1476,0.889,35.88,13.929,29.924,23.293,4.702,7.657,6.876
1477,0.859,36.03,13.855,29.981,23.296,4.66,7.658,7.203
1478,0.791,36.128,13.804,29.972,23.303,4.822,7.78,7.613
1479,0.748,36.225,13.858,30.01,23.314,4.905,7.862,7.779
1480,0.728,35.957,13.804,29.972,23.304,4.784,7.7,8.025
1481,0.702,36.079,13.815,29.972,23.307,4.742,7.74,8.271
1482,0.685,36.167,13.788,29.962,23.3,4.742,7.781,8.477
1483,0.623,36.196,13.815,29.962,23.303,4.864,7.781,8.682
1484,0.597,35.717,13.838,29.953,23.307,4.824,7.74,8.888
1485,0.574,35.866,13.827,29.962,23.3,4.824,7.781,9.052
1486,0.554,35.953,13.858,29.962,23.307,4.824,7.74,9.135
1487,0.541,35.926,13.897,29.933,23.297,4.661,7.537,9.177
1488,0.557,35.935,13.824,29.914,23.293,4.7,7.657,9.299
1489,0.58,36.098,13.885,29.933,23.303,4.782,7.739,9.423
1490,0.635,36.196,13.788,29.933,23.3,4.742,7.781,9.505
1491,0.662,35.717,13.811,29.933,23.293,4.701,7.659,9.587
1492,0.682,35.798,13.756,29.943,23.296,4.742,7.698,9.669
1493,0.708,35.924,13.807,29.933,23.296,4.701,7.658,9.792
1494,0.731,36.021,13.811,29.914,23.296,4.701,7.698,9.915
1495,0.741,35.744,13.811,29.952,23.307,4.823,7.861,10.323
1496,0.754,35.904,13.866,29.962,23.317,4.905,7.822,10.571
1497,0.774,36.031,13.804,29.962,23.307,4.784,7.741,10.655
1498,0.758,36.08,13.823,29.943,23.3,4.742,7.781,10.9
1499,0.761,35.86,13.866,29.952,23.3,4.783,7.781,11.065
1500,0.751,36.02,13.847,29.953,23.3,4.824,7.74,11.31
1501,0.764,36.147,13.823,29.943,23.303,4.743,7.821,11.435
1502,0.78,36.215,13.811,29.933,23.31,4.823,7.781,11.599
1503,0.774,36.034,13.815,29.952,23.307,4.783,7.781,11.641
1504,0.78,36.176,13.815,29.924,23.3,4.702,7.7,11.601
1505,0.771,36.273,13.788,29.914,23.296,4.742,7.699,11.763
1506,0.787,36.322,13.873,29.923,23.3,4.783,7.74,11.764
1507,0.784,35.622,13.812,29.933,23.303,4.742,7.781,11.805
1508,0.797,35.759,13.807,29.933,23.3,4.742,7.74,11.724
1509,0.794,35.857,13.87,29.914,23.293,4.701,7.781,11.601
1510,0.8,35.896,13.792,29.904,23.293,4.66,7.822,11.519
1511,0.787,35.848,13.826,29.904,23.3,4.7,7.781,11.477
1512,0.771,35.992,13.835,29.933,23.307,4.863,7.944,11.518
1513,0.777,36.118,13.866,29.952,23.314,4.865,8.067,11.477
1514,0.797,35.946,13.839,29.943,23.314,4.824,8.028,11.314
1515,0.79,35.791,13.819,29.924,23.3,4.824,8.027,11.232
1516,0.78,35.905,13.85,29.923,23.307,4.743,8.068,11.149
1517,0.767,35.983,13.815,29.914,23.3,4.783,8.109,11.026
1518,0.764,35.744,13.835,29.923,23.31,4.824,7.987,11.025
1519,0.767,35.837,13.87,29.943,23.303,4.824,8.108,10.822
1520,0.77,35.963,13.859,29.943,23.31,4.824,8.109,10.779
1521,0.783,36.06,13.862,29.943,23.303,4.783,7.987,10.616
1522,0.787,35.61,13.784,29.885,23.296,4.661,7.986,10.452
1523,0.777,35.721,13.823,29.894,23.289,4.7,7.986,10.369
1524,0.79,35.875,13.807,29.923,23.307,4.782,7.986,10.368
1525,0.81,35.954,13.823,29.914,23.303,4.783,8.027,10.246
1526,0.816,35.705,13.862,29.904,23.293,4.783,7.987,10.164
1527,0.803,35.856,13.792,29.904,23.303,4.742,7.946,10.041
1528,0.816,35.992,13.803,29.904,23.293,4.742,7.864,9.958
1529,0.807,36.022,13.827,29.904,23.289,4.701,7.863,9.835
1530,0.8,35.706,13.842,29.904,23.303,4.782,7.944,9.916
1531,0.8,35.866,13.827,29.933,23.31,4.864,7.986,9.835
1532,0.836,36.011,13.823,29.952,23.317,4.865,7.864,9.712
1533,0.82,35.993,13.819,29.905,23.304,4.743,7.822,9.589
1534,0.8,35.744,13.799,29.914,23.303,4.783,7.822,9.507
1535,0.794,35.904,13.846,29.904,23.307,4.742,7.741,9.465
1536,0.771,35.992,13.854,29.914,23.307,4.823,7.74,9.343
1537,0.774,36.041,13.8,29.923,23.307,4.865,7.74,9.301
1538,0.754,35.706,13.834,29.923,23.307,4.784,7.74,9.178
1539,0.757,35.818,13.835,29.904,23.307,4.742,7.618,8.974
1540,0.751,35.915,13.843,29.875,23.297,4.661,7.495,8.85
1541,0.767,35.896,13.831,29.952,23.296,4.741,7.534,8.93
1542,0.793,35.733,13.823,29.895,23.303,4.783,7.534,8.85
1543,0.79,35.885,13.827,29.875,23.303,4.742,7.453,8.767
1544,0.79,35.973,13.839,29.875,23.296,4.742,7.452,8.645
1545,0.797,35.628,13.843,29.894,23.303,4.742,7.452,8.603
1546,0.803,35.711,13.85,29.894,23.293,4.661,7.33,8.48
1547,0.807,35.818,13.858,29.894,23.296,4.7,7.37,8.438
1548,0.833,35.934,13.819,29.885,23.31,4.904,7.411,8.519
1549,0.849,35.705,13.858,29.923,23.321,4.987,7.533,8.398
1550,0.846,35.846,13.78,29.914,23.307,4.826,7.372,8.356
1551,0.83,35.934,13.811,29.885,23.3,4.865,7.33,8.275
1552,0.833,36.021,13.811,29.904,23.303,4.824,7.329,8.233
1553,0.823,35.591,13.862,29.895,23.3,4.783,7.329,8.151
1554,0.82,35.73,13.843,29.904,23.31,4.824,7.289,8.11
1555,0.813,35.866,13.858,29.895,23.307,4.824,7.247,8.069
1556,0.79,35.925,13.89,29.894,23.303,4.783,7.206,7.946
1557,0.787,35.724,13.863,29.866,23.29,4.702,7.125,7.864
1558,0.774,35.856,13.812,29.885,23.303,4.782,7.165,7.944
1559,0.784,35.992,13.866,29.885,23.3,4.783,7.246,7.864
1560,0.771,36.031,13.827,29.894,23.3,4.783,7.166,7.782
1561,0.774,35.572,13.819,29.894,23.296,4.742,7.124,7.74
1562,0.771,35.682,13.827,29.875,23.296,4.783,7.083,7.618
1563,0.783,35.798,13.815,29.885,23.293,4.702,7.083,7.657
1564,0.803,35.838,13.846,29.885,23.296,4.782,7.123,7.658
1565,0.803,35.713,13.811,29.904,23.307,4.783,7.287,7.739
1566,0.807,35.875,13.87,29.914,23.31,4.946,7.247,7.74
1567,0.82,36.011,13.839,29.895,23.3,4.785,7.125,7.537
1568,0.817,36.003,13.8,29.885,23.303,4.824,7.165,7.534
1569,0.836,35.552,13.854,29.885,23.307,4.824,7.206,7.534
1570,0.826,35.672,13.8,29.875,23.303,4.865,7.206,7.494
1571,0.81,35.798,13.807,29.894,23.307,4.784,7.287,7.494
1572,0.816,35.646,13.788,29.875,23.31,4.783,7.288,7.534
1573,0.813,35.731,13.858,29.894,23.307,4.824,7.329,7.412
1574,0.807,35.856,13.839,29.875,23.3,4.743,7.248,7.249
1575,0.81,35.944,13.811,29.846,23.293,4.62,7.166,7.166
1576,0.797,35.446,13.862,29.856,23.3,4.7,7.328,7.206
1577,0.8,35.594,13.839,29.913,23.303,4.782,7.37,7.247
1578,0.79,35.73,13.835,29.876,23.3,4.742,7.33,7.206
1579,0.797,35.799,13.893,29.865,23.3,4.701,7.329,7.125
1580,0.794,35.55,13.82,29.846,23.296,4.742,7.451,7.165
1581,0.797,35.701,13.819,29.856,23.293,4.742,7.371,7.084
1582,0.803,35.846,13.772,29.846,23.3,4.783,7.452,7.164
1583,0.823,35.925,13.83,29.875,23.31,4.864,7.534,7.206
1584,0.836,35.561,13.87,29.894,23.314,4.743,7.494,7.125
1585,0.846,35.663,13.819,29.875,23.307,4.823,7.453,7.083
1586,0.836,35.769,13.889,29.875,23.297,4.824,7.452,7.002
1587,0.843,35.837,13.839,29.856,23.3,4.783,7.452,7.041
1588,0.849,35.493,13.807,29.865,23.307,4.864,7.452,7.001
1589,0.846,35.652,13.854,29.875,23.303,4.824,7.493,7.041
1590,0.849,35.76,13.831,29.875,23.31,4.783,7.575,7.001
1591,0.846,35.809,13.846,29.875,23.3,4.783,7.494,6.919
1592,0.84,35.56,13.788,29.837,23.3,4.661,7.453,6.796
1593,0.846,35.672,13.823,29.827,23.293,4.741,7.452,6.836
1594,0.836,35.798,13.784,29.846,23.303,4.783,7.452,6.837
1595,0.839,36.154,13.803,29.837,23.303,4.824,7.534,6.877
1596,0.836,35.63,13.881,29.836,23.303,4.783,7.616,6.877
1597,0.843,35.75,13.847,29.836,23.296,4.742,7.576,6.837
1598,0.82,35.856,13.831,29.836,23.296,4.742,7.657,6.837
1599,0.81,35.512,13.858,29.836,23.296,4.783,7.658,6.837
1600,0.81,35.547,13.804,29.865,23.3,4.864,7.861,6.999
1601,0.82,35.691,13.807,29.875,23.317,4.946,7.904,6.96
1602,0.839,35.798,13.803,29.885,23.311,4.947,7.945,6.838
1603,0.823,35.521,13.834,29.846,23.3,4.825,7.864,6.796
1604,0.843,35.624,13.839,29.856,23.303,4.824,7.944,6.755
1605,0.839,35.75,13.835,29.846,23.303,4.865,8.026,6.754
1606,0.859,35.856,13.854,29.856,23.303,4.784,7.987,6.714
1607,0.853,35.484,13.847,29.865,23.307,4.824,8.068,6.794
1608,0.862,35.643,13.843,29.875,23.307,4.865,8.028,6.714
1609,0.853,35.75,13.889,29.856,23.303,4.824,7.905,6.672
1610,0.869,35.789,13.831,29.827,23.29,4.783,7.863,6.631
1611,0.859,35.377,13.811,29.836,23.296,4.783,7.985,6.712
1612,0.836,35.536,13.807,29.846,23.3,4.783,7.986,6.672
1613,0.839,35.662,13.834,29.856,23.3,4.824,7.946,6.631
1614,0.82,35.702,13.796,29.856,23.3,4.824,7.945,6.631
1615,0.826,35.386,13.823,29.846,23.3,4.783,7.945,6.55
1616,0.826,35.527,13.823,29.827,23.289,4.783,7.945,6.63
1617,0.826,35.634,13.827,29.846,23.296,4.864,7.986,6.59
1618,0.826,35.702,13.788,29.856,23.303,4.906,8.027,6.712
1619,0.839,35.501,13.865,29.875,23.321,4.947,8.068,6.591
1620,0.836,35.633,13.827,29.846,23.3,4.907,7.946,6.631
1621,0.833,35.711,13.823,29.846,23.307,4.865,7.864,6.55
1622,0.839,35.885,13.862,29.846,23.307,4.906,8.026,6.549
1623,0.839,35.503,13.855,29.846,23.303,4.865,7.905,6.508
1624,0.849,35.633,13.839,29.856,23.307,4.824,7.863,6.549
1625,0.853,35.74,13.858,29.856,23.31,4.905,7.985,6.549
1626,0.875,35.444,13.874,29.856,23.3,4.906,7.864,6.468
1627,0.882,35.422,13.843,29.856,23.293,4.744,7.782,6.386
1628,0.898,35.527,13.807,29.808,23.293,4.742,7.822,6.425
1629,0.908,35.624,13.831,29.836,23.296,4.783,7.822,6.426
1630,0.908,35.376,13.796,29.846,23.303,4.864,7.781,6.426
1631,0.895,35.507,13.784,29.837,23.296,4.865,7.822,6.426
1632,0.882,35.643,13.846,29.817,23.3,4.824,7.781,6.426
1633,0.882,35.702,13.87,29.807,23.296,4.783,7.74,6.304
1634,0.866,35.424,13.827,29.817,23.293,4.783,7.74,6.384
1635,0.859,35.604,13.842,29.836,23.303,4.905,7.862,6.507
1636,0.856,35.73,13.866,29.827,23.307,4.987,7.985,6.549
1637,0.856,35.837,13.858,29.923,23.307,4.988,7.946,6.427
1638,0.843,35.378,13.827,29.837,23.303,4.907,7.823,6.466
1639,0.843,35.488,13.85,29.846,23.303,4.865,7.903,6.426
1640,0.853,35.614,13.804,29.837,23.303,4.824,7.863,6.466
1641,0.849,35.682,13.795,29.836,23.303,4.824,7.985,6.426
1642,0.856,35.405,13.78,29.827,23.31,4.905,7.864,6.385
1643,0.872,35.537,13.854,29.827,23.307,4.906,7.985,6.425
1644,0.889,35.643,13.819,29.827,23.307,4.825,7.986,6.304
1645,0.879,35.702,13.85,29.827,23.297,4.783,7.905,6.302
1646,0.866,35.348,13.85,29.798,23.289,4.783,7.945,6.262
1647,0.889,35.507,13.858,29.826,23.3,4.864,7.986,6.343
1648,0.905,35.614,13.812,29.817,23.3,4.824,7.986,6.343
1649,0.905,35.634,13.854,29.827,23.293,4.865,7.946,6.262
1650,0.912,35.347,13.831,29.865,23.296,4.784,7.945,6.221
1651,0.912,35.488,13.811,29.818,23.3,4.783,7.945,6.261
1652,0.902,35.585,13.85,29.807,23.293,4.824,7.945,6.262
1653,0.908,35.471,13.854,29.826,23.307,4.946,8.026,6.384
1654,0.915,35.508,13.839,29.846,23.321,4.988,8.027,6.385
1655,0.912,35.653,13.823,29.827,23.307,4.907,7.946,6.222
1656,0.889,35.712,13.878,29.808,23.3,4.825,7.945,6.22
1657,0.889,35.3,13.851,29.817,23.303,4.905,7.945,6.302
1658,0.892,35.42,13.819,29.836,23.307,4.906,7.945,6.302
1659,0.899,35.527,13.87,29.827,23.307,4.825,8.026,6.302
1660,0.912,35.634,13.784,29.836,23.303,4.905,7.946,6.343
1661,0.925,35.299,13.811,29.836,23.307,4.865,7.905,6.262
1662,0.941,35.459,13.792,29.817,23.297,4.824,7.823,6.099
1663,0.945,35.566,13.846,29.798,23.289,4.702,7.741,6.138
1664,0.935,35.624,13.819,29.826,23.296,4.863,7.781,6.26
1665,0.941,35.318,13.819,29.817,23.3,4.865,7.862,6.18
1666,0.948,35.449,13.866,29.807,23.3,4.824,7.863,6.261
1667,0.938,35.585,13.827,29.817,23.293,4.865,7.822,6.18
1668,0.954,35.653,13.819,29.817,23.3,4.824,7.822,6.139
1669,0.951,35.357,13.846,29.788,23.293,4.743,7.781,6.138
1670,0.941,35.536,13.737,29.826,23.296,4.823,7.822,6.219
1671,0.922,35.672,13.826,29.817,23.31,4.905,7.944,6.342
1672,0.909,35.741,13.831,29.836,23.314,5.028,7.986,6.262
1673,0.918,35.377,13.87,29.827,23.304,4.867,7.864,6.139
1674,0.915,35.469,13.804,29.808,23.307,4.824,7.822,6.219
1675,0.905,35.604,13.846,29.817,23.303,4.905,7.822,6.22
1676,0.928,35.625,13.882,29.817,23.307,4.947,7.781,6.22
1677,0.948,35.424,13.847,29.817,23.307,4.907,7.822,6.261
1678,0.935,35.546,13.796,29.817,23.307,4.947,7.822,6.262
1679,0.935,35.672,13.854,29.827,23.303,4.866,7.781,6.139
1680,0.925,35.654,13.784,29.808,23.296,4.784,7.7,6.016
1681,0.935,35.597,13.803,29.779,23.293,4.864,7.74,6.178
1682,0.961,35.749,13.78,29.817,23.303,4.865,7.699,6.098
1683,0.977,35.837,13.834,29.807,23.296,4.906,7.699,6.138
1684,0.984,35.311,13.796,29.817,23.303,4.825,7.699,6.057
1685,0.974,35.411,13.795,29.798,23.293,4.865,7.577,6.056
1686,0.977,35.508,13.866,29.798,23.296,4.824,7.575,6.097
1687,0.971,35.605,13.847,29.788,23.3,4.783,7.616,6.138
1688,0.984,35.433,13.882,29.807,23.31,4.986,7.739,6.179
1689,0.997,35.604,13.882,29.846,23.317,4.988,7.781,6.22
1690,1.017,35.721,13.827,29.808,23.3,4.866,7.659,6.017
1691,1.007,35.789,13.862,29.817,23.303,4.946,7.698,6.096
1692,0.997,35.473,13.827,29.807,23.3,4.866,7.658,6.097
1693,1.004,35.623,13.854,29.807,23.303,4.906,7.698,6.097
1694,0.997,35.74,13.819,29.798,23.307,4.865,7.699,6.138
1695,0.987,35.808,13.819,29.836,23.307,4.865,7.78,6.138
1696,0.984,35.598,13.893,29.808,23.31,4.865,7.7,6.016
1697,0.984,35.749,13.835,29.846,23.3,4.824,7.618,5.893
1698,0.968,35.837,13.8,29.779,23.293,4.743,7.698,6.014
1699,0.981,35.876,13.85,29.797,23.3,4.905,7.74,6.056
1700,0.987,35.656,13.827,29.807,23.3,4.865,7.74,5.975
1701,1.01,35.807,13.881,29.807,23.296,4.824,7.699,5.974
1702,1.007,35.905,13.812,29.788,23.3,4.743,7.74,5.933
1703,1.014,35.935,13.893,29.798,23.3,4.783,7.74,5.974
1704,1.033,35.628,13.82,29.788,23.293,4.742,7.74,6.015
1705,1.04,35.75,13.838,29.798,23.31,4.945,7.781,6.137
1706,1.059,35.876,13.843,29.826,23.31,4.988,7.944,6.219
1707,1.066,35.973,13.835,29.836,23.307,4.948,7.823,6.017
1708,1.076,35.907,13.796,29.798,23.303,4.866,7.781,6.056
1709,1.073,36.021,13.854,29.817,23.303,4.824,7.822,6.015
1710,1.086,36.118,13.745,29.807,23.31,4.865,7.863,6.056
1711,1.079,35.822,13.818,29.817,23.3,4.987,7.863,6.015
1712,1.076,35.915,13.823,29.817,23.303,4.948,7.863,6.096
1713,1.076,36.021,13.893,29.807,23.307,4.988,7.904,6.056
1714,1.05,36.108,13.859,29.798,23.307,4.866,7.823,5.893
1715,1.05,35.937,13.851,29.769,23.293,4.662,7.7,5.892
1716,1.04,36.06,13.862,29.788,23.293,4.863,7.821,5.973
1717,1.069,36.214,13.788,29.817,23.296,4.824,7.822,6.015
1718,1.063,36.293,13.823,29.798,23.3,4.824,7.822,5.974
1719,1.047,36.15,13.85,29.807,23.296,4.865,7.822,6.055
1720,1.043,36.273,13.784,29.798,23.3,4.784,7.781,6.015
1721,1.063,36.379,13.803,29.778,23.296,4.783,7.822,6.015
1722,1.066,36.448,13.768,29.797,23.3,4.824,7.863,6.015
1723,1.06,36.247,13.846,29.807,23.307,4.946,8.026,6.096
1724,1.082,36.418,13.85,29.826,23.321,4.988,8.027,6.138
1725,1.079,36.544,13.804,29.827,23.307,4.866,7.824,6.057
1726,1.086,36.555,13.862,29.817,23.303,4.865,7.822,6.015
1727,1.092,36.363,13.812,29.788,23.303,4.824,7.822,6.056
1728,1.112,36.515,13.827,29.798,23.307,4.905,7.863,6.097
1729,1.128,36.622,13.862,29.798,23.307,4.906,7.863,6.016
1730,1.116,36.632,13.788,29.826,23.3,4.906,7.863,6.056
1731,1.102,36.536,13.838,29.808,23.307,4.825,7.782,6.056
1732,1.102,36.66,13.776,29.788,23.3,4.743,7.781,5.893
1733,1.093,36.738,13.842,29.778,23.289,4.742,7.7,6.014
1734,1.083,36.787,13.804,29.797,23.307,4.823,7.78,5.974
1735,1.083,36.576,13.819,29.798,23.303,4.824,7.781,5.933
1736,1.079,36.67,13.874,29.798,23.296,4.743,7.781,5.974
1737,1.083,36.777,13.784,29.798,23.3,4.742,7.7,5.974
1738,1.079,36.682,13.799,29.769,23.296,4.742,7.618,5.893
1739,1.086,36.757,13.858,29.778,23.3,4.783,7.657,5.933
1740,1.092,36.873,13.839,29.788,23.3,4.824,7.698,6.096
1741,1.115,37.009,13.772,29.836,23.307,4.946,7.821,6.138
1742,1.132,36.78,13.842,29.846,23.31,4.907,7.781,6.016
1743,1.122,36.902,13.804,29.798,23.307,4.865,7.7,5.974
1744,1.122,36.98,13.795,29.798,23.3,4.784,7.658,5.933
1745,1.125,37.096,13.791,29.798,23.307,4.824,7.658,5.974
1746,1.122,36.886,13.893,29.778,23.307,4.905,7.576,5.974
1747,1.116,37.038,13.804,29.797,23.307,4.825,7.616,5.974
1748,1.119,37.154,13.819,29.807,23.307,4.905,7.617,6.015
1749,1.122,37.222,13.858,29.817,23.303,4.825,7.617,5.974
1750,1.109,36.945,13.792,29.769,23.293,4.783,7.454,5.771
1751,1.096,37.086,13.803,29.797,23.293,4.864,7.493,6.013
1752,1.092,37.203,13.815,29.798,23.3,4.824,7.534,5.934
1753,1.092,37.252,13.838,29.788,23.303,4.824,7.494,5.892
1754,1.096,37.108,13.811,29.788,23.296,4.743,7.494,5.892
1755,1.092,37.251,13.823,29.769,23.3,4.783,7.412,5.851
1756,1.086,37.329,13.874,29.759,23.296,4.824,7.452,5.891
1757,1.083,37.368,13.823,29.816,23.3,4.865,7.574,6.014
1758,1.06,37.301,13.835,29.827,23.31,4.987,7.616,6.056
1759,1.043,37.425,13.858,29.798,23.31,4.907,7.454,5.934
1760,1.033,37.513,13.823,29.798,23.303,4.825,7.493,6.014
1761,1.056,37.753,13.823,29.788,23.3,4.865,7.534,5.974
1762,1.056,37.257,13.776,29.788,23.303,4.865,7.494,5.974
1763,1.06,37.358,13.842,29.798,23.3,4.824,7.453,5.974
1764,1.06,37.474,13.788,29.807,23.303,4.865,7.452,6.015
1765,1.06,37.302,13.819,29.788,23.31,4.906,7.452,6.015
1766,1.043,37.339,13.846,29.798,23.3,4.784,7.371,5.852
1767,1.04,37.445,13.831,29.759,23.283,4.702,7.289,5.851
1768,1.033,37.523,13.78,29.749,23.296,4.782,7.41,5.851
1769,1.03,37.274,13.865,29.759,23.303,4.783,7.411,5.932
1770,1.03,37.415,13.812,29.778,23.303,4.783,7.371,5.974
1771,1.007,37.532,13.78,29.788,23.3,4.783,7.37,5.933
1772,0.975,37.6,13.776,29.778,23.3,4.783,7.33,5.892
1773,0.961,37.457,13.822,29.788,23.303,4.742,7.329,5.933
1774,0.935,37.571,13.831,29.759,23.3,4.783,7.37,5.892
1775,0.928,37.697,13.827,29.769,23.3,4.864,7.533,6.054
1776,0.922,37.813,13.85,29.817,23.321,4.987,7.616,6.056
1777,0.912,37.507,13.776,29.798,23.304,4.826,7.495,5.975
1778,0.879,37.61,13.826,29.778,23.303,4.865,7.453,6.055
1779,0.872,37.716,13.862,29.788,23.307,4.865,7.534,6.015
1780,0.866,37.775,13.839,29.798,23.307,4.784,7.575,6.015
1781,0.876,37.516,13.835,29.788,23.307,4.905,7.535,6.015
1782,0.889,37.629,13.882,29.788,23.303,4.906,7.575,6.056
1783,0.892,37.726,13.823,29.778,23.303,4.784,7.413,5.893
1784,0.876,37.756,13.835,29.74,23.293,4.742,7.411,5.851
1785,0.85,37.545,13.839,29.749,23.3,4.742,7.493,6.013
1786,0.856,37.706,13.862,29.759,23.303,4.823,7.453,5.974
1787,0.859,37.813,13.815,29.759,23.3,4.783,7.574,5.933
1788,0.869,38.121,13.756,29.759,23.3,4.742,7.454,5.974
1789,0.853,37.597,13.877,29.73,23.296,4.701,7.452,5.893
1790,0.853,37.725,13.792,29.759,23.303,4.701,7.412,5.892
1791,0.849,37.823,13.811,29.759,23.296,4.782,7.493,6.054
1792,0.83,37.709,13.823,29.797,23.31,4.946,7.575,6.056
1793,0.826,37.755,13.854,29.798,23.303,4.988,7.494,5.975
1794,0.813,37.833,13.851,29.75,23.303,4.866,7.494,5.974
1795,0.81,37.968,13.843,29.768,23.303,4.824,7.453,6.015
1796,0.813,37.614,13.839,29.769,23.296,4.824,7.493,5.974
1797,0.807,37.735,13.733,29.788,23.307,4.824,7.534,6.015
1798,0.807,37.842,13.795,29.759,23.307,4.905,7.494,6.015
1799,0.794,37.92,13.862,29.769,23.303,4.825,7.494,6.096
1800,0.784,37.604,13.855,29.769,23.307,4.865,7.453,6.056
1801,0.774,37.735,13.8,29.74,23.293,4.702,7.29,5.893
1802,0.767,37.823,13.776,29.74,23.293,4.782,7.491,6.014
1803,0.806,37.9,13.846,29.759,23.303,4.864,7.453,5.974
1804,0.8,37.681,13.839,29.759,23.303,4.784,7.412,5.974
1805,0.81,37.813,13.819,29.74,23.3,4.824,7.452,6.055
1806,0.797,37.92,13.881,29.759,23.296,4.783,7.412,5.975
1807,0.797,37.978,13.859,29.73,23.293,4.661,7.411,5.933
1808,0.807,37.643,13.804,29.72,23.296,4.782,7.493,6.014
1809,0.807,37.774,13.873,29.768,23.31,4.905,7.656,6.137
1810,0.833,37.91,13.8,29.788,23.317,4.906,7.698,6.098
1811,0.797,37.949,13.795,29.75,23.3,4.865,7.618,6.056
1812,0.781,37.633,13.803,29.74,23.307,4.784,7.698,6.056
1813,0.784,37.764,13.823,29.778,23.3,4.824,7.74,6.056
1814,0.771,37.871,13.846,29.759,23.303,4.824,7.74,6.056
1815,0.761,37.882,13.827,29.769,23.307,4.865,7.74,6.056
1816,0.767,37.728,13.862,29.749,23.31,4.824,7.821,6.097
1817,0.774,37.842,13.687,29.797,23.307,4.824,7.781,6.056
1818,0.767,37.958,13.767,29.759,23.297,4.783,7.74,5.934
1819,0.754,37.729,13.838,29.73,23.293,4.62,7.699,5.892
1820,0.754,37.727,13.807,29.768,23.303,4.822,7.861,6.054
1821,0.77,37.871,13.834,29.749,23.307,4.783,7.741,6.015
1822,0.774,37.958,13.764,29.749,23.297,4.783,7.862,5.974
1823,0.774,37.633,13.834,29.74,23.293,4.702,7.822,5.974
1824,0.803,37.726,13.8,29.768,23.293,4.742,7.781,5.974
1825,0.803,37.852,13.807,29.74,23.3,4.742,7.781,6.055
1826,0.794,37.929,13.854,29.749,23.296,4.823,7.822,6.056
1827,0.8,37.71,13.823,29.778,23.314,4.987,7.985,6.178
1828,0.803,37.842,13.819,29.778,23.31,4.907,7.824,5.935
1829,0.797,37.939,13.854,29.778,23.3,4.825,7.863,6.055
1830,0.781,38.007,13.784,29.759,23.307,4.865,7.782,5.975
1831,0.767,37.643,13.803,29.749,23.307,4.824,7.781,6.015
1832,0.757,37.755,13.803,29.768,23.303,4.905,7.822,6.015
1833,0.748,37.89,13.854,29.769,23.303,4.906,7.741,6.096
1834,0.738,37.978,13.858,29.759,23.3,4.825,7.74,6.056
1835,0.734,37.749,13.808,29.759,23.3,4.865,7.618,5.975
1836,0.715,37.852,13.854,29.721,23.286,4.702,7.576,5.893
1837,0.715,37.968,13.811,29.749,23.3,4.823,7.657,5.973
1838,0.705,38.017,13.799,29.768,23.303,4.783,7.617,6.015
1839,0.711,37.557,13.838,29.759,23.296,4.783,7.617,5.934
1840,0.711,37.677,13.792,29.749,23.3,4.864,7.576,5.974
1841,0.721,37.793,13.819,29.749,23.293,4.824,7.494,5.852
1842,0.721,37.785,13.796,29.759,23.3,4.743,7.412,5.851
1843,0.728,37.679,13.807,29.73,23.296,4.742,7.493,6.054
1844,0.754,37.813,13.819,29.778,23.307,4.986,7.697,6.097
1845,0.764,37.939,13.835,29.788,23.31,4.948,7.577,6.056
1846,0.757,37.767,13.885,29.759,23.3,4.785,7.413,6.015
1847,0.757,37.679,13.835,29.759,23.3,4.864,7.452,6.096
1848,0.777,37.822,13.839,29.759,23.303,4.906,7.452,5.975
1849,0.787,37.891,13.897,29.769,23.303,4.865,7.412,6.096
1850,0.793,37.69,13.878,29.807,23.307,4.824,7.371,6.056
1851,0.787,37.803,13.823,29.779,23.31,4.865,7.37,6.097
1852,0.774,37.91,13.827,29.778,23.31,4.865,7.33,5.975
1853,0.761,37.988,13.858,29.73,23.29,4.743,7.126,5.893
1854,0.738,37.614,13.8,29.759,23.296,4.864,7.246,6.054
1855,0.734,37.774,13.788,29.759,23.3,4.784,7.247,5.975
1856,0.734,37.871,13.858,29.749,23.3,4.864,7.206,5.974
1857,0.731,37.958,13.823,29.749,23.296,4.865,7.206,5.893
1858,0.721,37.614,13.799,29.749,23.296,4.784,7.165,5.933
1859,0.721,37.754,13.819,29.74,23.293,4.783,7.206,5.933
1860,0.724,37.861,13.764,29.759,23.296,4.905,7.287,5.974
1861,0.737,37.949,13.834,29.788,23.317,4.947,7.41,6.137
1862,0.76,37.681,13.831,29.788,23.314,4.947,7.33,6.016
1863,0.761,37.784,13.843,29.769,23.307,4.866,7.329,5.974
1864,0.77,37.881,13.823,29.759,23.293,4.824,7.329,5.974
1865,0.77,37.939,13.831,29.759,23.303,4.865,7.329,6.015
1866,0.78,37.691,13.874,29.769,23.307,4.906,7.329,6.056
1867,0.787,37.832,13.835,29.769,23.31,4.906,7.37,6.097
1868,0.784,37.939,13.827,29.769,23.307,4.825,7.33,6.056
1869,0.78,37.93,13.874,29.749,23.303,4.783,7.289,5.975
1870,0.787,37.662,13.82,29.72,23.296,4.742,7.166,5.852
1871,0.764,37.784,13.803,29.73,23.296,4.783,7.246,5.973
1872,0.764,37.91,13.803,29.759,23.296,4.905,7.288,6.015
1873,0.78,37.815,13.87,29.749,23.296,4.825,7.329,5.974
1874,0.767,37.68,13.843,29.74,23.3,4.865,7.289,5.974
1875,0.761,37.803,13.827,29.74,23.303,4.784,7.166,5.933
1876,0.761,37.881,13.878,29.73,23.296,4.783,7.165,5.892
1877,0.741,37.652,13.831,29.72,23.296,4.824,7.206,5.973
1878,0.741,37.755,13.796,29.759,23.3,4.824,7.369,6.137
1879,0.741,37.881,13.842,29.788,23.314,4.987,7.411,6.219
1880,0.741,37.997,13.776,29.788,23.31,4.866,7.289,5.976
1881,0.747,37.624,13.811,29.759,23.297,4.906,7.247,6.015
1882,0.757,37.774,13.807,29.759,23.3,4.865,7.288,6.056
1883,0.751,37.871,13.858,29.749,23.3,4.906,7.288,6.056
1884,0.767,37.939,13.796,29.759,23.303,4.865,7.247,6.097
1885,0.761,37.643,13.807,29.759,23.31,4.865,7.288,6.097
1886,0.767,37.803,13.873,29.759,23.307,4.906,7.288,6.016
1887,0.78,37.9,13.823,29.749,23.3,4.906,7.125,5.934
1888,0.793,37.959,13.823,29.73,23.286,4.744,7.165,5.852
1889,0.79,37.643,13.842,29.739,23.3,4.823,7.246,6.054
1890,0.793,37.822,13.839,29.787,23.296,4.783,7.206,6.015
1891,0.784,37.91,13.796,29.74,23.3,4.905,7.247,6.015
1892,0.777,37.949,13.827,29.74,23.296,4.825,7.247,5.893
1893,0.764,37.604,13.889,29.73,23.296,4.824,7.206,5.973
1894,0.767,37.735,13.843,29.73,23.293,4.743,7.206,5.933
1895,0.767,37.832,13.823,29.73,23.303,4.864,7.247,5.974
1896,0.78,37.872,13.85,29.739,23.303,4.906,7.369,6.055
1897,0.787,37.69,13.866,29.768,23.317,5.028,7.37,6.056
1898,0.784,37.822,13.812,29.749,23.307,4.826,7.289,6.015
1899,0.771,37.91,13.827,29.749,23.3,4.865,7.207,6.056
1900,0.757,38.007,13.78,29.74,23.307,4.824,7.287,6.015
1901,0.761,37.921,13.783,29.74,23.303,4.865,7.247,5.974
1902,0.764,38.026,13.83,29.73,23.307,4.906,7.247,6.015
1903,0.78,38.113,13.839,29.73,23.307,4.865,7.288,6.015
1904,0.774,37.587,13.846,29.749,23.307,4.906,7.247,6.015
1905,0.777,37.63,13.835,29.73,23.3,4.825,7.125,5.934
1906,0.78,37.716,13.862,29.701,23.289,4.743,7.083,5.892
1907,0.771,37.794,13.831,29.72,23.3,4.783,7.123,5.933
1908,0.793,37.622,13.803,29.72,23.296,4.824,7.083,5.974
1909,0.787,37.735,13.866,29.73,23.303,4.824,7.123,5.974
1910,0.79,37.88,13.757,29.739,23.3,4.783,7.083,5.893
1911,0.79,37.949,13.787,29.72,23.293,4.783,7.042,5.973
1912,0.784,37.624,13.78,29.72,23.3,4.783,7.123,5.974
1913,0.758,37.745,13.83,29.72,23.296,4.824,7.124,5.974
1914,0.761,37.861,13.819,29.739,23.307,4.905,7.165,6.055
1915,0.751,37.978,13.827,29.749,23.317,4.987,7.206,6.097
1916,0.764,37.566,13.881,29.73,23.304,4.866,7.125,5.975
1917,0.751,37.668,13.843,29.749,23.296,4.824,7.165,5.974
1918,0.741,37.774,13.8,29.73,23.303,4.865,7.084,6.015
1919,0.747,37.814,13.881,29.739,23.303,4.865,7.083,6.015
1920,0.738,37.68,13.804,29.74,23.303,4.824,7.205,6.137
1921,0.751,37.841,13.803,29.73,23.303,4.905,7.165,6.179
1922,0.741,37.939,13.76,29.73,23.303,4.865,7.165,6.057
1923,0.751,37.969,13.807,29.73,23.307,4.784,7.043,5.975
1924,0.764,37.528,13.799,29.701,23.293,4.742,7.042,5.974
1925,0.767,37.658,13.799,29.71,23.3,4.823,7.204,6.015
1926,0.777,37.765,13.85,29.711,23.303,4.783,7.165,6.015
1927,0.777,37.948,13.823,29.72,23.3,4.783,7.206,5.974
1928,0.777,37.643,13.819,29.711,23.3,4.824,7.206,5.974
1929,0.771,37.745,13.87,29.711,23.296,4.783,7.165,6.015
1930,0.787,37.842,13.816,29.711,23.293,4.824,7.246,5.974
1931,0.774,37.527,13.835,29.701,23.293,4.824,7.328,6.055
1932,0.764,37.581,13.8,29.72,23.31,4.946,7.492,6.219
1933,0.774,37.735,13.846,29.749,23.31,4.988,7.494,6.139
1934,0.764,37.804,13.827,29.73,23.303,4.826,7.453,6.016
1935,0.751,37.565,13.831,29.73,23.303,4.905,7.452,6.096
1936,0.754,37.687,13.893,29.73,23.3,4.865,7.534,6.016
1937,0.767,37.803,13.851,29.778,23.303,4.906,7.494,6.056
1938,0.751,37.881,13.808,29.73,23.307,4.906,7.616,6.097
1939,0.751,37.613,13.858,29.73,23.303,4.906,7.535,6.097
1940,0.757,37.745,13.847,29.73,23.3,4.906,7.575,6.016
1941,0.761,37.852,13.862,29.72,23.293,4.784,7.494,5.893
1942,0.751,37.891,13.804,29.692,23.289,4.742,7.453,6.014
1943,0.751,37.527,13.858,29.691,23.296,4.864,7.452,6.015
1944,0.761,37.686,13.835,29.72,23.303,4.865,7.452,6.056
1945,0.764,37.803,13.807,29.72,23.3,4.824,7.412,5.975
1946,0.767,37.824,13.842,29.72,23.296,4.783,7.411,5.933
1947,0.78,37.373,13.8,29.711,23.293,4.783,7.371,5.974
1948,0.78,37.493,13.799,29.682,23.293,4.742,7.452,5.893
1949,0.78,37.6,13.823,29.701,23.303,4.864,7.493,6.054
1950,0.803,37.658,13.788,29.758,23.317,4.946,7.534,6.137
1951,0.803,37.573,13.819,29.759,23.307,4.988,7.453,5.976
1952,0.797,37.668,13.803,29.721,23.307,4.866,7.412,6.015
1953,0.79,37.755,13.881,29.72,23.307,4.824,7.371,6.056
1954,0.774,38.101,13.835,29.73,23.307,4.905,7.37,6.015
1955,0.787,37.51,13.893,29.72,23.303,4.865,7.37,6.015
1956,0.774,37.638,13.886,29.701,23.303,4.906,7.37,6.015
1957,0.761,37.755,13.835,29.72,23.31,4.906,7.289,6.015
1958,0.738,37.382,13.811,29.701,23.297,4.784,7.207,5.974
1959,0.744,37.388,13.819,29.691,23.293,4.742,7.125,5.893
1960,0.731,37.493,13.772,29.71,23.303,4.783,7.165,5.973
1961,0.738,37.619,13.815,29.72,23.296,4.864,7.124,5.974
1962,0.751,37.4,13.807,29.701,23.3,4.784,7.124,5.974
1963,0.757,37.522,13.823,29.71,23.3,4.824,7.083,5.852
1964,0.761,37.639,13.835,29.701,23.296,4.783,7.042,5.973
1965,0.761,37.716,13.823,29.71,23.296,4.824,6.96,5.893
1966,0.774,37.286,13.842,29.701,23.303,4.824,7.041,5.973
1967,0.774,37.463,13.811,29.73,23.31,4.905,7.245,6.055
1968,0.793,37.609,13.838,29.749,23.317,4.987,7.206,6.015
1969,0.793,37.678,13.835,29.72,23.307,4.785,7.125,5.974
1970,0.787,37.42,13.788,29.739,23.31,4.905,7.083,6.015
1971,0.774,37.57,13.795,29.711,23.303,4.865,7.123,5.974
1972,0.787,37.658,13.799,29.72,23.3,4.906,7.165,5.974
1973,0.774,37.707,13.866,29.73,23.307,4.906,7.165,6.055
1974,0.771,37.449,13.808,29.73,23.31,4.865,7.124,6.056
1975,0.764,37.58,13.834,29.711,23.303,4.824,7.165,5.975
1976,0.774,37.668,13.85,29.701,23.29,4.743,7.084,5.852
1977,0.764,37.688,13.815,29.758,23.289,4.783,7.164,5.973
1978,0.761,37.372,13.807,29.711,23.307,4.864,7.246,6.015
1979,0.748,37.503,13.854,29.73,23.303,4.824,7.247,5.934
1980,0.738,37.59,13.823,29.711,23.307,4.824,7.206,5.974
1981,0.738,37.649,13.811,29.701,23.303,4.743,7.165,5.933
1982,0.754,37.352,13.795,29.682,23.296,4.783,7.287,5.892
1983,0.757,37.483,13.838,29.701,23.296,4.864,7.369,6.014
1984,0.77,37.571,13.866,29.72,23.307,4.906,7.533,6.178
1985,0.774,37.409,13.87,29.73,23.31,4.947,7.412,5.976
1986,0.774,37.378,13.866,29.711,23.303,4.825,7.371,5.974
1987,0.78,37.512,13.835,29.711,23.303,4.824,7.411,6.096
1988,0.764,37.6,13.78,29.711,23.307,4.865,7.371,5.935
1989,0.764,37.246,13.858,29.701,23.307,4.865,7.37,6.014
1990,0.774,37.348,13.796,29.71,23.307,4.865,7.411,6.056
1991,0.764,37.503,13.788,29.72,23.303,4.865,7.411,6.015
1992,0.748,37.581,13.819,29.73,23.31,4.906,7.371,6.015
1993,0.741,37.303,13.835,29.701,23.293,4.825,7.248,5.934
1994,0.741,37.406,13.807,29.672,23.296,4.702,7.288,5.892
1995,0.767,37.532,13.768,29.701,23.3,4.782,7.41,5.973
1996,0.761,37.61,13.885,29.701,23.3,4.824,7.33,5.893
1997,0.751,37.179,13.835,29.701,23.296,4.743,7.329,5.933
1998,0.721,37.328,13.788,29.701,23.293,4.823,7.289,5.933
1999,0.721,37.406,13.838,29.682,23.293,4.783,7.41,5.974
2000,0.721,37.484,13.757,29.701,23.296,4.742,7.411,6.015
2001,0.734,37.293,13.783,29.691,23.31,4.864,7.493,6.015
2002,0.744,37.454,13.811,29.73,23.31,4.906,7.575,6.096
2003,0.751,37.58,13.831,29.711,23.314,4.906,7.535,5.975
2004,0.741,37.591,13.839,29.72,23.307,4.825,7.494,6.055
2005,0.738,37.409,13.815,29.72,23.3,4.783,7.494,6.015
2006,0.757,37.541,13.87,29.701,23.31,4.824,7.494,6.056
2007,0.761,37.648,13.851,29.73,23.307,4.905,7.534,6.056
2008,0.764,37.659,13.839,29.711,23.307,4.906,7.534,6.056
2009,0.78,37.228,13.893,29.711,23.307,4.865,7.494,6.015
2010,0.774,37.348,13.796,29.701,23.297,4.824,7.494,5.934
2011,0.748,37.435,13.803,29.682,23.293,4.743,7.331,5.892
2012,0.728,37.273,13.788,29.691,23.296,4.783,7.41,5.973
2013,0.744,37.31,13.842,29.701,23.293,4.824,7.493,5.893
2014,0.728,37.445,13.796,29.701,23.3,4.824,7.453,5.933
2015,0.734,37.523,13.756,29.701,23.296,4.824,7.412,5.892
2016,0.728,37.274,13.838,29.682,23.293,4.743,7.452,5.933
2017,0.731,37.387,13.811,29.749,23.293,4.661,7.412,5.852
2018,0.721,37.503,13.788,29.682,23.3,4.782,7.452,5.973
2019,0.728,37.581,13.858,29.71,23.307,4.946,7.534,6.137
2020,0.728,37.265,13.835,29.73,23.31,4.988,7.534,6.057
2021,0.738,37.396,13.831,29.711,23.307,4.826,7.494,5.975
2022,0.731,37.493,13.807,29.701,23.307,4.824,7.412,5.974
2023,0.741,37.562,13.866,29.691,23.297,4.824,7.493,5.974
2024,0.744,37.179,13.827,29.701,23.31,4.824,7.534,6.015
2025,0.744,37.328,13.823,29.701,23.307,4.865,7.575,5.974
2026,0.747,37.445,13.889,29.701,23.307,4.865,7.575,5.933
2027,0.764,37.513,13.839,29.71,23.303,4.865,7.616,5.974
2028,0.787,37.264,13.835,29.691,23.3,4.784,7.535,5.811
2029,0.761,37.367,13.823,29.662,23.3,4.742,7.534,5.85
2030,0.754,37.493,13.796,29.691,23.307,4.905,7.616,5.932
2031,0.744,37.562,13.819,29.691,23.303,4.784,7.576,5.933
2032,0.747,37.217,13.85,29.701,23.296,4.783,7.575,5.852
2033,0.731,37.338,13.886,29.691,23.303,4.783,7.575,5.891
2034,0.728,37.435,13.855,29.691,23.3,4.783,7.535,5.851
2035,0.728,37.446,13.831,29.682,23.3,4.742,7.494,5.81
2036,0.718,37.331,13.831,29.691,23.3,4.783,7.616,5.932
2037,0.721,37.483,13.694,29.72,23.307,4.864,7.657,6.014
2038,0.724,37.629,13.771,29.739,23.314,4.946,7.617,5.974
2039,0.731,37.429,13.811,29.701,23.3,4.825,7.576,5.933
2040,0.715,37.302,13.795,29.701,23.3,4.824,7.575,6.014
2041,0.741,37.425,13.799,29.701,23.303,4.824,7.616,5.974
2042,0.754,37.532,13.784,29.701,23.3,4.865,7.535,5.893
2043,0.764,37.217,13.83,29.691,23.3,4.824,7.575,5.973
2044,0.78,37.319,13.843,29.72,23.307,4.905,7.494,6.055
2045,0.771,37.435,13.862,29.692,23.3,4.906,7.494,5.893
2046,0.767,37.503,13.87,29.682,23.296,4.744,7.453,5.729
2047,0.751,37.101,13.843,29.672,23.286,4.701,7.493,5.85
2048,0.767,37.27,13.788,29.691,23.307,4.863,7.534,5.851
2049,0.78,37.367,13.865,29.701,23.303,4.865,7.494,5.851
2050,0.78,37.464,13.788,29.691,23.3,4.824,7.494,5.851
2051,0.748,37.216,13.823,29.691,23.293,4.783,7.494,5.769
2052,0.738,37.348,13.839,29.691,23.293,4.742,7.453,5.809
2053,0.734,37.455,13.839,29.691,23.296,4.823,7.534,5.891
2054,0.728,37.523,13.831,29.701,23.31,4.865,7.616,5.973
2055,0.747,37.332,13.827,29.73,23.317,4.946,7.657,5.933
2056,0.734,37.464,13.881,29.692,23.3,4.825,7.536,5.852
2057,0.721,37.542,13.812,29.73,23.307,4.824,7.534,5.891
2058,0.702,37.581,13.764,29.701,23.3,4.824,7.616,5.892
2059,0.711,37.246,13.826,29.701,23.303,4.824,7.657,5.892
2060,0.721,37.377,13.8,29.701,23.303,4.946,7.658,5.892
2061,0.724,37.512,13.811,29.71,23.307,4.866,7.617,5.933
2062,0.734,37.533,13.827,29.72,23.3,4.865,7.576,5.852
2063,0.734,37.197,13.846,29.672,23.296,4.784,7.494,5.729
2064,0.734,37.309,13.847,29.672,23.286,4.702,7.412,5.768
2065,0.734,37.406,13.811,29.672,23.296,4.823,7.533,5.809
2066,0.754,37.35,13.85,29.681,23.303,4.824,7.494,5.769
2067,0.741,37.177,13.827,29.691,23.3,4.783,7.494,5.768
2068,0.757,37.29,13.792,29.691,23.296,4.742,7.412,5.768
2069,0.754,37.368,13.873,29.682,23.296,4.742,7.411,5.687
2070,0.761,37.177,13.804,29.672,23.296,4.742,7.452,5.727
2071,0.748,37.29,13.834,29.691,23.303,4.783,7.493,5.768
2072,0.77,37.406,13.792,29.72,23.307,4.905,7.575,5.972
2073,0.783,37.532,13.85,29.72,23.314,4.906,7.575,5.852
2074,0.787,37.063,13.792,29.711,23.307,4.825,7.454,5.81
2075,0.761,37.183,13.842,29.682,23.303,4.905,7.493,5.769
2076,0.748,37.299,13.901,29.691,23.307,4.825,7.453,5.85
2077,0.721,37.397,13.824,29.73,23.3,4.865,7.452,5.81
2078,0.715,37.187,13.799,29.711,23.303,4.824,7.493,5.85
2079,0.711,37.328,13.83,29.701,23.307,4.905,7.534,5.851
2080,0.715,37.426,13.811,29.701,23.307,4.784,7.372,5.769
2081,0.718,37.494,13.819,29.691,23.297,4.742,7.289,5.647
2082,0.715,37.072,13.772,29.662,23.289,4.742,7.288,5.767
2083,0.721,37.222,13.822,29.7,23.303,4.783,7.288,5.768
2084,0.734,37.348,13.803,29.71,23.3,4.742,7.329,5.768
2085,0.738,37.387,13.827,29.682,23.3,4.823,7.289,5.728
2086,0.744,37.148,13.858,29.672,23.296,4.743,7.288,5.809
2087,0.757,37.318,13.812,29.691,23.296,4.742,7.247,5.728
2088,0.767,37.426,13.811,29.672,23.293,4.742,7.328,5.768
2089,0.761,37.436,13.834,29.681,23.303,4.783,7.37,5.891
2090,0.757,37.11,13.807,29.72,23.317,4.946,7.492,5.892
2091,0.754,37.27,13.831,29.701,23.304,4.785,7.412,5.811
2092,0.748,37.31,13.788,29.701,23.3,4.824,7.452,5.81
2093,0.731,37.397,13.819,29.701,23.3,4.783,7.534,5.85
2094,0.738,37.167,13.835,29.691,23.3,4.824,7.575,5.851
2095,0.725,37.299,13.819,29.71,23.307,4.824,7.698,5.891
2096,0.724,37.397,13.819,29.711,23.307,4.865,7.74,5.973
2097,0.721,37.062,13.807,29.72,23.303,4.824,7.821,5.73
2098,0.705,37.106,13.795,29.692,23.296,4.702,7.659,5.768
2099,0.698,37.212,13.83,29.672,23.289,4.782,7.82,5.85
2100,0.701,37.319,13.843,29.691,23.307,4.824,7.944,5.891
2101,0.705,36.984,13.835,29.691,23.3,4.783,7.864,5.851
2102,0.721,37.096,13.796,29.682,23.293,4.783,7.944,5.851
2103,0.708,37.212,13.791,29.691,23.296,4.824,7.905,5.851
2104,0.718,37.271,13.807,29.682,23.296,4.743,7.985,5.891
2105,0.715,37.041,13.827,29.691,23.3,4.742,8.027,5.851
2106,0.724,37.173,13.842,29.701,23.296,4.864,8.149,6.095
2107,0.741,37.319,13.835,29.73,23.321,4.946,8.191,6.056
2108,0.757,37.397,13.784,29.72,23.304,4.825,8.151,5.893
2109,0.761,36.87,13.865,29.682,23.3,4.824,8.11,5.933
2110,0.764,36.999,13.819,29.701,23.303,4.865,8.109,5.892
2111,0.757,37.125,13.823,29.701,23.303,4.784,8.109,5.892
2112,0.738,37.174,13.839,29.701,23.31,4.905,8.191,6.014
2113,0.738,37.021,13.858,29.701,23.307,4.825,8.192,6.015
2114,0.731,37.135,13.882,29.701,23.3,4.783,8.07,5.974
2115,0.731,37.261,13.823,29.701,23.3,4.62,7.987,5.811
2116,0.725,37.272,13.831,29.672,23.289,4.7,7.946,5.85
2117,0.747,37.032,13.78,29.701,23.3,4.782,7.945,5.891
2118,0.757,37.183,13.819,29.691,23.293,4.783,7.945,5.892
2119,0.741,37.271,13.819,29.691,23.3,4.783,7.945,5.892
2120,0.731,37.483,13.827,29.682,23.3,4.742,7.864,5.892
2121,0.721,37.024,13.8,29.701,23.293,4.742,7.822,5.811
2122,0.734,37.135,13.815,29.691,23.3,4.742,7.781,5.891
2123,0.747,37.232,13.803,29.701,23.303,4.864,7.903,6.014
2124,0.77,37.022,13.823,29.73,23.314,4.865,7.985,6.056
2125,0.77,37.097,13.811,29.711,23.307,4.865,7.824,5.975
2126,0.764,37.193,13.842,29.711,23.297,4.784,7.822,5.974
2127,0.764,37.271,13.85,29.701,23.296,4.824,7.822,5.974
2128,0.777,36.869,13.784,29.71,23.303,4.783,7.822,5.974
2129,0.771,37.009,13.881,29.691,23.31,4.864,7.781,5.893
2130,0.77,37.125,13.796,29.701,23.307,4.784,7.862,5.892
2131,0.77,37.222,13.788,29.701,23.303,4.824,7.741,5.973
2132,0.748,36.964,13.807,29.691,23.296,4.783,7.699,5.811
2133,0.741,37.067,13.842,29.672,23.296,4.661,7.658,5.81
2134,0.725,37.193,13.882,29.681,23.3,4.782,7.698,5.932
2135,0.741,37.29,13.827,29.701,23.303,4.824,7.618,5.892
2136,0.738,36.831,13.866,29.691,23.303,4.743,7.617,5.851
2137,0.731,36.951,13.796,29.691,23.3,4.742,7.576,5.851
2138,0.721,37.105,13.795,29.691,23.3,4.661,7.575,5.851
2139,0.715,37.126,13.842,29.691,23.293,4.7,7.575,5.851
2140,0.711,36.848,13.796,29.682,23.303,4.823,7.616,5.973
2141,0.718,37.018,13.791,29.72,23.317,4.946,7.779,6.015
2142,0.741,37.144,13.854,29.73,23.314,4.866,7.618,5.974
2143,0.747,37.165,13.827,29.672,23.3,4.824,7.495,5.974
2144,0.754,36.829,13.815,29.701,23.303,4.824,7.575,5.893
2145,0.757,36.989,13.823,29.701,23.31,4.865,7.616,5.933
2146,0.764,37.077,13.87,29.701,23.3,4.824,7.617,5.933
2147,0.77,37.452,13.819,29.72,23.307,4.783,7.617,5.892
2148,0.77,37.015,13.796,29.701,23.303,4.742,7.617,5.973
2149,0.761,37.135,13.838,29.691,23.3,4.783,7.576,5.852
2150,0.754,37.213,13.819,29.682,23.293,4.702,7.454,5.729
2151,0.738,36.868,13.753,29.681,23.3,4.782,7.493,5.89
2152,0.734,36.903,13.81,29.681,23.307,4.742,7.575,5.892
2153,0.731,37.019,13.862,29.691,23.3,4.783,7.535,5.851
2154,0.728,37.116,13.878,29.682,23.303,4.702,7.453,5.851
2155,0.718,36.752,13.82,29.681,23.29,4.701,7.371,5.81
2156,0.718,36.902,13.881,29.672,23.289,4.701,7.411,5.81
2157,0.711,37.009,13.855,29.701,23.3,4.782,7.574,6.054
2158,0.718,37.135,13.796,29.71,23.317,4.864,7.535,6.015
2159,0.718,37.203,13.881,29.72,23.304,4.784,7.453,5.893
2160,0.689,37.309,13.757,29.701,23.303,4.783,7.412,5.973
2161,0.695,37.445,13.799,29.682,23.3,4.783,7.452,5.893
2162,0.708,37.523,13.772,29.71,23.296,4.824,7.452,5.973
2163,0.718,38.367,13.858,29.72,23.31,4.824,7.452,6.015
2164,0.721,38.51,13.827,29.72,23.31,4.824,7.452,5.934
2165,0.737,38.626,13.811,29.701,23.303,4.783,7.452,5.974
2166,0.744,38.666,13.874,29.682,23.296,4.661,7.29,5.771
2167,0.754,35.751,13.843,29.662,23.289,4.7,7.288,5.931
2168,0.774,35.904,13.788,29.71,23.296,4.742,7.329,5.852
