time,ecg,bvp,gsr,rsp,skt,emg_zygo,emg_coru,emg_trap
0,0.912,36.613,10.089,30.292,22.364,10.082,6.591,12.712
1,0.908,36.421,10.097,30.282,22.367,10.04,6.549,12.628
2,0.925,36.563,10.089,30.301,22.371,10.08,6.712,12.708
3,0.886,36.651,10.109,30.282,22.357,9.918,6.51,12.628
4,0.863,36.709,10.16,30.301,22.371,9.998,6.711,12.708
5,0.846,36.355,10.125,30.272,22.367,9.877,6.591,12.628
6,0.827,36.524,10.121,30.31,22.371,9.916,6.712,12.708
7,0.839,36.641,10.078,30.291,22.367,9.835,6.632,12.75
8,0.781,36.68,10.128,30.301,22.374,9.875,6.712,12.953
9,0.793,36.431,10.09,30.291,22.364,9.794,6.672,13.2
10,0.787,36.611,10.074,30.31,22.371,9.753,6.631,13.568
11,0.777,36.651,10.12,30.272,22.354,9.63,6.59,13.938
12,0.774,36.441,10.14,30.32,22.374,9.751,6.793,14.836
13,0.767,36.4,10.168,30.311,22.371,9.63,6.673,15.292
14,0.767,36.515,10.106,30.291,22.364,9.507,6.713,15.866
15,0.796,36.631,10.027,30.32,22.371,9.506,6.794,16.4
16,0.774,36.258,10.015,30.292,22.364,9.465,6.714,16.649
17,0.764,36.398,10.077,30.31,22.367,9.424,6.794,17.058
18,0.77,36.496,10.117,30.291,22.364,9.342,6.714,17.144
19,0.79,36.602,10.066,30.32,22.367,9.301,6.794,17.307
20,0.79,36.287,10.085,30.301,22.364,9.219,6.755,17.187
21,0.764,36.428,10.132,30.301,22.367,9.178,6.836,17.267
22,0.774,36.534,10.172,30.301,22.36,9.177,6.796,17.186
23,0.787,36.631,10.102,30.32,22.378,9.177,6.877,17.185
24,0.771,36.326,10.05,30.301,22.357,8.933,6.674,16.901
25,0.761,36.495,10.042,30.32,22.374,9.093,6.875,16.898
26,0.731,36.602,10.069,30.32,22.364,8.892,6.755,16.735
27,0.715,36.603,10.101,30.301,22.353,8.849,6.714,16.571
28,0.731,36.287,10.121,30.339,22.374,8.889,6.835,16.488
29,0.76,36.38,10.094,30.301,22.354,8.727,6.755,16.243
30,0.748,36.515,10.128,30.311,22.364,8.807,6.876,16.2
31,0.741,36.526,10.168,30.301,22.364,8.686,6.715,15.834
32,0.721,36.382,10.106,30.32,22.371,8.684,6.754,15.708
33,0.737,36.534,10.074,30.32,22.364,8.644,6.795,15.382
34,0.757,36.631,10.05,30.311,22.371,8.644,6.836,15.338
35,0.757,36.632,10.069,30.33,22.364,8.603,6.796,15.093
36,0.774,36.373,10.093,30.33,22.374,8.765,6.877,15.172
37,0.751,36.448,10.062,30.301,22.357,8.645,6.715,14.726
38,0.761,36.592,10.097,30.339,22.371,8.969,6.957,14.925
39,0.783,36.325,10.105,30.34,22.367,8.891,6.878,14.642
40,0.78,36.274,10.129,30.311,22.36,8.89,6.796,14.355
41,0.751,36.427,10.027,30.339,22.367,9.052,6.877,14.311
42,0.777,36.515,10.065,30.311,22.36,8.932,6.755,14.026
43,0.771,36.257,10.023,30.339,22.367,9.012,6.876,14.023
44,0.741,36.36,10.132,30.321,22.364,8.932,6.837,13.861
45,0.741,36.515,10.09,30.34,22.371,9.012,6.796,13.778
46,0.734,36.564,10.148,30.33,22.36,8.891,6.877,13.777
47,0.751,36.267,10.098,30.349,22.367,8.89,6.755,13.696
48,0.741,36.389,10.097,30.33,22.367,8.89,6.754,13.573
49,0.738,36.534,10.167,30.359,22.374,8.971,6.876,13.694
50,0.731,36.574,10.032,30.321,22.361,8.85,6.674,13.451
51,0.741,36.277,10.132,30.359,22.374,9.174,6.916,13.489
52,0.734,36.399,10.055,30.349,22.371,9.34,6.878,13.286
53,0.741,36.486,10.136,30.321,22.364,9.708,6.755,13.121
54,0.734,36.554,10.098,30.359,22.371,10.24,6.836,13.201
55,0.747,36.248,10.16,30.311,22.36,10.774,6.755,12.999
56,0.754,36.408,10.028,30.359,22.364,11.551,6.836,13.078
57,0.744,36.505,10.085,30.321,22.364,12.047,6.755,12.957
58,0.767,36.554,10.175,30.34,22.371,12.906,6.795,12.956
59,0.761,36.171,10.055,30.34,22.364,13.402,6.755,12.915
60,0.774,36.302,10.108,30.349,22.367,13.895,6.795,12.792
61,0.771,36.408,10.047,30.34,22.357,14.225,6.714,12.669
62,0.774,36.458,10.163,30.359,22.364,14.513,6.794,12.587
63,0.738,36.324,10.117,30.311,22.35,14.597,6.633,12.383
64,0.728,36.485,10.129,30.359,22.374,14.964,6.875,12.543
65,0.741,36.545,10.043,30.349,22.364,14.887,6.715,12.464
66,0.728,36.305,10.034,30.34,22.367,14.845,6.754,12.422
67,0.738,36.236,10.112,30.359,22.371,14.885,6.754,12.422
68,0.734,36.341,10.082,30.34,22.364,14.682,6.592,12.34
69,0.741,36.495,10.117,30.359,22.371,14.68,6.671,12.421
70,0.744,36.267,10.051,30.34,22.36,14.477,6.631,12.259
71,0.721,36.399,10.128,30.359,22.364,14.434,6.753,12.339
72,0.715,36.515,10.113,30.359,22.36,14.19,6.632,12.136
73,0.747,36.602,10.105,30.359,22.36,14.025,6.672,12.215
74,0.747,36.018,10.093,30.349,22.367,13.901,6.631,12.216
75,0.757,36.195,10.093,30.378,22.371,13.697,6.712,12.216
76,0.735,36.264,10.124,30.321,22.357,13.37,6.469,12.054
77,0.712,36.36,10.14,30.368,22.374,13.285,6.67,12.174
78,0.708,36.198,10.133,30.388,22.364,13.203,6.631,12.135
79,0.731,36.302,10.055,30.359,22.36,12.917,6.55,12.012
80,0.747,36.437,10.136,30.378,22.374,12.874,6.63,11.97
81,0.738,36.448,10.09,30.359,22.361,12.629,6.509,11.848
82,0.744,36.228,10.058,30.359,22.371,12.627,6.549,11.887
83,0.725,36.36,10.077,30.388,22.364,12.464,6.508,11.725
84,0.741,36.447,10.038,30.359,22.367,12.422,6.549,11.886
85,0.754,36.506,10.104,30.349,22.36,12.34,6.508,11.888
86,0.757,36.161,10.101,30.369,22.374,12.339,6.549,11.969
87,0.757,36.282,10.078,30.359,22.361,12.217,6.468,11.97
88,0.79,36.456,10.058,30.417,22.385,12.298,6.629,12.092
89,0.787,36.439,10.112,30.35,22.361,12.217,6.509,11.971
90,0.813,36.151,10.105,30.369,22.367,12.298,6.549,12.011
91,0.855,36.282,10.101,30.397,22.374,12.38,6.671,12.011
92,0.856,36.36,10.046,30.379,22.357,12.381,6.428,11.97
93,0.914,36.275,10.108,30.388,22.374,12.543,6.629,12.011
94,0.967,36.236,10.023,30.369,22.357,12.504,6.509,11.889
95,0.984,36.36,10.1,30.378,22.367,12.544,6.549,11.928
96,1.036,36.467,10.132,30.369,22.364,12.586,6.59,11.929
97,1.066,36.132,10.094,30.388,22.364,12.505,6.549,12.01
98,1.089,36.244,10.093,30.388,22.371,12.544,6.59,11.93
99,1.17,36.379,10.144,30.398,22.374,12.504,6.671,11.929
100,1.162,36.428,10.113,30.35,22.35,12.26,6.55,11.766
101,1.181,36.074,10.066,30.388,22.374,12.379,6.671,11.927
102,1.246,36.205,10.144,30.398,22.367,12.218,6.631,11.929
103,1.247,36.312,10.102,30.379,22.36,12.094,6.55,11.848
104,1.273,36.399,10.199,30.398,22.374,12.052,6.671,11.969
105,1.306,36.055,10.118,30.379,22.354,11.889,6.631,11.889
106,1.316,36.214,10.051,30.407,22.371,11.806,6.672,12.01
107,1.319,36.34,10.058,30.379,22.367,11.724,6.631,12.011
108,1.3,36.409,10.073,30.407,22.371,11.683,6.672,12.052
109,1.322,36.093,10.089,30.398,22.364,11.52,6.591,12.174
110,1.313,36.253,10.062,30.398,22.367,11.315,6.631,12.297
111,1.342,36.322,10.093,30.388,22.36,11.232,6.59,12.421
112,1.41,36.409,10.082,30.455,22.378,11.271,6.753,12.747
113,1.463,36.179,10.187,30.398,22.364,10.947,6.673,12.872
114,1.532,36.321,10.141,30.398,22.367,10.943,6.591,13.199
115,1.601,36.437,10.109,30.427,22.364,10.781,6.671,13.608
116,1.631,36.429,10.027,30.408,22.36,10.616,6.55,13.735
117,1.69,36.055,10.12,30.427,22.371,10.615,6.712,14.102
118,1.7,36.157,10.097,30.417,22.36,10.411,6.551,14.268
119,1.687,36.302,10.085,30.503,22.364,10.409,6.63,14.595
120,1.635,36.188,10.085,30.399,22.367,10.369,6.468,14.639
121,1.576,36.158,10.093,30.417,22.371,10.328,6.629,14.68
122,1.504,36.273,10.16,30.408,22.371,10.408,6.631,14.68
123,1.344,36.37,10.137,30.417,22.371,10.491,6.55,14.884
124,1.183,35.949,10.125,30.388,22.357,10.573,6.508,14.886
125,1.064,36.136,10.101,30.474,22.378,10.858,6.63,15.374
126,0.91,36.215,10.093,30.437,22.367,10.902,6.55,15.582
127,0.824,36.302,10.097,30.417,22.36,10.983,6.508,15.665
128,0.738,36.054,10.05,30.427,22.367,11.228,6.589,15.869
129,0.663,36.185,10.105,30.417,22.364,11.149,6.468,15.993
130,0.607,36.321,10.066,30.446,22.371,11.352,6.548,16.239
131,0.567,36.399,10.124,30.427,22.364,11.313,6.59,16.078
132,0.524,36.007,10.097,30.436,22.367,11.394,6.549,16.239
133,0.518,36.118,10.085,30.437,22.364,11.476,6.468,16.16
134,0.524,36.244,10.007,30.446,22.371,11.436,6.589,16.078
135,0.498,36.312,10.046,30.427,22.367,11.436,6.509,15.955
136,0.517,36.006,10.108,30.456,22.381,11.68,6.711,15.994
137,0.478,36.108,10.078,30.418,22.357,11.357,6.429,15.751
138,0.465,36.253,10.117,30.465,22.367,11.476,6.588,15.829
139,0.452,36.283,10.074,30.466,22.367,11.477,6.631,15.749
140,0.458,35.986,10.136,30.427,22.364,11.355,6.468,15.504
141,0.442,36.156,10.117,30.456,22.367,11.476,6.629,15.746
142,0.478,36.225,10.078,30.437,22.36,11.314,6.468,15.707
143,0.488,36.274,10.074,30.475,22.371,11.313,6.548,15.829
144,0.488,36.092,10.054,30.446,22.364,11.191,6.508,15.79
145,0.498,36.243,10.108,30.475,22.367,11.23,6.508,15.87
146,0.53,36.341,10.125,30.446,22.364,11.149,6.467,15.871
147,0.537,36.179,10.09,30.456,22.364,11.067,6.507,15.953
148,0.573,36.052,10.039,30.427,22.36,10.985,6.386,15.791
149,0.629,36.253,10.132,30.503,22.378,11.228,6.547,15.911
150,0.642,36.293,10.109,30.456,22.361,11.068,6.508,15.872
151,0.665,35.977,10.086,30.475,22.364,11.026,6.549,15.831
152,0.704,36.098,10.089,30.475,22.367,10.985,6.468,15.83
153,0.705,36.176,10.093,30.456,22.357,10.903,6.507,15.627
154,0.728,36.273,10.105,30.475,22.371,10.902,6.508,15.584
155,0.725,36.005,10.086,30.456,22.364,10.739,6.427,15.462
156,0.767,36.127,10.16,30.475,22.364,10.779,6.548,15.501
157,0.777,36.273,10.102,30.475,22.364,10.616,6.468,15.258
158,0.787,36.37,10.089,30.475,22.364,10.574,6.507,15.255
159,0.8,35.92,10.105,30.485,22.367,10.533,6.549,15.093
160,0.794,36.059,10.082,30.475,22.367,10.41,6.59,14.969
161,0.784,36.157,10.042,30.475,22.357,10.247,6.509,14.724
162,0.832,36.263,10.089,30.533,22.378,10.367,6.67,14.762
163,0.787,36.149,10.074,30.457,22.364,10.043,6.509,14.478
164,0.793,36.282,10.128,30.485,22.364,9.999,6.549,14.312
165,0.787,36.399,10.129,30.494,22.371,9.999,6.59,14.311
166,0.758,36.429,10.113,30.495,22.36,9.795,6.549,14.108
167,0.757,35.892,10.117,30.495,22.364,9.753,6.63,14.105
168,0.754,36.002,10.129,30.475,22.36,9.59,6.59,13.983
169,0.754,36.108,10.129,30.504,22.367,9.507,6.631,13.982
170,0.754,36.157,10.066,30.495,22.364,9.465,6.509,13.86
171,0.761,35.995,10.128,30.504,22.367,9.383,6.63,13.818
172,0.748,36.127,10.066,30.504,22.364,9.22,6.55,13.737
173,0.764,36.234,10.136,30.514,22.378,9.259,6.549,13.695
174,0.764,36.063,10.113,30.476,22.35,9.015,6.468,13.492
175,0.787,35.965,10.062,30.533,22.378,9.054,6.711,13.693
176,0.806,36.07,10.093,30.505,22.371,8.932,6.632,13.532
177,0.813,36.157,10.031,30.514,22.36,8.809,6.509,13.449
178,0.81,35.947,10.12,30.524,22.371,8.93,6.549,13.489
179,0.774,36.041,10.035,30.504,22.364,8.687,6.508,13.327
180,0.79,36.176,10.089,30.523,22.367,8.766,6.589,13.284
181,0.797,36.263,10.074,30.504,22.357,8.645,6.549,13.203
182,0.794,36.188,10.144,30.523,22.364,8.644,6.549,13.202
183,0.78,36.34,10.086,30.533,22.367,8.644,6.549,13.121
184,0.806,36.466,10.058,30.524,22.364,8.603,6.508,13.079
185,0.803,36.516,10.058,30.514,22.36,8.521,6.467,12.997
186,0.803,35.682,10.042,30.543,22.378,8.683,6.629,13.078
187,0.787,35.789,10.143,30.514,22.361,8.481,6.509,12.835
188,0.774,35.924,9.973,30.543,22.364,8.56,6.508,12.954
189,0.787,35.992,10.1,30.543,22.371,8.48,6.549,12.874
190,0.774,36.127,10.086,30.514,22.36,8.398,6.427,12.711
191,0.764,36.301,10.148,30.543,22.371,8.397,6.548,12.75
192,0.767,36.389,10.098,30.543,22.364,8.356,6.468,12.547
193,0.777,36.476,10.027,30.572,22.371,8.397,6.548,12.586
194,0.784,35.749,10.104,30.543,22.367,8.397,6.468,12.505
195,0.81,35.895,10.097,30.562,22.364,8.438,6.467,12.544
196,0.829,35.992,10.132,30.562,22.364,8.479,6.467,12.464
197,0.843,36.022,10.098,30.543,22.364,8.52,6.507,12.381
198,0.804,35.869,10.058,30.533,22.353,8.439,6.427,12.218
199,0.836,36.059,10.101,30.591,22.381,8.723,6.67,12.379
200,0.813,36.109,10.136,30.553,22.364,8.685,6.509,12.137
201,0.803,36.033,10.059,30.562,22.36,8.847,6.386,12.175
202,0.826,35.859,10.093,30.61,22.367,8.971,6.466,12.216
203,0.774,35.944,10.046,30.563,22.36,9.013,6.386,12.135
204,0.797,36.079,10.085,30.582,22.371,9.216,6.466,12.256
205,0.803,35.764,10.074,30.572,22.36,9.096,6.345,12.217
206,0.807,35.857,10.175,30.572,22.374,9.176,6.506,12.298
207,0.803,35.963,10.125,30.562,22.361,9.259,6.386,12.298
208,0.794,36.079,10.09,30.582,22.367,9.3,6.466,12.339
209,0.803,35.783,10.144,30.582,22.364,9.301,6.386,12.299
210,0.81,35.933,10.09,30.601,22.374,9.341,6.466,12.38
211,0.787,36.012,10.078,30.544,22.357,9.26,6.345,12.218
212,0.813,36.128,10.035,30.61,22.381,9.463,6.547,12.379
213,0.82,35.831,10.093,30.601,22.368,9.383,6.468,12.177
214,0.83,35.943,10.113,30.572,22.36,9.261,6.345,12.175
215,0.852,36.098,10.211,30.601,22.367,9.341,6.466,12.175
216,0.823,36.148,10.141,30.591,22.357,9.26,6.345,12.094
217,0.839,35.736,10.098,30.591,22.367,9.3,6.466,12.093
218,0.823,35.866,10.14,30.582,22.36,9.26,6.467,12.093
219,0.839,35.982,10.082,30.61,22.364,9.259,6.467,12.052
220,0.836,36.06,10.113,30.611,22.371,9.3,6.467,11.93
221,0.849,35.898,10.031,30.611,22.364,9.301,6.426,11.929
222,0.849,36.021,10.104,30.582,22.36,9.301,6.385,11.888
223,0.853,36.176,10.089,30.63,22.378,9.544,6.588,12.091
224,0.827,36.139,10.163,30.601,22.361,9.344,6.468,11.808
225,0.846,35.774,10.11,30.611,22.364,9.464,6.467,11.928
226,0.83,35.914,10.109,30.62,22.367,9.587,6.548,11.97
227,0.82,36.002,10.093,30.592,22.357,9.547,6.468,11.929
228,0.823,36.003,10.105,30.62,22.364,9.71,6.548,12.051
229,0.82,35.801,10.109,30.63,22.36,9.792,6.549,11.971
230,0.82,35.924,10.074,30.63,22.371,10.037,6.508,12.092
231,0.833,36.012,10.132,30.611,22.367,10.08,6.549,11.971
232,0.846,35.83,10.109,30.62,22.367,10.243,6.508,12.051
233,0.84,35.896,10.132,30.62,22.371,10.326,6.467,12.011
234,0.849,36.05,10.082,30.63,22.371,10.449,6.507,11.97
235,0.84,36.09,10.093,30.649,22.354,10.288,6.427,11.767
236,0.862,35.572,10.101,30.64,22.374,10.611,6.629,11.968
237,0.869,35.682,10.121,30.621,22.367,10.411,6.468,11.889
238,0.853,35.789,10.066,30.62,22.357,10.45,6.467,11.888
239,0.853,35.905,10.066,30.64,22.371,10.45,6.589,11.888
240,0.859,35.877,10.101,30.63,22.364,10.288,6.427,11.603
241,0.882,36.03,10.074,30.649,22.374,10.408,6.548,11.763
242,0.879,36.109,10.124,30.649,22.367,10.165,6.468,11.642
243,0.872,36.205,10.027,30.649,22.367,10.366,6.507,11.723
244,0.872,35.794,10.081,30.669,22.364,10.206,6.467,11.683
245,0.869,35.905,10.113,30.65,22.364,10.245,6.467,11.764
246,0.859,36.021,10.082,30.64,22.364,10.204,6.507,11.846
247,0.869,36.08,10.109,30.669,22.367,10.285,6.508,11.969
248,0.843,35.793,10.039,30.63,22.357,10.001,6.305,12.092
249,0.839,35.962,10.081,30.668,22.374,10.243,6.587,12.662
250,0.839,36.05,10.089,30.669,22.364,10.001,6.468,13.034
251,0.849,36.08,10.117,30.65,22.36,9.999,6.507,13.607
252,0.859,35.745,10.051,30.678,22.374,10.08,6.467,14.385
253,0.862,35.856,10.101,30.65,22.357,9.878,6.345,14.84
254,0.872,35.973,10.086,30.688,22.371,9.916,6.547,15.658
255,0.866,36.031,10.042,30.65,22.367,9.876,6.386,16.113
256,0.879,35.85,10.159,30.678,22.367,9.876,6.466,16.524
257,0.885,35.953,9.977,30.688,22.367,9.916,6.386,16.772
258,0.895,36.069,10.119,30.669,22.364,9.957,6.425,17.019
259,0.899,35.668,10.125,30.678,22.364,9.998,6.426,16.981
260,0.908,35.74,10.152,30.678,22.367,10.202,6.466,17.102
261,0.882,35.837,9.988,30.659,22.357,10.082,6.304,16.941
262,0.928,35.972,10.096,30.717,22.381,10.406,6.506,17.061
263,0.905,35.744,10.128,30.688,22.368,10.409,6.467,16.818
264,0.889,35.866,10.09,30.688,22.364,10.369,6.386,16.694
265,0.895,36.001,10.163,30.688,22.374,10.49,6.385,16.693
266,0.879,36.051,10.047,30.669,22.357,10.491,6.303,16.449
267,0.882,35.591,10.112,30.698,22.367,10.614,6.384,16.487
268,0.882,35.701,10.078,30.679,22.36,10.493,6.344,16.243
269,0.895,35.837,10.167,30.698,22.364,10.573,6.343,16.2
270,0.873,35.915,10.024,30.707,22.36,10.492,6.343,15.915
271,0.869,35.781,10.081,30.708,22.374,10.614,6.343,15.75
272,0.892,35.905,10.081,30.708,22.371,10.411,6.303,15.504
273,0.908,36.031,10.117,30.727,22.374,10.491,6.425,15.38
274,0.892,36.051,10.152,30.689,22.357,10.207,6.222,15.013
275,0.905,35.629,10.16,30.736,22.367,10.326,6.464,15.05
276,0.915,35.788,10.137,30.727,22.364,10.246,6.386,14.928
277,0.905,35.876,10.031,30.727,22.367,10.123,6.303,14.724
278,0.921,35.925,10.132,30.746,22.371,10.122,6.425,14.64
279,0.925,35.686,10.043,30.727,22.364,10.0,6.304,14.314
280,0.938,35.837,10.112,30.736,22.367,10.08,6.425,14.27
281,0.932,35.924,10.113,30.727,22.357,10.04,6.304,14.107
282,0.941,36.04,10.101,30.736,22.364,10.162,6.384,13.983
283,0.919,35.668,10.16,30.737,22.367,10.082,6.466,13.779
284,0.922,35.788,10.117,30.727,22.36,10.081,6.426,13.777
285,0.931,35.886,10.09,30.746,22.36,10.081,6.385,13.736
286,0.938,35.714,10.058,30.775,22.374,10.243,6.507,13.858
287,0.915,35.731,10.093,30.727,22.357,10.042,6.305,13.656
288,0.902,35.875,10.132,30.746,22.371,10.121,6.465,13.694
289,0.902,35.992,10.059,30.765,22.374,10.122,6.426,13.695
290,0.886,35.552,10.093,30.727,22.357,10.041,6.304,13.573
291,0.902,35.72,10.07,30.756,22.364,10.162,6.425,13.612
292,0.895,35.818,10.152,30.756,22.357,10.041,6.344,13.369
293,0.921,35.895,10.09,30.766,22.367,10.04,6.425,13.366
294,0.938,35.628,10.07,30.775,22.364,10.04,6.304,13.244
295,0.948,35.769,10.07,30.756,22.367,10.04,6.425,13.162
296,0.938,35.885,10.097,30.775,22.364,9.918,6.385,13.039
297,0.951,35.944,10.167,30.775,22.374,9.957,6.344,12.956
298,0.954,35.638,10.063,30.775,22.364,9.957,6.343,12.874
299,0.964,35.855,10.136,30.814,22.381,10.08,6.506,12.751
300,0.951,35.905,10.105,30.737,22.361,9.918,6.345,12.506
301,0.967,35.954,10.152,30.784,22.367,9.998,6.425,12.463
302,0.961,35.648,10.106,30.795,22.378,10.039,6.385,12.463
303,0.945,35.74,10.05,30.785,22.361,9.918,6.263,12.259
304,0.961,35.895,10.023,30.823,22.367,10.079,6.424,12.339
305,0.961,35.925,10.096,30.766,22.357,9.918,6.263,12.136
306,0.935,35.647,10.07,30.804,22.371,9.957,6.384,12.175
307,0.928,35.759,10.144,30.795,22.36,9.957,6.303,12.135
308,0.925,35.876,10.078,30.814,22.364,9.876,6.302,12.093
309,0.944,36.126,10.105,30.776,22.36,9.835,6.302,12.093
310,0.958,35.803,10.175,30.804,22.364,9.753,6.343,11.971
311,0.925,35.876,10.11,30.766,22.353,9.59,6.14,11.889
312,0.935,36.011,10.066,30.833,22.378,9.791,6.341,11.928
313,0.951,35.734,10.034,30.805,22.367,9.631,6.303,11.888
314,0.974,35.78,10.05,30.795,22.364,9.588,6.221,11.806
315,0.964,35.905,10.023,30.814,22.371,9.71,6.342,11.806
316,0.961,35.983,10.132,30.804,22.36,9.63,6.221,11.806
317,0.958,35.715,10.027,30.823,22.367,9.629,6.302,11.887
318,0.961,35.837,10.096,30.805,22.353,9.588,6.221,11.685
319,0.974,35.953,10.113,30.843,22.371,9.629,6.342,11.845
320,0.984,36.031,10.09,30.814,22.364,9.629,6.303,11.725
321,0.987,35.687,10.042,30.843,22.367,9.588,6.302,11.723
322,0.984,35.846,10.054,30.814,22.36,9.669,6.262,11.683
323,0.961,35.972,10.089,30.824,22.367,9.67,6.302,11.804
324,0.945,35.993,10.05,30.805,22.35,9.426,6.18,11.602
325,0.964,35.897,10.159,30.843,22.371,9.627,6.423,11.722
326,0.951,36.011,10.117,30.833,22.367,9.548,6.304,11.723
327,0.932,36.118,10.113,30.824,22.36,9.384,6.221,11.683
328,0.938,36.186,10.14,30.843,22.367,9.382,6.342,11.723
329,0.935,35.803,10.113,30.805,22.357,9.261,6.181,11.683
330,0.931,35.982,10.074,30.843,22.367,9.259,6.301,11.723
331,0.922,36.07,10.062,30.833,22.36,9.219,6.18,11.683
332,0.938,36.119,10.112,30.853,22.367,9.178,6.261,11.764
333,0.951,36.196,10.062,30.843,22.36,9.096,6.262,11.724
334,0.951,36.321,10.151,30.833,22.367,9.014,6.221,11.764
335,0.951,36.418,10.125,30.843,22.36,9.054,6.22,11.724
336,0.971,36.764,10.125,30.901,22.381,9.257,6.383,11.886
337,0.951,36.078,10.058,30.834,22.361,8.975,6.141,11.685
338,0.958,36.234,10.101,30.862,22.364,9.094,6.301,11.886
339,0.974,36.341,10.097,30.862,22.367,9.014,6.343,11.969
340,0.974,36.083,10.046,30.834,22.357,8.891,6.262,12.092
341,0.984,36.147,10.104,30.881,22.371,9.012,6.343,12.622
342,0.968,36.215,10.105,30.853,22.357,8.85,6.221,13.115
343,0.961,36.34,10.14,30.872,22.367,8.93,6.342,13.811
344,0.945,36.208,10.125,30.853,22.367,8.85,6.262,14.509
345,0.961,36.35,10.066,30.872,22.367,8.767,6.343,15.573
346,0.955,36.486,10.093,30.882,22.364,8.726,6.221,16.356
347,0.954,36.573,10.121,30.882,22.371,8.726,6.383,17.137
348,0.938,36.095,10.144,30.824,22.354,8.685,6.263,17.592
349,0.974,36.282,10.113,30.91,22.374,8.807,6.465,18.247
350,0.955,36.399,10.117,30.882,22.361,8.686,6.426,18.456
351,0.954,36.448,10.105,30.872,22.364,8.684,6.385,18.662
352,0.954,36.381,10.191,30.882,22.374,8.725,6.466,18.705
353,0.948,36.505,10.09,30.863,22.354,8.726,6.304,18.583
354,0.974,36.641,10.085,30.882,22.367,8.766,6.384,18.541
355,0.964,36.661,10.066,30.853,22.353,8.645,6.303,18.297
356,0.987,36.403,10.034,30.862,22.364,8.806,6.425,18.213
357,0.981,36.515,10.116,30.872,22.364,8.726,6.385,17.928
358,0.994,36.66,10.0,30.92,22.371,8.766,6.425,17.843
359,0.987,36.69,10.112,30.892,22.364,8.726,6.466,17.517
360,1.0,36.479,10.117,30.872,22.371,8.766,6.345,17.189
361,0.984,36.573,10.129,30.863,22.354,8.685,6.303,16.86
362,1.013,36.728,10.086,30.92,22.374,8.888,6.547,16.857
363,0.997,37.094,10.117,30.92,22.364,8.727,6.386,16.572
364,0.997,36.618,10.07,30.882,22.371,8.726,6.344,16.325
365,0.987,36.757,10.101,30.891,22.374,8.807,6.425,16.282
366,0.968,36.835,10.058,30.863,22.354,8.726,6.385,15.916
367,0.984,36.74,10.105,30.891,22.371,8.888,6.466,15.872
368,0.965,36.787,10.023,30.882,22.36,8.809,6.345,15.627
369,0.974,36.941,10.081,30.882,22.364,8.889,6.384,15.503
370,0.964,37.019,10.109,30.891,22.367,8.93,6.344,15.38
371,0.968,36.607,10.062,30.901,22.367,9.053,6.384,15.175
372,0.955,36.728,10.105,30.892,22.364,9.095,6.425,14.97
373,0.997,36.902,10.113,30.93,22.374,9.298,6.507,14.846
374,0.987,36.913,10.144,30.863,22.354,9.26,6.305,14.479
375,0.997,36.721,10.129,30.92,22.367,9.585,6.425,14.434
376,1.004,36.863,10.168,30.92,22.371,9.588,6.426,14.312
377,0.997,36.961,10.071,30.901,22.357,9.588,6.344,14.108
378,1.01,37.058,10.07,30.92,22.367,9.751,6.466,14.024
379,0.997,36.704,10.066,30.901,22.364,9.671,6.345,13.779
380,1.01,36.873,10.081,30.92,22.374,9.792,6.466,13.777
381,1.001,36.942,10.081,30.892,22.364,9.753,6.345,13.574
382,1.017,37.038,10.042,30.901,22.367,9.752,6.425,13.49
383,1.007,37.499,10.112,30.901,22.364,9.752,6.385,13.367
384,0.997,37.619,10.097,30.911,22.364,9.712,6.385,13.407
385,0.987,37.697,10.152,30.901,22.357,9.792,6.385,13.245
386,1.004,37.765,10.039,30.939,22.378,9.996,6.507,13.324
387,0.981,36.548,10.061,30.902,22.357,9.633,6.345,13.081
388,0.968,36.679,10.077,30.92,22.367,9.71,6.384,13.16
389,0.974,36.796,10.136,30.92,22.374,9.711,6.466,13.08
390,0.958,37.113,10.062,30.901,22.364,9.589,6.386,12.916
391,0.964,37.069,10.097,30.939,22.364,9.629,6.425,12.996
392,0.958,37.164,10.101,30.892,22.357,9.548,6.426,12.834
393,0.968,37.261,10.152,30.92,22.367,9.547,6.507,12.751
394,0.984,36.907,10.207,30.92,22.364,9.466,6.467,12.547
395,0.991,36.894,10.145,30.949,22.364,9.383,6.467,12.626
396,0.997,37.028,10.141,30.921,22.367,9.423,6.507,12.464
397,1.004,37.135,10.078,30.94,22.367,9.383,6.427,12.422
398,0.987,36.868,10.167,30.911,22.353,9.139,6.344,12.218
399,1.017,37.057,10.078,30.959,22.385,9.38,6.547,12.338
400,1.007,37.154,10.081,30.93,22.368,9.179,6.427,12.136
401,1.001,37.213,10.132,30.93,22.357,9.177,6.344,12.012
402,1.017,36.887,10.144,30.94,22.367,9.259,6.425,12.092
403,0.984,36.999,10.129,30.921,22.357,9.178,6.344,11.971
404,0.968,37.125,10.078,30.949,22.367,9.259,6.425,12.092
405,0.955,37.184,10.042,30.94,22.36,9.3,6.344,11.971
406,0.961,36.973,10.034,30.94,22.367,9.301,6.384,12.011
407,0.964,37.096,10.093,30.94,22.364,9.301,6.425,12.011
408,0.951,37.184,10.07,30.949,22.367,9.382,6.385,12.092
409,0.951,37.252,10.077,30.95,22.364,9.586,6.385,12.052
410,0.954,36.955,10.101,30.969,22.371,9.832,6.425,12.052
411,0.941,37.067,10.097,30.931,22.36,9.916,6.263,11.93
412,0.948,37.212,10.136,30.988,22.374,10.364,6.505,12.091
413,0.961,37.233,10.035,30.959,22.367,10.49,6.386,11.971
414,0.951,36.926,10.05,30.95,22.367,10.654,6.344,11.848
415,0.958,37.057,10.023,30.969,22.367,10.981,6.466,11.969
416,0.958,37.135,10.081,30.95,22.353,11.066,6.345,11.807
417,0.977,37.194,10.085,30.959,22.367,11.351,6.506,11.887
418,0.971,36.945,10.117,30.959,22.357,11.476,6.386,11.806
419,0.977,37.096,10.117,30.959,22.367,11.558,6.466,11.887
420,0.971,37.193,10.144,30.969,22.364,11.64,6.467,11.725
421,0.984,37.05,10.133,30.969,22.367,11.723,6.507,11.764
422,0.971,37.078,10.07,30.969,22.364,11.723,6.386,11.764
423,0.968,37.212,10.12,30.988,22.371,11.723,6.507,11.764
424,0.945,37.252,10.031,30.95,22.354,11.601,6.386,11.521
425,0.961,36.897,10.1,30.997,22.381,11.763,6.588,11.762
426,0.938,36.99,10.082,30.988,22.371,11.724,6.509,11.642
427,0.938,37.096,10.07,30.969,22.367,11.52,6.508,11.641
428,0.948,37.203,10.093,30.988,22.367,11.599,6.549,11.723
429,0.935,36.945,10.074,30.959,22.367,11.397,6.549,11.561
430,0.938,37.096,10.148,30.998,22.371,11.476,6.63,11.762
431,0.938,37.212,10.055,30.988,22.36,11.233,6.509,11.521
432,0.922,37.271,10.112,31.007,22.371,11.312,6.67,11.599
433,0.961,36.811,10.062,30.998,22.36,11.15,6.55,11.56
434,0.951,36.941,10.093,30.988,22.367,11.149,6.63,11.6
435,0.941,37.048,10.05,30.979,22.367,11.067,6.509,11.438
436,0.987,37.135,10.175,31.026,22.378,11.148,6.711,11.68
437,0.965,36.896,10.043,30.989,22.361,10.904,6.469,11.479
438,0.99,37.047,10.073,31.017,22.367,10.983,6.629,11.599
439,0.991,37.145,10.167,31.027,22.371,10.944,6.631,11.641
440,0.994,37.155,10.074,30.989,22.357,10.821,6.509,11.438
441,0.987,36.906,10.105,30.998,22.371,10.901,6.508,11.599
442,0.991,36.999,10.054,30.998,22.357,10.78,6.589,11.6
443,0.981,37.135,10.151,31.008,22.364,10.82,6.631,11.722
444,0.971,37.146,10.102,30.998,22.364,10.779,6.59,11.683
445,0.974,36.954,10.183,31.008,22.371,10.82,6.631,11.886
446,0.974,37.057,10.032,31.008,22.364,10.901,6.468,11.928
447,0.968,37.174,10.085,31.017,22.367,10.983,6.548,12.051
448,0.951,36.868,10.148,31.008,22.357,10.984,6.468,11.971
449,0.974,36.865,10.129,31.056,22.381,11.35,6.67,12.214
450,0.955,36.98,10.086,31.037,22.361,11.232,6.509,12.094
451,0.958,37.077,10.031,31.037,22.367,11.475,6.589,12.134
452,0.964,36.877,10.108,31.046,22.371,11.558,6.631,12.053
453,0.961,36.97,10.117,31.018,22.367,11.478,6.468,11.971
454,0.977,37.106,10.175,31.036,22.371,11.68,6.548,12.011
455,0.981,37.155,10.102,31.037,22.364,11.642,6.427,11.93
456,0.994,36.714,10.125,31.037,22.367,11.682,6.507,11.929
457,1.004,36.844,10.07,31.037,22.364,11.642,6.467,11.929
458,1.007,36.951,10.128,31.037,22.367,11.641,6.548,11.97
459,1.017,37.029,10.016,31.056,22.367,11.601,6.508,11.807
460,1.023,36.675,10.042,31.037,22.367,11.56,6.549,12.009
461,1.01,36.786,10.089,31.037,22.367,11.519,6.468,12.377
462,1.03,36.922,10.109,31.085,22.381,11.64,6.629,13.072
463,0.998,36.942,10.132,31.018,22.361,11.397,6.387,13.526
464,1.0,36.846,10.094,31.056,22.371,11.517,6.466,14.588
465,0.997,36.989,10.121,31.056,22.371,11.477,6.507,15.493
466,0.991,37.067,10.074,31.037,22.36,11.314,6.305,16.396
467,0.994,37.126,10.116,31.056,22.374,11.353,6.506,17.3
468,0.981,36.637,10.129,31.037,22.364,11.191,6.345,18.0
469,0.994,36.795,10.09,31.075,22.371,11.108,6.466,18.617
470,0.974,36.902,10.109,31.056,22.364,11.026,6.426,18.907
471,0.987,36.923,10.129,31.075,22.371,11.025,6.385,19.154
472,0.997,36.789,10.113,31.056,22.367,10.863,6.507,19.197
473,0.994,36.874,10.019,31.094,22.364,10.78,6.427,19.198
474,1.004,36.999,10.061,31.056,22.36,10.657,6.426,19.157
475,1.02,36.77,10.081,31.094,22.378,10.778,6.67,19.116
476,1.014,36.653,10.062,31.047,22.357,10.494,6.388,18.709
477,1.017,36.786,10.081,31.075,22.367,10.491,6.547,18.624
478,1.017,36.912,10.105,31.085,22.371,10.41,6.508,18.298
479,1.014,36.674,10.078,31.037,22.364,10.247,6.467,17.928
480,1.03,36.825,10.113,31.075,22.371,10.204,6.507,17.803
481,1.02,36.903,10.117,31.056,22.36,10.041,6.467,17.395
482,1.027,37.019,10.054,31.085,22.371,9.958,6.467,17.228
483,1.014,36.579,10.097,31.056,22.367,9.876,6.426,16.901
484,1.004,36.718,10.07,31.085,22.364,9.876,6.466,16.695
485,1.007,36.835,10.12,31.075,22.36,9.794,6.467,16.489
486,1.01,36.912,10.066,31.095,22.367,9.712,6.507,16.243
487,1.007,36.568,10.077,31.076,22.367,9.63,6.467,16.038
488,1.014,36.785,10.054,31.123,22.374,9.751,6.629,15.954
489,0.978,36.854,10.136,31.076,22.364,9.468,6.509,15.547
490,0.977,36.913,10.098,31.095,22.364,9.505,6.63,15.502
491,0.987,36.635,10.089,31.104,22.371,9.587,6.55,15.38
492,0.971,36.747,10.117,31.104,22.36,9.385,6.508,15.094
493,1.0,36.873,10.07,31.124,22.367,9.545,6.549,15.091
494,1.004,36.874,10.109,31.095,22.36,9.344,6.508,14.847
495,1.007,36.644,10.09,31.095,22.371,9.504,6.549,14.723
496,1.017,36.738,10.16,31.095,22.364,9.506,6.549,14.437
497,1.017,36.864,9.996,31.104,22.364,9.628,6.63,14.393
498,1.01,36.874,10.069,31.095,22.371,9.67,6.631,14.23
499,1.007,36.635,10.077,31.095,22.371,9.792,6.55,14.147
500,1.004,36.728,10.081,31.104,22.36,9.712,6.508,13.902
501,1.023,36.892,10.12,31.133,22.378,9.914,6.67,13.941
502,1.02,36.673,10.062,31.095,22.364,9.794,6.509,13.575
503,1.01,36.594,10.136,31.085,22.371,9.834,6.549,13.531
504,1.001,36.737,10.129,31.114,22.371,9.834,6.549,13.449
505,1.004,36.787,10.168,31.095,22.357,9.753,6.508,13.204
506,1.007,36.567,10.051,31.114,22.371,9.833,6.508,13.283
507,0.984,36.68,10.101,31.114,22.36,9.794,6.427,13.121
508,0.974,36.815,10.109,31.133,22.364,9.834,6.548,13.039
509,0.977,36.874,10.101,31.105,22.36,9.712,6.468,12.875
510,0.974,36.501,10.128,31.124,22.367,9.711,6.507,12.833
511,0.955,36.641,10.086,31.124,22.364,9.752,6.467,12.71
512,0.974,36.738,10.16,31.133,22.367,9.712,6.467,12.587
513,0.99,36.796,10.133,31.114,22.367,9.63,6.386,12.383
514,1.0,36.509,10.199,31.133,22.374,9.792,6.547,12.462
515,0.984,36.602,10.098,31.114,22.354,9.549,6.305,12.097
516,1.0,36.747,10.085,31.124,22.367,9.628,6.465,12.256
517,1.01,36.816,10.031,31.153,22.367,9.629,6.467,12.135
518,1.014,36.51,10.104,31.114,22.367,9.507,6.386,12.012
519,1.02,36.669,10.062,31.152,22.367,9.628,6.425,12.052
520,1.004,36.767,10.062,31.114,22.357,9.507,6.304,11.849
521,1.0,36.806,10.112,31.133,22.367,9.587,6.384,11.887
522,1.007,36.356,10.144,31.124,22.36,9.547,6.303,11.806
523,0.997,36.505,10.137,31.133,22.36,9.588,6.384,11.887
524,1.004,36.612,10.062,31.153,22.367,9.588,6.344,11.847
525,0.997,36.642,10.105,31.191,22.367,9.71,6.343,11.887
526,0.958,37.083,10.004,31.124,22.36,9.711,6.221,11.766
527,0.981,37.27,10.135,31.181,22.381,9.996,6.424,12.09
528,0.971,37.329,10.051,31.134,22.357,9.917,6.263,11.89
529,0.958,36.62,10.065,31.143,22.36,9.998,6.262,11.888
530,0.961,36.229,10.136,31.181,22.364,10.161,6.343,11.969
531,0.955,36.321,10.148,31.134,22.36,10.163,6.181,11.807
532,0.958,36.437,10.152,31.162,22.367,10.244,6.423,11.928
533,0.958,36.487,10.078,31.124,22.364,10.164,6.222,11.766
534,0.984,36.631,10.105,31.153,22.36,10.244,6.302,11.805
535,0.974,36.747,10.078,31.134,22.367,10.245,6.262,11.684
536,0.974,36.835,10.12,31.162,22.371,10.245,6.302,11.723
537,0.977,36.212,10.168,31.153,22.364,10.123,6.343,11.642
538,0.99,36.36,10.086,31.162,22.364,10.163,6.343,11.56
539,0.978,36.419,10.07,31.134,22.357,10.0,6.221,11.478
540,1.007,36.544,10.113,31.181,22.371,10.121,6.464,11.64
541,0.994,36.401,10.113,31.153,22.367,10.0,6.304,11.438
542,0.987,36.534,10.011,31.162,22.36,9.917,6.384,11.436
543,0.994,36.67,10.096,31.191,22.367,9.998,6.385,11.477
544,0.978,36.69,10.085,31.153,22.357,9.877,6.303,11.396
545,0.977,36.278,10.097,31.182,22.367,9.916,6.465,11.517
546,0.958,36.408,10.164,31.191,22.364,9.754,6.345,11.396
547,0.958,36.525,10.09,31.182,22.367,9.752,6.425,11.558
548,0.938,36.564,10.113,31.182,22.364,9.712,6.385,11.519
549,0.938,36.402,10.047,31.182,22.367,9.63,6.466,11.477
550,0.938,36.525,10.171,31.191,22.364,9.548,6.426,11.558
551,0.932,36.631,10.047,31.201,22.367,9.588,6.507,11.64
552,0.922,36.632,10.097,31.172,22.36,9.385,6.386,11.438
553,0.957,36.431,10.019,31.23,22.374,9.627,6.588,11.639
554,0.961,36.515,10.12,31.182,22.361,9.466,6.427,11.397
555,0.961,36.612,10.082,31.191,22.36,9.424,6.466,11.436
556,0.974,36.479,10.167,31.201,22.371,9.424,6.507,11.517
557,0.961,36.334,10.11,31.172,22.357,9.302,6.345,11.355
558,0.971,36.466,10.16,31.201,22.374,9.423,6.466,11.435
559,0.977,36.525,10.094,31.182,22.361,9.383,6.467,11.314
560,0.994,36.257,10.046,31.191,22.367,9.464,6.507,11.394
561,0.971,36.331,10.077,31.192,22.36,9.383,6.508,11.314
562,0.981,36.457,10.074,31.192,22.371,9.505,6.467,11.394
563,0.961,36.535,10.136,31.211,22.367,9.465,6.507,11.354
564,0.958,36.277,10.101,31.201,22.364,9.424,6.549,11.313
565,0.941,36.408,10.093,31.192,22.36,9.383,6.468,11.313
566,0.954,36.573,10.07,31.249,22.378,9.667,6.629,11.679
567,0.948,36.622,10.085,31.221,22.364,9.385,6.428,11.398
568,0.945,36.249,10.074,31.201,22.367,9.423,6.466,11.558
569,0.951,36.427,10.085,31.24,22.374,9.424,6.548,11.64
570,0.932,36.525,10.089,31.221,22.364,9.342,6.468,11.682
571,0.931,36.593,10.085,31.24,22.364,9.464,6.589,11.967
572,0.928,36.296,10.171,31.221,22.36,9.262,6.468,12.133
573,0.935,36.456,10.117,31.23,22.367,9.3,6.629,12.541
574,0.938,36.525,10.121,31.24,22.36,9.178,6.509,12.789
575,0.954,36.603,9.957,31.23,22.364,9.299,6.549,13.238
576,0.967,36.268,10.049,31.23,22.371,9.219,6.549,13.528
577,0.951,36.389,10.132,31.23,22.367,9.3,6.508,13.937
578,0.935,36.467,10.07,31.23,22.36,9.26,6.427,14.104
579,0.974,36.564,10.113,31.269,22.367,9.544,6.67,14.512
580,0.955,36.21,10.051,31.211,22.36,9.384,6.428,14.516
581,0.954,36.35,10.14,31.211,22.371,9.464,6.507,14.719
582,0.974,36.467,10.109,31.249,22.367,9.587,6.467,14.844
583,0.935,36.717,10.074,31.23,22.36,9.507,6.467,14.845
584,0.935,36.835,10.12,31.316,22.371,9.587,6.467,15.007
585,0.928,36.951,10.09,31.231,22.364,9.466,6.426,15.05
586,0.925,37.038,10.128,31.249,22.367,9.505,6.507,15.091
587,0.922,36.071,10.125,31.259,22.364,9.465,6.427,15.01
588,0.925,36.128,10.117,31.25,22.364,9.424,6.466,15.009
589,0.922,36.263,10.043,31.259,22.367,9.424,6.426,14.928
590,0.915,36.351,10.116,31.259,22.371,9.383,6.466,14.764
591,0.912,36.284,10.062,31.231,22.357,9.22,6.345,14.681
592,0.925,36.466,10.077,31.307,22.374,9.381,6.547,14.68
593,0.922,36.554,10.038,31.241,22.357,9.179,6.386,14.274
594,0.931,36.641,10.069,31.288,22.367,9.177,6.425,14.351
595,0.931,36.048,10.05,31.279,22.364,9.259,6.385,14.271
596,0.931,36.128,10.116,31.25,22.364,9.015,6.344,14.148
597,0.925,36.263,10.133,31.278,22.371,9.176,6.425,14.065
598,0.935,36.331,10.082,31.269,22.357,9.218,6.304,13.902
599,0.931,36.399,10.128,31.279,22.364,9.584,6.384,13.941
600,0.951,36.515,10.113,31.279,22.36,9.791,6.303,13.738
601,0.958,36.65,10.09,31.269,22.364,10.078,6.343,13.695
602,0.938,36.7,10.062,31.288,22.367,10.284,6.384,13.654
603,0.922,36.192,10.116,31.307,22.364,10.489,6.344,13.532
604,0.918,36.311,10.07,31.26,22.36,10.695,6.221,13.408
605,0.938,36.466,10.148,31.317,22.378,11.063,6.424,13.692
606,0.912,36.458,10.141,31.269,22.364,11.107,6.263,13.451
607,0.912,36.285,10.09,31.298,22.364,11.23,6.302,13.489
608,0.899,36.428,10.113,31.317,22.367,11.271,6.343,13.53
609,0.889,36.496,10.078,31.298,22.357,11.231,6.181,13.327
610,0.899,36.526,10.062,31.317,22.374,11.312,6.301,13.406
611,0.902,36.324,10.042,31.298,22.357,11.15,6.221,13.204
612,0.899,36.457,10.073,31.327,22.367,11.271,6.383,13.243
613,0.918,36.554,10.089,31.298,22.357,11.231,6.222,13.04
614,0.928,36.19,10.148,31.298,22.367,11.231,6.261,13.038
615,0.931,36.273,10.106,31.317,22.364,11.068,6.262,12.916
616,0.938,36.389,10.035,31.317,22.367,11.066,6.221,12.833
617,0.932,36.467,10.046,31.298,22.36,10.904,6.18,12.751
618,0.964,36.247,10.128,31.346,22.374,11.065,6.423,12.791
619,0.945,36.35,10.055,31.318,22.361,10.741,6.263,12.547
620,0.958,36.476,10.046,31.308,22.367,10.819,6.302,12.423
621,0.938,36.554,10.089,31.327,22.367,10.739,6.302,12.381
622,0.948,36.277,10.066,31.308,22.36,10.494,6.18,12.177
623,0.951,36.437,10.183,31.336,22.367,10.573,6.301,12.256
624,0.941,36.525,10.114,31.327,22.36,10.451,6.18,12.054
625,0.945,36.593,10.132,31.346,22.371,10.41,6.342,12.215
626,0.958,36.268,10.074,31.327,22.364,10.328,6.221,12.135
627,0.945,36.408,10.14,31.346,22.367,10.286,6.261,12.175
628,0.945,36.496,10.137,31.346,22.367,10.245,6.262,12.094
629,0.948,36.564,10.105,31.346,22.371,10.245,6.343,12.093
630,0.945,36.277,10.082,31.337,22.357,10.082,6.221,11.971
631,0.964,36.456,10.093,31.365,22.374,10.243,6.464,12.254
632,0.977,36.516,10.136,31.347,22.361,10.082,6.264,11.973
633,1.003,36.554,10.066,31.356,22.357,10.081,6.302,11.929
634,1.023,36.286,10.089,31.366,22.374,10.162,6.262,11.929
635,1.014,36.389,10.058,31.404,22.357,10.041,6.18,11.807
636,1.017,36.515,10.077,31.357,22.371,10.202,6.342,11.928
637,1.027,36.545,10.097,31.346,22.364,10.123,6.303,11.807
638,1.03,36.411,10.085,31.366,22.367,10.163,6.262,11.846
639,1.017,36.525,10.101,31.347,22.364,10.204,6.221,11.684
640,1.023,36.631,10.093,31.356,22.371,10.285,6.302,11.723
641,1.036,36.258,10.164,31.366,22.364,10.286,6.302,11.683
642,1.066,36.341,10.086,31.395,22.374,10.408,6.302,11.683
643,1.04,36.419,10.05,31.356,22.361,10.287,6.14,11.479
644,1.063,36.553,10.073,31.452,22.374,10.53,6.341,11.721
645,1.063,36.315,10.074,31.395,22.364,10.532,6.262,11.642
646,1.069,36.418,10.097,31.376,22.36,10.451,6.18,11.601
647,1.099,36.573,10.171,31.385,22.371,10.572,6.261,11.682
648,1.099,36.622,10.082,31.366,22.364,10.533,6.139,11.642
649,1.119,36.335,10.101,31.395,22.367,10.655,6.219,11.682
650,1.109,36.457,10.113,31.376,22.364,10.493,6.139,11.601
651,1.132,36.592,10.152,31.404,22.367,10.532,6.219,11.722
652,1.122,36.642,10.098,31.404,22.364,10.41,6.22,11.642
653,1.132,36.249,10.093,31.385,22.367,10.409,6.22,11.56
654,1.148,36.379,10.093,31.404,22.367,10.328,6.139,11.6
655,1.139,36.505,10.093,31.395,22.367,10.286,6.219,11.6
656,1.125,36.516,10.113,31.366,22.353,10.083,6.058,11.438
657,1.155,36.296,9.996,31.433,22.374,10.203,6.259,11.68
658,1.145,36.428,10.081,31.424,22.367,10.123,6.18,11.52
659,1.125,36.525,10.089,31.405,22.364,10.122,6.139,11.559
660,1.129,36.545,10.136,31.404,22.364,10.041,6.26,11.559
661,1.125,36.248,9.996,31.395,22.36,9.999,6.139,11.315
662,1.125,36.408,10.092,31.423,22.374,10.039,6.26,11.435
663,1.09,36.486,10.046,31.405,22.364,10.04,6.099,11.273
664,1.073,36.583,10.112,31.414,22.371,10.04,6.219,11.394
665,1.056,36.296,10.136,31.405,22.364,9.918,6.139,11.354
666,1.04,36.428,10.117,31.424,22.371,9.957,6.179,11.517
667,1.037,36.525,10.121,31.424,22.371,9.917,6.22,11.681
668,1.024,36.209,10.07,31.433,22.367,9.957,6.22,12.008
669,1.001,36.235,10.128,31.386,22.36,9.754,6.139,12.133
670,1.01,36.427,10.035,31.462,22.385,9.955,6.382,12.866
671,0.978,36.477,10.085,31.424,22.361,9.795,6.181,13.199
672,0.958,36.343,10.066,31.424,22.367,9.712,6.22,13.73
673,0.977,36.486,10.14,31.453,22.364,9.752,6.261,14.386
674,0.971,36.573,10.164,31.424,22.364,9.671,6.221,14.677
675,0.964,36.67,10.121,31.433,22.367,9.67,6.302,15.209
676,0.961,36.115,10.148,31.443,22.364,9.548,6.14,15.417
677,0.955,36.263,10.051,31.443,22.367,9.588,6.26,15.704
678,0.945,36.379,10.186,31.434,22.364,9.425,6.221,15.91
679,0.945,36.448,10.079,31.434,22.364,9.424,6.261,15.994
680,0.958,36.314,10.14,31.434,22.367,9.383,6.221,15.954
681,0.932,36.437,10.051,31.443,22.374,9.423,6.18,15.994
682,0.922,36.515,10.12,31.414,22.357,9.342,6.098,15.872
683,0.925,36.612,10.148,31.462,22.374,9.626,6.341,16.075
684,0.909,36.22,10.098,31.443,22.364,9.507,6.221,15.873
685,0.895,36.34,10.058,31.453,22.357,9.546,6.139,15.79
686,0.879,36.486,10.007,31.462,22.374,9.547,6.219,15.83
687,0.879,36.487,10.128,31.424,22.367,9.506,6.098,15.627
688,0.885,36.324,10.047,31.453,22.367,9.628,6.178,15.706
689,0.879,36.447,10.132,31.443,22.36,9.629,6.139,15.544
690,0.869,36.573,10.059,31.453,22.374,9.629,6.179,15.462
691,0.872,36.689,10.151,31.462,22.361,9.588,6.139,15.298
692,0.859,36.317,10.059,31.463,22.367,9.588,6.138,15.256
693,0.879,36.418,10.062,31.463,22.36,9.547,6.179,15.133
694,0.882,36.573,10.058,31.482,22.374,9.588,6.22,15.173
695,0.866,36.2,10.073,31.453,22.354,9.385,6.017,14.807
696,0.882,36.283,10.128,31.482,22.371,9.586,6.178,14.803
697,0.885,36.38,10.137,31.482,22.371,9.466,6.22,14.722
698,0.895,36.448,10.105,31.52,22.357,9.383,6.098,14.396
699,0.902,36.151,10.074,31.482,22.371,9.423,6.219,14.434
700,0.892,36.273,10.12,31.444,22.357,9.261,6.098,14.149
701,0.915,36.399,10.094,31.482,22.367,9.381,6.219,14.146
702,0.912,36.477,10.109,31.472,22.367,9.261,6.139,13.984
703,0.895,36.209,10.074,31.52,22.371,9.3,6.179,13.901
704,0.876,36.34,10.109,31.473,22.371,9.138,6.22,13.819
705,0.876,36.476,10.101,31.482,22.36,9.177,6.22,13.737
706,0.84,36.487,10.07,31.463,22.357,9.055,6.098,13.655
707,0.879,36.209,10.116,31.53,22.374,9.217,6.341,13.776
708,0.856,36.321,10.097,31.482,22.357,9.056,6.181,13.574
709,0.856,36.418,10.105,31.491,22.364,9.054,6.22,13.449
710,0.846,36.496,10.105,31.511,22.364,9.013,6.342,13.489
711,0.853,36.276,10.05,31.482,22.36,8.932,6.14,13.327
712,0.866,36.447,10.05,31.559,22.374,8.972,6.138,13.366
713,0.856,36.544,10.054,31.473,22.364,8.891,6.219,13.082
714,0.862,36.574,10.124,31.501,22.367,8.93,6.22,13.201
715,0.859,36.181,10.117,31.492,22.367,8.972,6.22,13.039
716,0.872,36.321,10.191,31.492,22.364,8.891,6.261,13.038
717,0.882,36.437,10.133,31.559,22.36,8.809,6.221,12.956
718,0.889,36.659,10.113,31.511,22.367,8.808,6.18,12.915
719,0.876,36.22,10.113,31.482,22.357,8.686,6.139,12.711
720,0.895,36.398,10.14,31.549,22.371,8.928,6.301,12.831
721,0.892,36.486,10.082,31.559,22.364,8.768,6.221,12.548
722,0.882,36.151,10.085,31.502,22.36,8.726,6.22,12.545
723,0.879,36.196,10.07,31.511,22.371,8.726,6.22,12.545
724,0.859,36.283,10.089,31.501,22.357,8.726,6.22,12.464
725,0.859,36.389,10.152,31.52,22.367,8.848,6.22,12.381
726,0.843,36.112,10.055,31.511,22.364,8.686,6.22,12.34
727,0.856,36.282,10.12,31.521,22.367,8.807,6.302,12.421
728,0.853,36.389,10.035,31.511,22.357,8.726,6.18,12.3
729,0.856,36.476,10.136,31.521,22.367,8.766,6.22,12.339
730,0.859,36.113,10.035,31.549,22.36,8.767,6.18,12.258
731,0.849,36.272,10.077,31.54,22.371,8.848,6.22,12.217
732,0.836,36.341,10.081,31.511,22.357,8.686,6.098,12.054
733,0.869,36.486,10.14,31.568,22.374,8.888,6.3,12.255
734,0.869,36.161,10.164,31.54,22.367,8.768,6.18,12.013
735,0.869,36.292,10.059,31.53,22.36,8.767,6.139,11.97
736,0.885,36.437,10.128,31.549,22.371,8.807,6.179,12.051
737,0.882,36.448,10.055,31.521,22.364,8.767,6.139,11.849
738,0.902,36.046,10.19,31.54,22.371,8.929,6.219,11.969
739,0.889,36.176,10.024,31.55,22.36,8.972,6.098,11.848
740,0.879,36.302,10.116,31.55,22.374,9.175,6.178,11.806
741,0.869,36.341,10.054,31.53,22.361,9.137,6.139,11.806
742,0.892,36.025,10.183,31.54,22.371,9.217,6.138,11.765
743,0.869,36.166,10.118,31.53,22.364,9.34,6.138,11.805
744,0.853,36.273,10.078,31.549,22.371,9.464,6.219,11.765
745,0.823,36.648,9.96,31.53,22.357,9.262,6.017,11.724
746,0.83,36.364,10.084,31.578,22.371,9.585,6.259,12.008
747,0.813,36.476,10.097,31.569,22.367,9.588,6.139,11.93
748,0.8,36.544,10.043,31.55,22.364,9.466,6.138,11.888
749,0.846,36.123,10.124,31.559,22.367,9.587,6.179,11.969
750,0.82,36.071,10.07,31.55,22.36,9.466,6.139,11.929
751,0.817,36.224,10.14,31.578,22.374,9.627,6.26,12.051
752,0.826,36.283,10.117,31.55,22.361,9.629,6.058,11.889
753,0.852,36.111,10.117,31.578,22.374,9.629,6.219,11.888
754,0.849,36.244,10.012,31.569,22.364,9.67,6.18,11.806
755,0.856,36.36,10.053,31.559,22.364,9.711,6.22,11.928
756,0.888,36.428,10.023,31.559,22.364,9.63,6.18,11.888
757,0.931,36.563,10.077,31.559,22.367,9.629,6.261,11.928
758,0.964,36.728,10.093,31.626,22.367,9.629,6.262,11.97
759,0.984,36.873,10.027,31.598,22.374,9.588,6.343,11.97
760,1.0,36.874,10.116,31.55,22.35,9.425,6.1,11.767
761,1.062,35.733,10.097,31.598,22.371,9.505,6.3,11.968
762,1.089,35.866,10.078,31.579,22.371,9.628,6.262,11.889
763,1.092,35.973,10.077,31.646,22.357,9.507,6.18,11.888
764,1.141,36.06,10.109,31.599,22.371,9.709,6.301,11.969
765,1.171,36.138,10.05,31.579,22.354,9.63,6.14,11.889
766,1.188,36.301,10.105,31.588,22.367,9.832,6.26,12.01
767,1.22,36.399,10.089,31.569,22.364,9.834,6.18,11.93
768,1.247,36.438,10.081,31.598,22.367,10.078,6.22,12.01
769,1.279,35.988,10.085,31.588,22.364,10.121,6.18,12.011
770,1.319,36.098,10.144,31.598,22.364,10.163,6.22,12.133
771,1.361,36.215,10.105,31.608,22.364,10.326,6.261,12.134
772,1.388,36.628,10.082,31.627,22.371,10.408,6.221,12.134
773,1.408,36.143,10.085,31.56,22.354,10.287,6.098,11.972
774,1.463,36.273,10.089,31.626,22.371,10.53,6.3,12.173
775,1.464,36.36,10.136,31.608,22.364,10.532,6.18,12.053
776,1.467,36.006,10.098,31.598,22.364,10.573,6.098,12.011
777,1.496,36.022,10.125,31.627,22.371,10.614,6.26,12.092
778,1.484,36.118,10.043,31.579,22.364,10.533,6.099,12.052
779,1.516,36.234,10.151,31.627,22.367,10.573,6.219,12.133
780,1.565,35.976,10.008,31.589,22.36,10.492,6.098,11.972
781,1.595,36.127,10.096,31.617,22.364,10.491,6.178,12.173
782,1.66,36.225,10.093,31.617,22.36,10.41,6.139,11.972
783,1.736,36.331,10.093,31.608,22.374,10.369,6.179,12.011
784,1.775,35.958,10.171,31.598,22.361,10.287,6.179,11.97
785,1.805,36.127,10.172,31.646,22.367,10.286,6.22,12.051
786,1.828,36.186,10.082,31.599,22.353,10.042,6.058,11.849
787,1.838,36.302,10.054,31.656,22.374,10.162,6.259,12.131
788,1.796,35.843,10.144,31.627,22.367,10.0,6.221,12.256
789,1.708,35.963,10.059,31.598,22.364,9.836,6.098,12.501
790,1.619,36.117,10.101,31.656,22.374,9.794,6.26,13.114
791,1.452,36.157,10.113,31.627,22.361,9.631,6.139,13.77
792,1.294,35.985,10.129,31.656,22.364,9.588,6.219,14.712
793,1.179,36.089,10.144,31.627,22.364,9.466,6.139,15.413
794,1.054,36.243,10.098,31.637,22.367,9.383,6.179,16.192
795,0.946,36.255,10.101,31.646,22.357,9.382,6.139,16.606
796,0.896,35.842,10.101,31.637,22.364,9.301,6.219,17.099
797,0.83,35.953,10.113,31.618,22.367,9.138,6.18,17.347
798,0.797,36.108,10.125,31.665,22.378,9.258,6.342,17.797
799,0.709,36.1,10.129,31.675,22.361,8.934,6.1,17.639
800,0.669,36.004,10.074,31.647,22.371,9.093,6.382,17.8
801,0.604,36.108,10.105,31.666,22.374,9.054,6.222,17.802
802,0.577,36.215,10.132,31.618,22.364,9.013,6.18,17.598
803,0.57,35.976,10.062,31.665,22.371,9.094,6.22,17.515
804,0.557,35.955,10.081,31.637,22.36,9.095,6.098,17.189
805,0.557,36.089,10.019,31.656,22.367,9.176,6.138,17.145
806,0.524,36.195,10.1,31.656,22.36,9.259,6.138,16.9
807,0.488,35.803,10.117,31.656,22.367,9.341,6.138,16.735
808,0.475,35.934,10.113,31.647,22.371,9.423,6.138,16.571
809,0.481,36.05,10.101,31.646,22.367,9.586,6.219,16.488
810,0.465,36.118,10.105,31.666,22.364,9.669,6.18,16.487
811,0.484,35.918,10.101,31.695,22.374,9.873,6.261,16.487
812,0.491,36.021,10.101,31.637,22.361,9.794,6.058,16.243
813,0.55,36.185,10.054,31.685,22.374,9.956,6.219,16.444
814,0.57,36.244,10.011,31.695,22.357,10.039,6.18,16.528
815,0.616,35.775,10.046,31.666,22.36,9.958,6.098,16.528
816,0.642,35.924,10.077,31.685,22.371,9.998,6.219,16.772
817,0.678,36.012,10.159,31.656,22.36,9.917,6.139,16.816
818,0.727,36.099,10.129,31.694,22.367,9.998,6.179,17.019
819,0.751,35.975,10.137,31.676,22.364,9.917,6.098,16.981
820,0.78,36.137,10.098,31.685,22.371,9.916,6.138,17.021
821,0.81,36.215,10.121,31.666,22.364,9.835,6.138,16.818
822,0.839,36.264,10.012,31.695,22.364,9.834,6.138,16.816
823,0.817,35.881,10.065,31.695,22.36,9.712,6.057,16.735
824,0.82,36.059,10.038,31.704,22.378,9.833,6.259,16.653
825,0.83,36.118,10.05,31.685,22.357,9.59,6.058,16.408
826,0.839,36.157,10.159,31.695,22.367,9.629,6.219,16.283
827,0.865,35.966,10.059,31.704,22.371,9.548,6.22,16.079
828,0.849,36.079,10.105,31.676,22.367,9.384,6.139,15.833
829,0.859,36.215,10.05,31.695,22.367,9.423,6.219,15.749
830,0.827,35.976,10.179,31.685,22.364,9.383,6.098,15.464
831,0.843,35.974,10.09,31.723,22.364,9.342,6.178,15.379
832,0.83,36.098,10.117,31.714,22.364,9.342,6.139,15.094
833,0.849,36.205,10.14,31.714,22.371,9.342,6.138,14.969
834,0.862,35.775,10.098,31.714,22.36,9.423,6.098,14.846
835,0.859,35.895,10.097,31.714,22.367,9.424,6.138,14.641
836,0.849,35.963,10.085,31.695,22.36,9.505,6.057,14.477
837,0.898,36.117,10.128,31.752,22.385,9.79,6.259,14.516
838,0.886,35.87,10.027,31.695,22.354,9.671,6.058,14.231
839,0.879,36.021,10.112,31.714,22.36,9.792,6.137,14.188
840,0.882,36.137,10.051,31.733,22.374,9.875,6.179,14.025
841,0.879,36.186,10.097,31.714,22.357,9.957,6.098,13.901
842,0.872,35.861,10.082,31.733,22.367,10.08,6.178,13.819
843,0.846,35.963,10.097,31.705,22.36,9.999,6.057,13.574
844,0.853,36.089,10.117,31.714,22.371,10.08,6.137,13.571
845,0.859,36.138,10.14,31.724,22.371,10.04,6.098,13.531
846,0.859,35.841,10.098,31.724,22.364,10.324,6.178,13.408
847,0.862,35.982,10.07,31.724,22.367,10.49,6.139,13.367
848,0.853,36.089,10.144,31.724,22.364,10.776,6.138,13.285
849,0.846,36.1,10.051,31.714,22.36,10.982,6.098,13.121
850,0.859,35.889,10.116,31.753,22.378,11.513,6.3,13.364
851,0.836,35.982,10.019,31.715,22.361,11.559,6.058,13.0
852,0.839,36.098,10.132,31.743,22.367,11.925,6.219,13.078
853,0.843,36.119,10.109,31.753,22.371,12.132,6.261,12.957
854,0.846,35.841,10.156,31.715,22.364,12.297,6.18,12.711
855,0.862,35.992,10.09,31.753,22.371,12.583,6.301,12.709
856,0.866,36.079,10.152,31.724,22.364,12.627,6.14,12.587
857,0.898,35.821,10.055,31.753,22.367,12.912,6.219,12.586
858,0.895,35.723,10.136,31.743,22.371,12.874,6.18,12.505
859,0.869,35.866,10.098,31.762,22.367,12.955,6.261,12.463
860,0.902,35.953,10.058,31.734,22.364,12.915,6.262,12.381
861,0.892,35.772,10.12,31.743,22.367,12.874,6.262,12.381
862,0.892,35.885,10.125,31.734,22.36,12.792,6.221,12.299
863,0.899,36.059,10.191,31.791,22.378,12.913,6.424,12.461
864,0.866,36.099,10.055,31.734,22.367,12.67,6.182,12.138
865,0.876,35.745,10.105,31.829,22.371,12.546,6.22,12.215
866,0.872,35.885,10.086,31.773,22.371,12.504,6.261,12.257
867,0.869,35.982,10.105,31.734,22.357,12.26,6.18,12.135
868,0.866,36.089,10.097,31.772,22.374,12.135,6.301,12.256
869,0.872,35.745,10.054,31.753,22.357,11.931,6.18,12.176
870,0.876,35.904,10.089,31.782,22.364,11.807,6.342,12.175
871,0.859,36.011,10.066,31.753,22.357,11.643,6.262,12.094
872,0.862,36.07,10.112,31.772,22.36,11.56,6.262,12.093
873,0.869,35.783,10.011,31.772,22.367,11.397,6.302,11.971
874,0.879,35.914,10.124,31.839,22.367,11.314,6.343,11.929
875,0.869,35.992,10.039,31.744,22.357,11.069,6.221,11.807
876,0.905,36.099,10.12,31.81,22.378,11.31,6.383,12.05
877,0.902,35.745,10.16,31.782,22.374,11.069,6.344,11.808
878,0.908,35.875,10.094,31.792,22.367,10.985,6.343,11.806
879,0.902,36.011,10.105,31.792,22.371,11.025,6.466,11.806
880,0.889,35.984,10.101,31.763,22.367,10.903,6.345,11.643
881,0.912,35.801,10.132,31.791,22.371,11.065,6.466,11.682
882,0.908,35.886,9.988,31.782,22.36,10.944,6.386,11.683
883,0.899,36.021,10.12,31.772,22.36,11.024,6.425,11.642
884,0.899,35.83,10.078,31.772,22.357,11.066,6.385,11.682
885,0.902,35.79,10.124,31.782,22.364,11.148,6.466,11.723
886,0.882,35.914,10.164,31.772,22.364,11.189,6.507,11.642
887,0.895,36.021,10.071,31.801,22.367,11.189,6.549,11.723
888,0.879,35.725,10.116,31.753,22.353,11.068,6.427,11.561
889,0.885,35.894,10.113,31.83,22.381,11.31,6.629,11.844
890,0.869,36.002,10.132,31.811,22.364,11.069,6.55,11.684
891,0.863,36.089,9.996,31.782,22.364,10.985,6.549,11.642
892,0.872,35.639,10.104,31.811,22.367,11.066,6.63,11.682
893,0.872,35.779,10.031,31.792,22.36,10.782,6.509,11.52
894,0.895,35.885,10.124,31.811,22.364,10.901,6.67,11.559
895,0.882,35.954,10.082,31.792,22.364,10.658,6.631,11.478
896,0.908,35.705,10.089,31.801,22.367,10.696,6.672,11.477
897,0.912,35.856,10.081,31.801,22.367,10.575,6.672,11.396
898,0.915,35.982,10.089,31.801,22.364,10.614,6.713,11.436
899,0.902,36.012,10.187,31.792,22.364,10.574,6.713,11.436
900,0.925,35.686,10.106,31.811,22.364,10.614,6.794,11.477
901,0.909,35.779,10.105,31.763,22.357,10.33,6.592,11.233
902,0.928,35.933,10.089,31.82,22.374,10.571,6.915,11.393
903,0.905,35.973,10.128,31.811,22.364,10.37,6.919,11.395
904,0.895,35.715,10.117,31.792,22.367,10.246,6.837,11.517
905,0.905,35.856,10.183,31.811,22.367,10.326,6.918,11.681
906,0.882,35.925,10.067,31.792,22.36,10.124,6.796,11.723
907,0.892,35.992,10.077,31.83,22.367,10.0,6.958,12.089
908,0.882,35.696,10.093,31.802,22.36,9.917,6.838,12.337
909,0.879,35.846,10.128,31.811,22.364,9.835,6.877,12.705
910,0.885,35.953,10.121,31.821,22.367,9.712,6.959,12.953
911,0.889,35.801,10.086,31.802,22.367,9.63,6.96,13.2
912,0.905,35.723,10.113,31.811,22.364,9.548,6.878,13.527
913,0.925,35.885,10.14,31.83,22.371,9.588,6.959,13.774
914,0.905,35.925,10.125,31.792,22.36,9.344,6.797,13.858
915,0.905,35.666,10.082,31.849,22.378,9.504,7.039,14.022
916,0.921,35.788,10.136,31.831,22.361,9.303,6.96,14.186
917,0.915,35.895,10.027,31.821,22.364,9.26,6.838,14.188
918,0.938,35.973,10.151,31.849,22.371,9.259,6.958,14.35
919,0.925,35.571,10.063,31.859,22.36,9.097,6.797,14.23
920,0.944,35.73,10.12,31.821,22.364,9.136,6.958,14.269
921,0.954,35.837,10.105,31.83,22.367,9.014,6.878,14.229
922,0.945,35.924,10.152,31.83,22.364,8.972,6.959,14.188
923,0.935,35.695,10.152,31.84,22.364,8.891,6.96,14.188
924,0.922,35.846,10.063,31.84,22.36,8.93,6.96,14.065
925,0.912,35.963,10.116,31.85,22.364,8.85,6.878,14.024
926,0.935,36.05,10.043,31.859,22.385,8.93,7.0,13.983
927,0.902,35.629,10.104,31.821,22.361,8.646,6.797,13.779
928,0.912,35.798,10.035,31.849,22.371,8.684,6.958,13.94
929,0.908,35.914,10.112,31.859,22.367,8.644,7.0,13.86
930,0.889,35.944,10.097,31.859,22.36,8.521,6.919,13.696
931,0.899,35.686,10.113,31.85,22.367,8.642,7.0,13.776
932,0.895,35.817,10.117,31.831,22.36,8.481,6.838,13.533
933,0.918,35.934,9.996,31.859,22.364,8.601,6.958,13.531
934,0.922,35.973,10.026,31.869,22.364,8.562,6.878,13.286
935,0.931,35.772,10.015,31.86,22.36,8.643,6.877,13.325
936,0.928,35.885,10.085,31.85,22.367,8.603,6.796,13.203
937,0.941,35.992,10.081,31.859,22.371,8.643,6.877,13.121
938,0.945,35.868,10.159,31.84,22.367,8.644,6.877,12.998
939,0.964,35.762,10.067,31.878,22.374,8.806,6.918,12.996
940,0.942,35.828,10.128,31.85,22.354,8.604,6.756,12.671
941,0.951,35.943,10.14,31.859,22.364,8.846,6.876,12.79
942,0.951,35.59,10.09,31.869,22.364,8.889,6.918,12.669
943,0.938,35.663,10.081,31.86,22.36,8.768,6.756,12.465
944,0.941,35.798,10.042,31.869,22.367,8.97,6.876,12.544
945,0.925,35.866,10.12,31.84,22.367,8.972,6.796,12.423
946,0.935,35.56,10.097,31.878,22.367,9.094,6.795,12.503
947,0.922,35.672,10.062,31.85,22.357,9.176,6.755,12.341
948,0.922,35.817,10.058,31.878,22.364,9.34,6.795,12.38
949,0.925,35.895,10.12,31.869,22.364,9.504,6.795,12.299
950,0.922,35.57,10.152,31.898,22.364,9.628,6.755,12.421
951,0.925,35.711,10.055,31.888,22.36,9.832,6.754,12.259
952,0.928,35.846,10.089,31.898,22.374,9.997,6.795,12.298
953,0.928,35.857,10.023,31.85,22.354,9.917,6.592,12.054
954,0.948,35.953,10.132,31.907,22.378,10.242,6.793,12.174
955,0.948,36.069,10.129,31.889,22.364,10.245,6.633,12.013
956,0.951,36.157,10.148,31.879,22.364,10.245,6.59,11.93
957,0.964,36.263,10.09,31.907,22.364,10.408,6.712,11.97
958,0.948,35.497,10.093,31.879,22.36,10.328,6.591,11.807
959,0.954,35.643,10.066,31.898,22.367,10.408,6.671,11.887
960,0.958,35.731,10.073,31.898,22.36,10.328,6.631,11.685
961,0.977,35.78,10.074,31.908,22.371,10.449,6.712,11.804
962,0.971,35.665,10.05,31.898,22.364,10.45,6.632,11.602
963,0.961,35.788,10.14,31.917,22.36,10.532,6.631,11.641
964,0.942,35.876,10.121,31.908,22.364,10.573,6.59,11.682
965,0.954,35.8,10.156,31.917,22.364,10.614,6.671,11.683
966,0.938,35.636,10.07,31.879,22.353,10.655,6.469,11.52
967,0.951,35.807,10.136,31.936,22.381,11.266,6.67,11.721
968,0.941,35.886,10.137,31.908,22.371,11.516,6.55,11.601
969,0.935,35.618,10.059,31.908,22.36,11.925,6.549,11.6
970,0.945,35.75,10.112,31.937,22.367,12.376,6.671,11.682
971,0.928,35.856,10.097,31.899,22.357,12.625,6.428,11.52
972,0.935,35.934,10.16,31.927,22.371,13.034,6.548,11.477
973,0.941,35.551,10.121,31.918,22.36,13.241,6.468,11.396
974,0.961,35.73,10.136,31.927,22.371,13.568,6.467,11.354
975,0.948,35.837,10.043,31.927,22.364,13.612,6.426,11.354
976,0.964,35.915,10.14,31.927,22.36,13.816,6.507,11.354
977,0.961,35.59,10.063,31.918,22.371,13.777,6.467,11.273
978,0.974,35.759,10.12,31.946,22.371,13.899,6.548,11.312
979,0.951,35.857,10.066,31.899,22.354,13.778,6.386,11.15
980,0.977,35.953,10.116,31.936,22.374,13.94,6.507,11.311
981,0.977,35.648,10.074,31.927,22.367,13.778,6.427,11.11
982,0.968,35.769,10.116,31.918,22.364,13.655,6.344,11.148
983,0.958,35.914,10.027,31.937,22.371,13.694,6.466,11.23
984,0.945,35.954,10.085,31.946,22.367,13.573,6.386,11.149
985,0.951,35.782,10.089,31.946,22.367,13.694,6.466,11.311
986,0.932,35.905,10.058,31.927,22.353,13.573,6.345,11.272
987,0.938,36.011,10.144,31.937,22.367,13.531,6.384,11.353
988,0.922,36.051,10.059,31.946,22.364,13.368,6.344,11.354
989,0.931,36.138,10.112,31.946,22.36,13.325,6.384,11.476
990,0.925,36.263,10.117,31.946,22.371,13.122,6.466,11.518
991,0.925,36.389,10.14,31.966,22.374,13.079,6.507,11.559
992,0.918,36.256,10.086,31.918,22.357,12.794,6.345,11.437
993,0.938,36.034,10.101,31.975,22.374,12.832,6.506,11.517
994,0.941,36.166,10.152,31.956,22.364,12.629,6.467,11.437
995,0.932,36.244,10.086,31.937,22.36,12.464,6.345,11.436
996,0.935,35.612,10.144,31.966,22.367,12.544,6.506,11.558
997,0.951,35.644,10.035,31.937,22.364,12.301,6.427,11.437
998,0.954,35.788,10.1,31.956,22.367,12.258,6.466,11.436
999,0.954,35.886,10.101,31.947,22.364,12.054,6.304,11.355
1000,0.951,36.184,10.117,31.966,22.364,11.971,6.384,11.232
1001,0.964,36.321,10.058,31.956,22.36,11.848,6.425,11.312
1002,0.968,36.447,10.073,31.975,22.367,11.806,6.385,11.232
1003,0.942,36.506,10.12,31.937,22.364,11.602,6.425,11.231
1004,0.948,35.739,10.113,32.013,22.381,11.6,6.507,11.312
1005,0.935,35.818,10.14,31.957,22.357,11.316,6.386,11.15
1006,0.925,35.972,10.086,31.956,22.374,11.313,6.507,11.311
1007,0.931,36.041,10.105,31.966,22.371,11.15,6.467,11.353
1008,0.922,36.099,10.023,31.947,22.357,10.945,6.345,11.273
1009,0.931,36.263,10.151,31.994,22.371,10.984,6.506,11.353
1010,0.918,36.331,10.051,31.966,22.36,10.781,6.386,11.273
1011,0.918,36.418,10.112,31.995,22.367,10.82,6.425,11.353
1012,0.909,36.141,10.086,31.976,22.36,10.779,6.385,11.313
1013,0.912,36.263,10.136,31.966,22.364,10.779,6.425,11.313
1014,0.922,36.379,10.203,31.966,22.364,10.657,6.466,11.272
1015,0.925,36.419,10.137,31.985,22.364,10.574,6.467,11.312
1016,0.935,36.275,10.101,31.956,22.36,10.451,6.345,11.191
1017,0.958,36.475,10.074,32.014,22.381,10.654,6.588,11.556
1018,0.951,36.516,10.124,31.966,22.364,10.493,6.387,11.437
1019,0.938,36.545,10.097,31.985,22.364,10.451,6.425,11.639
1020,0.967,36.334,10.109,31.976,22.367,10.491,6.466,11.926
1021,0.948,36.409,10.109,31.947,22.36,10.329,6.345,11.97
1022,0.971,36.534,10.129,32.004,22.367,10.408,6.466,12.295
1023,0.938,36.344,10.152,31.957,22.357,10.247,6.386,12.502
1024,0.928,36.438,10.106,31.985,22.367,10.204,6.425,12.951
1025,0.925,36.544,10.105,31.966,22.367,10.163,6.385,13.281
1026,0.931,36.651,10.058,31.995,22.367,10.122,6.466,13.691
1027,0.931,36.364,10.085,31.995,22.364,10.0,6.386,13.939
1028,0.938,36.505,10.074,31.966,22.367,9.999,6.425,14.185
1029,0.935,36.574,10.109,31.975,22.353,9.836,6.182,14.35
1030,0.941,36.728,10.109,32.014,22.374,10.119,6.586,14.677
1031,0.928,36.547,10.113,31.985,22.367,9.837,6.427,14.599
1032,0.922,36.67,10.152,31.976,22.364,9.712,6.385,14.679
1033,0.931,36.796,10.109,32.004,22.367,9.752,6.466,14.68
1034,0.935,36.835,10.086,31.985,22.353,9.59,6.304,14.518
1035,0.961,36.586,10.042,32.004,22.364,9.629,6.384,14.638
1036,0.955,36.699,10.104,31.985,22.353,9.507,6.263,14.558
1037,0.961,36.806,10.078,32.004,22.364,9.587,6.384,14.516
1038,0.958,36.864,10.074,31.995,22.36,9.507,6.303,14.353
1039,0.954,36.759,10.042,31.995,22.364,9.506,6.343,14.311
1040,0.971,36.883,10.108,31.995,22.367,9.384,6.384,14.108
1041,0.974,37.009,10.171,32.004,22.367,9.464,6.385,14.065
1042,0.977,37.001,10.067,31.966,22.353,9.262,6.263,13.861
1043,0.977,36.684,10.124,32.014,22.371,9.381,6.424,14.022
1044,0.958,36.796,10.09,32.005,22.364,9.382,6.385,13.942
1045,0.948,36.883,10.078,31.985,22.357,9.301,6.344,13.819
1046,0.951,37.038,10.062,32.014,22.367,9.504,6.466,13.818
1047,0.928,36.751,10.132,31.995,22.357,9.465,6.304,13.696
1048,0.938,36.902,10.074,32.024,22.367,9.505,6.425,13.695
1049,0.932,36.98,10.074,31.986,22.36,9.506,6.304,13.532
1050,0.935,36.732,10.144,32.024,22.364,9.628,6.384,13.531
1051,0.931,36.796,10.129,32.005,22.364,9.588,6.385,13.408
1052,0.931,36.941,10.047,32.014,22.367,9.751,6.385,13.326
1053,0.938,37.029,10.065,32.024,22.364,9.712,6.385,13.244
1054,0.941,36.895,10.038,32.014,22.367,9.711,6.425,13.202
1055,0.922,36.99,10.073,31.985,22.35,9.589,6.304,12.999
1056,0.941,37.135,10.163,32.043,22.378,9.832,6.547,13.119
1057,0.938,37.194,10.09,32.034,22.367,9.631,6.386,12.876
1058,0.941,36.83,10.117,32.024,22.36,9.67,6.344,12.833
1059,0.954,36.979,10.129,32.034,22.374,9.833,6.425,12.832
1060,0.941,37.048,10.14,32.005,22.357,9.672,6.222,12.588
1061,0.958,37.154,10.043,32.024,22.367,9.833,6.424,12.586
1062,0.948,36.849,10.085,31.995,22.36,9.712,6.304,12.464
1063,0.938,36.98,10.058,32.043,22.371,9.874,6.384,12.381
1064,0.932,37.096,10.069,32.015,22.364,9.753,6.263,12.258
1065,0.931,37.155,10.124,32.014,22.367,9.833,6.343,12.339
1066,0.918,36.964,10.09,32.014,22.367,9.834,6.343,12.217
1067,0.918,37.134,10.081,32.043,22.378,9.916,6.466,12.257
1068,0.896,37.194,10.058,31.986,22.35,9.754,6.142,12.054
1069,0.915,37.252,10.151,32.043,22.374,9.955,6.463,12.255
1070,0.909,36.926,10.082,32.053,22.364,9.917,6.386,12.135
1071,0.905,37.028,10.081,32.024,22.36,9.794,6.222,12.012
1072,0.912,37.164,10.058,32.034,22.364,9.875,6.383,12.092
1073,0.905,37.338,10.124,32.005,22.357,9.713,6.303,11.89
1074,0.931,37.033,10.094,32.043,22.367,9.792,6.343,11.928
1075,0.909,37.164,10.132,32.024,22.367,9.712,6.343,11.848
1076,0.938,37.242,10.004,32.043,22.36,9.711,6.384,11.847
1077,0.932,36.907,10.073,32.024,22.364,9.711,6.344,11.887
1078,0.935,36.942,10.128,32.034,22.364,9.63,6.425,11.847
1079,0.931,37.048,10.047,32.014,22.357,9.507,6.344,11.806
1080,0.97,37.193,10.147,32.072,22.374,9.709,6.506,11.887
1081,0.938,36.897,10.078,32.024,22.364,9.427,6.345,11.725
1082,0.925,37.028,10.175,32.014,22.371,9.424,6.425,11.846
1083,0.909,37.164,10.149,32.043,22.367,9.342,6.385,11.887
1084,0.899,37.203,10.121,32.015,22.357,9.301,6.385,11.847
1085,0.915,36.935,10.058,32.053,22.364,9.301,6.507,12.009
1086,0.915,37.086,10.066,32.015,22.36,9.138,6.427,11.848
1087,0.902,37.193,10.105,32.053,22.371,9.095,6.466,12.009
1088,0.889,37.252,10.078,32.034,22.36,8.973,6.426,11.97
1089,0.889,36.917,10.089,32.053,22.371,8.972,6.426,12.092
1090,0.895,37.047,10.042,32.043,22.367,8.931,6.385,12.093
1091,0.882,37.164,10.128,32.062,22.364,8.85,6.507,12.052
1092,0.866,37.175,10.09,32.015,22.353,8.646,6.264,11.971
1093,0.908,37.021,10.097,32.072,22.374,8.928,6.587,12.173
1094,0.912,37.116,10.078,32.053,22.364,8.646,6.387,12.053
1095,0.895,37.213,10.046,32.034,22.364,8.603,6.385,12.011
1096,0.895,37.281,10.093,32.053,22.367,8.602,6.466,12.214
1097,0.912,36.936,10.085,32.043,22.364,8.44,6.345,11.972
1098,0.908,37.096,10.039,32.062,22.364,8.519,6.425,12.214
1099,0.908,37.193,10.058,32.043,22.367,8.358,6.344,11.972
1100,0.918,37.472,10.14,32.043,22.364,8.437,6.303,12.133
1101,0.922,36.976,10.07,32.034,22.36,8.316,6.343,12.053
1102,0.922,37.106,10.066,32.043,22.36,8.315,6.384,12.093
1103,0.918,37.193,10.085,32.091,22.36,8.274,6.344,12.052
1104,0.902,37.002,10.101,32.034,22.36,8.193,6.384,12.052
1105,0.886,37.0,10.082,32.014,22.353,8.11,6.181,12.052
1106,0.902,37.163,10.12,32.081,22.378,8.272,6.504,12.296
1107,0.876,37.203,10.148,32.053,22.367,8.03,6.345,12.258
1108,0.885,36.849,10.07,32.053,22.36,8.068,6.303,12.176
1109,0.898,36.97,10.171,32.082,22.371,8.191,6.343,12.378
1110,0.873,37.077,10.133,32.053,22.357,7.988,6.221,12.258
1111,0.885,37.164,10.14,32.063,22.371,8.108,6.342,12.339
1112,0.882,36.849,10.113,32.111,22.357,8.028,6.303,12.258
1113,0.898,36.989,10.047,32.063,22.364,8.19,6.384,12.135
1114,0.905,37.087,10.081,32.053,22.367,8.232,6.385,12.175
1115,0.902,37.136,10.078,32.072,22.364,8.273,6.385,12.216
1116,0.912,36.925,10.171,32.053,22.367,8.355,6.385,12.135
1117,0.925,37.096,10.121,32.091,22.367,8.519,6.466,12.093
1118,0.922,37.145,10.086,32.025,22.353,8.317,6.345,11.89
1119,0.925,37.261,10.085,32.072,22.364,8.477,6.506,12.01
1120,0.925,36.811,10.12,32.063,22.371,8.601,6.427,11.97
1121,0.935,36.931,10.07,32.091,22.364,8.48,6.344,11.807
1122,0.938,37.067,10.089,32.092,22.371,8.642,6.506,11.887
1123,0.912,37.059,10.105,32.053,22.36,8.481,6.386,11.766
1124,0.915,36.828,10.14,32.072,22.371,8.642,6.425,11.887
1125,0.918,36.932,10.113,32.063,22.367,8.603,6.426,11.806
1126,0.909,37.057,10.105,32.063,22.367,8.684,6.385,11.928
1127,0.902,37.432,10.097,32.063,22.36,8.644,6.385,11.888
1128,0.905,36.938,10.101,32.072,22.364,8.644,6.344,11.928
1129,0.892,37.038,10.144,32.034,22.36,8.603,6.303,11.848
1130,0.912,37.231,10.098,32.11,22.378,8.724,6.587,12.091
1131,0.899,36.753,10.117,32.063,22.367,8.603,6.387,11.849
1132,0.889,36.72,10.09,32.063,22.36,8.48,6.344,11.806
1133,0.905,36.863,10.16,32.082,22.371,8.601,6.425,11.887
1134,0.905,36.913,10.145,32.044,22.354,8.48,6.385,11.725
1135,0.902,36.932,10.191,32.091,22.367,8.438,6.385,12.008
1136,0.905,37.048,10.024,32.073,22.364,8.438,6.385,12.255
1137,0.931,37.183,10.081,32.082,22.36,8.397,6.425,12.745
1138,0.935,37.261,10.136,32.082,22.367,8.316,6.385,13.197
1139,0.925,36.552,10.043,32.063,22.364,8.274,6.466,13.69
1140,0.944,36.699,10.108,32.072,22.367,8.233,6.507,14.183
1141,0.964,36.854,10.066,32.101,22.381,8.273,6.589,14.838
1142,0.935,36.865,10.167,32.044,22.364,8.071,6.346,15.048
1143,0.931,36.673,10.121,32.082,22.371,8.15,6.547,15.538
1144,0.915,36.844,10.074,32.082,22.367,8.069,6.549,15.868
1145,0.912,36.903,10.046,32.072,22.36,7.987,6.427,15.953
1146,0.912,36.999,10.05,32.091,22.364,8.068,6.548,16.076
1147,0.905,36.876,10.112,32.053,22.36,7.946,6.508,16.077
1148,0.902,37.038,10.125,32.082,22.371,8.026,6.549,16.158
1149,0.908,37.135,10.14,32.082,22.367,7.946,6.508,16.2
1150,0.908,37.184,10.063,32.092,22.371,7.986,6.549,15.997
1151,0.905,36.657,10.14,32.082,22.367,7.905,6.59,15.913
1152,0.912,36.786,10.109,32.101,22.367,7.863,6.549,15.79
1153,0.908,36.883,10.117,32.082,22.36,7.782,6.468,15.586
1154,0.925,37.258,10.027,32.13,22.374,7.944,6.751,15.584
1155,0.918,36.706,10.034,32.073,22.354,7.701,6.47,15.218
1156,0.925,36.834,10.065,32.101,22.367,7.74,6.589,15.255
1157,0.931,36.941,10.066,32.101,22.364,7.74,6.59,15.093
1158,0.928,36.703,10.081,32.092,22.364,7.618,6.427,14.847
1159,0.931,36.748,10.066,32.092,22.367,7.698,6.629,14.763
1160,0.918,36.835,10.12,32.082,22.353,7.536,6.468,14.397
1161,0.941,36.98,10.109,32.092,22.367,7.575,6.548,14.393
1162,0.941,36.54,10.093,32.082,22.364,7.535,6.468,14.19
1163,0.938,36.67,10.117,32.14,22.371,7.575,6.548,14.269
1164,0.919,36.777,10.058,32.092,22.36,7.454,6.468,14.107
1165,0.915,36.874,10.034,32.092,22.36,7.452,6.467,14.024
1166,0.905,36.606,10.007,32.082,22.357,7.412,6.467,13.983
1167,0.921,36.785,10.073,32.12,22.378,7.574,6.629,14.063
1168,0.896,36.874,10.007,32.082,22.361,7.413,6.468,13.82
1169,0.902,36.961,10.081,32.092,22.367,7.493,6.507,13.859
1170,0.892,36.597,10.128,32.101,22.367,7.697,6.508,13.696
1171,0.892,36.718,10.09,32.082,22.36,7.74,6.427,13.573
1172,0.912,36.863,10.128,32.111,22.364,7.984,6.507,13.49
1173,0.905,36.894,10.082,32.082,22.364,8.108,6.386,13.367
1174,0.921,36.616,10.113,32.12,22.364,8.475,6.507,13.325
1175,0.912,36.738,10.105,32.073,22.367,8.56,6.427,13.122
1176,0.922,36.873,10.156,32.091,22.364,8.846,6.507,13.12
1177,0.922,36.884,10.074,32.092,22.364,9.011,6.549,12.957
1178,0.935,36.616,10.109,32.111,22.371,9.298,6.59,12.956
1179,0.909,36.69,10.109,32.063,22.357,9.26,6.346,12.711
1180,0.925,36.806,10.07,32.101,22.371,9.625,6.547,12.831
1181,0.925,36.912,10.089,32.092,22.371,9.751,6.549,12.629
1182,0.922,36.597,10.054,32.073,22.36,9.752,6.427,12.546
1183,0.915,36.728,10.128,32.091,22.374,9.955,6.588,12.626
1184,0.905,36.806,10.117,32.082,22.361,9.998,6.509,12.546
1185,0.899,36.557,10.183,32.101,22.367,10.161,6.508,12.586
1186,0.892,36.536,10.032,32.082,22.364,10.244,6.549,12.545
1187,0.889,36.67,10.108,32.101,22.364,10.326,6.59,12.626
1188,0.895,36.748,10.105,32.092,22.371,10.327,6.509,12.586
1189,0.889,36.499,10.074,32.082,22.367,10.327,6.63,12.545
1190,0.859,36.612,10.124,32.082,22.357,10.286,6.509,12.464
1191,0.888,36.786,10.047,32.13,22.374,10.449,6.67,12.788
1192,0.879,36.845,10.116,32.092,22.364,10.328,6.591,12.466
1193,0.879,36.424,10.09,32.092,22.364,10.408,6.549,12.503
1194,0.908,36.573,10.183,32.101,22.367,10.491,6.63,12.504
1195,0.918,36.67,10.051,32.082,22.36,10.329,6.509,12.301
1196,0.918,36.786,10.136,32.101,22.367,10.49,6.549,12.38
1197,0.896,36.471,10.059,32.092,22.36,10.369,6.549,12.299
1198,0.902,36.631,10.167,32.101,22.364,10.368,6.59,12.298
1199,0.912,36.719,10.082,32.149,22.367,10.328,6.549,12.298
1200,0.922,36.787,10.078,32.092,22.36,10.286,6.549,12.258
1201,0.902,36.461,10.077,32.111,22.36,10.245,6.508,12.176
1202,0.921,36.592,10.132,32.111,22.374,10.286,6.63,12.175
1203,0.896,36.68,10.047,32.063,22.357,10.001,6.387,12.094
1204,0.889,36.748,10.054,32.12,22.367,10.08,6.547,12.296
1205,0.889,36.432,10.066,32.121,22.364,10.04,6.549,12.217
1206,0.885,36.554,10.038,32.102,22.36,9.877,6.427,12.216
1207,0.892,36.689,10.132,32.111,22.371,9.835,6.507,12.298
1208,0.876,36.671,10.066,32.092,22.357,9.672,6.467,12.217
1209,0.866,36.518,10.089,32.12,22.371,9.67,6.467,12.298
1210,0.856,36.641,10.074,32.121,22.36,9.507,6.426,12.217
1211,0.853,36.748,10.136,32.111,22.364,9.506,6.426,12.257
1212,0.862,36.538,10.051,32.101,22.364,9.384,6.426,12.095
1213,0.885,36.555,10.011,32.121,22.36,9.382,6.466,12.215
1214,0.866,36.641,9.983,32.102,22.357,9.261,6.386,12.054
1215,0.885,36.805,10.088,32.149,22.374,9.341,6.588,12.174
1216,0.869,36.337,10.093,32.111,22.364,9.097,6.387,11.972
1217,0.872,36.438,10.136,32.121,22.36,9.095,6.466,12.051
1218,0.889,36.592,10.137,32.14,22.371,9.176,6.467,12.093
1219,0.882,36.642,10.062,32.102,22.357,8.893,6.304,11.808
1220,0.895,36.354,10.179,32.13,22.367,8.971,6.465,11.887
1221,0.892,36.476,10.094,32.102,22.36,8.809,6.304,11.725
1222,0.882,36.631,10.136,32.149,22.371,8.848,6.384,11.723
1223,0.856,36.671,10.059,32.111,22.367,8.767,6.303,11.642
1224,0.859,36.326,10.112,32.101,22.364,8.807,6.384,11.804
1225,0.859,36.476,10.078,32.13,22.364,8.808,6.425,11.684
1226,0.849,36.573,10.159,32.13,22.371,8.848,6.385,11.764
1227,0.836,36.603,10.106,32.092,22.354,8.727,6.222,11.642
1228,0.852,36.45,10.078,32.14,22.371,9.051,6.464,11.967
1229,0.84,36.573,10.144,32.13,22.371,9.095,6.386,11.889
1230,0.83,36.67,10.074,32.121,22.364,9.054,6.344,11.847
1231,0.833,36.709,10.042,32.159,22.367,9.135,6.384,11.969
1232,0.839,36.336,10.026,32.102,22.364,9.055,6.222,11.807
1233,0.856,36.495,10.085,32.13,22.367,9.217,6.302,11.887
1234,0.84,36.573,10.07,32.121,22.364,9.218,6.302,11.685
1235,0.839,36.593,10.136,32.121,22.364,9.259,6.302,11.804
1236,0.852,36.421,10.105,32.121,22.371,9.259,6.343,11.724
1237,0.869,36.553,10.058,32.13,22.367,9.3,6.303,11.723
1238,0.872,36.66,10.124,32.13,22.364,9.26,6.302,11.723
1239,0.872,36.403,10.133,32.14,22.371,9.3,6.343,11.764
1240,0.846,36.304,10.078,32.111,22.354,9.178,6.221,11.439
1241,0.869,36.504,10.062,32.149,22.378,9.34,6.383,11.558
1242,0.869,36.583,10.136,32.131,22.371,9.342,6.303,11.6
1243,0.843,36.248,10.098,32.092,22.364,9.26,6.221,11.519
1244,0.849,36.389,10.175,32.13,22.364,9.463,6.342,11.559
1245,0.836,36.505,10.114,32.111,22.36,9.343,6.221,11.478
1246,0.83,36.612,10.117,32.14,22.367,9.464,6.302,11.68
1247,0.82,36.258,10.086,32.111,22.364,9.465,6.221,11.723
1248,0.826,36.418,10.128,32.121,22.367,9.465,6.302,11.723
1249,0.826,36.515,10.109,32.121,22.364,9.546,6.221,11.723
1250,0.826,36.602,10.078,32.14,22.367,9.547,6.302,11.723
1251,0.833,36.296,10.117,32.15,22.367,9.506,6.262,11.764
1252,0.833,36.456,10.129,32.15,22.367,9.587,6.302,11.764
1253,0.826,36.506,10.14,32.102,22.36,9.385,6.058,11.602
1254,0.865,36.631,10.144,32.159,22.378,9.627,6.381,11.803
1255,0.866,36.249,10.024,32.15,22.371,9.507,6.222,11.765
1256,0.859,36.37,10.061,32.111,22.36,9.465,6.22,11.683
1257,0.869,36.496,10.054,32.13,22.371,9.587,6.261,11.723
1258,0.869,36.497,10.093,32.102,22.364,9.507,6.139,11.642
1259,0.885,36.295,10.085,32.14,22.367,9.628,6.219,11.682
1260,0.905,36.408,10.113,32.121,22.36,9.507,6.139,11.52
1261,0.899,36.505,10.097,32.13,22.364,9.546,6.219,11.64
1262,0.905,36.535,10.132,32.13,22.367,9.466,6.18,11.56
1263,0.905,36.325,10.105,32.13,22.367,9.465,6.179,11.6
1264,0.902,36.466,10.0,32.14,22.36,9.465,6.22,11.722
1265,0.912,36.573,10.139,32.15,22.371,9.465,6.22,11.805
1266,0.905,36.344,10.027,32.083,22.357,9.262,6.017,11.765
1267,0.905,36.342,10.167,32.149,22.367,9.341,6.259,12.212
1268,0.918,36.476,10.106,32.15,22.367,9.26,6.139,12.379
1269,0.909,36.544,10.121,32.111,22.36,9.178,6.098,12.625
1270,0.915,36.334,10.16,32.14,22.367,9.177,6.178,13.034
1271,0.899,36.418,10.102,32.111,22.364,9.096,6.098,13.404
1272,0.889,36.553,10.062,32.14,22.367,9.095,6.178,13.854
1273,0.908,36.632,10.038,32.121,22.357,9.014,6.098,14.184
1274,0.931,36.182,10.112,32.14,22.367,9.094,6.219,14.554
1275,0.925,36.321,10.082,32.13,22.357,9.054,6.139,14.76
1276,0.935,36.428,10.159,32.121,22.364,9.176,6.219,15.047
1277,0.945,36.487,10.043,32.13,22.364,9.177,6.139,15.172
1278,0.977,36.362,10.112,32.169,22.381,9.462,6.301,15.458
1279,1.003,36.447,10.058,32.112,22.361,9.343,6.099,15.298
1280,1.02,36.554,10.14,32.101,22.364,9.504,6.219,15.418
1281,1.043,36.641,10.004,32.13,22.367,9.587,6.261,15.42
1282,1.037,36.249,10.088,32.121,22.364,9.547,6.221,15.379
1283,1.05,36.408,10.007,32.121,22.371,9.71,6.18,15.378
1284,1.05,36.496,10.108,32.121,22.364,9.63,6.179,15.175
1285,1.06,36.535,10.086,32.121,22.364,9.71,6.261,15.173
1286,1.05,36.353,10.136,32.121,22.364,9.67,6.139,14.97
1287,1.04,36.505,10.129,32.149,22.367,9.711,6.219,14.887
1288,1.033,36.612,10.078,32.121,22.367,9.711,6.22,14.845
1289,1.033,36.632,10.163,32.13,22.367,9.711,6.302,14.845
1290,0.998,36.326,10.059,32.102,22.353,9.63,6.099,14.682
1291,1.01,36.514,10.101,32.168,22.378,9.873,6.341,14.843
1292,1.01,36.593,10.043,32.121,22.364,9.713,6.221,14.601
1293,1.017,36.45,10.116,32.13,22.364,9.67,6.22,14.476
1294,1.027,36.41,10.164,32.14,22.374,9.792,6.302,14.394
1295,1.01,36.496,10.137,32.121,22.361,9.753,6.18,14.108
1296,0.997,36.612,10.086,32.149,22.367,9.874,6.342,14.105
1297,0.997,36.249,10.066,32.121,22.36,9.957,6.221,13.983
1298,1.007,36.322,10.14,32.149,22.364,10.12,6.261,13.982
1299,0.984,36.447,10.051,32.131,22.364,10.244,6.221,13.86
1300,0.997,36.554,10.097,32.121,22.367,10.448,6.261,13.696
1301,0.991,36.344,10.046,32.13,22.364,10.654,6.221,13.613
1302,0.984,36.486,10.124,32.14,22.371,10.859,6.261,13.572
1303,0.948,36.554,10.062,32.102,22.357,10.902,6.139,13.287
1304,0.945,36.67,10.132,32.149,22.378,11.309,6.341,13.406
1305,0.925,36.335,10.019,32.14,22.367,11.232,6.262,13.326
1306,0.902,36.466,10.092,32.121,22.36,11.271,6.262,13.366
1307,0.902,36.612,10.121,32.14,22.371,11.394,6.262,13.488
1308,0.879,36.651,10.136,32.121,22.36,11.395,6.262,13.367
1309,0.859,36.316,10.133,32.14,22.367,11.436,6.302,13.529
1310,0.84,36.447,10.078,32.14,22.36,11.355,6.262,13.49
1311,0.836,36.573,10.136,32.13,22.36,11.395,6.302,13.449
1312,0.813,36.584,10.133,32.13,22.364,11.314,6.221,13.448
1313,0.807,36.373,10.117,32.14,22.36,11.313,6.302,13.326
1314,0.803,36.496,10.031,32.121,22.357,11.069,6.262,13.284
1315,0.82,36.669,10.089,32.159,22.381,11.148,6.424,13.447
1316,0.813,36.633,10.019,32.121,22.354,10.864,6.222,13.164
1317,0.816,36.421,10.116,32.14,22.364,10.861,6.342,13.283
1318,0.803,36.573,10.058,32.121,22.364,10.78,6.303,13.203
1319,0.797,36.641,10.054,32.13,22.36,10.576,6.221,13.08
1320,0.826,36.498,10.144,32.13,22.364,10.574,6.302,13.119
1321,0.81,36.343,10.09,32.102,22.36,10.411,6.221,12.876
1322,0.816,36.514,10.089,32.13,22.367,10.369,6.302,12.995
1323,0.8,36.593,10.054,32.121,22.357,10.246,6.262,12.875
1324,0.8,36.383,10.066,32.13,22.367,10.286,6.262,12.914
1325,0.807,36.457,10.034,32.121,22.364,10.164,6.221,12.874
1326,0.8,36.573,10.073,32.121,22.364,10.041,6.22,12.751
1327,0.774,36.632,10.081,32.111,22.35,9.877,6.18,12.709
1328,0.787,36.373,10.093,32.159,22.374,9.997,6.301,12.912
1329,0.774,36.476,10.124,32.121,22.361,9.836,6.262,12.711
1330,0.78,36.583,10.125,32.121,22.357,9.631,6.18,12.709
1331,0.764,36.67,10.117,32.14,22.364,9.751,6.301,12.709
1332,0.767,36.259,10.054,32.121,22.364,9.508,6.14,12.546
1333,0.78,36.427,10.12,32.14,22.374,9.587,6.219,12.626
1334,0.774,36.515,10.07,32.121,22.361,9.466,6.139,12.424
1335,0.774,36.574,10.116,32.121,22.36,9.546,6.179,12.462
1336,0.79,36.392,10.175,32.13,22.364,9.506,6.139,12.341
1337,0.8,36.563,10.039,32.14,22.364,9.546,6.179,12.339
1338,0.8,36.651,10.089,32.13,22.36,9.547,6.179,12.299
1339,0.794,36.709,10.101,32.13,22.367,9.547,6.098,12.258
1340,0.777,36.298,10.113,32.102,22.353,9.384,6.056,12.013
1341,0.797,36.485,10.09,32.207,22.374,9.627,6.259,12.255
1342,0.794,36.593,10.105,32.131,22.364,9.507,6.18,12.095
1343,0.784,36.584,10.015,32.121,22.364,9.425,6.017,12.012
1344,0.767,36.344,10.171,32.13,22.371,9.546,6.218,12.011
1345,0.751,36.428,10.141,32.102,22.357,9.425,6.098,11.889
1346,0.754,36.554,10.148,32.14,22.374,9.505,6.178,11.969
1347,0.748,36.516,10.094,32.102,22.361,9.425,6.098,11.929
1348,0.751,36.42,10.066,32.14,22.36,9.627,6.138,12.01
1349,0.748,36.534,10.128,32.14,22.36,9.588,6.057,11.97
1350,0.741,36.622,10.043,32.13,22.36,9.629,6.178,11.97
1351,0.747,36.316,10.108,32.121,22.364,9.67,6.139,11.929
1352,0.773,36.418,10.035,32.13,22.371,9.751,6.138,11.97
1353,0.751,36.486,10.159,32.092,22.354,9.59,5.976,11.726
1354,0.777,36.631,10.129,32.14,22.371,9.751,6.259,11.968
1355,0.771,36.326,10.176,32.13,22.36,9.712,6.139,11.767
1356,0.767,36.457,10.106,32.178,22.36,9.63,6.057,11.724
1357,0.79,36.592,10.082,32.141,22.367,9.629,6.178,11.886
1358,0.777,36.622,10.144,32.092,22.36,9.548,6.017,11.685
1359,0.793,36.172,10.051,32.14,22.367,9.588,6.178,11.804
1360,0.803,36.283,10.089,32.111,22.36,9.507,6.017,11.684
1361,0.81,36.418,10.054,32.121,22.364,9.465,6.137,11.683
1362,0.797,36.458,10.116,32.092,22.36,9.383,6.098,11.683
1363,0.774,36.247,10.078,32.12,22.36,9.342,6.138,11.723
1364,0.764,36.37,10.089,32.14,22.364,9.301,6.016,11.764
1365,0.761,36.496,10.058,32.14,22.367,9.26,6.137,11.764
1366,0.735,36.516,10.042,32.092,22.35,9.056,5.976,11.642
1367,0.764,36.363,10.14,32.159,22.381,9.257,6.218,11.967
1368,0.748,36.467,10.066,32.121,22.368,9.097,6.18,11.807
1369,0.747,36.564,10.116,32.111,22.364,9.014,6.057,11.968
1370,0.751,36.593,10.058,32.13,22.367,9.013,6.178,11.97
1371,0.741,36.373,10.14,32.111,22.36,8.85,6.139,11.807
1372,0.744,36.524,10.141,32.13,22.371,8.93,6.138,11.887
1373,0.747,36.603,10.059,32.121,22.36,8.768,6.138,11.888
1374,0.77,36.507,10.12,32.159,22.367,8.726,6.179,11.888
1375,0.761,36.305,10.078,32.121,22.364,8.644,6.179,11.888
1376,0.77,36.437,10.089,32.121,22.364,8.725,6.179,11.888
1377,0.77,36.515,10.113,32.102,22.371,8.644,6.179,11.847
1378,0.774,36.267,10.136,32.111,22.367,8.521,6.22,11.887
1379,0.754,36.351,10.078,32.082,22.353,8.52,6.139,11.644
1380,0.787,36.534,10.187,32.13,22.381,8.642,6.301,11.885
1381,0.774,36.564,10.129,32.111,22.364,8.562,6.221,11.685
1382,0.758,36.152,10.086,32.101,22.357,8.521,6.098,11.683
1383,0.754,36.311,10.085,32.121,22.364,8.561,6.26,11.764
1384,0.744,36.389,10.097,32.082,22.357,8.277,6.099,11.602
1385,0.76,36.496,10.054,32.12,22.367,8.436,6.219,11.722
1386,0.754,36.43,10.136,32.092,22.364,8.316,6.098,11.642
1387,0.754,36.592,10.02,32.111,22.367,8.274,6.178,11.763
1388,0.754,36.689,10.073,32.101,22.364,8.233,6.179,11.724
1389,0.757,36.748,10.144,32.121,22.367,8.151,6.179,11.723
1390,0.754,36.087,10.105,32.121,22.367,8.15,6.22,11.764
1391,0.787,36.262,10.054,32.14,22.374,8.273,6.261,11.846
1392,0.784,36.331,10.073,32.092,22.354,8.03,6.058,11.643
1393,0.829,36.399,10.101,32.111,22.371,8.109,6.259,11.885
1394,0.872,36.275,10.113,32.101,22.367,8.069,6.221,12.05
1395,0.885,36.379,10.105,32.082,22.357,7.906,6.18,12.337
1396,0.938,36.515,10.101,32.12,22.371,7.985,6.22,12.909
1397,0.974,36.526,10.132,32.102,22.357,7.824,6.139,13.321
1398,1.013,36.171,10.074,32.111,22.367,7.903,6.138,14.016
1399,1.059,36.283,10.144,32.101,22.364,7.782,6.138,14.592
1400,1.095,36.408,10.109,32.111,22.367,7.822,6.098,15.208
1401,1.132,36.419,10.093,32.092,22.36,7.822,6.138,15.661
1402,1.168,36.266,10.113,32.073,22.36,7.781,6.179,16.032
1403,1.168,36.37,10.078,32.063,22.364,7.74,6.057,16.361
1404,1.201,36.524,10.198,32.13,22.381,7.984,6.259,16.73
1405,1.243,36.19,10.09,32.083,22.361,7.864,6.058,16.734
1406,1.279,36.283,10.101,32.101,22.36,7.904,6.097,16.734
1407,1.299,36.428,10.027,32.111,22.371,7.945,6.138,16.856
1408,1.319,36.496,10.104,32.063,22.354,7.864,5.976,16.654
1409,1.352,36.084,10.066,32.101,22.367,7.944,6.096,16.733
1410,1.342,36.234,10.112,32.092,22.357,7.986,6.056,16.49
1411,1.345,36.341,10.132,32.111,22.371,8.108,6.097,16.406
1412,1.339,36.428,10.113,32.101,22.36,8.069,6.138,16.202
1413,1.342,36.199,10.16,32.082,22.367,8.191,6.138,15.956
1414,1.375,36.312,10.113,32.082,22.371,8.273,6.138,15.831
1415,1.427,36.447,10.105,32.092,22.364,8.518,6.179,15.586
1416,1.46,36.487,10.082,32.073,22.357,8.398,6.017,15.381
1417,1.551,36.247,10.085,32.111,22.371,8.763,6.3,15.378
1418,1.64,36.36,10.085,32.082,22.36,8.767,6.14,15.094
1419,1.68,36.467,10.12,32.092,22.36,8.889,6.098,14.928
1420,1.726,36.525,10.066,32.101,22.36,9.093,6.138,14.764
1421,1.743,36.171,10.148,32.053,22.357,9.136,6.057,14.356
1422,1.733,36.34,10.125,32.091,22.367,9.299,6.178,14.393
1423,1.688,36.428,10.152,32.063,22.36,9.341,6.057,14.19
1424,1.622,36.477,10.035,32.091,22.364,9.423,6.137,14.106
1425,1.501,36.218,10.116,32.063,22.364,9.424,6.098,13.983
1426,1.344,36.35,10.07,32.082,22.364,9.424,6.138,14.104
1427,1.196,36.447,10.116,32.072,22.364,9.505,6.138,14.105
1428,1.054,36.573,10.086,32.111,22.371,9.587,6.179,14.187
1429,0.903,36.411,10.046,32.054,22.354,9.425,5.976,14.065
1430,0.801,36.573,10.151,32.101,22.371,9.668,6.177,14.349
1431,0.745,36.651,10.102,32.082,22.367,9.548,6.139,14.393
1432,0.653,35.961,10.113,32.072,22.36,9.466,6.057,14.434
1433,0.607,36.002,9.961,32.101,22.367,9.505,6.056,14.597
1434,0.548,36.127,10.084,32.053,22.36,9.384,6.056,14.598
1435,0.498,36.234,10.081,32.091,22.357,9.464,6.056,14.72
1436,0.452,36.005,10.105,32.044,22.36,9.383,6.056,14.64
1437,0.452,36.156,10.168,32.072,22.36,9.382,6.097,14.761
1438,0.439,36.273,10.117,32.072,22.367,9.423,6.056,14.681
1439,0.429,36.351,10.109,32.063,22.364,9.302,6.097,14.721
1440,0.445,36.639,10.117,32.043,22.36,9.26,6.097,14.599
1441,0.432,36.815,10.105,32.091,22.378,9.341,6.138,14.558
1442,0.39,36.874,10.043,32.063,22.354,9.138,5.976,14.354
1443,0.38,36.99,10.12,32.082,22.371,9.258,6.137,14.555
1444,0.373,35.648,10.066,32.082,22.371,9.259,6.138,14.516
1445,0.37,35.74,10.144,32.044,22.36,9.178,6.057,14.353
1446,0.392,35.904,10.145,32.053,22.367,9.259,6.097,14.474
1447,0.383,35.925,10.098,32.043,22.357,9.137,5.975,14.353
1448,0.419,36.261,10.117,32.072,22.374,9.217,6.137,14.514
1449,0.448,36.36,10.109,32.053,22.367,9.137,5.976,14.475
1450,0.478,36.476,10.164,32.063,22.364,9.095,6.096,14.638
1451,0.498,36.516,10.082,32.063,22.367,9.095,6.056,14.639
1452,0.543,35.97,10.058,32.072,22.364,9.095,6.056,14.68
1453,0.596,36.089,10.011,32.072,22.367,9.136,6.056,14.68
1454,0.652,36.224,10.085,32.072,22.371,9.095,6.178,14.68
1455,0.672,36.321,10.128,32.005,22.357,8.851,5.976,14.518
1456,0.701,36.131,10.109,32.072,22.371,8.971,6.055,14.76
1457,0.714,36.244,10.105,32.063,22.364,8.85,6.097,14.763
1458,0.728,36.341,10.043,32.043,22.36,8.849,6.056,14.681
1459,0.741,36.016,10.19,32.053,22.367,8.808,6.137,14.721
1460,0.731,36.041,10.036,32.034,22.357,8.645,5.976,14.559
1461,0.77,36.185,10.104,32.053,22.367,8.644,6.137,14.516
1462,0.777,36.263,10.058,32.043,22.367,8.521,6.057,14.272
1463,0.787,35.938,10.105,32.053,22.367,8.52,6.097,14.31
1464,0.754,36.069,10.113,32.043,22.36,8.398,6.097,14.189
1465,0.764,36.195,10.097,32.034,22.367,8.397,6.138,14.106
1466,0.757,36.264,10.082,32.053,22.367,8.356,6.098,14.105
1467,0.744,35.919,10.027,32.053,22.36,8.275,6.056,14.065
1468,0.728,36.05,10.108,32.005,22.36,8.193,5.934,13.861
1469,0.747,36.224,10.05,32.062,22.374,8.395,6.177,14.022
1470,0.731,36.264,10.085,32.043,22.364,8.356,6.017,13.779
1471,0.721,35.9,10.074,32.034,22.367,8.356,6.056,13.696
1472,0.731,36.059,10.152,32.053,22.371,8.437,6.137,13.776
1473,0.738,36.157,10.086,32.005,22.357,8.357,6.016,13.533
1474,0.78,36.225,10.152,32.024,22.364,8.519,6.096,13.612
1475,0.774,35.995,9.996,32.014,22.357,8.479,6.056,13.45
1476,0.774,36.166,10.092,32.043,22.364,8.601,6.137,13.53
1477,0.784,36.263,10.117,32.015,22.36,8.602,6.016,13.449
1478,0.78,36.293,10.148,32.043,22.357,8.643,6.096,13.408
1479,0.78,35.967,10.129,32.015,22.364,8.725,6.056,13.407
1480,0.797,36.098,10.043,32.014,22.367,8.766,6.056,13.367
1481,0.8,36.167,10.124,31.985,22.357,8.645,5.975,13.204
1482,0.8,36.474,10.113,32.043,22.374,8.969,6.137,13.283
1483,0.784,36.046,10.101,32.005,22.364,8.728,5.976,13.04
1484,0.774,36.195,9.992,32.024,22.371,8.807,6.055,13.16
1485,0.777,36.312,10.069,32.043,22.364,8.808,6.015,13.12
1486,0.771,35.92,10.046,31.986,22.36,8.686,5.974,12.957
1487,0.764,35.983,10.136,32.014,22.367,8.807,6.096,13.037
1488,0.757,36.06,10.082,32.005,22.357,8.686,5.975,12.916
1489,0.757,36.195,10.07,32.005,22.367,8.766,6.015,13.077
1490,0.764,35.918,10.113,31.995,22.36,8.685,6.015,13.241
1491,0.761,36.059,10.16,32.004,22.371,8.725,6.056,13.528
1492,0.764,36.166,10.113,32.005,22.36,8.685,6.015,13.774
1493,0.777,36.283,10.082,32.024,22.36,8.725,6.056,14.143
1494,0.774,35.823,10.089,31.976,22.357,8.644,5.893,14.634
1495,0.784,36.03,10.05,32.033,22.378,8.847,6.176,15.168
1496,0.771,36.109,10.112,31.967,22.364,8.767,5.976,15.336
1497,0.796,36.196,10.093,31.995,22.371,9.011,6.096,15.663
1498,0.813,35.995,10.136,31.995,22.371,9.013,6.097,15.991
1499,0.807,36.108,10.078,31.966,22.364,9.094,6.016,15.995
1500,0.82,36.244,10.124,31.985,22.371,9.339,6.096,16.157
1501,0.8,36.274,10.097,31.976,22.36,9.382,5.975,16.159
1502,0.813,35.881,10.07,32.023,22.367,9.586,6.015,16.24
1503,0.81,35.982,10.097,31.986,22.367,9.507,5.974,16.2
1504,0.794,36.108,10.078,31.985,22.364,9.709,6.055,16.119
1505,0.79,36.148,10.144,31.985,22.36,9.752,6.097,16.118
1506,0.797,35.928,10.066,31.966,22.36,9.915,5.975,16.118
1507,0.774,36.031,10.089,31.966,22.353,9.876,5.974,15.996
1508,0.797,36.195,10.027,32.033,22.371,10.119,6.137,16.076
1509,0.797,36.465,10.085,31.947,22.36,9.878,5.976,15.67
1510,0.787,35.979,10.113,31.985,22.364,10.079,6.055,15.666
1511,0.787,36.108,10.027,31.985,22.367,10.04,6.097,15.544
1512,0.784,36.176,10.077,31.956,22.36,9.999,5.975,15.177
1513,0.8,35.928,10.015,31.985,22.364,10.08,6.096,15.173
1514,0.8,35.925,10.147,31.966,22.36,9.878,5.975,14.889
1515,0.81,36.079,10.106,31.956,22.367,9.997,6.055,14.845
1516,0.797,36.157,10.16,31.947,22.36,9.917,6.015,14.763
1517,0.813,35.784,10.098,31.966,22.364,9.835,6.056,14.763
1518,0.813,35.933,10.105,31.937,22.364,9.916,5.975,14.6
1519,0.816,36.05,10.129,31.966,22.371,9.835,6.015,14.476
1520,0.823,36.099,10.031,31.928,22.36,9.753,6.015,14.353
1521,0.836,35.812,10.116,31.975,22.378,9.955,6.178,14.393
1522,0.833,35.895,10.054,31.928,22.364,9.754,5.895,14.068
1523,0.823,36.021,10.148,31.946,22.364,9.915,6.014,14.064
1524,0.81,36.118,10.168,31.946,22.367,9.998,6.056,14.024
1525,0.79,35.927,10.168,31.918,22.353,9.917,5.893,13.942
1526,0.8,36.098,10.063,31.956,22.367,10.079,6.054,14.063
1527,0.8,36.186,10.066,31.908,22.36,10.04,5.934,14.024
1528,0.803,36.263,10.148,31.937,22.371,10.202,6.055,14.064
1529,0.79,35.814,10.098,31.918,22.36,10.163,5.975,13.983
1530,0.784,35.962,10.128,31.946,22.371,10.285,5.933,14.023
1531,0.787,36.06,10.062,31.937,22.36,10.286,6.014,13.861
1532,0.803,36.128,10.112,31.927,22.367,10.449,5.974,13.9
1533,0.787,35.822,10.07,31.889,22.353,10.328,5.933,13.697
1534,0.819,36.02,10.113,31.936,22.378,10.652,6.096,13.898
1535,0.813,36.089,10.027,31.908,22.367,10.452,6.016,13.656
1536,0.813,36.473,10.065,31.927,22.364,10.45,6.015,13.654
1537,0.839,35.979,10.073,31.927,22.367,10.532,6.015,13.654
1538,0.826,36.079,10.167,31.898,22.357,10.41,5.934,13.491
1539,0.839,36.205,10.039,31.917,22.371,10.409,6.096,13.571
1540,0.836,35.717,10.12,31.898,22.36,10.328,5.935,13.327
1541,0.843,35.703,10.066,31.888,22.367,10.327,6.055,13.284
1542,0.836,35.808,10.175,31.908,22.364,10.246,6.015,13.162
1543,0.83,35.905,10.121,31.889,22.364,10.164,6.015,13.12
1544,0.826,35.858,10.105,31.898,22.367,10.122,5.974,13.12
1545,0.823,36.02,10.039,31.927,22.367,10.081,6.015,13.12
1546,0.813,36.089,10.034,31.85,22.353,9.959,5.852,12.957
1547,0.823,36.234,10.132,31.907,22.374,9.998,6.054,13.159
1548,0.817,35.794,10.059,31.879,22.367,9.917,5.975,12.998
1549,0.807,35.934,10.101,31.869,22.357,9.794,5.974,12.875
1550,0.82,36.079,10.05,31.898,22.364,9.793,6.096,12.955
1551,0.803,36.138,10.151,31.869,22.353,9.712,5.975,12.793
1552,0.816,35.793,10.121,31.888,22.371,9.792,6.015,12.791
1553,0.813,35.905,10.058,31.85,22.36,9.671,5.974,12.588
1554,0.836,36.011,9.984,31.888,22.364,9.711,6.015,12.545
1555,0.83,36.07,10.002,31.86,22.36,9.67,6.015,12.382
1556,0.839,35.86,10.049,31.859,22.364,9.751,6.015,12.299
1557,0.849,35.973,10.097,31.869,22.36,9.712,6.056,12.298
1558,0.849,36.127,10.066,31.888,22.371,9.67,6.097,12.217
1559,0.84,36.138,10.054,31.869,22.36,9.629,5.975,12.054
1560,0.872,35.86,10.128,31.888,22.378,9.751,6.137,12.133
1561,0.853,35.944,10.148,31.831,22.354,9.549,5.894,11.809
1562,0.869,36.098,10.066,31.869,22.367,9.628,6.136,12.009
1563,0.863,36.368,10.101,31.86,22.367,9.548,6.057,11.889
1564,0.853,35.796,10.058,31.831,22.357,9.425,5.893,11.766
1565,0.853,35.943,10.132,31.849,22.371,9.586,6.136,11.887
1566,0.853,36.012,10.109,31.811,22.36,9.466,5.976,11.806
1567,0.84,35.859,10.144,31.849,22.367,9.424,6.096,11.887
1568,0.83,35.877,10.137,31.821,22.36,9.342,6.016,11.806
1569,0.83,36.002,10.094,31.84,22.364,9.342,6.096,11.887
1570,0.82,36.079,10.132,31.83,22.364,9.301,6.016,11.969
1571,0.826,35.735,10.074,31.849,22.364,9.301,6.056,11.889
1572,0.839,35.847,10.089,31.831,22.367,9.26,6.015,11.766
1573,0.859,35.982,10.062,31.859,22.371,9.3,6.096,11.846
1574,0.853,36.041,10.093,31.792,22.354,9.097,6.016,11.562
1575,0.856,35.696,10.085,31.83,22.367,9.339,6.015,11.762
1576,0.853,35.827,10.148,31.84,22.374,9.26,6.056,11.724
1577,0.866,35.934,9.961,31.821,22.361,9.259,6.015,11.479
1578,0.882,36.031,10.104,31.84,22.367,9.178,6.096,11.64
1579,0.879,35.706,10.097,31.763,22.364,9.177,5.975,11.438
1580,0.898,35.885,10.109,31.801,22.367,9.299,6.137,11.477
1581,0.879,35.982,10.062,31.792,22.36,9.26,6.057,11.436
1582,0.872,36.041,10.081,31.801,22.367,9.341,6.097,11.436
1583,0.856,43.684,10.07,31.801,22.367,9.301,6.056,11.436
1584,0.859,43.771,10.14,31.811,22.367,9.301,6.137,11.477
1585,0.859,43.78,10.164,31.792,22.367,9.382,6.057,11.599
1586,0.862,43.8,10.149,31.83,22.378,9.505,6.137,11.803
1587,0.84,32.255,10.106,31.782,22.361,9.303,5.976,11.643
1588,0.862,32.397,10.074,31.83,22.367,9.504,6.177,11.885
1589,0.862,32.572,10.124,31.792,22.367,9.465,6.098,12.132
1590,0.849,32.641,10.004,31.792,22.36,9.343,5.975,12.256
1591,0.849,37.168,10.096,31.801,22.371,9.504,6.055,12.623
1592,0.83,37.309,10.101,31.773,22.36,9.384,6.015,12.668
1593,0.859,37.406,10.089,31.782,22.367,9.423,6.015,12.993
1594,0.875,35.566,10.156,31.772,22.36,9.261,6.056,13.037
1595,0.876,35.03,10.121,31.782,22.36,9.3,6.137,13.363
1596,0.882,35.168,10.058,31.782,22.367,9.301,5.976,13.447
1597,0.872,35.275,10.069,31.792,22.371,9.301,6.055,13.57
1598,0.872,35.804,10.113,31.753,22.36,9.301,6.015,13.612
1599,0.895,36.01,10.058,31.801,22.374,9.423,6.056,13.816
1600,0.879,36.08,10.085,31.744,22.35,9.22,5.975,13.615
1601,0.908,36.195,10.039,31.772,22.374,9.3,6.096,13.694
1602,0.902,35.554,10.101,31.772,22.371,9.301,6.016,13.654
1603,0.886,35.653,10.074,31.734,22.36,9.219,5.974,13.572
1604,0.889,35.798,10.152,31.743,22.371,9.34,6.055,13.612
1605,0.872,35.847,10.141,31.743,22.364,9.097,6.015,13.45
1606,0.879,35.704,10.109,31.762,22.367,9.217,6.015,13.57
1607,0.863,35.818,10.121,31.743,22.36,9.015,6.015,13.368
1608,0.853,35.943,10.144,31.753,22.367,9.135,6.056,13.447
1609,0.853,36.012,10.105,31.753,22.364,9.014,5.975,13.367
1610,0.862,35.725,10.074,31.753,22.367,8.972,6.055,13.366
1611,0.856,35.856,10.105,31.734,22.364,8.931,6.015,13.244
1612,0.862,35.982,10.109,31.762,22.374,8.931,6.096,13.243
1613,0.849,36.003,10.109,31.734,22.357,8.809,5.813,12.999
1614,0.875,35.667,10.066,31.753,22.367,8.808,6.013,13.159
1615,0.879,35.798,10.093,31.753,22.364,8.686,6.056,12.958
1616,0.879,35.866,10.097,31.715,22.357,8.603,5.934,12.915
1617,0.879,35.915,10.132,31.733,22.371,8.602,6.014,12.874
1618,0.863,35.733,10.094,31.714,22.357,8.562,5.934,12.711
1619,0.885,35.904,10.097,31.724,22.367,8.602,5.974,12.831
1620,0.911,35.983,10.082,31.724,22.364,8.521,5.893,12.751
1621,0.912,35.792,10.109,31.733,22.367,8.561,5.973,12.75
1622,0.895,35.78,10.117,31.705,22.357,8.602,5.933,12.628
1623,0.889,35.914,9.957,31.724,22.364,8.602,6.014,12.668
1624,0.869,35.992,10.096,31.743,22.367,8.602,5.974,12.546
1625,0.882,35.792,10.046,31.724,22.374,8.765,6.096,12.707
1626,0.866,35.847,9.995,31.705,22.357,8.645,5.853,12.465
1627,0.872,35.982,10.092,31.704,22.364,8.806,5.973,12.666
1628,0.843,36.089,10.078,31.714,22.371,8.848,6.015,12.668
1629,0.849,35.783,10.101,31.666,22.357,8.727,5.893,12.546
1630,0.859,35.943,10.125,31.685,22.367,8.888,6.014,12.626
1631,0.836,36.041,10.191,31.676,22.364,8.849,5.852,12.505
1632,0.849,36.137,10.059,31.695,22.364,8.93,5.973,12.504
1633,0.859,35.937,10.097,31.695,22.364,8.931,5.974,12.504
1634,0.872,36.079,10.07,31.685,22.364,9.134,5.974,12.504
1635,0.885,36.176,10.113,31.666,22.36,9.258,5.974,12.463
1636,0.889,36.244,10.097,31.666,22.364,9.259,6.015,12.463
1637,0.869,35.938,10.011,31.685,22.35,9.219,5.893,12.3
1638,0.905,36.136,10.085,31.704,22.378,9.543,6.054,12.542
1639,0.895,36.234,10.042,31.657,22.361,9.466,5.975,12.301
1640,0.899,36.245,10.143,31.647,22.371,9.587,5.974,12.339
1641,0.905,36.082,10.063,31.675,22.367,9.669,5.974,12.299
1642,0.869,36.176,10.116,31.714,22.357,9.914,5.893,12.176
1643,0.869,36.321,10.058,31.685,22.364,10.12,6.054,12.216
1644,0.863,36.313,10.12,31.647,22.364,10.081,5.975,12.176
1645,0.866,36.284,10.113,31.646,22.364,10.325,6.015,12.175
1646,0.84,36.399,10.086,31.656,22.367,10.49,6.015,12.135
1647,0.836,36.486,10.07,31.656,22.364,10.491,6.015,12.256
1648,0.843,36.276,10.081,31.637,22.364,10.532,5.974,12.217
1649,0.866,36.255,10.144,31.675,22.374,10.817,6.137,12.338
1650,0.84,36.303,10.109,31.628,22.357,10.617,5.894,12.095
1651,0.849,36.456,10.109,31.665,22.371,10.737,6.095,12.215
1652,0.836,36.381,10.035,31.656,22.367,10.738,6.056,12.135
1653,0.83,36.486,10.097,31.627,22.36,10.616,6.015,12.134
1654,0.862,36.612,10.078,31.646,22.367,10.737,6.096,12.093
1655,0.882,36.671,10.175,31.599,22.357,10.494,6.016,11.93
1656,0.879,36.355,10.121,31.636,22.371,10.614,6.056,12.01
1657,0.863,36.476,10.094,31.608,22.36,10.493,6.056,11.93
1658,0.866,36.602,10.097,31.617,22.36,10.532,6.097,11.888
1659,0.879,36.67,10.156,31.608,22.364,10.451,6.056,11.847
1660,0.879,36.422,10.098,31.608,22.364,10.45,6.056,11.887
1661,0.898,36.553,10.074,31.589,22.364,10.41,6.015,12.132
1662,0.895,36.708,10.097,31.598,22.371,10.409,6.137,12.541
1663,0.879,36.71,10.039,31.579,22.35,10.125,5.976,12.829
1664,0.856,36.566,10.116,31.627,22.364,10.284,6.096,13.686
1665,0.859,36.651,10.175,31.618,22.36,10.205,6.097,14.386
1666,0.856,36.748,10.051,31.579,22.36,10.082,5.975,15.165
1667,0.853,36.806,10.159,31.617,22.374,9.999,6.137,15.946
1668,0.84,36.615,10.051,31.569,22.357,9.917,5.976,16.482
1669,0.843,36.757,10.132,31.598,22.364,10.039,6.055,17.097
1670,0.843,36.873,10.07,31.588,22.367,9.836,5.975,17.469
1671,0.853,36.903,10.093,31.579,22.364,9.916,6.055,17.717
1672,0.843,36.664,10.054,31.579,22.364,9.794,6.015,17.841
1673,0.836,36.776,10.14,31.579,22.364,9.753,5.974,17.883
1674,0.856,36.854,10.105,31.579,22.364,9.671,5.974,17.843
1675,0.885,36.865,10.125,31.598,22.378,9.751,6.137,17.802
1676,0.856,36.798,10.113,31.55,22.354,9.59,5.935,17.476
1677,0.879,36.97,10.082,31.578,22.378,9.832,6.055,17.514
1678,0.876,37.058,10.152,31.569,22.364,9.794,6.015,17.189
1679,0.879,36.78,10.086,31.559,22.36,9.793,5.974,16.941
1680,0.898,36.912,10.124,31.569,22.364,9.915,6.055,16.776
1681,0.879,36.99,10.105,31.531,22.364,9.835,5.934,16.572
1682,0.879,37.096,10.171,31.559,22.367,9.997,6.014,16.325
1683,0.885,36.838,10.102,31.531,22.357,9.917,5.893,16.079
1684,0.856,36.98,10.097,31.54,22.367,10.079,5.973,15.995
1685,0.866,37.096,9.984,31.55,22.367,10.203,5.974,15.71
1686,0.859,37.174,10.112,31.55,22.364,10.407,5.933,15.544
1687,0.833,36.753,10.093,31.521,22.353,10.613,5.974,15.218
1688,0.852,36.94,10.085,31.559,22.378,11.021,6.096,15.336
1689,0.83,37.029,10.12,31.531,22.361,10.985,5.894,15.012
1690,0.826,37.087,10.074,31.53,22.364,11.187,5.973,14.887
1691,0.826,36.953,10.187,31.53,22.374,11.352,6.015,14.845
1692,0.836,37.048,10.09,31.511,22.364,11.395,5.974,14.601
1693,0.839,37.183,10.109,31.521,22.367,11.558,6.015,14.517
1694,0.836,37.213,10.07,31.578,22.357,11.519,5.934,14.231
1695,0.852,37.06,10.12,31.531,22.364,11.64,6.055,14.147
1696,0.849,37.183,10.058,31.502,22.364,11.519,5.975,14.065
1697,0.859,37.28,10.194,31.52,22.367,11.477,6.015,13.902
1698,0.859,37.3,10.106,31.501,22.36,11.477,6.015,13.778
1699,0.872,36.812,10.113,31.549,22.374,11.558,6.096,13.818
1700,0.859,36.874,10.16,31.502,22.354,11.234,5.894,13.371
1701,0.869,37.028,10.106,31.52,22.371,11.353,6.095,13.407
1702,0.859,37.116,10.082,31.501,22.367,11.151,6.097,13.285
1703,0.856,37.117,10.031,31.473,22.353,10.945,5.975,13.04
1704,0.853,37.27,10.128,31.511,22.367,10.984,6.055,12.997
1705,0.853,37.32,10.047,31.453,22.36,10.903,6.056,12.793
1706,0.84,36.946,10.136,31.491,22.364,10.78,6.137,12.832
1707,0.807,37.019,10.086,31.472,22.36,10.616,6.057,12.71
1708,0.82,37.144,10.117,31.482,22.36,10.533,6.015,12.628
1709,0.813,37.222,10.113,31.453,22.367,10.492,6.015,12.546
1710,0.8,37.031,10.144,31.482,22.364,10.41,6.178,12.504
1711,0.8,37.135,10.078,31.453,22.347,10.165,6.017,12.341
1712,0.807,37.328,10.085,31.501,22.374,10.285,6.178,12.38
1713,0.839,37.378,10.109,31.482,22.367,10.001,6.098,12.258
1714,0.856,36.947,10.015,31.453,22.353,9.917,6.056,12.054
1715,0.872,37.096,10.131,31.472,22.367,9.916,6.137,12.133
1716,0.82,37.193,10.074,31.434,22.357,9.794,6.057,11.972
1717,0.833,37.252,10.011,31.501,22.364,9.793,6.178,12.051
1718,0.849,37.06,10.112,31.444,22.36,9.59,6.179,11.93
1719,0.846,37.193,10.121,31.472,22.364,9.588,6.22,12.01
1720,0.84,37.328,10.14,31.443,22.364,9.547,6.098,11.889
1721,0.833,37.368,10.07,31.462,22.364,9.506,6.178,11.806
1722,0.833,36.966,10.116,31.434,22.367,9.384,6.179,11.765
1723,0.833,37.125,10.109,31.472,22.374,9.423,6.22,11.887
1724,0.804,37.174,10.175,31.424,22.354,9.22,6.058,11.725
1725,0.816,37.242,10.145,31.462,22.374,9.503,6.219,11.886
1726,0.816,37.08,10.141,31.463,22.371,9.384,6.22,11.888
1727,0.813,37.212,10.113,31.434,22.357,9.464,6.18,11.806
1728,0.807,37.319,10.105,31.453,22.364,9.668,6.261,11.968
1729,0.79,37.167,10.109,31.415,22.36,9.589,6.139,11.889
1730,0.803,37.05,10.132,31.452,22.371,9.71,6.219,11.928
1731,0.784,37.154,10.055,31.424,22.36,9.711,6.098,11.888
1732,0.787,37.27,10.077,31.433,22.371,9.792,6.178,11.928
1733,0.784,36.946,10.152,31.424,22.36,9.753,6.179,11.888
1734,0.803,37.038,10.152,31.424,22.364,9.752,6.179,11.806
1735,0.829,37.145,10.148,31.414,22.364,9.712,6.139,11.765
1736,0.843,37.28,10.047,31.462,22.381,9.996,6.301,11.887
1737,0.839,36.907,10.065,31.405,22.357,9.836,6.058,11.766
1738,0.839,37.057,10.105,31.404,22.367,10.038,6.219,11.764
1739,0.836,37.183,10.121,31.424,22.36,10.162,6.22,11.764
1740,0.852,37.232,10.035,31.385,22.357,10.082,6.139,11.521
1741,0.846,36.926,10.073,31.414,22.367,10.365,6.26,11.64
1742,0.836,37.028,10.074,31.395,22.36,10.246,6.139,11.479
1743,0.83,37.145,10.136,31.395,22.371,10.489,6.138,11.518
1744,0.82,37.203,10.086,31.385,22.364,10.491,6.219,11.518
1745,0.807,36.964,10.101,31.414,22.367,10.573,6.139,11.518
1746,0.816,37.106,10.074,31.405,22.364,10.614,6.219,11.437
1747,0.807,37.222,10.101,31.404,22.367,10.696,6.261,11.517
1748,0.794,37.223,10.128,31.357,22.353,10.453,6.099,11.477
1749,0.819,36.888,10.117,31.433,22.378,10.776,6.3,11.68
1750,0.8,37.018,10.121,31.386,22.364,10.738,6.262,11.764
1751,0.803,37.106,10.113,31.385,22.357,10.657,6.262,12.049
1752,0.826,37.136,10.183,31.395,22.367,10.737,6.18,12.377
1753,0.82,37.04,10.063,31.366,22.364,10.575,6.179,12.543
1754,0.83,37.183,10.066,31.395,22.371,10.696,6.22,12.992
1755,0.817,37.29,10.07,31.433,22.357,10.575,6.098,13.2
1756,0.836,37.147,10.089,31.376,22.374,10.533,6.138,13.649
1757,0.843,36.887,10.113,31.366,22.361,10.41,6.138,13.857
1758,0.839,37.009,10.07,31.375,22.367,10.491,6.219,14.144
1759,0.839,37.116,10.089,31.366,22.364,10.288,6.22,14.35
1760,0.836,36.848,10.07,31.356,22.367,10.327,6.139,14.555
1761,0.836,36.922,10.128,31.346,22.36,10.205,6.057,14.638
1762,0.865,37.096,10.129,31.375,22.378,10.367,6.219,14.924
1763,0.843,37.136,10.027,31.356,22.357,10.084,6.058,14.846
1764,0.836,36.829,10.1,31.366,22.367,10.04,6.137,15.007
1765,0.839,36.951,10.113,31.375,22.371,9.958,6.138,15.05
1766,0.836,37.057,10.051,31.347,22.357,9.754,6.098,15.009
1767,0.839,37.145,10.159,31.346,22.36,9.915,6.178,15.09
1768,0.849,36.762,10.137,31.346,22.357,9.672,5.976,14.888
1769,0.843,36.921,10.066,31.346,22.36,9.67,6.096,14.886
1770,0.813,37.028,10.124,31.346,22.364,9.548,6.016,14.845
1771,0.829,37.097,10.113,31.356,22.364,9.588,6.096,14.723
1772,0.83,36.838,10.011,31.346,22.367,9.507,6.097,14.559
1773,0.82,37.008,10.026,31.327,22.36,9.506,6.056,14.435
1774,0.833,37.077,10.077,31.308,22.357,9.465,6.056,14.271
1775,0.862,37.174,10.101,31.356,22.378,9.587,6.219,14.351
1776,0.827,36.791,10.156,31.308,22.354,9.425,5.976,13.986
1777,0.849,36.95,10.07,31.317,22.36,9.424,6.137,14.023
1778,0.872,37.077,10.101,31.346,22.364,9.464,6.098,14.023
1779,0.853,37.068,10.035,31.289,22.36,9.383,5.975,13.82
1780,0.862,36.8,10.12,31.307,22.367,9.423,6.137,13.818
1781,0.856,36.912,10.07,31.289,22.36,9.342,5.976,13.452
1782,0.879,37.047,10.074,31.307,22.364,9.342,6.096,13.489
1783,0.85,37.039,10.081,31.279,22.371,9.382,5.975,13.327
1784,0.875,36.857,10.066,31.288,22.36,9.342,6.137,13.203
1785,0.869,36.98,10.128,31.298,22.36,9.382,6.098,13.202
1786,0.846,37.067,10.129,31.288,22.357,9.423,6.138,13.202
1787,0.814,36.771,10.152,31.26,22.353,9.383,6.016,13.08
1788,0.852,36.902,10.113,31.336,22.381,9.627,6.218,13.201
1789,0.836,36.999,10.144,31.27,22.364,9.548,6.098,13.039
1790,0.826,37.058,10.105,31.279,22.36,9.547,6.056,13.119
1791,0.82,36.694,10.097,31.279,22.367,9.669,6.137,13.079
1792,0.82,36.786,10.113,31.259,22.353,9.507,6.098,12.876
1793,0.826,36.922,10.097,31.269,22.371,9.628,6.138,12.914
1794,0.836,36.961,10.148,31.25,22.354,9.507,6.057,12.752
1795,0.852,36.751,10.121,31.269,22.367,9.668,6.097,12.75
1796,0.84,36.873,10.148,31.25,22.364,9.589,6.097,12.588
1797,0.859,37.018,10.086,31.25,22.364,9.547,6.138,12.667
1798,0.859,37.058,10.132,31.25,22.364,9.506,6.138,12.627
1799,0.888,36.8,10.16,31.269,22.367,9.587,6.138,12.505
1800,0.863,36.893,10.098,31.259,22.347,9.344,6.016,12.219
1801,0.869,37.047,10.089,31.24,22.374,9.464,6.137,12.42
1802,0.872,37.106,10.101,31.249,22.364,9.424,6.138,12.3
1803,0.856,36.627,10.167,31.211,22.36,9.302,6.098,12.298
1804,0.83,36.766,10.102,31.24,22.371,9.382,6.056,12.421
1805,0.833,36.854,10.097,31.211,22.357,9.261,6.015,12.3
1806,0.849,36.893,9.968,31.259,22.364,9.259,6.096,12.421
1807,0.827,36.76,10.072,31.211,22.36,9.097,6.056,12.3
1808,0.849,36.912,10.14,31.201,22.36,9.176,6.137,12.339
1809,0.827,37.0,10.043,31.192,22.364,9.137,6.057,12.339
1810,0.8,37.02,10.101,31.211,22.364,9.095,6.137,12.38
1811,0.813,36.732,10.062,31.211,22.357,9.014,6.138,12.299
1812,0.826,36.892,10.183,31.23,22.381,9.135,6.219,12.421
1813,0.82,36.923,10.098,31.182,22.357,9.014,6.017,12.137
1814,0.869,37.076,10.125,31.211,22.364,9.054,6.137,12.215
1815,0.853,37.222,10.035,31.201,22.374,9.054,6.138,12.176
1816,0.843,37.3,10.073,31.163,22.354,8.973,6.016,12.013
1817,0.853,37.397,10.074,31.191,22.367,9.013,6.137,12.174
1818,0.846,36.362,10.081,31.172,22.36,8.85,5.976,12.013
1819,0.846,36.476,10.136,31.182,22.367,8.93,6.096,12.092
1820,0.843,36.602,10.055,31.153,22.364,8.85,6.056,12.012
1821,0.862,36.699,10.132,31.162,22.367,8.808,6.097,12.011
1822,0.856,36.681,10.098,31.153,22.371,8.848,6.016,11.93
1823,0.856,36.844,10.109,31.191,22.371,8.93,6.178,11.929
1824,0.817,36.922,10.047,31.134,22.354,8.809,5.976,11.766
1825,0.826,37.009,10.069,31.162,22.364,8.97,6.137,11.968
1826,0.82,36.579,10.093,31.143,22.371,9.053,6.138,12.092
1827,0.82,36.699,10.07,31.124,22.354,8.973,6.016,12.134
1828,0.823,36.844,10.113,31.153,22.367,9.135,6.178,12.541
1829,0.81,36.893,10.043,31.124,22.36,9.095,6.098,12.789
1830,0.803,36.645,10.108,31.153,22.374,9.258,6.219,13.279
1831,0.8,36.748,10.101,31.124,22.367,9.178,6.058,13.609
1832,0.794,36.873,10.078,31.133,22.367,9.177,6.178,14.101
1833,0.8,36.903,9.996,31.143,22.36,9.177,6.139,14.512
1834,0.813,36.683,10.112,31.124,22.364,9.299,6.179,14.882
1835,0.803,36.767,10.105,31.085,22.36,9.178,6.098,15.211
1836,0.81,36.931,10.125,31.152,22.378,9.34,6.3,15.621
1837,0.813,36.933,10.176,31.114,22.361,9.138,6.14,15.666
1838,0.826,36.501,10.141,31.114,22.357,9.258,6.138,15.991
1839,0.83,36.631,10.133,31.104,22.367,9.178,6.219,15.995
1840,0.826,36.709,10.101,31.095,22.36,9.015,6.18,15.913
1841,0.856,36.95,10.121,31.114,22.374,9.094,6.261,16.075
1842,0.817,37.067,10.054,31.095,22.357,8.973,6.139,15.955
1843,0.816,37.202,10.089,31.085,22.371,9.013,6.26,15.913
1844,0.797,37.3,10.081,31.095,22.36,8.85,6.221,15.75
1845,0.81,36.208,10.152,31.085,22.367,8.808,6.261,15.789
1846,0.794,36.312,10.148,31.075,22.36,8.808,6.302,15.667
1847,0.803,36.457,10.09,31.085,22.371,8.726,6.221,15.625
1848,0.79,36.487,10.113,31.047,22.35,8.563,6.18,15.422
1849,0.79,36.631,10.129,31.094,22.371,8.724,6.342,15.542
1850,0.774,36.757,10.144,31.076,22.367,8.685,6.303,15.299
1851,0.777,36.883,10.07,31.095,22.357,8.522,6.262,15.093
1852,0.774,36.961,10.101,31.076,22.374,8.561,6.384,15.01
1853,0.777,36.482,10.043,31.047,22.361,8.358,6.263,14.765
1854,0.803,36.64,10.163,31.065,22.364,8.315,6.302,14.722
1855,0.807,36.748,10.153,31.027,22.357,8.234,6.221,14.437
1856,0.816,36.825,10.148,31.056,22.367,8.273,6.342,14.271
1857,0.807,36.51,10.086,31.056,22.364,8.274,6.221,14.229
1858,0.774,36.66,10.132,31.046,22.36,8.274,6.302,14.147
1859,0.8,36.738,10.148,31.046,22.36,8.233,6.302,13.984
1860,0.826,36.796,10.047,31.046,22.367,8.233,6.302,13.86
1861,0.817,36.5,10.069,30.998,22.357,8.07,6.14,13.615
1862,0.833,36.669,10.074,31.046,22.371,8.353,6.463,13.735
1863,0.807,36.738,10.167,31.027,22.367,8.193,6.264,13.533
1864,0.787,36.969,10.117,31.027,22.36,8.232,6.262,13.368
1865,0.787,36.502,10.175,31.037,22.374,8.314,6.302,13.325
1866,0.771,36.593,10.012,31.008,22.361,8.234,6.262,13.162
1867,0.77,36.718,10.104,31.036,22.36,8.273,6.384,13.242
1868,0.761,36.47,10.144,31.008,22.357,8.314,6.263,13.08
1869,0.767,36.525,10.074,31.017,22.364,8.315,6.302,13.079
1870,0.751,36.65,10.101,30.989,22.367,8.396,6.302,12.957
1871,0.764,36.757,10.023,31.007,22.374,8.438,6.343,12.874
1872,0.767,36.413,10.132,31.008,22.361,8.56,6.343,12.833
1873,0.78,36.563,10.137,31.027,22.371,8.602,6.425,12.792
1874,0.767,36.622,10.082,30.989,22.354,8.521,6.182,12.547
1875,0.787,36.728,9.996,31.027,22.367,8.642,6.423,12.748
1876,0.78,36.451,10.034,31.017,22.36,8.603,6.385,12.709
1877,0.767,36.592,10.081,30.989,22.357,8.602,6.222,12.709
1878,0.793,36.709,10.14,30.998,22.371,8.684,6.342,12.872
1879,0.797,36.767,10.152,30.979,22.364,8.644,6.221,12.914
1880,0.794,36.356,10.082,30.988,22.367,8.765,6.383,12.955
1881,0.787,36.476,10.167,30.969,22.364,8.767,6.303,12.915
1882,0.797,36.592,10.129,30.978,22.36,8.889,6.262,12.955
1883,0.8,36.651,10.109,30.969,22.371,8.89,6.302,12.956
1884,0.777,36.498,10.039,30.978,22.364,8.93,6.302,12.956
1885,0.78,36.612,10.093,30.959,22.353,8.89,6.221,12.996
1886,0.774,36.776,10.136,31.007,22.378,9.174,6.424,13.159
1887,0.758,36.768,10.121,30.96,22.367,9.015,6.222,12.958
1888,0.787,36.413,10.051,30.959,22.364,9.094,6.22,12.956
1889,0.761,36.563,10.058,30.978,22.371,9.176,6.261,12.996
1890,0.741,36.603,10.116,30.95,22.357,9.055,6.18,12.915
1891,0.751,37.006,10.136,30.969,22.371,9.176,6.301,12.874
1892,0.77,36.559,10.137,30.94,22.36,9.055,6.18,12.873
1893,0.77,36.708,9.996,30.969,22.371,9.135,6.261,12.833
1894,0.78,36.796,10.092,30.95,22.364,9.055,6.221,12.71
1895,0.79,36.471,10.046,30.95,22.364,9.095,6.22,12.709
1896,0.79,36.477,10.089,30.95,22.367,9.014,6.22,12.546
1897,0.819,36.612,10.089,30.969,22.374,9.176,6.302,12.626
1898,0.781,36.651,10.07,30.921,22.354,8.933,6.14,12.424
1899,0.813,36.441,10.038,30.949,22.371,9.215,6.26,12.544
1900,0.836,36.544,10.116,30.94,22.367,9.137,6.221,12.382
1901,0.823,36.632,10.082,30.93,22.357,9.177,6.098,12.218
1902,0.83,36.738,10.015,30.959,22.371,9.34,6.178,12.298
1903,0.826,36.307,10.089,30.911,22.357,9.26,6.139,12.136
1904,0.833,36.466,10.117,30.94,22.371,9.381,6.179,12.256
1905,0.82,36.564,10.164,30.93,22.357,9.382,6.098,12.135
1906,0.833,36.651,10.176,30.93,22.364,9.423,6.219,12.215
1907,0.856,36.479,10.149,30.93,22.364,9.383,6.098,12.135
1908,0.846,36.612,10.086,30.93,22.364,9.505,6.219,12.175
1909,0.849,36.747,10.152,30.901,22.36,9.425,6.18,12.135
1910,0.895,36.806,10.106,30.949,22.374,9.505,6.301,12.256
1911,0.863,36.394,10.07,30.892,22.354,9.384,6.18,12.013
1912,0.862,36.553,10.046,30.939,22.364,9.464,6.261,12.052
1913,0.866,36.66,10.093,30.921,22.367,9.465,6.302,12.093
1914,0.83,36.671,10.101,30.892,22.357,9.343,6.221,12.093
1915,0.852,36.441,10.132,30.911,22.367,9.342,6.261,12.418
1916,0.882,36.554,10.152,30.901,22.36,9.219,6.262,12.666
1917,0.869,36.68,10.094,30.901,22.364,9.34,6.302,13.197
1918,0.879,37.045,10.121,30.892,22.364,9.26,6.221,13.69
1919,0.892,36.569,10.136,30.901,22.364,9.259,6.342,14.305
1920,0.925,36.67,10.117,30.901,22.36,9.219,6.303,14.839
1921,0.944,36.786,10.074,30.901,22.371,9.3,6.302,15.373
1922,0.941,36.442,10.077,30.853,22.354,9.26,6.262,15.623
1923,0.977,36.496,10.07,30.91,22.371,9.625,6.505,16.153
1924,0.987,36.602,10.124,30.892,22.367,9.792,6.386,16.403
1925,0.948,36.68,10.133,30.882,22.364,9.915,6.344,16.486
1926,0.971,36.403,10.086,30.882,22.367,10.242,6.466,16.65
1927,0.968,36.496,10.105,30.882,22.36,10.448,6.264,16.611
1928,0.977,36.65,10.101,30.882,22.364,10.816,6.384,16.692
1929,0.994,36.709,10.164,30.863,22.364,10.901,6.263,16.571
1930,0.978,36.345,10.094,30.92,22.367,11.227,6.343,16.57
1931,0.964,36.476,10.144,30.882,22.357,11.353,6.384,16.325
1932,0.984,36.592,10.117,30.863,22.364,11.435,6.344,16.12
1933,0.978,36.642,10.183,30.862,22.357,11.517,6.303,15.955
1934,0.977,36.46,10.121,30.901,22.381,11.803,6.506,15.953
1935,0.919,36.554,10.129,30.844,22.357,11.643,6.223,15.587
1936,0.922,36.68,10.066,30.881,22.367,11.845,6.342,15.462
1937,0.964,36.748,10.081,30.863,22.367,11.887,6.343,15.379
1938,0.951,36.451,10.124,30.834,22.36,11.806,6.181,15.013
1939,0.958,36.602,10.058,30.853,22.371,11.806,6.464,15.009
1940,0.958,36.69,10.112,30.843,22.357,11.724,6.264,14.724
1941,0.961,36.748,10.07,30.843,22.36,11.764,6.302,14.599
1942,0.942,36.538,10.124,30.833,22.36,11.561,6.18,14.354
1943,0.928,36.67,10.082,30.843,22.364,11.519,6.301,14.352
1944,0.918,36.786,10.074,30.833,22.36,11.518,6.262,14.311
1945,0.918,37.008,10.015,30.843,22.36,11.437,6.384,14.108
1946,0.879,36.483,10.061,30.795,22.353,11.07,6.181,13.943
1947,0.863,36.64,10.097,30.852,22.378,11.229,6.423,14.022
1948,0.853,36.719,10.16,30.824,22.367,11.068,6.304,13.861
1949,0.827,36.537,10.11,30.805,22.367,10.822,6.221,13.574
1950,0.83,36.574,10.105,30.833,22.371,10.901,6.424,13.734
1951,0.807,36.68,10.129,30.805,22.357,10.618,6.222,13.533
1952,0.781,36.777,10.137,30.833,22.371,10.615,6.342,13.612
1953,0.777,36.442,10.078,30.805,22.357,10.533,6.181,13.531
1954,0.806,36.554,10.027,30.833,22.364,10.451,6.383,13.571
1955,0.8,36.66,10.124,30.805,22.36,10.41,6.303,13.571
1956,0.784,36.757,10.074,30.814,22.364,10.369,6.343,13.653
1957,0.764,36.403,10.159,30.804,22.36,10.368,6.262,13.654
1958,0.77,36.572,10.098,30.843,22.374,10.449,6.384,13.654
1959,0.744,36.651,10.14,30.786,22.354,10.328,6.181,13.532
1960,0.777,36.748,10.09,30.804,22.367,10.368,6.342,13.612
1961,0.764,36.518,10.136,30.804,22.367,10.368,6.343,13.531
1962,0.754,36.67,10.051,30.776,22.357,10.328,6.181,13.327
1963,0.754,36.796,10.077,30.804,22.367,10.246,6.342,13.203
1964,0.715,36.835,10.07,30.776,22.36,10.123,6.221,13.202
1965,0.731,36.443,10.058,30.804,22.364,10.284,6.342,13.161
1966,0.725,36.554,10.14,30.766,22.36,10.083,6.262,12.998
1967,0.737,36.68,10.07,30.794,22.364,10.121,6.302,13.037
1968,0.728,36.729,10.089,30.766,22.364,10.122,6.221,12.875
1969,0.712,36.509,10.074,30.775,22.367,10.081,6.261,12.873
1970,0.711,36.602,10.128,30.766,22.36,9.999,6.221,12.751
1971,0.721,36.766,10.125,30.814,22.381,10.161,6.383,12.831
1972,0.705,36.778,10.101,30.766,22.357,9.919,6.263,12.548
1973,0.705,36.528,10.121,30.756,22.357,9.876,6.221,12.504
1974,0.718,36.66,10.105,30.766,22.36,9.876,6.342,12.463
1975,0.715,36.738,10.14,30.756,22.357,9.713,6.262,12.259
1976,0.724,36.499,10.141,30.756,22.364,9.752,6.262,12.298
1977,0.734,36.487,10.07,30.756,22.36,9.63,6.221,12.176
1978,0.731,36.612,10.066,30.746,22.357,9.629,6.302,12.216
1979,0.757,36.699,10.159,30.756,22.364,9.548,6.262,12.054
1980,0.748,36.451,10.106,30.737,22.353,9.588,6.221,12.011
1981,0.731,36.573,10.129,30.794,22.367,9.466,6.22,11.93
1982,0.757,36.728,10.07,30.785,22.371,9.505,6.464,11.97
1983,0.748,36.748,10.105,30.718,22.354,9.262,6.182,11.726
1984,0.715,36.336,10.16,30.746,22.364,9.341,6.342,11.846
1985,0.724,36.476,10.152,30.765,22.367,9.301,6.262,11.806
1986,0.702,36.583,10.109,30.727,22.36,9.178,6.18,11.643
1987,0.692,36.689,10.097,30.756,22.367,9.299,6.301,11.723
1988,0.675,36.412,10.062,30.708,22.357,9.341,6.18,11.52
1989,0.704,36.573,10.097,30.736,22.367,9.586,6.261,11.64
1990,0.682,36.689,10.085,30.737,22.364,9.751,6.221,11.56
1991,0.688,36.758,10.066,30.746,22.36,9.955,6.22,11.478
1992,0.724,36.557,10.097,30.737,22.367,10.283,6.18,11.477
1993,0.702,36.699,10.089,30.727,22.36,10.53,6.179,11.436
1994,0.708,36.777,10.16,30.689,22.353,10.655,6.098,11.314
1995,0.734,36.854,10.184,30.746,22.374,11.062,6.341,11.435
1996,0.715,36.404,10.067,30.727,22.367,11.148,6.221,11.314
1997,0.711,36.505,10.124,30.708,22.36,11.23,6.139,11.272
1998,0.728,36.631,10.097,30.717,22.367,11.434,6.179,11.394
1999,0.715,36.613,10.121,30.708,22.35,11.558,6.139,11.232
2000,0.728,36.507,10.094,30.717,22.364,11.559,6.138,11.231
2001,0.731,36.631,10.117,30.688,22.36,11.6,6.098,11.19
2002,0.731,36.738,10.09,30.698,22.367,11.722,6.178,11.312
2003,0.725,36.49,10.16,30.688,22.367,11.642,6.057,11.475
2004,0.711,36.43,10.106,30.688,22.367,11.723,6.178,11.762
2005,0.728,36.534,10.058,30.679,22.36,11.601,6.098,12.212
2006,0.725,36.689,10.109,30.726,22.381,11.803,6.3,12.908
2007,0.708,36.412,10.07,30.689,22.361,11.562,6.14,13.362
2008,0.698,36.515,10.132,30.698,22.367,11.559,6.057,13.935
2009,0.682,36.67,9.988,30.698,22.367,11.6,6.219,14.592
2010,0.669,36.729,10.092,30.669,22.364,11.519,6.058,14.964
2011,0.688,36.336,10.058,30.698,22.364,11.518,6.137,15.415
2012,0.688,36.438,10.14,30.688,22.357,11.315,6.016,15.664
2013,0.701,36.573,10.105,30.679,22.364,11.475,6.096,15.91
2014,0.721,36.651,10.062,30.688,22.367,11.314,6.138,15.953
2015,0.705,36.364,10.07,30.688,22.367,11.232,6.138,16.116
2016,0.721,36.505,10.062,30.659,22.36,11.149,6.098,16.077
2017,0.721,36.641,10.132,30.707,22.371,11.189,6.178,16.158
2018,0.711,36.642,10.066,30.65,22.354,10.905,5.976,15.834
2019,0.721,36.345,10.144,30.697,22.371,11.065,6.218,15.993
2020,0.721,36.476,10.074,30.669,22.364,10.944,6.098,15.751
2021,0.715,36.554,10.14,30.65,22.36,10.821,6.016,15.545
2022,0.708,36.632,10.183,30.678,22.367,10.779,6.137,15.502
2023,0.695,36.364,10.059,30.631,22.353,10.616,6.057,15.217
2024,0.688,36.534,10.155,30.697,22.367,10.696,6.137,15.174
2025,0.701,36.612,10.078,30.64,22.36,10.453,6.138,15.011
2026,0.708,36.632,10.117,30.669,22.364,10.45,6.179,14.928
2027,0.689,36.412,10.133,30.65,22.357,10.369,6.139,14.724
2028,0.669,36.544,10.082,30.669,22.36,10.287,6.138,14.681
2029,0.669,36.641,10.031,30.64,22.36,10.205,6.138,14.599
2030,0.721,36.527,10.128,30.678,22.381,10.204,6.301,14.639
2031,0.708,36.43,10.125,30.611,22.357,10.001,6.058,14.355
2032,0.718,36.611,10.09,30.659,22.364,10.161,6.219,14.433
2033,0.724,36.699,10.097,30.659,22.371,10.244,6.22,14.271
2034,0.757,36.317,9.976,30.621,22.36,10.245,6.139,14.066
2035,0.8,36.428,10.08,30.659,22.364,10.448,6.179,14.064
2036,0.82,36.534,10.07,30.63,22.357,10.532,6.139,13.78
2037,0.862,36.612,10.116,30.649,22.36,10.655,6.179,13.858
2038,0.892,36.22,10.09,30.64,22.36,10.696,6.179,13.696
2039,0.941,36.379,10.121,30.64,22.367,10.819,6.179,13.654
2040,0.987,36.476,10.148,30.621,22.36,10.942,6.179,13.491
2041,1.013,36.554,10.098,30.64,22.364,11.106,6.22,13.408
2042,1.04,36.258,10.125,30.621,22.357,11.108,6.139,13.204
2043,1.072,36.475,10.097,30.668,22.374,11.311,6.341,13.324
2044,1.063,36.525,10.105,30.611,22.361,11.232,6.221,13.041
2045,1.105,36.603,10.097,30.63,22.36,11.353,6.18,12.997
2046,1.148,36.22,10.152,30.63,22.367,11.395,6.179,13.037
2047,1.148,36.34,10.102,30.592,22.357,11.314,6.139,12.875
2048,1.223,36.476,10.156,30.63,22.374,11.353,6.179,12.873
2049,1.23,36.497,10.094,30.601,22.357,11.354,6.139,12.751
2050,1.247,36.315,10.164,30.63,22.367,11.354,6.219,12.831
2051,1.25,36.418,10.082,30.611,22.364,11.191,6.18,12.67
2052,1.273,36.534,10.097,30.611,22.364,11.189,6.22,12.709
2053,1.28,36.574,10.066,30.611,22.367,11.149,6.22,12.628
2054,1.306,36.325,10.112,30.611,22.367,11.108,6.18,12.546
2055,1.29,36.447,10.062,30.611,22.364,11.026,6.179,12.464
2056,1.319,36.563,10.151,30.659,22.378,11.107,6.301,12.585
2057,1.345,36.363,10.074,30.602,22.357,10.945,6.14,12.342
2058,1.42,36.352,10.062,30.63,22.371,11.065,6.219,12.543
2059,1.457,36.447,10.155,30.621,22.364,10.985,6.18,12.464
2060,1.542,36.535,10.086,30.592,22.364,10.862,6.098,12.259
2061,1.601,36.257,10.132,30.611,22.367,10.902,6.219,12.339
2062,1.644,36.341,10.082,30.582,22.36,10.658,6.098,12.217
2063,1.641,36.476,10.148,30.61,22.364,10.737,6.138,12.257
2064,1.615,36.535,10.117,30.592,22.364,10.616,6.098,12.257
2065,1.553,36.296,10.199,30.591,22.36,10.615,6.138,12.339
2066,1.513,36.418,10.071,30.591,22.36,10.533,6.138,12.421
2067,1.428,36.563,10.113,30.601,22.364,10.451,6.179,12.584
2068,1.268,36.622,10.121,30.582,22.353,10.328,6.057,12.708
2069,1.143,36.23,10.109,30.63,22.381,10.49,6.3,12.953
2070,0.973,36.331,10.07,30.601,22.357,10.207,6.058,12.915
2071,0.844,36.466,10.05,30.591,22.367,10.285,6.178,13.199
2072,0.732,36.525,10.108,30.611,22.367,10.123,6.139,13.283
2073,0.659,36.277,10.074,30.563,22.36,10.0,6.016,13.365
2074,0.62,36.418,10.159,30.591,22.364,10.039,6.137,13.569
2075,0.545,36.515,10.117,30.582,22.36,9.836,6.016,13.612
2076,0.492,36.564,10.09,30.582,22.367,9.875,6.137,13.735
2077,0.462,36.219,10.078,30.582,22.36,9.713,6.138,13.858
2078,0.423,36.36,10.128,30.591,22.371,9.752,6.138,13.94
2079,0.416,36.457,10.097,30.582,22.371,9.59,6.098,13.941
2080,0.448,36.468,10.07,30.572,22.36,9.588,6.138,13.941
2081,0.449,36.113,10.093,30.572,22.367,9.507,5.976,13.941
2082,0.416,36.282,10.105,30.601,22.374,9.628,6.259,14.063
2083,0.38,36.351,10.152,30.563,22.357,9.426,6.139,13.942
2084,0.37,36.351,10.125,30.591,22.364,9.424,6.138,14.063
2085,0.35,36.332,10.121,30.582,22.36,9.505,6.179,14.186
2086,0.347,36.438,10.105,30.553,22.36,9.343,6.017,14.025
2087,0.356,36.563,10.148,30.581,22.367,9.464,6.218,14.145
2088,0.373,36.123,10.133,30.572,22.357,9.383,6.139,14.146
2089,0.399,36.253,10.09,30.572,22.36,9.423,6.219,14.309
2090,0.425,36.37,10.058,30.562,22.36,9.383,6.18,14.392
2091,0.461,36.457,10.132,30.572,22.364,9.464,6.22,14.515
2092,0.504,36.151,10.125,30.572,22.364,9.505,6.22,14.475
2093,0.582,36.292,10.133,30.582,22.36,9.587,6.22,14.516
2094,0.603,36.399,10.051,30.534,22.353,9.629,6.058,14.475
2095,0.622,36.525,10.034,30.61,22.381,9.832,6.3,14.76
2096,0.636,36.066,10.05,30.572,22.368,9.834,6.221,14.681
2097,0.675,36.214,10.101,30.562,22.367,9.794,6.261,14.762
2098,0.682,36.34,10.125,30.582,22.367,9.915,6.343,14.885
2099,0.701,36.409,10.051,30.553,22.364,9.916,6.14,14.886
2100,0.75,36.112,10.073,30.562,22.364,9.998,6.26,15.211
2101,0.731,36.253,10.097,30.534,22.36,10.039,6.262,15.377
2102,0.741,36.37,10.148,30.581,22.371,10.121,6.302,15.663
2103,0.764,36.419,9.992,30.543,22.364,10.163,6.262,15.951
2104,0.738,36.112,10.069,30.572,22.36,10.244,6.221,16.36
2105,0.734,36.244,10.031,30.553,22.36,10.367,6.261,16.852
2106,0.764,36.389,10.1,30.581,22.374,10.531,6.424,17.385
2107,0.722,36.352,10.132,30.534,22.35,10.37,6.141,17.635
