time,ecg,bvp,gsr,rsp,skt,emg_zygo,emg_coru,emg_trap
0,0.827,36.447,10.602,31.453,22.294,6.179,7.206,8.972
1,0.833,36.784,10.504,31.443,22.276,6.179,7.165,8.85
2,0.83,36.557,10.597,31.482,22.301,6.342,7.368,8.971
3,0.81,36.651,10.586,31.424,22.28,6.059,7.126,8.647
4,0.826,36.786,10.66,31.481,22.29,6.259,7.287,8.765
5,0.807,36.231,10.579,31.463,22.287,6.139,7.166,8.604
6,0.8,36.168,10.598,31.463,22.294,6.219,7.287,8.602
7,0.803,36.321,10.617,31.463,22.283,6.18,7.125,8.521
8,0.826,36.409,10.625,31.472,22.283,6.261,7.287,8.52
9,0.833,36.295,10.637,31.453,22.283,6.099,7.125,8.479
10,0.839,36.437,10.626,31.443,22.29,6.219,7.165,8.438
11,0.83,36.525,10.672,31.453,22.287,6.18,7.165,8.357
12,0.846,36.612,10.591,31.453,22.287,6.22,7.165,8.315
13,0.843,36.21,10.61,31.462,22.283,6.18,7.124,8.274
14,0.853,36.35,10.602,31.463,22.29,6.179,7.205,8.314
15,0.843,36.457,10.641,31.453,22.276,6.139,7.003,8.152
16,0.856,36.535,10.54,31.482,22.29,6.219,7.204,8.191
17,0.843,36.152,10.597,31.444,22.283,6.098,7.084,8.07
18,0.856,36.349,10.563,31.472,22.297,6.219,7.245,8.191
19,0.827,36.438,10.594,31.453,22.283,6.139,7.125,8.11
20,0.839,36.496,10.633,31.453,22.29,6.219,7.165,8.109
21,0.833,36.257,10.626,31.472,22.297,6.302,7.287,8.191
22,0.823,36.398,10.645,31.463,22.283,6.099,7.004,7.948
23,0.833,36.553,10.524,31.52,22.297,6.3,7.285,8.189
24,0.81,36.536,10.605,31.425,22.273,6.058,7.044,7.866
25,0.816,36.267,10.586,31.472,22.294,6.219,7.164,7.944
26,0.82,36.379,10.641,31.463,22.283,6.18,7.084,7.986
27,0.826,36.486,10.606,31.463,22.283,6.22,7.123,7.905
28,0.826,36.497,10.547,31.463,22.294,6.22,7.124,7.863
29,0.833,36.267,10.547,31.463,22.287,6.139,7.124,7.822
30,0.839,36.37,10.57,31.453,22.287,6.098,7.165,7.822
31,0.839,36.486,10.57,31.462,22.287,6.178,7.124,7.781
32,0.852,36.295,10.641,31.453,22.287,6.139,7.043,7.74
33,0.859,36.236,10.606,31.462,22.283,6.138,7.123,7.781
34,0.866,36.36,10.598,31.453,22.287,6.138,7.083,7.74
35,0.859,36.457,10.59,31.472,22.294,6.26,7.123,7.781
36,0.879,36.17,10.633,31.443,22.283,6.18,6.961,7.7
37,0.885,36.302,10.665,31.462,22.294,6.301,7.041,7.699
38,0.885,36.399,10.618,31.463,22.276,6.262,6.92,7.577
39,0.892,36.505,10.618,31.501,22.297,6.221,7.041,7.698
40,0.895,36.065,10.512,31.473,22.287,6.261,6.96,7.658
41,0.895,36.214,10.589,31.472,22.29,6.302,7.0,7.698
42,0.895,36.34,10.531,31.501,22.297,6.425,7.041,7.78
43,0.895,36.39,10.617,31.453,22.28,6.222,6.839,7.578
44,0.915,36.256,10.598,31.501,22.297,6.464,6.999,7.698
45,0.905,36.341,10.625,31.482,22.28,6.142,6.757,7.455
46,0.931,36.514,10.555,31.501,22.294,6.341,6.917,7.656
47,0.905,36.564,10.625,31.463,22.287,6.262,6.837,7.658
48,0.899,36.152,10.633,31.482,22.287,6.302,6.837,7.698
49,0.928,36.282,10.684,31.482,22.287,6.302,6.796,7.577
50,0.922,36.408,10.618,31.472,22.294,6.262,6.836,7.616
51,0.931,36.448,10.645,31.482,22.287,6.221,6.918,7.617
52,0.935,36.257,10.571,31.463,22.283,6.22,6.959,7.698
53,0.945,36.379,10.574,31.482,22.283,6.261,6.878,7.821
54,0.951,36.496,10.586,31.482,22.29,6.302,6.959,8.229
55,0.951,36.497,10.594,31.472,22.283,6.221,6.96,8.477
56,0.964,36.142,10.559,31.501,22.294,6.261,7.082,9.048
57,0.948,36.253,10.562,31.463,22.283,6.058,7.002,9.379
58,0.971,36.37,10.59,31.472,22.294,6.259,7.082,10.074
59,0.951,36.342,10.594,31.463,22.276,6.099,7.083,10.65
60,0.951,36.208,10.68,31.482,22.29,6.3,7.164,11.266
61,0.941,36.34,10.63,31.463,22.287,6.221,7.124,11.719
62,0.925,36.457,10.661,31.482,22.287,6.261,7.124,12.171
63,0.931,36.132,10.602,31.501,22.297,6.302,7.246,12.541
64,0.925,36.177,10.571,31.482,22.287,6.099,7.044,12.667
65,0.954,36.331,10.609,31.501,22.304,6.341,7.286,13.115
66,0.935,36.38,10.645,31.473,22.277,6.059,7.044,13.12
67,0.964,36.15,10.548,31.501,22.297,6.259,7.123,13.364
68,0.977,36.234,10.597,31.463,22.287,6.139,7.124,13.285
69,0.987,36.379,10.617,31.482,22.29,6.179,7.124,13.365
70,1.013,36.438,10.61,31.491,22.283,6.139,7.165,13.285
71,1.023,36.045,10.61,31.482,22.29,6.179,7.084,13.203
72,1.03,36.185,10.66,31.472,22.283,6.139,7.083,13.121
73,1.033,36.292,10.591,31.472,22.29,6.138,7.123,13.039
74,1.033,36.38,10.586,31.482,22.29,6.098,7.043,12.875
75,1.04,36.131,10.598,31.491,22.294,6.219,7.123,12.792
76,1.046,36.253,10.629,31.472,22.283,6.058,6.961,12.547
77,1.05,36.389,10.653,31.501,22.29,6.219,7.082,12.545
78,1.04,36.438,10.571,31.453,22.287,6.058,6.92,12.423
79,1.014,36.026,10.555,31.51,22.287,6.219,7.041,12.422
80,0.984,36.118,10.531,31.482,22.283,6.017,6.92,12.259
81,0.994,36.282,10.628,31.52,22.294,6.096,6.959,12.298
82,0.968,36.284,10.544,31.501,22.29,6.138,6.919,12.136
83,0.984,36.274,10.644,31.501,22.29,6.098,6.959,12.053
84,0.965,36.399,10.571,31.511,22.294,6.138,7.082,12.052
85,0.945,36.486,10.594,31.463,22.28,5.976,6.839,11.727
86,0.938,36.727,10.617,31.53,22.304,6.177,7.121,11.927
87,0.902,36.039,10.625,31.473,22.273,5.976,6.839,11.482
88,0.918,36.214,10.665,31.511,22.29,6.177,6.999,11.558
89,0.909,36.264,10.634,31.501,22.29,6.057,6.919,11.437
90,0.915,36.13,10.653,31.482,22.287,6.015,6.919,11.314
91,0.909,36.186,10.602,31.501,22.294,6.056,6.878,11.232
92,0.908,36.331,10.637,31.501,22.287,6.056,6.918,11.149
93,0.918,36.418,10.594,31.473,22.29,5.975,6.837,11.026
94,0.912,35.959,10.676,31.482,22.287,6.015,6.918,11.066
95,0.902,36.098,10.536,31.501,22.283,6.056,6.878,10.944
96,0.912,36.215,10.601,31.501,22.29,5.934,6.837,10.862
97,0.899,36.302,10.547,31.482,22.287,5.974,6.837,10.78
98,0.895,36.092,10.633,31.501,22.29,6.015,6.877,10.779
99,0.873,36.205,10.579,31.482,22.28,5.934,6.796,10.657
100,0.872,36.35,10.625,31.511,22.297,6.055,6.917,10.696
101,0.856,36.399,10.618,31.482,22.28,5.853,6.878,10.575
102,0.853,36.083,10.602,31.511,22.29,5.973,6.877,10.574
103,0.817,36.234,10.606,31.501,22.287,5.974,6.918,10.492
104,0.8,36.341,10.61,31.501,22.276,5.974,6.796,10.369
105,0.826,36.428,10.594,31.52,22.301,6.055,6.917,10.449
106,0.797,35.997,10.621,31.482,22.27,5.812,6.715,10.247
107,0.797,36.204,10.54,31.539,22.304,6.013,6.916,10.286
108,0.777,36.264,10.566,31.492,22.283,5.852,6.756,10.001
109,0.803,36.331,10.578,31.511,22.287,5.973,6.836,9.958
110,0.807,36.044,10.59,31.521,22.287,5.893,6.755,9.917
111,0.81,36.176,10.594,31.521,22.29,5.973,6.917,9.876
112,0.82,36.273,10.649,31.501,22.283,5.893,6.837,9.794
113,0.823,36.303,10.614,31.501,22.287,5.933,6.918,9.753
114,0.83,36.14,10.602,31.501,22.283,5.892,6.959,9.63
115,0.826,36.253,10.645,31.511,22.283,5.933,7.0,9.629
116,0.833,36.351,10.614,31.501,22.29,5.892,6.96,9.426
117,0.839,36.169,10.668,31.52,22.297,5.933,7.122,9.505
118,0.836,36.148,10.552,31.521,22.28,5.811,7.002,9.303
119,0.833,36.292,10.539,31.521,22.29,5.932,7.082,9.382
120,0.807,36.36,10.531,31.559,22.283,5.811,7.002,9.139
121,0.82,36.016,10.566,31.521,22.294,5.932,7.041,9.258
122,0.81,36.108,10.535,31.501,22.283,5.852,7.082,9.097
123,0.803,36.244,10.64,31.53,22.29,5.973,7.083,9.095
124,0.797,36.331,10.598,31.54,22.297,5.974,7.123,9.054
125,0.79,35.891,10.578,31.502,22.287,5.73,7.043,8.851
126,0.797,36.088,10.633,31.559,22.301,6.012,7.286,9.093
127,0.771,36.128,10.587,31.492,22.28,5.73,6.922,8.729
128,0.796,36.263,10.66,31.53,22.294,5.931,7.163,8.888
129,0.787,36.063,10.618,31.502,22.283,5.852,7.084,8.687
130,0.803,36.205,10.629,31.52,22.287,5.81,7.164,8.725
131,0.807,36.34,10.528,31.521,22.287,5.85,7.043,8.563
132,0.8,36.39,10.609,31.501,22.287,5.891,7.123,8.643
133,0.813,36.045,10.52,31.52,22.283,5.851,7.165,8.521
134,0.82,36.166,10.648,31.521,22.287,5.851,7.165,8.52
135,0.81,36.283,10.516,31.53,22.283,5.851,7.124,8.439
136,0.81,36.341,10.574,31.521,22.29,5.891,7.124,8.438
137,0.816,36.102,10.57,31.53,22.283,5.811,7.043,8.316
138,0.833,36.243,10.609,31.54,22.283,5.932,7.123,8.356
139,0.81,36.331,10.664,31.521,22.287,5.811,7.043,8.275
140,0.82,36.361,10.626,31.53,22.294,5.891,7.164,8.274
141,0.8,35.978,10.665,31.511,22.283,5.811,7.084,8.111
142,0.803,36.137,10.602,31.549,22.297,5.972,7.123,8.272
143,0.794,36.215,10.594,31.521,22.283,5.811,7.002,8.111
144,0.793,36.178,10.559,31.54,22.294,5.891,7.123,8.109
145,0.797,36.12,10.656,31.55,22.297,5.892,7.043,8.191
146,0.774,36.234,10.548,31.53,22.283,5.729,6.92,7.988
147,0.8,36.379,10.636,31.569,22.304,6.053,7.203,8.19
148,0.764,35.92,10.544,31.521,22.273,5.731,6.921,7.948
149,0.803,36.059,10.613,31.549,22.294,5.89,7.0,8.067
150,0.8,36.147,10.633,31.53,22.287,5.933,6.96,7.946
151,0.803,36.244,10.629,31.54,22.29,5.852,6.96,7.864
152,0.816,36.034,10.672,31.521,22.287,5.891,7.0,7.863
153,0.82,36.185,10.517,31.559,22.29,5.851,7.001,7.822
154,0.813,36.302,10.609,31.54,22.283,5.81,7.001,7.822
155,0.813,36.38,10.594,31.53,22.283,5.85,6.919,7.863
156,0.829,35.882,10.668,31.521,22.283,5.81,6.919,7.66
157,0.826,36.021,10.583,31.54,22.29,5.81,6.919,7.82
158,0.826,36.137,10.606,31.521,22.283,5.728,6.837,8.025
159,0.817,36.234,10.586,31.549,22.29,5.768,6.958,8.474
160,0.8,35.938,10.621,31.53,22.283,5.768,6.878,8.845
161,0.8,36.108,10.594,31.549,22.287,5.809,6.877,9.499
162,0.771,36.176,10.567,31.521,22.287,5.647,6.755,10.116
163,0.783,36.263,10.594,31.559,22.294,5.808,6.876,10.935
164,0.748,35.881,10.617,31.54,22.283,5.769,6.715,11.472
165,0.777,36.059,10.606,31.55,22.287,5.809,6.835,12.168
166,0.771,36.157,10.594,31.55,22.29,5.769,6.837,12.663
167,0.761,36.158,10.668,31.53,22.28,5.687,6.714,12.912
168,0.77,36.119,10.603,31.578,22.301,5.931,6.957,13.524
169,0.767,36.205,10.555,31.531,22.28,5.567,6.634,13.49
170,0.8,36.35,10.558,31.578,22.294,5.807,6.794,13.855
171,0.784,36.284,10.59,31.531,22.287,5.647,6.633,13.778
172,0.819,35.977,10.547,31.549,22.287,5.686,6.753,13.94
173,0.82,36.089,10.605,31.55,22.287,5.646,6.714,13.86
174,0.833,36.195,10.649,31.54,22.287,5.686,6.794,13.859
175,0.836,36.043,10.571,31.578,22.29,5.605,6.755,13.737
176,0.869,36.109,10.602,31.55,22.287,5.686,6.836,13.695
177,0.895,36.224,10.551,31.55,22.287,5.646,6.877,13.492
178,0.934,36.312,10.633,31.559,22.29,5.686,7.0,13.408
179,0.941,35.852,10.641,31.54,22.287,5.646,7.041,13.245
180,0.954,35.982,10.684,31.569,22.29,5.645,7.123,13.121
181,0.977,36.098,10.622,31.559,22.283,5.564,7.043,12.917
182,1.01,36.224,10.629,31.598,22.29,5.685,7.286,12.833
183,1.02,35.919,10.622,31.55,22.283,5.605,7.207,12.588
184,1.082,36.079,10.618,31.569,22.29,5.726,7.369,12.545
185,1.092,36.186,10.661,31.55,22.28,5.687,7.33,12.464
186,1.112,36.263,10.524,31.588,22.29,5.768,7.37,12.381
187,1.148,35.929,10.589,31.569,22.287,5.728,7.452,12.34
188,1.181,36.06,10.578,31.55,22.294,5.646,7.371,12.177
189,1.227,36.195,10.641,31.569,22.29,5.849,7.573,12.256
190,1.266,36.216,10.555,31.55,22.276,5.566,7.413,12.013
191,1.332,35.995,10.664,31.598,22.301,5.848,7.533,12.133
192,1.362,36.06,10.591,31.531,22.28,5.526,7.372,11.809
193,1.401,36.233,10.617,31.578,22.29,5.725,7.492,11.806
194,1.414,36.264,10.528,31.579,22.29,5.727,7.453,11.724
195,1.418,35.996,10.625,31.569,22.283,5.768,7.452,11.561
196,1.447,36.127,10.598,31.579,22.287,5.728,7.371,11.437
197,1.457,36.234,10.578,31.579,22.294,5.768,7.411,11.355
198,1.444,36.609,10.625,31.56,22.283,5.809,7.371,11.191
199,1.447,36.066,10.547,31.579,22.283,5.81,7.37,11.108
200,1.483,36.186,10.578,31.569,22.287,5.85,7.33,11.026
201,1.542,36.302,10.516,31.569,22.294,5.973,7.37,10.944
202,1.588,35.919,10.632,31.569,22.287,5.893,7.33,10.821
203,1.66,35.935,10.594,31.579,22.297,5.892,7.37,10.739
204,1.723,36.05,10.563,31.56,22.283,5.892,7.289,10.616
205,1.759,36.176,10.605,31.588,22.294,6.014,7.288,10.574
206,1.756,35.909,10.59,31.579,22.283,5.934,7.288,10.492
207,1.724,36.05,10.664,31.598,22.29,6.055,7.329,10.451
208,1.661,36.166,10.583,31.608,22.29,6.137,7.37,10.41
209,1.615,36.225,10.582,31.569,22.283,6.057,7.248,10.206
210,1.553,35.947,10.574,31.617,22.301,6.259,7.45,10.407
211,1.406,36.041,10.559,31.56,22.276,6.139,7.127,10.084
212,1.284,36.214,10.598,31.607,22.294,6.382,7.368,10.284
213,1.124,36.216,10.602,31.569,22.283,6.303,7.208,10.123
214,1.015,35.899,10.625,31.588,22.29,6.425,7.165,10.284
215,0.916,36.05,10.59,31.588,22.287,6.385,7.124,10.408
216,0.847,36.166,10.613,31.598,22.29,6.507,7.124,10.45
217,0.761,36.215,10.59,31.579,22.29,6.508,7.165,10.613
218,0.699,35.938,10.656,31.579,22.283,6.549,7.124,10.655
219,0.64,36.079,10.638,31.579,22.283,6.549,7.043,10.737
220,0.584,36.176,10.649,31.588,22.287,6.63,7.123,10.86
221,0.551,36.206,10.579,31.569,22.283,6.55,7.043,10.82
222,0.541,35.928,10.598,31.579,22.29,6.671,7.042,10.82
223,0.531,36.05,10.586,31.579,22.287,6.591,7.001,10.698
224,0.521,36.176,10.637,31.598,22.29,6.631,7.001,10.859
225,0.495,36.168,10.579,31.579,22.283,6.59,6.96,10.739
226,0.478,36.014,10.609,31.617,22.29,6.671,7.0,10.86
227,0.449,36.147,10.586,31.598,22.283,6.631,6.919,10.739
228,0.445,36.263,10.582,31.598,22.283,6.672,6.959,10.697
229,0.458,36.034,10.637,31.617,22.287,6.672,6.96,10.778
230,0.475,35.955,10.61,31.589,22.283,6.509,6.838,10.616
231,0.511,36.137,10.688,31.627,22.304,6.711,6.999,10.899
232,0.508,36.158,10.509,31.57,22.277,6.469,6.757,10.618
233,0.56,35.908,10.605,31.626,22.297,6.67,6.998,10.94
234,0.589,35.963,10.61,31.598,22.287,6.591,6.879,10.902
235,0.639,36.098,10.606,31.598,22.29,6.549,6.837,11.065
236,0.678,36.186,10.617,31.598,22.287,6.468,6.796,11.066
237,0.698,35.813,10.582,31.608,22.287,6.548,6.795,11.229
238,0.731,35.953,10.598,31.608,22.29,6.59,6.755,11.312
239,0.747,36.069,10.559,31.627,22.287,6.549,6.754,11.475
240,0.744,36.147,10.625,31.598,22.283,6.468,6.714,11.599
241,0.767,35.851,10.583,31.617,22.287,6.548,6.754,11.682
242,0.764,35.992,10.637,31.608,22.287,6.468,6.673,11.723
243,0.793,36.127,10.59,31.627,22.283,6.507,6.713,11.927
244,0.797,36.177,10.574,31.608,22.276,6.427,6.632,11.766
245,0.803,35.995,10.609,31.617,22.294,6.466,6.712,11.927
246,0.781,36.118,10.586,31.608,22.28,6.507,6.591,11.888
247,0.806,36.263,10.594,31.617,22.29,6.508,6.712,11.888
248,0.807,36.293,10.508,31.608,22.287,6.427,6.632,11.888
249,0.82,35.804,10.515,31.636,22.29,6.548,6.712,11.806
250,0.817,35.962,10.542,31.694,22.294,6.508,6.713,11.846
251,0.826,36.05,10.57,31.609,22.283,6.467,6.632,11.603
252,0.846,36.099,10.547,31.656,22.301,6.548,6.794,11.763
253,0.83,35.869,10.633,31.579,22.276,6.386,6.511,11.399
254,0.856,36.059,10.524,31.665,22.297,6.588,6.752,11.598
255,0.833,36.118,10.554,31.599,22.283,6.427,6.673,11.397
256,0.843,36.052,10.605,31.617,22.283,6.507,6.672,11.436
257,0.849,35.927,10.617,31.627,22.283,6.508,6.713,11.477
258,0.856,36.05,10.649,31.627,22.294,6.508,6.632,11.762
259,0.843,36.147,10.587,31.627,22.283,6.427,6.672,12.049
260,0.833,35.822,10.609,31.637,22.287,6.385,6.794,12.54
261,0.826,35.934,10.508,31.627,22.283,6.385,6.592,13.195
262,0.813,36.04,10.605,31.656,22.29,6.425,6.671,13.974
263,0.813,36.128,10.567,31.618,22.283,6.304,6.672,14.673
264,0.816,36.464,10.656,31.627,22.29,6.425,6.794,15.453
265,0.81,36.592,10.544,31.627,22.283,6.263,6.633,15.867
266,0.813,36.718,10.609,31.646,22.287,6.343,6.794,16.44
267,0.81,36.796,10.602,31.627,22.283,6.303,6.714,16.528
268,0.803,35.56,10.617,31.637,22.294,6.302,6.713,16.854
269,0.803,35.663,10.637,31.618,22.283,6.302,6.632,16.898
270,0.833,35.817,10.626,31.646,22.29,6.384,6.712,16.898
271,0.83,35.895,10.665,31.646,22.297,6.344,6.713,16.857
272,0.852,35.848,10.587,31.637,22.287,6.303,6.632,16.613
273,0.856,36.011,10.637,31.675,22.301,6.547,6.834,16.692
274,0.843,36.08,10.579,31.628,22.276,6.386,6.633,16.246
275,0.879,36.167,10.68,31.656,22.301,6.629,6.794,16.282
276,0.863,35.803,10.489,31.599,22.28,6.468,6.592,15.835
277,0.866,35.982,10.597,31.646,22.29,6.629,6.712,15.708
278,0.856,36.07,10.539,31.637,22.287,6.672,6.713,15.422
279,0.849,36.109,10.613,31.656,22.29,6.713,6.713,15.216
280,0.846,35.85,10.582,31.647,22.287,6.754,6.632,14.889
281,0.843,35.992,10.621,31.666,22.287,6.795,6.753,14.723
282,0.836,36.099,10.657,31.637,22.29,6.755,6.673,14.396
283,0.826,36.272,10.52,31.656,22.294,6.876,6.631,14.23
284,0.813,35.919,10.609,31.627,22.287,6.837,6.59,14.025
285,0.842,36.059,10.567,31.665,22.297,6.958,6.631,13.861
286,0.836,36.128,10.637,31.656,22.29,6.96,6.59,13.574
287,0.836,35.841,10.583,31.675,22.297,6.919,6.712,13.449
288,0.81,35.915,10.559,31.656,22.287,6.919,6.591,13.204
289,0.836,36.031,10.621,31.675,22.294,7.0,6.631,13.039
290,0.836,36.099,10.59,31.647,22.283,6.96,6.509,12.794
291,0.859,35.745,10.61,31.675,22.297,7.0,6.63,12.71
292,0.853,35.856,10.594,31.647,22.29,6.879,6.59,12.546
293,0.856,35.982,10.637,31.675,22.294,6.959,6.59,12.301
294,0.866,36.098,10.579,31.685,22.297,6.96,6.671,12.217
295,0.856,35.831,10.613,31.647,22.283,6.838,6.509,11.85
296,0.879,36.02,10.621,31.685,22.301,6.999,6.711,11.928
297,0.863,36.07,10.629,31.637,22.28,6.797,6.469,11.563
298,0.888,36.205,10.637,31.685,22.301,7.039,6.589,11.559
299,0.866,35.756,10.559,31.656,22.287,6.879,6.549,11.275
300,0.862,35.914,10.558,31.666,22.29,6.918,6.63,11.272
301,0.866,36.031,10.555,31.675,22.29,6.878,6.509,11.109
302,0.856,36.109,10.566,31.675,22.29,6.877,6.63,10.985
303,0.84,35.822,10.582,31.666,22.29,6.877,6.55,10.822
304,0.839,35.963,10.563,31.666,22.29,6.918,6.549,10.698
305,0.836,36.07,10.562,31.666,22.29,6.878,6.468,10.575
306,0.82,36.119,10.601,31.675,22.29,6.837,6.507,10.451
307,0.823,35.86,10.598,31.666,22.287,6.796,6.427,10.328
308,0.839,35.992,10.664,31.675,22.29,6.917,6.507,10.368
309,0.836,36.089,10.653,31.647,22.283,6.837,6.386,10.084
310,0.846,36.33,10.657,31.685,22.29,6.958,6.507,10.121
311,0.853,35.833,10.54,31.666,22.287,6.797,6.386,9.878
312,0.869,36.001,10.566,31.695,22.294,6.958,6.466,9.916
313,0.882,36.089,10.539,31.657,22.287,6.797,6.426,9.754
314,0.885,35.879,10.609,31.675,22.297,6.958,6.507,9.752
315,0.885,35.896,10.567,31.695,22.294,7.0,6.467,9.712
316,0.879,36.021,10.559,31.666,22.287,6.919,6.426,9.467
317,0.895,36.137,10.594,31.695,22.304,7.081,6.629,9.546
318,0.879,35.668,10.567,31.657,22.28,6.839,6.346,9.262
319,0.872,35.827,10.613,31.704,22.297,7.04,6.588,9.422
320,0.859,35.924,10.621,31.685,22.287,6.92,6.468,9.261
321,0.869,36.012,10.704,31.676,22.29,6.878,6.467,9.137
322,0.856,35.792,10.564,31.675,22.294,6.877,6.507,9.136
323,0.856,35.934,10.621,31.675,22.294,6.918,6.467,9.055
324,0.853,36.06,10.559,31.675,22.29,6.919,6.507,9.054
325,0.853,36.128,10.648,31.695,22.29,7.0,6.508,8.932
326,0.846,35.812,10.571,31.676,22.29,6.96,6.508,8.89
327,0.856,35.991,10.57,31.743,22.297,7.041,6.508,8.809
328,0.856,36.079,10.578,31.686,22.29,7.001,6.427,8.726
329,0.866,36.167,10.602,31.704,22.294,7.041,6.507,8.726
330,0.879,35.918,10.637,31.676,22.287,7.042,6.508,8.522
331,0.885,36.059,10.614,31.695,22.301,7.164,6.589,8.601
332,0.885,36.147,10.653,31.666,22.29,7.043,6.549,8.48
333,0.905,36.196,10.528,31.704,22.297,7.204,6.63,8.52
334,0.905,35.717,10.613,31.676,22.287,7.084,6.509,8.439
335,0.908,35.866,10.586,31.704,22.294,7.205,6.63,8.438
336,0.908,35.953,10.672,31.704,22.29,7.206,6.631,8.357
337,0.902,36.002,10.571,31.676,22.287,7.125,6.55,8.275
338,0.912,35.811,10.605,31.723,22.308,7.287,6.752,8.436
339,0.886,35.895,10.559,31.666,22.28,7.004,6.51,8.113
340,0.895,36.059,10.617,31.733,22.297,7.285,6.792,8.313
341,0.879,35.86,10.551,31.657,22.283,7.085,6.592,8.152
342,0.879,35.838,10.629,31.704,22.287,7.164,6.631,8.191
343,0.863,35.963,10.629,31.704,22.297,7.206,6.631,8.151
344,0.869,36.07,10.583,31.714,22.283,7.165,6.631,8.069
345,0.866,35.725,10.606,31.695,22.283,7.084,6.672,8.069
346,0.872,35.847,10.586,31.704,22.29,7.205,6.672,8.069
347,0.863,35.953,10.656,31.714,22.283,7.125,6.631,8.028
348,0.866,36.041,10.602,31.714,22.29,7.246,6.631,8.068
349,0.889,35.639,10.625,31.705,22.287,7.288,6.631,7.987
350,0.899,35.798,10.54,31.695,22.287,7.247,6.631,8.068
351,0.902,35.934,10.586,31.714,22.29,7.328,6.631,7.946
352,0.921,36.002,10.598,31.733,22.29,7.451,6.672,8.067
353,0.905,35.667,10.617,31.705,22.283,7.371,6.631,8.15
354,0.918,35.817,10.649,31.724,22.297,7.492,6.712,8.435
355,0.912,35.915,10.513,31.714,22.283,7.494,6.551,8.641
356,0.922,36.011,10.609,31.733,22.301,7.575,6.671,9.131
357,0.922,35.754,10.567,31.695,22.28,7.494,6.55,9.461
358,0.948,35.904,10.66,31.733,22.29,7.616,6.63,10.115
359,0.922,36.021,10.622,31.705,22.29,7.576,6.59,10.61
360,0.915,36.07,10.668,31.743,22.287,7.657,6.631,11.062
361,0.922,35.668,10.61,31.734,22.301,7.698,6.712,11.554
362,0.902,35.769,10.559,31.724,22.283,7.577,6.51,11.762
363,0.908,35.933,10.578,31.762,22.297,7.738,6.711,12.293
364,0.902,35.897,10.606,31.705,22.28,7.455,6.551,12.339
365,0.908,35.858,10.649,31.743,22.294,7.574,6.63,12.584
366,0.882,35.963,10.524,31.734,22.294,7.494,6.631,12.708
367,0.902,36.079,10.593,31.734,22.29,7.534,6.631,12.872
368,0.895,36.004,10.555,31.724,22.287,7.494,6.59,12.833
369,0.915,35.744,10.594,31.743,22.297,7.453,6.631,12.873
370,0.918,35.895,10.602,31.734,22.29,7.412,6.672,12.792
371,0.925,35.983,10.649,31.734,22.297,7.493,6.753,12.791
372,0.925,35.734,10.598,31.724,22.29,7.371,6.673,12.71
373,0.935,35.827,10.606,31.753,22.294,7.452,6.875,12.709
374,0.941,35.972,10.539,31.734,22.283,7.29,6.837,12.546
375,0.951,36.041,10.652,31.753,22.29,7.329,6.958,12.382
376,0.935,35.581,10.634,31.724,22.283,7.207,6.919,12.218
377,0.948,35.749,10.547,31.753,22.297,7.328,7.041,12.135
378,0.958,35.866,10.597,31.782,22.283,7.329,7.042,11.972
379,0.945,35.944,10.578,31.753,22.29,7.289,7.164,11.97
380,0.948,35.705,10.586,31.763,22.297,7.329,7.165,11.889
381,0.935,35.827,10.57,31.743,22.287,7.207,7.124,11.644
382,0.958,36.011,10.66,31.782,22.304,7.409,7.327,11.763
383,0.932,36.012,10.548,31.724,22.28,7.127,7.126,11.399
384,0.931,35.638,10.617,31.772,22.297,7.327,7.368,11.436
385,0.918,35.721,10.536,31.753,22.287,7.167,7.167,11.233
386,0.938,35.847,10.652,31.753,22.283,7.124,7.328,11.19
387,0.932,35.905,10.63,31.763,22.29,7.165,7.207,11.027
388,0.925,35.724,10.559,31.763,22.297,7.124,7.165,10.985
389,0.941,35.866,10.574,31.763,22.287,7.083,7.246,10.903
390,0.948,35.973,10.555,31.772,22.29,7.083,7.288,10.78
391,0.948,35.993,10.586,31.753,22.29,7.042,7.207,10.657
392,0.961,35.629,10.539,31.772,22.287,7.042,7.369,10.656
393,0.971,35.75,10.629,31.763,22.283,7.042,7.289,10.452
394,0.981,35.856,10.54,31.772,22.287,7.082,7.288,10.45
395,0.977,36.145,10.57,31.753,22.287,6.961,7.207,10.288
396,0.984,35.774,10.523,31.763,22.29,7.041,7.287,10.245
397,0.987,35.885,10.582,31.753,22.283,6.879,7.166,10.042
398,0.984,36.002,10.645,31.772,22.294,7.04,7.246,10.08
399,0.978,35.686,10.641,31.763,22.283,6.92,7.125,9.959
400,0.971,35.75,10.68,31.772,22.297,7.0,7.287,9.998
401,0.968,35.847,10.583,31.772,22.283,6.96,7.207,9.836
402,0.971,35.972,10.641,31.791,22.29,7.0,7.328,9.794
403,0.961,35.753,10.579,31.801,22.297,7.041,7.37,9.834
404,0.961,35.876,10.629,31.763,22.287,6.879,7.167,9.509
405,0.974,36.021,10.563,31.81,22.308,7.121,7.45,9.668
406,0.951,36.051,10.586,31.773,22.283,6.88,7.29,9.507
407,0.964,35.696,10.567,31.791,22.294,6.959,7.369,9.546
408,0.961,35.817,10.625,31.801,22.294,6.96,7.37,9.425
409,0.977,35.924,10.602,31.782,22.29,6.96,7.37,9.464
410,0.977,35.992,10.688,31.782,22.29,7.0,7.37,9.343
411,0.977,35.705,10.646,31.772,22.287,7.001,7.492,9.382
412,0.99,35.856,10.649,31.791,22.287,7.001,7.371,9.261
413,1.0,36.001,10.583,31.792,22.297,7.041,7.37,9.3
414,1.004,36.06,10.602,31.782,22.283,7.082,7.411,9.178
415,1.014,35.696,10.606,31.811,22.287,7.002,7.411,9.218
416,1.017,35.827,10.614,31.773,22.283,7.041,7.33,9.056
417,1.023,35.972,10.555,31.859,22.297,7.042,7.451,9.135
418,1.027,35.983,10.57,31.783,22.287,7.001,7.29,9.014
419,1.01,35.83,10.578,31.811,22.29,7.082,7.41,9.054
420,0.994,35.943,10.59,31.773,22.29,7.002,7.289,8.973
421,1.004,36.088,10.649,31.811,22.29,7.082,7.369,8.931
422,0.991,36.1,10.676,31.792,22.294,7.042,7.289,8.972
423,0.994,35.822,10.614,31.811,22.29,7.001,7.288,8.809
424,0.994,35.991,10.571,31.821,22.294,7.123,7.329,8.97
425,0.984,36.051,10.59,31.773,22.276,6.88,7.085,8.647
426,0.997,35.994,10.598,31.83,22.307,7.081,7.286,8.928
427,0.971,35.964,10.617,31.782,22.28,6.88,7.125,8.728
428,0.994,36.137,10.516,31.82,22.294,6.959,7.205,8.685
429,0.994,36.244,10.57,31.84,22.29,6.878,7.125,8.684
430,1.007,35.89,10.543,31.802,22.294,6.877,7.205,8.684
431,1.007,36.002,10.562,31.811,22.29,6.796,7.125,8.562
432,1.017,36.127,10.566,31.84,22.297,6.877,7.124,8.521
433,1.023,36.215,10.586,31.802,22.287,6.837,7.002,8.439
434,1.03,36.034,10.547,31.821,22.294,6.837,7.041,8.479
435,1.02,36.147,10.558,31.792,22.287,6.837,7.001,8.398
436,1.03,36.292,10.613,31.83,22.29,6.877,7.001,8.397
437,1.037,36.341,10.606,31.802,22.28,6.715,6.96,8.275
438,1.027,36.073,10.668,31.821,22.29,6.876,7.0,8.355
439,1.01,36.186,10.583,31.802,22.283,6.755,6.96,8.275
440,1.014,36.331,10.59,31.83,22.297,6.876,7.041,8.396
441,1.02,36.37,10.492,31.811,22.287,6.715,6.96,8.234
442,1.01,36.323,10.566,31.83,22.287,6.794,7.082,8.273
443,1.001,36.437,10.598,31.83,22.29,6.755,7.083,8.314
444,0.997,36.554,10.586,31.811,22.283,6.673,6.961,8.193
445,1.017,36.641,10.59,31.849,22.297,6.875,7.163,8.354
446,0.997,36.23,10.574,31.811,22.28,6.593,6.84,8.153
447,1.007,36.398,10.605,31.84,22.301,6.834,7.121,8.354
448,0.994,36.467,10.617,31.811,22.28,6.633,7.043,8.234
449,1.013,36.516,10.653,31.83,22.29,6.712,7.123,8.192
450,1.023,36.401,10.669,31.821,22.287,6.754,7.165,8.273
451,1.03,36.515,10.606,31.821,22.29,6.632,7.165,8.193
452,1.024,36.631,10.586,31.811,22.28,6.509,7.206,8.07
453,1.03,36.556,10.539,31.84,22.287,6.63,7.287,8.15
454,1.04,36.449,10.625,31.821,22.28,6.59,7.247,8.069
455,1.04,36.592,10.575,31.83,22.287,6.631,7.369,8.15
456,1.056,36.689,10.574,31.83,22.276,6.55,7.37,8.028
457,1.05,36.479,10.563,31.83,22.29,6.63,7.411,8.109
458,1.037,36.516,10.594,31.821,22.283,6.55,7.371,8.15
459,1.037,36.679,10.563,31.84,22.29,6.549,7.492,8.476
460,1.02,36.748,10.625,31.811,22.283,6.468,7.412,8.682
461,1.03,36.528,10.602,31.84,22.294,6.589,7.533,9.172
462,1.03,36.641,10.637,31.83,22.283,6.468,7.412,9.706
463,1.017,36.786,10.501,31.859,22.294,6.467,7.452,10.362
464,1.02,36.864,10.593,31.85,22.29,6.548,7.615,11.1
465,1.02,36.568,10.629,31.821,22.273,6.427,7.495,11.595
466,1.01,36.756,10.668,31.869,22.297,6.588,7.656,12.414
467,0.984,36.787,10.587,31.821,22.273,6.305,7.414,12.666
468,1.007,36.922,10.547,31.888,22.3,6.587,7.696,13.278
469,1.007,36.731,10.593,31.831,22.28,6.346,7.455,13.487
470,1.004,36.873,10.535,31.849,22.294,6.384,7.615,13.774
471,1.01,36.99,10.574,31.85,22.29,6.425,7.495,13.858
472,1.014,37.039,10.617,31.85,22.287,6.426,7.494,14.022
473,1.014,36.656,10.629,31.831,22.283,6.344,7.494,14.023
474,1.03,36.805,10.626,31.859,22.283,6.303,7.494,14.023
475,1.03,36.893,10.567,31.85,22.28,6.302,7.453,14.023
476,1.014,36.932,10.594,31.84,22.29,6.343,7.452,13.942
477,1.014,36.827,10.617,31.83,22.283,6.221,7.412,13.778
478,1.023,36.97,10.657,31.859,22.287,6.342,7.411,13.696
479,1.004,37.067,10.614,31.84,22.28,6.262,7.249,13.573
480,1.0,37.078,10.547,31.869,22.294,6.302,7.369,13.409
481,0.971,36.79,10.558,31.85,22.28,6.18,7.248,13.204
482,0.977,36.941,10.547,31.888,22.294,6.301,7.369,13.121
483,0.974,37.019,10.609,31.86,22.29,6.262,7.248,12.917
484,0.971,36.866,10.575,31.859,22.287,6.221,7.288,12.833
485,0.981,36.961,10.574,31.879,22.297,6.342,7.329,12.71
486,0.942,37.058,10.531,31.85,22.28,6.059,7.085,12.506
487,0.951,37.202,10.613,31.907,22.297,6.259,7.367,12.626
488,0.945,36.782,10.649,31.831,22.273,6.139,7.004,12.302
489,0.951,36.941,10.63,31.878,22.297,6.219,7.123,12.217
490,0.954,37.029,10.704,31.85,22.283,6.18,7.124,12.013
491,0.935,37.125,10.63,31.878,22.283,6.139,7.002,11.97
492,0.948,36.81,10.586,31.869,22.283,6.26,7.001,11.807
493,0.954,36.941,10.567,31.879,22.287,6.18,7.082,11.684
494,0.951,37.067,10.644,31.879,22.287,6.22,6.961,11.56
495,0.935,37.135,10.622,31.869,22.283,6.22,6.96,11.519
496,0.948,36.925,10.579,31.869,22.283,6.22,6.96,11.315
497,0.941,37.096,10.531,31.888,22.294,6.261,6.96,11.272
498,0.945,37.155,10.554,31.86,22.283,6.221,6.878,11.109
499,0.932,37.242,10.582,31.888,22.29,6.302,6.918,11.108
500,0.915,36.945,10.559,31.86,22.283,6.302,6.756,10.863
501,0.922,37.115,10.633,31.898,22.297,6.425,6.876,10.861
502,0.896,37.193,10.622,31.86,22.287,6.426,6.796,10.658
503,0.902,37.261,10.633,31.898,22.287,6.466,6.836,10.615
504,0.895,37.109,10.536,31.888,22.287,6.507,6.796,10.493
505,0.892,37.212,10.625,31.869,22.29,6.508,6.755,10.451
506,0.892,37.338,10.594,31.927,22.301,6.67,6.876,10.532
507,0.869,37.646,10.582,31.87,22.28,6.428,6.674,10.126
508,0.882,37.026,10.531,31.994,22.301,6.71,6.916,10.284
509,0.876,37.106,10.562,31.87,22.276,6.388,6.634,9.961
510,0.908,37.251,10.555,31.917,22.294,6.669,6.672,9.998
511,0.886,36.965,10.558,31.879,22.29,6.631,6.672,9.917
512,0.898,37.029,10.621,31.907,22.283,6.672,6.753,9.794
513,0.899,37.106,10.594,31.889,22.29,6.631,6.714,9.712
514,0.895,37.212,10.629,31.888,22.283,6.59,6.794,9.67
515,0.892,36.859,10.559,31.888,22.29,6.59,6.714,9.507
516,0.902,36.98,10.64,31.888,22.287,6.59,6.794,9.506
517,0.889,37.067,10.626,31.879,22.283,6.59,6.795,9.343
518,0.899,37.202,10.637,31.907,22.29,6.671,6.795,9.301
519,0.882,36.887,10.528,31.908,22.28,6.55,6.714,9.178
520,0.872,37.038,10.515,31.908,22.294,6.59,6.835,9.177
521,0.856,37.145,10.531,31.898,22.283,6.468,6.796,9.015
522,0.859,37.213,10.562,31.927,22.29,6.629,6.836,9.013
523,0.836,36.964,10.613,31.898,22.287,6.509,6.796,8.972
524,0.843,37.106,10.61,31.917,22.287,6.549,6.755,8.931
525,0.853,37.251,10.621,31.927,22.294,6.63,6.876,8.972
526,0.84,37.262,10.54,31.908,22.276,6.387,6.715,8.769
527,0.843,36.965,10.629,31.946,22.301,6.629,6.876,9.011
528,0.823,37.038,10.641,31.879,22.27,6.428,6.633,8.728
529,0.852,37.183,10.672,31.927,22.29,6.548,6.834,8.685
530,0.859,37.204,10.61,31.908,22.287,6.468,6.674,8.684
531,0.853,36.839,10.637,31.927,22.294,6.548,6.713,8.684
532,0.859,36.96,10.551,31.927,22.29,6.59,6.672,8.603
533,0.862,37.067,10.57,31.927,22.287,6.509,6.835,8.643
534,0.856,37.068,10.555,31.918,22.287,6.549,6.755,8.603
535,0.856,36.924,10.578,31.937,22.287,6.59,6.836,8.602
536,0.853,37.067,10.559,31.946,22.287,6.631,6.674,8.44
537,0.869,37.164,10.566,31.937,22.29,6.631,6.753,8.479
538,0.872,36.925,10.594,31.918,22.287,6.55,6.754,8.357
539,0.869,36.904,10.617,31.937,22.29,6.63,6.795,8.397
540,0.85,36.999,10.645,31.908,22.28,6.59,6.755,8.275
541,0.869,37.135,10.622,31.946,22.29,6.712,6.836,8.355
542,0.843,37.414,10.606,31.908,22.287,6.551,6.755,8.234
543,0.83,37.599,10.567,31.946,22.294,6.63,6.957,8.355
544,0.82,37.687,10.559,31.918,22.287,6.55,6.797,8.234
545,0.839,37.784,10.656,31.956,22.29,6.671,6.877,8.273
546,0.833,36.548,10.638,31.937,22.287,6.631,6.918,8.193
547,0.836,36.66,10.583,31.956,22.287,6.55,6.919,8.11
548,0.839,36.805,10.574,31.975,22.297,6.712,7.0,8.313
549,0.82,36.835,10.582,31.899,22.276,6.429,6.716,8.03
550,0.846,37.008,10.602,31.984,22.297,6.71,6.998,8.231
551,0.84,37.096,10.625,31.918,22.28,6.429,6.757,8.029
552,0.856,37.251,10.649,31.946,22.294,6.588,6.876,8.068
553,0.862,37.291,10.626,31.927,22.283,6.509,6.959,7.987
554,0.859,36.725,10.583,31.965,22.29,6.589,6.919,7.986
555,0.862,36.883,10.594,31.966,22.283,6.509,6.837,7.946
556,0.882,36.97,10.594,31.947,22.29,6.549,6.999,7.945
557,0.885,37.01,10.633,31.946,22.287,6.508,6.96,7.783
558,0.885,36.866,10.528,31.966,22.29,6.427,6.96,7.903
559,0.866,36.999,10.562,31.966,22.287,6.466,6.919,7.742
560,0.872,37.125,10.562,31.985,22.283,6.507,6.959,7.74
561,0.866,37.117,10.601,31.956,22.283,6.345,6.96,7.781
562,0.853,36.81,10.575,31.966,22.29,6.425,7.0,7.781
563,0.846,36.931,10.602,31.947,22.276,6.304,6.919,7.74
564,0.84,37.029,10.606,31.966,22.29,6.465,7.041,8.065
565,0.843,36.943,10.539,31.966,22.28,6.304,6.92,8.353
566,0.856,36.837,10.589,31.985,22.294,6.425,7.122,9.006
567,0.827,36.912,10.57,31.947,22.283,6.304,7.002,9.379
568,0.852,37.038,10.637,31.985,22.294,6.384,7.163,10.277
569,0.846,36.713,10.579,31.956,22.28,6.303,7.124,10.896
570,0.862,36.825,10.648,31.966,22.287,6.302,7.124,11.675
571,0.866,36.96,10.555,31.995,22.29,6.384,7.287,12.455
572,0.869,37.029,10.609,31.976,22.28,6.222,7.125,12.829
573,0.885,36.627,10.571,32.004,22.301,6.342,7.368,13.442
574,0.872,36.69,10.617,31.966,22.276,6.14,7.208,13.692
575,0.889,36.873,10.614,32.004,22.29,6.301,7.369,14.02
576,0.905,36.922,10.59,31.995,22.283,6.262,7.37,14.186
577,0.892,36.654,10.61,31.985,22.29,6.18,7.37,14.228
578,0.882,36.796,10.559,31.966,22.283,6.301,7.33,14.269
579,0.872,36.922,10.633,31.985,22.297,6.18,7.37,14.392
580,0.866,36.961,10.61,31.976,22.287,6.261,7.33,14.352
581,0.866,36.655,10.672,31.985,22.294,6.221,7.37,14.23
582,0.862,36.805,10.583,31.966,22.283,6.261,7.37,14.066
583,0.866,36.922,10.613,31.985,22.287,6.221,7.37,13.983
584,0.856,36.961,10.54,31.985,22.283,6.18,7.33,13.82
585,0.875,36.751,10.617,31.995,22.287,6.261,7.41,13.737
586,0.859,36.864,10.571,31.976,22.287,6.221,7.33,13.492
587,0.853,36.989,10.566,32.004,22.29,6.342,7.329,13.327
588,0.856,37.02,10.523,31.966,22.287,6.181,7.167,13.122
589,0.872,36.732,10.542,32.004,22.29,6.301,7.368,12.998
590,0.859,36.825,10.496,31.966,22.28,6.221,7.208,12.753
591,0.872,36.96,10.573,32.014,22.294,6.302,7.328,12.75
592,0.863,37.0,10.613,31.995,22.28,6.262,7.248,12.547
593,0.879,36.665,10.575,31.985,22.29,6.302,7.206,12.464
594,0.889,36.805,10.605,32.004,22.29,6.343,7.247,12.463
595,0.882,36.874,10.575,31.976,22.276,6.262,7.084,12.056
596,0.908,36.616,10.644,32.033,22.307,6.465,7.286,12.174
597,0.889,36.613,10.587,31.967,22.273,6.264,7.044,11.891
598,0.915,36.805,10.582,32.014,22.3,6.465,7.164,11.888
599,0.889,36.903,10.531,32.005,22.287,6.386,7.124,11.725
600,0.889,36.597,10.554,31.995,22.29,6.385,7.083,11.601
601,0.885,36.728,10.523,32.004,22.287,6.425,7.042,11.478
602,0.866,36.854,10.582,32.014,22.29,6.507,7.042,11.436
603,0.862,36.903,10.602,32.005,22.29,6.467,6.92,11.314
604,0.859,36.558,10.571,32.024,22.283,6.467,7.041,11.313
605,0.849,36.689,10.563,31.995,22.29,6.548,6.92,11.11
606,0.846,36.815,10.601,32.014,22.287,6.549,6.959,11.067
607,0.849,36.884,10.602,32.005,22.276,6.427,6.96,10.863
608,0.859,36.664,10.664,32.024,22.29,6.507,6.96,10.902
609,0.859,36.786,10.591,32.005,22.287,6.427,6.838,10.739
610,0.885,36.922,10.59,32.033,22.294,6.466,6.877,10.738
611,0.876,36.942,10.465,32.014,22.287,6.467,6.837,10.575
612,0.876,36.568,10.554,32.024,22.297,6.426,6.837,10.451
613,0.885,36.728,10.57,32.053,22.29,6.507,6.877,10.532
614,0.872,36.787,10.602,31.995,22.28,6.386,6.796,10.167
615,0.885,36.883,10.582,32.062,22.304,6.588,6.917,10.447
616,0.882,36.597,10.563,31.986,22.283,6.346,6.756,10.084
617,0.889,36.747,10.617,32.033,22.29,6.506,6.876,10.081
618,0.882,36.854,10.602,32.014,22.29,6.427,6.877,9.878
619,0.866,37.162,10.711,31.995,22.287,6.385,6.837,9.835
620,0.856,36.542,10.611,32.014,22.283,6.385,6.837,9.794
621,0.856,36.66,10.653,32.043,22.29,6.425,6.877,9.671
622,0.853,36.757,10.52,32.034,22.294,6.385,6.796,9.629
623,0.859,36.605,10.605,32.034,22.294,6.588,6.958,9.588
624,0.846,36.642,10.602,32.024,22.283,6.468,6.878,9.385
625,0.846,36.776,10.637,32.024,22.29,6.507,6.918,9.423
626,0.843,36.864,10.575,32.043,22.283,6.508,6.878,9.302
627,0.849,36.481,10.559,32.043,22.29,6.549,6.877,9.341
628,0.823,36.554,10.625,32.015,22.28,6.508,6.755,9.138
629,0.856,36.718,10.563,32.053,22.283,6.589,6.957,9.177
630,0.859,36.777,10.656,32.043,22.287,6.59,6.878,9.015
631,0.856,36.49,10.614,32.053,22.287,6.59,6.877,8.972
632,0.862,36.65,10.641,32.053,22.301,6.671,6.877,9.013
633,0.843,36.738,10.555,32.024,22.276,6.509,6.755,8.85
634,0.879,36.844,10.601,32.072,22.297,6.752,6.998,8.971
635,0.856,36.424,10.547,32.005,22.27,6.429,6.635,8.728
636,0.898,36.611,10.636,32.072,22.29,6.751,6.956,8.848
637,0.873,36.699,10.536,32.044,22.283,6.592,6.716,8.686
638,0.856,36.767,10.613,32.053,22.29,6.631,6.835,8.644
639,0.869,36.461,10.586,32.063,22.283,6.59,6.796,8.603
640,0.869,36.611,10.586,32.063,22.287,6.549,6.836,8.602
641,0.866,36.718,10.598,32.043,22.283,6.508,6.837,8.521
642,0.843,36.767,10.606,32.053,22.294,6.589,6.837,8.479
643,0.839,36.509,10.664,32.053,22.28,6.509,6.755,8.479
644,0.833,36.65,10.583,32.091,22.29,6.589,6.714,8.52
645,0.843,36.767,10.613,32.044,22.28,6.509,6.713,8.317
646,0.826,36.787,10.582,32.062,22.29,6.549,6.794,8.437
647,0.833,36.404,10.652,32.072,22.276,6.549,6.673,8.316
648,0.826,36.544,10.618,32.082,22.29,6.508,6.794,8.356
649,0.83,36.622,10.61,32.063,22.28,6.386,6.633,8.234
650,0.846,36.651,10.563,32.082,22.287,6.507,6.794,8.273
651,0.836,36.633,10.613,32.053,22.28,6.427,6.633,8.152
652,0.846,36.786,10.567,32.082,22.287,6.466,6.794,8.232
653,0.846,36.854,10.621,32.082,22.283,6.426,6.755,8.151
654,0.849,36.318,10.625,32.072,22.283,6.344,6.714,8.191
655,0.856,36.437,10.477,32.139,22.297,6.466,6.835,8.273
656,0.846,36.525,10.581,32.054,22.276,6.264,6.633,8.03
657,0.869,36.66,10.57,32.12,22.297,6.465,6.794,8.149
658,0.859,36.422,10.625,32.054,22.276,6.223,6.714,7.947
659,0.859,36.601,10.633,32.091,22.29,6.342,6.794,8.108
660,0.83,36.699,10.645,32.063,22.287,6.303,6.714,8.028
661,0.843,36.767,10.591,32.091,22.283,6.302,6.794,7.946
662,0.813,36.308,10.594,32.092,22.283,6.221,6.755,7.864
663,0.826,36.456,10.559,32.101,22.29,6.302,6.836,7.944
664,0.817,36.564,10.601,32.082,22.283,6.221,6.837,7.905
665,0.816,36.641,10.602,32.092,22.29,6.302,6.877,7.863
666,0.803,36.45,10.547,32.101,22.287,6.221,6.837,7.782
667,0.803,36.583,10.601,32.101,22.287,6.261,6.958,7.822
668,0.797,36.689,10.567,32.082,22.283,6.221,6.878,7.781
669,0.81,36.738,10.609,32.111,22.297,6.302,7.04,7.822
670,0.813,36.346,10.594,32.092,22.283,6.221,6.92,7.659
671,0.816,36.505,10.66,32.111,22.29,6.342,7.0,7.739
672,0.807,36.574,10.599,32.092,22.276,6.14,6.96,7.618
673,0.846,36.661,10.625,32.111,22.29,6.26,7.041,7.657
674,0.836,37.016,10.618,32.111,22.287,6.302,7.042,7.739
675,0.83,37.144,10.579,32.121,22.29,6.262,7.042,7.862
676,0.849,37.28,10.621,32.13,22.294,6.343,7.123,8.31
677,0.843,36.763,10.508,32.092,22.283,6.14,6.961,8.477
678,0.843,36.193,10.597,32.14,22.297,6.382,7.204,9.333
679,0.81,36.254,10.516,32.083,22.283,6.059,6.881,9.708
680,0.833,36.418,10.574,32.14,22.29,6.259,7.121,10.606
681,0.82,36.41,10.539,32.111,22.29,6.18,7.043,11.346
682,0.807,36.563,10.632,32.121,22.28,6.179,7.042,12.126
683,0.81,36.67,10.563,32.13,22.287,6.139,7.042,12.866
684,0.807,36.777,10.605,32.13,22.29,6.138,7.082,13.443
685,0.807,36.212,10.606,32.14,22.287,6.098,7.042,13.855
686,0.807,36.379,10.606,32.121,22.29,6.138,7.082,14.306
687,0.797,36.467,10.672,32.13,22.287,6.098,7.042,14.473
688,0.79,36.554,10.618,32.14,22.294,6.178,7.042,14.719
689,0.793,36.286,10.61,32.121,22.28,6.139,7.042,14.722
690,0.819,36.456,10.512,32.149,22.283,6.138,7.042,14.844
691,0.817,36.554,10.578,32.121,22.28,6.057,6.96,14.763
692,0.823,36.641,10.551,32.149,22.294,6.137,7.041,14.844
693,0.807,41.523,10.59,32.131,22.28,6.057,7.001,14.601
694,0.82,41.658,10.555,32.178,22.294,6.178,7.001,14.639
695,0.83,41.707,10.597,32.141,22.287,6.057,6.879,14.395
696,0.846,41.727,10.621,32.169,22.294,6.137,6.959,14.23
697,0.827,34.104,10.602,32.16,22.294,6.057,6.96,14.107
698,0.836,34.247,10.656,32.131,22.283,6.056,6.878,13.943
699,0.83,34.403,10.649,32.178,22.301,6.178,7.081,13.9
700,0.794,34.433,10.653,32.121,22.273,5.895,6.798,13.534
701,0.81,37.377,10.61,32.188,22.294,6.176,6.999,13.571
702,0.79,37.474,10.59,32.16,22.283,6.098,6.879,13.368
703,0.777,37.59,10.543,32.169,22.287,6.056,6.918,13.204
704,0.79,37.658,10.629,32.15,22.29,6.015,6.837,12.999
705,0.787,35.904,10.598,32.15,22.283,6.015,6.877,12.915
706,0.78,36.03,10.625,32.169,22.287,6.015,6.877,12.752
707,0.777,36.137,10.555,32.169,22.287,6.056,6.837,12.709
708,0.787,36.416,10.633,32.179,22.283,6.056,6.837,12.465
709,0.8,36.592,10.606,32.16,22.283,6.056,6.837,12.381
710,0.8,36.689,10.668,32.159,22.283,5.934,6.796,12.177
711,0.8,36.796,10.599,32.179,22.287,6.014,6.836,12.094
712,0.797,36.231,10.594,32.169,22.283,5.934,6.796,11.89
713,0.813,36.398,10.574,32.188,22.287,5.974,6.917,11.888
714,0.807,36.486,10.539,32.179,22.276,5.893,6.796,11.685
715,0.813,36.583,10.648,32.188,22.29,5.973,6.917,11.642
716,0.807,36.258,10.575,32.169,22.28,5.893,6.796,11.357
717,0.813,36.418,10.551,32.217,22.29,5.933,6.917,11.313
718,0.82,36.544,10.566,32.198,22.287,6.055,6.919,11.272
719,0.807,36.593,10.601,32.169,22.283,6.015,6.796,10.947
720,0.816,36.306,10.586,32.227,22.297,6.056,6.999,11.146
721,0.787,36.38,10.598,32.16,22.28,5.853,6.757,10.62
722,0.797,36.553,10.688,32.217,22.294,6.095,6.917,10.737
723,0.781,36.564,10.587,32.179,22.28,5.894,6.837,10.575
724,0.784,36.344,10.621,32.198,22.287,5.933,6.755,10.492
725,0.767,36.476,10.563,32.189,22.287,5.892,6.836,10.288
726,0.761,36.583,10.637,32.188,22.287,5.892,6.837,10.205
727,0.754,36.613,10.583,32.188,22.287,5.892,6.755,10.163
728,0.767,36.45,10.563,32.208,22.283,5.933,6.876,10.0
729,0.78,36.592,10.519,32.198,22.283,5.852,6.837,9.917
730,0.787,36.728,10.511,32.236,22.29,5.851,6.877,9.794
731,0.78,36.71,10.57,32.179,22.283,5.81,6.796,9.631
732,0.797,36.384,10.574,32.198,22.294,5.891,6.836,9.67
733,0.803,36.496,10.648,32.189,22.276,5.851,6.796,9.467
734,0.813,36.612,10.548,32.208,22.294,5.891,6.917,9.546
735,0.8,36.412,10.57,32.189,22.283,5.851,6.837,9.344
736,0.82,36.4,10.543,32.208,22.29,5.891,6.999,9.301
737,0.803,36.486,10.617,32.198,22.287,5.892,6.879,9.219
738,0.813,36.621,10.555,32.208,22.287,5.933,7.0,9.178
739,0.787,36.364,10.582,32.237,22.294,5.974,7.082,9.218
740,0.784,36.447,10.57,32.199,22.276,5.852,7.042,8.974
741,0.803,36.611,10.59,32.236,22.301,6.013,7.286,9.135
742,0.774,36.651,10.594,32.199,22.276,5.812,7.125,8.892
743,0.793,36.441,10.613,32.236,22.304,5.972,7.246,9.012
744,0.767,36.525,10.649,32.199,22.283,5.852,7.206,8.81
745,0.774,36.67,10.509,32.217,22.287,5.973,7.206,8.889
746,0.761,36.748,10.577,32.237,22.29,5.893,7.287,8.89
747,0.767,36.384,10.52,32.227,22.287,5.973,7.247,8.89
748,0.761,36.505,10.609,32.218,22.283,5.852,7.288,8.768
749,0.767,36.65,10.594,32.227,22.283,5.973,7.329,8.685
750,0.78,36.7,10.649,32.227,22.283,5.893,7.289,8.603
751,0.787,36.355,10.669,32.227,22.29,5.933,7.369,8.643
752,0.79,36.476,10.466,32.227,22.283,5.811,7.289,8.521
753,0.784,36.602,10.585,32.237,22.287,5.891,7.329,8.601
754,0.79,36.632,10.567,32.218,22.283,5.851,7.248,8.48
755,0.81,36.441,10.641,32.237,22.29,5.891,7.328,8.438
756,0.803,36.554,10.536,32.199,22.28,5.77,7.167,8.357
757,0.807,36.689,10.574,32.246,22.287,5.972,7.287,8.356
758,0.8,36.671,10.531,32.208,22.283,5.811,7.247,8.315
759,0.8,36.451,10.632,32.237,22.29,5.932,7.288,8.437
760,0.787,36.554,10.629,32.237,22.29,5.892,7.207,8.357
761,0.771,36.66,10.629,32.227,22.29,5.892,7.125,8.275
762,0.774,36.575,10.626,32.275,22.301,6.014,7.287,8.436
763,0.754,36.373,10.547,32.228,22.276,5.771,7.085,8.113
764,0.77,36.591,10.574,32.285,22.297,6.013,7.205,8.394
765,0.757,36.632,10.629,32.218,22.28,5.812,7.125,8.194
766,0.767,36.393,10.598,32.246,22.283,5.85,7.124,8.273
767,0.751,36.486,10.61,32.247,22.28,5.81,7.043,8.193
768,0.754,36.621,10.633,32.275,22.287,5.85,7.082,8.192
769,0.757,36.699,10.567,32.247,22.283,5.891,7.002,8.151
770,0.787,36.23,10.57,32.266,22.287,5.851,7.041,8.476
771,0.79,36.398,10.555,32.256,22.283,5.769,6.96,8.764
772,0.797,36.505,10.562,32.266,22.29,5.85,7.0,9.214
773,0.79,36.574,10.594,32.256,22.283,5.769,6.96,9.828
774,0.79,36.469,10.625,32.285,22.287,5.809,6.96,10.485
775,0.803,36.583,10.567,32.257,22.287,5.769,6.878,11.142
776,0.8,36.728,10.605,32.266,22.287,5.85,6.959,11.962
777,0.797,36.739,10.59,32.247,22.276,5.688,6.878,12.58
778,0.81,36.375,10.625,32.285,22.29,5.89,7.0,13.277
779,0.784,36.486,10.563,32.257,22.29,5.811,6.879,13.691
780,0.777,36.631,10.543,32.285,22.287,5.85,6.959,14.183
781,0.767,36.671,10.605,32.295,22.283,5.769,6.96,14.472
782,0.761,36.451,10.555,32.276,22.283,5.768,6.919,14.516
783,0.764,36.592,10.601,32.304,22.304,5.972,7.122,14.801
784,0.754,36.642,10.567,32.247,22.277,5.689,6.839,14.6
785,0.774,36.738,10.617,32.323,22.297,5.89,7.08,14.883
786,0.741,36.432,10.54,32.266,22.283,5.689,6.839,14.601
787,0.757,36.602,10.629,32.295,22.29,5.809,7.04,14.679
788,0.751,36.709,10.614,32.285,22.283,5.81,6.96,14.436
789,0.757,36.739,10.649,32.295,22.29,5.769,6.919,14.312
790,0.774,36.432,10.595,32.276,22.287,5.728,6.919,14.148
791,0.777,36.554,10.641,32.276,22.29,5.85,6.919,14.065
792,0.777,36.651,10.575,32.333,22.283,5.729,6.878,13.78
793,0.787,36.422,10.547,32.305,22.287,5.768,6.959,13.696
794,0.79,36.477,10.562,32.276,22.283,5.768,6.838,13.41
795,0.784,36.612,10.586,32.285,22.283,5.687,6.877,13.285
796,0.8,36.699,10.594,32.333,22.283,5.646,6.796,13.04
797,0.813,36.24,10.551,32.295,22.294,5.727,6.836,12.956
798,0.803,36.369,10.597,32.285,22.287,5.646,6.796,12.752
799,0.787,36.496,10.598,32.295,22.29,5.686,6.836,12.75
800,0.774,36.554,10.664,32.285,22.287,5.605,6.755,12.547
801,0.797,36.958,10.61,32.314,22.294,5.767,6.876,12.504
802,0.784,37.067,10.653,32.314,22.294,5.728,6.837,12.382
803,0.764,37.193,10.567,32.295,22.287,5.605,6.796,12.218
804,0.777,37.271,10.601,32.352,22.301,5.848,6.958,12.216
805,0.761,35.891,10.578,32.267,22.273,5.607,6.716,11.932
806,0.787,36.097,10.633,32.352,22.3,5.808,6.998,11.97
807,0.764,36.157,10.512,32.305,22.28,5.525,6.757,11.726
808,0.754,36.244,10.589,32.324,22.29,5.685,6.836,11.683
809,0.757,36.485,10.613,32.314,22.283,5.687,6.877,11.56
810,0.77,36.621,10.59,32.314,22.287,5.646,6.918,11.437
811,0.777,36.728,10.621,32.314,22.283,5.645,6.878,11.233
812,0.787,36.748,10.61,32.314,22.283,5.686,6.918,11.231
813,0.777,36.164,10.618,32.314,22.283,5.605,6.837,11.068
814,0.784,36.292,10.586,32.314,22.283,5.686,6.877,10.944
815,0.803,36.428,10.582,32.333,22.287,5.564,6.837,10.862
816,0.803,36.784,10.586,32.314,22.287,5.645,6.918,10.78
817,0.797,36.404,10.625,32.314,22.283,5.686,6.796,10.657
818,0.803,36.544,10.579,32.343,22.29,5.646,6.917,10.615
819,0.784,36.603,10.539,32.305,22.283,5.523,6.796,10.411
820,0.787,36.316,10.492,32.353,22.287,5.644,6.917,10.409
821,0.784,36.284,10.562,32.296,22.28,5.564,6.796,10.206
822,0.784,36.428,10.605,32.343,22.294,5.726,6.917,10.245
823,0.761,36.496,10.602,32.334,22.283,5.605,6.878,10.123
824,0.757,36.353,10.602,32.334,22.283,5.564,6.796,10.041
825,0.774,36.514,10.594,32.353,22.297,5.685,6.917,10.08
826,0.754,36.583,10.578,32.315,22.273,5.524,6.796,9.796
827,0.777,36.718,10.59,32.362,22.297,5.807,6.999,9.915
828,0.754,36.288,10.625,32.324,22.28,5.566,6.797,9.632
829,0.774,36.475,10.618,32.362,22.29,5.645,6.836,9.629
830,0.774,36.564,10.625,32.334,22.28,5.605,6.755,9.588
831,0.784,36.622,10.594,32.353,22.287,5.645,6.836,9.507
832,0.78,36.22,10.606,32.343,22.283,5.645,6.714,9.425
833,0.787,36.36,10.571,32.353,22.29,5.645,6.794,9.383
834,0.8,36.467,10.672,32.343,22.283,5.686,6.795,9.342
835,0.79,36.535,10.583,32.353,22.283,5.687,6.795,9.382
836,0.787,36.325,10.594,32.343,22.283,5.687,6.714,9.098
837,0.803,36.447,10.543,32.353,22.287,5.727,6.835,9.176
838,0.79,36.563,10.605,32.353,22.283,5.687,6.714,9.015
839,0.784,36.603,10.614,32.363,22.29,5.727,6.835,9.054
840,0.767,36.287,10.641,32.344,22.287,5.727,6.714,8.891
841,0.783,36.428,10.637,32.372,22.287,5.809,6.835,9.012
842,0.774,36.515,10.563,32.334,22.276,5.769,6.755,8.81
843,0.784,36.583,10.59,32.391,22.29,5.891,6.836,8.93
844,0.777,36.287,10.539,32.344,22.287,5.811,6.714,8.809
845,0.78,36.428,10.648,32.372,22.29,5.81,6.835,8.726
846,0.787,36.534,10.563,32.411,22.29,5.891,6.837,8.766
847,0.797,36.344,10.555,32.373,22.273,5.77,6.633,8.482
848,0.826,36.361,10.601,32.401,22.297,5.931,6.916,8.764
849,0.807,36.409,10.539,32.363,22.273,5.689,6.674,8.482
850,0.846,36.553,10.621,32.411,22.3,5.89,6.875,8.601
851,0.846,36.2,10.563,32.363,22.283,5.729,6.755,8.48
852,0.859,36.321,10.625,32.372,22.28,5.85,6.795,8.479
853,0.872,36.447,10.551,32.382,22.287,5.81,6.755,8.398
854,0.872,36.563,10.594,32.372,22.283,5.85,6.754,8.438
855,0.885,36.047,10.531,32.392,22.283,5.81,6.714,8.397
856,0.902,36.166,10.636,32.363,22.287,5.81,6.754,8.316
857,0.892,36.302,10.63,32.372,22.283,5.81,6.754,8.274
858,0.889,36.38,10.551,32.382,22.29,5.85,6.795,8.274
859,0.866,36.16,10.601,32.372,22.287,5.851,6.714,8.193
860,0.872,36.302,10.547,32.392,22.287,5.851,6.754,8.192
861,0.863,36.408,10.59,32.382,22.283,5.851,6.632,8.192
862,0.869,36.486,10.535,32.392,22.287,5.769,6.794,8.232
863,0.879,36.247,10.601,32.363,22.283,5.728,6.592,8.151
864,0.872,36.418,10.477,32.401,22.283,5.85,6.753,8.273
865,0.869,36.515,10.565,32.373,22.287,5.729,6.632,8.111
866,0.895,36.574,10.562,32.411,22.287,5.809,6.753,8.15
867,0.876,36.219,10.633,32.402,22.297,5.81,6.754,8.232
868,0.872,36.331,10.633,32.382,22.283,5.728,6.632,8.111
869,0.931,36.476,10.622,32.411,22.301,5.89,6.794,8.313
870,0.944,36.439,10.551,32.363,22.283,5.689,6.551,8.03
871,0.974,36.189,10.519,32.43,22.301,5.971,6.712,8.19
872,0.968,36.273,10.558,32.383,22.28,5.771,6.591,8.029
873,0.99,36.389,10.531,32.401,22.287,5.768,6.671,8.109
874,0.994,36.323,10.593,32.401,22.283,5.728,6.631,8.109
875,0.987,36.169,10.5,32.411,22.29,5.809,6.712,8.15
876,0.991,36.302,10.55,32.402,22.287,5.769,6.672,8.069
877,0.991,36.389,10.582,32.401,22.287,5.728,6.794,8.028
878,0.984,36.112,10.586,32.411,22.283,5.687,6.714,8.312
879,0.984,36.186,10.676,32.411,22.29,5.768,6.794,8.843
880,0.955,36.331,10.626,32.411,22.28,5.728,6.795,9.255
881,0.948,36.428,10.665,32.43,22.29,5.768,6.917,9.91
882,0.925,36.055,10.54,32.392,22.287,5.687,6.796,10.445
883,0.931,36.195,10.597,32.411,22.287,5.727,6.877,11.345
884,0.918,36.312,10.539,32.402,22.283,5.646,6.796,11.964
885,0.918,36.409,10.621,32.44,22.294,5.727,6.877,12.783
886,0.899,36.141,10.704,32.431,22.287,5.727,6.877,13.32
887,0.895,36.301,10.658,32.43,22.287,5.687,6.959,13.813
888,0.892,36.437,10.563,32.43,22.287,5.727,7.0,14.184
889,0.889,36.487,10.578,32.43,22.28,5.646,6.838,14.31
890,0.892,36.18,10.578,32.45,22.297,5.808,7.08,14.636
891,0.869,36.254,10.641,32.402,22.28,5.525,6.798,14.558
892,0.889,36.427,10.637,32.469,22.297,5.766,7.039,14.801
893,0.879,36.439,10.602,32.44,22.276,5.565,6.879,14.681
894,0.879,36.084,10.543,32.44,22.29,5.685,6.918,14.68
895,0.856,36.195,10.609,32.431,22.287,5.646,6.837,14.599
896,0.853,36.331,10.575,32.421,22.29,5.686,6.877,14.517
897,0.853,36.351,10.566,32.43,22.287,5.646,6.877,14.353
898,0.853,36.188,10.613,32.43,22.283,5.727,6.959,14.23
899,0.82,36.302,10.594,32.421,22.287,5.646,6.919,14.025
900,0.82,36.418,10.594,32.45,22.287,5.727,6.959,13.901
901,0.81,36.601,10.559,32.431,22.28,5.727,6.96,13.615
902,0.8,36.133,10.644,32.45,22.29,5.687,6.96,13.531
903,0.784,36.253,10.614,32.44,22.283,5.605,6.838,13.205
904,0.767,36.379,10.594,32.469,22.301,5.726,6.958,13.243
905,0.751,36.122,10.52,32.431,22.287,5.646,6.96,12.958
906,0.738,36.196,10.636,32.459,22.29,5.767,7.041,12.915
907,0.751,36.312,10.59,32.45,22.28,5.647,6.96,12.67
908,0.741,36.428,10.594,32.45,22.29,5.727,7.0,12.546
909,0.747,36.007,10.496,32.459,22.287,5.768,7.041,12.464
910,0.747,36.118,10.491,32.44,22.283,5.606,6.92,12.219
911,0.754,36.272,10.581,32.488,22.297,5.767,7.163,12.135
912,0.728,36.312,10.535,32.441,22.276,5.525,6.921,11.809
913,0.767,36.054,10.621,32.478,22.294,5.807,7.163,11.928
914,0.761,36.138,10.543,32.46,22.287,5.647,6.962,11.604
915,0.767,36.292,10.617,32.469,22.287,5.645,7.041,11.641
916,0.793,36.341,10.559,32.46,22.29,5.605,7.001,11.357
917,0.784,35.91,10.625,32.46,22.29,5.686,7.041,11.354
918,0.774,36.069,10.598,32.45,22.29,5.605,7.001,11.11
919,0.767,36.176,10.578,32.469,22.287,5.645,7.001,11.067
920,0.748,36.244,10.602,32.46,22.28,5.564,6.96,10.944
921,0.757,35.948,10.543,32.469,22.283,5.645,7.122,10.821
922,0.754,36.069,10.582,32.46,22.283,5.523,6.961,10.698
923,0.748,36.195,10.559,32.469,22.29,5.644,7.041,10.616
924,0.721,36.235,10.652,32.46,22.287,5.564,6.96,10.452
925,0.728,36.091,10.536,32.479,22.294,5.645,7.082,10.41
926,0.747,36.215,10.597,32.469,22.28,5.564,6.88,10.287
927,0.734,36.321,10.543,32.479,22.297,5.726,6.959,10.286
928,0.721,36.342,10.601,32.45,22.283,5.565,6.96,10.164
929,0.747,36.054,10.598,32.479,22.287,5.604,7.122,10.163
930,0.747,36.166,10.629,32.479,22.287,5.686,7.043,10.122
931,0.747,36.254,10.606,32.45,22.287,5.564,6.92,9.797
932,0.77,36.226,10.524,32.517,22.294,5.726,7.163,9.996
933,0.748,36.216,10.566,32.45,22.273,5.484,6.84,9.633
934,0.773,36.398,10.543,32.517,22.294,5.766,7.162,9.914
935,0.751,36.419,10.632,32.46,22.283,5.525,6.921,9.591
936,0.764,35.93,10.551,32.488,22.287,5.563,7.0,9.507
937,0.757,36.012,10.601,32.479,22.283,5.645,6.96,9.465
938,0.757,36.147,10.551,32.488,22.287,5.645,6.96,9.465
939,0.748,36.225,10.609,32.479,22.294,5.605,6.878,9.302
940,0.734,35.938,10.598,32.488,22.29,5.604,6.918,9.341
941,0.741,36.088,10.649,32.498,22.287,5.645,6.959,9.179
942,0.747,36.205,10.61,32.498,22.287,5.605,7.0,9.259
943,0.731,36.254,10.528,32.498,22.287,5.523,6.96,9.137
944,0.728,36.005,10.613,32.508,22.287,5.644,6.96,9.217
945,0.725,36.127,10.575,32.47,22.28,5.523,6.878,9.015
946,0.718,36.263,10.637,32.508,22.29,5.563,6.959,9.135
947,0.711,36.303,10.579,32.47,22.287,5.523,6.838,9.014
948,0.728,35.9,10.563,32.517,22.29,5.563,6.958,9.135
949,0.721,36.011,10.539,32.489,22.28,5.523,6.838,8.974
950,0.75,36.128,10.57,32.508,22.29,5.522,6.877,8.972
951,0.757,36.157,10.578,32.517,22.283,5.603,6.877,9.013
952,0.738,36.081,10.609,32.498,22.29,5.564,6.877,8.891
953,0.744,36.243,10.633,32.527,22.294,5.645,6.959,9.012
954,0.741,36.322,10.528,32.489,22.273,5.523,6.797,8.81
955,0.757,36.39,10.613,32.565,22.294,5.847,7.039,8.97
956,0.725,35.92,10.559,32.47,22.28,5.607,6.798,8.728
957,0.76,36.088,10.625,32.508,22.294,5.808,6.917,8.766
958,0.757,36.167,10.586,32.508,22.287,5.85,6.959,8.767
959,0.748,36.129,10.613,32.517,22.287,5.891,6.919,8.685
960,0.734,36.09,10.528,32.518,22.29,5.892,6.919,8.644
961,0.728,36.195,10.589,32.508,22.29,5.973,6.919,8.644
962,0.715,36.302,10.524,32.517,22.287,5.974,6.878,8.521
963,0.711,35.939,10.593,32.518,22.29,6.055,6.837,8.561
964,0.715,35.983,10.578,32.508,22.28,6.015,6.837,8.521
965,0.715,36.118,10.559,32.527,22.28,6.096,6.877,8.439
966,0.708,36.205,10.601,32.508,22.276,6.016,6.837,8.357
967,0.702,35.995,10.59,32.517,22.287,6.178,6.958,8.437
968,0.695,36.127,10.617,32.508,22.283,5.976,6.878,8.275
969,0.708,36.244,10.618,32.527,22.294,6.096,7.04,8.274
970,0.721,36.293,10.645,32.499,22.287,6.097,6.839,8.233
971,0.734,35.852,10.633,32.546,22.297,6.178,6.999,8.273
972,0.725,35.982,10.594,32.518,22.283,6.057,6.96,8.193
973,0.724,36.098,10.586,32.518,22.283,6.056,7.0,8.192
974,0.737,36.186,10.633,32.546,22.297,6.259,7.001,8.273
975,0.731,35.947,10.594,32.518,22.283,6.058,6.797,8.111
976,0.783,36.165,10.598,32.566,22.304,6.259,7.12,8.232
977,0.764,36.206,10.543,32.489,22.273,6.058,6.839,7.989
978,0.77,36.283,10.57,32.546,22.287,6.178,6.958,8.149
979,0.78,35.891,10.566,32.527,22.287,6.139,7.041,8.11
980,0.797,36.021,10.601,32.537,22.283,6.138,7.082,8.069
981,0.82,36.137,10.645,32.547,22.287,6.179,7.083,8.028
982,0.846,36.177,10.637,32.547,22.29,6.179,7.123,8.109
983,0.859,35.861,10.567,32.556,22.287,6.179,7.165,8.069
984,0.892,36.001,10.566,32.537,22.29,6.179,7.165,8.15
985,0.918,36.089,10.601,32.537,22.28,6.179,7.246,7.947
986,0.951,36.176,10.578,32.547,22.29,6.261,7.288,8.148
987,0.987,35.957,10.57,32.537,22.287,6.18,7.166,7.988
988,1.036,36.098,10.457,32.547,22.287,6.179,7.287,8.108
989,1.076,36.167,10.534,32.518,22.283,6.139,7.166,8.028
990,1.125,35.957,10.547,32.537,22.294,6.26,7.287,8.231
991,1.145,35.993,10.539,32.518,22.283,6.139,7.166,8.395
992,1.204,36.147,10.582,32.546,22.297,6.219,7.287,9.047
993,1.237,36.215,10.633,32.537,22.287,6.18,7.288,9.583
994,1.292,35.909,10.563,32.585,22.29,6.139,7.329,10.157
995,1.332,36.04,10.562,32.585,22.294,6.301,7.329,10.976
996,1.378,36.128,10.601,32.528,22.276,6.058,7.167,11.431
997,1.427,36.253,10.61,32.585,22.304,6.341,7.409,12.412
998,1.431,35.9,10.625,32.528,22.277,6.059,7.127,12.706
999,1.434,36.107,10.571,32.556,22.294,6.259,7.246,13.36
1000,1.405,36.205,10.57,32.566,22.287,6.221,7.288,13.691
1001,1.414,36.283,10.586,32.633,22.287,6.22,7.247,14.02
1002,1.418,35.843,10.574,32.557,22.29,6.22,7.206,14.186
1003,1.44,35.982,10.605,32.566,22.29,6.22,7.247,14.391
1004,1.476,36.089,10.614,32.547,22.28,6.18,7.125,14.352
1005,1.529,36.176,10.606,32.623,22.287,6.22,7.205,14.393
1006,1.572,35.832,10.582,32.557,22.283,6.18,7.125,14.312
1007,1.673,35.972,10.625,32.575,22.29,6.261,7.165,14.392
1008,1.71,36.079,10.622,32.576,22.287,6.221,7.043,14.23
1009,1.749,36.128,10.653,32.595,22.297,6.302,7.164,14.228
1010,1.766,35.899,10.614,32.566,22.28,6.14,7.084,14.025
1011,1.772,36.059,10.649,32.576,22.294,6.219,7.205,13.983
1012,1.73,36.166,10.524,32.576,22.283,6.18,7.043,13.698
1013,1.675,36.532,10.589,32.585,22.29,6.22,7.123,13.654
1014,1.55,35.903,10.559,32.566,22.294,6.22,7.205,13.45
1015,1.387,35.983,10.594,32.585,22.283,6.139,7.125,13.204
1016,1.222,36.127,10.512,32.605,22.294,6.301,7.287,13.202
1017,1.068,35.879,10.581,32.557,22.283,6.018,7.044,12.795
1018,0.959,35.944,10.551,32.595,22.29,6.178,7.326,12.791
1019,0.828,36.05,10.613,32.576,22.283,6.139,7.207,12.588
1020,0.742,36.147,10.586,32.585,22.287,6.138,7.206,12.423
1021,0.666,35.851,10.656,32.585,22.29,6.138,7.247,12.259
1022,0.604,35.963,10.598,32.585,22.287,6.057,7.166,12.176
1023,0.538,36.127,10.563,32.633,22.28,6.097,7.165,12.013
1024,0.469,36.205,10.543,32.586,22.283,6.097,7.246,11.93
1025,0.413,35.861,10.625,32.566,22.283,5.975,7.125,11.807
1026,0.393,36.011,10.657,32.595,22.29,6.137,7.205,11.724
1027,0.386,36.108,10.556,32.576,22.283,6.057,7.125,11.479
1028,0.367,36.205,10.609,32.604,22.287,6.137,7.287,11.518
1029,0.366,35.813,10.543,32.586,22.276,6.016,7.085,11.193
1030,0.357,35.972,10.593,32.595,22.294,6.137,7.245,11.23
1031,0.343,36.05,10.543,32.547,22.28,6.057,7.125,11.068
1032,0.35,36.138,10.625,32.604,22.294,6.137,7.165,11.026
1033,0.356,35.86,10.52,32.586,22.283,6.057,7.124,10.863
1034,0.366,36.011,10.581,32.605,22.29,6.219,7.124,10.82
1035,0.383,36.137,10.563,32.614,22.29,6.18,7.246,10.82
1036,0.409,36.148,10.617,32.557,22.276,6.057,7.003,10.657
1037,0.451,35.86,10.625,32.633,22.304,6.259,7.204,10.9
1038,0.445,35.934,10.579,32.576,22.27,6.058,6.962,10.739
1039,0.494,36.088,10.574,32.614,22.287,6.137,7.082,10.9
1040,0.508,36.08,10.59,32.634,22.283,6.179,7.042,11.065
1041,0.537,36.435,10.61,32.624,22.287,6.139,7.042,11.148
1042,0.579,36.563,10.563,32.614,22.28,6.057,7.042,11.23
1043,0.596,36.67,10.644,32.605,22.287,6.137,7.001,11.393
1044,0.622,35.962,10.591,32.614,22.283,6.098,7.001,11.436
1045,0.649,35.695,10.606,32.605,22.287,6.219,7.001,11.558
1046,0.662,35.817,10.551,32.605,22.28,6.18,6.879,11.6
1047,0.665,35.943,10.617,32.605,22.29,6.261,7.081,11.722
1048,0.652,35.839,10.582,32.605,22.283,6.139,7.002,11.683
1049,0.701,35.972,10.598,32.643,22.29,6.301,7.082,11.683
1050,0.727,36.079,10.574,32.595,22.283,6.221,6.961,11.601
1051,0.747,36.176,10.578,32.624,22.29,6.261,7.082,11.641
1052,0.744,35.726,10.574,32.614,22.28,6.221,7.042,11.479
1053,0.76,35.875,10.59,32.634,22.287,6.342,7.123,11.518
1054,0.764,35.963,10.637,32.605,22.283,6.343,6.961,11.437
1055,0.767,36.06,10.524,32.624,22.287,6.384,7.041,11.314
1056,0.774,35.879,10.578,32.643,22.283,6.385,7.164,11.394
1057,0.751,35.982,10.535,32.605,22.276,6.303,6.962,11.07
1058,0.777,36.156,10.582,32.672,22.304,6.506,7.204,11.229
1059,0.751,36.139,10.602,32.586,22.277,6.264,6.881,10.946
1060,0.757,35.745,10.653,32.633,22.297,6.424,7.04,10.943
1061,0.728,35.856,10.645,32.624,22.29,6.385,7.042,10.821
1062,0.734,35.953,10.575,32.624,22.283,6.385,7.042,10.739
1063,0.725,36.021,10.574,32.634,22.28,6.385,7.001,10.657
1064,0.734,35.859,10.586,32.624,22.287,6.385,7.001,10.615
1065,0.731,35.963,10.637,32.624,22.287,6.344,7.001,10.493
1066,0.721,36.098,10.555,32.634,22.29,6.384,7.041,10.491
1067,0.718,36.119,10.578,32.634,22.287,6.344,6.92,10.288
1068,0.741,36.483,10.543,32.653,22.287,6.384,7.0,10.408
1069,0.738,36.583,10.535,32.644,22.287,6.263,6.919,10.247
1070,0.757,36.689,10.578,32.663,22.287,6.384,6.959,10.245
1071,0.748,36.048,10.621,32.624,22.287,6.303,6.919,10.082
1072,0.747,35.447,10.614,32.662,22.297,6.384,6.959,10.162
1073,0.751,35.556,10.547,32.634,22.28,6.222,6.838,9.838
1074,0.767,35.691,10.562,32.653,22.29,6.342,6.958,9.956
1075,0.78,35.827,10.598,32.644,22.29,6.303,6.838,9.795
1076,0.777,35.982,10.637,32.634,22.287,6.221,6.918,9.671
1077,0.79,36.118,10.571,32.662,22.294,6.383,6.919,9.751
1078,0.777,36.186,10.488,32.624,22.276,6.222,6.715,9.549
1079,0.777,35.861,10.527,32.682,22.297,6.464,6.957,9.669
1080,0.754,35.925,10.554,32.615,22.276,6.223,6.756,9.385
1081,0.77,36.088,10.555,32.662,22.294,6.342,6.836,9.464
1082,0.754,36.128,10.586,32.644,22.283,6.343,6.714,9.424
1083,0.754,35.764,10.582,32.653,22.29,6.384,6.713,9.302
1084,0.751,35.933,10.543,32.663,22.283,6.425,6.713,9.301
1085,0.748,36.06,10.539,32.653,22.287,6.426,6.794,9.301
1086,0.738,36.109,10.597,32.644,22.283,6.344,6.755,9.178
1087,0.751,35.726,10.602,32.663,22.287,6.466,6.876,9.259
1088,0.751,35.866,10.641,32.644,22.28,6.467,6.837,9.178
1089,0.751,35.982,10.594,32.672,22.283,6.507,6.755,9.177
1090,0.77,36.041,10.516,32.644,22.283,6.427,6.714,9.015
1091,0.777,35.859,10.484,32.663,22.29,6.548,6.835,9.013
1092,0.78,36.011,10.546,32.644,22.283,6.386,6.714,8.932
1093,0.774,36.118,10.59,32.672,22.287,6.547,6.835,9.012
1094,0.777,36.129,10.57,32.653,22.283,6.427,6.755,8.891
1095,0.79,35.879,10.617,32.682,22.29,6.507,6.876,8.849
1096,0.797,36.002,10.528,32.644,22.283,6.427,6.755,8.686
1097,0.803,36.099,10.601,32.682,22.287,6.507,6.795,8.766
1098,0.787,36.224,10.594,32.682,22.287,6.589,6.917,8.767
1099,0.774,35.736,10.653,32.634,22.28,6.468,6.796,8.523
1100,0.79,35.943,10.591,32.701,22.297,6.629,7.039,8.764
1101,0.767,35.945,10.59,32.644,22.287,6.346,6.839,8.604
1102,0.777,35.83,10.524,32.72,22.294,6.425,6.918,8.643
1103,0.761,35.867,10.539,32.673,22.283,6.385,6.878,8.603
1104,0.757,36.001,10.632,32.682,22.29,6.425,6.918,8.562
1105,0.751,36.099,10.594,32.663,22.287,6.344,6.837,8.724
1106,0.761,35.687,10.61,32.739,22.287,6.343,6.918,9.051
1107,0.754,35.817,10.559,32.673,22.29,6.303,6.837,9.339
1108,0.764,35.934,10.586,32.682,22.283,6.384,6.837,9.911
1109,0.761,36.031,10.586,32.663,22.283,6.222,6.796,10.404
1110,0.783,35.821,10.656,32.682,22.29,6.302,6.917,11.101
1111,0.78,35.953,10.606,32.663,22.276,6.262,6.756,11.636
1112,0.803,36.079,10.672,32.711,22.29,6.262,6.836,12.333
1113,0.8,36.147,10.575,32.673,22.283,6.221,6.796,12.705
1114,0.81,35.793,10.582,32.672,22.294,6.302,6.917,13.197
1115,0.803,35.914,10.621,32.653,22.28,6.18,6.756,13.446
1116,0.833,36.04,10.633,32.682,22.29,6.22,6.917,13.773
1117,0.813,36.109,10.547,32.72,22.297,6.22,6.919,13.98
1118,0.82,35.831,10.586,32.663,22.28,6.139,6.837,13.982
1119,0.836,36.011,10.551,32.711,22.294,6.341,6.999,14.226
1120,0.791,36.07,10.59,32.654,22.276,6.059,6.716,13.985
1121,0.813,36.157,10.602,32.72,22.301,6.3,6.998,14.185
1122,0.79,35.841,10.625,32.683,22.287,6.099,6.879,14.025
1123,0.787,36.011,10.614,32.663,22.29,6.219,6.877,13.942
1124,0.787,36.108,10.586,32.692,22.287,6.261,6.918,13.86
1125,0.793,36.282,10.606,32.701,22.29,6.18,6.837,13.696
1126,0.777,35.756,10.59,32.682,22.283,6.139,6.837,13.573
1127,0.777,35.895,10.637,32.701,22.287,6.219,6.877,13.449
1128,0.79,35.983,10.544,32.682,22.287,6.261,6.918,13.204
1129,0.797,35.888,10.527,32.711,22.287,6.221,6.878,13.039
1130,0.797,35.896,10.527,32.682,22.283,6.18,6.877,12.834
1131,0.803,36.021,10.566,32.711,22.287,6.139,6.918,12.751
1132,0.81,36.099,10.574,32.692,22.28,6.138,6.878,12.547
1133,0.81,35.649,10.621,32.701,22.283,6.179,6.877,12.545
1134,0.816,35.759,10.583,32.682,22.283,6.179,6.877,12.342
1135,0.813,35.914,10.539,32.701,22.294,6.22,6.877,12.339
1136,0.807,35.964,10.578,32.682,22.283,6.058,6.837,12.014
1137,0.823,35.801,10.582,32.701,22.287,6.219,6.877,12.052
1138,0.843,35.943,10.645,32.701,22.29,6.18,6.918,11.93
1139,0.826,36.041,10.602,32.692,22.28,6.057,6.837,11.726
1140,0.826,36.147,10.586,32.73,22.301,6.259,6.999,11.764
1141,0.8,35.63,10.543,32.673,22.283,5.977,6.675,11.48
1142,0.816,35.855,10.574,32.73,22.294,6.218,6.875,11.518
1143,0.787,35.905,10.605,32.692,22.28,6.017,6.796,11.315
1144,0.81,35.983,10.614,32.711,22.28,6.056,6.877,11.232
1145,0.81,35.859,10.586,32.702,22.287,6.097,6.837,11.149
1146,0.803,35.992,10.528,32.711,22.283,6.138,6.877,11.108
1147,0.8,36.118,10.593,32.711,22.287,6.057,6.877,10.863
1148,0.803,36.157,10.563,32.721,22.287,6.097,6.918,10.82
1149,0.8,35.736,10.652,32.702,22.276,6.056,6.959,10.617
1150,0.826,35.875,10.68,32.721,22.29,6.097,7.0,10.655
1151,0.823,35.973,10.673,32.711,22.29,6.097,6.96,10.452
1152,0.833,36.012,10.599,32.721,22.287,6.178,7.082,10.41
1153,0.83,35.782,10.586,32.702,22.287,6.139,6.961,10.247
1154,0.843,35.924,10.613,32.721,22.294,6.179,7.122,10.245
1155,0.843,35.992,10.614,32.702,22.28,6.057,7.002,10.082
1156,0.872,35.83,10.582,32.74,22.29,6.219,7.163,10.081
1157,0.866,35.675,10.512,32.673,22.28,6.139,7.084,9.837
1158,0.859,35.817,10.585,32.73,22.29,6.219,7.083,9.916
1159,0.84,35.924,10.551,32.74,22.29,6.18,7.164,9.835
1160,0.839,35.724,10.57,32.721,22.283,6.179,6.962,9.59
1161,0.843,35.866,10.656,32.759,22.29,6.301,7.163,9.71
1162,0.833,35.925,10.606,32.702,22.276,6.018,6.962,9.467
1163,0.839,36.069,10.61,32.759,22.301,6.3,7.122,9.587
1164,0.813,35.716,10.547,32.702,22.28,6.18,7.002,9.385
1165,0.842,35.894,10.625,32.721,22.29,6.139,7.001,9.382
1166,0.826,35.973,10.586,32.74,22.283,6.179,7.001,9.261
1167,0.813,36.07,10.609,32.74,22.283,6.179,7.041,9.178
1168,0.823,35.725,10.504,32.74,22.28,6.139,6.92,9.177
1169,0.839,35.866,10.558,32.731,22.287,6.138,6.959,9.055
1170,0.846,35.982,10.535,32.731,22.276,6.138,7.041,9.054
1171,0.853,36.041,10.535,32.721,22.287,6.138,6.96,8.973
1172,0.869,35.792,10.601,32.721,22.276,6.057,7.0,8.931
1173,0.872,35.934,10.602,32.74,22.29,6.178,7.001,8.931
1174,0.869,36.05,10.571,32.731,22.283,6.098,7.041,8.809
1175,0.876,36.109,10.527,32.759,22.29,6.178,7.001,8.889
1176,0.872,35.649,10.589,32.721,22.283,6.139,7.001,8.687
1177,0.879,35.798,10.59,32.74,22.287,6.301,7.123,8.766
1178,0.879,35.895,10.625,32.711,22.287,6.18,6.961,8.645
1179,0.882,35.935,10.622,32.75,22.294,6.22,7.122,8.684
1180,0.859,35.772,10.508,32.74,22.287,6.18,7.083,8.603
1181,0.862,35.933,10.581,32.74,22.287,6.301,7.083,8.602
1182,0.872,36.031,10.543,32.75,22.287,6.384,7.205,8.602
1183,0.853,35.984,10.601,32.721,22.276,6.303,7.003,8.399
1184,0.872,35.744,10.586,32.759,22.301,6.465,7.285,8.641
1185,0.846,35.837,10.516,32.74,22.276,6.182,7.004,8.359
1186,0.859,35.982,10.566,32.779,22.301,6.464,7.204,8.519
1187,0.843,35.677,10.605,32.75,22.283,6.304,7.125,8.358
1188,0.856,35.731,10.664,32.769,22.29,6.343,7.124,8.437
1189,0.862,35.866,10.642,32.75,22.283,6.262,7.043,8.397
1190,0.866,35.973,10.626,32.75,22.283,6.302,7.123,8.356
1191,0.885,35.724,10.594,32.75,22.283,6.343,7.043,8.315
1192,0.866,35.866,10.551,32.817,22.287,6.425,7.123,8.356
1193,0.876,35.953,10.547,32.731,22.283,6.304,7.043,8.315
1194,0.885,36.06,10.59,32.759,22.29,6.425,7.042,8.274
1195,0.898,35.581,10.582,32.74,22.287,6.385,7.001,8.233
1196,0.912,35.759,10.602,32.759,22.29,6.385,7.082,8.192
1197,0.902,35.866,10.578,32.75,22.273,6.385,6.92,8.151
1198,0.912,35.944,10.633,32.769,22.287,6.466,7.041,8.191
1199,0.895,35.647,10.637,32.731,22.28,6.386,6.96,8.11
1200,0.905,35.817,10.68,32.769,22.29,6.466,7.041,8.232
1201,0.892,35.905,10.595,32.76,22.283,6.467,7.001,8.151
1202,0.892,35.973,10.61,32.74,22.29,6.589,6.879,8.11
1203,0.892,35.6,10.571,32.769,22.29,6.509,7.04,8.232
1204,0.886,35.721,10.563,32.731,22.276,6.386,6.798,7.989
1205,0.892,35.856,10.594,32.788,22.307,6.588,6.999,8.19
1206,0.86,35.857,10.586,32.741,22.277,6.387,6.797,7.948
1207,0.892,35.829,10.555,32.807,22.301,6.547,6.958,8.148
1208,0.879,35.915,10.555,32.76,22.287,6.427,6.919,8.028
1209,0.885,36.04,10.551,32.779,22.283,6.466,6.878,7.987
1210,0.902,36.329,10.601,32.769,22.287,6.467,6.877,8.068
1211,0.905,35.69,10.629,32.76,22.287,6.426,6.918,8.028
1212,0.921,35.808,10.614,32.75,22.287,6.507,6.959,7.946
1213,0.912,35.905,10.602,32.759,22.287,6.508,6.919,7.945
1214,0.918,35.705,10.559,32.76,22.283,6.508,6.878,7.945
1215,0.915,35.741,10.605,32.779,22.287,6.467,6.918,7.986
1216,0.931,35.847,10.578,32.76,22.283,6.426,6.837,7.864
1217,0.954,35.963,10.621,32.779,22.28,6.548,6.958,7.985
1218,0.932,35.696,10.477,32.741,22.283,6.508,6.797,7.864
1219,0.931,35.875,10.554,32.807,22.29,6.549,6.999,7.985
1220,0.922,35.963,10.531,32.75,22.283,6.386,6.838,7.824
1221,0.935,36.079,10.543,32.788,22.29,6.588,6.918,7.944
1222,0.912,35.658,10.554,32.769,22.287,6.468,6.919,7.864
1223,0.899,35.827,10.621,32.779,22.29,6.386,6.878,7.944
1224,0.905,35.943,10.618,32.779,22.29,6.547,7.0,7.986
1225,0.908,36.002,10.571,32.75,22.276,6.386,6.797,7.742
1226,0.905,35.936,10.609,32.798,22.301,6.588,6.999,7.943
1227,0.892,36.012,10.579,32.75,22.276,6.305,6.797,7.661
1228,0.925,36.185,10.68,32.798,22.294,6.465,6.958,7.82
1229,0.909,36.187,10.587,32.77,22.28,6.426,6.878,7.822
1230,0.921,35.669,10.609,32.788,22.283,6.466,6.959,8.229
1231,0.938,35.808,10.539,32.769,22.287,6.548,6.797,8.599
1232,0.935,35.943,10.589,32.788,22.283,6.508,6.917,9.253
1233,0.931,35.973,10.563,32.789,22.287,6.467,6.919,9.788
1234,0.935,35.974,10.625,32.789,22.287,6.467,6.878,10.525
1235,0.935,36.098,10.528,32.789,22.287,6.507,6.918,11.264
1236,0.951,36.196,10.597,32.769,22.287,6.589,6.837,12.004
1237,0.948,36.206,10.598,32.769,22.28,6.468,6.837,12.58
1238,0.961,35.842,10.594,32.788,22.294,6.589,6.918,13.114
1239,0.945,35.972,10.625,32.76,22.283,6.427,6.796,13.526
1240,0.941,36.098,10.614,32.779,22.29,6.548,6.917,13.937
1241,0.922,35.994,10.645,32.779,22.28,6.427,6.796,14.022
1242,0.922,36.041,10.552,32.798,22.29,6.588,6.917,14.267
1243,0.902,36.147,10.57,32.779,22.283,6.346,6.715,14.229
1244,0.908,36.273,10.539,32.808,22.287,6.628,6.876,14.351
1245,0.912,35.986,10.64,32.779,22.287,6.428,6.796,14.271
1246,0.912,36.108,10.563,32.789,22.29,6.507,6.836,14.229
1247,0.908,36.244,10.621,32.808,22.301,6.508,6.958,14.31
1248,0.902,36.302,10.528,32.77,22.283,6.345,6.756,13.945
1249,0.921,35.958,10.582,32.798,22.297,6.466,7.039,14.104
1250,0.902,36.041,10.594,32.779,22.276,6.304,6.798,13.699
1251,0.934,36.195,10.637,32.808,22.297,6.343,6.958,13.695
1252,0.928,36.244,10.661,32.798,22.287,6.384,6.878,13.41
1253,0.954,36.216,10.571,32.798,22.283,6.303,7.0,13.367
1254,0.958,36.369,10.605,32.789,22.283,6.343,6.919,13.204
1255,0.951,36.476,10.571,32.798,22.287,6.262,6.919,12.999
1256,0.945,36.535,10.652,32.779,22.283,6.221,6.959,12.793
1257,0.967,36.114,10.563,32.779,22.287,6.22,6.96,12.669
1258,0.964,36.253,10.559,32.779,22.294,6.261,6.878,12.465
1259,0.951,36.36,10.523,32.789,22.287,6.262,7.0,12.381
1260,0.928,36.409,10.558,32.779,22.283,6.139,6.797,12.258
1261,0.941,36.4,10.488,32.789,22.29,6.301,6.958,12.176
1262,0.925,36.515,10.519,32.779,22.283,6.099,6.797,11.931
1263,0.925,36.641,10.597,32.798,22.283,6.26,6.958,11.97
1264,0.909,36.652,10.532,32.77,22.28,6.139,6.838,11.726
1265,0.912,36.383,10.625,32.798,22.29,6.219,6.877,11.723
1266,0.915,36.476,10.575,32.789,22.287,6.139,6.877,11.52
1267,0.915,36.592,10.637,32.817,22.283,6.219,6.877,11.437
1268,0.905,36.565,10.606,32.818,22.287,6.18,6.918,11.355
1269,0.912,36.488,10.629,32.789,22.283,6.057,6.796,11.191
1270,0.931,36.64,10.551,32.817,22.297,6.259,6.958,11.149
1271,0.918,36.68,10.535,32.779,22.273,6.058,6.756,10.823
1272,0.938,36.527,10.465,32.827,22.3,6.341,6.957,11.023
1273,0.935,36.555,10.53,32.779,22.283,6.1,6.797,10.822
1274,0.945,36.689,10.566,32.798,22.29,6.219,6.877,10.739
1275,0.938,36.786,10.59,32.817,22.283,6.261,6.837,10.535
1276,0.958,36.433,10.543,32.798,22.294,6.221,6.796,10.492
1277,0.964,36.582,10.593,32.789,22.29,6.261,6.836,10.288
1278,0.964,36.68,10.641,32.789,22.283,6.302,6.837,10.286
1279,0.938,36.748,10.649,32.798,22.287,6.302,6.796,10.123
1280,0.928,36.586,10.645,32.779,22.287,6.302,6.755,10.081
1281,0.922,36.709,10.594,32.798,22.287,6.302,6.673,9.959
1282,0.918,36.844,10.504,32.798,22.29,6.343,6.753,9.957
1283,0.909,36.903,10.515,32.779,22.283,6.262,6.673,9.795
1284,0.905,36.616,10.636,32.798,22.287,6.384,6.875,9.915
1285,0.895,36.718,10.606,32.77,22.276,6.263,6.715,9.632
1286,0.895,36.873,10.571,32.817,22.29,6.384,6.835,9.751
1287,0.873,36.894,10.559,32.798,22.28,6.303,6.674,9.549
1288,0.892,36.75,10.582,32.798,22.287,6.343,6.835,9.588
1289,0.882,36.873,10.586,32.798,22.283,6.384,6.714,9.466
1290,0.911,36.999,10.641,32.808,22.283,6.466,6.794,9.424
1291,0.899,37.02,10.622,32.818,22.294,6.467,6.795,9.383
1292,0.892,36.665,10.653,32.789,22.283,6.304,6.714,9.179
1293,0.918,36.863,10.587,32.846,22.301,6.628,6.957,9.38
1294,0.905,36.894,10.547,32.789,22.276,6.346,6.716,9.017
1295,0.921,37.095,10.578,32.837,22.301,6.547,6.876,9.135
1296,0.909,36.819,10.606,32.789,22.287,6.468,6.755,9.014
1297,0.895,36.96,10.528,32.798,22.29,6.467,6.795,8.972
1298,0.892,37.048,10.57,32.808,22.283,6.467,6.795,8.931
1299,0.899,36.761,10.59,32.818,22.287,6.507,6.795,8.89
1300,0.882,36.816,10.555,32.808,22.283,6.508,6.755,8.849
1301,0.885,36.951,10.621,32.808,22.294,6.589,6.795,8.889
1302,0.863,37.038,10.59,32.789,22.287,6.468,6.755,8.768
1303,0.846,36.761,10.625,32.808,22.29,6.629,6.795,8.807
1304,0.846,36.893,10.555,32.779,22.283,6.55,6.714,8.645
1305,0.84,37.019,10.582,32.817,22.283,6.59,6.835,8.684
1306,0.826,37.077,10.594,32.789,22.276,6.59,6.755,8.603
1307,0.843,36.867,10.606,32.827,22.29,6.631,6.795,8.684
1308,0.826,36.989,10.504,32.799,22.283,6.468,6.714,8.522
1309,0.843,37.125,10.441,32.827,22.297,6.589,6.835,8.561
1310,0.839,37.165,10.495,32.827,22.283,6.509,6.755,8.439
1311,0.859,36.829,10.562,32.818,22.283,6.508,6.795,8.397
1312,0.853,36.951,10.574,32.827,22.287,6.589,6.917,8.478
1313,0.853,37.067,10.57,32.799,22.28,6.468,6.796,8.316
1314,0.872,37.126,10.617,32.837,22.297,6.629,6.999,8.437
1315,0.84,36.762,10.524,32.78,22.276,6.387,6.797,8.153
1316,0.872,36.95,10.597,32.846,22.29,6.588,7.12,8.354
1317,0.866,37.0,10.61,32.808,22.283,6.468,7.002,8.234
1318,0.859,37.058,10.618,32.827,22.29,6.467,7.001,8.233
1319,0.853,36.8,10.586,32.818,22.283,6.467,7.041,8.111
1320,0.843,36.922,10.574,32.818,22.28,6.467,7.042,8.15
1321,0.839,37.019,10.582,32.808,22.283,6.426,7.001,8.11
1322,0.836,37.384,10.535,32.818,22.283,6.344,7.041,8.15
1323,0.813,36.899,10.586,32.808,22.28,6.303,7.042,8.069
1324,0.807,37.028,10.598,32.818,22.283,6.343,7.001,8.069
1325,0.813,37.116,10.598,32.798,22.287,6.303,7.041,8.069
1326,0.816,36.877,10.563,32.846,22.29,6.384,7.123,8.069
1327,0.797,36.874,10.594,32.818,22.283,6.222,7.002,7.987
1328,0.8,37.018,10.571,32.827,22.29,6.342,7.082,8.068
1329,0.8,37.077,10.59,32.808,22.276,6.221,6.961,7.946
1330,0.823,36.819,10.668,32.837,22.29,6.302,7.041,7.986
1331,0.826,36.912,10.595,32.808,22.28,6.18,6.96,7.946
1332,0.83,37.057,10.606,32.837,22.294,6.301,7.0,8.026
1333,0.839,37.145,10.547,32.827,22.29,6.343,7.082,7.946
1334,0.839,36.676,10.593,32.827,22.283,6.221,6.961,7.905
1335,0.869,36.825,10.582,32.856,22.29,6.342,7.163,7.985
1336,0.853,36.912,10.59,32.808,22.276,6.14,6.799,7.783
1337,0.859,37.047,10.528,32.856,22.301,6.382,7.08,8.066
1338,0.84,36.79,10.554,32.818,22.273,6.1,6.798,7.743
1339,0.852,36.989,10.555,32.856,22.297,6.3,6.917,7.903
1340,0.827,37.048,10.555,32.837,22.276,6.14,6.796,7.823
1341,0.833,37.145,10.555,32.837,22.287,6.26,6.877,7.903
1342,0.826,36.81,10.625,32.837,22.283,6.262,6.877,7.823
1343,0.807,36.941,10.59,32.837,22.29,6.221,6.796,7.822
1344,0.803,37.057,10.574,32.837,22.294,6.098,6.795,7.781
1345,0.816,37.087,10.578,32.827,22.287,6.219,6.795,7.74
1346,0.807,36.79,10.629,32.837,22.283,6.18,6.795,7.781
1347,0.8,36.922,10.641,32.837,22.283,6.22,6.795,7.822
1348,0.787,37.019,10.544,32.818,22.28,6.098,6.795,7.659
1349,0.797,37.039,10.554,32.856,22.283,6.178,6.755,7.739
1350,0.82,36.857,10.515,32.837,22.283,6.057,6.673,7.618
1351,0.833,36.989,10.593,32.856,22.29,6.097,6.753,7.657
1352,0.82,37.058,10.528,32.837,22.283,6.056,6.592,7.576
1353,0.836,36.857,10.667,32.856,22.287,6.219,6.753,7.86
1354,0.839,36.778,10.571,32.847,22.283,6.058,6.673,8.026
1355,0.846,36.912,10.574,32.856,22.287,6.097,6.672,8.434
1356,0.856,37.009,10.582,32.847,22.294,6.138,6.672,8.763
1357,0.853,36.703,10.586,32.837,22.283,6.057,6.55,9.051
1358,0.866,36.863,10.676,32.875,22.297,6.3,6.752,9.908
1359,0.833,36.932,10.583,32.818,22.276,5.977,6.551,10.12
1360,0.846,37.057,10.602,32.866,22.294,6.137,6.63,10.813
1361,0.836,36.694,10.508,32.837,22.283,6.098,6.631,11.227
1362,0.826,36.815,10.597,32.837,22.29,6.138,6.55,11.597
1363,0.813,36.931,10.516,32.837,22.29,6.098,6.508,11.966
1364,0.813,37.0,10.628,32.837,22.287,6.138,6.589,12.295
1365,0.816,36.694,10.586,32.827,22.283,5.976,6.549,12.461
1366,0.8,36.853,10.563,32.866,22.294,6.055,6.59,12.625
1367,0.8,36.961,10.578,32.856,22.294,6.015,6.59,12.708
1368,0.81,37.029,10.563,32.866,22.294,6.056,6.631,12.709
1369,0.816,36.636,10.64,32.847,22.287,5.975,6.55,12.75
1370,0.826,36.795,10.657,32.847,22.283,6.055,6.59,12.831
1371,0.833,36.902,10.669,32.837,22.287,6.015,6.427,12.71
1372,0.833,36.952,10.54,32.866,22.294,6.015,6.629,12.79
1373,0.846,36.559,10.613,32.856,22.283,5.893,6.55,12.547
1374,0.869,36.718,10.543,32.866,22.294,6.014,6.59,12.586
1375,0.853,36.806,10.609,32.856,22.283,5.974,6.549,12.464
1376,0.849,36.826,10.551,32.856,22.283,5.893,6.508,12.3
1377,0.879,36.759,10.578,32.895,22.294,5.973,6.63,12.38
1378,0.866,36.825,10.555,32.818,22.28,5.811,6.468,12.137
1379,0.859,36.979,10.551,32.894,22.297,6.054,6.67,12.297
1380,0.823,36.818,10.59,32.818,22.276,5.893,6.55,12.095
1381,0.852,36.625,10.625,32.866,22.29,5.973,6.549,12.134
1382,0.84,36.719,10.661,32.856,22.29,5.933,6.549,11.972
1383,0.836,36.825,10.606,32.856,22.287,5.852,6.59,11.929
1384,0.826,36.538,10.61,32.847,22.287,5.891,6.549,11.807
1385,0.836,36.631,10.579,32.837,22.287,5.933,6.549,11.724
1386,0.83,36.757,10.641,32.837,22.283,5.892,6.59,11.683
1387,0.82,36.864,10.575,32.856,22.287,5.892,6.549,11.601
1388,0.817,36.529,10.555,32.856,22.287,5.851,6.549,11.519
1389,0.826,36.679,10.539,32.876,22.287,5.891,6.549,11.477
1390,0.852,36.786,10.57,32.857,22.28,5.851,6.549,11.314
1391,0.859,36.864,10.566,32.866,22.294,5.851,6.59,11.232
1392,0.859,36.462,10.617,32.837,22.28,5.769,6.509,11.027
1393,0.866,36.621,10.657,32.866,22.287,5.931,6.589,11.066
1394,0.846,36.728,10.602,32.856,22.287,5.811,6.509,10.863
1395,0.862,36.816,10.594,32.876,22.29,5.891,6.63,10.902
1396,0.869,36.538,10.528,32.847,22.287,5.892,6.55,10.699
1397,0.885,36.689,10.656,32.856,22.29,5.851,6.549,10.656
1398,0.869,36.806,10.595,32.856,22.287,5.932,6.63,10.615
1399,0.863,36.845,10.547,32.856,22.283,5.892,6.468,10.33
1400,0.866,36.481,10.5,32.895,22.304,6.054,6.67,10.49
1401,0.84,36.564,10.538,32.828,22.28,5.853,6.469,10.247
1402,0.846,36.708,10.601,32.866,22.29,5.932,6.507,10.204
1403,0.833,36.729,10.575,32.856,22.29,5.933,6.589,10.041
1404,0.83,36.557,10.594,32.856,22.287,5.974,6.549,9.999
1405,0.833,36.699,10.563,32.847,22.29,5.974,6.508,9.917
1406,0.83,36.796,10.601,32.875,22.29,5.974,6.549,9.876
1407,0.813,36.96,10.614,32.866,22.283,5.974,6.549,9.713
1408,0.816,36.54,10.633,32.885,22.283,5.933,6.549,9.711
1409,0.842,36.651,10.618,32.866,22.283,5.933,6.59,9.508
1410,0.856,36.767,10.598,32.856,22.29,5.974,6.549,9.465
1411,0.859,36.682,10.637,32.856,22.283,5.852,6.468,9.343
1412,0.859,36.786,10.548,32.923,22.29,5.891,6.629,9.301
1413,0.846,36.864,10.551,32.867,22.28,5.851,6.55,9.219
1414,0.856,36.98,10.601,32.866,22.29,5.973,6.549,9.259
1415,0.862,36.176,10.571,32.856,22.28,5.811,6.508,9.097
1416,0.879,36.35,10.59,32.876,22.287,5.972,6.67,9.054
1417,0.866,36.438,10.524,32.866,22.283,5.893,6.672,8.932
1418,0.885,36.535,10.605,32.866,22.29,5.933,6.672,8.931
1419,0.879,36.593,10.594,32.885,22.301,6.014,6.794,9.012
1420,0.84,36.68,10.633,32.837,22.273,5.852,6.511,8.688
1421,0.849,36.863,10.629,32.904,22.297,6.013,6.752,8.928
1422,0.833,36.874,10.614,32.866,22.283,5.812,6.632,8.687
1423,0.823,36.261,10.555,32.876,22.287,5.891,6.672,8.684
1424,0.826,36.389,10.613,32.866,22.287,5.811,6.672,8.562
1425,0.833,36.496,10.598,32.876,22.287,5.85,6.713,8.561
1426,0.813,36.554,10.594,32.866,22.287,5.973,6.672,8.48
1427,0.823,36.526,10.516,32.904,22.29,5.811,6.794,8.52
1428,0.823,36.631,10.554,32.886,22.287,5.85,6.714,8.398
1429,0.823,36.757,10.594,32.885,22.29,5.891,6.754,8.397
1430,0.83,36.768,10.582,32.866,22.283,5.933,6.673,8.275
1431,0.836,36.404,10.633,32.866,22.29,6.055,6.713,8.396
1432,0.817,36.525,10.583,32.856,22.28,6.097,6.672,8.275
1433,0.846,36.67,10.567,32.876,22.297,6.178,6.713,8.314
1434,0.853,36.69,10.531,32.866,22.283,6.139,6.591,8.193
1435,0.84,36.441,10.609,32.895,22.287,6.301,6.712,8.314
1436,0.833,36.563,10.582,32.857,22.276,6.221,6.591,8.112
1437,0.869,36.66,10.633,32.885,22.29,6.424,6.712,8.191
1438,0.84,36.45,10.489,32.876,22.287,6.385,6.672,8.151
1439,0.836,36.439,10.593,32.857,22.29,6.385,6.631,8.028
1440,0.846,36.582,10.555,32.895,22.29,6.588,6.712,8.149
1441,0.82,36.632,10.547,32.857,22.276,6.346,6.551,7.947
1442,0.826,36.402,10.539,32.904,22.297,6.628,6.752,8.148
1443,0.797,36.457,10.586,32.857,22.276,6.387,6.51,7.866
1444,0.794,36.631,10.52,32.904,22.29,6.547,6.792,7.944
1445,0.797,36.709,10.554,32.866,22.283,6.63,6.714,7.986
1446,0.787,36.259,10.617,32.866,22.283,6.59,6.713,7.946
1447,0.8,36.408,10.618,32.885,22.287,6.549,6.754,7.864
1448,0.794,36.515,10.629,32.885,22.287,6.508,6.754,7.863
1449,0.8,36.583,10.54,32.876,22.283,6.549,6.714,7.822
1450,0.813,36.335,10.515,32.876,22.29,6.508,6.754,7.822
1451,0.81,36.457,10.523,32.933,22.283,6.508,6.754,7.781
1452,0.816,36.592,10.566,32.886,22.29,6.589,6.714,7.74
1453,0.813,36.622,10.531,32.876,22.283,6.549,6.794,7.659
1454,0.82,36.268,10.589,32.885,22.29,6.63,6.917,7.78
1455,0.81,36.389,10.621,32.866,22.283,6.59,6.715,7.618
1456,0.846,36.524,10.547,32.895,22.294,6.712,6.794,7.739
1457,0.827,36.545,10.59,32.857,22.276,6.632,6.714,7.577
1458,0.823,36.305,10.582,32.895,22.29,6.753,6.794,7.738
1459,0.817,36.428,10.594,32.866,22.28,6.632,6.795,7.618
1460,0.81,36.554,10.578,32.904,22.287,6.712,6.795,7.576
1461,0.8,36.584,10.59,32.905,22.294,6.794,6.877,7.616
1462,0.797,36.172,10.578,32.876,22.28,6.755,6.715,7.495
1463,0.803,36.33,10.602,32.924,22.297,6.998,6.876,7.697
1464,0.777,36.38,10.547,32.857,22.28,6.797,6.755,7.374
1465,0.793,36.476,10.59,32.933,22.297,6.958,6.836,7.614
1466,0.777,36.429,10.57,32.905,22.283,6.878,6.755,7.576
1467,0.777,36.573,10.539,32.886,22.28,6.959,6.754,7.535
1468,0.78,36.651,10.589,32.895,22.283,6.96,6.714,7.494
1469,0.784,36.163,10.57,32.895,22.29,7.0,6.754,7.453
1470,0.8,36.234,10.656,32.886,22.283,6.96,6.795,7.452
1471,0.787,36.369,10.638,32.905,22.283,7.0,6.755,7.493
1472,0.79,36.438,10.649,32.857,22.29,6.919,6.754,7.494
1473,0.8,36.228,10.575,32.895,22.283,6.959,6.754,7.534
1474,0.81,36.341,10.605,32.895,22.29,6.919,6.714,7.494
1475,0.803,36.457,10.602,32.914,22.283,7.041,6.794,7.616
1476,0.807,36.525,10.602,32.886,22.283,6.96,6.795,7.739
1477,0.826,36.238,10.547,32.943,22.294,7.0,6.795,8.065
1478,0.807,36.341,10.523,32.886,22.28,6.838,6.755,8.312
1479,0.807,36.495,10.57,32.924,22.29,6.958,6.795,8.965
1480,0.777,36.526,10.57,32.876,22.276,6.919,6.714,9.338
1481,0.793,36.219,10.613,32.904,22.29,6.959,6.794,10.236
1482,0.777,36.35,10.633,32.876,22.29,6.838,6.755,10.895
1483,0.771,36.467,10.61,32.895,22.287,6.877,6.836,11.634
1484,0.78,36.535,10.579,32.933,22.301,6.959,6.877,12.333
1485,0.774,36.219,10.578,32.876,22.28,6.675,6.755,12.624
1486,0.771,36.398,10.602,32.952,22.297,6.916,7.039,13.318
1487,0.757,36.448,10.602,32.867,22.276,6.674,6.757,13.447
1488,0.78,36.525,10.508,32.914,22.297,6.835,6.957,13.814
1489,0.774,36.229,10.57,32.895,22.28,6.755,6.96,13.94
1490,0.79,36.379,10.543,32.895,22.283,6.754,6.96,13.941
1491,0.79,36.467,10.531,32.905,22.283,6.673,7.0,14.022
1492,0.793,36.496,10.57,32.905,22.283,6.631,6.96,13.983
1493,0.79,36.334,10.594,32.895,22.283,6.712,7.041,13.982
1494,0.8,36.476,10.524,32.933,22.294,6.632,7.123,13.982
1495,0.784,36.564,10.546,32.915,22.283,6.59,7.124,13.86
1496,0.793,36.2,10.625,32.914,22.283,6.631,7.205,13.696
1497,0.8,36.254,10.586,32.895,22.28,6.59,7.165,13.573
1498,0.81,36.389,10.617,32.905,22.287,6.59,7.246,13.49
1499,0.79,36.457,10.493,32.886,22.276,6.427,7.166,13.245
1500,0.79,36.247,10.48,32.914,22.287,6.548,7.287,13.284
1501,0.78,36.37,10.511,32.905,22.283,6.427,7.125,12.999
1502,0.78,36.496,10.542,32.924,22.29,6.507,7.287,13.037
1503,0.774,36.573,10.531,32.905,22.287,6.427,7.247,12.834
1504,0.774,36.172,10.566,32.905,22.287,6.466,7.206,12.67
1505,0.767,36.35,10.531,32.914,22.297,6.467,7.206,12.627
1506,0.751,36.438,10.586,32.886,22.276,6.304,7.125,12.383
1507,0.767,36.554,10.633,32.952,22.301,6.547,7.327,12.462
1508,0.748,36.143,10.618,32.867,22.283,6.305,7.126,12.056
1509,0.773,36.34,10.664,32.943,22.297,6.384,7.327,12.052
1510,0.78,36.419,10.583,32.896,22.283,6.344,7.248,11.889
1511,0.774,36.477,10.602,32.914,22.29,6.303,7.206,11.725
1512,0.777,36.314,10.496,32.905,22.283,6.262,7.247,11.601
1513,0.784,36.457,10.57,32.905,22.287,6.302,7.206,11.438
1514,0.787,36.535,10.609,32.914,22.287,6.262,7.165,11.273
1515,0.797,36.574,10.579,32.914,22.294,6.302,7.287,11.19
1516,0.807,36.181,10.613,32.895,22.287,6.221,7.166,10.986
1517,0.81,36.321,10.547,32.905,22.29,6.22,7.206,10.903
1518,0.794,36.418,10.601,32.905,22.283,6.22,7.287,10.821
1519,0.797,36.784,10.594,32.924,22.283,6.22,7.207,10.657
1520,0.764,36.346,10.633,32.905,22.28,6.18,7.125,10.534
1521,0.774,36.505,10.598,32.934,22.29,6.179,7.246,10.492
1522,0.771,36.564,10.539,32.905,22.283,6.139,7.125,10.288
1523,0.751,36.286,10.578,32.914,22.287,6.179,7.165,10.245
1524,0.757,36.322,10.555,32.895,22.287,6.179,7.124,10.123
1525,0.754,36.428,10.66,32.914,22.29,6.139,7.002,10.0
1526,0.754,36.534,10.595,32.934,22.304,6.26,7.245,10.08
1527,0.741,36.171,10.602,32.895,22.28,6.058,7.003,9.756
1528,0.77,36.35,10.539,32.953,22.301,6.259,7.163,9.996
1529,0.744,36.409,10.578,32.886,22.28,6.058,6.962,9.633
1530,0.773,36.515,10.57,32.924,22.283,6.137,7.041,9.588
1531,0.764,36.267,10.586,32.915,22.29,6.098,7.082,9.547
1532,0.78,36.418,10.586,32.914,22.29,6.056,7.042,9.506
1533,0.767,36.525,10.59,32.905,22.283,6.097,6.92,9.465
1534,0.783,36.603,10.516,32.914,22.287,6.097,6.959,9.383
1535,0.78,36.172,10.57,32.895,22.283,6.056,6.878,9.261
1536,0.8,36.321,10.582,32.914,22.287,6.056,6.918,9.178
1537,0.781,36.418,10.602,32.905,22.28,6.015,6.919,9.096
1538,0.79,36.486,10.571,32.924,22.294,6.056,6.959,9.136
1539,0.774,36.247,10.547,32.905,22.283,6.015,6.878,9.014
1540,0.764,36.389,10.586,32.924,22.29,6.096,6.959,9.013
1541,0.761,36.476,10.528,32.905,22.287,5.975,6.878,8.932
1542,0.761,36.535,10.609,32.934,22.29,6.055,7.0,9.012
1543,0.748,36.305,10.567,32.895,22.283,5.893,6.96,8.728
1544,0.754,36.447,10.543,32.924,22.297,6.095,7.082,8.848
1545,0.741,36.554,10.535,32.924,22.283,5.975,7.002,8.849
1546,0.725,36.584,10.578,32.934,22.287,5.974,7.041,8.849
1547,0.737,36.267,10.625,32.934,22.297,6.015,7.164,8.808
1548,0.734,36.37,10.575,32.895,22.28,5.893,6.962,8.604
1549,0.757,36.524,10.633,32.943,22.297,6.054,7.082,8.765
1550,0.751,36.334,10.485,32.896,22.276,5.771,6.961,8.523
1551,0.777,36.409,10.48,32.933,22.294,5.931,7.122,8.561
1552,0.758,36.496,10.472,32.924,22.287,5.852,7.043,8.521
1553,0.77,36.583,10.581,32.924,22.29,5.891,6.96,8.52
1554,0.777,36.373,10.57,32.905,22.287,5.892,7.041,8.439
1555,0.777,36.515,10.574,32.953,22.287,5.851,7.042,8.438
1556,0.79,36.612,10.527,32.905,22.283,5.851,6.96,8.316
1557,0.793,36.69,10.601,32.914,22.283,5.932,7.041,8.396
1558,0.777,36.249,10.567,32.914,22.283,5.892,6.96,8.194
1559,0.774,36.398,10.601,32.914,22.294,5.933,7.041,8.273
1560,0.764,36.486,10.575,32.924,22.283,5.892,6.96,8.233
1561,0.767,36.593,10.57,32.934,22.287,5.973,6.919,8.355
1562,0.757,36.268,10.531,32.915,22.283,5.893,6.919,8.153
1563,0.754,36.437,10.543,32.934,22.294,6.014,6.959,8.313
1564,0.744,36.544,10.613,32.895,22.28,5.974,6.797,8.112
1565,0.754,36.603,10.602,32.933,22.294,6.055,6.877,8.191
1566,0.741,36.364,10.524,32.924,22.283,6.097,6.877,8.273
1567,0.741,36.486,10.531,32.924,22.28,6.056,6.837,8.193
1568,0.76,36.631,10.593,32.943,22.294,6.259,6.958,8.395
1569,0.748,36.613,10.571,32.905,22.276,5.977,6.797,8.031
1570,0.783,36.335,10.609,32.953,22.297,6.299,6.958,8.271
1571,0.774,36.39,10.598,32.886,22.276,6.018,6.716,8.03
1572,0.803,36.544,10.695,32.943,22.297,6.218,6.876,8.109
1573,0.794,36.526,10.548,32.924,22.29,6.139,6.837,8.069
1574,0.797,36.353,10.574,32.943,22.287,6.138,6.837,7.987
1575,0.813,36.486,10.574,32.924,22.283,6.179,6.796,8.027
1576,0.839,36.573,10.633,32.934,22.287,6.139,6.795,7.946
1577,0.843,36.507,10.505,32.924,22.283,6.098,6.755,7.986
1578,0.849,36.42,10.577,32.915,22.287,6.219,6.795,7.946
1579,0.836,36.525,10.508,32.914,22.283,6.139,6.755,7.945
1580,0.849,36.612,10.538,32.924,22.287,6.138,6.795,7.864
1581,0.84,36.268,10.586,32.915,22.283,6.098,6.673,7.822
1582,0.849,36.36,10.582,32.934,22.29,6.219,6.713,7.944
1583,0.84,36.457,10.602,32.924,22.283,6.139,6.632,7.742
1584,0.846,36.583,10.594,32.915,22.294,6.219,6.794,7.943
1585,0.84,36.248,10.582,32.914,22.276,6.098,6.551,7.823
1586,0.839,36.379,10.586,32.924,22.287,6.138,6.671,7.944
1587,0.826,36.486,10.633,32.924,22.283,6.057,6.631,7.783
1588,0.833,36.602,10.575,32.943,22.287,6.097,6.631,7.862
1589,0.839,36.239,10.516,32.934,22.297,6.138,6.672,7.904
1590,0.846,36.35,10.484,32.972,22.28,6.016,6.509,7.742
1591,0.859,36.514,10.554,32.953,22.301,6.178,6.63,7.943
1592,0.862,36.535,10.555,32.905,22.28,5.976,6.428,7.742
1593,0.911,36.334,10.609,32.962,22.297,6.137,6.629,7.943
1594,0.918,36.409,10.547,32.915,22.28,6.016,6.387,7.823
1595,0.948,36.563,10.558,32.934,22.287,6.015,6.507,7.903
1596,0.971,36.584,10.574,32.924,22.287,6.056,6.549,7.742
1597,0.984,36.296,10.609,32.915,22.287,6.056,6.468,7.781
1598,0.987,36.437,10.645,32.924,22.297,5.975,6.507,7.822
1599,0.981,36.544,10.583,32.924,22.283,5.974,6.549,7.863
1600,0.974,36.564,10.578,32.924,22.287,6.015,6.59,7.822
1601,0.977,36.382,10.504,32.943,22.29,6.137,6.59,7.863
1602,0.984,36.515,10.566,32.915,22.283,6.057,6.468,7.782
1603,0.971,36.622,10.531,32.943,22.29,5.975,6.629,7.862
1604,0.958,36.719,10.617,32.905,22.287,5.933,6.55,7.741
1605,0.964,36.346,10.555,32.943,22.294,6.055,6.59,7.862
1606,0.929,36.457,10.562,32.915,22.283,6.056,6.427,7.944
1607,0.925,36.583,10.57,32.934,22.294,6.097,6.588,8.189
1608,0.922,36.229,10.555,32.905,22.283,5.975,6.549,8.395
1609,0.922,36.283,10.644,32.924,22.29,6.055,6.59,8.804
1610,0.931,36.408,10.649,32.953,22.294,6.178,6.753,9.296
1611,0.918,36.477,10.665,32.915,22.28,5.976,6.47,9.626
1612,0.925,36.343,10.571,32.972,22.304,6.177,6.751,10.401
1613,0.909,36.419,10.594,32.896,22.273,5.895,6.551,10.734
1614,0.925,36.592,10.528,32.972,22.294,6.176,6.712,11.388
1615,0.905,36.632,10.628,32.905,22.283,6.057,6.713,11.72
1616,0.895,36.201,10.524,32.924,22.287,6.056,6.672,12.171
1617,0.899,36.34,10.57,32.934,22.287,6.097,6.753,12.378
1618,0.895,36.466,10.5,32.924,22.294,6.138,6.795,12.625
1619,0.879,36.535,10.566,32.924,22.287,6.057,6.714,12.79
1620,0.853,36.382,10.621,32.934,22.287,6.178,6.794,12.954
1621,0.846,36.505,10.586,32.943,22.283,6.098,6.755,12.956
1622,0.836,36.641,10.684,32.934,22.283,6.138,6.836,13.159
1623,0.82,36.652,10.529,32.905,22.283,6.057,6.755,13.08
1624,0.797,36.23,10.585,32.934,22.29,6.137,6.876,13.16
1625,0.794,36.341,10.528,32.905,22.276,6.057,6.755,12.958
1626,0.777,36.466,10.628,32.934,22.294,6.219,6.957,13.037
1627,0.774,36.477,10.571,32.915,22.283,6.058,6.797,12.834
1628,0.777,36.372,10.535,32.943,22.301,6.178,6.836,12.873
1629,0.758,36.496,10.582,32.943,22.287,6.179,6.877,12.67
1630,0.774,36.621,10.535,32.915,22.29,6.179,6.796,12.546
1631,0.767,36.862,10.57,32.953,22.29,6.261,6.958,12.586
1632,0.751,36.251,10.551,32.905,22.283,6.017,6.756,12.301
1633,0.777,36.408,10.629,32.962,22.297,6.259,7.039,12.421
1634,0.758,36.467,10.477,32.905,22.283,6.139,6.798,12.178
1635,0.761,36.286,10.573,32.934,22.287,6.219,6.958,12.256
1636,0.774,36.274,10.524,32.924,22.287,6.22,6.919,12.095
1637,0.758,36.418,10.617,32.915,22.283,6.139,6.959,12.093
1638,0.757,36.496,10.61,32.924,22.283,6.098,7.0,11.971
1639,0.761,36.209,10.559,32.924,22.29,6.178,6.96,11.929
1640,0.761,36.312,10.516,32.924,22.287,6.098,6.96,11.766
1641,0.748,36.457,10.433,32.953,22.287,6.219,7.122,11.764
1642,0.751,36.525,10.581,32.915,22.29,6.098,6.961,11.602
1643,0.741,36.142,10.578,32.934,22.283,6.219,7.041,11.56
1644,0.728,36.273,10.617,32.915,22.28,6.18,7.001,11.356
1645,0.731,36.408,10.575,32.943,22.287,6.179,7.082,11.354
1646,0.715,36.448,10.582,32.924,22.28,6.098,7.002,11.232
1647,0.724,36.18,10.547,32.924,22.294,6.178,7.041,11.149
1648,0.721,36.302,10.625,32.915,22.283,6.057,7.001,10.986
1649,0.734,36.437,10.676,32.953,22.283,6.178,7.082,10.984
1650,0.731,36.496,10.595,32.905,22.29,6.098,7.042,10.781
1651,0.731,36.19,10.617,32.924,22.29,6.138,7.082,10.738
1652,0.731,36.331,10.524,32.934,22.294,6.138,7.083,10.738
1653,0.731,36.418,10.546,32.915,22.283,6.057,7.083,10.494
1654,0.754,36.506,10.597,32.953,22.308,6.259,7.205,10.573
1655,0.748,36.267,10.602,32.905,22.277,5.936,6.962,10.248
1656,0.751,36.456,10.594,32.943,22.297,6.136,7.122,10.286
1657,0.738,36.516,10.59,32.896,22.29,6.057,7.043,10.123
1658,0.747,36.564,10.531,32.924,22.29,6.015,7.082,10.122
1659,0.754,36.171,10.609,32.924,22.29,6.056,7.123,10.0
1660,0.735,36.321,10.618,32.924,22.287,6.097,7.124,9.917
1661,0.721,36.418,10.629,32.905,22.29,6.097,7.205,9.916
1662,0.718,36.343,10.583,32.924,22.287,6.097,7.206,9.916
1663,0.705,36.323,10.567,32.905,22.287,6.016,7.125,9.754
1664,0.724,36.457,10.574,32.924,22.287,6.137,7.205,9.752
1665,0.715,36.516,10.574,32.905,22.287,6.057,7.165,9.63
1666,0.695,36.142,10.625,32.924,22.287,6.137,7.246,9.588
1667,0.695,36.206,10.465,32.915,22.283,6.057,7.166,9.507
1668,0.711,36.369,10.573,32.934,22.294,6.178,7.368,9.506
1669,0.702,36.438,10.524,32.915,22.28,6.017,7.208,9.343
1670,0.724,36.026,10.585,32.924,22.283,6.218,7.328,9.423
1671,0.737,36.147,10.613,32.915,22.287,6.139,7.37,9.342
1672,0.734,36.263,10.602,32.924,22.28,6.057,7.289,9.219
1673,0.757,36.379,10.621,32.962,22.297,6.259,7.451,9.34
1674,0.731,36.045,10.567,32.905,22.273,6.017,7.249,9.097
1675,0.747,36.233,10.609,32.934,22.3,6.259,7.491,9.258
1676,0.744,36.322,10.571,32.895,22.276,6.058,7.331,9.056
1677,0.76,36.39,10.633,32.924,22.29,6.097,7.451,9.095
1678,0.748,36.093,10.551,32.924,22.283,6.056,7.493,9.054
1679,0.754,36.205,10.539,32.934,22.29,6.137,7.371,8.973
1680,0.738,36.331,10.539,32.915,22.287,6.098,7.37,8.891
1681,0.728,36.38,10.527,32.924,22.29,6.138,7.37,8.89
1682,0.718,36.208,10.492,32.905,22.283,6.098,7.37,8.768
1683,0.728,36.34,10.593,32.914,22.29,6.097,7.411,8.807
1684,0.702,36.428,10.551,32.914,22.287,6.056,7.33,8.726
1685,0.705,36.487,10.543,32.934,22.29,6.097,7.37,8.726
1686,0.689,36.113,10.543,32.905,22.283,6.016,7.289,8.685
1687,0.708,36.272,10.632,32.934,22.29,6.137,7.329,8.725
1688,0.695,36.351,10.641,32.905,22.283,6.057,7.248,8.563
1689,0.711,36.332,10.614,32.914,22.29,6.178,7.288,8.643
1690,0.721,36.131,10.586,32.895,22.28,6.057,7.166,8.521
1691,0.728,36.282,10.524,32.933,22.29,6.137,7.328,8.561
1692,0.721,36.37,10.578,32.915,22.283,6.057,7.167,8.439
1693,0.728,36.074,10.551,32.924,22.29,6.097,7.206,8.479
1694,0.728,36.157,10.652,32.934,22.29,6.097,7.247,8.479
1695,0.721,36.292,10.513,32.905,22.28,6.016,7.125,8.357
1696,0.757,36.408,10.605,32.943,22.294,6.218,7.287,8.519
1697,0.725,35.882,10.559,32.896,22.273,5.895,6.963,8.236
1698,0.728,36.069,10.59,32.953,22.297,6.176,7.163,8.355
1699,0.712,36.138,10.606,32.915,22.283,5.976,7.002,8.193
1700,0.715,36.253,10.637,32.914,22.283,6.015,7.041,8.192
1701,0.724,36.092,10.637,32.905,22.287,6.015,7.042,8.232
1702,0.737,36.243,10.536,32.914,22.283,6.015,7.123,8.233
1703,0.721,36.36,10.589,32.905,22.287,5.974,7.083,8.111
1704,0.715,36.438,10.524,32.924,22.283,5.974,7.083,8.191
1705,0.728,35.988,10.601,32.895,22.283,5.893,7.042,8.11
1706,0.747,36.156,10.532,32.924,22.287,5.973,7.082,8.313
1707,0.777,36.244,10.589,32.905,22.287,5.893,7.042,8.356
1708,0.816,36.322,10.555,32.924,22.29,5.933,7.123,8.762
1709,0.846,36.553,10.582,32.895,22.276,5.852,7.002,9.011
1710,0.898,36.708,10.606,32.924,22.294,5.891,7.123,9.623
1711,0.918,36.758,10.617,32.876,22.287,5.77,7.083,10.076
1712,0.951,36.816,10.68,32.924,22.294,5.972,7.083,10.609
1713,1.003,35.742,10.556,32.915,22.294,5.893,7.042,11.143
1714,1.049,35.856,10.594,32.905,22.283,5.77,6.96,11.515
1715,1.112,35.992,10.555,32.943,22.294,5.972,7.163,12.128
1716,1.128,36.329,10.605,32.867,22.273,5.689,6.921,12.297
1717,1.174,36.207,10.524,32.971,22.3,5.89,7.163,12.786
1718,1.204,36.302,10.511,32.915,22.287,5.77,7.043,12.873
1719,1.237,36.399,10.531,32.905,22.29,5.809,7.042,13.077
1720,1.276,35.949,10.578,32.905,22.283,5.81,7.001,13.119
1721,1.319,35.954,10.551,32.924,22.287,5.769,7.001,13.242
1722,1.358,36.089,10.551,32.915,22.28,5.768,6.96,13.324
1723,1.385,36.186,10.636,32.924,22.287,5.728,7.041,13.284
1724,1.398,35.947,10.532,32.905,22.28,5.768,6.96,13.243
1725,1.434,36.108,10.593,32.914,22.287,5.85,6.96,13.202
1726,1.398,36.215,10.563,32.905,22.276,5.729,7.0,13.039
1727,1.405,36.321,10.637,32.924,22.283,5.809,7.041,13.078
1728,1.392,35.9,10.587,32.886,22.28,5.647,6.879,12.835
1729,1.424,36.069,10.574,32.914,22.29,5.808,6.959,12.792
1730,1.467,36.166,10.465,32.914,22.276,5.688,6.838,12.547
1731,1.529,36.283,10.589,32.972,22.287,5.809,6.999,12.504
1732,1.575,35.977,10.535,32.915,22.28,5.647,6.919,12.219
1733,1.673,36.137,10.609,32.934,22.29,5.767,6.919,12.176
1734,1.749,36.225,10.61,32.924,22.287,5.768,6.878,12.013
1735,1.772,36.283,10.582,32.972,22.283,5.647,6.796,11.808
1736,1.795,35.9,10.578,32.944,22.301,5.889,7.039,11.928
1737,1.796,35.992,10.559,32.876,22.276,5.607,6.798,11.482
1738,1.799,36.166,10.652,32.933,22.297,5.808,6.958,11.558
1739,1.721,36.167,10.571,32.895,22.29,5.728,6.797,11.397
1740,1.616,36.014,10.641,32.924,22.29,5.768,6.877,11.354
1741,1.459,36.118,10.563,32.905,22.28,5.768,6.918,11.354
1742,1.298,36.244,10.523,32.914,22.283,5.728,6.878,11.395
1743,1.137,36.264,10.539,32.905,22.283,5.768,6.918,11.598
1744,0.989,35.938,10.617,32.895,22.29,5.809,6.919,11.763
1745,0.854,36.06,10.625,32.905,22.283,5.728,6.837,11.887
1746,0.745,36.186,10.477,32.934,22.29,5.809,6.877,12.172
1747,0.663,36.053,10.569,32.895,22.283,5.769,6.796,12.175
1748,0.604,36.051,10.539,32.914,22.294,5.809,6.877,12.378
1749,0.535,36.157,10.625,32.895,22.28,5.688,6.755,12.381
1750,0.501,36.282,10.61,32.914,22.29,5.849,6.917,12.543
1751,0.443,35.843,10.637,32.895,22.283,5.729,6.837,12.545
1752,0.413,35.982,10.563,32.914,22.29,5.85,6.918,12.626
1753,0.399,36.108,10.496,32.914,22.283,5.769,6.756,12.546
1754,0.399,36.205,10.577,32.914,22.29,5.85,6.795,12.545
1755,0.406,35.899,10.609,32.934,22.294,5.891,6.958,12.586
1756,0.403,35.992,10.641,32.876,22.276,5.77,6.675,12.22
1757,0.393,36.175,10.532,32.933,22.297,6.053,6.916,12.541
1758,0.344,36.196,10.574,32.857,22.276,5.812,6.674,12.26
1759,0.347,35.832,10.539,32.904,22.29,5.972,6.753,12.298
1760,0.337,35.953,10.562,32.914,22.283,5.974,6.795,12.258
1761,0.337,36.069,10.559,32.905,22.283,5.974,6.755,12.217
1762,0.356,36.147,10.633,32.895,22.283,6.055,6.795,12.176
1763,0.376,35.87,10.575,32.895,22.29,6.137,6.755,12.094
1764,0.405,36.021,10.555,32.914,22.283,6.016,6.714,12.093
1765,0.429,36.128,10.578,32.914,22.29,6.178,6.713,12.093
1766,0.448,36.177,10.59,32.895,22.283,6.139,6.794,12.134
1767,0.478,35.957,10.613,32.905,22.287,6.179,6.836,12.134
1768,0.524,36.098,10.567,32.905,22.283,6.179,6.755,11.972
1769,0.573,36.215,10.551,32.905,22.287,6.301,6.876,12.051
1770,0.606,36.206,10.523,32.895,22.28,6.14,6.755,12.011
1771,0.632,35.976,10.562,32.924,22.287,6.179,6.876,12.052
1772,0.649,36.07,10.512,32.895,22.28,6.098,6.796,11.971
1773,0.675,36.214,10.585,32.905,22.29,6.219,6.917,12.051
1774,0.695,36.043,10.531,32.905,22.287,6.18,6.837,12.052
1775,0.698,35.917,10.558,32.895,22.287,6.139,6.837,11.889
1776,0.727,36.05,10.539,32.924,22.301,6.26,6.999,12.01
1777,0.734,36.109,10.582,32.876,22.283,6.099,6.757,11.726
1778,0.76,35.898,10.578,32.943,22.301,6.26,6.998,11.805
1779,0.735,35.935,10.633,32.876,22.276,6.099,6.879,11.602
1780,0.734,36.108,10.61,32.895,22.287,6.097,6.918,11.56
1781,0.734,36.176,10.551,32.905,22.283,6.138,6.919,11.478
1782,0.712,35.813,10.601,32.895,22.287,6.138,6.919,11.396
1783,0.715,35.972,10.559,32.895,22.283,6.138,6.837,11.273
1784,0.721,36.079,10.625,32.886,22.287,6.138,6.877,11.19
1785,0.708,36.157,10.544,32.895,22.283,6.057,6.877,11.068
1786,0.698,35.889,10.57,32.914,22.287,6.137,6.918,11.026
1787,0.721,36.011,10.523,32.895,22.283,6.016,6.878,10.863
1788,0.715,36.128,10.57,32.876,22.29,6.137,6.959,10.902
1789,0.708,36.205,10.609,32.885,22.287,6.016,6.797,10.699
1790,0.737,35.784,10.657,32.905,22.287,6.096,6.877,10.697
1791,0.731,35.905,10.645,32.866,22.283,6.016,6.837,10.575
1792,0.734,36.05,10.606,32.904,22.283,6.015,6.877,10.492
1793,0.751,36.09,10.602,32.876,22.283,5.974,6.796,10.451
1794,0.767,35.937,10.571,32.895,22.283,6.096,6.877,10.41
1795,0.754,36.05,10.625,32.895,22.287,6.056,6.877,10.409
1796,0.761,36.147,10.52,32.895,22.283,6.056,6.877,10.287
1797,0.774,36.215,10.57,32.914,22.294,6.137,6.877,10.449
1798,0.751,35.986,10.508,32.867,22.273,5.976,6.715,10.166
1799,0.767,36.185,10.601,32.914,22.3,6.218,6.957,10.407
1800,0.754,36.225,10.508,32.876,22.28,5.976,6.838,10.165
1801,0.761,36.226,10.644,32.885,22.29,6.055,6.958,10.163
1802,0.751,35.823,10.606,32.876,22.287,6.056,6.919,10.163
1803,0.748,35.943,10.586,32.876,22.287,6.056,7.0,10.122
1804,0.747,36.06,10.555,32.876,22.287,5.975,6.96,9.919
1805,0.744,35.888,10.582,32.895,22.283,6.015,7.0,9.998
1806,0.731,35.973,10.633,32.866,22.287,6.056,6.96,9.917
1807,0.738,36.089,10.579,32.885,22.294,6.056,7.122,9.876
1808,0.741,36.167,10.504,32.885,22.287,6.015,7.002,9.753
1809,0.741,35.822,10.495,32.895,22.287,6.096,7.123,9.793
1810,0.751,35.915,10.538,32.847,22.276,5.975,7.002,9.549
1811,0.761,36.069,10.539,32.895,22.287,6.015,7.082,9.588
1812,0.744,36.119,10.625,32.876,22.287,5.934,7.042,9.385
1813,0.77,35.86,10.59,32.885,22.29,6.055,7.123,9.423
1814,0.767,36.001,10.598,32.895,22.287,5.975,7.083,9.342
1815,0.774,36.108,10.52,32.866,22.283,5.974,7.042,9.219
1816,0.81,36.205,10.628,32.904,22.297,6.137,7.204,9.34
1817,0.787,35.717,10.586,32.847,22.276,5.894,6.962,9.016
1818,0.803,35.885,10.594,32.895,22.294,6.054,7.122,9.176
1819,0.784,35.992,10.547,32.876,22.29,5.975,7.083,9.015
1820,0.774,36.07,10.472,32.876,22.283,5.974,7.083,9.094
1821,0.774,35.821,10.581,32.876,22.283,5.974,7.002,9.054
1822,0.774,35.972,10.496,32.876,22.287,5.974,7.123,9.013
1823,0.774,36.079,10.624,32.857,22.283,5.974,7.124,9.054
1824,0.761,36.099,10.536,32.885,22.287,6.015,7.124,9.339
1825,0.764,35.812,10.586,32.943,22.287,5.974,7.124,9.667
1826,0.754,35.943,10.543,32.876,22.294,5.974,7.287,10.239
1827,0.748,36.031,10.586,32.857,22.283,5.933,7.166,10.733
1828,0.76,36.444,10.633,32.895,22.287,5.974,7.328,11.429
1829,0.761,35.883,10.555,32.866,22.283,5.852,7.207,11.965
1830,0.774,36.021,10.586,32.885,22.294,6.054,7.369,12.783
1831,0.78,36.099,10.469,32.866,22.28,5.975,7.411,13.198
1832,0.793,35.831,10.476,32.895,22.29,6.015,7.411,13.69
1833,0.803,35.857,10.597,32.914,22.29,6.056,7.493,14.101
1834,0.794,35.944,10.594,32.838,22.273,5.853,7.331,14.187
1835,0.823,36.088,10.625,32.904,22.3,6.135,7.573,14.635
1836,0.804,35.764,10.551,32.886,22.276,5.813,7.372,14.477
1837,0.813,35.943,10.562,32.876,22.29,6.013,7.492,14.597
1838,0.816,36.031,10.539,32.876,22.283,5.974,7.412,14.598
1839,0.81,36.128,10.625,32.857,22.283,5.974,7.493,14.436
1840,0.784,35.755,10.594,32.866,22.29,5.933,7.453,14.393
1841,0.787,35.885,10.621,32.847,22.283,5.974,7.452,14.352
1842,0.787,36.002,10.547,32.856,22.287,5.974,7.412,14.189
1843,0.767,36.089,10.578,32.866,22.287,6.055,7.452,14.106
1844,0.764,35.879,10.5,32.856,22.283,6.015,7.452,13.902
1845,0.78,36.011,10.581,32.866,22.29,6.056,7.371,13.819
1846,0.764,36.108,10.578,32.856,22.276,5.934,7.37,13.615
1847,0.767,36.205,10.547,32.885,22.287,6.096,7.411,13.531
1848,0.777,35.813,10.57,32.837,22.28,6.016,7.33,13.205
1849,0.787,35.962,10.543,32.866,22.29,6.137,7.37,13.161
1850,0.797,36.041,10.574,32.837,22.283,6.016,7.289,12.917
1851,0.81,36.109,10.527,32.847,22.283,6.096,7.329,12.874
1852,0.803,35.793,10.621,32.875,22.29,6.056,7.37,12.711
1853,0.81,35.905,10.637,32.837,22.28,6.056,7.289,12.465
1854,0.833,36.079,10.583,32.914,22.297,6.178,7.532,12.625
1855,0.807,36.023,10.57,32.819,22.276,5.976,7.209,12.22
1856,0.836,35.878,10.605,32.866,22.294,6.137,7.409,12.257
1857,0.826,35.954,10.633,32.818,22.283,6.057,7.371,11.932
1858,0.833,36.079,10.516,32.846,22.287,6.015,7.37,11.848
1859,0.83,35.917,10.558,32.856,22.287,6.015,7.33,11.684
1860,0.82,35.839,10.516,32.837,22.283,6.015,7.289,11.52
1861,0.813,35.982,10.558,32.827,22.287,5.974,7.288,11.437
1862,0.82,36.051,10.605,32.837,22.294,6.055,7.288,11.395
1863,0.803,35.831,10.594,32.808,22.283,5.893,7.288,11.11
1864,0.797,35.934,10.571,32.856,22.294,6.054,7.288,11.189
1865,0.797,36.06,10.547,32.837,22.287,5.893,7.166,11.027
1866,0.794,36.166,10.582,32.856,22.294,5.973,7.287,10.985
1867,0.793,35.717,10.551,32.828,22.28,5.933,7.125,10.862
1868,0.79,35.866,10.605,32.846,22.294,6.014,7.287,10.78
1869,0.79,35.963,10.536,32.828,22.273,5.852,7.166,10.576
1870,0.823,36.07,10.558,32.856,22.29,5.973,7.287,10.614
1871,0.81,35.84,10.453,32.828,22.287,5.811,7.166,10.411
1872,0.826,35.982,10.55,32.856,22.29,5.932,7.165,10.369
1873,0.836,36.108,10.566,32.856,22.287,5.974,7.206,10.328
1874,0.81,36.148,10.609,32.818,22.28,5.73,7.043,10.124
1875,0.852,35.764,10.516,32.885,22.294,6.053,7.326,10.244
1876,0.853,35.837,10.57,32.818,22.276,5.731,7.045,9.838
1877,0.869,36.011,10.586,32.846,22.297,5.89,7.123,9.916
1878,0.853,36.032,10.602,32.837,22.287,5.811,7.083,9.835
1879,0.856,35.888,10.676,32.837,22.29,5.85,7.164,9.794
1880,0.836,36.03,10.61,32.837,22.29,5.81,7.084,9.59
1881,0.836,36.128,10.625,32.847,22.287,5.932,7.083,9.629
1882,0.836,36.167,10.54,32.818,22.283,5.811,7.123,9.507
1883,0.817,35.793,10.597,32.827,22.283,5.81,7.205,9.465
1884,0.816,35.905,10.532,32.818,22.283,5.81,7.125,9.343
1885,0.829,36.002,10.636,32.837,22.287,5.891,7.205,9.423
1886,0.826,36.032,10.493,32.818,22.287,5.811,7.206,9.302
1887,0.813,36.032,10.558,32.856,22.287,5.85,7.328,9.301
1888,0.813,36.118,10.566,32.828,22.28,5.769,7.207,9.219
1889,0.833,36.234,10.547,32.856,22.294,5.85,7.369,9.259
1890,0.843,35.583,10.586,32.808,22.283,5.769,7.289,9.178
1891,0.846,35.663,10.582,32.827,22.29,5.809,7.369,9.137
1892,0.843,35.76,10.645,32.856,22.287,5.891,7.33,9.014
1893,0.846,35.837,10.493,32.837,22.276,5.77,7.289,8.891
1894,0.872,35.857,10.585,32.866,22.307,5.972,7.451,9.093
1895,0.85,35.925,10.555,32.799,22.27,5.689,7.208,8.729
1896,0.885,36.107,10.637,32.856,22.3,5.931,7.45,8.888
1897,0.863,36.148,10.54,32.799,22.276,5.77,7.208,8.727
1898,0.879,35.726,10.562,32.827,22.287,5.891,7.369,8.685
1899,0.863,35.856,10.582,32.827,22.29,5.892,7.33,8.684
1900,0.859,35.963,10.551,32.827,22.29,5.811,7.37,8.684
1901,0.869,36.041,10.59,32.827,22.29,5.85,7.37,8.603
1902,0.863,35.773,10.559,32.827,22.287,5.891,7.37,8.602
1903,0.853,35.905,10.613,32.837,22.283,5.811,7.208,8.521
1904,0.856,36.021,10.586,32.818,22.283,5.891,7.328,8.52
1905,0.849,36.08,10.586,32.827,22.28,5.851,7.248,8.439
1906,0.83,35.716,10.59,32.837,22.287,5.851,7.288,8.519
1907,0.833,35.856,10.629,32.818,22.28,5.81,7.207,8.317
1908,0.856,35.992,10.544,32.837,22.294,5.85,7.287,8.477
1909,0.843,35.993,10.488,32.808,22.283,5.769,7.207,8.276
1910,0.875,35.859,10.554,32.837,22.294,5.931,7.287,8.355
1911,0.876,35.982,10.5,32.827,22.287,5.892,7.288,8.315
1912,0.882,36.07,10.515,32.818,22.283,5.851,7.166,8.234
1913,0.905,36.253,10.539,32.846,22.297,6.013,7.287,8.436
1914,0.892,35.698,10.523,32.789,22.276,5.812,7.085,8.072
1915,0.918,35.894,10.55,32.846,22.304,5.972,7.327,8.312
1916,0.902,35.935,10.551,32.808,22.283,5.811,7.085,8.071
1917,0.918,35.724,10.566,32.798,22.287,5.81,7.205,8.109
1918,0.905,35.76,10.633,32.808,22.287,5.85,7.125,8.109
1919,0.905,35.885,10.559,32.818,22.28,5.851,7.165,8.15
1920,0.886,35.982,10.57,32.808,22.283,5.891,7.084,8.232
1921,0.885,35.677,10.481,32.808,22.283,5.851,7.123,8.599
1922,0.872,35.817,10.562,32.818,22.283,5.851,7.002,8.806
1923,0.879,35.943,10.551,32.798,22.29,5.973,7.123,9.174
1924,0.879,36.012,10.554,32.798,22.283,5.852,7.043,9.584
1925,0.885,35.686,10.558,32.817,22.287,5.851,7.123,10.238
1926,0.879,35.808,10.531,32.808,22.283,5.891,6.961,10.733
1927,0.889,35.962,10.586,32.818,22.287,6.014,7.122,11.307
1928,0.869,36.012,10.567,32.789,22.276,5.812,7.002,11.719
1929,0.889,35.773,10.629,32.817,22.287,5.891,7.123,12.211
1930,0.912,35.914,10.598,32.827,22.294,5.933,7.205,12.623
1931,0.905,36.011,10.641,32.799,22.283,5.852,7.125,12.79
1932,0.918,36.108,10.591,32.837,22.294,5.973,7.205,13.157
1933,0.912,35.726,10.57,32.789,22.28,5.811,7.003,13.08
1934,0.935,35.904,10.625,32.827,22.304,6.013,7.285,13.404
1935,0.915,35.944,10.625,32.77,22.283,5.852,7.004,13.245
1936,0.948,36.05,10.59,32.808,22.294,5.891,7.163,13.365
1937,0.938,35.706,10.57,32.856,22.283,5.851,7.084,13.285
1938,0.925,35.837,10.535,32.799,22.283,5.851,7.042,13.243
1939,0.925,35.944,10.562,32.789,22.287,5.891,7.042,13.121
1940,0.918,36.05,10.625,32.798,22.283,5.811,7.082,13.039
1941,0.909,35.879,10.602,32.779,22.283,5.81,7.042,12.875
1942,0.921,35.992,10.641,32.789,22.283,5.85,7.123,12.792
1943,0.899,36.099,10.555,32.779,22.283,5.769,7.043,12.547
1944,0.908,35.879,10.605,32.789,22.287,5.809,7.001,12.626
1945,0.892,35.867,10.512,32.779,22.28,5.769,6.96,12.342
1946,0.895,35.992,10.652,32.798,22.287,5.85,7.082,12.38
1947,0.886,36.07,10.524,32.77,22.283,5.769,6.92,12.137
1948,0.911,35.745,10.535,32.808,22.29,5.809,7.041,12.215
1949,0.899,35.856,10.578,32.789,22.283,5.81,6.96,11.972
1950,0.912,36.001,10.563,32.789,22.28,5.81,6.96,11.889
1951,0.931,36.099,10.601,32.808,22.294,5.891,7.041,11.806
1952,0.918,35.639,10.563,32.77,22.276,5.689,6.839,11.562
1953,0.944,35.807,10.668,32.817,22.297,5.971,6.999,11.64
1954,0.919,35.895,10.509,32.76,22.273,5.73,6.797,11.357
1955,0.931,36.021,10.577,32.788,22.287,5.768,6.877,11.313
1956,0.931,35.936,10.566,32.76,22.29,5.768,6.837,11.15
1957,0.944,36.04,10.605,32.779,22.29,5.809,6.918,11.067
1958,0.954,36.166,10.614,32.769,22.287,5.769,6.837,10.985
1959,0.945,36.225,10.508,32.788,22.29,5.768,6.877,10.903
1960,0.919,35.947,10.523,32.769,22.283,5.809,6.877,10.739
1961,0.925,36.088,10.453,32.798,22.283,5.81,6.877,10.657
1962,0.918,36.205,10.554,32.789,22.276,5.688,6.796,10.574
1963,0.928,36.264,10.543,32.779,22.283,5.809,6.877,10.492
1964,0.912,35.948,10.625,32.76,22.283,5.688,6.877,10.329
1965,0.905,36.108,10.516,32.779,22.294,5.809,6.837,10.327
1966,0.899,36.176,10.55,32.76,22.283,5.728,6.796,10.205
1967,0.912,36.225,10.57,32.788,22.29,5.85,6.877,10.245
1968,0.905,36.091,10.633,32.75,22.283,5.729,6.837,10.042
1969,0.921,36.243,10.653,32.779,22.287,5.768,6.796,9.999
1970,0.948,36.35,10.637,32.798,22.294,5.931,6.917,10.039
1971,0.928,36.217,10.61,32.741,22.276,5.73,6.756,9.715
1972,0.944,36.206,10.539,32.788,22.297,5.89,6.957,9.833
1973,0.945,36.273,10.57,32.75,22.276,5.648,6.716,9.631
1974,0.958,36.418,10.535,32.779,22.294,5.767,6.835,9.629
1975,0.938,36.132,10.601,32.741,22.283,5.728,6.755,9.466
1976,0.945,36.244,10.543,32.759,22.294,5.727,6.795,9.505
1977,0.954,36.36,10.578,32.76,22.287,5.727,6.714,9.343
1978,0.954,36.467,10.586,32.76,22.29,5.809,6.754,9.301
1979,0.941,36.209,10.598,32.75,22.283,5.688,6.795,9.219
1980,0.948,36.35,10.606,32.759,22.29,5.809,6.795,9.178
1981,0.948,36.457,10.66,32.74,22.283,5.728,6.714,9.137
1982,0.951,36.535,10.618,32.779,22.287,5.809,6.713,9.095
1983,0.932,36.353,10.516,32.76,22.28,5.688,6.591,8.973
1984,0.925,36.476,10.585,32.769,22.29,5.768,6.712,9.013
1985,0.922,36.573,10.563,32.731,22.276,5.687,6.632,8.85
1986,0.944,36.651,10.613,32.769,22.29,5.809,6.794,8.971
1987,0.915,36.422,10.481,32.74,22.283,5.728,6.633,8.809
1988,0.922,36.592,10.577,32.759,22.29,5.768,6.834,8.848
1989,0.922,36.689,10.512,32.76,22.29,5.728,6.674,8.767
1990,0.941,36.758,10.574,32.76,22.283,5.768,6.713,8.726
1991,0.938,36.336,10.543,32.76,22.29,5.809,6.754,8.766
1992,0.928,36.428,10.574,32.74,22.28,5.606,6.551,8.563
1993,0.948,36.582,10.578,32.779,22.301,5.889,6.752,8.886
1994,0.935,36.555,10.582,32.721,22.273,5.526,6.592,8.687
1995,0.977,36.478,10.563,32.778,22.294,5.847,6.671,9.132
1996,0.964,36.554,10.547,32.731,22.29,5.729,6.631,9.339
1997,0.964,36.67,10.625,32.75,22.287,5.687,6.631,9.708
1998,0.951,36.757,10.524,32.74,22.28,5.727,6.631,10.118
1999,0.954,36.634,10.48,32.75,22.294,5.727,6.672,10.569
2000,0.935,36.786,10.519,32.74,22.283,5.768,6.55,10.98
2001,0.922,36.874,10.554,32.75,22.294,5.809,6.63,11.472
2002,0.925,36.462,10.523,32.74,22.283,5.85,6.55,11.843
2003,0.909,36.506,10.589,32.75,22.29,5.851,6.63,12.253
2004,0.908,36.612,10.57,32.731,22.29,5.851,6.509,12.379
2005,0.918,36.728,10.527,32.75,22.29,5.891,6.589,12.625
2006,0.905,36.691,10.574,32.74,22.283,5.77,6.427,12.83
2007,0.889,36.882,10.59,32.759,22.294,5.891,6.548,13.036
2008,0.892,36.961,10.649,32.74,22.283,5.933,6.508,12.956
2009,0.892,37.048,10.595,32.74,22.294,5.974,6.63,12.996
2010,0.905,36.665,10.59,32.74,22.29,5.974,6.631,13.119
2011,0.905,36.786,10.559,32.721,22.29,5.893,6.55,12.876
2012,0.918,36.96,10.562,32.769,22.297,6.054,6.874,13.077
2013,0.902,36.952,10.539,32.702,22.276,5.771,6.471,12.794
2014,0.928,36.722,10.558,32.749,22.294,6.013,6.792,12.913
2015,0.918,36.825,10.578,32.721,22.28,5.893,6.714,12.589
2016,0.918,36.97,10.555,32.74,22.287,5.892,6.672,12.464
2017,0.918,36.991,10.574,32.731,22.287,5.973,6.672,12.341
2018,0.912,36.761,10.586,32.731,22.283,5.933,6.794,12.339
2019,0.912,36.883,10.633,32.711,22.287,5.933,6.755,12.095
2020,0.895,37.009,10.633,32.74,22.287,5.974,6.714,11.971
2021,0.895,37.039,10.653,32.731,22.287,5.852,6.754,11.889
2022,0.873,36.79,10.579,32.74,22.287,6.013,6.754,11.888
2023,0.853,36.931,10.606,32.711,22.283,5.974,6.795,11.644
2024,0.875,37.048,10.524,32.721,22.287,6.015,6.795,11.56
2025,0.863,37.356,10.601,32.711,22.283,5.893,6.714,11.397
2026,0.859,36.908,10.547,32.75,22.294,6.054,6.794,11.354
2027,0.859,37.028,10.593,32.74,22.273,5.975,6.714,11.273
2028,0.869,37.135,10.531,32.74,22.287,6.096,6.835,11.15
2029,0.863,36.772,10.55,32.731,22.287,6.097,6.796,11.026
2030,0.879,36.825,10.582,32.721,22.29,6.056,6.755,10.863
2031,0.879,36.941,10.625,32.75,22.297,6.178,6.876,10.861
2032,0.872,37.009,10.649,32.702,22.283,6.017,6.715,10.617
2033,0.898,36.924,10.575,32.749,22.297,6.218,6.835,10.655
2034,0.866,37.009,10.59,32.721,22.273,6.098,6.633,10.371
2035,0.879,37.192,10.555,32.75,22.287,6.26,6.794,10.409
2036,0.866,37.223,10.609,32.692,22.283,6.221,6.755,10.206
2037,0.889,36.811,10.543,32.701,22.294,6.18,6.714,10.123
2038,0.863,36.97,10.527,32.73,22.29,6.179,6.713,10.081
2039,0.872,37.058,10.562,32.721,22.283,6.179,6.754,10.04
2040,0.859,37.135,10.547,32.711,22.28,6.179,6.714,9.958
2041,0.849,36.858,10.566,32.711,22.283,6.179,6.713,9.917
2042,0.846,36.97,10.555,32.711,22.29,6.179,6.794,9.754
2043,0.84,37.096,10.656,32.721,22.29,6.179,6.755,9.793
2044,0.843,37.145,10.536,32.721,22.276,6.139,6.673,9.631
2045,0.836,36.868,10.586,32.711,22.29,6.219,6.794,9.629
2046,0.826,36.961,10.52,32.711,22.287,6.098,6.673,9.548
2047,0.826,37.096,10.636,32.73,22.29,6.178,6.753,9.547
2048,0.826,37.097,10.587,32.702,22.283,6.098,6.632,9.303
2049,0.833,36.886,10.574,32.721,22.29,6.219,6.712,9.463
2050,0.836,36.999,10.496,32.702,22.28,6.098,6.672,9.221
2051,0.839,37.125,10.558,32.74,22.287,6.219,6.794,9.3
2052,0.836,37.117,10.535,32.711,22.29,6.139,6.714,9.178
2053,0.843,36.973,10.574,32.721,22.283,6.26,6.713,9.137
2054,0.836,37.077,10.621,32.73,22.294,6.18,6.754,9.136
2055,0.843,37.145,10.536,32.692,22.276,6.017,6.632,8.974
2056,0.862,37.04,10.586,32.759,22.301,6.218,6.834,9.135
2057,0.849,36.962,10.543,32.673,22.273,6.058,6.592,8.77
2058,0.869,37.144,10.617,32.74,22.287,6.137,6.834,8.929
2059,0.846,37.194,10.579,32.721,22.283,6.057,6.714,8.768
2060,0.84,36.926,10.617,32.711,22.29,6.097,6.713,8.807
2061,0.846,37.038,10.524,32.711,22.29,6.056,6.713,8.767
2062,0.84,37.164,10.585,32.711,22.29,6.056,6.794,8.807
2063,0.826,37.251,10.551,32.711,22.283,6.056,6.714,8.726
2064,0.83,36.706,10.633,32.711,22.287,6.015,6.672,8.726
2065,0.823,36.825,10.59,32.692,22.283,6.056,6.713,8.726
2066,0.826,36.951,10.543,32.721,22.287,6.056,6.794,8.726
2067,0.807,37.019,10.543,32.692,22.287,5.975,6.755,8.644
2068,0.826,36.78,10.543,32.73,22.283,6.055,6.795,8.684
2069,0.813,36.902,10.601,32.702,22.283,5.975,6.673,8.603
2070,0.836,37.038,10.586,32.711,22.294,6.055,6.794,8.562
2071,0.823,37.058,10.621,32.673,22.276,5.934,6.673,8.48
2072,0.826,36.809,10.618,32.692,22.297,6.055,6.794,8.601
2073,0.839,36.922,10.567,32.711,22.283,5.975,6.633,8.44
2074,0.862,37.048,10.543,32.721,22.29,6.096,6.712,8.56
2075,0.849,37.097,10.625,32.711,22.29,6.016,6.754,8.439
2076,0.853,36.819,10.586,32.702,22.287,6.015,6.632,8.275
2077,0.869,36.97,10.555,32.74,22.297,6.178,6.794,8.436
2078,0.846,37.01,10.558,32.759,22.273,5.935,6.551,8.275
2079,0.866,37.106,10.558,32.731,22.297,6.136,6.671,8.518
2080,0.84,36.791,10.551,32.683,22.283,6.016,6.591,8.723
2081,0.852,36.922,10.543,32.711,22.283,6.096,6.59,9.091
2082,0.856,37.028,10.59,32.702,22.287,6.056,6.631,9.502
2083,0.843,36.905,10.578,32.692,22.283,6.056,6.672,10.034
2084,0.836,36.779,10.547,32.74,22.29,6.015,6.591,10.568
2085,0.82,36.883,10.519,32.702,22.287,6.056,6.671,11.224
2086,0.833,36.99,10.581,32.711,22.29,6.097,6.631,11.759
2087,0.839,36.761,10.57,32.702,22.29,6.097,6.55,12.374
2088,0.836,36.873,10.57,32.682,22.283,6.016,6.59,12.747
2089,0.836,37.009,10.481,32.701,22.29,6.056,6.549,13.197
2090,0.852,37.125,10.546,32.711,22.276,5.975,6.508,13.405
2091,0.866,36.618,10.562,32.692,22.297,6.096,6.508,13.651
2092,0.856,36.728,10.562,32.682,22.28,5.975,6.508,13.654
2093,0.869,36.854,10.633,32.701,22.29,6.055,6.589,13.898
2094,0.866,36.913,10.587,32.682,22.283,5.975,6.468,13.859
2095,0.872,36.75,10.621,32.701,22.283,6.015,6.589,13.94
2096,0.866,36.883,10.551,32.701,22.283,5.974,6.59,13.86
2097,0.885,36.99,10.601,32.682,22.283,5.974,6.509,13.696
2098,0.889,37.067,10.614,32.711,22.301,6.137,6.752,13.695
2099,0.872,36.56,10.614,32.654,22.273,5.894,6.429,13.41
2100,0.885,36.747,10.528,32.73,22.297,6.095,6.71,13.489
2101,0.853,36.816,10.543,32.683,22.283,5.975,6.551,13.205
2102,0.866,36.893,10.547,32.692,22.283,5.974,6.63,13.08
2103,0.849,36.673,10.582,32.682,22.283,5.893,6.631,12.997
2104,0.846,36.834,10.586,32.673,22.28,5.933,6.672,12.834
2105,0.846,36.922,10.586,32.672,22.287,5.933,6.591,12.588
2106,0.853,36.961,10.606,32.682,22.283,5.974,6.671,12.505
2107,0.84,37.355,10.555,32.682,22.287,5.893,6.591,12.301
2108,0.836,37.493,10.59,32.682,22.29,5.973,6.631,12.258
2109,0.843,37.571,10.567,32.682,22.283,5.893,6.631,12.013
2110,0.866,37.275,10.664,32.673,22.287,5.933,6.672,11.889
2111,0.859,36.437,10.583,32.644,22.283,5.852,6.55,11.644
2112,0.879,36.592,10.637,32.691,22.29,5.932,6.712,11.56
2113,0.879,36.661,10.563,32.673,22.276,5.852,6.591,11.315
2114,0.876,36.604,10.559,32.692,22.294,6.013,6.712,11.394
2115,0.872,36.69,10.601,32.663,22.287,5.934,6.632,11.151
2116,0.892,36.825,10.578,32.672,22.283,5.933,6.631,11.026
2117,0.899,36.932,10.59,32.711,22.29,5.974,6.712,10.944
2118,0.886,36.568,10.508,32.654,22.276,5.893,6.469,10.659
2119,0.902,36.747,10.57,32.701,22.297,6.054,6.711,10.778
2120,0.869,36.806,10.539,32.654,22.283,5.853,6.469,10.535
2121,0.869,36.912,10.64,32.682,22.29,5.973,6.629,10.532
2122,0.859,36.568,10.669,32.663,22.287,5.974,6.631,10.37
2123,0.853,36.708,10.571,32.653,22.283,5.974,6.631,10.287
2124,0.849,36.834,10.609,32.663,22.287,5.974,6.631,10.164
2125,0.853,36.922,10.532,32.663,22.29,6.055,6.753,10.163
2126,0.853,36.501,10.609,32.634,22.287,6.056,6.795,10.041
2127,0.84,36.641,10.536,32.672,22.294,6.015,6.836,9.958
2128,0.846,36.748,10.535,32.672,22.28,5.974,6.837,9.835
2129,0.853,36.825,10.566,32.73,22.287,6.055,6.999,9.794
2130,0.859,36.462,10.559,32.663,22.283,6.015,7.001,9.631
2131,0.869,36.611,10.578,32.663,22.29,6.015,7.041,9.751
2132,0.863,36.718,10.559,32.634,22.276,6.015,7.082,9.508
2133,0.879,36.767,10.664,32.672,22.29,6.096,7.205,9.506
2134,0.882,36.49,10.563,32.653,22.276,6.056,7.125,9.262
2135,0.882,36.65,10.594,32.663,22.287,6.137,7.205,9.3
2136,0.869,36.738,10.547,32.644,22.283,6.098,7.125,9.219
2137,0.876,37.122,10.633,32.653,22.283,6.097,7.205,9.137
2138,0.895,36.589,10.594,32.672,22.294,6.138,7.287,9.258
2139,0.873,36.67,10.578,32.605,22.28,5.976,7.085,9.015
2140,0.866,36.815,10.481,32.681,22.304,6.218,7.327,9.176
2141,0.859,36.5,10.421,32.625,22.283,5.936,7.085,8.893
2142,0.866,36.573,10.495,32.682,22.301,6.096,7.286,8.93
2143,0.846,36.67,10.562,32.634,22.28,6.016,7.125,8.85
2144,0.849,36.777,10.637,32.634,22.29,6.015,7.165,8.849
