time,ecg,bvp,gsr,rsp,skt,emg_zygo,emg_coru,emg_trap
0,0.714,36.311,10.267,34.976,19.983,5.602,7.0,16.528
1,0.728,35.824,10.271,34.947,19.983,5.482,6.879,16.162
2,0.747,35.991,10.267,34.947,19.99,5.603,6.877,15.956
3,0.754,36.079,10.321,34.918,19.97,5.442,6.796,15.669
4,0.767,36.176,10.306,34.918,19.98,5.521,6.755,15.422
5,0.777,35.861,10.314,34.937,19.977,5.522,6.836,15.298
6,0.784,35.992,10.201,34.937,19.976,5.522,6.796,15.012
7,0.784,36.127,10.27,34.947,19.976,5.563,6.836,14.846
8,0.777,36.167,10.294,34.899,19.97,5.36,6.714,14.479
9,0.774,36.043,10.287,34.908,19.976,5.48,6.754,14.272
10,0.767,36.185,10.318,34.985,19.973,5.481,6.673,14.026
11,0.783,36.331,10.24,34.938,19.987,5.603,6.753,13.942
12,0.774,36.361,10.313,34.937,19.984,5.523,6.754,13.657
13,0.774,35.901,10.287,34.947,19.98,5.563,6.754,13.491
14,0.78,36.021,10.357,34.928,19.977,5.482,6.754,13.205
15,0.793,36.137,10.311,34.918,19.973,5.359,6.673,12.877
16,0.806,36.215,10.228,34.976,19.987,5.521,6.835,12.914
17,0.8,35.899,10.301,34.938,19.984,5.4,6.714,12.63
18,0.826,36.021,10.287,34.957,19.99,5.48,6.713,12.464
19,0.817,36.099,10.294,34.909,19.97,5.4,6.591,12.138
20,0.807,36.426,10.251,34.947,19.98,5.44,6.671,12.053
21,0.82,35.959,10.286,34.918,19.973,5.359,6.631,11.849
22,0.817,36.108,10.286,34.937,19.983,5.48,6.753,11.725
23,0.803,36.215,10.333,34.937,19.99,5.481,6.714,11.642
24,0.81,36.398,10.236,34.937,19.984,5.44,6.713,11.397
25,0.803,36.525,10.235,34.937,19.98,5.481,6.672,11.314
26,0.8,36.631,10.259,34.928,19.977,5.359,6.672,11.191
27,0.826,36.757,10.286,34.976,19.99,5.561,6.713,11.108
28,0.817,35.656,10.294,34.947,19.98,5.563,6.713,10.863
29,0.803,35.75,10.244,34.966,19.983,5.523,6.713,10.739
30,0.768,35.828,10.263,34.909,19.97,5.319,6.632,10.575
31,0.777,35.943,10.274,34.937,19.976,5.439,6.672,10.451
32,0.806,35.925,10.337,34.947,19.973,5.359,6.631,10.288
33,0.807,36.06,10.271,34.947,19.983,5.561,6.712,10.327
34,0.807,36.195,10.189,34.947,19.98,5.401,6.754,10.124
35,0.849,36.283,10.254,35.014,19.98,5.48,6.714,10.041
36,0.81,35.747,10.286,34.938,19.983,5.481,6.754,9.918
37,0.81,35.856,10.216,34.928,19.97,5.44,6.673,9.713
38,0.846,36.011,10.368,34.957,19.983,5.603,6.875,9.752
39,0.84,36.08,10.264,35.005,19.977,5.482,6.755,9.59
40,0.833,35.917,10.317,34.967,19.983,5.522,6.836,9.547
41,0.826,36.021,10.263,34.919,19.97,5.4,6.633,9.262
42,0.846,36.156,10.321,34.937,19.976,5.48,6.753,9.3
43,0.866,36.187,10.248,34.947,19.983,5.4,6.754,9.097
44,0.827,35.851,10.239,34.947,19.977,5.521,6.876,9.136
45,0.826,35.992,10.27,34.966,19.983,5.563,6.877,9.055
46,0.817,36.108,10.239,34.938,19.98,5.523,6.877,8.932
47,0.81,36.128,10.282,34.947,19.977,5.522,6.877,8.85
48,0.816,35.803,10.275,34.938,19.973,5.441,6.796,8.767
49,0.826,35.972,10.321,34.995,19.987,5.562,6.999,8.807
50,0.817,36.07,10.259,34.948,19.977,5.523,6.96,8.686
51,0.829,36.406,10.349,34.976,19.983,5.522,7.082,8.562
52,0.813,35.825,10.264,34.928,19.966,5.4,6.92,8.358
53,0.797,35.982,10.259,34.947,19.976,5.48,7.041,8.437
54,0.8,36.089,10.228,34.938,19.983,5.481,7.082,8.275
55,0.82,35.86,10.251,34.966,19.983,5.522,7.164,8.355
56,0.83,35.857,10.22,34.966,19.983,5.563,7.287,8.275
57,0.859,35.963,10.286,34.957,19.983,5.401,7.247,8.152
58,0.869,36.06,10.204,34.957,19.977,5.521,7.288,8.11
59,0.885,35.764,10.266,34.947,19.973,5.4,7.288,7.987
60,0.895,35.924,10.345,34.985,19.99,5.684,7.451,8.108
61,0.863,36.031,10.322,34.976,19.977,5.524,7.371,7.947
62,0.875,36.128,10.302,34.976,19.983,5.522,7.411,7.945
63,0.843,35.784,10.255,34.928,19.973,5.441,7.289,7.742
64,0.849,35.914,10.267,34.957,19.98,5.481,7.329,7.74
65,0.843,36.04,10.255,34.957,19.977,5.481,7.289,7.74
66,0.846,36.137,10.313,34.976,19.98,5.481,7.329,7.699
67,0.856,35.764,10.283,34.967,19.99,5.603,7.37,7.699
68,0.853,35.904,10.271,34.957,19.977,5.482,7.37,7.658
69,0.836,36.04,10.224,34.966,19.976,5.522,7.33,7.617
70,0.826,36.099,10.321,34.938,19.973,5.441,7.289,7.495
71,0.852,35.735,10.357,34.995,19.987,5.684,7.451,7.738
72,0.836,35.856,10.264,34.976,19.977,5.646,7.249,7.618
73,0.852,35.992,10.282,34.995,19.987,5.605,7.328,7.535
74,0.853,36.012,10.259,34.957,19.97,5.482,7.126,7.372
75,0.859,35.734,10.306,34.957,19.983,5.481,7.165,7.411
76,0.859,35.866,10.275,34.966,19.977,5.522,7.206,7.371
77,0.856,35.982,10.329,34.976,19.98,5.563,7.287,7.37
78,0.869,36.051,10.166,34.995,19.983,5.563,7.247,7.37
79,0.843,35.764,10.281,34.948,19.97,5.523,7.044,7.208
80,0.872,35.914,10.314,34.957,19.976,5.644,7.204,7.247
81,0.869,35.992,10.287,34.947,19.973,5.483,7.084,7.166
82,0.879,36.118,10.306,35.062,19.99,5.725,7.245,7.287
83,0.902,35.716,10.263,34.987,19.984,5.646,7.166,7.207
84,0.873,35.856,10.298,34.995,19.987,5.605,7.165,7.206
85,0.872,35.953,10.271,34.986,19.977,5.564,7.084,7.125
86,0.885,35.782,10.329,34.957,19.973,5.645,7.002,7.083
87,0.876,35.818,10.31,34.995,19.983,5.645,7.123,7.083
88,0.866,35.934,10.294,34.967,19.987,5.564,7.043,7.083
89,0.862,36.04,10.275,34.986,19.984,5.645,7.042,7.123
90,0.866,35.744,10.306,34.948,19.973,5.564,6.96,6.961
91,0.853,35.866,10.302,34.957,19.976,5.645,7.0,7.041
92,0.83,35.992,10.263,34.957,19.976,5.564,7.001,6.96
93,0.852,36.118,10.267,34.995,19.987,5.726,7.163,7.122
94,0.869,35.707,10.271,34.967,19.984,5.646,7.084,7.083
95,0.879,35.837,10.345,34.976,19.983,5.686,7.002,7.042
96,0.879,35.934,10.307,34.967,19.98,5.605,7.082,7.001
97,0.869,36.031,10.322,34.947,19.97,5.645,7.002,6.919
98,0.889,35.639,10.271,34.995,19.98,5.686,7.041,6.959
99,0.892,35.769,10.294,34.967,19.983,5.646,7.123,6.96
100,0.895,35.905,10.337,34.986,19.983,5.686,7.043,6.96
101,0.86,35.935,10.264,34.948,19.966,5.483,6.92,6.797
102,0.892,35.686,10.294,34.966,19.98,5.603,7.081,6.836
103,0.899,35.817,10.251,34.957,19.98,5.564,7.042,6.796
104,0.892,35.943,10.329,34.986,19.977,5.604,7.042,6.836
105,0.889,36.031,10.306,34.976,19.983,5.645,7.082,6.837
106,0.899,35.773,10.349,34.967,19.973,5.686,7.002,6.837
107,0.886,35.914,10.287,34.966,19.976,5.646,7.001,6.796
108,0.885,36.05,10.294,34.957,19.976,5.605,7.041,6.795
109,0.925,36.118,10.306,34.995,19.997,5.767,7.245,6.917
110,0.915,35.688,10.302,34.976,19.98,5.565,7.166,6.756
111,0.876,35.817,10.275,34.986,19.983,5.685,7.165,6.795
112,0.908,35.943,10.247,34.986,19.983,5.564,7.165,6.755
113,0.905,35.945,10.255,34.957,19.977,5.563,7.124,6.714
114,0.908,35.667,10.274,34.986,19.987,5.604,7.165,6.794
115,0.902,35.769,10.333,34.976,19.977,5.645,7.165,6.714
116,0.912,35.895,10.31,34.986,19.983,5.605,7.206,6.713
117,0.951,35.781,10.287,34.938,19.973,5.401,7.043,6.551
118,0.938,35.838,10.24,34.966,19.976,5.48,7.123,6.63
119,0.925,35.934,10.294,34.966,19.973,5.4,7.124,6.631
120,0.912,36.05,10.318,34.976,19.98,5.48,7.165,6.712
121,0.922,35.629,10.181,34.995,19.98,5.562,7.206,6.672
122,0.941,35.721,10.262,34.957,19.973,5.563,7.165,6.631
123,0.948,35.827,10.274,34.966,19.976,5.523,7.165,6.59
124,0.945,35.924,10.298,34.957,19.976,5.4,7.124,6.427
125,0.938,35.551,10.322,34.995,19.994,5.643,7.327,6.67
126,0.932,35.634,10.334,34.967,19.98,5.523,7.248,6.591
127,0.918,35.788,10.217,34.986,19.99,5.563,7.247,6.631
128,0.922,35.847,10.266,34.957,19.973,5.482,7.125,6.468
129,0.935,35.714,10.275,34.947,19.98,5.481,7.246,6.507
130,0.915,35.866,10.31,34.966,19.983,5.481,7.206,6.467
131,0.938,35.992,10.252,34.976,19.98,5.562,7.206,6.548
132,0.915,36.06,10.302,34.995,19.983,5.563,7.247,6.59
133,0.889,35.61,10.24,34.948,19.97,5.441,7.166,6.468
134,0.941,35.749,10.321,34.976,19.98,5.521,7.165,6.426
135,0.938,35.856,10.318,34.967,19.973,5.441,7.124,6.466
136,0.964,35.973,10.298,35.005,19.99,5.603,7.287,6.629
137,0.932,35.657,10.298,34.996,19.98,5.564,7.166,6.428
138,0.957,35.798,10.228,34.976,19.983,5.523,7.206,6.426
139,0.961,35.914,10.309,34.976,19.977,5.482,7.043,6.426
140,0.968,35.954,10.213,34.976,19.976,5.44,7.001,6.426
141,0.99,35.657,10.274,34.986,19.983,5.521,7.082,6.344
142,0.997,35.798,10.29,34.967,19.973,5.522,7.042,6.384
143,0.997,35.924,10.345,34.976,19.983,5.522,7.123,6.425
144,0.994,35.906,10.33,34.947,19.97,5.441,7.002,6.304
145,0.984,35.609,10.279,34.957,19.976,5.44,7.041,6.343
146,0.952,35.73,10.251,34.957,19.976,5.399,7.001,6.262
147,0.99,35.895,10.231,35.005,19.987,5.562,7.204,6.505
148,0.984,35.714,10.278,34.986,19.977,5.523,7.043,6.305
149,0.997,35.626,10.279,34.986,19.99,5.563,7.042,6.384
150,0.997,35.769,10.247,34.967,19.984,5.441,7.042,6.263
151,0.984,35.857,10.259,34.957,19.973,5.44,7.001,6.262
152,1.004,35.675,10.313,35.005,19.983,5.521,7.041,6.343
153,1.007,35.731,10.306,34.996,19.977,5.482,7.042,6.303
154,1.033,35.885,10.33,34.986,19.98,5.522,7.042,6.343
155,1.027,35.954,10.287,34.957,19.97,5.319,6.879,6.14
156,1.043,35.513,10.24,34.976,19.98,5.398,6.918,6.179
157,1.027,35.653,10.286,34.976,19.977,5.399,6.919,6.179
158,1.046,35.788,10.224,34.995,19.983,5.48,7.0,6.261
159,1.059,35.857,10.309,34.996,19.983,5.481,6.96,6.302
160,1.063,35.608,10.259,34.986,19.98,5.562,7.082,6.221
161,1.079,35.759,10.278,34.986,19.983,5.563,7.002,6.18
162,1.076,35.857,10.279,34.957,19.973,5.441,6.96,6.139
163,1.079,35.953,10.361,35.005,19.994,5.643,7.082,6.301
164,1.079,35.542,10.299,35.005,19.984,5.564,7.083,6.18
165,1.083,35.701,10.259,34.986,19.977,5.563,7.083,6.179
166,1.086,35.808,10.161,34.967,19.97,5.401,6.961,6.057
167,1.083,35.905,10.25,34.995,19.98,5.521,7.041,6.097
168,1.073,35.426,10.278,34.976,19.977,5.522,7.082,6.138
169,1.089,35.594,10.302,34.976,19.973,5.522,7.083,6.138
170,1.063,35.73,10.279,34.986,19.976,5.603,7.205,6.179
171,1.069,35.76,10.247,34.995,19.976,5.523,7.206,6.139
172,1.092,35.703,10.317,34.996,19.976,5.563,7.165,6.138
173,1.079,35.818,10.283,34.957,19.976,5.482,7.124,6.098
174,1.105,35.991,10.282,35.024,19.994,5.725,7.368,6.3
175,1.099,35.993,10.24,34.977,19.984,5.605,7.33,6.099
176,1.125,35.782,10.29,35.005,19.983,5.564,7.37,6.178
177,1.129,35.895,10.275,34.967,19.973,5.482,7.289,6.017
178,1.145,35.992,10.302,34.995,19.969,5.562,7.329,6.096
179,1.155,36.003,10.279,34.996,19.983,5.604,7.37,6.056
180,1.158,35.955,10.259,35.005,19.98,5.564,7.492,6.137
181,1.178,36.089,10.29,34.986,19.977,5.604,7.534,6.138
182,1.155,36.167,10.279,34.976,19.966,5.442,7.412,6.016
183,1.174,35.707,10.321,34.986,19.98,5.603,7.533,6.096
184,1.158,35.77,10.135,34.986,19.977,5.523,7.534,6.097
185,1.168,35.943,10.285,35.024,19.99,5.685,7.697,6.219
186,1.168,36.021,10.251,34.977,19.98,5.564,7.577,6.139
187,1.204,35.696,10.302,34.995,19.983,5.645,7.616,6.179
188,1.185,35.808,10.345,34.976,19.98,5.483,7.535,6.057
189,1.155,35.934,10.295,34.995,19.977,5.522,7.575,6.015
190,1.174,36.031,10.287,34.996,19.983,5.563,7.616,6.137
191,1.178,35.792,10.29,35.005,19.977,5.523,7.657,6.138
192,1.188,35.953,10.326,34.976,19.983,5.563,7.698,6.138
193,1.171,36.05,10.213,34.957,19.966,5.441,7.536,5.976
194,1.191,36.157,10.223,35.014,19.973,5.521,7.575,6.055
195,1.201,35.745,10.251,34.986,19.973,5.522,7.494,5.975
196,1.237,35.904,10.278,35.005,19.987,5.644,7.616,6.096
197,1.234,36.011,10.325,34.986,19.984,5.523,7.617,6.056
198,1.266,36.089,10.302,34.995,19.98,5.603,7.535,6.097
199,1.224,35.984,10.337,34.986,19.973,5.564,7.534,6.056
200,1.172,36.127,10.256,34.967,19.973,5.482,7.494,6.056
201,1.204,36.263,10.352,35.005,19.983,5.603,7.616,6.097
202,1.214,36.293,10.244,34.996,19.983,5.564,7.495,5.975
203,1.221,35.986,10.263,34.996,19.99,5.604,7.453,6.096
204,1.211,36.098,10.185,34.957,19.97,5.482,7.371,5.935
205,1.217,36.224,10.274,35.005,19.976,5.481,7.452,6.055
206,1.214,36.264,10.271,34.996,19.98,5.44,7.412,5.975
207,1.211,36.101,10.318,34.986,19.98,5.481,7.411,6.055
208,1.198,36.224,10.334,35.005,19.99,5.603,7.411,6.056
209,1.188,36.321,10.271,34.957,19.97,5.401,7.33,5.893
210,1.21,36.361,10.29,34.995,19.98,5.48,7.41,6.014
211,1.178,36.246,10.314,34.986,19.977,5.44,7.33,5.974
212,1.214,36.418,10.322,35.015,19.983,5.521,7.492,6.137
213,1.194,36.496,10.275,35.005,19.983,5.482,7.453,6.138
214,1.204,36.199,10.279,34.996,19.98,5.522,7.412,6.098
215,1.188,36.235,10.247,34.996,19.983,5.482,7.371,6.016
216,1.204,36.379,10.309,34.967,19.97,5.4,7.37,5.974
217,1.207,36.496,10.283,35.014,19.987,5.562,7.533,6.137
218,1.22,36.295,10.294,34.986,19.984,5.482,7.412,6.098
219,1.204,36.456,10.275,34.995,19.98,5.522,7.411,6.138
220,1.178,36.535,10.298,34.967,19.97,5.4,7.289,5.935
221,1.149,36.603,10.306,34.976,19.976,5.399,7.41,5.933
222,1.168,36.44,10.263,34.957,19.983,5.399,7.371,6.014
223,1.168,36.592,10.255,34.976,19.98,5.44,7.37,5.974
224,1.142,36.737,10.278,34.995,19.987,5.481,7.411,6.096
225,1.122,36.787,10.255,34.957,19.977,5.4,7.371,6.016
226,1.116,36.509,10.302,34.986,19.976,5.48,7.452,6.096
227,1.102,36.65,10.267,34.967,19.976,5.44,7.452,5.975
228,1.112,36.805,10.278,35.024,19.994,5.521,7.615,6.218
229,1.08,36.864,10.286,34.996,19.98,5.441,7.535,6.098
230,1.083,36.759,10.286,34.986,19.983,5.521,7.616,6.138
231,1.066,36.883,10.349,34.986,19.98,5.36,7.495,5.976
232,1.066,36.999,10.232,34.986,19.977,5.399,7.534,6.055
233,1.047,37.068,10.294,34.995,19.983,5.44,7.575,6.015
234,1.033,36.665,10.283,34.986,19.983,5.44,7.616,5.974
235,1.04,36.815,10.337,35.005,19.983,5.44,7.617,6.015
236,1.03,36.903,10.267,34.967,19.97,5.359,7.495,5.893
237,1.04,36.952,10.329,34.966,19.973,5.439,7.616,5.973
238,1.04,36.751,10.193,34.966,19.976,5.359,7.576,5.893
239,1.027,36.921,10.25,35.005,19.983,5.48,7.616,6.095
240,1.004,37.019,10.313,34.986,19.983,5.4,7.576,6.016
241,1.017,37.058,10.31,34.986,19.983,5.44,7.575,5.974
242,1.01,36.953,10.275,34.986,19.983,5.399,7.454,5.974
243,0.988,37.067,10.255,34.957,19.98,5.358,7.412,5.933
244,0.984,37.212,10.337,35.005,19.99,5.521,7.615,6.096
245,0.971,36.83,10.303,34.976,19.984,5.4,7.495,6.056
246,0.961,36.912,10.349,34.976,19.98,5.399,7.494,6.097
247,0.925,36.98,10.31,34.957,19.963,5.155,7.331,5.813
248,0.931,37.106,10.216,34.976,19.973,5.315,7.37,5.972
249,0.918,36.915,10.215,34.957,19.973,5.358,7.33,5.933
250,0.931,37.038,10.313,34.976,19.98,5.399,7.37,6.014
251,0.912,37.154,10.263,34.967,19.983,5.399,7.33,6.015
252,0.892,37.251,10.185,34.995,19.977,5.399,7.329,6.015
253,0.899,36.945,10.285,34.967,19.976,5.48,7.329,5.974
254,0.876,37.048,10.29,34.966,19.976,5.359,7.248,5.974
255,0.898,37.231,10.38,35.014,19.99,5.561,7.369,6.137
256,0.882,37.262,10.346,34.986,19.984,5.482,7.289,6.016
257,0.876,37.032,10.353,34.995,19.99,5.562,7.288,6.056
258,0.866,37.183,10.287,34.986,19.98,5.441,7.166,6.056
259,0.862,37.29,10.314,34.967,19.977,5.44,7.206,6.015
260,0.862,37.368,10.287,34.986,19.983,5.521,7.247,6.056
261,0.866,37.004,10.279,34.976,19.977,5.482,7.166,6.015
262,0.856,37.173,10.263,34.986,19.976,5.603,7.206,6.056
263,0.849,37.251,10.282,34.938,19.973,5.401,7.084,5.975
264,0.849,37.31,10.232,34.966,19.976,5.48,7.042,6.015
265,0.84,37.08,10.325,34.966,19.98,5.44,7.042,5.974
266,0.852,37.26,10.373,34.995,19.987,5.603,7.164,6.137
267,0.856,37.367,10.303,34.996,19.984,5.482,7.084,6.057
268,0.83,37.397,10.322,34.986,19.987,5.562,7.123,6.097
269,0.826,37.177,10.244,34.986,19.984,5.523,7.002,5.935
270,0.826,37.309,10.317,34.967,19.977,5.482,6.96,5.974
271,0.813,37.435,10.252,35.014,19.987,5.562,7.082,6.096
272,0.826,37.523,10.286,34.986,19.98,5.523,6.961,6.056
273,0.823,37.265,10.243,35.005,19.983,5.563,6.96,6.056
274,0.813,37.358,10.286,34.948,19.973,5.401,6.838,5.934
275,0.816,37.483,10.271,34.976,19.976,5.44,6.837,6.014
276,0.81,37.159,10.31,34.957,19.973,5.44,6.796,5.893
277,0.803,37.175,10.275,34.986,19.976,5.521,6.877,6.054
278,0.82,37.338,10.306,34.976,19.983,5.482,6.877,6.056
279,0.826,37.426,10.287,34.976,19.977,5.481,6.837,6.015
280,0.804,37.12,10.337,34.976,19.98,5.44,6.877,5.974
281,0.807,37.241,10.256,34.947,19.977,5.399,6.837,5.974
282,0.852,37.406,10.306,35.005,19.99,5.602,7.08,6.096
283,0.833,37.465,10.287,34.967,19.984,5.442,6.92,6.016
284,0.833,37.206,10.286,34.986,19.98,5.481,6.959,6.056
285,0.797,37.319,10.333,34.976,19.98,5.44,6.756,5.975
286,0.79,37.426,10.283,34.967,19.973,5.399,6.876,5.974
287,0.81,37.522,10.306,34.986,19.98,5.521,6.877,5.974
288,0.797,37.14,10.263,34.967,19.987,5.441,6.837,6.055
289,0.784,37.28,10.329,34.986,19.98,5.44,6.918,6.056
290,0.761,37.348,10.267,34.928,19.97,5.277,6.756,5.893
291,0.787,37.455,10.286,34.966,19.983,5.398,6.836,6.014
292,0.767,37.187,10.255,34.966,19.973,5.318,6.796,5.893
293,0.783,37.357,10.302,34.995,19.983,5.48,6.877,6.054
294,0.764,37.445,10.283,34.996,19.99,5.44,6.877,6.015
295,0.79,37.503,10.306,34.967,19.977,5.44,6.877,6.015
296,0.816,37.322,10.322,34.957,19.976,5.44,6.837,5.974
297,0.787,37.426,10.24,34.938,19.976,5.318,6.674,5.974
298,0.819,37.609,10.29,35.005,19.987,5.561,6.835,6.055
299,0.852,37.601,10.31,34.967,19.98,5.441,6.714,6.056
300,0.833,37.227,10.306,34.976,19.987,5.521,6.835,6.056
301,0.774,37.348,10.252,34.957,19.973,5.319,6.674,5.893
302,0.787,37.455,10.306,34.966,19.976,5.358,6.753,5.933
303,0.81,37.676,10.291,34.986,19.987,5.48,6.795,6.014
304,0.82,37.237,10.337,34.967,19.98,5.481,6.755,5.893
305,0.768,37.348,10.26,34.986,19.983,5.522,6.714,6.014
306,0.754,37.416,10.282,34.938,19.97,5.36,6.551,5.893
307,0.806,37.177,10.271,34.966,19.987,5.439,6.63,5.892
308,0.781,37.194,10.286,34.957,19.977,5.44,6.672,5.811
309,0.758,37.338,10.318,34.976,19.983,5.481,6.713,5.972
310,0.757,37.435,10.271,34.986,19.983,5.481,6.794,5.974
311,0.764,37.216,10.29,34.986,19.977,5.44,6.795,6.015
312,0.77,37.338,10.232,34.967,19.98,5.44,6.795,5.934
313,0.78,37.454,10.302,34.947,19.973,5.44,6.755,5.892
314,0.774,37.599,10.314,35.005,19.997,5.643,6.998,6.136
315,0.806,37.217,10.314,34.957,19.977,5.483,6.838,5.935
316,0.771,37.329,10.275,34.986,19.987,5.562,6.877,5.892
317,0.764,37.454,10.29,34.967,19.973,5.441,6.755,5.892
318,0.774,37.504,10.244,34.957,19.976,5.521,6.754,5.933
319,0.79,37.14,10.313,34.957,19.983,5.522,6.795,5.933
320,0.79,37.261,10.255,34.986,19.98,5.522,6.795,5.892
321,0.793,37.387,10.29,34.967,19.99,5.522,6.917,5.892
322,0.787,37.436,10.302,34.938,19.977,5.482,6.674,5.811
323,0.813,37.139,10.302,34.947,19.976,5.481,6.753,5.85
324,0.8,37.251,10.294,34.947,19.973,5.44,6.754,5.851
325,0.781,37.406,10.247,34.985,19.987,5.603,6.876,5.973
326,0.784,37.426,10.251,34.976,19.98,5.564,6.796,5.893
327,0.751,37.177,10.243,34.986,19.977,5.563,6.795,5.973
328,0.754,37.309,10.294,34.957,19.98,5.563,6.836,5.893
329,0.751,37.406,10.326,34.957,19.973,5.482,6.755,5.811
330,0.761,37.474,10.189,35.014,19.987,5.644,6.957,6.013
331,0.751,37.302,10.293,34.957,19.984,5.523,6.878,5.974
332,0.774,37.445,10.279,34.976,19.983,5.603,6.918,5.893
333,0.777,37.523,10.318,34.957,19.973,5.401,6.715,5.851
334,0.78,37.84,10.271,34.966,19.976,5.48,6.835,5.891
335,0.78,37.229,10.267,34.957,19.976,5.522,6.796,5.892
336,0.793,37.367,10.255,34.957,19.976,5.563,6.877,5.973
337,0.806,37.493,10.27,34.986,19.983,5.523,6.959,5.933
338,0.797,37.159,10.333,34.938,19.977,5.482,6.838,5.811
339,0.8,37.175,10.256,34.966,19.983,5.522,6.877,5.85
340,0.813,37.271,10.31,34.938,19.977,5.441,6.837,5.81
341,0.787,37.444,10.259,34.995,19.997,5.603,6.999,5.932
342,0.8,37.139,10.317,34.957,19.984,5.564,6.879,5.892
343,0.8,37.27,10.271,34.976,19.983,5.563,7.0,5.892
344,0.787,37.387,10.263,34.957,19.983,5.523,6.838,5.811
345,0.774,37.455,10.247,34.947,19.97,5.482,6.877,5.891
346,0.803,37.178,10.286,34.995,19.983,5.522,6.918,6.014
347,0.794,37.28,10.302,34.967,19.977,5.522,6.837,5.852
348,0.816,37.406,10.298,34.957,19.983,5.603,6.918,5.851
349,0.784,37.455,10.329,34.947,19.97,5.401,6.878,5.81
350,0.774,37.091,10.26,34.957,19.976,5.521,6.877,5.81
351,0.767,37.212,10.286,34.957,19.973,5.482,6.755,5.769
352,0.78,37.357,10.298,34.986,19.983,5.562,6.998,6.013
353,0.764,37.416,10.353,34.976,19.98,5.482,6.879,5.893
354,0.767,37.148,10.229,34.967,19.98,5.522,6.918,5.933
355,0.777,37.28,10.251,34.966,19.98,5.482,6.878,5.852
356,0.771,37.396,10.267,35.005,19.973,5.481,6.796,5.729
357,0.8,37.484,10.314,34.986,19.987,5.603,7.039,5.931
358,0.787,37.101,10.349,34.948,19.984,5.482,6.96,5.852
359,0.787,37.232,10.264,34.966,19.987,5.562,6.96,5.932
360,0.787,37.348,10.274,34.938,19.97,5.401,6.797,5.689
361,0.803,37.387,10.255,34.947,19.973,5.48,6.877,5.89
362,0.794,37.062,10.306,34.947,19.98,5.481,6.837,5.811
363,0.793,37.193,10.271,34.957,19.98,5.481,6.918,5.85
364,0.793,37.319,10.236,34.947,19.98,5.522,6.878,5.851
365,0.793,37.656,10.165,34.976,19.98,5.522,6.959,5.81
366,0.81,37.199,10.274,34.957,19.983,5.482,6.919,5.81
367,0.8,37.328,10.243,34.938,19.973,5.481,6.837,5.769
368,0.807,37.464,10.348,34.985,19.987,5.644,6.958,5.972
369,0.768,37.197,10.232,34.957,19.977,5.523,6.919,5.852
370,0.796,37.194,10.274,34.947,19.98,5.522,6.919,5.891
371,0.754,37.28,10.302,34.928,19.973,5.4,6.715,5.729
372,0.761,37.387,10.302,34.928,19.98,5.521,6.835,5.85
373,0.764,37.052,10.302,34.947,19.973,5.441,6.755,5.769
374,0.79,37.174,10.228,34.966,19.983,5.521,6.876,5.85
375,0.8,37.299,10.274,35.005,19.977,5.563,6.877,5.891
376,0.794,37.368,10.239,34.929,19.983,5.482,6.837,5.851
377,0.8,37.11,10.274,34.957,19.98,5.44,6.837,5.769
378,0.807,37.212,10.302,34.938,19.973,5.521,6.755,5.768
379,0.829,37.386,10.306,35.024,19.987,5.644,6.998,5.972
380,0.823,37.426,10.275,34.957,19.987,5.483,6.838,5.852
381,0.82,37.129,10.314,34.947,19.984,5.562,6.877,5.851
382,0.787,37.241,10.334,34.909,19.97,5.482,6.674,5.688
383,0.806,37.367,10.263,34.937,19.973,5.481,6.835,5.809
384,0.803,37.445,10.302,34.918,19.976,5.522,6.796,5.728
385,0.787,37.12,10.244,34.956,19.976,5.563,6.836,5.89
386,0.826,37.232,10.27,34.957,19.98,5.523,6.877,5.933
387,0.778,37.338,10.251,34.928,19.97,5.482,6.837,5.811
388,0.774,37.397,10.302,34.957,19.98,5.44,6.918,5.85
389,0.771,37.1,10.244,34.938,19.97,5.399,6.837,5.729
390,0.793,37.26,10.309,34.966,19.994,5.643,7.08,6.012
391,0.758,37.367,10.349,34.957,19.977,5.483,6.961,5.974
392,0.754,37.397,10.303,34.976,19.983,5.603,7.082,5.893
393,0.774,37.129,10.271,34.957,19.98,5.482,6.961,5.811
394,0.797,37.222,10.251,34.918,19.98,5.522,6.96,5.85
395,0.781,37.357,10.317,34.947,19.987,5.522,7.0,5.932
396,0.774,37.388,10.259,34.938,19.98,5.441,7.001,5.892
397,0.774,37.129,10.302,34.947,19.983,5.562,7.041,5.933
398,0.777,37.222,10.24,34.909,19.973,5.401,6.92,5.852
399,0.806,37.348,10.27,34.918,19.976,5.48,7.0,5.851
400,0.774,37.177,10.306,34.928,19.976,5.4,6.96,5.891
401,0.787,37.204,10.322,34.947,19.99,5.602,7.082,5.973
402,0.803,37.328,10.224,34.966,19.984,5.564,7.083,5.974
403,0.797,37.406,10.317,34.938,19.98,5.482,7.083,5.933
404,0.81,36.909,10.263,34.937,19.977,5.481,7.042,5.974
405,0.781,37.009,10.271,34.928,19.973,5.278,7.001,5.893
406,0.764,37.173,10.337,34.966,19.997,5.642,7.285,6.054
407,0.764,37.223,10.303,34.938,19.984,5.483,7.166,5.975
408,0.78,37.031,10.244,34.947,19.987,5.562,7.287,6.137
409,0.784,37.145,10.259,34.938,19.977,5.401,7.125,6.016
410,0.793,37.27,10.313,34.918,19.97,5.44,7.165,5.893
411,0.806,37.358,10.291,34.937,19.983,5.562,7.368,6.054
412,0.761,36.927,10.271,34.928,19.983,5.482,7.33,6.056
413,0.777,37.067,10.29,34.937,19.987,5.522,7.41,6.056
414,0.774,37.154,10.228,34.918,19.97,5.4,7.289,5.975
415,0.803,37.222,10.321,34.947,19.98,5.48,7.451,6.015
416,0.771,37.031,10.267,34.909,19.973,5.481,7.452,6.056
417,0.78,37.183,10.372,34.956,19.983,5.603,7.615,6.137
418,0.79,37.309,10.213,34.976,19.983,5.523,7.535,6.057
419,0.8,37.368,10.278,34.938,19.98,5.563,7.616,6.097
420,0.816,36.889,10.298,34.928,19.98,5.523,7.576,6.138
421,0.807,37.009,10.302,34.918,19.97,5.4,7.535,6.057
422,0.807,37.164,10.271,34.956,19.99,5.643,7.697,6.178
423,0.79,37.194,10.275,34.938,19.98,5.605,7.618,6.098
424,0.8,36.906,10.321,34.937,19.983,5.564,7.698,6.138
425,0.784,37.019,10.306,34.89,19.977,5.441,7.577,6.057
426,0.78,37.144,10.349,34.937,19.973,5.521,7.657,6.056
427,0.787,37.174,10.287,34.928,19.98,5.563,7.658,6.056
428,0.79,36.993,10.306,34.937,19.983,5.604,7.739,6.178
429,0.78,37.125,10.267,34.947,19.987,5.564,7.699,6.139
430,0.764,37.193,10.36,34.928,19.977,5.563,7.699,6.138
431,0.761,37.002,10.229,34.937,19.976,5.482,7.74,6.057
432,0.757,36.905,10.278,34.918,19.973,5.481,7.659,6.015
433,0.787,37.095,10.255,34.966,19.987,5.644,7.861,6.259
434,0.774,37.164,10.274,34.928,19.984,5.564,7.822,6.099
435,0.787,36.925,10.357,34.918,19.977,5.604,7.863,6.138
436,0.787,37.0,10.299,34.918,19.973,5.482,7.822,6.057
437,0.777,37.115,10.322,34.928,19.98,5.522,7.781,6.015
438,0.793,37.232,10.271,34.937,19.98,5.522,7.903,6.056
439,0.813,36.792,10.325,34.937,19.983,5.563,7.945,6.056
440,0.81,36.931,10.263,34.937,19.99,5.604,8.026,6.137
441,0.774,37.019,10.278,34.918,19.973,5.442,7.865,5.976
442,0.764,37.135,10.286,34.918,19.983,5.481,7.944,6.055
443,0.777,36.896,10.259,34.918,19.977,5.4,7.905,5.975
444,0.784,37.076,10.302,34.947,19.987,5.562,8.026,6.137
445,0.787,37.183,10.302,34.938,19.98,5.563,8.027,6.098
446,0.784,37.271,10.341,34.928,19.983,5.563,7.987,6.138
447,0.78,36.888,10.26,34.947,19.977,5.523,8.027,6.057
448,0.793,37.047,10.302,34.918,19.976,5.522,7.946,5.975
449,0.797,37.193,10.333,34.976,19.987,5.644,8.067,6.137
450,0.777,37.223,10.334,34.928,19.98,5.523,7.987,6.057
451,0.754,36.811,10.314,34.985,19.983,5.522,7.986,6.056
452,0.712,36.912,10.244,34.909,19.97,5.441,7.783,5.934
453,0.744,37.038,10.317,34.918,19.976,5.521,7.862,5.974
454,0.747,37.078,10.291,34.909,19.976,5.441,7.822,6.015
455,0.751,36.915,10.333,34.928,19.983,5.481,7.863,6.137
456,0.767,37.057,10.267,34.918,19.977,5.522,7.822,6.057
457,0.751,37.174,10.185,34.928,19.983,5.522,7.822,6.056
458,0.803,37.204,10.285,34.947,19.98,5.482,7.781,6.056
459,0.787,36.83,10.286,34.909,19.977,5.4,7.74,6.015
460,0.787,37.027,10.341,34.956,19.987,5.684,7.821,6.137
461,0.793,37.116,10.264,34.918,19.977,5.524,7.7,6.016
462,0.823,37.002,10.31,34.918,19.99,5.563,7.658,6.056
463,0.8,36.885,10.263,34.889,19.97,5.401,7.495,5.893
464,0.781,37.057,10.353,34.927,19.973,5.48,7.534,6.014
465,0.764,37.145,10.322,34.928,19.976,5.562,7.494,6.015
466,0.774,36.944,10.291,34.918,19.976,5.523,7.534,5.974
467,0.787,37.048,10.22,34.928,19.983,5.603,7.534,6.055
468,0.761,37.174,10.223,34.909,19.977,5.564,7.494,6.056
469,0.757,37.28,10.325,34.937,19.976,5.523,7.494,6.015
470,0.751,36.687,10.256,34.909,19.976,5.441,7.331,6.015
471,0.774,36.863,10.298,34.966,19.994,5.725,7.532,6.096
472,0.761,36.942,10.244,34.928,19.98,5.605,7.331,6.097
473,0.767,37.057,10.345,34.947,19.987,5.604,7.451,6.097
474,0.757,36.8,10.365,34.89,19.973,5.482,7.29,5.894
475,0.751,36.97,10.342,34.908,19.973,5.481,7.288,6.054
476,0.78,37.058,10.342,34.908,19.973,5.522,7.369,5.975
477,0.79,37.154,10.182,34.928,19.98,5.522,7.289,6.015
478,0.79,36.753,10.278,34.928,19.983,5.644,7.329,6.056
479,0.764,36.864,10.259,34.918,19.983,5.483,7.289,6.015
480,0.783,36.98,10.317,34.909,19.973,5.522,7.329,6.015
481,0.78,37.048,10.244,34.908,19.969,5.441,7.207,5.893
482,0.787,36.905,10.321,34.947,19.987,5.765,7.409,6.095
483,0.767,36.999,10.271,34.909,19.98,5.565,7.208,5.975
484,0.79,37.144,10.368,34.928,19.987,5.645,7.247,6.096
485,0.767,37.146,10.311,34.899,19.977,5.523,7.125,5.894
486,0.757,36.714,10.334,34.918,19.98,5.522,7.165,6.054
487,0.748,36.863,10.197,34.918,19.98,5.522,7.246,6.056
488,0.744,36.999,10.278,34.909,19.98,5.522,7.166,6.015
489,0.751,37.0,10.29,34.918,19.98,5.603,7.165,6.096
490,0.761,36.876,10.267,34.889,19.973,5.442,7.165,5.975
491,0.751,37.028,10.302,34.908,19.976,5.521,7.206,6.096
492,0.725,37.135,10.248,34.908,19.97,5.441,7.084,5.975
493,0.764,37.059,10.325,34.937,19.987,5.684,7.327,6.218
494,0.793,36.886,10.306,34.909,19.984,5.564,7.167,6.098
495,0.81,37.009,10.361,34.937,19.98,5.604,7.165,6.056
496,0.8,37.116,10.326,34.918,19.977,5.564,7.206,5.975
497,0.777,36.714,10.267,34.909,19.97,5.563,7.125,6.015
498,0.79,36.815,10.298,34.937,19.99,5.604,7.205,6.137
499,0.79,36.941,10.302,34.909,19.98,5.564,7.206,6.138
500,0.793,37.029,10.294,34.908,19.977,5.523,7.165,6.179
501,0.79,36.694,10.271,34.88,19.976,5.4,7.043,5.976
502,0.797,36.844,10.302,34.908,19.98,5.48,7.123,6.055
503,0.794,36.999,10.271,34.889,19.973,5.481,7.124,6.097
504,0.793,37.077,10.372,34.908,19.973,5.562,7.165,6.138
505,0.784,36.714,10.303,34.889,19.987,5.563,7.206,6.179
506,0.774,36.825,10.326,34.879,19.97,5.482,7.206,5.976
507,0.774,36.96,10.201,34.918,19.976,5.522,7.206,6.137
508,0.761,37.038,10.301,34.889,19.973,5.441,7.165,6.057
509,0.78,37.049,10.322,34.918,19.983,5.603,7.287,6.137
510,0.774,37.183,10.291,34.909,19.983,5.523,7.288,6.098
511,0.784,37.309,10.306,34.918,19.983,5.563,7.247,6.178
512,0.784,37.378,10.279,34.909,19.977,5.482,7.288,6.139
513,0.758,36.707,10.279,34.87,19.976,5.44,7.166,6.138
514,0.767,36.873,10.364,34.927,19.987,5.603,7.287,6.219
515,0.767,36.97,10.357,34.918,19.984,5.482,7.247,6.18
516,0.787,37.01,10.322,34.909,19.983,5.603,7.247,6.22
517,0.774,36.79,10.24,34.87,19.977,5.401,7.125,6.058
518,0.8,36.941,10.255,34.898,19.976,5.44,7.205,6.097
519,0.784,37.048,10.349,34.88,19.97,5.44,7.206,6.178
520,0.797,37.068,10.283,34.899,19.983,5.481,7.165,6.139
521,0.787,36.819,10.318,34.899,19.983,5.522,7.165,6.138
522,0.787,36.941,10.259,34.889,19.98,5.482,7.165,6.098
523,0.777,37.038,10.317,34.879,19.98,5.522,7.124,6.138
524,0.758,37.01,10.31,34.889,19.973,5.441,7.124,6.098
525,0.77,36.857,10.349,34.937,19.994,5.684,7.246,6.3
526,0.757,36.951,10.26,34.918,19.984,5.524,7.166,6.14
527,0.757,37.077,10.232,34.909,19.98,5.482,7.165,6.219
528,0.761,36.752,10.27,34.889,19.973,5.44,7.002,6.058
529,0.77,36.835,10.341,34.889,19.976,5.44,7.123,6.056
530,0.744,36.951,10.314,34.879,19.98,5.44,7.043,6.137
531,0.767,37.067,10.271,34.899,19.983,5.521,7.123,6.179
532,0.77,36.8,10.302,34.899,19.98,5.522,7.205,6.179
533,0.757,36.893,10.271,34.889,19.973,5.441,7.084,6.017
534,0.748,37.038,10.349,34.889,19.976,5.399,7.123,6.178
535,0.777,37.106,10.287,34.87,19.97,5.44,7.124,6.057
536,0.79,36.666,10.302,34.908,19.997,5.643,7.287,6.3
537,0.787,36.805,10.259,34.908,19.984,5.442,7.125,6.099
538,0.797,36.931,10.286,34.918,19.983,5.521,7.205,6.138
539,0.777,36.961,10.302,34.87,19.977,5.36,7.003,6.016
540,0.777,36.693,10.255,34.879,19.976,5.439,7.123,6.178
541,0.803,36.834,10.298,34.879,19.976,5.318,7.002,6.098
542,0.846,36.98,10.271,34.889,19.976,5.439,7.163,6.097
543,0.817,37.029,10.314,34.908,19.99,5.399,7.206,6.056
544,0.794,36.723,10.291,34.889,19.973,5.44,7.125,6.137
545,0.745,36.863,10.333,34.889,19.973,5.44,7.124,6.138
546,0.747,36.97,10.287,34.879,19.976,5.399,7.043,6.016
547,0.773,37.077,10.177,34.927,19.994,5.562,7.204,6.218
548,0.761,36.723,10.258,34.88,19.98,5.482,7.125,6.139
549,0.751,36.863,10.317,34.889,19.98,5.481,7.165,6.138
550,0.767,36.961,10.318,34.87,19.973,5.44,7.043,6.057
551,0.764,37.0,10.256,34.879,19.973,5.521,7.123,6.137
552,0.774,36.818,10.298,34.889,19.98,5.563,7.124,6.057
553,0.78,36.96,10.29,34.879,19.977,5.482,7.205,6.137
554,0.764,37.058,10.337,34.899,19.98,5.522,7.165,6.138
555,0.764,37.001,10.303,34.851,19.973,5.441,7.002,6.057
556,0.774,36.732,10.275,34.869,19.983,5.521,7.041,6.097
557,0.771,36.854,10.247,34.86,19.977,5.4,7.042,6.016
558,0.81,36.98,10.274,34.918,19.99,5.602,7.123,6.218
559,0.777,36.741,10.282,34.88,19.977,5.564,7.043,6.139
560,0.793,36.816,10.286,34.889,19.987,5.563,7.123,6.138
561,0.793,36.931,10.263,34.86,19.98,5.482,7.002,6.016
562,0.777,37.029,10.29,34.85,19.977,5.522,6.919,6.015
563,0.8,36.665,10.318,34.889,19.98,5.603,7.081,6.056
564,0.8,36.757,10.345,34.87,19.977,5.523,7.002,6.015
565,0.748,36.893,10.373,34.87,19.983,5.563,7.041,6.096
566,0.728,36.951,10.279,34.841,19.97,5.401,6.879,5.935
567,0.747,36.712,10.321,34.869,19.976,5.48,6.959,6.014
568,0.734,36.844,10.24,34.851,19.97,5.522,6.919,5.974
569,0.764,36.999,10.333,34.908,19.987,5.603,7.122,6.137
570,0.757,37.068,10.197,34.88,19.99,5.564,7.043,6.098
571,0.751,36.608,10.286,34.87,19.984,5.563,7.001,6.056
572,0.751,36.738,10.255,34.889,19.977,5.482,6.919,6.056
573,0.741,36.844,10.341,34.841,19.98,5.481,6.919,6.015
574,0.754,36.951,10.349,34.889,19.987,5.522,6.959,6.056
575,0.764,36.645,10.295,34.87,19.977,5.482,6.919,5.975
576,0.774,36.795,10.298,34.87,19.983,5.481,6.959,6.096
577,0.777,36.864,10.275,34.841,19.966,5.4,6.797,5.935
578,0.771,36.932,10.325,34.869,19.98,5.44,6.917,5.974
579,0.757,36.741,10.263,34.851,19.977,5.44,6.837,5.974
580,0.79,36.912,10.306,34.879,19.98,5.562,6.918,6.055
581,0.78,37.028,10.24,34.86,19.983,5.523,6.837,6.015
582,0.806,37.039,10.313,34.86,19.98,5.482,6.837,5.974
583,0.807,36.598,10.283,34.85,19.983,5.522,6.837,5.933
584,0.784,36.747,10.255,34.85,19.977,5.4,6.796,5.974
585,0.793,36.892,10.259,34.879,19.987,5.562,6.917,6.055
586,0.784,37.019,10.294,34.87,19.98,5.441,6.837,6.015
587,0.774,36.77,10.31,34.879,19.98,5.481,6.877,6.056
588,0.761,36.883,10.31,34.851,19.97,5.318,6.755,5.893
589,0.744,36.999,10.318,34.831,19.98,5.358,6.836,5.933
590,0.78,36.636,10.24,34.85,19.977,5.48,6.796,6.014
591,0.774,36.671,10.302,34.85,19.983,5.481,6.836,6.056
592,0.758,36.786,10.283,34.85,19.983,5.44,6.877,6.015
593,0.748,36.893,10.325,34.841,19.977,5.44,6.755,5.974
594,0.76,36.577,10.185,34.879,19.98,5.481,6.795,5.852
595,0.777,36.689,10.239,34.822,19.973,5.4,6.755,5.851
596,0.787,36.844,10.294,34.898,19.99,5.521,6.998,6.054
597,0.787,36.903,10.294,34.851,19.98,5.441,6.879,5.975
598,0.797,36.558,10.345,34.869,19.987,5.44,6.918,5.974
599,0.794,36.651,10.225,34.87,19.98,5.481,6.796,5.893
600,0.79,36.796,10.301,34.841,19.97,5.44,6.755,5.892
601,0.813,36.883,10.251,34.869,19.983,5.521,6.917,5.933
602,0.797,36.597,10.341,34.851,19.977,5.482,6.878,5.933
603,0.787,36.728,10.264,34.869,19.987,5.44,6.837,5.892
604,0.777,36.816,10.196,34.831,19.97,5.359,6.796,5.811
605,0.78,36.922,10.215,34.888,19.976,5.358,6.755,5.932
606,0.78,36.578,10.254,34.832,19.97,5.439,6.836,5.852
607,0.774,36.728,10.267,34.869,19.98,5.481,6.837,5.973
608,0.767,36.863,10.337,34.87,19.983,5.481,6.837,5.933
609,0.764,36.884,10.271,34.831,19.973,5.318,6.796,5.811
610,0.78,36.558,10.271,34.841,19.976,5.398,6.795,5.891
611,0.767,36.689,10.298,34.831,19.98,5.44,6.795,5.851
612,0.777,36.825,10.326,34.86,19.99,5.562,6.958,5.973
613,0.78,36.845,10.318,34.85,19.984,5.482,6.919,6.015
614,0.797,36.567,10.217,34.85,19.98,5.481,6.878,5.974
615,0.826,36.718,10.305,34.869,19.98,5.481,6.837,5.852
616,0.82,36.787,10.216,34.841,19.98,5.4,6.796,5.851
617,0.865,37.046,10.309,34.869,19.983,5.521,6.877,5.891
618,0.869,36.617,10.279,34.851,19.983,5.441,6.877,5.933
619,0.863,36.757,10.271,34.86,19.987,5.44,6.918,5.933
620,0.866,36.825,10.239,34.822,19.97,5.359,6.756,5.811
621,0.905,36.529,10.294,34.85,19.976,5.439,6.957,5.85
622,0.873,36.497,10.306,34.831,19.976,5.399,6.756,5.81
623,0.879,36.631,10.287,34.841,19.983,5.48,6.917,5.932
624,0.892,36.767,10.29,34.841,19.983,5.4,7.041,5.892
625,0.876,36.404,10.263,34.831,19.983,5.44,6.92,5.973
626,0.885,36.515,10.294,34.85,19.98,5.44,6.959,5.852
627,0.846,36.612,10.271,34.831,19.973,5.399,6.878,5.769
628,0.862,36.747,10.337,34.869,19.994,5.562,7.121,5.972
629,0.862,36.48,10.299,34.851,19.977,5.441,7.002,5.893
630,0.875,36.612,10.271,34.841,19.983,5.44,7.001,5.892
631,0.82,36.709,10.275,34.812,19.973,5.359,6.838,5.729
632,0.823,36.806,10.333,34.831,19.983,5.399,6.958,5.85
633,0.817,36.366,10.275,34.841,19.977,5.318,6.96,5.851
634,0.829,36.524,10.267,34.85,19.98,5.398,7.0,5.851
635,0.839,36.641,10.278,34.86,19.977,5.44,7.001,5.851
636,0.839,36.709,10.29,34.831,19.98,5.399,7.001,5.891
637,0.843,36.518,10.259,34.821,19.98,5.399,6.96,5.77
638,0.859,36.631,10.333,34.821,19.97,5.358,6.878,5.728
639,0.875,36.834,10.299,34.917,19.994,5.561,7.162,6.012
640,0.863,36.826,10.287,34.851,19.977,5.441,7.043,5.893
641,0.872,36.462,10.341,34.831,19.983,5.521,7.082,5.892
642,0.892,36.583,10.295,34.812,19.973,5.36,6.92,5.77
643,0.899,36.709,10.275,34.821,19.973,5.399,6.959,5.768
644,0.889,36.758,10.251,34.86,19.976,5.44,6.96,5.85
645,0.882,36.509,10.298,34.841,19.987,5.481,6.96,5.851
646,0.876,36.641,10.232,34.841,19.98,5.481,6.96,5.891
647,0.866,36.728,10.29,34.812,19.973,5.4,6.96,5.811
648,0.869,37.046,10.31,34.831,19.976,5.521,6.96,5.769
649,0.866,36.387,10.31,34.86,19.973,5.36,6.878,5.809
650,0.889,36.572,10.302,34.87,19.99,5.521,7.081,6.013
651,0.824,36.632,10.314,34.831,19.984,5.441,6.961,5.852
652,0.807,36.441,10.353,34.85,19.983,5.481,6.96,5.891
653,0.836,36.467,10.256,34.822,19.977,5.359,6.838,5.851
654,0.82,36.583,10.302,34.831,19.973,5.399,6.837,5.851
655,0.839,36.709,10.232,34.831,19.973,5.358,6.877,5.81
656,0.833,36.326,10.294,34.812,19.987,5.399,6.877,5.932
657,0.839,36.447,10.247,34.831,19.977,5.44,6.918,5.892
658,0.813,36.535,10.325,34.802,19.98,5.399,6.878,5.811
659,0.826,36.651,10.302,34.831,19.973,5.358,6.877,5.932
660,0.82,36.297,10.263,34.793,19.976,5.317,6.837,5.811
661,0.836,36.476,10.353,34.859,19.99,5.601,6.999,6.054
662,0.81,36.583,10.318,34.822,19.984,5.401,6.919,5.893
663,0.81,36.67,10.232,34.84,19.987,5.48,6.919,5.892
664,0.803,36.288,10.27,34.821,19.97,5.44,6.796,5.892
665,0.781,36.437,10.263,34.821,19.98,5.399,6.795,5.892
666,0.793,36.554,10.298,34.821,19.973,5.48,6.836,5.973
667,0.784,36.622,10.314,34.812,19.973,5.522,6.796,5.974
668,0.735,36.249,10.322,34.802,19.98,5.522,6.836,5.974
669,0.793,36.36,10.31,34.773,19.97,5.4,6.633,5.852
670,0.777,36.495,10.291,34.821,19.983,5.521,6.753,5.891
671,0.764,36.564,10.31,34.802,19.973,5.4,6.673,5.933
672,0.787,36.334,10.322,34.859,19.987,5.684,6.916,6.055
673,0.787,36.457,10.209,34.841,19.987,5.524,6.796,5.934
674,0.8,36.583,10.243,34.831,19.984,5.563,6.755,6.014
675,0.807,36.584,10.235,34.802,19.973,5.482,6.673,5.852
676,0.8,36.392,10.305,34.802,19.976,5.481,6.631,5.891
677,0.807,36.515,10.353,34.812,19.98,5.522,6.712,5.851
678,0.816,36.631,10.326,34.821,19.98,5.563,6.713,5.932
679,0.82,36.939,10.267,34.802,19.977,5.563,6.713,5.974
680,0.826,36.329,10.302,34.792,19.976,5.482,6.713,5.893
681,0.852,36.466,10.349,34.802,19.98,5.522,6.632,5.892
682,0.84,36.573,10.287,34.773,19.973,5.482,6.631,5.77
683,0.846,36.402,10.31,34.859,19.99,5.684,6.794,6.094
684,0.801,36.371,10.236,34.803,19.977,5.564,6.633,5.894
685,0.787,36.524,10.278,34.821,19.983,5.645,6.712,5.973
686,0.774,36.583,10.259,34.773,19.973,5.483,6.551,5.811
687,0.78,36.325,10.353,34.792,19.973,5.562,6.59,5.891
688,0.79,36.418,10.287,34.792,19.976,5.563,6.631,5.892
689,0.787,36.534,10.329,34.792,19.983,5.563,6.631,5.973
690,0.764,36.66,10.283,34.802,19.98,5.604,6.712,5.974
691,0.751,36.172,10.329,34.783,19.97,5.482,6.591,5.852
692,0.748,36.321,10.248,34.811,19.976,5.603,6.59,5.973
693,0.754,36.447,10.282,34.821,19.97,5.482,6.59,5.852
694,0.77,36.573,10.267,34.831,19.987,5.725,6.753,6.054
695,0.774,36.248,10.278,34.802,19.98,5.605,6.632,5.934
696,0.758,36.389,10.321,34.802,19.983,5.645,6.59,5.974
697,0.774,36.486,10.279,34.792,19.977,5.564,6.549,5.974
698,0.771,36.554,10.302,34.792,19.98,5.523,6.549,5.852
699,0.767,36.238,10.271,34.792,19.977,5.522,6.63,5.932
700,0.77,36.389,10.337,34.792,19.983,5.603,6.59,5.933
701,0.777,36.496,10.314,34.802,19.977,5.564,6.59,5.892
702,0.777,36.526,10.283,34.754,19.97,5.482,6.509,5.851
703,0.787,36.2,10.255,34.773,19.98,5.522,6.589,5.932
704,0.777,36.331,10.274,34.782,19.973,5.482,6.549,5.811
705,0.761,36.476,10.282,34.802,19.983,5.644,6.63,6.013
706,0.767,36.516,10.279,34.783,19.983,5.645,6.55,5.934
707,0.754,36.324,10.353,34.783,19.983,5.645,6.63,5.892
708,0.767,36.457,10.268,34.783,19.98,5.483,6.55,5.973
709,0.748,36.573,10.314,34.763,19.973,5.44,6.508,5.811
710,0.754,36.641,10.295,34.802,19.987,5.643,6.67,6.013
711,0.761,36.23,10.345,34.783,19.984,5.523,6.591,5.893
712,0.754,36.379,10.26,34.792,19.983,5.644,6.671,6.054
713,0.735,36.457,10.294,34.802,19.97,5.442,6.428,5.853
714,0.747,36.228,10.255,34.773,19.973,5.481,6.588,5.81
715,0.76,36.187,10.278,34.754,19.973,5.44,6.468,5.81
716,0.757,36.302,10.306,34.782,19.983,5.481,6.548,5.85
717,0.761,36.418,10.306,34.783,19.983,5.562,6.59,5.973
718,0.754,36.093,10.263,34.763,19.973,5.482,6.509,5.933
719,0.774,36.205,10.274,34.782,19.98,5.481,6.549,5.811
720,0.777,36.331,10.302,34.754,19.973,5.4,6.427,5.85
721,0.803,36.457,10.326,34.792,19.99,5.602,6.629,5.973
722,0.774,36.055,10.271,34.763,19.984,5.482,6.509,5.852
723,0.787,36.205,10.263,34.754,19.983,5.522,6.549,5.891
724,0.784,36.292,10.298,34.734,19.973,5.36,6.386,5.811
725,0.78,36.389,10.294,34.744,19.973,5.48,6.466,5.891
726,0.745,36.112,10.306,34.753,19.983,5.4,6.507,5.892
727,0.725,36.244,10.353,34.763,19.98,5.48,6.549,5.851
728,0.731,36.379,10.279,34.773,19.98,5.481,6.508,5.932
729,0.734,36.448,10.279,34.763,19.98,5.4,6.467,5.933
730,0.734,36.218,10.267,34.744,19.977,5.399,6.548,5.933
731,0.738,36.36,10.356,34.734,19.973,5.399,6.468,5.892
732,0.757,36.534,10.268,34.792,19.997,5.643,6.67,5.973
733,0.728,36.555,10.278,34.754,19.98,5.483,6.509,5.893
734,0.76,36.171,10.298,34.763,19.987,5.481,6.711,5.973
735,0.764,36.302,10.283,34.734,19.973,5.4,6.551,5.771
736,0.764,36.418,10.325,34.744,19.983,5.44,6.508,5.891
737,0.767,36.477,10.338,34.725,19.977,5.481,6.549,5.851
738,0.783,36.113,10.291,34.744,19.976,5.522,6.63,5.891
739,0.797,36.263,10.294,34.753,19.98,5.563,6.712,5.851
740,0.774,36.36,10.302,34.744,19.973,5.441,6.632,5.851
741,0.78,36.39,10.326,34.734,19.976,5.44,6.672,5.81
742,0.761,36.198,10.271,34.725,19.973,5.359,6.591,5.769
743,0.79,36.36,10.275,34.772,19.99,5.643,6.875,5.972
744,0.777,36.447,10.314,34.744,19.98,5.564,6.755,5.893
745,0.758,36.18,10.298,34.744,19.98,5.523,6.836,5.973
746,0.735,36.043,10.345,34.744,19.97,5.441,6.755,5.771
747,0.738,36.166,10.314,34.734,19.973,5.399,6.754,5.809
748,0.757,36.283,10.24,34.734,19.983,5.44,6.795,5.81
749,0.748,36.13,10.29,34.753,19.977,5.521,6.795,5.81
750,0.747,36.263,10.298,34.734,19.983,5.563,6.795,5.85
751,0.715,36.36,10.345,34.734,19.973,5.401,6.795,5.81
752,0.741,36.476,10.256,34.753,19.983,5.48,6.795,5.85
753,0.741,35.969,10.302,34.725,19.97,5.44,6.755,5.81
754,0.78,36.165,10.24,34.763,19.994,5.603,6.957,5.972
755,0.793,36.244,10.294,34.754,19.984,5.564,6.878,5.852
756,0.813,36.36,10.302,34.754,19.983,5.482,6.837,5.973
757,0.813,36.61,10.365,34.725,19.98,5.481,6.755,5.852
758,0.859,36.747,10.225,34.724,19.977,5.481,6.754,5.81
759,0.911,36.883,10.305,34.744,19.98,5.481,6.795,5.932
760,0.954,36.932,10.291,34.734,19.977,5.562,6.795,5.892
761,0.964,35.839,10.322,34.744,19.983,5.523,6.836,5.851
762,0.987,35.943,10.256,34.706,19.973,5.4,6.714,5.769
763,1.056,36.079,10.278,34.724,19.973,5.521,6.794,5.891
764,1.079,36.138,10.255,34.696,19.973,5.441,6.755,5.811
765,1.099,36.206,10.286,34.743,19.987,5.562,6.957,6.054
766,1.086,36.321,10.333,34.734,19.984,5.563,6.838,5.975
767,1.06,36.447,10.326,34.725,19.983,5.523,6.796,6.055
768,1.092,36.477,10.287,34.724,19.977,5.482,6.755,6.056
769,1.158,36.075,10.259,34.705,19.976,5.522,6.754,5.975
770,1.155,36.243,10.333,34.743,19.987,5.603,6.795,6.218
771,1.096,36.331,10.318,34.725,19.98,5.564,6.795,6.18
772,1.089,36.361,10.267,34.715,19.983,5.563,6.795,6.179
773,1.047,36.179,10.278,34.705,19.97,5.523,6.633,6.098
774,1.04,36.321,10.271,34.724,19.973,5.522,6.712,6.178
775,1.024,36.418,10.275,34.705,19.973,5.482,6.754,6.22
776,0.997,36.247,10.306,34.724,19.987,5.644,6.795,6.302
777,0.958,36.101,10.337,34.696,19.984,5.686,6.795,6.384
778,0.958,36.263,10.244,34.734,19.987,5.605,6.836,6.344
779,0.919,36.37,10.309,34.715,19.98,5.645,6.837,6.343
780,0.883,35.978,10.294,34.696,19.97,5.605,6.796,6.343
781,0.882,36.089,10.365,34.753,19.983,5.726,6.958,6.506
782,0.85,36.195,10.252,34.715,19.977,5.646,7.0,6.467
783,0.836,36.321,10.313,34.715,19.983,5.645,6.96,6.548
784,0.865,35.881,10.248,34.667,19.97,5.564,6.838,6.508
785,0.84,36.03,10.294,34.705,19.976,5.645,6.958,6.792
786,0.742,36.166,10.271,34.696,19.973,5.564,6.919,6.877
787,0.686,36.244,10.302,34.715,19.983,5.685,7.122,7.203
788,0.62,36.034,10.209,34.705,19.983,5.646,7.002,7.572
789,0.551,36.185,10.282,34.696,19.977,5.645,7.041,7.86
790,0.482,36.292,10.314,34.686,19.98,5.645,7.001,8.31
791,0.433,36.36,10.326,34.686,19.977,5.605,7.001,8.721
792,0.37,35.939,10.306,34.724,19.987,5.767,7.163,9.376
793,0.308,36.06,10.283,34.686,19.98,5.728,7.043,9.83
794,0.288,36.195,10.314,34.715,19.983,5.768,7.123,10.322
795,0.245,36.225,10.31,34.657,19.966,5.565,6.921,10.693
796,0.235,36.015,10.318,34.685,19.976,5.645,6.959,11.266
797,0.261,36.147,10.287,34.676,19.976,5.686,6.96,11.638
798,0.222,36.273,10.255,34.724,19.98,5.768,7.082,12.129
799,0.232,36.322,10.274,34.705,19.983,5.768,7.002,12.256
800,0.251,36.092,10.325,34.686,19.983,5.768,7.001,12.501
801,0.264,36.224,10.302,34.686,19.98,5.687,6.96,12.585
802,0.265,36.321,10.259,34.667,19.983,5.687,6.919,12.667
803,0.317,36.409,10.251,34.714,19.994,5.849,7.041,12.993
804,0.333,36.036,10.321,34.686,19.98,5.729,6.96,13.037
805,0.337,36.195,10.341,34.705,19.987,5.768,6.96,13.241
806,0.395,36.273,10.33,34.657,19.973,5.606,6.756,13.121
807,0.422,36.178,10.353,34.676,19.969,5.686,6.836,13.526
808,0.416,36.052,10.236,34.676,19.973,5.687,6.837,13.815
809,0.442,36.214,10.286,34.676,19.98,5.727,6.918,14.143
810,0.484,36.321,10.298,34.705,19.983,5.768,6.837,14.553
811,0.504,35.968,10.302,34.667,19.973,5.647,6.796,14.801
812,0.537,36.041,10.248,34.676,19.976,5.686,6.836,15.332
813,0.573,36.166,10.274,34.667,19.973,5.646,6.796,15.663
814,0.625,36.33,10.329,34.705,19.99,5.889,6.958,16.073
815,0.668,35.929,10.302,34.686,19.984,5.689,6.797,16.239
816,0.682,36.06,10.38,34.676,19.98,5.768,6.795,16.404
817,0.698,36.176,10.33,34.676,19.98,5.687,6.795,16.486
818,0.705,36.254,10.33,34.695,19.977,5.646,6.714,16.487
819,0.731,35.938,10.256,34.695,19.976,5.686,6.754,16.569
820,0.744,36.069,10.325,34.667,19.98,5.646,6.836,16.447
821,0.741,36.166,10.275,34.686,19.983,5.686,6.796,16.324
822,0.757,36.235,10.294,34.667,19.97,5.564,6.673,16.079
823,0.777,35.967,10.259,34.647,19.98,5.563,6.794,15.914
824,0.751,36.089,10.255,34.647,19.97,5.604,6.673,15.79
825,0.761,36.243,10.364,34.695,19.987,5.686,6.835,15.708
826,0.783,36.274,10.315,34.638,19.984,5.605,6.755,15.422
827,0.793,36.005,10.38,34.676,19.983,5.645,6.795,15.176
828,0.806,36.137,10.303,34.695,19.98,5.645,6.795,14.97
829,0.787,36.244,10.302,34.648,19.98,5.564,6.633,14.643
830,0.806,36.331,10.271,34.676,19.983,5.645,6.794,14.517
831,0.794,35.891,10.314,34.657,19.98,5.564,6.714,14.191
832,0.819,36.059,10.248,34.685,19.983,5.645,6.713,14.065
833,0.813,36.128,10.267,34.647,19.973,5.523,6.632,13.576
834,0.813,36.177,10.263,34.647,19.976,5.603,6.631,13.409
835,0.839,35.957,10.294,34.628,19.97,5.442,6.631,13.204
836,0.849,36.127,10.376,34.676,19.99,5.684,6.834,13.121
837,0.872,36.215,10.35,34.647,19.984,5.646,6.714,12.795
838,0.866,36.149,10.346,34.733,19.983,5.645,6.754,12.629
839,0.859,35.937,10.264,34.648,19.98,5.523,6.714,12.464
840,0.827,36.06,10.341,34.618,19.977,5.482,6.672,12.178
841,0.859,36.186,10.287,34.647,19.99,5.644,6.713,12.135
842,0.866,35.87,10.31,34.647,19.984,5.605,6.672,11.89
843,0.866,35.963,10.263,34.666,19.99,5.686,6.713,11.806
844,0.846,36.05,10.298,34.609,19.97,5.524,6.632,11.602
845,0.849,36.166,10.287,34.628,19.973,5.563,6.712,11.478
846,0.84,35.803,10.357,34.618,19.976,5.523,6.672,11.274
847,0.859,35.962,10.268,34.666,19.987,5.644,6.794,11.353
848,0.869,36.098,10.31,34.647,19.977,5.483,6.755,11.151
849,0.856,36.186,10.271,34.647,19.983,5.562,6.714,10.986
850,0.853,35.937,10.337,34.609,19.977,5.523,6.672,10.822
851,0.843,36.079,10.264,34.618,19.973,5.441,6.713,10.739
852,0.843,36.224,10.278,34.676,19.987,5.603,6.835,10.697
853,0.826,36.274,10.31,34.628,19.98,5.523,6.755,10.494
854,0.843,35.948,10.279,34.637,19.983,5.603,6.795,10.369
855,0.846,36.05,10.349,34.599,19.973,5.36,6.592,10.084
856,0.879,36.185,10.291,34.618,19.976,5.521,6.712,9.999
857,0.892,36.225,10.31,34.608,19.973,5.441,6.672,9.958
858,0.892,35.88,10.24,34.628,19.976,5.521,6.835,9.835
859,0.853,36.002,10.29,34.637,19.983,5.563,6.837,9.712
860,0.853,36.089,10.329,34.609,19.983,5.523,6.837,9.63
861,0.875,36.147,10.287,34.628,19.977,5.482,6.796,9.507
862,0.863,35.947,10.318,34.599,19.976,5.522,6.673,9.384
863,0.879,36.117,10.295,34.647,19.987,5.644,6.875,9.382
864,0.863,36.205,10.337,34.628,19.98,5.523,6.796,9.261
865,0.856,36.245,10.31,34.637,19.983,5.603,6.795,9.137
866,0.849,35.9,10.345,34.599,19.966,5.32,6.673,8.933
867,0.853,36.04,10.307,34.637,19.98,5.52,6.794,8.89
868,0.869,36.157,10.287,34.599,19.97,5.482,6.673,8.768
869,0.885,36.139,10.228,34.637,19.983,5.481,6.753,8.767
870,0.85,35.851,10.321,34.628,19.987,5.603,6.714,8.767
871,0.814,35.982,10.248,34.628,19.977,5.523,6.794,8.685
872,0.859,36.098,10.306,34.637,19.98,5.441,6.714,8.562
873,0.866,35.898,10.259,34.609,19.977,5.44,6.713,8.48
874,0.869,36.04,10.329,34.647,19.987,5.562,6.835,8.52
875,0.872,36.118,10.334,34.609,19.987,5.482,6.796,8.358
876,0.879,36.244,10.349,34.628,19.987,5.562,6.755,8.397
877,0.863,35.804,10.275,34.599,19.97,5.401,6.551,8.112
878,0.879,35.924,10.302,34.608,19.976,5.44,6.712,8.15
879,0.879,36.069,10.291,34.608,19.976,5.481,6.672,8.028
880,0.892,36.147,10.31,34.608,19.98,5.481,6.713,8.027
881,0.905,35.889,10.255,34.608,19.987,5.481,6.713,8.027
882,0.895,36.002,10.274,34.599,19.984,5.481,6.632,7.905
883,0.908,36.137,10.302,34.608,19.983,5.481,6.712,7.945
884,0.905,36.215,10.279,34.589,19.97,5.359,6.632,7.742
885,0.915,35.784,10.388,34.627,19.987,5.561,6.834,7.943
886,0.892,35.905,10.307,34.609,19.984,5.482,6.674,7.823
887,0.866,36.011,10.326,34.608,19.987,5.481,6.753,7.741
888,0.879,36.089,10.26,34.599,19.977,5.4,6.632,7.537
889,0.885,35.898,10.321,34.589,19.98,5.399,6.59,7.575
890,0.882,36.05,10.322,34.589,19.983,5.48,6.671,7.575
891,0.859,36.176,10.248,34.618,19.983,5.481,6.631,7.616
892,0.882,36.225,10.302,34.628,19.983,5.481,6.672,7.535
893,0.879,36.226,10.255,34.599,19.977,5.4,6.631,7.494
894,0.892,36.389,10.356,34.599,19.973,5.44,6.631,7.494
895,0.892,36.476,10.322,34.579,19.969,5.399,6.55,7.331
896,0.892,36.535,10.416,34.627,19.994,5.562,6.671,7.492
897,0.886,35.663,10.26,34.589,19.984,5.401,6.631,7.412
898,0.911,35.817,10.306,34.608,19.983,5.48,6.59,7.411
899,0.899,35.895,10.333,34.57,19.973,5.318,6.468,7.208
900,0.908,36.04,10.299,34.579,19.969,5.398,6.548,7.247
901,0.912,35.821,10.279,34.589,19.976,5.44,6.671,7.206
902,0.905,35.972,10.263,34.57,19.976,5.481,6.713,7.206
903,0.905,36.089,10.294,34.598,19.987,5.44,6.713,7.165
904,0.899,35.716,10.294,34.56,19.97,5.359,6.632,7.084
905,0.908,35.77,10.318,34.56,19.976,5.439,6.712,7.164
906,0.892,35.866,10.337,34.56,19.973,5.359,6.672,7.002
907,0.915,36.021,10.236,34.608,19.994,5.521,6.916,7.285
908,0.902,35.725,10.333,34.58,19.984,5.482,6.878,7.125
909,0.905,35.837,10.314,34.589,19.987,5.481,6.877,7.124
910,0.899,35.953,10.337,34.589,19.98,5.359,6.918,7.043
911,0.895,36.069,10.275,34.599,19.98,5.317,6.796,6.96
912,0.902,35.725,10.306,34.608,19.987,5.52,6.999,7.082
913,0.908,35.827,10.275,34.57,19.977,5.441,6.96,7.002
914,0.934,35.982,10.337,34.589,19.987,5.44,6.96,7.001
915,0.912,36.003,10.31,34.551,19.973,5.277,6.838,6.879
916,0.918,35.705,10.341,34.56,19.98,5.479,6.877,6.918
917,0.922,35.856,10.24,34.57,19.97,5.4,6.877,6.837
918,0.964,35.963,10.298,34.56,19.976,5.399,6.959,6.918
919,0.951,36.05,10.361,34.579,19.976,5.44,7.041,6.878
920,0.971,35.716,10.291,34.579,19.976,5.481,6.92,6.837
921,0.929,35.866,10.314,34.637,19.973,5.44,6.959,6.796
922,0.912,35.973,10.224,34.542,19.973,5.399,6.878,6.795
923,0.935,36.07,10.325,34.589,19.99,5.562,7.081,6.836
924,0.931,35.697,10.279,34.56,19.984,5.441,6.961,6.837
925,0.925,35.837,10.337,34.57,19.98,5.481,6.96,6.837
926,0.918,35.934,10.334,34.541,19.97,5.318,6.797,6.674
927,0.922,35.973,10.263,34.541,19.973,5.439,6.958,6.753
928,0.918,35.82,10.29,34.55,19.98,5.359,6.96,6.714
929,0.918,35.963,10.31,34.56,19.98,5.48,6.919,6.754
930,0.935,36.06,10.337,34.56,19.977,5.4,6.919,6.754
931,0.938,36.281,10.264,34.56,19.976,5.44,6.878,6.795
932,0.925,35.689,10.294,34.56,19.976,5.44,6.959,6.755
933,0.928,35.817,10.294,34.531,19.973,5.399,6.838,6.673
934,0.944,35.953,10.337,34.579,19.994,5.562,7.04,6.794
935,0.945,35.772,10.338,34.541,19.98,5.441,6.92,6.673
936,0.932,35.818,10.31,34.531,19.983,5.481,7.041,6.753
937,0.938,35.934,10.279,34.521,19.977,5.359,6.798,6.592
938,0.954,36.031,10.275,34.531,19.976,5.399,6.917,6.671
939,0.971,35.581,10.29,34.54,19.976,5.399,6.919,6.631
940,0.945,35.682,10.286,34.55,19.983,5.44,6.878,6.631
941,0.958,35.827,10.294,34.598,19.98,5.481,6.918,6.672
942,0.961,35.905,10.263,34.522,19.973,5.4,6.878,6.631
943,0.99,35.542,10.321,34.531,19.976,5.399,6.877,6.59
944,0.971,35.662,10.248,34.521,19.973,5.399,6.918,6.509
945,0.977,35.817,10.384,34.55,19.99,5.562,7.122,6.711
946,0.945,35.895,10.268,34.541,19.98,5.482,6.961,6.672
947,0.967,35.637,10.235,34.55,19.983,5.44,7.082,6.631
948,0.964,35.788,10.278,34.531,19.983,5.481,7.002,6.509
949,0.955,35.886,10.298,34.512,19.977,5.481,6.96,6.467
950,0.974,35.992,10.326,34.55,19.983,5.481,7.082,6.589
951,0.977,35.619,10.256,34.531,19.977,5.481,7.083,6.59
952,1.013,35.778,10.286,34.54,19.98,5.481,7.123,6.549
953,0.991,35.866,10.251,34.512,19.97,5.318,7.002,6.427
954,0.978,35.934,10.36,34.512,19.98,5.439,7.041,6.548
955,0.997,35.714,10.311,34.521,19.97,5.359,7.001,6.468
956,1.01,35.875,10.302,34.54,19.983,5.561,7.163,6.629
957,1.01,35.992,10.209,34.541,19.98,5.482,7.043,6.509
958,1.007,36.041,10.282,34.541,19.983,5.481,7.082,6.589
959,1.01,35.62,10.302,34.512,19.977,5.44,7.002,6.509
960,1.023,35.75,10.271,34.521,19.98,5.44,7.001,6.467
961,1.066,35.924,10.306,34.56,19.987,5.603,7.082,6.589
962,1.056,36.232,10.298,34.512,19.977,5.523,7.002,6.509
963,1.03,35.717,10.318,34.54,19.983,5.522,7.041,6.589
964,1.007,35.808,10.341,34.483,19.963,5.36,6.839,6.346
965,1.036,35.934,10.33,34.511,19.98,5.439,6.958,6.466
966,1.037,35.628,10.318,34.512,19.97,5.481,6.838,6.426
967,1.03,35.635,10.31,34.598,19.98,5.522,7.04,6.548
968,1.024,35.779,10.263,34.522,19.983,5.482,7.001,6.468
969,1.017,35.857,10.364,34.521,19.977,5.481,6.96,6.507
970,1.033,35.637,10.236,34.521,19.976,5.522,6.878,6.345
971,1.024,35.75,10.266,34.512,19.976,5.482,6.877,6.384
972,1.03,35.933,10.255,34.55,19.987,5.562,6.959,6.547
973,1.053,35.973,10.313,34.522,19.977,5.482,6.919,6.427
974,1.066,35.744,10.38,34.521,19.987,5.44,6.959,6.507
975,1.06,35.828,10.315,34.492,19.963,5.277,6.756,6.264
976,1.053,35.972,10.295,34.511,19.973,5.398,6.836,6.343
977,1.06,36.06,10.255,34.512,19.976,5.399,6.837,6.303
978,1.102,35.418,10.317,34.531,19.976,5.48,6.877,6.343
979,1.106,35.546,10.341,34.512,19.983,5.481,6.837,6.466
980,1.096,35.672,10.267,34.521,19.98,5.44,6.918,6.467
981,1.122,35.75,10.271,34.521,19.98,5.481,6.837,6.386
982,1.096,35.626,10.306,34.512,19.977,5.44,6.796,6.303
983,1.122,35.817,10.333,34.54,19.99,5.562,6.958,6.506
984,1.099,35.886,10.345,34.521,19.98,5.482,6.878,6.427
985,1.083,35.954,10.291,34.521,19.98,5.522,6.959,6.466
986,1.128,35.6,10.283,34.492,19.973,5.4,6.797,6.304
987,1.109,35.769,10.29,34.511,19.973,5.399,6.836,6.302
988,1.132,35.866,10.306,34.521,19.98,5.44,6.837,6.384
989,1.142,35.915,10.345,34.512,19.98,5.521,6.918,6.344
990,1.109,35.705,10.264,34.531,19.977,5.482,6.959,6.425
991,1.102,35.818,10.317,34.502,19.976,5.44,6.838,6.344
992,1.128,35.963,10.279,34.502,19.98,5.481,6.837,6.262
993,1.158,36.117,10.345,34.483,19.977,5.44,6.755,6.302
994,1.171,35.659,10.303,34.54,19.99,5.562,7.039,6.506
995,1.178,35.75,10.287,34.512,19.977,5.482,6.879,6.386
996,1.197,35.895,10.255,34.521,19.99,5.522,6.877,6.344
997,1.211,35.791,10.267,34.492,19.977,5.4,6.796,6.303
998,1.207,35.828,10.329,34.492,19.98,5.358,6.836,6.221
999,1.201,35.963,10.299,34.521,19.977,5.521,6.918,6.342
1000,1.201,36.06,10.329,34.502,19.98,5.482,6.919,6.303
1001,1.233,35.706,10.279,34.521,19.983,5.481,6.959,6.302
1002,1.224,35.76,10.321,34.483,19.973,5.359,6.838,6.221
1003,1.221,35.914,10.326,34.502,19.976,5.439,6.958,6.302
1004,1.198,36.011,10.26,34.502,19.976,5.318,6.878,6.262
1005,1.194,35.734,10.247,34.502,19.976,5.48,7.04,6.384
1006,1.194,35.875,10.169,34.521,19.983,5.4,7.123,6.385
1007,1.207,36.002,10.227,34.512,19.983,5.44,7.043,6.263
1008,1.214,36.089,10.305,34.512,19.983,5.399,7.123,6.302
1009,1.211,35.869,10.318,34.473,19.977,5.44,7.124,6.221
1010,1.23,36.069,10.314,34.54,19.99,5.643,7.368,6.383
1011,1.237,36.166,10.33,34.531,19.98,5.483,7.167,6.344
1012,1.244,36.235,10.326,34.512,19.983,5.562,7.246,6.343
1013,1.221,35.88,10.353,34.483,19.98,5.401,7.125,6.221
1014,1.253,36.011,10.256,34.492,19.977,5.48,7.205,6.22
1015,1.253,36.156,10.239,34.521,19.976,5.522,7.247,6.302
1016,1.263,36.187,10.173,34.512,19.983,5.522,7.206,6.262
1017,1.254,35.985,10.285,34.502,19.983,5.563,7.206,6.302
1018,1.263,36.07,10.259,34.473,19.973,5.482,7.165,6.221
1019,1.283,36.205,10.329,34.492,19.973,5.481,7.165,6.261
1020,1.28,36.235,10.263,34.492,19.973,5.562,7.165,6.18
1021,1.299,36.101,10.294,34.521,19.99,5.645,7.328,6.342
1022,1.273,36.205,10.357,34.492,19.987,5.686,7.167,6.181
1023,1.267,36.302,10.334,34.502,19.984,5.564,7.165,6.22
1024,1.26,36.332,10.295,34.492,19.977,5.604,7.124,6.22
1025,1.263,36.246,10.224,34.492,19.976,5.564,7.083,6.139
1026,1.276,36.408,10.298,34.511,19.987,5.604,7.123,6.301
1027,1.28,36.486,10.263,34.502,19.98,5.604,7.083,6.262
1028,1.26,36.353,10.333,34.483,19.983,5.604,7.164,6.262
1029,1.244,36.284,10.24,34.454,19.97,5.482,7.002,6.058
1030,1.247,36.456,10.329,34.482,19.973,5.603,7.123,6.219
1031,1.247,36.544,10.267,34.463,19.973,5.482,7.043,6.18
1032,1.257,36.325,10.353,34.511,19.987,5.725,7.204,6.342
1033,1.302,36.428,10.318,34.473,19.973,5.646,7.125,6.221
1034,1.264,36.554,10.259,34.492,19.983,5.645,7.165,6.261
1035,1.237,36.632,10.239,34.502,19.977,5.605,7.206,6.18
1036,1.26,36.421,10.27,34.483,19.97,5.645,7.043,6.139
1037,1.267,36.592,10.333,34.502,19.98,5.727,7.204,6.26
1038,1.25,36.68,10.318,34.483,19.98,5.687,7.125,6.221
1039,1.247,36.777,10.306,34.492,19.98,5.646,7.205,6.22
1040,1.263,36.365,10.287,34.454,19.97,5.523,7.084,6.098
1041,1.25,36.534,10.337,34.463,19.976,5.603,7.164,6.178
1042,1.237,36.651,10.31,34.444,19.973,5.604,7.124,6.098
1043,1.231,36.738,10.341,34.501,19.983,5.726,7.246,6.219
1044,1.234,36.624,10.248,34.473,19.98,5.605,7.247,6.139
1045,1.178,36.757,10.302,34.521,19.987,5.686,7.206,6.179
1046,1.178,36.883,10.267,34.473,19.973,5.564,7.206,6.179
1047,1.168,36.903,10.278,34.463,19.973,5.604,7.125,6.179
1048,1.168,36.712,10.364,34.492,19.983,5.726,7.205,6.22
1049,1.152,36.815,10.233,34.492,19.977,5.646,7.206,6.22
1050,1.139,36.96,10.298,34.483,19.99,5.645,7.287,6.22
1051,1.109,36.962,10.248,34.463,19.97,5.523,7.044,6.18
1052,1.102,36.818,10.348,34.473,19.976,5.563,7.123,6.098
1053,1.093,36.922,10.283,34.463,19.973,5.482,7.083,6.097
1054,1.089,37.067,10.255,34.463,19.98,5.644,7.083,6.178
1055,1.083,37.068,10.306,34.549,19.983,5.686,7.123,6.179
1056,1.073,36.915,10.298,34.483,19.98,5.646,7.165,6.179
1057,1.073,37.028,10.329,34.473,19.977,5.645,7.124,6.22
1058,1.069,37.116,10.326,34.463,19.976,5.564,7.083,6.098
1059,1.082,37.03,10.302,34.492,19.983,5.685,7.164,6.26
1060,1.073,36.943,10.259,34.463,19.983,5.687,7.084,6.221
1061,1.063,37.067,10.333,34.473,19.983,5.687,7.164,6.22
1062,1.053,37.145,10.291,34.454,19.97,5.483,7.002,5.976
1063,1.043,36.992,10.298,34.463,19.983,5.562,7.041,6.096
1064,1.017,37.115,10.244,34.444,19.98,5.604,7.042,6.056
1065,0.994,37.241,10.306,34.54,19.983,5.564,7.123,6.137
1066,0.991,37.358,10.283,34.464,19.983,5.685,7.124,6.179
1067,0.994,37.052,10.271,34.444,19.98,5.605,7.124,6.098
1068,0.984,37.183,10.396,34.463,19.977,5.604,7.246,6.097
1069,0.958,37.29,10.245,34.454,19.97,5.564,7.125,6.097
1070,0.954,37.425,10.29,34.482,19.994,5.726,7.408,6.26
1071,0.935,36.976,10.271,34.463,19.984,5.605,7.33,6.099
1072,0.938,37.125,10.341,34.482,19.98,5.645,7.37,6.219
1073,0.925,37.222,10.271,34.454,19.977,5.483,7.289,6.098
1074,0.918,37.29,10.263,34.453,19.983,5.603,7.369,6.097
1075,0.931,37.08,10.251,34.511,19.973,5.564,7.37,6.056
1076,0.944,37.212,10.298,34.454,19.976,5.604,7.452,6.097
1077,0.912,37.338,10.306,34.453,19.973,5.645,7.534,6.178
1078,0.895,37.359,10.341,34.453,19.976,5.564,7.494,6.098
1079,0.882,37.253,10.256,34.453,19.983,5.604,7.616,6.097
1080,0.892,37.386,10.231,34.453,19.977,5.482,7.576,6.056
1081,0.931,37.522,10.329,34.501,19.994,5.766,7.738,6.137
1082,0.902,37.514,10.302,34.454,19.98,5.565,7.74,6.057
1083,0.902,37.264,10.275,34.463,19.987,5.604,7.74,6.097
1084,0.879,37.387,10.208,34.444,19.97,5.523,7.699,5.935
1085,0.866,37.493,10.27,34.444,19.976,5.563,7.699,6.055
1086,0.885,37.523,10.286,34.453,19.976,5.523,7.658,6.056
1087,0.879,37.236,10.318,34.453,19.99,5.644,7.78,6.137
1088,0.853,37.348,10.353,34.463,19.984,5.605,7.781,6.098
1089,0.862,37.435,10.244,34.444,19.98,5.482,7.74,6.056
1090,0.853,37.35,10.306,34.453,19.977,5.562,7.781,6.056
1091,0.827,37.272,10.252,34.444,19.973,5.482,7.7,6.097
1092,0.839,37.425,10.372,34.492,19.997,5.725,7.902,6.219
1093,0.836,37.503,10.272,34.454,19.98,5.565,7.823,6.139
1094,0.833,37.236,10.282,34.473,19.983,5.563,7.741,6.219
1095,0.826,37.281,10.255,34.444,19.973,5.563,7.577,6.058
1096,0.846,37.425,10.278,34.444,19.976,5.523,7.657,6.097
1097,0.843,37.513,10.275,34.444,19.973,5.482,7.617,6.016
1098,0.83,37.207,10.325,34.444,19.976,5.603,7.617,6.137
1099,0.856,37.348,10.33,34.52,19.98,5.604,7.698,6.179
1100,0.856,37.464,10.267,34.464,19.973,5.523,7.618,6.139
1101,0.853,37.542,10.337,34.434,19.983,5.563,7.617,6.057
1102,0.833,37.178,10.33,34.425,19.977,5.482,7.495,6.015
1103,0.843,37.367,10.334,34.482,19.99,5.725,7.738,6.218
1104,0.849,37.445,10.275,34.492,19.984,5.646,7.577,6.098
1105,0.817,37.532,10.302,34.454,19.98,5.523,7.535,6.219
1106,0.82,37.303,10.232,34.444,19.98,5.482,7.494,6.098
1107,0.807,37.445,10.329,34.434,19.973,5.481,7.453,6.138
1108,0.813,37.571,10.322,34.453,19.98,5.522,7.574,6.098
1109,0.803,37.639,10.314,34.444,19.983,5.522,7.535,6.097
1110,0.803,37.4,10.306,34.444,19.977,5.522,7.616,6.097
1111,0.768,37.493,10.302,34.434,19.973,5.522,7.535,6.016
1112,0.783,37.629,10.353,34.444,19.976,5.522,7.534,6.137
1113,0.79,37.678,10.236,34.405,19.966,5.441,7.453,6.016
1114,0.829,37.295,10.333,34.472,19.997,5.643,7.656,6.218
1115,0.823,37.387,10.267,34.444,19.984,5.483,7.576,6.139
1116,0.804,37.522,10.29,34.444,19.983,5.522,7.575,6.219
1117,0.803,37.504,10.24,34.405,19.97,5.482,7.494,5.976
1118,0.836,37.293,10.317,34.424,19.976,5.481,7.453,6.096
1119,0.83,37.444,10.291,34.444,19.976,5.481,7.493,6.097
1120,0.826,37.561,10.294,34.444,19.976,5.522,7.534,6.138
1121,0.833,37.495,10.341,34.444,19.983,5.563,7.534,6.138
1122,0.817,37.331,10.31,34.434,19.983,5.482,7.494,6.098
1123,0.82,37.483,10.302,34.434,19.977,5.522,7.494,6.016
1124,0.803,37.581,10.255,34.444,19.98,5.441,7.412,6.056
1125,0.82,37.303,10.341,34.463,19.99,5.643,7.655,6.259
1126,0.81,37.339,10.267,34.444,19.977,5.645,7.495,6.099
1127,0.807,37.464,10.329,34.444,19.983,5.564,7.534,6.178
1128,0.8,37.513,10.31,34.405,19.973,5.401,7.412,6.057
1129,0.794,37.293,10.326,34.405,19.98,5.602,7.574,6.056
1130,0.787,37.425,10.279,34.434,19.98,5.564,7.494,5.975
1131,0.8,37.522,10.337,34.444,19.973,5.563,7.534,6.177
1132,0.79,37.619,10.346,34.444,19.983,5.523,7.616,6.179
1133,0.793,37.227,10.264,34.425,19.98,5.522,7.576,6.139
1134,0.79,37.367,10.282,34.453,19.977,5.603,7.698,6.138
1135,0.81,37.484,10.271,34.406,19.973,5.482,7.577,6.016
1136,0.816,37.581,10.333,34.463,19.99,5.766,7.82,6.137
1137,0.816,37.284,10.322,34.434,19.984,5.606,7.7,6.098
1138,0.823,37.416,10.369,34.444,19.98,5.604,7.74,6.138
1139,0.82,37.513,10.268,34.425,19.977,5.482,7.618,6.057
1140,0.82,37.581,10.31,34.424,19.976,5.481,7.657,6.056
1141,0.836,37.303,10.291,34.405,19.973,5.481,7.617,6.056
1142,0.82,37.445,10.31,34.424,19.983,5.603,7.698,6.097
1143,0.833,37.571,10.267,34.444,19.983,5.645,7.699,6.178
1144,0.82,37.61,10.267,34.405,19.983,5.564,7.618,6.057
1145,0.8,37.304,10.286,34.415,19.977,5.482,7.617,6.097
1146,0.784,37.416,10.259,34.405,19.973,5.481,7.495,6.016
1147,0.787,37.58,10.341,34.443,19.99,5.603,7.697,6.259
1148,0.774,37.553,10.33,34.425,19.984,5.482,7.618,6.099
1149,0.777,37.313,10.31,34.434,19.983,5.522,7.495,6.219
1150,0.767,37.425,10.248,34.405,19.966,5.4,7.412,6.017
1151,0.777,37.542,10.352,34.405,19.973,5.48,7.411,6.096
1152,0.764,37.485,10.26,34.415,19.976,5.522,7.411,6.056
1153,0.793,37.341,10.251,34.415,19.976,5.522,7.452,6.097
1154,0.813,37.483,10.251,34.424,19.983,5.563,7.452,6.138
1155,0.807,37.571,10.294,34.424,19.977,5.523,7.412,6.098
1156,0.787,37.246,10.31,34.434,19.976,5.563,7.371,6.097
1157,0.774,37.281,10.337,34.405,19.97,5.441,7.289,6.097
1158,0.813,37.463,10.349,34.453,19.99,5.684,7.41,6.26
1159,0.826,37.532,10.291,34.415,19.977,5.564,7.33,6.099
1160,0.836,37.197,10.353,34.434,19.976,5.563,7.289,6.178
1161,0.817,37.29,10.311,34.377,19.973,5.319,7.207,5.935
1162,0.842,37.435,10.302,34.405,19.976,5.48,7.247,6.096
1163,0.833,37.513,10.275,34.405,19.973,5.481,7.166,6.056
1164,0.8,37.217,10.306,34.424,19.98,5.603,7.287,6.137
1165,0.79,37.338,10.275,34.453,19.983,5.604,7.247,6.098
1166,0.797,37.464,10.298,34.415,19.983,5.564,7.328,6.097
1167,0.836,37.532,10.349,34.424,19.977,5.523,7.167,6.138
1168,0.836,37.293,10.318,34.415,19.97,5.482,7.206,6.016
1169,0.82,37.492,10.334,34.453,19.987,5.644,7.328,6.178
1170,0.833,37.59,10.271,34.406,19.984,5.483,7.248,6.098
1171,0.729,37.658,10.353,34.434,19.98,5.562,7.247,6.097
1172,0.747,37.112,10.26,34.386,19.97,5.401,7.044,6.056
1173,0.78,37.26,10.31,34.472,19.976,5.521,7.204,6.137
1174,0.774,37.406,10.24,34.406,19.973,5.522,7.125,6.057
1175,0.813,37.446,10.286,34.415,19.98,5.603,7.205,6.178
1176,0.81,37.273,10.29,34.415,19.987,5.482,7.165,6.098
1177,0.81,37.396,10.341,34.434,19.98,5.603,7.206,6.219
1178,0.813,37.484,10.295,34.405,19.98,5.523,7.084,6.18
1179,0.803,37.533,10.302,34.395,19.973,5.482,7.083,6.098
1180,0.807,37.15,10.267,34.443,19.99,5.644,7.205,6.097
1181,0.826,37.232,10.349,34.415,19.984,5.564,7.084,6.097
1182,0.833,37.377,10.24,34.434,19.977,5.563,7.123,6.138
1183,0.81,37.445,10.274,34.386,19.963,5.441,6.961,6.016
1184,0.813,37.321,10.298,34.395,19.973,5.562,7.041,6.056
1185,0.794,37.426,10.298,34.386,19.966,5.523,6.96,6.015
1186,0.826,37.542,10.333,34.443,19.99,5.644,7.204,6.178
1187,0.794,37.178,10.342,34.425,19.984,5.564,7.043,6.139
1188,0.79,37.232,10.291,34.434,19.983,5.563,7.001,6.179
1189,0.793,37.367,10.286,34.396,19.973,5.523,6.96,6.057
1190,0.813,37.445,10.298,34.405,19.976,5.482,6.919,6.015
1191,0.807,37.216,10.322,34.415,19.983,5.562,7.0,6.096
1192,0.797,37.367,10.287,34.424,19.977,5.604,6.919,6.097
1193,0.803,37.493,10.275,34.424,19.98,5.604,6.919,6.097
1194,0.82,37.542,10.298,34.396,19.977,5.523,6.837,5.975
1195,0.817,37.188,10.251,34.405,19.976,5.563,6.918,6.096
1196,0.794,37.309,10.313,34.386,19.97,5.482,6.837,6.016
1197,0.79,37.464,10.392,34.443,19.987,5.684,6.999,6.218
1198,0.81,37.504,10.28,34.425,19.98,5.605,6.879,6.058
1199,0.826,37.178,10.314,34.415,19.98,5.564,6.918,6.097
1200,0.813,37.309,10.271,34.396,19.977,5.563,6.878,5.975
1201,0.842,37.387,10.36,34.395,19.976,5.563,6.796,5.974
1202,0.83,37.522,10.236,34.424,19.99,5.645,6.917,6.096
1203,0.807,37.121,10.286,34.415,19.984,5.605,6.919,5.975
1204,0.8,37.27,10.294,34.424,19.983,5.645,6.919,6.015
1205,0.794,37.367,10.298,34.367,19.97,5.483,6.837,5.934
1206,0.803,37.416,10.341,34.414,19.983,5.562,6.877,5.974
1207,0.807,37.196,10.326,34.396,19.973,5.482,6.796,5.933
1208,0.816,37.348,10.31,34.415,19.98,5.644,6.958,6.014
1209,0.8,37.474,10.252,34.405,19.983,5.645,6.878,6.056
1210,0.813,37.504,10.321,34.415,19.987,5.564,6.918,6.015
1211,0.81,37.264,10.291,34.396,19.973,5.563,6.959,6.056
1212,0.794,37.415,10.271,34.395,19.976,5.563,6.797,5.934
1213,0.826,37.58,10.259,34.443,19.987,5.766,6.999,6.096
1214,0.813,37.562,10.286,34.415,19.98,5.647,6.919,5.975
1215,0.8,37.14,10.372,34.424,19.98,5.645,6.959,5.974
1216,0.797,37.232,10.303,34.377,19.97,5.564,6.797,5.852
1217,0.807,37.329,10.388,34.395,19.983,5.645,6.877,5.932
1218,0.79,37.176,10.241,34.386,19.97,5.605,6.877,5.892
1219,0.81,37.261,10.333,34.395,19.976,5.645,6.959,6.014
1220,0.807,37.377,10.283,34.405,19.976,5.727,6.919,5.974
1221,0.813,37.474,10.341,34.386,19.976,5.687,6.959,5.893
1222,0.826,36.986,10.252,34.386,19.976,5.687,6.838,5.973
1223,0.813,37.106,10.286,34.367,19.966,5.564,6.837,5.852
1224,0.826,37.289,10.29,34.414,19.994,5.807,7.04,6.013
1225,0.817,37.339,10.326,34.386,19.977,5.647,6.96,5.893
1226,0.823,37.128,10.345,34.414,19.983,5.727,7.0,5.933
1227,0.81,37.241,10.349,34.376,19.97,5.646,6.879,5.852
1228,0.816,37.367,10.31,34.386,19.973,5.645,6.959,5.851
1229,0.81,37.464,10.287,34.395,19.973,5.564,6.96,5.891
1230,0.829,37.072,10.318,34.415,19.987,5.685,7.041,5.851
1231,0.787,37.212,10.337,34.396,19.984,5.727,7.001,5.973
1232,0.748,37.319,10.287,34.405,19.973,5.605,6.96,5.852
1233,0.773,37.387,10.298,34.405,19.983,5.686,6.96,5.891
1234,0.777,37.081,10.271,34.386,19.97,5.564,6.96,5.811
1235,0.823,37.279,10.306,34.443,19.99,5.766,7.163,6.054
1236,0.82,37.368,10.314,34.415,19.984,5.728,7.043,5.812
1237,0.817,37.416,10.373,34.415,19.983,5.727,7.042,5.932
1238,0.826,36.985,10.225,34.405,19.977,5.646,7.042,5.852
1239,0.823,37.115,10.305,34.386,19.973,5.564,7.001,5.81
1240,0.826,37.232,10.302,34.414,19.98,5.726,7.041,5.85
1241,0.843,37.252,10.357,34.376,19.977,5.646,7.042,5.851
1242,0.853,37.176,10.225,34.405,19.983,5.727,7.082,5.891
1243,0.849,37.29,10.274,34.376,19.977,5.646,6.961,5.811
1244,0.814,37.406,10.267,34.395,19.976,5.645,7.082,5.81
1245,0.816,37.58,10.314,34.386,19.97,5.605,7.002,5.81
1246,0.816,37.15,10.345,34.443,19.99,5.686,7.123,5.972
1247,0.813,37.251,10.338,34.415,19.98,5.687,7.205,5.893
1248,0.784,37.358,10.31,34.415,19.98,5.687,7.125,5.933
1249,0.832,37.1,10.271,34.376,19.977,5.564,7.083,5.852
1250,0.81,37.116,10.31,34.366,19.973,5.645,7.042,5.81
1251,0.787,37.251,10.353,34.414,19.987,5.686,7.286,5.972
1252,0.784,37.339,10.24,34.396,19.977,5.687,7.207,5.852
1253,0.813,36.946,10.313,34.415,19.976,5.646,7.247,5.973
1254,0.794,37.0,10.263,34.357,19.973,5.523,7.125,5.852
1255,0.803,37.144,10.282,34.395,19.976,5.563,7.205,5.851
1256,0.813,37.232,10.279,34.386,19.973,5.604,7.247,5.769
1257,0.823,36.993,10.318,34.395,19.987,5.686,7.328,5.931
1258,0.817,37.096,10.252,34.415,19.984,5.646,7.37,5.892
1259,0.826,37.251,10.302,34.396,19.98,5.564,7.37,5.892
1260,0.826,37.329,10.326,34.376,19.977,5.604,7.289,5.811
1261,0.833,36.85,10.314,34.366,19.976,5.523,7.247,5.81
1262,0.846,37.028,10.295,34.414,19.994,5.685,7.45,5.972
1263,0.82,37.135,10.302,34.405,19.98,5.605,7.412,5.852
1264,0.79,37.203,10.287,34.386,19.98,5.645,7.452,5.973
1265,0.787,36.955,10.263,34.357,19.963,5.442,7.371,5.771
1266,0.797,37.134,10.31,34.395,19.976,5.562,7.533,5.809
1267,0.784,37.222,10.318,34.376,19.97,5.523,7.453,5.769
1268,0.797,37.3,10.267,34.405,19.987,5.603,7.615,5.931
1269,0.787,36.927,10.29,34.395,19.977,5.645,7.657,5.892
1270,0.787,37.067,10.345,34.405,19.98,5.564,7.739,5.933
1271,0.78,37.174,10.31,34.395,19.98,5.563,7.659,5.933
1272,0.767,37.194,10.267,34.386,19.973,5.563,7.658,5.892
1273,0.816,37.041,10.286,34.414,19.99,5.685,7.82,6.014
1274,0.8,37.154,10.294,34.396,19.984,5.564,7.781,5.934
1275,0.807,37.29,10.279,34.424,19.987,5.604,7.781,5.852
1276,0.784,37.559,10.306,34.348,19.963,5.482,7.7,5.648
1277,0.797,36.939,10.361,34.395,19.98,5.562,7.78,5.849
1278,0.816,37.057,10.252,34.386,19.97,5.482,7.659,5.81
1279,0.833,37.193,10.321,34.405,19.983,5.644,7.861,5.972
1280,0.826,36.926,10.275,34.386,19.977,5.564,7.782,5.974
1281,0.833,36.933,10.337,34.395,19.98,5.604,7.781,5.893
1282,0.83,37.048,10.201,34.386,19.977,5.564,7.7,5.851
1283,0.81,37.145,10.262,34.367,19.973,5.482,7.658,5.81
1284,0.813,36.896,10.321,34.414,19.983,5.603,7.739,5.972
1285,0.79,36.99,10.298,34.405,19.977,5.604,7.659,5.811
1286,0.806,37.115,10.361,34.395,19.983,5.604,7.617,5.972
1287,0.79,37.155,10.322,34.367,19.977,5.401,7.576,5.771
1288,0.803,36.896,10.295,34.376,19.98,5.521,7.657,5.85
1289,0.797,37.019,10.24,34.376,19.973,5.482,7.495,5.729
1290,0.797,37.173,10.313,34.405,19.983,5.644,7.697,5.931
1291,0.794,37.232,10.291,34.405,19.98,5.564,7.577,5.933
1292,0.793,36.83,10.247,34.405,19.983,5.563,7.657,5.974
1293,0.79,36.951,10.302,34.395,19.98,5.523,7.536,5.933
1294,0.787,37.077,10.275,34.367,19.977,5.522,7.412,5.77
1295,0.813,37.155,10.337,34.405,19.987,5.644,7.574,6.053
1296,0.807,37.04,10.346,34.395,19.984,5.605,7.535,5.893
1297,0.807,37.193,10.334,34.386,19.983,5.645,7.534,5.851
1298,0.8,37.271,10.283,34.367,19.97,5.483,7.372,5.729
1299,0.8,37.348,10.29,34.376,19.98,5.522,7.533,5.85
1300,0.836,36.841,10.275,34.386,19.973,5.522,7.372,5.769
1301,0.843,36.999,10.353,34.395,19.983,5.482,7.452,5.85
1302,0.8,37.106,10.197,34.386,19.983,5.603,7.371,5.851
1303,0.784,37.136,10.289,34.376,19.98,5.564,7.37,5.851
1304,0.793,37.155,10.255,34.376,19.977,5.523,7.411,5.851
1305,0.774,37.29,10.317,34.366,19.976,5.4,7.289,5.729
1306,0.777,37.425,10.373,34.414,19.99,5.643,7.491,5.972
1307,0.793,37.609,10.33,34.386,19.984,5.564,7.371,5.852
1308,0.78,36.7,10.334,34.376,19.983,5.563,7.452,5.891
1309,0.767,36.825,10.287,34.386,19.98,5.523,7.249,5.811
1310,0.78,36.922,10.31,34.367,19.977,5.441,7.288,5.769
1311,0.8,36.942,10.31,34.405,19.983,5.603,7.329,5.891
1312,0.807,37.019,10.259,34.376,19.977,5.442,7.248,5.851
1313,0.807,37.125,10.267,34.414,19.983,5.521,7.288,5.851
1314,0.807,37.203,10.275,34.348,19.97,5.319,7.125,5.688
1315,0.82,36.715,10.31,34.366,19.983,5.439,7.165,5.727
1316,0.794,36.796,10.298,34.366,19.973,5.481,7.124,5.768
1317,0.813,36.941,10.384,34.386,19.987,5.522,7.246,5.85
1318,0.813,37.019,10.276,34.376,19.984,5.522,7.206,5.769
1319,0.813,36.886,10.321,34.386,19.98,5.482,7.287,5.809
1320,0.813,37.018,10.283,34.367,19.98,5.522,7.166,5.85
1321,0.829,37.116,10.337,34.366,19.977,5.441,7.124,5.688
1322,0.826,37.232,10.24,34.405,19.987,5.562,7.246,5.809
1323,0.81,36.658,10.309,34.386,19.977,5.482,7.166,5.769
1324,0.81,36.824,10.259,34.395,19.983,5.644,7.165,5.85
1325,0.823,36.903,10.313,34.348,19.963,5.401,6.962,5.607
1326,0.794,36.99,10.349,34.366,19.976,5.48,7.0,5.726
1327,0.787,36.847,10.334,34.347,19.976,5.481,7.001,5.768
1328,0.797,37.028,10.287,34.385,19.983,5.522,7.082,5.768
1329,0.807,37.164,10.31,34.367,19.983,5.522,7.123,5.809
1330,0.826,37.194,10.357,34.386,19.983,5.563,7.083,5.769
1331,0.791,36.801,10.291,34.357,19.977,5.563,7.083,5.768
1332,0.777,36.941,10.275,34.366,19.976,5.441,6.961,5.768
1333,0.806,37.105,10.302,34.424,19.987,5.603,7.082,5.891
1334,0.794,37.126,10.271,34.377,19.98,5.482,7.002,5.811
1335,0.79,36.829,10.29,34.386,19.983,5.603,7.041,5.81
1336,0.78,36.932,10.322,34.347,19.973,5.401,6.879,5.688
1337,0.8,37.057,10.318,34.347,19.973,5.48,6.877,5.768
1338,0.813,37.059,10.205,34.376,19.98,5.4,6.918,5.768
1339,0.846,37.126,10.313,34.386,19.973,5.562,6.919,5.768
1340,0.794,37.251,10.322,34.376,19.983,5.482,6.959,5.85
1341,0.797,37.348,10.322,34.366,19.983,5.562,7.0,5.769
1342,0.797,36.956,10.302,34.395,19.983,5.441,6.96,5.768
1343,0.797,36.837,10.298,34.338,19.977,5.399,6.919,5.728
1344,0.82,37.008,10.322,34.404,19.987,5.602,7.081,5.809
1345,0.81,37.068,10.338,34.367,19.98,5.523,7.123,5.728
1346,0.8,36.781,10.31,34.386,19.98,5.522,7.124,5.85
1347,0.787,36.845,10.318,34.347,19.966,5.482,6.88,5.648
1348,0.806,37.008,10.193,34.404,19.976,5.522,7.0,5.889
1349,0.758,37.077,10.27,34.367,19.973,5.482,7.001,5.689
1350,0.803,36.742,10.31,34.376,19.987,5.603,7.123,5.849
1351,0.774,36.883,10.318,34.386,19.98,5.482,7.083,5.81
1352,0.793,36.999,10.322,34.395,19.987,5.522,7.123,5.85
1353,0.784,37.106,10.302,34.367,19.98,5.482,7.083,5.81
1354,0.8,36.656,10.357,34.357,19.973,5.44,7.002,5.728
1355,0.826,36.844,10.326,34.385,19.99,5.603,7.041,5.809
1356,0.813,36.932,10.357,34.367,19.984,5.523,7.042,5.769
1357,0.836,37.0,10.299,34.376,19.98,5.522,7.042,5.891
1358,0.826,36.732,10.287,34.347,19.966,5.36,6.92,5.729
1359,0.8,36.902,10.286,34.366,19.973,5.439,7.0,5.809
1360,0.781,36.999,10.341,34.357,19.969,5.44,6.919,5.769
1361,0.797,37.096,10.295,34.366,19.987,5.562,7.0,5.85
1362,0.816,36.704,10.302,34.376,19.984,5.523,7.041,5.851
1363,0.82,36.844,10.353,34.395,19.983,5.441,6.92,5.851
1364,0.823,36.961,10.307,34.367,19.977,5.521,6.837,5.851
1365,0.804,36.981,10.38,34.357,19.97,5.4,6.837,5.769
1366,0.784,36.818,10.311,34.385,19.983,5.521,6.958,5.85
1367,0.79,36.931,10.341,34.367,19.977,5.482,6.878,5.81
1368,0.793,37.076,10.271,34.376,19.983,5.562,6.837,5.81
1369,0.8,37.059,10.298,34.357,19.963,5.401,6.714,5.688
1370,0.82,36.742,10.329,34.366,19.98,5.44,6.794,5.849
1371,0.807,36.864,10.279,34.366,19.97,5.399,6.714,5.729
1372,0.82,37.028,10.321,34.395,19.987,5.562,6.998,5.972
1373,0.794,36.886,10.275,34.386,19.987,5.482,6.879,5.811
1374,0.777,36.846,10.329,34.376,19.984,5.522,6.918,5.85
1375,0.78,36.951,10.345,34.376,19.98,5.482,6.878,5.851
1376,0.79,37.019,10.361,34.347,19.97,5.359,6.877,5.769
1377,0.813,36.732,10.256,34.366,19.983,5.48,6.959,5.809
1378,0.82,36.806,10.31,34.366,19.983,5.522,6.919,5.81
1379,0.8,36.931,10.283,34.376,19.983,5.522,7.041,5.891
1380,0.79,36.981,10.325,34.338,19.966,5.36,6.96,5.729
1381,0.819,36.655,10.236,34.366,19.973,5.48,7.041,5.768
1382,0.81,36.748,10.27,34.347,19.973,5.359,7.042,5.687
1383,0.813,36.902,10.333,34.376,19.976,5.48,7.164,5.931
1384,0.813,36.98,10.318,34.366,19.98,5.481,7.165,5.852
1385,0.8,36.655,10.337,34.376,19.977,5.481,7.246,5.851
1386,0.807,36.776,10.303,34.347,19.983,5.4,7.206,5.81
1387,0.787,36.912,10.275,34.347,19.977,5.399,7.206,5.85
1388,0.787,37.019,10.314,34.395,19.99,5.521,7.328,5.932
1389,0.78,36.723,10.314,34.357,19.977,5.441,7.248,5.892
1390,0.8,36.854,10.302,34.366,19.987,5.481,7.328,5.892
1391,0.764,36.941,10.279,34.376,19.97,5.359,7.126,5.77
1392,0.777,37.029,10.275,34.347,19.976,5.358,7.287,5.891
1393,0.78,37.087,10.279,34.357,19.976,5.439,7.207,5.811
1394,0.8,37.251,10.345,34.366,19.98,5.521,7.247,5.891
1395,0.807,37.358,10.353,34.366,19.98,5.563,7.288,5.892
1396,0.807,37.397,10.357,34.357,19.973,5.563,7.288,5.851
1397,0.829,36.419,10.244,34.357,19.976,5.482,7.207,5.81
1398,0.813,36.534,10.294,34.347,19.973,5.481,7.206,5.81
1399,0.839,36.689,10.326,34.376,19.987,5.603,7.287,5.972
1400,0.823,36.7,10.31,34.376,19.984,5.482,7.207,5.933
1401,0.823,36.777,10.31,34.366,19.987,5.603,7.287,5.892
1402,0.826,36.902,10.279,34.347,19.973,5.442,7.166,5.811
1403,0.817,36.99,10.306,34.347,19.976,5.481,7.124,5.81
1404,0.823,36.78,10.357,34.357,19.98,5.481,7.165,5.891
1405,0.81,36.586,10.299,34.366,19.98,5.481,7.124,5.933
1406,0.813,36.718,10.302,34.357,19.98,5.562,7.124,5.974
1407,0.777,36.796,10.251,34.366,19.97,5.441,7.083,5.852
1408,0.787,36.624,10.286,34.357,19.983,5.44,7.123,5.891
1409,0.767,36.709,10.337,34.347,19.973,5.481,7.002,5.811
1410,0.783,36.882,10.283,34.376,19.99,5.603,7.204,6.054
1411,0.78,36.97,10.314,34.376,19.98,5.523,7.165,5.934
1412,0.81,36.597,10.263,34.376,19.98,5.563,7.084,5.974
1413,0.777,36.689,10.337,34.347,19.983,5.482,7.042,5.893
1414,0.784,36.825,10.295,34.337,19.973,5.522,6.96,5.851
1415,0.819,36.932,10.318,34.385,19.99,5.603,7.204,5.973
1416,0.803,36.626,10.291,34.367,19.984,5.523,7.084,5.974
1417,0.816,36.786,10.279,34.386,19.98,5.563,7.042,6.015
1418,0.803,36.864,10.286,34.338,19.97,5.36,6.879,5.771
1419,0.816,36.951,10.318,34.366,19.973,5.48,7.04,5.891
1420,0.813,36.463,10.256,34.347,19.969,5.44,6.96,5.811
1421,0.803,36.65,10.278,34.366,19.976,5.481,7.082,5.972
1422,0.807,36.767,10.302,34.357,19.983,5.522,7.083,5.933
1423,0.82,36.825,10.322,34.357,19.983,5.482,7.042,5.892
1424,0.843,36.529,10.334,34.357,19.977,5.481,7.001,5.933
1425,0.807,36.641,10.263,34.347,19.973,5.481,6.879,5.892
1426,0.774,36.786,10.263,34.376,19.987,5.562,7.081,5.973
1427,0.787,36.835,10.247,34.347,19.977,5.482,6.961,5.933
1428,0.784,36.855,10.302,34.366,19.983,5.522,6.96,5.933
1429,0.777,36.913,10.267,34.318,19.977,5.36,6.878,5.811
1430,0.8,37.067,10.29,34.356,19.98,5.48,6.877,5.891
1431,0.784,37.097,10.29,34.357,19.977,5.4,6.918,5.892
1432,0.8,36.34,10.322,34.376,19.98,5.48,7.041,6.014
1433,0.81,36.476,10.377,34.357,19.97,5.522,6.96,5.934
1434,0.803,36.583,10.334,34.357,19.987,5.522,6.96,5.974
1435,0.8,36.709,10.314,34.357,19.98,5.441,7.0,5.893
1436,0.813,36.729,10.213,34.357,19.97,5.481,6.919,5.892
1437,0.8,36.892,10.297,34.376,19.983,5.562,7.081,6.014
1438,0.794,36.971,10.224,34.357,19.98,5.482,7.002,5.893
1439,0.803,36.434,10.325,34.366,19.977,5.522,7.001,5.933
1440,0.8,36.458,10.244,34.347,19.966,5.319,6.879,5.77
1441,0.82,36.592,10.298,34.328,19.973,5.48,6.959,5.85
1442,0.807,36.67,10.287,34.328,19.969,5.522,6.878,5.769
1443,0.813,36.508,10.372,34.356,19.987,5.644,7.081,5.972
1444,0.81,36.631,10.307,34.366,19.98,5.605,7.002,5.893
1445,0.81,36.767,10.271,34.366,19.977,5.523,6.96,5.933
1446,0.794,36.854,10.255,34.366,19.976,5.522,6.96,5.892
1447,0.771,36.357,10.235,34.347,19.97,5.482,6.878,5.811
1448,0.774,36.543,10.321,34.385,19.99,5.644,7.04,5.932
1449,0.774,36.632,10.287,34.367,19.984,5.523,6.879,5.892
1450,0.793,36.728,10.298,34.357,19.983,5.603,6.959,5.933
1451,0.767,36.461,10.244,34.337,19.973,5.523,6.878,5.689
1452,0.783,36.621,10.348,34.356,19.973,5.482,6.877,5.89
1453,0.806,36.728,10.314,34.366,19.973,5.522,6.837,5.851
1454,0.777,36.816,10.302,34.347,19.98,5.603,6.877,5.851
1455,0.803,36.404,10.255,34.347,19.987,5.523,6.959,5.851
1456,0.816,36.515,10.181,34.366,19.973,5.563,6.878,5.851
1457,0.823,36.631,10.321,34.357,19.976,5.523,6.877,5.81
1458,0.81,36.661,10.295,34.337,19.97,5.522,6.796,5.81
1459,0.826,36.364,10.333,34.366,19.997,5.644,6.999,5.972
1460,0.82,36.476,10.303,34.357,19.98,5.564,6.96,5.933
1461,0.826,36.583,10.287,34.357,19.987,5.645,6.919,5.892
1462,0.839,36.594,10.314,34.337,19.973,5.483,6.756,5.77
1463,0.833,36.421,10.337,34.337,19.973,5.522,6.795,5.809
1464,0.82,36.553,10.252,34.337,19.98,5.563,6.836,5.85
1465,0.807,36.68,10.309,34.337,19.98,5.604,6.837,5.891
1466,0.842,36.681,10.287,34.356,19.977,5.564,6.918,5.811
1467,0.826,36.499,10.29,34.318,19.976,5.563,6.756,5.81
1468,0.813,36.631,10.326,34.328,19.976,5.604,6.795,5.85
1469,0.813,36.709,10.275,34.337,19.97,5.482,6.755,5.81
1470,0.852,36.403,10.263,34.376,19.987,5.725,6.957,5.972
1471,0.814,36.4,10.306,34.366,19.98,5.524,6.797,5.852
1472,0.794,36.553,10.384,34.366,19.983,5.603,6.877,5.973
1473,0.806,36.641,10.291,34.328,19.983,5.604,6.877,5.893
1474,0.816,36.191,10.247,34.328,19.973,5.482,6.796,5.851
1475,0.856,36.359,10.27,34.395,19.98,5.603,6.958,5.891
1476,0.836,36.467,10.318,34.357,19.98,5.604,6.919,5.892
1477,0.839,36.583,10.267,34.376,19.977,5.686,6.919,5.892
1478,0.833,36.344,10.325,34.328,19.97,5.483,6.796,5.77
1479,0.846,36.486,10.279,34.328,19.976,5.562,6.877,5.85
1480,0.853,36.602,10.29,34.347,19.97,5.523,6.796,5.81
1481,0.885,36.709,10.329,34.366,19.99,5.644,6.999,5.81
1482,0.885,36.221,10.345,34.338,19.98,5.645,6.919,5.891
1483,0.885,36.36,10.33,34.347,19.983,5.645,7.041,5.892
1484,0.885,36.495,10.232,34.347,19.977,5.645,6.96,5.811
1485,0.885,36.564,10.266,34.328,19.973,5.564,6.919,5.769
1486,0.898,36.373,10.239,34.376,19.994,5.685,7.122,5.972
1487,0.886,36.496,10.337,34.338,19.98,5.646,7.043,5.893
1488,0.882,36.612,10.303,34.347,19.987,5.605,7.082,5.892
1489,0.885,36.632,10.263,34.318,19.966,5.523,6.88,5.689
1490,0.895,36.239,10.294,34.328,19.983,5.563,6.877,5.89
1491,0.882,36.369,10.318,34.328,19.977,5.523,6.918,5.811
1492,0.885,36.496,10.337,34.347,19.98,5.685,7.0,5.81
1493,0.921,36.526,10.279,34.337,19.98,5.646,6.96,5.85
1494,0.902,36.353,10.255,34.347,19.977,5.645,6.919,5.851
1495,0.866,36.476,10.247,34.347,19.983,5.645,6.878,5.81
1496,0.84,36.573,10.29,34.347,19.973,5.605,6.918,5.769
1497,0.869,36.613,10.286,34.395,19.99,5.726,7.081,5.972
1498,0.879,36.172,10.364,34.357,19.973,5.646,7.002,5.933
1499,0.885,36.34,10.272,34.366,19.983,5.645,6.96,5.933
1500,0.872,36.419,10.314,34.347,19.977,5.564,6.919,5.852
1501,0.892,36.17,10.306,34.328,19.98,5.563,6.959,5.81
1502,0.895,36.254,10.38,34.366,19.987,5.726,7.041,5.932
1503,0.895,36.37,10.241,34.338,19.984,5.646,7.042,5.852
1504,0.889,36.505,10.29,34.385,19.977,5.686,7.082,5.891
1505,0.863,36.219,10.208,34.319,19.97,5.483,6.92,5.77
1506,0.872,36.369,10.297,34.318,19.976,5.603,7.0,5.809
1507,0.866,36.486,10.275,34.337,19.976,5.564,7.041,5.769
1508,0.856,36.593,10.345,34.347,19.99,5.726,7.204,5.972
1509,0.849,36.21,10.338,34.376,19.98,5.565,7.206,5.893
1510,0.853,36.35,10.271,34.357,19.983,5.685,7.206,5.933
1511,0.879,36.476,10.345,34.337,19.977,5.605,7.165,5.892
1512,0.866,36.544,10.287,34.337,19.97,5.523,7.124,5.77
1513,0.876,36.114,10.29,34.376,19.987,5.766,7.327,6.013
1514,0.788,36.234,10.275,34.347,19.973,5.606,7.289,5.934
1515,0.787,36.36,10.286,34.366,19.987,5.686,7.329,5.974
1516,0.784,36.399,10.255,34.318,19.97,5.524,7.207,5.771
1517,0.8,36.429,10.341,34.337,19.976,5.603,7.287,5.891
1518,0.781,36.563,10.322,34.328,19.976,5.604,7.288,5.892
1519,0.832,36.699,10.31,34.347,19.976,5.645,7.41,5.892
1520,0.794,36.739,10.318,34.347,19.98,5.605,7.371,6.054
1521,0.803,35.981,10.314,34.328,19.973,5.604,7.37,5.893
1522,0.839,36.108,10.322,34.337,19.976,5.564,7.411,5.892
1523,0.817,36.224,10.205,34.337,19.976,5.482,7.371,5.851
1524,0.826,36.321,10.317,34.376,19.983,5.644,7.452,6.054
1525,0.804,36.227,10.256,34.357,19.98,5.523,7.33,5.975
1526,0.813,36.398,10.325,34.337,19.983,5.603,7.41,5.974
1527,0.816,36.457,10.287,34.318,19.97,5.442,7.249,5.811
1528,0.797,36.621,10.325,34.308,19.976,5.521,7.288,5.891
1529,0.803,36.191,10.287,34.347,19.976,5.482,7.288,5.892
1530,0.803,36.34,10.29,34.328,19.973,5.562,7.329,5.892
1531,0.803,36.447,10.333,34.328,19.976,5.523,7.451,5.933
1532,0.797,35.978,10.252,34.337,19.973,5.482,7.412,5.852
1533,0.803,35.964,10.29,34.404,19.983,5.522,7.411,5.932
1534,0.816,36.098,10.24,34.328,19.973,5.522,7.33,5.811
1535,0.846,36.243,10.329,34.385,19.987,5.685,7.614,6.054
1536,0.817,36.082,10.322,34.338,19.977,5.483,7.495,5.975
1537,0.82,36.215,10.369,34.337,19.98,5.522,7.575,5.974
1538,0.823,36.302,10.268,34.318,19.97,5.4,7.454,5.852
1539,0.856,36.428,10.306,34.328,19.976,5.44,7.574,5.932
1540,0.843,36.036,10.271,34.328,19.976,5.481,7.535,6.014
1541,0.843,36.185,10.329,34.337,19.976,5.562,7.575,6.015
1542,0.853,36.331,10.244,34.356,19.987,5.523,7.575,6.096
1543,0.83,36.409,10.266,34.328,19.977,5.482,7.494,6.056
1544,0.83,36.074,10.278,34.347,19.983,5.481,7.616,6.056
1545,0.813,36.186,10.302,34.337,19.977,5.522,7.495,6.015
1546,0.816,36.369,10.388,34.385,19.99,5.603,7.697,6.218
1547,0.82,36.39,10.346,34.328,19.984,5.523,7.496,6.058
1548,0.813,36.093,10.295,34.347,19.987,5.563,7.494,6.137
1549,0.8,36.224,10.29,34.318,19.977,5.36,7.412,6.016
1550,0.794,36.341,10.302,34.328,19.976,5.439,7.371,6.056
1551,0.8,36.38,10.349,34.337,19.976,5.481,7.37,6.097
1552,0.81,36.016,10.209,34.328,19.976,5.522,7.411,6.178
1553,0.787,36.166,10.293,34.366,19.98,5.522,7.411,6.139
1554,0.787,36.244,10.24,34.328,19.977,5.482,7.371,6.138
1555,0.797,36.302,10.309,34.356,19.973,5.481,7.411,6.057
1556,0.807,36.102,10.306,34.328,19.976,5.4,7.249,6.097
1557,0.852,36.272,10.404,34.376,19.99,5.602,7.491,6.26
1558,0.814,36.37,10.28,34.338,19.98,5.482,7.29,6.139
1559,0.777,36.687,10.318,34.356,19.98,5.522,7.369,6.138
1560,0.784,36.038,10.353,34.328,19.977,5.4,7.289,6.057
1561,0.793,36.166,10.279,34.318,19.976,5.44,7.207,6.137
1562,0.806,36.34,10.314,34.375,19.983,5.521,7.287,6.098
1563,0.787,36.054,10.275,34.338,19.977,5.441,7.369,6.138
1564,0.784,36.099,10.286,34.356,19.983,5.481,7.411,6.138
1565,0.745,36.167,10.302,34.309,19.973,5.4,7.289,6.057
1566,0.754,36.292,10.361,34.337,19.98,5.399,7.369,6.137
1567,0.735,35.919,10.303,34.328,19.97,5.358,7.289,6.057
1568,0.738,36.059,10.349,34.414,19.98,5.521,7.491,6.3
1569,0.754,36.195,10.291,34.348,19.98,5.482,7.331,6.14
1570,0.761,36.264,10.357,34.328,19.977,5.522,7.37,6.26
1571,0.748,35.919,10.314,34.347,19.973,5.441,7.452,6.18
1572,0.747,36.079,10.275,34.337,19.973,5.359,7.33,6.139
1573,0.777,36.224,10.314,34.366,19.987,5.521,7.451,6.219
1574,0.774,36.293,10.263,34.338,19.977,5.36,7.412,6.22
1575,0.774,35.977,10.36,34.347,19.983,5.439,7.533,6.22
1576,0.774,36.079,10.295,34.299,19.966,5.318,7.372,6.098
1577,0.784,36.215,10.353,34.327,19.973,5.439,7.533,6.219
1578,0.784,36.273,10.252,34.318,19.969,5.399,7.494,6.18
1579,0.79,35.929,10.306,34.337,19.976,5.48,7.616,6.301
1580,0.79,36.069,10.341,34.328,19.983,5.481,7.657,6.18
1581,0.79,36.195,10.271,34.328,19.98,5.481,7.576,6.261
1582,0.803,36.254,10.302,34.328,19.973,5.522,7.657,6.18
1583,0.803,36.092,10.275,34.308,19.973,5.441,7.617,6.22
1584,0.82,36.282,10.368,34.366,19.99,5.603,7.779,6.302
1585,0.777,36.37,10.307,34.328,19.977,5.523,7.7,6.262
1586,0.751,36.409,10.369,34.337,19.983,5.482,7.78,6.343
1587,0.741,35.892,10.201,34.309,19.966,5.359,7.618,6.14
1588,0.754,36.05,10.286,34.318,19.976,5.439,7.739,6.219
1589,0.764,36.176,10.286,34.308,19.973,5.481,7.781,6.261
1590,0.748,36.417,10.333,34.337,19.983,5.522,7.862,6.302
1591,0.751,36.103,10.24,34.356,19.98,5.441,7.944,6.302
1592,0.774,36.234,10.294,34.347,19.98,5.481,7.945,6.302
1593,0.777,36.331,10.333,34.309,19.983,5.481,7.945,6.343
1594,0.767,35.958,10.33,34.289,19.973,5.4,7.905,6.221
1595,0.78,35.926,10.353,34.356,19.987,5.602,8.107,6.383
1596,0.787,36.031,10.311,34.347,19.98,5.482,7.947,6.263
1597,0.8,36.156,10.244,34.347,19.983,5.481,8.026,6.302
1598,0.797,35.908,10.255,34.318,19.973,5.4,7.946,6.099
1599,0.764,36.031,10.313,34.308,19.973,5.399,7.945,6.178
1600,0.78,36.166,10.33,34.327,19.969,5.399,7.945,6.22
1601,0.806,36.273,10.306,34.337,19.976,5.399,7.986,6.22
1602,0.8,35.881,10.31,34.337,19.983,5.521,8.027,6.302
1603,0.771,35.982,10.298,34.309,19.977,5.319,7.987,6.14
1604,0.764,36.137,10.388,34.347,19.98,5.48,7.986,6.179
1605,0.809,36.196,10.307,34.29,19.977,5.359,7.905,6.139
1606,0.807,36.043,10.306,34.346,19.99,5.521,8.067,6.341
1607,0.748,36.166,10.185,34.347,19.973,5.441,8.028,6.262
1608,0.751,36.321,10.278,34.366,19.987,5.481,8.027,6.18
1609,0.748,36.37,10.271,34.318,19.984,5.44,7.987,6.139
1610,0.754,35.843,10.31,34.318,19.977,5.399,7.946,6.138
1611,0.767,36.02,10.345,34.356,19.983,5.48,8.026,6.301
1612,0.78,36.147,10.287,34.328,19.98,5.4,7.946,6.262
1613,0.764,36.206,10.337,34.337,19.98,5.44,7.945,6.221
1614,0.754,35.861,10.326,34.309,19.966,5.318,7.742,6.058
1615,0.79,36.02,10.349,34.318,19.987,5.358,7.862,6.137
1616,0.793,36.147,10.275,34.318,19.977,5.399,7.782,6.138
1617,0.819,36.186,10.251,34.328,19.983,5.358,7.74,6.138
1618,0.839,35.909,10.27,34.337,19.983,5.399,7.821,6.301
1619,0.869,36.011,10.357,34.318,19.973,5.358,7.741,6.099
1620,0.879,36.137,10.264,34.318,19.973,5.399,7.699,6.138
1621,0.918,36.148,10.329,34.318,19.969,5.318,7.577,6.057
1622,0.996,35.995,10.283,34.366,19.99,5.48,7.82,6.3
1623,1.033,36.099,10.349,34.338,19.977,5.4,7.659,6.18
1624,1.027,36.234,10.369,34.356,19.983,5.399,7.658,6.22
1625,1.033,36.015,10.303,34.328,19.977,5.277,7.576,6.139
1626,1.033,35.965,10.279,34.318,19.973,5.316,7.535,6.138
1627,1.05,36.137,10.306,34.375,19.976,5.358,7.575,6.26
1628,1.076,36.244,10.322,34.319,19.976,5.358,7.575,6.262
1629,1.083,35.861,10.33,34.328,19.98,5.399,7.575,6.302
1630,1.096,35.925,10.295,34.308,19.98,5.318,7.494,6.262
1631,1.102,36.079,10.279,34.327,19.973,5.358,7.494,6.302
1632,1.102,36.167,10.279,34.299,19.976,5.317,7.331,6.343
1633,1.125,35.899,10.298,34.375,19.99,5.439,7.614,6.506
1634,1.067,36.002,10.314,34.328,19.977,5.359,7.413,6.467
1635,1.066,36.137,10.326,34.328,19.983,5.399,7.452,6.426
1636,1.021,36.186,10.314,34.299,19.977,5.196,7.371,6.385
1637,0.965,35.851,10.298,34.366,19.973,5.316,7.37,6.466
1638,0.968,35.992,10.306,34.318,19.98,5.317,7.33,6.507
1639,0.938,36.108,10.365,34.328,19.983,5.358,7.37,6.508
1640,0.912,36.186,10.276,34.347,19.977,5.358,7.411,6.589
1641,0.882,35.832,10.279,34.309,19.97,5.277,7.289,6.468
1642,0.833,35.953,10.286,34.327,19.973,5.316,7.329,6.548
1643,0.804,36.069,10.333,34.289,19.966,5.276,7.289,6.508
1644,0.751,36.186,10.31,34.346,19.99,5.479,7.532,6.67
1645,0.751,35.803,10.341,34.337,19.98,5.318,7.331,6.55
1646,0.748,35.972,10.287,34.337,19.98,5.358,7.289,6.671
1647,0.728,36.079,10.298,34.395,19.973,5.277,7.247,6.591
1648,0.718,36.109,10.322,34.319,19.98,5.276,7.206,6.712
1649,0.663,36.013,10.338,34.337,19.977,5.316,7.328,6.835
1650,0.61,36.128,10.314,34.309,19.973,5.317,7.248,7.04
1651,0.551,36.273,10.267,34.347,19.973,5.317,7.288,7.326
1652,0.492,36.245,10.31,34.299,19.973,5.236,7.166,7.573
1653,0.394,35.852,10.306,34.318,19.98,5.316,7.124,7.982
1654,0.331,35.944,10.322,34.299,19.977,5.236,7.083,8.515
1655,0.288,36.108,10.279,34.347,19.987,5.397,7.286,9.171
1656,0.229,35.965,10.267,34.347,19.987,5.318,7.166,9.624
1657,0.225,35.906,10.317,34.337,19.977,5.398,7.124,10.279
1658,0.193,36.05,10.271,34.318,19.98,5.236,7.083,10.774
1659,0.189,36.138,10.353,34.308,19.973,5.194,7.002,11.307
1660,0.192,35.764,10.232,34.318,19.98,5.316,7.082,11.841
1661,0.182,35.857,10.309,34.308,19.973,5.317,7.083,12.213
1662,0.195,35.982,10.267,34.337,19.976,5.276,7.042,12.582
1663,0.189,36.07,10.36,34.318,19.973,5.276,6.96,12.749
1664,0.212,35.802,10.357,34.308,19.973,5.316,6.96,12.953
1665,0.218,35.934,10.283,34.308,19.973,5.236,6.838,13.118
1666,0.258,36.117,10.29,34.356,19.99,5.397,7.121,13.486
1667,0.271,36.186,10.232,34.328,19.977,5.358,6.921,13.408
1668,0.31,35.794,10.282,34.337,19.983,5.317,7.0,13.61
1669,0.34,35.895,10.286,34.309,19.973,5.236,6.919,13.735
1670,0.379,36.03,10.271,34.308,19.976,5.275,6.878,13.898
1671,0.425,36.128,10.255,34.327,19.98,5.235,6.877,14.144
1672,0.465,35.764,10.294,34.328,19.977,5.275,6.918,14.594
1673,0.51,35.924,10.38,34.347,19.983,5.357,6.919,15.005
1674,0.556,36.002,10.334,34.309,19.97,5.277,6.796,15.375
1675,0.632,36.07,10.33,34.318,19.98,5.316,6.795,15.785
1676,0.655,35.764,10.248,34.328,19.97,5.276,6.755,16.236
1677,0.681,35.972,10.267,34.356,19.994,5.438,7.039,16.81
1678,0.685,36.06,10.282,34.347,19.984,5.277,6.839,17.101
1679,0.727,36.099,10.361,34.337,19.987,5.276,6.837,17.388
1680,0.738,35.716,10.268,34.318,19.97,5.195,6.796,17.472
1681,0.728,35.866,10.294,34.308,19.976,5.234,6.795,17.554
1682,0.757,35.992,10.279,34.318,19.98,5.275,6.755,17.555
1683,0.774,36.012,10.361,34.308,19.98,5.276,6.754,17.555
1684,0.767,35.734,10.33,34.318,19.987,5.316,6.836,17.433
1685,0.764,35.847,10.318,34.299,19.97,5.276,6.755,17.229
1686,0.79,35.982,10.291,34.327,19.976,5.235,6.714,17.023
1687,0.803,35.916,10.263,34.308,19.976,5.235,6.713,16.737
1688,0.846,35.935,10.337,34.337,19.987,5.479,6.916,16.653
1689,0.833,36.031,10.314,34.318,19.977,5.318,6.796,16.367
1690,0.83,36.156,10.213,34.337,19.987,5.317,6.836,16.08
1691,0.797,35.745,10.274,34.328,19.977,5.317,6.755,15.792
1692,0.813,35.818,10.318,34.328,19.98,5.276,6.673,15.423
1693,0.829,35.963,10.31,34.318,19.977,5.357,6.713,15.298
1694,0.836,36.05,10.318,34.318,19.976,5.317,6.794,15.012
1695,0.817,35.716,10.337,34.328,19.983,5.317,6.836,14.765
1696,0.829,35.818,10.24,34.289,19.963,5.154,6.674,14.356
1697,0.846,35.972,10.309,34.308,19.976,5.315,6.713,14.189
1698,0.83,36.041,10.287,34.289,19.97,5.317,6.672,13.984
1699,0.839,35.735,10.318,34.327,19.987,5.398,6.875,13.86
1700,0.846,35.895,10.263,34.366,19.984,5.318,6.715,13.574
1701,0.859,36.03,10.314,34.328,19.98,5.398,6.794,13.246
1702,0.862,36.089,10.287,34.308,19.98,5.318,6.795,12.999
1703,0.882,35.764,10.353,34.318,19.973,5.236,6.673,12.834
1704,0.895,35.943,10.326,34.337,19.99,5.479,6.835,12.629
1705,0.86,36.031,10.279,34.328,19.987,5.318,6.796,12.383
1706,0.853,36.118,10.263,34.328,19.987,5.358,6.795,12.258
1707,0.84,35.611,10.271,34.299,19.97,5.236,6.673,11.973
1708,0.839,35.778,10.329,34.318,19.976,5.316,6.713,11.767
1709,0.859,35.885,10.322,34.318,19.983,5.236,6.835,11.561
1710,0.859,35.944,10.345,34.308,19.983,5.316,6.755,11.478
1711,0.859,35.878,10.271,34.347,19.983,5.358,6.836,11.355
1712,0.853,35.982,10.341,34.318,19.97,5.277,6.796,11.191
1713,0.866,36.108,10.314,34.308,19.973,5.276,6.877,11.027
1714,0.859,36.128,10.302,34.308,19.973,5.235,6.918,10.822
1715,0.862,35.764,10.267,34.337,19.987,5.438,7.122,10.942
1716,0.849,35.866,10.247,34.328,19.99,5.318,7.124,10.618
1717,0.875,36.001,10.294,34.328,19.984,5.317,7.165,10.493
1718,0.872,35.83,10.318,34.318,19.977,5.236,7.124,10.329
1719,0.869,35.627,10.341,34.308,19.973,5.316,7.165,10.165
1720,0.889,35.788,10.291,34.337,19.99,5.398,7.246,10.163
1721,0.889,35.886,10.322,34.318,19.973,5.358,7.166,10.041
1722,0.872,35.695,10.306,34.318,19.987,5.317,7.328,9.918
1723,0.859,35.722,10.333,34.289,19.97,5.195,7.085,9.591
1724,0.872,35.885,10.236,34.308,19.976,5.316,7.286,9.507
1725,0.872,35.992,10.255,34.299,19.976,5.276,7.247,9.425
1726,0.882,35.638,10.286,34.308,19.983,5.357,7.369,9.505
1727,0.882,35.769,10.306,34.308,19.98,5.439,7.411,9.384
1728,0.879,35.885,10.345,34.318,19.98,5.359,7.33,9.261
1729,0.869,35.973,10.295,34.328,19.98,5.358,7.37,9.178
1730,0.869,35.619,10.326,34.289,19.973,5.277,7.37,9.015
1731,0.898,35.807,10.31,34.366,19.99,5.479,7.614,9.135
1732,0.873,35.886,10.345,34.318,19.984,5.318,7.495,8.933
1733,0.879,35.982,10.307,34.337,19.987,5.398,7.616,8.809
1734,0.876,35.619,10.294,34.289,19.97,5.277,7.373,8.604
1735,0.895,35.769,10.22,34.298,19.969,5.276,7.533,8.643
1736,0.886,35.876,10.286,34.299,19.976,5.235,7.534,8.603
1737,0.895,35.944,10.306,34.308,19.98,5.316,7.575,8.44
1738,0.886,35.705,10.326,34.318,19.98,5.398,7.535,8.519
1739,0.885,35.789,10.314,34.308,19.977,5.318,7.575,8.439
1740,0.879,35.943,10.283,34.308,19.976,5.317,7.616,8.316
1741,0.882,35.973,10.302,34.289,19.973,5.276,7.576,8.274
1742,0.902,35.619,10.322,34.337,19.99,5.479,7.779,8.355
1743,0.892,35.75,10.33,34.328,19.987,5.318,7.74,8.153
1744,0.912,35.876,10.256,34.318,19.984,5.358,7.821,8.191
1745,0.899,35.877,10.153,34.328,19.977,5.277,7.619,8.029
1746,0.895,35.628,10.289,34.299,19.97,5.316,7.617,7.987
1747,0.899,35.778,10.251,34.318,19.976,5.317,7.617,7.946
1748,0.879,35.876,10.36,34.299,19.98,5.398,7.657,7.945
1749,0.879,35.838,10.26,34.318,19.983,5.358,7.739,7.945
1750,0.879,35.656,10.294,34.289,19.973,5.277,7.577,7.701
1751,0.869,35.798,10.267,34.308,19.973,5.316,7.657,7.699
1752,0.879,35.905,10.325,34.28,19.969,5.236,7.576,7.658
1753,0.892,35.57,10.299,34.337,19.99,5.438,7.698,7.82
1754,0.895,35.605,10.275,34.318,19.987,5.359,7.618,7.659
1755,0.915,35.749,10.173,34.328,19.984,5.399,7.657,7.617
1756,0.899,35.837,10.289,34.299,19.983,5.318,7.658,7.576
1757,0.905,35.493,10.283,34.289,19.973,5.317,7.617,7.535
1758,0.925,35.662,10.329,34.327,19.98,5.317,7.698,7.575
1759,0.925,35.779,10.236,34.308,19.98,5.276,7.618,7.535
1760,0.922,35.876,10.309,34.318,19.98,5.398,7.698,7.453
1761,0.922,35.56,10.279,34.27,19.97,5.196,7.577,7.29
1762,0.938,35.739,10.329,34.298,19.976,5.275,7.657,7.329
1763,0.906,35.837,10.302,34.279,19.973,5.235,7.617,7.248
1764,0.902,35.934,10.251,34.308,19.983,5.479,7.657,7.41
1765,0.905,35.532,10.325,34.289,19.98,5.4,7.658,7.33
1766,0.895,35.662,10.31,34.298,19.977,5.358,7.617,7.329
1767,0.905,35.788,10.334,34.299,19.98,5.277,7.576,7.207
1768,0.895,35.847,10.326,34.289,19.97,5.235,7.535,7.125
1769,0.905,35.56,10.26,34.346,19.987,5.479,7.616,7.287
1770,0.895,35.682,10.255,34.299,19.98,5.4,7.535,7.207
1771,0.902,35.817,10.341,34.337,19.983,5.399,7.616,7.165
1772,0.886,35.838,10.314,34.27,19.963,5.196,7.413,7.043
1773,0.885,35.618,10.287,34.298,19.973,5.356,7.452,7.164
1774,0.895,35.74,10.224,34.289,19.969,5.236,7.371,7.043
1775,0.941,35.885,10.274,34.289,19.98,5.357,7.533,7.123
1776,0.906,35.906,10.314,34.308,19.98,5.399,7.453,7.083
1777,0.915,35.446,10.279,34.308,19.98,5.358,7.452,7.083
1778,0.925,35.566,10.388,34.299,19.973,5.317,7.371,7.002
1779,0.944,35.672,10.202,34.299,19.969,5.276,7.289,6.919
1780,0.974,35.798,10.289,34.318,19.987,5.438,7.369,7.163
1781,0.955,35.636,10.298,34.308,19.973,5.359,7.289,6.962
1782,0.954,35.769,10.329,34.299,19.983,5.399,7.369,7.0
1783,0.951,35.847,10.295,34.251,19.966,5.277,7.208,6.838
1784,0.948,35.435,10.283,34.356,19.973,5.316,7.247,6.918
1785,0.88,35.489,10.31,34.28,19.973,5.317,7.206,6.796
1786,0.97,35.633,10.291,34.298,19.983,5.48,7.287,6.958
1787,0.955,35.74,10.353,34.299,19.983,5.481,7.288,6.838
1788,0.941,35.549,10.33,34.299,19.977,5.359,7.288,6.877
1789,0.912,35.701,10.342,34.299,19.98,5.317,7.247,6.796
1790,0.899,35.789,10.271,34.289,19.977,5.317,7.125,6.673
1791,0.921,35.924,10.321,34.318,19.99,5.439,7.246,6.835
1792,0.931,35.36,10.326,34.289,19.984,5.44,7.206,6.796
1793,0.931,35.517,10.26,34.308,19.98,5.44,7.287,6.795
1794,0.938,35.624,10.271,34.28,19.97,5.277,7.004,6.633
1795,0.938,35.702,10.278,34.289,19.973,5.357,7.204,6.672
1796,0.928,35.405,10.321,34.251,19.973,5.317,7.125,6.713
1797,0.948,35.565,10.322,34.289,19.98,5.439,7.287,6.794
1798,0.958,35.701,10.357,34.298,19.977,5.399,7.207,6.714
1799,0.968,35.779,10.311,34.289,19.98,5.399,7.206,6.713
1800,0.968,35.598,10.302,34.289,19.973,5.399,7.165,6.591
1801,0.971,35.701,10.291,34.26,19.969,5.358,7.165,6.509
1802,0.977,35.904,10.341,34.317,19.99,5.521,7.246,6.711
1803,0.958,35.906,10.236,34.308,19.98,5.4,7.166,6.632
1804,0.964,35.522,10.286,34.289,19.98,5.44,7.206,6.631
1805,0.974,35.624,10.251,34.26,19.977,5.318,7.084,6.387
1806,0.984,35.759,10.274,34.289,19.976,5.358,7.123,6.507
1807,0.974,35.789,10.325,34.26,19.98,5.48,7.083,6.508
1808,0.955,35.425,10.334,34.279,19.977,5.44,7.123,6.589
1809,0.941,35.585,10.33,34.298,19.983,5.481,7.124,6.509
1810,0.948,35.682,10.256,34.27,19.977,5.4,7.043,6.467
1811,0.945,35.808,10.345,34.289,19.983,5.48,7.082,6.467
1812,0.958,35.512,10.295,34.279,19.97,5.522,7.042,6.386
1813,0.984,35.701,10.31,34.327,19.99,5.603,7.204,6.629
1814,0.987,35.77,10.291,34.289,19.98,5.564,7.125,6.468
1815,1.007,35.473,10.298,34.289,19.98,5.523,7.043,6.507
1816,0.997,35.47,10.267,34.27,19.977,5.441,6.96,6.467
1817,0.997,35.614,10.314,34.289,19.976,5.481,6.96,6.345
1818,1.017,35.721,10.33,34.308,19.976,5.522,7.082,6.506
1819,1.01,35.348,10.302,34.289,19.976,5.603,6.961,6.427
1820,1.01,35.478,10.322,34.298,19.983,5.604,7.0,6.426
1821,0.997,35.585,10.326,34.27,19.97,5.523,6.879,6.344
1822,1.013,35.701,10.326,34.27,19.969,5.482,6.918,6.384
1823,1.004,35.3,10.181,34.289,19.973,5.44,6.878,6.263
1824,1.017,35.507,10.317,34.327,19.99,5.684,7.081,6.465
1825,1.014,35.614,10.259,34.299,19.977,5.564,6.961,6.386
1826,1.017,35.682,10.325,34.308,19.98,5.645,7.0,6.385
1827,1.02,35.511,10.295,34.26,19.973,5.523,6.838,6.344
1828,1.017,35.614,10.318,34.279,19.976,5.522,6.837,6.303
1829,1.043,35.788,10.326,34.308,19.983,5.563,6.958,6.384
1830,1.046,35.838,10.275,34.28,19.977,5.523,6.919,6.263
1831,1.043,35.339,10.349,34.298,19.983,5.522,7.0,6.384
1832,1.04,35.469,10.275,34.27,19.966,5.441,6.797,6.263
1833,1.053,35.604,10.329,34.327,19.976,5.562,6.836,6.302
1834,1.05,35.663,10.267,34.27,19.97,5.441,6.755,6.221
1835,1.073,35.51,10.294,34.317,19.994,5.521,6.957,6.383
1836,1.069,35.614,10.357,34.299,19.98,5.603,6.797,6.303
1837,1.082,35.75,10.311,34.299,19.983,5.604,6.836,6.302
1838,1.083,35.77,10.334,34.27,19.98,5.482,6.796,6.221
1839,1.089,35.368,10.263,34.26,19.977,5.481,6.714,6.22
1840,1.112,35.536,10.349,34.308,19.987,5.603,6.876,6.302
1841,1.115,35.615,10.322,34.289,19.984,5.523,6.837,6.262
1842,1.119,35.884,10.298,34.298,19.98,5.482,6.796,6.262
1843,1.096,35.455,10.236,34.26,19.966,5.359,6.673,6.099
1844,1.119,35.614,10.286,34.279,19.976,5.439,6.713,6.178
1845,1.119,35.721,10.314,34.279,19.973,5.399,6.672,6.139
1846,1.138,35.453,10.326,34.298,19.98,5.48,6.794,6.26
1847,1.148,35.47,10.369,34.289,19.977,5.522,6.836,6.221
1848,1.109,35.595,10.287,34.289,19.983,5.441,6.877,6.22
1849,1.119,35.701,10.31,34.27,19.977,5.521,6.796,6.18
1850,1.132,35.54,10.298,34.26,19.973,5.4,6.714,6.098
1851,1.142,35.701,10.38,34.308,19.994,5.562,6.876,6.3
1852,1.112,35.798,10.307,34.308,19.98,5.441,6.837,6.14
1853,1.132,35.924,10.294,34.299,19.983,5.562,6.918,6.219
1854,1.145,35.436,10.279,34.27,19.973,5.319,6.756,6.098
1855,1.171,35.566,10.294,34.289,19.976,5.398,6.795,6.178
1856,1.168,35.711,10.333,34.27,19.976,5.358,6.795,6.057
1857,1.148,35.779,10.322,34.298,19.98,5.399,6.958,6.137
1858,1.168,35.569,10.314,34.299,19.98,5.521,6.919,6.098
1859,1.168,35.72,10.291,34.279,19.973,5.4,6.919,6.138
1860,1.168,35.799,10.365,34.289,19.98,5.44,6.796,6.138
1861,1.207,35.876,10.322,34.26,19.977,5.359,6.795,5.976
1862,1.22,35.628,10.298,34.327,19.994,5.521,6.999,6.259
1863,1.214,35.721,10.259,34.289,19.984,5.482,6.838,6.099
1864,1.23,35.856,10.321,34.308,19.98,5.481,6.877,6.138
1865,1.217,35.915,10.314,34.26,19.973,5.318,6.715,6.057
1866,1.227,35.829,10.361,34.289,19.98,5.398,6.754,6.097
1867,1.227,35.982,10.365,34.279,19.977,5.399,6.754,6.056
1868,1.234,36.089,10.338,34.298,19.983,5.358,6.714,6.178
1869,1.26,36.128,10.322,34.289,19.983,5.48,6.794,6.098
1870,1.227,35.841,10.349,34.279,19.973,5.4,6.714,6.097
1871,1.247,35.982,10.31,34.289,19.973,5.44,6.713,6.097
1872,1.214,36.098,10.244,34.279,19.969,5.359,6.672,6.016
1873,1.256,36.502,10.266,34.327,19.987,5.561,6.875,6.218
1874,1.253,35.969,10.275,34.289,19.977,5.401,6.633,6.139
1875,1.292,36.108,10.31,34.289,19.983,5.44,6.712,6.179
1876,1.251,36.196,10.33,34.27,19.973,5.359,6.672,6.057
1877,1.237,35.986,10.357,34.279,19.976,5.358,6.55,6.056
1878,1.247,36.031,10.268,34.298,19.983,5.439,6.671,6.056
1879,1.263,36.166,10.317,34.289,19.987,5.399,6.672,6.137
1880,1.286,36.273,10.306,34.289,19.987,5.358,6.672,6.179
1881,1.29,36.149,10.333,34.26,19.97,5.277,6.591,6.057
1882,1.28,36.311,10.236,34.289,19.976,5.357,6.631,6.097
1883,1.276,36.437,10.29,34.27,19.973,5.277,6.55,6.056
1884,1.293,36.554,10.286,34.308,19.987,5.52,6.752,6.259
1885,1.267,36.133,10.29,34.28,19.977,5.319,6.632,6.18
1886,1.28,36.263,10.349,34.289,19.983,5.358,6.672,6.22
1887,1.267,36.379,10.338,34.289,19.983,5.317,6.672,6.098
1888,1.257,36.438,10.326,34.279,19.973,5.358,6.591,6.016
1889,1.27,36.439,10.291,34.289,19.98,5.439,6.712,6.137
1890,1.267,36.573,10.345,34.279,19.98,5.359,6.713,6.098
1891,1.26,36.689,10.279,34.298,19.98,5.358,6.754,6.26
1892,1.254,36.738,10.247,34.27,19.966,5.236,6.632,6.058
1893,1.27,36.403,10.255,34.279,19.98,5.357,6.631,6.137
1894,1.283,36.515,10.286,34.27,19.973,5.236,6.631,6.016
1895,1.296,36.67,10.329,34.317,19.976,5.397,6.712,6.137
1896,1.312,36.719,10.322,34.289,19.983,5.318,6.754,6.138
1897,1.303,36.556,10.384,34.289,19.977,5.398,6.795,6.138
1898,1.309,36.699,10.26,34.289,19.976,5.318,6.714,6.179
1899,1.28,36.815,10.31,34.279,19.973,5.236,6.794,6.098
1900,1.293,36.874,10.302,34.308,19.994,5.357,6.917,6.219
1901,1.293,36.606,10.318,34.27,19.98,5.317,6.959,6.139
1902,1.277,36.738,10.232,34.298,19.98,5.358,6.96,6.138
1903,1.241,36.844,10.286,34.27,19.973,5.236,6.797,6.016
1904,1.27,37.104,10.302,34.26,19.973,5.316,6.917,6.096
1905,1.237,36.858,10.322,34.279,19.973,5.317,6.959,6.016
1906,1.221,36.961,10.353,34.289,19.976,5.317,7.0,6.056
1907,1.23,37.077,10.311,34.289,19.98,5.317,6.96,6.097
1908,1.201,36.771,10.248,34.298,19.977,5.317,7.0,6.138
1909,1.207,36.768,10.259,34.279,19.976,5.317,7.001,6.138
1910,1.191,36.873,10.337,34.26,19.976,5.317,6.96,6.016
1911,1.175,36.999,10.287,34.317,19.99,5.398,7.163,6.218
1912,1.132,36.866,10.31,34.289,19.987,5.399,7.043,6.139
1913,1.151,36.98,10.275,34.279,19.98,5.399,7.082,6.098
1914,1.155,37.096,10.325,34.279,19.977,5.277,7.002,6.016
1915,1.139,37.174,10.306,34.26,19.976,5.276,6.96,5.974
1916,1.145,36.935,10.376,34.289,19.987,5.398,7.041,6.137
1917,1.119,37.048,10.354,34.279,19.98,5.44,6.96,6.057
1918,1.112,37.174,10.232,34.289,19.98,5.44,7.122,6.178
1919,1.099,37.223,10.274,34.251,19.97,5.318,6.88,5.976
1920,1.096,36.974,10.321,34.269,19.976,5.439,6.959,6.096
1921,1.102,37.077,10.318,34.27,19.973,5.318,6.919,5.975
1922,1.086,37.25,10.291,34.346,19.98,5.48,6.959,6.096
1923,1.099,37.3,10.302,34.28,19.987,5.481,7.0,6.056
1924,1.066,36.975,10.294,34.27,19.984,5.44,6.96,6.178
1925,1.047,37.106,10.341,34.27,19.977,5.399,6.919,6.139
1926,1.04,37.212,10.338,34.25,19.97,5.399,6.878,6.057
1927,1.037,37.309,10.353,34.308,19.987,5.521,7.081,6.259
1928,1.02,37.099,10.342,34.27,19.977,5.4,7.002,6.099
1929,1.007,37.251,10.256,34.298,19.987,5.48,7.001,6.138
1930,0.975,37.329,10.329,34.26,19.97,5.318,6.838,6.057
1931,0.974,37.397,10.295,34.269,19.976,5.439,6.958,6.056
1932,0.971,37.148,10.314,34.279,19.97,5.44,6.878,6.056
1933,0.955,37.27,10.271,34.279,19.973,5.399,6.959,6.097
1934,0.954,37.387,10.318,34.27,19.98,5.48,7.0,6.138
1935,0.964,37.369,10.31,34.27,19.973,5.4,6.96,6.098
1936,0.945,37.215,10.373,34.279,19.976,5.44,7.041,6.056
1937,0.928,37.319,10.311,34.25,19.97,5.359,6.96,6.015
1938,0.957,37.483,10.341,34.327,19.994,5.643,7.163,6.259
1939,0.938,37.264,10.326,34.261,19.984,5.523,7.043,6.139
1940,0.909,37.233,10.361,34.298,19.983,5.563,7.001,6.219
1941,0.915,37.319,10.311,34.251,19.973,5.441,6.96,5.976
1942,0.918,37.445,10.294,34.26,19.969,5.481,7.082,6.055
1943,0.928,37.187,10.318,34.289,19.973,5.481,6.961,6.056
1944,0.909,37.29,10.275,34.26,19.973,5.522,7.082,6.137
1945,0.905,37.425,10.353,34.269,19.976,5.644,7.083,6.138
1946,0.899,37.484,10.314,34.26,19.966,5.645,6.961,6.098
1947,0.866,37.159,10.341,34.269,19.973,5.564,7.041,6.138
1948,0.856,37.261,10.31,34.289,19.976,5.482,6.92,6.098
1949,0.862,37.435,10.302,34.289,19.983,5.725,7.163,6.219
1950,0.856,37.484,10.298,34.279,19.98,5.565,6.962,6.139
1951,0.885,37.331,10.306,34.298,19.983,5.604,7.041,6.179
1952,0.911,37.464,10.31,34.27,19.977,5.564,6.96,6.098
1953,0.892,37.561,10.263,34.27,19.973,5.604,6.838,6.056
1954,0.837,37.648,10.31,34.27,19.976,5.564,6.999,6.137
1955,0.826,37.189,10.322,34.27,19.976,5.645,6.919,6.138
1956,0.849,37.309,10.377,34.27,19.987,5.645,7.0,6.138
1957,0.849,37.416,10.268,34.222,19.97,5.523,6.797,6.016
1958,0.849,37.494,10.337,34.279,19.976,5.603,6.917,6.056
1959,0.866,37.274,10.264,34.27,19.973,5.564,6.756,6.056
1960,0.866,37.435,10.36,34.298,19.987,5.685,6.957,6.259
1961,0.846,37.523,10.311,34.27,19.977,5.564,6.919,6.18
1962,0.833,37.581,10.294,34.27,19.976,5.645,6.878,6.22
1963,0.833,37.61,10.326,34.26,19.976,5.605,6.837,6.017
1964,0.833,37.735,10.279,34.26,19.97,5.564,6.796,6.056
1965,0.833,37.871,10.357,34.289,19.983,5.685,6.836,6.178
1966,0.813,37.863,10.303,34.27,19.98,5.564,6.796,6.139
1967,0.842,37.191,10.326,34.26,19.987,5.645,6.877,6.179
1968,0.807,37.299,10.314,34.231,19.97,5.483,6.633,6.017
1969,0.794,37.425,10.298,34.24,19.969,5.481,6.794,6.056
1970,0.803,37.312,10.376,34.25,19.969,5.481,6.714,6.015
1971,0.813,37.33,10.241,34.279,19.983,5.603,6.876,6.178
1972,0.807,37.454,10.329,34.289,19.98,5.604,6.837,6.098
1973,0.807,37.552,10.283,34.289,19.98,5.604,6.877,6.097
1974,0.839,37.226,10.329,34.27,19.977,5.523,6.877,6.097
1975,0.865,37.29,10.291,34.26,19.98,5.522,6.755,6.056
1976,0.869,37.444,10.329,34.289,19.987,5.685,6.917,6.178
1977,0.827,37.523,10.275,34.289,19.973,5.564,6.919,6.057
1978,0.82,37.092,10.286,34.27,19.983,5.563,6.878,6.137
1979,0.803,37.183,10.31,34.241,19.973,5.523,6.837,6.057
1980,0.81,37.309,10.345,34.269,19.976,5.563,6.918,6.056
1981,0.823,37.406,10.287,34.26,19.98,5.482,6.837,6.015
1982,0.82,37.225,10.279,34.26,19.977,5.562,6.918,6.096
1983,0.82,37.377,10.314,34.269,19.983,5.563,7.0,6.178
1984,0.81,37.474,10.295,34.25,19.977,5.563,7.001,6.098
1985,0.807,37.561,10.314,34.25,19.973,5.563,7.001,6.138
1986,0.813,37.284,10.353,34.25,19.976,5.441,6.96,6.057
1987,0.813,37.444,10.268,34.298,19.99,5.725,7.163,6.259
1988,0.79,37.571,10.337,34.27,19.984,5.524,7.084,6.058
1989,0.8,37.62,10.267,34.298,19.98,5.563,7.083,6.137
1990,0.784,37.265,10.36,34.26,19.977,5.523,7.002,6.138
1991,0.78,37.425,10.233,34.26,19.976,5.522,7.001,6.138
1992,0.797,37.561,10.286,34.289,19.976,5.603,7.001,6.138
1993,0.794,37.581,10.279,34.27,19.976,5.523,7.001,6.179
1994,0.79,37.303,10.333,34.289,19.983,5.563,7.082,6.179
1995,0.803,37.406,10.33,34.251,19.973,5.482,6.961,5.976
1996,0.813,37.541,10.334,34.269,19.976,5.522,6.96,6.137
1997,0.81,37.562,10.33,34.25,19.97,5.441,6.96,6.057
1998,0.846,37.361,10.302,34.308,19.987,5.643,7.244,6.219
1999,0.833,37.455,10.333,34.289,19.977,5.564,7.003,6.18
2000,0.83,37.561,10.314,34.279,19.983,5.523,7.082,6.179
2001,0.817,37.399,10.31,34.289,19.98,5.522,6.961,6.098
2002,0.81,37.254,10.267,34.26,19.973,5.482,6.96,6.056
2003,0.823,37.415,10.333,34.298,19.99,5.562,7.082,6.259
2004,0.797,37.494,10.322,34.27,19.984,5.523,7.042,6.139
2005,0.813,37.322,10.38,34.279,19.99,5.522,7.042,6.219
2006,0.813,37.378,10.338,34.25,19.97,5.36,6.92,6.058
2007,0.794,37.522,10.306,34.269,19.976,5.439,6.959,6.056
2008,0.777,37.619,10.306,34.27,19.98,5.44,6.96,6.097
2009,0.793,37.237,10.31,34.27,19.983,5.44,7.041,6.097
2010,0.813,37.367,10.361,34.27,19.983,5.562,7.082,6.138
2011,0.774,37.464,10.244,34.27,19.97,5.441,7.002,6.138
2012,0.764,37.571,10.309,34.25,19.98,5.44,6.96,6.179
2013,0.767,37.112,10.236,34.25,19.98,5.359,6.96,6.057
2014,0.8,37.299,10.352,34.308,19.987,5.602,7.122,6.219
2015,0.771,37.397,10.318,34.27,19.977,5.564,6.961,6.22
2016,0.79,37.465,10.396,34.289,19.983,5.563,7.041,6.22
2017,0.784,37.158,10.327,34.289,19.98,5.523,7.042,6.139
2018,0.813,37.299,10.322,34.251,19.973,5.4,6.879,6.057
2019,0.839,37.445,10.349,34.269,19.99,5.521,7.0,6.219
2020,0.833,37.494,10.322,34.26,19.98,5.482,7.001,6.098
2021,0.813,37.303,10.256,34.269,19.987,5.562,7.001,6.178
2022,0.82,37.406,10.243,34.241,19.966,5.36,6.797,6.017
2023,0.81,37.532,10.317,34.26,19.969,5.439,6.958,6.056
2024,0.803,37.562,10.302,34.279,19.976,5.44,6.838,6.056
2025,0.794,37.188,10.384,34.279,19.983,5.521,6.958,6.178
2026,0.8,37.29,10.385,34.289,19.983,5.482,7.0,6.139
2027,0.813,37.406,10.303,34.279,19.98,5.522,6.96,6.138
2028,0.797,37.436,10.322,34.26,19.98,5.36,6.96,6.098
2029,0.79,37.264,10.291,34.25,19.973,5.317,6.838,6.016
2030,0.81,37.415,10.38,34.298,19.99,5.601,6.999,6.218
2031,0.8,37.513,10.241,34.279,19.98,5.482,6.879,6.18
2032,0.777,37.447,10.305,34.289,19.983,5.44,6.959,6.098
2033,0.777,37.312,10.279,34.241,19.973,5.399,6.797,5.975
2034,0.79,37.435,10.333,34.279,19.973,5.399,6.877,6.055
2035,0.797,37.551,10.334,34.25,19.976,5.399,6.796,6.056
2036,0.826,37.255,10.365,34.279,19.98,5.44,6.836,6.056
2037,0.82,37.329,10.307,34.279,19.983,5.44,6.877,6.178
2038,0.817,37.435,10.306,34.26,19.977,5.44,6.877,6.057
2039,0.816,37.542,10.279,34.26,19.98,5.44,6.796,6.056
2040,0.807,37.293,10.329,34.25,19.97,5.399,6.877,6.015
2041,0.826,37.483,10.263,34.317,19.987,5.602,7.0,6.137
2042,0.81,37.59,10.302,34.28,19.98,5.523,6.919,6.057
2043,0.803,37.697,10.287,34.279,19.987,5.603,6.878,6.097
2044,0.807,37.065,10.357,34.25,19.966,5.482,6.837,5.935
2045,0.807,37.222,10.272,34.279,19.976,5.44,6.877,6.014
2046,0.8,37.338,10.353,34.279,19.976,5.481,7.0,6.015
2047,0.794,37.416,10.311,34.279,19.976,5.562,7.001,6.096
2048,0.8,37.311,10.294,34.289,19.976,5.604,7.041,6.138
2049,0.787,37.425,10.306,34.26,19.973,5.564,6.96,6.057
2050,0.787,37.542,10.31,34.26,19.98,5.563,7.082,6.097
2051,0.758,37.61,10.267,34.25,19.97,5.482,7.002,6.016
2052,0.787,37.141,10.29,34.308,19.997,5.806,7.204,6.218
2053,0.787,37.261,10.337,34.28,19.977,5.688,7.084,6.139
2054,0.784,37.387,10.303,34.26,19.983,5.646,7.164,6.179
2055,0.787,37.369,10.353,34.25,19.977,5.605,7.002,6.017
2056,0.8,37.253,10.295,34.26,19.98,5.564,7.082,6.056
2057,0.823,37.406,10.279,34.26,19.98,5.645,7.042,6.097
2058,0.817,37.532,10.267,34.279,19.977,5.605,7.123,6.138
2059,0.82,37.543,10.302,34.289,19.976,5.604,7.165,6.138
2060,0.836,37.169,10.361,34.231,19.97,5.523,7.043,6.016
2061,0.83,37.328,10.256,34.269,19.973,5.644,7.042,6.096
2062,0.826,37.416,10.317,34.25,19.973,5.564,7.082,5.975
2063,0.823,37.446,10.318,34.289,19.997,5.726,7.286,6.218
2064,0.804,37.283,10.357,34.279,19.984,5.646,7.247,6.098
2065,0.797,37.425,10.322,34.27,19.98,5.645,7.166,6.138
2066,0.797,37.513,10.334,34.25,19.977,5.605,7.124,6.098
2067,0.781,37.217,10.256,34.269,19.973,5.645,7.124,6.056
2068,0.793,37.357,10.317,34.289,19.987,5.686,7.246,6.097
2069,0.784,37.455,10.306,34.26,19.98,5.564,7.125,6.097
2070,0.771,37.542,10.33,34.289,19.98,5.685,7.246,6.138
2071,0.774,37.131,10.314,34.251,19.966,5.564,7.003,6.016
2072,0.793,37.27,10.295,34.269,19.973,5.604,7.123,6.056
2073,0.78,37.377,10.31,34.25,19.976,5.645,7.043,6.097
2074,0.79,37.484,10.345,34.289,19.98,5.767,7.245,6.138
2075,0.8,37.187,10.33,34.27,19.983,5.687,7.125,6.179
2076,0.807,37.309,10.306,34.279,19.987,5.727,7.124,6.057
2077,0.81,37.435,10.228,34.25,19.977,5.646,7.165,6.097
2078,0.807,37.513,10.298,34.26,19.97,5.564,7.043,5.975
2079,0.826,37.217,10.318,34.298,19.983,5.726,7.286,6.137
2080,0.83,37.329,10.33,34.26,19.98,5.768,7.247,6.138
2081,0.852,37.474,10.283,34.269,19.987,5.728,7.288,6.057
2082,0.791,37.513,10.306,34.241,19.966,5.524,7.166,5.934
2083,0.797,37.14,10.291,34.26,19.983,5.603,7.287,6.055
2084,0.8,37.261,10.337,34.25,19.973,5.604,7.247,5.975
2085,0.8,37.387,10.334,34.279,19.99,5.726,7.369,6.096
2086,0.823,37.436,10.318,34.279,19.984,5.768,7.37,6.138
2087,0.778,37.187,10.31,34.298,19.987,5.768,7.37,6.057
2088,0.79,37.328,10.326,34.27,19.977,5.647,7.33,6.015
2089,0.806,37.416,10.345,34.25,19.973,5.645,7.329,5.974
2090,0.803,37.465,10.303,34.279,19.987,5.727,7.492,6.137
2091,0.794,37.158,10.322,34.27,19.98,5.687,7.371,6.057
2092,0.774,37.299,10.283,34.27,19.983,5.727,7.411,6.097
2093,0.79,37.349,10.329,34.241,19.966,5.565,7.249,5.853
2094,0.81,37.378,10.31,34.288,19.973,5.645,7.369,5.932
2095,0.816,37.138,10.326,34.251,19.973,5.605,7.289,5.892
2096,0.82,37.299,10.302,34.269,19.987,5.686,7.369,6.054
2097,0.797,37.397,10.318,34.27,19.984,5.687,7.411,6.015
2098,0.794,37.1,10.275,34.27,19.98,5.687,7.411,6.096
2099,0.8,37.155,10.353,34.26,19.983,5.646,7.411,5.975
2100,0.794,37.28,10.256,34.26,19.97,5.605,7.33,6.015
2101,0.8,37.406,10.31,34.298,19.99,5.808,7.37,6.096
2102,0.794,37.024,10.283,34.251,19.973,5.647,7.37,6.016
2103,0.816,37.144,10.314,34.269,19.983,5.564,7.289,6.056
2104,0.816,37.232,10.33,34.26,19.97,5.563,7.207,5.893
2105,0.797,37.329,10.263,34.26,19.969,5.645,7.287,5.973
2106,0.813,37.013,10.286,34.26,19.976,5.645,7.288,5.974
2107,0.81,37.154,10.263,34.289,19.983,5.686,7.288,6.015
2108,0.807,37.27,10.349,34.289,19.987,5.768,7.41,5.974
2109,0.8,37.329,10.322,34.222,19.97,5.565,7.208,5.933
2110,0.813,37.023,10.217,34.269,19.973,5.645,7.206,5.933
2111,0.784,37.125,10.29,34.26,19.966,5.605,7.247,5.933
2112,0.813,37.28,10.294,34.308,19.983,5.726,7.41,6.136
2113,0.79,37.32,10.38,34.27,19.977,5.687,7.33,5.976
2114,0.79,37.061,10.276,34.289,19.983,5.687,7.37,6.015
2115,0.803,37.202,10.31,34.279,19.977,5.687,7.289,5.974
2116,0.784,37.3,10.205,34.25,19.973,5.605,7.288,5.852
2117,0.777,37.368,10.325,34.298,19.983,5.686,7.41,6.013
2118,0.79,36.582,10.306,34.26,19.973,5.646,7.289,5.974
2119,0.826,36.718,10.357,34.269,19.987,5.645,7.369,5.974
2120,0.8,36.806,10.26,34.25,19.97,5.483,7.248,5.811
2121,0.82,36.864,10.263,34.25,19.98,5.522,7.328,5.891
2122,0.82,37.152,10.337,34.26,19.97,5.563,7.248,5.892
2123,0.823,37.299,10.342,34.269,19.98,5.645,7.369,5.973
2124,0.817,37.406,10.303,34.26,19.98,5.564,7.37,5.974
2125,0.8,37.474,10.236,34.269,19.983,5.604,7.33,5.933
2126,0.787,36.928,10.278,34.26,19.977,5.604,7.289,5.974
2127,0.803,37.067,10.243,34.25,19.97,5.482,7.288,5.974
2128,0.794,37.212,10.341,34.308,19.99,5.766,7.491,6.096
2129,0.784,37.041,10.33,34.27,19.973,5.606,7.371,5.975
2130,0.787,37.154,10.326,34.27,19.976,5.604,7.33,5.974
2131,0.774,37.251,10.295,34.25,19.976,5.442,7.167,5.893
2132,0.771,37.348,10.314,34.269,19.973,5.603,7.287,6.014
2133,0.777,36.841,10.353,34.26,19.98,5.523,7.166,5.893
2134,0.78,36.941,10.311,34.269,19.977,5.563,7.246,6.054
2135,0.787,37.077,10.259,34.289,19.976,5.645,7.328,6.015
2136,0.78,37.126,10.185,34.26,19.976,5.564,7.248,5.974
2137,0.793,36.877,10.27,34.25,19.983,5.482,7.206,5.974
2138,0.793,36.99,10.282,34.25,19.97,5.481,7.247,5.852
2139,0.816,37.154,10.357,34.308,19.99,5.684,7.532,6.135
2140,0.813,37.213,10.279,34.27,19.98,5.564,7.331,6.057
2141,0.82,36.945,10.333,34.27,19.983,5.645,7.451,6.056
2142,0.794,37.057,10.314,34.26,19.983,5.605,7.371,5.975
2143,0.79,37.174,10.369,34.25,19.973,5.482,7.37,5.974
2144,0.813,37.251,10.287,34.289,19.983,5.562,7.533,6.055
2145,0.797,36.878,10.255,34.26,19.98,5.604,7.453,5.975
2146,0.794,37.038,10.321,34.289,19.977,5.645,7.452,6.015
2147,0.771,37.106,10.298,34.222,19.97,5.401,7.33,5.812
2148,0.777,37.165,10.326,34.24,19.973,5.562,7.492,5.972
2149,0.771,36.906,10.275,34.241,19.976,5.482,7.371,5.933
2150,0.754,37.076,10.314,34.26,19.983,5.562,7.533,6.014
2151,0.777,37.174,10.279,34.269,19.977,5.523,7.494,6.015
2152,0.767,37.213,10.376,34.27,19.983,5.563,7.453,6.056
2153,0.787,36.983,10.295,34.27,19.98,5.563,7.412,6.015
2154,0.793,37.115,10.306,34.241,19.97,5.482,7.371,5.974
2155,0.806,37.251,10.294,34.288,19.987,5.603,7.452,6.055
2156,0.807,37.482,10.29,34.27,19.977,5.482,7.371,6.097
2157,0.784,36.89,10.275,34.27,19.983,5.522,7.33,6.016
2158,0.777,36.961,10.321,34.241,19.973,5.4,7.329,5.974
2159,0.81,37.106,10.283,34.26,19.973,5.399,7.289,6.015
2160,0.777,36.886,10.298,34.26,19.98,5.44,7.247,5.974
2161,0.806,36.923,10.329,34.26,19.987,5.562,7.369,6.015
2162,0.79,37.057,10.349,34.25,19.977,5.482,7.289,6.015
2163,0.797,37.135,10.326,34.269,19.983,5.562,7.247,6.015
2164,0.81,36.829,10.263,34.241,19.977,5.482,7.206,6.015
