time,ecg,bvp,gsr,rsp,skt,emg_zygo,emg_coru,emg_trap
0,0.866,37.068,27.445,35.838,31.602,6.633,6.264,10.246
1,0.849,37.174,27.507,35.809,31.602,6.631,6.343,10.164
2,0.872,37.251,27.461,35.818,31.598,6.55,6.466,10.163
3,0.869,36.859,27.476,35.885,31.608,6.712,6.467,10.122
4,0.869,36.98,27.433,35.8,31.602,6.713,6.548,10.0
5,0.876,37.096,27.499,35.818,31.608,6.672,6.549,10.08
6,0.892,37.184,27.429,35.828,31.605,6.672,6.549,9.918
7,0.886,36.887,27.421,35.78,31.595,6.591,6.427,9.794
8,0.869,36.999,27.452,35.77,31.588,6.549,6.588,9.956
9,0.882,37.135,27.456,35.789,31.598,6.63,6.671,9.957
10,0.866,37.232,27.441,35.799,31.598,6.631,6.672,9.957
11,0.862,36.916,27.417,35.809,31.595,6.59,6.672,9.917
12,0.856,37.067,27.436,35.799,31.588,6.509,6.631,9.876
13,0.853,37.174,27.343,35.78,31.598,6.549,6.631,9.794
14,0.84,37.204,27.428,35.799,31.595,6.549,6.55,9.834
15,0.849,36.791,27.452,35.799,31.598,6.63,6.63,9.916
16,0.856,36.96,27.409,35.837,31.608,6.712,6.794,9.957
17,0.875,37.086,27.425,35.838,31.602,6.632,6.714,9.795
18,0.892,37.078,27.444,35.809,31.598,6.59,6.632,9.671
19,0.886,36.848,27.46,35.78,31.598,6.549,6.672,9.711
20,0.885,36.941,27.449,35.799,31.602,6.508,6.672,9.63
21,0.889,37.067,27.441,35.809,31.602,6.549,6.713,9.629
22,0.892,36.963,27.421,35.809,31.602,6.63,6.713,9.548
23,0.895,36.847,27.46,35.876,31.608,6.631,6.672,9.547
24,0.899,36.961,27.406,35.8,31.602,6.631,6.672,9.384
25,0.902,37.058,27.507,35.78,31.591,6.509,6.55,9.179
26,0.899,36.637,27.48,35.818,31.584,6.549,6.59,9.177
27,0.892,36.747,27.472,35.78,31.601,6.63,6.671,9.177
28,0.889,36.873,27.511,35.799,31.598,6.631,6.631,9.137
29,0.899,36.951,27.511,35.78,31.598,6.712,6.631,9.095
30,0.863,36.674,27.457,35.78,31.598,6.672,6.59,8.973
31,0.853,36.815,27.491,35.751,31.591,6.631,6.549,8.85
32,0.849,36.922,27.453,35.77,31.591,6.631,6.508,8.849
33,0.84,37.009,27.445,35.789,31.601,6.672,6.63,8.889
34,0.856,36.607,27.421,35.818,31.612,6.753,6.753,8.93
35,0.872,36.738,27.495,35.818,31.605,6.714,6.673,8.809
36,0.869,36.854,27.359,35.79,31.602,6.632,6.55,8.686
37,0.869,36.913,27.416,35.799,31.605,6.672,6.549,8.684
38,0.872,36.683,27.444,35.78,31.602,6.631,6.63,8.644
39,0.885,36.815,27.448,35.77,31.602,6.631,6.631,8.603
40,0.872,36.941,27.46,35.808,31.608,6.712,6.631,8.521
41,0.882,36.961,27.421,35.809,31.598,6.632,6.59,8.561
42,0.866,36.501,27.456,35.78,31.598,6.55,6.468,8.317
43,0.856,36.612,27.421,35.76,31.588,6.468,6.467,8.234
44,0.84,36.718,27.409,35.77,31.588,6.548,6.507,8.233
45,0.859,36.825,27.464,35.77,31.594,6.549,6.589,8.273
46,0.846,36.596,27.425,35.779,31.595,6.549,6.59,8.111
47,0.817,36.709,27.425,35.77,31.598,6.508,6.59,8.109
48,0.829,36.796,27.464,35.76,31.595,6.549,6.549,8.028
49,0.817,36.509,27.484,35.76,31.591,6.549,6.59,7.987
50,0.807,36.631,27.457,35.76,31.598,6.63,6.631,8.027
51,0.803,36.747,27.507,35.789,31.608,6.794,6.794,8.027
52,0.807,36.854,27.496,35.808,31.602,6.673,6.673,7.987
53,0.79,36.491,27.39,35.789,31.598,6.713,6.631,7.905
54,0.777,36.65,27.417,35.78,31.598,6.754,6.631,7.863
55,0.78,36.748,27.518,35.76,31.598,6.754,6.672,7.904
56,0.78,36.835,27.418,35.779,31.598,6.795,6.713,7.863
57,0.787,36.356,27.429,35.789,31.602,6.836,6.713,7.944
58,0.8,36.486,27.479,35.77,31.602,6.837,6.632,7.783
59,0.781,36.583,27.484,35.741,31.591,6.714,6.59,7.7
60,0.79,36.622,27.425,35.75,31.595,6.713,6.549,7.74
61,0.79,36.44,27.421,35.76,31.601,6.876,6.63,7.74
62,0.777,36.592,27.413,35.77,31.595,6.715,6.672,7.699
63,0.774,36.689,27.358,35.76,31.595,6.794,6.55,7.699
64,0.777,36.719,27.401,35.76,31.591,6.714,6.59,7.699
65,0.774,36.441,27.444,35.741,31.595,6.754,6.59,7.658
66,0.761,36.573,27.39,35.76,31.595,6.714,6.549,7.658
67,0.748,36.718,27.413,35.76,31.595,6.835,6.712,7.78
68,0.76,37.007,27.475,35.799,31.608,6.958,6.794,7.822
69,0.757,36.425,27.499,35.77,31.605,6.838,6.592,7.7
70,0.735,36.525,27.445,35.76,31.602,6.796,6.631,7.658
71,0.734,36.641,27.452,35.751,31.598,6.877,6.631,7.739
72,0.725,36.364,27.437,35.779,31.598,6.918,6.672,7.943
73,0.715,36.38,27.386,35.789,31.605,6.837,6.672,8.067
74,0.708,36.524,27.424,35.789,31.595,6.958,6.713,8.15
75,0.715,36.612,27.472,35.78,31.605,6.96,6.632,8.273
76,0.728,36.306,27.394,35.77,31.591,6.96,6.631,8.396
77,0.712,36.408,27.424,35.732,31.588,6.878,6.509,8.6
78,0.715,36.544,27.479,35.76,31.591,6.959,6.63,8.887
79,0.715,36.612,27.562,35.751,31.591,6.919,6.55,9.093
80,0.721,36.297,27.465,35.741,31.595,7.0,6.549,9.38
81,0.718,36.437,27.472,35.731,31.598,6.96,6.508,9.505
82,0.711,36.554,27.433,35.731,31.595,6.96,6.508,9.75
83,0.721,36.612,27.39,35.731,31.595,6.919,6.508,9.874
84,0.708,36.22,27.401,35.731,31.598,7.0,6.589,10.038
85,0.711,36.379,27.483,35.75,31.608,7.123,6.671,10.243
86,0.711,36.524,27.359,35.789,31.612,7.043,6.631,10.326
87,0.705,36.564,27.401,35.761,31.598,6.96,6.59,10.327
88,0.689,36.239,27.444,35.741,31.598,7.0,6.631,10.368
89,0.688,36.36,27.464,35.75,31.612,7.041,6.59,10.449
90,0.692,36.486,27.413,35.741,31.602,7.042,6.631,10.41
91,0.688,36.506,27.417,35.75,31.602,7.042,6.631,10.45
92,0.692,36.267,27.479,35.76,31.598,7.001,6.631,10.45
93,0.692,36.408,27.398,35.76,31.602,7.001,6.631,10.288
94,0.675,36.505,27.44,35.741,31.591,6.838,6.468,10.245
95,0.675,36.248,27.483,35.712,31.595,6.877,6.507,10.204
96,0.675,36.245,27.429,35.75,31.598,6.918,6.508,10.204
97,0.685,36.37,27.44,35.751,31.595,6.878,6.508,10.163
98,0.688,36.467,27.499,35.751,31.595,6.877,6.508,10.082
99,0.688,36.142,27.492,35.722,31.595,6.796,6.549,9.999
100,0.698,36.263,27.445,35.721,31.591,6.795,6.468,10.08
101,0.698,36.399,27.429,35.721,31.598,6.755,6.548,10.121
102,0.701,36.486,27.417,35.75,31.612,6.998,6.671,10.163
103,0.705,36.113,27.452,35.77,31.602,7.001,6.631,10.122
104,0.715,36.234,27.425,35.741,31.602,6.838,6.631,9.959
105,0.698,36.331,27.483,35.712,31.595,6.837,6.509,9.957
106,0.721,36.409,27.445,35.741,31.598,6.877,6.549,9.876
107,0.708,36.103,27.464,35.731,31.598,6.877,6.549,9.916
108,0.698,36.243,27.495,35.731,31.598,6.796,6.59,9.835
109,0.692,36.37,27.476,35.731,31.605,6.877,6.549,9.834
110,0.701,36.428,27.425,35.741,31.605,6.837,6.508,9.753
111,0.711,36.074,27.444,35.712,31.584,6.796,6.305,9.59
112,0.682,36.176,27.405,35.702,31.587,6.795,6.506,9.629
113,0.682,36.321,27.405,35.721,31.591,6.877,6.508,9.507
114,0.669,36.361,27.397,35.712,31.598,6.796,6.508,9.506
115,0.691,36.217,27.452,35.721,31.598,6.795,6.467,9.425
116,0.692,36.34,27.351,35.721,31.595,6.755,6.467,9.383
117,0.692,36.447,27.428,35.712,31.591,6.714,6.467,9.261
118,0.695,36.247,27.491,35.693,31.591,6.754,6.467,9.3
119,0.695,36.034,27.507,35.702,31.595,6.795,6.507,9.26
120,0.718,36.195,27.496,35.74,31.608,6.958,6.549,9.381
121,0.744,36.302,27.48,35.741,31.609,6.878,6.508,9.22
122,0.754,36.054,27.476,35.703,31.595,6.755,6.427,9.178
123,0.777,36.166,27.437,35.76,31.595,6.714,6.466,9.137
124,0.803,36.302,27.483,35.712,31.598,6.794,6.426,9.095
125,0.849,36.38,27.453,35.702,31.602,6.877,6.507,9.095
126,0.879,35.997,27.409,35.74,31.602,6.837,6.386,9.136
127,0.931,36.137,27.37,35.731,31.598,6.796,6.466,9.014
128,0.97,36.282,27.494,35.722,31.595,6.795,6.386,8.932
129,1.003,36.332,27.464,35.702,31.591,6.755,6.303,8.85
130,1.033,36.054,27.437,35.683,31.591,6.714,6.343,8.971
131,1.063,36.243,27.468,35.692,31.595,6.794,6.425,8.972
132,1.105,36.36,27.449,35.702,31.598,6.795,6.426,8.931
133,1.115,36.409,27.363,35.693,31.598,6.795,6.466,8.89
134,1.141,36.016,27.416,35.692,31.588,6.755,6.426,8.849
135,1.187,36.128,27.468,35.702,31.598,6.714,6.385,8.808
136,1.227,36.253,27.367,35.702,31.588,6.754,6.385,8.767
137,1.282,36.293,27.42,35.702,31.594,6.836,6.466,8.807
138,1.358,36.102,27.417,35.712,31.608,6.918,6.589,8.848
139,1.43,36.243,27.495,35.741,31.612,6.796,6.468,8.646
140,1.467,36.331,27.418,35.703,31.602,6.755,6.386,8.684
141,1.496,36.457,27.491,35.702,31.598,6.836,6.507,8.684
142,1.542,35.988,27.457,35.693,31.602,6.796,6.467,8.644
143,1.562,36.146,27.413,35.712,31.598,6.836,6.507,8.644
144,1.608,36.244,27.448,35.721,31.598,6.837,6.467,8.603
145,1.664,35.948,27.484,35.693,31.602,6.877,6.507,8.562
146,1.697,36.031,27.425,35.692,31.602,6.715,6.467,8.521
147,1.681,36.137,27.433,35.673,31.588,6.713,6.345,8.439
148,1.681,36.225,27.46,35.683,31.594,6.794,6.466,8.641
149,1.7,35.995,27.495,35.692,31.598,6.836,6.467,8.644
150,1.658,36.127,27.406,35.702,31.591,6.796,6.467,8.644
151,1.609,36.263,27.417,35.683,31.595,6.714,6.467,8.644
152,1.589,36.36,27.436,35.683,31.595,6.713,6.426,8.684
153,1.537,35.795,27.347,35.673,31.591,6.713,6.385,8.725
154,1.516,35.962,27.404,35.683,31.598,6.754,6.629,8.807
155,1.484,36.098,27.413,35.721,31.612,6.917,6.631,8.97
156,1.431,36.186,27.405,35.731,31.609,6.878,6.509,8.809
157,1.301,35.928,27.417,35.683,31.602,6.715,6.549,8.808
158,1.176,36.05,27.44,35.692,31.598,6.754,6.508,8.848
159,1.038,36.166,27.491,35.692,31.595,6.754,6.467,8.889
160,0.897,36.215,27.445,35.683,31.598,6.714,6.507,9.093
161,0.794,35.947,27.452,35.692,31.598,6.794,6.508,9.176
162,0.706,36.088,27.437,35.692,31.598,6.714,6.549,9.38
163,0.604,36.186,27.378,35.683,31.598,6.713,6.427,9.505
164,0.541,36.216,27.424,35.654,31.581,6.632,6.385,9.506
165,0.456,35.794,27.479,35.644,31.591,6.712,6.385,9.872
166,0.39,35.953,27.382,35.663,31.595,6.754,6.385,10.119
167,0.331,36.069,27.444,35.663,31.598,6.673,6.466,10.406
168,0.281,35.84,27.464,35.663,31.595,6.631,6.426,10.613
169,0.235,35.838,27.531,35.654,31.588,6.631,6.426,10.859
170,0.183,35.972,27.445,35.663,31.594,6.59,6.385,10.983
171,0.124,36.07,27.452,35.644,31.591,6.671,6.385,11.147
172,0.1,35.764,27.413,35.682,31.601,6.753,6.507,11.474
173,0.077,35.914,27.37,35.712,31.608,6.754,6.589,11.477
174,0.071,36.059,27.436,35.702,31.598,6.632,6.427,11.599
175,0.061,36.099,27.448,35.683,31.598,6.55,6.426,11.682
176,0.051,35.754,27.398,35.683,31.588,6.549,6.466,11.764
177,0.064,35.914,27.366,35.673,31.601,6.59,6.426,11.805
178,0.084,36.021,27.459,35.673,31.605,6.631,6.426,11.887
179,0.087,36.08,27.437,35.683,31.609,6.631,6.426,11.969
180,0.1,35.706,27.429,35.673,31.605,6.631,6.426,11.929
181,0.123,35.856,27.433,35.664,31.595,6.509,6.385,11.888
182,0.13,35.934,27.409,35.644,31.588,6.386,6.303,11.969
183,0.133,36.002,27.37,35.663,31.594,6.425,6.302,12.092
184,0.169,35.744,27.455,35.654,31.595,6.466,6.384,12.134
185,0.195,35.875,27.476,35.644,31.601,6.507,6.344,12.215
186,0.202,35.963,27.433,35.654,31.595,6.467,6.343,12.338
187,0.202,36.012,27.437,35.644,31.598,6.386,6.262,12.421
188,0.202,35.792,27.46,35.634,31.588,6.385,6.384,12.503
189,0.222,35.914,27.519,35.654,31.591,6.425,6.385,12.666
190,0.235,36.04,27.461,35.673,31.601,6.507,6.507,12.831
191,0.271,35.859,27.495,35.683,31.605,6.549,6.467,12.873
192,0.294,35.8,27.406,35.654,31.598,6.427,6.426,12.873
193,0.32,35.905,27.382,35.654,31.602,6.426,6.385,12.914
194,0.327,36.011,27.409,35.673,31.595,6.426,6.344,12.955
195,0.363,35.686,27.475,35.654,31.595,6.426,6.506,13.037
196,0.405,35.798,27.367,35.673,31.601,6.426,6.467,13.038
197,0.451,35.934,27.432,35.654,31.608,6.426,6.548,13.038
198,0.507,36.031,27.421,35.644,31.602,6.466,6.386,12.875
199,0.55,35.648,27.507,35.625,31.584,6.304,6.385,12.792
200,0.596,35.779,27.39,35.634,31.587,6.425,6.425,12.873
201,0.629,35.914,27.436,35.644,31.591,6.466,6.385,12.711
202,0.668,36.002,27.409,35.654,31.598,6.467,6.385,12.709
203,0.685,35.638,27.389,35.644,31.595,6.467,6.466,12.465
204,0.701,35.788,27.409,35.644,31.598,6.467,6.386,12.3
205,0.714,35.886,27.428,35.625,31.595,6.426,6.425,12.217
206,0.724,35.954,27.394,35.634,31.595,6.507,6.466,12.135
207,0.728,35.715,27.421,35.663,31.608,6.63,6.548,12.175
208,0.741,35.885,27.507,35.673,31.609,6.672,6.63,12.013
209,0.754,35.982,27.539,35.654,31.602,6.631,6.509,11.889
210,0.735,35.974,27.512,35.635,31.598,6.631,6.508,11.766
211,0.734,35.705,27.492,35.644,31.598,6.672,6.427,11.724
212,0.721,35.818,27.484,35.644,31.602,6.713,6.426,11.683
213,0.728,35.924,27.382,35.654,31.598,6.754,6.507,11.642
214,0.738,35.849,27.475,35.663,31.605,6.836,6.508,11.56
215,0.731,35.656,27.484,35.635,31.602,6.877,6.508,11.559
216,0.747,35.788,27.41,35.634,31.595,6.796,6.345,11.356
217,0.747,35.857,27.366,35.615,31.591,6.795,6.303,11.354
218,0.754,35.56,27.444,35.625,31.595,6.877,6.506,11.232
219,0.767,35.682,27.464,35.644,31.598,6.959,6.508,11.149
220,0.78,35.827,27.417,35.644,31.595,7.0,6.467,11.067
221,0.777,35.915,27.444,35.644,31.595,7.041,6.345,10.944
222,0.78,35.503,27.405,35.625,31.584,7.001,6.384,10.781
223,0.777,35.643,27.405,35.663,31.591,7.001,6.385,10.738
224,0.774,35.769,27.397,35.635,31.605,7.163,6.547,10.657
225,0.797,35.876,27.495,35.654,31.612,7.328,6.63,10.574
226,0.803,35.589,27.437,35.73,31.595,7.085,6.509,10.411
227,0.8,35.701,27.405,35.626,31.601,7.083,6.508,10.287
228,0.787,35.827,27.432,35.634,31.598,7.123,6.467,10.205
229,0.787,35.876,27.491,35.634,31.602,7.205,6.548,10.123
230,0.79,35.445,27.429,35.625,31.605,7.206,6.508,10.041
231,0.803,35.585,27.46,35.634,31.602,7.247,6.549,9.918
232,0.794,35.711,27.437,35.644,31.605,7.288,6.549,9.876
233,0.764,35.76,27.347,35.644,31.602,7.125,6.508,9.672
234,0.774,35.559,27.428,35.615,31.591,7.124,6.427,9.548
235,0.764,35.682,27.468,35.596,31.588,7.124,6.466,9.506
236,0.774,35.817,27.386,35.644,31.598,7.165,6.507,9.425
237,0.793,36.068,27.42,35.625,31.591,7.124,6.508,9.342
238,0.813,35.553,27.507,35.615,31.588,7.043,6.549,9.26
239,0.813,35.682,27.5,35.615,31.594,7.082,6.468,9.137
240,0.816,35.75,27.457,35.615,31.588,7.042,6.507,9.055
241,0.816,35.454,27.433,35.605,31.594,7.042,6.549,9.054
242,0.813,35.537,27.429,35.625,31.601,7.164,6.671,9.095
243,0.823,35.682,27.401,35.673,31.608,7.246,6.753,8.932
244,0.836,35.808,27.401,35.625,31.598,7.044,6.592,8.85
245,0.836,35.406,27.471,35.615,31.602,7.123,6.549,8.767
246,0.826,35.575,27.382,35.625,31.598,7.165,6.671,8.685
247,0.82,35.692,27.405,35.625,31.598,7.084,6.591,8.603
248,0.82,35.789,27.436,35.634,31.605,7.205,6.631,8.562
249,0.813,35.425,27.444,35.615,31.598,7.084,6.672,8.561
250,0.826,35.585,27.417,35.615,31.605,7.123,6.672,8.439
251,0.813,35.701,27.46,35.596,31.584,7.083,6.55,8.275
252,0.813,35.741,27.429,35.605,31.594,7.164,6.63,8.314
253,0.82,35.281,27.433,35.605,31.595,7.124,6.672,8.152
254,0.817,35.439,27.421,35.605,31.598,7.205,6.631,8.191
255,0.82,35.556,27.499,35.596,31.595,7.165,6.712,8.11
256,0.82,35.605,27.398,35.586,31.595,7.165,6.591,8.028
257,0.833,35.395,27.436,35.586,31.595,7.165,6.631,7.987
258,0.83,35.556,27.44,35.596,31.595,7.246,6.712,8.068
259,0.849,35.672,27.483,35.634,31.608,7.288,6.835,8.109
260,0.856,35.712,27.441,35.615,31.602,7.288,6.714,7.906
261,0.862,35.338,27.441,35.586,31.595,7.207,6.713,7.823
262,0.849,35.449,27.433,35.586,31.598,7.165,6.713,7.781
263,0.856,35.566,27.394,35.605,31.598,7.165,6.672,7.74
264,0.856,35.413,27.452,35.586,31.602,7.165,6.713,7.74
265,0.869,35.45,27.448,35.586,31.602,7.124,6.672,7.699
266,0.866,35.594,27.433,35.586,31.605,7.165,6.672,7.699
267,0.862,35.692,27.39,35.576,31.598,7.002,6.591,7.618
268,0.859,35.213,27.444,35.557,31.588,6.919,6.509,7.617
269,0.849,35.314,27.464,35.567,31.594,7.081,6.589,7.739
270,0.856,35.469,27.433,35.586,31.601,6.961,6.631,7.821
271,0.856,35.547,27.413,35.576,31.595,7.0,6.672,7.944
272,0.843,35.222,27.405,35.567,31.591,6.96,6.631,7.986
273,0.846,35.381,27.343,35.547,31.588,6.919,6.631,8.068
274,0.853,35.479,27.397,35.576,31.591,6.878,6.55,8.312
275,0.853,35.576,27.495,35.548,31.598,6.959,6.712,8.518
276,0.853,35.279,27.406,35.586,31.605,6.96,6.794,8.764
277,0.869,35.459,27.46,35.596,31.609,6.96,6.877,9.011
278,0.892,35.547,27.468,35.576,31.598,6.878,6.796,9.013
279,0.886,35.576,27.488,35.567,31.595,6.837,6.755,9.135
280,0.885,35.222,27.433,35.567,31.601,6.837,6.836,9.339
281,0.879,35.362,27.476,35.576,31.602,6.837,6.837,9.423
282,0.889,35.488,27.421,35.567,31.602,6.796,6.796,9.505
283,0.908,35.509,27.304,35.595,31.608,6.877,6.836,9.587
284,0.912,35.375,27.388,35.557,31.598,6.796,6.837,9.547
285,0.908,35.479,27.456,35.528,31.588,6.673,6.714,9.466
286,0.886,35.576,27.327,35.528,31.588,6.672,6.794,9.587
287,0.879,35.308,27.428,35.566,31.594,6.835,6.755,9.547
288,0.902,35.171,27.452,35.547,31.588,6.837,6.795,9.588
289,0.905,35.304,27.46,35.547,31.594,6.877,6.755,9.588
290,0.889,35.401,27.402,35.557,31.591,6.918,6.795,9.507
291,0.892,35.124,27.428,35.538,31.588,7.0,6.795,9.506
292,0.889,35.256,27.46,35.547,31.594,7.001,6.795,9.546
293,0.899,35.41,27.37,35.566,31.605,7.123,6.958,9.669
294,0.908,35.537,27.467,35.586,31.609,7.205,6.919,9.589
295,0.899,35.058,27.484,35.557,31.602,7.165,6.796,9.629
296,0.905,35.197,27.367,35.547,31.598,7.165,6.795,9.629
297,0.921,35.333,27.397,35.547,31.598,7.206,6.795,9.629
298,0.928,35.411,27.475,35.557,31.595,7.247,6.795,9.67
299,0.935,35.105,27.496,35.557,31.605,7.288,6.755,9.711
300,0.948,35.246,27.468,35.538,31.598,7.247,6.754,9.752
301,0.945,35.391,27.425,35.547,31.605,7.288,6.714,9.712
302,0.951,35.431,27.452,35.528,31.591,7.166,6.591,9.63
303,0.938,35.077,27.355,35.518,31.588,7.206,6.631,9.71
304,0.941,35.236,27.428,35.528,31.591,7.287,6.631,9.67
305,0.951,35.372,27.499,35.518,31.595,7.288,6.631,9.67
306,0.954,35.392,27.406,35.528,31.598,7.247,6.631,9.629
307,0.945,35.086,27.428,35.528,31.595,7.206,6.631,9.629
308,0.951,35.217,27.429,35.509,31.595,7.206,6.509,9.588
309,0.954,35.333,27.499,35.518,31.588,7.165,6.549,9.588
310,0.951,35.296,27.426,35.537,31.601,7.206,6.671,9.751
311,0.954,35.114,27.436,35.557,31.608,7.328,6.794,9.752
312,0.964,35.236,27.417,35.547,31.598,7.167,6.592,9.59
313,0.961,35.324,27.354,35.528,31.591,7.043,6.59,9.507
314,0.964,35.037,27.401,35.528,31.598,7.164,6.631,9.506
315,0.974,35.13,27.479,35.528,31.595,7.124,6.631,9.506
316,0.958,35.275,27.375,35.528,31.598,7.165,6.672,9.506
317,0.981,35.372,27.432,35.528,31.602,7.124,6.713,9.425
318,1.0,34.942,27.456,35.528,31.598,7.124,6.672,9.261
319,1.0,35.052,27.499,35.499,31.588,7.002,6.509,9.056
320,0.997,35.159,27.437,35.489,31.584,7.041,6.589,9.135
321,1.004,35.246,27.413,35.528,31.591,7.001,6.712,9.014
322,1.03,34.998,27.444,35.528,31.605,7.082,6.591,8.932
323,1.02,35.149,27.429,35.509,31.598,7.002,6.631,8.809
324,1.014,35.265,27.456,35.499,31.591,7.041,6.631,8.767
325,1.01,35.315,27.452,35.499,31.591,7.123,6.631,8.645
326,1.023,34.893,27.452,35.499,31.591,7.043,6.631,8.603
327,1.03,35.033,27.413,35.528,31.598,7.123,6.631,8.806
328,1.037,35.188,27.464,35.528,31.612,7.287,6.794,8.767
329,1.056,35.237,27.429,35.537,31.602,7.125,6.633,8.563
330,1.034,35.017,27.401,35.518,31.598,7.083,6.59,8.602
331,1.024,35.159,27.413,35.528,31.595,7.083,6.631,8.521
332,1.023,35.256,27.46,35.518,31.598,7.123,6.672,8.439
333,1.036,35.612,27.417,35.518,31.602,7.165,6.713,8.397
334,1.053,35.011,27.444,35.528,31.602,7.124,6.632,8.438
335,1.066,35.111,27.487,35.518,31.598,7.124,6.672,8.316
336,1.056,35.236,27.429,35.566,31.595,7.043,6.55,8.152
337,1.063,34.969,27.444,35.48,31.584,7.001,6.508,8.069
338,1.066,35.024,27.437,35.499,31.591,7.041,6.589,8.109
339,1.073,35.159,27.487,35.508,31.595,7.042,6.631,8.069
340,1.083,35.275,27.39,35.509,31.595,7.123,6.55,8.028
341,1.096,34.998,27.428,35.499,31.595,7.083,6.549,8.027
342,1.096,35.13,27.421,35.508,31.588,7.002,6.508,7.946
343,1.099,35.246,27.417,35.528,31.594,6.96,6.467,8.026
344,1.106,35.314,27.417,35.48,31.595,7.0,6.548,8.027
345,1.128,34.912,27.483,35.508,31.601,7.123,6.63,8.109
346,1.132,35.09,27.375,35.547,31.612,7.124,6.59,7.906
347,1.122,35.207,27.428,35.499,31.595,7.124,6.509,7.904
348,1.122,35.266,27.479,35.499,31.595,7.043,6.467,7.904
349,1.129,35.065,27.468,35.499,31.601,7.042,6.467,7.904
350,1.125,35.217,27.413,35.499,31.595,7.082,6.467,7.823
351,1.138,35.333,27.429,35.508,31.605,7.123,6.507,7.863
352,1.145,35.373,27.476,35.518,31.602,7.165,6.549,7.863
353,1.142,35.21,27.375,35.489,31.602,7.043,6.468,7.782
354,1.129,35.343,27.416,35.48,31.584,6.96,6.345,7.7
355,1.135,35.44,27.452,35.48,31.594,7.0,6.425,7.74
356,1.145,35.489,27.386,35.48,31.601,6.919,6.426,7.699
357,1.168,35.461,27.409,35.489,31.602,6.919,6.466,7.658
358,1.181,35.575,27.432,35.48,31.602,6.919,6.386,7.658
359,1.178,35.673,27.487,35.48,31.595,6.796,6.344,7.658
360,1.191,35.405,27.445,35.48,31.588,6.836,6.343,7.658
361,1.191,35.421,27.421,35.48,31.605,6.958,6.466,7.739
362,1.204,35.546,27.468,35.518,31.605,7.0,6.507,7.821
363,1.211,35.691,27.382,35.547,31.609,6.96,6.467,7.822
364,1.227,35.635,27.42,35.48,31.602,6.838,6.345,7.985
365,1.227,35.75,27.475,35.48,31.598,6.877,6.384,8.068
366,1.217,35.876,27.437,35.499,31.598,6.837,6.385,8.028
367,1.224,35.954,27.421,35.48,31.605,6.796,6.344,8.271
368,1.221,35.734,27.46,35.489,31.602,6.795,6.384,8.436
369,1.214,35.875,27.507,35.489,31.602,6.795,6.385,8.682
370,1.227,36.002,27.445,35.489,31.591,6.755,6.344,8.807
371,1.224,36.051,27.444,35.441,31.591,6.632,6.262,9.133
372,1.211,35.984,27.429,35.45,31.598,6.712,6.343,9.461
373,1.224,36.185,27.429,35.498,31.591,6.754,6.384,9.709
374,1.214,36.283,27.425,35.48,31.598,6.754,6.385,9.914
375,1.227,36.303,27.46,35.46,31.591,6.714,6.425,10.161
376,1.224,36.217,27.386,35.47,31.591,6.672,6.426,10.326
377,1.237,36.331,27.401,35.451,31.588,6.591,6.507,10.368
378,1.247,36.428,27.444,35.45,31.594,6.671,6.467,10.531
379,1.253,36.477,27.452,35.489,31.601,6.753,6.629,10.777
380,1.257,36.506,27.441,35.489,31.612,6.836,6.753,10.82
381,1.263,36.65,27.433,35.499,31.598,6.714,6.632,10.739
382,1.26,36.7,27.46,35.489,31.598,6.754,6.631,10.657
383,1.26,36.767,27.421,35.528,31.595,6.714,6.672,10.656
384,1.27,36.778,27.421,35.47,31.598,6.754,6.713,10.574
385,1.263,36.893,27.448,35.47,31.608,6.714,6.754,10.614
386,1.257,37.009,27.433,35.489,31.605,6.794,6.795,10.574
387,1.257,36.857,27.429,35.489,31.602,6.755,6.795,10.533
388,1.247,36.98,27.425,35.48,31.595,6.714,6.714,10.37
389,1.247,37.058,27.476,35.422,31.584,6.632,6.632,10.246
390,1.244,37.135,27.414,35.45,31.598,6.794,6.794,10.286
391,1.247,37.203,27.468,35.441,31.595,6.836,6.755,10.286
392,1.24,37.348,27.429,35.45,31.598,6.837,6.714,10.245
393,1.237,37.464,27.358,35.45,31.595,6.837,6.632,10.164
394,1.231,37.532,27.412,35.441,31.595,6.877,6.672,10.122
395,1.23,37.437,27.475,35.441,31.591,6.918,6.672,10.041
396,1.234,37.58,27.371,35.45,31.591,7.0,6.753,10.04
397,1.253,37.687,27.42,35.47,31.612,7.163,6.836,10.04
398,1.25,37.755,27.456,35.489,31.609,7.165,6.837,9.958
399,1.266,37.842,27.511,35.48,31.595,7.043,6.714,9.876
400,1.247,37.949,27.402,35.451,31.598,7.164,6.672,9.753
401,1.247,38.065,27.425,35.45,31.595,7.165,6.713,9.752
402,1.244,38.075,27.425,35.47,31.598,7.206,6.713,9.63
403,1.237,38.076,27.366,35.46,31.598,7.165,6.713,9.67
404,1.247,38.2,27.424,35.46,31.598,7.206,6.713,9.548
405,1.25,38.297,27.452,35.46,31.598,7.287,6.713,9.466
406,1.234,38.528,27.402,35.441,31.588,7.166,6.51,9.302
407,1.201,38.512,27.413,35.412,31.588,7.206,6.589,9.301
408,1.194,38.646,27.456,35.45,31.598,7.206,6.59,9.26
409,1.191,38.733,27.484,35.45,31.595,7.206,6.631,9.137
410,1.185,38.389,27.445,35.45,31.598,7.206,6.55,9.055
411,1.168,38.443,27.405,35.422,31.598,7.165,6.508,8.932
412,1.162,38.597,27.428,35.45,31.588,7.206,6.549,8.931
413,1.155,38.647,27.347,35.431,31.591,7.125,6.508,8.89
414,1.155,38.695,27.424,35.45,31.595,7.246,6.63,8.93
415,1.142,38.839,27.476,35.479,31.608,7.328,6.631,8.89
416,1.165,38.965,27.398,35.489,31.609,7.207,6.672,8.768
417,1.158,39.015,27.405,35.451,31.595,7.043,6.591,8.685
418,1.142,38.91,27.444,35.45,31.595,7.123,6.59,8.684
419,1.138,39.024,27.483,35.441,31.595,7.083,6.549,8.603
420,1.129,39.14,27.406,35.45,31.595,7.123,6.549,8.521
421,1.116,39.189,27.444,35.46,31.608,7.124,6.63,8.52
422,1.109,39.113,27.421,35.46,31.598,7.083,6.509,8.398
423,1.102,39.237,27.421,35.46,31.598,7.002,6.467,8.316
424,1.093,39.315,27.413,35.422,31.588,6.96,6.426,8.152
425,1.079,39.325,27.452,35.412,31.594,7.082,6.466,8.232
426,1.083,39.267,27.437,35.508,31.595,7.002,6.467,8.151
427,1.066,39.392,27.476,35.432,31.591,6.96,6.507,8.11
428,1.047,39.479,27.456,35.431,31.591,6.96,6.386,8.15
429,1.033,39.816,27.468,35.422,31.584,6.878,6.466,7.988
430,1.017,39.483,27.394,35.412,31.587,6.877,6.467,8.027
431,1.014,39.605,27.413,35.431,31.598,6.877,6.507,8.068
432,1.004,39.711,27.46,35.45,31.608,7.0,6.549,8.109
433,1.014,39.626,27.433,35.489,31.605,6.919,6.59,7.947
434,0.991,39.683,27.425,35.451,31.602,6.878,6.468,7.945
435,0.974,39.789,27.456,35.431,31.598,6.877,6.507,7.864
436,0.961,39.867,27.394,35.46,31.591,6.877,6.508,7.904
437,0.964,39.58,27.436,35.431,31.595,6.837,6.467,7.782
438,0.961,39.682,27.515,35.431,31.601,6.796,6.548,7.781
439,0.955,39.779,27.508,35.422,31.608,6.795,6.468,7.862
440,0.945,39.876,27.484,35.441,31.602,6.795,6.386,7.7
441,0.951,39.781,27.437,35.412,31.588,6.633,6.344,7.699
442,0.954,39.914,27.409,35.421,31.598,6.672,6.466,7.618
443,0.951,40.069,27.413,35.489,31.595,6.672,6.345,7.657
444,0.941,40.1,27.425,35.422,31.595,6.672,6.303,7.576
445,0.932,39.764,27.46,35.412,31.595,6.631,6.343,7.535
446,0.931,39.895,27.289,35.421,31.588,6.59,6.303,7.412
447,0.912,40.002,27.4,35.393,31.594,6.631,6.302,7.452
448,0.889,40.041,27.46,35.402,31.595,6.631,6.384,7.534
449,0.889,40.118,27.495,35.431,31.601,6.712,6.507,7.575
450,0.892,40.273,27.433,35.45,31.608,6.713,6.508,7.535
451,0.899,40.361,27.429,35.441,31.595,6.632,6.467,7.412
452,0.879,40.342,27.429,35.431,31.605,6.631,6.426,7.411
453,0.869,40.121,27.479,35.498,31.598,6.631,6.507,7.33
454,0.863,40.244,27.41,35.432,31.598,6.672,6.467,7.37
455,0.859,40.312,27.464,35.45,31.605,6.631,6.467,7.411
456,0.833,40.179,27.394,35.45,31.602,6.631,6.467,7.452
457,0.852,40.177,27.417,35.431,31.598,6.672,6.467,7.208
458,0.849,40.273,27.452,35.402,31.584,6.672,6.386,7.165
459,0.84,40.351,27.46,35.402,31.591,6.835,6.466,7.206
460,0.846,40.054,27.437,35.412,31.591,6.837,6.386,7.287
461,0.859,40.176,27.433,35.431,31.595,6.877,6.385,7.247
462,0.866,40.302,27.44,35.393,31.588,6.959,6.385,7.166
463,0.859,40.37,27.417,35.431,31.594,6.96,6.425,7.165
464,0.846,40.17,27.405,35.383,31.588,7.041,6.466,7.165
465,0.853,40.312,27.444,35.392,31.594,7.001,6.507,7.246
466,0.856,40.438,27.394,35.45,31.608,7.204,6.67,7.247
467,0.859,40.516,27.382,35.46,31.616,7.247,6.591,7.288
468,0.843,40.238,27.444,35.412,31.602,7.166,6.468,7.207
469,0.833,40.37,27.425,35.412,31.595,7.165,6.467,7.165
470,0.813,40.467,27.44,35.421,31.608,7.206,6.426,7.206
471,0.816,40.516,27.444,35.412,31.598,7.206,6.466,7.165
472,0.81,40.257,27.441,35.402,31.595,7.206,6.467,7.124
473,0.813,40.389,27.394,35.421,31.601,7.247,6.467,7.124
474,0.82,40.477,27.421,35.431,31.595,7.084,6.467,7.043
475,0.803,40.468,27.468,35.402,31.591,7.042,6.304,6.92
476,0.803,40.267,27.374,35.392,31.588,7.082,6.465,7.0
477,0.813,40.428,27.389,35.421,31.594,7.083,6.467,7.041
478,0.829,40.496,27.424,35.393,31.598,7.083,6.467,7.042
479,0.826,40.334,27.472,35.412,31.588,7.042,6.426,7.001
480,0.817,40.15,27.394,35.412,31.591,6.92,6.466,7.041
481,0.826,40.263,27.448,35.412,31.588,6.959,6.345,7.082
482,0.82,40.37,27.405,35.393,31.594,6.919,6.506,7.286
483,0.813,40.256,27.393,35.459,31.608,7.0,6.508,7.451
484,0.836,40.389,27.409,35.451,31.612,7.082,6.589,7.574
485,0.83,40.477,27.479,35.412,31.602,6.88,6.387,7.575
486,0.82,40.545,27.398,35.421,31.605,6.959,6.385,7.779
487,0.83,40.2,27.417,35.402,31.605,6.878,6.466,8.106
488,0.823,40.341,27.464,35.412,31.602,6.918,6.507,8.354
489,0.823,40.438,27.488,35.421,31.598,6.878,6.549,8.762
490,0.82,40.516,27.492,35.412,31.602,6.877,6.468,9.011
491,0.813,40.2,27.406,35.412,31.605,6.837,6.345,9.257
492,0.797,40.283,27.464,35.383,31.595,6.674,6.262,9.463
493,0.794,40.38,27.386,35.383,31.591,6.835,6.384,9.709
494,0.79,40.457,27.417,35.421,31.595,6.796,6.385,9.833
495,0.79,40.228,27.456,35.393,31.598,6.714,6.344,10.078
496,0.8,40.35,27.421,35.412,31.591,6.754,6.384,10.081
497,0.807,40.448,27.425,35.402,31.595,6.754,6.344,10.162
498,0.803,40.458,27.456,35.392,31.588,6.632,6.343,10.244
499,0.813,40.094,27.468,35.392,31.598,6.753,6.343,10.367
500,0.82,40.224,27.468,35.412,31.608,6.795,6.384,10.449
501,0.833,40.341,27.433,35.441,31.609,6.877,6.425,10.491
502,0.823,40.467,27.444,35.422,31.602,6.755,6.263,10.329
503,0.817,40.19,27.347,35.421,31.602,6.754,6.384,10.408
504,0.816,40.331,27.424,35.393,31.598,6.795,6.303,10.287
505,0.826,40.399,27.491,35.402,31.598,6.714,6.302,10.449
506,0.83,40.16,27.351,35.402,31.598,6.754,6.343,10.369
507,0.82,40.244,27.436,35.421,31.602,6.714,6.303,10.49
508,0.81,40.36,27.421,35.421,31.598,6.713,6.221,10.41
509,0.803,40.4,27.475,35.383,31.595,6.51,6.18,10.328
510,0.803,40.093,27.402,35.364,31.591,6.63,6.179,10.408
511,0.81,40.244,27.413,35.402,31.598,6.672,6.261,10.45
512,0.807,40.351,27.401,35.392,31.595,6.672,6.262,10.41
513,0.803,40.409,27.323,35.392,31.598,6.753,6.262,10.369
514,0.794,39.959,27.393,35.383,31.602,6.592,6.221,10.328
515,0.8,40.089,27.46,35.383,31.591,6.631,6.261,10.327
516,0.803,40.196,27.335,35.383,31.595,6.631,6.302,10.327
517,0.81,40.254,27.42,35.402,31.605,6.712,6.465,10.449
518,0.826,40.706,27.46,35.431,31.612,6.876,6.548,10.41
519,0.839,40.825,27.476,35.422,31.595,6.755,6.427,10.247
520,0.826,40.913,27.453,35.402,31.595,6.673,6.385,10.123
521,0.833,40.913,27.429,35.392,31.598,6.713,6.425,10.163
522,0.82,39.763,27.425,35.392,31.598,6.794,6.466,10.122
523,0.82,39.885,27.417,35.412,31.595,6.755,6.467,10.041
524,0.83,40.002,27.444,35.393,31.601,6.795,6.507,9.918
525,0.833,40.3,27.421,35.392,31.598,6.836,6.386,9.835
526,0.839,40.121,27.421,35.392,31.595,6.755,6.385,9.712
527,0.826,40.215,27.425,35.354,31.591,6.795,6.263,9.67
528,0.8,40.302,27.499,35.373,31.598,6.877,6.465,9.67
529,0.807,40.044,27.449,35.383,31.595,6.877,6.426,9.548
530,0.803,40.061,27.417,35.392,31.595,6.918,6.385,9.466
531,0.807,40.186,27.417,35.383,31.595,6.919,6.303,9.424
532,0.797,40.254,27.432,35.383,31.595,6.878,6.384,9.342
533,0.803,39.967,27.405,35.373,31.591,6.877,6.344,9.219
534,0.803,40.079,27.397,35.392,31.595,7.0,6.384,9.259
535,0.807,40.205,27.456,35.402,31.608,7.163,6.547,9.3
536,0.829,40.312,27.425,35.421,31.612,7.206,6.508,9.097
537,0.826,39.92,27.397,35.374,31.598,7.003,6.427,9.054
538,0.83,40.041,27.456,35.373,31.595,7.123,6.426,8.851
539,0.83,40.147,27.507,35.373,31.601,7.043,6.466,8.849
540,0.836,40.206,27.426,35.392,31.605,7.123,6.467,8.889
541,0.839,40.005,27.464,35.402,31.602,7.165,6.548,8.768
542,0.833,40.118,27.437,35.383,31.598,7.084,6.508,8.726
543,0.833,40.234,27.452,35.383,31.595,7.083,6.467,8.522
544,0.836,40.245,27.425,35.364,31.584,6.961,6.386,8.439
545,0.839,39.929,27.433,35.344,31.591,7.041,6.507,8.479
546,0.823,40.079,27.437,35.43,31.601,7.082,6.508,8.357
547,0.817,40.176,27.39,35.374,31.598,7.002,6.467,8.356
548,0.813,40.177,27.452,35.354,31.598,7.082,6.507,8.275
549,0.816,40.005,27.448,35.373,31.598,7.002,6.467,8.233
550,0.81,40.118,27.445,35.354,31.598,6.96,6.426,8.151
551,0.81,40.215,27.429,35.363,31.598,7.041,6.548,8.232
552,0.826,40.015,27.472,35.383,31.602,7.164,6.671,8.273
553,0.833,39.984,27.374,35.402,31.612,7.043,6.591,8.111
554,0.81,40.08,27.409,35.354,31.598,7.001,6.631,8.109
555,0.813,40.138,27.483,35.373,31.595,6.96,6.631,8.109
556,0.813,39.861,27.375,35.383,31.595,7.0,6.55,8.028
557,0.833,39.992,27.413,35.373,31.601,6.96,6.59,7.987
558,0.836,40.099,27.436,35.392,31.598,6.96,6.753,8.027
559,0.839,40.196,27.464,35.373,31.598,6.96,6.592,7.946
560,0.843,39.784,27.425,35.363,31.588,6.838,6.468,7.783
561,0.833,39.914,27.401,35.344,31.584,6.837,6.548,7.74
562,0.826,40.021,27.421,35.373,31.605,6.837,6.63,7.821
563,0.83,40.109,27.401,35.373,31.598,6.837,6.631,7.781
564,0.839,39.668,27.413,35.335,31.591,6.877,6.672,7.7
565,0.836,39.798,27.491,35.325,31.595,6.877,6.713,7.658
566,0.836,39.896,27.359,35.334,31.588,6.796,6.632,7.576
567,0.826,39.925,27.424,35.334,31.594,6.877,6.712,7.575
568,0.826,39.715,27.417,35.373,31.598,7.0,6.794,7.738
569,0.839,39.866,27.472,35.392,31.608,7.123,6.877,7.74
570,0.852,39.982,27.429,35.383,31.605,7.043,6.796,7.618
571,0.814,39.964,27.421,35.344,31.591,7.001,6.714,7.535
572,0.807,39.773,27.397,35.363,31.595,7.041,6.794,7.616
573,0.813,39.905,27.401,35.411,31.595,7.001,6.755,7.535
574,0.826,40.012,27.428,35.373,31.601,7.123,6.754,7.494
575,0.82,39.869,27.456,35.363,31.595,7.124,6.795,7.534
576,0.823,39.704,27.374,35.373,31.598,7.043,6.714,7.534
577,0.826,39.808,27.416,35.344,31.584,7.042,6.632,7.372
578,0.813,39.848,27.429,35.334,31.587,7.001,6.631,7.411
579,0.82,39.551,27.429,35.353,31.591,7.041,6.712,7.33
580,0.836,39.653,27.417,35.344,31.598,7.042,6.713,7.37
581,0.833,39.769,27.397,35.344,31.588,7.042,6.632,7.33
582,0.833,39.847,27.428,35.344,31.591,7.001,6.672,7.329
583,0.826,39.455,27.39,35.325,31.584,7.001,6.631,7.289
584,0.836,39.576,27.424,35.334,31.587,7.001,6.631,7.288
585,0.843,39.673,27.452,35.363,31.601,7.041,6.794,7.451
586,0.836,39.808,27.413,35.373,31.608,7.123,6.795,7.371
587,0.846,39.493,27.417,35.363,31.602,6.88,6.755,7.37
588,0.823,39.586,27.448,35.354,31.605,6.959,6.754,7.33
589,0.826,39.692,27.476,35.354,31.595,6.96,6.714,7.289
590,0.804,39.751,27.441,35.344,31.601,6.919,6.754,7.288
591,0.82,39.454,27.429,35.354,31.598,6.959,6.836,7.329
592,0.82,39.604,27.413,35.354,31.598,6.919,6.796,7.329
593,0.813,39.721,27.417,35.421,31.598,6.878,6.795,7.451
594,0.807,39.703,27.401,35.335,31.591,6.755,6.714,7.412
595,0.807,39.233,27.483,35.306,31.588,6.795,6.794,7.696
596,0.794,39.362,27.398,35.353,31.598,6.836,6.836,7.902
597,0.816,39.46,27.413,35.354,31.595,6.714,6.837,7.985
598,0.839,39.576,27.44,35.344,31.588,6.754,6.877,8.149
599,0.833,39.299,27.476,35.325,31.588,6.754,6.877,8.435
600,0.839,39.43,27.39,35.315,31.584,6.754,6.796,8.682
601,0.826,39.508,27.452,35.325,31.591,6.795,6.795,9.091
602,0.833,39.193,27.437,35.353,31.601,6.836,6.958,9.42
603,0.849,39.304,27.448,35.44,31.612,6.918,6.919,9.708
604,0.853,39.402,27.429,35.345,31.598,6.796,6.919,9.752
605,0.84,39.46,27.444,35.344,31.595,6.755,6.837,9.915
606,0.836,39.115,27.413,35.354,31.601,6.795,6.918,10.161
607,0.833,39.227,27.425,35.344,31.608,6.836,6.878,10.285
608,0.817,39.334,27.452,35.325,31.609,6.877,6.959,10.449
609,0.81,39.402,27.46,35.334,31.595,6.755,6.96,10.532
610,0.826,39.009,27.445,35.363,31.601,6.795,6.919,10.41
611,0.813,39.13,27.394,35.315,31.595,6.673,6.959,10.328
612,0.807,39.218,27.424,35.315,31.591,6.753,7.0,10.449
613,0.813,39.314,27.39,35.325,31.595,6.795,7.041,10.41
614,0.813,39.124,27.401,35.334,31.601,6.836,7.001,10.409
615,0.81,39.237,27.456,35.334,31.591,6.837,7.041,10.45
616,0.807,39.343,27.363,35.344,31.591,6.796,7.042,10.247
617,0.807,39.373,27.405,35.315,31.588,6.755,7.082,10.245
618,0.81,38.98,27.452,35.325,31.591,6.917,7.083,10.245
619,0.826,39.111,27.484,35.344,31.605,6.919,7.245,10.408
620,0.833,39.265,27.453,35.354,31.605,6.959,7.206,10.328
621,0.836,39.478,27.437,35.335,31.602,6.878,7.125,10.246
622,0.826,39.02,27.429,35.325,31.595,6.918,7.043,10.245
623,0.83,39.13,27.425,35.325,31.595,6.919,7.123,10.286
624,0.833,39.227,27.417,35.315,31.598,6.837,7.124,10.205
625,0.849,38.835,27.479,35.315,31.602,6.877,7.165,10.245
626,0.849,38.86,27.359,35.334,31.608,6.837,7.124,10.164
627,0.823,38.994,27.424,35.325,31.598,6.796,7.043,10.082
628,0.807,39.053,27.456,35.305,31.595,6.673,6.92,9.959
629,0.807,38.881,27.448,35.305,31.591,6.713,7.0,10.08
630,0.797,39.043,27.441,35.305,31.598,6.794,7.123,10.081
631,0.8,39.169,27.409,35.334,31.598,6.836,7.124,10.121
632,0.8,39.247,27.428,35.306,31.595,6.714,7.002,10.081
633,0.794,38.701,27.312,35.315,31.591,6.672,7.082,9.999
634,0.797,38.811,27.388,35.315,31.588,6.631,7.042,10.039
635,0.787,38.917,27.432,35.305,31.594,6.672,7.123,10.121
636,0.803,38.995,27.323,35.334,31.598,6.794,7.327,10.163
637,0.813,38.842,27.377,35.344,31.612,6.877,7.37,10.204
638,0.826,38.994,27.467,35.334,31.605,6.715,7.289,10.041
639,0.82,39.072,27.445,35.315,31.602,6.632,7.207,9.999
640,0.81,39.112,27.468,35.315,31.605,6.672,7.287,9.999
641,0.816,38.748,27.429,35.305,31.602,6.753,7.329,9.917
642,0.823,38.897,27.464,35.334,31.598,6.673,7.207,9.835
643,0.823,38.985,27.363,35.325,31.602,6.713,7.206,9.875
644,0.843,38.996,27.405,35.315,31.598,6.713,7.287,9.753
645,0.817,38.727,27.467,35.305,31.602,6.672,7.207,9.63
646,0.82,38.849,27.343,35.305,31.588,6.469,7.084,9.426
647,0.794,38.946,27.416,35.286,31.594,6.548,7.164,9.505
648,0.793,38.727,27.405,35.315,31.598,6.59,7.165,9.425
649,0.797,38.677,27.479,35.305,31.595,6.631,7.206,9.383
650,0.794,38.791,27.421,35.296,31.595,6.59,7.165,9.261
651,0.79,38.898,27.433,35.286,31.595,6.59,7.124,9.219
652,0.79,38.659,27.39,35.295,31.591,6.671,7.083,9.137
653,0.787,38.753,27.37,35.324,31.598,6.835,7.164,9.177
654,0.806,38.917,27.397,35.344,31.612,6.877,7.287,9.096
655,0.807,39.014,27.499,35.334,31.602,6.877,7.085,9.014
656,0.794,38.67,27.359,35.296,31.598,6.877,7.123,8.972
657,0.8,38.81,27.412,35.324,31.595,6.959,7.083,8.85
658,0.81,38.927,27.432,35.325,31.601,6.919,7.042,8.808
659,0.82,38.985,27.452,35.296,31.588,7.041,7.001,8.726
660,0.8,38.564,27.409,35.315,31.594,7.001,7.001,8.685
661,0.807,38.694,27.397,35.315,31.601,7.001,7.001,8.562
662,0.81,38.791,27.413,35.296,31.588,6.96,6.838,8.399
663,0.794,38.802,27.343,35.286,31.584,6.878,6.796,8.356
664,0.793,38.601,27.412,35.276,31.594,6.959,6.958,8.315
665,0.826,38.733,27.448,35.295,31.595,6.96,6.797,8.274
666,0.807,38.83,27.394,35.296,31.598,7.0,6.917,8.193
667,0.797,38.86,27.421,35.286,31.595,6.96,6.878,8.151
668,0.797,38.63,27.429,35.286,31.591,7.0,6.755,8.069
669,0.777,38.752,27.421,35.276,31.591,6.96,6.795,7.987
670,0.771,38.869,27.425,35.295,31.591,7.082,6.836,8.108
671,0.79,38.793,27.405,35.305,31.605,7.205,6.999,8.109
672,0.793,38.677,27.428,35.334,31.598,7.043,6.838,7.947
673,0.78,38.762,27.386,35.296,31.598,7.042,6.796,7.945
674,0.767,38.869,27.409,35.286,31.602,7.082,6.795,7.945
675,0.774,38.477,27.479,35.305,31.595,7.083,6.917,7.864
676,0.777,38.549,27.41,35.315,31.598,7.042,6.756,7.863
677,0.793,38.675,27.448,35.334,31.598,7.082,6.795,7.863
678,0.797,38.782,27.445,35.296,31.605,7.164,6.795,7.782
679,0.794,38.543,27.499,35.286,31.595,7.002,6.673,7.578
680,0.784,38.665,27.398,35.267,31.581,6.879,6.631,7.657
681,0.787,38.762,27.448,35.276,31.594,6.959,6.753,7.658
682,0.784,38.888,27.413,35.305,31.591,6.919,6.754,7.658
683,0.806,38.477,27.347,35.305,31.595,6.919,6.673,7.455
684,0.803,38.626,27.412,35.296,31.591,6.878,6.631,7.493
685,0.794,38.704,27.46,35.257,31.595,6.877,6.631,7.453
686,0.8,38.763,27.339,35.276,31.588,6.837,6.59,7.33
687,0.79,38.504,27.389,35.276,31.594,6.837,6.631,7.41
688,0.777,38.617,27.448,35.305,31.598,6.958,6.753,7.574
689,0.784,38.771,27.507,35.324,31.608,7.041,6.754,7.494
690,0.787,38.792,27.437,35.296,31.598,6.879,6.632,7.412
691,0.774,38.591,27.417,35.267,31.598,6.796,6.672,7.33
692,0.774,38.714,27.44,35.295,31.602,6.795,6.631,7.41
693,0.787,38.83,27.394,35.344,31.591,6.836,6.672,7.411
694,0.784,38.946,27.432,35.286,31.591,6.837,6.753,7.33
695,0.758,38.592,27.456,35.295,31.598,6.918,6.754,7.329
696,0.764,38.723,27.327,35.305,31.608,6.878,6.754,7.289
697,0.77,38.811,27.404,35.315,31.595,6.837,6.673,7.288
698,0.78,38.505,27.448,35.267,31.588,6.714,6.631,7.125
699,0.761,38.569,27.437,35.257,31.591,6.835,6.753,7.246
700,0.787,38.704,27.413,35.276,31.595,6.837,6.795,7.206
701,0.787,38.791,27.421,35.286,31.598,6.837,6.836,7.165
702,0.797,38.399,27.417,35.276,31.591,6.755,6.796,7.084
703,0.797,38.529,27.401,35.305,31.591,6.795,6.714,7.205
704,0.794,38.627,27.382,35.267,31.595,6.795,6.754,7.247
705,0.79,38.714,27.463,35.257,31.595,6.836,6.836,7.41
706,0.787,38.427,27.374,35.276,31.601,6.877,6.999,7.615
707,0.787,38.587,27.409,35.305,31.612,6.959,7.001,7.739
708,0.784,38.694,27.386,35.296,31.605,6.838,6.879,7.74
709,0.78,38.715,27.452,35.286,31.595,6.837,6.796,8.024
710,0.777,38.398,27.394,35.286,31.595,6.877,6.917,8.19
711,0.764,38.539,27.409,35.276,31.605,6.837,6.837,8.314
712,0.774,38.656,27.436,35.295,31.602,6.877,6.877,8.437
713,0.774,38.724,27.374,35.296,31.602,6.837,6.877,8.682
714,0.764,38.542,27.401,35.267,31.602,6.755,6.837,8.766
715,0.761,38.646,27.467,35.257,31.581,6.673,6.755,8.685
716,0.757,38.733,27.355,35.247,31.591,6.713,6.795,8.847
717,0.774,38.888,27.381,35.286,31.598,6.754,6.917,8.971
718,0.784,38.477,27.42,35.286,31.595,6.673,6.878,8.972
719,0.78,38.578,27.464,35.267,31.588,6.631,6.837,9.013
720,0.78,38.646,27.429,35.276,31.591,6.631,6.796,9.094
721,0.774,38.417,27.413,35.267,31.588,6.631,6.795,9.095
722,0.784,38.453,27.421,35.267,31.591,6.631,6.836,9.136
723,0.787,38.588,27.362,35.276,31.601,6.753,6.918,9.258
724,0.8,38.685,27.444,35.305,31.598,6.795,6.959,9.137
725,0.807,38.273,27.444,35.286,31.602,6.673,6.838,9.055
726,0.781,38.356,27.335,35.276,31.598,6.672,6.796,9.054
727,0.774,38.481,27.381,35.267,31.595,6.672,6.755,9.095
728,0.774,38.559,27.428,35.286,31.598,6.631,6.754,9.136
729,0.774,38.33,27.472,35.276,31.605,6.672,6.836,9.217
730,0.771,38.462,27.421,35.286,31.605,6.631,6.796,9.259
731,0.764,38.588,27.405,35.295,31.602,6.631,6.836,9.3
732,0.767,38.637,27.417,35.267,31.595,6.59,6.714,9.178
733,0.761,38.196,27.335,35.247,31.584,6.549,6.591,9.259
734,0.751,38.297,27.369,35.266,31.594,6.63,6.712,9.381
735,0.774,38.461,27.463,35.286,31.598,6.712,6.794,9.423
736,0.767,38.492,27.351,35.267,31.588,6.713,6.714,9.424
737,0.79,38.348,27.416,35.247,31.598,6.632,6.672,9.464
738,0.777,38.481,27.374,35.257,31.588,6.631,6.631,9.383
739,0.771,38.569,27.428,35.238,31.588,6.672,6.672,9.423
740,0.787,38.579,27.382,35.257,31.594,6.753,6.835,9.546
741,0.793,38.359,27.436,35.276,31.605,6.876,6.958,9.547
742,0.803,38.5,27.437,35.305,31.605,6.918,6.797,9.466
743,0.8,38.569,27.401,35.267,31.598,6.796,6.755,9.424
744,0.787,38.359,27.397,35.267,31.595,6.836,6.795,9.424
745,0.79,38.308,27.432,35.257,31.598,6.877,6.836,9.383
746,0.787,38.452,27.405,35.276,31.595,6.877,6.837,9.301
747,0.784,38.53,27.425,35.276,31.595,6.837,6.796,9.301
748,0.78,37.984,27.476,35.267,31.598,6.877,6.836,9.341
749,0.787,38.065,27.464,35.267,31.595,6.959,6.837,9.179
750,0.761,38.181,27.41,35.247,31.588,6.756,6.674,9.096
751,0.748,38.24,27.358,35.257,31.594,6.836,6.753,9.176
752,0.757,38.116,27.42,35.266,31.598,6.877,6.836,9.137
753,0.748,38.258,27.362,35.247,31.591,6.918,6.796,9.014
754,0.747,38.375,27.405,35.266,31.598,6.919,6.755,9.013
755,0.751,38.433,27.456,35.267,31.591,6.878,6.754,8.972
756,0.761,38.137,27.406,35.247,31.588,6.918,6.673,8.931
757,0.767,38.287,27.405,35.247,31.598,7.041,6.875,8.931
758,0.787,38.423,27.46,35.295,31.608,7.082,6.877,8.972
759,0.797,38.472,27.46,35.276,31.598,7.002,6.796,8.85
760,0.784,38.012,27.386,35.295,31.595,7.001,6.795,8.727
761,0.784,38.161,27.432,35.248,31.598,7.082,6.795,8.726
762,0.78,38.259,27.386,35.266,31.595,6.961,6.836,8.644
763,0.784,38.288,27.338,35.276,31.601,7.122,6.796,8.644
764,0.79,38.001,27.393,35.276,31.602,7.083,6.795,8.562
765,0.787,38.123,27.475,35.267,31.595,7.123,6.795,8.48
766,0.787,38.229,27.378,35.267,31.601,6.961,6.633,8.316
767,0.774,38.173,27.413,35.228,31.595,6.919,6.672,8.315
768,0.764,38.067,27.421,35.247,31.598,7.041,6.753,8.315
769,0.764,38.2,27.464,35.257,31.598,7.042,6.714,8.356
770,0.761,38.288,27.417,35.238,31.595,7.042,6.713,8.234
771,0.754,37.848,27.448,35.257,31.595,6.92,6.754,8.151
772,0.757,37.929,27.413,35.257,31.595,6.959,6.632,8.191
773,0.754,38.045,27.319,35.257,31.591,6.919,6.631,8.11
774,0.751,38.142,27.412,35.257,31.595,7.041,6.753,8.232
775,0.754,37.904,27.44,35.276,31.612,7.123,6.836,8.233
776,0.777,38.074,27.401,35.276,31.609,7.043,6.714,8.151
777,0.771,38.162,27.37,35.247,31.595,7.042,6.713,8.028
778,0.783,38.201,27.444,35.228,31.595,6.92,6.672,8.027
779,0.774,37.799,27.464,35.247,31.598,6.878,6.672,7.987
780,0.764,37.919,27.421,35.257,31.598,6.918,6.631,7.986
781,0.767,38.036,27.413,35.266,31.608,7.0,6.712,7.946
782,0.777,38.123,27.425,35.267,31.598,7.001,6.713,7.945
783,0.784,37.779,27.323,35.286,31.595,6.96,6.591,7.823
784,0.8,37.9,27.42,35.219,31.584,6.838,6.549,7.7
785,0.784,37.968,27.397,35.218,31.591,6.958,6.59,7.821
786,0.774,38.036,27.358,35.266,31.598,7.041,6.59,7.7
787,0.774,37.73,27.408,35.238,31.598,7.123,6.631,7.658
788,0.764,37.852,27.428,35.238,31.595,7.165,6.59,7.698
789,0.764,37.929,27.464,35.228,31.591,7.124,6.59,7.658
790,0.761,38.141,27.39,35.228,31.591,7.165,6.631,7.617
791,0.757,37.76,27.421,35.237,31.584,7.206,6.672,7.617
792,0.757,37.9,27.409,35.257,31.605,7.287,6.794,7.779
793,0.767,38.016,27.366,35.276,31.609,7.329,6.755,7.74
794,0.767,37.576,27.405,35.247,31.595,7.248,6.632,7.821
795,0.751,37.591,27.467,35.257,31.598,7.206,6.712,7.944
796,0.748,37.716,27.382,35.247,31.602,7.287,6.672,8.026
797,0.757,37.803,27.389,35.238,31.605,7.247,6.672,8.068
798,0.764,37.517,27.413,35.257,31.595,7.288,6.713,8.272
799,0.77,37.648,27.479,35.247,31.595,7.329,6.672,8.477
800,0.787,37.764,27.414,35.247,31.601,7.167,6.672,8.601
801,0.784,37.833,27.39,35.228,31.588,7.124,6.55,8.643
802,0.78,37.507,27.417,35.199,31.588,7.124,6.63,8.928
803,0.767,37.658,27.311,35.247,31.594,7.124,6.631,9.134
804,0.787,37.784,27.412,35.238,31.595,7.124,6.55,9.258
805,0.774,37.823,27.421,35.228,31.591,7.043,6.59,9.381
806,0.777,37.335,27.358,35.228,31.598,7.082,6.549,9.423
807,0.767,37.464,27.358,35.218,31.591,7.042,6.427,9.546
808,0.757,37.571,27.408,35.218,31.588,7.082,6.588,9.588
809,0.761,37.61,27.432,35.228,31.598,7.164,6.671,9.873
810,0.767,37.563,27.425,35.257,31.602,7.124,6.672,9.916
811,0.774,37.725,27.409,35.257,31.598,7.124,6.631,9.794
812,0.758,37.784,27.432,35.228,31.602,7.124,6.55,9.834
813,0.757,37.804,27.362,35.218,31.595,7.043,6.63,9.712
814,0.744,37.459,27.362,35.247,31.595,7.082,6.59,9.752
815,0.741,37.599,27.451,35.238,31.595,7.123,6.59,9.833
816,0.754,37.697,27.394,35.257,31.601,7.124,6.671,9.753
817,0.761,37.429,27.397,35.257,31.602,7.083,6.631,9.793
818,0.777,37.446,27.401,35.238,31.595,7.042,6.631,9.631
819,0.774,37.532,27.456,35.199,31.588,6.92,6.468,9.548
820,0.761,37.629,27.406,35.199,31.588,6.959,6.589,9.588
821,0.767,37.151,27.421,35.228,31.598,7.082,6.631,9.669
822,0.787,37.29,27.393,35.209,31.595,7.042,6.59,9.67
823,0.767,37.387,27.354,35.228,31.591,7.042,6.549,9.67
824,0.774,37.465,27.362,35.228,31.588,6.96,6.59,9.548
825,0.771,37.36,27.44,35.199,31.588,7.0,6.549,9.588
826,0.774,37.512,27.343,35.218,31.594,7.041,6.63,9.588
827,0.78,37.667,27.404,35.247,31.605,7.123,6.712,9.751
828,0.764,37.726,27.456,35.247,31.609,7.165,6.713,9.59
829,0.77,37.104,27.48,35.218,31.591,7.124,6.551,9.507
830,0.764,37.251,27.425,35.228,31.598,7.083,6.59,9.546
831,0.754,37.367,27.417,35.228,31.602,7.083,6.631,9.466
832,0.757,37.416,27.405,35.228,31.602,7.042,6.55,9.546
833,0.764,37.1,27.335,35.237,31.602,7.042,6.63,9.506
834,0.754,37.251,27.373,35.247,31.602,7.123,6.59,9.587
835,0.757,37.348,27.448,35.238,31.598,7.083,6.59,9.466
836,0.751,37.359,27.331,35.199,31.591,6.961,6.427,9.343
837,0.748,37.196,27.326,35.18,31.588,7.041,6.507,9.382
838,0.757,37.309,27.463,35.218,31.591,7.082,6.549,9.382
839,0.774,37.416,27.425,35.218,31.591,7.042,6.549,9.342
840,0.78,37.12,27.421,35.218,31.595,7.001,6.508,9.26
841,0.774,37.021,27.401,35.218,31.591,6.96,6.508,9.178
842,0.764,37.135,27.413,35.218,31.588,6.919,6.467,9.218
843,0.764,37.222,27.366,35.209,31.594,7.0,6.507,9.3
844,0.777,36.964,27.366,35.228,31.595,7.001,6.63,9.178
845,0.777,37.106,27.448,35.237,31.612,7.123,6.672,9.259
846,0.793,37.241,27.339,35.238,31.602,7.083,6.55,9.097
847,0.777,37.338,27.397,35.199,31.598,7.042,6.508,9.014
848,0.761,37.004,27.436,35.218,31.598,7.001,6.549,8.932
849,0.754,37.125,27.48,35.218,31.598,6.96,6.508,8.972
850,0.757,37.251,27.394,35.228,31.598,7.041,6.589,8.85
851,0.761,37.329,27.436,35.228,31.602,7.042,6.631,8.808
852,0.764,36.908,27.405,35.228,31.595,7.001,6.509,8.686
853,0.744,37.038,27.397,35.218,31.584,6.879,6.427,8.522
854,0.734,37.135,27.37,35.189,31.587,6.877,6.507,8.52
855,0.751,37.184,27.42,35.208,31.594,6.959,6.549,8.601
856,0.754,36.887,27.366,35.208,31.588,6.96,6.468,8.44
857,0.757,37.038,27.405,35.218,31.594,7.0,6.426,8.397
858,0.764,37.135,27.436,35.18,31.591,7.001,6.466,8.316
859,0.764,37.174,27.476,35.208,31.588,7.001,6.467,8.274
860,0.77,36.82,27.437,35.18,31.584,7.041,6.467,8.274
861,0.767,36.941,27.398,35.208,31.601,7.164,6.589,8.355
862,0.774,37.105,27.421,35.237,31.608,7.287,6.671,8.315
863,0.777,37.117,27.339,35.228,31.602,7.207,6.55,8.152
864,0.787,36.973,27.393,35.199,31.598,7.165,6.508,8.069
865,0.787,37.077,27.463,35.199,31.591,7.206,6.549,8.109
866,0.777,37.193,27.382,35.218,31.595,7.247,6.508,8.069
867,0.767,36.743,27.358,35.228,31.605,7.206,6.589,8.069
868,0.761,36.835,27.436,35.228,31.595,7.287,6.631,8.028
869,0.767,36.951,27.452,35.228,31.601,7.247,6.631,8.027
870,0.77,37.029,27.437,35.199,31.595,7.206,6.55,7.783
871,0.774,36.742,27.44,35.18,31.584,7.125,6.549,7.822
872,0.748,36.864,27.398,35.199,31.598,7.165,6.549,7.822
873,0.754,37.009,27.37,35.199,31.595,7.165,6.63,7.863
874,0.761,37.096,27.385,35.208,31.595,7.124,6.631,7.741
875,0.761,36.81,27.44,35.189,31.591,7.043,6.672,7.699
876,0.774,36.922,27.351,35.189,31.595,7.042,6.55,7.658
877,0.784,37.048,27.377,35.18,31.588,7.042,6.63,7.617
878,0.803,37.116,27.409,35.208,31.598,7.123,6.753,7.739
879,0.833,36.56,27.432,35.237,31.615,7.205,6.795,7.781
880,0.846,36.718,27.448,35.228,31.598,7.043,6.714,7.618
881,0.836,36.806,27.417,35.218,31.602,7.042,6.632,7.698
882,0.849,36.835,27.417,35.199,31.598,7.042,6.672,7.821
883,0.846,36.711,27.366,35.218,31.602,7.001,6.631,7.944
884,0.866,36.844,27.381,35.199,31.595,7.001,6.631,8.108
885,0.866,36.941,27.456,35.218,31.595,7.001,6.672,8.232
886,0.879,37.22,27.351,35.209,31.595,7.001,6.631,8.355
887,0.866,36.648,27.401,35.208,31.584,6.879,6.468,8.437
888,0.853,36.748,27.401,35.17,31.581,6.837,6.589,8.804
889,0.856,36.854,27.444,35.199,31.598,6.958,6.549,9.052
890,0.856,36.615,27.405,35.199,31.591,6.878,6.549,9.257
891,0.846,36.69,27.382,35.189,31.591,6.877,6.508,9.381
892,0.836,36.806,27.409,35.18,31.591,6.837,6.549,9.627
893,0.846,36.903,27.347,35.189,31.588,6.796,6.508,9.792
894,0.846,36.414,27.397,35.17,31.588,6.755,6.63,9.956
895,0.849,36.544,27.436,35.189,31.594,6.836,6.59,10.08
896,0.862,36.699,27.355,35.227,31.605,6.958,6.671,10.365
897,0.879,36.796,27.393,35.237,31.612,6.96,6.631,10.206
898,0.885,36.529,27.432,35.199,31.595,6.878,6.631,10.204
899,0.889,36.66,27.433,35.189,31.595,6.796,6.55,10.204
900,0.902,36.767,27.433,35.199,31.598,6.917,6.59,10.245
901,0.899,36.854,27.382,35.189,31.595,6.878,6.631,10.245
902,0.905,36.337,27.401,35.208,31.595,6.918,6.672,10.204
903,0.882,36.466,27.385,35.199,31.598,6.919,6.713,10.204
904,0.889,36.592,27.393,35.199,31.595,6.878,6.632,10.041
905,0.879,36.613,27.467,35.16,31.591,6.796,6.509,9.796
906,0.882,36.44,27.324,35.179,31.588,6.755,6.549,9.915
907,0.879,36.592,27.412,35.189,31.598,6.795,6.63,9.916
908,0.866,36.709,27.444,35.189,31.602,6.795,6.59,9.916
909,0.885,36.71,27.487,35.18,31.588,6.836,6.59,9.794
910,0.879,36.422,27.406,35.16,31.588,6.837,6.671,9.793
911,0.889,36.534,27.405,35.16,31.591,6.796,6.631,9.753
912,0.882,36.66,27.382,35.179,31.588,6.836,6.631,9.793
913,0.879,36.431,27.338,35.199,31.594,6.918,6.712,9.793
914,0.869,36.467,27.412,35.247,31.608,7.081,6.835,9.875
915,0.869,36.602,27.471,35.199,31.598,6.961,6.674,9.794
916,0.882,36.69,27.386,35.18,31.591,6.878,6.672,9.834
917,0.895,36.393,27.417,35.179,31.595,6.918,6.713,9.672
918,0.886,36.505,27.456,35.179,31.595,6.878,6.713,9.67
919,0.885,36.631,27.429,35.179,31.598,6.959,6.713,9.629
920,0.889,36.719,27.421,35.189,31.598,7.0,6.754,9.588
921,0.892,36.346,27.393,35.199,31.598,6.919,6.754,9.466
922,0.892,36.486,27.417,35.189,31.595,6.878,6.754,9.383
923,0.886,36.602,27.378,35.141,31.588,6.796,6.632,9.22
924,0.885,36.642,27.405,35.15,31.588,6.877,6.672,9.259
925,0.882,36.297,27.428,35.17,31.594,6.877,6.753,9.219
926,0.892,36.447,27.405,35.208,31.595,6.877,6.714,9.137
927,0.882,36.573,27.389,35.17,31.591,6.837,6.672,9.095
928,0.872,36.603,27.436,35.16,31.588,6.837,6.713,8.973
929,0.869,36.191,27.425,35.17,31.591,6.796,6.713,8.931
930,0.866,36.321,27.394,35.179,31.595,6.795,6.794,9.012
931,0.869,36.476,27.409,35.189,31.608,6.958,6.958,9.013
932,0.866,36.525,27.436,35.218,31.602,6.838,6.797,8.81
933,0.859,36.344,27.288,35.189,31.598,6.837,6.755,8.767
934,0.836,36.457,27.384,35.189,31.595,6.796,6.836,8.726
935,0.833,36.554,27.413,35.189,31.595,6.795,6.714,8.685
936,0.839,36.421,27.296,35.189,31.598,6.795,6.754,8.684
937,0.833,36.323,27.381,35.199,31.598,6.917,6.714,8.562
938,0.849,36.457,27.37,35.18,31.598,6.837,6.835,8.521
939,0.853,36.564,27.471,35.179,31.595,6.755,6.755,8.358
940,0.862,36.219,27.394,35.17,31.584,6.714,6.673,8.315
941,0.827,36.302,27.444,35.141,31.587,6.794,6.794,8.315
942,0.836,36.456,27.39,35.169,31.591,6.755,6.795,8.315
943,0.839,36.564,27.397,35.189,31.591,6.754,6.755,8.274
944,0.823,36.076,27.409,35.16,31.595,6.795,6.754,8.111
945,0.817,36.205,27.448,35.15,31.595,6.755,6.754,8.191
946,0.81,36.331,27.355,35.17,31.595,6.714,6.714,8.07
947,0.797,36.409,27.35,35.16,31.595,6.713,6.794,8.109
948,0.787,36.179,27.432,35.179,31.598,6.794,6.958,8.232
949,0.777,36.34,27.452,35.189,31.602,6.836,7.0,8.192
950,0.79,36.466,27.448,35.16,31.595,6.755,6.919,8.07
951,0.777,36.496,27.39,35.17,31.598,6.673,6.878,8.028
952,0.774,36.113,27.401,35.179,31.595,6.713,6.877,8.068
953,0.761,36.253,27.331,35.189,31.598,6.713,6.918,7.987
954,0.754,36.37,27.385,35.189,31.598,6.672,6.837,7.946
955,0.751,36.4,27.42,35.18,31.595,6.631,6.877,7.986
956,0.757,36.17,27.39,35.16,31.598,6.55,6.918,7.783
957,0.748,36.302,27.35,35.15,31.588,6.468,6.756,7.7
958,0.757,36.38,27.373,35.16,31.588,6.548,6.795,7.861
959,0.754,36.361,27.444,35.16,31.601,6.549,6.836,7.741
960,0.761,36.131,27.382,35.16,31.595,6.549,6.877,7.699
961,0.761,36.244,27.409,35.15,31.595,6.468,6.837,7.699
962,0.761,36.37,27.409,35.15,31.588,6.507,6.837,7.618
963,0.754,36.074,27.374,35.141,31.591,6.467,6.755,7.617
964,0.751,36.166,27.381,35.141,31.598,6.548,6.876,7.576
965,0.761,36.302,27.42,35.179,31.608,6.671,7.0,7.779
966,0.754,36.399,27.366,35.199,31.612,6.631,6.96,7.537
967,0.748,35.911,27.385,35.151,31.591,6.631,6.838,7.534
968,0.731,36.031,27.381,35.15,31.591,6.55,6.918,7.534
969,0.721,36.156,27.448,35.141,31.598,6.63,6.878,7.534
970,0.724,36.234,27.355,35.169,31.598,6.712,6.877,7.494
971,0.715,36.072,27.408,35.16,31.602,6.672,6.877,7.412
972,0.708,36.214,27.405,35.16,31.598,6.672,6.877,7.574
973,0.705,36.34,27.331,35.17,31.595,6.631,6.796,7.575
974,0.685,36.38,27.373,35.151,31.588,6.59,6.673,7.575
975,0.688,35.882,27.432,35.131,31.584,6.59,6.753,7.82
976,0.692,36.03,27.417,35.15,31.587,6.671,6.795,7.903
977,0.705,36.156,27.393,35.17,31.591,6.713,6.755,7.985
978,0.702,36.187,27.405,35.16,31.588,6.632,6.714,8.19
979,0.711,35.957,27.409,35.16,31.591,6.672,6.794,8.395
980,0.721,36.117,27.393,35.15,31.588,6.631,6.755,8.682
981,0.695,36.196,27.382,35.131,31.591,6.631,6.795,8.928
982,0.708,36.561,27.417,35.15,31.591,6.712,6.795,9.215
983,0.718,36.018,27.304,35.179,31.598,6.876,6.877,9.462
984,0.728,36.166,27.4,35.189,31.608,6.796,6.796,9.587
985,0.721,36.225,27.436,35.141,31.595,6.714,6.755,9.669
986,0.708,36.043,27.374,35.15,31.598,6.835,6.714,9.833
987,0.685,36.128,27.409,35.16,31.595,6.877,6.713,9.875
988,0.688,36.253,27.444,35.17,31.598,6.755,6.713,9.997
989,0.701,36.351,27.46,35.141,31.605,6.836,6.672,10.08
990,0.711,35.891,27.382,35.169,31.598,6.837,6.672,10.081
991,0.702,36.04,27.393,35.16,31.595,6.755,6.591,9.999
992,0.698,36.137,27.37,35.122,31.584,6.632,6.509,9.999
993,0.679,36.186,27.331,35.121,31.591,6.672,6.589,9.999
994,0.691,35.851,27.389,35.16,31.588,6.753,6.59,9.958
995,0.698,35.992,27.475,35.112,31.594,6.673,6.549,9.957
996,0.695,36.089,27.355,35.15,31.588,6.672,6.549,9.998
997,0.701,36.186,27.405,35.141,31.594,6.631,6.59,9.836
998,0.708,35.842,27.413,35.122,31.584,6.631,6.468,9.834
999,0.705,35.944,27.452,35.131,31.591,6.631,6.507,9.916
1000,0.715,36.098,27.402,35.15,31.601,6.753,6.67,9.998
1001,0.728,36.167,27.417,35.17,31.608,6.754,6.672,9.958
1002,0.734,35.88,27.397,35.141,31.595,6.632,6.631,9.835
1003,0.708,35.982,27.331,35.141,31.588,6.712,6.59,9.875
1004,0.715,36.089,27.424,35.141,31.594,6.713,6.59,9.835
1005,0.734,36.1,27.44,35.141,31.601,6.672,6.549,9.875
1006,0.734,35.86,27.386,35.141,31.595,6.672,6.59,9.753
1007,0.734,36.011,27.401,35.15,31.601,6.713,6.631,9.752
1008,0.721,36.118,27.44,35.16,31.602,6.713,6.55,9.712
1009,0.718,35.841,27.468,35.15,31.598,6.632,6.427,9.589
1010,0.702,35.79,27.413,35.112,31.588,6.509,6.426,9.507
1011,0.701,35.934,27.374,35.121,31.594,6.67,6.507,9.506
1012,0.721,36.04,27.405,35.131,31.595,6.672,6.589,9.465
1013,0.721,35.773,27.35,35.131,31.591,6.591,6.509,9.424
1014,0.754,35.885,27.393,35.121,31.595,6.712,6.549,9.383
1015,0.787,36.011,27.456,35.121,31.588,6.713,6.59,9.342
1016,0.826,36.108,27.39,35.112,31.588,6.713,6.468,9.26
1017,0.869,35.639,27.417,35.131,31.594,6.754,6.589,9.341
1018,0.937,35.817,27.397,35.169,31.608,6.917,6.631,9.342
1019,0.984,35.953,27.456,35.141,31.602,6.878,6.672,9.219
1020,1.02,36.012,27.382,35.122,31.598,6.877,6.591,9.096
1021,1.062,35.773,27.401,35.141,31.598,6.959,6.549,9.095
1022,1.102,35.905,27.405,35.131,31.595,6.919,6.63,9.014
1023,1.128,36.021,27.358,35.15,31.601,6.959,6.55,8.972
1024,1.155,36.099,27.373,35.141,31.598,7.041,6.59,8.891
1025,1.184,35.62,27.463,35.122,31.598,7.082,6.59,8.89
1026,1.233,35.769,27.347,35.131,31.602,6.961,6.509,8.727
1027,1.276,35.876,27.397,35.112,31.595,6.919,6.386,8.603
1028,1.306,35.886,27.378,35.102,31.588,6.959,6.507,8.643
1029,1.358,35.704,27.428,35.112,31.601,7.0,6.508,8.562
1030,1.414,35.837,27.417,35.121,31.588,7.001,6.508,8.561
1031,1.45,35.953,27.401,35.121,31.588,7.041,6.508,8.521
1032,1.483,35.849,27.428,35.112,31.591,7.042,6.508,8.398
1033,1.522,35.723,27.343,35.112,31.588,6.96,6.427,8.316
1034,1.533,35.866,27.408,35.112,31.591,6.96,6.466,8.274
1035,1.594,35.973,27.409,35.121,31.601,7.122,6.629,8.436
1036,1.647,35.734,27.339,35.15,31.605,7.165,6.712,8.438
1037,1.674,35.856,27.373,35.141,31.598,6.962,6.551,8.275
1038,1.707,35.934,27.428,35.102,31.595,6.96,6.59,8.233
1039,1.697,36.04,27.444,35.121,31.591,6.96,6.631,8.233
1040,1.694,35.514,27.437,35.121,31.598,6.96,6.59,8.233
1041,1.684,35.662,27.362,35.121,31.595,6.96,6.631,8.233
1042,1.677,35.779,27.397,35.131,31.601,6.96,6.55,8.192
1043,1.645,35.866,27.358,35.121,31.595,7.041,6.59,8.151
1044,1.628,35.57,27.389,35.093,31.595,6.879,6.468,8.11
1045,1.579,35.692,27.424,35.092,31.584,6.796,6.507,8.069
1046,1.501,35.798,27.358,35.111,31.587,6.877,6.549,8.069
1047,1.406,35.914,27.408,35.112,31.594,6.796,6.59,8.109
1048,1.274,35.58,27.397,35.112,31.595,6.795,6.59,8.191
1049,1.153,35.711,27.46,35.112,31.595,6.795,6.549,8.192
1050,0.963,35.818,27.355,35.112,31.591,6.795,6.468,8.354
1051,0.805,35.867,27.416,35.083,31.591,6.755,6.589,8.478
1052,0.702,35.522,27.413,35.111,31.601,6.917,6.671,8.845
1053,0.607,35.681,27.362,35.15,31.605,7.0,6.794,9.011
1054,0.538,35.789,27.393,35.141,31.591,6.879,6.633,9.176
1055,0.472,35.847,27.417,35.112,31.601,6.877,6.59,9.421
1056,0.393,35.589,27.351,35.14,31.598,6.796,6.712,9.749
1057,0.341,35.721,27.412,35.112,31.595,6.958,6.632,9.996
1058,0.288,35.818,27.413,35.112,31.595,6.919,6.631,10.243
1059,0.229,35.445,27.452,35.121,31.595,6.919,6.672,10.489
1060,0.189,35.527,27.448,35.112,31.601,6.878,6.591,10.654
1061,0.137,35.643,27.398,35.093,31.584,6.755,6.468,10.737
1062,0.081,35.712,27.424,35.083,31.594,6.917,6.629,10.982
1063,0.061,35.377,27.327,35.102,31.601,6.878,6.631,11.025
1064,0.054,35.536,27.385,35.102,31.598,6.959,6.59,11.147
1065,0.031,35.643,27.44,35.102,31.591,6.919,6.549,11.149
1066,0.028,35.721,27.409,35.083,31.591,6.919,6.59,11.23
1067,0.015,35.405,27.389,35.102,31.591,6.796,6.631,11.312
1068,0.008,35.546,27.397,35.092,31.595,6.917,6.59,11.435
1069,0.012,35.663,27.405,35.121,31.605,6.959,6.712,11.639
1070,0.038,35.76,27.417,35.141,31.602,7.041,6.672,11.56
1071,0.061,35.492,27.39,35.112,31.595,6.92,6.631,11.6
1072,0.061,35.614,27.405,35.102,31.595,6.919,6.712,11.641
1073,0.084,35.702,27.335,35.112,31.595,6.878,6.591,11.763
1074,0.116,35.76,27.381,35.112,31.595,6.877,6.59,11.887
1075,0.133,35.367,27.444,35.102,31.598,6.918,6.59,12.01
1076,0.156,35.507,27.39,35.131,31.598,6.959,6.631,12.174
1077,0.182,35.633,27.409,35.121,31.595,7.0,6.59,12.216
1078,0.208,35.922,27.37,35.102,31.588,6.919,6.468,12.216
1079,0.225,35.388,27.432,35.083,31.584,6.878,6.467,12.298
1080,0.254,35.488,27.351,35.083,31.594,7.0,6.507,12.502
1081,0.287,35.672,27.42,35.083,31.601,6.96,6.549,12.748
1082,0.327,35.424,27.37,35.102,31.598,7.0,6.549,12.872
1083,0.356,35.479,27.334,35.083,31.588,7.001,6.508,13.158
1084,0.386,35.604,27.373,35.092,31.584,7.082,6.467,13.242
1085,0.422,35.692,27.42,35.073,31.591,7.042,6.467,13.324
1086,0.464,35.194,27.378,35.092,31.595,7.164,6.548,13.65
1087,0.51,35.352,27.389,35.111,31.601,7.287,6.59,13.898
1088,0.556,35.498,27.448,35.112,31.612,7.166,6.509,13.941
1089,0.609,35.576,27.487,35.102,31.595,7.124,6.467,14.104
1090,0.593,35.203,27.425,35.102,31.595,7.083,6.467,14.146
1091,0.635,35.352,27.413,35.112,31.591,7.083,6.507,14.309
1092,0.652,35.498,27.39,35.083,31.598,7.123,6.508,14.311
1093,0.681,35.566,27.335,35.102,31.598,7.124,6.508,14.351
1094,0.695,35.231,27.393,35.102,31.598,7.124,6.508,14.311
1095,0.711,35.372,27.409,35.112,31.588,7.083,6.386,14.189
1096,0.721,35.479,27.37,35.083,31.588,6.961,6.303,14.025
1097,0.731,35.499,27.35,35.054,31.588,7.0,6.425,13.983
1098,0.747,35.585,27.44,35.082,31.594,7.082,6.466,13.86
1099,0.757,35.73,27.46,35.073,31.595,7.042,6.386,13.737
1100,0.767,35.847,27.417,35.083,31.588,7.042,6.344,13.573
1101,0.761,35.848,27.413,35.073,31.588,7.001,6.303,13.327
1102,0.767,35.109,27.374,35.063,31.584,7.001,6.302,13.162
1103,0.764,35.227,27.37,35.063,31.591,7.001,6.384,13.039
1104,0.767,35.362,27.35,35.073,31.601,7.123,6.466,12.997
1105,0.777,35.296,27.428,35.092,31.612,7.165,6.548,12.753
1106,0.78,35.305,27.347,35.092,31.595,7.002,6.386,12.506
1107,0.774,35.401,27.377,35.092,31.591,7.041,6.385,12.341
1108,0.767,35.498,27.416,35.083,31.595,7.042,6.385,12.177
1109,0.767,35.125,27.475,35.083,31.598,7.042,6.385,11.972
1110,0.78,35.227,27.386,35.073,31.598,7.042,6.466,11.889
1111,0.777,35.391,27.428,35.083,31.602,7.123,6.426,11.725
1112,0.771,35.498,27.413,35.092,31.602,7.124,6.426,11.52
1113,0.787,35.077,27.35,35.083,31.595,7.124,6.385,11.234
1114,0.78,35.217,27.35,35.063,31.584,7.002,6.303,11.109
1115,0.777,35.314,27.397,35.063,31.587,7.204,6.425,10.985
1116,0.777,35.411,27.327,35.092,31.594,7.206,6.426,11.025
1117,0.806,35.143,27.365,35.073,31.591,7.165,6.426,10.822
1118,0.8,35.294,27.42,35.063,31.591,7.165,6.426,10.657
1119,0.816,35.392,27.429,35.073,31.591,7.165,6.385,10.534
1120,0.803,35.45,27.413,35.063,31.588,7.124,6.425,10.41
1121,0.81,35.048,27.37,35.073,31.588,7.205,6.426,10.409
1122,0.813,35.216,27.416,35.092,31.601,7.287,6.548,10.409
1123,0.82,35.362,27.374,35.169,31.605,7.329,6.508,10.287
1124,0.836,35.383,27.413,35.083,31.595,7.167,6.508,10.083
1125,0.826,35.086,27.425,35.063,31.591,7.206,6.549,10.081
1126,0.826,35.236,27.323,35.082,31.595,7.247,6.549,9.918
1127,0.82,35.333,27.377,35.083,31.595,7.166,6.508,9.957
1128,0.82,35.267,27.44,35.083,31.598,7.206,6.508,9.876
1129,0.817,35.132,27.421,35.092,31.598,7.206,6.549,9.753
1130,0.816,35.294,27.39,35.092,31.598,7.287,6.508,9.63
1131,0.813,35.372,27.385,35.064,31.595,7.207,6.467,9.507
1132,0.803,35.009,27.378,35.044,31.588,7.206,6.386,9.465
1133,0.807,35.101,27.342,35.054,31.594,7.328,6.547,9.343
1134,0.813,35.284,27.377,35.073,31.595,7.451,6.549,9.464
1135,0.816,35.353,27.452,35.054,31.595,7.452,6.508,9.343
1136,0.82,34.855,27.347,35.063,31.588,7.452,6.467,9.219
1137,0.83,35.013,27.393,35.063,31.588,7.493,6.426,9.178
1138,0.83,35.13,27.393,35.035,31.584,7.494,6.507,9.137
1139,0.82,35.217,27.448,35.053,31.594,7.616,6.508,9.095
1140,0.839,35.161,27.413,35.082,31.608,7.657,6.67,9.054
1141,0.856,35.342,27.405,35.083,31.605,7.658,6.55,8.973
1142,0.853,35.421,27.382,35.054,31.602,7.576,6.508,8.85
1143,0.853,35.498,27.327,35.073,31.598,7.575,6.549,8.808
1144,0.853,34.837,27.4,35.063,31.595,7.535,6.468,8.726
1145,0.859,34.984,27.428,35.073,31.595,7.575,6.467,8.685
1146,0.849,35.12,27.355,35.073,31.605,7.616,6.507,8.603
1147,0.853,35.179,27.373,35.073,31.602,7.535,6.508,8.602
1148,0.836,35.074,27.42,35.063,31.595,7.534,6.467,8.44
1149,0.839,35.198,27.413,35.035,31.581,7.372,6.386,8.316
1150,0.826,35.285,27.366,35.034,31.594,7.492,6.466,8.356
1151,0.839,35.439,27.385,35.025,31.595,7.575,6.426,8.275
1152,0.862,34.933,27.405,35.053,31.588,7.494,6.385,8.274
1153,0.843,35.081,27.307,35.034,31.594,7.371,6.303,8.193
1154,0.839,35.159,27.396,35.044,31.584,7.37,6.384,8.11
1155,0.839,34.892,27.432,35.025,31.584,7.33,6.385,8.15
1156,0.836,34.994,27.347,35.053,31.594,7.41,6.466,8.313
1157,0.859,35.158,27.416,35.063,31.605,7.452,6.548,8.315
1158,0.882,35.275,27.409,35.063,31.598,7.371,6.427,8.396
1159,0.872,34.816,27.444,35.025,31.595,7.289,6.426,8.438
1160,0.892,34.946,27.386,35.053,31.595,7.369,6.385,8.641
1161,0.889,35.091,27.397,35.044,31.601,7.33,6.425,8.765
1162,0.892,35.169,27.389,35.044,31.602,7.37,6.466,9.051
1163,0.886,34.882,27.358,35.054,31.602,7.33,6.426,9.379
1164,0.902,35.023,27.377,35.054,31.595,7.329,6.385,9.667
1165,0.889,35.111,27.463,35.015,31.588,7.207,6.303,9.833
1166,0.879,35.169,27.339,35.015,31.588,7.206,6.343,10.322
1167,0.879,34.93,27.397,35.024,31.588,7.287,6.384,10.53
1168,0.879,35.081,27.389,35.044,31.594,7.207,6.344,10.777
1169,0.885,35.188,27.432,35.025,31.591,7.206,6.343,10.982
1170,0.869,35.237,27.37,35.025,31.595,7.125,6.343,11.106
1171,0.872,34.797,27.366,34.986,31.588,7.043,6.343,11.148
1172,0.879,34.917,27.397,35.015,31.591,7.082,6.384,11.311
1173,0.892,35.062,27.358,35.034,31.598,7.205,6.466,11.435
1174,0.889,35.13,27.397,35.063,31.608,7.165,6.589,11.436
1175,0.895,34.901,27.436,35.035,31.602,7.002,6.387,11.314
1176,0.886,35.004,27.316,35.034,31.598,7.001,6.385,11.353
1177,0.898,35.111,27.353,35.015,31.591,6.96,6.385,11.354
1178,0.908,34.738,27.428,35.015,31.591,7.041,6.425,11.232
1179,0.921,34.724,27.46,35.015,31.598,6.92,6.466,11.231
1180,0.909,34.868,27.429,35.024,31.598,7.0,6.386,11.149
1181,0.925,34.985,27.397,35.034,31.595,6.96,6.466,11.108
1182,0.918,34.746,27.436,35.025,31.591,6.878,6.386,10.945
1183,0.915,34.887,27.351,35.034,31.581,6.796,6.263,10.902
1184,0.922,34.994,27.389,34.977,31.584,6.958,6.384,10.943
1185,0.931,35.101,27.448,34.995,31.598,6.96,6.385,10.862
1186,0.941,34.709,27.366,34.996,31.591,7.041,6.385,10.78
1187,0.925,34.868,27.37,35.005,31.595,7.042,6.385,10.82
1188,0.918,34.975,27.428,34.996,31.588,7.042,6.344,10.739
1189,0.915,35.043,27.476,34.976,31.584,7.001,6.343,10.697
1190,0.905,34.555,27.425,34.986,31.594,7.082,6.425,10.737
1191,0.925,34.723,27.397,35.024,31.601,7.245,6.507,10.779
1192,0.941,34.868,27.382,35.034,31.608,7.328,6.467,10.738
1193,0.958,34.927,27.381,35.025,31.598,7.167,6.386,10.616
1194,0.919,34.755,27.358,35.005,31.598,7.124,6.425,10.493
1195,0.931,34.878,27.416,35.015,31.595,7.124,6.466,10.532
1196,0.941,35.013,27.331,35.015,31.595,7.205,6.304,10.41
1197,0.951,35.015,27.385,35.005,31.601,7.206,6.384,10.369
1198,0.964,34.679,27.389,35.005,31.595,7.125,6.385,10.368
1199,0.968,34.81,27.448,34.986,31.598,7.205,6.303,10.287
1200,0.964,34.907,27.433,34.995,31.588,7.043,6.18,10.083
1201,0.968,34.726,27.39,34.976,31.581,7.001,6.22,10.121
1202,0.977,34.695,27.428,34.995,31.594,7.082,6.302,10.122
1203,0.981,34.839,27.374,35.063,31.595,7.042,6.343,10.041
1204,0.994,34.946,27.413,34.987,31.588,7.082,6.343,9.877
1205,1.004,34.535,27.401,34.976,31.588,6.961,6.303,9.876
1206,1.0,34.655,27.327,34.976,31.591,6.96,6.262,9.713
1207,0.994,34.791,27.35,34.957,31.588,7.0,6.262,9.67
1208,0.991,34.869,27.424,34.976,31.594,7.041,6.384,9.67
1209,1.0,34.697,27.425,34.995,31.612,7.164,6.466,9.751
1210,1.004,34.868,27.421,35.024,31.605,7.084,6.467,9.508
1211,1.01,34.965,27.362,34.986,31.595,7.002,6.386,9.425
1212,1.001,35.053,27.432,34.995,31.595,7.041,6.425,9.424
1213,1.004,34.507,27.351,34.986,31.595,7.001,6.385,9.342
1214,1.004,34.655,27.369,35.015,31.595,7.001,6.466,9.301
1215,1.014,34.781,27.436,34.986,31.598,6.96,6.507,9.26
1216,1.014,34.849,27.323,35.005,31.605,7.082,6.508,9.178
1217,1.03,34.534,27.404,34.986,31.595,6.92,6.345,8.974
1218,1.04,34.665,27.366,34.967,31.581,6.837,6.343,8.931
1219,1.037,34.762,27.428,34.986,31.591,6.918,6.547,8.931
1220,1.053,34.811,27.37,34.986,31.595,6.959,6.427,8.85
1221,1.063,34.553,27.381,34.986,31.584,6.919,6.466,8.849
1222,1.056,34.675,27.381,34.976,31.594,6.878,6.467,8.808
1223,1.063,34.8,27.381,34.986,31.584,6.877,6.507,8.726
1224,1.069,34.744,27.397,34.967,31.591,6.837,6.508,8.726
1225,1.076,34.552,27.424,34.966,31.591,6.999,6.549,8.848
1226,1.079,34.713,27.339,35.014,31.608,7.001,6.671,8.849
1227,1.102,34.849,27.416,35.015,31.609,7.001,6.631,8.686
1228,1.089,34.572,27.425,34.977,31.595,6.919,6.55,8.725
1229,1.076,34.665,27.425,34.967,31.601,6.878,6.508,8.726
1230,1.089,34.81,27.378,34.976,31.595,6.959,6.63,8.685
1231,1.092,34.907,27.405,34.995,31.595,6.838,6.59,8.684
1232,1.099,34.621,27.397,34.967,31.595,6.999,6.631,8.766
1233,1.102,34.762,27.335,34.995,31.612,6.879,6.631,8.767
1234,1.099,34.888,27.381,34.976,31.595,6.796,6.55,8.645
1235,1.106,34.937,27.417,34.938,31.581,6.755,6.468,8.562
1236,1.109,34.717,27.393,34.928,31.587,6.673,6.589,8.764
1237,1.119,34.926,27.366,34.966,31.591,6.794,6.59,8.726
1238,1.145,35.033,27.412,34.957,31.595,6.836,6.549,8.726
1239,1.142,35.082,27.421,34.957,31.591,6.755,6.59,8.807
1240,1.151,34.718,27.405,34.947,31.591,6.632,6.509,8.848
1241,1.155,34.858,27.386,34.947,31.588,6.631,6.549,8.93
1242,1.161,34.965,27.381,34.966,31.591,6.672,6.59,9.256
1243,1.158,35.034,27.342,34.976,31.605,6.753,6.671,9.544
1244,1.184,34.919,27.365,34.995,31.602,6.754,6.672,9.669
1245,1.197,35.033,27.42,34.938,31.591,6.714,6.631,9.833
1246,1.201,35.13,27.37,34.966,31.595,6.672,6.631,9.916
1247,1.194,35.457,27.389,34.966,31.591,6.672,6.712,10.12
1248,1.191,35.125,27.413,34.957,31.595,6.631,6.632,10.244
1249,1.198,35.256,27.456,34.957,31.601,6.753,6.631,10.408
1250,1.204,35.372,27.386,34.976,31.598,6.714,6.712,10.369
1251,1.201,35.162,27.413,34.957,31.591,6.713,6.51,10.368
1252,1.198,35.218,27.35,34.928,31.584,6.591,6.589,10.368
1253,1.201,35.352,27.373,34.947,31.594,6.671,6.59,10.409
1254,1.207,35.478,27.381,34.957,31.595,6.672,6.631,10.531
1255,1.204,35.403,27.432,34.938,31.588,6.631,6.55,10.37
1256,1.214,35.508,27.382,34.947,31.584,6.672,6.508,10.368
1257,1.23,35.643,27.342,34.938,31.591,6.713,6.467,10.287
1258,1.227,35.712,27.369,34.918,31.588,6.713,6.507,10.245
1259,1.243,35.549,27.405,34.937,31.598,6.835,6.63,10.408
1260,1.263,35.72,27.401,34.985,31.602,6.958,6.753,10.409
1261,1.27,35.856,27.417,34.957,31.598,6.878,6.551,10.247
1262,1.273,35.896,27.382,34.957,31.598,6.837,6.63,10.204
1263,1.276,35.858,27.331,34.947,31.595,6.877,6.631,10.163
1264,1.28,35.992,27.377,34.938,31.595,6.959,6.631,10.082
1265,1.267,36.099,27.432,34.947,31.595,7.0,6.59,10.121
1266,1.273,36.128,27.37,34.957,31.601,6.96,6.59,10.122
1267,1.26,36.052,27.35,34.938,31.595,6.96,6.631,10.081
1268,1.257,36.166,27.416,34.928,31.591,6.838,6.509,9.837
1269,1.247,36.254,27.413,34.918,31.588,6.796,6.427,9.875
1270,1.25,36.274,27.378,34.928,31.588,6.958,6.548,9.835
1271,1.253,36.437,27.389,34.947,31.594,6.878,6.508,9.794
1272,1.247,36.573,27.393,34.928,31.595,6.877,6.467,9.793
1273,1.253,36.68,27.354,34.909,31.595,6.877,6.467,9.671
1274,1.25,36.604,27.354,34.928,31.584,6.877,6.426,9.711
1275,1.25,36.661,27.405,34.909,31.591,6.796,6.466,9.63
1276,1.257,36.776,27.354,34.928,31.598,6.958,6.548,9.792
1277,1.273,36.921,27.381,34.966,31.608,7.0,6.671,9.793
1278,1.306,36.75,27.401,34.957,31.609,7.001,6.55,9.631
1279,1.28,36.873,27.471,34.928,31.588,6.879,6.427,9.629
1280,1.293,36.961,27.367,34.937,31.594,6.959,6.548,9.548
1281,1.29,37.058,27.432,34.937,31.595,6.96,6.59,9.547
1282,1.29,37.049,27.386,34.928,31.595,6.96,6.509,9.506
1283,1.283,37.174,27.35,34.947,31.598,6.919,6.549,9.465
1284,1.293,37.299,27.401,34.928,31.598,6.919,6.549,9.465
1285,1.299,37.358,27.413,34.918,31.591,6.837,6.468,9.18
1286,1.293,37.503,27.339,34.899,31.584,6.755,6.426,9.137
1287,1.273,37.61,27.338,34.889,31.587,6.795,6.466,9.217
1288,1.276,37.735,27.408,34.908,31.598,6.917,6.507,9.137
1289,1.276,37.775,27.436,34.918,31.595,6.837,6.508,9.095
1290,1.257,37.708,27.401,34.909,31.591,6.877,6.467,8.973
1291,1.253,37.832,27.382,34.908,31.591,6.837,6.426,8.891
1292,1.25,37.92,27.413,34.908,31.584,6.714,6.426,8.971
1293,1.244,37.94,27.335,34.908,31.587,6.794,6.466,8.809
1294,1.244,38.103,27.397,34.908,31.598,6.877,6.548,8.97
1295,1.247,38.248,27.448,34.956,31.608,6.959,6.712,8.891
1296,1.26,38.346,27.382,34.938,31.602,6.878,6.632,8.768
1297,1.254,38.203,27.362,34.918,31.591,6.877,6.55,8.726
1298,1.247,38.153,27.362,34.899,31.595,6.877,6.59,8.685
1299,1.237,38.268,27.424,34.899,31.595,6.837,6.631,8.603
1300,1.24,38.356,27.366,34.927,31.601,6.837,6.59,8.602
1301,1.247,38.414,27.393,34.947,31.598,6.918,6.671,8.602
1302,1.231,38.549,27.417,34.928,31.598,6.796,6.631,8.44
1303,1.227,38.646,27.362,34.918,31.588,6.714,6.55,8.357
1304,1.214,38.705,27.381,34.889,31.584,6.713,6.59,8.315
1305,1.198,38.619,27.436,34.899,31.594,6.835,6.631,8.437
1306,1.204,38.752,27.331,34.918,31.595,6.755,6.631,8.316
1307,1.181,38.878,27.35,34.899,31.588,6.714,6.631,8.315
1308,1.168,38.918,27.385,34.899,31.591,6.632,6.59,8.274
1309,1.162,38.803,27.417,34.908,31.588,6.631,6.549,8.193
1310,1.142,38.936,27.327,34.87,31.588,6.712,6.549,8.151
1311,1.142,39.053,27.4,34.908,31.594,6.754,6.671,8.232
1312,1.122,39.111,27.401,34.937,31.608,6.795,6.794,8.273
1313,1.132,39.16,27.37,34.937,31.598,6.836,6.673,8.071
1314,1.112,39.256,27.416,34.918,31.598,6.714,6.631,8.109
1315,1.106,39.344,27.444,34.918,31.595,6.713,6.672,8.069
1316,1.089,39.364,27.359,34.909,31.595,6.713,6.631,8.109
1317,1.086,39.22,27.381,34.918,31.595,6.713,6.712,7.987
1318,1.089,39.343,27.444,34.909,31.605,6.713,6.672,7.946
1319,1.079,39.44,27.448,34.918,31.598,6.713,6.713,7.945
1320,1.076,39.537,27.425,34.889,31.591,6.754,6.551,7.701
1321,1.05,39.404,27.339,34.87,31.584,6.632,6.508,7.699
1322,1.043,39.518,27.389,34.889,31.591,6.794,6.589,7.78
1323,1.056,39.653,27.362,34.908,31.598,6.877,6.549,7.659
1324,1.05,39.434,27.405,34.889,31.591,6.918,6.508,7.739
1325,1.02,39.508,27.397,34.87,31.595,6.919,6.467,7.659
1326,1.023,39.634,27.323,34.889,31.588,6.919,6.467,7.698
1327,1.001,39.721,27.381,34.87,31.588,7.0,6.507,7.78
1328,0.991,39.511,27.393,34.898,31.598,7.123,6.589,8.025
1329,0.997,39.662,27.456,34.927,31.608,7.287,6.671,8.231
1330,1.01,39.817,27.433,34.918,31.598,7.247,6.55,8.273
1331,0.958,39.838,27.386,34.889,31.591,7.206,6.549,8.436
1332,0.941,39.829,27.354,34.899,31.601,7.247,6.549,8.519
1333,0.945,39.934,27.354,34.908,31.591,7.247,6.549,8.845
1334,0.938,40.079,27.377,34.908,31.601,7.288,6.549,9.011
1335,0.945,40.109,27.416,34.889,31.602,7.247,6.468,9.298
1336,0.925,39.736,27.351,34.908,31.598,7.328,6.507,9.585
1337,0.931,39.847,27.401,34.889,31.591,7.207,6.386,9.588
1338,0.925,39.906,27.362,34.86,31.581,7.125,6.385,9.791
1339,0.918,39.954,27.448,34.889,31.594,7.165,6.507,10.118
1340,0.918,40.06,27.39,34.879,31.595,7.165,6.467,10.163
1341,0.918,40.195,27.393,34.889,31.584,7.165,6.467,10.244
1342,0.905,40.283,27.417,34.879,31.594,7.165,6.386,10.326
1343,0.902,40.581,27.319,34.889,31.588,7.084,6.466,10.368
1344,0.902,40.047,27.392,34.87,31.591,7.083,6.467,10.368
1345,0.905,40.138,27.417,34.87,31.598,7.164,6.629,10.531
1346,0.899,40.254,27.366,34.927,31.608,7.246,6.631,10.573
1347,0.908,40.006,27.373,34.909,31.605,7.084,6.55,10.451
1348,0.876,40.032,27.405,34.87,31.591,7.042,6.508,10.369
1349,0.863,40.118,27.425,34.889,31.601,7.001,6.589,10.409
1350,0.853,40.215,27.401,34.899,31.595,7.001,6.631,10.247
1351,0.853,40.063,27.366,34.87,31.595,7.001,6.59,10.286
1352,0.846,40.186,27.416,34.898,31.598,7.001,6.59,10.245
1353,0.853,40.283,27.37,34.88,31.595,7.041,6.59,10.164
1354,0.853,40.37,27.385,34.889,31.595,6.798,6.468,10.0
1355,0.846,40.035,27.393,34.841,31.588,6.917,6.548,10.08
1356,0.84,40.176,27.358,34.879,31.594,6.959,6.549,10.04
1357,0.839,40.312,27.377,34.87,31.595,6.96,6.427,9.999
1358,0.856,40.361,27.377,34.879,31.591,6.96,6.466,9.836
1359,0.849,40.102,27.428,34.86,31.588,6.919,6.386,9.834
1360,0.849,40.244,27.39,34.85,31.588,6.878,6.507,9.753
1361,0.853,40.351,27.409,34.879,31.598,6.959,6.589,9.833
1362,0.862,40.409,27.413,34.918,31.605,7.122,6.671,9.834
1363,0.866,40.103,27.393,34.899,31.602,7.002,6.509,9.59
1364,0.849,40.215,27.374,34.88,31.595,7.001,6.549,9.588
1365,0.856,40.293,27.424,34.87,31.595,6.96,6.468,9.588
1366,0.846,40.284,27.37,34.879,31.598,7.0,6.589,9.547
1367,0.833,40.111,27.358,34.889,31.595,6.96,6.549,9.506
1368,0.833,40.215,27.346,34.879,31.608,7.082,6.63,9.546
1369,0.839,40.331,27.436,34.879,31.595,7.002,6.55,9.425
1370,0.826,40.131,27.374,34.87,31.588,6.96,6.427,9.261
1371,0.807,40.139,27.397,34.831,31.581,6.919,6.466,9.3
1372,0.807,40.254,27.366,34.869,31.598,7.0,6.507,9.301
1373,0.826,40.322,27.342,34.851,31.591,7.001,6.589,9.26
1374,0.807,40.169,27.385,34.86,31.591,7.001,6.549,9.259
1375,0.807,40.283,27.413,34.86,31.591,7.001,6.508,9.219
1376,0.81,40.389,27.374,34.86,31.591,6.919,6.427,9.096
1377,0.82,40.448,27.334,34.86,31.584,6.919,6.466,9.095
1378,0.826,40.036,27.377,34.86,31.591,6.959,6.589,9.136
1379,0.826,40.166,27.416,34.879,31.608,7.122,6.631,9.177
1380,0.836,40.302,27.432,34.899,31.605,7.002,6.59,9.015
1381,0.836,40.322,27.386,34.87,31.595,6.96,6.509,8.932
1382,0.839,40.121,27.385,34.86,31.595,7.0,6.589,8.931
1383,0.839,40.244,27.335,34.86,31.595,7.001,6.631,8.768
1384,0.839,40.37,27.393,34.86,31.591,6.96,6.672,8.685
1385,0.83,40.409,27.424,34.85,31.598,7.082,6.713,8.766
1386,0.839,40.093,27.347,34.869,31.595,7.002,6.632,8.563
1387,0.82,40.224,27.373,34.87,31.588,6.96,6.509,8.439
1388,0.813,40.293,27.37,34.822,31.581,6.878,6.589,8.438
1389,0.81,40.294,27.452,34.86,31.598,6.959,6.793,8.397
1390,0.816,40.083,27.363,34.86,31.595,7.0,6.755,8.356
1391,0.826,40.215,27.401,34.85,31.595,6.96,6.714,8.356
1392,0.807,40.322,27.378,34.841,31.588,6.96,6.713,8.437
1393,0.81,40.265,27.346,34.85,31.591,6.96,6.672,8.397
1394,0.8,40.226,27.35,34.841,31.584,6.96,6.753,8.641
1395,0.816,40.35,27.44,34.86,31.601,7.041,6.876,8.847
1396,0.813,40.438,27.405,34.879,31.602,7.164,7.0,9.052
1397,0.826,39.94,27.389,34.879,31.598,7.043,6.838,9.135
1398,0.817,39.993,27.35,34.86,31.588,7.042,6.918,9.421
1399,0.826,40.099,27.436,34.87,31.594,7.042,6.837,9.668
1400,0.83,40.177,27.405,34.86,31.595,7.123,6.918,9.955
1401,0.83,40.062,27.362,34.85,31.595,7.083,6.837,10.242
1402,0.836,40.215,27.389,34.879,31.595,7.083,6.877,10.53
1403,0.843,40.302,27.335,34.879,31.601,7.042,6.918,10.695
1404,0.839,40.361,27.373,34.841,31.588,6.96,6.756,10.697
1405,0.836,39.911,27.401,34.821,31.584,6.878,6.836,10.9
1406,0.839,40.069,27.354,34.85,31.591,6.959,6.796,11.024
1407,0.843,40.186,27.381,34.85,31.591,6.96,6.795,11.066
1408,0.826,40.245,27.377,34.841,31.591,6.96,6.755,11.107
1409,0.826,39.929,27.432,34.821,31.588,6.919,6.795,11.067
1410,0.813,40.069,27.405,34.84,31.588,6.837,6.714,11.026
1411,0.81,40.157,27.362,34.831,31.591,6.877,6.876,11.107
1412,0.81,40.196,27.397,34.841,31.598,6.959,6.959,11.108
1413,0.816,40.024,27.343,34.879,31.605,7.082,7.0,11.067
1414,0.826,40.147,27.369,34.86,31.591,6.92,6.838,10.904
1415,0.804,40.206,27.424,34.85,31.595,6.919,6.877,10.902
1416,0.81,40.216,27.315,34.85,31.595,6.878,6.837,10.78
1417,0.82,39.976,27.373,34.85,31.598,6.877,6.877,10.738
1418,0.833,40.108,27.397,34.85,31.598,6.918,6.837,10.657
1419,0.843,40.177,27.487,34.85,31.602,6.959,6.877,10.615
1420,0.839,39.909,27.414,34.841,31.595,6.797,6.796,10.574
1421,0.833,39.973,27.409,34.831,31.581,6.795,6.673,10.289
1422,0.826,40.06,27.374,34.802,31.581,6.755,6.672,10.367
1423,0.826,40.176,27.37,34.85,31.594,6.795,6.753,10.328
1424,0.839,39.823,27.346,34.812,31.595,6.836,6.714,10.286
1425,0.843,39.944,27.397,34.812,31.595,6.837,6.713,10.164
1426,0.83,40.05,27.319,34.821,31.591,6.837,6.672,10.082
1427,0.826,40.128,27.365,34.812,31.591,6.796,6.672,9.959
1428,0.82,39.87,27.412,34.812,31.588,6.755,6.672,9.957
1429,0.826,39.992,27.429,34.821,31.598,6.836,6.713,9.998
1430,0.83,40.137,27.421,34.85,31.612,7.04,6.835,10.039
1431,0.83,40.196,27.401,34.831,31.598,6.879,6.674,9.836
1432,0.813,39.909,27.401,34.841,31.598,6.837,6.672,9.794
1433,0.823,40.002,27.268,34.831,31.588,6.918,6.713,9.712
1434,0.807,40.118,27.357,34.831,31.594,6.796,6.632,9.752
1435,0.813,40.148,27.393,34.85,31.598,6.836,6.712,9.671
1436,0.823,39.832,27.319,34.841,31.595,6.877,6.754,9.629
1437,0.836,39.944,27.342,34.841,31.595,6.837,6.714,9.588
1438,0.856,40.05,27.4,34.831,31.591,6.714,6.632,9.425
1439,0.853,40.358,27.405,34.783,31.584,6.713,6.631,9.302
1440,0.849,39.892,27.389,34.792,31.591,6.713,6.672,9.341
1441,0.846,40.021,27.413,34.811,31.595,6.794,6.713,9.301
1442,0.807,40.118,27.386,34.812,31.588,6.755,6.713,9.26
1443,0.813,39.755,27.37,34.831,31.594,6.592,6.672,9.178
1444,0.842,39.799,27.354,34.793,31.591,6.793,6.753,9.015
1445,0.817,39.896,27.416,34.783,31.588,6.633,6.754,8.972
1446,0.816,39.992,27.335,34.811,31.594,6.712,6.836,9.013
1447,0.833,39.725,27.397,34.84,31.598,6.957,6.999,9.054
1448,0.83,39.876,27.389,34.869,31.602,6.797,6.96,8.932
1449,0.826,39.963,27.428,34.793,31.595,6.714,6.919,8.809
1450,0.81,40.031,27.366,34.802,31.591,6.754,6.878,8.726
1451,0.807,39.687,27.393,34.812,31.595,6.754,6.959,8.726
1452,0.807,39.818,27.362,34.812,31.601,6.795,6.96,8.685
1453,0.823,39.924,27.323,34.821,31.602,6.836,7.0,8.644
1454,0.81,39.993,27.365,34.821,31.602,6.837,7.001,8.521
1455,0.813,39.763,27.412,34.793,31.588,6.837,6.919,8.358
1456,0.8,39.876,27.35,34.763,31.584,6.837,6.919,8.478
1457,0.813,39.992,27.334,34.802,31.591,6.958,7.0,8.52
1458,0.826,40.041,27.397,34.792,31.591,6.96,7.001,8.642
1459,0.843,39.754,27.46,34.792,31.595,6.878,6.96,8.806
1460,0.839,39.885,27.386,34.802,31.595,7.0,6.96,8.93
1461,0.839,39.983,27.342,34.783,31.588,6.96,6.96,9.053
1462,0.833,39.984,27.358,34.773,31.591,7.0,6.96,9.298
1463,0.836,39.552,27.33,34.811,31.605,7.123,7.204,9.707
1464,0.843,39.692,27.404,34.821,31.612,7.124,7.125,9.914
1465,0.856,39.76,27.405,34.802,31.591,7.002,6.961,10.079
1466,0.84,39.665,27.382,34.792,31.588,7.082,7.041,10.406
1467,0.836,39.731,27.374,34.802,31.594,7.083,7.042,10.653
1468,0.846,39.847,27.37,34.812,31.601,7.042,7.042,10.9
1469,0.82,39.925,27.405,34.802,31.595,7.123,7.082,10.983
1470,0.817,39.465,27.393,34.802,31.605,7.043,6.961,11.147
1471,0.823,39.585,27.382,34.792,31.595,7.001,6.96,11.026
1472,0.81,39.663,27.362,34.754,31.584,6.879,6.838,11.188
1473,0.816,39.712,27.33,34.763,31.587,7.0,6.999,11.312
1474,0.813,39.454,27.373,34.782,31.591,6.96,7.041,11.313
1475,0.803,39.585,27.428,34.783,31.595,7.0,7.001,11.232
1476,0.81,39.673,27.366,34.783,31.591,6.879,7.001,11.231
1477,0.813,39.75,27.366,34.773,31.588,6.837,7.001,11.068
1478,0.826,39.233,27.354,34.773,31.588,6.837,7.001,11.107
1479,0.836,39.382,27.455,34.792,31.594,6.918,7.123,11.23
1480,0.836,39.517,27.386,34.821,31.601,7.0,7.287,11.149
1481,0.839,39.586,27.405,34.821,31.608,6.919,7.125,10.904
1482,0.826,39.28,27.362,34.802,31.591,6.837,7.124,10.902
1483,0.817,39.372,27.362,34.802,31.588,6.796,7.083,10.739
1484,0.839,39.498,27.389,34.792,31.598,6.795,7.083,10.616
1485,0.843,39.509,27.413,34.773,31.591,6.714,7.123,10.615
1486,0.849,39.145,27.393,34.802,31.598,6.794,7.124,10.493
1487,0.843,39.294,27.401,34.792,31.602,6.714,7.083,10.247
1488,0.826,39.373,27.401,34.773,31.591,6.591,6.961,10.204
1489,0.823,39.268,27.393,34.763,31.581,6.59,6.919,10.082
1490,0.823,39.209,27.382,34.763,31.598,6.712,7.0,10.162
1491,0.83,39.353,27.37,34.763,31.598,6.672,7.001,10.041
1492,0.82,39.44,27.409,34.773,31.591,6.631,6.96,9.918
1493,0.833,39.077,27.323,34.773,31.595,6.55,7.0,9.835
1494,0.804,39.188,27.373,34.763,31.595,6.508,6.96,9.753
1495,0.803,39.285,27.393,34.763,31.588,6.508,6.919,9.752
1496,0.807,39.353,27.354,34.754,31.591,6.589,7.041,9.874
1497,0.826,38.923,27.362,34.801,31.601,6.631,7.123,9.835
1498,0.843,39.072,27.397,34.792,31.598,6.59,7.002,9.631
1499,0.82,39.131,27.428,34.754,31.591,6.468,6.96,9.629
1500,0.83,39.218,27.386,34.782,31.595,6.507,6.96,9.507
1501,0.836,38.95,27.385,34.773,31.591,6.508,6.96,9.465
1502,0.839,39.062,27.381,34.782,31.595,6.467,6.919,9.424
1503,0.833,39.188,27.362,34.763,31.595,6.426,6.878,9.383
1504,0.833,39.247,27.369,34.763,31.595,6.385,6.918,9.301
1505,0.839,38.922,27.397,34.754,31.584,6.303,6.796,9.138
1506,0.83,39.024,27.335,34.754,31.581,6.18,6.714,9.055
1507,0.82,39.14,27.389,34.763,31.591,6.301,6.835,9.135
1508,0.817,39.17,27.393,34.763,31.591,6.302,6.796,9.014
1509,0.82,38.825,27.432,34.763,31.595,6.262,6.795,8.972
1510,0.826,38.946,27.374,34.754,31.584,6.221,6.795,8.809
1511,0.826,39.043,27.416,34.734,31.584,6.18,6.836,8.889
1512,0.807,39.083,27.397,34.734,31.584,6.179,6.714,8.809
1513,0.81,38.891,27.323,34.744,31.594,6.261,6.794,8.848
1514,0.803,39.014,27.342,34.763,31.608,6.384,6.877,8.889
1515,0.813,39.149,27.393,34.773,31.602,6.303,6.796,8.727
1516,0.813,38.758,27.358,34.735,31.598,6.221,6.673,8.644
1517,0.803,38.84,27.373,34.744,31.595,6.261,6.794,8.644
1518,0.816,38.927,27.401,34.753,31.595,6.302,6.673,8.562
1519,0.82,39.014,27.421,34.744,31.595,6.302,6.713,8.48
1520,0.83,38.651,27.405,34.773,31.598,6.221,6.713,8.52
1521,0.833,38.781,27.413,34.763,31.598,6.383,6.754,8.439
1522,0.833,38.888,27.421,34.744,31.595,6.303,6.673,8.316
1523,0.833,38.947,27.28,34.725,31.584,6.14,6.631,8.152
1524,0.823,38.64,27.341,34.705,31.584,6.179,6.631,8.232
1525,0.826,38.781,27.389,34.734,31.591,6.342,6.672,8.151
1526,0.833,38.907,27.339,34.744,31.598,6.262,6.713,8.11
1527,0.82,38.956,27.334,34.725,31.588,6.262,6.632,8.028
1528,0.813,38.602,27.381,34.734,31.594,6.221,6.631,7.946
1529,0.826,38.723,27.432,34.725,31.584,6.22,6.631,7.905
1530,0.817,38.859,27.382,34.724,31.587,6.22,6.672,7.945
1531,0.803,38.898,27.405,34.734,31.594,6.302,6.753,8.067
1532,0.807,38.554,27.382,34.773,31.608,6.343,6.836,7.987
1533,0.81,38.694,27.319,34.754,31.598,6.303,6.714,7.824
1534,0.79,38.772,27.342,34.744,31.595,6.302,6.713,7.822
1535,0.79,39.118,27.42,34.725,31.595,6.221,6.713,7.822
1536,0.8,38.633,27.312,34.734,31.598,6.22,6.713,7.781
1537,0.81,38.752,27.365,34.734,31.598,6.302,6.794,7.822
1538,0.826,38.849,27.354,34.744,31.602,6.384,6.836,7.781
1539,0.82,38.572,27.401,34.753,31.598,6.385,6.796,7.74
1540,0.82,38.598,27.385,34.715,31.591,6.344,6.673,7.537
1541,0.8,38.694,27.397,34.696,31.581,6.343,6.631,7.575
1542,0.803,38.791,27.382,34.715,31.591,6.384,6.794,7.698
1543,0.81,38.476,27.335,34.724,31.588,6.425,6.673,7.618
1544,0.82,38.588,27.338,34.715,31.588,6.426,6.753,7.617
1545,0.826,38.694,27.381,34.696,31.588,6.426,6.714,7.657
1546,0.813,38.753,27.366,34.695,31.594,6.426,6.672,7.698
1547,0.8,38.399,27.346,34.695,31.588,6.466,6.672,7.821
1548,0.79,38.539,27.389,34.695,31.594,6.629,6.794,8.147
1549,0.813,38.684,27.413,34.734,31.605,6.672,6.877,8.395
1550,0.81,38.772,27.421,34.753,31.598,6.631,6.755,8.519
1551,0.79,38.485,27.37,34.715,31.591,6.55,6.754,8.723
1552,0.793,38.617,27.373,34.724,31.601,6.59,6.795,9.091
1553,0.79,38.733,27.319,34.715,31.591,6.631,6.755,9.339
1554,0.78,38.801,27.357,34.724,31.598,6.672,6.795,9.545
1555,0.79,38.572,27.416,34.715,31.598,6.631,6.795,9.75
1556,0.777,38.704,27.378,34.724,31.598,6.712,6.714,9.874
1557,0.803,38.791,27.374,34.705,31.584,6.591,6.632,9.916
1558,0.787,38.764,27.37,34.686,31.587,6.671,6.712,9.998
1559,0.803,38.418,27.416,34.705,31.594,6.672,6.713,10.039
1560,0.8,38.568,27.351,34.696,31.591,6.672,6.672,10.121
1561,0.787,38.656,27.377,34.686,31.591,6.713,6.753,10.122
1562,0.793,38.494,27.35,34.695,31.588,6.672,6.673,10.081
1563,0.797,38.502,27.334,34.705,31.584,6.631,6.672,10.121
1564,0.803,38.626,27.33,34.696,31.587,6.794,6.713,10.122
1565,0.807,38.724,27.412,34.705,31.598,6.877,6.835,10.325
1566,0.813,38.379,27.37,34.734,31.612,7.0,6.837,10.165
1567,0.81,38.5,27.381,34.705,31.595,6.797,6.755,10.082
1568,0.781,38.588,27.385,34.715,31.591,6.877,6.836,10.121
1569,0.78,38.675,27.479,34.705,31.595,6.877,6.877,10.081
1570,0.784,38.379,27.41,34.705,31.595,6.959,6.877,9.999
1571,0.784,38.529,27.366,34.715,31.595,7.041,6.959,9.958
1572,0.774,38.646,27.35,34.715,31.598,7.123,6.96,9.998
1573,0.787,38.705,27.307,34.715,31.598,7.002,6.919,9.917
1574,0.774,38.389,27.365,34.696,31.581,6.919,6.796,9.794
1575,0.764,38.491,27.405,34.667,31.587,7.0,6.877,9.834
1576,0.774,38.617,27.339,34.705,31.594,7.041,6.959,9.794
1577,0.774,38.675,27.354,34.686,31.588,7.001,6.919,9.712
1578,0.787,38.686,27.416,34.667,31.591,7.082,6.959,9.589
1579,0.79,38.82,27.421,34.676,31.584,7.002,6.919,9.588
1580,0.78,38.917,27.382,34.686,31.591,6.96,6.959,9.588
1581,0.78,38.937,27.342,34.686,31.591,7.122,7.0,9.588
1582,0.777,38.247,27.385,34.705,31.601,7.287,7.163,9.71
1583,0.797,38.394,27.331,34.724,31.608,7.247,7.084,9.589
1584,0.807,38.472,27.35,34.686,31.588,7.125,7.042,9.385
1585,0.797,38.463,27.459,34.686,31.594,7.083,7.042,9.382
1586,0.8,38.425,27.339,34.695,31.595,7.123,7.042,9.301
1587,0.787,38.549,27.397,34.695,31.595,7.002,7.042,9.341
1588,0.79,38.646,27.366,34.705,31.591,7.082,7.082,9.26
1589,0.777,38.331,27.405,34.696,31.601,7.123,7.042,9.259
1590,0.777,38.404,27.378,34.695,31.595,7.043,7.042,9.137
1591,0.774,38.53,27.358,34.667,31.588,6.96,6.879,9.014
1592,0.764,38.588,27.35,34.657,31.584,6.96,6.959,8.972
1593,0.767,38.301,27.338,34.685,31.591,7.041,6.919,9.013
1594,0.774,38.452,27.358,34.686,31.588,6.96,7.0,8.932
1595,0.771,38.549,27.416,34.686,31.591,6.96,6.96,8.85
1596,0.764,38.627,27.339,34.667,31.588,6.838,6.878,8.767
1597,0.767,38.139,27.354,34.676,31.584,6.877,6.877,8.767
1598,0.774,38.277,27.389,34.676,31.587,6.959,6.837,8.807
1599,0.784,38.375,27.424,34.676,31.594,7.041,6.958,8.889
1600,0.8,38.472,27.409,34.714,31.601,7.123,6.96,8.849
1601,0.813,38.396,27.358,34.686,31.595,6.921,6.96,8.727
1602,0.797,38.501,27.366,34.676,31.595,6.919,6.797,8.726
1603,0.787,38.588,27.327,34.676,31.595,6.919,6.877,8.685
1604,0.8,38.646,27.346,34.686,31.591,6.878,6.877,8.684
1605,0.787,38.283,27.401,34.676,31.591,6.877,6.877,8.684
1606,0.797,38.404,27.343,34.676,31.601,6.877,6.877,8.644
1607,0.787,38.52,27.369,34.676,31.591,6.877,6.796,8.44
1608,0.787,38.55,27.412,34.667,31.584,6.796,6.673,8.357
1609,0.771,38.243,27.44,34.666,31.584,6.755,6.753,8.437
1610,0.761,38.394,27.421,34.676,31.587,6.836,6.795,8.438
1611,0.757,38.51,27.339,34.676,31.584,6.755,6.795,8.275
1612,0.751,38.281,27.397,34.657,31.594,6.714,6.714,8.274
1613,0.761,38.356,27.327,34.647,31.588,6.713,6.713,8.193
1614,0.764,38.491,27.365,34.647,31.591,6.672,6.754,8.151
1615,0.764,38.54,27.428,34.666,31.591,6.753,6.754,8.232
1616,0.764,38.138,27.319,34.705,31.598,6.795,6.917,8.355
1617,0.787,38.297,27.35,34.715,31.602,6.795,6.756,8.112
1618,0.777,38.413,27.354,34.686,31.595,6.714,6.795,8.069
1619,0.774,38.462,27.405,34.667,31.595,6.632,6.714,8.109
1620,0.774,38.127,27.37,34.686,31.598,6.59,6.754,8.028
1621,0.787,38.287,27.362,34.676,31.598,6.671,6.795,8.109
1622,0.797,38.394,27.373,34.695,31.595,6.672,6.755,8.15
1623,0.79,38.481,27.354,34.676,31.598,6.672,6.754,8.232
1624,0.797,38.185,27.334,34.676,31.595,6.753,6.714,8.192
1625,0.784,38.288,27.404,34.647,31.584,6.592,6.632,8.151
1626,0.78,38.365,27.335,34.637,31.584,6.631,6.712,8.435
1627,0.774,38.443,27.33,34.657,31.594,6.712,6.754,8.601
1628,0.771,38.223,27.369,34.666,31.591,6.754,6.714,8.765
1629,0.77,38.345,27.377,34.657,31.591,6.673,6.754,8.97
1630,0.764,38.433,27.346,34.647,31.588,6.672,6.673,9.216
1631,0.764,38.75,27.358,34.618,31.591,6.713,6.631,9.422
1632,0.764,38.082,27.397,34.666,31.598,6.794,6.794,9.668
1633,0.777,38.2,27.362,34.695,31.605,6.958,6.877,9.914
1634,0.774,38.336,27.381,34.705,31.598,6.919,6.796,10.039
1635,0.767,38.097,27.401,34.657,31.588,6.837,6.755,9.999
1636,0.757,38.152,27.366,34.666,31.591,6.837,6.754,10.161
1637,0.767,38.287,27.354,34.657,31.595,6.877,6.836,10.204
1638,0.783,38.385,27.397,34.666,31.598,6.796,6.877,10.204
1639,0.784,37.906,27.382,34.657,31.602,6.877,6.796,10.326
1640,0.79,38.026,27.385,34.685,31.602,6.796,6.877,10.246
1641,0.784,38.152,27.362,34.667,31.595,6.755,6.796,10.204
1642,0.774,38.201,27.334,34.638,31.584,6.673,6.714,10.123
1643,0.767,37.914,27.279,34.647,31.591,6.753,6.835,10.122
1644,0.774,38.074,27.337,34.676,31.598,6.754,6.755,10.041
1645,0.784,38.181,27.412,34.647,31.595,6.754,6.795,9.999
1646,0.774,38.23,27.319,34.657,31.591,6.795,6.795,9.917
1647,0.761,37.924,27.365,34.638,31.584,6.795,6.836,9.876
1648,0.757,38.055,27.381,34.637,31.591,6.795,6.755,9.997
1649,0.761,38.152,27.417,34.657,31.595,6.877,6.917,10.039
1650,0.754,38.22,27.366,34.685,31.608,7.0,7.041,10.121
1651,0.764,37.914,27.401,34.667,31.602,7.001,6.96,9.919
1652,0.761,38.007,27.343,34.666,31.598,6.96,6.96,9.916
1653,0.761,38.113,27.315,34.676,31.598,6.96,6.919,9.916
1654,0.767,38.143,27.373,34.676,31.591,7.0,6.878,9.876
1655,0.757,37.884,27.389,34.667,31.595,6.96,6.959,9.876
1656,0.761,37.997,27.378,34.676,31.595,7.041,6.96,9.835
1657,0.767,38.113,27.342,34.676,31.595,7.082,6.878,9.753
1658,0.77,37.875,27.381,34.647,31.584,6.92,6.837,9.63
1659,0.761,37.815,27.389,34.657,31.591,7.041,6.837,9.67
1660,0.767,37.958,27.385,34.647,31.595,7.123,6.877,9.548
1661,0.78,38.055,27.385,34.647,31.595,7.124,6.918,9.506
1662,0.787,37.721,27.354,34.657,31.591,7.124,6.878,9.506
1663,0.784,37.823,27.303,34.638,31.588,7.002,6.837,9.384
1664,0.78,37.929,27.349,34.647,31.584,6.96,6.796,9.342
1665,0.774,38.017,27.373,34.637,31.591,7.082,6.958,9.342
1666,0.793,37.605,27.366,34.676,31.605,7.286,7.041,9.423
1667,0.797,37.754,27.358,34.667,31.598,7.125,6.879,9.261
1668,0.777,37.842,27.42,34.647,31.598,7.165,6.918,9.178
1669,0.764,37.92,27.433,34.657,31.602,7.206,6.919,9.137
1670,0.761,37.585,27.382,34.647,31.605,7.206,6.919,9.136
1671,0.754,37.735,27.401,34.666,31.598,7.206,6.837,9.055
1672,0.751,37.852,27.385,34.676,31.598,7.206,6.877,8.973
1673,0.757,37.901,27.327,34.647,31.598,7.206,6.837,8.931
1674,0.764,37.642,27.369,34.657,31.588,7.165,6.674,8.809
1675,0.741,37.736,27.389,34.618,31.577,7.084,6.672,8.726
1676,0.747,37.852,27.339,34.637,31.587,7.123,6.713,8.766
1677,0.757,37.891,27.361,34.657,31.591,7.165,6.754,8.685
1678,0.77,37.661,27.35,34.638,31.591,7.246,6.632,8.603
1679,0.777,37.774,27.416,34.628,31.584,7.166,6.712,8.602
1680,0.767,37.89,27.343,34.628,31.584,7.124,6.672,8.521
1681,0.777,37.7,27.389,34.618,31.584,7.083,6.631,8.561
1682,0.771,37.516,27.362,34.637,31.587,7.286,6.794,8.643
1683,0.783,37.677,27.307,34.666,31.605,7.369,6.877,8.644
1684,0.787,37.813,27.377,34.666,31.595,7.208,6.674,8.521
1685,0.787,37.478,27.397,34.609,31.591,7.206,6.591,8.479
1686,0.774,37.561,27.366,34.618,31.591,7.206,6.631,8.398
1687,0.764,37.716,27.33,34.637,31.591,7.165,6.672,8.438
1688,0.761,37.794,27.408,34.618,31.598,7.165,6.631,8.357
1689,0.754,37.382,27.428,34.637,31.595,7.165,6.631,8.356
1690,0.741,37.512,27.374,34.637,31.595,7.084,6.631,8.356
1691,0.754,37.638,27.362,34.637,31.591,7.042,6.509,8.112
1692,0.751,37.688,27.362,34.609,31.588,6.92,6.427,8.109
1693,0.738,37.333,27.327,34.608,31.591,7.041,6.548,8.15
1694,0.738,37.483,27.361,34.637,31.595,7.001,6.63,8.11
1695,0.744,37.609,27.405,34.628,31.591,7.041,6.55,8.109
1696,0.744,37.659,27.382,34.637,31.588,6.96,6.468,7.987
1697,0.757,37.343,27.346,34.609,31.588,6.96,6.507,7.986
1698,0.761,37.454,27.354,34.618,31.588,6.919,6.467,7.946
1699,0.751,37.561,27.405,34.608,31.588,6.959,6.507,7.945
1700,0.774,37.62,27.37,34.666,31.598,7.041,6.67,7.986
1701,0.78,37.265,27.401,34.657,31.608,7.001,6.631,7.946
1702,0.774,37.387,27.366,34.628,31.595,6.96,6.509,7.864
1703,0.764,37.465,27.342,34.618,31.595,6.919,6.549,7.822
1704,0.774,37.609,27.342,34.618,31.591,6.837,6.468,7.741
1705,0.771,37.323,27.412,34.608,31.598,6.918,6.548,7.781
1706,0.774,37.464,27.35,34.628,31.598,6.919,6.59,7.822
1707,0.761,37.58,27.342,34.647,31.595,6.878,6.549,7.741
1708,0.757,37.16,27.381,34.618,31.598,6.837,6.468,7.821
1709,0.764,37.222,27.44,34.637,31.591,6.755,6.386,7.781
1710,0.751,37.319,27.323,34.589,31.584,6.673,6.385,7.903
1711,0.744,37.426,27.353,34.599,31.591,6.794,6.466,8.107
1712,0.747,37.091,27.354,34.618,31.588,6.714,6.507,8.272
1713,0.757,37.231,27.354,34.608,31.591,6.713,6.508,8.355
1714,0.748,37.348,27.389,34.618,31.591,6.713,6.467,8.559
1715,0.738,37.407,27.389,34.599,31.595,6.672,6.467,8.805
1716,0.734,37.081,27.374,34.599,31.588,6.672,6.467,9.011
1717,0.741,37.222,27.299,34.627,31.591,6.713,6.589,9.257
1718,0.744,37.367,27.353,34.647,31.605,6.794,6.671,9.585
1719,0.767,37.436,27.381,34.647,31.602,6.755,6.591,9.466
1720,0.757,36.88,27.377,34.599,31.588,6.632,6.549,9.627
1721,0.761,37.018,27.37,34.627,31.598,6.672,6.549,9.67
1722,0.754,37.125,27.385,34.618,31.588,6.713,6.508,9.792
1723,0.764,37.193,27.335,34.618,31.598,6.713,6.508,9.956
1724,0.767,36.983,27.393,34.618,31.595,6.672,6.589,9.957
1725,0.764,37.115,27.417,34.608,31.598,6.713,6.468,9.917
1726,0.777,37.232,27.393,34.618,31.598,6.713,6.507,9.835
1727,0.771,37.415,27.366,34.589,31.588,6.591,6.427,9.794
1728,0.754,36.985,27.35,34.57,31.584,6.59,6.426,9.875
1729,0.748,37.154,27.393,34.589,31.587,6.631,6.588,9.876
1730,0.757,37.251,27.35,34.599,31.588,6.672,6.59,9.794
1731,0.748,36.888,27.408,34.599,31.588,6.672,6.549,9.793
1732,0.757,36.884,27.339,34.57,31.581,6.672,6.508,9.671
1733,0.748,37.009,27.346,34.589,31.591,6.753,6.549,9.711
1734,0.734,37.116,27.342,34.589,31.595,6.795,6.549,9.833
1735,0.738,36.81,27.397,34.599,31.601,6.877,6.712,9.916
1736,0.76,36.97,27.382,34.647,31.605,7.0,6.713,10.079
1737,0.761,37.106,27.381,34.628,31.598,6.879,6.632,10.081
1738,0.757,37.155,27.389,34.599,31.595,6.959,6.631,10.081
1739,0.761,36.772,27.421,34.599,31.595,6.878,6.631,10.162
1740,0.767,36.902,27.335,34.618,31.598,6.959,6.631,10.122
1741,0.774,37.047,27.389,34.618,31.595,7.0,6.753,10.203
1742,0.774,37.126,27.362,34.599,31.595,7.041,6.632,10.123
1743,0.774,36.733,27.342,34.618,31.595,7.001,6.672,10.163
1744,0.767,36.854,27.358,34.589,31.588,6.879,6.509,10.082
1745,0.761,36.941,27.354,34.57,31.581,7.0,6.549,10.081
1746,0.764,37.0,27.354,34.598,31.594,7.082,6.671,10.162
1747,0.767,36.789,27.319,34.599,31.588,7.042,6.713,10.122
1748,0.754,36.902,27.385,34.579,31.584,7.042,6.632,10.081
1749,0.754,37.009,27.389,34.579,31.591,7.001,6.509,10.243
1750,0.738,37.02,27.401,34.579,31.591,6.96,6.589,10.042
1751,0.741,36.847,27.382,34.579,31.584,6.96,6.549,10.08
1752,0.741,36.999,27.381,34.589,31.598,7.122,6.793,10.203
1753,0.757,37.106,27.358,34.618,31.608,7.124,6.714,10.163
1754,0.757,36.829,27.366,34.608,31.588,6.961,6.632,10.041
1755,0.744,36.721,27.389,34.589,31.591,7.0,6.672,10.04
1756,0.751,36.844,27.335,34.608,31.598,6.96,6.55,9.999
1757,0.751,36.951,27.369,34.589,31.591,7.0,6.63,9.917
1758,0.774,36.616,27.35,34.599,31.598,7.001,6.753,9.876
1759,0.767,36.699,27.416,34.608,31.598,7.041,6.673,9.794
1760,0.767,36.825,27.335,34.599,31.591,6.839,6.55,9.631
1761,0.764,36.903,27.381,34.57,31.584,6.796,6.427,9.588
1762,0.748,36.453,27.342,34.579,31.591,6.795,6.629,9.629
1763,0.767,36.611,27.358,34.589,31.591,6.755,6.672,9.548
1764,0.774,36.728,27.346,34.579,31.591,6.836,6.55,9.506
1765,0.78,36.806,27.373,34.579,31.584,6.796,6.59,9.465
1766,0.774,36.5,27.342,34.57,31.587,6.795,6.631,9.302
1767,0.761,36.66,27.33,34.57,31.584,6.795,6.509,9.26
1768,0.741,36.786,27.354,34.579,31.587,6.877,6.589,9.3
1769,0.754,36.854,27.412,34.608,31.601,7.081,6.671,9.382
1770,0.751,36.519,27.409,34.618,31.608,7.083,6.672,9.179
1771,0.754,36.631,27.378,34.57,31.591,7.042,6.55,9.096
1772,0.748,36.747,27.397,34.589,31.595,7.001,6.59,9.136
1773,0.764,36.787,27.343,34.579,31.595,7.082,6.59,9.014
1774,0.738,36.548,27.373,34.57,31.588,7.123,6.549,9.054
1775,0.738,36.679,27.397,34.589,31.588,7.043,6.549,8.973
1776,0.741,36.796,27.366,34.599,31.601,7.082,6.63,8.891
1777,0.764,36.692,27.327,34.589,31.595,7.083,6.631,8.809
1778,0.757,36.479,27.373,34.56,31.581,6.92,6.468,8.726
1779,0.751,36.583,27.366,34.55,31.581,7.041,6.507,8.807
1780,0.764,36.68,27.381,34.569,31.594,7.001,6.589,8.767
1781,0.767,36.384,27.366,34.57,31.591,7.041,6.631,8.767
1782,0.774,36.467,27.397,34.57,31.595,6.96,6.59,8.767
1783,0.764,36.573,27.315,34.57,31.588,7.041,6.59,8.848
1784,0.754,36.67,27.357,34.56,31.584,6.96,6.631,8.808
1785,0.757,36.297,27.393,34.55,31.591,6.919,6.631,8.93
1786,0.77,36.466,27.339,34.579,31.598,7.081,6.794,9.134
1787,0.767,36.631,27.4,34.608,31.605,7.123,6.755,9.136
1788,0.764,36.709,27.362,34.589,31.595,6.961,6.592,9.258
1789,0.751,36.365,27.436,34.56,31.598,6.96,6.712,9.381
1790,0.741,36.505,27.335,34.57,31.598,6.96,6.672,9.464
1791,0.741,36.65,27.357,34.57,31.602,7.0,6.672,9.546
1792,0.744,36.7,27.338,34.589,31.598,7.001,6.631,9.628
1793,0.741,36.336,27.311,34.57,31.598,7.041,6.712,9.71
1794,0.741,36.495,27.318,34.579,31.595,6.96,6.754,9.711
1795,0.747,36.602,27.404,34.56,31.591,6.96,6.551,9.752
1796,0.734,36.603,27.35,34.55,31.584,6.878,6.63,9.874
1797,0.744,36.287,27.35,34.569,31.587,6.959,6.672,9.794
1798,0.757,36.428,27.338,34.57,31.588,7.041,6.631,9.915
1799,0.757,36.534,27.412,34.56,31.588,7.001,6.672,9.835
1800,0.754,36.727,27.425,34.56,31.588,7.082,6.631,9.834
1801,0.757,36.365,27.347,34.541,31.581,7.002,6.631,9.794
1802,0.757,36.524,27.369,34.56,31.587,7.001,6.631,9.793
1803,0.767,36.603,27.299,34.589,31.594,7.204,6.753,9.915
1804,0.777,36.181,27.388,34.579,31.605,7.247,6.754,9.876
1805,0.784,36.225,27.421,34.57,31.591,7.166,6.673,9.672
1806,0.774,36.312,27.366,34.56,31.588,7.206,6.672,9.629
1807,0.758,36.437,27.358,34.56,31.591,7.206,6.672,9.588
1808,0.748,36.199,27.354,34.56,31.591,7.165,6.672,9.507
1809,0.734,36.321,27.381,34.56,31.598,7.287,6.631,9.506
1810,0.744,36.457,27.393,34.598,31.598,7.207,6.672,9.384
1811,0.751,36.544,27.35,34.579,31.595,7.125,6.55,9.342
1812,0.738,36.133,27.358,34.541,31.581,7.002,6.468,9.097
1813,0.731,36.244,27.319,34.541,31.581,7.082,6.548,9.176
1814,0.734,36.418,27.365,34.569,31.598,7.083,6.549,9.137
1815,0.734,36.458,27.42,34.55,31.591,7.083,6.508,9.095
1816,0.738,36.151,27.323,34.55,31.588,7.002,6.508,9.014
1817,0.747,36.292,27.342,34.56,31.584,6.96,6.467,8.85
1818,0.76,36.389,27.326,34.541,31.584,6.96,6.467,8.889
1819,0.761,36.429,27.393,34.569,31.584,6.96,6.548,8.849
1820,0.764,36.151,27.35,34.579,31.601,7.122,6.59,8.93
1821,0.783,36.321,27.365,34.589,31.605,7.002,6.549,8.728
1822,0.774,36.418,27.354,34.579,31.591,6.96,6.63,8.726
1823,0.784,36.438,27.323,34.56,31.588,6.96,6.631,8.644
1824,0.793,36.151,27.342,34.56,31.598,7.0,6.509,8.644
1825,0.833,36.282,27.432,34.56,31.595,6.96,6.63,8.562
1826,0.817,36.399,27.339,34.56,31.598,7.0,6.59,8.521
1827,0.82,36.016,27.369,34.56,31.595,7.001,6.631,8.479
1828,0.784,36.022,27.412,34.57,31.588,6.96,6.631,8.357
1829,0.787,36.128,27.448,34.522,31.584,6.797,6.509,8.193
1830,0.793,36.205,27.398,34.531,31.584,6.877,6.63,8.273
1831,0.8,36.005,27.335,34.55,31.591,6.918,6.59,8.274
1832,0.823,36.127,27.377,34.55,31.598,6.878,6.549,8.152
1833,0.839,36.234,27.307,34.541,31.584,6.877,6.468,8.11
1834,0.839,36.331,27.342,34.55,31.587,6.837,6.507,8.15
1835,0.843,36.016,27.42,34.522,31.584,6.837,6.549,8.069
1836,0.839,36.166,27.335,34.521,31.584,6.877,6.549,8.109
1837,0.859,36.302,27.35,34.56,31.601,7.0,6.712,8.232
1838,0.879,36.389,27.404,34.57,31.608,7.001,6.632,8.07
1839,0.866,35.959,27.428,34.541,31.588,6.757,6.59,7.987
1840,0.859,36.089,27.382,34.55,31.591,6.876,6.59,7.946
1841,0.862,36.205,27.381,34.55,31.595,6.877,6.631,7.945
1842,0.862,36.245,27.366,34.56,31.598,6.918,6.631,7.823
1843,0.862,36.015,27.327,34.55,31.595,6.919,6.59,7.944
1844,0.879,36.137,27.342,34.55,31.595,6.959,6.549,7.905
1845,0.876,36.253,27.404,34.541,31.598,6.797,6.549,7.823
1846,0.885,36.264,27.296,34.541,31.581,6.795,6.468,7.659
1847,0.869,35.967,27.322,34.512,31.581,6.755,6.507,7.82
1848,0.872,36.117,27.361,34.54,31.591,6.836,6.508,7.741
1849,0.866,36.205,27.451,34.55,31.595,6.837,6.467,7.659
1850,0.862,36.082,27.382,34.522,31.588,6.877,6.426,7.698
1851,0.846,36.042,27.342,34.531,31.588,6.877,6.466,7.658
1852,0.836,36.147,27.369,34.521,31.584,6.837,6.426,7.617
1853,0.83,36.263,27.354,34.54,31.591,6.796,6.548,7.698
1854,0.849,35.89,27.373,34.56,31.601,7.039,6.59,7.78
1855,0.856,36.002,27.416,34.55,31.595,6.96,6.509,7.618
1856,0.843,36.099,27.37,34.531,31.591,6.878,6.508,7.617
1857,0.853,36.205,27.327,34.521,31.595,6.877,6.467,7.495
1858,0.869,35.794,27.342,34.531,31.598,6.877,6.467,7.575
1859,0.885,35.943,27.389,34.531,31.595,6.918,6.548,7.535
1860,0.879,36.06,27.409,34.55,31.595,6.959,6.549,7.575
1861,0.885,36.147,27.358,34.55,31.601,6.878,6.508,7.494
1862,0.892,35.86,27.397,34.502,31.584,6.715,6.427,7.412
1863,0.882,35.953,27.327,34.502,31.584,6.794,6.466,7.696
1864,0.882,36.108,27.373,34.531,31.594,6.795,6.548,7.78
1865,0.885,36.167,27.381,34.521,31.588,6.795,6.468,7.944
1866,0.889,35.726,27.35,34.512,31.591,6.795,6.467,8.108
1867,0.879,35.866,27.323,34.521,31.581,6.714,6.426,8.354
1868,0.879,35.982,27.33,34.521,31.584,6.754,6.385,8.722
1869,0.866,36.022,27.365,34.502,31.591,6.754,6.466,9.132
1870,0.853,35.869,27.362,34.531,31.595,6.957,6.67,9.665
1871,0.853,36.04,27.362,34.56,31.601,6.838,6.672,9.914
1872,0.862,36.137,27.385,34.512,31.598,6.755,6.55,10.161
1873,0.862,36.062,27.35,34.512,31.595,6.714,6.59,10.447
1874,0.853,35.888,27.326,34.54,31.591,6.713,6.59,10.735
1875,0.856,36.03,27.385,34.521,31.591,6.754,6.59,10.86
1876,0.866,36.128,27.35,34.531,31.591,6.714,6.59,11.024
1877,0.862,35.736,27.381,34.54,31.598,6.713,6.631,11.107
1878,0.859,35.818,27.342,34.541,31.595,6.672,6.509,11.23
1879,0.862,35.915,27.4,34.512,31.584,6.509,6.508,11.068
1880,0.843,35.992,27.339,34.492,31.581,6.549,6.508,11.188
1881,0.846,35.667,27.358,34.521,31.584,6.63,6.589,11.189
1882,0.843,35.808,27.362,34.512,31.594,6.55,6.549,11.149
1883,0.846,35.953,27.362,34.492,31.588,6.59,6.508,11.149
1884,0.849,36.012,27.346,34.502,31.591,6.59,6.427,11.108
1885,0.846,35.696,27.385,34.492,31.588,6.631,6.466,11.026
1886,0.836,35.817,27.342,34.502,31.581,6.631,6.507,10.944
1887,0.83,35.953,27.35,34.521,31.598,6.712,6.589,11.024
1888,0.823,36.06,27.385,34.54,31.602,6.794,6.671,11.025
1889,0.833,35.706,27.374,34.541,31.602,6.755,6.591,10.944
1890,0.804,35.798,27.37,34.502,31.588,6.754,6.59,10.943
1891,0.8,35.943,27.338,34.511,31.591,6.714,6.509,10.821
1892,0.794,35.973,27.369,34.512,31.595,6.754,6.589,10.82
1893,0.8,35.686,27.331,34.502,31.595,6.795,6.631,10.861
1894,0.79,35.856,27.373,34.531,31.595,6.836,6.631,10.78
1895,0.784,35.963,27.381,34.512,31.591,6.877,6.631,10.779
1896,0.774,36.232,27.342,34.502,31.595,6.755,6.631,10.616
1897,0.761,35.631,27.334,34.483,31.581,6.632,6.428,10.452
1898,0.78,35.711,27.35,34.463,31.587,6.672,6.548,10.532
1899,0.774,35.827,27.428,34.511,31.591,6.753,6.549,10.492
1900,0.787,35.637,27.362,34.492,31.595,6.754,6.59,10.491
1901,0.774,35.74,27.389,34.511,31.595,6.754,6.549,10.369
1902,0.767,35.856,27.362,34.521,31.591,6.673,6.508,10.409
1903,0.757,35.963,27.319,34.492,31.588,6.672,6.508,10.328
1904,0.754,35.532,27.33,34.483,31.588,6.753,6.467,10.286
1905,0.748,35.662,27.373,34.483,31.598,6.714,6.589,10.327
1906,0.754,35.808,27.389,34.521,31.605,6.794,6.59,10.368
1907,0.757,35.915,27.405,34.521,31.598,6.673,6.509,10.246
1908,0.744,35.542,27.347,34.521,31.595,6.631,6.467,10.245
1909,0.741,35.691,27.428,34.512,31.591,6.712,6.548,10.164
1910,0.728,35.817,27.358,34.531,31.591,6.632,6.549,10.082
1911,0.725,35.895,27.373,34.502,31.598,6.672,6.549,10.04
1912,0.728,35.609,27.37,34.511,31.595,6.672,6.549,9.958
1913,0.728,35.74,27.354,34.502,31.598,6.591,6.549,9.835
1914,0.708,35.875,27.358,34.492,31.588,6.549,6.427,9.672
1915,0.705,35.886,27.381,34.483,31.581,6.468,6.385,9.67
1916,0.705,35.551,27.338,34.483,31.587,6.548,6.466,9.629
1917,0.724,35.701,27.35,34.492,31.591,6.508,6.467,9.466
1918,0.728,35.827,27.365,34.492,31.591,6.508,6.467,9.424
1919,0.718,35.838,27.366,34.492,31.598,6.549,6.426,9.302
1920,0.711,35.483,27.389,34.483,31.584,6.468,6.385,9.341
1921,0.702,35.624,27.339,34.473,31.581,6.467,6.425,9.301
1922,0.711,35.721,27.361,34.502,31.587,6.507,6.588,9.423
1923,0.698,35.607,27.299,34.511,31.605,6.67,6.549,9.464
1924,0.718,35.596,27.369,34.512,31.602,6.672,6.63,9.465
1925,0.715,35.721,27.389,34.483,31.595,6.631,6.468,9.465
1926,0.705,35.799,27.342,34.483,31.591,6.631,6.507,9.546
1927,0.702,35.32,27.342,34.502,31.588,6.672,6.508,9.506
1928,0.688,35.459,27.338,34.492,31.588,6.713,6.508,9.668
1929,0.682,35.585,27.424,34.511,31.598,6.713,6.549,9.751
1930,0.692,35.673,27.362,34.492,31.595,6.754,6.549,9.793
1931,0.692,35.376,27.385,34.492,31.595,6.714,6.508,9.793
1932,0.685,35.498,27.354,34.473,31.588,6.632,6.427,9.793
1933,0.672,35.585,27.342,34.463,31.588,6.631,6.344,9.956
1934,0.675,35.682,27.354,34.482,31.598,6.712,6.425,10.08
1935,0.688,35.53,27.373,34.483,31.591,6.713,6.466,10.081
1936,0.682,35.662,27.315,34.473,31.588,6.794,6.467,10.121
1937,0.688,35.788,27.353,34.473,31.584,6.755,6.386,10.163
1938,0.695,35.828,27.338,34.473,31.581,6.754,6.425,10.204
1939,0.688,35.253,27.404,34.463,31.584,6.836,6.466,10.163
1940,0.685,35.401,27.37,34.482,31.587,6.958,6.548,10.285
1941,0.698,35.556,27.37,34.511,31.601,7.0,6.63,10.286
1942,0.708,35.615,27.401,34.502,31.598,7.041,6.59,10.164
1943,0.721,35.337,27.323,34.473,31.588,7.001,6.468,10.082
1944,0.711,35.478,27.385,34.482,31.591,7.001,6.507,9.999
1945,0.698,35.585,27.401,34.483,31.601,7.041,6.549,9.999
1946,0.701,35.462,27.37,34.483,31.591,7.042,6.508,9.958
1947,0.695,35.374,27.334,34.483,31.598,7.082,6.508,9.998
1948,0.698,35.488,27.33,34.473,31.595,7.042,6.508,9.877
1949,0.688,35.585,27.389,34.444,31.584,6.96,6.305,9.713
1950,0.695,35.203,27.366,34.444,31.581,6.96,6.425,9.711
1951,0.695,35.333,27.303,34.463,31.591,7.041,6.466,9.711
1952,0.708,35.478,27.412,34.473,31.591,7.001,6.548,9.63
1953,0.702,35.566,27.358,34.463,31.595,6.96,6.508,9.588
1954,0.688,35.231,27.385,34.444,31.591,6.919,6.427,9.547
1955,0.679,35.362,27.409,34.444,31.588,6.878,6.426,9.384
1956,0.675,35.488,27.358,34.444,31.584,7.0,6.466,9.423
1957,0.698,35.576,27.354,34.453,31.591,6.96,6.548,9.505
1958,0.714,35.26,27.35,34.492,31.605,7.082,6.671,9.465
1959,0.737,35.401,27.408,34.454,31.602,6.92,6.55,9.302
1960,0.741,35.498,27.327,34.453,31.595,6.959,6.549,9.219
1961,0.754,35.557,27.342,34.453,31.591,6.919,6.549,9.178
1962,0.787,35.279,27.358,34.463,31.595,6.878,6.508,9.177
1963,0.832,35.42,27.381,34.473,31.595,6.959,6.549,9.137
1964,0.862,35.556,27.366,34.454,31.598,6.919,6.508,9.014
1965,0.908,35.586,27.37,34.453,31.598,6.837,6.549,8.81
1966,0.944,35.174,27.358,34.434,31.581,6.796,6.468,8.767
1967,0.967,35.285,27.334,34.472,31.594,6.958,6.467,8.848
1968,1.023,35.43,27.33,34.454,31.591,6.878,6.467,8.767
1969,1.04,35.498,27.381,34.453,31.591,6.877,6.467,8.685
1970,1.066,35.259,27.342,34.434,31.588,6.877,6.386,8.644
1971,1.089,35.382,27.342,34.434,31.588,6.837,6.385,8.521
1972,1.109,35.479,27.369,34.434,31.588,6.918,6.385,8.52
1973,1.148,35.096,27.37,34.444,31.594,6.959,6.425,8.601
1974,1.2,35.217,27.354,34.492,31.601,7.041,6.629,8.602
1975,1.279,35.372,27.373,34.473,31.595,7.001,6.55,8.44
1976,1.322,35.431,27.413,34.454,31.595,6.96,6.508,8.479
1977,1.384,35.077,27.288,34.463,31.588,7.0,6.467,8.52
1978,1.43,35.217,27.361,34.444,31.588,7.001,6.507,8.642
1979,1.473,35.352,27.381,34.434,31.594,7.041,6.467,8.725
1980,1.522,35.45,27.401,34.453,31.595,7.123,6.548,8.848
1981,1.562,35.086,27.343,34.473,31.601,7.124,6.549,8.93
1982,1.588,35.226,27.393,34.454,31.591,7.043,6.346,8.972
1983,1.644,35.314,27.366,34.425,31.581,7.001,6.425,9.175
1984,1.657,35.392,27.338,34.444,31.587,7.123,6.466,9.34
1985,1.671,35.977,27.393,34.444,31.591,7.124,6.507,9.464
1986,1.706,36.118,27.315,34.434,31.591,7.083,6.467,9.546
1987,1.674,36.234,27.349,34.425,31.591,7.083,6.426,9.628
1988,1.661,36.274,27.33,34.424,31.584,7.205,6.426,9.751
1989,1.661,34.586,27.42,34.424,31.584,7.206,6.507,9.833
1990,1.635,34.732,27.319,34.453,31.591,7.287,6.549,10.078
1991,1.602,34.859,27.396,34.473,31.598,7.41,6.712,10.243
1992,1.579,35.234,27.35,34.492,31.608,7.493,6.632,10.123
1993,1.523,35.238,27.369,34.444,31.591,7.494,6.631,10.122
1994,1.409,35.362,27.35,34.453,31.591,7.412,6.672,10.244
1995,1.304,35.459,27.35,34.453,31.595,7.452,6.672,10.448
1996,1.179,35.01,27.342,34.453,31.598,7.493,6.713,10.572
1997,1.051,35.063,27.319,34.473,31.598,7.494,6.632,10.736
1998,0.884,35.159,27.342,34.463,31.591,7.575,6.712,10.9
1999,0.768,35.275,27.381,34.444,31.591,7.454,6.672,11.105
2000,0.66,35.008,27.381,34.425,31.581,7.371,6.55,11.148
2001,0.558,35.12,27.37,34.424,31.584,7.37,6.712,11.393
2002,0.492,35.256,27.393,34.453,31.591,7.452,6.672,11.517
2003,0.442,35.353,27.327,34.434,31.588,7.371,6.631,11.762
2004,0.374,34.798,27.354,34.434,31.581,7.411,6.631,11.805
2005,0.295,34.926,27.397,34.415,31.584,7.33,6.631,11.806
2006,0.249,35.033,27.374,34.424,31.581,7.289,6.631,11.806
2007,0.173,35.12,27.319,34.415,31.581,7.329,6.672,11.928
2008,0.13,34.93,27.346,34.424,31.594,7.41,6.794,12.051
2009,0.094,35.081,27.381,34.463,31.601,7.533,6.795,12.174
2010,0.074,35.226,27.413,34.473,31.598,7.412,6.714,11.972
2011,0.019,35.257,27.362,34.425,31.588,7.411,6.672,11.929
2012,0.018,34.893,27.393,34.424,31.591,7.371,6.753,11.888
2013,-0.001,35.042,27.339,34.434,31.588,7.289,6.632,11.888
2014,-0.002,35.159,27.342,34.444,31.591,7.329,6.631,11.806
2015,-0.015,35.198,27.393,34.444,31.595,7.329,6.753,11.724
2016,-0.011,34.988,27.35,34.444,31.598,7.41,6.673,11.601
2017,0.008,35.091,27.358,34.434,31.588,7.289,6.591,11.478
2018,0.038,35.169,27.319,34.396,31.577,7.207,6.549,11.396
2019,0.064,34.997,27.4,34.434,31.587,7.287,6.671,11.436
2020,0.097,34.967,27.358,34.425,31.584,7.207,6.591,11.477
2021,0.116,35.11,27.369,34.415,31.584,7.247,6.671,11.518
2022,0.136,35.208,27.37,34.415,31.587,7.206,6.591,11.599
2023,0.149,34.624,27.299,34.405,31.588,7.287,6.509,11.722
2024,0.182,34.752,27.31,34.405,31.588,7.125,6.508,11.927
2025,0.202,34.878,27.385,34.405,31.588,7.205,6.63,12.173
2026,0.257,34.994,27.362,34.434,31.605,7.328,6.712,12.46
2027,0.277,34.794,27.358,34.453,31.602,7.167,6.632,12.625
2028,0.271,34.907,27.354,34.415,31.595,7.165,6.59,12.79
2029,0.291,35.033,27.401,34.415,31.588,7.124,6.631,12.913
2030,0.327,35.111,27.335,34.424,31.591,7.124,6.59,13.037
2031,0.356,34.747,27.334,34.415,31.595,7.205,6.59,13.078
2032,0.392,34.907,27.365,34.424,31.598,7.247,6.549,13.241
2033,0.441,35.033,27.319,34.424,31.595,7.247,6.549,13.202
2034,0.484,35.082,27.373,34.424,31.591,7.288,6.468,13.161
2035,0.517,34.757,27.358,34.377,31.57,7.247,6.386,13.202
2036,0.563,34.897,27.354,34.414,31.591,7.41,6.507,13.202
2037,0.616,35.042,27.326,34.424,31.588,7.493,6.508,13.121
2038,0.626,35.073,27.326,34.415,31.591,7.494,6.467,12.957
2039,0.645,34.728,27.404,34.405,31.588,7.534,6.426,12.874
2040,0.681,34.849,27.35,34.386,31.588,7.575,6.507,12.751
2041,0.692,34.946,27.33,34.395,31.588,7.535,6.386,12.709
2042,0.714,34.842,27.338,34.386,31.598,7.657,6.588,12.628
2043,0.737,34.706,27.33,34.424,31.602,7.658,6.671,12.586
2044,0.76,34.858,27.354,34.424,31.598,7.698,6.469,12.383
2045,0.754,34.927,27.432,34.396,31.591,7.618,6.507,12.218
2046,0.751,34.688,27.355,34.386,31.595,7.657,6.508,12.176
2047,0.751,34.81,27.362,34.395,31.595,7.617,6.549,12.175
2048,0.741,34.965,27.327,34.395,31.595,7.657,6.427,12.297
2049,0.747,35.053,27.416,34.395,31.595,7.658,6.588,12.542
2050,0.747,34.593,27.378,34.395,31.595,7.576,6.468,12.707
2051,0.747,34.742,27.358,34.386,31.581,7.535,6.386,12.872
2052,0.744,34.839,27.326,34.367,31.584,7.453,6.466,13.28
2053,0.754,34.956,27.342,34.395,31.594,7.534,6.507,13.528
2054,0.754,34.64,27.365,34.386,31.591,7.494,6.467,13.774
2055,0.754,34.781,27.389,34.376,31.588,7.412,6.467,13.899
2056,0.754,34.888,27.346,34.366,31.584,7.411,6.467,14.022
2057,0.774,34.975,27.334,34.386,31.587,7.371,6.467,14.023
2058,0.777,34.631,27.354,34.376,31.588,7.411,6.548,14.186
2059,0.784,34.8,27.389,34.414,31.605,7.493,6.712,14.228
2060,0.79,34.926,27.378,34.415,31.602,7.331,6.591,14.107
2061,0.8,34.947,27.354,34.386,31.591,7.37,6.509,14.065
2062,0.79,34.602,27.369,34.386,31.591,7.289,6.549,13.983
2063,0.8,34.742,27.338,34.386,31.588,7.247,6.508,13.901
2064,0.816,34.849,27.373,34.376,31.588,7.288,6.589,13.859
2065,0.803,35.013,27.401,34.386,31.594,7.288,6.549,13.656
2066,0.813,34.622,27.37,34.376,31.595,7.166,6.549,13.45
2067,0.803,34.771,27.35,34.395,31.591,7.084,6.468,13.245
2068,0.794,34.83,27.354,34.357,31.581,6.961,6.345,13.121
2069,0.787,34.505,27.397,34.376,31.584,7.082,6.588,13.079
2070,0.803,34.617,27.37,34.386,31.591,7.002,6.549,12.957
2071,0.797,34.733,27.358,34.367,31.588,7.001,6.508,12.833
2072,0.8,34.83,27.342,34.357,31.591,6.919,6.467,12.751
2073,0.794,34.399,27.338,34.347,31.581,6.959,6.507,12.669
2074,0.787,34.567,27.326,34.376,31.584,6.919,6.549,12.587
2075,0.793,34.694,27.385,34.376,31.591,6.959,6.549,12.627
2076,0.79,34.781,27.315,34.414,31.605,7.163,6.712,12.586
2077,0.819,34.629,27.349,34.405,31.598,6.962,6.591,12.301
2078,0.813,34.733,27.334,34.376,31.595,6.96,6.59,12.217
2079,0.82,34.849,27.416,34.366,31.591,6.96,6.59,12.094
2080,0.83,34.917,27.327,34.376,31.591,6.919,6.549,11.971
2081,0.839,34.458,27.377,34.376,31.595,6.959,6.63,11.889
2082,0.826,34.626,27.381,34.386,31.598,7.0,6.631,11.685
2083,0.823,34.723,27.319,34.386,31.591,7.001,6.509,11.601
2084,0.839,34.791,27.314,34.357,31.584,6.879,6.386,11.275
2085,0.833,34.591,27.346,34.328,31.581,6.877,6.466,11.19
2086,0.826,34.713,27.346,34.356,31.591,6.959,6.548,11.108
2087,0.839,34.858,27.322,34.366,31.584,7.041,6.427,10.945
2088,0.836,34.908,27.338,34.357,31.591,6.96,6.426,10.781
2089,0.823,34.458,27.4,34.357,31.588,7.041,6.385,10.616
2090,0.813,34.587,27.444,34.357,31.594,7.001,6.385,10.493
2091,0.816,34.704,27.355,34.337,31.588,7.001,6.466,10.369
2092,0.82,34.523,27.389,34.356,31.594,7.082,6.548,10.328
2093,0.826,34.588,27.335,34.376,31.601,7.286,6.549,10.246
2094,0.83,34.771,27.385,34.395,31.598,7.125,6.508,10.082
2095,0.826,34.83,27.381,34.338,31.595,7.083,6.508,9.999
2096,0.839,34.399,27.338,34.347,31.588,7.083,6.508,9.836
2097,0.852,34.529,27.326,34.357,31.588,7.123,6.549,9.834
2098,0.872,34.646,27.322,34.357,31.591,7.124,6.508,9.672
2099,0.856,34.743,27.404,34.347,31.598,7.165,6.549,9.589
2100,0.83,34.341,27.366,34.366,31.598,7.165,6.508,9.466
2101,0.849,34.49,27.362,34.318,31.588,7.084,6.386,9.221
2102,0.853,34.578,27.358,34.318,31.574,7.083,6.425,9.178
2103,0.853,34.656,27.315,34.337,31.591,7.164,6.426,9.096
2104,0.872,34.426,27.314,34.347,31.588,7.165,6.466,9.054
2105,0.863,34.558,27.385,34.328,31.591,7.124,6.426,8.851
2106,0.875,34.675,27.299,34.337,31.588,7.205,6.385,8.849
2107,0.856,34.753,27.334,34.328,31.584,7.125,6.385,8.767
2108,0.849,34.648,27.35,34.308,31.581,7.165,6.466,8.685
2109,0.859,34.781,27.404,34.327,31.594,7.206,6.467,8.684
2110,0.856,34.926,27.35,34.366,31.601,7.328,6.548,8.725
2111,0.872,34.956,27.373,34.347,31.595,7.248,6.427,8.603
2112,0.856,34.209,27.37,34.337,31.591,7.247,6.385,8.602
2113,0.859,34.355,27.338,34.337,31.595,7.288,6.466,8.399
2114,0.866,34.471,27.33,34.328,31.591,7.247,6.507,8.478
2115,0.866,34.405,27.381,34.328,31.598,7.288,6.467,8.357
2116,0.866,34.376,27.366,34.337,31.595,7.288,6.467,8.437
2117,0.885,34.529,27.35,34.347,31.595,7.207,6.548,8.275
2118,0.885,34.626,27.342,34.328,31.591,7.043,6.386,8.111
2119,0.876,34.215,27.365,34.299,31.588,7.042,6.466,8.109
2120,0.889,34.345,27.37,34.308,31.588,7.123,6.507,8.15
2121,0.902,34.49,27.338,34.318,31.588,7.083,6.508,8.11
2122,0.892,34.578,27.358,34.308,31.591,7.083,6.467,8.191
2123,0.895,34.234,27.315,34.308,31.588,7.002,6.426,8.11
2124,0.905,34.403,27.318,34.299,31.581,6.96,6.507,8.15
2125,0.895,34.52,27.365,34.279,31.584,7.0,6.386,8.273
2126,0.902,34.598,27.35,34.318,31.591,7.163,6.547,8.518
2127,0.915,34.234,27.373,34.328,31.601,7.165,6.671,8.723
2128,0.912,34.384,27.374,34.337,31.595,7.084,6.55,8.807
2129,0.908,34.462,27.401,34.318,31.591,6.961,6.549,9.052
2130,0.889,34.539,27.307,34.308,31.591,7.0,6.508,9.217
2131,0.905,34.348,27.346,34.308,31.591,7.041,6.508,9.3
2132,0.905,34.49,27.354,34.318,31.591,7.042,6.589,9.463
2133,0.912,34.597,27.381,34.308,31.591,7.082,6.59,9.668
2134,0.915,34.656,27.311,34.327,31.588,7.083,6.549,9.792
2135,0.915,34.206,27.4,34.308,31.588,7.002,6.508,9.753
2136,0.912,34.326,27.358,34.289,31.581,6.96,6.386,9.833
2137,0.912,34.433,27.358,34.356,31.587,7.0,6.466,9.916
2138,0.931,34.462,27.35,34.299,31.584,7.082,6.507,10.039
2139,0.931,34.319,27.397,34.299,31.584,7.042,6.589,10.04
2140,0.941,34.442,27.366,34.289,31.591,7.082,6.59,9.999
2141,0.951,34.558,27.307,34.27,31.588,7.042,6.468,9.958
2142,0.948,34.138,27.353,34.27,31.581,7.082,6.386,10.039
2143,0.941,34.201,27.338,34.289,31.587,7.164,6.466,10.08
2144,0.967,34.393,27.354,34.308,31.601,7.409,6.629,10.04
