time,ecg,bvp,gsr,rsp,skt,emg_zygo,emg_coru,emg_trap
0,0.715,37.649,7.077,41.626,27.868,5.194,8.726,9.752
1,0.721,37.775,6.959,41.645,27.871,5.235,8.767,9.834
2,0.718,37.833,7.022,41.665,27.871,5.317,8.849,10.04
3,0.715,37.533,6.923,41.732,27.878,5.194,8.767,9.834
4,0.724,37.669,7.03,41.645,27.875,5.235,8.726,9.957
5,0.721,37.756,6.923,41.616,27.864,5.07,8.644,9.876
6,0.734,37.785,7.05,41.636,27.864,5.153,8.726,9.834
7,0.741,37.504,6.864,41.645,27.868,5.235,8.684,9.957
8,0.741,37.601,6.99,41.616,27.868,5.235,8.644,9.916
9,0.744,37.717,7.069,41.636,27.871,5.194,8.644,9.999
10,0.728,37.707,7.014,41.626,27.868,5.194,8.561,9.957
11,0.715,37.32,7.069,41.607,27.857,5.112,8.438,9.834
12,0.731,37.456,7.034,41.626,27.868,5.235,8.602,9.957
13,0.731,37.553,7.038,41.626,27.864,5.153,8.52,9.916
14,0.734,37.388,6.888,41.645,27.875,5.194,8.52,10.04
15,0.724,37.485,7.022,41.636,27.875,5.317,8.479,10.04
16,0.708,37.572,6.983,41.645,27.868,5.235,8.397,9.957
17,0.715,37.669,7.057,41.636,27.864,5.235,8.438,9.999
18,0.715,37.243,6.9,41.626,27.864,5.112,8.356,9.957
19,0.721,37.378,7.03,41.645,27.871,5.276,8.356,9.999
20,0.724,37.562,6.943,41.665,27.878,5.358,8.479,10.122
21,0.715,37.582,7.081,41.636,27.864,5.194,8.274,9.957
22,0.724,37.214,6.947,41.626,27.875,5.235,8.274,10.081
23,0.718,37.31,7.132,41.607,27.864,5.112,8.15,9.957
24,0.728,37.436,6.916,41.607,27.864,5.07,8.109,9.957
25,0.731,37.514,7.054,41.626,27.864,5.194,8.192,10.04
26,0.741,37.243,7.002,41.607,27.868,5.153,8.192,9.957
27,0.747,37.388,7.057,41.645,27.871,5.276,8.274,10.081
28,0.744,37.465,6.99,41.626,27.875,5.194,8.192,10.081
29,0.741,37.485,6.931,41.626,27.868,5.153,8.192,9.999
30,0.751,37.291,7.042,41.616,27.871,5.235,8.15,10.081
31,0.741,37.388,6.979,41.607,27.864,5.153,8.109,10.04
32,0.738,37.504,7.065,41.616,27.868,5.235,8.192,10.163
33,0.751,37.533,6.979,41.665,27.871,5.276,8.274,10.204
34,0.734,37.204,7.125,41.626,27.864,5.194,8.192,10.245
35,0.734,37.339,6.975,41.636,27.875,5.194,8.192,10.286
36,0.728,37.407,7.069,41.607,27.868,5.194,8.069,10.327
37,0.731,37.339,6.947,41.597,27.857,5.153,8.027,10.286
38,0.721,37.339,7.113,41.626,27.868,5.153,8.15,10.491
39,0.724,37.456,6.943,41.626,27.868,5.235,8.15,10.574
40,0.728,37.572,7.065,41.645,27.875,5.235,8.192,10.656
41,0.731,37.049,6.849,41.645,27.878,5.317,8.192,10.738
42,0.724,37.136,6.927,41.626,27.864,5.194,8.027,10.697
43,0.741,37.262,6.849,41.616,27.868,5.153,7.986,10.697
44,0.738,37.33,7.026,41.587,27.868,5.153,7.986,10.615
45,0.757,37.398,6.896,41.626,27.871,5.235,8.027,10.738
46,0.767,37.543,7.03,41.674,27.878,5.317,8.069,10.902
47,0.757,37.649,6.876,41.626,27.868,5.112,7.945,10.738
48,0.761,37.688,7.05,41.616,27.864,5.194,7.986,10.82
49,0.757,36.642,6.896,41.587,27.861,5.153,7.781,10.656
50,0.757,36.797,7.054,41.597,27.861,5.07,7.74,10.615
51,0.751,36.933,7.101,41.626,27.868,5.194,7.863,10.738
52,0.754,36.962,6.955,41.616,27.871,5.153,7.863,10.779
53,0.757,37.349,7.022,41.645,27.871,5.276,7.904,10.82
54,0.747,37.456,6.955,41.645,27.882,5.194,7.863,10.861
55,0.738,37.562,7.05,41.607,27.871,5.194,7.74,10.82
56,0.747,37.582,6.931,41.616,27.868,5.194,7.781,10.861
57,0.731,37.049,7.022,41.607,27.871,5.153,7.699,10.738
58,0.738,37.223,6.892,41.636,27.878,5.235,7.822,10.902
59,0.751,37.32,7.026,41.655,27.882,5.276,7.822,10.943
60,0.744,37.62,6.86,41.607,27.871,5.235,7.74,10.738
61,0.747,37.223,7.109,41.616,27.868,5.194,7.74,10.902
62,0.747,37.33,6.927,41.597,27.861,5.153,7.617,10.697
63,0.754,37.436,7.054,41.578,27.861,5.112,7.575,10.656
64,0.77,37.059,7.042,41.607,27.868,5.194,7.781,10.738
65,0.754,37.078,6.943,41.607,27.868,5.235,7.617,10.697
66,0.767,37.204,7.046,41.616,27.878,5.194,7.617,10.82
67,0.761,37.281,6.998,41.607,27.871,5.194,7.699,10.779
68,0.774,37.068,7.006,41.597,27.868,5.153,7.575,10.656
69,0.767,37.252,6.88,41.703,27.875,5.194,7.617,10.615
70,0.757,37.33,7.018,41.597,27.868,5.112,7.534,10.491
71,0.764,37.436,6.892,41.616,27.864,5.235,7.699,10.697
72,0.761,37.029,7.054,41.645,27.885,5.358,7.781,10.656
73,0.754,37.136,6.951,41.626,27.864,5.235,7.781,10.532
74,0.754,37.252,7.14,41.607,27.871,5.235,7.822,10.532
75,0.744,37.301,6.896,41.636,27.864,5.153,7.863,10.491
76,0.747,37.088,7.006,41.607,27.861,5.153,8.027,10.409
77,0.744,37.243,6.896,41.597,27.871,5.235,8.109,10.491
78,0.741,37.349,7.073,41.616,27.868,5.194,8.233,10.45
79,0.747,37.407,7.085,41.626,27.871,5.235,8.356,10.409
80,0.738,37.029,6.916,41.607,27.864,5.235,8.438,10.532
81,0.754,37.136,6.868,41.597,27.857,5.07,8.479,10.245
82,0.757,37.272,6.876,41.607,27.868,5.235,8.644,10.45
83,0.764,37.272,7.014,41.597,27.864,5.235,8.644,10.245
84,0.764,37.097,6.916,41.616,27.878,5.194,8.849,10.45
85,0.777,37.233,7.081,41.645,27.882,5.358,9.013,10.491
86,0.764,37.31,6.912,41.645,27.868,5.153,8.849,10.327
87,0.767,37.214,7.026,41.616,27.868,5.153,8.849,10.368
88,0.77,36.962,6.876,41.587,27.864,5.07,8.931,10.245
89,0.77,37.078,7.101,41.597,27.864,5.153,9.013,10.286
90,0.767,37.184,7.109,41.597,27.871,5.235,9.013,10.327
91,0.767,36.845,6.955,41.607,27.864,5.194,9.095,10.245
92,0.761,36.913,7.054,41.607,27.878,5.235,9.054,10.327
93,0.747,37.029,6.809,41.607,27.861,5.194,9.136,10.286
94,0.734,37.088,7.018,41.597,27.857,5.07,9.095,10.163
95,0.741,36.865,6.908,41.607,27.875,5.153,9.218,10.327
96,0.747,37.02,7.085,41.597,27.868,5.153,9.259,10.245
97,0.747,37.155,6.9,41.636,27.871,5.276,9.382,10.327
98,0.751,37.252,7.038,41.645,27.878,5.317,9.465,10.409
99,0.747,36.845,7.069,41.587,27.871,5.194,9.301,10.245
100,0.757,36.991,7.038,41.607,27.871,5.153,9.382,10.286
101,0.757,37.097,7.144,41.587,27.868,5.153,9.342,10.163
102,0.754,37.165,7.022,41.607,27.871,5.153,9.301,10.204
103,0.761,36.884,7.085,41.626,27.871,5.153,9.382,10.204
104,0.754,37.039,6.813,41.607,27.868,5.194,9.342,10.122
105,0.767,37.136,7.006,41.626,27.871,5.194,9.382,10.245
106,0.761,37.146,6.908,41.616,27.864,5.194,9.301,10.204
107,0.767,36.69,7.038,41.568,27.857,5.07,9.177,10.122
108,0.767,36.855,6.983,41.607,27.871,5.194,9.301,10.286
109,0.767,36.971,6.967,41.587,27.871,5.153,9.342,10.163
110,0.774,36.991,7.057,41.607,27.871,5.358,9.342,10.286
111,0.764,36.797,6.983,41.616,27.878,5.317,9.301,10.368
112,0.751,36.904,7.101,41.607,27.868,5.235,9.218,10.327
113,0.764,37.029,6.994,41.607,27.871,5.235,9.218,10.286
114,0.747,36.787,7.077,41.597,27.861,5.194,9.177,10.245
115,0.751,36.807,6.912,41.626,27.875,5.235,9.218,10.368
116,0.757,36.971,7.006,41.636,27.882,5.276,9.301,10.45
117,0.751,37.01,6.884,41.607,27.864,5.235,9.095,10.45
118,0.747,36.72,7.042,41.626,27.868,5.276,9.177,10.532
119,0.741,36.836,6.955,41.587,27.864,5.194,9.054,10.491
120,0.731,36.962,6.912,41.597,27.864,5.153,9.013,10.491
121,0.741,37.059,6.963,41.597,27.868,5.153,9.136,10.491
122,0.741,36.497,6.975,41.578,27.861,5.194,9.013,10.532
123,0.747,36.661,6.994,41.607,27.875,5.276,9.177,10.615
124,0.751,36.758,6.99,41.597,27.864,5.276,9.013,10.738
125,0.751,36.797,7.069,41.597,27.861,5.153,8.972,10.697
126,0.754,36.545,6.955,41.597,27.868,5.235,9.054,10.738
127,0.751,36.671,7.038,41.587,27.868,5.153,8.89,10.656
128,0.774,36.807,6.947,41.607,27.875,5.235,8.972,10.697
129,0.784,36.845,7.125,41.626,27.882,5.399,9.013,10.779
130,0.764,36.487,6.884,41.587,27.871,5.235,8.972,10.615
131,0.741,36.632,7.006,41.607,27.871,5.276,8.931,10.656
132,0.747,36.72,6.975,41.597,27.864,5.153,8.808,10.656
133,0.747,36.787,6.935,41.607,27.868,5.194,8.972,10.656
134,0.741,36.613,7.022,41.597,27.871,5.235,8.931,10.738
135,0.741,36.739,6.959,41.597,27.864,5.317,8.972,10.82
136,0.741,36.845,7.054,41.597,27.871,5.153,8.972,10.861
137,0.731,36.971,6.916,41.587,27.868,5.235,8.89,10.82
138,0.721,36.535,7.038,41.587,27.857,5.112,8.808,10.861
139,0.731,36.681,6.86,41.607,27.871,5.235,8.931,10.902
140,0.728,36.787,7.057,41.597,27.864,5.194,8.849,10.779
141,0.741,36.545,6.998,41.607,27.871,5.235,8.89,10.902
142,0.747,36.613,7.018,41.645,27.882,5.358,9.013,10.984
143,0.738,36.71,7.057,41.607,27.868,5.194,8.767,10.82
144,0.747,36.807,6.963,41.616,27.864,5.235,8.808,10.82
145,0.738,36.4,7.085,41.587,27.864,5.112,8.684,10.697
146,0.747,36.535,6.939,41.597,27.864,5.194,8.684,10.697
147,0.747,36.681,7.073,41.607,27.878,5.235,8.767,10.656
148,0.751,36.729,6.9,41.645,27.871,5.153,8.767,10.615
149,0.751,36.458,6.971,41.607,27.871,5.235,8.89,10.615
150,0.744,36.574,7.01,41.587,27.868,5.153,8.89,10.574
151,0.744,36.681,7.014,41.578,27.861,5.07,8.89,10.45
152,0.731,36.778,7.105,41.597,27.871,5.153,9.136,10.532
153,0.728,36.41,6.998,41.597,27.864,5.153,9.136,10.45
154,0.724,36.555,7.097,41.616,27.871,5.235,9.342,10.532
155,0.721,36.671,6.92,41.597,27.871,5.235,9.424,10.574
156,0.724,36.71,7.046,41.607,27.868,5.276,9.382,10.45
157,0.728,36.477,6.935,41.616,27.878,5.112,9.424,10.409
158,0.711,36.603,7.054,41.597,27.861,5.112,9.424,10.368
159,0.721,36.729,6.983,41.626,27.875,5.153,9.547,10.409
160,0.731,36.787,6.987,41.665,27.878,5.317,9.752,10.532
161,0.718,36.884,7.014,41.607,27.871,5.153,9.506,10.327
162,0.728,37.01,6.92,41.616,27.864,5.194,9.547,10.327
163,0.724,37.078,7.081,41.587,27.861,5.112,9.506,10.245
164,0.738,36.603,7.002,41.607,27.864,5.153,9.506,10.245
165,0.738,36.322,7.057,41.597,27.868,5.112,9.588,10.286
166,0.731,36.429,6.927,41.597,27.864,5.194,9.547,10.245
167,0.731,36.545,7.093,41.616,27.868,5.194,9.629,10.409
168,0.724,36.506,6.935,41.607,27.868,5.235,9.588,10.327
169,0.734,36.594,7.065,41.587,27.861,5.03,9.465,10.245
170,0.741,36.739,6.892,41.607,27.864,5.194,9.506,10.327
171,0.728,36.816,6.983,41.597,27.868,5.153,9.465,10.245
172,0.724,36.429,6.876,41.607,27.875,5.235,9.465,10.409
173,0.738,36.594,6.943,41.645,27.878,5.317,9.629,10.327
174,0.711,36.681,7.006,41.607,27.864,5.153,9.465,10.245
175,0.711,36.749,6.987,41.607,27.868,5.235,9.506,10.245
176,0.701,36.477,7.042,41.587,27.864,5.112,9.424,10.122
177,0.701,36.661,6.868,41.607,27.871,5.194,9.465,10.245
178,0.701,36.787,7.046,41.626,27.871,5.235,9.547,10.204
179,0.695,36.787,6.896,41.626,27.868,5.153,9.506,10.081
180,0.692,36.506,7.097,41.616,27.875,5.235,9.547,10.122
181,0.695,36.613,6.951,41.597,27.868,5.112,9.424,10.122
182,0.698,36.72,7.01,41.587,27.864,5.07,9.382,9.916
183,0.695,36.787,7.002,41.607,27.871,5.235,9.506,10.081
184,0.708,36.545,6.908,41.607,27.868,5.153,9.382,9.999
185,0.711,36.69,7.034,41.626,27.871,5.235,9.424,10.04
186,0.711,36.787,6.983,41.616,27.871,5.235,9.424,10.122
187,0.711,37.049,7.022,41.587,27.871,5.153,9.342,10.04
188,0.728,36.623,6.888,41.616,27.878,5.153,9.301,9.999
189,0.721,36.71,7.034,41.587,27.861,5.112,9.218,9.916
190,0.715,36.845,6.888,41.607,27.871,5.317,9.259,9.999
191,0.728,36.574,7.097,41.645,27.885,5.235,9.342,10.163
192,0.718,36.565,6.951,41.607,27.875,5.194,9.177,10.04
193,0.715,36.7,7.077,41.616,27.871,5.153,9.136,10.081
194,0.695,36.768,6.967,41.616,27.861,5.07,9.013,9.957
195,0.695,36.594,6.916,41.597,27.868,5.07,8.931,9.916
196,0.688,36.729,7.038,41.597,27.875,5.153,8.931,10.081
197,0.698,36.836,6.998,41.587,27.871,5.112,8.89,9.999
198,0.695,36.923,7.077,41.626,27.871,5.235,8.931,10.163
199,0.692,36.565,6.852,41.626,27.875,5.153,8.931,10.04
200,0.682,36.7,7.022,41.578,27.868,5.07,8.726,9.916
201,0.695,36.845,6.892,41.597,27.868,5.153,8.767,9.957
202,0.698,36.874,7.026,41.597,27.871,5.112,8.726,9.999
203,0.708,36.661,7.069,41.626,27.878,5.235,8.767,10.04
204,0.718,36.845,7.073,41.645,27.878,5.276,8.767,10.081
205,0.708,36.923,7.057,41.607,27.868,5.194,8.602,9.834
206,0.718,36.962,6.959,41.616,27.871,5.194,8.684,9.957
207,0.715,36.555,7.089,41.578,27.864,5.153,8.479,9.916
208,0.724,36.671,7.006,41.597,27.861,5.07,8.52,9.711
209,0.711,36.807,7.105,41.616,27.871,5.112,8.602,9.876
210,0.711,36.816,6.931,41.587,27.868,5.153,8.52,9.793
211,0.708,36.642,6.983,41.616,27.871,5.194,8.644,9.876
212,0.705,36.768,6.888,41.694,27.871,5.153,8.479,9.834
213,0.682,36.836,6.99,41.587,27.864,5.112,8.397,9.834
214,0.692,36.845,7.054,41.597,27.871,5.153,8.438,9.834
215,0.688,36.632,7.022,41.597,27.861,5.153,8.315,9.793
216,0.698,36.807,7.073,41.636,27.878,5.194,8.479,9.793
217,0.698,36.894,6.916,41.645,27.882,5.317,8.602,9.999
218,0.685,36.739,7.077,41.607,27.868,5.194,8.438,9.876
219,0.688,36.836,6.955,41.626,27.871,5.235,8.52,9.957
220,0.685,36.942,7.089,41.587,27.861,5.07,8.438,9.957
221,0.698,37.029,6.971,41.616,27.868,5.153,8.479,10.04
222,0.692,36.603,6.99,41.616,27.871,5.194,8.602,10.163
223,0.695,36.72,7.006,41.616,27.875,5.112,8.644,10.163
224,0.695,36.845,6.92,41.616,27.875,5.153,8.644,10.327
225,0.701,36.884,7.065,41.597,27.864,5.153,8.644,10.327
226,0.701,36.613,6.975,41.578,27.861,5.03,8.561,10.286
227,0.708,36.787,6.994,41.607,27.871,5.112,8.684,10.409
228,0.701,36.884,6.927,41.587,27.864,5.153,8.684,10.409
229,0.701,36.971,7.034,41.616,27.871,5.153,8.808,10.574
230,0.708,36.477,6.908,41.616,27.882,5.276,8.808,10.656
231,0.701,36.594,7.132,41.607,27.868,5.153,8.684,10.532
232,0.698,36.71,6.983,41.616,27.875,5.153,8.684,10.615
233,0.688,36.71,7.061,41.597,27.864,5.112,8.52,10.532
234,0.695,36.787,6.892,41.607,27.871,5.112,8.602,10.532
235,0.695,36.942,7.069,41.626,27.871,5.153,8.602,10.697
236,0.685,37.01,7.061,41.607,27.871,5.153,8.561,10.615
237,0.685,37.029,7.03,41.616,27.878,5.235,8.602,10.656
238,0.669,36.7,7.03,41.616,27.864,5.07,8.479,10.656
239,0.672,36.807,6.923,41.578,27.861,5.03,8.397,10.491
240,0.678,36.962,7.046,41.616,27.864,5.153,8.52,10.656
241,0.685,36.768,6.892,41.587,27.871,5.112,8.397,10.491
242,0.685,36.768,7.038,41.607,27.882,5.153,8.479,10.615
243,0.692,36.894,6.856,41.645,27.878,5.194,8.52,10.656
244,0.698,36.962,7.073,41.607,27.871,5.235,8.397,10.532
245,0.701,36.584,6.86,41.616,27.875,5.112,8.356,10.491
246,0.695,36.661,6.979,41.587,27.864,5.153,8.315,10.368
247,0.708,36.826,6.963,41.616,27.864,5.194,8.397,10.409
248,0.734,36.913,7.054,41.626,27.878,5.194,8.52,10.45
249,0.698,36.681,7.026,41.616,27.871,5.112,8.315,10.368
250,0.695,36.836,6.884,41.626,27.868,5.153,8.356,10.368
251,0.695,36.913,7.042,41.597,27.864,5.07,8.315,10.327
252,0.688,36.991,6.876,41.597,27.861,5.112,8.274,10.204
253,0.692,36.642,7.002,41.597,27.875,5.153,8.356,10.245
254,0.682,36.787,6.923,41.607,27.864,5.112,8.315,10.286
255,0.685,36.894,7.069,41.607,27.875,5.194,8.438,10.491
256,0.672,36.933,6.876,41.616,27.871,5.194,8.397,10.491
257,0.682,36.565,6.975,41.587,27.864,5.112,8.274,10.574
258,0.682,36.729,7.05,41.607,27.875,5.153,8.438,10.656
259,0.669,36.826,7.018,41.597,27.864,5.194,8.438,10.574
260,0.675,36.884,7.136,41.626,27.875,5.194,8.479,10.738
261,0.692,36.7,6.987,41.636,27.882,5.317,8.602,10.902
262,0.685,36.797,7.022,41.616,27.868,5.235,8.479,10.779
263,0.682,36.894,6.825,41.636,27.871,5.153,8.479,10.861
264,0.688,37.039,7.038,41.597,27.868,5.153,8.438,10.779
265,0.695,36.603,6.967,41.587,27.868,5.153,8.397,10.902
266,0.701,36.72,7.105,41.616,27.871,5.194,8.479,11.025
267,0.698,36.826,6.935,41.645,27.868,5.153,8.315,10.984
268,0.705,36.642,7.054,41.616,27.871,5.194,8.356,11.066
269,0.698,36.7,6.916,41.597,27.868,5.153,8.356,10.943
270,0.695,36.807,7.101,41.587,27.861,5.07,8.233,10.943
271,0.692,36.913,6.994,41.616,27.871,5.194,8.315,10.984
272,0.682,36.506,7.101,41.587,27.861,5.194,8.315,10.984
273,0.695,36.671,6.979,41.626,27.871,5.153,8.438,11.066
274,0.672,36.797,6.987,41.655,27.878,5.235,8.438,11.108
275,0.672,36.865,7.046,41.597,27.871,5.153,8.356,10.984
276,0.678,36.565,6.994,41.607,27.868,5.194,8.397,10.984
277,0.669,36.671,7.125,41.607,27.864,5.153,8.397,10.902
278,0.665,36.826,6.908,41.626,27.871,5.235,8.397,11.025
279,0.685,36.894,7.081,41.655,27.882,5.317,8.479,11.149
280,0.669,36.516,6.876,41.607,27.875,5.194,8.356,10.902
281,0.682,36.652,7.089,41.626,27.871,5.235,8.397,10.943
282,0.675,36.729,6.935,41.578,27.861,5.112,8.356,10.82
283,0.682,36.797,7.109,41.616,27.861,5.153,8.356,10.738
284,0.688,36.623,6.955,41.616,27.871,5.235,8.315,10.82
285,0.688,36.758,7.061,41.616,27.864,5.112,8.315,10.738
286,0.705,36.884,6.868,41.645,27.871,5.235,8.397,10.82
287,0.685,36.865,7.018,41.616,27.875,5.112,8.397,10.738
288,0.692,36.39,7.077,41.578,27.861,5.03,8.315,10.615
289,0.708,36.535,6.943,41.616,27.864,5.194,8.356,10.656
290,0.705,36.632,7.018,41.616,27.868,5.153,8.315,10.656
291,0.698,36.565,6.884,41.626,27.871,5.153,8.356,10.656
292,0.698,36.497,7.05,41.645,27.878,5.317,8.397,10.656
293,0.692,36.594,6.892,41.607,27.871,5.07,8.233,10.491
294,0.682,36.69,7.054,41.607,27.875,5.112,8.274,10.532
295,0.682,36.913,6.872,41.607,27.868,5.07,8.15,10.409
296,0.682,37.078,7.014,41.636,27.868,5.153,8.274,10.45
297,0.685,37.223,6.959,41.636,27.882,5.235,8.274,10.491
298,0.675,37.281,6.998,41.626,27.864,5.112,8.274,10.368
299,0.682,36.148,7.097,41.636,27.864,5.194,8.274,10.368
300,0.669,36.245,6.943,41.597,27.864,4.988,8.274,10.327
301,0.672,36.371,7.034,41.578,27.861,5.07,8.027,10.163
302,0.685,36.458,6.908,41.626,27.868,5.07,8.233,10.245
303,0.682,36.429,7.026,41.636,27.871,5.153,8.15,10.163
304,0.701,36.584,6.923,41.626,27.878,5.235,8.233,10.204
305,0.705,36.681,7.089,41.636,27.878,5.317,8.274,10.245
306,0.692,36.72,6.904,41.616,27.868,5.153,8.15,10.081
307,0.705,36.284,7.042,41.626,27.868,5.194,8.109,10.122
308,0.695,36.419,6.837,41.597,27.868,5.112,7.986,10.04
309,0.705,36.555,7.042,41.616,27.878,5.235,8.15,10.122
310,0.708,36.613,7.089,41.636,27.882,5.317,8.15,10.163
311,0.685,36.342,7.002,41.616,27.868,5.194,8.069,10.081
312,0.692,36.497,7.093,41.636,27.875,5.235,8.027,10.081
313,0.685,36.565,6.975,41.607,27.864,5.153,7.986,10.04
314,0.675,36.807,6.994,41.587,27.857,5.07,7.945,9.876
315,0.682,36.371,6.904,41.607,27.868,5.194,7.986,9.999
316,0.675,36.487,7.054,41.607,27.871,5.153,8.027,9.876
317,0.688,36.584,6.959,41.626,27.878,5.276,8.069,10.04
318,0.669,36.284,7.054,41.645,27.875,5.276,8.109,9.957
319,0.665,36.255,6.88,41.597,27.861,5.194,8.069,9.834
320,0.682,36.4,7.022,41.626,27.868,5.235,8.15,9.916
321,0.692,36.477,6.908,41.607,27.861,5.194,8.109,9.793
322,0.695,36.177,7.093,41.616,27.871,5.358,8.233,9.793
323,0.701,36.332,6.9,41.645,27.878,5.358,8.356,9.876
324,0.692,36.419,7.026,41.607,27.871,5.317,8.233,9.711
325,0.698,36.506,7.046,41.636,27.875,5.317,8.315,9.834
326,0.688,36.09,6.959,41.587,27.861,5.194,8.274,9.67
327,0.698,36.255,7.109,41.597,27.871,5.235,8.274,9.67
328,0.708,36.361,7.046,41.616,27.878,5.276,8.315,9.711
329,0.701,36.429,7.042,41.607,27.864,5.235,8.315,9.629
330,0.715,36.09,6.939,41.616,27.882,5.358,8.438,9.67
331,0.698,36.235,7.057,41.616,27.871,5.276,8.479,9.67
332,0.675,36.332,6.856,41.587,27.864,5.194,8.438,9.588
333,0.692,36.41,7.034,41.607,27.864,5.317,8.479,9.752
334,0.672,36.129,6.943,41.597,27.871,5.235,8.479,9.67
335,0.685,36.284,7.014,41.645,27.878,5.358,8.602,9.711
336,0.695,36.41,7.069,41.655,27.882,5.399,8.684,9.876
337,0.682,36.41,6.955,41.607,27.875,5.276,8.561,9.793
338,0.678,36.119,7.14,41.616,27.875,5.358,8.52,9.834
339,0.672,36.245,6.967,41.607,27.864,5.194,8.479,9.793
340,0.682,36.342,7.073,41.616,27.864,5.194,8.52,9.793
341,0.692,36.332,6.86,41.616,27.871,5.194,8.52,9.916
342,0.685,36.119,6.931,41.607,27.868,5.276,8.52,9.916
343,0.678,36.284,7.01,41.636,27.868,5.317,8.561,10.081
344,0.692,36.342,6.943,41.607,27.875,5.317,8.52,10.204
345,0.695,35.935,7.077,41.597,27.868,5.235,8.356,10.163
346,0.695,36.032,6.923,41.616,27.871,5.276,8.479,10.286
347,0.695,36.167,7.042,41.597,27.875,5.235,8.397,10.245
348,0.705,36.255,6.923,41.616,27.871,5.276,8.438,10.409
349,0.715,35.945,7.101,41.636,27.885,5.358,8.52,10.656
350,0.705,36.061,6.99,41.607,27.864,5.235,8.397,10.45
351,0.692,36.187,7.113,41.616,27.868,5.317,8.397,10.409
352,0.682,36.245,6.92,41.607,27.864,5.153,8.356,10.45
353,0.695,36.032,6.998,41.607,27.864,5.194,8.274,10.574
354,0.692,36.187,6.963,41.626,27.871,5.317,8.274,10.615
355,0.682,36.284,6.983,41.597,27.864,5.235,8.274,10.574
356,0.678,36.332,7.089,41.626,27.875,5.317,8.356,10.697
357,0.675,35.935,6.959,41.616,27.868,5.194,8.192,10.656
358,0.659,36.09,7.01,41.684,27.864,5.153,8.15,10.656
359,0.672,36.216,6.931,41.607,27.875,5.317,8.233,10.779
360,0.675,36.245,7.038,41.597,27.864,5.194,8.109,10.779
361,0.688,35.887,6.987,41.626,27.878,5.317,8.192,10.82
362,0.692,36.032,7.077,41.645,27.889,5.399,8.233,10.902
363,0.678,36.119,7.054,41.597,27.871,5.276,8.069,10.861
364,0.701,36.119,7.054,41.626,27.871,5.235,8.109,10.861
365,0.695,35.935,6.908,41.597,27.864,5.235,7.945,10.738
366,0.701,36.09,7.05,41.626,27.868,5.235,8.069,10.82
367,0.711,36.226,6.963,41.636,27.878,5.317,8.027,10.82
368,0.715,35.983,7.054,41.616,27.868,5.235,7.945,10.779
369,0.698,35.964,6.805,41.616,27.878,5.317,7.945,10.779
370,0.698,36.071,7.018,41.597,27.864,5.194,7.863,10.779
371,0.688,36.158,6.837,41.578,27.861,5.112,7.781,10.697
372,0.692,35.761,6.979,41.607,27.875,5.235,7.822,10.861
373,0.695,35.877,6.876,41.607,27.868,5.235,7.863,10.779
374,0.688,36.012,7.065,41.616,27.878,5.235,7.945,10.902
375,0.675,36.09,6.998,41.616,27.875,5.317,7.945,10.861
376,0.669,35.857,6.939,41.587,27.868,5.153,7.781,10.738
377,0.688,36.032,7.061,41.616,27.868,5.235,7.945,10.82
378,0.678,36.129,7.006,41.607,27.864,5.194,7.863,10.656
379,0.685,36.206,7.117,41.626,27.875,5.317,7.986,10.779
380,0.678,35.77,6.904,41.645,27.882,5.358,8.027,10.779
381,0.678,35.887,6.971,41.636,27.875,5.235,7.863,10.574
382,0.682,36.012,6.876,41.616,27.868,5.235,8.027,10.574
383,0.678,36.032,7.05,41.578,27.861,5.153,7.863,10.409
384,0.695,35.79,6.845,41.616,27.868,5.153,7.945,10.409
385,0.708,35.954,7.065,41.616,27.871,5.276,8.027,10.491
386,0.695,36.051,6.983,41.607,27.871,5.235,8.069,10.491
387,0.708,36.071,6.967,41.616,27.875,5.276,8.069,10.615
388,0.701,35.761,7.034,41.607,27.875,5.235,8.069,10.491
389,0.695,35.887,6.99,41.587,27.871,5.112,8.027,10.286
390,0.708,36.012,7.117,41.597,27.868,5.276,8.027,10.45
391,0.695,36.187,6.971,41.587,27.864,5.235,8.069,10.409
392,0.695,35.819,7.077,41.636,27.878,5.235,8.109,10.532
393,0.708,35.954,6.813,41.645,27.885,5.358,8.233,10.697
394,0.688,36.042,7.03,41.616,27.871,5.194,8.15,10.491
395,0.685,35.77,6.884,41.626,27.868,5.276,8.192,10.574
396,0.682,35.809,7.054,41.578,27.868,5.194,8.109,10.491
397,0.692,35.954,7.022,41.626,27.868,5.235,8.233,10.615
398,0.675,36.051,6.979,41.636,27.875,5.194,8.315,10.574
399,0.682,35.712,7.069,41.626,27.868,5.194,8.274,10.574
400,0.688,35.838,6.963,41.607,27.871,5.276,8.356,10.656
401,0.688,35.945,7.089,41.607,27.868,5.235,8.315,10.615
402,0.675,35.983,6.967,41.578,27.861,5.153,8.192,10.45
403,0.692,35.615,7.089,41.636,27.871,5.235,8.356,10.656
404,0.692,35.741,6.849,41.616,27.861,5.194,8.233,10.697
405,0.701,35.906,7.034,41.626,27.878,5.317,8.274,10.738
406,0.718,35.974,7.046,41.645,27.885,5.317,8.479,10.82
407,0.698,35.702,6.994,41.607,27.864,5.235,8.274,10.656
408,0.705,35.838,7.038,41.616,27.875,5.235,8.315,10.738
409,0.701,35.925,6.943,41.607,27.864,5.07,8.233,10.656
410,0.708,35.993,7.038,41.597,27.861,5.153,8.192,10.532
411,0.692,36.361,6.92,41.626,27.868,5.194,8.233,10.656
412,0.698,36.506,7.038,41.607,27.875,5.153,8.192,10.697
413,0.688,36.613,7.101,41.626,27.878,5.235,8.233,10.738
414,0.688,36.594,7.014,41.607,27.871,5.153,8.233,10.697
415,0.678,35.354,7.081,41.587,27.868,5.153,8.027,10.656
416,0.682,35.548,6.912,41.626,27.871,5.235,8.15,10.656
417,0.678,35.644,7.077,41.607,27.864,5.153,8.15,10.574
418,0.682,35.799,6.99,41.626,27.875,5.235,8.15,10.656
419,0.698,35.887,7.038,41.655,27.882,5.317,8.233,10.697
420,0.678,35.974,6.852,41.616,27.864,5.153,7.986,10.532
421,0.685,36.09,7.018,41.713,27.878,5.194,8.069,10.491
422,0.695,35.586,6.833,41.607,27.868,5.07,7.945,10.409
423,0.695,35.693,6.959,41.587,27.864,5.07,7.863,10.286
424,0.708,35.819,6.884,41.607,27.871,5.07,7.986,10.368
425,0.708,35.896,7.018,41.607,27.864,5.153,7.863,10.286
426,0.698,35.548,6.979,41.607,27.878,5.194,7.945,10.286
427,0.692,35.683,6.99,41.616,27.875,5.153,7.945,10.286
428,0.695,35.77,7.085,41.578,27.857,5.07,7.74,10.163
429,0.701,35.877,7.034,41.607,27.875,5.153,7.904,10.163
430,0.695,35.615,7.085,41.587,27.868,5.112,7.74,10.081
431,0.695,35.79,6.943,41.616,27.871,5.194,7.822,10.122
432,0.705,35.925,7.018,41.645,27.885,5.276,7.945,10.245
433,0.692,35.954,6.908,41.607,27.868,5.194,7.781,10.04
434,0.685,35.557,7.03,41.626,27.878,5.07,7.781,10.122
435,0.672,35.664,6.9,41.597,27.864,5.112,7.699,9.957
436,0.678,35.799,7.022,41.616,27.871,5.07,7.74,9.999
437,0.682,35.867,6.987,41.626,27.875,5.07,7.781,10.122
438,0.678,35.702,6.947,41.616,27.864,5.112,7.945,10.04
439,0.682,35.828,7.042,41.645,27.878,5.153,7.986,10.04
440,0.672,35.925,6.99,41.587,27.864,5.07,7.986,10.04
441,0.672,36.167,7.117,41.578,27.857,4.988,7.904,9.916
442,0.682,35.596,6.998,41.597,27.875,5.112,8.15,9.999
443,0.682,35.712,7.061,41.626,27.868,5.07,8.192,9.957
444,0.688,35.838,6.947,41.636,27.875,5.153,8.315,9.999
445,0.695,35.548,7.097,41.626,27.889,5.235,8.438,10.081
446,0.695,35.567,6.947,41.607,27.868,5.112,8.52,9.999
447,0.705,35.702,7.065,41.616,27.875,5.112,8.52,10.04
448,0.695,35.79,6.841,41.694,27.861,5.03,8.356,9.916
449,0.701,35.47,6.959,41.626,27.871,5.153,8.438,9.916
450,0.705,35.625,7.05,41.645,27.882,5.194,8.644,10.04
451,0.692,35.722,7.03,41.597,27.868,5.03,8.561,9.916
452,0.695,35.819,7.089,41.616,27.871,5.194,8.684,10.04
453,0.688,35.945,7.014,41.607,27.864,5.03,8.561,9.916
454,0.678,36.1,7.057,41.587,27.864,4.988,8.438,9.957
455,0.685,36.226,6.951,41.616,27.875,5.112,8.52,10.081
456,0.682,36.293,7.061,41.587,27.871,5.07,8.602,9.999
457,0.678,35.393,6.959,41.616,27.878,5.112,8.726,10.245
458,0.669,35.557,7.081,41.626,27.875,5.153,8.684,10.327
459,0.672,35.664,6.872,41.616,27.871,5.03,8.602,10.245
460,0.682,35.732,7.042,41.626,27.864,5.112,8.684,10.245
461,0.682,35.48,6.837,41.597,27.868,4.988,8.644,10.163
462,0.688,35.625,6.998,41.626,27.878,5.112,8.808,10.245
463,0.685,35.78,7.073,41.655,27.878,5.153,8.849,10.327
464,0.682,35.761,6.935,41.607,27.871,4.988,8.767,10.286
465,0.698,35.548,7.002,41.626,27.868,5.07,8.849,10.327
466,0.698,35.683,6.9,41.587,27.864,4.988,8.767,10.327
467,0.692,35.799,7.05,41.587,27.864,4.947,8.726,10.368
468,0.698,35.78,6.904,41.626,27.871,5.112,8.849,10.656
469,0.701,35.577,7.061,41.587,27.868,4.988,8.767,10.82
470,0.705,35.722,6.872,41.616,27.878,5.03,8.849,11.066
471,0.688,35.838,6.979,41.626,27.871,5.153,8.849,11.272
472,0.688,35.489,7.026,41.626,27.861,5.03,8.767,11.395
473,0.695,35.586,6.912,41.636,27.875,5.153,8.808,11.559
474,0.672,35.722,7.022,41.607,27.864,4.988,8.726,11.683
475,0.682,35.799,6.983,41.626,27.878,5.112,8.849,11.847
476,0.682,35.48,7.05,41.645,27.882,5.235,8.972,12.011
477,0.672,35.606,6.852,41.636,27.871,5.07,8.849,11.97
478,0.669,35.722,7.014,41.626,27.875,5.03,8.972,12.011
479,0.665,35.78,6.884,41.597,27.868,4.947,8.808,11.929
480,0.662,35.451,7.077,41.616,27.871,4.988,8.89,11.929
481,0.678,35.644,6.916,41.616,27.875,5.07,8.931,12.052
482,0.672,35.722,7.05,41.607,27.864,4.988,8.972,11.97
483,0.675,35.799,6.801,41.607,27.871,5.03,8.931,12.011
484,0.682,35.489,6.971,41.607,27.861,4.988,8.931,12.052
485,0.682,35.586,6.837,41.597,27.857,4.906,8.89,12.011
486,0.692,35.741,7.046,41.616,27.875,4.988,8.972,12.216
487,0.692,35.761,7.006,41.607,27.861,5.03,8.972,12.257
488,0.708,35.528,6.856,41.616,27.878,5.112,9.054,12.422
489,0.705,35.664,7.014,41.626,27.882,5.153,9.013,12.545
490,0.698,35.761,6.88,41.597,27.868,4.988,8.972,12.463
491,0.688,35.799,7.089,41.616,27.878,5.07,9.013,12.422
492,0.692,35.567,6.927,41.607,27.864,4.947,8.931,12.381
493,0.698,35.702,7.093,41.616,27.878,5.112,9.054,12.463
494,0.695,35.838,6.888,41.645,27.878,5.112,9.095,12.545
495,0.675,35.625,7.006,41.616,27.871,5.03,9.095,12.463
496,0.688,35.596,6.904,41.607,27.871,5.112,9.095,12.463
497,0.682,35.693,7.097,41.607,27.864,5.07,9.054,12.381
498,0.678,35.79,6.856,41.587,27.864,4.947,8.849,12.339
499,0.675,35.422,6.908,41.636,27.868,5.07,9.013,12.381
500,0.685,35.528,7.038,41.607,27.868,5.03,8.931,12.257
501,0.711,35.664,6.967,41.645,27.878,5.153,8.931,12.257
502,0.715,35.761,7.073,41.645,27.878,5.194,9.013,12.175
503,0.708,35.518,6.959,41.616,27.871,5.03,8.89,12.011
504,0.721,35.654,7.093,41.616,27.875,5.112,8.931,12.011
505,0.708,35.761,6.837,41.597,27.868,4.906,8.808,11.888
506,0.738,35.848,7.014,41.626,27.878,5.03,8.767,11.806
507,0.77,35.364,6.88,41.636,27.875,5.194,8.808,11.723
508,0.757,35.48,7.061,41.607,27.864,5.07,8.767,11.6
509,0.767,35.625,6.994,41.616,27.875,5.153,8.808,11.518
510,0.77,35.644,6.975,41.616,27.861,4.988,8.767,11.395
511,0.754,35.538,6.959,41.587,27.864,4.906,8.684,11.313
512,0.774,35.712,6.994,41.703,27.871,5.07,8.808,11.395
513,0.777,35.828,7.061,41.597,27.868,5.07,8.684,11.272
514,0.774,35.867,6.947,41.636,27.878,5.07,8.89,11.272
515,0.78,35.499,7.117,41.626,27.878,5.194,8.89,11.231
516,0.761,35.625,6.876,41.607,27.861,5.03,8.767,11.108
517,0.764,35.761,7.046,41.616,27.875,5.07,8.849,11.272
518,0.757,35.945,6.892,41.597,27.871,5.03,8.849,10.984
519,0.761,35.528,7.054,41.636,27.878,5.07,8.849,11.108
520,0.767,35.712,7.125,41.655,27.878,5.153,9.013,11.108
521,0.757,35.78,7.018,41.616,27.868,5.07,8.849,10.902
522,0.761,35.577,7.077,41.626,27.871,5.112,8.931,10.902
523,0.744,35.635,6.805,41.616,27.864,4.988,8.849,10.779
524,0.761,35.77,7.05,41.607,27.861,4.947,8.849,10.656
525,0.767,35.857,6.931,41.607,27.864,5.112,8.931,10.779
526,0.764,35.325,7.065,41.607,27.868,4.988,8.89,10.656
527,0.757,35.489,6.92,41.626,27.875,5.112,8.972,10.738
528,0.754,35.606,7.01,41.626,27.878,5.07,9.054,10.656
529,0.751,35.673,6.833,41.607,27.864,5.03,8.931,10.615
530,0.774,35.47,7.03,41.607,27.871,5.03,9.054,10.532
531,0.77,35.625,6.979,41.597,27.871,4.988,8.89,10.409
532,0.777,35.741,7.069,41.636,27.875,5.112,9.136,10.574
533,0.784,35.828,7.136,41.645,27.882,5.153,9.054,10.574
534,0.767,35.422,7.006,41.645,27.864,4.988,8.972,10.491
535,0.774,35.567,6.998,41.626,27.875,5.112,9.013,10.409
536,0.747,35.654,7.01,41.578,27.864,4.947,8.849,10.368
537,0.747,35.712,7.081,41.626,27.868,5.03,8.849,10.286
538,0.751,35.509,6.943,41.636,27.878,5.07,8.89,10.368
539,0.747,35.635,7.022,41.626,27.871,5.07,8.849,10.327
540,0.731,35.751,6.916,41.616,27.871,5.07,8.849,10.286
541,0.728,35.741,7.018,41.607,27.871,4.988,8.849,10.245
542,0.721,35.431,6.86,41.597,27.864,4.906,8.684,10.122
543,0.721,35.577,7.038,41.616,27.871,5.03,8.726,10.163
544,0.728,35.683,7.077,41.607,27.875,4.988,8.726,10.122
545,0.734,35.586,6.99,41.626,27.871,5.112,8.808,10.245
546,0.724,35.509,6.998,41.645,27.878,5.194,8.849,10.286
547,0.715,35.615,7.014,41.607,27.871,4.988,8.684,10.081
548,0.715,35.722,7.097,41.616,27.875,5.03,8.767,10.081
549,0.695,35.334,6.963,41.587,27.868,4.947,8.644,9.999
550,0.701,35.46,6.975,41.616,27.871,4.988,8.726,10.081
551,0.695,35.606,6.994,41.684,27.882,5.07,8.767,10.122
552,0.695,35.664,7.034,41.616,27.875,4.906,8.684,9.999
553,0.698,35.441,6.92,41.626,27.871,5.03,8.644,10.081
554,0.701,35.586,7.061,41.607,27.868,4.947,8.644,9.999
555,0.698,35.683,6.92,41.587,27.861,4.865,8.479,9.876
556,0.711,35.799,7.054,41.636,27.871,5.03,8.602,10.081
557,0.708,35.373,6.868,41.607,27.861,4.988,8.561,9.999
558,0.715,35.548,7.065,41.636,27.878,5.07,8.684,10.163
559,0.711,35.635,6.939,41.655,27.878,5.112,8.644,10.163
560,0.695,35.683,7.097,41.607,27.864,4.988,8.602,10.081
561,0.705,35.393,6.876,41.626,27.868,4.988,8.52,10.081
562,0.698,35.528,6.994,41.607,27.857,4.906,8.479,9.916
563,0.705,35.664,6.864,41.645,27.871,5.07,8.602,10.081
564,0.715,35.712,6.979,41.645,27.885,5.03,8.684,10.122
565,0.711,35.46,7.057,41.607,27.871,4.988,8.561,10.122
566,0.715,35.577,7.054,41.645,27.871,5.07,8.52,10.122
567,0.715,35.673,6.967,41.665,27.871,4.988,8.479,10.122
568,0.711,35.838,6.975,41.578,27.864,4.988,8.561,10.163
569,0.711,35.412,7.089,41.616,27.868,5.03,8.644,10.327
570,0.692,35.548,7.018,41.607,27.871,4.947,8.602,10.327
571,0.695,35.664,7.132,41.626,27.875,5.03,8.726,10.574
572,0.682,35.431,7.081,41.626,27.878,5.07,8.849,10.656
573,0.669,35.47,7.105,41.626,27.868,4.988,8.89,10.574
574,0.669,35.625,6.979,41.723,27.871,5.03,8.931,10.697
575,0.678,35.712,7.038,41.607,27.864,4.988,8.849,10.615
576,0.678,35.451,6.927,41.636,27.871,5.07,9.054,10.697
577,0.669,35.596,7.057,41.655,27.882,5.194,9.259,10.82
578,0.659,35.702,6.896,41.636,27.875,4.988,9.177,10.697
579,0.669,35.79,7.014,41.626,27.878,5.112,9.177,10.779
580,0.655,35.344,7.014,41.607,27.868,4.988,9.136,10.615
581,0.665,35.47,6.971,41.587,27.864,4.906,9.177,10.574
582,0.662,35.606,7.054,41.626,27.871,5.07,9.177,10.656
583,0.659,35.664,7.054,41.616,27.871,5.07,9.177,10.532
584,0.655,35.325,7.093,41.616,27.878,5.07,9.259,10.615
585,0.649,35.48,7.002,41.626,27.871,5.07,9.177,10.532
586,0.636,35.557,7.061,41.597,27.861,4.947,9.095,10.409
587,0.649,35.635,6.967,41.626,27.875,5.07,9.136,10.45
588,0.649,35.373,7.077,41.597,27.871,4.988,9.095,10.368
589,0.655,35.528,6.833,41.626,27.875,5.07,9.136,10.491
590,0.662,35.673,7.002,41.674,27.885,5.153,9.177,10.574
591,0.639,35.664,6.841,41.626,27.868,5.03,9.013,10.409
592,0.642,35.606,6.983,41.626,27.878,5.03,9.054,10.574
593,0.629,35.741,6.987,41.607,27.868,4.947,8.89,10.491
594,0.632,35.848,7.042,41.616,27.878,5.07,8.972,10.615
595,0.639,35.751,7.038,41.645,27.871,5.03,9.013,10.615
596,0.623,35.393,6.935,41.626,27.871,4.988,8.931,10.574
597,0.619,35.528,7.038,41.655,27.875,5.112,9.054,10.697
598,0.616,35.596,6.967,41.616,27.868,4.947,8.931,10.574
599,0.619,35.344,7.121,41.607,27.861,4.947,8.849,10.532
600,0.623,35.431,6.892,41.626,27.875,4.988,8.931,10.615
601,0.636,35.577,7.034,41.616,27.871,4.988,8.849,10.532
602,0.632,35.683,6.821,41.645,27.878,5.03,8.972,10.615
603,0.632,35.334,6.987,41.645,27.885,5.03,9.013,10.779
604,0.642,35.451,6.998,41.626,27.868,4.988,8.931,10.574
605,0.636,35.586,7.018,41.626,27.878,4.988,8.89,10.615
606,0.636,35.664,6.987,41.616,27.868,4.988,8.808,10.45
607,0.646,35.238,6.935,41.626,27.871,4.988,8.808,10.409
608,0.669,35.402,7.042,41.665,27.885,5.153,8.972,10.574
609,0.655,35.499,6.92,41.626,27.871,5.03,8.767,10.409
610,0.649,35.557,7.101,41.616,27.868,4.988,8.808,10.368
611,0.629,35.364,6.975,41.587,27.864,4.865,8.644,10.286
612,0.639,35.518,7.081,41.607,27.861,4.988,8.644,10.245
613,0.646,35.664,6.896,41.626,27.868,4.988,8.644,10.327
614,0.623,35.702,7.03,41.616,27.868,5.03,8.602,10.286
615,0.626,35.431,6.856,41.636,27.875,5.03,8.561,10.327
616,0.623,35.538,7.022,41.616,27.871,5.07,8.561,10.409
617,0.616,35.635,7.022,41.607,27.864,4.988,8.438,10.245
618,0.619,35.702,6.983,41.732,27.864,5.03,8.438,10.327
619,0.609,35.693,7.038,41.616,27.864,4.947,8.356,10.245
620,0.626,35.857,6.904,41.645,27.878,5.03,8.438,10.327
621,0.639,35.974,7.065,41.645,27.885,5.153,8.561,10.409
622,0.619,35.373,6.955,41.626,27.868,5.03,8.315,10.163
623,0.639,35.218,7.113,41.616,27.871,5.03,8.397,10.245
624,0.629,35.334,6.892,41.626,27.864,4.947,8.274,10.163
625,0.629,35.441,7.006,41.616,27.864,4.947,8.274,10.122
626,0.649,35.276,7.05,41.626,27.868,5.07,8.438,10.163
627,0.659,35.393,7.002,41.607,27.871,5.03,8.356,10.163
628,0.662,35.518,7.069,41.636,27.875,5.112,8.644,10.245
629,0.655,35.606,6.868,41.636,27.871,5.07,8.684,10.163
630,0.646,35.17,7.046,41.616,27.868,4.988,8.726,10.122
631,0.646,35.354,6.88,41.636,27.868,5.07,8.808,10.081
632,0.646,35.441,7.01,41.607,27.861,5.03,8.849,10.04
633,0.646,35.557,6.884,41.636,27.875,5.07,8.931,10.163
634,0.642,35.305,7.121,41.645,27.885,5.194,9.095,10.204
635,0.616,35.422,7.03,41.616,27.875,4.988,8.931,10.122
636,0.629,35.557,7.002,41.636,27.871,5.112,9.054,10.163
637,0.609,35.596,7.093,41.607,27.861,4.988,9.013,10.04
638,0.606,35.296,6.943,41.626,27.864,5.03,9.013,10.04
639,0.616,35.441,7.105,41.645,27.868,5.03,9.054,10.122
640,0.603,35.548,6.896,41.626,27.868,4.988,9.013,10.04
641,0.613,35.596,6.967,41.636,27.871,5.07,9.054,10.081
642,0.593,35.315,6.967,41.626,27.875,5.03,9.013,9.957
643,0.593,35.431,6.908,41.597,27.861,4.947,8.931,9.876
644,0.603,35.567,7.03,41.626,27.871,4.988,8.931,9.957
645,0.619,35.751,6.998,41.607,27.868,4.947,8.931,9.916
646,0.636,35.257,7.038,41.645,27.878,5.07,9.013,9.999
647,0.659,35.431,6.908,41.645,27.882,5.194,9.013,9.999
648,0.682,35.489,7.018,41.636,27.868,5.112,8.931,9.834
649,0.711,35.199,6.904,41.607,27.871,5.07,8.972,9.834
650,0.751,35.238,7.132,41.616,27.868,4.988,8.849,9.793
651,0.793,35.393,6.951,41.636,27.868,5.07,8.849,9.834
652,0.849,35.48,7.069,41.626,27.878,5.07,8.849,9.916
653,0.908,35.102,6.872,41.607,27.871,5.03,8.767,9.876
654,0.964,35.257,7.006,41.626,27.878,5.112,8.89,9.999
655,1.01,35.344,6.888,41.616,27.878,5.112,8.726,9.999
656,1.053,35.422,7.081,41.597,27.857,4.906,8.684,9.876
657,1.112,35.296,6.813,41.636,27.878,5.07,8.849,9.957
658,1.181,35.441,7.002,41.626,27.868,5.07,8.808,9.876
659,1.29,35.548,6.856,41.645,27.875,5.112,8.89,9.957
660,1.391,35.644,7.018,41.645,27.882,5.194,8.931,10.081
661,1.503,35.17,7.073,41.626,27.875,5.07,8.849,9.916
662,1.585,35.325,7.006,41.616,27.878,5.153,8.849,9.916
663,1.671,35.412,7.113,41.607,27.868,4.988,8.767,9.834
664,1.799,35.47,6.923,41.636,27.871,5.03,8.849,9.916
665,1.888,35.286,7.046,41.645,27.871,5.07,8.89,9.999
666,1.966,35.422,6.927,41.616,27.878,5.07,8.767,10.04
667,2.068,35.528,7.085,41.645,27.875,5.153,8.849,10.081
668,2.131,35.528,6.849,41.626,27.868,5.07,8.767,10.081
669,2.196,35.16,6.994,41.616,27.864,5.03,8.684,10.04
670,2.298,35.334,6.845,41.636,27.871,5.153,8.767,10.286
671,2.325,35.431,6.959,41.616,27.868,4.988,8.726,10.204
672,2.387,35.373,7.057,41.636,27.878,5.153,8.767,10.368
673,2.433,35.276,6.998,41.645,27.878,5.194,8.808,10.45
674,2.44,35.393,7.105,41.636,27.871,5.07,8.684,10.368
675,2.39,35.489,6.896,41.645,27.871,5.03,8.644,10.45
676,2.357,35.044,7.05,41.626,27.868,4.988,8.602,10.368
677,2.354,35.17,6.908,41.645,27.871,5.153,8.767,10.491
678,2.315,35.325,7.18,41.645,27.885,5.235,8.767,10.574
679,2.229,35.373,6.947,41.636,27.868,5.07,8.684,10.45
680,2.2,35.218,7.026,41.636,27.878,5.03,8.684,10.532
681,2.15,35.344,6.789,41.616,27.868,4.988,8.684,10.491
682,2.078,35.451,6.916,41.626,27.861,4.988,8.644,10.615
683,1.96,35.557,6.9,41.636,27.871,5.07,8.726,10.902
684,1.819,35.16,6.979,41.636,27.871,5.07,8.684,11.108
685,1.7,35.315,7.105,41.645,27.871,5.07,8.808,11.477
686,1.543,35.422,6.888,41.645,27.882,5.112,8.931,11.888
687,1.388,35.46,7.006,41.607,27.871,5.03,8.849,12.216
688,1.194,35.131,6.947,41.616,27.875,5.112,8.931,12.832
689,1.01,35.247,7.113,41.607,27.868,4.988,8.808,13.49
690,0.839,35.393,6.931,41.645,27.878,5.03,8.972,14.188
691,0.682,35.47,7.105,41.655,27.882,5.235,9.013,14.927
692,0.55,35.073,6.951,41.626,27.875,5.07,8.931,15.338
693,0.485,35.218,7.018,41.655,27.871,4.988,8.89,16.159
694,0.38,35.305,6.896,41.616,27.864,4.988,8.849,16.61
695,0.34,35.431,7.113,41.607,27.864,4.947,8.849,17.227
696,0.304,35.218,6.904,41.626,27.878,5.112,8.89,17.72
697,0.271,35.354,7.038,41.626,27.868,5.03,8.849,18.089
698,0.268,35.46,6.892,41.636,27.878,5.07,8.849,18.377
699,0.265,35.209,7.042,41.626,27.878,5.07,8.849,18.582
700,0.265,35.209,6.916,41.607,27.868,5.03,8.808,18.541
701,0.291,35.334,7.077,41.626,27.878,5.03,8.931,18.623
702,0.327,35.431,7.069,41.616,27.871,4.988,8.767,18.417
703,0.37,35.179,7.006,41.655,27.871,5.112,8.89,18.623
704,0.426,35.334,7.089,41.694,27.878,5.112,8.972,18.746
705,0.445,35.422,6.888,41.626,27.871,5.03,8.89,18.787
706,0.485,35.518,7.073,41.645,27.868,5.07,8.808,19.034
707,0.514,34.976,6.9,41.597,27.864,4.988,8.684,19.116
708,0.541,35.121,6.99,41.597,27.864,5.03,8.644,19.28
709,0.57,35.276,6.963,41.636,27.875,5.112,8.767,19.649
710,0.596,35.334,6.947,41.626,27.868,5.03,8.644,19.896
711,0.613,35.054,7.069,41.626,27.878,5.112,8.684,20.389
712,0.636,35.199,6.955,41.645,27.882,5.112,8.684,20.799
713,0.639,35.286,7.073,41.607,27.871,4.988,8.602,20.964
714,0.652,35.354,6.971,41.626,27.878,5.07,8.684,21.251
715,0.655,35.044,7.073,41.607,27.868,5.07,8.602,21.416
716,0.665,35.199,6.856,41.626,27.868,5.07,8.684,21.416
717,0.662,35.354,7.077,41.674,27.889,5.153,8.849,21.416
718,0.659,35.344,6.927,41.626,27.868,5.07,8.726,21.169
719,0.662,35.16,7.026,41.626,27.871,5.112,8.931,20.964
720,0.659,35.247,6.825,41.607,27.871,5.03,9.013,20.594
721,0.672,35.373,6.92,41.626,27.864,5.03,9.054,20.101
722,0.675,35.334,6.837,41.607,27.871,5.153,9.301,19.896
723,0.669,35.034,6.939,41.626,27.868,4.988,9.382,19.485
724,0.685,35.199,7.057,41.616,27.878,5.112,9.547,19.198
725,0.675,35.276,6.967,41.626,27.875,5.112,9.67,18.869
726,0.669,35.005,7.03,41.607,27.864,4.988,9.67,18.459
727,0.688,35.121,6.927,41.616,27.871,5.112,9.752,18.048
728,0.698,35.228,7.085,41.597,27.868,4.988,9.67,17.596
729,0.701,35.354,6.912,41.626,27.871,5.194,9.834,17.35
730,0.708,34.995,7.073,41.636,27.889,5.235,9.916,17.145
731,0.685,35.112,6.99,41.607,27.864,5.07,9.793,16.734
732,0.692,35.247,6.947,41.607,27.871,5.112,9.793,16.487
733,0.675,35.296,7.014,41.616,27.868,5.112,9.752,16.2
734,0.669,35.015,6.9,41.587,27.868,4.988,9.752,15.912
735,0.682,35.17,7.097,41.597,27.878,5.112,9.834,15.789
736,0.675,35.296,6.868,41.597,27.868,5.07,9.752,15.625
737,0.672,35.383,7.05,41.626,27.878,5.153,9.834,15.42
738,0.669,35.044,6.841,41.607,27.878,5.153,9.793,15.338
739,0.662,35.17,6.967,41.597,27.878,5.112,9.67,14.968
740,0.669,35.305,7.085,41.616,27.868,5.07,9.67,14.803
741,0.669,35.315,7.018,41.616,27.861,5.03,9.711,14.434
742,0.685,35.024,7.128,41.636,27.871,5.153,9.752,14.352
743,0.692,35.17,7.014,41.655,27.882,5.194,9.999,14.352
744,0.685,35.276,7.081,41.616,27.871,5.07,9.957,13.982
745,0.678,35.276,6.872,41.626,27.878,5.112,10.163,13.941
746,0.675,35.073,7.077,41.607,27.864,4.988,10.163,13.654
747,0.688,35.209,6.892,41.587,27.864,4.947,10.409,13.407
748,0.688,35.344,6.998,41.655,27.875,5.07,10.615,13.243
749,0.692,35.102,6.797,41.597,27.875,5.153,10.779,13.079
750,0.698,35.054,6.947,41.626,27.871,5.153,11.066,12.996
751,0.685,35.17,7.05,41.616,27.878,5.153,11.108,12.873
752,0.682,35.238,6.99,41.597,27.864,5.153,11.189,12.627
753,0.682,35.054,7.128,41.626,27.871,5.153,11.313,12.627
754,0.672,35.17,6.959,41.607,27.864,4.988,11.272,12.381
755,0.682,35.305,7.093,41.636,27.878,5.194,11.354,12.381
756,0.685,35.412,6.908,41.655,27.878,5.317,11.436,12.381
757,0.669,34.976,7.097,41.616,27.871,5.112,11.189,12.175
758,0.662,35.15,7.026,41.626,27.871,5.153,11.272,12.134
759,0.665,35.257,6.975,41.607,27.864,5.112,11.149,11.929
760,0.669,35.344,7.054,41.616,27.868,5.03,10.943,11.806
761,0.678,34.947,6.943,41.626,27.871,5.153,11.025,11.806
762,0.688,35.083,7.034,41.597,27.868,5.194,11.025,11.518
763,0.685,35.209,6.951,41.636,27.871,5.194,11.025,11.641
764,0.692,35.247,7.097,41.616,27.878,5.235,10.902,11.559
765,0.678,34.908,6.849,41.616,27.868,5.112,10.779,11.395
766,0.692,35.092,7.061,41.607,27.871,5.194,10.697,11.354
767,0.682,35.17,6.856,41.587,27.871,5.153,10.532,11.108
768,0.705,35.218,7.077,41.636,27.878,5.235,10.574,11.231
769,0.708,35.005,7.121,41.645,27.885,5.276,10.615,11.189
770,0.695,35.102,6.955,41.607,27.868,5.194,10.409,11.025
771,0.685,35.238,6.99,41.626,27.875,5.194,10.327,11.108
772,0.669,35.441,6.845,41.597,27.864,5.112,10.122,11.025
773,0.682,35.044,7.006,41.626,27.871,5.194,10.163,10.984
774,0.685,35.179,6.912,41.607,27.871,5.153,10.081,11.025
775,0.685,35.276,7.105,41.597,27.868,5.153,9.957,10.902
776,0.685,35.044,6.868,41.626,27.878,5.317,9.957,10.984
777,0.675,35.092,7.034,41.626,27.871,5.235,9.793,10.902
778,0.675,35.189,6.86,41.607,27.857,5.112,9.752,10.779
779,0.682,35.315,7.081,41.607,27.875,5.235,9.752,10.779
780,0.672,34.889,6.912,41.607,27.864,5.153,9.547,10.615
781,0.701,35.054,7.061,41.626,27.875,5.276,9.629,10.738
782,0.705,35.199,7.113,41.645,27.885,5.358,9.588,10.861
783,0.701,35.238,6.872,41.607,27.875,5.235,9.382,10.491
784,0.708,34.908,7.006,41.636,27.875,5.317,9.342,10.615
785,0.705,35.024,6.864,41.597,27.861,5.194,9.177,10.45
786,0.708,35.16,7.057,41.616,27.871,5.235,9.136,10.491
787,0.728,35.238,6.821,41.626,27.871,5.317,9.177,10.491
788,0.721,34.889,6.994,41.626,27.868,5.276,9.013,10.491
789,0.715,35.034,6.943,41.616,27.878,5.276,9.013,10.45
790,0.708,35.121,6.99,41.607,27.871,5.194,8.89,10.409
791,0.698,35.16,6.92,41.587,27.864,5.153,8.808,10.409
792,0.701,34.976,7.093,41.616,27.871,5.276,8.849,10.409
793,0.705,35.121,7.101,41.607,27.868,5.276,8.849,10.327
794,0.701,35.247,6.931,41.636,27.871,5.358,8.931,10.327
795,0.705,35.305,7.065,41.655,27.878,5.399,9.013,10.409
796,0.695,34.976,6.904,41.626,27.871,5.194,8.89,10.286
797,0.698,35.102,7.117,41.636,27.875,5.317,8.767,10.286
798,0.682,35.189,6.872,41.616,27.861,5.194,8.684,10.163
799,0.695,35.141,7.03,41.665,27.875,5.317,8.726,10.204
800,0.711,35.063,6.825,41.626,27.882,5.317,8.726,10.286
801,0.701,35.17,6.987,41.616,27.871,5.235,8.684,10.163
802,0.715,35.286,6.88,41.636,27.878,5.276,8.644,10.286
803,0.711,34.811,7.03,41.626,27.868,5.235,8.684,10.327
804,0.708,34.889,7.101,41.597,27.864,5.194,8.52,10.286
805,0.698,35.044,6.951,41.645,27.868,5.276,8.602,10.409
806,0.721,35.15,7.042,41.616,27.875,5.276,8.52,10.409
807,0.731,34.995,6.959,41.626,27.871,5.235,8.602,10.45
808,0.738,35.141,7.132,41.655,27.885,5.399,8.726,10.656
809,0.738,35.247,6.912,41.607,27.868,5.194,8.479,10.491
810,0.734,35.334,7.018,41.636,27.878,5.317,8.561,10.615
811,0.711,34.715,6.813,41.597,27.864,5.194,8.479,10.574
812,0.721,34.879,7.022,41.607,27.864,5.194,8.479,10.615
813,0.718,35.015,6.864,41.616,27.871,5.276,8.52,10.779
814,0.708,35.054,7.101,41.626,27.871,5.153,8.602,10.779
815,0.721,34.899,6.927,41.607,27.868,5.276,8.644,10.902
816,0.718,35.044,6.967,41.723,27.878,5.276,8.644,10.943
817,0.698,35.131,7.018,41.597,27.868,5.153,8.684,10.861
818,0.705,35.218,6.971,41.626,27.871,5.276,8.89,10.943
819,0.708,34.899,7.121,41.607,27.871,5.194,8.808,10.82
820,0.711,35.054,6.987,41.636,27.875,5.317,8.931,10.943
821,0.738,35.179,7.113,41.645,27.892,5.358,9.136,10.984
822,0.731,35.218,6.931,41.616,27.875,5.235,8.972,10.779
823,0.721,34.87,6.994,41.645,27.878,5.276,9.054,10.861
824,0.738,34.966,6.86,41.597,27.861,5.194,9.054,10.738
825,0.747,35.083,7.069,41.607,27.871,5.153,9.054,10.738
826,0.741,34.947,6.876,41.626,27.868,5.276,9.136,10.738
827,0.734,34.976,7.002,41.597,27.875,5.276,9.136,10.738
828,0.754,35.121,6.856,41.616,27.878,5.317,9.177,10.656
829,0.751,35.199,7.014,41.587,27.871,5.276,9.177,10.697
830,0.741,34.753,6.912,41.578,27.868,5.194,9.013,10.615
831,0.738,34.879,7.077,41.607,27.871,5.235,9.136,10.656
832,0.751,35.024,6.947,41.616,27.861,5.194,9.013,10.491
833,0.761,35.102,7.038,41.616,27.882,5.235,9.136,10.615
834,0.744,34.908,7.073,41.636,27.882,5.399,9.177,10.738
835,0.738,35.024,6.951,41.607,27.871,5.194,8.931,10.491
836,0.741,35.15,7.097,41.607,27.878,5.317,9.013,10.574
837,0.734,35.189,6.943,41.597,27.864,5.153,8.849,10.409
838,0.734,34.782,6.975,41.616,27.871,5.235,8.849,10.368
839,0.734,34.947,6.841,41.616,27.868,5.194,8.89,10.45
840,0.734,35.063,7.026,41.616,27.868,5.235,8.849,10.327
841,0.754,35.102,7.006,41.616,27.878,5.235,8.849,10.45
842,0.754,34.802,6.955,41.597,27.875,5.235,8.767,10.286
843,0.757,34.899,7.073,41.587,27.861,5.112,8.726,10.245
844,0.774,35.034,6.99,41.597,27.878,5.153,8.767,10.368
845,0.767,35.083,7.018,41.607,27.871,5.153,8.726,10.409
846,0.774,34.86,6.951,41.607,27.878,5.235,8.849,10.532
847,0.797,35.024,7.109,41.636,27.878,5.358,8.89,10.656
848,0.79,35.083,6.923,41.607,27.868,5.194,8.726,10.532
849,0.79,35.131,7.01,41.626,27.878,5.317,8.726,10.532
850,0.777,34.957,6.837,41.684,27.861,5.194,8.602,10.574
851,0.784,35.102,6.987,41.616,27.878,5.235,8.684,10.738
852,0.797,35.209,6.841,41.607,27.878,5.194,8.726,10.779
853,0.78,34.782,7.022,41.616,27.871,5.153,8.684,10.656
854,0.777,34.899,7.054,41.607,27.871,5.194,8.602,10.779
855,0.767,34.976,6.975,41.607,27.868,5.153,8.52,10.656
856,0.774,35.083,7.042,41.578,27.864,5.07,8.438,10.615
857,0.777,34.734,6.99,41.597,27.868,5.194,8.602,10.779
858,0.767,34.86,7.109,41.607,27.868,5.112,8.52,10.779
859,0.777,35.005,7.038,41.616,27.875,5.194,8.602,10.779
860,0.78,35.063,7.069,41.636,27.878,5.235,8.684,10.82
861,0.787,34.85,6.809,41.607,27.871,5.112,8.561,10.656
862,0.79,35.024,6.92,41.626,27.875,5.112,8.726,10.697
863,0.797,35.112,6.785,41.597,27.864,5.112,8.561,10.656
864,0.81,35.209,6.998,41.626,27.871,5.194,8.684,10.82
865,0.82,34.695,6.88,41.645,27.882,5.276,8.849,10.861
866,0.81,34.792,6.951,41.626,27.875,5.153,8.808,10.738
867,0.826,34.928,6.998,41.616,27.875,5.153,8.89,10.656
868,0.82,34.937,6.951,41.597,27.871,5.03,8.808,10.615
869,0.826,34.734,7.101,41.597,27.861,4.988,8.808,10.532
870,0.836,34.899,6.975,41.607,27.882,5.235,8.931,10.574
871,0.82,35.015,7.105,41.607,27.875,5.112,8.849,10.615
872,0.816,35.044,6.951,41.616,27.878,5.276,8.931,10.697
873,0.823,34.686,7.01,41.616,27.871,5.153,8.931,10.697
874,0.803,34.811,6.833,41.578,27.857,5.03,8.849,10.656
875,0.823,34.947,7.038,41.607,27.871,5.194,8.972,10.779
876,0.813,34.87,6.939,41.587,27.864,5.153,8.89,10.738
877,0.823,34.908,6.923,41.616,27.875,5.194,9.013,10.902
878,0.826,35.054,7.061,41.665,27.885,5.358,9.218,10.984
879,0.823,35.131,6.9,41.607,27.871,5.194,9.177,10.82
880,0.83,34.792,7.054,41.607,27.878,5.194,9.136,10.861
881,0.833,34.879,6.931,41.587,27.868,5.07,9.054,10.656
882,0.839,35.024,7.093,41.607,27.868,5.112,9.095,10.697
883,0.846,35.112,6.959,41.597,27.871,5.235,9.177,10.779
884,0.83,34.637,6.994,41.626,27.871,5.194,9.136,10.738
885,0.866,34.811,6.9,41.616,27.875,5.235,9.218,10.82
886,0.856,34.908,7.01,41.597,27.868,5.235,9.177,10.82
887,0.853,34.976,6.896,41.578,27.864,5.153,9.054,10.738
888,0.879,34.811,6.959,41.616,27.878,5.194,9.177,10.738
889,0.876,34.928,7.026,41.578,27.868,5.07,9.095,10.697
890,0.882,35.083,6.888,41.607,27.878,5.276,9.095,10.738
891,0.882,35.16,7.069,41.636,27.885,5.358,9.136,10.943
892,0.889,34.86,6.943,41.578,27.875,5.194,9.013,10.738
893,0.889,35.005,7.077,41.597,27.878,5.153,9.013,10.902
894,0.872,35.092,6.994,41.597,27.868,5.07,8.89,10.82
895,0.885,35.17,7.097,41.597,27.871,5.112,8.89,10.902
896,0.885,34.831,6.876,41.597,27.868,5.153,9.013,10.902
897,0.879,34.947,7.077,41.616,27.868,5.112,8.849,10.943
898,0.892,35.063,6.943,41.616,27.878,5.194,8.972,10.984
899,0.882,35.354,7.014,41.578,27.875,5.112,8.89,10.943
900,0.882,34.908,6.912,41.578,27.857,5.03,8.808,10.82
901,0.905,35.054,6.888,41.607,27.875,5.194,8.849,10.902
902,0.908,35.15,7.034,41.607,27.871,5.112,8.972,10.902
903,0.922,34.802,6.959,41.616,27.875,5.194,9.013,10.943
904,0.941,34.86,7.101,41.626,27.889,5.358,9.177,11.066
905,0.931,34.928,6.979,41.607,27.875,5.153,9.054,10.861
906,0.941,35.034,7.073,41.607,27.868,5.153,9.136,10.943
907,0.948,34.879,6.888,41.568,27.868,5.03,9.013,10.697
908,0.964,35.024,7.081,41.568,27.868,5.112,9.095,10.738
909,0.951,35.17,6.947,41.587,27.868,5.153,9.218,10.656
910,0.958,35.228,7.097,41.578,27.878,5.03,9.054,10.738
911,0.961,34.879,6.947,41.587,27.878,5.235,9.136,10.82
912,0.958,35.005,6.959,41.587,27.868,5.112,9.095,10.697
913,0.964,35.121,7.022,41.568,27.861,4.988,8.972,10.615
914,0.968,35.228,6.912,41.587,27.878,5.112,9.013,10.656
915,0.964,34.995,7.073,41.587,27.871,5.112,8.972,10.615
916,0.984,35.17,6.935,41.607,27.882,5.153,8.972,10.656
917,0.991,35.296,7.054,41.616,27.878,5.276,9.095,10.738
918,0.974,35.334,6.88,41.578,27.868,5.112,8.972,10.656
919,0.984,35.267,7.042,41.587,27.878,5.153,8.972,10.574
920,0.987,35.393,6.931,41.578,27.864,5.112,8.849,10.574
921,0.994,35.489,7.093,41.558,27.868,5.153,8.89,10.532
922,1.01,35.518,6.947,41.587,27.878,5.112,8.931,10.574
923,1.014,35.315,7.057,41.587,27.868,5.07,8.849,10.574
924,1.027,35.47,6.912,41.597,27.878,5.235,8.931,10.574
925,1.04,35.577,6.983,41.587,27.878,5.235,8.89,10.697
926,1.046,35.47,7.077,41.568,27.868,5.112,8.767,10.615
927,1.066,35.402,6.979,41.587,27.871,5.153,8.767,10.574
928,1.066,35.528,6.998,41.578,27.868,5.07,8.684,10.409
929,1.089,35.654,6.864,41.587,27.878,5.153,8.808,10.574
930,1.089,35.654,7.022,41.597,27.885,5.276,8.849,10.615
931,1.076,35.761,6.864,41.578,27.868,5.07,8.767,10.491
932,1.092,35.877,7.006,41.616,27.882,5.194,8.726,10.491
933,1.092,35.935,7.05,41.568,27.864,5.03,8.602,10.409
934,1.086,35.751,7.022,41.568,27.871,4.988,8.602,10.286
935,1.096,35.935,7.046,41.568,27.868,5.153,8.644,10.368
936,1.102,36.042,6.951,41.568,27.875,5.112,8.602,10.45
937,1.099,36.119,7.121,41.597,27.878,5.153,8.726,10.409
938,1.102,36.051,6.943,41.578,27.882,5.153,8.684,10.491
939,1.112,36.187,7.014,41.568,27.871,5.07,8.561,10.409
940,1.106,36.303,6.856,41.597,27.875,5.153,8.561,10.368
941,1.138,36.332,7.046,41.568,27.868,5.07,8.438,10.204
942,1.155,36.361,6.864,41.587,27.878,5.235,8.52,10.327
943,1.168,36.487,7.061,41.616,27.889,5.276,8.602,10.409
944,1.171,36.565,6.92,41.558,27.871,5.07,8.479,10.245
945,1.188,36.623,6.998,41.578,27.878,5.112,8.479,10.245
946,1.181,36.448,7.006,41.549,27.871,5.03,8.397,10.163
947,1.194,36.565,6.971,41.549,27.871,5.07,8.315,10.122
948,1.214,36.661,7.081,41.587,27.878,5.194,8.397,10.245
949,1.221,36.69,6.975,41.558,27.871,5.112,8.315,10.081
950,1.227,36.739,7.061,41.578,27.878,5.153,8.274,10.204
951,1.217,36.884,6.841,41.587,27.878,5.194,8.356,10.163
952,1.201,36.962,6.975,41.549,27.864,5.07,8.192,10.122
953,1.23,36.933,6.845,41.578,27.868,5.112,8.233,10.204
954,1.23,36.962,6.971,41.568,27.871,5.07,8.109,10.163
955,1.247,37.097,7.006,41.578,27.875,5.153,8.274,10.286
956,1.247,37.233,6.975,41.607,27.889,5.235,8.315,10.409
957,1.247,37.097,7.022,41.578,27.878,5.07,8.069,10.409
958,1.253,37.223,6.943,41.587,27.878,5.194,8.15,10.491
959,1.253,37.301,7.101,41.568,27.868,5.112,8.027,10.409
960,1.26,37.398,7.006,41.568,27.871,5.07,8.069,10.409
961,1.286,37.214,7.117,41.587,27.878,5.07,8.15,10.491
962,1.29,37.349,6.955,41.568,27.878,5.112,8.15,10.491
963,1.306,37.475,7.046,41.578,27.882,5.194,8.15,10.574
964,1.316,37.514,6.837,41.587,27.878,5.194,8.15,10.574
965,1.316,37.407,7.002,41.568,27.878,5.112,8.109,10.491
966,1.336,37.562,6.912,41.607,27.871,5.153,8.15,10.491
967,1.345,37.64,6.951,41.578,27.868,5.07,8.069,10.409
968,1.349,37.717,6.975,41.587,27.878,5.153,8.109,10.45
969,1.362,37.688,6.955,41.607,27.878,5.235,8.15,10.615
970,1.355,37.775,7.03,41.578,27.878,5.03,8.027,10.368
971,1.345,37.892,6.935,41.587,27.875,5.112,8.109,10.45
972,1.349,37.882,7.132,41.549,27.868,5.03,8.069,10.491
973,1.355,37.698,6.959,41.578,27.871,5.03,8.027,10.532
974,1.355,37.853,6.959,41.578,27.871,5.07,8.109,10.574
975,1.352,37.93,6.817,41.578,27.871,5.112,8.109,10.615
976,1.372,38.027,7.026,41.587,27.878,5.153,8.15,10.697
977,1.359,37.882,6.92,41.587,27.871,5.07,8.192,10.82
978,1.345,37.979,7.006,41.558,27.861,5.03,7.986,10.656
979,1.349,38.105,6.837,41.587,27.871,5.07,8.15,10.82
980,1.365,38.017,6.959,41.578,27.868,5.07,8.109,10.779
981,1.388,38.143,6.975,41.587,27.878,5.153,8.233,10.779
982,1.385,38.24,6.979,41.597,27.882,5.194,8.233,10.82
983,1.385,38.279,7.057,41.587,27.871,5.112,8.15,10.738
984,1.388,38.085,7.03,41.607,27.875,5.153,8.233,10.656
985,1.385,38.192,6.963,41.597,27.864,5.07,8.15,10.656
986,1.391,38.318,6.904,41.578,27.878,5.07,8.15,10.574
987,1.405,38.405,7.081,41.607,27.878,5.194,8.192,10.574
988,1.401,38.134,6.967,41.568,27.875,5.07,8.15,10.532
989,1.395,38.279,7.069,41.578,27.878,5.153,8.315,10.574
990,1.391,38.356,6.817,41.568,27.871,5.03,8.274,10.491
991,1.372,38.415,6.9,41.558,27.864,4.988,8.069,10.45
992,1.382,38.327,6.821,41.568,27.875,5.07,8.274,10.615
993,1.375,38.424,6.99,41.568,27.868,5.03,8.192,10.574
994,1.368,38.55,7.03,41.587,27.875,5.153,8.356,10.779
995,1.365,38.599,7.03,41.578,27.885,5.112,8.397,10.82
996,1.352,38.395,7.038,41.578,27.871,5.07,8.274,10.738
997,1.345,38.531,6.955,41.607,27.878,5.07,8.356,10.902
998,1.339,38.608,7.089,41.568,27.864,4.988,8.233,10.779
999,1.332,38.628,6.99,41.587,27.871,5.112,8.315,10.902
1000,1.332,38.405,7.117,41.607,27.889,5.153,8.397,10.943
1001,1.316,38.502,6.904,41.578,27.878,5.07,8.315,10.902
1002,1.319,38.599,7.014,41.578,27.882,5.112,8.356,10.943
1003,1.313,38.55,6.845,41.665,27.871,5.03,8.356,10.943
1004,1.309,38.57,6.975,41.558,27.864,4.988,8.274,10.861
1005,1.306,38.686,7.077,41.578,27.875,5.07,8.438,10.984
1006,1.286,38.783,6.947,41.587,27.868,5.03,8.438,10.943
1007,1.286,38.356,7.042,41.578,27.882,5.112,8.52,11.025
1008,1.283,38.453,6.884,41.587,27.889,5.112,8.602,11.025
1009,1.253,38.521,7.038,41.568,27.871,5.07,8.52,10.861
1010,1.25,38.637,6.947,41.578,27.878,4.988,8.644,10.943
1011,1.224,38.492,7.077,41.568,27.868,4.988,8.561,10.902
1012,1.221,38.647,6.943,41.587,27.878,5.07,8.684,10.902
1013,1.214,38.763,7.085,41.616,27.889,5.194,8.849,11.025
1014,1.181,38.821,6.963,41.578,27.868,5.03,8.644,10.902
1015,1.171,38.424,7.014,41.568,27.882,5.112,8.726,10.902
1016,1.148,38.54,6.9,41.568,27.864,4.988,8.684,10.82
1017,1.135,38.657,7.054,41.587,27.871,4.988,8.684,10.738
1018,1.115,38.705,6.774,41.607,27.878,4.988,8.767,10.902
1019,1.099,38.492,6.955,41.558,27.878,5.07,8.767,10.738
1020,1.096,38.618,7.018,41.587,27.885,5.153,8.89,10.82
1021,1.089,38.725,6.967,41.597,27.878,5.153,8.931,10.82
1022,1.076,38.725,7.069,41.578,27.875,5.07,8.808,10.82
1023,1.079,38.415,6.967,41.578,27.871,5.03,8.808,10.738
1024,1.056,38.521,7.054,41.539,27.864,4.988,8.767,10.615
1025,1.053,38.657,6.916,41.597,27.871,5.112,8.89,10.615
1026,1.046,38.909,7.061,41.607,27.885,5.112,8.972,10.656
1027,1.03,38.463,6.931,41.568,27.864,4.988,8.808,10.491
1028,1.017,38.579,7.057,41.578,27.875,5.03,8.808,10.532
1029,0.991,38.657,6.845,41.568,27.868,4.988,8.808,10.368
1030,0.987,38.318,6.916,41.558,27.864,4.906,8.726,10.327
1031,0.971,38.366,6.888,41.587,27.871,4.988,8.767,10.409
1032,0.948,38.492,6.998,41.568,27.875,4.988,8.726,10.327
1033,0.935,38.599,7.034,41.578,27.875,4.988,8.767,10.409
1034,0.908,38.366,7.069,41.578,27.875,5.112,8.808,10.409
1035,0.892,38.463,7.057,41.578,27.871,4.988,8.684,10.286
1036,0.895,38.618,6.959,41.597,27.878,4.988,8.726,10.327
1037,0.885,38.686,7.03,41.587,27.868,4.988,8.602,10.327
1038,0.876,38.269,6.927,41.597,27.882,5.07,8.808,10.368
1039,0.869,38.453,7.089,41.607,27.882,5.194,8.89,10.532
1040,0.859,38.511,6.947,41.587,27.878,4.988,8.684,10.368
1041,0.839,38.57,7.034,41.578,27.878,4.988,8.726,10.327
1042,0.836,38.182,6.805,41.549,27.864,4.947,8.52,10.245
1043,0.836,38.356,7.014,41.578,27.868,5.07,8.602,10.286
1044,0.833,38.463,6.821,41.587,27.871,5.03,8.684,10.286
1045,0.833,38.492,7.022,41.578,27.871,5.03,8.644,10.245
1046,0.826,38.163,6.904,41.578,27.875,5.07,8.644,10.327
1047,0.823,38.269,6.931,41.578,27.875,5.03,8.644,10.327
1048,0.807,38.356,6.963,41.568,27.857,4.947,8.479,10.163
1049,0.816,38.385,7.01,41.578,27.878,5.07,8.644,10.245
1050,0.8,38.124,6.916,41.568,27.868,4.988,8.438,10.204
1051,0.784,38.289,7.046,41.568,27.878,5.07,8.52,10.286
1052,0.79,38.405,7.128,41.607,27.892,5.235,8.644,10.409
1053,0.774,38.269,6.975,41.578,27.871,5.03,8.438,10.204
1054,0.757,38.192,7.057,41.587,27.878,5.03,8.561,10.286
1055,0.744,38.279,6.904,41.549,27.868,4.988,8.315,10.204
1056,0.741,38.395,7.101,41.578,27.868,5.07,8.315,10.286
1057,0.738,38.037,6.872,41.597,27.868,5.07,8.274,10.45
1058,0.728,38.114,7.046,41.597,27.875,4.988,8.233,10.45
1059,0.734,38.26,6.845,41.587,27.875,5.07,8.315,10.574
1060,0.724,38.318,6.994,41.568,27.878,5.03,8.192,10.491
1061,0.721,37.94,6.892,41.539,27.857,4.988,8.15,10.45
1062,0.734,38.095,7.069,41.587,27.878,5.03,8.192,10.574
1063,0.731,38.182,7.16,41.549,27.878,5.03,8.15,10.532
1064,0.741,38.279,6.955,41.597,27.878,5.03,8.192,10.697
1065,0.738,37.892,7.101,41.587,27.882,5.153,8.315,10.738
1066,0.724,38.017,6.9,41.587,27.868,5.03,8.192,10.574
1067,0.724,38.124,7.093,41.578,27.878,5.03,8.274,10.615
1068,0.741,38.134,6.888,41.539,27.864,4.906,8.15,10.491
1069,0.741,37.911,6.955,41.587,27.871,4.988,8.356,10.574
1070,0.744,38.056,7.006,41.645,27.871,5.07,8.479,10.656
1071,0.721,38.163,6.931,41.578,27.875,4.947,8.52,10.656
1072,0.731,38.182,7.018,41.587,27.882,5.03,8.808,10.779
1073,0.715,37.833,6.849,41.568,27.871,4.988,8.931,10.697
1074,0.705,37.95,7.125,41.539,27.868,4.906,8.931,10.697
1075,0.711,38.095,6.892,41.568,27.875,5.07,9.177,10.902
1076,0.701,38.192,7.054,41.568,27.868,5.03,9.259,10.902
1077,0.701,37.911,6.868,41.597,27.882,5.153,9.547,10.984
1078,0.698,38.046,7.081,41.616,27.878,5.153,9.588,11.066
1079,0.692,38.124,6.998,41.568,27.878,5.03,9.588,10.984
1080,0.692,37.756,7.006,41.587,27.878,5.112,9.67,10.861
1081,0.692,37.727,7.006,41.568,27.871,4.988,9.588,10.82
1082,0.705,37.882,6.896,41.607,27.878,5.07,9.711,10.943
1083,0.721,37.988,6.994,41.616,27.885,5.153,9.793,10.902
1084,0.705,37.707,6.92,41.568,27.871,5.07,9.67,10.82
1085,0.718,37.814,7.085,41.587,27.875,5.112,9.752,10.943
1086,0.708,37.93,6.833,41.568,27.871,5.03,9.67,10.82
1087,0.711,37.979,7.018,41.549,27.857,4.906,9.506,10.738
1088,0.718,37.611,6.864,41.568,27.878,5.03,9.711,10.738
1089,0.715,37.707,7.057,41.578,27.868,5.07,9.588,10.738
1090,0.721,37.843,6.935,41.597,27.882,5.112,9.629,10.738
1091,0.715,37.921,7.03,41.587,27.878,5.153,9.629,10.779
1092,0.705,37.649,6.912,41.568,27.868,5.07,9.506,10.656
1093,0.701,37.795,6.888,41.587,27.875,5.07,9.547,10.656
1094,0.698,37.901,7.026,41.568,27.864,4.988,9.424,10.574
1095,0.705,37.969,6.99,41.568,27.878,5.07,9.547,10.615
1096,0.715,37.543,7.073,41.587,27.885,5.112,9.547,10.656
1097,0.695,37.659,6.935,41.587,27.868,5.112,9.465,10.615
1098,0.688,37.775,7.046,41.568,27.878,5.112,9.465,10.574
1099,0.695,37.775,6.849,41.578,27.871,5.07,9.465,10.491
1100,0.695,37.63,7.014,41.549,27.861,4.906,9.382,10.368
1101,0.708,37.785,6.998,41.587,27.864,5.153,9.424,10.491
1102,0.701,37.872,7.065,41.558,27.871,5.07,9.465,10.368
1103,0.705,37.814,7.132,41.578,27.882,5.153,9.506,10.409
1104,0.718,37.582,7.006,41.645,27.882,5.235,9.547,10.45
1105,0.718,37.688,7.069,41.578,27.868,5.112,9.342,10.245
1106,0.718,37.766,6.959,41.587,27.875,5.112,9.424,10.204
1107,0.721,37.514,7.109,41.568,27.864,4.988,9.259,10.163
1108,0.734,37.62,6.876,41.578,27.871,5.112,9.301,10.204
1109,0.734,37.756,7.046,41.568,27.875,5.153,9.259,10.245
1110,0.724,37.814,6.888,41.568,27.875,5.07,9.259,10.245
1111,0.715,37.436,7.022,41.587,27.878,5.235,9.259,10.327
1112,0.701,37.543,6.931,41.568,27.868,5.07,9.136,10.286
1113,0.692,37.659,7.121,41.549,27.861,4.988,9.054,10.163
1114,0.698,37.737,6.943,41.568,27.878,5.07,9.136,10.368
1115,0.705,37.514,7.034,41.568,27.871,5.03,9.054,10.286
1116,0.708,37.649,6.868,41.568,27.878,5.112,9.136,10.368
1117,0.698,37.746,7.109,41.587,27.878,5.194,9.136,10.409
1118,0.695,37.795,6.896,41.578,27.878,5.112,8.972,10.327
1119,0.701,37.475,7.002,41.568,27.868,5.153,8.972,10.368
1120,0.705,37.62,7.006,41.568,27.868,4.988,9.013,10.204
1121,0.711,37.737,6.935,41.597,27.882,5.07,8.972,10.409
1122,0.731,37.804,7.03,41.607,27.885,5.112,9.013,10.409
1123,0.708,37.572,6.872,41.578,27.875,5.112,8.931,10.286
1124,0.721,37.688,7.061,41.578,27.878,5.153,8.931,10.286
1125,0.715,37.746,6.86,41.549,27.868,5.03,8.931,10.245
1126,0.715,37.766,7.03,41.558,27.871,5.03,8.931,10.163
1127,0.728,37.417,6.829,41.558,27.878,5.07,9.095,10.204
1128,0.738,37.533,7.018,41.558,27.878,5.03,9.095,10.163
1129,0.741,37.649,6.943,41.568,27.875,5.112,9.136,10.245
1130,0.738,37.494,7.077,41.578,27.885,5.194,9.259,10.286
1131,0.724,37.485,6.825,41.568,27.882,5.03,9.218,10.245
1132,0.728,37.601,6.971,41.578,27.878,5.153,9.218,10.286
1133,0.721,37.698,7.022,41.549,27.868,5.03,9.177,10.245
1134,0.724,37.485,6.971,41.568,27.875,5.112,9.259,10.368
1135,0.731,37.649,7.093,41.597,27.885,5.235,9.424,10.491
1136,0.721,37.717,6.912,41.568,27.871,5.153,9.342,10.368
1137,0.718,37.824,7.065,41.578,27.878,5.112,9.382,10.45
1138,0.711,37.475,6.892,41.549,27.864,5.03,9.342,10.409
1139,0.708,37.601,7.046,41.568,27.864,4.988,9.259,10.327
1140,0.718,37.727,6.943,41.549,27.871,5.153,9.342,10.409
1141,0.724,37.785,7.085,41.568,27.871,5.112,9.301,10.45
1142,0.728,37.514,6.927,41.578,27.875,5.153,9.382,10.574
1143,0.734,37.63,7.006,41.568,27.875,5.194,9.465,10.532
1144,0.731,37.727,6.998,41.558,27.871,5.112,9.301,10.574
1145,0.738,37.814,6.943,41.568,27.878,5.153,9.259,10.697
1146,0.738,37.407,7.089,41.549,27.868,4.988,9.259,10.656
1147,0.751,37.562,6.943,41.587,27.875,5.153,9.301,10.697
1148,0.747,37.678,7.057,41.616,27.885,5.235,9.301,10.82
1149,0.744,37.698,6.904,41.587,27.875,5.07,9.301,10.656
1150,0.751,37.504,7.018,41.587,27.878,5.07,9.259,10.779
1151,0.721,37.611,6.88,41.568,27.875,5.03,9.095,10.615
1152,0.728,37.727,7.057,41.568,27.868,5.03,9.136,10.656
1153,0.744,37.882,7.061,41.578,27.878,5.112,9.177,10.779
1154,0.721,37.417,6.939,41.558,27.871,5.03,9.177,10.738
1155,0.718,37.543,7.034,41.578,27.882,5.112,9.177,10.943
1156,0.724,37.62,6.935,41.568,27.871,5.153,9.218,10.779
1157,0.708,37.388,7.073,41.549,27.864,5.03,9.095,10.779
1158,0.701,37.485,6.9,41.578,27.878,5.112,9.177,10.82
1159,0.708,37.611,6.998,41.578,27.868,5.07,9.095,10.779
1160,0.711,37.688,6.872,41.597,27.875,5.235,9.177,10.82
1161,0.728,37.339,6.998,41.587,27.882,5.235,9.218,10.861
1162,0.728,37.456,6.821,41.578,27.878,5.153,9.054,10.738
1163,0.728,37.562,6.963,41.568,27.875,5.112,9.095,10.738
1164,0.724,37.62,6.935,41.549,27.868,5.07,8.972,10.738
1165,0.751,37.31,6.979,41.578,27.878,5.235,9.013,10.779
1166,0.751,37.485,6.979,41.597,27.882,5.276,8.972,10.943
1167,0.747,37.572,6.979,41.558,27.875,5.07,8.89,10.779
1168,0.744,37.64,7.105,41.568,27.878,5.112,8.931,10.779
1169,0.734,37.175,7.018,41.549,27.868,5.07,8.89,10.779
1170,0.724,37.31,7.046,41.558,27.871,5.112,8.808,10.738
1171,0.728,37.446,6.896,41.568,27.875,5.153,8.931,10.82
1172,0.731,37.475,6.987,41.587,27.871,5.112,8.849,10.779
1173,0.728,37.378,6.837,41.578,27.875,5.194,8.972,10.861
1174,0.728,37.504,7.026,41.549,27.875,5.153,8.931,10.82
1175,0.724,37.591,6.892,41.549,27.861,5.03,8.767,10.779
1176,0.724,37.62,7.01,41.568,27.878,5.194,8.767,10.738
1177,0.718,37.32,6.856,41.568,27.871,5.07,8.684,10.779
1178,0.718,37.456,7.014,41.578,27.875,5.194,8.808,10.82
1179,0.728,37.543,7.002,41.607,27.889,5.317,8.89,10.902
1180,0.715,37.349,7.042,41.568,27.875,5.153,8.684,10.656
1181,0.728,37.262,7.121,41.578,27.871,5.194,8.684,10.697
1182,0.715,37.359,6.99,41.539,27.875,5.153,8.561,10.615
1183,0.721,37.465,7.061,41.578,27.875,5.153,8.52,10.574
1184,0.741,37.136,6.912,41.587,27.878,5.194,8.602,10.656
1185,0.741,37.223,7.077,41.549,27.871,5.153,8.438,10.574
1186,0.728,37.339,6.939,41.578,27.871,5.07,8.52,10.656
1187,0.731,37.407,7.014,41.558,27.875,5.112,8.397,10.491
1188,0.738,37.01,6.845,41.549,27.857,5.03,8.315,10.327
1189,0.741,37.165,6.963,41.587,27.871,5.194,8.52,10.491
1190,0.731,37.272,7.01,41.549,27.871,5.194,8.397,10.45
1191,0.728,37.378,7.006,41.587,27.878,5.235,8.438,10.574
1192,0.738,37.252,7.128,41.587,27.882,5.276,8.52,10.574
1193,0.724,37.378,6.987,41.568,27.882,5.194,8.438,10.368
1194,0.721,37.475,7.061,41.558,27.878,5.194,8.479,10.409
1195,0.711,37.523,6.868,41.549,27.871,5.112,8.356,10.327
1196,0.718,36.981,7.026,41.568,27.878,5.235,8.438,10.327
1197,0.715,37.126,7.022,41.597,27.878,5.235,8.397,10.327
1198,0.708,37.223,6.959,41.578,27.875,5.153,8.356,10.286
1199,0.695,37.291,7.022,41.587,27.878,5.194,8.397,10.245
1200,0.701,37.146,6.916,41.558,27.868,5.153,8.233,10.245
1201,0.715,37.262,7.046,41.529,27.864,5.112,8.192,10.081
1202,0.721,37.398,6.912,41.568,27.868,5.194,8.274,10.163
1203,0.721,37.611,7.038,41.568,27.871,5.153,8.192,10.122
1204,0.734,36.942,6.959,41.578,27.871,5.194,8.315,10.163
1205,0.734,37.107,6.927,41.616,27.882,5.235,8.356,10.245
1206,0.731,37.184,6.809,41.578,27.871,5.07,8.15,10.04
1207,0.741,37.0,7.018,41.549,27.868,5.153,8.192,9.999
1208,0.734,37.02,6.88,41.539,27.868,5.153,8.069,9.957
1209,0.731,37.175,7.03,41.578,27.875,5.235,8.233,10.04
1210,0.731,37.272,6.825,41.607,27.878,5.235,8.274,10.04
1211,0.711,36.923,6.951,41.568,27.871,5.153,8.233,9.957
1212,0.711,37.039,6.998,41.587,27.878,5.153,8.274,10.04
1213,0.715,37.155,6.912,41.558,27.868,5.112,8.15,9.957
1214,0.708,37.233,7.065,41.558,27.861,5.07,8.15,9.957
1215,0.698,36.913,6.971,41.568,27.875,5.112,8.192,10.081
1216,0.708,37.049,7.042,41.674,27.875,5.07,8.233,9.999
1217,0.705,37.194,6.888,41.578,27.882,5.153,8.356,10.081
1218,0.685,37.233,7.069,41.558,27.871,5.153,8.479,10.081
1219,0.698,36.845,6.923,41.549,27.868,5.112,8.479,10.04
1220,0.715,37.01,7.077,41.578,27.878,5.07,8.644,10.081
1221,0.701,37.107,7.065,41.558,27.868,5.112,8.726,10.04
1222,0.715,37.165,6.86,41.587,27.882,5.153,8.972,10.163
1223,0.715,36.865,7.05,41.684,27.885,5.317,9.136,10.368
1224,0.708,36.981,6.77,41.578,27.878,5.112,8.972,10.245
1225,0.711,37.088,6.99,41.568,27.871,5.153,9.136,10.327
1226,0.708,37.097,6.892,41.558,27.864,5.07,9.136,10.327
1227,0.715,36.933,7.002,41.578,27.878,5.07,9.259,10.409
1228,0.728,37.078,6.849,41.597,27.875,5.153,9.342,10.45
1229,0.721,37.155,7.002,41.539,27.868,5.07,9.301,10.409
1230,0.721,37.097,7.097,41.568,27.878,5.07,9.465,10.45
1231,0.705,36.865,6.99,41.539,27.871,5.03,9.424,10.409
1232,0.701,37.0,7.132,41.529,27.864,4.988,9.424,10.409
1233,0.705,37.097,6.971,41.568,27.878,5.194,9.629,10.574
1234,0.701,36.865,7.026,41.568,27.871,5.153,9.67,10.45
1235,0.698,36.991,6.813,41.578,27.885,5.194,9.876,10.574
1236,0.695,37.097,7.03,41.607,27.885,5.276,9.999,10.574
1237,0.685,37.175,6.987,41.587,27.871,5.07,10.04,10.491
1238,0.685,36.845,6.967,41.626,27.871,5.153,10.081,10.491
1239,0.682,36.942,7.03,41.558,27.868,5.112,10.04,10.409
1240,0.685,37.117,6.896,41.578,27.868,5.112,10.081,10.491
1241,0.701,37.194,7.081,41.597,27.875,5.153,10.163,10.615
1242,0.692,36.913,6.947,41.568,27.868,5.153,10.081,10.615
1243,0.695,37.088,7.077,41.578,27.878,5.194,10.163,10.656
1244,0.695,37.165,6.884,41.549,27.871,5.112,10.04,10.615
1245,0.695,37.194,7.057,41.539,27.868,4.947,9.957,10.615
1246,0.692,36.845,7.026,41.568,27.875,5.112,9.999,10.779
1247,0.708,36.981,7.034,41.568,27.875,5.153,9.916,10.697
1248,0.718,37.097,7.101,41.587,27.882,5.194,9.957,10.861
1249,0.711,37.165,6.927,41.607,27.885,5.235,9.957,10.902
1250,0.705,36.787,7.006,41.568,27.875,5.03,9.916,10.861
1251,0.698,36.923,6.904,41.578,27.878,5.194,9.876,10.861
1252,0.698,37.01,7.042,41.549,27.868,5.03,9.752,10.738
1253,0.705,37.039,6.967,41.568,27.882,5.153,9.916,10.779
1254,0.705,37.01,7.136,41.597,27.885,5.317,9.999,10.861
1255,0.692,37.097,6.892,41.587,27.875,5.153,9.876,10.779
1256,0.688,37.194,7.054,41.587,27.875,5.153,9.916,10.779
1257,0.685,36.991,6.983,41.539,27.871,5.07,9.793,10.697
1258,0.678,36.962,7.038,41.549,27.868,5.03,9.876,10.615
1259,0.685,37.097,7.073,41.578,27.875,5.07,9.916,10.656
1260,0.682,37.184,6.951,41.558,27.871,5.153,9.957,10.656
1261,0.692,36.874,6.983,41.587,27.878,5.194,9.999,10.656
1262,0.698,36.991,6.797,41.597,27.875,5.112,9.999,10.615
1263,0.682,37.078,6.975,41.568,27.871,5.07,9.957,10.491
1264,0.698,37.194,6.904,41.568,27.875,5.153,9.916,10.615
1265,0.695,36.894,7.097,41.568,27.868,5.07,9.916,10.45
1266,0.705,37.088,6.904,41.655,27.878,5.153,10.04,10.532
1267,0.721,37.194,7.034,41.597,27.889,5.276,10.163,10.574
1268,0.701,37.223,6.916,41.578,27.871,5.07,10.04,10.368
1269,0.708,36.787,7.085,41.568,27.875,5.153,10.081,10.368
1270,0.698,36.913,6.92,41.558,27.864,5.07,10.081,10.163
1271,0.701,37.049,7.105,41.568,27.878,5.153,10.204,10.245
1272,0.698,37.126,6.931,41.597,27.878,5.153,10.368,10.327
1273,0.692,36.962,6.943,41.597,27.878,5.153,10.45,10.204
1274,0.682,37.097,6.86,41.597,27.878,5.235,10.574,10.204
1275,0.678,37.165,7.05,41.549,27.868,5.112,10.491,10.122
1276,0.675,37.184,6.884,41.568,27.868,5.07,10.409,10.04
1277,0.672,37.059,7.018,41.626,27.871,5.153,10.656,10.245
1278,0.662,37.175,6.864,41.568,27.868,5.153,10.574,10.163
1279,0.675,37.272,7.026,41.578,27.871,5.235,10.656,10.245
1280,0.678,37.407,6.927,41.597,27.882,5.194,10.656,10.368
1281,0.678,36.904,7.057,41.568,27.875,5.153,10.574,10.327
1282,0.688,37.039,7.16,41.578,27.878,5.153,10.491,10.327
1283,0.678,37.126,7.006,41.568,27.871,4.988,10.409,10.327
1284,0.688,37.0,7.105,41.587,27.871,5.153,10.574,10.491
1285,0.708,37.107,6.912,41.597,27.885,5.235,10.574,10.491
1286,0.695,37.184,7.073,41.578,27.871,5.07,10.409,10.409
1287,0.695,37.272,6.892,41.587,27.878,5.112,10.409,10.45
1288,0.685,36.816,7.006,41.587,27.864,4.988,10.286,10.245
1289,0.701,36.942,6.793,41.549,27.864,5.03,10.245,10.327
1290,0.695,37.059,6.947,41.568,27.878,5.07,10.245,10.409
1291,0.682,37.136,7.018,41.568,27.868,5.112,10.04,10.368
1292,0.688,37.117,6.987,41.578,27.878,5.112,10.081,10.491
1293,0.682,37.243,7.14,41.578,27.878,5.194,10.04,10.491
1294,0.669,37.32,6.987,41.578,27.864,5.07,9.876,10.368
1295,0.675,37.427,7.054,41.587,27.875,5.153,9.834,10.409
1296,0.669,37.0,6.88,41.558,27.861,5.03,9.67,10.327
1297,0.662,37.165,7.105,41.607,27.878,5.07,9.67,10.409
1298,0.678,37.281,6.908,41.626,27.889,5.235,9.752,10.532
1299,0.662,37.291,6.959,41.578,27.871,5.153,9.588,10.409
1300,0.659,37.097,6.939,41.655,27.875,5.112,9.506,10.409
1301,0.669,37.194,6.927,41.568,27.875,5.03,9.424,10.368
1302,0.678,37.32,6.983,41.568,27.864,5.03,9.382,10.245
1303,0.675,37.349,6.943,41.597,27.878,5.07,9.424,10.45
1304,0.685,36.991,7.081,41.578,27.864,5.07,9.342,10.368
1305,0.688,37.136,6.856,41.578,27.878,5.153,9.301,10.45
1306,0.685,37.243,7.022,41.587,27.878,5.112,9.301,10.491
1307,0.685,37.117,6.856,41.549,27.875,5.03,9.177,10.368
1308,0.698,37.078,7.057,41.568,27.875,5.03,9.259,10.409
1309,0.695,37.155,6.931,41.568,27.875,5.03,9.095,10.327
1310,0.688,37.31,7.065,41.587,27.882,5.153,9.136,10.409
1311,0.688,37.117,6.951,41.636,27.889,5.235,9.218,10.491
1312,0.675,37.194,6.916,41.587,27.871,5.112,9.013,10.409
1313,0.675,37.31,7.054,41.568,27.875,5.112,9.054,10.45
1314,0.669,37.368,6.975,41.568,27.868,5.07,8.972,10.327
1315,0.669,36.942,7.109,41.578,27.871,5.03,9.013,10.245
1316,0.669,37.107,6.904,41.568,27.878,5.112,9.054,10.327
1317,0.665,37.214,7.03,41.568,27.871,5.112,9.013,10.286
1318,0.662,37.291,6.88,41.607,27.878,5.153,9.013,10.368
1319,0.652,37.039,7.077,41.568,27.878,5.07,8.972,10.327
1320,0.649,37.136,6.923,41.568,27.861,4.947,8.89,10.122
1321,0.669,37.272,7.069,41.568,27.875,5.153,9.013,10.245
1322,0.672,37.32,6.896,41.568,27.868,5.153,8.931,10.04
1323,0.682,36.913,7.03,41.587,27.875,5.112,9.013,10.163
1324,0.675,37.059,6.864,41.607,27.882,5.317,9.095,10.204
1325,0.672,37.175,7.014,41.568,27.878,5.153,8.931,10.04
1326,0.682,37.194,6.9,41.597,27.871,5.153,8.931,10.081
1327,0.688,37.117,6.983,41.568,27.868,5.07,8.849,9.916
1328,0.688,37.262,7.03,41.568,27.878,5.153,8.89,9.876
1329,0.688,37.388,6.987,41.587,27.878,5.153,8.89,9.999
1330,0.688,37.659,7.069,41.578,27.875,5.153,8.808,9.916
1331,0.678,36.942,7.006,41.568,27.878,5.194,8.849,9.876
1332,0.669,37.059,7.026,41.568,27.868,5.112,8.808,9.916
1333,0.669,37.136,7.03,41.529,27.861,4.988,8.644,9.793
1334,0.655,37.049,6.959,41.568,27.875,5.112,8.726,9.957
1335,0.659,37.126,6.967,41.587,27.864,5.07,8.726,9.834
1336,0.669,37.272,7.073,41.587,27.878,5.194,8.684,10.04
1337,0.655,37.359,6.99,41.597,27.889,5.235,8.684,9.999
1338,0.646,36.884,7.038,41.568,27.878,5.153,8.602,9.916
1339,0.655,37.029,6.785,41.597,27.875,5.153,8.644,9.876
1340,0.655,37.117,7.022,41.568,27.871,5.03,8.561,9.834
1341,0.665,37.223,6.864,41.597,27.878,5.194,8.644,9.916
1342,0.685,36.933,7.014,41.607,27.885,5.317,8.726,10.04
1343,0.669,37.039,6.92,41.587,27.878,5.153,8.684,9.999
1344,0.682,37.155,7.121,41.578,27.882,5.194,8.726,10.081
1345,0.678,37.223,6.908,41.616,27.868,5.112,8.602,9.999
1346,0.675,36.845,7.006,41.568,27.864,5.03,8.561,9.916
1347,0.672,37.02,6.896,41.568,27.878,5.194,8.684,10.04
1348,0.685,37.107,7.085,41.568,27.875,5.03,8.726,9.999
1349,0.695,37.175,6.923,41.578,27.882,5.194,8.808,10.163
1350,0.682,36.933,6.994,41.597,27.878,5.194,8.89,10.122
1351,0.669,37.029,6.979,41.568,27.868,5.153,8.767,10.081
1352,0.678,37.184,6.92,41.645,27.871,5.153,8.89,10.122
1353,0.659,37.175,6.998,41.549,27.871,5.112,8.89,10.081
1354,0.669,36.836,6.916,41.568,27.882,5.153,9.013,10.163
1355,0.662,36.981,7.144,41.626,27.892,5.235,9.013,10.286
1356,0.662,37.059,6.809,41.597,27.868,5.153,8.89,10.081
1357,0.652,37.126,7.038,41.597,27.871,5.194,8.931,10.245
1358,0.655,37.01,6.88,41.549,27.871,4.988,8.849,10.122
1359,0.662,37.146,7.089,41.549,27.868,5.07,8.808,9.999
1360,0.662,37.243,7.121,41.568,27.882,5.112,8.89,10.122
1361,0.662,36.797,7.006,41.558,27.871,5.112,8.767,9.999
1362,0.662,36.884,7.085,41.587,27.882,5.153,8.89,10.081
1363,0.669,37.0,6.888,41.597,27.875,5.153,8.808,10.163
1364,0.669,37.068,6.998,41.568,27.868,5.07,8.767,9.999
1365,0.682,36.681,6.955,41.568,27.871,5.153,8.767,10.081
1366,0.675,36.816,7.065,41.568,27.871,5.03,8.726,10.04
1367,0.685,36.962,6.868,41.587,27.882,5.194,8.767,10.122
1368,0.695,37.039,7.054,41.607,27.889,5.317,8.849,10.163
1369,0.685,36.749,6.833,41.568,27.875,5.112,8.726,10.081
1370,0.675,36.894,7.002,41.568,27.878,5.153,8.644,10.081
1371,0.665,36.991,7.006,41.549,27.871,5.03,8.52,10.04
1372,0.675,37.059,7.081,41.578,27.864,5.112,8.52,10.04
1373,0.669,36.671,7.101,41.578,27.878,5.153,8.52,10.245
1374,0.669,36.807,7.014,41.626,27.875,5.07,8.438,10.081
1375,0.665,36.913,7.05,41.597,27.878,5.194,8.479,10.163
1376,0.665,36.962,6.959,41.578,27.871,5.112,8.397,10.163
1377,0.655,36.69,7.073,41.558,27.868,5.07,8.356,10.163
1378,0.662,36.865,6.821,41.587,27.871,5.153,8.356,10.204
1379,0.646,36.962,6.998,41.587,27.871,5.112,8.274,10.204
1380,0.659,36.981,6.849,41.587,27.885,5.235,8.274,10.286
1381,0.682,36.768,7.006,41.607,27.889,5.276,8.479,10.368
1382,0.672,36.874,6.884,41.578,27.875,5.112,8.192,10.204
1383,0.675,36.952,7.022,41.587,27.878,5.112,8.315,10.245
1384,0.672,36.671,7.085,41.558,27.871,5.07,8.069,10.122
1385,0.678,36.671,6.994,41.597,27.878,5.112,8.15,10.163
1386,0.685,36.826,7.061,41.578,27.885,5.153,8.069,10.286
1387,0.692,36.874,7.006,41.568,27.878,5.112,8.027,10.163
1388,0.688,36.565,7.105,41.578,27.878,5.153,8.109,10.245
1389,0.682,36.671,6.912,41.578,27.871,5.07,7.986,10.163
1390,0.669,36.778,7.01,41.558,27.871,5.03,7.863,10.04
1391,0.672,36.904,6.868,41.597,27.871,5.112,7.986,10.163
1392,0.672,36.584,6.971,41.578,27.875,5.153,7.945,10.081
1393,0.682,36.729,6.849,41.587,27.878,5.235,8.027,10.204
1394,0.675,36.855,7.065,41.597,27.878,5.235,8.027,10.368
1395,0.665,36.913,6.864,41.568,27.871,5.153,7.986,10.163
1396,0.675,36.516,7.018,41.597,27.875,5.235,8.027,10.204
1397,0.662,36.661,6.849,41.587,27.868,5.03,7.986,10.163
1398,0.652,36.787,7.03,41.597,27.878,5.153,8.109,10.286
1399,0.669,36.836,6.971,41.616,27.878,5.235,8.192,10.409
1400,0.665,36.584,7.038,41.587,27.875,5.153,8.109,10.327
1401,0.669,36.72,7.014,41.587,27.878,5.153,8.233,10.409
1402,0.672,36.797,6.963,41.587,27.875,5.07,8.192,10.409
1403,0.662,36.816,6.947,41.568,27.868,5.03,8.109,10.409
1404,0.682,36.739,6.939,41.607,27.868,5.153,8.274,10.574
1405,0.682,36.845,6.975,41.568,27.875,5.07,8.233,10.574
1406,0.685,36.971,6.987,41.616,27.878,5.194,8.356,10.738
1407,0.698,37.02,6.994,41.607,27.885,5.235,8.561,10.902
1408,0.692,36.41,6.979,41.568,27.878,5.112,8.397,10.779
1409,0.695,36.516,7.069,41.578,27.882,5.153,8.397,11.025
1410,0.682,36.613,6.987,41.549,27.868,5.03,8.315,10.984
1411,0.685,36.448,7.105,41.578,27.871,5.153,8.438,11.149
1412,0.688,36.545,6.943,41.587,27.878,5.153,8.479,11.272
1413,0.672,36.652,7.022,41.578,27.875,5.07,8.52,11.354
1414,0.669,36.758,6.833,41.597,27.868,5.194,8.602,11.477
1415,0.669,36.303,6.998,41.568,27.871,5.112,8.602,11.518
1416,0.659,36.419,7.046,41.539,27.868,5.03,8.438,11.354
1417,0.662,36.574,6.943,41.578,27.878,5.194,8.602,11.6
1418,0.669,36.642,7.042,41.568,27.871,5.153,8.602,11.477
1419,0.675,36.429,6.963,41.607,27.882,5.153,8.684,11.559
1420,0.682,36.565,7.042,41.616,27.885,5.194,8.684,11.683
1421,0.682,36.661,6.935,41.597,27.878,5.07,8.644,11.477
1422,0.685,36.72,7.125,41.578,27.878,5.153,8.684,11.477
1423,0.672,36.313,6.935,41.558,27.871,5.07,8.561,11.395
1424,0.688,36.468,6.994,41.587,27.875,5.153,8.602,11.354
1425,0.688,36.594,6.841,41.597,27.878,5.153,8.644,11.395
1426,0.682,36.632,7.014,41.578,27.875,5.112,8.561,11.395
1427,0.695,36.274,6.931,41.597,27.878,5.194,8.644,11.354
1428,0.701,36.39,7.01,41.568,27.871,5.153,8.479,11.313
1429,0.685,36.477,6.935,41.549,27.864,5.03,8.479,11.149
1430,0.692,36.526,6.971,41.578,27.875,5.194,8.52,11.231
1431,0.682,36.284,6.998,41.578,27.871,5.07,8.52,11.149
1432,0.688,36.429,6.872,41.578,27.882,5.194,8.644,11.231
1433,0.695,36.535,7.042,41.607,27.889,5.358,8.767,11.354
1434,0.678,36.351,6.955,41.558,27.871,5.112,8.602,11.149
1435,0.665,36.303,7.038,41.607,27.871,5.194,8.644,11.189
1436,0.669,36.419,7.006,41.568,27.864,5.03,8.644,11.066
1437,0.675,36.535,6.983,41.597,27.875,5.07,8.808,11.189
1438,0.672,36.303,7.125,41.597,27.882,5.194,8.808,11.149
1439,0.662,36.4,6.975,41.578,27.875,5.03,8.767,11.066
1440,0.669,36.497,7.046,41.587,27.878,5.153,8.931,11.066
1441,0.672,36.594,6.849,41.578,27.878,5.112,8.89,11.066
1442,0.662,36.119,6.88,41.587,27.864,4.988,8.849,10.902
1443,0.678,36.293,6.841,41.587,27.875,5.07,9.013,10.943
1444,0.678,36.41,7.026,41.597,27.875,5.07,9.013,10.82
1445,0.685,36.477,6.916,41.587,27.882,5.194,9.136,10.943
1446,0.695,36.206,7.022,41.645,27.885,5.235,9.259,10.943
1447,0.701,36.293,7.026,41.587,27.871,5.07,9.095,10.738
1448,0.695,36.4,6.967,41.587,27.875,5.112,9.095,10.738
1449,0.685,36.458,7.093,41.568,27.878,4.988,9.054,10.615
1450,0.695,36.109,6.943,41.587,27.882,5.153,9.054,10.615
1451,0.695,36.293,7.085,41.607,27.878,5.153,9.095,10.656
1452,0.682,36.351,6.9,41.578,27.875,5.07,9.054,10.697
1453,0.678,36.419,6.998,41.587,27.878,5.112,9.095,10.738
1454,0.669,36.167,6.809,41.568,27.868,5.03,8.972,10.656
1455,0.655,36.255,7.061,41.578,27.857,5.03,8.849,10.656
1456,0.672,36.39,6.884,41.587,27.882,5.112,8.972,10.902
1457,0.655,36.739,6.927,41.578,27.871,5.07,8.89,10.82
1458,0.669,36.545,6.849,41.616,27.882,5.153,8.931,11.025
1459,0.675,36.652,6.935,41.616,27.885,5.235,8.972,11.066
1460,0.669,36.739,7.006,41.587,27.871,5.153,8.849,10.82
1461,0.675,36.061,7.014,41.587,27.878,5.112,8.767,10.984
1462,0.669,35.983,7.077,41.578,27.868,5.03,8.767,10.902
1463,0.672,36.109,6.983,41.597,27.871,5.07,8.808,10.902
1464,0.692,36.235,7.077,41.607,27.875,5.153,8.767,11.025
1465,0.685,36.061,6.912,41.578,27.871,5.07,8.726,10.984
1466,0.682,36.206,7.093,41.616,27.878,5.194,8.767,11.149
1467,0.682,36.293,6.908,41.558,27.868,5.07,8.767,10.984
1468,0.682,36.371,6.959,41.549,27.868,4.988,8.602,10.82
1469,0.695,35.896,6.817,41.578,27.875,5.07,8.808,10.943
1470,0.692,36.032,6.975,41.587,27.875,4.988,8.726,10.902
1471,0.685,36.177,7.046,41.587,27.875,5.194,8.849,10.943
1472,0.685,36.245,6.987,41.616,27.885,5.194,8.972,10.984
1473,0.675,36.061,7.085,41.587,27.878,5.112,8.931,10.861
1474,0.669,36.196,6.955,41.578,27.878,5.153,8.972,10.779
1475,0.662,36.322,7.057,41.578,27.871,5.112,8.89,10.82
1476,0.672,36.371,6.92,41.607,27.875,5.07,9.013,10.779
1477,0.665,36.109,7.101,41.616,27.885,5.194,9.095,10.82
1478,0.662,36.206,7.01,41.587,27.871,5.07,9.054,10.656
1479,0.669,36.332,7.054,41.578,27.878,5.153,9.177,10.738
1480,0.659,36.342,6.864,41.578,27.871,5.03,9.054,10.615
1481,0.669,36.08,7.038,41.587,27.868,4.988,9.013,10.491
1482,0.675,36.216,6.86,41.607,27.878,5.07,9.136,10.574
1483,0.672,36.303,7.01,41.578,27.868,5.07,9.054,10.491
1484,0.692,36.187,6.908,41.607,27.875,5.153,9.259,10.532
1485,0.682,35.925,6.99,41.587,27.885,5.153,9.177,10.574
1486,0.669,36.061,6.829,41.587,27.871,5.07,9.095,10.532
1487,0.682,36.167,7.006,41.587,27.868,5.112,9.095,10.45
1488,0.682,35.887,7.085,41.578,27.875,5.112,9.054,10.409
1489,0.698,36.022,6.931,41.607,27.878,5.194,9.136,10.368
1490,0.705,36.158,7.069,41.616,27.878,5.276,9.136,10.532
1491,0.688,36.235,6.876,41.587,27.871,5.153,9.013,10.286
1492,0.685,35.945,6.9,41.587,27.885,5.112,9.013,10.286
1493,0.675,36.08,7.006,41.568,27.871,5.07,9.013,10.245
1494,0.672,36.216,6.975,41.597,27.875,5.194,9.054,10.245
1495,0.675,36.303,7.125,41.597,27.878,5.194,9.095,10.286
1496,0.672,35.974,6.904,41.578,27.875,5.112,9.054,10.245
1497,0.659,36.138,7.042,41.597,27.878,5.194,9.136,10.327
1498,0.659,36.226,6.852,41.578,27.868,5.07,8.972,10.368
1499,0.649,36.274,7.038,41.568,27.864,5.03,8.972,10.163
1500,0.669,35.935,6.935,41.587,27.878,5.194,9.136,10.245
1501,0.669,36.09,7.097,41.578,27.871,5.07,9.013,10.163
1502,0.682,36.206,6.987,41.607,27.878,5.153,9.095,10.245
1503,0.695,36.245,7.042,41.616,27.889,5.317,9.218,10.286
1504,0.688,35.954,6.916,41.587,27.871,5.153,9.013,10.204
1505,0.685,36.08,6.979,41.587,27.882,5.153,9.054,10.204
1506,0.688,36.167,7.097,41.549,27.868,5.153,9.013,10.04
1507,0.695,36.206,6.876,41.587,27.875,5.112,8.972,10.04
1508,0.701,35.916,7.061,41.587,27.875,5.153,9.054,10.081
1509,0.698,36.012,6.833,41.587,27.875,5.153,9.013,10.081
1510,0.695,36.148,7.018,41.607,27.885,5.194,9.136,10.122
1511,0.682,36.003,6.916,41.568,27.871,5.153,9.095,9.916
1512,0.685,36.022,7.093,41.549,27.864,4.988,9.054,9.876
1513,0.688,36.177,6.931,41.587,27.878,5.112,9.136,9.999
1514,0.678,36.274,7.014,41.645,27.871,5.153,9.095,9.916
1515,0.675,35.857,7.014,41.587,27.878,5.276,9.177,9.999
1516,0.675,35.964,6.987,41.607,27.889,5.276,9.342,9.999
1517,0.662,36.071,7.05,41.587,27.878,5.194,9.218,9.876
1518,0.659,36.177,6.876,41.607,27.878,5.235,9.301,9.916
1519,0.665,35.877,7.022,41.578,27.871,5.112,9.218,9.834
1520,0.678,36.032,6.841,41.597,27.882,5.235,9.301,9.834
1521,0.682,36.177,6.998,41.616,27.878,5.235,9.342,9.834
1522,0.669,36.187,6.927,41.587,27.878,5.112,9.259,9.752
1523,0.682,36.012,7.081,41.587,27.875,5.153,9.259,9.752
1524,0.672,36.129,6.939,41.578,27.875,5.112,9.218,9.67
1525,0.682,36.226,7.073,41.558,27.871,5.07,9.095,9.588
1526,0.688,36.303,6.884,41.587,27.875,5.194,9.177,9.67
1527,0.682,35.751,7.077,41.568,27.871,5.153,9.095,9.588
1528,0.698,35.906,6.943,41.597,27.885,5.235,9.177,9.67
1529,0.701,36.003,7.065,41.607,27.885,5.317,9.218,9.793
1530,0.682,36.032,6.817,41.587,27.878,5.194,9.095,9.711
1531,0.675,35.983,6.912,41.597,27.878,5.317,9.136,9.67
1532,0.678,36.1,6.951,41.578,27.875,5.153,9.095,9.67
1533,0.688,36.226,6.923,41.597,27.875,5.194,9.218,9.67
1534,0.692,36.342,7.069,41.607,27.885,5.317,9.301,9.793
1535,0.675,35.819,6.943,41.578,27.871,5.194,9.218,9.752
1536,0.678,35.945,7.069,41.597,27.878,5.317,9.301,9.752
1537,0.669,36.051,6.833,41.578,27.878,5.153,9.218,9.752
1538,0.665,35.906,7.069,41.568,27.868,5.153,9.136,9.711
1539,0.665,36.003,7.105,41.578,27.878,5.276,9.259,9.793
1540,0.669,36.129,7.01,41.578,27.878,5.194,9.218,9.834
1541,0.685,36.206,7.03,41.587,27.885,5.276,9.301,9.957
1542,0.682,35.712,6.927,41.616,27.878,5.399,9.342,10.122
1543,0.675,35.819,7.022,41.587,27.871,5.235,9.136,10.04
1544,0.695,35.954,6.888,41.597,27.878,5.317,9.259,10.163
1545,0.688,36.012,7.073,41.578,27.871,5.194,9.095,10.245
1546,0.692,35.857,6.868,41.607,27.878,5.358,9.136,10.409
1547,0.715,36.022,7.022,41.616,27.885,5.399,9.218,10.491
1548,0.705,36.09,6.833,41.568,27.871,5.317,9.095,10.45
1549,0.692,36.167,7.03,41.587,27.875,5.194,9.177,10.45
1550,0.688,35.799,6.896,41.587,27.875,5.276,9.095,10.409
1551,0.682,35.954,7.109,41.578,27.864,5.235,9.136,10.45
1552,0.695,36.1,7.026,41.587,27.885,5.317,9.177,10.574
1553,0.685,36.119,6.927,41.578,27.871,5.317,9.259,10.574
1554,0.678,35.906,7.061,41.597,27.882,5.358,9.342,10.656
1555,0.672,36.012,6.967,41.587,27.878,5.317,9.424,10.697
1556,0.662,36.1,7.113,41.558,27.871,5.235,9.382,10.615
1557,0.675,36.148,6.927,41.597,27.871,5.317,9.465,10.738
1558,0.669,35.819,7.054,41.587,27.871,5.276,9.424,10.615
1559,0.675,35.954,6.849,41.607,27.882,5.276,9.506,10.697
1560,0.685,36.1,7.038,41.616,27.885,5.399,9.67,10.779
1561,0.685,35.916,7.097,41.578,27.871,5.276,9.465,10.574
1562,0.688,35.848,7.046,41.587,27.878,5.317,9.506,10.574
1563,0.685,35.954,7.113,41.587,27.871,5.276,9.465,10.532
1564,0.688,36.051,6.967,41.568,27.868,5.194,9.424,10.45
1565,0.692,35.741,7.046,41.597,27.871,5.235,9.547,10.491
1566,0.692,35.828,6.998,41.597,27.871,5.235,9.382,10.45
1567,0.701,35.974,7.132,41.597,27.882,5.317,9.506,10.491
1568,0.708,36.061,6.9,41.597,27.882,5.317,9.547,10.491
1569,0.698,35.819,7.006,41.636,27.871,5.194,9.382,10.45
1570,0.701,35.974,6.845,41.607,27.878,5.317,9.424,10.327
1571,0.688,36.071,6.998,41.587,27.868,5.153,9.342,10.327
1572,0.695,36.158,6.845,41.597,27.878,5.235,9.342,10.409
1573,0.695,35.828,7.006,41.626,27.878,5.317,9.424,10.286
1574,0.672,35.954,6.841,41.597,27.875,5.235,9.301,10.327
1575,0.678,36.071,6.998,41.607,27.871,5.276,9.342,10.368
1576,0.669,36.109,6.99,41.578,27.868,5.153,9.301,10.286
1577,0.665,35.77,6.939,41.568,27.868,5.07,9.259,10.327
1578,0.669,35.945,7.077,41.607,27.875,5.194,9.301,10.409
1579,0.675,36.051,6.896,41.587,27.875,5.153,9.301,10.327
1580,0.675,36.1,7.014,41.607,27.871,5.235,9.342,10.409
1581,0.688,35.838,6.852,41.626,27.878,5.317,9.382,10.491
1582,0.678,35.983,7.006,41.597,27.871,5.235,9.342,10.327
1583,0.692,36.09,6.856,41.597,27.878,5.276,9.382,10.327
1584,0.688,36.342,7.113,41.568,27.875,5.112,9.218,10.245
1585,0.695,35.78,6.888,41.607,27.878,5.235,9.301,10.327
1586,0.711,35.954,7.014,41.626,27.889,5.358,9.424,10.45
1587,0.701,36.012,7.05,41.597,27.871,5.194,9.301,10.163
1588,0.705,35.79,6.994,41.597,27.878,5.276,9.301,10.245
1589,0.698,35.828,7.077,41.568,27.868,5.153,9.177,10.122
1590,0.692,35.945,6.975,41.578,27.868,5.112,9.136,10.081
1591,0.688,36.051,7.085,41.607,27.882,5.194,9.259,10.081
1592,0.692,35.732,6.856,41.587,27.875,5.317,9.177,10.081
1593,0.695,35.877,7.065,41.607,27.878,5.317,9.259,10.122
1594,0.688,35.983,6.856,41.597,27.882,5.317,9.177,10.122
1595,0.675,36.042,7.085,41.578,27.868,5.153,9.177,10.081
1596,0.688,35.761,6.868,41.587,27.882,5.276,9.136,10.122
1597,0.685,35.896,6.987,41.568,27.868,5.194,9.136,10.04
1598,0.701,36.032,6.987,41.607,27.878,5.235,9.218,10.163
1599,0.705,36.109,6.998,41.626,27.889,5.399,9.301,10.204
1600,0.708,35.722,7.105,41.607,27.875,5.235,9.136,9.999
1601,0.715,35.867,7.034,41.597,27.882,5.235,9.136,10.081
1602,0.708,35.954,7.121,41.578,27.868,5.194,9.013,9.999
1603,0.724,35.993,6.892,41.578,27.868,5.153,9.013,9.916
1604,0.741,35.751,6.994,41.597,27.871,5.276,9.136,9.916
1605,0.744,35.867,6.872,41.587,27.878,5.194,9.013,9.957
1606,0.754,35.993,7.022,41.607,27.878,5.276,9.013,10.04
1607,0.77,36.012,6.833,41.597,27.882,5.276,9.095,9.957
1608,0.784,35.848,6.951,41.587,27.871,5.153,8.972,9.876
1609,0.787,35.983,7.006,41.597,27.875,5.276,8.972,9.916
1610,0.79,36.071,6.912,41.568,27.871,5.194,8.931,9.834
1611,0.797,36.022,7.073,41.616,27.882,5.235,9.054,9.999
1612,0.81,35.857,6.971,41.626,27.889,5.358,9.218,10.122
1613,0.797,35.945,7.121,41.587,27.871,5.112,9.177,10.04
1614,0.787,36.061,6.821,41.607,27.878,5.194,9.259,10.122
1615,0.77,35.702,7.022,41.587,27.871,5.112,9.301,10.04
1616,0.77,35.799,7.002,41.587,27.875,5.153,9.382,10.081
1617,0.777,35.935,7.026,41.578,27.878,5.235,9.547,10.163
1618,0.764,36.012,7.065,41.587,27.871,5.235,9.629,10.204
1619,0.734,35.664,6.955,41.607,27.878,5.317,9.793,10.286
1620,0.757,35.799,7.034,41.607,27.882,5.235,9.793,10.245
1621,0.747,35.896,6.88,41.587,27.868,5.194,9.793,10.163
1622,0.757,35.993,7.006,41.597,27.878,5.194,9.916,10.204
1623,0.754,35.78,6.868,41.587,27.868,5.07,9.793,10.081
1624,0.761,35.945,7.061,41.616,27.885,5.194,9.916,10.163
1625,0.774,36.09,6.904,41.694,27.889,5.358,10.04,10.245
1626,0.774,36.1,7.03,41.607,27.875,5.194,9.876,10.04
1627,0.784,35.644,6.88,41.597,27.882,5.194,9.876,10.122
1628,0.784,35.77,7.085,41.578,27.864,5.153,9.67,10.04
1629,0.79,35.906,6.872,41.558,27.871,5.153,9.711,9.957
1630,0.8,35.974,6.963,41.587,27.878,5.235,9.793,10.081
1631,0.777,35.79,6.805,41.587,27.875,5.153,9.629,9.999
1632,0.79,35.916,6.955,41.597,27.878,5.358,9.752,10.081
1633,0.767,36.012,6.979,41.597,27.885,5.194,9.629,10.081
1634,0.757,36.003,6.92,41.558,27.871,5.112,9.506,9.876
1635,0.761,35.606,7.046,41.597,27.875,5.153,9.547,10.04
1636,0.744,35.741,6.872,41.597,27.871,5.153,9.342,9.916
1637,0.747,35.867,6.987,41.607,27.878,5.194,9.506,10.081
1638,0.738,35.819,6.892,41.616,27.892,5.358,9.506,10.204
1639,0.721,35.819,7.085,41.597,27.871,5.194,9.301,9.999
1640,0.728,35.954,6.849,41.607,27.882,5.153,9.342,9.999
1641,0.731,36.012,6.979,41.578,27.868,5.112,9.218,9.957
1642,0.734,35.615,7.018,41.587,27.875,5.276,9.259,9.876
1643,0.721,35.761,6.963,41.607,27.878,5.194,9.259,9.916
1644,0.708,35.867,7.065,41.597,27.878,5.194,9.259,9.916
1645,0.701,35.935,6.975,41.597,27.878,5.194,9.424,9.916
1646,0.701,35.644,7.014,41.607,27.875,5.153,9.424,9.876
1647,0.688,35.77,6.884,41.558,27.864,5.112,9.382,9.793
1648,0.701,35.896,7.034,41.597,27.871,5.194,9.465,9.957
1649,0.708,35.964,6.9,41.568,27.871,5.112,9.547,9.916
1650,0.718,35.664,7.026,41.607,27.889,5.235,9.67,9.999
1651,0.724,35.838,7.093,41.616,27.885,5.317,9.793,10.04
1652,0.718,35.935,7.002,41.597,27.878,5.194,9.752,10.04
1653,0.711,36.003,7.057,41.607,27.882,5.153,9.876,9.999
1654,0.715,35.702,6.86,41.568,27.871,5.153,9.834,9.793
1655,0.721,35.857,7.061,41.597,27.878,5.235,9.999,9.957
1656,0.718,35.993,6.912,41.607,27.882,5.276,9.999,9.999
1657,0.705,35.993,6.971,41.597,27.875,5.194,9.957,9.876
1658,0.698,35.732,7.01,41.616,27.878,5.194,9.957,9.957
1659,0.685,35.877,6.9,41.578,27.871,5.112,9.876,9.916
1660,0.695,35.945,7.014,41.578,27.861,5.07,9.916,9.834
1661,0.701,36.071,6.951,41.587,27.878,5.194,9.957,9.999
1662,0.701,35.693,7.093,41.587,27.875,5.153,9.834,9.957
1663,0.715,35.828,6.935,41.597,27.878,5.235,9.957,10.081
1664,0.711,35.935,6.951,41.645,27.882,5.235,9.916,10.122
1665,0.698,35.712,6.849,41.607,27.871,5.153,9.834,10.081
1666,0.698,35.809,7.03,41.587,27.882,5.153,9.834,10.122
1667,0.695,35.906,6.92,41.578,27.868,5.03,9.752,10.04
1668,0.695,36.003,6.963,41.597,27.878,5.194,9.752,10.163
1669,0.701,35.644,7.061,41.665,27.889,5.317,9.834,10.368
1670,0.695,35.732,6.971,41.607,27.875,5.07,9.711,10.245
1671,0.685,35.877,7.073,41.597,27.875,5.153,9.711,10.327
1672,0.675,35.935,6.955,41.587,27.871,5.112,9.629,10.368
1673,0.669,35.635,7.101,41.578,27.871,5.112,9.588,10.327
1674,0.665,35.78,7.018,41.587,27.882,5.194,9.793,10.45
1675,0.669,35.906,7.077,41.578,27.878,5.194,9.67,10.45
1676,0.672,36.012,6.876,41.597,27.878,5.153,9.711,10.615
1677,0.662,35.606,7.109,41.587,27.882,5.07,9.629,10.574
1678,0.652,35.722,7.081,41.549,27.861,5.07,9.506,10.368
1679,0.655,35.896,6.967,41.616,27.871,5.194,9.629,10.45
1680,0.655,35.935,7.002,41.607,27.871,5.112,9.465,10.409
1681,0.659,35.712,6.852,41.607,27.878,5.235,9.547,10.45
1682,0.662,35.877,7.01,41.616,27.882,5.194,9.588,10.532
1683,0.642,35.945,6.86,41.587,27.875,5.03,9.465,10.368
1684,0.646,35.964,7.046,41.607,27.871,5.112,9.342,10.491
1685,0.642,35.567,6.935,41.587,27.868,5.112,9.342,10.327
1686,0.659,35.732,7.018,41.607,27.878,5.153,9.382,10.409
1687,0.672,35.857,6.935,41.626,27.889,5.194,9.342,10.532
1688,0.659,35.712,7.054,41.578,27.871,5.07,9.301,10.368
1689,0.659,35.664,6.951,41.587,27.878,5.112,9.301,10.409
1690,0.639,35.78,7.057,41.568,27.871,5.07,9.177,10.327
1691,0.636,35.887,6.9,41.587,27.868,5.07,9.177,10.368
1692,0.642,35.596,6.971,41.587,27.878,5.112,9.259,10.491
1693,0.632,35.702,6.868,41.597,27.882,5.03,9.177,10.409
1694,0.629,35.838,6.979,41.607,27.878,5.112,9.218,10.491
1695,0.629,35.906,6.86,41.587,27.875,5.07,9.136,10.491
1696,0.626,35.509,6.979,41.578,27.868,5.07,9.136,10.409
1697,0.623,35.693,7.042,41.607,27.882,5.112,9.177,10.491
1698,0.626,35.809,6.955,41.587,27.878,5.07,9.177,10.368
1699,0.629,35.925,7.077,41.597,27.878,5.194,9.177,10.45
1700,0.642,35.46,6.994,41.626,27.885,5.194,9.342,10.491
1701,0.629,35.567,7.101,41.597,27.878,5.112,9.177,10.286
1702,0.636,35.702,6.935,41.597,27.878,5.112,9.095,10.245
1703,0.629,35.741,7.022,41.587,27.871,4.988,9.013,10.245
1704,0.636,35.577,6.872,41.587,27.868,5.03,9.013,10.204
1705,0.642,35.732,7.05,41.597,27.878,5.07,9.177,10.245
1706,0.642,35.828,6.888,41.597,27.878,5.07,9.177,10.163
1707,0.649,35.867,6.943,41.616,27.878,5.112,9.177,10.204
1708,0.655,35.557,7.002,41.597,27.875,5.07,9.177,10.122
1709,0.652,35.654,6.912,41.558,27.868,4.947,9.177,9.999
1710,0.652,35.819,7.046,41.587,27.871,5.03,9.259,10.163
1711,0.642,36.09,6.931,41.597,27.868,5.03,9.218,10.122
1712,0.649,35.528,7.132,41.607,27.878,5.112,9.382,10.204
1713,0.642,35.673,6.987,41.616,27.892,5.194,9.547,10.327
1714,0.646,35.761,7.054,41.665,27.878,5.07,9.424,10.122
1715,0.639,35.635,7.006,41.616,27.882,5.07,9.547,10.163
1716,0.629,35.673,6.99,41.568,27.878,5.03,9.547,10.163
1717,0.626,35.809,7.085,41.616,27.875,5.153,9.588,10.204
1718,0.629,35.916,6.896,41.607,27.875,5.153,9.588,10.163
1719,0.626,35.47,7.034,41.674,27.871,5.03,9.588,10.163
1720,0.636,35.586,6.864,41.607,27.885,5.153,9.711,10.204
1721,0.639,35.683,7.014,41.587,27.878,5.07,9.588,10.081
1722,0.636,35.751,6.849,41.568,27.868,4.947,9.547,9.999
1723,0.649,35.509,7.05,41.597,27.878,5.153,9.67,10.081
1724,0.652,35.644,6.864,41.587,27.871,5.07,9.629,10.081
1725,0.652,35.79,7.065,41.626,27.882,5.153,9.67,10.122
1726,0.669,35.857,6.979,41.636,27.889,5.194,9.793,10.245
1727,0.662,35.48,7.022,41.578,27.871,5.07,9.629,10.081
1728,0.665,35.644,7.117,41.607,27.878,5.153,9.629,10.122
1729,0.659,35.741,6.935,41.568,27.864,5.112,9.465,10.122
1730,0.665,35.79,7.01,41.607,27.878,5.03,9.506,10.204
1731,0.669,35.538,6.809,41.616,27.878,5.07,9.506,10.286
1732,0.662,35.644,7.057,41.587,27.871,5.03,9.382,10.368
1733,0.639,35.78,6.872,41.607,27.878,5.194,9.465,10.409
1734,0.632,35.77,7.061,41.607,27.882,5.153,9.342,10.368
1735,0.616,35.518,6.884,41.568,27.868,4.988,9.259,10.327
1736,0.629,35.702,6.967,41.607,27.878,5.112,9.342,10.491
1737,0.626,35.799,7.014,41.597,27.868,5.112,9.259,10.45
1738,0.623,35.732,6.943,41.607,27.878,5.235,9.301,10.574
1739,0.626,35.518,7.105,41.616,27.889,5.194,9.465,10.656
1740,0.616,35.625,6.912,41.597,27.875,5.07,9.342,10.491
1741,0.619,35.712,7.042,41.587,27.878,5.194,9.301,10.491
1742,0.6,35.364,6.833,41.578,27.868,5.112,9.177,10.368
1743,0.626,35.48,6.994,41.587,27.878,5.07,9.259,10.409
1744,0.642,35.606,6.845,41.607,27.878,5.235,9.259,10.491
1745,0.662,35.693,7.061,41.597,27.868,5.07,9.218,10.491
1746,0.688,35.402,6.821,41.607,27.878,5.194,9.301,10.574
1747,0.721,35.528,7.002,41.587,27.871,5.07,9.259,10.45
1748,0.767,35.625,6.99,41.568,27.857,5.07,9.095,10.368
1749,0.836,35.741,6.979,41.587,27.878,5.112,9.259,10.532
1750,0.892,35.596,7.093,41.587,27.871,5.153,9.259,10.45
1751,0.935,35.78,6.967,41.607,27.882,5.194,9.301,10.491
1752,0.997,35.916,7.117,41.607,27.885,5.194,9.465,10.615
1753,1.033,35.925,6.856,41.578,27.878,5.153,9.424,10.491
1754,1.086,35.209,7.046,41.597,27.875,5.153,9.465,10.491
1755,1.145,35.334,6.912,41.587,27.871,5.112,9.382,10.409
1756,1.23,35.47,7.101,41.607,27.878,5.194,9.465,10.491
1757,1.329,35.538,6.88,41.626,27.885,5.276,9.588,10.574
1758,1.418,35.509,7.01,41.607,27.878,5.112,9.547,10.368
1759,1.529,35.644,7.038,41.607,27.878,5.194,9.629,10.45
1760,1.605,35.732,6.967,41.578,27.868,5.153,9.629,10.409
1761,1.7,35.761,7.101,41.578,27.868,5.112,9.465,10.327
1762,1.805,35.412,6.951,41.587,27.871,5.235,9.67,10.409
1763,1.904,35.528,7.113,41.587,27.875,5.194,9.67,10.45
1764,1.996,35.654,6.77,41.636,27.889,5.194,9.67,10.574
1765,2.068,35.47,7.01,41.607,27.878,5.194,9.752,10.615
1766,2.157,35.402,6.892,41.587,27.868,5.112,9.629,10.574
1767,2.259,35.567,7.109,41.597,27.878,5.276,9.629,10.656
1768,2.328,35.654,6.872,41.597,27.871,5.112,9.547,10.656
1769,2.374,35.247,7.046,41.684,27.878,5.194,9.711,10.779
1770,2.43,35.393,6.86,41.645,27.889,5.317,9.67,10.82
1771,2.466,35.489,7.006,41.597,27.875,5.235,9.465,10.779
1772,2.463,35.567,6.852,41.597,27.878,5.153,9.506,10.902
1773,2.407,35.364,7.034,41.568,27.868,5.153,9.342,10.738
1774,2.39,35.518,7.054,41.597,27.875,5.112,9.301,10.779
1775,2.371,35.664,6.987,41.607,27.878,5.153,9.259,10.943
1776,2.288,35.722,7.014,41.607,27.878,5.194,9.259,10.984
1777,2.256,35.441,6.971,41.616,27.885,5.112,9.301,11.066
1778,2.206,35.548,7.109,41.616,27.878,5.112,9.136,11.108
1779,2.164,35.654,6.9,41.558,27.868,4.988,8.972,11.108
1780,2.088,35.732,7.03,41.607,27.882,5.153,9.095,11.436
1781,1.934,35.238,6.778,41.597,27.871,5.153,8.931,11.847
1782,1.819,35.393,7.006,41.626,27.878,5.194,9.013,12.422
1783,1.694,35.499,6.845,41.607,27.882,5.194,9.013,13.079
1784,1.52,35.518,7.073,41.597,27.875,5.153,8.849,13.407
1785,1.362,35.354,6.856,41.616,27.878,5.153,8.808,13.982
1786,1.161,35.47,7.006,41.597,27.871,5.07,8.684,14.352
1787,0.997,35.606,7.03,41.607,27.878,5.112,8.767,14.927
1788,0.826,35.819,7.014,41.616,27.889,5.153,8.808,15.42
1789,0.655,35.296,7.109,41.597,27.878,5.153,8.561,15.748
1790,0.56,35.46,6.927,41.607,27.885,5.153,8.602,16.159
1791,0.475,35.528,7.042,41.597,27.878,5.03,8.479,16.241
1792,0.406,35.344,6.805,41.587,27.868,4.906,8.479,16.364
1793,0.37,35.441,7.006,41.597,27.878,5.07,8.561,16.652
1794,0.327,35.548,6.817,41.607,27.878,5.07,8.52,16.693
1795,0.314,35.664,7.03,41.607,27.882,5.153,8.644,16.816
1796,0.304,35.218,6.994,41.597,27.878,5.153,8.644,16.775
1797,0.291,35.344,6.931,41.607,27.871,5.112,8.644,16.57
1798,0.301,35.489,7.01,41.607,27.871,5.112,8.684,16.57
1799,0.317,35.557,6.927,41.568,27.871,5.07,8.602,16.364
1800,0.366,35.354,7.101,41.626,27.882,5.07,8.808,16.487
1801,0.399,35.528,7.03,41.636,27.882,5.194,8.89,16.405
1802,0.449,35.596,7.125,41.587,27.878,5.07,8.767,16.323
1803,0.485,35.673,6.888,41.607,27.878,5.194,8.849,16.528
1804,0.508,35.112,7.054,41.607,27.871,5.07,8.808,16.652
1805,0.541,35.238,6.951,41.587,27.864,4.988,8.767,16.816
1806,0.59,35.364,7.105,41.587,27.878,5.112,8.972,17.35
1807,0.616,35.422,6.829,41.597,27.875,5.112,8.931,17.555
1808,0.642,35.296,7.006,41.607,27.882,5.194,9.054,17.842
1809,0.665,35.422,6.845,41.597,27.878,5.194,9.054,18.048
1810,0.655,35.509,7.014,41.587,27.878,5.07,8.972,18.13
1811,0.669,35.567,7.089,41.616,27.875,5.153,9.013,18.377
1812,0.672,35.209,7.054,41.578,27.875,5.03,8.89,18.5
1813,0.688,35.354,7.148,41.597,27.882,5.07,9.054,18.623
1814,0.701,35.499,6.951,41.636,27.889,5.235,9.095,18.787
1815,0.692,35.46,7.05,41.587,27.878,5.112,8.931,18.582
1816,0.688,35.412,6.967,41.607,27.882,5.112,9.054,18.5
1817,0.672,35.518,7.065,41.578,27.868,5.07,8.931,18.377
1818,0.675,35.615,6.864,41.587,27.871,5.03,8.849,18.13
1819,0.688,35.209,7.034,41.616,27.871,5.112,9.013,18.089
1820,0.685,35.286,6.849,41.587,27.878,5.112,8.89,17.72
1821,0.695,35.451,6.994,41.616,27.882,5.112,9.013,17.637
1822,0.698,35.499,7.046,41.607,27.882,5.194,9.013,17.432
1823,0.685,35.15,7.03,41.568,27.875,5.112,8.931,17.104
1824,0.695,35.305,7.018,41.597,27.878,5.153,9.095,16.939
1825,0.695,35.431,6.975,41.568,27.878,4.988,8.89,16.61
1826,0.701,35.528,7.03,41.616,27.875,5.112,8.972,16.487
1827,0.724,35.218,7.046,41.597,27.885,5.235,9.095,16.241
1828,0.715,35.334,7.093,41.578,27.875,5.153,8.972,15.912
1829,0.728,35.46,6.912,41.597,27.875,5.153,8.972,15.666
1830,0.708,35.518,6.955,41.578,27.871,5.112,8.808,15.42
1831,0.695,35.179,6.837,41.645,27.861,5.03,8.849,15.132
1832,0.698,35.344,7.014,41.597,27.882,5.194,8.89,15.009
1833,0.685,35.431,6.845,41.587,27.871,5.112,8.849,14.886
1834,0.692,35.48,7.093,41.597,27.875,5.194,8.931,14.722
1835,0.675,35.179,6.856,41.578,27.878,5.07,8.931,14.475
1836,0.672,35.296,6.994,41.568,27.868,4.988,8.89,14.228
1837,0.675,35.441,7.014,41.607,27.878,5.112,8.931,14.188
1838,0.682,35.577,7.014,41.568,27.875,5.153,8.849,13.982
1839,0.682,35.257,7.117,41.616,27.882,5.194,8.931,13.941
1840,0.695,35.422,7.006,41.607,27.889,5.317,9.013,13.9
1841,0.692,35.47,7.01,41.587,27.871,5.112,8.849,13.531
1842,0.685,35.267,6.849,41.597,27.878,5.153,8.849,13.531
1843,0.695,35.276,7.01,41.578,27.871,5.07,8.726,13.243
1844,0.701,35.431,6.908,41.597,27.878,5.112,8.808,13.12
1845,0.715,35.518,7.061,41.616,27.882,5.194,8.808,13.038
1846,0.701,35.16,6.841,41.655,27.878,5.112,8.767,12.873
1847,0.721,35.315,6.99,41.578,27.882,5.153,8.767,12.75
1848,0.701,35.393,6.896,41.578,27.868,5.07,8.684,12.545
1849,0.701,35.47,6.987,41.558,27.864,4.988,8.602,12.422
1850,0.708,35.092,7.077,41.597,27.882,5.153,8.684,12.463
1851,0.701,35.238,6.939,41.597,27.875,5.07,8.602,12.298
1852,0.708,35.383,7.042,41.597,27.878,5.235,8.684,12.339
1853,0.708,35.47,6.801,41.645,27.885,5.153,8.726,12.339
1854,0.688,35.17,7.014,41.578,27.871,5.112,8.726,12.175
1855,0.692,35.315,6.939,41.587,27.878,5.153,8.849,12.134
1856,0.688,35.412,7.038,41.578,27.871,5.07,8.808,11.97
1857,0.692,35.499,6.979,41.626,27.878,5.194,8.89,12.011
1858,0.695,35.296,6.971,41.616,27.885,5.276,9.054,12.093
1859,0.688,35.393,7.042,41.597,27.878,5.153,8.972,11.764
1860,0.708,35.499,7.018,41.597,27.875,5.235,9.054,11.723
1861,0.688,35.518,7.085,41.568,27.875,5.112,8.972,11.559
1862,0.692,35.179,7.026,41.568,27.864,5.07,9.013,11.477
1863,0.698,35.325,7.085,41.587,27.878,5.235,9.095,11.559
1864,0.705,35.431,6.884,41.568,27.871,5.112,9.054,11.395
1865,0.708,35.402,7.03,41.607,27.882,5.153,9.177,11.477
1866,0.718,35.131,6.892,41.578,27.875,5.235,9.136,11.354
1867,0.701,35.238,7.002,41.568,27.868,5.07,9.095,11.189
1868,0.718,35.354,6.967,41.607,27.875,5.276,9.136,11.189
1869,0.715,35.131,6.825,41.568,27.875,5.194,9.095,11.108
1870,0.715,35.247,6.994,41.607,27.882,5.276,9.218,11.149
1871,0.715,35.393,6.864,41.616,27.889,5.276,9.342,11.108
1872,0.705,35.451,7.022,41.587,27.875,5.235,9.177,10.902
1873,0.701,35.16,6.951,41.587,27.882,5.235,9.259,10.984
1874,0.688,35.296,6.959,41.568,27.871,5.194,9.218,10.82
1875,0.698,35.412,6.975,41.578,27.871,5.153,9.259,10.779
1876,0.701,35.509,6.904,41.587,27.878,5.194,9.301,10.82
1877,0.688,34.579,7.121,41.587,27.871,5.153,9.301,10.779
1878,0.698,34.753,6.959,41.597,27.882,5.194,9.342,10.82
1879,0.698,34.86,6.998,41.607,27.875,5.153,9.342,10.738
1880,0.695,34.899,6.841,41.568,27.868,5.07,9.218,10.615
1881,0.701,35.47,6.959,41.645,27.875,5.194,9.342,10.656
1882,0.701,35.596,6.813,41.587,27.868,5.153,9.301,10.615
1883,0.718,35.732,7.006,41.607,27.878,5.276,9.301,10.615
1884,0.731,35.78,6.92,41.597,27.885,5.276,9.424,10.738
1885,0.711,35.024,6.998,41.607,27.871,5.153,9.218,10.491
1886,0.721,35.17,6.99,41.587,27.878,5.235,9.177,10.574
1887,0.724,35.238,6.971,41.587,27.871,5.153,9.177,10.409
1888,0.738,35.267,7.109,41.578,27.868,5.194,9.095,10.45
1889,0.738,35.238,6.99,41.587,27.878,5.153,9.054,10.45
1890,0.718,35.373,7.093,41.597,27.871,5.112,9.013,10.409
1891,0.721,35.489,6.904,41.607,27.885,5.194,9.013,10.409
1892,0.715,35.218,6.998,41.597,27.878,5.153,8.931,10.327
1893,0.701,35.141,6.841,41.568,27.864,5.07,8.849,10.204
1894,0.724,35.286,6.998,41.587,27.875,5.153,8.931,10.245
1895,0.708,35.383,6.904,41.578,27.871,5.07,8.89,10.245
1896,0.711,35.063,6.998,41.616,27.882,5.235,9.054,10.409
1897,0.708,35.218,6.856,41.645,27.885,5.317,9.136,10.491
1898,0.711,35.267,7.006,41.607,27.878,5.112,9.013,10.286
1899,0.701,35.354,6.9,41.616,27.878,5.194,9.136,10.286
1900,0.711,35.092,7.089,41.587,27.871,5.194,9.054,10.286
1901,0.738,35.238,6.896,41.607,27.878,5.235,9.013,10.245
1902,0.734,35.373,7.006,41.616,27.885,5.194,9.177,10.245
1903,0.734,35.422,6.975,41.607,27.878,5.153,9.095,10.163
1904,0.747,35.063,6.904,41.616,27.882,5.235,9.136,10.245
1905,0.738,35.179,7.077,41.616,27.885,5.235,9.177,10.163
1906,0.724,35.276,6.923,41.587,27.871,5.07,9.054,10.081
1907,0.747,35.364,6.998,41.607,27.882,5.194,9.095,10.081
1908,0.741,35.131,6.884,41.607,27.878,5.112,9.013,9.957
1909,0.751,35.286,7.057,41.607,27.878,5.194,9.095,10.04
1910,0.757,35.412,6.904,41.655,27.889,5.317,9.218,10.163
1911,0.741,35.422,7.069,41.607,27.875,5.194,9.095,9.999
1912,0.741,35.073,6.951,41.616,27.878,5.235,9.136,9.999
1913,0.734,35.17,7.109,41.587,27.875,5.194,8.972,10.04
1914,0.741,35.315,6.892,41.597,27.871,5.07,8.972,9.957
1915,0.734,35.606,6.983,41.597,27.878,5.194,9.013,10.081
1916,0.741,35.15,7.081,41.587,27.878,5.194,9.013,9.957
1917,0.738,35.296,6.998,41.607,27.878,5.153,9.095,9.999
1918,0.728,35.373,7.002,41.597,27.871,5.153,8.972,9.957
1919,0.724,35.024,6.88,41.578,27.875,5.03,8.89,9.834
1920,0.744,35.112,6.983,41.636,27.878,5.153,8.972,9.916
1921,0.751,35.238,6.856,41.597,27.875,5.153,8.849,9.793
1922,0.754,35.334,7.046,41.597,27.882,5.235,9.013,9.957
1923,0.764,35.054,6.963,41.645,27.889,5.194,9.013,10.04
1924,0.757,35.15,7.061,41.597,27.871,5.153,8.89,9.957
1925,0.77,35.296,6.88,41.607,27.875,5.153,8.849,10.081
1926,0.764,35.364,7.022,41.578,27.871,5.07,8.726,10.081
1927,0.774,34.995,6.912,41.607,27.878,5.112,8.808,10.081
1928,0.777,35.141,7.077,41.578,27.878,5.194,8.726,10.204
1929,0.77,35.247,6.927,41.587,27.871,5.112,8.684,10.245
1930,0.78,35.334,6.904,41.607,27.878,5.235,8.684,10.409
1931,0.761,35.015,6.943,41.616,27.878,5.112,8.602,10.491
1932,0.754,35.131,6.904,41.578,27.864,5.03,8.438,10.45
1933,0.767,35.257,7.022,41.607,27.878,5.153,8.644,10.574
1934,0.751,35.305,7.006,41.597,27.871,5.07,8.397,10.491
1935,0.757,35.024,7.069,41.626,27.882,5.235,8.52,10.574
1936,0.767,35.218,6.959,41.636,27.889,5.317,8.602,10.697
1937,0.744,35.296,7.046,41.607,27.882,5.112,8.315,10.532
1938,0.757,35.325,6.931,41.616,27.885,5.153,8.356,10.656
1939,0.751,35.005,7.109,41.607,27.875,5.112,8.15,10.491
1940,0.764,35.16,6.943,41.597,27.878,5.112,8.192,10.532
1941,0.774,35.276,7.061,41.607,27.878,5.194,8.192,10.45
1942,0.767,35.189,7.002,41.597,27.875,5.07,8.109,10.409
1943,0.78,35.131,6.935,41.616,27.882,5.153,8.15,10.45
1944,0.787,35.228,7.03,41.597,27.878,5.07,8.069,10.45
1945,0.777,35.296,6.884,41.597,27.868,5.07,7.863,10.245
1946,0.787,34.928,7.006,41.626,27.882,5.112,7.986,10.409
1947,0.787,35.034,6.856,41.607,27.878,5.112,7.904,10.245
1948,0.8,35.17,7.03,41.616,27.878,5.153,7.945,10.368
1949,0.803,35.267,6.88,41.636,27.889,5.194,7.945,10.368
1950,0.787,34.928,7.038,41.607,27.878,5.07,7.863,10.163
1951,0.79,35.083,7.113,41.616,27.885,5.153,7.863,10.286
1952,0.79,35.16,6.99,41.597,27.871,5.07,7.781,10.204
1953,0.79,35.267,6.994,41.636,27.878,5.112,7.945,10.286
1954,0.8,34.957,6.904,41.655,27.889,5.194,8.192,10.368
1955,0.787,35.083,7.069,41.607,27.878,5.112,8.027,10.327
1956,0.79,35.218,6.908,41.636,27.882,5.194,8.192,10.368
1957,0.78,35.247,6.983,41.616,27.868,5.03,8.233,10.245
1958,0.79,35.034,6.856,41.626,27.868,5.07,8.356,10.204
1959,0.79,35.179,6.967,41.626,27.878,5.153,8.602,10.327
1960,0.79,35.276,6.99,41.636,27.875,5.112,8.684,10.245
1961,0.807,35.325,7.01,41.645,27.878,5.194,8.849,10.286
1962,0.8,34.957,7.117,41.626,27.875,5.07,8.849,10.204
1963,0.81,35.063,6.983,41.626,27.864,5.03,8.849,10.163
1964,0.816,35.199,7.081,41.645,27.878,5.153,9.013,10.327
1965,0.826,35.218,6.849,41.626,27.871,5.07,9.013,10.163
1966,0.833,34.986,7.046,41.655,27.878,5.235,9.136,10.286
1967,0.856,35.121,6.92,41.645,27.892,5.235,9.259,10.327
1968,0.846,35.218,6.951,41.645,27.875,5.153,9.177,10.163
1969,0.836,34.928,6.998,41.626,27.878,5.194,9.259,10.204
1970,0.833,34.918,6.935,41.626,27.864,5.07,9.177,10.163
1971,0.836,35.044,7.018,41.636,27.871,5.153,9.259,10.163
1972,0.849,35.16,6.931,41.645,27.882,5.194,9.301,10.163
1973,0.843,34.899,7.093,41.616,27.875,5.153,9.218,10.245
1974,0.839,35.063,6.943,41.636,27.878,5.194,9.301,10.286
1975,0.826,35.179,7.01,41.636,27.878,5.153,9.301,10.245
1976,0.826,35.209,6.852,41.597,27.868,5.07,9.136,10.163
1977,0.839,34.937,7.105,41.655,27.878,5.194,9.259,10.286
1978,0.833,35.083,6.947,41.645,27.875,5.112,9.177,10.204
1979,0.839,35.209,7.054,41.655,27.882,5.194,9.218,10.286
1980,0.862,35.305,6.856,41.684,27.889,5.317,9.301,10.245
1981,0.853,34.889,6.888,41.636,27.878,5.194,9.136,10.122
1982,0.859,35.044,6.852,41.645,27.875,5.153,9.136,10.122
1983,0.869,35.141,6.923,41.636,27.871,5.07,9.177,10.04
1984,0.872,35.218,7.073,41.655,27.875,5.153,9.259,10.163
1985,0.889,35.024,6.994,41.665,27.882,5.194,9.301,10.122
1986,0.885,35.141,7.057,41.636,27.882,5.194,9.342,10.04
1987,0.895,35.247,6.892,41.636,27.875,5.276,9.424,10.081
1988,0.895,35.247,7.061,41.636,27.871,5.153,9.424,10.04
1989,0.889,34.879,6.959,41.626,27.864,5.03,9.382,9.876
1990,0.892,35.024,7.105,41.655,27.871,5.153,9.506,9.957
1991,0.895,35.15,6.868,41.626,27.878,5.112,9.547,9.957
1992,0.899,35.247,6.987,41.655,27.882,5.194,9.588,9.999
1993,0.892,35.121,6.994,41.665,27.878,5.194,9.711,10.122
1994,0.885,35.228,6.912,41.645,27.878,5.153,9.711,9.957
1995,0.899,35.325,7.081,41.655,27.885,5.153,9.67,9.957
1996,0.885,34.918,6.833,41.636,27.871,5.07,9.588,9.916
1997,0.892,34.986,7.006,41.674,27.875,5.235,9.752,10.04
1998,0.912,35.15,6.841,41.665,27.882,5.235,9.916,10.163
1999,0.902,35.199,7.018,41.645,27.878,5.112,9.793,10.04
2000,0.912,35.034,6.923,41.655,27.878,5.194,9.834,10.081
2001,0.915,35.16,7.014,41.645,27.868,5.153,9.793,10.122
2002,0.931,35.276,7.089,41.645,27.875,5.03,9.834,10.081
2003,0.931,35.364,6.884,41.655,27.878,5.194,9.916,10.204
2004,0.941,35.024,7.038,41.655,27.868,5.112,9.876,10.204
2005,0.954,35.17,6.951,41.684,27.882,5.153,9.957,10.286
2006,0.964,35.296,7.093,41.674,27.878,5.235,9.999,10.327
2007,0.961,35.344,6.833,41.665,27.875,5.07,9.876,10.286
2008,0.968,35.034,7.038,41.665,27.878,5.153,9.876,10.368
2009,0.974,35.16,6.872,41.636,27.871,5.03,9.711,10.286
2010,0.977,35.296,7.014,41.665,27.882,5.153,9.834,10.45
2011,0.991,35.364,6.923,41.694,27.892,5.235,9.916,10.574
2012,0.977,35.257,7.05,41.645,27.878,5.07,9.711,10.491
2013,0.977,35.393,6.904,41.665,27.871,5.112,9.629,10.574
2014,0.984,35.48,6.947,41.645,27.878,5.07,9.506,10.574
2015,0.991,35.509,7.042,41.645,27.868,4.988,9.424,10.574
2016,0.997,35.364,6.935,41.665,27.878,5.112,9.506,10.615
2017,0.991,35.499,7.038,41.665,27.871,5.03,9.465,10.697
2018,1.014,35.606,6.88,41.674,27.882,5.153,9.465,10.697
2019,1.01,35.47,7.034,41.684,27.871,5.112,9.424,10.697
2020,1.01,35.431,6.805,41.655,27.878,5.07,9.342,10.615
2021,1.033,35.577,6.971,41.665,27.878,5.07,9.382,10.656
2022,1.04,35.654,6.971,41.645,27.871,5.03,9.218,10.491
2023,1.066,35.47,6.99,41.674,27.882,5.07,9.342,10.615
2024,1.076,35.615,7.057,41.694,27.885,5.235,9.342,10.656
2025,1.066,35.712,6.963,41.684,27.882,5.07,9.259,10.697
2026,1.069,35.79,7.03,41.665,27.882,5.03,9.259,10.738
2027,1.076,35.635,6.916,41.636,27.875,4.988,9.177,10.615
2028,1.096,35.799,7.065,41.645,27.868,4.947,9.054,10.615
2029,1.106,35.916,6.872,41.655,27.882,5.07,9.218,10.574
2030,1.102,35.974,6.994,41.665,27.878,5.153,9.013,10.574
2031,1.099,35.916,6.892,41.694,27.885,5.07,9.136,10.656
2032,1.115,36.051,7.022,41.674,27.878,5.07,9.136,10.697
2033,1.106,36.148,6.801,41.655,27.871,5.03,9.095,10.574
2034,1.119,36.187,7.077,41.674,27.878,5.03,9.259,10.615
2035,1.122,36.051,6.876,41.674,27.875,5.07,9.136,10.45
2036,1.135,36.235,7.006,41.723,27.875,5.153,9.301,10.615
2037,1.155,36.351,7.022,41.703,27.889,5.153,9.424,10.697
2038,1.138,36.361,6.979,41.655,27.878,5.07,9.259,10.491
2039,1.148,36.41,7.077,41.684,27.882,5.07,9.301,10.532
2040,1.155,36.497,6.935,41.665,27.868,4.988,9.218,10.491
2041,1.175,36.613,7.065,41.694,27.878,5.07,9.259,10.45
2042,1.191,36.962,6.86,41.674,27.878,5.07,9.382,10.409
2043,1.184,36.632,7.022,41.665,27.878,5.153,9.259,10.45
2044,1.194,36.758,6.884,41.703,27.882,5.112,9.301,10.409
2045,1.204,36.826,7.077,41.674,27.875,5.07,9.382,10.409
2046,1.221,36.632,6.778,41.674,27.871,4.947,9.259,10.286
2047,1.234,36.71,6.979,41.674,27.882,5.112,9.382,10.286
2048,1.234,36.787,6.935,41.674,27.871,5.03,9.342,10.327
2049,1.26,36.894,6.955,41.703,27.878,5.07,9.465,10.368
2050,1.26,36.981,7.113,41.713,27.892,5.194,9.506,10.409
2051,1.253,37.097,6.975,41.684,27.875,5.112,9.301,10.327
2052,1.273,37.214,7.069,41.684,27.878,5.153,9.382,10.368
2053,1.257,37.262,6.908,41.694,27.871,4.988,9.259,10.286
2054,1.26,37.078,7.022,41.694,27.871,5.07,9.301,10.327
2055,1.273,37.223,6.888,41.703,27.885,5.112,9.465,10.409
2056,1.283,37.301,7.093,41.694,27.871,5.07,9.382,10.368
2057,1.283,37.368,6.845,41.723,27.885,5.153,9.506,10.45
2058,1.29,37.359,6.959,41.694,27.871,5.03,9.424,10.368
2059,1.293,37.485,7.046,41.665,27.868,4.947,9.424,10.286
2060,1.309,37.601,6.947,41.703,27.882,5.07,9.465,10.327
2061,1.319,37.63,7.121,41.674,27.875,5.07,9.506,10.286
2062,1.329,37.475,6.923,41.713,27.882,5.112,9.588,10.327
2063,1.336,37.601,7.105,41.732,27.892,5.153,9.629,10.409
2064,1.345,37.698,6.994,41.703,27.878,5.03,9.465,10.245
2065,1.359,37.737,6.927,41.703,27.882,5.07,9.506,10.245
2066,1.352,37.678,7.046,41.684,27.871,5.03,9.424,10.245
2067,1.365,37.804,6.998,41.723,27.878,5.07,9.342,10.163
2068,1.378,37.911,7.014,41.732,27.878,5.112,9.424,10.204
2069,1.375,37.921,6.872,41.771,27.878,4.988,9.382,10.122
2070,1.375,37.872,7.006,41.732,27.878,5.03,9.342,10.163
2071,1.372,37.959,6.829,41.703,27.878,5.03,9.259,10.245
2072,1.372,38.037,7.002,41.684,27.861,4.988,9.136,10.204
2073,1.382,38.008,6.994,41.713,27.878,5.03,9.136,10.491
2074,1.382,38.095,7.069,41.723,27.878,4.988,9.095,10.532
2075,1.385,38.24,6.908,41.723,27.885,5.07,9.177,10.656
2076,1.391,38.318,7.026,41.732,27.892,5.112,9.177,10.861
2077,1.382,38.124,6.92,41.723,27.878,5.03,9.013,10.902
2078,1.382,38.25,7.065,41.742,27.875,5.112,8.931,10.984
2079,1.378,38.347,7.022,41.723,27.875,4.947,8.89,10.943
2080,1.398,38.434,6.959,41.742,27.882,5.03,8.849,11.066
2081,1.418,38.201,6.971,41.781,27.892,5.153,8.89,11.149
2082,1.401,38.289,6.916,41.723,27.871,5.03,8.808,11.108
2083,1.424,38.395,7.014,41.742,27.875,5.07,8.808,11.189
2084,1.405,38.424,6.943,41.713,27.875,5.07,8.767,11.066
2085,1.405,38.356,7.03,41.723,27.871,4.988,8.602,10.984
2086,1.418,38.511,6.959,41.742,27.885,5.07,8.849,11.149
2087,1.418,38.608,7.038,41.742,27.878,5.07,8.849,11.025
2088,1.421,38.628,6.9,41.732,27.882,5.194,9.054,11.108
2089,1.421,38.579,7.089,41.771,27.882,5.194,9.136,11.189
2090,1.405,38.705,6.88,41.732,27.882,5.112,9.136,11.066
2091,1.391,38.802,6.99,41.742,27.875,5.112,9.301,11.108
2092,1.388,38.802,6.998,41.732,27.878,5.07,9.424,10.943
2093,1.391,38.463,6.888,41.742,27.882,5.194,9.67,11.066
2094,1.385,38.628,7.022,41.771,27.892,5.235,9.957,11.108
2095,1.368,38.657,6.935,41.732,27.875,5.112,9.916,10.902
2096,1.378,38.57,7.014,41.761,27.882,5.235,10.081,10.984
2097,1.352,38.599,6.841,41.732,27.878,5.07,10.04,10.902
2098,1.342,38.715,6.955,41.742,27.864,5.07,10.122,10.861
2099,1.339,38.802,6.864,41.771,27.882,5.194,10.286,10.82
2100,1.332,38.628,7.046,41.742,27.878,5.153,10.245,10.861
2101,1.332,38.773,6.912,41.781,27.882,5.194,10.368,10.943
2102,1.319,38.87,7.01,41.761,27.878,5.153,10.409,10.902
2103,1.313,38.918,6.979,41.761,27.885,5.153,10.368,10.779
2104,1.299,38.492,6.935,41.771,27.878,5.153,10.327,10.779
2105,1.293,38.608,7.057,41.752,27.875,5.03,10.163,10.656
2106,1.299,38.734,6.983,41.771,27.878,5.153,10.163,10.779
2107,1.286,38.821,7.046,41.8,27.889,5.276,10.245,10.82
2108,1.273,38.666,6.856,41.771,27.878,5.153,10.081,10.615
2109,1.273,38.802,7.034,41.761,27.875,5.235,10.081,10.697
2110,1.23,38.87,6.884,41.752,27.871,5.235,9.834,10.574
2111,1.214,38.918,7.077,41.742,27.871,5.07,9.711,10.532
2112,1.198,38.676,6.947,41.771,27.878,5.194,9.834,10.574
2113,1.178,38.802,7.061,41.761,27.878,5.153,9.752,10.532
2114,1.165,38.909,6.951,41.791,27.885,5.317,9.752,10.697
2115,1.168,38.918,6.935,41.761,27.875,5.194,9.67,10.656
2116,1.135,38.657,7.085,41.752,27.868,5.112,9.506,10.491
2117,1.119,38.821,6.987,41.781,27.878,5.194,9.506,10.615
2118,1.109,38.899,7.006,41.771,27.878,5.153,9.424,10.491
2119,1.102,38.957,6.931,41.897,27.889,5.276,9.465,10.532
2120,1.096,38.754,7.01,41.82,27.889,5.358,9.547,10.615
2121,1.083,38.821,6.872,41.781,27.875,5.112,9.259,10.409
2122,1.063,38.938,7.01,41.781,27.878,5.235,9.218,10.491
2123,1.056,38.608,6.904,41.771,27.864,5.07,9.136,10.409
2124,1.046,38.695,7.046,41.761,27.871,5.153,9.054,10.409
2125,1.033,38.821,6.923,41.8,27.882,5.276,9.095,10.45
2126,1.017,38.899,7.03,41.791,27.875,5.194,9.054,10.45
2127,1.017,38.415,6.912,41.791,27.885,5.317,9.095,10.368
2128,1.007,38.511,7.03,41.771,27.882,5.194,9.013,10.409
2129,0.977,38.599,7.038,41.771,27.871,5.112,8.931,10.245
2130,0.961,38.725,6.912,41.791,27.885,5.235,9.013,10.286
2131,0.951,38.599,6.959,41.791,27.878,5.194,9.013,10.286
2132,0.945,38.744,6.904,41.82,27.882,5.276,9.177,10.327
2133,0.941,38.879,7.057,41.839,27.885,5.44,9.301,10.409
2134,0.918,38.899,6.908,41.781,27.878,5.235,9.301,10.163
2135,0.889,38.531,7.014,41.8,27.885,5.194,9.301,10.163
2136,0.885,38.657,6.849,41.8,27.868,5.153,9.259,9.957
2137,0.876,38.773,6.975,41.839,27.878,5.194,9.259,10.081
2138,0.872,38.812,7.077,41.81,27.878,5.276,9.424,9.999
2139,0.853,38.55,7.014,41.8,27.882,5.194,9.342,9.999
2140,0.856,38.686,7.093,41.81,27.882,5.317,9.465,10.04
2141,0.839,38.763,6.939,41.791,27.875,5.235,9.424,9.999
2142,0.833,38.754,6.979,41.8,27.864,5.194,9.342,9.957
2143,0.836,38.395,6.837,41.81,27.878,5.276,9.424,10.081
2144,0.836,38.531,7.006,41.81,27.868,5.153,9.382,10.04
2145,0.833,38.647,6.92,41.839,27.885,5.235,9.424,10.122
2146,0.826,38.473,7.01,41.839,27.896,5.276,9.547,10.122
2147,0.823,38.405,6.86,41.81,27.878,5.194,9.424,10.04
2148,0.82,38.55,6.99,41.829,27.878,5.276,9.342,10.081
2149,0.8,38.618,6.852,41.81,27.871,5.153,9.301,9.957
2150,0.8,38.211,7.069,41.829,27.875,5.276,9.301,10.122
2151,0.807,38.337,6.99,41.858,27.885,5.358,9.382,10.204
2152,0.79,38.415,7.042,41.849,27.882,5.194,9.259,10.122
