time,ecg,bvp,gsr,rsp,skt,emg_zygo,emg_coru,emg_trap
0,0.774,35.469,28.876,33.07,27.609,4.702,6.221,6.795
1,0.764,35.547,29.176,33.079,27.602,4.66,6.22,6.714
2,0.764,35.241,29.226,33.079,27.598,4.7,6.18,6.632
3,0.767,35.391,29.094,33.089,27.608,4.66,6.179,6.712
4,0.754,35.527,29.268,33.089,27.605,4.7,6.22,6.672
5,0.744,35.605,28.989,33.098,27.605,4.701,6.22,6.713
6,0.747,35.308,29.224,33.098,27.608,4.742,6.18,6.713
7,0.731,35.468,29.246,33.108,27.612,4.742,6.22,6.713
8,0.741,35.623,29.063,33.108,27.612,4.701,6.22,6.713
9,0.744,35.635,29.244,33.108,27.609,4.782,6.22,6.754
10,0.747,35.481,29.067,33.098,27.612,4.742,6.22,6.714
11,0.751,35.633,29.311,33.098,27.598,4.62,6.261,6.632
12,0.748,35.769,29.079,33.098,27.608,4.659,6.139,6.59
13,0.76,35.943,29.28,33.118,27.605,4.7,6.179,6.671
14,0.761,35.513,29.106,33.118,27.612,4.782,6.342,6.672
15,0.757,35.662,29.19,33.108,27.615,4.864,6.303,6.794
16,0.754,35.788,29.273,33.137,27.615,4.824,6.343,6.877
17,0.764,35.444,29.118,33.137,27.612,4.783,6.303,6.918
18,0.757,35.431,29.311,33.127,27.615,4.783,6.18,6.919
19,0.767,35.585,28.911,33.127,27.612,4.783,6.261,7.041
20,0.757,35.701,29.169,33.137,27.612,4.742,6.262,7.164
21,0.757,35.607,29.21,33.137,27.612,4.783,6.262,7.328
22,0.741,35.73,29.172,33.127,27.609,4.742,6.262,7.451
23,0.744,35.895,29.347,33.127,27.612,4.823,6.262,7.615
24,0.747,36.021,29.111,33.127,27.609,4.743,6.302,7.739
25,0.747,35.591,29.28,33.156,27.622,4.823,6.221,7.862
26,0.731,35.711,29.04,33.156,27.619,4.987,6.302,8.148
27,0.728,35.866,29.209,33.147,27.619,4.866,6.343,8.232
28,0.734,35.915,29.242,33.156,27.609,4.784,6.221,8.314
29,0.718,35.801,29.164,33.137,27.605,4.742,6.22,8.315
30,0.724,35.972,29.327,33.127,27.605,4.742,6.139,8.315
31,0.741,36.098,29.001,33.118,27.605,4.742,6.098,8.356
32,0.741,36.167,29.154,33.137,27.602,4.742,6.219,8.437
33,0.731,35.784,28.98,33.137,27.608,4.742,6.139,8.479
34,0.741,35.933,29.251,33.118,27.608,4.742,6.179,8.601
35,0.751,36.079,29.266,33.166,27.608,4.742,6.179,8.521
36,0.748,36.128,29.122,33.147,27.605,4.783,6.139,8.52
37,0.744,35.927,29.307,33.137,27.612,4.742,6.219,8.601
38,0.721,36.069,29.024,33.137,27.612,4.783,6.22,8.562
39,0.698,36.195,29.252,33.118,27.605,4.742,6.18,8.643
40,0.705,36.244,29.043,33.137,27.598,4.661,6.057,8.521
41,0.695,35.976,29.272,33.137,27.605,4.741,6.056,8.642
42,0.708,36.146,29.332,33.166,27.608,4.742,6.178,8.684
43,0.715,36.263,29.161,33.166,27.615,4.783,6.22,8.807
44,0.698,36.341,29.28,33.166,27.615,4.864,6.18,8.808
45,0.701,36.188,29.071,33.166,27.619,4.824,6.22,8.848
46,0.714,36.359,29.194,33.176,27.612,4.661,6.18,8.849
47,0.711,36.467,28.949,33.166,27.605,4.782,6.22,8.727
48,0.705,36.055,29.189,33.166,27.612,4.824,6.139,8.766
49,0.715,36.09,29.293,33.166,27.612,4.824,6.138,8.807
50,0.724,36.224,29.11,33.166,27.609,4.743,6.138,8.767
51,0.721,36.331,29.202,33.224,27.608,4.823,6.138,8.645
52,0.715,36.246,29.016,33.176,27.612,4.824,6.138,8.725
53,0.721,36.389,29.252,33.195,27.615,4.824,6.179,8.685
54,0.721,36.534,29.039,33.214,27.612,4.865,6.139,8.562
55,0.715,36.612,29.244,33.205,27.626,4.906,6.26,8.643
56,0.711,36.22,29.055,33.186,27.612,4.906,6.221,8.644
57,0.711,36.35,29.162,33.166,27.619,4.825,6.139,8.562
58,0.698,36.495,29.257,33.166,27.612,4.783,6.098,8.439
59,0.698,36.573,29.102,33.157,27.602,4.742,6.056,8.438
60,0.705,36.44,29.323,33.166,27.598,4.661,6.056,8.357
61,0.689,36.573,29.118,33.166,27.601,4.782,5.975,8.275
62,0.695,36.728,29.28,33.166,27.605,4.742,6.015,8.274
63,0.695,36.806,29.028,33.224,27.605,4.783,6.056,8.233
64,0.695,36.222,29.131,33.205,27.608,4.742,5.975,8.314
65,0.695,36.369,29.315,33.195,27.608,4.742,6.015,8.193
66,0.705,36.534,29.071,33.205,27.612,4.783,6.056,8.192
67,0.695,36.583,29.256,33.205,27.612,4.742,6.097,8.151
68,0.688,36.44,29.125,33.205,27.612,4.783,6.056,8.232
69,0.685,36.573,29.19,33.176,27.598,4.742,6.056,8.233
70,0.701,36.718,29.179,33.166,27.595,4.661,5.934,8.07
71,0.711,36.767,29.117,33.204,27.601,4.7,5.974,8.109
72,0.698,36.499,29.253,33.205,27.615,4.823,6.096,8.069
73,0.708,36.641,29.094,33.224,27.615,4.905,6.138,8.191
74,0.711,36.757,29.229,33.243,27.615,4.825,6.138,8.11
75,0.708,36.653,29.024,33.215,27.612,4.905,6.219,8.191
76,0.695,36.546,29.189,33.215,27.615,4.865,6.18,8.192
77,0.698,36.679,29.253,33.215,27.615,4.824,6.057,8.11
78,0.698,36.805,29.067,33.224,27.609,4.865,6.097,8.15
79,0.695,36.385,29.268,33.224,27.608,4.784,6.097,8.15
80,0.698,36.438,29.059,33.224,27.612,4.783,6.138,8.15
81,0.688,36.573,29.233,33.224,27.605,4.783,6.138,8.15
82,0.695,36.689,29.312,33.224,27.608,4.783,6.098,8.15
83,0.705,36.547,29.067,33.253,27.622,4.905,6.219,8.313
84,0.695,36.679,29.272,33.263,27.626,4.906,6.261,8.356
85,0.701,36.796,29.063,33.244,27.619,4.784,6.18,8.356
86,0.685,36.893,29.205,33.224,27.602,4.824,6.179,8.315
87,0.692,36.443,29.25,33.224,27.598,4.743,6.098,8.274
88,0.708,36.573,29.117,33.205,27.605,4.742,6.056,8.274
89,0.724,36.718,29.249,33.214,27.602,4.701,6.056,8.193
90,0.731,36.806,29.039,33.234,27.605,4.782,6.137,8.192
91,0.754,36.462,29.213,33.224,27.602,4.783,6.098,8.273
92,0.748,36.602,29.125,33.215,27.608,4.783,6.056,8.233
93,0.744,36.747,29.222,33.234,27.608,4.783,6.097,8.151
94,0.751,36.816,29.238,33.243,27.602,4.783,6.138,8.232
95,0.751,36.519,29.098,33.244,27.612,4.783,6.138,8.273
96,0.741,36.641,29.295,33.224,27.609,4.783,6.138,8.193
97,0.751,36.776,28.997,33.234,27.602,4.742,6.057,8.11
98,0.764,36.854,29.22,33.224,27.601,4.742,6.015,8.028
99,0.764,36.606,29.066,33.234,27.612,4.701,6.015,8.109
100,0.761,36.757,29.244,33.263,27.615,4.742,6.178,8.069
101,0.761,36.873,29.012,33.263,27.615,4.823,6.139,8.109
102,0.78,36.903,29.154,33.272,27.612,4.824,6.179,8.109
103,0.787,36.597,29.273,33.273,27.615,4.865,6.179,8.069
104,0.784,36.747,29.075,33.263,27.612,4.784,6.179,7.987
105,0.777,36.844,29.256,33.263,27.612,4.824,6.179,8.027
106,0.78,36.654,29.024,33.263,27.612,4.783,6.139,7.987
107,0.797,36.546,29.236,33.272,27.615,4.783,6.219,7.986
108,0.797,36.689,29.32,33.244,27.612,4.783,6.139,7.946
109,0.797,36.825,29.095,33.272,27.609,4.783,6.179,7.823
110,0.829,36.49,29.249,33.273,27.605,4.783,6.139,7.863
111,0.83,36.602,29.086,33.292,27.619,4.742,6.26,7.822
112,0.826,36.728,29.299,33.292,27.619,4.945,6.262,7.944
113,0.813,36.796,29.091,33.263,27.619,4.907,6.262,7.945
114,0.826,36.49,29.229,33.272,27.609,4.825,6.221,7.742
115,0.826,36.602,29.27,33.263,27.605,4.743,6.139,7.74
116,0.82,36.728,29.125,33.253,27.605,4.661,6.138,7.618
117,0.839,36.844,29.257,33.253,27.602,4.66,6.057,7.576
118,0.82,36.433,29.02,33.244,27.615,4.7,6.137,7.535
119,0.826,36.592,29.275,33.272,27.609,4.701,6.179,7.494
120,0.817,36.718,29.102,33.282,27.612,4.701,6.139,7.534
121,0.816,36.806,29.178,33.292,27.598,4.701,6.219,7.534
122,0.823,36.442,29.175,33.292,27.608,4.742,6.22,7.494
123,0.826,36.592,29.062,33.282,27.608,4.742,6.22,7.453
124,0.82,36.709,29.303,33.273,27.608,4.742,6.18,7.371
125,0.807,36.758,29.059,33.34,27.605,4.701,6.139,7.37
126,0.813,36.499,29.24,33.273,27.598,4.66,6.098,7.248
127,0.816,36.669,29.059,33.292,27.605,4.741,6.056,7.288
128,0.826,36.825,29.244,33.321,27.608,4.783,6.219,7.369
129,0.836,36.864,29.043,33.321,27.615,4.783,6.261,7.37
130,0.83,36.596,29.217,33.311,27.612,4.783,6.221,7.37
131,0.846,36.728,29.312,33.311,27.619,4.864,6.261,7.37
132,0.84,36.854,29.173,33.302,27.612,4.865,6.221,7.37
133,0.839,37.114,29.261,33.302,27.612,4.865,6.18,7.33
134,0.849,36.455,29.02,33.311,27.612,4.784,6.22,7.37
135,0.843,36.583,29.279,33.321,27.605,4.783,6.139,7.33
136,0.833,36.689,29.008,33.302,27.608,4.824,6.098,7.289
137,0.83,36.537,29.22,33.302,27.608,4.783,6.219,7.329
138,0.846,36.516,29.262,33.292,27.612,4.742,6.18,7.329
139,0.862,36.698,29.219,33.34,27.612,4.864,6.139,7.41
140,0.833,36.806,29.265,33.34,27.619,4.946,6.26,7.493
141,0.813,36.481,29.012,33.36,27.616,4.825,6.262,7.575
142,0.807,36.544,29.248,33.312,27.612,4.824,6.18,7.535
143,0.81,36.689,28.996,33.292,27.602,4.783,6.139,7.453
144,0.8,36.777,29.228,33.302,27.608,4.702,6.098,7.452
145,0.807,36.375,29.262,33.302,27.605,4.66,6.016,7.452
146,0.803,36.515,29.129,33.292,27.602,4.741,6.015,7.452
147,0.813,36.65,29.307,33.302,27.605,4.742,6.056,7.452
148,0.813,36.767,29.063,33.34,27.608,4.661,6.056,7.574
149,0.826,36.528,29.256,33.34,27.612,4.741,6.056,7.535
150,0.817,36.679,29.051,33.331,27.609,4.783,6.056,7.534
151,0.82,36.796,29.229,33.331,27.615,4.783,6.097,7.534
152,0.82,36.883,29.301,33.34,27.605,4.783,6.056,7.534
153,0.813,36.357,29.161,33.36,27.615,4.742,6.097,7.575
154,0.813,36.505,29.234,33.331,27.612,4.701,6.056,7.494
155,0.8,36.612,29.152,33.302,27.598,4.742,5.975,7.494
156,0.82,36.709,29.288,33.33,27.601,4.742,5.974,7.412
157,0.833,36.556,29.024,33.34,27.608,4.742,6.015,7.411
158,0.82,36.708,29.306,33.34,27.612,4.823,6.137,7.533
159,0.807,36.825,29.028,33.36,27.612,4.905,6.138,7.534
160,0.79,36.874,29.131,33.36,27.615,4.906,6.179,7.575
161,0.797,36.529,29.226,33.369,27.615,4.865,6.057,7.535
162,0.784,36.67,29.121,33.35,27.612,4.824,6.137,7.534
163,0.797,36.777,29.304,33.35,27.609,4.824,6.179,7.534
164,0.8,37.056,29.063,33.35,27.605,4.783,6.139,7.494
165,0.79,36.57,29.244,33.35,27.612,4.783,6.057,7.453
166,0.78,36.708,29.024,33.36,27.605,4.824,6.097,7.493
167,0.813,36.825,29.182,33.36,27.605,4.783,6.097,7.534
168,0.807,36.548,29.214,33.369,27.615,4.783,6.056,7.372
169,0.833,36.545,29.102,33.398,27.622,4.905,6.097,7.492
170,0.813,36.689,29.303,33.389,27.619,4.906,6.138,7.575
171,0.826,36.767,29.083,33.36,27.609,4.947,6.179,7.454
172,0.817,37.382,29.252,33.35,27.612,4.825,6.179,7.412
173,0.81,37.56,29.215,33.369,27.605,4.743,6.017,7.33
174,0.803,37.668,29.148,33.35,27.602,4.701,6.015,7.289
175,0.807,37.745,29.304,33.36,27.605,4.742,6.056,7.247
176,0.816,35.809,29.048,33.369,27.605,4.783,6.015,7.166
177,0.813,35.914,29.268,33.36,27.605,4.702,5.974,7.124
178,0.807,36.098,29.067,33.369,27.605,4.742,6.055,7.165
179,0.8,36.167,29.194,33.36,27.612,4.742,6.097,7.084
180,0.787,36.522,29.25,33.36,27.612,4.701,6.016,7.164
181,0.78,36.67,29.051,33.379,27.612,4.782,6.056,7.124
182,0.78,36.796,29.256,33.36,27.609,4.742,6.097,7.165
183,0.787,36.845,29.067,33.35,27.602,4.701,5.975,7.043
184,0.793,36.424,29.166,33.369,27.605,4.701,6.015,7.042
185,0.8,36.592,29.249,33.369,27.605,4.742,6.056,6.96
186,0.8,36.718,29.203,33.379,27.615,4.945,6.097,7.041
187,0.79,36.777,29.218,33.408,27.609,4.744,6.138,7.082
188,0.803,36.471,29.043,33.399,27.612,4.864,6.179,7.083
189,0.826,36.631,29.283,33.408,27.612,4.824,6.179,7.042
190,0.826,36.757,29.063,33.408,27.612,4.824,6.179,7.042
191,0.823,36.777,29.221,33.399,27.612,4.865,6.179,7.001
192,0.826,36.49,29.266,33.398,27.615,4.824,6.139,7.001
193,0.833,36.631,29.11,33.389,27.612,4.783,6.179,6.96
194,0.83,36.747,29.288,33.389,27.609,4.824,6.179,7.0
195,0.83,36.816,29.028,33.379,27.605,4.743,6.139,6.879
196,0.83,36.557,29.244,33.427,27.615,4.783,6.138,6.918
197,0.817,36.699,29.141,33.437,27.622,4.864,6.301,7.0
198,0.82,36.777,29.218,33.408,27.619,4.906,6.262,7.041
199,0.8,36.471,29.242,33.399,27.609,4.825,6.18,6.92
200,0.787,36.477,29.047,33.389,27.605,4.702,6.098,6.837
201,0.8,36.612,29.236,33.398,27.602,4.66,6.056,6.877
202,0.826,36.747,29.164,33.389,27.608,4.7,6.097,6.837
203,0.82,36.451,29.206,33.389,27.602,4.742,6.016,6.755
204,0.8,36.592,29.289,33.389,27.612,4.701,6.056,6.795
205,0.79,36.737,29.079,33.379,27.602,4.742,6.137,6.714
206,0.787,36.825,29.311,33.389,27.608,4.823,6.057,6.754
207,0.797,36.452,29.005,33.408,27.608,4.743,6.137,6.795
208,0.803,36.621,29.193,33.408,27.605,4.823,6.219,6.795
209,0.787,36.719,29.285,33.408,27.608,4.743,6.18,6.836
210,0.793,36.796,29.153,33.36,27.598,4.742,6.098,6.755
211,0.806,36.394,29.257,33.388,27.595,4.661,6.056,6.673
212,0.803,36.582,28.977,33.398,27.605,4.7,6.015,6.672
213,0.82,36.728,29.232,33.427,27.615,4.782,6.178,6.835
214,0.813,36.806,29.039,33.427,27.609,4.824,6.22,6.837
215,0.833,36.423,29.104,33.437,27.615,4.865,6.139,6.837
216,0.826,36.601,29.237,33.428,27.619,4.824,6.301,6.796
217,0.839,36.718,29.195,33.418,27.619,4.824,6.221,6.836
218,0.826,36.748,29.281,33.427,27.612,4.783,6.18,6.755
219,0.813,36.413,29.032,33.408,27.615,4.783,6.179,6.714
220,0.826,36.553,29.271,33.418,27.609,4.702,6.179,6.713
221,0.82,36.68,29.079,33.427,27.612,4.701,6.179,6.754
222,0.826,36.7,29.303,33.427,27.609,4.742,6.139,6.714
223,0.83,36.537,29.325,33.437,27.605,4.823,6.179,6.754
224,0.839,36.699,29.122,33.456,27.622,4.865,6.22,6.673
225,0.823,36.815,29.311,33.466,27.619,4.906,6.302,6.835
226,0.823,36.682,28.993,33.418,27.612,4.865,6.221,6.796
227,0.823,36.518,29.244,33.427,27.602,4.743,6.22,6.755
228,0.813,36.65,29.032,33.418,27.605,4.742,6.18,6.673
229,0.816,36.767,29.26,33.437,27.608,4.661,6.139,6.591
230,0.823,36.442,29.293,33.418,27.602,4.741,6.057,6.549
231,0.836,36.515,29.04,33.418,27.598,4.701,6.097,6.549
232,0.843,36.67,29.252,33.427,27.608,4.742,6.097,6.549
233,0.846,36.786,29.008,33.427,27.608,4.701,6.097,6.549
234,0.84,36.327,29.228,33.437,27.608,4.742,6.138,6.59
235,0.839,36.485,29.215,33.437,27.605,4.783,6.138,6.549
236,0.836,36.612,29.168,33.428,27.615,4.824,6.098,6.59
237,0.817,36.671,29.265,33.408,27.598,4.783,6.097,6.549
238,0.829,36.364,29.149,33.408,27.601,4.661,6.056,6.508
239,0.833,36.515,29.257,33.418,27.595,4.7,6.056,6.427
240,0.83,36.66,29.086,33.456,27.612,4.782,6.137,6.507
241,0.836,36.767,29.311,33.447,27.615,4.824,6.138,6.589
242,0.823,36.394,29.06,33.456,27.615,4.865,6.179,6.671
243,0.82,36.553,29.147,33.476,27.612,4.784,6.139,6.591
244,0.826,36.689,29.273,33.457,27.612,4.742,6.26,6.549
245,0.817,36.729,29.2,33.466,27.612,4.823,6.18,6.549
246,0.813,36.384,29.304,33.457,27.609,4.783,6.179,6.468
247,0.813,36.534,29.024,33.457,27.615,4.783,6.139,6.507
248,0.833,36.651,29.303,33.457,27.612,4.742,6.138,6.508
249,0.836,36.709,29.095,33.447,27.612,4.783,6.179,6.508
250,0.843,36.365,29.171,33.476,27.615,4.783,6.139,6.508
251,0.849,36.515,29.238,33.495,27.622,4.824,6.26,6.549
252,0.846,36.641,29.137,33.505,27.623,4.946,6.262,6.671
253,0.836,36.632,29.284,33.486,27.616,4.907,6.262,6.591
254,0.823,36.46,28.969,33.457,27.615,4.784,6.099,6.509
255,0.817,36.611,29.2,33.466,27.612,4.702,6.097,6.508
256,0.82,36.718,29.187,33.457,27.605,4.742,6.097,6.427
257,0.823,36.518,29.132,33.457,27.605,4.701,6.097,6.426
258,0.846,36.401,29.253,33.476,27.602,4.701,6.056,6.344
259,0.836,36.553,29.075,33.466,27.601,4.701,6.056,6.384
260,0.83,36.651,29.28,33.466,27.612,4.742,6.056,6.425
261,0.817,36.22,29.055,33.466,27.609,4.742,6.137,6.426
262,0.816,36.302,29.221,33.476,27.608,4.823,6.098,6.466
263,0.829,36.476,29.211,33.495,27.608,4.783,6.097,6.467
264,0.817,36.554,29.211,33.457,27.612,4.824,6.097,6.589
265,0.79,36.296,29.289,33.476,27.605,4.702,6.178,6.509
266,0.797,36.447,29.087,33.438,27.598,4.62,6.017,6.386
267,0.816,36.621,29.264,33.485,27.601,4.7,6.015,6.385
268,0.823,36.709,29.086,33.486,27.605,4.701,6.096,6.425
269,0.833,36.25,29.233,33.495,27.612,4.782,6.138,6.426
270,0.83,36.398,29.262,33.534,27.612,4.824,6.138,6.507
271,0.836,36.553,29.118,33.505,27.619,4.824,6.098,6.508
272,0.846,36.603,29.307,33.505,27.612,4.783,6.219,6.549
273,0.836,36.287,29.075,33.486,27.609,4.783,6.139,6.427
274,0.852,36.466,29.182,33.514,27.602,4.783,6.219,6.466
275,0.833,36.612,29.019,33.515,27.601,4.783,6.261,6.467
276,0.83,36.651,29.228,33.505,27.612,4.783,6.262,6.507
277,0.849,36.144,29.238,33.514,27.609,4.783,6.221,6.467
278,0.84,36.292,29.121,33.505,27.608,4.742,6.22,6.426
279,0.833,36.447,29.292,33.505,27.608,4.783,6.139,6.507
280,0.839,36.496,29.145,33.534,27.612,4.864,6.179,6.467
281,0.83,36.353,29.292,33.524,27.622,4.946,6.301,6.589
282,0.833,36.486,29.009,33.524,27.616,4.825,6.262,6.671
283,0.826,36.593,29.166,33.505,27.615,4.824,6.221,6.55
284,0.813,36.613,29.273,33.486,27.602,4.702,6.22,6.427
285,0.81,36.22,29.137,33.495,27.605,4.701,6.139,6.385
286,0.823,36.388,29.272,33.505,27.602,4.701,6.098,6.385
287,0.823,36.505,29.161,33.495,27.605,4.701,6.178,6.425
288,0.81,36.391,29.331,33.514,27.608,4.742,6.139,6.385
289,0.807,36.361,29.025,33.505,27.602,4.742,6.219,6.507
290,0.82,36.515,29.232,33.514,27.612,4.742,6.22,6.508
291,0.826,36.622,29.25,33.515,27.609,4.742,6.18,6.549
292,0.817,36.22,29.133,33.515,27.608,4.783,6.22,6.59
293,0.807,36.264,29.315,33.505,27.612,4.742,6.22,6.671
294,0.81,36.399,29.173,33.505,27.605,4.742,6.261,6.631
295,0.816,36.505,29.265,33.495,27.598,4.742,6.099,6.712
296,0.829,36.669,29.075,33.514,27.601,4.661,6.178,6.754
297,0.82,36.844,29.147,33.543,27.612,4.741,6.261,6.876
298,0.817,36.98,29.003,33.534,27.609,4.823,6.302,6.959
299,0.82,37.067,29.256,33.563,27.615,4.824,6.343,7.041
300,0.8,35.889,29.356,33.534,27.615,4.824,6.303,7.123
301,0.777,36.049,29.103,33.534,27.612,4.783,6.302,7.205
302,0.78,36.185,29.206,33.553,27.615,4.824,6.221,7.206
303,0.79,36.283,28.984,33.553,27.619,4.783,6.261,7.206
304,0.8,49.411,29.259,33.544,27.616,4.742,6.302,7.206
305,0.794,49.515,29.274,33.544,27.619,4.823,6.343,7.287
306,0.784,49.515,29.141,33.553,27.616,4.824,6.303,7.329
307,0.793,49.447,29.312,33.572,27.612,4.783,6.343,7.37
308,0.797,30.652,29.091,33.525,27.612,4.783,6.262,7.289
309,0.807,30.798,29.182,33.572,27.612,4.783,6.302,7.288
310,0.803,31.041,29.015,33.573,27.622,4.864,6.302,7.329
311,0.813,31.168,29.24,33.563,27.623,4.906,6.384,7.451
312,0.807,38.217,29.324,33.573,27.612,4.865,6.344,7.412
313,0.794,38.394,29.216,33.534,27.605,4.743,6.221,7.371
314,0.797,38.501,29.297,33.544,27.605,4.742,6.139,7.33
315,0.79,38.636,29.059,33.524,27.598,4.661,6.179,7.248
316,0.8,35.224,29.252,33.534,27.608,4.7,6.22,7.206
317,0.8,35.371,29.157,33.553,27.602,4.701,6.22,7.206
318,0.81,35.498,29.163,33.553,27.601,4.742,6.18,7.247
319,0.8,36.247,29.32,33.534,27.605,4.742,6.301,7.206
320,0.784,36.523,29.099,33.553,27.608,4.783,6.262,7.287
321,0.787,36.689,29.256,33.572,27.605,4.783,6.262,7.247
322,0.793,36.786,28.938,33.563,27.612,4.661,6.262,7.206
323,0.787,35.963,29.181,33.553,27.615,4.7,6.343,7.206
324,0.787,36.012,29.328,33.544,27.602,4.66,6.181,7.125
325,0.79,36.195,29.099,33.553,27.598,4.66,6.179,7.165
326,0.803,36.312,29.268,33.563,27.598,4.7,6.22,7.043
327,0.807,36.341,29.047,33.582,27.608,4.782,6.302,7.204
328,0.807,36.495,29.123,33.582,27.615,4.783,6.262,7.165
329,0.79,36.65,29.265,33.592,27.612,4.742,6.343,7.246
330,0.79,36.719,29.067,33.592,27.612,4.783,6.343,7.247
331,0.803,36.048,29.299,33.592,27.609,4.783,6.303,7.288
332,0.803,36.176,29.141,33.573,27.608,4.783,6.343,7.247
333,0.794,36.331,29.272,33.582,27.608,4.742,6.303,7.206
334,0.797,36.409,29.047,33.592,27.602,4.783,6.343,7.206
335,0.797,36.141,29.279,33.582,27.608,4.742,6.262,7.125
336,0.797,36.282,29.157,33.582,27.612,4.701,6.302,7.165
337,0.81,36.475,29.214,33.592,27.612,4.742,6.221,7.124
338,0.803,36.516,29.328,33.621,27.622,4.905,6.342,7.205
339,0.79,36.238,29.22,33.611,27.612,4.865,6.384,7.287
340,0.777,36.331,29.246,33.602,27.612,4.784,6.344,7.207
341,0.771,36.466,29.125,33.65,27.605,4.783,6.262,7.125
342,0.777,36.496,29.265,33.573,27.608,4.661,6.262,7.043
343,0.761,36.247,29.086,33.553,27.608,4.7,6.139,7.042
344,0.761,36.389,29.276,33.572,27.602,4.66,6.179,6.96
345,0.774,36.534,29.063,33.573,27.601,4.7,6.098,7.0
346,0.764,36.699,29.166,33.573,27.605,4.701,6.178,6.96
347,0.767,36.202,29.296,33.592,27.612,4.742,6.22,6.96
348,0.764,36.36,29.032,33.611,27.605,4.742,6.18,6.96
349,0.767,36.476,29.232,33.592,27.608,4.742,6.179,6.96
350,0.767,36.199,29.195,33.602,27.605,4.742,6.179,7.041
351,0.787,36.206,29.222,33.592,27.612,4.742,6.22,7.042
352,0.787,36.331,29.273,33.592,27.605,4.742,6.22,7.042
353,0.78,36.438,29.137,33.582,27.605,4.701,6.22,6.96
354,0.784,36.228,29.272,33.592,27.602,4.66,6.098,7.082
355,0.784,36.341,29.09,33.592,27.605,4.7,6.178,7.123
356,0.777,36.505,29.256,33.64,27.608,4.782,6.301,7.165
357,0.79,36.602,29.071,33.612,27.612,4.783,6.302,7.368
358,0.797,36.21,29.233,33.621,27.612,4.783,6.302,7.411
359,0.8,36.34,29.285,33.621,27.619,4.742,6.262,7.615
360,0.79,36.495,29.036,33.631,27.619,4.823,6.302,7.698
361,0.774,36.583,29.26,33.631,27.616,4.824,6.302,7.78
362,0.8,36.21,29.024,33.612,27.609,4.743,6.262,7.984
363,0.777,36.36,29.287,33.631,27.612,4.783,6.262,8.068
364,0.774,36.495,29.215,33.631,27.612,4.783,6.262,8.15
365,0.764,36.583,29.102,33.621,27.605,4.824,6.262,8.273
366,0.774,36.191,29.315,33.631,27.619,4.783,6.302,8.274
367,0.777,36.359,29.036,33.65,27.612,4.742,6.343,8.274
368,0.777,36.515,29.271,33.66,27.619,4.864,6.303,8.558
369,0.784,36.545,29.09,33.641,27.616,4.946,6.425,8.683
370,0.793,36.094,29.225,33.64,27.609,4.825,6.344,8.684
371,0.79,36.224,29.328,33.631,27.612,4.743,6.262,8.684
372,0.777,36.341,29.11,33.631,27.609,4.742,6.18,8.603
373,0.784,36.39,29.245,33.612,27.598,4.701,6.139,8.48
374,0.774,36.246,29.008,33.611,27.601,4.742,6.138,8.642
375,0.774,36.418,29.22,33.621,27.601,4.661,6.138,8.562
376,0.774,36.544,28.992,33.64,27.608,4.7,6.138,8.602
377,0.78,36.468,29.205,33.65,27.605,4.782,6.219,8.521
378,0.784,36.122,29.328,33.631,27.608,4.702,6.261,8.561
379,0.78,36.292,29.107,33.64,27.608,4.742,6.221,8.521
380,0.761,36.428,29.272,33.64,27.612,4.742,6.261,8.52
381,0.748,36.151,29.028,33.64,27.615,4.742,6.262,8.52
382,0.76,36.196,29.236,33.631,27.598,4.701,6.221,8.52
383,0.774,36.35,29.094,33.631,27.605,4.701,6.139,8.358
384,0.767,36.476,29.237,33.679,27.605,4.701,6.219,8.275
385,0.78,36.036,29.273,33.65,27.608,4.742,6.139,8.355
386,0.777,36.166,29.219,33.669,27.619,4.823,6.301,8.437
387,0.784,36.321,29.25,33.698,27.612,4.865,6.425,8.438
388,0.78,36.399,29.047,33.679,27.619,4.702,6.344,8.438
389,0.787,36.122,29.275,33.679,27.612,4.782,6.262,8.397
390,0.79,36.272,29.055,33.679,27.612,4.742,6.302,8.356
391,0.797,36.408,29.279,33.66,27.612,4.823,6.302,8.275
392,0.79,36.477,29.266,33.669,27.612,4.743,6.262,8.274
393,0.784,36.094,29.102,33.669,27.602,4.742,6.262,8.274
394,0.784,36.253,29.307,33.669,27.612,4.783,6.302,8.233
395,0.787,36.379,29.052,33.679,27.605,4.824,6.343,8.273
396,0.787,36.476,29.283,33.689,27.612,4.783,6.262,8.193
397,0.79,36.18,29.102,33.708,27.619,4.824,6.343,8.273
398,0.793,36.321,29.268,33.699,27.619,4.905,6.384,8.274
399,0.78,36.437,29.071,33.746,27.612,4.825,6.385,8.233
400,0.761,36.487,29.139,33.67,27.609,4.783,6.344,8.233
401,0.761,36.046,29.272,33.66,27.602,4.742,6.303,8.111
402,0.767,36.185,29.133,33.679,27.608,4.742,6.221,7.987
403,0.77,36.321,29.339,33.67,27.598,4.661,6.22,8.027
404,0.774,36.361,29.06,33.669,27.601,4.7,6.261,7.946
405,0.767,36.131,29.272,33.679,27.605,4.701,6.302,7.945
406,0.774,36.282,29.122,33.689,27.608,4.823,6.302,7.905
407,0.784,36.399,29.186,33.698,27.605,4.743,6.302,7.904
408,0.787,36.294,29.285,33.679,27.615,4.783,6.302,7.945
409,0.784,36.169,29.184,33.698,27.605,4.742,6.343,7.905
410,0.771,36.283,29.3,33.679,27.608,4.701,6.343,7.782
411,0.78,36.399,29.009,33.67,27.602,4.701,6.384,7.822
412,0.767,35.988,29.205,33.717,27.598,4.66,6.181,7.7
413,0.774,36.022,29.043,33.699,27.601,4.7,6.22,7.658
414,0.777,36.176,29.279,33.689,27.612,4.742,6.261,7.739
415,0.8,36.292,29.297,33.708,27.612,4.783,6.343,7.699
416,0.807,36.111,29.134,33.718,27.609,4.824,6.384,7.699
417,0.813,36.224,29.358,33.718,27.612,4.783,6.385,7.74
418,0.82,36.379,29.048,33.708,27.609,4.824,6.385,7.618
419,0.839,36.486,29.272,33.727,27.619,4.783,6.425,7.657
420,0.836,36.094,29.059,33.708,27.605,4.824,6.466,7.698
421,0.846,36.253,29.295,33.708,27.612,4.743,6.345,7.699
422,0.836,36.37,29.243,33.708,27.605,4.742,6.343,7.536
423,0.846,36.438,29.133,33.699,27.612,4.742,6.425,7.575
424,0.84,35.988,29.288,33.689,27.609,4.783,6.344,7.535
425,0.843,36.146,29.094,33.718,27.605,4.742,6.343,7.534
426,0.853,36.311,29.245,33.756,27.612,4.823,6.384,7.534
427,0.853,36.389,29.012,33.766,27.622,4.865,6.466,7.616
428,0.862,36.055,29.259,33.747,27.626,4.865,6.507,7.617
429,0.875,36.195,29.332,33.718,27.609,4.824,6.467,7.535
430,0.866,36.34,29.107,33.708,27.608,4.743,6.304,7.575
431,0.869,36.361,29.241,33.737,27.608,4.742,6.302,7.413
432,0.879,36.064,29.039,33.708,27.602,4.701,6.262,7.33
433,0.859,36.224,29.295,33.699,27.601,4.701,6.302,7.289
434,0.866,36.331,29.04,33.708,27.605,4.742,6.302,7.369
435,0.856,36.37,29.252,33.737,27.608,4.701,6.343,7.289
436,0.846,36.016,29.289,33.718,27.605,4.701,6.303,7.369
437,0.853,36.156,29.153,33.727,27.605,4.742,6.302,7.411
438,0.856,36.282,29.28,33.718,27.608,4.701,6.343,7.33
439,0.856,36.121,28.997,33.747,27.612,4.742,6.303,7.329
440,0.833,36.033,29.244,33.728,27.605,4.742,6.221,7.37
441,0.836,36.166,29.305,33.708,27.602,4.742,6.302,7.411
442,0.856,36.283,29.118,33.708,27.598,4.661,6.099,7.33
443,0.879,36.025,29.245,33.747,27.608,4.741,6.26,7.329
444,0.876,36.118,29.164,33.756,27.612,4.783,6.302,7.37
445,0.859,36.253,29.292,33.747,27.612,4.824,6.343,7.492
446,0.866,36.37,29.032,33.756,27.612,4.783,6.384,7.453
447,0.869,35.939,29.252,33.757,27.612,4.783,6.344,7.493
448,0.869,36.079,29.106,33.757,27.612,4.783,6.221,7.534
449,0.853,36.215,29.186,33.747,27.609,4.742,6.383,7.453
450,0.866,36.321,29.289,33.756,27.605,4.742,6.344,7.452
451,0.892,35.92,29.126,33.747,27.612,4.823,6.343,7.412
452,0.892,36.069,29.311,33.766,27.612,4.865,6.343,7.411
453,0.886,36.205,29.126,33.766,27.605,4.824,6.262,7.411
454,0.898,36.283,29.265,33.757,27.608,4.783,6.302,7.452
455,0.905,35.967,29.2,33.766,27.605,4.824,6.262,7.33
456,0.912,36.108,29.265,33.766,27.626,4.824,6.343,7.41
457,0.899,36.224,29.262,33.776,27.619,4.905,6.343,7.452
458,0.876,36.283,29.071,33.747,27.609,4.825,6.303,7.371
459,0.869,36.006,29.311,33.737,27.602,4.702,6.302,7.33
460,0.866,36.147,29.095,33.756,27.601,4.701,6.18,7.207
461,0.862,36.282,29.241,33.747,27.605,4.701,6.139,7.247
462,0.862,36.322,29.215,33.756,27.602,4.742,6.179,7.166
463,0.843,35.891,29.055,33.766,27.601,4.661,6.179,7.165
464,0.836,36.021,29.287,33.738,27.605,4.741,6.179,7.206
465,0.833,36.166,29.04,33.756,27.605,4.742,6.098,7.125
466,0.836,36.398,29.271,33.757,27.612,4.823,6.219,7.124
467,0.83,35.959,29.063,33.785,27.605,4.783,6.139,7.165
468,0.833,36.089,29.272,33.766,27.608,4.742,6.179,7.165
469,0.846,36.195,28.993,33.766,27.608,4.823,6.22,7.084
470,0.849,35.966,29.142,33.747,27.602,4.743,6.058,7.002
471,0.843,35.945,29.296,33.756,27.608,4.742,6.056,6.96
472,0.846,36.108,29.11,33.776,27.608,4.661,6.137,6.96
473,0.866,36.215,29.315,33.786,27.608,4.741,6.179,7.0
474,0.856,35.899,29.04,33.795,27.612,4.823,6.22,7.041
475,0.846,36.011,29.236,33.814,27.615,4.824,6.18,7.123
476,0.849,36.137,29.324,33.786,27.615,4.824,6.179,7.124
477,0.849,36.253,29.114,33.805,27.609,4.824,6.179,7.124
478,0.843,35.871,29.284,33.786,27.608,4.865,6.179,7.124
479,0.83,35.982,29.102,33.786,27.612,4.743,6.22,7.287
480,0.836,36.137,29.315,33.786,27.605,4.823,6.18,7.288
481,0.83,36.225,29.091,33.795,27.605,4.824,6.22,7.369
482,0.836,35.861,29.104,33.824,27.615,4.824,6.22,7.33
483,0.843,36.068,29.233,33.796,27.605,4.743,6.22,7.41
484,0.849,36.186,29.242,33.814,27.619,4.823,6.261,7.411
485,0.836,36.273,29.324,33.805,27.622,4.905,6.262,7.574
486,0.813,35.881,29.13,33.795,27.605,4.865,6.262,7.657
487,0.8,35.992,29.335,33.786,27.612,4.824,6.221,7.617
488,0.797,36.108,29.072,33.795,27.602,4.743,6.098,7.535
489,0.8,36.186,29.248,33.786,27.601,4.661,6.056,7.494
490,0.8,35.899,29.008,33.786,27.601,4.782,6.137,7.494
491,0.82,36.03,29.287,33.786,27.601,4.742,6.098,7.494
492,0.82,36.147,29.137,33.786,27.605,4.661,6.138,7.453
493,0.833,36.206,29.175,33.786,27.608,4.7,6.179,7.574
494,0.813,35.794,29.285,33.795,27.602,4.782,6.22,7.535
495,0.81,35.934,29.165,33.795,27.601,4.742,6.18,7.534
496,0.794,36.069,29.288,33.814,27.612,4.742,6.22,7.616
497,0.777,36.368,29.055,33.805,27.605,4.783,6.18,7.535
498,0.754,35.853,29.26,33.767,27.605,4.661,6.179,7.534
499,0.761,35.982,29.137,33.776,27.602,4.619,6.098,7.453
500,0.751,36.118,29.222,33.805,27.605,4.741,6.178,7.412
501,0.744,35.908,29.226,33.824,27.605,4.742,6.261,7.533
502,0.731,35.954,29.086,33.834,27.612,4.823,6.302,7.534
503,0.747,36.089,29.26,33.824,27.609,4.783,6.302,7.575
504,0.741,36.176,29.071,33.805,27.608,4.742,6.302,7.575
505,0.728,35.832,29.252,33.824,27.612,4.783,6.302,7.535
506,0.738,35.896,29.258,33.815,27.609,4.824,6.343,7.453
507,0.738,36.05,29.25,33.815,27.608,4.702,6.303,7.534
508,0.741,36.138,29.219,33.815,27.605,4.701,6.262,7.494
509,0.747,35.774,29.148,33.824,27.612,4.742,6.302,7.412
510,0.754,35.914,29.288,33.824,27.609,4.742,6.302,7.452
511,0.761,36.059,29.106,33.834,27.612,4.783,6.302,7.412
512,0.751,36.147,29.311,33.844,27.622,4.864,6.384,7.493
513,0.754,35.812,29.087,33.834,27.619,4.824,6.425,7.453
514,0.751,35.972,29.256,33.824,27.612,4.865,6.385,7.493
515,0.748,36.098,29.028,33.824,27.602,4.702,6.263,7.371
516,0.751,36.167,29.146,33.824,27.598,4.701,6.302,7.289
517,0.761,35.669,29.237,33.796,27.598,4.66,6.343,7.207
518,0.744,35.827,29.141,33.805,27.605,4.7,6.303,7.206
519,0.751,35.953,29.323,33.815,27.598,4.701,6.343,7.165
520,0.744,36.021,29.075,33.815,27.605,4.742,6.303,7.206
521,0.741,35.792,29.284,33.872,27.598,4.742,6.343,7.206
522,0.757,35.943,29.036,33.815,27.601,4.701,6.303,7.247
523,0.764,36.069,29.244,33.843,27.605,4.782,6.384,7.206
524,0.757,36.099,29.024,33.825,27.605,4.742,6.385,7.287
525,0.77,35.745,29.213,33.796,27.605,4.701,6.344,7.247
526,0.783,35.914,29.269,33.805,27.598,4.579,6.262,7.125
527,0.803,36.05,29.157,33.815,27.601,4.7,6.302,7.165
528,0.823,36.138,29.288,33.843,27.608,4.66,6.384,7.206
529,0.872,35.899,29.055,33.853,27.612,4.741,6.425,7.247
530,0.885,36.069,29.299,33.844,27.612,4.783,6.466,7.206
531,0.921,36.166,29.149,33.853,27.612,4.742,6.426,7.287
532,0.944,35.784,29.214,33.844,27.612,4.783,6.385,7.207
533,1.01,35.818,29.265,33.863,27.612,4.702,6.344,7.165
534,1.036,35.953,29.059,33.853,27.609,4.782,6.425,7.165
535,1.095,36.06,29.283,33.853,27.608,4.702,6.507,7.165
536,1.145,35.696,29.032,33.853,27.605,4.782,6.467,7.165
537,1.21,35.798,29.244,33.834,27.608,4.702,6.426,7.043
538,1.253,35.972,29.336,33.844,27.612,4.782,6.426,7.123
539,1.312,36.079,29.181,33.872,27.619,4.824,6.507,7.083
540,1.374,35.773,29.3,33.882,27.622,4.824,6.508,7.123
541,1.421,35.895,29.098,33.863,27.612,4.783,6.589,7.124
542,1.489,36.04,29.284,33.844,27.612,4.742,6.468,7.043
543,1.555,36.099,29.055,33.825,27.609,4.742,6.386,6.96
544,1.624,35.62,29.236,33.901,27.608,4.701,6.303,6.919
545,1.673,35.778,29.266,33.835,27.602,4.66,6.343,6.796
546,1.752,35.914,29.161,33.834,27.598,4.7,6.343,6.877
547,1.834,36.011,29.265,33.863,27.615,4.742,6.343,6.877
548,1.89,35.782,29.059,33.863,27.605,4.701,6.303,6.877
549,1.93,35.943,29.279,33.844,27.608,4.742,6.343,6.959
550,1.969,36.05,29.102,33.872,27.605,4.742,6.303,6.96
551,2.022,36.109,29.303,33.863,27.608,4.783,6.343,6.96
552,2.071,35.726,29.04,33.844,27.605,4.702,6.343,7.0
553,2.104,35.856,29.201,33.863,27.602,4.66,6.343,7.001
554,2.127,35.982,29.172,33.834,27.598,4.66,6.262,7.082
555,2.118,36.003,29.191,33.853,27.601,4.619,6.221,7.002
556,2.14,35.753,29.16,33.863,27.608,4.7,6.302,7.082
557,2.128,35.895,29.226,33.873,27.612,4.782,6.343,7.123
558,2.095,36.03,29.32,33.882,27.615,4.824,6.343,7.205
559,2.059,35.984,29.024,33.902,27.615,4.824,6.303,7.247
560,2.032,35.83,29.263,33.863,27.612,4.824,6.425,7.288
561,1.974,35.982,29.024,33.873,27.609,4.743,6.304,7.247
562,1.905,36.089,29.303,33.882,27.608,4.823,6.343,7.288
563,1.81,35.754,29.138,33.873,27.612,4.743,6.343,7.288
564,1.695,35.799,29.28,33.873,27.615,4.783,6.303,7.329
565,1.573,35.953,29.032,33.873,27.609,4.702,6.262,7.41
566,1.426,36.06,29.228,33.863,27.615,4.782,6.302,7.411
567,1.33,35.687,29.309,33.94,27.605,4.661,6.384,7.533
568,1.215,35.837,29.122,33.893,27.608,4.741,6.344,7.697
569,1.081,35.982,29.323,33.902,27.619,4.864,6.384,7.821
570,0.92,36.06,29.107,33.902,27.616,4.865,6.385,8.107
571,0.788,35.687,29.292,33.902,27.612,4.824,6.385,8.354
572,0.673,35.827,28.993,33.883,27.609,4.743,6.303,8.641
573,0.548,35.963,29.228,33.873,27.605,4.62,6.221,8.887
574,0.443,36.05,29.34,33.854,27.602,4.7,6.22,9.296
575,0.357,35.668,29.153,33.863,27.595,4.66,6.18,9.748
576,0.298,35.827,29.288,33.882,27.598,4.7,6.22,10.199
577,0.229,35.953,29.083,33.873,27.605,4.742,6.18,10.773
578,0.18,36.031,29.284,33.882,27.608,4.701,6.342,11.389
579,0.14,35.581,28.899,33.882,27.612,4.66,6.262,11.801
580,0.088,35.73,29.145,33.882,27.609,4.66,6.262,12.334
581,0.055,35.875,29.284,33.902,27.612,4.741,6.262,12.705
582,0.028,35.877,29.083,33.873,27.602,4.661,6.302,12.953
583,0.038,35.714,29.291,33.863,27.598,4.66,6.221,13.24
584,0.067,35.894,29.036,33.882,27.595,4.66,6.139,13.324
585,0.09,36.03,29.225,33.873,27.601,4.7,6.219,13.447
586,0.123,36.041,29.308,33.901,27.612,4.701,6.302,13.57
587,0.149,35.581,29.192,33.959,27.612,4.782,6.302,13.694
588,0.185,35.759,29.296,33.912,27.615,4.742,6.343,13.776
589,0.228,35.847,29.11,33.902,27.612,4.823,6.343,13.655
590,0.261,35.838,29.335,33.911,27.612,4.743,6.262,13.654
591,0.32,35.829,29.021,33.911,27.605,4.742,6.302,13.654
592,0.372,35.991,29.158,33.902,27.612,4.701,6.343,13.694
593,0.402,36.089,29.253,33.902,27.609,4.823,6.221,13.857
594,0.425,35.524,29.215,33.902,27.608,4.702,6.261,14.022
595,0.458,35.586,29.273,33.902,27.608,4.742,6.262,14.105
596,0.504,35.768,29.079,33.921,27.612,4.742,6.221,14.39
597,0.524,35.857,29.319,33.931,27.619,4.742,6.342,14.799
598,0.55,35.647,29.048,33.921,27.619,4.823,6.384,15.129
599,0.589,35.769,29.252,33.921,27.619,4.824,6.425,15.498
600,0.577,35.895,29.258,33.911,27.612,4.824,6.304,15.624
601,0.586,35.973,29.121,33.902,27.602,4.661,6.18,15.869
602,0.6,35.542,29.331,33.902,27.601,4.66,6.261,15.993
603,0.609,35.672,29.138,33.892,27.601,4.7,6.221,16.157
604,0.632,35.827,29.276,33.902,27.605,4.66,6.18,16.2
605,0.658,35.905,29.133,33.883,27.605,4.66,6.22,16.281
606,0.662,35.58,29.296,33.902,27.605,4.7,6.261,16.201
607,0.662,35.768,29.044,33.93,27.605,4.742,6.302,16.119
608,0.682,35.885,29.244,33.95,27.608,4.701,6.302,16.036
609,0.695,35.963,29.297,33.941,27.608,4.782,6.262,15.914
610,0.695,35.571,29.208,33.912,27.605,4.783,6.302,15.668
611,0.695,35.73,29.273,33.911,27.595,4.742,6.221,15.463
612,0.708,35.866,28.981,33.902,27.601,4.701,6.18,15.176
613,0.724,35.944,29.275,33.911,27.598,4.66,6.179,14.848
614,0.718,35.715,29.079,33.921,27.608,4.7,6.261,14.723
615,0.711,35.866,29.272,33.959,27.602,4.782,6.262,14.518
616,0.702,36.001,29.028,33.931,27.615,4.783,6.262,14.313
617,0.708,36.012,29.295,33.95,27.612,4.742,6.302,14.067
618,0.708,35.591,29.208,33.931,27.609,4.742,6.302,13.861
619,0.715,35.749,29.187,33.931,27.605,4.823,6.302,13.574
620,0.721,35.866,29.265,33.94,27.612,4.783,6.302,13.287
621,0.718,35.666,29.11,33.931,27.602,4.742,6.302,13.121
622,0.724,35.645,29.319,33.921,27.612,4.783,6.221,12.917
623,0.715,35.779,29.067,33.94,27.612,4.661,6.302,12.67
624,0.728,35.914,29.178,33.95,27.612,4.782,6.262,12.505
625,0.731,35.513,29.328,33.95,27.605,4.742,6.302,12.219
626,0.741,35.595,29.06,33.969,27.619,4.864,6.384,12.135
627,0.734,35.759,29.26,33.989,27.626,4.946,6.344,12.012
628,0.728,35.828,29.059,33.951,27.616,4.866,6.343,11.767
629,0.721,35.656,29.244,33.941,27.605,4.743,6.221,11.521
630,0.731,35.807,29.297,33.931,27.602,4.701,6.139,11.274
631,0.734,35.943,29.079,33.921,27.608,4.66,6.138,11.15
632,0.738,36.041,29.276,33.931,27.598,4.66,6.138,10.986
633,0.728,35.505,29.024,33.94,27.605,4.741,6.179,10.862
634,0.744,35.643,29.279,33.95,27.608,4.701,6.139,10.739
635,0.744,35.807,29.18,33.941,27.608,4.742,6.219,10.738
636,0.741,35.867,29.207,33.96,27.602,4.742,6.22,10.657
637,0.747,35.627,29.312,33.941,27.608,4.783,6.18,10.574
638,0.731,35.798,29.067,33.969,27.608,4.783,6.22,10.451
639,0.728,35.905,29.26,33.941,27.605,4.742,6.139,10.369
640,0.721,35.983,29.059,33.931,27.595,4.661,6.057,10.206
641,0.731,35.427,29.283,33.95,27.601,4.741,6.056,10.123
642,0.747,35.604,29.348,33.96,27.608,4.783,6.178,10.081
643,0.741,35.74,29.126,33.979,27.615,4.783,6.22,10.081
644,0.728,35.799,29.288,33.979,27.612,4.864,6.302,10.081
645,0.744,35.56,29.102,33.96,27.609,4.784,6.262,9.999
646,0.754,35.73,29.249,34.046,27.608,4.783,6.221,9.917
647,0.757,35.837,29.172,33.98,27.615,4.824,6.261,9.835
648,0.751,36.231,29.218,33.979,27.609,4.743,6.221,9.794
649,0.748,35.622,29.305,33.989,27.612,4.742,6.18,9.712
650,0.754,35.798,29.052,33.97,27.605,4.742,6.22,9.67
651,0.764,35.886,29.256,34.037,27.605,4.701,6.261,9.629
652,0.761,35.57,29.055,33.97,27.612,4.823,6.221,9.507
653,0.764,35.577,29.264,33.979,27.612,4.783,6.139,9.465
654,0.754,35.72,29.309,34.008,27.612,4.824,6.219,9.465
655,0.754,35.847,29.173,34.008,27.615,4.905,6.342,9.546
656,0.738,35.455,29.335,33.979,27.612,4.784,6.343,9.425
657,0.734,35.547,29.083,33.96,27.605,4.783,6.262,9.261
658,0.744,35.701,29.256,33.96,27.605,4.661,6.18,9.178
659,0.747,35.798,29.028,33.95,27.598,4.741,6.098,9.015
660,0.741,35.521,29.248,33.96,27.605,4.661,6.219,8.972
661,0.754,35.653,29.324,33.96,27.602,4.7,6.18,8.891
662,0.748,35.779,29.161,33.979,27.601,4.66,6.22,8.89
663,0.744,35.885,29.304,33.96,27.605,4.741,6.18,8.768
664,0.741,35.541,29.075,33.969,27.605,4.701,6.261,8.767
665,0.738,35.682,29.307,33.96,27.612,4.823,6.221,8.604
666,0.751,35.837,29.091,33.95,27.602,4.702,6.22,8.602
667,0.744,35.915,29.194,33.979,27.612,4.782,6.22,8.643
668,0.741,35.503,29.32,33.95,27.612,4.742,6.22,8.562
669,0.76,35.672,29.075,33.931,27.598,4.62,6.139,8.439
670,0.761,35.817,29.186,33.96,27.601,4.659,6.219,8.275
671,0.767,35.895,29.023,33.979,27.601,4.741,6.22,8.314
672,0.767,35.561,29.228,33.979,27.612,4.742,6.261,8.356
673,0.748,35.711,27.146,33.989,27.605,4.823,6.302,8.315
674,0.77,35.827,28.144,33.979,27.605,4.824,6.262,8.315
675,0.764,35.886,28.654,33.989,27.612,4.824,6.343,8.234
676,0.761,35.503,29.182,33.979,27.609,4.824,6.343,8.233
677,0.774,35.643,29.23,33.979,27.612,4.783,6.303,8.151
678,0.761,35.779,29.211,33.97,27.609,4.742,6.262,8.028
679,0.761,35.876,29.293,33.979,27.605,4.823,6.262,8.068
680,0.764,35.436,29.173,33.979,27.605,4.702,6.262,7.987
681,0.761,35.594,29.343,33.97,27.608,4.782,6.262,8.027
682,0.764,35.701,29.017,33.979,27.608,4.702,6.221,7.946
683,0.774,35.568,29.209,33.998,27.622,4.904,6.302,7.905
684,0.767,35.624,29.273,33.999,27.619,4.947,6.384,7.985
685,0.757,35.721,29.145,33.989,27.616,4.907,6.425,7.946
686,0.757,35.837,29.292,33.97,27.609,4.784,6.344,7.905
687,0.757,35.455,29.063,33.95,27.602,4.742,6.262,7.742
688,0.754,35.556,29.299,33.96,27.595,4.701,6.18,7.659
689,0.761,35.701,29.102,33.95,27.598,4.701,6.22,7.536
690,0.767,35.818,29.159,33.988,27.601,4.701,6.22,7.575
691,0.767,35.454,29.28,33.96,27.601,4.742,6.22,7.616
692,0.764,35.604,29.122,33.979,27.605,4.661,6.18,7.495
693,0.77,35.74,29.323,33.96,27.602,4.7,6.301,7.534
694,0.751,35.828,28.993,33.989,27.601,4.782,6.262,7.494
695,0.774,35.387,29.224,33.979,27.608,4.702,6.262,7.534
696,0.758,35.508,29.336,33.97,27.605,4.742,6.262,7.494
697,0.748,35.633,29.114,33.95,27.598,4.701,6.221,7.453
698,0.741,35.731,29.272,33.941,27.601,4.62,6.139,7.29
699,0.76,35.453,29.079,33.96,27.605,4.741,6.219,7.288
700,0.757,35.623,29.323,33.979,27.612,4.742,6.302,7.329
701,0.754,35.759,29.095,33.989,27.615,4.783,6.302,7.37
702,0.761,35.818,29.241,33.989,27.615,4.824,6.262,7.289
703,0.761,35.521,29.078,33.979,27.612,4.865,6.302,7.329
704,0.748,35.672,29.213,33.989,27.612,4.824,6.302,7.329
705,0.76,35.789,29.285,33.989,27.612,4.783,6.302,7.289
706,0.761,35.838,29.153,33.979,27.612,4.783,6.262,7.247
707,0.761,35.56,29.319,33.979,27.605,4.661,6.302,7.206
708,0.767,35.701,29.095,33.979,27.608,4.782,6.302,7.206
709,0.774,35.818,29.229,33.998,27.608,4.783,6.262,7.165
710,0.78,35.732,29.234,33.97,27.605,4.742,6.18,7.165
711,0.784,35.463,29.164,33.998,27.608,4.783,6.179,7.084
712,0.777,35.585,29.284,34.018,27.619,4.824,6.342,7.205
713,0.774,35.701,29.122,34.018,27.619,4.865,6.466,7.125
714,0.774,35.444,29.304,34.047,27.616,4.824,6.304,7.165
715,0.758,35.499,29.001,33.98,27.605,4.743,6.221,7.043
716,0.751,35.653,29.232,33.979,27.598,4.701,6.22,7.001
717,0.748,35.75,29.195,33.96,27.601,4.66,6.18,6.96
718,0.764,35.243,29.148,33.979,27.598,4.66,6.139,6.919
719,0.757,35.353,29.276,33.96,27.601,4.66,6.219,6.878
720,0.751,35.507,29.106,33.96,27.605,4.7,6.22,6.918
721,0.761,35.605,29.319,33.95,27.602,4.701,6.22,6.919
722,0.757,35.471,29.044,33.96,27.601,4.742,6.18,6.959
723,0.754,35.643,29.229,33.989,27.612,4.742,6.179,6.878
724,0.744,35.75,29.273,33.979,27.609,4.742,6.179,6.877
725,0.738,35.818,29.11,33.96,27.602,4.661,6.22,6.877
726,0.728,35.167,29.257,33.96,27.598,4.579,6.139,6.755
727,0.741,35.333,29.036,33.96,27.601,4.618,6.098,6.714
728,0.747,35.478,29.275,33.979,27.601,4.741,6.138,6.794
729,0.757,35.566,29.266,33.998,27.605,4.783,6.219,6.917
730,0.761,35.375,29.133,33.989,27.605,4.742,6.22,6.837
731,0.774,35.517,29.284,33.998,27.612,4.783,6.261,6.958
732,0.771,35.653,29.044,33.989,27.615,4.864,6.262,6.96
733,0.774,35.683,29.311,33.97,27.622,4.743,6.262,7.0
734,0.767,35.376,29.286,33.998,27.609,4.742,6.262,7.041
735,0.777,35.517,29.18,33.999,27.605,4.742,6.221,7.123
736,0.771,35.653,29.32,33.999,27.605,4.742,6.18,7.246
737,0.767,35.683,29.087,34.027,27.608,4.783,6.179,7.288
738,0.774,35.99,29.256,33.98,27.612,4.783,6.22,7.369
739,0.777,36.156,29.059,33.998,27.612,4.824,6.18,7.452
740,0.764,36.273,29.272,34.008,27.619,4.905,6.22,7.615
741,0.767,35.622,29.071,34.018,27.612,4.947,6.302,7.861
742,0.748,35.107,29.123,33.989,27.615,4.825,6.302,7.863
743,0.751,35.255,29.237,33.979,27.612,4.743,6.18,7.822
744,0.738,35.372,29.125,33.97,27.602,4.742,6.098,7.781
745,0.734,35.431,29.163,33.989,27.601,4.661,6.097,7.74
746,0.751,35.575,28.976,33.96,27.601,4.619,6.138,7.781
747,0.761,35.682,29.247,33.979,27.605,4.781,6.098,7.944
748,0.754,35.808,29.098,33.97,27.605,4.742,6.138,7.945
749,0.748,35.253,29.19,34.037,27.608,4.783,6.179,7.945
750,0.76,35.362,29.269,33.98,27.605,4.783,6.179,7.905
751,0.748,35.507,29.071,33.979,27.605,4.783,6.139,7.985
752,0.76,35.605,29.311,33.979,27.605,4.824,6.219,7.864
753,0.754,35.318,29.052,33.979,27.608,4.783,6.18,7.985
754,0.744,35.469,29.24,33.96,27.598,4.702,6.179,7.986
755,0.754,35.604,29.305,33.96,27.598,4.701,6.057,7.824
756,0.767,35.711,29.141,33.969,27.598,4.701,6.056,7.822
757,0.764,35.338,29.296,33.979,27.615,4.782,6.137,7.822
758,0.764,35.497,29.063,33.979,27.612,4.864,6.179,7.903
759,0.761,35.643,29.311,33.979,27.612,4.824,6.179,7.904
760,0.738,35.702,29.212,33.979,27.609,4.824,6.22,7.945
761,0.751,35.376,29.109,33.989,27.612,4.783,6.18,7.945
762,0.744,35.527,29.272,33.979,27.612,4.824,6.22,7.945
763,0.738,35.653,29.008,33.979,27.612,4.783,6.139,7.905
764,0.744,35.683,29.287,33.979,27.609,4.824,6.179,7.782
765,0.738,35.348,29.04,33.979,27.605,4.783,6.179,7.781
766,0.721,35.498,29.174,33.97,27.605,4.783,6.139,7.781
767,0.734,35.624,29.324,33.979,27.605,4.783,6.138,7.74
768,0.751,35.683,29.122,33.979,27.608,4.783,6.138,7.781
769,0.761,35.511,29.304,34.008,27.619,4.864,6.26,7.822
770,0.767,35.653,29.087,33.999,27.622,4.906,6.302,7.822
771,0.757,35.75,29.295,33.999,27.616,4.825,6.221,7.741
772,0.741,35.607,29.052,33.97,27.598,4.743,6.098,7.618
773,0.734,35.539,29.186,33.95,27.601,4.783,6.138,7.617
774,0.741,35.701,29.281,33.95,27.598,4.742,6.138,7.535
775,0.741,35.808,29.106,33.95,27.605,4.701,6.138,7.494
776,0.741,35.483,29.257,33.96,27.605,4.701,6.138,7.494
777,0.731,35.576,29.075,33.941,27.605,4.701,6.098,7.412
778,0.728,35.72,29.28,33.969,27.602,4.782,6.178,7.452
779,0.721,35.827,29.094,33.989,27.605,4.783,6.179,7.412
780,0.718,35.474,29.249,33.951,27.598,4.783,6.179,7.33
781,0.711,35.623,29.004,33.979,27.605,4.783,6.22,7.289
782,0.705,35.759,29.193,33.979,27.605,4.824,6.139,7.329
783,0.708,35.828,29.261,33.941,27.598,4.743,6.057,7.289
784,0.702,35.55,29.118,33.94,27.598,4.701,6.015,7.166
785,0.718,35.758,29.28,33.988,27.608,4.742,6.137,7.165
786,0.705,35.904,29.001,33.979,27.605,4.823,6.219,7.165
787,0.711,35.973,29.232,33.989,27.608,4.865,6.261,7.206
788,0.715,35.734,29.254,33.989,27.608,4.824,6.302,7.247
789,0.705,35.895,29.075,33.96,27.608,4.783,6.221,7.247
790,0.715,36.021,29.248,33.96,27.608,4.824,6.302,7.166
791,0.715,36.089,29.141,33.979,27.608,4.702,6.262,7.206
792,0.695,35.812,29.327,33.989,27.615,4.823,6.221,7.206
793,0.685,35.991,29.068,33.979,27.609,4.783,6.261,7.247
794,0.698,36.099,29.283,33.979,27.598,4.742,6.262,7.247
795,0.698,36.128,29.071,33.95,27.612,4.783,6.262,7.328
796,0.688,35.927,29.19,33.969,27.612,4.824,6.302,7.41
797,0.711,36.107,29.281,33.998,27.609,4.824,6.302,7.493
798,0.698,36.234,29.133,33.999,27.615,4.905,6.425,7.616
799,0.692,36.494,29.339,33.979,27.619,4.865,6.385,7.657
800,0.692,35.96,29.103,33.97,27.612,4.824,6.303,7.617
801,0.682,36.117,29.214,33.95,27.602,4.743,6.302,7.617
802,0.669,36.215,28.984,33.941,27.601,4.701,6.221,7.698
803,0.669,36.158,29.197,33.94,27.598,4.701,6.22,7.699
804,0.669,36.177,29.312,33.94,27.605,4.782,6.22,7.658
805,0.662,36.34,29.091,33.95,27.605,4.702,6.261,7.617
806,0.659,36.466,29.295,33.969,27.598,4.782,6.262,7.739
807,0.662,36.17,29.071,33.96,27.605,4.783,6.343,7.821
808,0.672,36.263,29.159,33.989,27.602,4.824,6.384,7.781
809,0.675,36.418,28.996,33.96,27.605,4.702,6.344,7.822
810,0.669,36.496,29.193,33.969,27.605,4.701,6.384,7.863
811,0.656,36.152,29.3,33.922,27.602,4.782,6.344,7.782
812,0.659,36.301,29.188,33.94,27.598,4.62,6.303,7.659
813,0.665,36.456,29.222,33.96,27.601,4.7,6.302,7.617
814,0.656,36.554,29.039,33.969,27.605,4.782,6.343,7.698
815,0.655,36.181,29.271,33.969,27.605,4.783,6.425,7.78
816,0.659,36.34,29.188,34.046,27.612,4.824,6.426,7.862
817,0.652,36.495,29.175,33.98,27.609,4.783,6.507,7.782
818,0.642,36.554,29.324,33.96,27.615,4.783,6.427,7.781
819,0.636,36.373,29.204,33.96,27.615,4.864,6.426,7.781
820,0.639,36.515,29.238,33.969,27.615,4.824,6.466,7.781
821,0.639,36.67,29.063,33.979,27.609,4.824,6.467,7.781
822,0.636,36.729,29.248,33.979,27.605,4.824,6.467,7.781
823,0.636,36.355,29.067,33.96,27.612,4.783,6.426,7.7
824,0.636,36.495,29.186,33.96,27.605,4.783,6.466,7.658
825,0.642,36.65,29.109,33.96,27.602,4.742,6.426,7.658
826,0.636,36.7,29.245,33.998,27.615,4.823,6.426,7.658
827,0.633,36.528,29.297,33.979,27.615,4.905,6.548,7.78
828,0.639,36.679,29.044,33.989,27.619,4.906,6.508,7.74
829,0.639,36.767,29.264,33.951,27.605,4.825,6.467,7.659
830,0.642,37.027,29.055,33.95,27.605,4.743,6.386,7.536
831,0.639,36.464,29.252,33.95,27.598,4.783,6.385,7.534
832,0.642,36.602,29.317,33.931,27.591,4.702,6.303,7.494
833,0.646,36.709,29.157,33.95,27.601,4.701,6.343,7.453
834,0.646,36.537,29.28,33.96,27.598,4.742,6.343,7.412
835,0.642,36.545,29.044,33.941,27.605,4.701,6.343,7.371
836,0.649,36.727,29.268,33.969,27.602,4.823,6.384,7.37
837,0.642,36.825,29.032,33.95,27.605,4.702,6.466,7.37
838,0.642,36.558,29.225,33.95,27.608,4.823,6.386,7.37
839,0.633,36.689,29.234,33.969,27.612,4.783,6.385,7.248
840,0.619,36.825,29.082,33.931,27.598,4.702,6.385,7.328
841,0.629,36.912,29.264,33.921,27.598,4.701,6.263,7.207
842,0.645,36.463,29.133,33.931,27.601,4.66,6.302,7.287
843,0.646,36.611,29.35,33.95,27.605,4.782,6.343,7.207
844,0.652,36.766,29.048,33.96,27.612,4.864,6.425,7.206
845,0.655,36.835,29.225,33.969,27.615,4.906,6.385,7.287
846,0.655,36.567,29.324,33.95,27.615,4.906,6.344,7.329
847,0.665,36.737,29.064,33.979,27.612,4.825,6.384,7.207
848,0.669,36.873,29.279,33.979,27.609,4.824,6.385,7.206
849,0.678,36.942,29.079,33.96,27.612,4.865,6.425,7.165
850,0.691,36.578,29.311,33.95,27.605,4.824,6.426,7.165
851,0.705,36.728,29.181,33.95,27.605,4.824,6.385,7.124
852,0.695,36.854,29.117,33.96,27.608,4.783,6.425,7.124
853,0.705,36.941,29.245,33.941,27.615,4.864,6.344,7.124
854,0.728,36.674,29.106,33.94,27.605,4.824,6.303,7.083
855,0.715,36.853,29.299,33.979,27.608,4.905,6.343,7.042
856,0.708,36.999,29.048,33.97,27.619,4.906,6.425,7.123
857,0.724,37.0,29.311,33.979,27.616,4.947,6.466,7.205
858,0.731,36.55,29.048,33.95,27.612,4.866,6.304,7.165
859,0.712,36.689,29.162,33.941,27.602,4.784,6.343,7.002
860,0.721,36.806,29.062,33.931,27.598,4.702,6.262,6.96
861,0.724,36.874,29.248,33.931,27.605,4.66,6.221,6.96
862,0.724,36.673,29.348,33.921,27.605,4.741,6.22,7.0
863,0.731,36.815,29.138,33.931,27.602,4.783,6.22,6.96
864,0.744,36.931,29.284,33.931,27.601,4.702,6.261,7.0
865,0.747,36.587,29.09,33.931,27.601,4.742,6.221,6.96
866,0.754,36.613,29.237,33.931,27.605,4.783,6.22,6.96
867,0.774,36.786,29.149,33.921,27.605,4.783,6.302,6.96
868,0.777,36.864,29.167,33.94,27.608,4.824,6.221,6.919
869,0.777,36.654,29.351,33.931,27.602,4.743,6.22,6.919
870,0.787,36.757,29.072,33.912,27.601,4.783,6.22,6.959
871,0.793,36.902,29.225,33.902,27.595,4.661,6.22,6.797
872,0.797,37.028,29.047,33.921,27.605,4.7,6.139,6.673
873,0.803,36.483,29.225,33.95,27.598,4.782,6.26,6.835
874,0.816,36.64,29.308,33.941,27.612,4.864,6.302,6.918
875,0.81,36.757,29.122,33.95,27.609,4.906,6.302,6.878
876,0.816,36.854,29.28,33.941,27.612,4.825,6.302,6.877
877,0.826,36.635,29.071,33.921,27.605,4.865,6.302,6.837
878,0.81,36.786,29.178,33.94,27.605,4.784,6.302,6.918
879,0.833,36.922,29.011,33.921,27.608,4.783,6.343,6.837
880,0.826,36.99,29.185,33.902,27.608,4.742,6.262,6.877
881,0.82,36.607,29.324,33.911,27.605,4.823,6.262,6.877
882,0.82,36.795,29.153,33.921,27.608,4.783,6.302,6.796
883,0.817,36.941,29.261,33.94,27.605,4.824,6.262,6.795
884,0.813,37.0,29.059,33.95,27.612,4.905,6.302,6.836
885,0.816,36.617,29.311,33.95,27.612,4.987,6.384,6.918
886,0.82,36.738,29.001,33.921,27.612,4.866,6.344,6.919
887,0.82,36.883,29.193,33.921,27.609,4.784,6.303,6.796
888,0.826,36.894,29.293,33.911,27.602,4.742,6.221,6.795
889,0.83,36.635,29.169,33.883,27.595,4.701,6.18,6.714
890,0.839,36.747,29.269,33.902,27.601,4.742,6.179,6.713
891,0.849,36.892,28.969,33.902,27.601,4.742,6.139,6.713
892,0.856,36.798,29.169,33.911,27.601,4.742,6.179,6.713
893,0.84,36.634,29.304,33.911,27.601,4.661,6.179,6.713
894,0.839,36.757,29.169,33.911,27.605,4.741,6.179,6.672
895,0.846,36.902,29.273,33.911,27.615,4.742,6.179,6.672
896,0.846,36.606,29.106,33.911,27.612,4.783,6.179,6.713
897,0.83,36.651,29.288,33.921,27.605,4.783,6.22,6.672
898,0.826,36.767,29.071,33.902,27.598,4.783,6.22,6.672
899,0.823,36.883,29.256,33.883,27.598,4.661,6.098,6.591
900,0.826,36.549,29.043,33.882,27.608,4.741,6.097,6.549
901,0.813,36.67,29.283,33.911,27.605,4.701,6.138,6.63
902,0.816,36.805,29.254,33.931,27.612,4.823,6.219,6.55
903,0.826,36.903,29.172,33.921,27.619,4.783,6.18,6.63
904,0.82,36.51,29.257,33.911,27.619,4.824,6.179,6.672
905,0.813,36.65,29.079,33.902,27.612,4.824,6.179,6.55
906,0.816,36.776,29.225,33.911,27.615,4.824,6.139,6.63
907,0.826,36.854,29.031,33.921,27.609,4.783,6.138,6.631
908,0.82,36.683,29.232,33.902,27.605,4.742,6.179,6.509
909,0.823,36.815,29.289,33.902,27.605,4.742,6.139,6.508
910,0.83,36.97,29.044,33.911,27.602,4.742,6.138,6.549
911,0.839,37.038,29.268,33.921,27.605,4.864,6.179,6.468
912,0.856,36.502,29.086,33.94,27.608,4.824,6.139,6.548
913,0.84,36.65,29.327,33.931,27.619,4.905,6.219,6.549
914,0.83,36.767,29.032,33.921,27.616,4.906,6.261,6.63
915,0.81,36.797,29.201,33.902,27.609,4.784,6.221,6.631
916,0.81,36.576,29.308,33.892,27.605,4.783,6.18,6.55
917,0.82,36.708,29.126,33.883,27.605,4.742,6.098,6.386
918,0.82,36.844,29.28,33.873,27.605,4.661,6.056,6.425
919,0.82,36.855,29.055,33.882,27.598,4.7,6.137,6.344
920,0.82,36.462,29.272,33.882,27.598,4.742,6.057,6.425
921,0.817,36.611,29.051,33.892,27.605,4.742,6.056,6.507
922,0.807,36.728,29.209,33.873,27.605,4.701,6.137,6.508
923,0.803,36.72,29.234,33.882,27.605,4.782,6.057,6.549
924,0.816,36.7,29.133,33.892,27.608,4.783,6.137,6.59
925,0.81,36.815,29.249,33.873,27.602,4.783,6.138,6.59
926,0.797,36.941,28.996,33.854,27.605,4.702,6.138,6.549
927,0.807,36.453,29.228,33.853,27.591,4.66,6.057,6.63
928,0.807,36.525,29.297,33.882,27.601,4.741,6.015,6.55
929,0.816,36.689,29.083,33.892,27.601,4.783,6.137,6.63
930,0.82,36.786,29.295,33.892,27.615,4.824,6.219,6.712
931,0.826,36.567,29.028,33.902,27.609,4.824,6.261,6.794
932,0.836,36.689,29.275,33.863,27.608,4.865,6.302,6.917
933,0.836,36.834,29.094,33.882,27.612,4.784,6.262,7.041
934,0.826,36.912,29.229,33.882,27.609,4.824,6.262,7.204
935,0.823,36.558,29.285,33.863,27.612,4.783,6.221,7.369
936,0.823,36.68,29.137,33.873,27.612,4.783,6.18,7.573
937,0.82,36.834,29.28,33.863,27.605,4.783,6.301,7.698
938,0.826,36.912,29.048,33.863,27.602,4.702,6.221,8.024
939,0.833,36.549,29.307,33.844,27.608,4.742,6.22,8.271
940,0.826,36.699,29.134,33.872,27.608,4.823,6.261,8.477
941,0.836,36.863,29.206,33.901,27.612,4.865,6.262,8.682
942,0.839,36.894,29.261,33.883,27.615,4.906,6.384,9.01
943,0.813,36.539,29.11,33.863,27.612,4.865,6.303,9.257
944,0.803,36.67,29.284,33.853,27.615,4.743,6.221,9.259
945,0.81,36.796,29.02,33.834,27.602,4.742,6.22,9.3
946,0.813,36.835,29.24,33.824,27.601,4.701,6.18,9.423
947,0.81,36.529,29.055,33.844,27.601,4.701,6.139,9.424
948,0.807,36.67,29.178,33.815,27.598,4.66,6.138,9.546
949,0.813,36.825,29.261,33.834,27.601,4.741,6.179,9.628
950,0.816,36.864,29.141,33.824,27.598,4.701,6.179,9.67
951,0.829,36.635,29.284,33.844,27.605,4.701,6.179,9.751
952,0.826,36.776,29.2,33.834,27.605,4.782,6.22,9.793
953,0.82,36.893,29.308,33.824,27.608,4.702,6.22,9.753
954,0.833,36.692,29.095,33.824,27.602,4.863,6.22,9.752
955,0.83,36.643,29.307,33.815,27.601,4.743,6.18,9.671
956,0.836,36.805,29.009,33.805,27.598,4.661,6.139,9.629
957,0.839,36.922,29.217,33.805,27.605,4.66,6.098,9.548
958,0.862,36.511,29.285,33.815,27.608,4.822,6.178,9.669
959,0.853,36.602,29.176,33.824,27.608,4.783,6.22,9.711
960,0.84,36.766,29.308,33.824,27.619,4.824,6.302,9.67
961,0.833,36.825,29.056,33.824,27.616,4.783,6.302,9.792
962,0.82,36.5,29.24,33.805,27.615,4.824,6.262,9.753
963,0.813,36.66,29.024,33.805,27.609,4.905,6.262,9.752
964,0.826,36.776,29.256,33.795,27.612,4.784,6.221,9.712
965,0.82,36.874,29.293,33.786,27.605,4.742,6.22,9.67
966,0.823,36.453,29.102,33.786,27.608,4.742,6.22,9.67
967,0.846,36.602,29.327,33.805,27.612,4.742,6.22,9.589
968,0.84,36.757,28.997,33.776,27.609,4.742,6.22,9.588
969,0.843,36.806,29.205,33.776,27.605,4.783,6.261,9.507
970,0.866,36.682,29.289,33.786,27.608,4.783,6.221,9.506
971,0.879,36.853,29.223,33.814,27.612,4.905,6.342,9.506
972,0.872,36.961,29.34,33.795,27.619,4.906,6.303,9.465
973,0.856,36.99,29.091,33.776,27.616,4.865,6.343,9.424
974,0.859,36.329,29.276,33.766,27.602,4.784,6.262,9.302
975,0.866,36.457,29.067,33.728,27.601,4.661,6.18,9.26
976,0.849,36.611,29.186,33.737,27.598,4.66,6.22,9.137
977,0.859,36.651,29.117,33.737,27.598,4.7,6.098,9.014
978,0.856,36.633,29.179,33.718,27.605,4.782,6.097,8.932
979,0.843,36.805,29.339,33.727,27.602,4.702,6.178,8.931
980,0.836,36.922,29.025,33.718,27.605,4.742,6.179,8.85
981,0.833,37.364,29.154,33.727,27.608,4.783,6.179,8.849
982,0.846,36.947,29.003,33.718,27.605,4.742,6.22,8.767
983,0.836,37.067,29.201,33.718,27.608,4.742,6.22,8.685
984,0.833,37.174,29.105,33.699,27.602,4.823,6.22,8.684
985,0.836,36.417,29.163,33.689,27.598,4.743,6.22,8.522
986,0.849,36.275,29.288,33.689,27.598,4.701,6.139,8.439
987,0.856,36.437,29.122,33.708,27.598,4.701,6.179,8.397
988,0.853,36.563,29.229,33.727,27.601,4.782,6.179,8.356
989,0.856,36.478,29.0,33.718,27.612,4.824,6.301,8.437
990,0.859,36.612,29.185,33.708,27.612,4.824,6.302,8.397
991,0.866,36.738,29.265,33.699,27.615,4.824,6.302,8.397
992,0.856,36.816,29.137,33.708,27.612,4.783,6.343,8.356
993,0.846,36.375,29.249,33.689,27.615,4.824,6.384,8.315
994,0.853,36.515,28.989,33.698,27.609,4.824,6.344,8.234
995,0.862,36.67,29.244,33.689,27.605,4.824,6.303,8.192
996,0.866,36.757,29.25,33.679,27.602,4.783,6.302,8.192
997,0.866,36.356,29.09,33.67,27.605,4.783,6.262,8.151
998,0.856,36.534,29.272,33.669,27.605,4.742,6.262,8.11
999,0.882,36.699,29.133,33.689,27.608,4.864,6.262,8.028
1000,0.859,36.767,29.272,33.689,27.622,4.906,6.343,8.068
1001,0.846,36.432,29.055,33.679,27.616,4.947,6.384,8.069
1002,0.846,36.573,29.143,33.67,27.609,4.785,6.344,8.069
1003,0.836,36.699,29.265,33.65,27.602,4.783,6.303,7.865
1004,0.836,36.767,29.098,33.641,27.601,4.702,6.221,7.782
1005,0.849,36.346,29.292,33.631,27.598,4.742,6.18,7.781
1006,0.84,36.476,29.044,33.631,27.598,4.742,6.179,7.74
1007,0.83,36.621,29.272,33.631,27.601,4.742,6.179,7.699
1008,0.852,36.671,29.219,33.659,27.605,4.742,6.22,7.821
1009,0.849,36.499,29.164,33.641,27.608,4.742,6.22,7.659
1010,0.853,36.641,29.308,33.631,27.602,4.783,6.261,7.658
1011,0.849,36.767,29.165,33.621,27.601,4.824,6.18,7.658
1012,0.849,36.778,29.335,33.631,27.598,4.743,6.22,7.536
1013,0.846,36.327,29.013,33.669,27.598,4.661,6.139,7.575
1014,0.84,36.505,29.166,33.602,27.598,4.7,6.138,7.494
1015,0.846,36.631,29.3,33.611,27.601,4.742,6.138,7.412
1016,0.849,36.402,29.114,33.611,27.608,4.823,6.26,7.533
1017,0.846,36.448,29.264,33.64,27.615,4.824,6.302,7.453
1018,0.853,36.602,29.102,33.621,27.605,4.743,6.302,7.534
1019,0.859,36.68,29.292,33.621,27.612,4.823,6.302,7.534
1020,0.853,36.278,29.005,33.602,27.612,4.824,6.302,7.453
1021,0.853,36.379,29.166,33.611,27.602,4.783,6.262,7.412
1022,0.869,36.515,29.281,33.592,27.608,4.783,6.262,7.411
1023,0.859,36.631,29.094,33.592,27.605,4.783,6.302,7.33
1024,0.862,36.287,29.194,33.592,27.608,4.783,6.18,7.329
1025,0.859,36.456,29.152,33.592,27.605,4.824,6.301,7.289
1026,0.856,36.602,29.198,33.602,27.608,4.783,6.221,7.247
1027,0.853,36.699,29.261,33.621,27.612,4.905,6.302,7.247
1028,0.84,36.317,29.051,33.611,27.615,4.865,6.465,7.288
1029,0.836,36.457,29.272,33.592,27.609,4.865,6.467,7.329
1030,0.846,36.573,29.09,33.563,27.605,4.784,6.345,7.248
1031,0.84,36.622,29.272,33.553,27.602,4.702,6.262,7.125
1032,0.846,36.249,29.243,33.553,27.605,4.579,6.221,7.002
1033,0.849,36.418,29.11,33.544,27.602,4.7,6.261,7.001
1034,0.849,36.534,29.385,33.563,27.601,4.701,6.302,7.041
1035,0.853,36.603,29.064,33.553,27.605,4.66,6.343,7.042
1036,0.856,36.364,29.213,33.553,27.598,4.741,6.384,7.001
1037,0.866,36.495,29.039,33.544,27.605,4.742,6.385,6.96
1038,0.866,36.631,29.186,33.534,27.608,4.742,6.344,6.96
1039,0.849,36.661,29.25,33.534,27.602,4.742,6.425,6.919
1040,0.83,36.307,29.094,33.534,27.601,4.823,6.304,6.959
1041,0.813,36.447,29.28,33.515,27.598,4.621,6.221,6.878
1042,0.82,36.592,29.141,33.524,27.601,4.659,6.302,6.755
1043,0.836,36.613,29.261,33.524,27.601,4.741,6.343,6.795
1044,0.843,36.507,29.04,33.543,27.601,4.742,6.343,6.917
1045,0.839,36.641,29.252,33.553,27.612,4.783,6.466,6.959
1046,0.849,36.767,29.238,33.525,27.605,4.824,6.345,6.96
1047,0.846,36.356,29.113,33.543,27.612,4.824,6.466,6.96
1048,0.843,36.38,29.292,33.515,27.612,4.783,6.467,6.96
1049,0.846,36.505,29.13,33.534,27.605,4.742,6.426,6.96
1050,0.862,36.612,29.276,33.534,27.608,4.783,6.426,6.96
1051,0.853,36.239,29.001,33.524,27.605,4.783,6.426,6.96
1052,0.846,36.369,29.244,33.515,27.608,4.783,6.385,6.96
1053,0.846,36.505,29.09,33.515,27.605,4.783,6.425,6.878
1054,0.83,36.612,29.12,33.515,27.608,4.783,6.385,6.877
1055,0.833,36.153,29.292,33.495,27.602,4.702,6.466,6.877
1056,0.856,36.321,29.126,33.514,27.605,4.742,6.386,6.877
1057,0.853,36.457,29.272,33.524,27.622,4.864,6.507,6.959
1058,0.827,36.525,28.997,33.524,27.616,4.906,6.508,7.0
1059,0.833,36.334,29.216,33.505,27.612,4.825,6.467,7.001
1060,0.826,36.466,29.215,33.495,27.605,4.743,6.386,6.879
1061,0.817,36.583,29.195,33.466,27.598,4.661,6.344,6.796
1062,0.813,36.661,29.289,33.476,27.601,4.66,6.303,6.836
1063,0.807,36.239,29.087,33.466,27.601,4.66,6.384,6.796
1064,0.81,36.398,29.272,33.457,27.598,4.66,6.303,6.755
1065,0.81,36.525,29.001,33.447,27.605,4.7,6.302,6.754
1066,0.81,36.583,29.197,33.466,27.598,4.742,6.343,6.714
1067,0.81,36.335,29.273,33.485,27.601,4.701,6.343,6.794
1068,0.807,36.457,29.149,33.466,27.605,4.701,6.343,6.795
1069,0.816,36.592,29.273,33.476,27.602,4.782,6.343,6.795
1070,0.823,36.622,29.04,33.476,27.605,4.783,6.384,6.836
1071,0.813,36.364,29.217,33.466,27.598,4.783,6.425,6.877
1072,0.813,36.495,29.242,33.447,27.601,4.783,6.426,6.796
1073,0.826,36.602,29.176,33.447,27.595,4.62,6.304,6.755
1074,0.826,36.459,29.281,33.456,27.598,4.659,6.302,6.673
1075,0.823,36.343,29.145,33.447,27.612,4.741,6.384,6.753
1076,0.82,36.476,29.327,33.466,27.609,4.783,6.466,6.795
1077,0.817,36.612,29.052,33.485,27.605,4.783,6.548,6.795
1078,0.829,36.344,29.244,33.447,27.612,4.783,6.508,6.836
1079,0.833,36.419,29.227,33.447,27.612,4.783,6.549,6.958
1080,0.813,36.553,29.246,33.447,27.609,4.702,6.508,6.919
1081,0.807,36.651,29.277,33.447,27.602,4.782,6.508,7.0
1082,0.816,36.259,29.094,33.437,27.612,4.824,6.467,7.123
1083,0.82,36.398,29.237,33.447,27.605,4.783,6.467,7.205
1084,0.813,36.534,29.203,33.437,27.608,4.742,6.507,7.247
1085,0.816,36.631,29.289,33.514,27.612,4.701,6.427,7.369
1086,0.816,36.258,29.071,33.447,27.605,4.782,6.466,7.37
1087,0.816,36.418,29.319,33.495,27.615,4.824,6.507,7.573
1088,0.813,36.534,29.005,33.476,27.619,4.824,6.63,7.779
1089,0.813,36.631,29.177,33.466,27.609,4.865,6.55,7.781
1090,0.82,36.239,29.253,33.437,27.612,4.784,6.508,7.781
1091,0.813,36.389,29.102,33.418,27.609,4.702,6.427,7.74
1092,0.826,36.505,29.296,33.418,27.602,4.62,6.344,7.74
1093,0.823,36.564,29.001,33.408,27.591,4.659,6.343,7.74
1094,0.826,36.296,29.201,33.399,27.594,4.66,6.303,7.821
1095,0.82,36.456,29.113,33.408,27.594,4.66,6.343,7.822
1096,0.817,36.583,29.139,33.399,27.601,4.66,6.384,7.863
1097,0.816,36.641,29.265,33.398,27.605,4.741,6.344,7.944
1098,0.816,36.402,29.149,33.398,27.605,4.742,6.384,8.026
1099,0.81,36.544,29.319,33.418,27.602,4.742,6.344,8.109
1100,0.797,36.651,29.126,33.379,27.605,4.661,6.384,8.232
1101,0.797,36.671,29.229,33.379,27.608,4.66,6.385,8.355
1102,0.787,36.355,29.051,33.369,27.598,4.619,6.303,8.437
1103,0.79,36.534,29.252,33.389,27.601,4.619,6.302,8.519
1104,0.803,36.651,28.985,33.379,27.608,4.741,6.302,8.601
1105,0.816,36.498,29.162,33.408,27.612,4.742,6.343,8.887
1106,0.823,36.439,29.3,33.408,27.612,4.783,6.343,8.971
1107,0.83,36.573,29.114,33.408,27.605,4.742,6.384,9.094
1108,0.826,36.68,29.3,33.456,27.608,4.823,6.344,9.258
1109,0.823,36.374,28.997,33.399,27.605,4.661,6.425,9.3
1110,0.833,36.457,29.236,33.408,27.608,4.741,6.385,9.423
1111,0.839,36.611,29.11,33.389,27.605,4.742,6.385,9.464
1112,0.817,36.699,29.214,33.389,27.608,4.661,6.385,9.424
1113,0.813,36.24,29.289,33.398,27.598,4.782,6.385,9.505
1114,0.8,36.408,29.055,33.389,27.605,4.742,6.344,9.465
1115,0.816,36.544,29.276,33.379,27.605,4.701,6.384,9.505
1116,0.82,36.651,29.192,33.408,27.612,4.782,6.507,9.546
1117,0.8,36.383,29.16,33.389,27.626,4.905,6.508,9.669
1118,0.8,36.496,29.312,33.379,27.612,4.784,6.467,9.629
1119,0.8,36.631,29.11,33.369,27.605,4.783,6.345,9.548
1120,0.784,36.7,29.264,33.36,27.602,4.661,6.303,9.466
1121,0.78,36.182,29.016,33.36,27.598,4.619,6.302,9.424
1122,0.78,36.35,29.256,33.35,27.605,4.619,6.302,9.383
1123,0.78,36.486,29.313,33.35,27.598,4.659,6.302,9.423
1124,0.777,36.564,29.138,33.36,27.601,4.741,6.302,9.342
1125,0.787,36.421,29.276,33.36,27.605,4.742,6.343,9.342
1126,0.78,36.573,29.11,33.36,27.602,4.661,6.262,9.301
1127,0.787,36.708,29.26,33.369,27.605,4.7,6.343,9.341
1128,0.793,36.758,29.0,33.369,27.605,4.701,6.343,9.26
1129,0.787,36.308,29.228,33.35,27.605,4.742,6.303,9.3
1130,0.797,36.437,29.074,33.34,27.602,4.62,6.343,9.178
1131,0.81,36.563,29.213,33.321,27.591,4.659,6.221,9.015
1132,0.82,36.977,29.191,33.34,27.594,4.7,6.22,9.013
1133,0.817,36.387,29.074,33.36,27.605,4.742,6.302,9.054
1134,0.82,36.515,29.315,33.35,27.612,4.701,6.302,9.095
1135,0.817,36.641,29.048,33.379,27.612,4.742,6.384,9.136
1136,0.807,36.345,29.264,33.36,27.609,4.783,6.303,9.055
1137,0.813,36.313,29.067,33.36,27.608,4.783,6.384,9.013
1138,0.803,36.457,29.151,33.36,27.608,4.783,6.303,8.972
1139,0.8,36.564,29.253,33.36,27.608,4.783,6.384,8.972
1140,0.8,36.229,29.141,33.341,27.608,4.742,6.344,8.85
1141,0.8,36.331,29.323,33.331,27.605,4.701,6.303,8.971
1142,0.784,36.466,29.087,33.331,27.608,4.701,6.343,8.891
1143,0.793,36.592,29.221,33.331,27.608,4.823,6.303,8.89
1144,0.793,36.229,29.016,33.359,27.612,4.824,6.384,8.768
1145,0.79,36.36,29.302,33.35,27.615,4.946,6.466,8.848
1146,0.784,36.486,29.262,33.34,27.619,4.866,6.467,8.849
1147,0.793,36.573,29.129,33.331,27.605,4.743,6.386,8.767
1148,0.793,36.363,29.327,33.302,27.598,4.742,6.344,8.685
1149,0.797,36.515,29.087,33.302,27.601,4.661,6.303,8.603
1150,0.803,36.631,29.213,33.311,27.598,4.66,6.302,8.562
1151,0.8,36.709,29.016,33.292,27.598,4.66,6.262,8.439
1152,0.8,36.23,29.189,33.311,27.601,4.7,6.221,8.479
1153,0.807,36.379,29.265,33.292,27.598,4.701,6.261,8.357
1154,0.807,36.515,29.067,33.302,27.601,4.742,6.221,8.356
1155,0.803,36.574,29.26,33.302,27.601,4.742,6.342,8.356
1156,0.803,36.248,29.063,33.292,27.605,4.701,6.343,8.275
1157,0.813,36.418,29.229,33.321,27.605,4.742,6.262,8.233
1158,0.8,36.563,29.02,33.311,27.602,4.742,6.262,8.192
1159,0.8,36.574,29.221,33.283,27.598,4.742,6.221,8.151
1160,0.79,36.114,29.086,33.263,27.591,4.661,6.22,8.069
1161,0.787,36.263,29.264,33.282,27.594,4.66,6.18,7.946
1162,0.806,36.408,29.258,33.292,27.598,4.7,6.179,7.864
1163,0.807,36.678,29.114,33.292,27.608,4.742,6.22,7.944
1164,0.81,36.326,29.28,33.292,27.608,4.823,6.18,7.945
1165,0.816,36.457,29.028,33.292,27.608,4.783,6.261,7.945
1166,0.813,36.583,29.252,33.302,27.612,4.742,6.343,7.823
1167,0.81,36.22,29.043,33.282,27.612,4.823,6.303,7.863
1168,0.807,36.216,29.264,33.292,27.609,4.783,6.302,7.822
1169,0.8,36.369,28.985,33.292,27.608,4.702,6.221,7.741
1170,0.803,36.467,29.142,33.292,27.605,4.823,6.302,7.699
1171,0.807,36.228,29.276,33.282,27.605,4.743,6.302,7.699
1172,0.8,36.341,29.168,33.263,27.608,4.701,6.262,7.658
1173,0.807,36.476,29.316,33.272,27.605,4.823,6.221,7.576
1174,0.81,36.612,29.036,33.282,27.605,4.743,6.22,7.535
1175,0.826,36.172,29.271,33.301,27.615,4.823,6.22,7.534
1176,0.843,36.302,29.204,33.311,27.619,4.905,6.302,7.616
1177,0.843,36.437,29.179,33.283,27.612,4.865,6.343,7.617
1178,0.849,36.496,29.253,33.273,27.609,4.824,6.221,7.535
1179,0.869,36.267,29.102,33.234,27.605,4.783,6.18,7.412
1180,0.853,36.418,29.292,33.243,27.598,4.702,6.139,7.411
1181,0.866,36.563,29.005,33.253,27.598,4.66,6.098,7.371
1182,0.882,36.651,29.174,33.234,27.598,4.7,6.056,7.289
1183,0.879,36.144,29.234,33.243,27.598,4.66,6.056,7.207
1184,0.885,36.292,29.199,33.234,27.598,4.782,6.097,7.206
1185,0.892,36.456,29.273,33.234,27.608,4.742,6.138,7.247
1186,0.892,36.506,29.047,33.243,27.602,4.742,6.138,7.247
1187,0.882,36.094,29.299,33.224,27.605,4.783,6.098,7.247
1188,0.898,36.234,28.993,33.253,27.602,4.783,6.138,7.206
1189,0.892,36.36,29.197,33.224,27.605,4.783,6.138,7.206
1190,0.892,36.39,29.172,33.205,27.598,4.661,6.057,7.084
1191,0.899,36.246,29.16,33.205,27.598,4.7,6.015,7.002
1192,0.899,36.389,29.304,33.243,27.605,4.742,6.015,6.96
1193,0.879,36.534,29.071,33.263,27.598,4.783,6.137,7.082
1194,0.879,36.449,29.244,33.244,27.605,4.824,6.138,7.083
1195,0.882,36.113,29.106,33.234,27.612,4.824,6.179,7.042
1196,0.885,36.263,29.264,33.243,27.609,4.743,6.261,7.123
1197,0.885,36.37,28.969,33.224,27.612,4.742,6.139,7.043
1198,0.872,36.169,29.189,33.243,27.612,4.783,6.219,7.001
1199,0.872,36.244,29.277,33.224,27.605,4.783,6.139,7.001
1200,0.866,36.389,29.059,33.215,27.605,4.742,6.138,6.919
1201,0.869,36.505,29.237,33.215,27.605,4.701,6.098,6.959
1202,0.885,35.989,29.004,33.215,27.598,4.782,6.138,6.878
1203,0.905,36.137,29.24,33.215,27.608,4.742,6.098,6.877
1204,0.921,36.301,29.223,33.243,27.612,4.864,6.26,6.877
1205,0.905,36.389,29.098,33.234,27.626,4.865,6.302,6.959
1206,0.886,36.227,29.346,33.224,27.616,4.824,6.262,6.878
1207,0.889,36.36,29.04,33.215,27.609,4.783,6.262,6.918
1208,0.892,36.505,29.232,33.186,27.602,4.824,6.139,6.837
1209,0.889,36.593,29.234,33.176,27.601,4.661,6.138,6.755
1210,0.908,36.853,29.133,33.185,27.595,4.7,6.179,6.673
1211,0.915,37.018,29.327,33.185,27.605,4.66,6.139,6.713
1212,0.912,37.125,29.028,33.185,27.608,4.741,6.179,6.672
1213,0.905,37.203,29.24,33.185,27.598,4.701,6.139,6.713
1214,0.905,35.516,29.055,33.185,27.601,4.782,6.179,6.672
1215,0.912,35.7,29.236,33.224,27.601,4.661,6.22,6.713
1216,0.915,35.818,29.266,33.186,27.598,4.741,6.261,6.632
1217,0.918,35.847,29.153,33.166,27.601,4.823,6.18,6.712
1218,0.912,36.078,29.257,33.137,27.595,4.661,6.057,6.632
1219,0.905,36.253,29.02,33.156,27.598,4.66,6.056,6.55
1220,0.892,36.418,29.197,33.176,27.605,4.782,6.097,6.549
1221,0.886,36.448,29.015,33.185,27.608,4.824,6.178,6.63
1222,0.879,35.95,29.217,33.185,27.612,4.824,6.301,6.631
1223,0.872,36.108,29.25,33.176,27.605,4.783,6.262,6.631
1224,0.859,36.224,29.028,33.185,27.605,4.783,6.262,6.672
1225,0.853,36.139,29.303,33.157,27.612,4.783,6.262,6.631
1226,0.872,36.023,28.966,33.166,27.609,4.742,6.221,6.672
1227,0.869,36.166,29.22,33.166,27.605,4.742,6.302,6.631
1228,0.866,36.273,29.281,33.157,27.612,4.783,6.221,6.59
1229,0.862,36.034,29.196,33.156,27.602,4.742,6.139,6.549
1230,0.879,36.099,29.222,33.156,27.601,4.783,6.179,6.468
1231,0.889,36.282,29.043,33.156,27.605,4.742,6.22,6.548
1232,0.879,36.389,29.248,33.195,27.612,4.864,6.261,6.63
1233,0.866,35.901,29.086,33.166,27.615,4.946,6.302,6.712
1234,0.866,36.002,29.198,33.157,27.615,4.785,6.302,6.672
1235,0.869,36.127,28.996,33.137,27.602,4.783,6.221,6.591
1236,0.866,36.205,29.209,33.118,27.605,4.742,6.18,6.59
1237,0.862,35.947,29.25,33.127,27.602,4.661,6.098,6.631
1238,0.866,36.117,29.078,33.127,27.598,4.7,6.097,6.712
1239,0.876,36.263,29.272,33.099,27.598,4.742,6.178,6.794
1240,0.859,36.351,29.044,33.118,27.598,4.823,6.179,6.755
1241,0.859,35.882,29.283,33.108,27.601,4.743,6.098,6.876
1242,0.859,36.03,29.231,33.108,27.605,4.742,6.138,6.877
1243,0.859,36.176,29.109,33.127,27.602,4.742,6.138,6.959
1244,0.862,36.254,29.288,33.108,27.605,4.742,6.179,7.0
1245,0.859,35.957,29.052,33.118,27.605,4.783,6.179,7.041
1246,0.849,36.117,29.24,33.079,27.591,4.661,6.139,7.082
1247,0.843,36.272,29.055,33.108,27.598,4.66,6.098,6.92
1248,0.853,36.341,29.279,33.098,27.598,4.7,6.178,7.081
1249,0.846,35.92,28.919,33.127,27.605,4.742,6.22,7.123
1250,0.853,36.088,29.223,33.127,27.605,4.823,6.261,7.165
1251,0.853,36.205,29.137,33.108,27.612,4.824,6.221,7.206
1252,0.853,36.235,29.179,33.108,27.612,4.824,6.22,7.206
1253,0.856,35.986,29.316,33.137,27.612,4.865,6.22,7.165
1254,0.849,36.137,29.153,33.108,27.612,4.824,6.18,7.206
1255,0.83,36.253,29.265,33.098,27.605,4.743,6.22,7.206
1256,0.813,36.053,29.051,33.098,27.608,4.783,6.22,7.125
1257,0.807,35.946,29.244,33.079,27.608,4.783,6.302,7.165
1258,0.797,36.108,28.985,33.079,27.605,4.824,6.221,7.084
1259,0.8,36.215,29.193,33.079,27.608,4.743,6.22,7.002
1260,0.794,36.024,29.316,33.098,27.602,4.742,6.22,7.123
1261,0.793,36.166,29.087,33.089,27.612,4.783,6.261,7.124
1262,0.79,36.321,29.174,33.137,27.615,4.864,6.221,7.083
1263,0.784,36.399,28.988,33.099,27.619,4.906,6.342,7.245
1264,0.777,35.92,29.263,33.079,27.612,4.865,6.303,7.166
1265,0.761,36.04,29.203,33.089,27.605,4.784,6.221,7.002
1266,0.764,36.185,29.14,33.05,27.598,4.702,6.139,7.041
1267,0.767,36.273,29.288,33.05,27.595,4.742,6.179,7.001
1268,0.774,35.881,29.079,33.05,27.601,4.701,6.098,6.96
1269,0.774,36.04,29.241,33.107,27.601,4.701,6.138,6.838
1270,0.79,36.185,29.02,33.041,27.595,4.701,6.138,6.918
1271,0.79,36.273,29.252,33.069,27.601,4.742,6.179,6.878
1272,0.784,35.977,29.063,33.041,27.598,4.742,6.179,6.877
1273,0.8,36.118,29.248,33.05,27.608,4.783,6.179,6.877
1274,0.784,36.263,29.258,33.06,27.602,4.783,6.22,6.837
1275,0.78,36.331,29.157,33.05,27.605,4.702,6.18,6.918
1276,0.784,35.747,29.222,33.031,27.602,4.701,6.179,6.919
1277,0.793,35.895,29.113,33.011,27.591,4.579,6.098,6.919
1278,0.79,36.03,29.257,33.03,27.601,4.7,6.097,6.878
1279,0.793,36.109,29.164,33.04,27.601,4.701,6.219,7.04
1280,0.797,35.879,29.308,33.04,27.605,4.742,6.22,7.204
1281,0.797,36.011,29.028,33.05,27.612,4.783,6.261,7.369
1282,0.8,36.147,29.135,33.06,27.609,4.783,6.302,7.492
1283,0.797,36.225,29.151,33.021,27.608,4.661,6.302,7.697
1284,0.803,35.909,29.202,33.04,27.608,4.782,6.262,7.943
1285,0.81,36.05,29.277,33.05,27.602,4.783,6.262,8.067
1286,0.839,36.176,29.141,33.04,27.605,4.742,6.18,8.191
1287,0.843,36.052,29.315,33.021,27.612,4.783,6.22,8.476
1288,0.875,36.061,28.997,33.04,27.602,4.742,6.22,8.601
1289,0.905,36.224,29.224,33.031,27.605,4.783,6.261,8.684
1290,0.967,36.341,28.992,33.011,27.608,4.742,6.262,8.766
1291,1.016,35.738,29.24,33.03,27.605,4.823,6.18,8.889
1292,1.059,35.799,29.328,33.031,27.615,4.783,6.383,8.971
1293,1.105,35.934,29.103,33.05,27.615,4.824,6.344,9.135
1294,1.148,36.05,29.264,33.012,27.609,4.824,6.343,9.177
1295,1.197,35.946,29.059,32.982,27.602,4.783,6.262,8.974
1296,1.253,36.088,29.174,32.982,27.598,4.702,6.221,9.094
1297,1.305,36.243,29.023,32.992,27.598,4.701,6.18,8.932
1298,1.352,36.341,29.15,32.992,27.598,4.742,6.139,9.012
1299,1.414,35.68,29.292,32.973,27.605,4.701,6.179,9.054
1300,1.473,35.817,29.059,32.963,27.602,4.701,6.22,9.054
1301,1.542,35.982,29.174,32.992,27.601,4.701,6.139,9.054
1302,1.614,36.07,28.988,32.982,27.601,4.701,6.138,9.176
1303,1.667,35.888,29.201,32.992,27.605,4.701,6.179,9.218
1304,1.726,36.021,29.265,32.963,27.602,4.742,6.261,9.34
1305,1.775,36.166,29.055,32.972,27.601,4.823,6.18,9.423
1306,1.851,36.235,29.299,32.934,27.595,4.661,6.098,9.424
1307,1.903,35.717,29.04,32.943,27.598,4.66,6.138,9.464
1308,1.936,35.894,29.108,33.011,27.605,4.7,6.219,9.627
1309,1.969,36.03,29.026,32.992,27.608,4.823,6.261,9.751
1310,2.022,36.051,29.182,32.982,27.608,4.783,6.262,9.793
1311,2.068,35.898,29.292,32.982,27.608,4.824,6.221,9.915
1312,2.084,36.03,29.126,32.973,27.608,4.824,6.261,9.916
1313,2.107,36.166,29.245,32.973,27.608,4.783,6.262,9.876
1314,2.108,36.513,29.063,32.953,27.605,4.783,6.221,9.876
1315,2.091,35.864,29.272,32.972,27.608,4.783,6.261,9.876
1316,2.062,36.02,29.075,32.963,27.605,4.702,6.302,9.794
1317,2.036,36.137,29.272,32.953,27.605,4.782,6.14,9.712
1318,2.048,35.851,29.125,32.944,27.605,4.742,6.219,9.63
1319,2.026,35.867,29.261,32.982,27.615,4.823,6.22,9.71
1320,1.938,36.021,29.024,33.021,27.619,4.946,6.383,9.752
1321,1.852,36.118,29.185,32.963,27.616,4.825,6.385,9.712
1322,1.751,35.726,29.035,32.944,27.605,4.783,6.263,9.589
1323,1.623,35.818,29.248,32.924,27.602,4.661,6.221,9.629
1324,1.478,35.982,29.258,32.915,27.598,4.66,6.22,9.507
1325,1.343,36.07,29.063,32.924,27.598,4.619,6.139,9.506
1326,1.228,36.982,29.295,32.915,27.601,4.741,6.138,9.628
1327,1.13,37.154,28.974,32.934,27.598,4.783,6.179,9.873
1328,0.995,37.309,29.216,32.924,27.601,4.702,6.22,10.079
1329,0.864,37.378,29.168,32.924,27.598,4.742,6.22,10.284
1330,0.752,35.096,29.242,32.905,27.598,4.742,6.261,10.53
1331,0.63,35.236,29.27,32.924,27.605,4.742,6.221,10.817
1332,0.499,35.362,29.114,32.915,27.602,4.742,6.22,11.145
1333,0.407,35.44,29.225,32.895,27.598,4.701,6.22,11.596
1334,0.315,36.007,29.113,32.876,27.595,4.701,6.139,12.047
1335,0.236,36.185,29.272,32.914,27.598,4.701,6.179,12.621
1336,0.186,36.331,29.001,32.924,27.601,4.701,6.22,13.318
1337,0.156,36.37,29.263,32.895,27.612,4.782,6.302,13.935
1338,0.127,35.565,29.051,32.924,27.609,4.824,6.302,14.388
1339,0.094,35.73,29.154,32.895,27.605,4.783,6.262,14.881
1340,0.061,35.856,29.257,32.914,27.612,4.783,6.262,15.252
1341,0.054,35.896,29.075,32.905,27.602,4.783,6.262,15.54
1342,0.067,35.781,29.307,32.905,27.605,4.824,6.262,15.665
1343,0.087,35.924,28.942,32.905,27.602,4.783,6.302,15.747
1344,0.136,36.088,29.157,32.895,27.605,4.742,6.221,15.789
1345,0.159,36.167,29.28,32.876,27.605,4.783,6.261,15.789
1346,0.211,35.813,29.071,32.904,27.605,4.742,6.302,15.667
1347,0.235,35.972,29.26,32.924,27.612,4.783,6.262,15.747
1348,0.28,36.089,29.09,32.905,27.615,4.905,6.384,15.829
1349,0.31,35.764,29.291,32.924,27.612,4.825,6.303,15.708
1350,0.366,35.77,28.966,32.876,27.609,4.743,6.302,15.707
1351,0.396,35.905,29.099,32.866,27.602,4.783,6.221,15.707
1352,0.438,36.021,29.225,32.876,27.591,4.702,6.18,15.87
1353,0.461,35.648,29.078,32.885,27.601,4.66,6.22,15.953
1354,0.497,35.779,29.252,32.876,27.601,4.66,6.098,16.157
1355,0.55,35.933,28.977,32.866,27.598,4.741,6.178,16.403
1356,0.589,36.021,29.212,32.876,27.608,4.742,6.179,16.649
1357,0.6,35.706,29.254,32.857,27.598,4.742,6.139,16.774
1358,0.619,35.846,29.133,32.876,27.601,4.783,6.219,16.978
1359,0.655,35.992,29.233,32.876,27.605,4.742,6.18,17.265
1360,0.665,36.099,29.141,32.857,27.605,4.742,6.22,17.471
1361,0.665,35.563,29.288,32.866,27.605,4.742,6.139,17.595
1362,0.682,35.72,29.122,32.847,27.595,4.661,6.098,17.596
1363,0.701,35.885,29.249,32.847,27.598,4.66,6.097,17.556
1364,0.721,35.992,29.02,32.847,27.608,4.782,6.056,17.474
1365,0.728,35.648,29.263,32.856,27.605,4.742,6.178,17.514
1366,0.738,35.817,28.977,32.866,27.608,4.783,6.179,17.311
1367,0.741,35.943,29.162,32.876,27.605,4.824,6.22,17.187
1368,0.747,35.983,29.284,32.876,27.605,4.824,6.18,16.941
1369,0.747,35.686,29.126,32.876,27.602,4.824,6.22,16.573
1370,0.751,35.837,29.175,32.876,27.608,4.783,6.18,16.325
1371,0.764,35.982,29.035,32.847,27.602,4.824,6.139,15.998
1372,0.761,36.003,29.221,32.866,27.608,4.783,6.179,15.751
1373,0.764,35.686,29.152,32.847,27.605,4.824,6.139,15.382
1374,0.764,35.885,29.159,32.885,27.605,4.661,6.179,15.094
1375,0.77,35.992,29.249,32.847,27.602,4.782,6.179,14.766
1376,0.767,35.907,29.067,32.856,27.605,4.742,6.179,14.478
1377,0.78,35.714,29.194,32.895,27.619,4.905,6.139,14.19
1378,0.78,35.837,29.133,32.876,27.619,4.906,6.219,13.984
1379,0.777,35.934,29.148,32.837,27.605,4.825,6.18,13.779
1380,0.764,35.705,29.343,32.837,27.602,4.743,6.179,13.411
1381,0.764,35.779,29.118,32.837,27.598,4.701,6.057,13.082
1382,0.767,35.933,29.245,32.818,27.595,4.66,6.056,12.835
1383,0.767,36.031,29.02,32.818,27.594,4.66,6.015,12.548
1384,0.774,35.581,29.279,32.818,27.598,4.782,6.096,12.301
1385,0.774,35.73,28.981,32.837,27.598,4.661,6.056,12.176
1386,0.771,35.885,29.158,32.827,27.601,4.7,6.137,11.931
1387,0.774,35.973,29.288,32.837,27.605,4.742,6.098,11.685
1388,0.777,35.676,29.11,32.837,27.598,4.701,6.097,11.52
1389,0.774,35.827,29.175,32.827,27.598,4.742,6.056,11.355
1390,0.774,35.943,28.953,32.789,27.591,4.661,6.056,11.151
1391,0.787,36.05,29.177,32.808,27.598,4.579,5.975,10.904
1392,0.78,35.629,29.187,32.818,27.601,4.659,5.974,10.739
1393,0.793,35.778,29.234,32.818,27.605,4.782,6.096,10.535
1394,0.787,35.933,29.273,32.856,27.605,4.824,6.138,10.492
1395,0.787,36.002,29.083,32.837,27.612,4.783,6.179,10.369
1396,0.793,35.744,29.26,32.827,27.609,4.783,6.139,10.287
1397,0.793,35.914,29.004,32.827,27.602,4.783,6.098,10.042
1398,0.78,36.031,29.213,32.827,27.605,4.783,6.056,9.958
1399,0.79,36.07,29.035,32.827,27.602,4.742,6.056,9.835
1400,0.79,35.543,29.221,32.827,27.601,4.783,6.097,9.794
1401,0.787,35.71,28.992,32.818,27.608,4.702,6.016,9.671
1402,0.787,35.837,29.088,32.837,27.598,4.742,6.096,9.548
1403,0.806,35.886,29.221,32.827,27.601,4.742,6.056,9.547
1404,0.8,35.771,29.07,32.846,27.608,4.823,6.137,9.425
1405,0.797,35.933,29.237,32.828,27.615,4.905,6.179,9.424
1406,0.797,36.031,28.965,32.837,27.615,4.825,6.139,9.261
1407,0.794,35.802,29.236,32.808,27.605,4.743,6.016,9.178
1408,0.79,35.665,29.113,32.798,27.602,4.701,6.056,9.096
1409,0.797,35.798,29.124,32.789,27.601,4.66,5.975,8.932
1410,0.81,35.924,29.265,32.808,27.598,4.7,5.974,8.809
1411,0.8,35.599,29.063,32.798,27.598,4.66,6.096,8.767
1412,0.8,35.682,29.291,32.779,27.605,4.7,6.056,8.726
1413,0.816,35.856,29.075,32.789,27.602,4.701,6.056,8.644
1414,0.803,35.944,29.151,32.789,27.605,4.742,6.097,8.644
1415,0.813,35.552,29.054,32.798,27.602,4.783,6.056,8.562
1416,0.8,35.672,29.135,32.789,27.598,4.742,6.097,8.561
1417,0.8,35.817,29.241,32.75,27.591,4.62,6.016,8.358
1418,0.794,35.924,29.106,32.759,27.594,4.7,5.934,8.234
1419,0.816,35.58,29.245,32.779,27.601,4.742,6.014,8.273
1420,0.816,35.778,29.032,32.817,27.601,4.742,6.096,8.274
1421,0.82,35.885,29.232,32.798,27.612,4.783,6.138,8.274
1422,0.833,35.973,29.0,32.789,27.612,4.824,6.098,8.193
1423,0.826,35.581,29.248,32.76,27.609,4.783,6.097,8.273
1424,0.826,35.73,29.281,32.779,27.602,4.742,6.097,8.233
1425,0.82,35.856,29.071,32.789,27.605,4.783,6.138,8.314
1426,0.807,35.944,29.28,32.779,27.608,4.824,6.057,8.274
1427,0.8,35.571,28.888,32.798,27.605,4.824,6.137,8.396
1428,0.797,35.701,29.161,32.789,27.605,4.783,6.057,8.478
1429,0.803,35.856,29.249,32.76,27.602,4.742,6.097,8.479
1430,0.813,35.915,29.125,32.769,27.605,4.742,6.097,8.845
1431,0.82,35.561,29.272,32.779,27.615,4.864,6.138,8.93
1432,0.817,35.701,28.977,32.779,27.612,4.987,6.26,9.215
1433,0.82,35.818,29.169,32.769,27.605,4.866,6.221,9.381
1434,0.813,35.819,29.039,32.731,27.608,4.743,6.22,9.545
1435,0.81,35.713,29.186,32.721,27.605,4.701,6.18,9.547
1436,0.807,35.894,29.218,32.73,27.598,4.742,6.098,9.669
1437,0.807,35.983,29.074,32.731,27.598,4.742,6.097,9.751
1438,0.81,38.256,29.186,32.721,27.601,4.783,6.178,9.793
1439,0.807,39.075,28.988,32.721,27.605,4.783,6.098,9.834
1440,0.81,39.198,29.22,32.711,27.598,4.783,6.138,9.916
1441,0.807,39.276,29.027,32.721,27.605,4.824,6.138,9.835
1442,0.813,34.319,29.295,32.74,27.605,4.743,6.138,9.916
1443,0.82,34.0,29.29,32.779,27.598,4.783,6.219,9.916
1444,0.81,34.17,29.079,32.693,27.605,4.783,6.22,9.835
1445,0.803,34.268,29.28,32.692,27.608,4.742,6.22,9.834
1446,0.8,36.014,29.001,32.673,27.598,4.742,6.139,9.712
1447,0.82,36.224,29.197,32.692,27.595,4.742,6.057,9.711
1448,0.813,36.379,29.257,32.692,27.598,4.783,6.219,9.67
1449,0.813,36.476,29.118,32.711,27.605,4.824,6.22,9.751
1450,0.823,35.202,29.167,32.692,27.608,4.865,6.261,9.712
1451,0.82,35.352,28.968,32.711,27.605,4.824,6.302,9.752
1452,0.826,35.498,29.208,32.702,27.612,4.865,6.302,9.63
1453,0.83,35.585,29.0,32.701,27.605,4.824,6.302,9.67
1454,0.833,35.615,29.173,32.721,27.608,4.824,6.262,9.711
1455,0.83,35.74,29.23,32.673,27.605,4.824,6.302,9.589
1456,0.82,35.885,29.078,32.692,27.605,4.783,6.302,9.588
1457,0.807,35.944,29.202,32.692,27.605,4.824,6.221,9.629
1458,0.807,35.475,28.965,32.682,27.608,4.824,6.22,9.426
1459,0.816,35.614,29.204,32.673,27.605,4.905,6.22,9.424
1460,0.823,35.759,29.289,32.672,27.602,4.784,6.22,9.424
1461,0.833,35.828,29.184,32.682,27.605,4.824,6.302,9.424
1462,0.833,35.57,29.253,32.711,27.612,4.865,6.302,9.424
1463,0.813,35.739,29.078,32.702,27.619,4.987,6.384,9.464
1464,0.813,35.837,29.287,32.682,27.612,4.866,6.344,9.424
1465,0.816,36.02,28.997,32.673,27.612,4.824,6.262,9.261
1466,0.823,35.552,29.205,32.653,27.602,4.783,6.221,9.178
1467,0.813,35.701,29.261,32.634,27.591,4.702,6.18,9.096
1468,0.826,35.827,29.157,32.624,27.598,4.742,6.139,9.095
1469,0.826,35.589,29.191,32.672,27.598,4.742,6.179,8.932
1470,0.817,35.557,29.078,32.644,27.598,4.783,6.098,8.972
1471,0.826,35.72,29.217,32.634,27.598,4.742,6.178,8.891
1472,0.826,35.818,29.055,32.615,27.601,4.783,6.179,8.93
1473,0.817,35.589,29.221,32.643,27.601,4.702,6.139,8.768
1474,0.816,35.692,28.969,32.624,27.601,4.742,6.179,8.726
1475,0.813,35.846,29.189,32.643,27.605,4.742,6.261,8.685
1476,0.807,35.905,29.226,32.615,27.595,4.783,6.18,8.644
1477,0.8,35.311,29.102,32.595,27.598,4.702,6.098,8.521
1478,0.81,35.43,29.233,32.585,27.595,4.62,6.097,8.479
1479,0.826,35.604,29.152,32.624,27.601,4.781,6.178,8.438
1480,0.81,35.692,29.277,32.624,27.608,4.824,6.22,8.438
1481,0.813,35.405,28.993,32.634,27.608,4.824,6.261,8.438
1482,0.813,35.565,29.201,32.634,27.612,4.865,6.262,8.275
1483,0.813,35.711,29.027,32.624,27.619,4.865,6.302,8.314
1484,0.826,35.779,29.131,32.624,27.612,4.824,6.221,8.193
1485,0.826,35.464,29.245,32.614,27.605,4.905,6.22,8.192
1486,0.826,35.633,29.09,32.595,27.602,4.784,6.261,8.11
1487,0.823,35.759,29.303,32.614,27.605,4.824,6.302,8.069
1488,0.833,35.809,29.048,32.614,27.602,4.783,6.221,8.069
1489,0.83,35.531,29.24,32.576,27.601,4.742,6.18,8.028
1490,0.833,35.662,29.047,32.595,27.598,4.823,6.261,8.109
1491,0.843,35.827,29.272,32.633,27.615,4.865,6.302,8.028
1492,0.843,35.857,29.079,32.624,27.612,4.946,6.384,8.149
1493,0.839,35.407,29.28,32.614,27.612,4.825,6.385,8.191
1494,0.839,35.565,28.977,32.605,27.609,4.743,6.303,8.192
1495,0.836,35.663,29.146,32.586,27.602,4.783,6.262,8.151
1496,0.833,36.019,29.241,32.566,27.595,4.742,6.221,8.069
1497,0.833,35.504,29.043,32.566,27.598,4.701,6.18,8.028
1498,0.839,35.643,29.272,32.585,27.598,4.782,6.139,8.027
1499,0.833,35.75,29.005,32.566,27.598,4.702,6.219,8.068
1500,0.826,35.454,29.119,32.576,27.601,4.701,6.18,8.109
1501,0.817,35.451,29.202,32.585,27.601,4.701,6.22,8.109
1502,0.823,35.594,29.07,32.576,27.601,4.701,6.22,8.109
1503,0.823,35.701,29.268,32.566,27.601,4.742,6.261,8.109
1504,0.813,35.424,28.958,32.604,27.601,4.783,6.302,8.028
1505,0.807,35.527,29.177,32.566,27.601,4.864,6.343,8.068
1506,0.803,35.653,29.066,32.547,27.595,4.743,6.262,8.069
1507,0.826,35.769,29.03,32.566,27.591,4.701,6.18,7.987
1508,0.82,35.377,29.228,32.566,27.605,4.701,6.179,8.027
1509,0.833,35.517,28.996,32.556,27.605,4.863,6.261,8.068
1510,0.836,35.653,29.259,32.575,27.608,4.824,6.384,8.109
1511,0.843,35.74,29.051,32.576,27.612,4.743,6.303,8.028
1512,0.826,35.511,29.217,32.576,27.609,4.864,6.302,8.109
1513,0.826,35.672,29.254,32.576,27.602,4.784,6.302,8.109
1514,0.836,35.789,29.16,32.556,27.601,4.864,6.384,7.947
1515,0.823,35.876,29.214,32.585,27.605,4.784,6.303,7.945
1516,0.826,35.321,29.098,32.547,27.605,4.864,6.302,7.905
1517,0.826,35.488,29.288,32.547,27.605,4.743,6.302,7.863
1518,0.833,35.614,29.032,32.547,27.605,4.823,6.302,7.822
1519,0.813,35.673,29.213,32.547,27.605,4.783,6.221,7.863
1520,0.826,35.731,28.949,32.575,27.602,4.824,6.342,7.863
1521,0.82,35.885,29.169,32.585,27.619,4.865,6.343,7.822
1522,0.813,36.021,29.277,32.566,27.616,4.906,6.466,7.903
1523,0.807,35.993,29.106,32.547,27.612,4.865,6.304,7.782
1524,0.813,35.61,29.245,32.537,27.602,4.784,6.262,7.7
1525,0.81,35.759,29.024,32.518,27.601,4.783,6.221,7.658
1526,0.8,35.885,29.182,32.508,27.595,4.702,6.139,7.576
1527,0.803,36.021,29.113,32.527,27.598,4.66,6.219,7.535
1528,0.816,35.811,29.12,32.527,27.591,4.782,6.18,7.616
1529,0.826,35.943,29.28,32.518,27.601,4.742,6.22,7.495
1530,0.83,36.069,29.028,32.518,27.605,4.742,6.22,7.534
1531,0.83,35.773,29.17,32.527,27.612,4.783,6.261,7.534
1532,0.817,35.809,28.968,32.527,27.605,4.824,6.221,7.453
1533,0.816,35.934,29.169,32.508,27.608,4.783,6.261,7.412
1534,0.813,36.021,29.218,32.508,27.598,4.742,6.221,7.452
1535,0.826,35.782,29.055,32.47,27.591,4.701,6.22,7.33
1536,0.817,35.924,29.272,32.508,27.594,4.701,6.098,7.37
1537,0.816,36.069,29.016,32.517,27.605,4.742,6.178,7.33
1538,0.813,36.176,29.217,32.508,27.608,4.783,6.22,7.329
1539,0.816,35.803,29.125,32.508,27.605,4.824,6.261,7.37
1540,0.803,35.962,29.151,32.517,27.608,4.865,6.302,7.289
1541,0.8,36.108,29.269,32.508,27.612,4.784,6.343,7.288
1542,0.803,36.196,29.079,32.508,27.609,4.864,6.262,7.288
1543,0.803,35.89,29.248,32.508,27.605,4.784,6.302,7.288
1544,0.803,36.05,28.985,32.489,27.605,4.864,6.221,7.247
1545,0.797,36.176,29.177,32.508,27.602,4.824,6.302,7.206
1546,0.787,36.263,29.132,32.517,27.601,4.824,6.302,7.165
1547,0.8,36.264,29.14,32.498,27.612,4.783,6.262,7.124
1548,0.813,36.427,29.28,32.508,27.609,4.783,6.262,7.083
1549,0.807,36.573,28.938,32.527,27.615,4.905,6.424,7.164
1550,0.8,36.603,29.188,32.518,27.612,4.865,6.344,7.124
1551,0.8,36.038,28.961,32.498,27.609,4.824,6.343,7.165
1552,0.8,36.176,29.197,32.479,27.598,4.743,6.384,7.084
1553,0.794,36.302,29.308,32.46,27.598,4.661,6.303,6.961
1554,0.787,36.341,29.134,32.469,27.591,4.7,6.221,6.919
1555,0.787,36.284,29.237,32.488,27.598,4.701,6.22,6.919
1556,0.784,36.437,29.035,32.469,27.601,4.701,6.22,6.796
1557,0.78,36.554,29.217,32.479,27.598,4.701,6.22,6.836
1558,0.767,36.478,28.973,32.46,27.601,4.742,6.18,6.837
1559,0.78,36.305,29.208,32.469,27.601,4.701,6.342,6.837
1560,0.774,36.437,29.281,32.46,27.601,4.742,6.262,6.837
1561,0.761,36.535,29.067,32.46,27.601,4.742,6.262,6.796
1562,0.764,36.401,29.139,32.44,27.601,4.742,6.302,6.836
1563,0.761,36.496,28.898,32.421,27.598,4.661,6.14,6.674
1564,0.78,36.66,29.208,32.459,27.605,4.66,6.26,6.672
1565,0.774,36.776,29.215,32.45,27.605,4.782,6.384,6.713
1566,0.764,36.394,29.098,32.459,27.608,4.783,6.385,6.794
1567,0.761,36.515,29.249,32.479,27.612,4.824,6.303,6.795
1568,0.777,36.66,28.969,32.469,27.609,4.824,6.465,6.836
1569,0.767,36.748,29.216,32.469,27.608,4.783,6.345,6.755
1570,0.783,36.471,29.223,32.46,27.608,4.783,6.384,6.754
1571,0.787,36.612,29.113,32.46,27.608,4.783,6.344,6.795
1572,0.793,36.747,29.264,32.46,27.608,4.824,6.384,6.673
1573,0.784,36.835,28.946,32.44,27.605,4.783,6.303,6.753
1574,0.777,36.443,29.185,32.44,27.605,4.783,6.343,6.836
1575,0.777,36.611,29.171,32.45,27.602,4.824,6.303,6.755
1576,0.767,36.766,29.043,32.479,27.615,4.824,6.384,6.754
1577,0.754,36.806,29.232,32.45,27.612,4.946,6.507,6.876
1578,0.744,36.74,29.094,32.421,27.609,4.825,6.386,6.877
1579,0.744,36.873,29.28,32.43,27.598,4.865,6.385,6.796
1580,0.747,36.999,28.989,32.421,27.598,4.784,6.385,6.714
1581,0.747,37.058,29.099,32.411,27.598,4.742,6.303,6.713
1582,0.76,36.646,29.214,32.43,27.598,4.742,6.221,6.672
1583,0.748,36.786,29.043,32.421,27.598,4.823,6.22,6.55
1584,0.764,36.912,29.252,32.402,27.598,4.702,6.302,6.671
1585,0.751,36.942,29.024,32.411,27.601,4.742,6.221,6.672
1586,0.741,36.798,29.248,32.411,27.601,4.742,6.302,6.713
1587,0.738,36.941,28.981,32.43,27.598,4.783,6.221,6.713
1588,0.738,37.077,29.15,32.459,27.605,4.824,6.302,6.713
1589,0.731,36.829,29.198,32.412,27.598,4.783,6.302,6.632
1590,0.741,36.663,29.125,32.402,27.588,4.742,6.302,6.631
1591,0.738,36.815,29.276,32.373,27.594,4.579,6.18,6.509
1592,0.747,36.941,29.133,32.42,27.598,4.659,6.22,6.549
1593,0.754,36.77,29.253,32.43,27.605,4.741,6.261,6.63
1594,0.767,36.845,28.993,32.43,27.608,4.823,6.343,6.712
1595,0.77,36.98,29.205,32.43,27.612,4.865,6.303,6.672
1596,0.767,37.106,28.969,32.43,27.609,4.865,6.302,6.672
1597,0.754,36.791,29.15,32.411,27.612,4.865,6.302,6.631
1598,0.764,36.922,29.292,32.421,27.609,4.824,6.302,6.59
1599,0.767,37.048,29.087,32.411,27.605,4.824,6.262,6.631
1600,0.761,37.145,29.256,32.469,27.602,4.824,6.302,6.59
1601,0.754,36.753,28.965,32.412,27.608,4.824,6.262,6.59
1602,0.761,36.912,29.146,32.421,27.605,4.865,6.221,6.549
1603,0.764,37.067,29.132,32.392,27.608,4.824,6.261,6.59
1604,0.78,37.145,29.198,32.411,27.605,4.865,6.262,6.549
1605,0.78,36.82,29.234,32.421,27.612,4.987,6.343,6.508
1606,0.774,36.979,29.137,32.411,27.615,4.907,6.303,6.67
1607,0.78,37.086,29.198,32.392,27.605,4.865,6.221,6.631
1608,0.79,37.155,29.043,32.382,27.602,4.824,6.261,6.55
1609,0.793,37.309,29.232,32.363,27.601,4.743,6.139,6.508
1610,0.8,37.454,29.047,32.391,27.595,4.742,6.179,6.427
1611,0.813,37.59,29.244,32.373,27.598,4.742,6.179,6.466
1612,0.803,37.62,28.934,32.372,27.598,4.783,6.179,6.426
1613,0.813,36.7,29.11,32.372,27.601,4.824,6.179,6.385
1614,0.81,36.825,29.284,32.382,27.601,4.783,6.179,6.507
1615,0.823,36.979,29.098,32.42,27.605,4.864,6.22,6.427
1616,0.817,36.991,29.202,32.392,27.602,4.865,6.261,6.426
1617,0.81,36.818,29.094,32.382,27.605,4.824,6.221,6.385
1618,0.807,36.951,29.245,32.363,27.598,4.824,6.18,6.385
1619,0.81,37.077,28.953,32.382,27.598,4.743,6.139,6.344
1620,0.82,36.915,29.157,32.363,27.598,4.742,6.098,6.303
1621,0.839,36.904,29.218,32.382,27.601,4.864,6.178,6.343
1622,0.833,37.038,29.133,32.382,27.608,4.865,6.179,6.425
1623,0.846,37.145,29.245,32.363,27.605,4.865,6.22,6.466
1624,0.859,36.829,29.02,32.401,27.605,4.865,6.22,6.386
1625,0.856,36.951,29.232,32.392,27.605,4.906,6.22,6.425
1626,0.866,37.067,29.215,32.363,27.602,4.906,6.18,6.385
1627,0.872,37.183,29.09,32.382,27.608,4.865,6.179,6.507
1628,0.869,36.763,29.249,32.363,27.602,4.865,6.179,6.427
1629,0.866,36.873,29.067,32.382,27.601,4.824,6.179,6.466
1630,0.879,37.028,29.248,32.372,27.601,4.905,6.22,6.507
1631,0.885,37.116,28.946,32.372,27.605,4.906,6.139,6.467
1632,0.892,36.963,29.13,32.392,27.608,4.865,6.179,6.629
1633,0.899,37.115,29.21,32.401,27.615,4.946,6.22,6.794
1634,0.899,37.232,29.047,32.401,27.612,4.988,6.261,6.917
1635,0.882,37.281,29.233,32.373,27.609,4.907,6.221,7.122
1636,0.889,36.946,29.008,32.363,27.598,4.865,6.22,7.327
1637,0.889,37.057,29.232,32.344,27.591,4.743,6.18,7.329
1638,0.885,37.212,28.949,32.343,27.601,4.742,6.017,7.532
1639,0.895,37.281,29.138,32.324,27.598,4.742,6.015,7.697
1640,0.895,49.584,29.151,32.343,27.605,4.783,6.096,8.024
1641,0.889,49.699,29.195,32.353,27.602,4.864,6.138,8.149
1642,0.885,49.679,29.273,32.343,27.601,4.824,6.138,8.395
1643,0.882,49.602,28.985,32.353,27.605,4.905,6.138,8.56
1644,0.882,32.878,29.193,32.353,27.602,4.865,6.098,8.683
1645,0.879,32.949,28.976,32.353,27.605,4.824,6.138,8.766
1646,0.879,33.163,29.162,32.343,27.605,4.783,6.098,9.051
1647,0.879,33.884,29.214,32.315,27.595,4.824,6.016,9.054
1648,0.895,38.091,29.133,32.324,27.598,4.783,6.056,9.135
1649,0.892,38.268,29.272,32.353,27.605,4.824,6.137,9.258
1650,0.912,38.384,28.95,32.372,27.602,4.824,6.179,9.422
1651,0.918,36.65,29.181,32.353,27.605,4.905,6.139,9.586
1652,0.918,36.143,29.129,32.353,27.612,4.906,6.179,9.669
1653,0.899,36.282,29.171,32.353,27.612,4.906,6.139,9.711
1654,0.899,36.456,29.249,32.382,27.609,4.865,6.179,9.792
1655,0.899,36.813,29.059,32.334,27.612,4.824,6.098,9.834
1656,0.905,36.96,29.272,32.362,27.605,4.905,6.056,9.916
1657,0.899,37.106,29.016,32.353,27.605,4.825,6.097,9.957
1658,0.892,37.203,29.228,32.334,27.598,4.824,6.097,9.998
1659,0.895,36.619,28.969,32.334,27.608,4.783,6.138,10.039
1660,0.879,36.766,29.208,32.334,27.608,4.824,6.057,10.08
1661,0.879,36.941,29.086,32.362,27.608,4.865,6.056,10.04
1662,0.879,37.0,29.139,32.372,27.612,4.946,6.219,10.121
1663,0.879,36.761,29.226,32.344,27.605,4.907,6.18,10.203
1664,0.876,36.902,28.985,32.334,27.605,4.825,6.139,10.123
1665,0.869,37.019,29.169,32.324,27.605,4.905,6.057,10.0
1666,0.869,37.116,29.105,32.334,27.602,4.744,6.015,9.877
1667,0.863,36.781,29.167,32.314,27.601,4.783,5.974,9.753
1668,0.885,36.921,29.238,32.314,27.598,4.783,6.015,9.752
1669,0.882,37.067,29.035,32.333,27.598,4.742,6.015,9.671
1670,0.885,37.135,29.205,32.324,27.598,4.823,6.015,9.67
1671,0.892,36.666,29.051,32.334,27.601,4.743,6.056,9.589
1672,0.892,36.815,29.24,32.324,27.601,4.864,6.056,9.588
1673,0.889,36.951,29.024,32.324,27.601,4.784,6.056,9.547
1674,0.882,37.01,29.189,32.334,27.601,4.824,6.097,9.466
1675,0.869,36.799,29.226,32.334,27.605,4.865,6.097,9.424
1676,0.869,36.941,29.094,32.314,27.598,4.784,6.056,9.424
1677,0.876,37.077,29.225,32.295,27.591,4.702,6.056,9.261
1678,0.872,37.337,29.047,32.305,27.598,4.701,6.056,9.178
1679,0.856,36.86,29.244,32.314,27.605,4.782,6.137,9.177
1680,0.853,36.999,29.059,32.333,27.605,4.824,6.138,9.218
1681,0.849,37.106,29.244,32.314,27.605,4.905,6.179,9.178
1682,0.853,37.826,29.059,32.305,27.605,4.906,6.22,9.177
1683,0.862,38.025,29.1,32.333,27.608,4.865,6.22,9.137
1684,0.859,38.142,29.256,32.324,27.605,4.824,6.18,9.095
1685,0.846,38.23,29.075,32.334,27.598,4.865,6.22,8.973
1686,0.856,36.131,29.225,32.295,27.605,4.824,6.18,9.013
1687,0.869,36.157,29.004,32.314,27.608,4.783,6.22,8.972
1688,0.866,36.302,29.209,32.314,27.605,4.742,6.18,8.891
1689,0.866,36.408,28.992,32.324,27.598,4.823,6.139,8.809
1690,0.876,36.889,29.06,32.324,27.601,4.783,6.179,8.808
1691,0.879,37.066,29.233,32.334,27.605,4.946,6.22,8.767
1692,0.863,37.193,29.055,32.343,27.619,4.907,6.342,8.807
1693,0.856,37.252,29.287,32.315,27.612,4.865,6.384,8.767
1694,0.856,36.667,28.989,32.295,27.609,4.865,6.181,8.685
1695,0.859,36.834,29.224,32.285,27.598,4.702,6.139,8.522
1696,0.862,36.941,29.012,32.276,27.601,4.823,6.138,8.479
1697,0.859,37.029,29.181,32.256,27.598,4.743,6.138,8.316
1698,0.859,36.694,29.218,32.275,27.598,4.701,6.098,8.356
1699,0.859,36.825,29.102,32.285,27.608,4.823,6.138,8.275
1700,0.862,36.989,29.276,32.285,27.602,4.865,6.179,8.314
1701,0.859,37.029,29.047,32.285,27.601,4.784,6.139,8.193
1702,0.872,36.771,29.17,32.295,27.601,4.783,6.179,8.232
1703,0.866,36.931,28.91,32.305,27.608,4.742,6.261,8.111
1704,0.853,37.029,29.157,32.276,27.605,4.823,6.18,8.109
1705,0.859,37.039,29.101,32.276,27.602,4.702,6.22,8.15
1706,0.866,36.972,28.96,32.266,27.591,4.66,6.058,7.988
1707,0.869,37.125,29.239,32.275,27.598,4.7,6.097,7.905
1708,0.876,37.251,28.981,32.276,27.601,4.782,6.138,7.985
1709,0.879,37.185,29.123,32.324,27.608,4.783,6.219,7.986
1710,0.885,36.782,29.218,32.276,27.605,4.864,6.139,7.864
1711,0.869,36.921,29.031,32.276,27.605,4.865,6.138,7.985
1712,0.863,37.028,29.244,32.276,27.608,4.865,6.179,7.946
1713,0.875,36.828,28.965,32.295,27.612,4.865,6.179,7.823
1714,0.872,36.912,29.208,32.295,27.605,4.824,6.179,7.741
1715,0.872,37.047,29.008,32.266,27.598,4.783,6.139,7.781
1716,0.869,37.154,29.17,32.275,27.605,4.783,6.179,7.74
1717,0.876,36.743,29.085,32.266,27.605,4.783,6.139,7.659
1718,0.885,36.883,29.124,32.275,27.605,4.783,6.098,7.536
1719,0.898,37.057,29.3,32.295,27.612,4.864,6.178,7.575
1720,0.879,37.116,29.04,32.305,27.615,4.906,6.22,7.616
1721,0.869,36.656,29.178,32.295,27.605,4.906,6.22,7.657
1722,0.869,36.815,28.965,32.266,27.605,4.744,6.098,7.576
1723,0.866,36.941,29.165,32.247,27.602,4.742,6.056,7.454
1724,0.869,37.029,29.218,32.237,27.595,4.661,6.056,7.371
1725,0.872,36.809,29.066,32.256,27.594,4.66,6.056,7.33
1726,0.863,36.951,29.256,32.237,27.598,4.741,6.056,7.289
1727,0.869,37.105,29.028,32.237,27.601,4.661,6.097,7.329
1728,0.885,37.155,29.104,32.256,27.598,4.7,6.138,7.289
1729,0.872,36.762,28.964,32.237,27.598,4.742,6.138,7.288
1730,0.866,36.912,29.146,32.246,27.601,4.783,6.098,7.247
1731,0.872,37.028,29.226,32.247,27.605,4.742,6.138,7.206
1732,0.866,37.058,29.148,32.237,27.602,4.742,6.179,7.287
1733,0.866,36.876,29.194,32.237,27.598,4.701,6.057,7.207
1734,0.882,37.028,29.008,32.227,27.598,4.701,6.056,7.084
1735,0.889,37.164,29.174,32.237,27.605,4.742,6.015,7.123
1736,0.899,37.203,28.933,32.246,27.605,4.823,6.218,7.165
1737,0.899,36.83,29.157,32.256,27.608,4.824,6.18,7.124
1738,0.899,36.979,29.269,32.237,27.602,4.824,6.261,7.165
1739,0.886,37.106,29.071,32.227,27.608,4.783,6.302,7.206
1740,0.869,37.021,29.217,32.256,27.605,4.824,6.262,7.165
1741,0.859,36.857,28.965,32.247,27.602,4.824,6.221,7.165
1742,0.869,37.009,29.193,32.237,27.601,4.824,6.22,7.124
1743,0.866,37.116,29.261,32.218,27.601,4.783,6.261,7.124
1744,0.856,36.867,29.047,32.237,27.605,4.783,6.221,7.165
1745,0.869,36.922,29.229,32.237,27.605,4.742,6.302,7.084
1746,0.882,37.076,29.051,32.218,27.608,4.783,6.302,7.123
1747,0.882,37.193,29.158,32.256,27.612,4.905,6.384,7.124
1748,0.889,36.686,28.988,32.256,27.609,4.906,6.466,7.205
1749,0.882,36.786,29.197,32.218,27.605,4.825,6.467,7.206
1750,0.895,36.893,29.027,32.227,27.598,4.743,6.467,7.084
1751,0.902,36.98,29.232,32.208,27.598,4.701,6.223,7.002
1752,0.892,36.799,29.203,32.198,27.598,4.66,6.342,6.96
1753,0.902,36.95,29.012,32.189,27.598,4.66,6.303,6.919
1754,0.895,37.096,29.205,32.198,27.598,4.66,6.302,6.878
1755,0.899,37.193,28.949,32.236,27.591,4.7,6.262,6.837
1756,0.905,36.667,29.134,32.199,27.601,4.782,6.302,6.837
1757,0.908,36.805,29.233,32.189,27.598,4.702,6.302,6.877
1758,0.899,36.951,29.106,32.198,27.601,4.823,6.384,6.877
1759,0.912,37.019,29.089,32.217,27.605,4.743,6.385,6.837
1760,0.886,36.732,28.964,32.218,27.602,4.701,6.303,6.837
1761,0.872,36.854,29.197,32.179,27.601,4.742,6.425,6.877
1762,0.876,36.97,28.988,32.169,27.598,4.701,6.304,6.837
1763,0.879,37.038,29.193,32.179,27.591,4.701,6.262,6.714
1764,0.879,36.694,29.234,32.179,27.605,4.742,6.221,6.713
1765,0.885,36.882,29.141,32.198,27.605,4.783,6.261,6.794
1766,0.892,36.999,29.241,32.208,27.608,4.824,6.384,6.836
1767,0.895,37.01,28.996,32.208,27.605,4.865,6.385,6.877
1768,0.895,36.857,29.189,32.198,27.608,4.824,6.385,6.837
1769,0.905,36.98,29.043,32.208,27.608,4.824,6.344,6.837
1770,0.908,37.106,29.19,32.179,27.602,4.743,6.384,6.755
1771,0.905,36.867,29.218,32.188,27.608,4.823,6.303,6.754
1772,0.889,36.74,28.977,32.198,27.605,4.824,6.343,6.754
1773,0.892,36.892,29.197,32.189,27.605,4.783,6.303,6.754
1774,0.899,36.98,29.051,32.188,27.602,4.742,6.384,6.754
1775,0.905,36.693,29.229,32.208,27.601,4.742,6.303,6.714
1776,0.902,36.796,29.039,32.227,27.615,4.864,6.384,6.672
1777,0.889,36.922,29.193,32.208,27.615,4.865,6.385,6.835
1778,0.889,37.009,29.218,32.198,27.612,4.824,6.385,6.877
1779,0.892,36.617,29.078,32.169,27.605,4.783,6.303,6.918
1780,0.882,36.738,29.202,32.16,27.598,4.702,6.302,6.878
1781,0.879,36.873,28.992,32.159,27.598,4.701,6.221,6.959
1782,0.879,36.961,29.212,32.159,27.598,4.66,6.22,7.041
1783,0.872,36.521,28.969,32.179,27.601,4.66,6.22,7.164
1784,0.879,36.708,29.15,32.179,27.591,4.7,6.22,7.206
1785,0.885,36.834,28.98,32.16,27.601,4.782,6.261,7.45
1786,0.879,36.922,29.146,32.179,27.601,4.742,6.262,7.534
1787,0.879,36.53,29.226,32.179,27.601,4.783,6.262,7.697
1788,0.885,36.679,29.051,32.188,27.601,4.783,6.262,7.78
1789,0.892,36.805,29.268,32.169,27.591,4.783,6.221,7.903
1790,0.892,36.835,29.024,32.15,27.594,4.661,6.302,7.945
1791,0.902,36.577,29.166,32.14,27.594,4.66,6.221,7.986
1792,0.892,36.756,28.882,32.178,27.591,4.66,6.18,7.946
1793,0.902,36.893,29.141,32.188,27.608,4.782,6.261,8.148
1794,0.902,36.923,29.241,32.179,27.605,4.864,6.302,8.232
1795,0.895,36.616,29.016,32.198,27.598,4.824,6.343,8.273
1796,0.892,36.766,29.213,32.189,27.605,4.824,6.343,8.314
1797,0.899,36.883,29.023,32.169,27.605,4.783,6.303,8.274
1798,0.899,36.923,29.174,32.169,27.598,4.824,6.221,8.314
1799,0.889,36.741,28.972,32.16,27.601,4.743,6.261,8.274
1800,0.882,36.892,29.162,32.169,27.612,4.823,6.262,8.274
1801,0.879,37.009,29.195,32.169,27.605,4.783,6.262,8.193
1802,0.882,36.665,29.113,32.169,27.605,4.824,6.262,8.273
1803,0.892,36.604,29.194,32.169,27.605,4.783,6.262,8.193
1804,0.902,36.766,29.023,32.198,27.605,4.783,6.262,8.192
1805,0.889,36.864,29.271,32.189,27.619,4.864,6.343,8.354
1806,0.892,36.529,28.985,32.179,27.609,4.824,6.384,8.397
1807,0.892,36.603,29.197,32.169,27.602,4.783,6.303,8.438
1808,0.892,36.728,28.957,32.15,27.598,4.742,6.18,8.316
1809,0.899,36.835,29.189,32.14,27.598,4.701,6.139,8.234
1810,0.902,36.452,29.117,32.14,27.598,4.701,6.138,8.233
1811,0.886,36.602,29.054,32.14,27.591,4.742,6.179,8.273
1812,0.889,36.757,29.209,32.159,27.598,4.701,6.139,8.355
1813,0.889,36.845,28.992,32.14,27.598,4.701,6.098,8.275
1814,0.869,36.663,29.205,32.14,27.605,4.742,6.178,8.314
1815,0.866,36.834,29.012,32.15,27.605,4.701,6.139,8.356
1816,0.869,36.97,29.248,32.15,27.602,4.742,6.138,8.356
1817,0.866,37.0,28.981,32.121,27.591,4.783,6.179,8.315
1818,0.866,36.463,29.072,32.121,27.591,4.661,6.017,8.193
1819,0.869,36.621,29.213,32.13,27.591,4.66,6.056,8.151
1820,0.869,36.776,29.102,32.15,27.601,4.782,6.137,8.273
1821,0.866,36.826,29.249,32.15,27.605,4.783,6.179,8.193
1822,0.872,36.567,29.039,32.169,27.608,4.783,6.139,8.273
1823,0.863,36.747,29.209,32.169,27.605,4.824,6.26,8.274
1824,0.856,36.883,28.934,32.15,27.605,4.865,6.139,8.233
1825,0.853,36.913,29.161,32.15,27.605,4.824,6.179,8.192
1826,0.856,36.52,29.019,32.15,27.605,4.783,6.261,8.151
1827,0.859,36.679,29.123,32.15,27.602,4.742,6.18,8.11
1828,0.859,36.767,29.261,32.15,27.605,4.742,6.179,8.069
1829,0.853,37.161,29.047,32.159,27.605,4.742,6.139,8.069
1830,0.866,36.695,29.154,32.14,27.608,4.742,6.138,8.028
1831,0.866,36.853,28.953,32.169,27.608,4.701,6.179,8.027
1832,0.862,36.961,29.169,32.179,27.615,4.863,6.301,8.068
1833,0.856,36.521,29.281,32.179,27.609,4.906,6.18,8.069
1834,0.846,36.478,29.106,32.141,27.602,4.784,6.139,7.987
1835,0.853,36.621,29.221,32.13,27.591,4.702,6.179,7.905
1836,0.846,36.728,29.039,32.121,27.598,4.701,6.057,7.863
1837,0.853,36.662,29.139,32.121,27.598,4.701,6.097,7.7
1838,0.846,36.776,28.964,32.13,27.595,4.66,6.097,7.699
1839,0.84,36.912,29.2,32.13,27.601,4.66,6.097,7.699
1840,0.846,37.009,29.055,32.13,27.601,4.741,6.016,7.699
1841,0.846,36.406,29.205,32.14,27.601,4.742,6.096,7.74
1842,0.853,36.553,28.926,32.14,27.601,4.742,6.097,7.781
1843,0.84,36.727,29.106,32.13,27.601,4.742,6.138,7.822
1844,0.839,36.787,29.249,32.13,27.598,4.823,6.179,7.903
1845,0.839,36.672,29.004,32.121,27.591,4.661,6.017,7.904
1846,0.843,36.844,29.185,32.111,27.587,4.66,5.974,7.823
1847,0.843,36.999,29.023,32.13,27.605,4.7,6.055,7.944
1848,0.859,37.048,29.224,32.13,27.605,4.823,6.178,7.945
1849,0.846,36.483,28.922,32.159,27.608,4.824,6.179,8.067
1850,0.866,36.65,29.134,32.159,27.605,4.743,6.139,8.069
1851,0.866,36.767,28.96,32.131,27.608,4.823,6.138,8.069
1852,0.859,36.835,29.185,32.15,27.608,4.824,6.179,8.069
1853,0.859,36.558,29.195,32.14,27.605,4.783,6.139,8.109
1854,0.859,36.708,29.078,32.14,27.602,4.742,6.098,8.028
1855,0.849,36.844,29.284,32.13,27.605,4.742,6.056,8.068
1856,0.84,36.855,28.95,32.14,27.602,4.701,6.137,8.028
1857,0.862,36.615,29.181,32.14,27.598,4.742,6.138,7.946
1858,0.846,36.776,29.093,32.13,27.605,4.783,6.138,8.026
1859,0.856,36.893,29.163,32.14,27.608,4.702,6.098,7.946
1860,0.846,37.019,29.218,32.159,27.612,4.863,6.138,7.945
1861,0.84,36.694,29.004,32.159,27.612,4.906,6.219,8.067
1862,0.836,36.834,29.166,32.15,27.609,4.825,6.261,7.946
1863,0.826,36.922,28.972,32.121,27.608,4.865,6.221,7.905
1864,0.843,36.683,29.208,32.111,27.598,4.662,6.098,7.823
1865,0.839,36.719,28.941,32.111,27.598,4.66,6.097,7.659
1866,0.849,36.883,29.149,32.101,27.598,4.66,6.056,7.698
1867,0.843,36.98,29.237,32.111,27.601,4.741,6.056,7.658
1868,0.836,36.444,29.012,32.111,27.605,4.701,6.097,7.658
1869,0.846,36.563,29.22,32.13,27.595,4.742,6.056,7.658
1870,0.849,36.708,29.008,32.121,27.598,4.783,6.097,7.617
1871,0.853,36.796,29.232,32.102,27.601,4.742,6.097,7.617
1872,0.849,36.653,29.067,32.101,27.598,4.701,6.138,7.617
1873,0.84,36.824,29.108,32.111,27.605,4.701,6.219,7.535
1874,0.839,36.922,29.182,32.082,27.591,4.66,6.058,7.494
1875,0.846,37.028,29.027,32.082,27.587,4.66,6.056,7.453
1876,0.859,36.502,29.182,32.101,27.594,4.741,6.015,7.371
1877,0.856,36.669,28.98,32.111,27.601,4.742,6.137,7.411
1878,0.853,36.805,29.255,32.111,27.605,4.823,6.219,7.452
1879,0.853,36.864,28.985,32.121,27.605,4.824,6.18,7.452
1880,0.827,36.491,29.084,32.111,27.605,4.824,6.179,7.371
1881,0.839,36.64,29.186,32.13,27.608,4.824,6.22,7.33
1882,0.833,36.748,29.062,32.092,27.598,4.743,6.139,7.41
1883,0.817,36.806,29.225,32.101,27.605,4.783,6.179,7.371
1884,0.829,36.529,28.945,32.101,27.605,4.824,6.139,7.33
1885,0.839,36.689,29.177,32.111,27.602,4.743,6.138,7.289
1886,0.843,36.815,29.047,32.101,27.598,4.742,6.138,7.207
1887,0.853,36.845,29.123,32.111,27.605,4.742,6.179,7.287
1888,0.856,36.663,29.198,32.13,27.605,4.823,6.139,7.207
1889,0.859,36.824,29.035,32.14,27.612,4.905,6.301,7.247
1890,0.862,36.912,29.271,32.121,27.612,4.906,6.262,7.288
1891,0.853,36.798,29.059,32.121,27.602,4.784,6.221,7.166
1892,0.827,36.538,29.229,32.082,27.601,4.742,6.18,7.043
1893,0.81,36.699,28.961,32.082,27.598,4.579,6.057,7.042
1894,0.803,36.825,29.161,32.082,27.601,4.7,6.015,7.042
1895,0.823,36.548,29.171,32.082,27.595,4.62,6.137,7.001
1896,0.826,36.632,29.023,32.092,27.598,4.7,6.098,6.96
1897,0.83,36.767,29.221,32.092,27.598,4.66,6.097,6.878
1898,0.839,36.873,29.094,32.092,27.598,4.66,6.178,6.959
1899,0.843,36.472,29.167,32.101,27.598,4.741,6.139,6.878
1900,0.83,36.592,28.953,32.092,27.601,4.742,6.138,6.959
1901,0.826,36.747,29.15,32.092,27.605,4.742,6.138,6.96
1902,0.807,36.816,29.226,32.082,27.602,4.742,6.138,6.878
1903,0.807,36.462,29.106,32.072,27.598,4.742,6.057,6.796
1904,0.823,36.65,29.225,32.072,27.584,4.579,6.015,6.795
1905,0.826,36.786,29.0,32.082,27.594,4.659,6.015,6.795
1906,0.833,36.864,29.244,32.111,27.605,4.741,6.137,6.877
1907,0.836,36.577,28.953,32.101,27.602,4.783,6.179,6.837
1908,0.843,36.737,29.118,32.101,27.605,4.824,6.22,6.918
1909,0.843,36.844,29.249,32.111,27.608,4.783,6.18,6.878
1910,0.849,36.903,29.086,32.101,27.608,4.742,6.179,6.918
1911,0.846,36.472,29.221,32.101,27.608,4.701,6.098,6.878
1912,0.836,36.64,28.899,32.101,27.605,4.742,6.138,6.837
1913,0.846,36.767,29.11,32.101,27.602,4.783,6.179,6.877
1914,0.836,36.787,29.225,32.082,27.601,4.742,6.179,6.837
1915,0.839,36.471,29.027,32.111,27.598,4.701,6.098,6.796
1916,0.833,36.64,29.193,32.082,27.601,4.742,6.097,6.836
1917,0.839,36.757,29.015,32.101,27.612,4.742,6.178,6.755
1918,0.817,36.797,29.174,32.111,27.615,4.864,6.261,6.876
1919,0.826,36.615,28.957,32.092,27.605,4.865,6.221,6.877
1920,0.823,36.718,29.15,32.082,27.605,4.743,6.139,6.796
1921,0.81,36.835,29.195,32.072,27.591,4.62,6.098,6.714
1922,0.816,36.615,29.101,32.063,27.598,4.659,6.097,6.632
1923,0.807,36.469,29.163,32.063,27.598,4.7,6.056,6.59
1924,0.82,36.631,28.984,32.082,27.598,4.62,6.097,6.59
1925,0.817,36.747,29.201,32.072,27.598,4.741,6.016,6.549
1926,0.823,36.518,28.844,32.101,27.598,4.742,6.015,6.59
1927,0.817,36.612,29.129,32.092,27.598,4.701,6.056,6.631
1928,0.826,36.747,29.007,32.082,27.598,4.66,6.097,6.59
1929,0.83,36.854,29.177,32.082,27.601,4.7,6.138,6.712
1930,0.839,36.251,29.191,32.063,27.598,4.701,6.098,6.713
1931,0.833,36.398,28.941,32.053,27.591,4.66,6.097,6.672
1932,0.839,36.544,29.169,32.072,27.584,4.619,6.016,6.591
1933,0.846,36.651,28.949,32.082,27.598,4.659,6.056,6.671
1934,0.833,36.393,29.107,32.092,27.605,4.741,6.137,6.875
1935,0.839,36.563,29.198,32.101,27.608,4.742,6.219,6.959
1936,0.846,36.689,29.058,32.101,27.602,4.823,6.18,7.0
1937,0.836,36.738,29.178,32.092,27.605,4.783,6.179,7.082
1938,0.823,36.365,28.918,32.082,27.602,4.742,6.22,7.123
1939,0.826,36.515,29.157,32.082,27.608,4.783,6.18,7.165
1940,0.823,36.67,29.187,32.072,27.605,4.783,6.179,7.165
1941,0.813,36.709,29.113,32.072,27.602,4.783,6.179,7.206
1942,0.82,36.432,29.233,32.072,27.598,4.783,6.179,7.206
1943,0.813,36.611,28.949,32.072,27.598,4.824,6.098,7.287
1944,0.833,36.747,29.204,32.072,27.605,4.743,6.138,7.329
1945,0.826,36.797,29.191,32.091,27.608,4.783,6.179,7.37
1946,0.826,36.5,29.078,32.101,27.612,4.864,6.301,7.452
1947,0.823,36.641,29.252,32.101,27.612,4.906,6.221,7.452
1948,0.83,36.738,29.047,32.082,27.598,4.825,6.22,7.493
1949,0.833,36.748,29.154,32.063,27.605,4.743,6.098,7.412
1950,0.833,36.451,28.917,32.053,27.595,4.62,6.016,7.249
1951,0.836,36.602,29.099,32.053,27.594,4.741,6.056,7.288
1952,0.836,36.728,29.182,32.053,27.594,4.701,6.015,7.329
1953,0.833,36.384,29.019,32.053,27.598,4.701,6.015,7.289
1954,0.833,36.294,29.178,32.063,27.598,4.742,6.015,7.369
1955,0.826,36.437,28.968,32.072,27.595,4.783,6.015,7.289
1956,0.817,36.544,29.177,32.063,27.598,4.742,6.137,7.207
1957,0.813,36.411,29.203,32.063,27.598,4.701,6.057,7.247
1958,0.807,36.544,29.035,32.063,27.598,4.742,6.056,7.328
1959,0.803,36.641,29.264,32.063,27.605,4.742,6.178,7.329
1960,0.807,36.738,29.012,32.043,27.591,4.661,6.098,7.207
1961,0.826,36.231,29.115,32.034,27.598,4.66,6.056,7.125
1962,0.839,36.379,29.136,32.072,27.591,4.66,6.015,7.124
1963,0.833,36.534,29.019,32.063,27.598,4.7,6.137,7.124
1964,0.839,36.641,29.24,32.063,27.605,4.742,6.057,7.124
1965,0.826,36.364,28.965,32.072,27.605,4.742,6.137,7.205
1966,0.823,36.515,29.165,32.063,27.612,4.823,6.179,7.165
1967,0.817,36.641,29.042,32.072,27.612,4.702,6.098,7.165
1968,0.82,36.719,29.084,32.072,27.602,4.782,6.138,7.165
1969,0.82,36.307,29.182,32.053,27.598,4.783,6.098,7.165
1970,0.82,36.466,29.043,32.063,27.605,4.783,6.097,7.084
1971,0.836,36.602,29.232,32.043,27.612,4.783,6.138,7.083
1972,0.826,36.642,29.039,32.043,27.602,4.702,6.098,7.042
1973,0.843,36.258,29.115,32.062,27.605,4.823,6.097,7.082
1974,0.843,36.437,29.058,32.053,27.598,4.743,6.138,7.002
1975,0.849,36.573,29.155,32.082,27.605,4.783,6.138,6.96
1976,0.83,36.593,29.23,32.092,27.612,4.905,6.219,7.082
1977,0.852,36.325,28.992,32.063,27.605,4.865,6.302,7.083
1978,0.84,36.447,29.205,32.053,27.612,4.824,6.18,7.002
1979,0.83,36.544,28.992,32.043,27.602,4.702,6.139,6.919
1980,0.813,36.958,29.13,32.034,27.601,4.66,6.016,6.919
1981,0.82,36.29,29.108,32.034,27.595,4.7,6.056,6.796
1982,0.813,36.437,29.058,32.034,27.591,4.66,6.015,6.755
1983,0.823,36.554,29.217,32.043,27.598,4.66,6.056,6.714
1984,0.826,36.497,28.906,32.043,27.598,4.7,6.015,6.794
1985,0.833,36.573,29.122,32.034,27.595,4.742,6.096,6.714
1986,0.865,36.718,29.198,32.053,27.601,4.701,6.138,6.754
1987,0.872,36.806,29.133,32.024,27.598,4.701,6.098,6.795
1988,0.872,36.27,29.179,32.072,27.598,4.66,6.056,6.836
1989,0.879,36.322,28.965,32.044,27.598,4.741,6.056,6.796
1990,0.895,36.457,29.161,32.024,27.591,4.701,6.015,6.877
1991,0.908,36.554,28.984,32.024,27.584,4.66,5.974,6.877
1992,0.915,36.699,29.162,32.024,27.598,4.66,6.015,6.918
1993,0.931,36.854,29.21,32.072,27.605,4.782,6.096,7.041
1994,0.928,36.989,29.016,32.053,27.605,4.742,6.138,7.204
1995,0.931,37.067,29.209,32.053,27.602,4.783,6.219,7.328
1996,0.918,35.822,28.961,32.063,27.605,4.742,6.18,7.451
1997,0.922,35.953,29.189,32.043,27.602,4.701,6.139,7.534
1998,0.925,36.098,28.984,32.024,27.605,4.782,6.138,7.616
1999,0.915,36.176,29.087,32.043,27.602,4.783,6.219,7.779
2000,0.931,36.263,29.143,32.053,27.605,4.742,6.18,7.903
2001,0.912,36.408,29.038,32.053,27.605,4.742,6.139,7.985
2002,0.905,36.544,29.186,32.053,27.602,4.701,6.219,7.986
2003,0.905,36.603,28.98,32.034,27.598,4.782,6.139,8.068
2004,0.912,36.181,29.158,32.034,27.595,4.783,6.179,8.15
2005,0.918,36.359,29.136,32.053,27.605,4.824,6.261,8.15
2006,0.918,36.467,29.128,32.063,27.615,4.946,6.343,8.273
2007,0.909,36.487,29.167,32.053,27.612,4.825,6.262,8.314
2008,0.902,36.219,28.996,32.043,27.602,4.743,6.221,8.234
2009,0.899,36.35,29.17,32.015,27.591,4.701,6.139,8.233
2010,0.908,36.476,28.988,32.024,27.594,4.701,6.138,8.233
2011,0.918,36.65,29.193,32.005,27.598,4.66,6.138,8.151
2012,0.928,36.105,29.043,32.005,27.595,4.66,6.179,8.191
2013,0.925,36.272,29.076,32.014,27.601,4.66,6.139,8.232
2014,0.922,36.399,29.241,32.024,27.598,4.7,6.179,8.233
2015,0.918,36.208,28.961,32.024,27.601,4.701,6.179,8.355
2016,0.912,36.254,29.165,32.024,27.598,4.742,6.22,8.356
2017,0.905,36.408,29.015,32.005,27.598,4.701,6.18,8.437
2018,0.912,36.467,29.131,32.005,27.601,4.742,6.139,8.519
2019,0.915,36.113,28.98,31.995,27.591,4.742,6.138,8.561
2020,0.925,36.253,29.08,31.995,27.584,4.62,6.098,8.521
2021,0.925,36.408,29.202,32.014,27.598,4.7,6.138,8.601
2022,0.935,36.486,29.047,32.033,27.605,4.701,6.219,8.765
2023,0.905,36.132,29.182,32.043,27.605,4.863,6.22,8.929
2024,0.925,36.282,28.929,32.043,27.605,4.784,6.22,8.972
2025,0.931,36.418,29.196,32.043,27.608,4.783,6.22,8.972
2026,0.935,36.506,28.879,32.043,27.602,4.742,6.302,8.972
2027,0.915,36.046,29.102,32.024,27.598,4.783,6.262,9.094
2028,0.935,36.205,29.214,32.024,27.605,4.783,6.343,9.054
2029,0.931,36.331,29.055,32.014,27.602,4.824,6.221,9.054
2030,0.931,36.409,29.182,32.014,27.605,4.783,6.302,9.054
2031,0.922,36.036,28.933,32.005,27.595,4.742,6.262,9.013
2032,0.925,36.204,29.142,32.005,27.605,4.742,6.262,9.013
2033,0.944,36.331,28.933,32.024,27.605,4.823,6.221,8.972
2034,0.919,36.418,29.028,32.043,27.608,4.905,6.302,8.972
2035,0.918,36.16,29.189,32.043,27.615,4.987,6.425,9.013
2036,0.892,36.292,29.086,32.015,27.612,4.826,6.304,8.932
2037,0.895,36.408,29.19,31.995,27.602,4.702,6.262,8.931
2038,0.876,36.429,28.863,31.985,27.595,4.742,6.221,8.809
2039,0.859,36.074,29.098,31.985,27.591,4.701,6.18,8.686
2040,0.856,36.243,29.241,31.995,27.594,4.701,6.179,8.684
2041,0.856,36.37,29.199,31.995,27.594,4.66,6.139,8.644
2042,0.869,36.371,29.207,31.985,27.598,4.7,6.219,8.562
2043,0.863,36.179,29.008,31.985,27.598,4.701,6.18,8.561
2044,0.872,36.331,29.224,31.995,27.598,4.701,6.22,8.521
2045,0.882,36.447,28.938,31.985,27.601,4.701,6.22,8.52
2046,0.879,36.055,29.153,32.004,27.598,4.823,6.139,8.479
2047,0.879,36.099,28.999,32.005,27.598,4.743,6.219,8.52
2048,0.882,36.215,29.185,31.985,27.598,4.701,6.22,8.439
2049,0.885,36.331,29.132,31.976,27.591,4.66,6.18,8.357
2050,0.892,36.092,29.015,31.956,27.598,4.619,6.139,8.275
2051,0.895,36.243,29.181,32.004,27.595,4.659,6.098,8.233
2052,0.892,36.37,29.047,32.005,27.598,4.782,6.178,8.192
2053,0.886,36.476,29.131,32.014,27.612,4.783,6.261,8.232
2054,0.879,36.027,28.917,32.005,27.602,4.742,6.221,8.273
2055,0.889,36.147,29.134,32.005,27.612,4.823,6.261,8.233
2056,0.882,36.282,29.187,32.014,27.609,4.783,6.262,8.151
2057,0.876,36.36,28.969,31.995,27.608,4.824,6.302,8.11
2058,0.866,36.083,29.208,32.014,27.605,4.824,6.221,8.028
2059,0.866,36.234,28.961,31.985,27.602,4.783,6.302,8.027
2060,0.856,36.369,29.06,32.004,27.605,4.783,6.262,7.946
2061,0.853,36.476,29.166,32.014,27.598,4.824,6.221,7.905
2062,0.859,35.988,29.015,31.985,27.601,4.743,6.22,7.863
2063,0.84,36.127,29.209,32.004,27.601,4.742,6.18,7.822
2064,0.843,36.292,28.988,32.005,27.598,4.742,6.179,7.822
2065,0.843,36.36,29.197,32.005,27.605,4.742,6.22,7.781
2066,0.839,36.102,28.961,32.014,27.612,4.905,6.261,7.862
2067,0.813,36.243,29.122,32.005,27.609,4.825,6.343,8.026
2068,0.813,36.37,29.186,31.995,27.608,4.824,6.221,8.027
2069,0.807,36.39,29.0,31.966,27.605,4.783,6.18,7.987
2070,0.813,35.997,29.228,31.975,27.598,4.742,6.179,7.946
2071,0.813,36.137,29.02,31.966,27.598,4.701,6.057,8.026
2072,0.813,36.282,29.162,31.947,27.588,4.742,6.137,8.068
2073,0.813,36.197,29.163,31.966,27.598,4.742,6.138,7.987
2074,0.803,36.091,29.078,31.975,27.595,4.701,6.098,8.027
2075,0.794,36.234,29.178,31.985,27.601,4.782,6.138,8.109
2076,0.793,36.36,28.914,31.985,27.598,4.783,6.179,8.191
2077,0.803,35.958,29.149,31.966,27.605,4.783,6.139,8.151
2078,0.797,36.012,28.968,31.995,27.595,4.742,6.179,8.11
2079,0.794,36.137,29.095,31.966,27.601,4.783,6.22,8.191
2080,0.777,36.244,29.132,31.966,27.598,4.783,6.139,8.192
2081,0.787,35.938,28.948,31.947,27.598,4.661,6.138,8.029
2082,0.793,36.127,29.165,31.946,27.595,4.66,6.098,8.068
2083,0.79,36.234,29.011,31.975,27.601,4.782,6.097,7.987
2084,0.81,36.369,29.178,31.985,27.608,4.824,6.178,8.108
2085,0.803,35.891,28.929,31.985,27.612,4.824,6.22,8.109
2086,0.803,36.03,29.165,31.976,27.609,4.865,6.18,8.069
2087,0.81,36.176,29.175,32.043,27.608,4.784,6.179,8.109
2088,0.816,36.254,29.07,31.976,27.602,4.824,6.179,8.15
2089,0.816,36.063,29.241,31.976,27.601,4.783,6.179,8.069
2090,0.813,36.205,29.086,31.966,27.601,4.742,6.139,8.028
2091,0.823,36.331,29.202,31.975,27.601,4.742,6.138,8.027
2092,0.833,36.409,28.863,31.976,27.601,4.864,6.098,7.987
2093,0.843,35.834,29.137,31.966,27.601,4.824,6.178,7.946
2094,0.849,35.982,29.023,31.956,27.598,4.702,6.179,7.905
2095,0.853,36.146,29.1,31.985,27.601,4.742,6.179,7.945
2096,0.862,36.215,29.186,31.985,27.608,4.823,6.22,7.864
2097,0.885,35.957,29.047,32.004,27.615,4.905,6.302,7.985
2098,0.892,36.108,29.182,31.995,27.609,4.906,6.302,7.986
2099,0.934,36.224,28.91,31.966,27.602,4.784,6.18,7.864
2100,0.964,36.245,29.098,31.966,27.598,4.742,6.179,7.782
2101,1.007,35.948,29.077,31.947,27.598,4.742,6.139,7.7
2102,1.049,36.088,29.12,31.946,27.595,4.661,6.098,7.699
2103,1.115,36.205,29.128,31.946,27.594,4.66,6.097,7.699
2104,1.161,36.101,29.023,31.956,27.598,4.7,6.138,7.658
2105,1.194,36.071,29.217,31.927,27.598,4.742,6.138,7.658
2106,1.246,36.205,28.856,31.946,27.598,4.661,6.057,7.617
2107,1.305,36.331,29.113,31.946,27.595,4.741,6.137,7.698
2108,1.368,35.901,29.194,31.956,27.594,4.742,6.098,7.618
2109,1.43,35.983,29.086,31.956,27.598,4.783,6.178,7.617
2110,1.502,36.108,29.174,31.947,27.601,4.742,6.139,7.617
2111,1.578,36.205,28.82,31.927,27.595,4.742,6.138,7.535
2112,1.66,35.871,29.137,31.927,27.591,4.579,5.976,7.453
2113,1.716,36.021,28.937,31.927,27.591,4.659,6.055,7.452
2114,1.785,36.166,29.099,31.956,27.598,4.7,6.137,7.452
2115,1.851,36.283,29.178,31.975,27.601,4.782,6.179,7.412
2116,1.9,35.891,29.086,31.956,27.605,4.824,6.179,7.533
2117,1.923,36.03,29.209,31.966,27.605,4.824,6.139,7.453
2118,1.943,36.204,28.934,31.985,27.602,4.824,6.219,7.534
2119,1.989,36.273,29.114,31.947,27.608,4.783,6.139,7.575
2120,2.015,35.89,29.214,31.966,27.595,4.742,6.098,7.616
2121,2.022,36.04,29.164,31.956,27.605,4.823,6.097,7.617
2122,2.052,36.185,29.214,31.956,27.598,4.783,6.097,7.617
2123,2.039,36.244,29.039,31.947,27.605,4.824,6.178,7.698
2124,2.035,37.041,29.193,31.946,27.605,4.783,6.057,7.658
2125,2.026,37.183,28.969,31.937,27.602,4.742,6.056,7.698
2126,2.022,37.347,29.161,31.966,27.605,4.823,6.137,7.699
2127,2.003,37.349,28.941,31.985,27.615,4.865,6.219,7.78
2128,1.999,35.172,29.173,31.966,27.612,4.824,6.22,7.862
2129,1.963,35.294,29.156,31.956,27.605,4.824,6.18,7.863
2130,1.882,35.411,28.929,31.937,27.602,4.702,6.179,7.782
2131,1.787,35.508,29.157,31.937,27.598,4.742,6.057,7.74
2132,1.682,36.084,28.906,31.927,27.591,4.661,6.015,7.74
2133,1.544,36.243,29.145,31.927,27.591,4.7,6.015,7.699
2134,1.422,36.36,28.949,31.937,27.591,4.66,6.096,7.78
2135,1.314,35.767,29.138,31.927,27.591,4.741,6.097,7.781
2136,1.195,35.626,29.194,31.927,27.594,4.661,6.097,7.903
2137,1.067,35.798,29.054,31.927,27.598,4.7,6.056,7.985
2138,0.936,35.924,29.197,31.946,27.601,4.701,6.097,8.19
2139,0.798,35.743,28.98,31.918,27.601,4.66,6.097,8.476
2140,0.673,35.866,29.216,31.946,27.595,4.741,6.138,8.601
2141,0.552,35.992,28.996,31.918,27.598,4.742,6.057,8.968
2142,0.459,36.099,29.021,31.927,27.584,4.661,6.015,9.257
2143,0.361,35.668,29.17,31.927,27.587,4.579,5.974,9.544
2144,0.278,35.798,29.062,31.927,27.598,4.7,6.015,10.157
2145,0.213,35.972,29.162,31.985,27.601,4.701,6.137,10.651
2146,0.17,36.05,28.898,31.937,27.608,4.823,6.138,11.266
2147,0.143,35.965,29.165,31.927,27.605,4.824,6.219,11.841
2148,0.114,36.117,29.16,31.965,27.602,4.824,6.22,12.375
2149,0.097,36.253,28.867,31.975,27.601,4.783,6.139,12.787
2150,0.1,36.312,29.145,31.937,27.605,4.742,6.179,13.116
2151,0.09,35.67,28.933,31.927,27.605,4.742,6.139,13.445
2152,0.103,35.846,29.165,31.937,27.605,4.864,6.138,13.733
