time,ecg,bvp,gsr,rsp,skt,emg_zygo,emg_coru,emg_trap
0,1.01,34.893,19.389,35.131,26.224,4.865,8.233,20.518
1,1.023,35.004,19.425,35.112,26.224,4.784,8.273,20.146
2,1.017,35.111,19.425,35.112,26.224,4.742,8.274,19.858
3,1.036,35.198,19.425,35.131,26.224,4.823,8.193,19.692
4,1.04,34.921,19.382,35.131,26.224,4.865,8.273,19.609
5,1.043,35.081,19.358,35.121,26.231,4.702,8.314,19.609
6,1.04,35.188,19.401,35.131,26.224,4.701,8.274,19.486
7,1.066,35.275,19.398,35.121,26.224,4.782,8.274,19.323
8,1.069,34.874,19.32,35.112,26.22,4.824,8.274,19.199
9,1.076,35.013,19.358,35.14,26.227,4.824,8.274,19.198
10,1.073,35.149,19.358,35.131,26.224,4.865,8.233,18.913
11,1.056,35.179,19.358,35.141,26.227,4.865,8.273,18.707
12,1.053,35.342,19.413,35.083,26.217,4.824,8.233,18.542
13,1.063,35.498,19.433,35.102,26.217,4.702,8.151,18.216
14,1.056,35.624,19.449,35.131,26.224,4.782,8.273,18.131
15,1.073,35.702,19.39,35.141,26.227,4.824,8.355,18.008
16,1.066,35.194,19.359,35.131,26.241,4.824,8.234,18.007
17,1.082,35.333,19.417,35.15,26.231,4.865,8.314,17.885
18,1.07,35.449,19.406,35.141,26.231,4.865,8.274,17.762
19,1.066,35.719,19.355,35.141,26.231,4.906,8.274,17.598
20,1.082,34.84,19.335,35.131,26.231,4.906,8.274,17.352
21,1.092,34.975,19.346,35.169,26.227,4.825,8.274,17.147
22,1.096,35.082,19.331,35.141,26.227,4.905,8.314,16.819
23,1.092,34.958,19.346,35.122,26.231,4.825,8.234,16.653
24,1.105,35.033,19.409,35.121,26.227,4.865,8.233,16.367
25,1.125,35.149,19.355,35.15,26.227,4.824,8.273,16.12
26,1.135,35.285,19.374,35.179,26.231,4.865,8.233,15.915
27,1.132,34.778,19.362,35.151,26.241,4.946,8.436,15.75
28,1.135,34.878,19.425,35.15,26.227,4.866,8.438,15.626
29,1.135,34.985,19.421,35.131,26.224,4.824,8.357,15.381
30,1.122,35.053,19.363,35.121,26.224,4.824,8.397,15.094
31,1.122,34.862,19.296,35.102,26.217,4.824,8.397,14.847
32,1.132,35.004,19.295,35.112,26.22,4.783,8.397,14.601
33,1.129,35.12,19.338,35.121,26.213,4.783,8.478,14.395
34,1.138,35.208,19.374,35.121,26.227,4.783,8.479,14.19
35,1.132,34.863,19.413,35.112,26.227,4.824,8.56,13.984
36,1.142,35.042,19.324,35.121,26.224,4.783,8.48,13.82
37,1.142,35.159,19.37,35.141,26.224,4.864,8.56,13.615
38,1.132,35.198,19.382,35.141,26.224,4.784,8.521,13.45
39,1.145,34.93,19.433,35.131,26.22,4.742,8.52,13.204
40,1.148,35.062,19.433,35.102,26.217,4.701,8.439,12.958
41,1.174,35.197,19.421,35.092,26.217,4.742,8.438,12.711
42,1.178,35.237,19.39,35.14,26.227,4.783,8.479,12.587
43,1.197,34.94,19.277,35.15,26.224,4.864,8.52,12.423
44,1.211,35.072,19.338,35.15,26.227,4.824,8.601,12.34
45,1.201,35.169,19.374,35.131,26.224,4.905,8.562,12.217
46,1.201,35.179,19.394,35.15,26.227,4.906,8.521,11.972
47,1.217,35.064,19.343,35.15,26.231,4.825,8.479,11.726
48,1.227,35.197,19.339,35.141,26.227,4.824,8.398,11.601
49,1.227,35.304,19.362,35.131,26.227,4.824,8.397,11.438
50,1.227,34.941,19.409,35.121,26.224,4.865,8.316,11.314
51,1.217,35.033,19.429,35.131,26.227,4.824,8.315,11.15
52,1.227,35.13,19.41,35.15,26.227,4.824,8.274,10.986
53,1.234,35.256,19.413,35.131,26.224,4.824,8.193,10.862
54,1.237,34.797,19.406,35.16,26.234,4.865,8.192,10.78
55,1.24,34.926,19.37,35.15,26.241,5.028,8.232,10.82
56,1.244,35.024,19.405,35.141,26.231,4.907,8.192,10.698
57,1.227,35.082,19.394,35.131,26.22,4.825,8.11,10.575
58,1.23,34.939,19.327,35.112,26.224,4.783,8.069,10.411
59,1.24,35.081,19.338,35.121,26.213,4.824,8.028,10.328
60,1.247,35.198,19.358,35.112,26.224,4.743,7.987,10.205
61,1.266,35.276,19.37,35.121,26.217,4.783,7.946,10.163
62,1.283,34.912,19.401,35.102,26.22,4.783,7.864,10.122
63,1.29,35.062,19.437,35.121,26.227,4.742,7.944,10.0
64,1.299,35.178,19.418,35.121,26.217,4.823,7.945,9.917
65,1.299,35.247,19.41,35.112,26.224,4.783,7.864,9.876
66,1.306,35.257,19.355,35.121,26.217,4.864,7.944,9.835
67,1.313,35.382,19.405,35.102,26.227,4.865,7.905,9.712
68,1.313,35.469,19.37,35.092,26.224,4.784,7.945,9.589
69,1.316,35.489,19.351,35.092,26.217,4.702,7.945,9.547
70,1.335,34.895,19.354,35.15,26.217,4.742,7.905,9.425
71,1.326,35.052,19.354,35.131,26.231,4.783,7.904,9.424
72,1.326,35.159,19.362,35.121,26.227,4.905,8.026,9.586
73,1.326,35.17,19.37,35.121,26.234,4.906,8.027,9.466
74,1.329,35.189,19.456,35.141,26.238,4.906,8.109,9.505
75,1.326,35.314,19.332,35.131,26.231,4.906,7.987,9.384
76,1.339,35.411,19.374,35.131,26.231,4.865,8.108,9.423
77,1.332,35.134,19.37,35.131,26.231,4.824,8.15,9.342
78,1.326,35.265,19.417,35.112,26.234,4.824,8.028,9.342
79,1.348,35.401,19.417,35.131,26.227,4.824,8.109,9.301
80,1.342,35.479,19.382,35.131,26.231,4.865,8.109,9.219
81,1.362,35.154,19.339,35.121,26.224,4.824,8.109,9.137
82,1.375,35.313,19.311,35.15,26.231,4.946,8.109,9.095
83,1.372,35.43,19.401,35.16,26.245,5.029,8.191,9.258
84,1.378,35.498,19.382,35.141,26.234,4.948,8.11,9.3
85,1.372,35.374,19.413,35.131,26.22,4.866,8.069,9.301
86,1.365,35.517,19.292,35.121,26.22,4.784,8.028,9.301
87,1.381,35.634,19.354,35.102,26.22,4.783,7.987,9.341
88,1.395,35.673,19.35,35.102,26.22,4.783,7.946,9.382
89,1.408,35.395,19.421,35.083,26.224,4.824,7.945,9.505
90,1.398,35.527,19.425,35.092,26.224,4.783,7.905,9.709
91,1.382,35.653,19.382,35.092,26.224,4.783,7.863,9.955
92,1.395,35.692,19.358,35.092,26.224,4.905,7.863,10.161
93,1.382,35.635,19.226,35.121,26.217,4.825,7.904,10.285
94,1.382,35.788,19.353,35.102,26.227,4.824,7.904,10.571
95,1.372,35.857,19.401,35.092,26.231,4.824,7.863,10.818
96,1.365,36.164,19.378,35.083,26.22,4.783,7.822,11.227
97,1.365,35.765,19.362,35.15,26.21,4.783,7.863,11.515
98,1.378,35.914,19.335,35.083,26.22,4.742,7.822,11.925
99,1.378,36.002,19.378,35.102,26.227,4.864,7.985,12.376
100,1.382,35.869,19.413,35.121,26.227,4.987,8.068,12.706
101,1.388,35.944,19.421,35.112,26.234,4.866,8.069,13.075
102,1.382,36.079,19.417,35.121,26.234,4.906,8.069,13.323
103,1.385,36.147,19.402,35.102,26.224,4.906,8.028,13.528
104,1.388,35.985,19.386,35.112,26.231,4.906,8.109,13.653
105,1.388,36.108,19.39,35.102,26.238,4.825,8.109,13.857
106,1.382,36.244,19.429,35.102,26.227,4.865,8.069,14.062
107,1.382,36.312,19.367,35.092,26.231,4.865,8.109,14.146
108,1.404,36.102,19.374,35.111,26.227,4.824,8.028,14.309
109,1.379,36.263,19.358,35.083,26.224,4.824,8.109,14.392
110,1.388,36.351,19.354,35.083,26.227,4.865,8.15,14.393
111,1.382,36.428,19.401,35.121,26.224,4.865,8.232,14.515
112,1.365,36.362,19.429,35.121,26.238,4.946,8.273,14.679
113,1.349,36.467,19.449,35.131,26.241,5.029,8.355,14.802
114,1.345,36.554,19.351,35.112,26.234,4.948,8.437,14.803
115,1.342,36.593,19.343,35.093,26.224,4.907,8.357,14.803
116,1.326,36.459,19.393,35.073,26.22,4.865,8.234,14.681
117,1.322,36.602,19.409,35.083,26.217,4.824,8.314,14.558
118,1.303,36.709,19.363,35.073,26.224,4.824,8.234,14.638
119,1.286,36.739,19.327,35.092,26.224,4.783,8.273,14.477
120,1.283,36.739,19.338,35.083,26.22,4.783,8.274,14.312
121,1.29,36.844,19.335,35.083,26.22,4.864,8.274,14.27
122,1.29,36.951,19.338,35.092,26.227,4.865,8.314,14.188
123,1.293,36.856,19.385,35.083,26.227,4.824,8.193,13.944
124,1.283,36.721,19.417,35.083,26.224,4.905,8.273,13.86
125,1.263,36.825,19.402,35.14,26.227,4.865,8.233,13.737
126,1.26,36.912,19.343,35.064,26.224,4.865,8.151,13.614
127,1.263,36.837,19.385,35.025,26.217,4.702,8.069,13.369
128,1.254,36.97,19.437,35.072,26.217,4.742,8.069,13.122
129,1.247,37.096,19.406,35.063,26.227,4.823,8.069,13.039
130,1.24,37.174,19.359,35.092,26.231,4.946,8.109,12.997
131,1.221,36.801,19.378,35.15,26.227,4.907,8.15,12.834
132,1.208,36.922,19.347,35.093,26.227,4.865,8.11,12.71
133,1.188,37.038,19.311,35.083,26.227,4.906,8.109,12.546
134,1.175,37.116,19.405,35.083,26.231,4.906,8.15,12.423
135,1.162,36.963,19.339,35.073,26.234,4.906,8.069,12.178
136,1.148,37.125,19.362,35.102,26.227,4.906,8.15,12.053
137,1.139,37.232,19.366,35.102,26.227,4.825,8.069,12.052
138,1.112,37.281,19.413,35.073,26.227,4.824,8.109,12.093
139,1.115,37.137,19.429,35.083,26.227,4.905,8.109,12.622
140,1.119,37.27,19.402,35.102,26.231,4.865,8.232,13.399
141,1.122,37.406,19.374,35.102,26.234,4.906,8.314,14.22
142,1.112,37.407,19.327,35.102,26.234,5.028,8.437,15.042
143,1.08,37.148,19.37,35.083,26.231,4.948,8.438,15.863
144,1.076,37.27,19.358,35.073,26.22,4.744,8.479,16.928
145,1.063,37.358,19.432,35.073,26.224,4.823,8.438,18.24
146,1.063,37.378,19.324,35.073,26.22,4.783,8.519,19.758
147,1.053,37.666,19.362,35.073,26.224,4.783,8.52,21.074
148,1.056,37.793,19.378,35.044,26.217,4.783,8.601,22.144
149,1.04,37.852,19.401,35.063,26.224,4.824,8.643,22.968
150,1.027,37.268,19.421,35.054,26.231,4.824,8.847,23.586
151,1.02,37.137,19.398,35.063,26.224,4.824,8.889,23.917
152,0.997,37.27,19.37,35.063,26.224,4.783,8.93,24.002
153,0.981,37.396,19.354,35.102,26.231,4.824,9.093,23.962
154,0.971,37.254,19.362,35.054,26.224,4.905,9.176,23.718
155,0.964,37.358,19.39,35.063,26.22,4.784,9.177,23.512
156,0.958,37.464,19.366,35.025,26.22,4.742,9.177,23.022
157,0.938,37.58,19.351,35.063,26.224,4.742,9.218,22.611
158,0.941,37.38,19.346,35.073,26.227,4.864,9.34,22.241
159,0.938,37.522,19.374,35.083,26.231,4.906,9.464,21.749
160,0.935,37.629,19.421,35.073,26.238,4.906,9.465,21.338
161,0.938,37.678,19.445,35.083,26.231,4.865,9.424,20.886
162,0.932,37.324,19.425,35.063,26.231,4.865,9.424,20.353
163,0.938,37.464,19.355,35.063,26.227,4.784,9.424,19.941
164,0.932,37.59,19.358,35.073,26.227,4.864,9.342,19.571
165,0.931,37.62,19.366,35.063,26.227,4.865,9.301,19.242
166,0.922,37.371,19.413,35.063,26.227,4.865,9.301,18.995
167,0.918,37.493,19.347,35.063,26.227,4.824,9.301,19.033
168,0.928,37.619,19.378,35.044,26.224,4.824,9.26,19.115
169,0.915,37.668,19.366,35.073,26.234,4.905,9.178,19.238
170,0.905,37.343,19.393,35.083,26.238,4.987,9.218,19.402
171,0.886,37.454,19.402,35.102,26.238,4.988,9.218,19.566
172,0.885,37.523,19.433,35.054,26.227,4.866,9.178,19.486
173,0.869,37.619,19.433,35.034,26.224,4.743,9.055,19.485
174,0.856,37.381,19.371,35.034,26.22,4.823,9.013,19.201
175,0.853,37.503,19.366,35.034,26.227,4.783,9.013,19.239
176,0.846,37.59,19.37,35.034,26.22,4.742,9.013,19.32
177,0.849,37.352,19.413,35.044,26.224,4.823,8.932,19.524
178,0.849,37.426,19.324,35.044,26.217,4.783,8.931,19.648
179,0.836,37.542,19.346,35.063,26.22,4.783,8.931,19.894
180,0.846,37.658,19.339,35.054,26.227,4.742,8.85,20.059
181,0.849,37.189,19.374,35.044,26.224,4.864,8.808,20.182
182,0.83,37.309,19.394,35.034,26.227,4.824,8.767,20.143
183,0.833,37.406,19.398,35.015,26.217,4.824,8.604,20.102
184,0.836,37.503,19.413,35.015,26.217,4.783,8.521,19.817
185,0.843,37.255,19.374,35.034,26.224,4.783,8.601,19.692
186,0.839,37.386,19.362,35.053,26.231,4.824,8.562,19.447
187,0.843,37.522,19.397,35.054,26.231,4.905,8.602,19.282
188,0.859,37.571,19.409,35.063,26.227,4.906,8.562,18.995
189,0.853,37.284,19.335,35.044,26.231,4.906,8.521,18.708
190,0.853,37.435,19.323,35.082,26.231,4.987,8.439,18.38
191,0.84,37.551,19.346,35.035,26.227,4.907,8.397,18.011
192,0.83,37.591,19.37,35.053,26.231,4.906,8.356,17.641
193,0.833,37.754,19.386,35.034,26.224,4.906,8.356,17.231
194,0.817,37.881,19.448,35.044,26.231,4.865,8.315,16.942
195,0.813,37.968,19.371,35.044,26.224,4.906,8.315,16.614
196,0.82,38.027,19.366,35.044,26.227,4.906,8.193,16.367
197,0.817,37.155,19.397,35.063,26.231,4.865,8.151,16.12
198,0.807,37.261,19.445,35.063,26.238,4.987,8.354,15.915
199,0.803,37.339,19.433,35.063,26.231,4.988,8.275,15.831
200,0.803,37.272,19.363,35.035,26.234,4.907,8.193,15.464
201,0.807,37.262,19.304,35.034,26.224,4.825,8.11,15.054
202,0.813,37.387,19.272,35.015,26.22,4.783,7.987,14.847
203,0.823,37.484,19.33,35.024,26.227,4.864,7.946,14.601
204,0.817,37.072,19.354,35.015,26.224,4.784,7.986,14.395
205,0.816,37.174,19.37,35.024,26.217,4.864,7.986,14.108
206,0.813,37.299,19.292,35.025,26.22,4.784,7.946,13.902
207,0.823,37.416,19.358,35.034,26.224,4.905,7.945,13.697
208,0.826,37.177,19.378,35.005,26.224,4.865,7.905,13.41
209,0.836,37.319,19.425,35.024,26.224,4.865,7.904,13.326
210,0.823,37.435,19.433,35.034,26.224,4.784,7.863,13.162
211,0.81,37.484,19.421,35.025,26.227,4.864,7.822,12.958
212,0.803,36.881,19.359,35.015,26.22,4.824,7.863,12.793
213,0.8,37.028,19.323,35.005,26.217,4.743,7.66,12.547
214,0.807,37.164,19.346,34.996,26.224,4.783,7.698,12.26
215,0.813,37.213,19.401,35.015,26.224,4.824,7.78,12.135
216,0.79,37.089,19.394,35.024,26.224,4.987,7.862,12.012
217,0.787,37.231,19.304,35.053,26.224,4.907,7.822,11.808
218,0.793,37.348,19.354,35.044,26.234,4.987,7.863,11.724
219,0.797,37.378,19.397,35.044,26.231,4.988,7.822,11.561
220,0.8,37.033,19.421,35.044,26.231,4.948,7.863,11.397
221,0.81,37.154,19.433,35.034,26.234,4.988,7.863,11.151
222,0.803,37.28,19.421,35.034,26.227,4.907,7.904,11.067
223,0.813,37.588,19.398,35.025,26.227,4.906,7.863,10.985
224,0.826,36.997,19.374,35.044,26.224,4.906,7.944,10.903
225,0.83,37.096,19.331,35.034,26.227,4.906,7.986,10.78
226,0.833,37.212,19.409,35.015,26.22,4.906,8.027,10.698
227,0.846,36.993,19.386,35.024,26.231,4.987,7.987,10.616
228,0.856,37.067,19.319,35.072,26.238,5.07,8.19,10.777
229,0.836,37.174,19.342,35.025,26.234,5.03,8.192,10.82
230,0.833,37.232,19.346,35.025,26.227,4.989,8.07,10.82
231,0.817,36.821,19.389,34.986,26.224,4.866,8.069,10.861
232,0.82,36.951,19.413,34.986,26.22,4.865,8.028,10.942
233,0.826,37.077,19.406,35.005,26.22,4.824,8.027,11.106
234,0.817,37.155,19.374,35.005,26.22,4.783,7.987,11.27
235,0.82,36.829,19.366,35.005,26.22,4.864,8.068,11.394
236,0.83,36.96,19.358,35.005,26.224,4.865,8.028,11.558
237,0.817,37.077,19.421,35.005,26.227,4.865,8.068,11.762
238,0.813,37.155,19.374,35.005,26.224,4.865,8.028,11.846
239,0.803,36.82,19.308,35.015,26.224,4.946,8.027,11.806
240,0.807,36.97,19.334,35.024,26.227,4.947,8.027,11.846
241,0.816,37.077,19.327,35.005,26.224,4.907,7.987,11.806
242,0.826,37.107,19.358,34.967,26.217,4.825,7.864,11.724
243,0.823,36.762,19.37,34.986,26.217,4.783,7.863,11.642
244,0.833,36.912,19.448,35.005,26.224,4.824,7.863,11.601
245,0.83,37.019,19.41,35.024,26.227,4.865,7.944,11.641
246,0.836,37.049,19.386,35.025,26.231,4.987,7.905,11.641
247,0.843,36.713,19.401,34.996,26.227,4.988,7.945,11.56
248,0.849,36.825,19.437,35.005,26.231,4.988,7.864,11.478
249,0.846,36.932,19.386,34.996,26.227,4.907,7.741,11.396
250,0.833,36.961,19.296,34.996,26.227,4.906,7.781,11.395
251,0.83,36.875,19.303,35.015,26.231,4.987,7.781,11.273
252,0.839,37.028,19.311,35.015,26.231,4.907,7.781,11.231
253,0.839,37.087,19.334,35.005,26.234,4.947,7.781,11.231
254,0.83,36.608,19.37,34.996,26.224,4.947,7.781,11.109
255,0.826,36.68,19.382,34.986,26.231,4.947,7.7,11.026
256,0.833,36.834,19.362,35.015,26.227,4.988,7.699,10.985
257,0.826,36.932,19.366,35.053,26.241,5.029,7.821,10.944
258,0.807,36.655,19.405,35.034,26.234,5.03,7.822,10.902
259,0.823,36.776,19.413,34.996,26.227,5.03,7.863,10.861
260,0.813,36.902,19.39,34.986,26.227,4.989,7.782,10.698
261,0.823,36.961,19.37,34.967,26.224,4.907,7.781,10.575
262,0.833,36.597,19.335,34.976,26.22,4.906,7.862,10.451
263,0.83,36.757,19.378,34.967,26.224,4.825,7.904,10.328
264,0.843,36.864,19.335,34.986,26.231,5.027,8.026,10.327
265,0.853,36.932,19.42,34.986,26.22,4.989,8.027,10.205
266,0.836,36.587,19.347,34.976,26.224,4.948,8.109,10.082
267,0.849,36.728,19.346,34.967,26.227,4.947,8.191,10.081
268,0.853,36.844,19.354,34.966,26.227,4.947,8.151,10.081
269,0.849,36.865,19.386,34.966,26.224,4.988,8.15,10.081
270,0.833,36.548,19.421,34.966,26.217,4.988,8.273,10.04
271,0.83,36.679,19.386,34.947,26.21,4.866,8.233,9.999
272,0.843,36.815,19.39,34.947,26.22,4.906,8.273,9.917
273,0.836,36.816,19.327,34.985,26.224,4.906,8.477,9.916
274,0.843,36.596,19.354,34.976,26.231,4.987,8.601,9.998
275,0.839,36.718,19.405,34.986,26.234,5.029,8.643,9.999
276,0.826,36.815,19.402,34.986,26.231,4.989,8.725,10.08
277,0.823,36.634,19.304,34.995,26.238,5.029,8.807,10.162
278,0.826,36.642,19.354,35.005,26.231,4.989,8.767,10.285
279,0.826,36.748,19.354,34.986,26.227,5.11,8.848,10.571
280,0.82,36.844,19.386,34.976,26.224,5.03,8.849,10.655
281,0.836,36.462,19.425,34.976,26.224,4.989,8.889,10.737
282,0.836,36.583,19.468,34.995,26.227,4.988,8.849,10.982
283,0.839,36.689,19.418,34.996,26.227,4.948,8.849,11.106
284,0.856,36.786,19.382,34.986,26.224,4.988,8.767,11.23
285,0.849,36.442,19.37,35.005,26.234,4.988,8.807,11.434
286,0.843,36.554,19.44,35.005,26.234,5.11,8.889,11.639
287,0.849,36.641,19.382,34.967,26.231,5.071,8.849,11.682
288,0.823,36.69,19.351,34.976,26.224,5.03,8.686,11.683
289,0.836,36.46,19.354,34.967,26.224,4.948,8.644,11.683
290,0.843,36.602,19.358,34.947,26.217,4.825,8.562,11.967
291,0.836,36.718,19.386,34.966,26.22,4.905,8.561,12.62
292,0.833,36.758,19.39,34.966,26.217,4.865,8.48,13.887
293,0.83,36.403,19.409,34.947,26.22,4.906,8.438,15.404
294,0.826,36.544,19.339,34.976,26.224,4.906,8.438,16.883
295,0.826,36.651,19.335,34.967,26.227,4.906,8.479,18.24
296,0.826,36.68,19.362,34.957,26.224,4.906,8.357,19.554
297,0.82,36.431,19.421,34.986,26.224,4.947,8.397,21.112
298,0.803,36.554,19.367,34.948,26.224,4.907,8.397,22.673
299,0.787,36.651,19.358,34.957,26.213,4.865,8.316,24.152
300,0.816,36.796,19.362,34.957,26.224,4.865,8.274,25.305
301,0.836,36.356,19.37,34.986,26.227,4.946,8.396,26.293
302,0.826,36.476,19.374,34.976,26.231,5.069,8.56,26.913
303,0.839,36.573,19.382,34.986,26.227,5.03,8.602,27.163
304,0.846,36.363,19.417,34.976,26.227,5.03,8.724,27.246
305,0.853,36.467,19.371,34.967,26.231,4.989,8.726,27.003
306,0.846,36.573,19.343,34.966,26.231,5.029,8.766,26.757
307,0.856,36.67,19.405,34.966,26.231,4.948,8.807,26.266
308,0.856,36.575,19.409,34.966,26.227,5.029,8.889,25.774
309,0.856,36.708,19.363,34.986,26.224,4.989,8.89,25.362
310,0.849,36.825,19.288,34.976,26.227,4.988,8.93,24.83
311,0.846,36.903,19.369,35.034,26.231,4.988,9.053,24.296
312,0.836,36.05,19.358,34.958,26.231,4.988,8.932,23.721
313,0.836,36.205,19.37,34.986,26.231,4.907,9.012,23.146
314,0.833,36.331,19.44,35.005,26.238,5.028,9.013,22.734
315,0.836,36.38,19.382,34.986,26.238,5.07,9.176,22.405
316,0.82,36.285,19.362,34.976,26.231,4.989,9.177,21.913
317,0.807,36.418,19.354,34.957,26.227,4.988,9.177,21.746
318,0.81,36.534,19.397,34.947,26.22,4.907,9.137,21.663
319,0.813,36.574,19.413,34.947,26.231,4.906,9.136,21.703
320,0.813,36.191,19.371,34.928,26.217,4.906,9.217,21.866
321,0.823,36.34,19.331,34.937,26.22,4.825,9.178,22.111
322,0.826,36.476,19.292,34.947,26.22,4.946,9.137,22.398
323,0.83,36.487,19.346,34.947,26.22,4.947,9.299,22.482
324,0.843,36.199,19.389,34.938,26.224,4.947,9.26,22.565
325,0.843,36.331,19.433,34.947,26.22,5.069,9.259,22.484
326,0.836,36.428,19.339,34.966,26.22,4.989,9.3,22.28
327,0.826,36.285,19.346,34.938,26.227,4.988,9.301,22.034
328,0.843,36.188,19.35,34.918,26.217,4.826,9.26,21.706
329,0.849,36.34,19.405,34.937,26.217,4.905,9.137,21.378
330,0.846,36.438,19.421,34.957,26.22,4.947,9.258,21.049
331,0.823,36.199,19.414,34.966,26.234,4.988,9.259,20.761
332,0.826,36.312,19.371,34.957,26.224,5.029,9.259,20.352
333,0.833,36.428,19.327,34.976,26.231,5.03,9.178,19.982
334,0.817,36.515,19.362,34.947,26.224,5.03,9.137,19.572
335,0.81,36.056,19.401,34.938,26.231,4.989,9.095,19.12
336,0.81,36.205,19.398,34.966,26.231,5.029,9.054,18.709
337,0.8,36.312,19.37,34.986,26.224,5.07,9.135,18.298
338,0.81,36.399,19.343,34.957,26.227,4.989,9.055,17.888
339,0.813,36.151,19.358,34.957,26.231,5.029,9.013,17.477
340,0.81,36.282,19.386,34.947,26.224,4.989,8.932,17.066
341,0.82,36.418,19.437,34.966,26.227,5.07,8.931,16.656
342,0.826,36.458,19.429,34.976,26.241,5.07,9.012,16.326
343,0.817,36.103,19.398,34.967,26.234,5.152,9.013,16.038
344,0.82,36.243,19.374,34.976,26.227,5.112,8.932,15.588
345,0.813,36.35,19.37,34.938,26.22,5.071,8.972,15.299
346,0.813,36.361,19.39,34.928,26.224,4.989,8.931,14.849
347,0.829,36.016,19.355,34.928,26.217,4.948,8.85,14.56
348,0.833,36.166,19.347,34.957,26.217,4.947,8.849,14.354
349,0.82,36.254,19.346,34.947,26.217,4.947,8.93,14.108
350,0.82,36.437,19.346,34.928,26.227,4.988,8.89,14.024
351,0.813,36.017,19.405,34.918,26.224,4.988,8.849,13.942
352,0.82,36.108,19.429,34.947,26.227,4.988,8.767,13.941
353,0.813,36.234,19.457,34.928,26.224,5.07,8.848,13.86
354,0.797,36.053,19.402,34.947,26.227,5.03,8.849,13.696
355,0.794,36.118,19.378,34.947,26.224,5.07,8.767,13.695
356,0.784,36.234,19.382,34.928,26.224,4.989,8.767,13.573
357,0.787,36.341,19.398,34.918,26.217,4.907,8.645,13.368
358,0.803,35.977,19.355,34.947,26.224,4.987,8.725,13.244
359,0.79,36.146,19.276,34.985,26.227,5.029,8.766,13.121
360,0.797,36.263,19.338,34.957,26.231,5.07,8.726,13.16
361,0.803,36.331,19.346,34.957,26.231,5.07,8.726,13.039
362,0.8,35.92,19.354,34.938,26.231,5.152,8.766,12.997
363,0.803,36.05,19.374,34.947,26.224,5.153,8.604,12.996
364,0.807,36.176,19.425,34.947,26.234,5.031,8.684,12.996
365,0.8,36.244,19.382,34.995,26.224,5.07,8.603,12.915
366,0.8,35.996,19.366,34.928,26.227,4.989,8.562,12.915
367,0.82,36.147,19.401,34.937,26.22,5.07,8.48,13.077
368,0.807,36.263,19.421,34.937,26.231,5.03,8.398,13.201
369,0.833,36.331,19.41,34.947,26.227,5.03,8.438,13.487
370,0.83,35.91,19.339,34.966,26.241,5.151,8.438,13.937
371,0.794,36.021,19.331,34.957,26.238,5.112,8.519,14.226
372,0.79,36.118,19.335,34.938,26.227,5.071,8.439,14.473
373,0.79,36.119,19.323,34.918,26.224,4.989,8.275,14.597
374,0.777,35.946,19.377,34.918,26.217,5.029,8.274,14.761
375,0.784,36.108,19.378,34.918,26.22,4.989,8.274,14.803
376,0.774,36.215,19.37,34.909,26.213,4.988,8.193,14.966
377,0.758,36.225,19.37,34.918,26.22,4.988,8.232,14.927
378,0.764,36.024,19.405,34.928,26.224,5.029,8.233,14.805
379,0.777,36.128,19.421,34.928,26.224,5.03,8.111,14.844
380,0.78,36.244,19.39,34.918,26.227,5.03,8.191,14.723
381,0.777,35.852,19.347,34.918,26.224,4.948,8.232,14.559
382,0.774,35.905,19.268,34.909,26.22,5.029,8.233,14.435
383,0.78,36.031,19.311,34.889,26.217,4.948,8.273,14.149
384,0.803,36.137,19.327,34.927,26.224,4.907,8.396,14.106
385,0.794,35.947,19.413,34.918,26.227,5.069,8.6,14.268
386,0.79,36.098,19.324,34.947,26.227,5.111,8.724,14.514
387,0.79,36.224,19.354,34.947,26.227,5.071,8.848,14.719
388,0.803,36.302,19.366,34.928,26.224,5.03,8.93,15.047
389,0.794,35.881,19.386,34.928,26.227,5.03,8.972,15.253
390,0.8,36.011,19.452,34.928,26.227,4.989,8.972,15.459
391,0.784,36.147,19.426,34.928,26.224,5.029,8.972,15.583
392,0.787,36.186,19.39,34.937,26.227,4.989,9.013,15.584
393,0.79,35.765,19.288,34.947,26.234,5.11,9.054,15.706
394,0.79,35.904,19.377,34.918,26.231,5.071,8.973,15.626
395,0.79,36.04,19.413,34.937,26.224,5.07,9.013,15.544
396,0.79,36.08,19.417,34.957,26.234,5.152,9.094,15.624
397,0.761,35.994,19.312,34.957,26.227,5.112,9.095,15.788
398,0.77,36.099,19.346,34.928,26.227,4.989,9.054,15.667
399,0.757,36.205,19.343,34.909,26.227,4.948,8.973,15.666
400,0.761,36.225,19.37,34.889,26.224,5.029,8.931,15.503
401,0.77,35.938,19.417,34.927,26.217,4.948,8.809,15.42
402,0.774,36.088,19.433,34.889,26.224,4.988,8.848,15.379
403,0.784,36.186,19.437,34.918,26.224,4.988,8.808,15.256
404,0.79,36.014,19.386,34.928,26.224,4.948,8.767,15.215
405,0.777,35.974,19.366,34.928,26.224,4.947,8.767,14.93
406,0.79,36.108,19.39,34.918,26.227,4.988,8.848,14.886
407,0.806,36.205,19.359,34.909,26.224,4.988,8.767,14.682
408,0.813,35.861,19.339,34.918,26.224,4.948,8.889,14.518
409,0.787,35.982,19.331,34.899,26.224,5.029,8.849,14.272
410,0.793,36.089,19.335,34.889,26.224,4.907,8.808,14.107
411,0.784,36.186,19.35,34.899,26.213,4.865,8.808,13.861
412,0.78,35.813,19.405,34.889,26.22,4.865,8.726,13.615
413,0.78,35.943,19.433,34.908,26.224,4.987,8.766,13.491
414,0.767,36.079,19.39,34.928,26.227,4.988,8.848,13.49
415,0.757,36.176,19.366,34.918,26.227,4.988,8.808,13.367
416,0.783,35.899,19.37,34.909,26.231,5.029,8.889,13.204
417,0.777,36.021,19.433,34.918,26.231,5.07,8.89,13.161
418,0.767,36.147,19.382,34.909,26.227,5.03,8.849,12.998
419,0.777,36.196,19.316,34.908,26.227,4.989,8.767,12.875
420,0.771,35.947,19.33,34.908,26.227,4.988,8.685,12.751
421,0.783,36.088,19.366,34.918,26.22,4.988,8.766,12.588
422,0.784,36.176,19.362,34.899,26.231,4.948,8.726,12.423
423,0.793,36.215,19.386,34.908,26.224,4.988,8.644,12.34
424,0.8,35.928,19.452,34.918,26.231,4.988,8.644,12.217
425,0.813,36.098,19.332,34.966,26.241,5.11,8.725,12.216
426,0.79,36.176,19.35,34.938,26.241,5.112,8.685,12.216
427,0.8,36.426,19.386,34.909,26.234,5.03,8.644,12.094
428,0.79,35.844,19.405,34.899,26.22,5.03,8.521,11.849
429,0.787,35.934,19.359,34.899,26.22,4.989,8.398,11.887
430,0.79,36.04,19.323,34.889,26.217,4.907,8.356,12.172
431,0.774,35.936,19.245,34.899,26.22,4.865,8.315,12.948
432,0.774,36.05,19.33,34.88,26.22,4.946,8.274,13.931
433,0.784,36.176,19.331,34.899,26.22,4.947,8.274,14.876
434,0.777,36.254,19.393,34.899,26.227,4.947,8.233,15.943
435,0.784,35.948,19.37,34.889,26.224,4.988,8.192,17.214
436,0.777,36.088,19.354,34.908,26.224,4.988,8.192,19.259
437,0.764,36.186,19.339,34.918,26.224,4.948,8.151,21.557
438,0.754,36.263,19.366,34.918,26.224,4.988,8.069,23.775
439,0.767,35.89,19.409,34.87,26.224,4.907,7.987,25.668
440,0.774,36.03,19.374,34.898,26.224,4.865,7.905,26.988
441,0.784,36.166,19.339,34.889,26.217,4.865,7.945,27.977
442,0.787,36.235,19.307,34.908,26.22,4.987,7.945,28.515
443,0.784,35.9,19.354,34.918,26.224,4.988,7.905,28.886
444,0.79,36.03,19.37,34.918,26.231,5.029,7.904,29.012
445,0.793,36.147,19.417,34.918,26.227,4.989,7.823,28.607
446,0.79,36.186,19.347,34.918,26.227,4.988,7.781,28.236
447,0.803,36.014,19.354,34.889,26.231,5.07,7.781,27.745
448,0.803,36.166,19.378,34.927,26.224,5.03,7.7,27.09
449,0.794,36.254,19.382,34.909,26.227,5.03,7.658,26.514
450,0.787,36.274,19.421,34.889,26.227,4.989,7.698,25.817
451,0.78,35.948,19.39,34.908,26.227,4.988,7.658,25.281
452,0.793,36.069,19.351,34.899,26.227,4.988,7.617,24.544
453,0.79,36.224,19.323,34.927,26.234,4.948,7.576,24.049
454,0.787,36.245,19.342,34.937,26.238,5.069,7.575,23.678
455,0.78,36.197,19.393,34.928,26.245,5.152,7.657,23.512
456,0.774,36.264,19.394,34.918,26.227,5.071,7.658,23.591
457,0.764,36.379,19.339,34.909,26.224,4.989,7.576,23.795
458,0.767,35.892,19.346,34.88,26.224,4.948,7.535,24.204
459,0.767,35.973,19.354,34.889,26.224,4.866,7.453,24.777
460,0.757,36.079,19.397,34.889,26.217,4.865,7.493,25.352
461,0.767,36.167,19.433,34.87,26.213,4.906,7.412,25.643
462,0.77,35.995,19.418,34.898,26.224,4.947,7.493,25.93
463,0.774,36.147,19.41,34.87,26.224,4.907,7.534,25.933
464,0.78,36.273,19.374,34.946,26.22,4.987,7.534,25.852
465,0.787,36.351,19.355,34.909,26.227,4.948,7.494,25.729
466,0.784,36.035,19.409,34.889,26.227,4.988,7.575,25.362
467,0.793,36.147,19.382,34.889,26.22,4.948,7.535,25.073
468,0.78,36.263,19.378,34.87,26.224,4.866,7.534,24.827
469,0.793,36.341,19.335,34.87,26.22,4.906,7.412,24.54
470,0.797,35.92,19.366,34.87,26.224,4.947,7.452,24.333
471,0.784,36.079,19.378,34.889,26.227,4.947,7.534,24.128
472,0.784,36.205,19.421,34.908,26.234,5.11,7.534,23.923
473,0.774,36.225,19.433,34.908,26.227,5.071,7.534,23.595
474,0.767,36.024,19.347,34.899,26.227,5.111,7.616,23.145
475,0.77,36.176,19.343,34.889,26.231,5.03,7.576,22.734
476,0.787,36.254,19.362,34.908,26.231,5.03,7.575,22.201
477,0.78,36.274,19.405,34.908,26.227,5.03,7.616,21.749
478,0.751,35.967,19.339,34.889,26.227,4.989,7.617,21.134
479,0.754,36.089,19.241,34.908,26.227,5.029,7.617,20.559
480,0.767,36.195,19.31,34.88,26.227,4.989,7.617,20.106
481,0.787,36.033,19.366,34.908,26.227,4.948,7.617,19.613
482,0.784,36.089,19.409,34.918,26.231,5.069,7.698,19.121
483,0.78,36.205,19.406,34.918,26.238,5.152,7.821,18.628
484,0.774,36.273,19.441,34.918,26.231,5.071,7.822,18.135
485,0.777,35.948,19.398,34.899,26.231,5.03,7.7,17.683
486,0.78,36.06,19.359,34.86,26.224,4.948,7.699,17.109
487,0.797,36.166,19.397,34.85,26.22,4.988,7.618,16.697
488,0.787,36.263,19.402,34.86,26.217,4.988,7.617,16.205
489,0.78,35.948,19.327,34.87,26.224,4.907,7.617,15.875
490,0.787,36.108,19.237,34.87,26.22,4.947,7.617,15.505
491,0.774,36.196,19.334,34.889,26.22,4.988,7.698,15.217
492,0.777,36.283,19.338,34.87,26.224,4.988,7.658,14.848
493,0.774,35.977,19.354,34.889,26.227,4.988,7.698,14.56
494,0.764,36.098,19.421,34.87,26.224,4.988,7.699,14.273
495,0.764,36.215,19.363,34.86,26.217,4.907,7.658,14.026
496,0.754,36.273,19.354,34.85,26.213,4.865,7.617,13.779
497,0.751,36.169,19.374,34.889,26.224,4.946,7.698,13.696
498,0.767,36.321,19.405,34.889,26.231,5.029,7.78,13.532
499,0.764,36.428,19.413,34.889,26.224,5.03,7.781,13.449
500,0.764,36.448,19.331,34.899,26.234,5.07,7.74,13.367
501,0.757,35.873,19.276,34.908,26.231,5.07,7.781,13.163
502,0.761,36.001,19.346,34.928,26.227,5.07,7.822,13.039
503,0.783,36.118,19.35,34.889,26.224,5.111,7.741,12.916
504,0.797,36.186,19.393,34.899,26.224,4.989,7.74,12.792
505,0.79,35.88,19.394,34.88,26.224,4.988,7.74,12.547
506,0.787,36.021,19.366,34.879,26.224,5.07,7.74,12.423
507,0.784,36.128,19.37,34.879,26.224,5.07,7.699,12.259
508,0.793,35.841,19.393,34.87,26.227,5.07,7.618,11.973
509,0.81,35.934,19.409,34.879,26.224,4.989,7.698,11.889
510,0.8,36.069,19.413,34.879,26.234,5.029,7.658,11.725
511,0.787,36.166,19.363,34.918,26.238,5.111,7.739,11.683
512,0.784,35.889,19.331,34.899,26.238,5.112,7.74,11.601
513,0.767,36.002,19.327,34.88,26.227,5.03,7.618,11.478
514,0.764,36.099,19.374,34.851,26.22,4.907,7.576,11.274
515,0.767,36.186,19.378,34.86,26.217,4.906,7.494,11.231
516,0.761,35.937,19.327,34.85,26.22,4.947,7.494,11.149
517,0.751,36.088,19.35,34.869,26.224,4.907,7.412,11.108
518,0.764,36.205,19.331,34.86,26.22,4.906,7.452,11.108
519,0.754,36.264,19.385,34.879,26.227,4.987,7.452,11.108
520,0.761,35.852,19.386,34.86,26.224,4.907,7.371,11.067
521,0.774,35.972,19.425,34.87,26.22,4.987,7.411,10.985
522,0.777,36.089,19.378,34.87,26.22,4.948,7.452,10.903
523,0.771,36.119,19.323,34.86,26.224,4.988,7.371,10.821
524,0.767,35.87,19.338,34.85,26.217,4.907,7.33,10.739
525,0.783,36.03,19.37,34.841,26.22,4.865,7.289,10.657
526,0.793,36.137,19.397,34.869,26.224,4.906,7.329,10.534
527,0.806,36.167,19.312,34.889,26.227,5.028,7.37,10.573
528,0.8,35.976,19.362,34.879,26.231,5.03,7.452,10.492
529,0.807,36.079,19.354,34.879,26.231,5.03,7.493,10.329
530,0.813,36.186,19.37,34.87,26.227,4.989,7.575,10.368
531,0.813,35.928,19.382,34.889,26.227,5.029,7.657,10.287
532,0.813,35.839,19.409,34.879,26.227,4.989,7.658,10.164
533,0.81,35.972,19.378,34.879,26.234,4.948,7.739,10.204
534,0.774,36.05,19.339,34.879,26.231,4.947,7.821,10.082
535,0.787,35.936,19.339,34.879,26.227,4.988,7.985,10.121
536,0.793,36.06,19.409,34.87,26.227,4.907,7.946,10.122
537,0.8,36.186,19.417,34.908,26.234,5.028,8.067,10.244
538,0.774,36.283,19.32,34.918,26.238,5.151,8.312,10.326
539,0.774,35.747,19.366,34.88,26.227,4.99,8.396,10.327
540,0.78,35.866,19.323,34.86,26.224,4.988,8.478,10.246
541,0.79,35.992,19.346,34.841,26.224,4.866,8.52,10.245
542,0.797,36.051,19.362,34.85,26.22,4.865,8.601,10.408
543,0.813,35.735,19.401,34.85,26.217,4.824,8.806,10.572
544,0.826,35.875,19.343,34.86,26.224,4.865,8.93,10.899
545,0.839,35.992,19.35,34.87,26.22,4.906,9.012,11.227
546,0.859,36.06,19.346,34.86,26.227,4.825,9.216,11.597
547,0.885,35.716,19.385,34.85,26.224,4.905,9.34,11.803
548,0.882,35.875,19.374,34.86,26.227,4.947,9.423,11.968
549,0.879,35.982,19.335,34.86,26.224,4.907,9.586,12.376
550,0.889,36.012,19.37,34.879,26.224,4.906,9.507,13.112
551,0.869,35.955,19.339,34.87,26.224,4.987,9.587,14.055
552,0.879,36.089,19.354,34.851,26.213,4.866,9.466,15.121
553,0.866,36.224,19.343,34.869,26.224,4.906,9.587,16.189
554,0.862,36.532,19.424,34.87,26.227,4.987,9.629,17.379
555,0.866,35.653,19.402,34.889,26.238,5.029,9.67,18.651
556,0.853,35.788,19.351,34.879,26.231,4.989,9.67,20.209
557,0.84,35.905,19.405,34.889,26.227,4.907,9.589,21.891
558,0.843,35.772,19.413,34.86,26.234,5.028,9.629,23.616
559,0.843,35.828,19.41,34.879,26.231,4.948,9.588,24.934
560,0.826,35.953,19.331,34.879,26.227,4.947,9.507,25.883
561,0.839,36.05,19.264,34.889,26.227,4.947,9.425,26.542
562,0.839,35.658,19.342,34.86,26.227,4.988,9.424,26.915
563,0.856,35.807,19.331,34.87,26.227,4.988,9.302,26.959
564,0.866,35.962,19.401,34.908,26.231,5.029,9.382,26.797
565,0.879,36.022,19.355,34.908,26.238,5.07,9.423,26.551
566,0.872,35.677,19.343,34.86,26.238,5.07,9.302,26.224
567,0.879,35.789,19.331,34.87,26.231,4.989,9.138,25.529
568,0.882,35.914,19.381,34.831,26.224,4.826,9.095,24.872
569,0.889,35.992,19.382,34.841,26.22,4.824,9.014,24.215
570,0.882,35.705,19.347,34.86,26.217,4.865,8.972,23.517
571,0.872,35.856,19.331,34.87,26.224,4.824,8.809,22.819
572,0.876,35.973,19.284,34.851,26.224,4.865,8.848,22.202
573,0.885,36.022,19.346,34.85,26.227,4.824,8.767,21.545
574,0.882,35.706,19.366,34.86,26.227,4.905,8.685,21.092
575,0.876,35.837,19.429,34.87,26.227,4.906,8.725,20.762
576,0.882,35.963,19.343,34.879,26.227,4.865,8.644,20.718
577,0.876,35.983,19.382,34.851,26.231,4.946,8.521,20.799
578,0.879,35.686,19.362,34.841,26.213,4.866,8.479,21.003
579,0.879,35.846,19.405,34.86,26.217,4.784,8.316,21.411
580,0.869,35.953,19.413,34.86,26.217,4.864,8.315,21.985
581,0.879,35.858,19.452,34.85,26.224,4.865,8.356,22.6
582,0.879,35.637,19.406,34.898,26.231,4.987,8.356,23.054
583,0.885,35.759,19.316,34.88,26.231,5.029,8.397,23.343
584,0.892,35.857,19.362,34.889,26.234,4.948,8.234,23.508
585,0.895,35.589,19.378,34.87,26.231,4.988,8.233,23.469
586,0.895,35.682,19.39,34.879,26.227,4.988,8.192,23.388
587,0.918,35.817,19.296,34.87,26.234,4.988,8.11,23.224
588,0.909,35.895,19.342,34.86,26.234,4.907,8.15,23.1
589,0.882,35.609,19.362,34.87,26.224,4.906,8.028,23.018
590,0.882,35.74,19.362,34.86,26.227,4.906,8.027,23.058
591,0.895,35.895,19.405,34.879,26.238,4.947,8.027,23.099
592,0.882,35.963,19.398,34.908,26.241,5.029,8.109,23.221
593,0.856,35.552,19.413,34.899,26.234,5.07,8.069,23.223
594,0.827,35.682,19.355,34.88,26.234,5.03,8.028,23.1
595,0.82,35.779,19.339,34.851,26.224,4.907,7.946,22.815
596,0.826,35.828,19.378,34.841,26.224,4.865,7.864,22.446
597,0.804,35.57,19.386,34.85,26.22,4.824,7.822,22.198
598,0.797,35.701,19.339,34.85,26.217,4.865,7.822,21.789
599,0.797,35.837,19.358,34.85,26.224,4.865,7.863,21.297
600,0.8,35.905,19.362,34.85,26.224,4.906,7.904,20.926
601,0.803,35.542,19.35,34.86,26.231,4.906,7.945,20.435
602,0.813,35.672,19.382,34.87,26.22,4.906,7.905,20.023
603,0.816,35.789,19.417,34.87,26.224,4.865,7.945,19.531
604,0.836,35.809,19.41,34.86,26.217,4.865,7.986,19.12
605,0.82,35.521,19.367,34.85,26.231,4.865,7.986,18.587
606,0.817,35.634,19.335,34.831,26.21,4.784,7.905,18.094
607,0.81,35.731,19.374,34.831,26.22,4.742,7.945,17.561
608,0.8,35.617,19.37,34.85,26.227,4.864,7.986,17.189
609,0.813,35.625,19.327,34.869,26.234,4.906,8.068,16.82
610,0.784,35.759,19.338,34.956,26.234,4.947,8.109,16.491
611,0.764,35.857,19.323,34.88,26.234,4.907,8.15,16.081
612,0.754,35.397,19.346,34.87,26.227,4.987,8.273,15.752
613,0.741,35.527,19.366,34.86,26.227,4.907,8.233,15.342
614,0.721,35.634,19.405,34.879,26.231,4.987,8.273,15.012
615,0.711,35.731,19.351,34.87,26.231,4.866,8.233,14.643
616,0.718,35.444,19.362,34.851,26.224,4.946,8.151,14.273
617,0.695,35.585,19.366,34.869,26.227,4.866,8.273,14.066
618,0.705,35.701,19.417,34.87,26.231,4.865,8.314,13.78
619,0.715,35.76,19.406,34.86,26.227,4.865,8.234,13.492
620,0.721,35.511,19.331,34.87,26.227,4.906,8.273,13.367
621,0.734,35.643,19.307,34.918,26.241,5.028,8.396,13.285
622,0.741,35.759,19.342,34.956,26.238,5.03,8.478,13.203
623,0.725,35.809,19.331,34.871,26.234,4.948,8.56,12.999
624,0.728,35.416,19.366,34.851,26.224,4.866,8.521,12.834
625,0.728,35.546,19.358,34.85,26.224,4.824,8.601,12.67
626,0.721,35.682,19.37,34.86,26.224,4.824,8.602,12.546
627,0.715,35.721,19.319,34.85,26.217,4.783,8.724,12.423
628,0.734,35.425,19.381,34.841,26.217,4.824,8.807,12.3
629,0.728,35.556,19.409,34.841,26.224,4.824,8.848,12.217
630,0.728,35.672,19.425,34.841,26.224,4.824,9.052,12.176
631,0.715,35.865,19.371,34.85,26.224,4.865,9.054,12.053
632,0.724,35.464,19.3,34.85,26.224,4.865,9.135,11.93
633,0.715,35.585,19.342,34.86,26.224,4.906,9.177,11.888
634,0.708,35.701,19.323,34.86,26.227,4.865,9.096,11.766
635,0.698,35.405,19.385,34.831,26.224,4.865,9.136,11.683
636,0.705,35.479,19.323,34.821,26.213,4.743,9.014,11.479
637,0.702,35.633,19.342,34.86,26.213,4.783,9.054,11.436
638,0.714,35.731,19.327,34.86,26.224,4.864,9.095,11.436
639,0.715,35.396,19.366,34.87,26.227,4.946,9.136,11.395
640,0.715,35.536,19.409,34.87,26.224,4.907,9.136,11.436
641,0.724,35.653,19.433,34.86,26.22,4.906,9.055,11.517
642,0.715,35.712,19.433,34.86,26.231,4.865,9.054,11.559
643,0.728,35.309,19.355,34.841,26.224,4.865,9.054,11.6
644,0.725,35.459,19.37,34.869,26.227,4.906,8.973,11.722
645,0.728,35.585,19.351,34.86,26.227,4.825,8.931,11.886
646,0.725,35.644,19.405,34.87,26.224,4.824,8.89,12.01
647,0.741,35.366,19.331,34.86,26.227,4.905,8.849,11.97
648,0.747,35.546,19.385,34.85,26.224,4.825,8.767,12.051
649,0.734,35.672,19.359,34.889,26.231,4.905,8.767,12.174
650,0.744,35.702,19.393,34.889,26.238,4.987,8.807,12.216
651,0.728,35.329,19.402,34.87,26.234,4.948,8.686,12.216
652,0.728,35.449,19.413,34.851,26.224,4.866,8.562,12.094
653,0.715,35.566,19.425,34.822,26.224,4.784,8.439,12.052
654,0.698,35.605,19.335,34.84,26.217,4.783,8.438,11.93
655,0.698,35.404,19.346,34.831,26.217,4.783,8.397,11.848
656,0.708,35.517,19.366,34.821,26.217,4.783,8.316,11.806
657,0.715,35.624,19.397,34.831,26.224,4.824,8.315,11.928
658,0.708,35.606,19.316,34.841,26.224,4.824,8.274,11.929
659,0.702,35.586,19.327,34.841,26.227,4.743,8.193,12.051
660,0.711,35.701,19.327,34.841,26.22,4.823,8.151,12.174
661,0.711,35.789,19.323,34.85,26.231,4.783,8.11,12.256
662,0.711,35.109,19.358,34.822,26.22,4.824,8.028,12.379
663,0.721,35.198,19.393,34.812,26.21,4.661,7.987,12.381
664,0.737,35.333,19.409,34.812,26.22,4.741,7.946,12.421
665,0.738,35.459,19.386,34.831,26.224,4.783,7.986,12.462
666,0.744,35.211,19.362,34.86,26.231,4.864,8.027,12.463
667,0.744,35.372,19.405,34.831,26.234,4.865,8.027,12.422
668,0.741,35.479,19.386,34.841,26.227,4.824,8.068,12.422
669,0.741,35.556,19.304,34.831,26.227,4.824,8.069,12.381
670,0.747,35.231,19.338,34.85,26.227,4.824,8.028,12.381
671,0.741,35.381,19.339,34.841,26.231,4.865,8.027,12.218
672,0.731,35.508,19.362,34.85,26.224,4.906,8.027,12.216
673,0.734,35.547,19.358,34.831,26.224,4.825,8.027,12.135
674,0.731,35.241,19.425,34.831,26.217,4.865,8.027,12.012
675,0.734,35.372,19.343,34.831,26.227,4.824,8.027,11.889
676,0.728,35.498,19.327,34.821,26.224,4.865,8.027,11.766
677,0.715,35.576,19.374,34.869,26.231,4.906,7.987,11.764
678,0.715,35.375,19.405,34.87,26.231,4.947,8.149,11.764
679,0.708,35.488,19.394,34.86,26.234,4.907,8.069,11.602
680,0.702,35.585,19.3,34.822,26.217,4.825,7.987,11.478
681,0.721,35.673,19.248,34.831,26.224,4.702,7.905,11.355
682,0.731,35.261,19.318,34.812,26.224,4.742,7.863,11.232
683,0.731,35.382,19.323,34.802,26.22,4.701,7.863,11.149
684,0.741,35.479,19.37,34.802,26.224,4.742,7.904,11.026
685,0.741,35.298,19.354,34.812,26.224,4.823,7.863,11.066
686,0.747,35.353,19.378,34.831,26.217,4.824,7.904,11.066
687,0.751,35.488,19.343,34.821,26.227,4.743,7.863,11.066
688,0.757,35.576,19.382,34.821,26.224,4.783,7.904,11.148
689,0.751,35.183,19.382,34.812,26.224,4.824,7.863,11.067
690,0.738,35.314,19.386,34.812,26.227,4.865,7.944,11.107
691,0.741,35.401,19.327,34.812,26.213,4.743,7.864,11.067
692,0.747,35.508,19.264,34.812,26.213,4.742,7.782,11.026
693,0.747,35.192,19.326,34.812,26.231,4.701,7.74,11.025
694,0.744,35.343,19.354,34.831,26.231,4.863,7.862,11.066
695,0.744,35.459,19.428,34.831,26.227,4.784,7.863,10.985
696,0.744,35.527,19.32,34.85,26.224,4.824,7.863,11.066
697,0.751,35.231,19.362,34.841,26.231,4.824,7.944,11.026
698,0.738,35.362,19.358,34.85,26.227,4.865,7.864,10.944
699,0.738,35.479,19.409,34.831,26.227,4.784,7.741,10.902
700,0.744,35.509,19.417,34.831,26.227,4.824,7.699,10.861
701,0.747,35.154,19.406,34.821,26.227,4.824,7.78,10.739
702,0.731,35.304,19.382,34.831,26.224,4.865,7.781,10.819
703,0.734,35.411,19.339,34.841,26.227,4.784,7.781,10.779
704,0.734,35.46,19.335,34.831,26.227,4.783,7.7,10.779
705,0.728,35.316,19.37,34.841,26.227,4.824,7.74,10.901
706,0.731,35.43,19.405,34.86,26.238,4.865,7.781,11.268
707,0.751,35.546,19.316,34.841,26.238,4.906,7.781,11.841
708,0.744,35.509,19.346,34.831,26.227,4.825,7.659,12.538
709,0.747,35.212,19.35,34.821,26.231,4.865,7.617,13.277
710,0.754,35.352,19.389,34.812,26.22,4.824,7.576,13.975
711,0.764,35.44,19.409,34.821,26.224,4.743,7.494,14.836
712,0.79,35.134,19.413,34.802,26.224,4.661,7.494,16.146
713,0.81,35.217,19.386,34.812,26.22,4.822,7.534,17.866
714,0.807,35.372,19.374,34.879,26.224,4.743,7.453,19.673
715,0.803,35.44,19.331,34.812,26.224,4.823,7.493,21.439
716,0.8,35.144,19.389,34.821,26.22,4.702,7.534,22.961
717,0.797,35.285,19.386,34.812,26.224,4.701,7.494,24.033
718,0.797,35.411,19.288,34.831,26.224,4.782,7.453,24.694
719,0.813,35.489,19.342,34.831,26.224,4.783,7.452,25.148
720,0.829,35.115,19.323,34.802,26.217,4.742,7.371,25.356
721,0.872,35.275,19.374,34.792,26.213,4.661,7.37,25.317
722,0.924,35.391,19.397,34.821,26.22,4.741,7.37,25.032
723,0.97,35.469,19.398,34.831,26.234,4.823,7.411,24.826
724,1.01,35.125,19.374,34.831,26.231,4.824,7.452,24.58
725,1.079,35.294,19.343,34.85,26.227,4.824,7.452,24.049
726,1.131,35.401,19.366,34.831,26.227,4.824,7.452,23.597
727,1.164,35.421,19.397,34.831,26.227,4.905,7.452,22.982
728,1.194,35.144,19.355,34.821,26.227,4.825,7.33,22.529
729,1.224,35.294,19.265,34.831,26.227,4.824,7.41,22.118
730,1.247,35.401,19.346,34.831,26.227,4.783,7.371,21.748
731,1.24,35.421,19.315,34.831,26.231,4.864,7.411,21.581
732,1.237,35.172,19.362,34.821,26.224,4.865,7.371,21.539
733,1.247,35.314,19.382,34.821,26.231,4.784,7.33,21.823
734,1.247,35.449,19.417,34.85,26.234,4.824,7.37,22.07
735,1.273,35.326,19.394,34.85,26.238,4.905,7.533,22.683
736,1.273,35.277,19.359,34.822,26.241,4.987,7.575,23.177
737,1.257,35.372,19.401,34.821,26.227,4.826,7.616,23.791
738,1.214,35.46,19.406,34.812,26.224,4.783,7.576,24.245
739,1.23,35.134,19.347,34.802,26.217,4.783,7.575,24.615
740,1.188,35.256,19.292,34.802,26.22,4.742,7.575,24.781
741,1.084,35.391,19.326,34.84,26.224,4.742,7.657,24.864
742,0.966,35.46,19.342,34.793,26.22,4.823,7.698,24.865
743,0.834,35.096,19.346,34.821,26.224,4.702,7.699,24.906
744,0.696,35.227,19.382,34.793,26.227,4.823,7.699,25.069
745,0.604,35.353,19.339,34.821,26.224,4.865,7.821,25.274
746,0.538,35.421,19.346,34.812,26.224,4.865,7.903,25.682
747,0.443,35.076,19.343,34.812,26.224,4.824,7.904,26.053
748,0.354,35.198,19.374,34.812,26.231,4.824,7.945,26.544
749,0.298,35.304,19.366,34.783,26.213,4.743,7.905,26.956
750,0.249,35.373,19.339,34.783,26.22,4.701,7.823,27.163
751,0.238,35.143,19.3,34.83,26.227,4.823,7.944,27.409
752,0.258,35.313,19.33,34.85,26.227,4.824,8.026,27.493
753,0.261,35.411,19.354,34.822,26.238,4.865,8.109,27.493
754,0.264,35.441,19.374,34.821,26.238,4.906,8.191,27.29
755,0.284,35.115,19.394,34.831,26.238,4.825,8.11,27.004
756,0.304,35.246,19.281,34.821,26.231,4.865,8.15,26.513
757,0.323,35.353,19.342,34.821,26.231,4.865,8.191,26.061
758,0.337,35.699,19.378,34.831,26.227,4.865,8.232,25.528
759,0.353,35.204,19.413,34.821,26.22,4.906,8.273,24.912
760,0.412,35.333,19.41,34.802,26.227,4.825,8.193,24.337
761,0.497,35.44,19.386,34.792,26.217,4.865,8.273,23.721
762,0.56,35.153,19.355,34.811,26.231,4.784,8.152,23.065
763,0.635,35.198,19.265,34.84,26.234,4.905,8.232,22.489
764,0.717,35.333,19.373,34.831,26.245,4.947,8.273,22.036
765,0.741,35.402,19.394,34.812,26.231,4.866,8.314,21.544
766,0.78,35.019,19.374,34.802,26.22,4.784,8.234,21.01
767,0.813,35.168,19.327,34.792,26.224,4.742,8.07,20.639
768,0.852,35.294,19.315,34.792,26.217,4.742,7.987,20.31
769,0.872,35.372,19.346,34.783,26.227,4.742,8.027,20.103
770,0.889,35.018,19.378,34.811,26.22,4.823,8.027,19.898
771,0.885,35.168,19.39,34.802,26.227,4.783,7.946,19.733
772,0.885,35.304,19.378,34.802,26.227,4.783,7.945,19.569
773,0.902,35.363,19.362,34.802,26.227,4.783,7.986,19.323
774,0.895,35.114,19.335,34.831,26.227,4.783,7.986,19.199
775,0.889,35.236,19.358,34.793,26.22,4.783,7.905,19.035
776,0.892,35.333,19.393,34.773,26.213,4.742,7.863,18.708
777,0.886,35.411,19.323,34.782,26.213,4.701,7.782,18.42
778,0.898,35.115,19.35,34.802,26.224,4.742,7.822,18.174
779,0.899,35.265,19.343,34.812,26.227,4.905,7.863,17.846
780,0.908,35.363,19.362,34.812,26.224,4.947,7.863,17.639
781,0.918,35.392,19.386,34.821,26.231,4.785,7.822,17.312
782,0.909,35.095,19.417,34.812,26.231,4.824,7.822,16.943
783,0.912,35.236,19.413,34.802,26.224,4.865,7.781,16.573
784,0.918,35.343,19.331,34.802,26.227,4.784,7.659,16.122
785,0.912,35.315,19.346,34.802,26.224,4.824,7.658,15.833
786,0.925,35.19,19.393,34.802,26.224,4.824,7.698,15.464
787,0.931,35.304,19.409,34.792,26.224,4.865,7.658,15.095
788,0.935,35.411,19.316,34.811,26.227,4.865,7.576,14.766
789,0.941,35.057,19.37,34.802,26.231,4.865,7.535,14.518
790,0.938,35.178,19.331,34.831,26.234,4.906,7.616,14.191
791,0.928,35.295,19.358,34.841,26.238,4.987,7.739,14.106
792,0.931,35.353,19.362,34.812,26.234,4.907,7.618,13.78
793,0.915,35.066,19.393,34.802,26.227,4.825,7.576,13.452
794,0.912,35.207,19.37,34.792,26.224,4.783,7.454,13.123
795,0.902,35.333,19.354,34.783,26.224,4.742,7.493,12.754
796,0.912,35.421,19.327,34.773,26.22,4.783,7.331,12.628
797,0.912,35.259,19.377,34.782,26.22,4.783,7.451,12.464
798,0.908,35.391,19.397,34.792,26.217,4.783,7.412,12.178
799,0.908,35.517,19.312,34.802,26.224,4.742,7.411,12.094
800,0.918,35.595,19.366,34.84,26.22,4.783,7.371,11.89
801,0.922,35.03,19.331,34.793,26.224,4.824,7.452,11.806
802,0.931,35.159,19.346,34.792,26.224,4.783,7.412,11.724
803,0.935,35.256,19.335,34.773,26.224,4.783,7.371,11.642
804,0.945,35.276,19.37,34.782,26.227,4.783,7.33,11.682
805,0.941,34.998,19.304,34.754,26.217,4.702,7.248,11.56
806,0.935,35.158,19.323,34.773,26.213,4.701,7.206,11.519
807,0.945,35.275,19.354,34.782,26.217,4.742,7.165,11.599
808,0.967,35.296,19.405,34.802,26.227,4.823,7.368,11.641
809,0.964,35.123,19.398,34.783,26.227,4.824,7.33,11.763
810,0.958,35.284,19.359,34.811,26.234,4.865,7.289,11.764
811,0.954,35.382,19.3,34.802,26.227,4.865,7.288,11.724
812,0.941,35.191,19.346,34.869,26.224,4.865,7.329,11.723
813,0.948,35.16,19.323,34.793,26.231,4.865,7.289,11.683
814,0.935,35.285,19.385,34.773,26.231,4.824,7.247,11.642
815,0.928,35.382,19.366,34.792,26.224,4.824,7.288,11.56
816,0.931,35.066,19.362,34.811,26.224,4.783,7.247,11.478
817,0.938,35.188,19.327,34.792,26.227,4.824,7.288,11.477
818,0.945,35.314,19.381,34.792,26.227,4.824,7.288,11.355
819,0.941,35.421,19.413,34.783,26.227,4.824,7.288,11.354
820,0.951,35.019,19.41,34.802,26.234,4.783,7.329,11.232
821,0.951,35.139,19.363,34.812,26.238,4.905,7.289,11.271
822,0.961,35.246,19.308,34.792,26.238,4.865,7.41,11.231
823,0.958,35.314,19.319,34.85,26.224,4.824,7.33,11.027
824,0.964,34.989,19.315,34.774,26.224,4.743,7.207,11.025
825,0.964,35.12,19.389,34.773,26.22,4.742,7.247,10.985
826,0.971,35.246,19.343,34.763,26.22,4.783,7.328,11.106
827,0.974,35.324,19.358,34.782,26.224,4.783,7.289,11.27
828,0.987,35.047,19.323,34.763,26.224,4.783,7.288,11.475
829,0.974,35.197,19.362,34.773,26.22,4.783,7.329,11.599
830,0.984,35.304,19.401,34.773,26.224,4.824,7.37,11.763
831,0.971,35.334,19.409,34.773,26.227,4.824,7.452,11.927
832,0.971,35.047,19.402,34.773,26.224,4.824,7.452,11.97
833,0.961,35.169,19.343,34.773,26.227,4.865,7.452,11.97
834,0.961,35.256,19.339,34.773,26.217,4.784,7.534,12.092
835,0.971,35.42,19.331,34.735,26.21,4.742,7.494,12.012
836,0.964,35.124,19.401,34.773,26.224,4.742,7.534,11.93
837,0.964,35.275,19.335,34.782,26.224,4.864,7.575,12.01
838,0.964,35.401,19.35,34.802,26.234,4.824,7.657,12.052
839,0.971,35.095,19.339,34.792,26.227,4.824,7.698,12.011
840,0.974,35.15,19.358,34.783,26.227,4.865,7.699,12.011
841,0.987,35.294,19.358,34.802,26.231,4.824,7.618,12.011
842,0.984,35.372,19.409,34.783,26.231,4.824,7.657,12.011
843,0.997,35.028,19.425,34.773,26.217,4.905,7.698,11.97
844,0.991,35.188,19.328,34.773,26.224,4.744,7.618,11.97
845,1.004,35.295,19.37,34.773,26.224,4.823,7.617,11.929
846,1.0,35.382,19.362,34.773,26.224,4.905,7.617,11.929
847,1.01,35.038,19.382,34.754,26.224,4.865,7.576,11.848
848,1.023,35.207,19.339,34.801,26.231,4.824,7.616,11.806
849,1.023,35.324,19.366,34.802,26.245,4.987,7.779,11.928
850,1.02,35.392,19.347,34.792,26.234,4.948,7.781,12.051
851,1.004,35.124,19.343,34.773,26.227,4.825,7.618,12.093
852,1.01,35.246,19.385,34.763,26.224,4.743,7.617,12.093
853,0.991,35.372,19.401,34.734,26.213,4.742,7.576,12.174
854,1.004,35.412,19.406,34.753,26.217,4.661,7.616,12.297
855,0.997,34.942,19.363,34.754,26.217,4.782,7.576,12.258
856,0.997,35.062,19.362,34.754,26.217,4.783,7.575,12.42
857,0.991,35.188,19.39,34.763,26.227,4.783,7.575,12.544
858,0.984,35.237,19.359,34.773,26.217,4.783,7.657,12.504
859,0.994,35.132,19.288,34.763,26.224,4.783,7.617,12.463
860,1.0,35.265,19.33,34.773,26.224,4.742,7.576,12.463
861,1.017,35.363,19.311,34.763,26.224,4.783,7.616,12.381
862,1.004,35.133,19.315,34.734,26.217,4.702,7.535,12.218
863,1.01,35.026,19.342,34.753,26.21,4.742,7.372,12.094
864,1.03,35.168,19.409,34.773,26.217,4.701,7.533,12.134
865,1.027,35.275,19.378,34.802,26.234,4.823,7.534,12.215
866,1.04,35.085,19.339,34.783,26.234,4.824,7.657,12.216
867,1.043,35.217,19.385,34.783,26.231,4.824,7.617,12.135
868,1.043,35.314,19.394,34.783,26.227,4.824,7.617,12.175
869,1.053,35.411,19.37,34.792,26.227,4.865,7.617,12.135
870,1.053,35.0,19.304,34.783,26.224,4.784,7.576,12.134
871,1.047,35.149,19.326,34.85,26.234,4.824,7.535,12.175
872,1.037,35.246,19.327,34.764,26.224,4.783,7.534,12.256
873,1.046,35.334,19.338,34.782,26.227,4.742,7.534,12.461
874,1.05,34.932,19.385,34.773,26.227,4.823,7.534,12.91
875,1.063,35.091,19.366,34.782,26.22,4.783,7.616,13.85
876,1.066,35.236,19.39,34.811,26.238,4.864,7.657,15.038
877,1.056,35.295,19.359,34.802,26.238,4.946,7.82,16.392
878,1.053,34.97,19.393,34.773,26.238,4.866,7.781,17.503
879,1.05,35.11,19.421,34.773,26.227,4.865,7.74,18.49
880,1.06,35.236,19.394,34.754,26.217,4.743,7.699,19.638
881,1.063,35.247,19.323,34.763,26.224,4.742,7.699,21.317
882,1.063,34.96,19.249,34.773,26.217,4.661,7.699,23.041
883,1.082,35.101,19.314,34.763,26.22,4.7,7.658,24.847
884,1.083,35.207,19.315,34.763,26.22,4.782,7.658,26.329
885,1.092,35.458,19.393,34.763,26.224,4.742,7.78,27.401
886,1.102,35.01,19.327,34.773,26.224,4.742,7.7,28.143
887,1.106,35.139,19.331,34.773,26.227,4.783,7.78,28.517
888,1.122,35.256,19.335,34.754,26.22,4.824,7.7,28.602
889,1.112,34.998,19.405,34.754,26.227,4.824,7.74,28.358
890,1.109,35.034,19.409,34.744,26.217,4.702,7.699,28.031
891,1.112,35.178,19.386,34.744,26.224,4.66,7.658,27.418
892,1.115,35.285,19.331,34.773,26.224,4.741,7.658,26.842
893,1.106,34.95,19.296,34.792,26.227,4.783,7.739,26.227
894,1.099,35.091,19.338,34.783,26.234,4.783,7.781,25.57
895,1.112,35.188,19.354,34.783,26.234,4.783,7.781,24.791
896,1.119,35.285,19.382,34.792,26.231,4.824,7.7,24.133
897,1.125,34.95,19.347,34.831,26.231,4.783,7.74,23.435
898,1.109,35.081,19.335,34.783,26.227,4.783,7.659,22.615
899,1.119,35.207,19.37,34.783,26.231,4.783,7.658,21.956
900,1.129,35.285,19.409,34.773,26.224,4.742,7.617,21.38
901,1.151,34.922,19.409,34.792,26.227,4.783,7.657,20.887
902,1.152,35.1,19.417,34.783,26.227,4.783,7.576,20.475
903,1.158,35.236,19.394,34.773,26.231,4.742,7.616,20.146
904,1.184,35.314,19.398,34.811,26.234,4.864,7.576,19.817
905,1.175,34.97,19.366,34.802,26.234,4.906,7.616,19.611
906,1.175,35.091,19.382,34.792,26.238,4.865,7.617,19.364
907,1.188,35.179,19.347,34.773,26.227,4.743,7.535,18.915
908,1.184,35.218,19.339,34.763,26.224,4.742,7.412,18.544
909,1.194,35.026,19.315,34.754,26.227,4.701,7.371,18.256
910,1.211,35.159,19.342,34.763,26.227,4.66,7.289,17.887
911,1.198,35.266,19.37,34.754,26.224,4.782,7.329,17.64
912,1.204,35.19,19.401,34.763,26.224,4.742,7.329,17.353
913,1.214,34.94,19.409,34.773,26.224,4.742,7.329,17.106
914,1.214,35.062,19.359,34.773,26.224,4.742,7.329,16.819
915,1.221,35.188,19.362,34.773,26.224,4.742,7.289,16.531
916,1.224,34.882,19.37,34.782,26.227,4.742,7.247,16.203
917,1.217,34.966,19.405,34.754,26.227,4.783,7.247,16.037
918,1.211,35.091,19.343,34.763,26.217,4.702,7.247,15.588
919,1.214,35.198,19.342,34.773,26.213,4.66,7.125,15.34
920,1.227,34.911,19.342,34.754,26.224,4.7,7.165,15.053
921,1.243,35.052,19.354,34.773,26.224,4.782,7.206,14.887
922,1.263,35.188,19.37,34.773,26.227,4.824,7.247,14.804
923,1.263,35.247,19.425,34.763,26.231,4.743,7.288,14.6
924,1.273,35.055,19.406,34.763,26.227,4.742,7.288,14.354
925,1.283,35.217,19.394,34.869,26.227,4.783,7.288,14.271
926,1.277,35.333,19.351,34.774,26.231,4.864,7.369,14.026
927,1.293,35.373,19.386,34.782,26.224,4.743,7.37,13.82
928,1.316,34.999,19.394,34.754,26.224,4.701,7.533,13.655
929,1.303,35.139,19.335,34.782,26.227,4.782,7.657,13.41
930,1.312,35.275,19.264,34.773,26.224,4.742,7.902,13.367
931,1.322,35.353,19.342,34.782,26.231,4.783,8.148,13.204
932,1.322,35.133,19.342,34.802,26.227,4.824,8.313,13.08
933,1.319,35.265,19.342,34.812,26.241,4.865,8.599,13.079
934,1.316,35.372,19.417,34.792,26.231,4.824,8.806,12.916
935,1.313,35.364,19.351,34.763,26.227,4.743,8.93,12.752
936,1.309,35.105,19.339,34.763,26.227,4.783,8.89,12.547
937,1.313,35.236,19.335,34.754,26.224,4.702,9.052,12.382
938,1.313,35.333,19.409,34.754,26.213,4.66,9.135,12.299
939,1.309,35.239,19.386,34.763,26.22,4.741,9.258,12.136
940,1.326,35.238,19.347,34.763,26.224,4.661,9.3,12.053
941,1.332,35.353,19.323,34.754,26.22,4.66,9.341,11.93
942,1.352,35.469,19.295,34.754,26.217,4.741,9.301,11.685
943,1.352,35.144,19.33,34.773,26.224,4.661,9.301,11.601
944,1.359,35.256,19.331,34.754,26.224,4.741,9.341,11.519
945,1.362,35.362,19.385,34.754,26.217,4.701,9.26,11.355
946,1.375,35.45,19.308,34.744,26.213,4.66,9.259,11.232
947,1.385,35.326,19.358,34.753,26.213,4.619,9.219,11.027
948,1.398,35.497,19.35,34.763,26.224,4.7,9.259,10.944
949,1.395,35.624,19.397,34.773,26.231,4.782,9.3,10.821
950,1.401,35.683,19.405,34.782,26.231,4.702,9.301,10.861
951,1.401,35.367,19.359,34.763,26.224,4.823,9.423,10.698
952,1.392,35.498,19.343,34.763,26.227,4.824,9.342,10.534
953,1.388,35.624,19.261,34.763,26.227,4.824,9.342,10.41
954,1.378,35.683,19.322,34.773,26.227,4.783,9.342,10.369
955,1.385,35.587,19.338,34.754,26.224,4.783,9.26,10.165
956,1.391,35.749,19.366,34.763,26.227,4.783,9.259,10.082
957,1.385,35.866,19.37,34.792,26.227,4.783,9.259,9.959
958,1.382,35.886,19.351,34.763,26.224,4.824,9.259,9.876
959,1.391,35.848,19.37,34.792,26.234,4.824,9.3,9.794
960,1.391,35.963,19.405,34.792,26.234,4.865,9.463,9.834
961,1.385,36.041,19.421,34.763,26.234,4.824,9.424,9.753
962,1.388,36.291,19.39,34.744,26.224,4.783,9.464,9.712
963,1.391,35.824,19.37,34.744,26.22,4.742,9.383,9.589
964,1.411,35.934,19.339,34.744,26.217,4.701,9.342,9.588
965,1.398,36.05,19.331,34.744,26.217,4.742,9.301,9.588
966,1.401,35.936,19.409,34.744,26.22,4.742,9.341,9.629
967,1.405,36.04,19.37,34.753,26.22,4.742,9.301,9.67
968,1.411,36.166,19.358,34.734,26.217,4.783,9.301,9.711
969,1.405,36.235,19.35,34.744,26.22,4.783,9.301,9.792
970,1.418,36.063,19.378,34.734,26.224,4.824,9.219,9.793
971,1.408,36.214,19.417,34.753,26.224,4.743,9.259,9.753
972,1.398,36.321,19.425,34.725,26.22,4.823,9.3,9.874
973,1.378,36.38,19.386,34.724,26.217,4.743,9.178,9.753
974,1.378,36.208,19.3,34.724,26.217,4.661,9.015,9.793
975,1.372,36.388,19.319,34.734,26.224,4.782,9.094,9.793
976,1.368,36.505,19.358,34.773,26.224,4.864,9.095,9.915
977,1.378,36.574,19.401,34.744,26.224,4.824,9.095,9.998
978,1.362,36.43,19.331,34.763,26.231,4.865,9.095,10.121
979,1.359,36.554,19.346,34.754,26.227,4.906,8.973,10.244
980,1.359,36.68,19.315,34.754,26.227,4.825,8.931,10.245
981,1.333,36.71,19.35,34.754,26.231,4.865,8.85,10.408
982,1.352,36.652,19.378,34.754,26.231,4.865,8.808,10.491
983,1.342,36.776,19.409,34.734,26.227,4.865,8.767,10.573
984,1.342,36.864,19.413,34.734,26.224,4.824,8.767,10.655
985,1.339,36.913,19.374,34.744,26.231,4.824,8.726,10.696
986,1.332,36.827,19.339,34.763,26.227,4.905,8.807,10.9
987,1.332,36.941,19.389,34.763,26.238,4.865,8.726,11.065
988,1.339,37.029,19.405,34.763,26.238,4.987,8.807,11.351
989,1.313,36.962,19.308,34.763,26.231,4.907,8.726,11.679
990,1.3,36.847,19.33,34.734,26.224,4.865,8.644,11.926
991,1.286,36.97,19.331,34.715,26.224,4.824,8.521,12.132
992,1.264,37.048,19.358,34.734,26.22,4.824,8.52,12.419
993,1.267,36.857,19.386,34.734,26.224,4.783,8.479,12.666
994,1.244,36.961,19.417,34.725,26.22,4.783,8.398,12.912
995,1.227,37.106,19.343,34.724,26.224,4.783,8.478,13.158
996,1.217,37.184,19.331,34.724,26.224,4.824,8.479,13.283
997,1.214,37.002,19.354,34.715,26.224,4.865,8.479,13.447
998,1.208,37.125,19.401,34.744,26.224,4.906,8.438,13.448
999,1.191,37.251,19.343,34.734,26.224,4.865,8.519,13.489
1000,1.165,37.3,19.296,34.715,26.22,4.824,8.439,13.449
1001,1.165,37.147,19.319,34.705,26.213,4.743,8.357,13.408
1002,1.168,37.28,19.319,34.715,26.213,4.823,8.275,13.285
1003,1.155,37.387,19.323,34.734,26.22,4.783,8.355,13.325
1004,1.155,37.455,19.374,34.753,26.227,4.824,8.356,13.325
1005,1.135,37.216,19.37,34.744,26.231,4.905,8.437,13.406
1006,1.125,37.367,19.351,34.744,26.234,4.865,8.479,13.529
1007,1.138,37.464,19.335,34.744,26.231,4.906,8.398,13.734
1008,1.116,37.494,19.37,34.725,26.227,4.865,8.438,13.858
1009,1.115,37.322,19.409,34.734,26.231,4.946,8.438,14.103
1010,1.106,37.454,19.398,34.744,26.224,4.907,8.438,14.309
1011,1.089,37.552,19.347,34.734,26.231,4.865,8.397,14.392
1012,1.07,37.572,19.327,34.734,26.231,4.906,8.316,14.515
1013,1.056,37.332,19.331,34.83,26.231,4.947,8.315,14.597
1014,1.037,37.464,19.323,34.745,26.231,4.907,8.234,14.598
1015,1.04,37.58,19.389,34.715,26.227,4.865,8.273,14.639
1016,1.04,37.505,19.382,34.753,26.241,4.946,8.274,14.558
1017,1.017,37.562,19.358,34.763,26.245,5.029,8.193,14.679
1018,0.991,37.639,19.339,34.744,26.231,4.989,8.232,14.64
1019,0.991,37.726,19.37,34.734,26.231,4.907,8.111,14.517
1020,0.984,37.41,19.374,34.715,26.217,4.865,8.028,14.353
1021,0.987,37.513,19.409,34.705,26.227,4.824,7.987,14.271
1022,0.981,37.638,19.394,34.715,26.217,4.783,7.986,14.107
1023,0.974,37.726,19.339,34.715,26.224,4.824,7.864,13.983
1024,0.964,37.43,19.339,34.705,26.22,4.824,7.782,13.86
1025,0.958,37.58,19.311,34.715,26.217,4.865,7.903,13.615
1026,0.958,37.697,19.373,34.715,26.21,4.865,7.863,13.572
1027,0.951,37.746,19.319,34.724,26.231,4.865,7.782,13.368
1028,0.954,37.449,19.342,34.715,26.227,4.865,7.781,13.122
1029,0.938,37.571,19.307,34.715,26.217,4.906,7.781,12.998
1030,0.925,37.658,19.346,34.696,26.217,4.865,7.7,12.834
1031,0.922,37.717,19.374,34.686,26.217,4.784,7.618,12.507
1032,0.912,37.564,19.44,34.715,26.224,4.905,7.657,12.382
1033,0.895,37.677,19.464,34.734,26.227,4.906,7.698,12.258
1034,0.899,37.793,19.348,34.725,26.234,4.947,7.699,12.135
1035,0.892,37.833,19.346,34.715,26.231,4.988,7.74,12.012
1036,0.882,37.488,19.374,34.734,26.227,4.948,7.699,11.93
1037,0.876,37.609,19.401,34.725,26.227,4.947,7.658,11.766
1038,0.869,37.745,19.335,34.724,26.227,4.947,7.658,11.642
1039,0.859,37.804,19.358,34.724,26.224,4.907,7.617,11.682
1040,0.853,37.613,19.35,34.724,26.227,4.947,7.617,12.211
1041,0.859,37.726,19.343,34.744,26.234,4.947,7.495,12.989
1042,0.869,37.813,19.346,34.715,26.227,4.907,7.534,13.932
1043,0.872,37.517,19.389,34.734,26.234,4.947,7.494,14.917
1044,0.882,37.6,19.421,34.763,26.234,5.029,7.534,15.943
1045,0.876,37.726,19.359,34.734,26.241,5.03,7.616,17.173
1046,0.859,37.784,19.362,34.715,26.224,4.948,7.535,18.527
1047,0.862,37.411,19.382,34.705,26.231,4.947,7.291,20.045
1048,0.879,37.522,19.37,34.686,26.22,4.866,7.329,21.605
1049,0.859,37.648,19.323,34.705,26.22,4.865,7.289,22.962
1050,0.869,37.745,19.288,34.734,26.217,4.824,7.288,24.033
1051,0.846,37.372,19.326,34.696,26.22,4.824,7.329,24.857
1052,0.843,37.512,19.323,34.695,26.224,4.905,7.289,25.353
1053,0.846,37.629,19.323,34.715,26.217,4.947,7.288,25.521
1054,0.833,37.688,19.366,34.705,26.227,4.907,7.288,25.563
1055,0.833,37.448,19.327,34.705,26.227,4.906,7.288,25.441
1056,0.82,37.571,19.315,34.705,26.224,4.906,7.288,25.156
1057,0.826,37.668,19.33,34.676,26.22,4.865,7.247,24.868
1058,0.817,37.707,19.397,34.676,26.22,4.824,7.206,24.418
1059,0.826,37.439,19.398,34.714,26.227,4.905,7.287,24.047
1060,0.82,37.599,19.363,34.734,26.231,4.906,7.369,23.719
1061,0.826,37.716,19.319,34.715,26.227,4.906,7.411,23.349
1062,0.807,37.698,19.338,34.724,26.231,4.987,7.371,22.817
1063,0.81,37.487,19.323,34.724,26.231,4.988,7.492,22.405
1064,0.813,37.619,19.362,34.705,26.227,4.948,7.494,21.995
1065,0.816,37.707,19.405,34.715,26.231,4.947,7.656,21.584
1066,0.82,37.41,19.347,34.724,26.224,4.907,7.658,21.255
1067,0.83,37.302,19.311,34.705,26.231,4.865,7.78,21.089
1068,0.839,37.416,19.346,34.705,26.227,4.946,7.862,21.128
1069,0.839,37.503,19.389,34.705,26.224,4.907,7.904,21.331
1070,0.852,37.399,19.425,34.715,26.227,4.906,7.945,21.577
1071,0.846,37.541,19.402,34.744,26.231,4.947,7.986,21.946
1072,0.82,37.648,19.351,34.753,26.234,5.069,8.19,22.519
1073,0.82,37.726,19.327,34.725,26.231,4.989,8.192,22.89
1074,0.807,37.152,19.338,34.705,26.22,4.907,8.232,23.138
1075,0.803,37.27,19.362,34.686,26.224,4.865,8.192,23.303
1076,0.797,37.377,19.362,34.676,26.224,4.906,8.11,23.305
1077,0.8,37.455,19.35,34.743,26.22,4.865,8.191,23.223
1078,0.787,37.254,19.331,34.686,26.224,4.824,8.273,22.938
1079,0.793,37.377,19.331,34.695,26.224,4.865,8.233,22.772
1080,0.793,37.484,19.393,34.695,26.224,4.865,8.233,22.446
1081,0.81,37.523,19.398,34.686,26.227,4.946,8.355,21.995
1082,0.813,37.197,19.433,34.686,26.231,4.866,8.397,21.665
1083,0.813,37.328,19.375,34.705,26.227,4.865,8.438,21.133
1084,0.807,37.435,19.374,34.705,26.227,4.906,8.397,20.681
1085,0.81,37.455,19.323,34.676,26.224,4.825,8.438,20.31
1086,0.813,37.197,19.381,34.676,26.217,4.783,8.316,19.575
1087,0.81,37.348,19.347,34.705,26.217,4.824,8.437,19.242
1088,0.826,37.445,19.358,34.686,26.234,4.824,8.519,18.751
1089,0.826,37.762,19.343,34.715,26.227,4.987,8.561,18.299
1090,0.833,37.075,19.358,34.696,26.231,4.907,8.521,17.888
1091,0.813,37.183,19.401,34.705,26.227,4.906,8.601,17.437
1092,0.816,37.29,19.406,34.705,26.231,4.906,8.48,16.985
1093,0.813,37.147,19.413,34.724,26.231,4.865,8.479,16.614
1094,0.803,37.213,19.328,34.696,26.231,4.946,8.52,16.123
1095,0.807,37.319,19.35,34.705,26.224,4.907,8.398,15.752
1096,0.807,37.416,19.386,34.696,26.231,4.906,8.438,15.382
1097,0.803,37.005,19.37,34.695,26.224,4.865,8.397,15.094
1098,0.81,37.154,19.315,34.695,26.224,4.865,8.356,14.847
1099,0.82,37.28,19.346,34.724,26.234,5.028,8.437,14.601
1100,0.803,37.368,19.331,34.724,26.241,5.03,8.479,14.436
1101,0.8,36.985,19.338,34.705,26.231,4.989,8.438,14.109
1102,0.807,37.106,19.362,34.696,26.227,4.907,8.397,13.902
1103,0.823,37.232,19.358,34.686,26.231,4.947,8.275,13.656
1104,0.826,37.271,19.401,34.676,26.224,4.825,8.274,13.45
1105,0.83,36.792,19.347,34.686,26.22,4.824,8.152,13.204
1106,0.817,36.95,19.343,34.676,26.22,4.824,8.191,13.039
1107,0.826,37.057,19.358,34.676,26.224,4.824,8.11,12.956
1108,0.839,37.097,19.374,34.676,26.217,4.783,8.109,12.752
1109,0.826,36.925,19.312,34.695,26.224,4.864,8.191,12.628
1110,0.823,37.057,19.358,34.743,26.22,4.865,8.07,12.505
1111,0.833,37.183,19.327,34.686,26.234,4.865,8.028,12.341
1112,0.82,37.204,19.323,34.695,26.224,4.906,8.068,12.217
1113,0.817,36.974,19.338,34.676,26.224,4.865,8.069,12.135
1114,0.807,37.077,19.401,34.667,26.217,4.824,7.987,11.931
1115,0.816,37.183,19.339,34.676,26.21,4.783,7.946,11.726
1116,0.816,37.069,19.339,34.686,26.217,4.824,7.864,11.561
1117,0.816,36.867,19.342,34.676,26.224,4.865,7.944,11.519
1118,0.816,36.989,19.397,34.695,26.227,4.906,7.986,11.477
1119,0.823,37.077,19.405,34.715,26.234,4.906,7.986,11.396
1120,0.817,36.809,19.324,34.715,26.231,4.947,7.986,11.314
1121,0.813,36.922,19.245,34.696,26.227,4.866,7.946,11.232
1122,0.826,37.048,19.209,34.705,26.227,4.865,7.823,11.027
1123,0.833,37.135,19.314,34.696,26.22,4.865,7.863,10.944
1124,0.826,36.637,19.334,34.686,26.227,4.865,7.782,10.902
1125,0.83,36.776,19.37,34.695,26.231,4.865,7.862,10.821
1126,0.846,36.883,19.3,34.705,26.227,4.865,7.782,10.739
1127,0.843,36.98,19.323,34.705,26.224,4.784,7.822,10.697
1128,0.843,36.741,19.377,34.676,26.231,4.864,7.903,10.575
1129,0.853,36.883,19.433,34.724,26.234,4.987,7.945,10.492
1130,0.856,36.98,19.418,34.724,26.241,4.988,8.026,10.573
1131,0.84,37.039,19.359,34.705,26.231,4.988,7.905,10.574
1132,0.82,36.675,19.3,34.686,26.224,4.907,7.945,10.33
1133,0.826,36.853,19.319,34.695,26.224,4.784,7.823,10.246
1134,0.807,36.941,19.303,34.676,26.22,4.783,7.863,10.123
1135,0.807,36.981,19.358,34.667,26.22,4.824,7.944,10.0
1136,0.826,36.674,19.327,34.647,26.22,4.783,7.864,9.917
1137,0.823,36.825,19.331,34.676,26.224,4.864,7.904,9.876
1138,0.81,36.912,19.327,34.667,26.227,4.784,7.904,9.835
1139,0.81,36.932,19.374,34.676,26.224,4.864,7.823,9.794
1140,0.81,36.655,19.401,34.686,26.224,4.865,7.863,9.753
1141,0.82,36.786,19.409,34.686,26.22,4.865,7.863,9.833
1142,0.83,36.883,19.417,34.686,26.22,4.906,7.822,9.672
1143,0.82,36.673,19.339,34.667,26.224,4.906,7.822,9.629
1144,0.826,36.681,19.354,34.666,26.22,4.784,7.741,9.588
1145,0.843,36.815,19.323,34.647,26.213,4.702,7.74,9.547
1146,0.836,36.922,19.393,34.695,26.227,4.823,7.781,9.466
1147,0.83,36.568,19.312,34.686,26.231,4.905,7.862,9.546
1148,0.839,36.699,19.342,34.695,26.227,4.947,7.863,9.588
1149,0.846,36.796,19.335,34.686,26.227,4.907,7.782,9.547
1150,0.846,36.893,19.378,34.686,26.231,4.906,7.781,9.547
1151,0.849,36.52,19.401,34.686,26.227,4.865,7.781,9.547
1152,0.836,36.65,19.417,34.705,26.231,4.906,7.7,9.506
1153,0.836,36.767,19.413,34.696,26.231,4.987,7.618,9.425
1154,0.82,36.825,19.324,34.705,26.231,4.866,7.657,9.342
1155,0.836,36.481,19.35,34.696,26.231,4.906,7.698,9.423
1156,0.82,36.592,19.37,34.695,26.224,4.987,7.618,9.424
1157,0.83,36.728,19.401,34.686,26.227,4.866,7.617,9.302
1158,0.833,36.806,19.316,34.715,26.227,4.987,7.617,9.301
1159,0.826,36.596,19.338,34.715,26.245,5.029,7.739,9.341
1160,0.82,36.709,19.342,34.705,26.238,5.03,7.699,9.342
1161,0.82,36.796,19.366,34.676,26.231,4.989,7.618,9.301
1162,0.817,36.807,19.378,34.667,26.217,4.866,7.535,9.178
1163,0.813,36.481,19.413,34.676,26.22,4.906,7.494,9.096
1164,0.833,36.583,19.371,34.686,26.217,4.906,7.494,9.054
1165,0.833,36.709,19.366,34.676,26.22,4.906,7.453,8.932
1166,0.843,36.815,19.331,34.667,26.224,4.865,7.452,8.89
1167,0.836,36.5,19.401,34.695,26.227,4.906,7.412,8.93
1168,0.846,36.621,19.366,34.676,26.231,4.865,7.533,8.85
1169,0.849,36.719,19.292,34.686,26.227,4.865,7.494,8.767
1170,0.853,36.489,19.342,34.695,26.224,4.946,7.534,8.685
1171,0.827,36.564,19.311,34.676,26.224,4.988,7.575,8.766
1172,0.83,36.67,19.35,34.676,26.224,4.988,7.535,8.685
1173,0.83,36.738,19.323,34.676,26.217,4.866,7.494,8.603
1174,0.826,36.375,19.393,34.657,26.217,4.784,7.453,8.48
1175,0.826,36.486,19.281,34.685,26.224,4.783,7.412,8.438
1176,0.823,36.64,19.334,34.705,26.227,4.946,7.452,8.519
1177,0.82,36.7,19.358,34.686,26.231,4.907,7.574,8.52
1178,0.823,36.384,19.413,34.686,26.231,4.947,7.616,8.52
1179,0.817,36.524,19.371,34.715,26.234,4.907,7.535,8.439
1180,0.816,36.631,19.296,34.715,26.227,4.987,7.616,8.438
1181,0.839,36.7,19.229,34.715,26.224,4.907,7.535,8.438
1182,0.833,36.249,19.314,34.696,26.224,4.947,7.494,8.397
1183,0.833,36.379,19.319,34.705,26.227,4.907,7.534,8.316
1184,0.843,36.496,19.37,34.696,26.224,4.906,7.534,8.356
1185,0.843,36.526,19.382,34.695,26.231,4.947,7.494,8.356
1186,0.849,36.372,19.355,34.686,26.227,4.947,7.453,8.356
1187,0.853,36.534,19.331,34.715,26.234,4.907,7.452,8.397
1188,0.853,36.641,19.37,34.724,26.238,5.028,7.452,8.519
1189,0.84,36.642,19.401,34.715,26.238,4.989,7.534,8.683
1190,0.833,36.23,19.366,34.696,26.231,4.988,7.494,8.807
1191,0.836,36.341,19.312,34.686,26.224,4.907,7.331,8.889
1192,0.817,36.438,19.268,34.686,26.22,4.865,7.289,8.971
1193,0.81,36.4,19.33,34.705,26.22,4.865,7.247,9.053
1194,0.816,36.371,19.307,34.676,26.217,4.824,7.206,9.176
1195,0.807,36.496,19.381,34.676,26.224,4.783,7.287,9.259
1196,0.8,36.621,19.339,34.686,26.224,4.905,7.207,9.381
1197,0.81,36.162,19.354,34.686,26.224,4.865,7.206,9.342
1198,0.797,36.282,19.35,34.695,26.217,4.906,7.287,9.464
1199,0.803,36.418,19.378,34.705,26.224,4.906,7.329,9.587
1200,0.81,36.486,19.386,34.715,26.22,4.825,7.41,9.629
1201,0.81,36.065,19.374,34.696,26.227,4.865,7.452,9.507
1202,0.813,36.205,19.366,34.686,26.224,4.824,7.615,9.506
1203,0.81,36.35,19.327,34.676,26.206,4.865,7.739,9.587
1204,0.807,36.428,19.315,34.676,26.217,4.743,7.862,9.425
1205,0.813,36.113,19.327,34.686,26.217,4.742,8.107,9.464
1206,0.82,36.263,19.393,34.715,26.227,4.823,8.272,9.668
1207,0.82,36.379,19.339,34.715,26.231,4.946,8.558,9.792
1208,0.833,36.448,19.335,34.705,26.231,4.947,8.683,9.915
1209,0.833,36.237,19.338,34.696,26.231,4.947,8.888,9.998
1210,0.83,36.379,19.358,34.715,26.231,4.988,9.012,10.08
1211,0.826,36.486,19.401,34.715,26.227,4.907,9.094,10.243
1212,0.817,36.525,19.39,34.715,26.231,4.906,9.176,10.408
1213,0.803,36.056,19.417,34.705,26.227,4.906,9.259,10.45
1214,0.803,36.185,19.25,34.705,26.224,4.865,9.259,10.491
1215,0.794,36.311,19.303,34.715,26.227,4.906,9.259,10.573
1216,0.787,36.629,19.373,34.715,26.224,4.947,9.3,10.614
1217,0.797,36.182,19.378,34.705,26.227,4.907,9.26,10.655
1218,0.803,36.321,19.304,34.724,26.227,4.947,9.259,10.778
1219,0.8,36.447,19.346,34.734,26.234,4.907,9.219,10.779
1220,0.794,36.189,19.362,34.744,26.241,4.947,9.381,10.82
1221,0.784,36.206,19.347,34.725,26.234,4.988,9.301,10.861
1222,0.787,36.292,19.374,34.705,26.227,4.866,9.178,10.902
1223,0.79,36.399,19.382,34.696,26.224,4.824,9.096,10.861
1224,0.797,36.026,19.37,34.695,26.217,4.824,9.054,10.902
1225,0.794,36.147,19.347,34.695,26.22,4.783,9.054,10.983
1226,0.797,36.282,19.331,34.686,26.22,4.824,8.973,11.472
1227,0.807,36.36,19.393,34.695,26.217,4.865,9.013,12.331
1228,0.82,35.987,19.359,34.705,26.22,4.824,9.013,13.275
1229,0.8,36.127,19.284,34.705,26.224,4.865,8.972,14.138
1230,0.81,36.263,19.33,34.696,26.22,4.865,8.972,15.082
1231,0.8,36.322,19.342,34.705,26.224,4.906,8.972,16.27
1232,0.79,36.054,19.354,34.705,26.224,4.906,8.931,17.786
1233,0.784,36.166,19.354,34.686,26.217,4.865,8.89,19.306
1234,0.777,36.302,19.389,34.686,26.217,4.784,8.768,20.947
1235,0.784,36.361,19.3,34.705,26.224,4.824,8.767,22.265
1236,0.787,36.016,19.338,34.705,26.227,4.865,8.807,23.416
1237,0.787,36.166,19.362,34.715,26.231,4.865,8.808,24.2
1238,0.787,36.263,19.397,34.734,26.231,4.987,8.808,24.737
1239,0.784,36.283,19.363,34.725,26.227,4.907,8.767,24.945
1240,0.777,36.015,19.319,34.734,26.231,4.865,8.726,24.947
1241,0.784,36.166,19.217,34.744,26.224,4.906,8.766,24.825
1242,0.79,36.263,19.333,34.715,26.227,4.906,8.685,24.54
1243,0.797,36.255,19.346,34.715,26.227,4.947,8.684,24.13
1244,0.8,36.101,19.37,34.734,26.234,4.825,8.562,23.76
1245,0.794,36.215,19.386,34.725,26.227,4.865,8.561,23.228
1246,0.79,36.331,19.343,34.724,26.224,4.906,8.48,22.735
1247,0.819,35.968,19.342,34.724,26.224,4.906,8.52,22.12
1248,0.82,36.06,19.385,34.744,26.238,4.987,8.52,21.545
1249,0.813,36.186,19.398,34.734,26.231,4.988,8.561,21.01
1250,0.816,36.254,19.382,34.725,26.231,5.029,8.48,20.476
1251,0.794,36.015,19.339,34.715,26.227,4.907,8.398,19.942
1252,0.79,36.147,19.292,34.724,26.224,4.825,8.356,19.449
1253,0.784,36.273,19.315,34.744,26.22,4.824,8.275,19.119
1254,0.79,36.36,19.307,34.706,26.217,4.824,8.193,18.872
1255,0.774,36.016,19.35,34.715,26.227,4.824,8.151,18.869
1256,0.774,36.128,19.339,34.715,26.224,4.743,8.11,18.829
1257,0.774,36.263,19.323,34.715,26.22,4.823,8.109,18.869
1258,0.764,36.331,19.311,34.734,26.224,4.783,8.069,18.869
1259,0.774,36.284,19.358,34.715,26.224,4.864,8.109,18.869
1260,0.767,36.428,19.401,34.715,26.224,4.824,8.028,18.788
1261,0.774,36.544,19.409,34.724,26.227,4.743,8.068,18.746
1262,0.764,36.545,19.386,34.705,26.224,4.823,8.028,18.583
1263,0.767,35.884,19.339,34.715,26.217,4.783,7.905,18.338
1264,0.777,36.049,19.331,34.705,26.217,4.702,7.904,18.01
1265,0.787,36.176,19.346,34.724,26.224,4.742,7.945,17.844
1266,0.8,36.187,19.378,34.724,26.231,4.864,7.986,17.68
1267,0.79,36.043,19.323,34.753,26.227,4.824,8.027,17.475
1268,0.797,36.176,19.331,34.734,26.238,4.865,8.109,17.148
1269,0.8,36.283,19.319,34.734,26.231,4.865,8.109,16.86
1270,0.807,36.063,19.346,34.734,26.224,4.824,8.191,16.532
1271,0.8,36.023,19.389,34.734,26.231,4.865,8.273,16.284
1272,0.794,36.147,19.386,34.734,26.231,4.906,8.436,15.916
1273,0.771,36.215,19.401,34.744,26.227,4.825,8.56,15.628
1274,0.764,35.909,19.288,34.734,26.224,4.824,8.643,15.34
1275,0.777,36.05,19.326,34.744,26.234,4.865,8.847,15.053
1276,0.78,36.185,19.362,34.734,26.227,4.906,8.971,14.847
1277,0.767,36.292,19.393,34.763,26.231,4.825,9.053,14.682
1278,0.764,36.015,19.331,34.792,26.234,4.987,9.298,14.64
1279,0.754,36.108,19.331,34.763,26.238,4.948,9.341,14.68
1280,0.744,36.205,19.323,34.744,26.231,4.907,9.342,14.558
1281,0.751,36.264,19.354,34.725,26.227,4.825,9.301,14.395
1282,0.754,36.073,19.378,34.734,26.22,4.824,9.301,14.312
1283,0.77,36.205,19.409,34.715,26.217,4.783,9.341,14.189
1284,0.78,36.321,19.343,34.715,26.224,4.824,9.342,14.188
1285,0.777,36.399,19.331,34.734,26.224,4.783,9.342,14.025
1286,0.78,36.064,19.338,34.734,26.22,4.783,9.301,14.023
1287,0.784,36.176,19.397,34.725,26.217,4.783,9.382,13.901
1288,0.8,36.302,19.37,34.715,26.227,4.824,9.342,13.778
1289,0.787,36.341,19.362,34.744,26.231,4.865,9.301,13.655
1290,0.784,35.987,19.335,34.753,26.227,4.784,9.26,13.572
1291,0.764,36.089,19.319,34.725,26.224,4.864,9.259,13.327
1292,0.757,36.205,19.319,34.715,26.213,4.784,9.219,13.081
1293,0.764,36.494,19.37,34.724,26.217,4.742,9.096,12.876
1294,0.761,36.065,19.409,34.734,26.22,4.823,9.176,12.751
1295,0.767,36.205,19.37,34.782,26.227,4.865,9.177,12.709
1296,0.767,36.302,19.347,34.744,26.227,4.987,9.259,12.668
1297,0.757,36.035,19.389,34.753,26.231,4.907,9.259,12.587
1298,0.748,36.089,19.394,34.763,26.227,4.865,9.259,12.545
1299,0.744,36.224,19.347,34.782,26.227,4.906,9.219,12.504
1300,0.741,36.293,19.21,34.754,26.227,4.906,9.137,12.463
1301,0.754,35.958,19.341,34.754,26.224,4.865,9.177,12.463
1302,0.761,36.079,19.315,34.754,26.227,4.906,9.177,12.422
1303,0.77,36.215,19.338,34.754,26.231,4.865,9.096,12.34
1304,0.77,36.264,19.374,34.744,26.227,4.865,9.014,12.299
1305,0.764,36.015,19.327,34.753,26.224,4.865,8.972,12.258
1306,0.783,36.185,19.358,34.792,26.234,4.906,9.013,12.095
1307,0.78,36.311,19.343,34.783,26.238,4.947,9.094,12.174
1308,0.79,36.351,19.393,34.735,26.238,4.988,9.095,12.013
1309,0.777,35.92,19.386,34.744,26.231,4.988,8.973,11.97
1310,0.774,36.05,19.335,34.734,26.227,4.948,8.891,11.807
1311,0.771,36.157,19.296,34.725,26.227,4.866,8.809,11.602
1312,0.774,36.215,19.322,34.811,26.22,4.824,8.686,11.397
1313,0.764,36.12,19.346,34.745,26.22,4.824,8.725,11.273
1314,0.754,36.244,19.346,34.744,26.22,4.824,8.685,11.231
1315,0.754,36.36,19.378,34.734,26.224,4.865,8.603,11.068
1316,0.751,36.38,19.339,34.773,26.22,4.784,8.602,11.066
1317,0.748,36.141,19.346,34.744,26.224,4.864,8.602,11.026
1318,0.747,36.273,19.362,34.753,26.224,4.906,8.521,10.985
1319,0.76,36.37,19.413,34.754,26.227,4.865,8.52,10.862
1320,0.748,36.285,19.402,34.754,26.231,4.824,8.52,10.739
1321,0.76,36.169,19.331,34.734,26.227,4.865,8.479,10.697
1322,0.754,36.263,19.315,34.725,26.213,4.784,8.398,10.534
1323,0.754,36.399,19.323,34.811,26.21,4.742,8.234,10.329
1324,0.764,35.94,19.334,34.745,26.224,4.783,8.273,10.327
1325,0.787,36.04,19.366,34.763,26.224,4.824,8.274,10.246
1326,0.774,36.166,19.354,34.773,26.227,4.905,8.314,10.286
1327,0.777,36.273,19.347,34.792,26.234,4.947,8.315,10.286
1328,0.784,36.044,19.335,34.754,26.224,4.907,8.315,10.164
1329,0.793,36.185,19.389,34.763,26.231,4.987,8.274,10.041
1330,0.78,36.292,19.398,34.754,26.227,4.866,8.193,9.958
1331,0.764,36.37,19.398,34.763,26.224,4.906,8.11,9.917
1332,0.751,36.054,19.386,34.754,26.227,4.947,8.15,9.835
1333,0.764,36.195,19.292,34.754,26.224,4.907,8.11,9.794
1334,0.751,36.321,19.315,34.754,26.227,4.825,8.109,9.753
1335,0.764,36.39,19.33,34.763,26.227,4.865,8.028,9.59
1336,0.761,36.179,19.401,34.782,26.238,5.028,8.109,9.588
1337,0.751,36.311,19.324,34.802,26.234,4.989,8.232,9.629
1338,0.748,36.389,19.334,34.764,26.234,5.029,8.111,9.548
1339,0.747,36.409,19.338,34.763,26.224,4.907,8.069,9.425
1340,0.741,36.016,19.354,34.754,26.224,4.865,7.987,9.261
1341,0.747,36.175,19.362,34.744,26.224,4.865,7.986,9.137
1342,0.751,36.283,19.417,34.734,26.22,4.784,7.946,9.055
1343,0.754,36.293,19.39,34.744,26.224,4.824,7.864,9.013
1344,0.754,36.197,19.288,34.753,26.217,4.905,7.944,9.094
1345,0.757,36.34,19.338,34.763,26.217,4.865,7.986,9.014
1346,0.764,36.419,19.374,34.754,26.224,4.906,7.946,9.054
1347,0.77,36.064,19.37,34.754,26.227,4.906,7.905,8.973
1348,0.767,36.032,19.288,34.782,26.224,4.825,7.945,8.931
1349,0.767,36.147,19.311,34.744,26.224,4.905,7.945,8.931
1350,0.757,36.244,19.315,34.763,26.213,4.906,7.864,8.809
1351,0.754,36.063,19.342,34.744,26.213,4.825,7.741,8.645
1352,0.761,36.205,19.385,34.763,26.224,4.865,7.862,8.684
1353,0.767,36.331,19.417,34.782,26.231,4.946,7.863,8.766
1354,0.757,36.399,19.359,34.783,26.231,4.988,7.904,8.726
1355,0.754,36.036,19.343,34.773,26.231,4.988,7.863,8.685
1356,0.741,36.147,19.327,34.773,26.224,4.988,7.904,8.684
1357,0.754,36.254,19.413,34.782,26.227,4.988,7.823,8.644
1358,0.748,36.341,19.324,34.792,26.22,4.988,7.781,8.603
1359,0.741,35.997,19.221,34.792,26.231,4.948,7.822,8.521
1360,0.751,36.147,19.306,34.783,26.224,4.907,7.781,8.561
1361,0.754,36.244,19.319,34.773,26.22,4.865,7.659,8.48
1362,0.748,36.312,19.342,34.773,26.224,4.946,7.698,8.479
1363,0.751,36.025,19.362,34.782,26.227,4.947,7.74,8.438
1364,0.764,36.147,19.409,34.811,26.238,5.029,7.781,8.479
1365,0.761,36.234,19.37,34.85,26.238,5.07,7.822,8.479
1366,0.764,36.264,19.323,34.764,26.227,4.948,7.741,8.438
1367,0.767,36.101,19.358,34.754,26.224,4.907,7.537,8.275
1368,0.764,36.215,19.374,34.763,26.217,4.865,7.534,8.233
1369,0.761,36.321,19.304,34.763,26.217,4.865,7.494,8.192
1370,0.757,36.322,19.311,34.802,26.217,4.824,7.534,8.151
1371,0.761,35.958,19.295,34.773,26.22,4.865,7.534,8.191
1372,0.757,36.098,19.315,34.773,26.227,4.865,7.616,8.151
1373,0.751,36.186,19.33,34.782,26.22,4.906,7.657,8.191
1374,0.748,36.081,19.401,34.773,26.22,4.906,7.617,8.151
1375,0.751,36.195,19.335,34.773,26.227,4.906,7.657,8.191
1376,0.741,36.292,19.338,34.773,26.227,4.947,7.658,8.11
1377,0.734,36.389,19.342,34.744,26.217,4.866,7.698,8.15
1378,0.725,35.987,19.378,34.744,26.217,4.824,7.618,8.11
1379,0.737,36.127,19.386,34.782,26.22,4.905,7.617,8.028
1380,0.738,36.263,19.323,34.792,26.231,4.906,7.739,8.149
1381,0.741,36.351,19.299,34.792,26.224,4.987,7.74,8.191
1382,0.754,35.939,19.299,34.811,26.231,4.988,7.821,8.151
1383,0.748,36.079,19.326,34.802,26.224,4.988,7.741,8.15
1384,0.747,36.186,19.319,34.802,26.227,4.907,7.659,8.191
1385,0.757,36.244,19.373,34.792,26.224,4.906,7.698,8.192
1386,0.757,35.967,19.351,34.802,26.227,4.987,7.74,8.232
1387,0.764,36.127,19.307,34.792,26.227,4.907,7.699,8.273
1388,0.77,36.234,19.358,34.783,26.231,4.947,7.658,8.314
1389,0.761,36.264,19.386,34.802,26.227,4.866,7.698,8.274
1390,0.777,35.929,19.386,34.802,26.224,4.946,7.658,8.274
1391,0.771,36.088,19.347,34.812,26.231,4.947,7.698,8.233
1392,0.754,36.195,19.276,34.84,26.238,5.069,7.699,8.395
1393,0.761,36.225,19.338,34.821,26.238,4.989,7.74,8.519
1394,0.754,36.024,19.307,34.793,26.227,4.988,7.659,8.52
1395,0.748,36.137,19.377,34.783,26.22,4.866,7.576,8.439
1396,0.744,36.225,19.319,34.783,26.224,4.906,7.494,8.397
1397,0.725,36.072,19.334,34.773,26.217,4.825,7.453,8.397
1398,0.718,36.023,19.319,34.773,26.22,4.824,7.493,8.438
1399,0.721,36.147,19.362,34.782,26.22,4.865,7.534,8.519
1400,0.728,36.244,19.405,34.792,26.22,4.824,7.575,8.561
1401,0.734,35.9,19.417,34.792,26.217,4.865,7.616,8.602
1402,0.741,36.011,19.371,34.802,26.22,4.906,7.739,8.724
1403,0.741,36.128,19.284,34.812,26.224,4.865,7.781,8.807
1404,0.754,36.234,19.315,34.802,26.224,4.906,7.862,8.889
1405,0.738,35.794,19.33,34.821,26.227,4.865,7.822,8.849
1406,0.747,35.905,19.35,34.802,26.224,4.865,7.944,8.889
1407,0.751,36.021,19.261,34.792,26.217,4.784,7.864,8.89
1408,0.767,36.128,19.314,34.792,26.217,4.824,7.904,8.768
1409,0.774,35.889,19.323,34.802,26.22,4.865,7.945,8.807
1410,0.774,36.05,19.362,34.821,26.224,4.946,7.986,8.889
1411,0.774,36.166,19.405,34.831,26.227,4.988,8.027,9.012
1412,0.777,36.215,19.433,34.821,26.234,4.988,8.109,8.972
1413,0.774,35.851,19.382,34.812,26.227,4.948,8.069,8.931
1414,0.767,36.011,19.351,34.821,26.227,4.947,8.069,8.89
1415,0.741,36.118,19.339,34.821,26.227,4.907,8.028,8.93
1416,0.751,36.157,19.362,34.821,26.227,4.906,8.149,8.931
1417,0.774,35.889,19.339,34.812,26.231,4.906,8.11,8.809
1418,0.754,36.04,19.346,34.831,26.227,4.987,8.028,8.848
1419,0.751,36.118,19.339,34.831,26.234,4.907,8.027,8.849
1420,0.741,36.474,19.346,34.831,26.231,4.906,8.027,8.849
1421,0.764,35.921,19.405,34.831,26.231,4.987,7.987,8.93
1422,0.774,36.04,19.441,34.841,26.238,4.988,7.986,8.89
1423,0.764,36.128,19.429,34.86,26.241,5.11,8.149,9.134
1424,0.774,35.822,19.347,34.841,26.238,5.03,8.15,9.217
1425,0.78,35.838,19.319,34.812,26.231,4.907,7.988,9.259
1426,0.793,35.963,19.362,34.812,26.217,4.865,7.946,9.178
1427,0.806,36.041,19.347,34.812,26.213,4.906,7.823,9.299
1428,0.826,35.763,19.276,34.802,26.224,4.906,7.822,9.382
1429,0.839,35.924,19.303,34.821,26.22,4.906,7.863,9.342
1430,0.865,36.012,19.307,34.812,26.22,4.906,7.904,9.382
1431,0.853,36.108,19.362,34.821,26.227,4.987,7.863,9.586
1432,0.859,35.735,19.382,34.831,26.22,4.948,7.782,9.588
1433,0.862,35.875,19.413,34.85,26.227,4.907,7.781,9.629
1434,0.849,35.992,19.371,34.831,26.227,4.906,7.781,9.67
1435,0.849,36.06,19.339,34.841,26.224,4.906,7.7,9.751
1436,0.846,35.764,19.319,34.802,26.22,4.865,7.699,9.712
1437,0.846,35.924,19.389,34.812,26.224,4.824,7.577,9.792
1438,0.827,36.031,19.362,34.84,26.22,4.865,7.575,10.2
1439,0.836,36.109,19.276,34.85,26.227,4.946,7.698,11.098
1440,0.836,35.764,19.338,34.86,26.227,4.988,7.658,12.124
1441,0.826,35.876,19.323,34.85,26.231,4.948,7.617,13.15
1442,0.826,35.982,19.362,34.86,26.227,4.988,7.617,14.177
1443,0.813,36.003,19.339,34.86,26.22,4.988,7.535,15.245
1444,0.823,35.763,19.413,34.85,26.224,4.988,7.575,16.556
1445,0.794,35.876,19.351,34.869,26.227,5.029,7.535,18.318
1446,0.816,35.992,19.323,34.86,26.224,4.948,7.494,20.165
1447,0.826,35.907,19.358,34.86,26.231,4.988,7.412,21.891
1448,0.856,35.743,19.37,34.841,26.224,4.948,7.411,23.209
1449,0.862,35.875,19.339,34.85,26.227,4.988,7.411,24.239
1450,0.872,35.982,19.28,34.879,26.234,5.029,7.452,24.94
1451,0.853,35.753,19.342,34.889,26.245,5.03,7.452,25.476
1452,0.846,35.837,19.327,34.87,26.231,5.07,7.412,25.603
1453,0.846,35.944,19.342,34.87,26.231,4.989,7.371,25.442
1454,0.846,36.031,19.378,34.851,26.227,4.907,7.289,25.196
1455,0.836,35.61,19.339,34.841,26.224,4.906,7.288,24.706
1456,0.862,35.769,19.339,34.85,26.217,4.865,7.288,24.294
1457,0.859,35.876,19.319,34.841,26.22,4.946,7.207,23.802
1458,0.862,35.963,19.397,34.841,26.224,4.907,7.287,23.228
1459,0.862,35.619,19.394,34.85,26.227,4.865,7.288,22.694
1460,0.862,35.759,19.351,34.869,26.22,4.865,7.247,22.16
1461,0.866,35.895,19.3,34.86,26.227,4.946,7.247,21.504
1462,0.866,35.963,19.264,34.879,26.224,4.988,7.206,21.091
1463,0.846,35.705,19.314,34.86,26.231,4.907,7.287,20.558
1464,0.833,35.818,19.303,34.85,26.217,4.906,7.288,20.228
1465,0.836,35.915,19.365,34.85,26.217,4.825,7.207,19.981
1466,0.849,35.954,19.312,34.86,26.217,4.824,7.206,19.856
1467,0.869,35.571,19.323,34.87,26.217,4.824,7.247,19.814
1468,0.879,35.739,19.35,34.86,26.231,4.946,7.41,19.773
1469,0.882,35.837,19.405,34.87,26.227,4.947,7.411,19.854
1470,0.879,35.857,19.398,34.889,26.227,4.988,7.493,19.774
1471,0.869,35.647,19.363,34.87,26.231,4.988,7.534,19.651
1472,0.85,35.759,19.347,34.879,26.227,4.988,7.494,19.528
1473,0.83,35.857,19.323,34.889,26.227,4.948,7.494,19.282
1474,0.83,35.666,19.311,34.889,26.231,4.907,7.453,19.036
1475,0.826,35.654,19.358,34.879,26.231,4.947,7.493,18.749
1476,0.817,35.788,19.37,34.889,26.231,4.947,7.575,18.502
1477,0.8,35.886,19.354,34.927,26.234,4.907,7.494,18.175
1478,0.803,35.599,19.339,34.909,26.227,4.947,7.494,17.968
1479,0.787,35.74,19.37,34.918,26.234,5.069,7.575,17.844
1480,0.774,35.828,19.417,34.909,26.234,5.07,7.698,17.721
1481,0.784,35.905,19.406,34.889,26.231,4.989,7.618,17.435
1482,0.774,35.446,19.39,34.87,26.217,4.948,7.617,17.107
1483,0.777,35.594,19.339,34.86,26.217,4.907,7.535,16.819
1484,0.784,35.73,19.323,34.87,26.22,4.825,7.616,16.491
1485,0.771,35.789,19.307,34.87,26.224,4.865,7.617,16.243
1486,0.783,35.569,19.369,34.87,26.224,4.906,7.698,15.956
1487,0.787,35.701,19.308,34.879,26.224,4.865,7.78,15.669
1488,0.793,35.827,19.319,34.899,26.224,4.865,7.822,15.381
1489,0.787,35.896,19.327,34.88,26.224,4.906,7.903,15.094
1490,0.78,35.541,19.35,34.889,26.224,4.865,7.904,14.888
1491,0.758,35.662,19.386,34.889,26.224,4.906,7.985,14.601
1492,0.728,35.76,19.401,34.879,26.22,4.906,7.986,14.354
1493,0.712,35.789,19.409,34.87,26.213,4.825,7.905,13.986
1494,0.711,35.512,19.269,34.87,26.22,4.824,7.863,13.738
1495,0.695,35.662,19.326,34.898,26.224,4.865,7.944,13.533
1496,0.698,35.769,19.374,34.908,26.231,4.987,8.026,13.449
1497,0.695,35.933,19.362,34.908,26.231,5.029,8.109,13.204
1498,0.656,35.647,19.3,34.918,26.234,4.948,8.069,13.039
1499,0.685,35.779,19.319,34.928,26.227,4.988,7.987,12.875
1500,0.679,35.885,19.331,34.909,26.234,4.907,8.027,12.711
1501,0.682,35.455,19.362,34.908,26.227,4.987,7.946,12.465
1502,0.692,35.499,19.417,34.918,26.224,4.988,7.986,12.381
1503,0.698,35.595,19.413,34.899,26.231,5.029,7.946,12.218
1504,0.714,35.682,19.378,34.908,26.227,4.989,7.986,12.054
1505,0.721,35.53,19.362,34.899,26.227,4.948,7.864,11.889
1506,0.708,35.672,19.347,34.918,26.231,4.947,7.944,11.685
1507,0.711,35.817,19.389,34.918,26.224,4.988,7.823,11.642
1508,0.708,35.886,19.347,34.937,26.238,5.11,7.863,11.519
1509,0.708,35.321,19.323,34.928,26.231,5.112,7.904,11.437
1510,0.705,35.449,19.311,34.918,26.231,4.989,7.904,11.233
1511,0.695,35.566,19.33,34.909,26.217,4.907,7.742,11.027
1512,0.688,35.634,19.354,34.889,26.217,4.865,7.659,10.863
1513,0.695,35.366,19.397,34.918,26.22,4.865,7.617,10.739
1514,0.682,35.507,19.394,34.889,26.217,4.865,7.617,10.616
1515,0.685,35.633,19.359,34.908,26.217,4.824,7.617,10.493
1516,0.682,35.702,19.335,34.908,26.217,4.865,7.617,10.451
1517,0.682,35.376,19.389,34.918,26.224,4.906,7.617,10.369
1518,0.675,35.527,19.359,34.928,26.224,4.865,7.576,10.287
1519,0.669,35.643,19.292,34.928,26.22,4.906,7.616,10.123
1520,0.669,35.644,19.311,34.918,26.227,4.906,7.535,10.0
1521,0.682,35.481,19.303,34.899,26.213,4.865,7.453,9.999
1522,0.688,35.624,19.311,34.908,26.213,4.784,7.371,9.795
1523,0.688,35.73,19.354,34.918,26.217,4.864,7.37,9.712
1524,0.698,35.473,19.374,34.937,26.227,4.865,7.533,9.67
1525,0.695,35.355,19.343,34.947,26.227,4.946,7.534,9.629
1526,0.705,35.498,19.323,34.938,26.231,4.947,7.575,9.588
1527,0.708,35.576,19.342,34.947,26.227,4.866,7.535,9.507
1528,0.721,35.327,19.37,34.918,26.231,4.906,7.616,9.425
1529,0.702,35.449,19.331,34.937,26.227,4.865,7.535,9.342
1530,0.708,35.585,19.284,34.947,26.231,4.946,7.616,9.26
1531,0.708,35.673,19.315,34.928,26.224,4.866,7.698,9.137
1532,0.702,35.319,19.311,34.947,26.227,4.906,7.699,9.055
1533,0.695,35.488,19.303,34.938,26.227,4.825,7.78,9.054
1534,0.692,35.595,19.346,34.928,26.224,4.824,7.822,8.973
1535,0.698,35.701,19.346,34.957,26.231,4.865,7.903,8.891
1536,0.692,35.3,19.35,34.957,26.241,5.028,7.945,8.971
1537,0.698,35.42,19.339,34.947,26.234,4.948,8.108,8.931
1538,0.679,35.527,19.374,34.938,26.227,4.947,7.987,8.89
1539,0.675,35.576,19.409,34.928,26.217,4.785,7.946,8.646
1540,0.678,35.366,19.328,34.928,26.224,4.864,7.864,8.684
1541,0.685,35.507,19.307,34.918,26.217,4.824,7.904,8.684
1542,0.685,35.633,19.229,34.918,26.22,4.824,7.904,8.644
1543,0.692,35.683,19.291,34.928,26.22,4.824,7.945,8.725
1544,0.701,35.367,19.315,34.918,26.217,4.824,7.986,8.766
1545,0.695,35.479,19.35,34.928,26.224,4.865,7.946,8.807
1546,0.688,35.604,19.284,34.937,26.224,4.824,8.108,8.889
1547,0.714,35.865,19.311,34.947,26.224,4.824,7.947,9.012
1548,0.702,35.369,19.338,34.909,26.22,4.905,7.945,9.013
1549,0.714,35.469,19.37,34.918,26.213,4.744,7.945,9.135
1550,0.724,35.576,19.386,34.899,26.213,4.742,7.823,9.177
1551,0.705,35.394,19.335,34.947,26.22,4.783,7.863,9.218
1552,0.705,35.46,19.307,34.947,26.227,4.824,8.026,9.34
1553,0.702,35.595,19.346,35.014,26.224,4.905,8.027,9.423
1554,0.682,35.711,19.327,34.957,26.227,4.906,8.068,9.505
1555,0.705,35.319,19.362,34.957,26.227,4.906,8.028,9.75
1556,0.685,35.449,19.335,34.957,26.227,4.906,8.027,10.077
1557,0.675,35.575,19.338,34.947,26.231,4.906,7.946,10.528
1558,0.672,35.663,19.319,34.966,26.227,4.865,8.026,10.939
1559,0.698,35.251,19.373,34.966,26.231,4.865,7.987,11.594
1560,0.698,35.401,19.405,34.986,26.224,4.865,7.946,12.657
1561,0.705,35.537,19.413,34.948,26.227,4.824,7.905,14.579
1562,0.715,35.615,19.374,34.966,26.224,4.865,7.904,17.241
1563,0.721,35.241,19.312,34.986,26.231,4.865,7.945,20.317
1564,0.724,35.391,19.33,34.986,26.231,5.068,8.026,23.397
1565,0.715,35.498,19.338,34.986,26.238,4.948,8.027,25.908
1566,0.708,35.537,19.374,34.967,26.231,4.907,7.946,27.722
1567,0.715,35.26,19.28,34.957,26.224,4.906,7.864,28.838
1568,0.711,35.42,19.318,34.938,26.224,4.825,7.822,29.54
1569,0.721,35.517,19.327,34.937,26.22,4.783,7.781,29.872
1570,0.711,35.538,19.366,34.957,26.224,4.742,7.74,29.916
1571,0.711,35.26,19.405,34.957,26.227,4.823,7.781,29.673
1572,0.698,35.391,19.406,34.957,26.224,4.865,7.74,29.264
1573,0.711,35.508,19.39,34.976,26.22,4.824,7.781,28.69
1574,0.731,35.48,19.214,34.967,26.22,4.865,7.74,28.034
1575,0.715,35.288,19.322,34.966,26.224,4.824,7.781,27.336
1576,0.708,35.392,19.358,34.957,26.224,4.865,7.74,26.679
1577,0.695,35.469,19.347,34.947,26.213,4.743,7.699,26.062
1578,0.675,35.211,19.327,34.957,26.21,4.742,7.618,25.65
1579,0.714,35.333,19.342,34.957,26.224,4.783,7.576,25.442
1580,0.711,35.469,19.331,34.976,26.224,4.783,7.698,25.521
1581,0.721,35.556,19.358,34.986,26.227,4.824,7.658,25.929
1582,0.731,35.183,19.405,34.986,26.227,4.905,7.658,26.502
1583,0.728,35.333,19.402,34.986,26.227,4.947,7.658,27.077
1584,0.721,35.469,19.335,34.986,26.227,4.907,7.698,27.693
1585,0.715,35.537,19.311,34.995,26.227,4.906,7.618,28.227
1586,0.711,35.221,19.342,34.976,26.224,4.906,7.617,28.599
1587,0.698,35.343,19.393,35.005,26.227,4.865,7.617,28.887
1588,0.705,35.459,19.327,34.996,26.231,4.865,7.535,28.849
1589,0.698,35.527,19.327,34.986,26.22,4.865,7.575,28.686
1590,0.705,35.25,19.319,34.976,26.227,4.906,7.575,28.359
1591,0.721,35.401,19.358,35.034,26.234,5.028,7.616,27.949
1592,0.708,35.479,19.382,35.015,26.234,5.03,7.698,27.376
1593,0.728,35.509,19.39,34.986,26.231,4.948,7.618,26.801
1594,0.751,35.192,19.39,34.976,26.22,4.866,7.495,26.023
1595,0.757,35.333,19.359,34.976,26.22,4.784,7.575,25.365
1596,0.761,35.449,19.323,34.986,26.224,4.824,7.535,24.87
1597,0.77,35.489,19.37,34.995,26.227,4.783,7.453,24.296
1598,0.754,35.183,19.354,34.996,26.224,4.824,7.493,23.924
1599,0.754,35.333,19.296,34.996,26.224,4.824,7.494,23.474
1600,0.77,35.421,19.299,34.996,26.227,4.905,7.453,23.144
1601,0.8,35.287,19.295,35.005,26.224,4.865,7.371,22.734
1602,0.82,35.276,19.33,34.996,26.224,4.906,7.492,22.405
1603,0.849,35.411,19.342,35.024,26.224,4.947,7.453,21.913
1604,0.895,35.46,19.382,34.986,26.217,4.907,7.452,21.542
1605,0.931,35.086,19.277,34.976,26.217,4.825,7.33,21.092
1606,0.987,35.236,19.322,35.005,26.217,4.824,7.329,20.558
1607,1.072,35.372,19.358,35.005,26.227,4.865,7.451,20.147
1608,1.128,35.45,19.389,35.024,26.227,4.906,7.452,19.695
1609,1.151,35.0,19.304,35.015,26.231,4.947,7.371,19.284
1610,1.187,35.149,19.323,35.053,26.231,5.069,7.492,18.873
1611,1.207,35.275,19.307,35.025,26.231,4.989,7.453,18.463
1612,1.22,35.353,19.315,35.015,26.227,4.988,7.412,18.012
1613,1.217,35.248,19.33,35.015,26.231,4.907,7.411,17.6
1614,1.214,35.362,19.385,35.034,26.224,4.947,7.371,17.19
1615,1.24,35.479,19.351,35.034,26.227,4.988,7.37,16.779
1616,1.234,35.566,19.35,35.034,26.224,4.988,7.37,16.409
1617,1.237,35.126,19.331,35.015,26.224,4.907,7.411,16.121
1618,1.266,35.284,19.385,35.034,26.231,4.906,7.411,15.833
1619,1.296,35.401,19.413,35.063,26.238,4.987,7.533,15.546
1620,1.273,35.441,19.331,35.054,26.241,5.07,7.494,15.38
1621,1.257,35.249,19.245,35.034,26.234,4.948,7.412,15.134
1622,1.208,35.381,19.295,35.025,26.227,4.947,7.371,14.726
1623,1.103,35.488,19.283,35.015,26.224,4.866,7.289,14.518
1624,0.992,35.72,19.326,35.005,26.224,4.824,7.288,14.272
1625,0.844,35.185,19.35,35.015,26.22,4.905,7.288,14.066
1626,0.716,35.333,19.35,35.034,26.224,4.865,7.288,13.942
1627,0.594,35.44,19.323,35.005,26.22,4.906,7.329,13.86
1628,0.518,35.192,19.354,35.034,26.227,4.906,7.329,13.696
1629,0.423,35.275,19.374,35.034,26.224,4.947,7.289,13.817
1630,0.331,35.401,19.355,35.034,26.224,4.947,7.288,13.899
1631,0.268,35.479,19.311,35.015,26.224,4.907,7.329,13.9
1632,0.212,35.135,19.248,35.015,26.217,4.784,7.207,13.981
1633,0.192,35.313,19.306,35.015,26.22,4.824,7.206,13.942
1634,0.199,35.44,19.323,35.024,26.217,4.865,7.206,13.86
1635,0.218,35.518,19.374,35.044,26.224,4.946,7.287,13.981
1636,0.235,35.058,19.308,35.044,26.227,4.947,7.288,13.901
1637,0.248,35.217,19.33,35.054,26.227,4.947,7.288,13.819
1638,0.248,35.333,19.327,35.063,26.227,4.947,7.166,13.818
1639,0.261,35.421,19.377,35.054,26.231,4.866,7.287,13.696
1640,0.277,35.115,19.417,35.054,26.231,4.906,7.288,13.532
1641,0.291,35.275,19.402,35.034,26.224,4.987,7.207,13.327
1642,0.359,35.372,19.374,35.053,26.224,4.907,7.206,13.122
1643,0.418,35.412,19.265,35.054,26.224,4.947,7.165,12.998
1644,0.484,35.124,19.295,35.054,26.224,4.866,7.206,12.875
1645,0.553,35.275,19.307,35.063,26.224,4.906,7.165,12.751
1646,0.625,35.372,19.381,35.082,26.231,4.987,7.246,12.831
1647,0.675,35.421,19.273,35.102,26.238,5.029,7.288,12.954
1648,0.704,35.259,19.303,35.064,26.227,4.989,7.207,12.996
1649,0.734,35.372,19.326,35.044,26.224,4.866,7.084,12.956
1650,0.773,35.469,19.346,35.034,26.224,4.865,7.083,12.956
1651,0.806,35.374,19.389,35.034,26.217,4.865,7.164,12.996
1652,0.803,35.22,19.425,35.034,26.22,4.865,7.165,13.078
1653,0.829,35.352,19.355,35.053,26.22,4.865,7.206,13.079
1654,0.833,35.478,19.323,35.063,26.22,4.865,7.165,13.16
1655,0.846,35.173,19.311,35.054,26.224,4.906,7.246,13.161
1656,0.866,35.266,19.385,35.044,26.22,4.906,7.328,13.202
1657,0.879,35.382,19.351,35.054,26.224,4.906,7.329,13.283
1658,0.84,35.498,19.358,35.073,26.231,4.906,7.37,13.447
1659,0.833,34.991,19.311,35.035,26.217,4.865,7.37,13.53
1660,0.839,35.139,19.334,35.053,26.213,4.824,7.248,13.531
1661,0.859,35.265,19.378,35.054,26.22,4.865,7.288,13.531
1662,0.869,35.353,19.39,35.063,26.22,4.946,7.41,13.653
1663,0.859,35.152,19.402,35.063,26.231,4.947,7.452,13.776
1664,0.869,35.313,19.355,35.073,26.234,4.988,7.493,13.818
1665,0.869,35.411,19.347,35.073,26.227,4.988,7.575,13.981
1666,0.879,35.479,19.358,35.073,26.234,4.988,7.535,14.063
1667,0.885,35.067,19.382,35.063,26.227,4.948,7.616,14.186
1668,0.866,35.207,19.3,35.063,26.224,4.947,7.576,14.35
1669,0.885,35.324,19.323,35.063,26.227,4.866,7.616,14.474
1670,0.885,35.373,19.303,35.063,26.224,4.946,7.657,14.678
1671,0.879,35.143,19.326,35.073,26.231,4.988,7.617,14.802
1672,0.885,35.275,19.393,35.063,26.227,4.907,7.698,15.251
1673,0.885,35.382,19.413,35.082,26.231,4.906,7.78,15.702
1674,0.879,35.431,19.371,35.083,26.238,5.028,7.822,16.236
1675,0.876,35.24,19.37,35.102,26.238,5.07,7.903,16.891
1676,0.863,35.343,19.323,35.102,26.234,5.03,7.904,17.467
1677,0.859,35.45,19.381,35.073,26.227,4.989,7.863,18.245
1678,0.846,35.173,19.347,35.063,26.217,4.907,7.822,19.351
1679,0.856,35.189,19.296,35.073,26.217,4.906,7.822,20.663
1680,0.856,35.314,19.307,35.063,26.217,4.865,7.781,21.896
1681,0.862,35.401,19.307,35.073,26.224,4.946,7.74,23.006
1682,0.872,35.057,19.311,35.063,26.227,4.907,7.74,23.79
1683,0.869,35.188,19.327,35.082,26.22,4.906,7.781,24.245
1684,0.882,35.333,19.377,35.083,26.224,4.947,7.781,24.778
1685,0.879,35.421,19.296,35.083,26.224,4.988,7.74,25.068
1686,0.895,35.076,19.334,35.092,26.224,4.907,7.659,25.355
1687,0.886,35.188,19.35,35.102,26.231,4.947,7.78,25.358
1688,0.889,35.323,19.362,35.044,26.224,4.947,7.74,25.236
1689,0.899,35.373,19.343,35.054,26.213,4.785,7.618,24.991
1690,0.899,35.133,19.296,35.082,26.217,4.824,7.617,24.663
1691,0.895,35.294,19.33,35.092,26.224,4.905,7.739,24.335
1692,0.892,35.401,19.323,35.111,26.227,4.947,7.781,23.965
1693,0.886,35.46,19.319,35.112,26.238,5.029,7.822,23.474
1694,0.882,35.125,19.362,35.093,26.224,4.907,7.822,22.9
1695,0.876,35.275,19.347,35.121,26.227,4.987,7.863,22.406
1696,0.856,35.391,19.346,35.102,26.234,4.988,7.904,21.832
1697,0.885,35.393,19.335,35.102,26.231,4.948,7.863,21.298
1698,0.872,35.182,19.374,35.092,26.231,4.947,7.822,20.845
1699,0.885,35.342,19.39,35.102,26.224,4.988,7.822,20.556
1700,0.872,35.44,19.343,35.102,26.227,4.988,7.781,20.35
1701,0.876,35.479,19.292,35.102,26.227,4.948,7.781,20.307
1702,0.898,35.163,19.291,35.131,26.231,4.947,7.781,20.225
1703,0.905,35.294,19.346,35.15,26.234,5.029,7.781,20.184
1704,0.912,35.401,19.331,35.131,26.248,5.07,7.944,20.184
1705,0.905,35.163,19.397,35.112,26.241,5.03,7.945,20.061
1706,0.912,35.237,19.296,35.102,26.231,5.03,7.945,19.776
1707,0.922,35.353,19.342,35.102,26.227,4.907,7.864,19.488
1708,0.918,35.44,19.331,35.083,26.217,4.906,7.822,19.079
1709,0.918,35.038,19.389,35.083,26.217,4.825,7.863,18.749
1710,0.922,35.188,19.382,35.102,26.224,4.865,7.822,18.502
1711,0.918,35.314,19.362,35.092,26.22,4.865,7.822,18.175
1712,0.899,35.392,19.288,35.102,26.224,4.865,7.863,17.927
1713,0.895,35.009,19.276,35.112,26.224,4.946,7.944,17.518
1714,0.899,35.178,19.287,35.121,26.227,4.907,7.905,17.189
1715,0.895,35.295,19.33,35.102,26.227,4.865,7.863,16.86
1716,0.895,35.363,19.342,35.102,26.227,4.824,7.944,16.532
1717,0.905,35.057,19.319,35.083,26.22,4.905,7.905,16.162
1718,0.899,35.188,19.299,35.092,26.217,4.906,7.782,15.874
1719,0.895,35.333,19.346,35.092,26.217,4.865,7.781,15.424
1720,0.908,35.363,19.409,35.111,26.22,4.946,7.862,15.176
1721,0.912,35.153,19.413,35.121,26.227,4.947,7.944,14.97
1722,0.922,35.304,19.371,35.121,26.231,4.988,7.945,14.765
1723,0.935,35.42,19.319,35.121,26.234,4.988,7.864,14.518
1724,0.935,35.422,19.299,35.131,26.238,4.988,7.863,14.272
1725,0.935,35.163,19.323,35.121,26.231,4.948,7.863,14.107
1726,0.945,35.285,19.354,35.141,26.227,4.988,7.782,13.902
1727,0.938,35.372,19.311,35.122,26.22,4.948,7.822,13.859
1728,0.938,35.21,19.315,35.121,26.231,4.947,7.863,13.696
1729,0.945,35.113,19.319,35.121,26.224,4.988,7.782,13.695
1730,0.958,35.256,19.358,35.131,26.227,4.948,7.822,13.776
1731,0.948,35.334,19.405,35.112,26.224,4.907,7.781,13.777
1732,0.951,35.133,19.425,35.14,26.227,4.906,7.74,13.899
1733,0.935,35.246,19.41,35.15,26.238,5.069,7.862,14.063
1734,0.938,35.362,19.23,35.16,26.231,5.03,7.822,14.186
1735,0.925,35.45,19.298,35.141,26.227,4.948,7.781,14.065
1736,0.935,35.01,19.35,35.122,26.224,4.907,7.7,14.064
1737,0.941,35.139,19.35,35.131,26.217,4.865,7.618,13.983
1738,0.932,35.265,19.264,35.131,26.22,4.865,7.576,14.023
1739,0.944,35.343,19.307,35.131,26.22,4.906,7.575,13.942
1740,0.941,35.124,19.338,35.131,26.217,4.865,7.575,13.819
1741,0.945,35.265,19.37,35.121,26.224,4.865,7.575,13.737
1742,0.961,35.372,19.386,35.121,26.22,4.865,7.616,13.573
1743,0.951,35.402,19.398,35.141,26.224,4.946,7.576,13.449
1744,0.971,35.047,19.359,35.141,26.224,4.907,7.616,13.286
1745,0.958,35.178,19.327,35.141,26.22,4.947,7.495,13.162
1746,0.964,35.275,19.327,35.141,26.213,4.825,7.453,13.08
1747,0.977,35.324,19.354,35.131,26.213,4.783,7.371,12.794
1748,1.0,35.123,19.343,35.15,26.217,4.864,7.33,12.71
1749,1.004,35.265,19.237,35.17,26.227,4.824,7.329,12.628
1750,0.994,35.391,19.295,35.179,26.227,4.946,7.37,12.627
1751,0.981,35.728,19.334,35.179,26.227,4.988,7.37,12.546
1752,0.994,35.185,19.346,35.17,26.227,5.029,7.411,12.382
1753,0.994,35.323,19.37,35.17,26.227,4.989,7.371,12.258
1754,0.974,35.421,19.393,35.17,26.231,4.948,7.33,12.095
1755,0.974,35.076,19.331,35.189,26.224,4.988,7.289,11.93
1756,0.984,35.102,19.303,35.189,26.227,4.907,7.247,11.807
1757,0.984,35.236,19.354,35.17,26.224,4.906,7.206,11.643
1758,0.981,35.324,19.386,35.189,26.227,4.947,7.165,11.479
1759,0.984,35.075,19.319,35.18,26.224,4.947,7.206,11.314
1760,0.974,35.217,19.323,35.199,26.224,4.988,7.125,11.232
1761,1.003,35.372,19.331,35.218,26.238,5.029,7.205,11.027
1762,1.0,35.421,19.315,35.228,26.234,5.07,7.328,11.025
1763,1.01,34.933,19.327,35.199,26.227,4.989,7.126,10.944
1764,1.014,35.081,19.366,35.17,26.22,4.907,7.002,10.862
1765,1.007,35.179,19.331,35.189,26.217,4.865,6.96,10.78
1766,1.02,35.256,19.323,35.189,26.21,4.824,7.0,10.657
1767,1.02,35.017,19.307,35.189,26.22,4.905,7.001,10.737
1768,1.04,35.159,19.362,35.189,26.224,4.825,7.041,10.738
1769,1.04,35.285,19.362,35.189,26.224,4.987,7.001,10.738
1770,1.046,35.344,19.308,35.18,26.224,4.866,7.123,10.819
1771,1.027,35.085,19.28,35.208,26.22,4.865,7.205,10.901
1772,1.04,35.236,19.307,35.285,26.224,4.946,7.247,10.902
1773,1.043,35.333,19.315,35.2,26.224,4.866,7.328,10.861
1774,1.05,35.334,19.315,35.17,26.224,4.865,7.289,10.82
1775,1.05,35.008,19.373,35.179,26.22,4.824,7.288,10.739
1776,1.056,35.168,19.28,35.199,26.22,4.865,7.369,10.697
1777,1.069,35.294,19.338,35.199,26.224,4.906,7.533,10.737
1778,1.05,35.286,19.342,35.228,26.227,4.947,7.738,10.819
1779,1.053,35.161,19.401,35.237,26.234,4.947,7.821,10.861
1780,1.053,35.275,19.394,35.238,26.227,4.988,7.863,10.739
1781,1.069,35.382,19.351,35.218,26.227,5.029,8.107,10.738
1782,1.082,34.999,19.307,35.228,26.231,4.948,8.191,10.738
1783,1.083,35.091,19.303,35.285,26.22,4.907,8.354,10.697
1784,1.092,35.207,19.315,35.238,26.231,4.865,8.397,10.656
1785,1.099,35.304,19.358,35.228,26.227,4.906,8.6,10.656
1786,1.119,35.018,19.335,35.237,26.227,4.947,8.643,10.574
1787,1.125,35.207,19.323,35.247,26.22,4.866,8.765,10.574
1788,1.138,35.333,19.315,35.257,26.231,4.987,8.848,10.451
1789,1.135,35.392,19.354,35.266,26.241,5.029,9.011,10.572
1790,1.116,34.98,19.389,35.238,26.234,5.03,8.972,10.574
1791,1.119,35.12,19.386,35.228,26.224,4.989,8.972,10.533
1792,1.115,35.217,19.355,35.237,26.22,4.988,8.931,10.817
1793,1.138,35.266,19.296,35.238,26.217,4.907,8.85,11.796
1794,1.132,35.075,19.303,35.228,26.227,4.906,8.889,13.066
1795,1.129,35.217,19.315,35.218,26.224,4.906,8.809,14.664
1796,1.132,35.314,19.377,35.247,26.224,4.865,8.889,16.185
1797,1.125,35.373,19.296,35.238,26.22,4.946,8.849,17.542
1798,1.112,34.951,19.334,35.247,26.224,4.907,8.971,18.978
1799,1.135,35.072,19.335,35.266,26.224,4.947,8.891,20.7
1800,1.151,35.188,19.354,35.257,26.231,4.866,8.849,22.71
1801,1.158,35.189,19.401,35.257,26.224,4.906,8.849,24.884
1802,1.165,35.007,19.386,35.228,26.224,4.906,8.808,26.817
1803,1.161,35.149,19.366,35.237,26.217,4.906,8.808,28.178
1804,1.191,35.275,19.245,35.247,26.213,4.865,8.645,29.208
1805,1.198,35.152,19.31,35.266,26.227,4.906,8.684,29.91
1806,1.201,35.16,19.35,35.267,26.224,5.028,8.766,30.242
1807,1.211,35.275,19.37,35.267,26.231,4.989,8.767,30.286
1808,1.227,35.372,19.249,35.276,26.227,5.07,8.726,30.042
1809,1.224,34.97,19.326,35.286,26.234,5.03,8.685,29.471
1810,1.227,35.081,19.342,35.267,26.227,4.989,8.644,28.977
1811,1.227,35.188,19.374,35.286,26.231,4.988,8.562,28.24
1812,1.211,35.295,19.382,35.286,26.231,4.988,8.521,27.46
1813,1.217,35.161,19.401,35.267,26.231,4.988,8.479,26.721
1814,1.224,35.333,19.324,35.267,26.227,4.988,8.438,25.819
1815,1.224,35.44,19.331,35.257,26.231,4.988,8.357,25.037
1816,1.24,35.537,19.331,35.276,26.227,4.907,8.397,24.135
1817,1.25,34.991,19.381,35.305,26.227,4.987,8.356,23.435
1818,1.247,35.13,19.339,35.315,26.234,5.07,8.397,22.981
1819,1.24,35.246,19.331,35.286,26.241,5.07,8.316,22.61
1820,1.231,35.295,19.303,35.286,26.224,4.989,8.193,22.403
1821,1.24,35.229,19.303,35.267,26.227,4.988,8.151,22.442
1822,1.263,35.353,19.362,35.267,26.224,4.866,8.069,22.645
1823,1.27,35.459,19.358,35.276,26.224,4.865,8.028,23.054
1824,1.28,35.518,19.378,35.276,26.217,4.824,7.987,23.505
1825,1.276,35.173,19.343,35.276,26.217,4.905,7.905,24.038
1826,1.283,35.314,19.323,35.286,26.224,4.865,7.945,24.369
1827,1.293,35.421,19.37,35.286,26.224,4.946,7.864,24.576
1828,1.306,35.681,19.354,35.267,26.22,4.907,7.863,24.618
1829,1.296,35.415,19.28,35.276,26.227,4.906,7.822,24.538
1830,1.299,35.517,19.307,35.276,26.227,4.906,7.781,24.455
1831,1.299,35.624,19.307,35.267,26.22,4.865,7.74,24.332
1832,1.299,35.357,19.307,35.267,26.217,4.784,7.618,24.047
1833,1.306,35.469,19.33,35.286,26.217,4.905,7.617,23.8
1834,1.296,35.585,19.389,35.286,26.227,4.947,7.657,23.594
1835,1.299,35.682,19.331,35.305,26.231,4.988,7.658,23.389
1836,1.316,35.501,19.346,35.296,26.231,4.988,7.658,23.102
1837,1.306,35.643,19.343,35.315,26.227,4.988,7.658,22.693
1838,1.296,35.74,19.397,35.315,26.227,4.988,7.617,22.323
1839,1.306,35.837,19.355,35.296,26.231,4.988,7.617,21.994
1840,1.306,35.646,19.292,35.305,26.231,4.988,7.576,21.584
1841,1.322,35.788,19.244,35.315,26.234,4.988,7.535,21.133
1842,1.319,35.914,19.302,35.315,26.224,4.866,7.453,20.681
1843,1.329,35.973,19.299,35.286,26.227,4.946,7.452,20.148
1844,1.339,35.839,19.334,35.295,26.227,4.947,7.412,19.614
1845,1.349,35.992,19.381,35.324,26.241,5.11,7.615,19.202
1846,1.336,36.089,19.347,35.42,26.238,5.071,7.495,18.832
1847,1.326,36.119,19.323,35.316,26.227,5.03,7.494,18.218
1848,1.326,35.86,19.35,35.305,26.224,4.907,7.331,17.765
1849,1.329,35.982,19.378,35.296,26.217,4.906,7.248,17.232
1850,1.336,36.098,19.362,35.286,26.217,4.906,7.247,16.82
1851,1.329,36.1,19.3,35.295,26.217,4.865,7.206,16.369
1852,1.326,36.215,19.252,35.305,26.22,4.906,7.247,16.08
1853,1.319,36.35,19.322,35.296,26.231,4.947,7.247,15.752
1854,1.319,36.457,19.327,35.315,26.227,4.866,7.206,15.464
1855,1.306,36.324,19.366,35.305,26.224,4.865,7.165,15.176
1856,1.306,36.246,19.343,35.305,26.224,4.987,7.206,14.889
1857,1.286,36.341,19.323,35.305,26.227,4.907,7.206,14.682
1858,1.273,36.447,19.303,35.277,26.217,4.865,7.125,14.436
1859,1.283,36.266,19.338,35.295,26.213,4.784,7.083,14.068
1860,1.286,36.389,19.393,35.315,26.224,4.905,7.123,13.983
1861,1.277,36.524,19.374,35.315,26.231,4.987,7.246,13.901
1862,1.293,36.612,19.355,35.353,26.231,5.029,7.288,13.737
1863,1.286,36.46,19.319,35.335,26.227,5.03,7.288,13.655
1864,1.28,36.592,19.315,35.325,26.227,5.03,7.207,13.572
1865,1.283,36.728,19.323,35.325,26.227,4.989,7.328,13.571
1866,1.27,36.768,19.37,35.325,26.227,4.988,7.289,13.571
1867,1.27,36.682,19.308,35.334,26.224,4.948,7.288,13.653
1868,1.263,36.825,19.315,35.344,26.227,4.988,7.288,13.572
1869,1.254,36.922,19.342,35.315,26.224,4.988,7.247,13.571
1870,1.26,36.99,19.389,35.344,26.227,4.988,7.247,13.612
1871,1.24,36.751,19.386,35.344,26.238,5.07,7.369,13.653
1872,1.224,36.892,19.394,35.373,26.234,5.111,7.411,13.735
1873,1.201,36.961,19.351,35.335,26.238,5.03,7.289,13.736
1874,1.191,37.01,19.339,35.373,26.217,4.989,7.247,13.573
1875,1.185,37.001,19.288,35.344,26.217,4.907,7.125,13.449
1876,1.165,37.125,19.373,35.315,26.213,4.906,7.124,13.367
1877,1.168,37.232,19.335,35.315,26.217,4.947,7.124,13.204
1878,1.155,37.367,19.338,35.334,26.22,4.907,7.165,13.202
1879,1.139,37.11,19.311,35.334,26.224,4.947,7.206,13.039
1880,1.125,37.212,19.338,35.334,26.217,4.988,7.287,12.956
1881,1.125,37.319,19.374,35.334,26.227,4.907,7.329,12.996
1882,1.116,37.234,19.374,35.334,26.227,4.987,7.207,12.996
1883,1.106,37.281,19.401,35.334,26.227,4.948,7.287,13.037
1884,1.089,37.377,19.327,35.334,26.224,4.947,7.288,13.2
1885,1.089,37.474,19.315,35.325,26.213,4.907,7.207,13.202
1886,1.092,37.082,19.307,35.325,26.217,4.825,7.125,13.283
1887,1.092,37.222,19.354,35.353,26.224,4.946,7.205,13.447
1888,1.086,37.329,19.304,35.354,26.224,4.947,7.206,13.611
1889,1.079,37.426,19.338,35.373,26.227,5.029,7.287,13.816
1890,1.073,37.35,19.323,35.373,26.231,4.989,7.329,13.859
1891,1.043,37.493,19.338,35.373,26.231,5.029,7.329,13.9
1892,1.024,37.609,19.374,35.373,26.231,4.989,7.289,13.859
1893,1.014,37.678,19.382,35.354,26.224,4.948,7.329,13.9
1894,0.994,37.42,19.358,35.344,26.231,4.988,7.289,13.819
1895,0.978,37.532,19.335,35.354,26.227,4.988,7.369,13.737
1896,0.981,37.648,19.319,35.344,26.227,4.988,7.33,13.655
1897,0.984,37.697,19.373,35.354,26.227,4.948,7.37,13.532
1898,0.965,37.42,19.386,35.382,26.234,4.947,7.411,13.449
1899,0.961,37.57,19.319,35.402,26.238,5.069,7.452,13.367
1900,0.935,37.658,19.346,35.421,26.241,5.07,7.534,13.285
1901,0.925,37.659,19.327,35.364,26.231,5.03,7.412,13.081
1902,0.918,37.649,19.303,35.363,26.224,5.03,7.371,12.916
1903,0.912,37.774,19.326,35.354,26.227,4.948,7.289,12.67
1904,0.915,37.89,19.366,35.354,26.217,4.907,7.329,12.424
1905,0.915,37.853,19.319,35.344,26.22,4.865,7.289,12.259
1906,0.905,37.642,19.295,35.354,26.224,4.906,7.288,12.095
1907,0.886,37.764,19.315,35.363,26.22,4.865,7.329,12.215
1908,0.885,37.861,19.366,35.373,26.224,5.028,7.289,12.501
1909,0.902,37.632,19.37,35.363,26.22,4.989,7.329,13.114
1910,0.895,37.735,19.284,35.354,26.227,4.907,7.329,14.014
1911,0.873,37.842,19.283,35.373,26.224,4.947,7.289,14.837
1912,0.843,37.92,19.303,35.411,26.22,4.988,7.329,15.658
1913,0.833,37.527,19.276,35.364,26.217,4.907,7.329,16.56
1914,0.833,37.658,19.295,35.344,26.213,4.825,7.167,17.789
1915,0.839,37.793,19.373,35.363,26.213,4.824,7.206,19.753
1916,0.843,37.871,19.319,35.383,26.224,4.987,7.287,21.968
1917,0.826,37.594,19.311,35.392,26.227,4.988,7.369,24.186
1918,0.8,37.754,19.342,35.412,26.231,5.07,7.33,26.078
1919,0.807,37.833,19.382,35.393,26.231,5.03,7.37,27.52
1920,0.813,37.9,19.39,35.392,26.231,5.03,7.289,28.429
1921,0.81,37.642,19.339,35.383,26.227,4.989,7.288,28.967
1922,0.816,37.784,19.315,35.383,26.224,5.029,7.288,29.135
1923,0.82,37.9,19.334,35.431,26.231,5.03,7.247,29.096
1924,0.817,37.92,19.303,35.393,26.227,4.989,7.288,28.973
1925,0.813,37.585,19.362,35.402,26.227,4.988,7.288,28.647
1926,0.813,37.725,19.343,35.392,26.227,4.907,7.369,28.318
1927,0.823,37.861,19.315,35.392,26.224,4.987,7.411,27.908
1928,0.826,37.872,19.338,35.421,26.241,5.11,7.574,27.579
1929,0.826,37.69,19.374,35.412,26.238,5.152,7.698,27.129
1930,0.817,37.755,19.397,35.383,26.227,5.071,7.78,26.514
1931,0.8,37.852,19.37,35.373,26.231,4.948,7.7,25.898
1932,0.774,37.661,19.339,35.363,26.22,4.988,7.78,25.201
1933,0.774,37.621,19.292,35.373,26.22,4.948,7.781,24.706
1934,0.777,37.726,19.315,35.373,26.217,4.907,7.903,24.457
1935,0.771,37.832,19.307,35.373,26.22,4.825,7.945,24.332
1936,0.761,37.479,19.358,35.373,26.217,4.865,7.945,24.494
1937,0.757,37.6,19.292,35.402,26.224,4.865,7.986,24.821
1938,0.761,37.735,19.319,35.402,26.224,4.946,8.108,25.109
1939,0.744,37.813,19.307,35.383,26.231,4.947,8.191,25.396
1940,0.731,37.488,19.334,35.392,26.224,4.907,8.273,25.684
1941,0.744,37.609,19.374,35.373,26.217,4.906,8.274,25.849
1942,0.754,37.726,19.37,35.363,26.213,4.825,8.193,25.77
1943,0.77,37.813,19.386,35.373,26.217,4.865,8.192,25.647
1944,0.78,37.517,19.288,35.411,26.231,4.906,8.314,25.483
1945,0.777,37.648,19.33,35.421,26.224,4.947,8.356,25.237
1946,0.777,37.755,19.385,35.393,26.227,4.988,8.356,24.828
1947,0.78,37.813,19.359,35.421,26.224,4.988,8.397,24.336
1948,0.767,37.402,19.343,35.412,26.227,4.988,8.316,23.681
1949,0.77,37.522,19.311,35.393,26.234,4.988,8.356,23.105
1950,0.787,37.61,19.33,35.402,26.224,4.948,8.356,22.571
1951,0.764,37.649,19.323,35.402,26.227,4.825,8.356,21.956
1952,0.757,37.525,19.385,35.412,26.227,4.946,8.437,21.299
1953,0.754,37.629,19.409,35.412,26.22,4.947,8.357,20.682
1954,0.754,37.764,19.308,35.421,26.231,4.907,8.356,20.066
1955,0.761,38.025,19.338,35.441,26.238,5.028,8.437,19.532
1956,0.754,37.452,19.331,35.45,26.241,4.989,8.56,18.998
1957,0.751,37.532,19.381,35.431,26.231,5.029,8.521,18.505
1958,0.731,37.639,19.323,35.412,26.231,4.907,8.479,17.931
1959,0.721,37.467,19.323,35.402,26.22,4.906,8.398,17.356
1960,0.737,37.532,19.299,35.402,26.224,4.744,8.356,16.862
1961,0.747,37.648,19.307,35.412,26.217,4.864,8.356,16.45
1962,0.728,37.745,19.334,35.402,26.224,4.824,8.356,16.04
1963,0.734,37.142,19.346,35.412,26.224,4.865,8.397,15.67
1964,0.744,37.261,19.374,35.412,26.224,4.865,8.397,15.381
1965,0.754,37.387,19.351,35.421,26.224,4.946,8.438,15.053
1966,0.754,37.465,19.3,35.412,26.224,4.866,8.438,14.806
1967,0.744,37.408,19.385,35.402,26.224,4.906,8.438,14.641
1968,0.741,37.503,19.362,35.412,26.224,4.906,8.438,14.68
1969,0.751,37.638,19.284,35.402,26.22,4.784,8.397,14.762
1970,0.748,37.716,19.299,35.412,26.22,4.824,8.438,15.007
1971,0.757,37.132,19.315,35.421,26.224,4.946,8.438,15.375
1972,0.754,37.28,19.307,35.431,26.234,4.988,8.519,15.826
1973,0.754,37.377,19.33,35.431,26.234,4.948,8.601,16.115
1974,0.748,37.426,19.37,35.422,26.231,4.988,8.521,16.158
1975,0.747,37.264,19.323,35.45,26.227,4.988,8.561,16.403
1976,0.744,37.415,19.327,35.441,26.231,4.988,8.602,16.405
1977,0.751,37.522,19.338,35.412,26.224,4.988,8.44,16.405
1978,0.744,37.523,19.378,35.441,26.227,4.988,8.479,16.405
1979,0.731,37.178,19.362,35.431,26.231,4.948,8.398,16.243
1980,0.734,37.319,19.3,35.422,26.224,4.988,8.356,16.078
1981,0.731,37.406,19.252,35.45,26.22,4.948,8.275,15.914
1982,0.767,37.33,19.322,35.441,26.227,4.907,8.396,15.75
1983,0.783,37.215,19.295,35.45,26.227,5.028,8.356,15.585
1984,0.777,37.338,19.322,35.46,26.238,5.111,8.478,15.503
1985,0.761,37.397,19.374,35.46,26.231,5.071,8.438,15.217
1986,0.761,37.052,19.327,35.498,26.227,4.989,8.397,15.052
1987,0.767,37.126,19.311,35.413,26.224,4.907,8.275,14.684
1988,0.774,37.251,19.338,35.412,26.224,4.825,8.314,14.518
1989,0.774,37.339,19.378,35.412,26.217,4.905,8.193,14.353
1990,0.774,36.956,19.339,35.412,26.224,4.906,8.354,14.189
1991,0.774,37.077,19.296,35.421,26.217,4.906,8.275,14.106
1992,0.761,37.231,19.241,35.431,26.224,4.906,8.274,14.024
1993,0.761,37.31,19.291,35.45,26.224,4.987,8.274,13.861
1994,0.754,36.975,19.311,35.441,26.224,4.907,8.233,13.737
1995,0.751,37.106,19.354,35.431,26.224,4.987,8.233,13.573
1996,0.744,37.241,19.319,35.431,26.227,4.907,8.192,13.49
1997,0.741,37.271,19.319,35.412,26.217,4.865,8.11,13.327
1998,0.741,36.907,19.315,35.412,26.213,4.784,8.028,13.244
1999,0.741,37.038,19.366,35.441,26.217,4.824,7.946,13.04
2000,0.747,37.173,19.37,35.441,26.22,4.946,8.067,13.038
2001,0.764,37.204,19.374,35.441,26.231,4.947,8.109,13.078
2002,0.774,36.897,19.351,35.479,26.231,4.988,8.109,13.079
2003,0.767,37.019,19.3,35.451,26.231,4.948,8.069,12.997
2004,0.767,37.125,19.303,35.45,26.231,4.947,8.109,12.956
2005,0.777,37.155,19.33,35.46,26.227,4.988,8.109,12.752
2006,0.774,36.801,19.354,35.451,26.227,4.948,8.028,12.75
2007,0.767,36.931,19.319,35.47,26.227,4.988,8.068,12.628
2008,0.767,37.029,19.315,35.431,26.227,4.988,8.028,12.546
2009,0.761,36.895,19.327,35.441,26.231,4.988,8.109,12.382
2010,0.767,36.942,19.37,35.45,26.227,4.948,8.069,12.34
2011,0.764,37.057,19.386,35.45,26.227,4.947,8.028,12.217
2012,0.767,37.174,19.401,35.46,26.227,4.988,8.149,12.094
2013,0.767,36.743,19.359,35.479,26.238,5.07,8.232,12.052
2014,0.751,36.844,19.35,35.518,26.238,5.03,8.314,11.93
2015,0.748,36.961,19.315,35.451,26.231,4.989,8.234,11.766
2016,0.741,37.01,19.37,35.441,26.224,4.907,8.151,11.602
2017,0.751,36.732,19.323,35.441,26.224,4.906,8.11,11.397
2018,0.741,36.902,19.315,35.45,26.224,4.865,8.232,11.273
2019,0.734,37.019,19.307,35.45,26.22,4.906,8.111,11.19
2020,0.734,37.077,19.323,35.45,26.22,4.865,8.15,11.068
2021,0.744,37.001,19.362,35.45,26.22,4.946,8.11,10.904
2022,0.76,37.154,19.358,35.45,26.224,4.947,8.15,10.821
2023,0.748,37.261,19.409,35.46,26.227,4.947,8.191,11.145
2024,0.754,37.3,19.355,35.46,26.22,4.988,8.192,11.718
2025,0.764,36.524,19.319,35.46,26.224,4.948,8.151,12.455
2026,0.761,36.65,19.331,35.441,26.217,4.907,8.11,13.398
2027,0.757,36.738,19.342,35.431,26.21,4.825,8.028,14.058
2028,0.764,36.806,19.3,35.46,26.22,4.905,8.027,14.959
2029,0.767,36.711,19.323,35.46,26.224,4.987,7.987,16.391
2030,0.777,36.844,19.331,35.47,26.231,5.029,8.149,18.072
2031,0.751,36.941,19.342,35.451,26.227,5.07,8.11,19.675
2032,0.748,36.942,19.362,35.47,26.238,5.03,8.109,21.073
2033,0.757,36.578,19.393,35.46,26.231,5.03,8.232,22.103
2034,0.751,36.699,19.386,35.46,26.234,4.948,8.151,22.967
2035,0.748,36.796,19.343,35.479,26.231,5.069,8.232,23.545
2036,0.741,36.653,19.323,35.47,26.234,5.03,8.273,23.958
2037,0.738,36.748,19.397,35.47,26.227,4.989,8.274,24.124
2038,0.744,36.854,19.359,35.489,26.227,4.988,8.355,24.289
2039,0.738,36.97,19.315,35.489,26.227,4.988,8.397,24.168
2040,0.754,36.521,19.334,35.489,26.231,5.029,8.478,24.045
2041,0.757,36.65,19.342,35.499,26.234,5.151,8.52,23.922
2042,0.761,36.767,19.346,35.489,26.238,5.071,8.601,23.717
2043,0.744,36.806,19.323,35.46,26.224,5.07,8.643,23.39
2044,0.754,36.5,19.366,35.47,26.224,4.989,8.481,23.143
2045,0.757,36.65,19.292,35.47,26.22,4.948,8.601,22.896
2046,0.761,36.786,19.291,35.46,26.22,4.866,8.48,22.691
2047,0.751,36.835,19.33,35.47,26.224,4.865,8.438,22.445
2048,0.77,36.366,19.385,35.46,26.224,4.906,8.519,22.117
2049,0.757,36.486,19.331,35.47,26.227,4.947,8.479,21.748
2050,0.761,36.612,19.272,35.47,26.217,4.988,8.52,21.297
2051,0.757,36.671,19.314,35.479,26.224,4.948,8.601,21.008
2052,0.754,36.566,19.307,35.48,26.231,4.947,8.602,20.72
2053,0.738,36.66,19.311,35.48,26.227,4.947,8.602,20.473
2054,0.738,36.767,19.299,35.46,26.217,4.947,8.521,20.268
2055,0.731,36.787,19.323,35.451,26.213,4.866,8.439,19.981
2056,0.741,36.509,19.331,35.47,26.22,4.946,8.438,19.775
2057,0.741,36.631,19.307,35.479,26.227,4.988,8.479,19.692
2058,0.738,36.738,19.385,35.489,26.227,4.948,8.479,19.569
2059,0.731,36.643,19.378,35.489,26.227,5.029,8.52,19.364
2060,0.721,36.632,19.374,35.508,26.231,4.989,8.439,19.24
2061,0.734,36.738,19.312,35.489,26.234,5.029,8.438,18.995
2062,0.744,36.835,19.288,35.518,26.227,4.989,8.357,18.83
2063,0.747,36.28,19.295,35.489,26.224,4.948,8.315,18.544
2064,0.76,36.351,19.287,35.499,26.231,4.988,8.315,18.378
2065,0.754,36.486,19.346,35.499,26.224,4.988,8.274,18.092
2066,0.754,36.573,19.3,35.508,26.231,5.029,8.274,17.845
2067,0.751,36.478,19.33,35.499,26.224,4.907,8.274,17.68
2068,0.77,36.64,19.331,35.528,26.231,4.987,8.274,17.272
2069,0.777,36.757,19.377,35.528,26.238,5.07,8.314,17.146
2070,0.764,36.806,19.394,35.528,26.234,5.03,8.356,16.86
2071,0.761,36.231,19.355,35.499,26.227,4.989,8.234,16.572
2072,0.748,36.36,19.315,35.489,26.224,4.907,8.111,16.163
2073,0.734,36.467,19.28,35.499,26.224,4.825,8.15,15.752
2074,0.725,36.544,19.322,35.489,26.217,4.824,8.11,15.504
2075,0.737,36.555,19.327,35.489,26.22,4.824,8.069,15.136
2076,0.721,36.708,19.342,35.489,26.217,4.865,8.028,15.01
2077,0.715,36.806,19.327,35.518,26.224,4.946,8.109,14.806
2078,0.728,36.845,19.307,35.499,26.224,4.947,8.109,14.6
2079,0.728,36.222,19.315,35.508,26.224,4.947,8.109,14.436
2080,0.725,36.36,19.377,35.509,26.227,4.947,8.109,14.312
2081,0.737,36.438,19.401,35.528,26.217,4.907,8.109,14.189
2082,0.738,36.784,19.394,35.499,26.217,4.906,8.15,14.065
2083,0.741,36.222,19.331,35.48,26.217,4.825,7.988,13.983
2084,0.738,36.388,19.338,35.489,26.22,4.824,7.864,13.86
2085,0.738,36.515,19.323,35.508,26.217,4.865,7.944,13.696
2086,0.751,36.257,19.377,35.518,26.224,4.906,8.026,13.776
2087,0.754,36.322,19.316,35.528,26.227,4.987,7.987,13.777
2088,0.731,36.437,19.338,35.528,26.224,4.988,7.946,13.696
2089,0.734,36.525,19.315,35.537,26.231,4.907,7.986,13.573
2090,0.738,36.152,19.354,35.518,26.227,4.987,7.864,13.571
2091,0.731,36.292,19.389,35.509,26.227,5.029,7.863,13.409
2092,0.715,36.399,19.374,35.537,26.224,4.989,7.822,13.285
2093,0.721,36.486,19.39,35.518,26.231,4.948,7.822,13.203
2094,0.715,36.18,19.296,35.537,26.231,4.907,7.822,13.08
2095,0.721,36.321,19.315,35.518,26.227,4.906,7.822,12.957
2096,0.728,36.437,19.362,35.528,26.224,4.947,7.741,12.874
2097,0.718,36.525,19.37,35.528,26.227,4.907,7.74,12.792
2098,0.718,36.113,19.276,35.557,26.238,5.028,7.781,12.629
2099,0.715,36.215,19.307,35.567,26.238,5.07,7.781,12.546
2100,0.702,36.331,19.311,35.538,26.234,5.03,7.781,12.423
2101,0.708,36.361,19.342,35.528,26.227,5.03,7.7,12.218
2102,0.718,36.179,19.401,35.528,26.224,4.948,7.618,12.013
2103,0.721,36.321,19.406,35.518,26.224,4.866,7.576,11.889
2104,0.737,36.437,19.339,35.499,26.22,4.865,7.575,11.685
2105,0.738,36.477,19.327,35.518,26.213,4.865,7.454,11.56
2106,0.728,36.132,19.311,35.518,26.217,4.865,7.615,11.356
2107,0.728,36.244,19.369,35.528,26.22,4.865,7.576,11.273
2108,0.741,36.36,19.327,35.528,26.22,4.906,7.454,11.15
2109,0.731,36.304,19.303,35.585,26.217,4.906,7.534,11.026
2110,0.738,36.159,19.28,35.528,26.227,4.947,7.616,10.863
2111,0.728,36.273,19.295,35.537,26.224,4.947,7.495,10.82
2112,0.725,36.36,19.326,35.528,26.227,4.866,7.575,10.698
2113,0.718,36.016,19.331,35.509,26.22,4.946,7.535,10.616
2114,0.715,36.108,19.327,35.499,26.22,4.866,7.534,10.411
2115,0.711,36.253,19.26,35.528,26.213,4.865,7.494,10.287
2116,0.711,36.36,19.318,35.537,26.224,4.906,7.575,10.205
2117,0.715,36.045,19.346,35.538,26.224,4.987,7.738,10.163
2118,0.702,36.205,19.358,35.557,26.231,4.948,7.903,10.163
2119,0.695,36.321,19.308,35.547,26.231,5.029,7.945,10.0
2120,0.679,36.39,19.268,35.566,26.227,4.989,8.026,9.999
2121,0.691,36.035,19.318,35.538,26.227,4.988,8.149,9.836
