time,ecg,bvp,gsr,rsp,skt,emg_zygo,emg_coru,emg_trap
0,0.78,37.067,22.418,41.413,30.266,504.996,6.796,7.001
1,0.787,37.202,22.402,41.442,30.262,490.317,6.755,6.96
2,0.78,36.59,22.414,41.452,30.283,502.694,6.917,7.122
3,0.78,36.718,22.433,41.404,30.269,533.477,6.756,6.961
4,0.78,36.854,22.488,41.394,30.273,559.646,6.836,7.0
5,0.777,36.941,22.45,41.432,30.266,577.593,6.837,7.001
6,0.767,36.731,22.449,41.423,30.266,600.663,6.837,7.041
7,0.777,36.873,22.309,41.413,30.262,621.223,6.755,6.879
8,0.774,37.038,22.37,41.451,30.28,635.497,6.876,7.081
9,0.764,37.106,22.433,41.433,30.276,640.477,6.959,7.123
10,0.77,36.675,22.445,41.413,30.273,637.599,6.96,7.165
11,0.754,36.805,22.379,41.442,30.28,634.723,6.919,7.124
12,0.78,36.97,22.417,41.48,30.29,631.889,7.0,7.246
13,0.764,36.981,22.422,41.414,30.273,622.224,6.919,7.125
14,0.764,37.0,22.445,41.413,30.266,603.424,6.837,7.083
15,0.761,37.144,22.484,41.413,30.269,583.8,6.837,7.083
16,0.764,37.251,22.504,41.413,30.276,575.269,6.877,7.002
17,0.748,37.243,22.43,41.394,30.256,567.744,6.755,7.082
18,0.76,36.36,22.433,41.432,30.273,552.259,6.836,7.123
19,0.77,36.505,22.41,41.413,30.276,531.042,6.877,7.165
20,0.774,36.612,22.476,41.423,30.276,506.475,6.837,7.206
21,0.78,36.709,22.414,41.404,30.266,491.267,6.877,7.165
22,0.797,36.566,22.347,41.451,30.283,503.273,7.0,7.206
23,0.781,36.67,22.394,41.413,30.28,534.58,6.96,7.206
24,0.784,36.805,22.441,41.394,30.276,561.527,6.919,7.003
25,0.78,36.404,22.426,41.413,30.266,580.296,6.919,7.082
26,0.78,36.467,22.461,41.423,30.276,603.617,6.959,7.164
27,0.751,36.564,22.504,41.375,30.269,624.668,6.919,7.165
28,0.78,36.708,22.387,41.422,30.273,639.109,7.041,7.124
29,0.784,36.441,22.437,41.423,30.276,644.295,7.123,7.246
30,0.78,36.573,22.473,41.432,30.28,641.337,7.083,7.166
31,0.771,36.689,22.481,41.432,30.283,638.054,7.123,7.328
32,0.79,36.815,22.438,41.452,30.287,635.094,7.165,7.207
33,0.78,36.231,22.336,41.433,30.28,625.712,7.165,7.409
34,0.784,36.36,22.421,41.432,30.266,606.793,7.002,7.208
35,0.793,36.495,22.402,41.404,30.269,586.843,7.041,7.165
36,0.797,36.573,22.414,41.413,30.273,578.064,7.001,7.206
37,0.8,36.325,22.422,41.394,30.269,570.74,7.082,7.287
38,0.807,36.476,22.422,41.403,30.266,555.054,7.042,7.125
39,0.797,36.65,22.406,41.422,30.276,533.876,7.123,7.205
40,0.794,36.7,22.421,41.394,30.269,509.228,7.083,7.125
41,0.81,36.24,22.48,41.384,30.269,493.287,7.123,7.124
42,0.807,36.408,22.489,41.394,30.273,504.472,7.002,7.083
43,0.807,36.534,22.438,41.432,30.283,536.382,7.204,7.286
44,0.807,36.545,22.359,41.394,30.269,563.619,7.125,7.125
45,0.813,36.267,22.312,41.384,30.266,582.512,7.124,7.124
46,0.79,36.427,22.421,41.394,30.276,606.201,7.124,7.124
47,0.774,36.544,22.437,41.403,30.276,627.296,7.205,7.124
48,0.777,36.718,22.465,41.384,30.266,641.656,7.084,7.002
49,0.79,36.23,22.403,41.432,30.28,646.963,7.245,7.123
50,0.784,36.369,22.433,41.423,30.276,644.128,7.247,7.165
51,0.78,36.476,22.441,41.423,30.28,640.562,7.288,7.206
52,0.78,36.19,22.484,41.423,30.283,637.639,7.288,7.125
53,0.79,36.244,22.481,41.432,30.283,628.421,7.288,7.165
54,0.79,36.36,22.457,41.413,30.276,609.869,7.329,7.246
55,0.803,36.447,22.379,41.375,30.273,589.557,7.207,7.044
56,0.794,36.103,22.343,41.413,30.276,580.449,7.206,7.042
57,0.797,36.243,22.413,41.413,30.266,573.203,7.287,7.123
58,0.794,36.341,22.422,41.384,30.266,557.721,7.247,7.083
59,0.8,36.447,22.453,41.394,30.266,536.342,7.166,7.002
60,0.8,35.959,22.352,41.422,30.273,511.733,7.287,7.041
61,0.807,36.108,22.409,41.394,30.266,495.182,7.247,7.001
62,0.807,36.244,22.437,41.394,30.273,505.67,7.247,7.001
63,0.823,36.35,22.48,41.413,30.28,537.369,7.166,7.041
64,0.81,36.169,22.481,41.423,30.28,564.97,7.409,7.204
65,0.803,36.292,22.446,41.394,30.266,582.81,7.086,7.043
66,0.8,36.418,22.43,41.413,30.273,605.838,7.205,6.96
67,0.787,36.534,22.398,41.432,30.273,626.723,7.165,7.122
68,0.787,35.96,22.429,41.404,30.276,641.163,7.206,7.083
69,0.797,36.108,22.476,41.394,30.273,646.104,7.084,6.961
70,0.794,36.244,22.489,41.413,30.28,643.429,7.205,7.122
71,0.764,36.302,22.446,41.413,30.283,639.864,7.247,7.205
72,0.796,36.111,22.43,41.403,30.28,637.144,7.166,7.125
73,0.803,36.253,22.465,41.403,30.276,628.376,7.165,7.124
74,0.816,36.389,22.477,41.442,30.276,610.357,7.246,7.246
75,0.813,36.678,22.477,41.385,30.269,590.09,7.084,7.084
76,0.8,36.038,22.449,41.365,30.266,580.821,7.083,7.002
77,0.81,36.195,22.406,41.384,30.269,573.858,7.042,7.082
78,0.816,36.312,22.41,41.413,30.269,558.663,7.001,7.083
79,0.813,35.987,22.433,41.384,30.259,537.327,6.879,6.961
80,0.823,36.022,22.484,41.413,30.262,512.84,6.959,7.122
81,0.826,36.166,22.411,41.403,30.266,495.722,7.041,7.083
82,0.826,36.263,22.433,41.394,30.269,505.472,7.042,7.042
83,0.81,35.881,22.414,41.394,30.273,537.326,7.001,7.042
84,0.82,36.03,22.488,41.422,30.287,565.58,7.001,7.001
85,0.813,36.137,22.45,41.413,30.273,584.605,7.041,7.163
86,0.81,36.225,22.469,41.384,30.269,608.052,6.92,7.043
87,0.807,35.976,22.449,41.384,30.273,629.185,6.878,7.042
88,0.823,36.137,22.422,41.489,30.276,643.79,6.837,7.164
89,0.804,36.244,22.437,41.395,30.269,648.977,6.918,7.043
90,0.81,36.36,22.484,41.394,30.273,646.141,6.878,7.042
91,0.787,35.815,22.493,41.422,30.283,642.33,6.959,7.164
92,0.793,35.953,22.411,41.404,30.273,639.365,6.838,7.165
93,0.78,36.079,22.402,41.413,30.273,630.472,6.796,7.165
94,0.81,36.195,22.449,41.432,30.269,612.37,6.877,7.165
95,0.794,36.005,22.477,41.413,30.28,591.981,6.918,7.124
96,0.797,36.147,22.477,41.375,30.269,582.384,6.715,7.165
97,0.803,36.254,22.477,41.403,30.269,575.581,6.672,7.084
98,0.81,36.303,22.43,41.394,30.276,560.551,6.672,7.164
99,0.794,35.785,22.394,41.365,30.273,539.338,6.631,7.043
100,0.803,35.981,22.433,41.393,30.259,514.527,6.631,7.082
101,0.816,36.079,22.465,41.394,30.276,497.121,6.712,7.123
102,0.8,36.109,22.461,41.384,30.269,506.177,6.632,7.083
103,0.807,35.937,22.395,41.394,30.273,537.089,6.712,7.083
104,0.823,36.127,22.355,41.422,30.283,564.642,6.632,7.123
105,0.8,36.186,22.378,41.423,30.276,582.888,6.794,7.205
106,0.794,35.909,22.409,41.394,30.273,605.514,6.714,7.084
107,0.793,35.906,22.449,41.384,30.269,626.598,6.672,7.083
108,0.797,36.05,22.473,41.413,30.276,641.243,6.794,7.123
109,0.79,36.166,22.399,41.403,30.273,646.634,6.795,7.083
110,0.797,35.813,22.414,41.403,30.273,643.84,6.795,7.042
111,0.787,35.934,22.48,41.422,30.283,640.274,6.877,7.164
112,0.774,36.06,22.516,41.404,30.283,637.474,6.877,7.124
113,0.758,36.138,22.481,41.413,30.283,628.826,6.796,7.165
114,0.783,35.851,22.485,41.403,30.273,610.768,6.795,7.165
115,0.777,35.992,22.442,41.432,30.283,590.582,6.917,7.246
116,0.767,36.118,22.402,41.394,30.269,580.948,6.837,7.084
117,0.774,36.205,22.418,41.394,30.266,574.266,6.714,7.083
118,0.777,35.65,22.472,41.403,30.269,559.358,6.794,7.123
119,0.774,35.798,22.477,41.394,30.269,538.27,6.795,7.124
120,0.774,35.924,22.442,41.394,30.266,513.419,6.714,6.921
121,0.79,36.012,22.437,41.394,30.273,496.053,6.794,7.122
122,0.777,35.936,22.453,41.374,30.276,504.947,6.795,7.083
123,0.79,36.079,22.484,41.393,30.276,535.939,6.877,7.083
124,0.787,36.234,22.5,41.394,30.283,564.143,6.918,7.042
125,0.767,36.283,22.469,41.413,30.283,582.802,7.041,7.245
126,0.764,35.708,22.395,41.403,30.266,605.879,6.879,7.084
127,0.757,35.875,22.421,41.394,30.273,627.13,6.918,7.002
128,0.764,35.992,22.426,41.403,30.276,642.061,7.041,7.041
129,0.754,36.012,22.492,41.394,30.276,647.618,7.123,7.123
130,0.764,35.859,22.415,41.394,30.269,644.989,7.002,7.002
131,0.754,36.03,22.449,41.489,30.283,641.343,7.163,7.163
132,0.754,36.147,22.43,41.423,30.276,638.745,7.165,7.206
133,0.754,35.918,22.476,41.423,30.28,630.221,7.124,7.165
134,0.757,35.858,22.504,41.404,30.273,612.164,7.124,7.124
135,0.761,36.02,22.504,41.422,30.28,591.775,7.287,7.327
136,0.744,36.08,22.465,41.384,30.273,581.854,7.125,7.126
137,0.751,35.783,22.391,41.384,30.276,574.884,7.124,7.124
138,0.761,35.885,22.429,41.422,30.273,559.893,7.165,7.124
139,0.754,36.021,22.461,41.413,30.273,538.885,7.165,7.124
140,0.754,36.099,22.481,41.375,30.259,514.075,7.002,7.002
141,0.761,35.63,22.356,41.413,30.273,496.385,7.204,7.082
142,0.767,35.759,22.433,41.413,30.273,504.584,7.328,7.123
143,0.761,35.904,22.461,41.384,30.283,535.04,7.167,7.083
144,0.761,36.002,22.481,41.403,30.276,563.239,7.206,7.164
145,0.754,35.869,22.524,41.432,30.28,581.777,7.328,7.287
146,0.735,36.001,22.493,41.394,30.273,604.73,7.167,7.085
147,0.738,36.099,22.461,41.365,30.266,625.899,7.124,7.083
148,0.751,36.205,22.406,41.403,30.283,640.911,7.165,7.123
149,0.738,35.765,22.429,41.403,30.273,646.712,7.124,7.124
150,0.734,35.895,22.472,41.394,30.269,644.37,7.124,7.043
151,0.738,36.05,22.461,41.432,30.283,640.605,7.165,7.204
152,0.747,36.109,22.399,41.432,30.287,637.884,7.206,7.206
153,0.721,35.918,22.417,41.423,30.287,629.156,7.084,7.206
154,0.721,36.069,22.453,41.413,30.273,611.097,7.083,7.165
155,0.75,36.214,22.434,41.451,30.283,590.504,7.123,7.287
156,0.731,36.178,22.476,41.413,30.283,580.703,7.124,7.207
157,0.741,35.832,22.508,41.384,30.266,573.856,6.961,7.125
158,0.757,35.963,22.415,41.413,30.269,559.111,6.96,7.124
159,0.751,36.089,22.425,41.394,30.276,538.226,6.96,7.165
160,0.735,35.946,22.469,41.374,30.262,513.418,6.919,7.165
161,0.767,35.935,22.5,41.384,30.262,495.524,6.837,7.002
162,0.757,36.069,22.473,41.394,30.266,503.762,6.877,7.163
163,0.757,36.166,22.407,41.394,30.28,534.666,6.918,7.206
164,0.725,35.88,22.437,41.403,30.283,562.625,6.959,7.125
165,0.744,36.03,22.449,41.413,30.273,581.161,6.919,7.205
166,0.744,36.166,22.449,41.423,30.28,604.602,7.081,7.287
167,0.738,36.225,22.473,41.375,30.273,625.898,6.92,7.125
168,0.734,36.254,22.485,41.384,30.269,641.155,6.919,7.124
169,0.734,36.437,22.45,41.403,30.276,647.283,7.041,7.205
170,0.721,36.525,22.438,41.413,30.273,645.148,7.042,7.206
171,0.708,36.65,22.488,41.394,30.273,641.182,6.96,7.125
172,0.718,35.865,22.524,41.422,30.283,638.784,7.204,7.287
173,0.724,36.011,22.489,41.413,30.28,630.506,7.125,7.288
174,0.728,36.128,22.446,41.413,30.276,612.614,7.124,7.288
175,0.744,36.186,22.41,41.394,30.28,591.902,7.083,7.329
176,0.744,36.148,22.418,41.461,30.29,581.977,7.245,7.37
177,0.744,36.244,22.383,41.404,30.277,574.967,7.247,7.289
178,0.738,36.341,22.488,41.375,30.273,560.016,7.125,7.207
179,0.738,36.409,22.407,41.374,30.273,539.089,7.043,7.206
180,0.747,36.016,22.429,41.374,30.269,514.362,7.042,7.247
181,0.741,36.137,22.445,41.346,30.259,496.062,7.001,7.166
182,0.741,36.292,22.5,41.384,30.273,503.727,7.082,7.206
183,0.754,36.293,22.512,41.384,30.28,534.3,7.083,7.287
184,0.738,36.197,22.516,41.384,30.28,562.744,7.123,7.247
185,0.741,36.321,22.477,41.384,30.269,581.121,7.205,7.247
186,0.744,36.466,22.465,41.422,30.294,604.357,7.287,7.328
187,0.725,36.362,22.469,41.413,30.28,625.814,7.247,7.329
188,0.718,36.246,22.453,41.384,30.276,640.95,7.166,7.167
189,0.731,36.389,22.531,41.374,30.276,647.037,7.287,7.287
190,0.721,36.496,22.423,41.403,30.276,644.78,7.288,7.247
191,0.705,36.171,22.422,41.375,30.273,640.772,7.247,7.206
192,0.721,36.263,22.445,41.413,30.287,638.292,7.288,7.328
193,0.721,36.389,22.473,41.394,30.283,630.136,7.41,7.329
194,0.718,36.486,22.52,41.394,30.276,612.53,7.371,7.37
195,0.711,36.257,22.52,41.394,30.28,591.698,7.37,7.248
196,0.731,36.408,22.54,41.403,30.283,581.365,7.411,7.288
197,0.725,36.515,22.399,41.413,30.283,574.879,7.452,7.451
198,0.728,36.574,22.421,41.375,30.269,560.096,7.371,7.29
199,0.725,36.133,22.472,41.365,30.276,539.293,7.33,7.247
200,0.728,36.301,22.465,41.384,30.266,514.649,7.289,7.288
201,0.734,36.38,22.371,41.374,30.269,496.106,7.288,7.288
202,0.747,36.486,22.429,41.374,30.266,503.036,7.247,7.085
203,0.744,36.343,22.445,41.384,30.28,533.887,7.369,7.327
204,0.734,36.486,22.465,41.403,30.28,563.187,7.33,7.329
205,0.738,36.612,22.481,41.403,30.266,581.817,7.329,7.37
206,0.734,36.642,22.516,41.394,30.28,604.934,7.37,7.33
207,0.734,36.326,22.516,41.422,30.287,626.714,7.492,7.451
208,0.721,36.457,22.462,41.375,30.273,641.895,7.412,7.29
209,0.731,36.564,22.477,41.384,30.276,648.023,7.452,7.288
210,0.734,36.593,22.508,41.384,30.28,645.969,7.493,7.288
211,0.731,36.44,22.485,41.413,30.28,641.8,7.494,7.329
212,0.721,36.563,22.395,41.375,30.263,639.115,7.453,7.207
213,0.734,36.699,22.464,41.413,30.287,631.282,7.615,7.409
214,0.715,36.633,22.449,41.384,30.276,613.801,7.657,7.452
215,0.708,36.421,22.473,41.384,30.273,592.89,7.617,7.371
216,0.715,36.525,22.477,41.394,30.273,582.434,7.657,7.37
217,0.741,36.66,22.489,41.422,30.294,576.232,7.82,7.452
218,0.728,36.45,22.418,41.394,30.28,561.696,7.741,7.33
219,0.728,36.554,22.41,41.355,30.269,540.976,7.659,7.289
220,0.734,36.689,22.449,41.374,30.269,516.333,7.617,7.207
221,0.751,36.777,22.492,41.355,30.266,497.383,7.698,7.287
222,0.738,36.289,22.434,41.336,30.259,503.415,7.577,7.247
223,0.747,36.456,22.375,41.374,30.276,533.809,7.698,7.288
224,0.744,36.621,22.425,41.413,30.283,563.105,7.78,7.369
225,0.738,36.671,22.461,41.384,30.273,582.101,7.781,7.37
226,0.744,36.355,22.453,41.394,30.28,605.343,7.781,7.33
227,0.741,36.543,22.48,41.394,30.283,627.044,7.781,7.451
228,0.731,36.622,22.492,41.403,30.29,642.711,7.822,7.412
229,0.721,36.699,22.465,41.384,30.28,648.925,7.7,7.33
230,0.734,36.403,22.426,41.374,30.276,646.832,7.78,7.329
231,0.708,36.553,22.496,41.384,30.276,642.622,7.781,7.329
232,0.689,36.651,22.516,41.374,30.276,640.181,7.822,7.289
233,0.695,36.719,22.501,41.374,30.273,632.431,7.781,7.288
234,0.718,36.346,22.45,41.413,30.276,615.602,7.944,7.41
235,0.721,36.495,22.406,41.394,30.28,594.737,7.945,7.289
236,0.734,36.602,22.379,41.394,30.276,583.998,7.905,7.288
237,0.744,36.67,22.437,41.394,30.276,577.711,7.904,7.329
238,0.744,36.393,22.508,41.403,30.283,563.703,7.985,7.41
239,0.741,36.496,22.462,41.365,30.269,542.745,7.864,7.249
240,0.738,36.641,22.414,41.355,30.266,518.139,7.782,7.206
241,0.744,36.661,22.437,41.345,30.262,498.662,7.74,7.247
242,0.744,36.355,22.476,41.364,30.269,504.2,7.781,7.166
243,0.741,36.476,22.504,41.336,30.269,534.304,7.74,7.084
244,0.728,36.612,22.485,41.393,30.276,563.882,7.821,7.286
245,0.728,36.354,22.469,41.384,30.276,582.718,7.781,7.329
246,0.734,36.419,22.399,41.374,30.276,605.552,7.862,7.248
247,0.721,36.573,22.445,41.384,30.28,627.005,7.822,7.288
248,0.728,36.689,22.469,41.413,30.297,642.751,7.863,7.41
249,0.721,36.278,22.52,41.365,30.277,648.844,7.782,7.208
250,0.715,36.399,22.427,41.374,30.273,646.79,7.74,7.165
251,0.718,36.563,22.453,41.374,30.283,642.418,7.74,7.206
252,0.718,36.641,22.48,41.393,30.276,640.179,7.781,7.247
253,0.715,36.287,22.477,41.346,30.273,632.716,7.781,7.206
254,0.728,36.456,22.531,41.364,30.269,615.889,7.781,7.165
255,0.725,36.564,22.524,41.374,30.28,594.944,7.862,7.287
256,0.724,36.641,22.493,41.384,30.28,584.162,7.822,7.166
257,0.728,36.23,22.403,41.384,30.28,577.835,7.863,7.206
258,0.747,36.417,22.445,41.384,30.276,563.826,7.782,7.287
259,0.734,36.515,22.504,41.384,30.283,543.437,7.903,7.288
260,0.721,36.535,22.485,41.355,30.269,518.594,7.742,7.125
261,0.741,36.162,22.383,41.345,30.273,498.788,7.74,7.124
262,0.734,36.311,22.429,41.364,30.269,503.754,7.781,7.124
263,0.738,36.428,22.476,41.345,30.28,534.219,7.862,7.124
264,0.725,36.477,22.485,41.355,30.273,563.841,7.782,7.124
265,0.718,36.286,22.524,41.412,30.269,583.043,7.984,7.205
266,0.721,36.447,22.52,41.384,30.283,606.125,8.027,7.206
267,0.715,36.535,22.423,41.384,30.28,627.702,8.068,7.247
268,0.721,36.775,22.457,41.384,30.28,643.287,8.069,7.125
269,0.728,36.317,22.469,41.413,30.301,649.948,8.109,7.327
270,0.721,36.399,22.496,41.365,30.277,647.818,7.987,7.207
271,0.705,36.515,22.465,41.374,30.28,643.16,7.946,7.165
272,0.702,36.257,22.414,41.374,30.276,640.755,7.945,7.165
273,0.701,36.331,22.437,41.374,30.283,633.088,7.945,7.124
274,0.708,36.418,22.465,41.355,30.263,615.974,7.905,7.165
275,0.728,36.563,22.488,41.374,30.28,594.944,7.945,7.124
276,0.725,36.114,22.516,41.374,30.287,584.081,7.864,7.205
277,0.737,36.234,22.579,41.374,30.276,577.956,7.863,7.206
278,0.741,36.36,22.451,41.393,30.28,564.031,7.863,7.206
279,0.751,36.495,22.473,41.394,30.28,543.521,7.822,7.125
280,0.741,36.132,22.469,41.365,30.287,519.001,7.822,7.287
281,0.738,36.244,22.512,41.345,30.27,498.995,7.659,7.044
282,0.738,36.379,22.442,41.364,30.269,503.716,7.658,7.082
283,0.731,36.448,22.414,41.365,30.276,534.137,7.658,7.164
284,0.728,36.151,22.414,41.384,30.276,564.165,7.698,7.165
285,0.731,36.321,22.457,41.384,30.262,583.534,7.536,7.124
286,0.721,36.466,22.492,41.384,30.283,606.943,7.657,7.246
287,0.724,36.506,22.512,41.384,30.276,628.808,7.698,7.247
288,0.715,36.113,22.54,41.384,30.283,644.64,7.699,7.206
289,0.728,36.272,22.403,41.403,30.276,651.465,7.658,7.165
290,0.731,36.399,22.464,41.413,30.297,649.947,7.698,7.328
291,0.708,36.409,22.461,41.394,30.277,645.174,7.536,7.248
292,0.705,36.103,22.516,41.374,30.276,642.93,7.453,7.206
293,0.718,36.253,22.493,41.393,30.276,635.752,7.412,7.165
294,0.724,36.37,22.43,41.394,30.273,619.091,7.493,7.165
295,0.718,36.706,22.387,41.355,30.262,597.822,7.249,7.084
296,0.741,36.163,22.316,41.403,30.276,586.631,7.369,7.123
297,0.741,36.292,22.44,41.384,30.276,580.421,7.452,7.205
298,0.731,36.389,22.473,41.394,30.28,566.617,7.412,7.247
299,0.734,36.055,22.492,41.365,30.28,546.027,7.33,7.166
300,0.741,36.08,22.485,41.413,30.283,521.588,7.37,7.287
301,0.744,36.195,22.461,41.365,30.269,501.014,7.248,7.125
302,0.721,36.292,22.5,41.355,30.273,504.63,7.125,7.124
303,0.724,35.948,22.524,41.365,30.283,534.634,7.165,7.083
304,0.721,36.098,22.516,41.384,30.276,564.78,7.206,7.083
305,0.721,36.205,22.43,41.374,30.262,583.622,7.125,7.083
306,0.724,36.34,22.406,41.403,30.283,606.537,7.205,7.123
307,0.711,35.949,22.468,41.403,30.28,628.194,7.247,7.165
308,0.702,36.088,22.453,41.413,30.283,644.024,7.288,7.165
309,0.708,36.215,22.531,41.413,30.283,650.727,7.247,7.206
310,0.721,36.331,22.438,41.432,30.29,649.086,7.328,7.165
311,0.689,35.766,22.449,41.394,30.29,644.312,7.37,7.246
312,0.688,35.885,22.449,41.394,30.277,642.068,7.248,7.166
313,0.692,36.021,22.527,41.384,30.276,635.134,7.206,7.124
314,0.701,36.089,22.559,41.384,30.269,618.922,7.287,7.124
315,0.698,35.831,22.485,41.374,30.269,597.657,7.247,7.083
316,0.705,35.982,22.473,41.374,30.269,586.182,7.288,7.042
317,0.721,36.127,22.399,41.422,30.287,580.254,7.369,7.164
318,0.724,36.167,22.445,41.394,30.276,566.737,7.37,7.165
319,0.718,35.985,22.484,41.384,30.28,546.312,7.33,7.084
320,0.728,36.118,22.477,41.403,30.276,521.753,7.289,7.123
321,0.728,36.234,22.371,41.413,30.283,501.218,7.41,7.246
322,0.731,36.235,22.472,41.384,30.269,504.388,7.167,7.044
323,0.721,35.785,22.5,41.374,30.287,535.119,7.246,7.123
324,0.718,35.943,22.504,41.403,30.283,566.289,7.247,7.083
325,0.705,36.031,22.528,41.384,30.276,586.036,7.247,7.164
326,0.721,35.83,22.516,41.403,30.276,608.96,7.166,7.002
327,0.718,35.838,22.493,41.413,30.287,630.943,7.409,7.204
328,0.718,35.982,22.454,41.413,30.287,646.978,7.371,7.206
329,0.708,36.118,22.488,41.394,30.287,653.806,7.33,7.125
330,0.708,35.755,22.535,41.413,30.28,652.044,7.37,7.165
331,0.705,35.876,22.446,41.442,30.29,647.187,7.492,7.328
332,0.705,35.973,22.426,41.442,30.28,644.78,7.371,7.167
333,0.689,36.079,22.441,41.413,30.273,638.251,7.33,7.124
334,0.711,35.773,22.508,41.413,30.273,622.328,7.37,7.124
335,0.708,35.924,22.493,41.432,30.28,601.107,7.411,7.124
336,0.695,36.05,22.516,41.375,30.273,589.347,7.289,7.002
337,0.711,36.128,22.532,41.422,30.283,583.619,7.369,7.123
338,0.721,35.659,22.391,41.461,30.283,570.227,7.37,7.165
339,0.715,35.788,22.453,41.433,30.276,549.844,7.289,7.084
340,0.724,35.924,22.504,41.413,30.269,525.326,7.329,7.083
341,0.737,35.983,22.516,41.413,30.283,504.182,7.41,7.245
342,0.725,35.753,22.399,41.384,30.266,506.003,7.167,7.084
343,0.721,35.895,22.441,41.48,30.283,536.152,7.206,6.961
344,0.715,36.04,22.469,41.423,30.276,567.845,7.287,7.041
345,0.708,36.089,22.461,41.413,30.269,588.572,7.288,7.082
346,0.715,35.63,22.488,41.413,30.276,611.344,7.166,7.042
347,0.715,35.798,22.524,41.432,30.287,633.406,7.287,7.082
348,0.702,35.924,22.469,41.423,30.287,649.362,7.329,7.123
349,0.711,35.954,22.469,41.423,30.283,656.107,7.37,7.124
350,0.708,35.849,22.52,41.423,30.287,654.303,7.411,7.165
351,0.715,36.001,22.567,41.471,30.29,649.08,7.533,7.165
352,0.689,36.079,22.501,41.433,30.283,646.669,7.494,7.165
353,0.692,36.099,22.399,41.423,30.28,640.181,7.453,7.084
354,0.701,36.167,22.308,41.451,30.269,624.34,7.452,7.002
355,0.711,36.321,22.467,41.461,30.273,603.038,7.534,7.041
356,0.702,36.399,22.414,41.413,30.269,590.789,7.453,6.96
357,0.708,35.326,22.507,41.432,30.28,585.179,7.615,7.041
358,0.721,35.363,22.497,41.432,30.283,572.235,7.698,7.042
359,0.721,35.507,22.348,41.461,30.276,551.897,7.699,7.123
360,0.724,35.605,22.448,41.433,30.273,527.339,7.658,6.961
361,0.747,35.606,22.5,41.452,30.287,505.584,7.658,6.96
362,0.728,35.73,22.512,41.442,30.283,506.709,7.82,7.082
363,0.718,35.856,22.442,41.423,30.28,536.484,7.659,6.961
364,0.715,35.944,22.426,41.413,30.276,568.742,7.658,6.96
365,0.708,35.504,22.387,41.423,30.273,589.232,7.78,6.96
366,0.689,35.643,22.476,41.432,30.283,611.879,7.862,7.0
367,0.705,35.817,22.504,41.432,30.273,633.533,7.741,6.879
368,0.721,35.857,22.555,41.452,30.28,649.729,7.984,7.0
369,0.702,35.522,22.497,41.461,30.287,656.639,7.946,7.001
370,0.708,35.672,22.469,41.452,30.283,654.878,7.945,6.96
371,0.695,35.836,22.496,41.461,30.28,649.289,7.905,7.0
372,0.698,35.867,22.516,41.481,30.294,647.403,8.026,7.123
373,0.688,35.503,22.555,41.442,30.277,641.245,7.865,6.961
374,0.685,35.653,22.489,41.432,30.276,626.017,7.782,6.878
375,0.705,35.788,22.469,41.461,30.28,604.722,7.862,6.877
376,0.705,35.799,22.43,41.471,30.28,592.758,7.944,6.837
377,0.698,35.56,22.461,41.433,30.269,587.313,7.783,6.837
378,0.721,35.73,22.473,41.461,30.283,574.939,7.74,6.918
379,0.734,35.837,22.512,41.471,30.28,554.811,7.781,6.959
380,0.721,35.752,22.446,41.461,30.276,530.254,7.781,6.96
381,0.724,35.703,22.441,41.433,30.269,508.012,7.781,6.919
382,0.741,35.885,22.48,41.49,30.28,508.44,7.7,6.919
383,0.728,35.944,22.489,41.462,30.283,538.169,7.699,6.919
384,0.721,35.369,22.516,41.452,30.276,570.182,7.658,6.837
385,0.721,35.459,22.489,41.461,30.269,591.361,7.658,6.877
386,0.711,35.623,22.477,41.49,30.294,614.096,7.698,6.877
387,0.702,35.683,22.391,41.433,30.273,635.792,7.618,6.877
388,0.721,35.319,22.429,41.49,30.287,651.947,7.698,6.837
389,0.721,35.449,22.531,41.49,30.29,658.979,7.74,6.958
390,0.718,35.585,22.516,41.49,30.287,657.178,7.699,6.96
391,0.718,35.653,22.426,41.5,30.28,651.426,7.699,6.96
392,0.721,35.472,22.48,41.51,30.294,649.376,7.699,6.96
393,0.702,35.604,22.5,41.519,30.294,643.745,7.78,7.041
394,0.705,35.73,22.54,41.452,30.28,628.482,7.659,6.879
395,0.708,35.77,22.552,41.471,30.28,607.145,7.617,6.796
396,0.715,35.291,22.552,41.471,30.283,594.693,7.617,6.795
397,0.721,35.439,22.481,41.471,30.287,589.121,7.617,6.917
398,0.731,35.575,22.414,41.471,30.266,576.34,7.454,6.796
399,0.741,35.634,22.445,41.49,30.294,556.329,7.656,6.958
400,0.741,35.328,22.535,41.49,30.287,531.733,7.576,6.878
401,0.744,35.469,22.454,41.481,30.28,509.206,7.575,6.796
402,0.728,35.604,22.352,41.49,30.273,508.574,7.494,6.795
403,0.728,35.654,22.472,41.5,30.301,538.251,7.656,6.917
404,0.721,35.357,22.485,41.481,30.273,570.671,7.455,6.756
405,0.711,35.507,22.512,41.49,30.273,592.423,7.452,6.754
406,0.705,35.624,22.501,41.5,30.283,615.367,7.452,6.836
407,0.715,35.424,22.547,41.491,30.28,637.228,7.452,6.796
408,0.705,35.239,22.415,41.49,30.283,653.384,7.371,6.633
409,0.718,35.429,22.461,41.51,30.287,660.62,7.533,6.834
410,0.721,35.508,22.484,41.529,30.28,658.862,7.453,6.877
411,0.705,35.288,22.532,41.51,30.287,652.826,7.452,6.918
412,0.702,35.42,22.473,41.519,30.287,650.61,7.412,6.837
413,0.711,35.546,22.41,41.567,30.297,644.977,7.452,6.958
414,0.715,35.634,22.48,41.52,30.28,629.958,7.29,6.797
415,0.721,35.069,22.489,41.491,30.276,608.664,7.166,6.795
416,0.724,35.236,22.508,41.5,30.276,595.928,7.246,6.795
417,0.724,35.343,22.532,41.51,30.283,590.516,7.247,6.795
418,0.715,35.421,22.52,41.491,30.269,578.143,7.125,6.673
419,0.737,35.249,22.473,41.605,30.287,558.299,7.205,6.835
420,0.731,35.391,22.485,41.52,30.28,533.745,7.125,6.796
421,0.728,35.508,22.52,41.491,30.273,510.893,7.124,6.673
422,0.741,35.576,22.536,41.51,30.276,509.323,7.043,6.794
423,0.751,35.02,22.477,41.539,30.29,538.421,7.164,6.836
424,0.731,35.159,22.418,41.52,30.273,571.242,7.043,6.714
425,0.728,35.285,22.39,41.529,30.273,592.347,6.96,6.672
426,0.725,35.353,22.449,41.529,30.28,614.431,6.919,6.713
427,0.702,35.229,22.48,41.539,30.28,636.039,6.959,6.713
428,0.711,35.362,22.512,41.52,30.276,651.909,6.797,6.591
429,0.715,35.517,22.481,41.548,30.287,659.182,7.039,6.834
430,0.711,35.547,22.461,41.568,30.287,657.627,6.96,6.796
431,0.698,35.222,22.488,41.549,30.276,651.553,7.0,6.795
432,0.701,35.362,22.547,41.549,30.294,649.54,6.96,6.795
433,0.708,35.498,22.552,41.568,30.304,644.316,7.082,6.917
434,0.689,35.422,22.497,41.539,30.277,629.708,6.839,6.715
435,0.701,35.278,22.411,41.529,30.273,608.499,6.877,6.713
436,0.705,35.411,22.41,41.539,30.28,595.642,6.877,6.672
437,0.708,35.537,22.484,41.548,30.29,590.31,6.877,6.713
438,0.715,35.049,22.485,41.51,30.27,578.141,6.715,6.591
439,0.721,35.159,22.532,41.558,30.283,558.462,6.876,6.671
440,0.715,35.313,22.485,41.616,30.287,534.194,6.877,6.672
441,0.731,35.401,22.477,41.568,30.276,510.979,6.877,6.631
442,0.725,34.923,22.516,41.539,30.28,508.836,6.877,6.59
443,0.734,35.081,22.551,41.587,30.304,537.562,6.918,6.631
444,0.712,35.198,22.493,41.549,30.287,570.664,6.837,6.631
445,0.711,35.285,22.493,41.549,30.276,592.26,6.796,6.59
446,0.721,35.046,22.454,41.549,30.283,614.715,6.836,6.59
447,0.705,35.197,22.434,41.568,30.28,636.57,6.918,6.671
448,0.702,35.314,22.465,41.549,30.269,652.646,6.796,6.55
449,0.708,35.43,22.535,41.577,30.287,660.043,6.999,6.63
450,0.702,34.971,22.462,41.578,30.294,658.571,6.96,6.712
451,0.711,35.149,22.469,41.568,30.29,652.457,6.96,6.713
452,0.705,35.265,22.485,41.587,30.29,650.2,7.041,6.632
453,0.708,35.334,22.512,41.606,30.28,644.607,6.96,6.631
454,0.702,34.989,22.524,41.616,30.301,629.995,7.082,6.794
455,0.711,35.13,22.524,41.568,30.273,608.421,6.88,6.551
456,0.728,35.256,22.524,41.568,30.28,595.316,6.918,6.468
457,0.725,35.305,22.419,41.577,30.287,590.022,6.959,6.467
458,0.715,34.97,22.461,41.568,30.276,578.057,6.96,6.507
459,0.741,35.139,22.5,41.558,30.273,558.095,6.878,6.386
460,0.751,35.256,22.512,41.587,30.283,533.743,7.04,6.547
461,0.77,35.257,22.43,41.597,30.276,510.73,6.96,6.508
462,0.767,34.931,22.476,41.597,30.28,508.549,7.041,6.508
463,0.8,35.081,22.485,41.578,30.283,537.437,7.001,6.467
464,0.8,35.207,22.52,41.606,30.287,571.151,7.041,6.67
465,0.79,34.921,22.544,41.587,30.273,593.038,7.001,6.469
466,0.806,35.014,22.567,41.578,30.283,615.739,7.001,6.386
467,0.816,35.159,22.501,41.597,30.287,637.76,7.001,6.466
468,0.826,35.275,22.497,41.606,30.29,654.406,7.082,6.467
469,0.836,34.874,22.485,41.568,30.277,661.809,6.961,6.386
470,0.865,35.023,22.555,41.606,30.287,660.459,7.122,6.507
471,0.866,35.168,22.513,41.616,30.294,654.346,7.083,6.508
472,0.876,35.247,22.442,41.635,30.29,652.374,7.123,6.508
473,0.876,34.777,22.469,41.607,30.283,647.516,7.124,6.508
474,0.902,34.964,22.473,41.645,30.29,633.724,7.124,6.589
475,0.902,35.053,22.485,41.617,30.283,612.321,7.124,6.468
476,0.915,35.121,22.535,41.588,30.276,598.892,7.043,6.426
477,0.922,34.719,22.524,41.606,30.276,593.351,7.123,6.426
478,0.951,34.868,22.438,41.607,30.28,581.383,7.124,6.385
479,0.948,34.975,22.422,41.587,30.273,561.503,7.002,6.303
480,0.964,35.072,22.507,41.626,30.28,537.274,7.082,6.465
481,0.974,34.833,22.516,41.626,30.283,513.693,7.164,6.467
482,1.003,34.975,22.465,41.607,30.276,510.164,7.124,6.426
483,1.033,35.091,22.43,41.626,30.29,538.389,7.165,6.507
484,1.046,35.188,22.5,41.645,30.294,572.38,7.328,6.508
485,1.033,34.988,22.508,41.617,30.277,594.229,7.289,6.549
486,1.03,35.101,22.501,41.616,30.287,616.036,7.207,6.346
487,1.03,35.227,22.536,41.616,30.28,637.6,7.206,6.384
488,1.02,35.391,22.524,41.626,30.287,653.795,7.287,6.466
489,1.01,34.721,22.477,41.616,30.28,660.868,7.288,6.507
490,1.02,34.897,22.469,41.645,30.283,659.352,7.247,6.386
491,0.994,35.023,22.535,41.645,30.29,652.831,7.369,6.507
492,1.0,34.871,22.52,41.664,30.283,650.61,7.37,6.549
493,0.997,34.965,22.489,41.646,30.294,645.912,7.289,6.468
494,1.013,35.139,22.442,41.645,30.294,632.326,7.288,6.426
495,1.001,35.237,22.457,41.655,30.287,611.494,7.369,6.629
496,0.984,34.538,22.469,41.626,30.283,597.867,7.208,6.428
497,0.968,34.665,22.5,41.626,30.283,592.771,7.084,6.426
498,0.964,34.791,22.54,41.636,30.276,581.499,7.123,6.507
499,0.945,34.869,22.442,41.636,30.276,562.114,7.124,6.508
500,0.941,34.726,22.461,41.636,30.276,537.89,7.083,6.345
501,0.954,34.887,22.457,41.655,30.28,514.147,7.083,6.588
502,0.935,35.014,22.516,41.636,30.273,509.843,7.123,6.509
503,0.931,35.101,22.508,41.616,30.287,537.491,7.165,6.549
504,0.918,34.623,22.477,41.655,30.287,572.208,7.206,6.549
505,0.905,34.771,22.477,41.655,30.283,595.732,7.247,6.712
506,0.889,34.878,22.391,41.626,30.283,618.328,7.166,6.51
507,0.879,34.966,22.495,41.655,30.28,640.347,7.246,6.63
508,0.885,34.832,22.528,41.655,30.287,656.79,7.288,6.55
509,0.882,34.975,22.54,41.655,30.294,664.151,7.288,6.63
510,0.869,35.091,22.407,41.655,30.273,662.475,7.207,6.59
511,0.872,35.159,22.48,41.674,30.29,655.871,7.369,6.712
512,0.859,34.652,22.532,41.674,30.294,653.405,7.37,6.632
513,0.843,34.8,22.524,41.665,30.29,648.664,7.411,6.672
514,0.853,34.898,22.512,41.655,30.283,635.118,7.411,6.55
515,0.859,35.273,22.493,41.693,30.287,614.327,7.493,6.752
516,0.836,34.826,22.465,41.665,30.28,600.376,7.412,6.551
517,0.846,34.975,22.434,41.713,30.283,595.195,7.33,6.59
518,0.853,35.101,22.469,41.665,30.28,584.126,7.37,6.549
519,0.843,34.594,22.527,41.674,30.283,564.702,7.37,6.549
520,0.826,34.55,22.458,41.646,30.266,540.315,7.33,6.549
521,0.836,34.751,22.473,41.674,30.287,516.407,7.41,6.549
522,0.82,34.83,22.465,41.655,30.276,511.248,7.371,6.549
523,0.817,34.649,22.524,41.655,30.287,538.562,7.452,6.549
524,0.816,34.791,22.524,41.684,30.28,573.723,7.371,6.549
525,0.81,34.955,22.52,41.703,30.283,598.024,7.533,6.63
526,0.774,35.024,22.493,41.675,30.29,620.831,7.494,6.631
527,0.761,34.555,22.418,41.665,30.28,642.812,7.371,6.59
528,0.731,34.713,22.461,41.674,30.28,659.458,7.452,6.549
529,0.725,34.858,22.516,41.674,30.287,666.861,7.574,6.671
530,0.724,34.927,22.536,41.665,30.28,665.226,7.454,6.591
531,0.721,34.611,22.442,41.703,30.283,658.419,7.452,6.631
532,0.721,34.761,22.508,41.703,30.29,656.033,7.493,6.712
533,0.711,34.907,22.508,41.703,30.294,651.659,7.534,6.632
534,0.698,34.975,22.555,41.703,30.287,638.523,7.494,6.712
535,0.711,34.612,22.524,41.713,30.283,617.614,7.534,6.591
536,0.698,34.733,22.559,41.703,30.29,603.539,7.575,6.753
537,0.695,34.83,22.517,41.684,30.28,598.114,7.372,6.551
538,0.695,34.888,22.477,41.694,30.276,587.042,7.37,6.59
539,0.708,35.061,22.473,41.684,30.28,567.658,7.411,6.631
540,0.698,35.169,22.512,41.665,30.273,543.394,7.33,6.59
541,0.695,35.314,22.458,41.684,30.28,518.959,7.289,6.509
542,0.692,35.334,22.434,41.77,30.276,512.9,7.451,6.63
543,0.705,34.27,22.476,41.704,30.29,539.229,7.412,6.672
544,0.702,34.403,22.489,41.713,30.28,574.543,7.33,6.631
545,0.705,34.548,22.524,41.713,30.276,599.008,7.451,6.672
546,0.692,34.598,22.516,41.723,30.294,621.614,7.493,6.753
547,0.675,34.665,22.524,41.694,30.283,643.47,7.412,6.632
548,0.675,34.829,22.446,41.703,30.283,659.993,7.452,6.631
549,0.675,34.946,22.477,41.723,30.283,667.435,7.412,6.59
550,0.659,34.468,22.543,41.704,30.283,665.842,7.411,6.671
551,0.659,34.616,22.509,41.713,30.276,658.588,7.289,6.55
552,0.669,34.771,22.493,41.742,30.294,656.075,7.369,6.671
553,0.665,34.878,22.465,41.742,30.29,652.147,7.411,6.753
554,0.662,34.496,22.492,41.723,30.29,639.382,7.289,6.673
555,0.669,34.636,22.508,41.713,30.28,618.476,7.288,6.631
556,0.678,34.771,22.512,41.742,30.301,604.32,7.369,6.753
557,0.669,34.84,22.532,41.723,30.284,599.097,7.248,6.632
558,0.678,34.476,22.477,41.704,30.28,588.475,7.125,6.55
559,0.682,34.655,22.473,41.732,30.283,569.34,7.124,6.549
560,0.682,34.771,22.508,41.723,30.28,545.118,7.124,6.59
561,0.695,34.83,22.524,41.694,30.269,520.318,7.002,6.468
562,0.695,34.428,22.505,41.722,30.28,513.442,7.123,6.548
563,0.679,34.577,22.43,41.732,30.294,539.153,7.083,6.671
564,0.669,34.723,22.445,41.732,30.287,574.42,7.083,6.591
565,0.669,34.782,22.437,41.732,30.273,598.762,7.164,6.631
566,0.678,34.552,22.465,41.78,30.304,621.367,7.287,6.753
567,0.665,34.655,22.485,41.733,30.284,642.817,7.166,6.714
568,0.669,34.791,22.539,41.723,30.28,659.173,7.043,6.632
569,0.665,34.821,22.431,41.732,30.29,666.695,7.082,6.672
570,0.652,34.562,22.469,41.742,30.283,665.103,7.123,6.672
571,0.662,34.684,22.492,41.713,30.273,657.767,7.002,6.631
572,0.665,34.848,22.571,41.751,30.297,655.132,7.204,6.753
573,0.656,34.63,22.536,41.742,30.29,650.999,7.287,6.714
574,0.646,34.57,22.438,41.742,30.29,638.232,7.207,6.632
575,0.655,34.723,22.449,41.742,30.28,617.367,7.206,6.672
576,0.668,34.859,22.387,41.771,30.294,603.09,7.287,6.713
577,0.662,34.467,22.46,41.742,30.294,597.906,7.207,6.672
578,0.656,34.578,22.5,41.723,30.277,587.487,7.084,6.591
579,0.659,34.723,22.508,41.723,30.28,568.435,7.123,6.631
580,0.652,34.849,22.481,41.771,30.283,544.336,7.165,6.59
581,0.662,34.294,22.477,41.704,30.266,519.497,7.002,6.509
582,0.688,34.461,22.524,41.751,30.276,512.58,7.082,6.549
583,0.685,34.607,22.52,41.742,30.294,537.884,7.205,6.63
584,0.682,34.694,22.528,41.742,30.283,572.822,7.206,6.672
585,0.679,34.408,22.473,41.752,30.28,597.283,7.125,6.672
586,0.682,34.596,22.477,41.79,30.304,619.645,7.205,6.713
587,0.666,34.704,22.492,41.771,30.287,641.499,7.247,6.672
588,0.649,34.791,22.504,41.752,30.283,658.021,7.166,6.591
589,0.655,34.485,22.551,41.752,30.287,665.667,7.124,6.59
590,0.642,34.655,22.439,41.761,30.29,664.36,7.124,6.631
591,0.616,34.752,22.469,41.752,30.277,657.394,7.124,6.672
592,0.629,34.84,22.465,41.79,30.294,654.762,7.083,6.672
593,0.649,34.409,22.524,41.781,30.297,650.711,7.123,6.753
594,0.639,34.577,22.505,41.771,30.29,638.107,7.083,6.632
595,0.646,34.684,22.508,41.762,30.283,617.244,7.042,6.672
596,0.655,34.733,22.524,41.8,30.29,602.763,7.042,6.591
597,0.655,34.523,22.438,41.791,30.297,597.699,7.082,6.712
598,0.662,34.655,22.484,41.771,30.277,586.997,6.839,6.51
599,0.649,34.762,22.508,41.752,30.276,568.186,6.958,6.549
600,0.659,34.581,22.54,41.752,30.28,544.05,6.919,6.508
601,0.652,34.435,22.395,41.752,30.276,519.331,6.837,6.589
602,0.662,34.616,22.464,41.752,30.269,512.05,6.837,6.509
603,0.672,34.723,22.473,41.771,30.294,537.675,6.877,6.63
604,0.672,34.35,22.508,41.762,30.29,573.104,6.877,6.631
605,0.675,34.462,22.512,41.8,30.277,597.611,6.959,6.672
606,0.698,34.587,22.536,41.771,30.29,620.095,6.919,6.672
607,0.698,34.704,22.536,41.8,30.297,642.316,7.0,6.916
608,0.714,34.331,22.477,41.771,30.287,659.046,6.919,6.674
609,0.75,34.481,22.481,41.781,30.283,666.979,6.878,6.672
610,0.774,34.626,22.539,41.762,30.29,665.959,6.959,6.631
611,0.777,34.714,22.497,41.8,30.283,658.873,7.0,6.712
612,0.81,34.283,22.438,41.771,30.283,656.241,6.96,6.672
613,0.829,34.451,22.473,41.819,30.297,652.393,7.122,6.753
614,0.852,34.578,22.496,41.791,30.294,640.034,7.124,6.754
615,0.895,34.646,22.481,41.8,30.283,619.093,7.124,6.795
616,0.938,34.445,22.516,41.781,30.28,604.123,7.124,6.714
617,0.974,34.645,22.508,41.81,30.301,598.973,7.327,6.835
618,0.997,34.704,22.462,41.762,30.284,588.473,7.126,6.714
619,1.052,34.791,22.43,41.771,30.283,569.421,7.124,6.713
620,1.073,35.358,22.496,41.781,30.283,545.485,7.246,6.754
621,1.109,35.498,22.532,41.771,30.28,520.565,7.084,6.673
622,1.145,35.595,22.481,41.742,30.269,512.428,7.083,6.672
623,1.21,35.653,22.407,41.79,30.294,537.313,7.164,6.753
624,1.246,33.928,22.48,41.781,30.297,572.816,7.165,6.795
625,1.26,34.074,22.5,41.79,30.28,597.364,7.287,6.836
626,1.283,34.181,22.477,41.81,30.297,619.646,7.247,6.796
627,1.338,34.47,22.524,41.829,30.297,641.743,7.328,6.917
628,1.339,34.52,22.524,41.81,30.29,658.39,7.207,6.919
629,1.31,34.693,22.462,41.8,30.287,666.159,7.247,6.837
630,1.27,34.791,22.492,41.791,30.287,665.057,7.206,6.877
631,1.237,34.178,22.512,41.8,30.29,657.889,7.247,6.877
632,1.201,34.239,22.532,41.791,30.287,654.97,7.125,6.837
633,1.194,34.403,22.493,41.81,30.294,651.323,7.205,6.958
634,1.175,34.51,22.438,41.819,30.297,639.211,7.328,6.96
635,1.155,34.291,22.379,41.81,30.287,618.434,7.289,6.96
636,1.132,34.451,22.464,41.81,30.29,603.425,7.207,6.919
637,1.064,34.626,22.496,41.848,30.304,598.275,7.369,7.0
638,0.952,34.666,22.516,41.791,30.287,588.06,7.289,7.001
639,0.844,34.283,22.438,41.781,30.276,569.132,7.207,7.001
640,0.804,34.451,22.461,41.781,30.283,545.197,7.206,7.041
641,0.768,34.587,22.496,41.79,30.283,520.359,7.206,7.042
642,0.66,34.637,22.508,41.752,30.266,511.979,7.125,7.082
643,0.516,34.282,22.528,41.8,30.29,536.333,7.287,7.123
644,0.361,34.442,22.45,41.819,30.283,572.074,7.247,7.368
645,0.223,34.578,22.41,41.82,30.283,597.275,7.288,7.533
646,0.127,34.636,22.394,41.82,30.294,619.645,7.329,7.616
647,0.058,34.407,22.496,41.82,30.294,641.824,7.289,7.779
648,-0.037,34.548,22.555,41.829,30.301,658.96,7.41,8.066
649,-0.119,34.636,22.528,41.791,30.29,666.937,7.289,7.987
650,-0.182,34.685,22.512,41.877,30.294,665.878,7.207,8.108
651,-0.225,34.359,22.501,41.82,30.287,658.832,7.247,8.354
652,-0.232,34.49,22.532,41.82,30.297,655.915,7.206,8.356
653,-0.225,34.588,22.536,41.8,30.28,652.105,7.206,8.397
654,-0.179,34.579,22.544,41.819,30.29,640.398,7.247,8.56
655,-0.13,34.282,22.481,41.839,30.29,619.91,7.247,8.561
656,-0.065,34.413,22.45,41.81,30.287,604.579,7.206,8.602
657,0.001,34.558,22.438,41.915,30.29,599.466,7.206,8.643
658,0.08,34.291,22.492,41.859,30.294,589.698,7.287,8.725
659,0.139,34.308,22.5,41.801,30.29,571.019,7.166,8.726
660,0.231,34.461,22.469,41.81,30.277,547.005,7.043,8.766
661,0.313,34.568,22.449,41.781,30.28,521.922,7.001,8.848
662,0.395,34.119,22.473,41.81,30.276,512.848,7.041,8.93
663,0.464,34.21,22.492,41.781,30.28,536.219,6.92,9.012
664,0.523,34.403,22.508,41.81,30.287,572.114,7.0,9.176
665,0.57,34.491,22.512,41.839,30.28,597.642,7.001,9.34
666,0.619,34.147,22.516,41.829,30.294,620.136,7.041,9.423
667,0.662,34.306,22.442,41.839,30.287,642.195,7.001,9.546
668,0.708,34.471,22.512,41.858,30.297,659.207,7.041,9.628
669,0.708,34.53,22.532,41.839,30.301,667.306,7.042,9.832
670,0.715,34.214,22.505,41.81,30.287,666.247,6.96,9.753
671,0.724,34.374,22.45,41.829,30.283,658.998,6.919,9.915
672,0.721,34.5,22.461,41.848,30.297,655.957,7.0,9.916
673,0.705,34.54,22.5,41.839,30.29,652.431,6.96,10.039
674,0.734,34.233,22.5,41.839,30.29,640.726,6.919,10.04
675,0.738,34.403,22.528,41.848,30.287,620.238,7.081,10.04
676,0.721,34.52,22.548,41.839,30.294,604.663,6.961,10.08
677,0.721,34.55,22.524,41.839,30.287,599.507,6.96,10.04
678,0.737,34.157,22.512,41.925,30.29,589.739,6.878,9.999
679,0.728,34.306,22.493,41.859,30.297,571.467,7.04,10.161
680,0.728,34.394,22.524,41.801,30.28,547.416,6.798,10.041
681,0.731,34.558,22.473,41.8,30.28,522.17,6.795,9.918
682,0.747,34.31,22.391,41.839,30.283,512.607,6.714,9.916
683,0.738,34.452,22.421,41.839,30.29,535.648,6.794,9.916
684,0.734,34.549,22.465,41.81,30.283,571.417,6.755,9.794
685,0.741,34.176,22.496,41.839,30.283,597.106,6.876,10.037
686,0.741,34.201,22.504,41.858,30.294,619.277,6.918,10.04
687,0.744,34.345,22.551,41.839,30.29,641.332,6.878,10.04
688,0.747,34.462,22.485,41.829,30.29,658.304,6.877,10.08
689,0.734,34.175,22.508,41.877,30.301,666.768,7.04,10.162
690,0.725,34.278,22.508,41.82,30.284,665.632,6.839,10.0
691,0.721,34.422,22.52,41.839,30.28,658.342,6.796,9.958
692,0.724,34.52,22.485,41.848,30.29,655.219,6.877,9.998
693,0.724,34.08,22.442,41.858,30.297,651.854,6.877,9.917
694,0.721,34.238,22.457,41.82,30.277,640.436,6.755,9.835
695,0.75,34.365,22.492,41.839,30.29,620.154,6.917,9.875
696,0.754,34.462,22.493,41.848,30.29,604.622,6.837,9.753
697,0.744,34.041,22.497,41.858,30.294,599.507,6.837,9.752
698,0.751,34.209,22.512,41.858,30.283,590.146,6.796,9.59
699,0.761,34.374,22.504,41.954,30.301,571.959,6.917,9.751
700,0.757,34.404,22.469,41.821,30.29,548.072,6.837,9.59
701,0.764,34.069,22.496,41.81,30.277,522.706,6.714,9.385
702,0.757,34.219,22.52,41.839,30.28,512.856,6.754,9.261
703,0.754,34.364,22.473,41.839,30.29,535.325,6.795,9.259
704,0.748,34.404,22.407,41.82,30.27,571.088,6.877,9.178
705,0.747,34.098,22.375,41.877,30.276,597.347,6.959,9.177
706,0.757,34.267,22.456,41.858,30.294,619.889,7.041,9.137
707,0.761,34.365,22.473,41.868,30.29,642.152,7.042,9.136
708,0.754,34.673,22.52,41.858,30.28,659.329,7.042,9.095
709,0.757,34.11,22.446,41.897,30.297,667.795,7.245,9.054
710,0.741,34.219,22.441,41.859,30.29,666.821,7.125,9.054
711,0.738,34.345,22.492,41.849,30.28,659.451,7.124,8.891
712,0.715,34.126,22.528,41.858,30.29,656.246,7.124,8.809
713,0.724,34.181,22.532,41.877,30.294,653.165,7.246,8.767
714,0.728,34.306,22.497,41.83,30.28,641.913,7.125,8.604
715,0.747,34.452,22.45,41.858,30.294,621.958,7.327,8.684
716,0.741,33.897,22.379,41.868,30.29,606.266,7.289,8.603
717,0.744,34.025,22.476,41.858,30.294,601.028,7.288,8.643
718,0.751,34.152,22.528,41.849,30.28,591.869,7.369,8.481
719,0.761,34.268,22.528,41.897,30.297,573.806,7.533,8.601
720,0.761,34.029,22.493,41.907,30.284,549.961,7.372,8.44
721,0.764,34.152,22.481,41.82,30.28,524.391,7.289,8.235
722,0.764,34.316,22.492,41.829,30.276,513.93,7.207,8.273
723,0.783,34.404,22.536,41.848,30.29,535.62,7.369,8.274
724,0.761,33.906,22.477,41.82,30.28,571.945,7.248,8.03
725,0.77,34.102,22.489,41.877,30.283,599.185,7.41,8.231
726,0.78,34.229,22.461,41.868,30.301,621.981,7.411,8.273
727,0.767,34.307,22.484,41.868,30.29,644.49,7.452,8.193
728,0.761,34.058,22.489,41.849,30.297,661.751,7.371,8.151
729,0.764,34.248,22.547,41.897,30.308,670.34,7.492,8.191
730,0.741,34.336,22.47,41.859,30.298,669.449,7.453,8.151
731,0.751,34.394,22.492,41.849,30.284,661.958,7.29,8.028
732,0.751,34.117,22.481,41.868,30.294,658.467,7.329,7.987
733,0.748,34.258,22.516,41.858,30.287,655.424,7.289,7.986
734,0.744,34.365,22.54,41.83,30.28,644.578,7.207,7.864
735,0.78,34.606,22.552,41.858,30.287,624.587,7.287,7.904
736,0.774,33.966,22.509,41.858,30.29,608.773,7.329,7.945
737,0.79,34.122,22.446,41.858,30.297,603.329,7.289,7.945
738,0.787,34.248,22.465,41.858,30.294,594.331,7.288,7.864
739,0.806,33.962,22.531,41.897,30.304,576.351,7.288,7.944
740,0.8,33.93,22.509,41.859,30.291,552.67,7.288,7.905
741,0.807,34.035,22.434,41.849,30.277,526.858,7.207,7.701
742,0.81,34.171,22.469,41.849,30.276,515.459,7.206,7.658
743,0.807,33.875,22.473,41.839,30.29,536.001,7.287,7.698
744,0.8,33.997,22.496,41.81,30.29,571.949,7.247,7.699
745,0.8,34.17,22.543,41.848,30.28,598.169,7.41,7.699
746,0.787,34.278,22.532,41.858,30.301,619.898,7.533,7.78
747,0.793,33.828,22.509,41.858,30.297,641.704,7.494,7.7
748,0.793,33.996,22.508,41.964,30.29,658.715,7.494,7.658
749,0.797,34.17,22.493,41.878,30.304,667.057,7.534,7.698
750,0.803,34.22,22.528,41.858,30.297,666.407,7.575,7.78
751,0.781,33.837,22.509,41.849,30.284,658.919,7.454,7.618
752,0.78,33.996,22.387,41.868,30.294,655.225,7.493,7.657
753,0.777,34.132,22.464,41.878,30.29,652.179,7.494,7.576
754,0.79,34.181,22.461,41.858,30.29,641.496,7.534,7.575
755,0.816,33.894,22.496,41.839,30.277,621.384,7.372,7.494
756,0.826,34.054,22.516,41.858,30.29,605.569,7.452,7.616
757,0.836,34.181,22.54,41.858,30.297,600.451,7.412,7.617
758,0.836,34.23,22.458,41.858,30.29,591.904,7.411,7.495
759,0.833,33.789,22.473,41.868,30.29,574.009,7.371,7.534
760,0.833,33.929,22.516,41.887,30.304,550.776,7.411,7.616
761,0.839,34.016,22.508,41.83,30.28,525.009,7.208,7.454
762,0.852,34.036,22.477,41.82,30.28,513.611,7.206,7.371
763,0.856,33.874,22.399,41.848,30.297,534.194,7.206,7.37
764,0.849,34.025,22.472,41.868,30.294,570.833,7.206,7.411
765,0.846,34.161,22.457,41.839,30.28,598.198,7.125,7.33
766,0.843,33.884,22.512,41.877,30.301,620.955,7.205,7.573
767,0.846,33.862,22.532,41.887,30.29,643.423,7.247,7.535
768,0.843,34.006,22.567,41.878,30.294,660.927,7.206,7.616
769,0.843,34.113,22.482,41.926,30.29,669.762,7.165,7.576
770,0.859,33.788,22.496,41.907,30.311,669.525,7.328,7.698
771,0.846,33.861,22.508,41.849,30.287,662.162,7.167,7.577
772,0.833,33.996,22.508,41.877,30.294,658.347,7.084,7.494
773,0.836,34.103,22.458,41.878,30.287,655.544,7.164,7.534
774,0.852,33.75,22.402,41.878,30.294,645.27,7.206,7.575
775,0.84,33.861,22.414,41.868,30.273,625.325,7.165,7.454
776,0.872,34.044,22.472,41.868,30.29,609.146,7.043,7.534
777,0.869,34.142,22.485,41.878,30.297,603.659,7.082,7.534
778,0.869,33.827,22.539,41.878,30.287,595.107,7.123,7.534
779,0.882,33.996,22.438,41.878,30.29,577.253,7.043,7.494
780,0.885,34.151,22.5,41.916,30.301,553.858,7.204,7.534
781,0.866,34.172,22.473,41.878,30.294,528.049,7.125,7.453
782,0.905,33.558,22.512,41.839,30.27,515.552,6.961,7.33
783,0.899,33.715,22.489,41.868,30.294,535.067,7.0,7.289
784,0.895,33.861,22.45,41.868,30.29,571.289,7.041,7.41
785,0.892,33.901,22.383,41.839,30.277,598.935,7.042,7.371
786,0.902,33.709,22.39,41.887,30.29,621.451,7.123,7.452
787,0.902,33.87,22.499,41.878,30.294,643.916,7.165,7.452
788,0.899,34.006,22.532,41.897,30.297,661.217,7.246,7.493
789,0.899,34.027,22.52,41.878,30.297,670.05,7.247,7.453
790,0.905,33.71,22.501,42.021,30.304,669.568,7.328,7.452
791,0.886,33.803,22.489,41.898,30.294,662.406,7.37,7.615
792,0.898,33.9,22.481,41.868,30.294,658.268,7.289,7.454
793,0.908,33.767,22.551,41.878,30.297,655.584,7.288,7.412
794,0.895,33.708,22.505,41.878,30.29,645.393,7.329,7.452
795,0.915,33.822,22.477,41.878,30.28,625.693,7.289,7.412
796,0.925,33.986,22.449,41.887,30.29,608.987,7.288,7.411
797,0.928,33.576,22.453,41.897,30.297,603.575,7.288,7.411
798,0.944,33.677,22.461,41.887,30.284,595.228,7.329,7.452
799,0.941,33.812,22.5,41.887,30.287,577.58,7.289,7.493
800,0.961,33.948,22.446,41.916,30.301,554.227,7.329,7.371
801,0.961,33.518,22.437,41.868,30.294,528.297,7.329,7.452
802,0.968,33.648,22.484,41.849,30.277,515.433,7.167,7.249
803,0.968,33.793,22.508,41.858,30.287,534.334,7.206,7.328
804,0.971,33.909,22.532,41.877,30.29,570.306,7.206,7.329
805,0.968,33.537,22.493,41.858,30.277,597.136,7.165,7.329
806,0.977,33.725,22.5,41.897,30.294,618.627,7.165,7.41
807,0.981,33.89,22.403,41.887,30.294,640.675,7.206,7.411
808,0.977,33.949,22.492,41.887,30.301,657.85,7.165,7.452
809,0.981,33.777,22.528,41.887,30.297,666.682,7.165,7.452
810,1.0,33.957,22.536,41.916,30.297,666.526,7.206,7.534
811,0.984,34.055,22.423,41.907,30.297,659.327,7.165,7.575
812,0.984,34.123,22.465,41.878,30.287,655.351,7.002,7.494
813,0.978,33.826,22.492,41.887,30.294,652.79,7.041,7.453
814,0.99,33.986,22.528,41.906,30.29,642.803,7.042,7.534
815,0.984,34.084,22.528,41.868,30.28,623.268,6.96,7.453
816,1.004,34.114,22.555,41.887,30.294,606.605,6.878,7.452
817,1.023,33.261,22.501,41.897,30.308,601.356,7.0,7.534
818,1.03,33.425,22.493,41.897,30.294,593.295,6.96,7.494
819,1.03,33.541,22.481,41.897,30.294,575.893,6.919,7.494
820,1.059,33.533,22.52,41.907,30.297,552.746,6.878,7.453
821,1.063,33.495,22.415,41.897,30.294,527.022,6.877,7.615
822,1.069,33.619,22.449,41.859,30.277,514.038,6.755,7.454
823,1.069,33.735,22.449,41.868,30.29,532.734,6.754,7.493
824,1.066,33.439,22.496,41.887,30.294,568.948,6.795,7.534
825,1.053,33.513,22.504,41.897,30.283,596.959,6.795,7.534
826,1.073,33.676,22.504,41.907,30.29,619.154,6.673,7.534
827,1.086,33.793,22.536,41.907,30.294,641.738,6.875,7.616
828,1.079,33.382,22.434,41.907,30.297,659.447,6.877,7.617
829,1.092,33.531,22.465,41.907,30.297,668.568,6.918,7.657
830,1.109,33.667,22.539,41.907,30.294,668.415,6.878,7.658
831,1.096,33.764,22.54,41.935,30.301,661.541,7.04,7.78
832,1.092,33.353,22.438,41.897,30.297,657.243,6.92,7.618
833,1.122,33.521,22.476,41.907,30.29,654.558,6.959,7.576
834,1.129,33.648,22.481,41.926,30.294,644.651,7.0,7.535
835,1.129,33.707,22.5,41.907,30.294,625.116,7.041,7.534
836,1.135,33.362,22.497,41.878,30.28,608.046,6.92,7.453
837,1.161,33.512,22.539,41.897,30.301,602.59,7.081,7.656
838,1.168,33.657,22.481,41.916,30.284,594.608,7.123,7.536
839,1.168,33.736,22.489,41.916,30.297,577.167,7.124,7.494
840,1.178,33.343,22.481,41.888,30.29,553.898,7.124,7.494
841,1.188,33.512,22.543,41.935,30.297,528.253,7.246,7.575
842,1.194,33.6,22.435,41.888,30.28,514.823,7.084,7.454
843,1.201,33.658,22.465,41.897,30.287,532.823,7.083,7.412
844,1.207,33.342,22.426,41.907,30.29,568.989,7.123,7.493
845,1.207,33.483,22.48,41.916,30.283,597.163,7.165,7.453
846,1.217,33.59,22.473,41.897,30.287,619.319,7.165,7.452
847,1.211,33.572,22.539,41.916,30.294,642.065,7.246,7.574
848,1.207,33.418,22.528,41.926,30.304,659.857,7.328,7.657
849,1.227,33.56,22.477,41.916,30.301,669.183,7.37,7.536
850,1.234,33.706,22.481,41.936,30.301,669.275,7.289,7.575
851,1.234,33.458,22.543,41.974,30.304,662.403,7.451,7.779
852,1.221,33.513,22.513,41.936,30.301,658.227,7.412,7.7
853,1.227,33.657,22.423,41.926,30.294,655.421,7.289,7.496
854,1.24,33.755,22.39,41.926,30.294,645.351,7.288,7.616
855,1.273,33.334,22.472,41.926,30.29,625.814,7.329,7.576
856,1.267,33.454,22.481,41.888,30.28,608.622,7.289,7.575
857,1.28,33.638,22.496,41.935,30.301,602.881,7.329,7.575
858,1.283,33.716,22.536,41.926,30.297,594.936,7.329,7.616
859,1.293,33.468,22.434,41.916,30.294,577.658,7.329,7.698
860,1.306,33.609,22.449,41.936,30.294,554.39,7.289,7.618
861,1.322,33.783,22.512,41.955,30.294,528.623,7.329,7.617
862,1.316,33.804,22.544,41.917,30.283,514.989,7.289,7.617
863,1.316,33.526,22.47,41.897,30.283,532.54,7.125,7.454
864,1.306,33.705,22.434,41.916,30.29,569.19,7.246,7.493
865,1.303,33.841,22.375,41.936,30.287,597.531,7.247,7.575
866,1.286,33.881,22.402,41.907,30.283,619.607,7.125,7.616
867,1.312,33.738,22.464,41.935,30.29,642.068,7.205,7.617
868,1.319,33.88,22.496,41.945,30.301,660.019,7.287,7.779
869,1.319,34.016,22.504,41.936,30.297,669.428,7.247,7.822
870,1.313,34.084,22.426,41.955,30.294,669.44,7.247,7.781
871,1.335,34.123,22.48,41.974,30.294,662.283,7.288,7.822
872,1.332,34.22,22.492,41.955,30.301,658.186,7.329,8.025
873,1.316,34.336,22.539,41.926,30.294,655.502,7.289,7.865
874,1.309,34.356,22.509,41.936,30.29,645.961,7.207,7.863
875,1.313,34.049,22.489,41.936,30.283,626.674,7.328,7.904
876,1.319,34.19,22.454,41.945,30.297,609.404,7.289,7.863
877,1.316,34.316,22.324,41.917,30.284,603.376,7.207,7.741
878,1.329,34.337,22.471,41.945,30.297,595.592,7.45,7.862
879,1.329,34.433,22.5,41.945,30.294,578.356,7.452,7.944
880,1.326,34.568,22.485,41.945,30.294,555.211,7.371,7.864
881,1.339,34.684,22.446,41.945,30.29,529.201,7.37,7.782
882,1.316,34.436,22.484,41.965,30.297,515.361,7.533,7.944
883,1.296,34.549,22.496,41.917,30.29,532.178,7.372,7.783
884,1.299,34.675,22.52,41.926,30.294,568.21,7.37,7.74
885,1.283,34.772,22.524,41.936,30.29,596.749,7.37,7.821
886,1.283,34.696,22.512,41.955,30.304,619.111,7.37,7.863
887,1.27,34.829,22.469,41.926,30.287,641.493,7.289,7.782
888,1.267,35.013,22.461,41.955,30.304,659.485,7.491,8.106
889,1.244,35.063,22.473,41.974,30.301,669.057,7.453,8.028
890,1.218,34.987,22.5,41.955,30.294,669.07,7.452,8.068
891,1.201,35.149,22.465,41.974,30.297,661.995,7.371,8.028
892,1.204,35.304,22.445,41.994,30.311,657.614,7.533,8.271
893,1.185,35.325,22.461,41.946,30.291,654.805,7.331,8.111
894,1.178,35.296,22.492,41.936,30.297,645.141,7.248,8.109
895,1.168,35.43,22.516,41.936,30.29,625.812,7.247,8.028
896,1.145,35.546,22.532,41.964,30.297,608.541,7.288,8.109
897,1.125,35.576,22.501,41.946,30.29,602.554,7.125,7.947
898,1.119,35.5,22.415,41.965,30.294,595.096,7.246,8.067
899,1.122,35.633,22.464,41.946,30.297,578.067,7.206,8.069
900,1.102,35.731,22.508,41.955,30.294,555.045,7.206,8.069
901,1.086,36.0,22.485,41.955,30.287,529.118,7.125,7.987
902,1.066,35.734,22.383,41.965,30.297,514.913,7.246,8.108
903,1.043,35.837,22.421,41.946,30.287,531.401,7.084,7.987
904,1.043,35.953,22.476,41.926,30.29,566.942,7.123,7.946
905,1.024,35.945,22.504,41.955,30.29,595.354,7.165,8.026
906,1.014,36.031,22.497,41.955,30.297,617.186,7.124,8.027
907,1.01,36.166,22.512,41.945,30.287,639.522,7.002,7.987
908,0.997,36.273,22.477,41.993,30.304,657.676,7.204,8.149
909,0.987,36.053,22.461,41.975,30.304,667.575,7.206,8.191
910,0.978,36.185,22.481,41.974,30.297,668.08,7.165,8.192
911,0.951,36.331,22.532,41.965,30.301,661.294,7.084,8.192
912,0.932,36.409,22.493,41.993,30.311,657.119,7.286,8.354
913,0.915,36.179,22.407,41.975,30.301,654.394,7.044,8.275
914,0.922,36.321,22.441,41.965,30.294,644.812,7.042,8.193
915,0.918,36.447,22.48,41.974,30.287,625.565,7.001,8.11
916,0.889,36.506,22.461,41.965,30.294,607.97,7.001,8.15
917,0.905,36.372,22.516,41.946,30.294,601.939,6.838,8.028
918,0.905,36.505,22.524,41.965,30.294,594.48,6.999,8.19
919,0.902,36.631,22.368,42.003,30.301,577.532,7.082,8.11
920,0.889,36.69,22.444,41.965,30.294,554.592,7.042,8.15
921,0.892,36.537,22.519,41.946,30.29,528.625,7.001,8.11
922,0.879,36.689,22.532,41.984,30.301,514.298,7.041,8.191
923,0.863,36.767,22.442,41.955,30.29,530.663,6.879,8.029
924,0.859,36.825,22.414,41.955,30.287,567.057,6.877,8.027
925,0.843,36.701,22.437,41.993,30.287,596.006,6.959,8.109
926,0.82,36.815,22.473,41.984,30.304,618.209,6.96,8.15
927,0.813,36.941,22.461,41.965,30.287,640.874,6.919,8.069
928,0.807,37.297,22.539,41.984,30.297,659.357,7.081,8.191
929,0.797,36.725,22.442,42.003,30.297,669.543,7.123,8.232
930,0.781,36.854,22.449,41.984,30.301,670.051,7.043,8.151
931,0.8,36.97,22.508,41.994,30.301,663.387,7.042,8.313
932,0.781,36.895,22.524,42.003,30.308,659.051,7.123,8.274
933,0.774,36.923,22.516,41.984,30.294,656.324,7.002,8.233
934,0.767,37.067,22.426,41.994,30.297,647.271,7.001,8.151
935,0.783,37.174,22.398,41.984,30.294,628.151,7.041,8.191
936,0.774,36.81,22.316,41.984,30.29,610.15,7.123,8.192
937,0.78,36.97,22.444,41.965,30.287,603.75,6.961,8.11
938,0.78,37.086,22.484,41.993,30.294,596.287,7.163,8.191
939,0.78,37.155,22.504,41.994,30.301,579.339,7.084,8.11
940,0.774,36.896,22.465,41.984,30.29,556.359,7.123,8.15
941,0.79,37.038,22.453,41.984,30.29,530.351,7.124,8.11
942,0.787,37.164,22.504,42.013,30.301,515.372,7.287,8.191
943,0.774,37.213,22.501,41.965,30.294,530.633,7.125,7.988
944,0.774,36.724,22.489,41.984,30.294,566.446,7.165,7.986
945,0.764,36.883,22.442,41.984,30.294,595.552,7.206,8.027
946,0.748,37.009,22.434,42.013,30.297,617.676,7.287,8.109
947,0.754,37.077,22.461,41.975,30.29,640.219,7.288,7.987
948,0.731,37.049,22.512,42.013,30.308,658.537,7.451,8.108
949,0.731,37.183,22.524,42.013,30.301,668.478,7.452,8.109
950,0.734,37.309,22.446,42.013,30.301,668.983,7.493,8.15
951,0.712,37.358,22.461,42.013,30.297,662.238,7.453,8.11
952,0.702,37.081,22.508,42.051,30.318,657.657,7.615,8.313
953,0.708,37.183,22.54,41.994,30.301,655.212,7.454,8.152
954,0.711,37.29,22.524,41.994,30.29,646.08,7.33,8.028
955,0.731,37.32,22.509,42.013,30.29,627.123,7.41,7.987
956,0.725,37.042,22.481,42.004,30.297,609.205,7.411,8.027
957,0.721,37.154,22.391,41.984,30.284,602.886,7.289,7.824
958,0.734,37.29,22.46,42.022,30.297,595.628,7.451,8.025
959,0.751,37.051,22.508,42.013,30.301,579.007,7.493,7.987
960,0.741,37.039,22.489,42.023,30.29,556.193,7.412,7.946
961,0.721,37.173,22.391,42.023,30.294,530.227,7.33,7.864
962,0.744,37.299,22.476,42.042,30.297,515.005,7.532,7.944
963,0.725,36.898,22.461,41.994,30.294,529.816,7.412,7.945
964,0.728,37.028,22.516,41.984,30.294,566.031,7.371,7.864
965,0.725,37.173,22.501,42.013,30.294,595.426,7.411,7.944
966,0.734,37.251,22.5,42.023,30.304,617.39,7.493,7.945
967,0.705,36.917,22.477,41.994,30.287,639.972,7.453,7.945
968,0.711,37.095,22.485,42.032,30.294,658.088,7.452,8.026
969,0.705,37.241,22.473,42.023,30.308,668.392,7.615,8.027
970,0.708,37.31,22.516,42.042,30.304,668.983,7.576,8.109
971,0.695,36.879,22.485,42.042,30.297,662.197,7.494,8.028
972,0.692,37.076,22.481,42.061,30.315,657.331,7.494,8.027
973,0.688,37.193,22.457,42.042,30.305,655.128,7.656,8.068
974,0.688,37.233,22.484,42.013,30.294,646.283,7.414,7.987
975,0.701,37.415,22.524,42.023,30.297,627.45,7.411,7.905
976,0.708,37.561,22.571,42.032,30.297,609.493,7.411,7.904
977,0.682,37.658,22.513,42.013,30.297,603.174,7.33,7.985
978,0.721,37.697,22.462,42.032,30.29,595.915,7.207,7.864
979,0.715,36.566,22.43,42.042,30.294,579.457,7.328,7.985
980,0.721,36.708,22.484,42.033,30.297,556.848,7.329,7.986
981,0.741,36.825,22.493,42.013,30.294,530.844,7.207,7.946
982,0.757,36.855,22.411,42.032,30.287,515.052,7.287,7.905
983,0.757,36.903,22.441,42.061,30.304,529.532,7.369,7.985
984,0.731,37.028,22.43,42.033,30.294,565.459,7.208,7.864
985,0.734,37.145,22.465,42.032,30.29,595.136,7.206,7.863
986,0.744,36.906,22.477,42.042,30.297,617.428,7.287,7.944
987,0.725,36.836,22.528,42.061,30.301,640.257,7.329,7.945
988,0.715,36.96,22.52,42.033,30.287,658.456,7.207,7.783
989,0.728,37.106,22.489,42.071,30.301,668.884,7.45,7.984
990,0.728,36.647,22.477,42.042,30.301,669.679,7.412,7.946
991,0.725,36.719,22.543,42.052,30.301,662.936,7.533,7.986
992,0.711,36.854,22.528,42.052,30.301,657.908,7.616,7.946
993,0.724,36.989,22.43,42.09,30.318,655.662,7.82,8.026
994,0.728,36.693,22.441,42.081,30.305,646.695,7.781,7.987
995,0.721,36.844,22.449,42.033,30.287,627.82,7.659,7.864
996,0.721,36.98,22.469,42.042,30.294,609.618,7.658,7.782
997,0.721,37.058,22.481,42.033,30.301,603.094,7.78,7.862
998,0.711,37.365,22.532,42.032,30.284,596.118,7.781,7.782
999,0.724,37.551,22.431,42.052,30.29,579.825,7.781,7.862
1000,0.741,37.658,22.453,42.061,30.294,557.258,7.944,7.822
1001,0.741,37.717,22.484,42.052,30.29,531.336,7.783,7.781
1002,0.741,36.125,22.5,42.033,30.29,515.219,7.822,7.7
1003,0.744,36.292,22.5,42.042,30.294,529.208,7.863,7.74
1004,0.734,36.408,22.434,42.071,30.301,565.171,7.863,7.821
1005,0.725,36.486,22.344,42.042,30.287,595.092,7.741,7.7
1006,0.731,36.746,22.413,42.128,30.301,616.696,7.781,7.74
1007,0.721,36.892,22.441,42.062,30.294,639.274,7.822,7.781
1008,0.715,36.99,22.492,42.062,30.297,657.674,7.781,7.7
1009,0.744,37.048,22.481,42.042,30.294,668.104,7.659,7.699
1010,0.744,36.445,22.461,42.081,30.311,669.223,7.78,7.78
1011,0.725,36.592,22.445,42.062,30.298,662.688,7.822,7.862
1012,0.724,36.699,22.5,42.071,30.297,657.621,7.863,7.782
1013,0.728,36.537,22.528,42.071,30.301,655.618,7.66,7.822
1014,0.728,36.488,22.532,42.09,30.315,647.629,7.861,7.985
1015,0.731,36.612,22.434,42.052,30.284,629.171,7.619,7.702
1016,0.741,36.699,22.402,42.071,30.29,610.852,7.535,7.658
1017,0.747,36.326,22.457,42.042,30.294,604.326,7.534,7.739
1018,0.751,36.399,22.469,42.071,30.294,597.634,7.575,7.781
1019,0.761,36.544,22.516,42.033,30.283,581.345,7.332,7.618
1020,0.764,36.651,22.43,42.061,30.297,559.103,7.532,7.739
1021,0.754,36.259,22.449,42.052,30.301,533.021,7.494,7.74
1022,0.751,36.37,22.48,42.052,30.29,516.293,7.453,7.699
1023,0.757,36.524,22.512,42.052,30.294,528.934,7.452,7.74
1024,0.748,36.622,22.528,42.071,30.304,564.559,7.615,7.821
1025,0.754,36.191,22.438,42.052,30.294,595.33,7.495,7.7
1026,0.741,36.331,22.437,42.071,30.294,617.999,7.412,7.74
1027,0.747,36.476,22.406,42.062,30.297,640.913,7.533,7.74
1028,0.744,36.525,22.464,42.062,30.304,659.479,7.534,7.862
1029,0.751,36.152,22.496,42.052,30.287,669.87,7.494,7.741
1030,0.741,36.321,22.485,42.09,30.301,671.03,7.575,7.862
1031,0.731,36.457,22.496,42.167,30.297,664.454,7.616,7.944
1032,0.747,36.496,22.446,42.091,30.301,658.939,7.657,7.905
1033,0.741,36.152,22.5,42.091,30.301,656.892,7.617,7.863
1034,0.747,36.301,22.516,42.11,30.308,649.065,7.739,7.944
1035,0.734,36.408,22.516,42.072,30.298,630.893,7.618,7.905
1036,0.747,36.419,22.489,42.052,30.287,612.292,7.454,7.742
1037,0.738,35.949,22.434,42.061,30.297,605.56,7.493,7.862
1038,0.738,36.088,22.457,42.09,30.297,599.029,7.494,7.782
1039,0.741,36.176,22.473,42.043,30.287,582.863,7.371,7.7
1040,0.757,36.168,22.516,42.081,30.297,560.582,7.452,7.74
1041,0.77,36.1,22.415,42.081,30.294,534.581,7.493,7.821
1042,0.774,36.243,22.457,42.062,30.294,517.244,7.453,7.822
1043,0.758,36.322,22.453,42.071,30.297,529.106,7.371,7.7
1044,0.78,35.891,22.535,42.129,30.311,565.17,7.452,7.821
1045,0.748,35.934,22.516,42.091,30.298,596.556,7.412,7.822
1046,0.741,36.069,22.516,42.081,30.29,619.028,7.289,7.741
1047,0.747,36.166,22.485,42.09,30.294,642.062,7.329,7.74
1048,0.738,35.87,22.477,42.196,30.301,660.792,7.37,7.821
1049,0.734,36.011,22.41,42.072,30.29,671.428,7.37,7.781
1050,0.734,36.166,22.511,42.1,30.297,672.631,7.452,7.822
1051,0.754,36.254,22.45,42.11,30.308,666.015,7.452,8.025
1052,0.728,35.775,22.375,42.11,30.308,660.378,7.452,7.905
1053,0.725,35.933,22.445,42.12,30.304,658.126,7.371,7.863
1054,0.747,36.098,22.465,42.129,30.304,650.094,7.452,7.822
1055,0.754,36.119,22.504,42.081,30.297,632.001,7.412,7.863
1056,0.748,35.755,22.516,42.062,30.294,612.994,7.249,7.741
1057,0.764,35.924,22.505,42.081,30.301,606.136,7.41,7.74
1058,0.754,36.04,22.458,42.081,30.301,599.767,7.371,7.74
1059,0.751,36.08,22.453,42.071,30.29,583.887,7.289,7.618
1060,0.761,35.678,22.465,42.1,30.294,561.527,7.288,7.657
1061,0.774,35.817,22.52,42.11,30.297,535.485,7.451,7.698
1062,0.764,35.953,22.407,42.091,30.294,517.904,7.371,7.699
1063,0.764,35.983,22.457,42.1,30.294,529.113,7.492,7.618
1064,0.767,35.753,22.457,42.119,30.308,564.52,7.412,7.698
1065,0.748,35.885,22.473,42.11,30.298,595.858,7.574,7.74
1066,0.751,35.963,22.5,42.11,30.29,617.679,7.494,7.537
1067,0.751,35.811,22.493,42.081,30.29,640.381,7.534,7.697
1068,0.748,35.493,22.555,42.11,30.301,659.189,7.534,7.699
1069,0.741,35.643,22.47,42.1,30.297,669.948,7.534,7.658
1070,0.754,35.779,22.461,42.091,30.29,671.234,7.453,7.576
1071,0.748,35.444,22.492,42.129,30.301,664.903,7.534,7.738
1072,0.731,35.499,22.465,42.129,30.308,659.269,7.575,7.659
1073,0.721,35.633,22.422,42.12,30.301,657.505,7.575,7.698
1074,0.724,35.75,22.332,42.129,30.297,650.088,7.535,7.658
1075,0.734,35.406,22.468,42.148,30.308,632.611,7.657,7.78
1076,0.728,35.508,22.434,42.11,30.294,613.692,7.455,7.618
1077,0.731,35.633,22.476,42.11,30.301,606.59,7.371,7.495
1078,0.751,35.74,22.489,42.1,30.297,600.381,7.452,7.656
1079,0.761,35.214,22.43,42.119,30.301,584.706,7.412,7.658
1080,0.744,35.343,22.449,42.091,30.29,562.308,7.33,7.495
1081,0.747,35.507,22.477,42.11,30.294,536.387,7.41,7.494
1082,0.757,35.557,22.528,42.11,30.294,518.401,7.411,7.616
1083,0.761,35.116,22.446,42.091,30.294,528.711,7.371,7.657
1084,0.767,35.303,22.402,42.119,30.297,564.19,7.37,7.617
1085,0.761,35.478,22.375,42.168,30.311,596.18,7.411,7.657
1086,0.748,35.489,22.441,42.13,30.298,618.821,7.371,7.78
1087,0.738,35.211,22.461,42.11,30.294,641.694,7.289,7.7
1088,0.725,35.391,22.5,42.11,30.297,660.504,7.329,7.699
1089,0.721,35.508,22.485,42.139,30.301,671.344,7.289,7.74
1090,0.711,35.538,22.45,42.101,30.29,672.509,7.207,7.74
1091,0.721,35.567,22.473,42.129,30.297,665.973,7.247,7.659
1092,0.715,35.72,22.516,42.148,30.304,660.093,7.247,7.78
1093,0.711,35.818,22.547,42.12,30.304,658.001,7.247,7.822
1094,0.721,35.56,22.485,42.129,30.301,650.337,7.084,7.741
1095,0.741,34.742,22.446,42.148,30.301,632.695,7.123,7.699
1096,0.731,34.849,22.367,42.158,30.308,613.774,7.165,7.78
1097,0.734,34.956,22.417,42.11,30.301,606.551,6.962,7.618
1098,0.741,34.928,22.453,42.139,30.297,600.421,7.0,7.617
1099,0.734,35.043,22.469,42.129,30.301,584.95,6.919,7.657
1100,0.725,35.169,22.414,42.129,30.294,562.717,6.959,7.698
1101,0.737,35.294,22.433,42.139,30.29,536.595,6.797,7.577
1102,0.751,34.749,22.469,42.12,30.294,518.484,6.958,7.616
1103,0.751,34.878,22.492,42.129,30.294,528.672,6.878,7.657
1104,0.735,35.004,22.508,42.139,30.304,564.393,6.877,7.658
1105,0.738,35.13,22.508,42.139,30.304,596.06,6.918,7.698
1106,0.741,34.891,22.465,42.168,30.311,618.291,7.0,7.861
1107,0.734,35.014,22.414,42.139,30.294,640.835,6.96,7.741
1108,0.725,35.168,22.445,42.139,30.297,659.56,6.919,7.699
1109,0.721,35.256,22.5,42.149,30.301,670.562,6.959,7.78
1110,0.718,34.825,22.473,42.139,30.304,671.972,7.0,7.74
1111,0.711,34.994,22.399,42.139,30.294,665.439,6.838,7.74
1112,0.698,35.13,22.472,42.168,30.304,659.437,6.999,7.862
1113,0.701,35.198,22.477,42.168,30.304,657.669,6.96,7.822
1114,0.708,34.786,22.516,42.158,30.304,650.334,6.919,7.741
1115,0.718,34.965,22.547,42.158,30.297,632.898,6.919,7.74
1116,0.702,35.062,22.497,42.187,30.308,614.101,7.0,7.821
1117,0.708,35.082,22.454,42.139,30.304,606.635,6.838,7.741
1118,0.721,34.91,22.461,42.149,30.297,600.585,6.877,7.618
1119,0.718,35.062,22.449,42.158,30.297,585.278,6.877,7.617
1120,0.715,35.14,22.496,42.139,30.297,563.208,6.918,7.698
1121,0.737,35.409,22.438,42.12,30.29,536.925,6.756,7.496
1122,0.734,34.933,22.418,42.158,30.297,518.528,6.836,7.616
1123,0.721,35.043,22.422,42.158,30.304,527.94,6.877,7.617
1124,0.721,35.159,22.472,42.149,30.301,563.166,6.877,7.657
1125,0.721,34.911,22.481,42.177,30.304,595.235,6.837,7.617
1126,0.718,34.927,22.512,42.197,30.311,617.348,6.999,7.779
1127,0.708,35.043,22.465,42.168,30.298,639.809,6.919,7.618
1128,0.695,35.159,22.418,42.168,30.301,658.533,6.919,7.617
1129,0.688,34.901,22.441,42.168,30.304,669.576,6.959,7.657
1130,0.682,35.004,22.5,42.168,30.297,671.109,7.0,7.617
1131,0.692,35.149,22.504,42.149,30.29,664.658,6.96,7.657
1132,0.685,35.246,22.43,42.197,30.304,658.657,7.122,7.658
1133,0.685,34.864,22.457,42.197,30.308,656.645,7.124,7.78
1134,0.692,35.042,22.461,42.187,30.304,649.713,7.083,7.659
1135,0.695,35.159,22.512,42.178,30.301,632.608,7.205,7.617
1136,0.708,35.256,22.516,42.197,30.308,613.854,7.247,7.739
1137,0.692,34.893,22.532,42.159,30.301,606.429,7.125,7.577
1138,0.701,35.042,22.462,42.158,30.297,600.745,7.083,7.535
1139,0.714,35.178,22.43,42.187,30.297,585.686,7.164,7.494
1140,0.695,35.227,22.441,42.168,30.304,563.741,7.206,7.534
1141,0.698,34.95,22.496,42.149,30.291,537.662,7.043,7.453
1142,0.701,35.129,22.454,42.177,30.297,518.901,7.164,7.493
1143,0.695,35.246,22.453,42.197,30.297,527.659,7.165,7.534
1144,0.695,35.295,22.438,42.168,30.301,562.797,7.124,7.534
1145,0.701,35.698,22.453,42.187,30.304,595.353,7.124,7.534
1146,0.708,35.856,22.481,42.226,30.315,618.163,7.327,7.738
1147,0.702,35.934,22.473,42.188,30.301,641.037,7.085,7.577
1148,0.695,36.213,22.496,42.187,30.297,660.091,7.164,7.575
1149,0.695,34.873,22.458,42.274,30.297,671.381,7.124,7.575
1150,0.679,35.004,22.445,42.188,30.304,673.119,7.165,7.616
1151,0.682,35.13,22.484,42.187,30.294,666.752,7.043,7.495
1152,0.698,35.294,22.473,42.226,30.311,660.507,7.164,7.697
1153,0.685,35.411,22.414,42.236,30.311,658.534,7.246,7.78
1154,0.666,35.556,22.422,42.217,30.308,651.521,7.166,7.618
1155,0.678,35.663,22.461,42.207,30.298,634.374,7.165,7.698
1156,0.675,35.271,22.481,42.226,30.318,615.214,7.206,7.699
1157,0.672,35.372,22.485,42.217,30.305,607.541,7.125,7.658
1158,0.688,35.488,22.508,42.207,30.291,601.854,7.043,7.536
1159,0.695,35.585,22.407,42.207,30.301,586.835,7.123,7.534
1160,0.701,35.308,22.46,42.197,30.297,564.891,7.043,7.575
1161,0.685,35.411,22.473,42.168,30.284,538.69,6.92,7.535
1162,0.701,35.585,22.516,42.216,30.297,519.643,6.959,7.534
1163,0.698,35.663,22.462,42.207,30.304,527.87,7.082,7.534
1164,0.695,35.577,22.383,42.216,30.301,563.084,7.042,7.616
1165,0.688,35.74,22.417,42.236,30.308,595.478,7.042,7.617
1166,0.695,35.885,22.449,42.255,30.318,617.595,7.123,7.657
1167,0.685,35.906,22.43,42.226,30.301,640.421,7.165,7.698
1168,0.675,35.522,22.48,42.197,30.297,659.271,7.043,7.577
1169,0.672,35.662,22.414,42.207,30.301,670.559,7.082,7.657
1170,0.672,35.808,22.445,42.216,30.304,672.42,7.123,7.739
1171,0.659,35.828,22.449,42.197,30.294,666.054,7.124,7.618
1172,0.659,35.627,22.523,42.226,30.304,659.809,7.246,7.698
1173,0.675,35.769,22.493,42.245,30.311,658.12,7.288,7.861
1174,0.678,35.876,22.477,42.245,30.308,651.436,7.329,7.782
1175,0.691,35.906,22.395,42.245,30.298,634.495,7.37,7.74
1176,0.692,35.829,22.414,42.245,30.308,615.378,7.411,7.74
1177,0.692,35.934,22.457,42.236,30.308,607.542,7.452,7.74
1178,0.685,36.04,22.438,42.226,30.298,601.732,7.371,7.659
1179,0.682,35.763,22.508,42.207,30.29,586.753,7.411,7.576
1180,0.692,35.732,22.415,42.235,30.301,564.89,7.452,7.575
1181,0.688,35.847,22.445,42.207,30.29,538.934,7.371,7.575
1182,0.701,35.982,22.445,42.216,30.29,519.443,7.452,7.454
1183,0.695,35.763,22.516,42.216,30.301,527.095,7.493,7.656
1184,0.705,35.895,22.508,42.216,30.311,561.694,7.494,7.536
1185,0.702,36.021,22.493,42.236,30.301,594.488,7.494,7.616
1186,0.705,36.166,22.489,42.284,30.311,617.097,7.534,7.657
1187,0.692,35.851,22.368,42.236,30.304,640.213,7.616,7.78
1188,0.679,36.001,22.413,42.217,30.301,659.188,7.454,7.618
1189,0.672,36.127,22.453,42.226,30.304,670.762,7.412,7.698
1190,0.669,36.196,22.488,42.236,30.304,672.666,7.493,7.699
1191,0.646,35.976,22.383,42.226,30.301,666.463,7.453,7.699
1192,0.655,36.156,22.437,42.236,30.301,659.773,7.412,7.658
1193,0.668,36.292,22.465,42.265,30.315,657.835,7.493,7.78
1194,0.659,36.341,22.504,42.255,30.311,650.904,7.453,7.781
1195,0.665,36.035,22.512,42.246,30.301,633.839,7.33,7.781
1196,0.678,36.185,22.489,42.255,30.304,614.355,7.289,7.7
1197,0.675,36.283,22.465,42.265,30.304,606.678,7.41,7.78
1198,0.669,36.322,22.418,42.246,30.297,601.114,7.208,7.659
1199,0.672,36.083,22.449,42.236,30.297,586.34,7.206,7.617
1200,0.675,36.243,22.492,42.255,30.297,564.642,7.165,7.698
1201,0.669,36.341,22.434,42.255,30.301,538.687,7.206,7.658
1202,0.682,36.371,22.433,42.313,30.29,518.952,7.043,7.495
1203,0.688,36.179,22.433,42.237,30.301,526.684,7.164,7.656
1204,0.685,36.331,22.476,42.236,30.315,561.527,7.165,7.698
1205,0.666,36.438,22.504,42.265,30.308,594.161,7.206,7.658
1206,0.672,36.199,22.516,42.274,30.298,615.914,7.125,7.617
1207,0.669,36.11,22.516,42.294,30.318,638.697,7.287,7.82
1208,0.652,36.215,22.387,42.246,30.305,657.709,7.125,7.619
1209,0.652,36.34,22.437,42.255,30.297,669.324,7.165,7.576
1210,0.662,36.14,22.496,42.246,30.301,671.431,7.124,7.657
1211,0.649,36.244,22.512,42.245,30.301,665.678,7.124,7.739
1212,0.668,36.379,22.395,42.245,30.294,659.033,7.083,7.618
1213,0.659,36.486,22.433,42.293,30.308,657.503,7.205,7.698
1214,0.662,36.113,22.426,42.275,30.315,651.186,7.206,7.74
1215,0.662,36.224,22.469,42.274,30.305,634.655,7.165,7.618
1216,0.672,36.36,22.453,42.265,30.304,615.095,7.124,7.617
1217,0.682,36.467,22.492,42.284,30.315,607.133,7.246,7.779
1218,0.666,36.094,22.454,42.246,30.291,601.444,7.044,7.618
1219,0.662,36.253,22.422,42.245,30.297,586.79,7.001,7.535
1220,0.669,36.379,22.437,42.255,30.301,565.135,7.001,7.534
1221,0.682,36.457,22.476,42.246,30.301,539.302,6.96,7.575
1222,0.685,36.113,22.465,42.207,30.28,519.121,6.838,7.454
1223,0.685,36.282,22.375,42.274,30.301,525.75,6.958,7.574
1224,0.692,36.408,22.445,42.255,30.311,560.46,7.0,7.616
1225,0.675,36.486,22.441,42.265,30.308,594.435,6.96,7.617
1226,0.659,36.324,22.461,42.274,30.301,617.462,6.96,7.617
1227,0.659,36.495,22.469,42.294,30.315,640.745,7.082,7.739
1228,0.636,36.573,22.531,42.256,30.305,659.966,6.961,7.618
1229,0.639,36.603,22.384,42.274,30.304,671.827,6.878,7.617
1230,0.649,36.172,22.445,42.274,30.301,673.896,6.877,7.617
1231,0.652,36.292,22.473,42.265,30.308,668.02,6.837,7.698
1232,0.642,36.399,22.5,42.265,30.294,660.927,6.755,7.618
1233,0.655,36.304,22.477,42.294,30.308,659.148,6.876,7.657
1234,0.642,36.236,22.41,42.284,30.304,652.788,6.877,7.698
1235,0.649,36.36,22.421,42.284,30.304,636.42,6.877,7.658
1236,0.652,36.467,22.445,42.284,30.297,616.698,6.796,7.576
1237,0.662,36.199,22.473,42.303,30.315,608.531,6.877,7.82
1238,0.669,36.283,22.453,42.265,30.305,603.043,6.755,7.578
1239,0.665,36.399,22.465,42.274,30.301,588.514,6.754,7.494
1240,0.652,36.515,22.43,42.274,30.297,567.022,6.673,7.534
1241,0.655,36.133,22.43,42.274,30.304,541.11,6.672,7.575
1242,0.662,36.244,22.465,42.246,30.284,520.521,6.55,7.413
1243,0.678,36.427,22.496,42.265,30.297,526.455,6.712,7.655
1244,0.669,36.487,22.45,42.294,30.308,560.427,6.672,7.617
1245,0.662,36.084,22.371,42.275,30.308,593.784,6.672,7.617
1246,0.659,36.234,22.366,42.294,30.301,616.277,6.753,7.657
1247,0.669,36.408,22.464,42.313,30.315,639.351,6.876,7.698
1248,0.652,36.429,22.461,42.275,30.305,658.569,6.755,7.618
1249,0.646,36.132,22.477,42.274,30.294,670.308,6.795,7.535
1250,0.636,36.32,22.438,42.284,30.304,672.58,6.836,7.616
1251,0.636,36.447,22.453,42.303,30.308,666.747,6.877,7.698
1252,0.626,36.477,22.461,42.265,30.294,659.694,6.877,7.618
1253,0.639,36.209,22.512,42.294,30.308,657.835,6.877,7.617
1254,0.636,36.369,22.493,42.323,30.311,651.677,6.918,7.698
1255,0.649,36.476,22.481,42.313,30.301,635.311,7.0,7.699
1256,0.649,36.516,22.403,42.294,30.304,615.467,6.919,7.658
1257,0.639,36.094,22.367,42.323,30.318,606.974,6.959,7.617
1258,0.639,36.205,22.421,42.294,30.312,601.93,7.082,7.698
1259,0.636,36.292,22.461,42.265,30.298,587.568,7.002,7.577
1260,0.642,36.245,22.434,42.265,30.297,566.037,6.919,7.575
1261,0.646,36.168,22.43,42.341,30.294,540.125,6.919,7.535
1262,0.652,36.263,22.418,42.275,30.283,519.658,6.878,7.534
1263,0.655,36.408,22.465,42.265,30.29,525.024,6.877,7.412
1264,0.646,36.007,22.492,42.294,30.308,559.315,7.0,7.574
1265,0.652,36.089,22.477,42.284,30.304,593.122,6.96,7.657
1266,0.649,36.243,22.492,42.275,30.304,615.619,7.0,7.658
1267,0.668,36.37,22.454,42.303,30.308,638.572,7.001,7.617
1268,0.646,36.054,22.418,42.313,30.315,658.196,7.123,7.779
1269,0.636,36.176,22.437,42.284,30.301,670.183,7.002,7.659
1270,0.639,36.311,22.484,42.284,30.304,672.66,6.919,7.617
1271,0.646,36.409,22.446,42.284,30.304,667.032,6.959,7.698
1272,0.626,35.93,22.441,42.284,30.304,660.144,7.0,7.699
1273,0.642,36.069,22.465,42.294,30.304,658.205,6.879,7.658
1274,0.642,36.224,22.473,42.313,30.311,652.209,7.0,7.739
1275,0.652,36.283,22.531,42.313,30.308,635.804,7.041,7.699
1276,0.662,35.996,22.524,42.304,30.304,615.879,6.92,7.658
1277,0.669,36.118,22.532,42.294,30.304,607.263,6.919,7.617
1278,0.662,36.282,22.431,42.323,30.311,602.258,6.959,7.698
1279,0.659,36.303,22.41,42.294,30.294,587.978,6.878,7.658
1280,0.672,35.91,22.464,42.284,30.297,566.57,6.715,7.576
1281,0.665,36.079,22.457,42.284,30.304,540.699,6.794,7.575
1282,0.665,36.167,22.371,42.284,30.294,519.989,6.795,7.535
1283,0.659,36.235,22.386,42.265,30.283,524.742,6.755,7.372
1284,0.675,35.996,22.441,42.284,30.308,558.783,6.876,7.573
1285,0.662,36.127,22.48,42.294,30.308,592.588,6.959,7.616
1286,0.656,36.253,22.485,42.303,30.301,614.76,6.96,7.617
1287,0.668,36.168,22.516,42.294,30.311,637.628,6.96,7.657
1288,0.659,35.909,22.45,42.332,30.318,657.332,7.163,7.739
1289,0.649,36.011,22.418,42.285,30.301,669.361,7.043,7.618
1290,0.652,36.137,22.429,42.294,30.301,671.838,7.001,7.617
1291,0.646,35.879,22.48,42.303,30.308,666.373,7.123,7.576
1292,0.633,35.963,22.442,42.284,30.308,659.406,7.165,7.698
1293,0.636,36.089,22.387,42.303,30.301,657.506,7.043,7.536
1294,0.646,36.224,22.433,42.304,30.308,651.877,7.204,7.697
1295,0.655,35.832,22.461,42.304,30.304,635.923,7.206,7.658
1296,0.662,35.953,22.484,42.304,30.301,616.124,7.165,7.617
1297,0.662,36.098,22.493,42.284,30.311,607.428,7.206,7.617
1298,0.672,36.196,22.512,42.313,30.322,602.504,7.287,7.779
1299,0.656,35.64,22.423,42.313,30.298,588.387,7.125,7.618
1300,0.652,35.759,22.441,42.284,30.294,566.939,7.083,7.535
1301,0.659,35.914,22.48,42.284,30.294,541.191,7.042,7.575
1302,0.656,35.973,22.477,42.275,30.301,520.278,7.082,7.454
1303,0.659,35.744,22.407,42.255,30.287,524.461,6.961,7.412
1304,0.675,35.923,22.402,42.341,30.311,557.845,7.082,7.533
1305,0.656,36.06,22.418,42.294,30.311,591.319,7.123,7.616
1306,0.652,36.109,22.437,42.313,30.304,613.609,7.083,7.617
1307,0.652,35.937,22.453,42.294,30.304,636.6,7.123,7.617
1308,0.655,36.108,22.465,42.323,30.318,656.265,7.205,7.698
1309,0.642,36.196,22.399,42.294,30.305,668.252,7.084,7.658
1310,0.649,36.225,22.425,42.294,30.301,670.973,7.164,7.617
1311,0.636,35.602,22.465,42.294,30.304,665.43,7.043,7.576
1312,0.642,35.749,22.512,42.303,30.311,658.217,7.082,7.698
1313,0.642,35.866,22.458,42.265,30.298,656.275,6.961,7.577
1314,0.646,36.011,22.391,42.313,30.308,650.523,7.122,7.657
1315,0.642,35.763,22.355,42.304,30.311,634.608,7.043,7.617
1316,0.659,35.904,22.448,42.361,30.304,614.525,7.082,7.657
1317,0.662,36.011,22.453,42.285,30.308,605.582,7.083,7.658
1318,0.665,35.571,22.453,42.313,30.318,600.777,7.205,7.698
1319,0.662,35.548,22.449,42.256,30.301,586.662,7.084,7.577
1320,0.669,35.711,22.418,42.293,30.304,565.418,7.042,7.575
1321,0.669,35.818,22.406,42.284,30.301,539.793,7.164,7.616
1322,0.675,35.406,22.468,42.275,30.297,518.841,7.084,7.576
1323,0.669,35.546,22.473,42.265,30.29,522.983,7.083,7.494
1324,0.672,35.711,22.449,42.284,30.308,556.163,7.408,7.616
1325,0.675,35.798,22.367,42.294,30.318,589.554,7.371,7.617
1326,0.685,35.445,22.351,42.284,30.305,611.802,7.492,7.576
1327,0.682,35.623,22.429,42.275,30.308,634.834,7.494,7.616
1328,0.675,35.769,22.449,42.322,30.318,654.865,7.697,7.779
1329,0.665,35.799,22.48,42.285,30.312,667.344,7.577,7.537
1330,0.678,35.368,22.418,42.284,30.301,670.436,7.575,7.534
1331,0.688,35.536,22.445,42.284,30.308,665.343,7.575,7.657
1332,0.685,35.672,22.422,42.284,30.308,658.42,7.698,7.658
1333,0.695,35.712,22.472,42.284,30.298,656.033,7.536,7.617
1334,0.701,35.329,22.477,42.294,30.318,649.667,7.738,7.698
1335,0.701,35.449,22.442,42.294,30.312,633.176,7.699,7.658
1336,0.727,35.585,22.414,42.284,30.308,612.803,7.699,7.576
1337,0.757,35.634,22.371,42.275,30.304,603.613,7.699,7.575
1338,0.777,35.405,22.437,42.303,30.322,598.603,7.861,7.738
1339,0.797,35.508,22.449,42.265,30.305,584.607,7.66,7.537
1340,0.81,35.633,22.453,42.265,30.301,563.324,7.576,7.494
1341,0.823,35.884,22.445,42.294,30.297,537.699,7.575,7.534
1342,0.839,35.263,22.418,42.265,30.301,516.991,7.535,7.534
1343,0.849,35.391,22.461,42.246,30.294,521.5,7.453,7.412
1344,0.879,35.546,22.484,42.284,30.311,555.091,7.615,7.574
1345,0.879,35.327,22.473,42.294,30.308,587.917,7.535,7.616
1346,0.882,35.382,22.438,42.284,30.298,609.631,7.575,7.657
1347,0.898,35.527,22.387,42.275,30.308,632.413,7.616,7.617
1348,0.892,35.672,22.421,42.294,30.318,652.523,7.698,7.779
1349,0.892,35.136,22.422,42.265,30.305,665.328,7.536,7.7
1350,0.902,35.246,22.476,42.274,30.304,668.83,7.494,7.658
1351,0.925,35.42,22.379,42.284,30.304,664.229,7.453,7.698
1352,0.912,35.517,22.425,42.275,30.318,657.677,7.452,7.78
1353,0.908,35.164,22.422,42.265,30.294,655.537,7.412,7.7
1354,0.931,35.352,22.476,42.284,30.311,649.418,7.452,7.74
1355,0.944,35.478,22.516,42.275,30.315,633.337,7.493,7.821
1356,0.948,35.566,22.493,42.274,30.315,613.089,7.494,7.7
1357,0.948,35.087,22.469,42.265,30.318,603.657,7.371,7.658
1358,0.961,35.294,22.36,42.313,30.325,598.4,7.533,7.739
1359,0.932,35.363,22.405,42.275,30.308,584.28,7.372,7.781
1360,0.935,35.431,22.437,42.255,30.304,562.832,7.289,7.618
1361,0.941,35.086,22.426,42.246,30.301,537.287,7.288,7.617
1362,0.935,35.236,22.383,42.274,30.297,516.417,7.288,7.576
1363,0.922,35.362,22.398,42.227,30.29,520.6,7.166,7.575
1364,0.938,35.431,22.421,42.264,30.315,553.741,7.206,7.616
1365,0.922,35.124,22.511,42.274,30.318,586.155,7.206,7.698
1366,0.912,35.256,22.516,42.274,30.305,607.052,7.247,7.699
1367,0.902,35.372,22.489,42.274,30.311,629.297,7.166,7.78
1368,0.895,35.747,22.438,42.294,30.322,649.158,7.287,7.781
1369,0.863,35.128,22.422,42.275,30.315,662.245,7.207,7.862
1370,0.843,35.256,22.449,42.255,30.308,665.75,7.165,7.782
1371,0.83,35.372,22.477,42.265,30.304,661.23,7.206,7.822
1372,0.82,35.095,22.387,42.274,30.311,654.801,7.247,7.863
1373,0.836,35.083,22.39,42.255,30.308,652.663,7.247,7.944
1374,0.849,35.246,22.433,42.265,30.308,646.218,7.206,7.783
1375,0.849,35.353,22.469,42.274,30.311,630.052,7.328,7.944
1376,0.846,34.942,22.453,42.246,30.308,609.6,7.37,7.945
1377,0.833,35.062,22.48,42.265,30.311,600.288,7.452,7.864
1378,0.846,35.188,22.461,42.265,30.311,595.154,7.33,7.863
1379,0.836,35.314,22.438,42.303,30.318,581.564,7.451,7.944
1380,0.81,34.979,22.414,42.256,30.305,560.407,7.412,7.742
1381,0.807,35.129,22.468,42.246,30.301,534.945,7.371,7.699
1382,0.813,35.284,22.418,42.236,30.297,514.076,7.33,7.74
1383,0.8,35.353,22.363,42.245,30.301,518.625,7.37,7.74
1384,0.787,34.846,22.413,42.226,30.301,551.729,7.289,7.577
1385,0.764,35.042,22.425,42.264,30.315,584.711,7.532,7.779
1386,0.748,35.159,22.437,42.265,30.305,606.428,7.494,7.822
1387,0.757,35.227,22.453,42.265,30.315,629.413,7.534,7.741
1388,0.744,35.055,22.492,42.265,30.311,649.728,7.534,7.781
1389,0.747,35.236,22.411,42.294,30.325,663.348,7.697,7.862
1390,0.728,35.324,22.437,42.265,30.315,667.225,7.536,7.822
1391,0.721,35.373,22.457,42.246,30.311,662.871,7.494,7.659
1392,0.708,34.875,22.477,42.245,30.308,656.484,7.534,7.739
1393,0.695,35.033,22.457,42.255,30.315,654.468,7.575,7.821
1394,0.672,35.13,22.383,42.236,30.305,648.025,7.413,7.741
1395,0.662,35.169,22.281,42.293,30.311,632.062,7.533,7.821
1396,0.656,35.486,22.366,42.256,30.311,611.532,7.534,7.822
1397,0.655,35.614,22.405,42.255,30.308,601.69,7.494,7.781
1398,0.665,35.73,22.437,42.265,30.318,596.225,7.453,7.7
1399,0.669,34.859,22.445,42.274,30.322,582.55,7.574,7.861
1400,0.662,34.591,22.43,42.246,30.308,561.23,7.413,7.7
1401,0.665,34.752,22.402,42.226,30.298,535.767,7.452,7.618
1402,0.659,34.84,22.46,42.217,30.29,514.695,7.412,7.617
1403,0.652,34.812,22.461,42.226,30.301,518.591,7.452,7.657
1404,0.652,34.946,22.426,42.197,30.297,551.362,7.33,7.658
1405,0.642,35.11,22.383,42.245,30.301,584.748,7.451,7.658
1406,0.626,35.217,22.312,42.255,30.304,606.428,7.534,7.698
1407,0.632,34.662,22.409,42.246,30.315,629.372,7.494,7.699
1408,0.613,34.791,22.402,42.255,30.308,649.728,7.534,7.74
1409,0.629,34.984,22.488,42.265,30.318,663.308,7.494,7.821
1410,0.619,35.015,22.383,42.236,30.315,667.346,7.494,7.822
1411,0.61,34.852,22.417,42.236,30.308,662.995,7.371,7.741
1412,0.593,35.004,22.453,42.245,30.304,656.445,7.37,7.781
1413,0.603,35.139,22.48,42.226,30.318,654.387,7.411,7.822
1414,0.593,35.179,22.485,42.207,30.308,647.942,7.33,7.781
1415,0.6,34.71,22.438,42.245,30.294,632.102,7.37,7.74
1416,0.616,34.868,22.433,42.245,30.308,611.613,7.37,7.821
1417,0.619,34.994,22.363,42.255,30.311,601.69,7.289,7.822
1418,0.616,35.043,22.409,42.226,30.315,596.347,7.329,7.822
1419,0.623,34.91,22.464,42.264,30.329,582.796,7.37,7.822
1420,0.61,35.004,22.438,42.217,30.312,561.639,7.33,7.822
1421,0.616,35.12,22.363,42.197,30.301,536.137,7.167,7.7
1422,0.629,35.16,22.386,42.207,30.304,514.983,7.206,7.699
1423,0.626,34.796,22.433,42.207,30.304,518.512,7.206,7.74
1424,0.626,34.907,22.453,42.178,30.297,551.118,7.043,7.618
1425,0.616,35.062,22.461,42.226,30.311,584.543,7.164,7.82
1426,0.61,34.852,22.414,42.217,30.311,605.897,7.165,7.863
1427,0.609,34.821,22.379,42.226,30.318,628.594,7.165,7.863
1428,0.6,34.965,22.359,42.226,30.312,648.907,7.246,7.904
1429,0.613,35.101,22.437,42.264,30.325,662.69,7.288,8.067
1430,0.587,34.776,22.488,42.188,30.312,666.771,7.125,7.865
1431,0.593,34.897,22.391,42.207,30.308,662.704,7.165,7.863
1432,0.587,35.042,22.414,42.235,30.308,656.239,7.165,7.944
1433,0.596,35.149,22.41,42.226,30.318,654.1,7.165,7.986
1434,0.593,34.575,22.445,42.207,30.301,647.94,7.043,7.824
1435,0.593,34.751,22.461,42.226,30.311,632.224,7.082,7.903
1436,0.593,34.878,22.473,42.207,30.311,611.696,7.083,7.945
1437,0.59,34.946,22.434,42.216,30.315,601.651,7.083,7.823
1438,0.603,34.64,22.336,42.207,30.315,596.225,7.123,7.903
1439,0.616,34.81,22.401,42.255,30.325,582.957,7.165,7.985
1440,0.593,34.927,22.453,42.188,30.312,561.884,7.002,7.864
1441,0.596,34.976,22.453,42.197,30.298,536.505,6.96,7.822
1442,0.619,34.621,22.352,42.207,30.304,515.068,6.96,7.781
1443,0.616,34.771,22.405,42.178,30.304,517.822,7.041,7.781
1444,0.61,34.878,22.39,42.178,30.301,549.85,6.92,7.781
1445,0.622,34.985,22.468,42.197,30.318,582.985,7.081,7.781
1446,0.616,34.679,22.457,42.207,30.312,604.825,7.123,7.944
1447,0.613,34.839,22.484,42.197,30.315,627.77,7.124,7.986
1448,0.597,34.965,22.383,42.197,30.311,648.207,7.124,7.946
1449,0.622,35.034,22.41,42.235,30.332,662.317,7.246,8.026
1450,0.59,34.737,22.402,42.197,30.319,666.848,7.166,7.946
1451,0.593,34.868,22.453,42.178,30.308,662.908,7.084,7.945
1452,0.587,34.994,22.399,42.187,30.315,656.525,7.123,7.905
1453,0.583,34.861,22.398,42.264,30.311,654.306,7.205,7.985
1454,0.577,34.735,22.394,42.188,30.315,647.82,7.125,7.986
1455,0.59,34.897,22.441,42.197,30.305,631.694,7.083,7.824
1456,0.603,35.004,22.461,42.207,30.315,610.959,7.083,7.903
1457,0.606,34.612,22.481,42.188,30.318,600.464,7.123,7.945
1458,0.613,34.685,22.457,42.197,30.312,595.115,7.124,7.945
1459,0.626,34.877,22.414,42.197,30.308,581.645,7.124,7.945
1460,0.606,34.946,22.383,42.187,30.315,560.895,7.165,7.986
1461,0.606,34.554,22.452,42.168,30.298,535.357,7.043,7.783
1462,0.616,34.703,22.414,42.149,30.297,513.918,7.001,7.781
1463,0.606,34.858,22.328,42.168,30.304,516.672,7.041,7.862
1464,0.603,34.937,22.37,42.149,30.311,548.822,7.123,7.782
1465,0.616,34.544,22.39,42.168,30.308,581.064,7.124,7.781
1466,0.616,34.694,22.425,42.197,30.318,602.163,7.327,7.944
1467,0.606,34.829,22.433,42.178,30.318,624.735,7.329,8.026
1468,0.603,34.917,22.461,42.187,30.318,645.25,7.289,8.068
1469,0.606,34.669,22.371,42.187,30.308,659.441,7.329,7.987
1470,0.613,34.82,22.394,42.207,30.329,664.38,7.492,8.19
1471,0.603,34.917,22.437,42.168,30.305,660.647,7.331,8.07
1472,0.593,34.985,22.461,42.158,30.304,654.47,7.248,8.069
1473,0.603,34.593,22.445,42.178,30.318,652.415,7.328,8.109
1474,0.593,34.761,22.356,42.178,30.315,645.971,7.41,8.109
1475,0.609,34.859,22.401,42.168,30.305,629.643,7.208,7.947
1476,0.642,34.908,22.406,42.168,30.311,608.864,7.369,8.067
1477,0.672,35.215,22.394,42.168,30.318,598.288,7.33,8.028
1478,0.708,35.391,22.445,42.168,30.318,592.654,7.37,7.987
1479,0.741,35.469,22.441,42.149,30.312,579.018,7.33,8.027
1480,0.777,34.914,22.422,42.273,30.318,558.348,7.532,8.068
1481,0.767,34.247,22.386,42.159,30.315,533.014,7.372,7.987
1482,0.783,34.413,22.456,42.13,30.305,511.577,7.37,7.864
1483,0.813,34.52,22.43,42.139,30.304,514.738,7.411,7.944
1484,0.842,34.646,22.414,42.129,30.315,546.933,7.452,7.945
1485,0.862,34.752,22.375,42.139,30.305,579.093,7.452,7.905
1486,0.911,34.926,22.32,42.149,30.308,599.785,7.656,8.067
1487,0.931,35.024,22.378,42.158,30.318,622.515,7.698,8.069
1488,0.97,34.372,22.335,42.158,30.318,643.235,7.699,8.069
1489,0.997,34.51,22.429,42.158,30.318,657.673,7.74,8.028
1490,1.039,34.674,22.394,42.187,30.329,663.021,7.984,8.271
1491,1.069,34.733,22.394,42.149,30.312,659.658,7.864,8.233
1492,1.095,34.523,22.402,42.139,30.311,653.565,7.782,8.111
1493,1.125,34.693,22.437,42.139,30.311,651.349,7.862,8.191
1494,1.181,34.82,22.473,42.158,30.315,644.863,7.944,8.273
1495,1.217,34.869,22.449,42.12,30.301,628.493,7.823,8.193
1496,1.263,34.428,22.418,42.148,30.318,607.592,7.944,8.354
1497,1.27,34.597,22.347,42.139,30.322,596.771,7.864,8.275
1498,1.312,34.733,22.382,42.149,30.312,591.012,7.863,8.233
1499,1.322,34.772,22.406,42.149,30.308,577.457,7.944,8.273
1500,1.313,34.514,22.449,42.168,30.325,556.828,7.986,8.355
1501,1.28,34.626,22.313,42.139,30.305,531.616,7.824,8.275
1502,1.244,34.752,22.393,42.12,30.297,510.18,7.741,8.152
1503,1.198,34.782,22.41,42.11,30.304,513.138,7.781,8.191
1504,1.149,34.437,22.453,42.12,30.318,544.518,7.74,8.192
1505,1.145,34.558,22.457,42.091,30.308,576.792,7.699,8.273
1506,1.135,34.723,22.461,42.129,30.311,597.891,7.74,8.518
1507,1.093,34.763,22.41,42.12,30.318,621.033,7.74,8.642
1508,0.995,34.677,22.34,42.158,30.318,642.163,7.74,8.806
1509,0.903,34.791,22.405,42.139,30.315,656.971,7.699,8.848
1510,0.834,34.936,22.488,42.168,30.332,662.648,7.699,8.971
1511,0.719,34.669,22.411,42.111,30.319,659.532,7.618,9.135
1512,0.614,34.752,22.382,42.139,30.318,653.605,7.535,9.055
1513,0.502,34.916,22.374,42.129,30.315,651.309,7.534,9.095
1514,0.384,35.023,22.406,42.139,30.311,644.659,7.453,9.176
1515,0.269,34.353,22.402,42.091,30.301,628.288,7.412,9.177
1516,0.183,34.49,22.453,42.119,30.311,607.143,7.452,9.218
1517,0.098,34.626,22.445,42.12,30.318,596.238,7.452,9.34
1518,0.032,34.723,22.34,42.11,30.315,590.641,7.534,9.301
1519,-0.057,34.36,22.382,42.11,30.315,577.046,7.412,9.382
1520,-0.136,34.538,22.437,42.139,30.329,556.499,7.493,9.423
1521,-0.192,34.617,22.445,42.081,30.305,531.328,7.453,9.424
1522,-0.205,34.714,22.301,42.09,30.304,509.893,7.29,9.342
1523,-0.196,34.427,22.385,42.1,30.301,512.606,7.288,9.342
1524,-0.153,34.606,22.398,42.091,30.318,544.472,7.329,9.464
1525,-0.117,34.694,22.433,42.091,30.305,576.71,7.289,9.424
1526,-0.084,34.81,22.445,42.11,30.311,597.484,7.369,9.424
1527,-0.028,34.457,22.469,42.1,30.315,620.826,7.411,9.546
1528,0.001,34.587,22.399,42.129,30.318,642.039,7.33,9.547
1529,0.05,34.732,22.406,42.11,30.318,656.97,7.41,9.669
1530,0.123,34.82,22.441,42.129,30.325,662.729,7.452,9.751
1531,0.162,34.533,22.476,42.11,30.312,659.858,7.452,10.037
1532,0.198,34.665,22.383,42.091,30.308,653.811,7.29,10.04
1533,0.248,34.8,22.347,42.119,30.318,651.514,7.369,10.08
1534,0.323,34.955,22.39,42.11,30.315,645.068,7.33,10.325
1535,0.389,34.487,22.402,42.091,30.305,628.861,7.329,10.408
1536,0.467,34.655,22.437,42.119,30.311,607.596,7.289,10.572
1537,0.517,34.781,22.418,42.1,30.315,596.405,7.329,10.696
1538,0.566,34.408,22.41,42.11,30.322,590.439,7.329,10.819
1539,0.606,34.453,22.258,42.11,30.315,576.8,7.289,10.779
1540,0.655,34.645,22.361,42.12,30.322,556.09,7.247,10.82
1541,0.659,34.704,22.413,42.1,30.312,531.121,7.369,11.105
1542,0.669,34.657,22.394,42.072,30.301,509.444,7.086,10.904
1543,0.688,34.819,22.332,42.062,30.301,511.87,7.164,10.983
1544,0.698,34.936,22.366,42.081,30.322,543.123,7.206,11.025
1545,0.688,35.024,22.366,42.071,30.305,574.908,7.165,11.066
1546,0.692,34.238,22.409,42.09,30.304,595.189,7.084,11.107
1547,0.705,34.384,22.445,42.11,30.325,617.956,7.123,11.23
1548,0.692,34.51,22.508,42.11,30.319,639.042,7.165,11.271
1549,0.695,34.588,22.368,42.12,30.322,654.134,7.165,11.272
1550,0.701,34.531,22.409,42.11,30.322,660.017,7.165,11.231
1551,0.682,34.636,22.421,42.12,30.322,657.351,7.246,11.353
1552,0.679,34.752,22.445,42.091,30.312,651.509,7.044,11.191
1553,0.688,34.811,22.398,42.091,30.318,649.133,7.042,11.108
1554,0.695,34.409,22.336,42.1,30.315,642.686,7.082,11.067
1555,0.682,34.548,22.386,42.167,30.318,626.764,7.002,11.066
1556,0.701,34.713,22.378,42.072,30.305,605.542,6.879,10.904
1557,0.701,34.772,22.406,42.09,30.318,594.433,7.0,10.983
1558,0.705,34.456,22.418,42.081,30.318,588.875,6.96,10.903
1559,0.715,34.597,22.437,42.081,30.318,575.646,6.96,10.861
1560,0.721,34.713,22.398,42.071,30.318,555.102,6.919,10.78
1561,0.728,35.089,22.382,42.1,30.322,530.339,6.959,10.82
1562,0.721,34.421,22.41,42.052,30.298,508.704,6.838,10.617
1563,0.728,34.549,22.414,42.042,30.308,510.643,6.877,10.452
1564,0.728,34.684,22.359,42.071,30.318,541.809,6.877,10.491
1565,0.725,34.475,22.284,42.071,30.318,573.878,6.959,10.451
1566,0.718,34.492,22.346,42.071,30.298,594.772,6.919,10.328
1567,0.724,34.655,22.343,42.09,30.318,617.83,7.0,10.449
1568,0.728,34.781,22.405,42.081,30.315,639.285,7.082,10.41
1569,0.721,34.428,22.433,42.071,30.322,654.706,7.123,10.409
1570,0.708,34.558,22.348,42.081,30.318,660.714,7.043,10.328
1571,0.721,34.742,22.394,42.119,30.325,658.537,7.204,10.286
1572,0.721,34.792,22.406,42.062,30.315,652.619,7.084,10.327
1573,0.702,34.485,22.457,42.071,30.315,650.364,7.002,10.083
1574,0.695,34.635,22.43,42.062,30.322,644.365,7.001,10.081
1575,0.711,34.781,22.402,42.062,30.308,628.773,7.001,10.04
1576,0.705,34.821,22.328,42.033,30.301,607.473,7.001,9.877
1577,0.718,34.351,22.35,42.061,30.311,596.038,7.041,9.916
1578,0.728,34.529,22.347,42.081,30.318,590.598,7.042,9.835
1579,0.731,34.636,22.382,42.071,30.312,577.534,7.042,9.834
1580,0.738,34.695,22.398,42.062,30.318,556.951,7.042,9.753
1581,0.76,34.427,22.363,42.071,30.308,532.105,6.879,9.59
1582,0.761,34.568,22.394,42.071,30.315,510.389,7.121,9.71
1583,0.754,34.656,22.394,42.033,30.301,511.148,6.88,9.467
1584,0.761,34.714,22.425,42.032,30.315,542.018,6.877,9.383
1585,0.741,34.456,22.426,42.042,30.308,575.019,6.796,9.464
1586,0.734,34.587,22.383,42.052,30.294,596.369,6.877,9.424
1587,0.741,34.732,22.339,42.042,30.304,619.31,6.796,9.342
1588,0.725,34.887,22.405,42.071,30.308,641.17,6.877,9.423
1589,0.721,34.496,22.406,42.052,30.318,656.636,6.918,9.424
1590,0.721,34.616,22.441,42.061,30.308,662.767,6.919,9.383
1591,0.731,34.752,22.375,42.052,30.322,660.306,6.959,9.382
1592,0.715,34.514,22.37,42.081,30.322,654.426,6.96,9.545
1593,0.715,34.482,22.39,42.033,30.318,652.13,6.878,9.344
1594,0.721,34.626,22.421,42.042,30.318,646.171,6.877,9.26
1595,0.734,34.733,22.465,42.033,30.312,630.865,6.837,9.178
1596,0.738,34.37,22.453,42.032,30.311,609.568,6.837,9.259
1597,0.741,34.462,22.422,42.023,30.304,597.604,6.755,9.097
1598,0.76,34.635,22.383,42.071,30.315,592.159,6.917,9.258
1599,0.757,34.723,22.398,42.042,30.315,579.216,6.837,9.178
1600,0.761,34.369,22.449,42.033,30.325,558.838,6.837,9.096
1601,0.764,34.529,22.398,42.032,30.312,533.954,6.877,9.095
1602,0.787,34.674,22.25,42.061,30.325,511.708,6.918,9.136
1603,0.774,34.753,22.35,42.014,30.308,511.811,6.878,9.055
1604,0.777,34.331,22.382,42.023,30.315,542.227,6.837,8.891
1605,0.777,34.49,22.398,42.023,30.315,575.265,6.837,8.93
1606,0.777,34.636,22.402,42.032,30.305,596.25,6.918,8.972
1607,0.767,34.666,22.398,42.004,30.308,618.821,6.837,8.931
1608,0.774,34.503,22.367,42.042,30.315,640.271,6.999,8.972
1609,0.777,34.655,22.37,42.033,30.318,655.57,7.041,9.053
1610,0.774,34.791,22.386,42.042,30.318,661.739,7.042,9.054
1611,0.774,34.802,22.441,42.033,30.318,659.198,7.001,9.095
1612,0.777,34.428,22.359,42.08,30.329,653.073,7.082,9.176
1613,0.761,34.529,22.37,42.062,30.322,650.856,7.042,9.177
1614,0.767,34.665,22.37,42.042,30.322,645.102,6.92,9.055
1615,0.783,34.676,22.374,42.033,30.308,630.081,6.919,8.973
1616,0.79,34.359,22.417,42.032,30.318,608.991,6.919,9.135
1617,0.774,34.49,22.398,42.004,30.312,597.151,6.919,9.014
1618,0.803,34.626,22.417,42.032,30.322,591.748,6.837,8.932
1619,0.82,34.531,22.363,42.032,30.315,579.171,6.999,9.053
1620,0.817,34.559,22.359,42.023,30.315,558.838,6.96,8.973
1621,0.82,34.684,22.425,42.013,30.308,533.995,6.878,8.891
1622,0.833,34.81,22.406,42.042,30.322,511.587,6.918,8.89
1623,0.826,34.313,22.328,42.023,30.312,511.526,6.919,8.89
1624,0.82,34.442,22.347,41.984,30.318,541.371,6.837,8.768
1625,0.826,34.578,22.39,42.003,30.315,574.036,6.918,8.848
1626,0.82,34.675,22.402,42.032,30.305,595.058,6.878,8.93
1627,0.82,34.254,22.402,41.985,30.311,617.508,6.959,9.012
1628,0.826,34.432,22.418,42.003,30.318,638.672,6.919,8.891
1629,0.826,34.568,22.359,42.013,30.322,654.171,7.041,9.052
1630,0.826,34.665,22.359,42.013,30.318,660.384,7.001,9.095
1631,0.826,34.359,22.405,42.004,30.318,658.168,7.082,9.136
1632,0.826,34.519,22.414,42.032,30.318,651.965,6.961,9.136
1633,0.817,34.655,22.383,42.032,30.329,649.707,7.122,9.258
1634,0.826,34.704,22.316,41.994,30.319,643.423,6.88,9.056
1635,0.833,34.369,22.319,42.042,30.308,627.95,6.959,9.013
1636,0.843,34.529,22.366,41.994,30.311,606.652,6.96,8.932
1637,0.836,34.655,22.382,41.984,30.308,594.566,7.0,8.931
1638,0.846,34.704,22.413,41.984,30.304,589.079,6.838,8.85
1639,0.846,34.331,22.429,41.994,30.311,576.827,6.999,8.93
1640,0.853,34.481,22.402,42.09,30.318,556.863,6.919,8.89
1641,0.853,34.588,22.355,41.985,30.312,532.105,6.919,8.849
1642,0.862,34.627,22.417,41.975,30.311,509.698,6.919,8.808
1643,0.882,34.301,22.41,42.003,30.318,509.677,7.0,8.889
1644,0.863,34.423,22.351,41.975,30.318,539.766,6.838,8.768
1645,0.869,34.539,22.276,41.965,30.312,572.272,6.877,8.807
1646,0.859,34.406,22.35,42.013,30.304,592.601,6.877,8.767
1647,0.856,34.328,22.366,41.975,30.318,615.044,6.959,8.929
1648,0.856,34.471,22.382,41.955,30.301,636.492,6.878,8.768
1649,0.866,34.607,22.441,41.984,30.325,652.401,6.959,8.929
1650,0.849,34.301,22.344,42.003,30.322,659.268,7.041,8.972
1651,0.846,34.413,22.374,41.994,30.318,657.303,7.042,9.053
1652,0.853,34.558,22.398,41.984,30.322,651.59,7.042,9.054
1653,0.872,34.665,22.449,42.013,30.332,649.459,7.001,9.013
1654,0.872,34.254,22.367,41.984,30.322,643.502,7.041,9.135
1655,0.876,34.393,22.339,41.955,30.298,628.073,6.92,8.933
1656,0.882,34.529,22.308,41.955,30.311,606.816,6.919,8.89
1657,0.895,34.626,22.221,41.984,30.315,594.568,6.959,8.89
1658,0.895,34.253,22.334,41.927,30.308,588.957,6.878,8.89
1659,0.908,34.413,22.421,41.964,30.318,576.216,7.0,8.687
1660,0.902,34.568,22.379,41.955,30.318,556.165,7.001,8.888
1661,0.899,34.627,22.355,41.955,30.318,531.528,6.96,8.849
1662,0.908,34.177,22.366,41.936,30.308,509.082,6.96,8.727
1663,0.931,34.345,22.417,41.945,30.308,508.98,6.919,8.726
1664,0.931,34.471,22.441,41.945,30.322,539.231,7.041,8.888
1665,0.922,34.511,22.371,41.945,30.312,571.413,6.96,8.687
1666,0.935,34.262,22.363,41.945,30.301,591.617,6.96,8.725
1667,0.938,34.413,22.327,41.955,30.322,613.895,6.96,8.766
1668,0.945,34.558,22.366,41.936,30.318,635.464,7.041,8.848
1669,0.941,34.598,22.386,41.945,30.312,651.252,6.92,8.767
1670,0.945,34.224,22.425,41.965,30.318,658.2,7.041,8.929
1671,0.941,34.374,22.324,41.965,30.325,656.52,7.082,9.012
1672,0.941,34.529,22.339,41.955,30.322,650.729,7.002,9.013
1673,0.954,34.368,22.397,41.955,30.329,648.678,7.041,9.013
1674,0.948,34.26,22.441,41.984,30.332,643.088,7.082,9.135
1675,0.941,34.346,22.461,41.946,30.312,627.947,6.961,8.933
1676,0.958,34.462,22.414,41.926,30.304,606.571,6.878,8.89
1677,0.968,34.165,22.379,41.955,30.308,594.118,6.877,8.89
1678,0.971,34.268,22.265,41.945,30.329,588.627,6.959,8.93
1679,0.987,34.413,22.322,41.907,30.312,575.969,6.797,8.728
1680,0.997,34.52,22.409,41.945,30.318,556.082,6.958,8.807
1681,1.0,34.099,22.351,41.936,30.322,531.609,6.919,8.808
1682,1.007,34.229,22.355,41.984,30.312,509.083,6.878,8.726
1683,1.023,34.374,22.335,41.927,30.304,508.044,6.837,8.685
1684,1.03,34.491,22.409,41.955,30.336,537.026,6.958,8.888
1685,1.02,34.041,22.382,41.926,30.312,568.463,6.756,8.768
1686,1.023,34.219,22.402,41.916,30.301,588.091,6.795,8.726
1687,1.036,34.345,22.398,41.926,30.318,609.875,6.836,8.848
1688,1.03,34.414,22.336,41.936,30.318,631.236,6.837,8.849
1689,1.02,34.05,22.347,41.897,30.312,647.022,6.796,8.849
1690,1.03,34.238,22.413,41.945,30.318,654.051,6.836,8.93
1691,1.04,34.374,22.418,41.936,30.322,652.494,6.877,8.931
1692,1.037,34.433,22.32,41.945,30.325,646.785,6.877,8.972
1693,1.043,34.079,22.382,41.936,30.322,644.613,6.796,9.013
1694,1.069,34.257,22.398,41.964,30.332,638.656,6.836,9.054
1695,1.066,34.346,22.375,41.926,30.319,623.593,6.918,9.054
1696,1.076,34.356,22.367,41.907,30.308,602.258,6.796,8.81
1697,1.076,34.126,22.402,41.897,30.311,589.724,6.795,8.808
1698,1.089,34.277,22.371,41.916,30.318,584.314,6.795,8.848
1699,1.096,34.384,22.331,41.907,30.312,572.023,6.755,8.727
1700,1.119,34.193,22.35,41.907,30.315,552.098,6.795,8.766
1701,1.125,33.866,22.386,41.916,30.315,527.869,6.877,8.767
1702,1.142,34.006,22.355,41.897,30.311,505.63,6.837,8.645
1703,1.145,34.132,22.296,41.907,30.308,505.205,6.755,8.644
1704,1.168,33.999,22.362,41.916,30.322,534.314,6.795,8.603
1705,1.165,34.084,22.355,41.926,30.329,566.118,6.917,8.806
1706,1.155,34.21,22.39,41.897,30.308,585.79,6.796,8.645
1707,1.165,34.326,22.378,41.907,30.318,607.982,6.714,8.603
1708,1.168,34.011,22.374,41.907,30.312,629.916,6.835,8.684
1709,1.168,34.151,22.296,41.916,30.325,646.48,6.837,8.684
1710,1.171,34.325,22.35,41.888,30.312,653.679,6.755,8.644
1711,1.178,34.423,22.398,41.916,30.318,652.734,6.876,8.806
1712,1.175,33.992,22.421,41.926,30.322,647.357,6.755,8.848
1713,1.194,34.132,22.363,41.916,30.322,645.026,6.795,8.849
1714,1.204,34.277,22.269,41.916,30.322,638.823,6.755,8.808
1715,1.211,34.365,22.369,41.936,30.325,623.432,6.917,8.93
1716,1.227,33.915,22.366,41.888,30.312,601.809,6.715,8.728
1717,1.224,34.064,22.398,41.878,30.308,588.907,6.672,8.685
1718,1.224,34.19,22.417,41.906,30.318,583.249,6.713,8.644
1719,1.224,34.249,22.379,41.887,30.308,570.833,6.713,8.725
1720,1.237,34.029,22.312,41.878,30.308,550.745,6.591,8.481
1721,1.24,34.19,22.319,41.916,30.318,526.636,6.712,8.764
1722,1.24,34.316,22.389,41.878,30.318,504.439,6.713,8.685
1723,1.253,34.365,22.363,41.887,30.318,503.973,6.632,8.684
1724,1.273,33.973,22.3,41.897,30.325,532.065,6.631,8.562
1725,1.273,34.132,22.354,41.945,30.329,563.25,6.753,8.724
1726,1.273,34.229,22.323,41.888,30.312,582.265,6.673,8.685
1727,1.27,34.307,22.362,41.878,30.318,604.044,6.591,8.644
1728,1.267,34.087,22.374,41.878,30.318,625.852,6.59,8.765
1729,1.28,34.248,22.433,41.887,30.322,642.414,6.59,8.767
1730,1.276,34.346,22.32,41.887,30.312,649.98,6.549,8.807
1731,1.283,33.992,22.358,41.897,30.322,649.2,6.671,8.848
1732,1.283,34.036,22.382,41.897,30.332,644.231,6.753,8.93
1733,1.286,34.18,22.402,41.897,30.322,642.067,6.714,8.931
1734,1.286,34.287,22.371,41.887,30.329,635.906,6.632,8.89
1735,1.299,34.097,22.32,41.926,30.325,620.638,6.712,8.849
1736,1.299,34.2,22.284,41.878,30.319,599.179,6.632,8.93
1737,1.299,34.335,22.319,41.868,30.308,586.238,6.468,8.768
1738,1.312,34.414,22.385,41.868,30.315,580.417,6.589,8.767
1739,1.326,33.935,22.41,41.858,30.318,567.959,6.549,8.767
1740,1.316,34.064,22.336,41.858,30.308,548.114,6.508,8.807
1741,1.326,34.229,22.339,41.877,30.311,524.007,6.467,8.604
1742,1.335,34.307,22.358,41.878,30.318,501.973,6.507,8.765
1743,1.336,34.183,22.378,41.858,30.312,501.793,6.427,8.726
1744,1.332,34.335,22.402,41.858,30.322,529.767,6.466,8.726
1745,1.332,34.481,22.355,41.868,30.318,561.194,6.426,8.685
1746,1.326,34.549,22.3,41.887,30.318,581.269,6.548,8.928
1747,1.313,34.08,22.245,41.868,30.315,603.505,6.427,8.768
1748,1.316,34.238,22.307,41.858,30.311,625.724,6.426,8.767
1749,1.309,34.365,22.378,41.887,30.322,642.657,6.466,8.767
1750,1.283,34.414,22.351,41.859,30.322,650.836,6.589,8.889
1751,1.28,34.386,22.206,41.887,30.315,649.941,6.387,8.727
1752,1.276,34.548,22.318,41.887,30.322,645.052,6.466,8.929
1753,1.263,34.655,22.385,41.887,30.322,643.051,6.589,8.931
1754,1.26,34.829,22.425,41.878,30.325,636.892,6.549,8.85
1755,1.26,34.342,22.394,41.878,30.322,621.705,6.508,8.808
1756,1.257,34.481,22.39,41.906,30.332,600.531,6.63,8.93
1757,1.234,34.559,22.296,41.859,30.308,587.43,6.468,8.85
1758,1.234,34.569,22.35,41.839,30.322,581.445,6.426,8.646
1759,1.214,34.684,22.335,41.858,30.312,569.107,6.466,8.684
1760,1.204,34.801,22.405,41.849,30.322,549.304,6.467,8.684
1761,1.185,34.898,22.32,41.82,30.305,524.995,6.304,8.603
1762,1.188,34.611,22.339,41.839,30.315,502.959,6.506,8.643
1763,1.165,34.733,22.339,41.848,30.315,502.332,6.508,8.725
1764,1.168,34.868,22.397,41.849,30.318,530.301,6.467,8.726
1765,1.148,34.975,22.398,41.858,30.318,561.606,6.467,8.726
1766,1.135,34.756,22.386,41.887,30.322,581.476,6.629,8.848
1767,1.106,34.84,22.355,41.839,30.322,603.507,6.55,8.767
1768,1.102,34.994,22.28,41.858,30.322,625.521,6.427,8.685
1769,1.083,35.072,22.315,41.858,30.322,642.533,6.507,8.807
1770,1.073,35.476,22.389,41.858,30.325,650.631,6.549,8.767
1771,1.05,35.595,22.32,41.83,30.315,649.736,6.468,8.807
1772,1.037,35.769,22.327,41.877,30.318,644.725,6.548,8.767
1773,1.03,35.809,22.327,41.887,30.329,642.6,6.63,8.929
1774,1.017,34.965,22.37,41.868,30.329,636.521,6.55,8.931
1775,1.004,35.091,22.382,41.839,30.322,621.376,6.549,8.809
1776,0.997,35.217,22.39,41.848,30.322,599.918,6.508,8.808
1777,0.984,35.247,22.406,41.868,30.329,586.652,6.63,8.848
1778,0.971,35.381,22.34,41.849,30.319,580.705,6.509,8.686
1779,0.964,35.546,22.327,41.829,30.312,568.409,6.467,8.725
1780,0.961,35.663,22.343,41.848,30.318,548.728,6.467,8.685
1781,0.948,35.98,22.397,41.82,30.305,524.705,6.507,8.644
1782,0.945,35.398,22.304,41.82,30.308,502.264,6.345,8.521
1783,0.945,35.565,22.342,41.877,30.315,501.268,6.466,8.683
1784,0.935,35.672,22.339,41.839,30.325,529.233,6.507,8.684
1785,0.925,35.654,22.362,41.848,30.322,560.782,6.549,8.684
1786,0.909,35.731,22.398,41.839,30.315,581.102,6.468,8.725
1787,0.908,35.875,22.402,41.858,30.332,603.666,6.751,8.848
1788,0.886,35.954,22.402,41.839,30.319,625.807,6.551,8.605
1789,0.885,35.705,22.254,41.829,30.318,642.821,6.63,8.602
1790,0.866,35.846,22.322,41.829,30.322,651.122,6.672,8.602
1791,0.846,35.972,22.409,41.848,30.322,650.554,6.753,8.643
1792,0.823,36.031,22.375,41.829,30.305,645.099,6.673,8.562
1793,0.839,35.955,22.335,41.858,30.325,643.377,6.916,8.643
1794,0.826,36.137,22.257,41.868,30.325,637.668,6.837,8.684
1795,0.817,36.225,22.303,41.83,30.325,623.054,6.877,8.603
1796,0.823,36.283,22.335,41.82,30.319,601.805,6.877,8.602
1797,0.836,36.044,22.366,41.858,30.336,588.337,7.0,8.643
1798,0.823,36.128,22.363,41.82,30.322,582.349,6.96,8.481
1799,0.82,36.263,22.339,41.81,30.312,570.133,6.878,8.398
1800,0.807,36.36,22.312,41.839,30.322,550.575,6.959,8.438
1801,0.807,36.284,22.296,41.829,30.315,526.634,6.878,8.397
1802,0.81,36.389,22.377,41.781,30.301,503.87,6.715,8.275
1803,0.807,36.553,22.355,41.819,30.318,501.853,6.876,8.436
1804,0.813,36.574,22.3,41.82,30.329,528.751,6.918,8.479
1805,0.803,36.229,22.233,41.848,30.322,560.452,6.959,8.438
1806,0.794,36.389,22.326,41.858,30.318,581.261,6.919,8.479
1807,0.793,36.544,22.354,41.868,30.336,603.79,7.081,8.601
1808,0.764,36.478,22.359,41.81,30.322,625.93,6.961,8.643
1809,0.761,36.458,22.413,41.8,30.318,642.944,6.919,8.44
1810,0.774,36.611,22.304,41.829,30.315,651.286,6.959,8.519
1811,0.771,36.728,22.327,41.82,30.325,650.799,7.0,8.52
1812,0.761,36.499,22.323,41.8,30.312,645.305,6.919,8.479
1813,0.761,36.535,22.386,41.848,30.329,643.094,7.041,8.479
1814,0.744,36.67,22.367,41.829,30.329,637.258,7.001,8.56
1815,0.741,36.767,22.308,41.839,30.325,622.359,7.041,8.48
1816,0.741,36.509,22.284,41.81,30.319,600.945,6.879,8.479
1817,0.76,36.65,22.225,41.858,30.332,587.231,7.04,8.56
1818,0.754,36.748,22.318,41.801,30.322,581.484,7.042,8.561
1819,0.757,36.825,22.366,41.8,30.318,569.718,6.879,8.439
1820,0.754,36.452,22.343,41.81,30.318,550.327,6.918,8.438
1821,0.751,36.592,22.312,41.819,30.312,526.428,6.919,8.357
1822,0.741,36.699,22.311,41.762,30.304,503.501,6.837,8.356
1823,0.754,36.796,22.339,41.809,30.318,501.158,6.877,8.356
1824,0.761,36.567,22.378,41.8,30.329,528.378,7.0,8.478
1825,0.761,36.718,22.351,41.819,30.325,560.448,7.001,8.438
1826,0.744,36.844,22.327,41.829,30.319,581.424,7.041,8.438
1827,0.757,36.961,22.296,41.848,30.336,603.791,7.082,8.438
1828,0.735,36.741,22.331,41.82,30.319,626.418,7.123,8.519
1829,0.728,36.883,22.366,41.81,30.322,643.599,6.961,8.398
1830,0.738,36.99,22.405,41.81,30.315,652.309,7.0,8.397
1831,0.731,37.039,22.293,41.819,30.329,652.029,7.041,8.356
1832,0.705,36.723,22.319,41.8,30.315,646.74,7.001,8.356
1833,0.718,36.892,22.354,41.829,30.318,644.694,6.96,8.315
1834,0.728,37.009,22.39,41.829,30.336,639.226,7.041,8.396
1835,0.715,37.02,22.382,41.829,30.322,624.696,7.042,8.356
1836,0.715,36.723,22.37,41.839,30.322,603.326,6.96,8.275
1837,0.724,36.863,22.339,41.82,30.322,589.206,6.96,8.233
1838,0.724,36.98,22.233,41.839,30.332,583.577,7.0,8.355
1839,0.731,36.77,22.31,41.791,30.312,571.568,6.838,8.234
1840,0.734,36.758,22.342,41.791,30.311,552.175,6.837,8.111
1841,0.734,36.883,22.319,41.81,30.315,528.276,6.796,8.109
1842,0.725,36.97,22.304,41.858,30.311,505.106,6.795,8.109
1843,0.744,36.617,22.292,41.791,30.304,501.987,6.714,7.947
1844,0.754,36.738,22.331,41.81,30.329,528.386,6.835,8.026
1845,0.748,36.873,22.37,41.791,30.319,559.676,6.837,8.149
1846,0.738,36.961,22.366,41.819,30.315,579.505,6.796,8.11
1847,0.734,37.249,22.374,41.81,30.332,600.519,6.836,8.109
1848,0.721,37.406,22.296,41.848,30.336,622.523,6.918,8.232
1849,0.715,37.513,22.299,41.81,30.319,639.495,6.756,8.07
1850,0.715,37.6,22.342,41.781,30.322,647.999,6.673,7.987
1851,0.705,36.393,22.358,41.81,30.322,647.88,6.713,8.027
1852,0.715,36.534,22.292,41.81,30.318,642.714,6.672,8.027
1853,0.715,36.66,22.292,41.781,30.318,640.588,6.591,7.946
1854,0.708,36.738,22.354,41.819,30.336,635.322,6.712,7.945
1855,0.715,36.844,22.374,41.82,30.329,621.242,6.754,8.026
1856,0.721,36.999,22.382,41.82,30.322,600.039,6.673,7.946
1857,0.715,37.096,22.394,41.8,30.318,586.002,6.591,7.864
1858,0.734,37.174,22.375,41.848,30.336,580.455,6.753,7.863
1859,0.721,36.446,22.335,41.81,30.322,568.975,6.673,7.904
1860,0.721,36.592,22.28,41.8,30.315,549.75,6.509,7.701
1861,0.724,36.699,22.366,41.791,30.315,526.057,6.467,7.74
1862,0.747,36.739,22.327,41.771,30.318,503.173,6.507,7.659
1863,0.754,36.633,22.194,41.762,30.305,499.813,6.467,7.698
1864,0.754,36.795,22.318,41.781,30.329,526.494,6.589,7.74
1865,0.754,36.922,22.296,41.8,30.325,559.087,6.712,7.821
1866,0.748,36.702,22.346,41.791,30.319,580.8,6.713,7.781
1867,0.738,36.595,22.351,41.81,30.329,603.216,6.754,7.822
1868,0.764,36.776,22.358,41.848,30.339,626.047,6.836,7.822
1869,0.741,36.845,22.308,41.801,30.329,643.677,6.918,7.863
1870,0.728,36.462,22.319,41.8,30.322,652.472,6.796,7.741
1871,0.734,36.583,22.335,41.791,30.322,652.397,6.836,7.74
1872,0.738,36.699,22.401,41.81,30.322,646.947,6.918,7.781
1873,0.718,36.786,22.332,41.781,30.318,644.94,6.919,7.781
1874,0.728,36.48,22.253,41.81,30.318,639.838,6.959,7.74
1875,0.734,36.621,22.338,41.887,30.332,626.085,7.0,7.659
1876,0.747,36.747,22.3,41.801,30.319,604.804,7.001,7.78
1877,0.741,36.825,22.331,41.791,30.329,590.36,6.96,7.659
1878,0.728,36.299,22.327,41.8,30.322,584.605,6.96,7.658
1879,0.734,36.437,22.335,41.81,30.332,573.245,7.041,7.78
1880,0.744,36.554,22.276,41.791,30.319,553.859,6.92,7.537
1881,0.731,36.622,22.299,41.781,30.315,530.123,6.878,7.534
1882,0.744,36.613,22.354,41.752,30.318,506.669,6.837,7.575
1883,0.734,36.738,22.335,41.761,30.308,502.206,6.837,7.494
1884,0.751,36.883,22.311,41.771,30.329,527.697,6.755,7.412
1885,0.744,36.932,22.257,41.79,30.322,559.872,6.876,7.574
1886,0.751,36.204,22.256,41.791,30.315,580.727,6.877,7.657
1887,0.748,36.34,22.311,41.8,30.322,602.321,6.837,7.698
1888,0.757,36.486,22.288,41.791,30.329,624.492,6.877,7.618
1889,0.744,36.516,22.373,41.81,30.336,642.035,7.0,7.82
1890,0.731,36.238,22.292,41.762,30.322,650.708,6.838,7.578
1891,0.747,36.398,22.288,41.771,30.318,650.671,6.796,7.575
1892,0.744,36.515,22.303,41.79,30.322,645.181,6.795,7.616
1893,0.741,36.42,22.354,41.791,30.329,642.727,6.795,7.657
1894,0.751,36.304,22.351,41.781,30.319,637.092,6.714,7.495
1895,0.741,36.466,22.339,41.79,30.322,622.967,6.916,7.575
1896,0.747,36.535,22.319,41.781,30.325,601.561,6.796,7.575
1897,0.767,36.008,22.253,41.781,30.319,586.993,6.795,7.575
1898,0.761,36.089,22.326,41.781,30.325,581.319,6.795,7.454
1899,0.764,36.224,22.331,41.79,30.329,570.285,6.917,7.696
1900,0.744,36.293,22.358,41.762,30.312,551.187,6.756,7.414
1901,0.741,35.948,22.273,41.771,30.311,527.413,6.714,7.452
1902,0.751,36.117,22.291,41.762,30.318,504.162,6.754,7.371
1903,0.751,36.234,22.311,41.742,30.315,499.823,6.714,7.411
1904,0.757,36.331,22.346,41.752,30.322,525.152,6.754,7.33
1905,0.761,35.91,22.331,41.771,30.332,557.285,6.836,7.451
1906,0.757,36.059,22.311,41.781,30.319,577.733,6.837,7.493
1907,0.754,36.186,22.288,41.771,30.332,598.713,6.958,7.453
1908,0.764,36.292,22.331,41.829,30.322,620.878,6.919,7.452
1909,0.761,35.881,22.315,41.81,30.336,638.705,7.041,7.534
1910,0.731,35.992,22.366,41.772,30.322,647.788,6.879,7.372
1911,0.734,36.127,22.288,41.762,30.322,648.0,6.877,7.33
1912,0.747,36.205,22.311,41.781,30.318,643.081,6.877,7.41
1913,0.734,35.765,22.292,41.771,30.325,641.039,6.877,7.411
1914,0.721,35.914,22.334,41.762,30.319,635.693,6.796,7.289
1915,0.741,36.059,22.323,41.781,30.325,621.896,6.917,7.41
1916,0.754,36.061,22.327,41.781,30.329,600.574,6.919,7.452
1917,0.751,35.783,22.335,41.762,30.322,585.967,6.878,7.33
1918,0.761,35.924,22.253,41.761,30.325,580.129,6.837,7.37
1919,0.774,36.06,22.326,41.781,30.332,569.257,6.958,7.411
1920,0.774,35.85,22.335,41.742,30.319,550.079,6.756,7.249
1921,0.771,35.493,22.347,41.742,30.318,526.467,6.795,7.206
1922,0.764,35.662,22.273,41.752,30.322,503.136,6.755,7.206
1923,0.767,35.76,22.28,41.761,30.318,498.877,6.836,7.165
1924,0.77,35.607,22.327,41.723,30.315,523.435,6.714,7.084
1925,0.767,35.711,22.335,41.771,30.332,554.95,6.794,7.205
1926,0.757,35.856,22.366,41.762,30.319,575.758,6.836,7.206
1927,0.757,35.925,22.331,41.771,30.332,597.067,6.877,7.247
1928,0.77,35.35,22.288,41.752,30.322,619.52,6.877,7.206
1929,0.757,35.498,22.323,41.8,30.339,637.675,6.959,7.409
1930,0.738,35.585,22.296,41.781,30.322,646.924,6.878,7.208
1931,0.741,35.701,22.354,41.742,30.329,647.503,6.918,7.247
1932,0.738,35.242,22.312,41.771,30.319,642.588,6.919,7.288
1933,0.738,35.42,22.233,41.781,30.332,640.546,6.959,7.288
1934,0.734,35.556,22.279,41.733,30.319,635.119,6.878,7.085
1935,0.734,35.663,22.319,41.771,30.329,621.402,7.0,7.327
1936,0.738,35.194,22.335,41.762,30.319,600.041,6.96,7.207
1937,0.747,35.343,22.35,41.752,30.322,585.189,6.96,7.165
1938,0.754,35.469,22.339,41.733,30.332,579.268,6.96,7.124
1939,0.767,35.537,22.265,41.79,30.332,568.353,7.122,7.287
1940,0.761,35.241,22.276,41.733,30.315,549.094,6.921,7.207
1941,0.767,35.391,22.303,41.723,30.315,525.603,6.837,7.125
1942,0.748,35.498,22.335,41.723,30.315,502.355,6.837,7.205
1943,0.754,35.537,22.253,41.732,30.315,497.894,6.837,7.165
1944,0.754,35.068,22.279,41.723,30.318,522.572,6.796,6.962
1945,0.774,35.255,22.287,41.752,30.329,554.535,6.877,7.122
1946,0.754,35.382,22.319,41.761,30.319,575.591,6.918,7.165
1947,0.764,35.392,22.319,41.752,30.329,596.577,6.919,7.206
1948,0.751,34.971,22.35,41.752,30.322,619.149,6.878,7.206
1949,0.757,35.158,22.362,41.761,30.336,637.346,6.918,7.247
1950,0.731,35.237,22.3,41.742,30.332,647.002,6.878,7.206
1951,0.738,34.912,22.311,41.723,30.322,647.504,6.796,7.206
1952,0.728,34.975,22.342,41.742,30.325,642.629,6.836,7.165
1953,0.741,35.129,22.327,41.742,30.329,640.628,6.837,7.246
1954,0.715,35.208,22.237,41.723,30.329,635.607,6.755,7.206
1955,0.731,34.815,22.229,41.752,30.329,621.895,6.714,7.125
1956,0.738,34.955,22.264,41.771,30.332,600.899,6.794,7.287
1957,0.734,35.101,22.276,41.752,30.332,585.767,6.836,7.247
1958,0.734,35.179,22.307,41.733,30.326,579.802,6.796,7.206
1959,0.751,34.738,22.342,41.742,30.329,568.765,6.795,7.206
1960,0.748,34.916,22.241,41.761,30.336,550.195,6.836,7.328
1961,0.738,35.023,22.271,41.723,30.319,526.59,6.633,7.126
1962,0.744,35.111,22.307,41.713,30.315,503.137,6.631,7.043
1963,0.754,34.488,22.335,41.703,30.318,497.942,6.55,7.082
1964,0.748,34.645,22.308,41.713,30.325,522.369,6.59,7.083
1965,0.738,34.752,22.241,41.694,30.308,554.086,6.509,7.002
1966,0.734,34.859,22.264,41.742,30.318,575.749,6.589,7.204
1967,0.728,34.678,22.272,41.819,30.332,596.945,6.671,7.206
1968,0.725,34.82,22.311,41.724,30.329,619.641,6.631,7.165
1969,0.724,34.946,22.342,41.723,30.332,637.595,6.672,7.246
1970,0.721,35.005,22.331,41.761,30.343,647.533,6.794,7.288
1971,0.705,34.497,22.292,41.714,30.319,648.119,6.714,7.288
1972,0.695,34.626,22.284,41.732,30.318,643.001,6.551,7.166
1973,0.708,34.771,22.346,41.742,30.329,640.794,6.63,7.206
1974,0.702,35.012,22.347,41.742,30.329,635.812,6.59,7.247
1975,0.692,34.487,22.304,41.704,30.322,622.223,6.549,7.247
1976,0.708,34.674,22.272,41.723,30.322,601.147,6.59,7.166
1977,0.721,34.762,22.252,41.752,30.329,585.973,6.59,7.287
1978,0.721,34.408,22.276,41.742,30.325,580.089,6.549,7.247
1979,0.721,34.453,22.272,41.733,30.319,569.338,6.59,7.206
1980,0.724,34.587,22.346,41.732,30.325,550.648,6.549,7.206
1981,0.721,34.694,22.198,41.742,30.329,527.367,6.671,7.287
1982,0.721,34.283,22.248,41.723,30.312,503.633,6.55,7.207
1983,0.724,34.432,22.279,41.704,30.315,497.988,6.63,7.084
1984,0.728,34.578,22.323,41.713,30.325,521.922,6.712,7.083
1985,0.725,34.675,22.304,41.732,30.329,553.918,6.835,7.123
1986,0.728,34.244,22.311,41.713,30.312,575.301,6.714,7.002
1987,0.721,34.393,22.28,41.751,30.329,596.534,7.038,7.204
1988,0.721,34.548,22.256,41.733,30.322,619.23,7.123,7.206
1989,0.705,34.655,22.295,41.723,30.325,637.388,7.165,7.247
1990,0.711,34.35,22.311,41.723,30.329,647.287,7.206,7.206
1991,0.708,34.51,22.35,41.761,30.336,648.442,7.409,7.328
1992,0.689,34.617,22.245,41.733,30.322,643.126,7.208,7.248
1993,0.695,34.694,22.275,41.704,30.325,641.08,7.287,7.166
1994,0.701,34.206,22.311,41.732,30.332,636.222,7.369,7.206
1995,0.688,34.345,22.335,41.723,30.322,622.796,7.452,7.247
1996,0.698,34.462,22.343,41.713,30.312,601.437,7.371,7.084
1997,0.711,34.53,22.335,41.723,30.329,586.138,7.573,7.245
1998,0.715,34.272,22.3,41.723,30.329,580.172,7.535,7.166
1999,0.702,34.422,22.264,41.732,30.325,569.501,7.575,7.206
2000,0.718,34.568,22.291,41.723,30.325,550.772,7.535,7.165
2001,0.721,34.895,22.331,41.732,30.336,527.612,7.616,7.287
2002,0.724,34.333,22.261,41.685,30.319,503.798,7.413,7.166
2003,0.721,34.49,22.26,41.713,30.318,497.786,7.371,7.084
2004,0.728,34.597,22.268,41.684,30.325,521.229,7.492,7.164
2005,0.712,34.311,22.326,41.694,30.319,552.854,7.494,7.206
2006,0.705,34.337,22.292,41.703,30.308,573.989,7.371,7.084
2007,0.698,34.49,22.342,41.723,30.336,594.813,7.492,7.286
2008,0.682,34.597,22.335,41.742,30.329,617.424,7.534,7.369
2009,0.672,34.359,22.249,41.733,30.332,635.581,7.616,7.411
2010,0.682,34.49,22.248,41.742,30.329,645.642,7.576,7.33
2011,0.685,34.645,22.326,41.742,30.336,646.758,7.698,7.532
2012,0.669,34.714,22.354,41.704,30.326,641.768,7.496,7.412
2013,0.672,34.446,22.253,41.713,30.329,639.643,7.534,7.371
2014,0.672,34.645,22.291,41.742,30.329,634.622,7.494,7.37
2015,0.678,34.743,22.268,41.723,30.329,621.276,7.494,7.452
2016,0.685,34.792,22.28,41.694,30.312,599.958,7.331,7.371
2017,0.695,34.543,22.315,41.713,30.325,584.578,7.451,7.452
2018,0.692,34.684,22.346,41.703,30.336,578.53,7.493,7.452
2019,0.695,34.781,22.288,41.723,30.326,567.899,7.453,7.452
2020,0.695,34.849,22.272,41.694,30.332,549.292,7.412,7.493
2021,0.701,34.591,22.28,41.742,30.336,526.215,7.452,7.575
2022,0.698,34.694,22.315,41.685,30.319,502.483,7.33,7.454
2023,0.705,34.801,22.272,41.694,30.312,496.35,7.167,7.33
2024,0.702,34.878,22.229,41.694,30.329,519.466,7.206,7.37
2025,0.698,34.572,22.264,41.722,30.325,550.926,7.287,7.452
2026,0.698,34.703,22.252,41.694,30.305,572.058,7.207,7.452
2027,0.711,34.858,22.279,41.742,30.332,592.883,7.287,7.493
2028,0.702,34.889,22.299,41.742,30.326,615.697,7.329,7.575
2029,0.692,34.783,22.366,41.723,30.325,634.1,7.289,7.616
2030,0.685,34.926,22.261,41.732,30.332,644.489,7.369,7.657
2031,0.688,35.091,22.272,41.752,30.339,645.853,7.37,7.617
2032,0.675,34.872,22.319,41.733,30.333,641.108,7.33,7.779
2033,0.672,34.908,22.327,41.723,30.322,638.783,7.329,7.578
2034,0.669,35.023,22.288,41.723,30.329,633.637,7.248,7.657
2035,0.675,35.14,22.194,41.723,30.325,620.127,7.288,7.658
2036,0.665,34.709,22.189,41.704,30.315,598.767,7.329,7.617
2037,0.682,34.877,22.298,41.732,30.322,583.103,7.37,7.576
2038,0.688,35.033,22.303,41.713,30.329,577.051,7.411,7.616
2039,0.698,35.101,22.335,41.732,30.322,566.502,7.411,7.657
2040,0.695,34.92,22.257,41.713,30.325,547.977,7.33,7.658
2041,0.708,35.091,22.279,41.742,30.332,524.779,7.41,7.617
2042,0.715,35.188,22.264,41.713,30.322,501.249,7.411,7.698
2043,0.708,35.266,22.315,41.713,30.315,494.996,7.289,7.536
2044,0.708,35.046,22.288,41.694,30.325,517.338,7.329,7.534
2045,0.702,35.197,22.221,41.713,30.322,547.936,7.37,7.616
2046,0.685,35.295,22.185,41.703,30.315,568.735,7.411,7.657
2047,0.692,35.382,22.197,41.723,30.322,588.621,7.371,7.576
2048,0.714,35.009,22.248,41.732,30.329,611.304,7.533,7.657
2049,0.689,35.168,22.303,41.732,30.329,629.99,7.575,7.658
2050,0.688,35.275,22.319,41.723,30.332,640.667,7.575,7.617
2051,0.695,35.363,22.179,41.752,30.336,642.318,7.535,7.657
2052,0.685,35.373,22.271,41.771,30.339,638.145,7.697,7.78
2053,0.672,35.498,22.307,41.723,30.326,636.151,7.536,7.7
2054,0.678,35.605,22.335,41.704,30.322,631.334,7.494,7.658
2055,0.682,35.615,22.284,41.723,30.329,618.275,7.453,7.617
2056,0.688,35.347,22.272,41.723,30.322,597.448,7.452,7.576
2057,0.685,35.45,22.248,41.694,30.308,581.545,7.371,7.454
2058,0.695,35.604,22.178,41.751,30.329,575.45,7.492,7.615
2059,0.698,35.423,22.271,41.723,30.329,565.022,7.534,7.657
2060,0.692,35.374,22.303,41.723,30.325,546.702,7.534,7.617
2061,0.695,35.498,22.272,41.713,30.329,523.709,7.494,7.576
2062,0.705,35.643,22.268,41.742,30.332,500.303,7.616,7.616
2063,0.698,35.414,22.276,41.704,30.322,493.726,7.495,7.576
2064,0.711,35.517,22.284,41.684,30.322,515.577,7.453,7.535
2065,0.708,35.662,22.311,41.713,30.322,546.455,7.452,7.494
2066,0.698,35.779,22.323,41.723,30.318,567.379,7.493,7.534
2067,0.695,35.406,22.304,41.675,30.318,586.981,7.371,7.534
2068,0.698,35.594,22.249,41.732,30.332,609.458,7.452,7.616
2069,0.698,35.74,22.244,41.742,30.336,627.979,7.493,7.657
2070,0.695,35.808,22.275,41.723,30.336,638.451,7.494,7.658
2071,0.682,35.579,22.303,41.723,30.332,640.14,7.412,7.617
2072,0.675,35.768,22.272,41.752,30.332,635.847,7.493,7.739
2073,0.662,35.866,22.229,41.723,30.339,633.77,7.534,7.781
2074,0.669,35.944,22.24,41.704,30.322,628.627,7.331,7.659
2075,0.682,35.676,22.279,41.713,30.332,615.28,7.329,7.658
2076,0.688,35.827,22.307,41.713,30.322,594.206,7.289,7.698
2077,0.685,35.915,22.28,41.684,30.322,578.341,7.288,7.658
2078,0.692,35.992,22.342,41.703,30.322,572.124,7.207,7.658
2079,0.701,35.552,22.226,41.732,30.325,561.98,7.287,7.698
2080,0.698,35.691,22.244,41.723,30.332,543.744,7.207,7.618
