time,ecg,bvp,gsr,rsp,skt,emg_zygo,emg_coru,emg_trap
0,1.24,35.469,29.372,32.024,25.743,5.809,6.302,13.16
1,1.231,35.125,29.599,32.005,25.74,5.891,6.302,13.202
2,1.24,35.256,29.566,32.005,25.743,5.811,6.302,13.202
3,1.25,35.362,29.562,32.014,25.747,5.85,6.343,13.365
4,1.257,35.459,29.608,32.014,25.743,5.891,6.303,13.447
5,1.253,35.086,29.457,32.005,25.743,5.811,6.262,13.448
6,1.253,35.246,29.619,31.995,25.733,5.769,6.384,13.489
7,1.263,35.353,29.289,31.995,25.736,5.809,6.263,13.571
8,1.257,35.431,29.477,31.995,25.736,5.81,6.302,13.571
9,1.266,35.489,29.639,32.004,25.74,5.769,6.302,13.612
10,1.28,35.662,29.379,32.024,25.747,5.891,6.302,13.572
11,1.28,35.76,29.591,32.024,25.747,5.973,6.465,13.694
12,1.286,35.77,29.336,31.986,25.74,5.933,6.426,13.613
13,1.293,35.281,29.559,31.985,25.733,5.852,6.304,13.491
14,1.303,35.43,29.632,31.985,25.736,5.81,6.302,13.408
15,1.312,35.537,29.387,31.985,25.736,5.769,6.221,13.285
16,1.326,35.586,29.595,31.985,25.733,5.809,6.18,13.284
17,1.339,35.663,29.464,32.004,25.736,5.81,6.261,13.243
18,1.345,35.798,29.455,31.976,25.74,5.81,6.302,13.202
19,1.355,35.914,29.65,31.976,25.736,5.81,6.302,13.161
20,1.365,36.155,29.321,31.976,25.736,5.81,6.302,13.202
21,1.355,35.688,29.512,32.004,25.736,5.891,6.302,13.161
22,1.339,35.808,29.592,31.985,25.736,5.892,6.302,13.242
23,1.352,35.905,29.503,31.947,25.729,5.77,6.221,13.243
24,1.355,35.925,29.62,31.985,25.733,5.768,6.139,13.162
25,1.362,36.021,29.351,32.004,25.733,5.85,6.341,13.283
26,1.368,36.137,29.587,32.014,25.736,5.851,6.303,13.284
27,1.385,36.234,29.394,32.005,25.747,5.932,6.302,13.284
28,1.372,36.187,29.462,31.985,25.733,5.852,6.302,13.365
29,1.372,36.302,29.658,32.004,25.747,5.851,6.384,13.325
30,1.378,36.408,29.348,31.995,25.737,5.891,6.344,13.244
31,1.391,36.496,29.556,31.995,25.74,5.851,6.303,13.162
32,1.382,36.295,29.589,31.985,25.747,5.81,6.343,13.12
33,1.391,36.456,29.445,31.985,25.74,5.891,6.303,13.039
34,1.414,36.573,29.611,31.995,25.736,5.811,6.262,13.038
35,1.424,36.651,29.355,32.014,25.747,5.85,6.302,12.997
36,1.421,36.633,29.548,32.005,25.747,5.932,6.384,13.2
37,1.414,36.747,29.62,31.995,25.743,5.933,6.385,13.161
38,1.414,36.844,29.445,31.985,25.74,5.77,6.344,13.039
39,1.418,36.903,29.627,31.976,25.733,5.728,6.262,12.956
40,1.418,36.894,29.336,31.956,25.733,5.727,6.221,12.915
41,1.414,37.019,29.555,31.985,25.729,5.646,6.22,12.874
42,1.398,37.144,29.331,31.976,25.736,5.686,6.261,12.955
43,1.408,37.174,29.618,31.985,25.736,5.768,6.262,12.956
44,1.411,37.165,29.636,31.985,25.733,5.728,6.262,13.037
45,1.405,37.309,29.453,31.966,25.743,5.687,6.302,13.038
46,1.398,37.387,29.619,31.975,25.736,5.727,6.343,12.997
47,1.395,37.743,29.351,31.937,25.729,5.646,6.303,13.037
48,1.382,37.574,29.56,31.956,25.726,5.605,6.221,12.875
49,1.388,37.687,29.624,31.975,25.733,5.726,6.261,12.873
50,1.391,37.784,29.5,31.995,25.736,5.768,6.384,12.955
51,1.369,37.737,29.662,32.043,25.74,5.85,6.303,12.996
52,1.372,37.794,29.332,31.986,25.736,5.769,6.425,12.915
53,1.365,37.891,29.594,31.976,25.736,5.728,6.344,12.915
54,1.368,37.997,29.613,31.995,25.733,5.809,6.384,12.874
55,1.352,37.816,29.484,31.985,25.74,5.769,6.385,12.873
56,1.365,37.92,29.627,31.985,25.74,5.809,6.385,12.792
57,1.352,38.055,29.352,31.976,25.736,5.769,6.344,12.751
58,1.359,38.114,29.606,31.976,25.736,5.728,6.343,12.791
59,1.342,38.124,29.531,31.985,25.747,5.727,6.303,12.71
60,1.332,38.258,29.511,32.004,25.75,5.809,6.425,12.75
61,1.319,38.384,29.62,31.995,25.74,5.81,6.466,12.791
62,1.3,38.414,29.39,31.985,25.74,5.891,6.467,12.71
63,1.283,38.3,29.626,31.966,25.74,5.77,6.426,12.75
64,1.267,38.423,29.352,31.956,25.733,5.687,6.222,12.75
65,1.237,38.539,29.54,31.956,25.733,5.687,6.22,12.709
66,1.211,38.569,29.405,31.966,25.733,5.687,6.342,12.79
67,1.204,38.339,29.47,31.956,25.736,5.768,6.303,12.832
68,1.188,38.481,29.592,31.966,25.733,5.768,6.262,12.914
69,1.178,38.607,29.41,31.975,25.736,5.768,6.302,12.833
70,1.155,38.618,29.599,31.985,25.74,5.809,6.302,12.873
71,1.145,38.656,29.332,31.966,25.733,5.769,6.343,12.873
72,1.139,38.762,29.47,31.947,25.729,5.647,6.181,12.833
73,1.135,38.878,29.662,31.946,25.729,5.767,6.179,12.71
74,1.129,39.148,29.418,31.994,25.74,5.728,6.301,12.79
75,1.116,38.767,29.603,32.004,25.743,5.809,6.302,12.791
76,1.102,38.878,29.343,31.985,25.74,5.81,6.384,12.873
77,1.102,38.947,29.477,31.976,25.743,5.81,6.385,12.873
78,1.096,38.727,29.565,31.976,25.74,5.81,6.385,12.792
79,1.083,38.763,29.417,31.976,25.733,5.769,6.344,12.791
80,1.079,38.888,29.591,31.976,25.743,5.809,6.343,12.71
81,1.057,38.975,29.343,31.976,25.73,5.728,6.425,12.668
82,1.037,38.995,29.489,31.966,25.736,5.727,6.304,12.668
83,1.03,39.159,29.659,31.985,25.74,5.768,6.343,12.79
84,0.998,39.256,29.438,32.004,25.747,5.768,6.384,12.832
85,0.971,39.334,29.611,31.995,25.74,5.891,6.466,12.914
86,0.958,38.731,29.515,31.966,25.736,5.729,6.386,12.915
87,0.932,38.878,29.448,31.947,25.733,5.687,6.303,12.874
88,0.922,38.975,29.576,31.985,25.733,5.646,6.262,12.833
89,0.909,39.034,29.472,31.947,25.733,5.645,6.18,12.792
90,0.895,39.006,29.588,31.966,25.733,5.645,6.301,12.832
91,0.892,39.14,29.336,31.966,25.733,5.645,6.302,12.792
92,0.905,39.237,29.54,31.975,25.733,5.645,6.302,12.751
93,0.892,39.267,29.682,31.966,25.74,5.727,6.343,12.791
94,0.895,38.97,29.442,31.975,25.736,5.727,6.303,12.832
95,0.876,39.072,29.627,31.937,25.729,5.646,6.384,12.873
96,0.876,39.198,29.352,31.937,25.726,5.564,6.303,12.792
97,0.882,39.237,29.524,31.937,25.736,5.604,6.302,12.791
98,0.882,38.998,29.593,31.956,25.736,5.645,6.506,12.791
99,0.879,39.092,29.535,31.966,25.743,5.645,6.508,12.954
100,0.879,39.179,29.577,31.975,25.736,5.645,6.589,12.915
101,0.85,39.343,29.332,31.966,25.74,5.727,6.509,12.955
102,0.82,39.038,29.571,31.975,25.747,5.727,6.508,13.037
103,0.826,39.178,29.714,31.966,25.737,5.727,6.549,13.078
104,0.797,39.237,29.466,31.966,25.743,5.727,6.549,13.079
105,0.794,38.969,29.611,31.975,25.736,5.768,6.508,13.16
106,0.79,39.034,29.55,31.966,25.736,5.728,6.508,13.12
107,0.813,39.159,29.562,31.966,25.74,5.727,6.508,13.12
108,0.79,39.266,29.612,31.975,25.743,5.768,6.589,13.16
109,0.8,38.95,29.449,31.985,25.754,5.891,6.59,13.202
110,0.79,39.062,29.666,31.995,25.747,5.851,6.631,13.202
111,0.78,39.159,29.34,31.985,25.733,5.729,6.59,13.121
112,0.784,39.227,29.54,31.937,25.733,5.809,6.468,13.039
113,0.784,38.845,29.62,31.927,25.733,5.647,6.467,12.956
114,0.784,38.985,29.472,31.946,25.733,5.767,6.467,12.915
115,0.78,39.082,29.65,31.946,25.729,5.809,6.386,12.915
116,0.79,39.14,29.375,31.937,25.74,5.769,6.466,13.037
117,0.793,38.844,29.556,31.946,25.733,5.768,6.386,12.956
118,0.8,39.004,29.608,31.966,25.74,5.809,6.547,12.915
119,0.781,39.111,29.441,31.956,25.736,5.688,6.427,12.915
120,0.774,39.112,29.615,31.947,25.733,5.809,6.466,12.874
121,0.774,38.7,29.328,31.927,25.722,5.688,6.386,12.873
122,0.784,38.868,29.477,31.937,25.729,5.646,6.385,12.833
123,0.748,38.975,29.654,31.946,25.729,5.767,6.385,12.832
124,0.747,39.005,29.367,31.966,25.736,5.809,6.425,12.995
125,0.754,38.881,29.579,31.975,25.733,5.81,6.466,13.037
126,0.744,39.033,29.495,31.976,25.747,5.769,6.589,13.16
127,0.747,39.13,29.518,31.976,25.74,5.809,6.468,13.08
128,0.731,39.093,29.616,31.976,25.74,5.81,6.467,13.16
129,0.731,38.738,29.344,31.976,25.736,5.81,6.467,12.998
130,0.734,38.82,29.595,31.966,25.736,5.769,6.548,12.996
131,0.734,38.946,29.55,31.975,25.736,5.768,6.508,12.956
132,0.76,38.765,29.421,31.947,25.733,5.728,6.467,12.915
133,0.767,38.888,29.603,31.985,25.74,5.809,6.548,12.996
134,0.754,39.004,29.371,32.004,25.747,5.932,6.63,13.078
135,0.744,39.053,29.568,31.995,25.747,5.852,6.631,13.038
136,0.738,38.565,29.566,31.966,25.747,5.769,6.509,13.078
137,0.728,38.675,29.429,31.947,25.73,5.728,6.508,13.038
138,0.738,38.801,29.595,31.927,25.736,5.809,6.467,12.916
139,0.757,38.859,29.437,31.946,25.729,5.728,6.467,12.915
140,0.748,38.553,29.595,31.927,25.733,5.768,6.467,12.874
141,0.76,38.684,29.34,31.965,25.733,5.768,6.467,12.955
142,0.751,38.81,29.54,31.947,25.736,5.809,6.467,12.996
143,0.748,38.879,29.62,31.946,25.729,5.81,6.507,13.078
144,0.738,38.534,29.449,31.966,25.736,5.85,6.549,13.079
145,0.728,38.655,29.603,31.928,25.736,5.769,6.508,13.119
146,0.725,38.801,29.324,31.946,25.726,5.687,6.386,13.16
147,0.734,38.821,29.532,31.956,25.736,5.768,6.466,13.202
148,0.731,38.39,29.636,31.966,25.743,5.85,6.507,13.243
149,0.738,38.529,29.422,31.975,25.743,5.932,6.549,13.324
150,0.725,38.636,29.619,31.976,25.743,5.852,6.63,13.406
151,0.731,38.637,29.422,32.014,25.74,5.81,6.631,13.326
152,0.741,38.541,29.607,31.976,25.74,5.728,6.55,13.244
153,0.751,38.636,29.418,31.966,25.74,5.89,6.59,13.243
154,0.751,38.743,29.607,31.966,25.736,5.77,6.549,13.202
155,0.748,38.59,29.511,31.956,25.74,5.809,6.549,13.202
156,0.754,38.32,29.436,31.947,25.733,5.769,6.63,13.202
157,0.761,38.462,29.627,31.994,25.743,5.85,6.631,13.243
158,0.761,38.568,29.398,31.995,25.75,5.932,6.753,13.284
159,0.741,38.224,29.615,31.966,25.747,5.811,6.714,13.284
160,0.747,38.269,29.523,31.937,25.733,5.769,6.591,13.203
161,0.738,38.404,29.468,31.937,25.733,5.768,6.509,13.121
162,0.747,38.501,29.608,31.937,25.74,5.687,6.467,13.12
163,0.76,38.128,29.414,31.946,25.726,5.646,6.467,13.039
164,0.754,38.287,29.603,31.966,25.733,5.767,6.548,13.078
165,0.735,38.404,29.621,31.947,25.733,5.728,6.549,13.038
166,0.738,38.472,29.461,31.946,25.733,5.687,6.549,13.2
167,0.731,38.079,29.658,31.956,25.736,5.768,6.63,13.121
168,0.721,38.229,29.336,31.966,25.74,5.809,6.59,13.201
169,0.721,38.317,29.54,31.947,25.736,5.728,6.631,13.08
170,0.731,38.375,29.405,31.927,25.726,5.687,6.509,12.916
171,0.731,38.059,29.478,31.946,25.733,5.727,6.508,12.874
172,0.744,38.219,29.573,31.966,25.747,5.809,6.63,12.955
173,0.754,38.326,29.534,31.966,25.747,5.81,6.672,12.915
174,0.764,38.356,29.604,31.975,25.74,5.891,6.631,12.955
175,0.754,37.982,29.414,31.976,25.74,5.851,6.712,12.956
176,0.757,38.103,29.595,31.966,25.736,5.81,6.591,12.915
177,0.767,38.201,29.367,31.947,25.743,5.728,6.631,12.833
178,0.774,38.23,29.564,31.956,25.733,5.768,6.631,12.832
179,0.761,38.048,29.464,31.947,25.74,5.768,6.55,12.792
180,0.777,38.162,29.471,31.946,25.733,5.85,6.59,12.71
181,0.771,38.335,29.604,31.966,25.747,5.769,6.549,12.75
182,0.757,38.145,29.32,31.975,25.747,5.972,6.712,12.872
183,0.764,37.884,29.551,31.976,25.743,5.852,6.672,12.873
184,0.738,37.997,29.62,31.937,25.74,5.729,6.591,12.792
185,0.738,38.123,29.383,31.927,25.736,5.727,6.468,12.791
186,0.738,37.836,29.603,31.946,25.729,5.727,6.467,12.791
187,0.757,37.929,29.32,31.918,25.74,5.687,6.386,12.791
188,0.754,38.074,29.497,31.937,25.733,5.809,6.425,12.791
189,0.751,38.162,29.592,31.946,25.736,5.769,6.466,12.791
190,0.744,37.77,29.386,31.937,25.74,5.85,6.467,12.791
191,0.741,37.9,29.568,31.946,25.74,5.851,6.467,12.791
192,0.754,38.007,29.449,31.927,25.736,5.81,6.507,12.751
193,0.738,38.056,29.467,31.946,25.736,5.85,6.427,12.628
194,0.744,37.596,29.592,31.918,25.729,5.81,6.426,12.749
195,0.747,37.783,29.32,31.946,25.729,5.769,6.385,12.588
196,0.767,37.919,29.551,31.966,25.736,5.931,6.425,12.749
197,0.757,37.959,29.288,31.966,25.743,5.974,6.466,12.75
198,0.764,37.758,29.45,31.956,25.747,6.015,6.507,12.669
199,0.757,37.881,29.631,31.956,25.74,5.974,6.467,12.709
200,0.767,37.997,29.375,31.947,25.733,5.933,6.507,12.709
201,0.751,38.046,29.556,31.937,25.743,5.974,6.467,12.709
202,0.767,37.797,29.296,31.946,25.74,5.974,6.426,12.709
203,0.761,37.929,29.524,31.956,25.74,5.933,6.548,12.79
204,0.748,38.036,29.581,31.947,25.74,5.892,6.508,12.751
205,0.751,38.037,29.468,31.956,25.74,5.973,6.508,12.872
206,0.757,37.586,29.615,31.937,25.736,5.893,6.508,12.873
207,0.754,37.716,29.379,31.985,25.74,5.933,6.549,12.914
208,0.741,37.823,29.572,31.985,25.75,6.014,6.712,13.037
209,0.741,37.766,29.589,31.956,25.74,5.934,6.632,13.038
210,0.731,37.698,29.445,31.927,25.733,5.852,6.55,12.997
211,0.744,37.813,29.599,31.994,25.729,5.851,6.508,12.834
212,0.757,37.9,29.363,31.918,25.729,5.769,6.467,12.832
213,0.741,37.508,29.61,31.937,25.729,5.809,6.507,12.832
214,0.751,37.61,29.301,31.927,25.729,5.81,6.508,12.832
215,0.748,37.726,29.508,31.937,25.736,5.81,6.467,12.873
216,0.76,37.813,29.624,31.937,25.74,5.769,6.507,12.955
217,0.774,37.498,29.5,31.946,25.74,5.768,6.549,12.915
218,0.777,37.638,29.612,31.946,25.736,5.809,6.508,12.915
219,0.771,37.736,29.371,31.918,25.726,5.85,6.508,12.874
220,0.767,37.813,29.56,31.889,25.726,5.648,6.386,12.792
221,0.767,37.536,29.608,31.927,25.736,5.727,6.425,12.791
222,0.767,37.706,29.39,31.946,25.74,5.809,6.507,12.873
223,0.761,37.794,29.638,31.966,25.74,5.85,6.589,12.914
224,0.751,37.862,29.398,31.956,25.747,5.81,6.631,12.996
225,0.741,37.546,29.583,31.947,25.74,5.769,6.59,13.078
226,0.754,37.687,29.577,31.927,25.736,5.85,6.631,13.119
227,0.748,37.784,29.495,31.946,25.74,5.769,6.672,13.12
228,0.738,37.843,29.635,31.937,25.736,5.768,6.55,13.12
229,0.738,37.431,29.316,31.927,25.74,5.809,6.671,13.201
230,0.734,37.561,29.547,31.937,25.736,5.81,6.55,13.121
231,0.744,37.668,29.577,31.966,25.736,5.728,6.59,13.079
232,0.754,37.717,29.394,31.947,25.74,5.727,6.549,13.038
233,0.764,37.506,29.595,31.966,25.75,5.809,6.63,13.119
234,0.757,37.6,29.39,31.975,25.747,5.81,6.712,13.079
235,0.754,37.678,29.556,31.947,25.74,5.688,6.591,13.079
236,0.754,37.487,29.608,31.927,25.729,5.605,6.549,12.916
237,0.761,37.37,29.429,31.908,25.736,5.604,6.468,12.833
238,0.764,37.493,29.611,31.927,25.729,5.686,6.386,12.792
239,0.741,37.6,29.344,31.927,25.736,5.646,6.466,12.791
240,0.751,37.352,29.575,31.927,25.733,5.645,6.507,12.791
241,0.754,37.483,29.542,31.918,25.733,5.645,6.427,12.791
242,0.741,37.619,29.401,31.927,25.729,5.645,6.507,12.791
243,0.76,37.707,29.591,31.927,25.74,5.686,6.508,12.873
244,0.757,37.257,29.332,31.937,25.733,5.727,6.467,12.914
245,0.735,37.386,29.536,31.899,25.729,5.646,6.426,12.915
246,0.728,37.532,29.581,31.908,25.733,5.564,6.304,12.874
247,0.741,37.6,29.449,31.927,25.74,5.645,6.465,12.995
248,0.741,37.294,29.588,31.965,25.733,5.727,6.507,13.037
249,0.738,37.416,29.296,31.947,25.74,5.89,6.549,13.119
250,0.734,37.532,29.493,31.956,25.74,5.729,6.468,13.079
251,0.741,37.562,29.541,31.947,25.743,5.768,6.507,13.079
252,0.741,37.188,29.327,31.937,25.74,5.768,6.508,13.038
253,0.734,37.357,29.567,31.937,25.736,5.768,6.467,12.997
254,0.744,37.445,29.339,31.946,25.736,5.728,6.467,12.956
255,0.738,37.484,29.505,31.937,25.736,5.687,6.548,12.915
256,0.738,37.101,29.604,31.937,25.74,5.727,6.468,12.874
257,0.747,37.279,29.445,31.937,25.733,5.727,6.507,12.914
258,0.767,37.406,29.607,31.937,25.747,5.768,6.549,12.833
259,0.751,37.407,29.312,31.966,25.75,5.85,6.63,12.995
260,0.738,37.254,29.563,31.937,25.74,5.729,6.509,12.996
261,0.728,37.386,29.277,31.918,25.736,5.646,6.508,12.875
262,0.731,37.484,29.539,31.917,25.736,5.686,6.386,12.873
263,0.734,37.216,29.46,31.908,25.729,5.646,6.466,12.914
264,0.728,37.146,29.455,31.908,25.729,5.645,6.426,12.915
265,0.728,37.27,29.604,31.917,25.736,5.605,6.466,13.037
266,0.728,37.377,29.343,31.917,25.729,5.645,6.467,13.038
267,0.731,37.071,29.587,31.908,25.733,5.645,6.507,13.16
268,0.718,37.193,29.593,31.937,25.743,5.605,6.508,13.161
269,0.721,37.3,29.484,31.927,25.733,5.645,6.427,13.12
270,0.711,37.358,29.627,31.898,25.736,5.645,6.507,13.12
271,0.721,36.966,29.254,31.898,25.723,5.523,6.345,12.998
272,0.715,37.115,29.543,31.917,25.733,5.563,6.384,12.956
273,0.728,37.232,29.604,31.927,25.729,5.604,6.425,13.037
274,0.734,37.31,29.484,31.927,25.743,5.686,6.507,13.119
275,0.741,37.195,29.608,31.927,25.74,5.687,6.508,13.201
276,0.741,37.338,29.425,31.927,25.736,5.646,6.549,13.202
277,0.734,37.445,29.615,31.927,25.736,5.605,6.508,13.202
278,0.751,37.503,29.332,31.937,25.74,5.604,6.549,13.121
279,0.741,37.284,29.532,31.918,25.74,5.564,6.468,13.079
280,0.747,37.406,29.624,31.917,25.736,5.645,6.548,13.079
281,0.734,37.513,29.437,31.917,25.736,5.605,6.468,13.16
282,0.741,37.571,29.599,31.927,25.74,5.645,6.507,13.039
283,0.757,36.977,29.39,31.946,25.747,5.645,6.549,13.119
284,0.725,37.096,29.572,31.956,25.75,5.686,6.59,13.323
285,0.711,37.203,29.601,31.947,25.74,5.687,6.59,13.284
286,0.711,37.204,29.41,31.908,25.736,5.646,6.549,13.284
287,0.711,37.137,29.587,31.908,25.726,5.645,6.508,13.162
288,0.711,37.28,29.328,31.908,25.726,5.645,6.427,13.202
289,0.702,37.377,29.52,31.908,25.733,5.645,6.426,13.121
290,0.701,37.129,29.628,31.917,25.733,5.645,6.385,13.079
291,0.701,37.107,29.352,31.965,25.729,5.686,6.344,13.038
292,0.727,37.232,29.56,31.928,25.736,5.809,6.466,13.038
293,0.712,37.329,29.398,31.908,25.736,5.769,6.467,12.997
294,0.728,37.1,29.498,31.908,25.736,5.768,6.386,13.037
295,0.718,37.232,29.588,31.889,25.733,5.728,6.425,12.997
296,0.718,37.348,29.324,31.888,25.726,5.687,6.426,12.753
297,0.731,37.445,29.555,31.927,25.729,5.809,6.466,12.709
298,0.747,36.957,29.569,31.908,25.736,5.81,6.467,12.79
299,0.747,37.096,29.464,31.927,25.743,5.81,6.507,12.791
300,0.747,37.203,29.627,31.927,25.74,5.891,6.467,12.873
301,0.731,37.3,29.41,31.927,25.74,5.851,6.467,12.751
302,0.718,37.195,29.564,31.937,25.736,5.891,6.507,12.75
303,0.715,37.319,29.382,31.927,25.74,5.851,6.467,12.831
304,0.705,37.435,29.529,31.937,25.74,5.81,6.467,12.792
305,0.708,37.494,29.6,31.918,25.74,5.85,6.426,12.873
306,0.702,37.111,29.41,31.937,25.74,5.891,6.507,12.833
307,0.711,37.241,29.634,31.918,25.736,5.851,6.386,12.873
308,0.721,37.386,29.328,31.946,25.74,5.973,6.466,12.955
309,0.708,37.417,29.548,31.956,25.747,6.096,6.548,13.037
310,0.695,37.158,29.62,31.927,25.747,6.056,6.468,12.997
311,0.692,37.28,29.371,31.918,25.74,6.015,6.426,12.875
312,0.701,37.406,29.564,31.908,25.736,5.934,6.344,12.751
313,0.714,37.426,29.316,31.908,25.726,5.974,6.303,12.709
314,0.715,37.216,29.493,31.908,25.726,6.055,6.302,12.668
315,0.728,37.357,29.588,31.917,25.733,6.015,6.343,12.749
316,0.715,37.474,29.375,31.917,25.729,6.096,6.303,12.709
317,0.711,37.235,29.583,31.908,25.729,6.056,6.425,12.79
318,0.702,37.252,29.289,31.927,25.729,6.178,6.344,12.751
319,0.721,37.348,29.52,31.918,25.743,6.22,6.343,12.791
320,0.721,37.426,29.592,31.898,25.726,6.139,6.343,12.791
321,0.721,37.149,29.421,31.965,25.729,6.057,6.262,12.669
322,0.728,37.299,29.588,31.908,25.733,6.097,6.302,12.749
323,0.718,37.406,29.46,31.937,25.74,6.219,6.425,12.872
324,0.708,37.494,29.619,31.946,25.736,6.302,6.385,12.995
325,0.705,37.264,29.316,31.918,25.74,6.262,6.425,12.996
326,0.705,37.435,29.469,31.927,25.74,6.262,6.426,13.037
327,0.698,37.523,29.658,31.918,25.74,6.262,6.426,13.078
328,0.701,37.6,29.317,31.927,25.736,6.18,6.385,12.997
329,0.695,37.256,29.516,31.937,25.74,6.179,6.385,12.996
330,0.688,37.377,29.612,31.927,25.743,6.22,6.425,12.956
331,0.701,37.512,29.328,31.927,25.74,6.18,6.385,12.956
332,0.714,37.581,29.555,31.927,25.736,6.139,6.344,12.874
333,0.715,37.457,29.37,31.956,25.75,6.26,6.466,12.955
334,0.715,37.59,29.587,31.947,25.743,6.221,6.467,13.078
335,0.705,37.658,29.527,31.927,25.736,6.098,6.426,12.997
336,0.702,37.678,29.464,31.908,25.733,6.056,6.304,12.915
337,0.714,37.17,29.631,31.898,25.726,6.015,6.343,12.874
338,0.711,37.309,29.34,31.888,25.729,5.974,6.343,12.873
339,0.721,37.416,29.548,31.898,25.736,6.015,6.303,12.873
340,0.728,37.705,29.624,31.898,25.733,5.974,6.262,12.833
341,0.725,37.381,29.426,31.908,25.729,5.974,6.302,12.832
342,0.728,37.503,29.599,31.927,25.736,6.015,6.302,12.873
343,0.715,37.6,29.422,31.927,25.74,5.974,6.262,12.955
344,0.708,37.352,29.599,31.918,25.736,6.015,6.302,12.996
345,0.685,37.387,29.343,31.889,25.726,5.852,6.221,12.956
346,0.685,37.522,29.54,31.888,25.729,5.851,6.22,12.996
347,0.698,37.619,29.643,31.908,25.733,6.013,6.261,12.956
348,0.688,37.265,29.441,31.927,25.74,6.056,6.465,13.078
349,0.705,37.387,29.607,31.927,25.74,6.015,6.467,13.119
350,0.692,37.503,29.445,31.927,25.74,6.015,6.386,13.079
351,0.714,37.571,29.576,31.918,25.736,6.015,6.466,13.038
352,0.695,37.342,29.492,31.917,25.74,6.015,6.345,12.956
353,0.698,37.483,29.467,31.898,25.736,5.974,6.384,12.915
354,0.695,37.59,29.565,31.927,25.74,6.015,6.385,12.874
355,0.714,37.649,29.445,31.918,25.733,5.934,6.303,12.873
356,0.724,37.275,29.607,31.927,25.74,5.974,6.465,12.833
357,0.721,37.415,29.5,31.956,25.747,6.096,6.467,12.873
358,0.721,37.532,29.616,31.947,25.754,5.975,6.507,12.873
359,0.721,37.552,29.394,31.927,25.74,6.015,6.467,12.792
360,0.715,37.38,29.607,31.889,25.733,5.934,6.345,12.71
361,0.721,37.503,29.254,31.898,25.729,5.811,6.343,12.587
362,0.715,37.629,29.492,31.908,25.733,5.891,6.384,12.627
363,0.705,37.649,29.584,31.908,25.729,5.811,6.385,12.668
364,0.708,37.314,29.324,31.898,25.729,5.81,6.303,12.709
365,0.708,37.445,29.54,31.908,25.733,5.769,6.425,12.79
366,0.692,37.561,29.526,31.898,25.733,5.891,6.344,12.873
367,0.695,37.907,29.479,31.917,25.736,5.811,6.384,12.914
368,0.695,37.47,29.58,31.908,25.736,5.85,6.466,12.915
369,0.708,37.561,29.335,31.898,25.729,5.769,6.467,12.915
370,0.695,37.677,29.579,31.888,25.726,5.687,6.345,12.874
371,0.708,37.343,29.281,31.888,25.726,5.809,6.384,12.792
372,0.702,37.387,29.496,31.936,25.743,5.769,6.547,12.791
373,0.701,37.493,29.565,31.937,25.74,5.809,6.468,12.873
374,0.714,37.571,29.452,31.927,25.74,5.769,6.467,12.873
375,0.715,37.361,29.568,31.927,25.747,5.85,6.507,12.833
376,0.724,37.512,29.281,31.918,25.74,5.81,6.467,12.832
377,0.728,37.6,29.571,31.927,25.736,5.769,6.507,12.792
378,0.728,37.697,29.562,31.908,25.74,5.768,6.508,12.751
379,0.712,37.257,29.406,31.908,25.736,5.768,6.508,12.75
380,0.715,37.386,29.615,31.917,25.733,5.728,6.508,12.75
381,0.731,37.532,29.351,31.937,25.743,5.85,6.549,12.831
382,0.728,37.591,29.591,31.937,25.75,5.891,6.63,12.954
383,0.698,37.294,29.328,31.937,25.747,5.851,6.59,12.996
384,0.698,37.416,29.54,31.908,25.743,5.729,6.549,12.956
385,0.698,37.522,29.292,31.889,25.726,5.646,6.508,13.037
386,0.705,37.581,29.457,31.888,25.726,5.645,6.427,13.038
387,0.702,37.275,29.619,31.898,25.726,5.686,6.466,13.038
388,0.688,37.415,29.289,31.908,25.736,5.687,6.507,12.997
389,0.698,37.532,29.535,31.908,25.733,5.646,6.508,13.078
390,0.698,37.571,29.624,31.908,25.733,5.686,6.508,13.079
391,0.692,37.227,29.43,31.908,25.736,5.646,6.589,12.997
392,0.698,37.348,29.588,31.917,25.733,5.686,6.509,12.996
393,0.695,37.397,29.433,31.889,25.729,5.687,6.508,12.996
394,0.711,37.685,29.595,31.898,25.729,5.564,6.467,12.875
395,0.721,37.372,29.293,31.908,25.729,5.604,6.507,12.914
396,0.705,37.503,29.52,31.917,25.736,5.726,6.549,13.037
397,0.715,37.59,29.643,31.917,25.736,5.727,6.59,13.038
398,0.731,37.208,29.352,31.917,25.747,5.768,6.631,13.038
399,0.725,37.223,29.548,31.927,25.74,5.728,6.55,13.078
400,0.731,37.338,29.429,31.898,25.74,5.768,6.549,13.038
401,0.715,37.445,29.424,31.927,25.74,5.728,6.59,13.038
402,0.715,37.177,29.591,31.927,25.74,5.809,6.549,13.038
403,0.708,37.319,29.312,31.918,25.736,5.769,6.549,13.16
404,0.698,37.416,29.559,31.898,25.736,5.768,6.59,13.202
405,0.695,37.513,29.601,31.917,25.74,5.809,6.509,13.202
406,0.705,37.044,29.406,31.927,25.743,5.81,6.508,13.243
407,0.708,37.183,29.642,31.946,25.743,5.932,6.67,13.406
408,0.698,37.271,29.172,31.937,25.747,5.852,6.672,13.489
409,0.705,37.348,29.409,31.908,25.74,5.81,6.55,13.367
410,0.695,37.138,29.669,31.898,25.733,5.769,6.508,13.244
411,0.695,37.27,29.356,31.908,25.729,5.728,6.467,13.121
412,0.692,37.415,29.532,31.917,25.726,5.727,6.426,13.201
413,0.705,37.436,29.374,31.898,25.733,5.727,6.426,13.161
414,0.698,37.12,29.482,31.898,25.729,5.727,6.426,13.202
415,0.721,37.26,29.612,31.888,25.736,5.768,6.466,13.243
416,0.711,37.377,29.394,31.908,25.733,5.809,6.426,13.243
417,0.708,37.397,29.626,31.898,25.736,5.728,6.426,13.202
418,0.711,37.004,29.316,31.869,25.733,5.727,6.385,13.161
419,0.721,37.144,29.524,31.898,25.726,5.687,6.303,12.958
420,0.728,37.261,29.589,31.888,25.733,5.727,6.343,13.037
421,0.715,37.444,29.414,31.917,25.743,5.727,6.466,13.078
422,0.721,37.197,29.56,31.917,25.74,5.727,6.426,13.201
423,0.715,37.328,29.359,31.917,25.747,5.727,6.507,13.202
424,0.711,37.416,29.563,31.927,25.747,5.809,6.508,13.283
425,0.715,36.957,29.347,31.918,25.747,5.728,6.467,13.325
426,0.708,37.0,29.438,31.908,25.747,5.85,6.386,13.284
427,0.708,37.144,29.611,31.908,25.737,5.81,6.425,13.325
428,0.728,37.203,29.273,31.927,25.733,5.81,6.466,13.325
429,0.705,37.002,29.547,31.908,25.74,5.728,6.386,13.284
430,0.695,37.144,29.378,31.917,25.736,5.809,6.425,13.243
431,0.701,37.261,29.529,31.946,25.747,5.891,6.466,13.202
432,0.708,37.348,29.554,31.946,25.747,5.851,6.548,13.243
433,0.698,36.841,29.378,31.908,25.737,5.851,6.468,13.162
434,0.701,36.941,29.564,31.898,25.736,5.729,6.386,13.039
435,0.708,37.067,29.316,31.888,25.733,5.687,6.385,12.956
436,0.724,37.135,29.536,31.888,25.722,5.687,6.385,12.915
437,0.711,36.829,29.339,31.898,25.733,5.687,6.385,12.915
438,0.724,36.97,29.454,31.888,25.733,5.687,6.385,12.792
439,0.721,37.096,29.584,31.888,25.733,5.727,6.385,12.832
440,0.724,37.116,29.425,31.888,25.736,5.727,6.425,12.792
441,0.721,36.858,29.502,31.908,25.74,5.687,6.426,12.791
442,0.715,36.989,29.319,31.889,25.74,5.727,6.466,12.873
443,0.718,37.096,29.473,31.888,25.733,5.687,6.467,12.914
444,0.702,37.107,29.576,31.879,25.726,5.564,6.345,12.833
445,0.708,36.886,29.359,31.888,25.736,5.645,6.425,12.832
446,0.708,37.028,29.575,31.908,25.736,5.767,6.466,12.954
447,0.705,37.135,29.355,31.917,25.74,5.687,6.548,13.037
448,0.698,37.155,29.481,31.917,25.74,5.727,6.549,12.956
449,0.698,36.906,29.608,31.917,25.736,5.687,6.549,12.956
450,0.685,37.019,29.355,31.917,25.743,5.687,6.549,12.996
451,0.701,37.116,29.528,31.898,25.74,5.605,6.549,12.915
452,0.705,36.8,29.288,31.927,25.729,5.686,6.549,12.915
453,0.702,36.845,29.473,31.908,25.736,5.605,6.549,12.874
454,0.718,36.98,29.576,31.908,25.74,5.686,6.549,12.873
455,0.724,37.106,29.339,31.937,25.736,5.687,6.671,12.914
456,0.718,36.752,29.544,31.927,25.75,5.768,6.713,13.118
457,0.724,36.854,29.647,31.908,25.74,5.728,6.672,13.079
458,0.731,36.961,29.367,31.908,25.733,5.605,6.509,12.997
459,0.728,37.038,29.575,31.879,25.733,5.564,6.508,12.915
460,0.728,36.569,29.417,31.869,25.729,5.563,6.467,12.915
461,0.734,36.728,29.595,31.888,25.729,5.563,6.467,12.996
462,0.715,36.863,29.324,31.946,25.733,5.604,6.507,13.078
463,0.718,36.922,29.493,31.889,25.729,5.604,6.549,13.079
464,0.721,36.53,29.6,31.898,25.736,5.564,6.59,13.201
465,0.702,36.689,29.363,31.898,25.736,5.645,6.631,13.243
466,0.688,36.786,29.556,31.869,25.726,5.605,6.55,13.162
467,0.698,36.854,29.565,31.879,25.733,5.523,6.508,13.08
468,0.724,36.625,29.386,31.907,25.743,5.685,6.63,13.201
469,0.724,36.766,29.583,31.908,25.74,5.727,6.672,13.202
470,0.708,36.864,29.347,31.908,25.736,5.727,6.753,13.202
471,0.721,36.884,29.599,31.927,25.733,5.727,6.714,13.161
472,0.734,36.577,29.543,31.908,25.74,5.687,6.672,13.12
473,0.728,36.708,29.452,31.908,25.736,5.687,6.631,13.12
474,0.721,36.815,29.584,31.908,25.74,5.687,6.712,13.079
475,0.715,36.749,29.371,31.898,25.736,5.646,6.713,13.038
476,0.708,36.586,29.571,31.888,25.74,5.727,6.632,13.038
477,0.724,36.737,29.441,31.898,25.74,5.687,6.631,12.956
478,0.734,36.854,29.494,31.917,25.75,5.768,6.753,13.037
479,0.738,36.424,29.58,31.917,25.75,5.809,6.795,13.078
480,0.731,36.477,29.343,31.898,25.743,5.769,6.795,12.997
481,0.721,36.583,29.505,31.879,25.74,5.606,6.673,12.996
482,0.728,36.689,29.307,31.898,25.726,5.523,6.55,12.915
483,0.708,36.451,29.43,31.879,25.733,5.563,6.549,12.874
484,0.689,36.583,29.529,31.888,25.729,5.563,6.63,12.995
485,0.695,36.709,29.304,31.908,25.736,5.563,6.59,12.996
486,0.692,36.796,29.524,31.879,25.736,5.645,6.631,13.078
487,0.698,36.481,29.604,31.879,25.733,5.564,6.672,13.038
488,0.705,36.65,29.383,31.917,25.733,5.645,6.672,13.038
489,0.698,36.757,29.529,31.908,25.729,5.645,6.631,13.078
490,0.695,36.806,29.362,31.879,25.733,5.523,6.55,13.038
491,0.705,36.327,29.485,31.879,25.726,5.563,6.59,12.875
492,0.715,36.476,29.557,31.898,25.729,5.482,6.549,12.873
493,0.721,36.583,29.425,31.908,25.736,5.603,6.63,12.914
494,0.728,36.632,29.576,31.917,25.747,5.645,6.672,12.915
495,0.725,36.383,29.316,31.917,25.74,5.645,6.631,12.955
496,0.721,36.534,29.547,31.908,25.736,5.605,6.631,13.037
497,0.711,36.641,29.542,31.908,25.736,5.604,6.631,12.956
498,0.728,36.68,29.44,31.908,25.74,5.604,6.631,12.874
499,0.728,36.441,29.58,31.908,25.74,5.564,6.631,12.914
500,0.738,36.554,29.339,31.908,25.733,5.563,6.55,12.915
501,0.728,36.651,29.454,31.908,25.733,5.645,6.508,12.955
502,0.728,36.575,29.553,31.917,25.736,5.645,6.63,12.996
503,0.741,36.411,29.429,31.927,25.743,5.645,6.55,13.037
504,0.738,36.534,29.603,31.937,25.747,5.767,6.63,13.2
505,0.721,36.612,29.347,31.927,25.743,5.647,6.631,13.283
506,0.708,36.277,29.587,31.908,25.736,5.727,6.59,13.243
507,0.711,36.341,29.343,31.879,25.729,5.565,6.509,13.202
508,0.702,36.476,29.505,31.936,25.726,5.523,6.467,13.121
509,0.701,36.583,29.565,31.879,25.726,5.644,6.467,13.079
510,0.682,36.21,29.386,31.888,25.733,5.605,6.386,13.119
511,0.692,36.35,29.529,31.908,25.736,5.645,6.466,13.079
512,0.705,36.486,29.573,31.889,25.733,5.645,6.507,13.038
513,0.711,36.554,29.441,31.908,25.736,5.645,6.508,13.078
514,0.721,36.258,29.576,31.908,25.729,5.645,6.427,13.038
515,0.715,36.398,29.304,31.908,25.733,5.645,6.466,13.078
516,0.721,36.496,29.536,31.889,25.726,5.523,6.386,13.038
517,0.731,36.593,29.628,31.869,25.729,5.482,6.303,12.956
518,0.734,36.2,29.391,31.955,25.729,5.644,6.425,12.915
519,0.731,36.35,29.579,31.908,25.74,5.645,6.548,12.955
520,0.731,36.447,29.363,31.898,25.747,5.686,6.468,12.956
521,0.725,36.506,29.532,31.898,25.74,5.727,6.548,12.956
522,0.728,36.238,29.569,31.908,25.74,5.687,6.549,13.037
523,0.731,36.369,29.429,31.927,25.736,5.727,6.508,12.916
524,0.725,36.476,29.588,31.908,25.736,5.687,6.467,12.955
525,0.715,36.497,29.312,31.898,25.74,5.727,6.507,12.996
526,0.705,36.19,29.524,31.908,25.74,5.646,6.467,13.037
527,0.711,36.331,29.546,31.908,25.736,5.767,6.507,12.997
528,0.705,36.457,29.425,31.908,25.74,5.728,6.467,12.996
529,0.711,36.381,29.588,31.927,25.75,5.809,6.629,12.996
530,0.702,36.285,29.41,31.908,25.743,5.891,6.631,13.037
531,0.708,36.389,29.626,31.898,25.747,5.77,6.509,12.916
532,0.705,36.486,29.277,31.888,25.733,5.647,6.386,12.833
533,0.705,36.094,29.5,31.888,25.733,5.686,6.466,12.751
534,0.715,36.186,29.549,31.888,25.736,5.727,6.426,12.75
535,0.718,36.34,29.386,31.888,25.729,5.768,6.385,12.831
536,0.724,36.419,29.564,31.908,25.74,5.728,6.425,12.792
537,0.728,36.093,29.331,31.879,25.733,5.768,6.426,12.832
538,0.731,36.215,29.407,31.917,25.736,5.768,6.426,12.792
539,0.725,36.34,29.49,31.889,25.736,5.728,6.426,12.751
540,0.715,36.399,29.526,31.86,25.723,5.687,6.385,12.75
541,0.721,36.083,29.546,31.869,25.733,5.646,6.303,12.669
542,0.724,36.243,29.398,31.927,25.729,5.686,6.384,12.709
543,0.737,36.379,29.572,31.908,25.747,5.768,6.466,12.872
544,0.721,36.457,29.359,31.917,25.74,5.768,6.507,13.036
545,0.718,36.142,29.563,31.917,25.74,5.85,6.467,13.038
546,0.711,36.273,29.367,31.908,25.736,5.729,6.467,13.119
547,0.711,36.379,29.486,31.889,25.736,5.727,6.507,13.16
548,0.708,36.419,29.51,31.917,25.733,5.727,6.386,13.12
549,0.708,36.093,29.374,31.908,25.736,5.768,6.466,13.16
550,0.711,36.215,29.591,31.917,25.74,5.728,6.467,13.08
551,0.724,36.321,29.32,31.908,25.736,5.727,6.426,13.038
552,0.721,36.38,29.45,31.927,25.74,5.768,6.507,13.038
553,0.734,36.074,29.475,31.946,25.75,5.85,6.508,13.119
554,0.725,36.195,29.412,31.927,25.743,5.81,6.63,13.201
555,0.721,36.302,29.564,31.898,25.73,5.688,6.55,12.999
556,0.724,36.188,29.285,31.898,25.729,5.646,6.386,12.875
557,0.734,36.129,29.535,31.888,25.726,5.645,6.466,12.792
558,0.734,36.263,29.487,31.898,25.733,5.645,6.386,12.832
559,0.747,36.379,29.389,31.879,25.733,5.686,6.425,12.751
560,0.76,35.892,29.607,31.888,25.733,5.605,6.426,12.75
561,0.744,35.973,29.316,31.908,25.733,5.686,6.466,12.75
562,0.744,36.127,29.423,31.908,25.733,5.727,6.507,12.831
563,0.731,36.205,29.31,31.898,25.733,5.687,6.467,12.792
564,0.721,36.034,29.481,31.869,25.726,5.646,6.467,12.873
565,0.731,36.224,29.573,31.869,25.722,5.605,6.426,12.751
566,0.747,36.36,29.41,31.879,25.733,5.604,6.426,12.791
567,0.751,36.447,29.607,31.898,25.747,5.686,6.548,12.913
568,0.748,35.94,29.273,31.917,25.743,5.727,6.671,12.996
569,0.754,36.079,29.461,31.927,25.736,5.727,6.631,12.956
570,0.767,36.176,29.592,31.927,25.736,5.646,6.59,12.915
571,0.777,36.254,29.394,31.908,25.733,5.727,6.631,12.955
572,0.787,35.909,29.486,31.908,25.736,5.727,6.631,12.956
573,0.793,36.069,29.292,31.908,25.733,5.687,6.59,12.874
574,0.8,36.166,29.469,31.908,25.736,5.646,6.59,12.914
575,0.81,36.235,29.6,31.898,25.729,5.727,6.59,12.874
576,0.839,36.053,29.41,31.927,25.743,5.727,6.59,12.914
577,0.826,36.176,29.638,31.946,25.75,5.768,6.793,12.996
578,0.813,36.263,29.246,31.927,25.747,5.768,6.673,13.037
579,0.797,36.274,29.476,31.889,25.74,5.687,6.631,12.875
580,0.794,35.9,29.576,31.879,25.729,5.605,6.631,12.873
581,0.777,36.021,29.472,31.888,25.733,5.564,6.631,12.873
582,0.764,36.128,29.49,31.908,25.736,5.604,6.672,13.036
583,0.761,36.052,29.299,31.889,25.733,5.523,6.631,12.956
584,0.754,36.051,29.497,31.888,25.733,5.685,6.631,13.037
585,0.748,36.185,29.502,31.908,25.733,5.605,6.672,13.119
586,0.734,36.283,29.471,31.908,25.733,5.686,6.713,13.079
587,0.738,35.852,29.635,31.898,25.736,5.605,6.713,13.119
588,0.721,35.925,29.281,31.908,25.729,5.564,6.754,13.12
589,0.734,36.079,29.504,31.879,25.722,5.563,6.673,13.039
590,0.734,36.186,29.323,31.917,25.729,5.523,6.713,12.997
591,0.757,35.918,29.493,31.917,25.733,5.644,6.794,13.119
592,0.761,36.05,29.487,31.927,25.747,5.686,6.795,12.957
593,0.761,36.166,29.362,31.927,25.743,5.687,6.877,12.956
594,0.761,36.254,29.591,31.927,25.736,5.687,6.837,13.037
595,0.777,35.909,29.308,31.927,25.74,5.646,6.837,12.997
596,0.777,36.059,29.508,31.927,25.736,5.645,6.755,13.078
597,0.787,36.166,29.612,31.908,25.74,5.605,6.754,12.997
598,0.803,36.215,29.465,31.956,25.736,5.564,6.754,12.996
599,0.813,35.909,29.565,31.899,25.733,5.604,6.714,12.875
600,0.826,36.059,29.378,31.936,25.736,5.645,6.754,12.914
601,0.817,36.195,29.544,31.966,25.747,5.727,6.795,13.037
602,0.81,36.244,29.417,31.937,25.747,5.687,6.877,13.078
603,0.807,35.957,29.404,31.918,25.737,5.687,6.837,13.201
604,0.777,36.069,29.541,31.908,25.733,5.605,6.755,13.08
605,0.777,36.195,29.3,31.908,25.729,5.604,6.714,13.038
606,0.774,36.206,29.528,31.898,25.729,5.523,6.632,12.956
607,0.78,35.756,29.573,31.898,25.729,5.563,6.672,12.996
608,0.774,35.885,29.39,31.908,25.729,5.563,6.672,13.078
609,0.764,35.992,29.533,31.917,25.733,5.563,6.672,13.16
610,0.757,35.974,29.358,31.908,25.733,5.523,6.713,13.08
611,0.777,36.022,29.579,31.908,25.736,5.603,6.713,13.038
612,0.767,36.147,29.226,31.917,25.736,5.523,6.632,13.038
613,0.754,36.215,29.449,31.889,25.733,5.603,6.712,12.997
614,0.77,35.736,29.549,31.888,25.729,5.523,6.51,12.875
615,0.774,35.875,29.32,31.908,25.733,5.522,6.589,12.873
616,0.78,36.03,29.547,31.937,25.733,5.644,6.712,12.914
617,0.774,36.109,29.444,31.927,25.736,5.686,6.794,12.874
618,0.78,35.918,29.361,31.927,25.743,5.687,6.714,12.914
619,0.774,36.05,29.599,31.927,25.736,5.646,6.754,12.874
620,0.78,36.176,29.343,31.927,25.74,5.686,6.673,12.833
621,0.767,36.244,29.513,31.918,25.74,5.605,6.672,12.751
622,0.757,35.813,29.503,31.927,25.736,5.604,6.672,12.831
623,0.757,35.953,29.342,31.927,25.733,5.645,6.713,12.914
624,0.751,36.098,29.559,31.937,25.733,5.564,6.632,12.996
625,0.767,36.196,29.296,31.946,25.74,5.645,6.712,13.078
626,0.761,35.928,29.504,31.966,25.75,5.808,6.754,13.201
627,0.741,36.031,29.604,31.918,25.743,5.688,6.795,13.243
628,0.731,36.128,29.347,31.917,25.736,5.564,6.714,13.162
629,0.721,36.157,29.548,31.917,25.726,5.523,6.591,13.12
630,0.708,35.832,29.3,31.917,25.733,5.563,6.631,13.039
631,0.721,35.963,29.536,31.908,25.733,5.523,6.59,13.038
632,0.721,36.06,29.546,31.908,25.733,5.522,6.59,13.038
633,0.711,36.109,29.421,31.898,25.733,5.482,6.631,13.119
634,0.721,35.86,29.576,31.917,25.733,5.562,6.59,13.079
635,0.721,35.992,29.308,31.927,25.733,5.563,6.509,13.119
636,0.721,36.079,29.536,31.927,25.736,5.563,6.549,13.12
637,0.715,35.889,29.62,31.927,25.733,5.604,6.59,13.12
638,0.721,35.877,29.348,31.918,25.743,5.564,6.59,13.039
639,0.724,36.011,29.559,31.908,25.73,5.482,6.468,12.997
640,0.741,36.128,29.386,31.898,25.729,5.562,6.507,13.037
641,0.725,35.822,29.579,31.917,25.733,5.685,6.549,13.119
642,0.721,35.963,29.304,31.956,25.736,5.687,6.549,13.242
643,0.711,36.079,29.512,31.966,25.743,5.687,6.671,13.365
644,0.708,36.157,29.557,31.937,25.743,5.727,6.55,13.447
645,0.705,35.841,29.437,31.927,25.74,5.646,6.549,13.448
646,0.695,35.982,29.599,31.946,25.733,5.645,6.549,13.448
647,0.705,36.098,29.363,31.937,25.747,5.727,6.508,13.448
648,0.695,36.167,29.536,31.946,25.737,5.687,6.508,13.53
649,0.685,35.841,29.542,31.937,25.736,5.727,6.549,13.49
650,0.695,36.001,29.444,31.946,25.743,5.687,6.468,13.449
651,0.695,36.118,29.599,31.975,25.747,5.809,6.467,13.489
652,0.695,36.157,29.398,31.966,25.75,5.81,6.589,13.449
653,0.698,35.784,29.54,31.937,25.737,5.769,6.509,13.408
654,0.695,35.905,29.277,31.918,25.729,5.647,6.467,13.285
655,0.698,36.021,29.508,31.917,25.733,5.605,6.345,13.203
656,0.698,36.061,29.565,31.927,25.729,5.686,6.343,13.283
657,0.698,35.86,29.386,31.927,25.729,5.646,6.343,13.243
658,0.701,35.982,29.525,31.937,25.736,5.686,6.343,13.121
659,0.701,36.098,29.323,31.927,25.733,5.687,6.425,13.079
660,0.708,36.243,29.528,31.927,25.733,5.727,6.344,13.079
661,0.692,35.833,29.589,31.946,25.736,5.646,6.425,13.119
662,0.685,35.953,29.343,31.937,25.726,5.727,6.385,12.998
663,0.695,36.06,29.513,31.918,25.722,5.605,6.303,13.037
664,0.692,35.927,29.346,31.937,25.722,5.645,6.343,12.956
665,0.705,35.992,29.556,31.966,25.733,5.727,6.466,13.118
666,0.695,36.099,29.304,31.947,25.74,5.809,6.548,13.039
667,0.692,36.186,29.493,31.946,25.736,5.85,6.63,13.119
668,0.688,35.784,29.549,31.966,25.74,5.81,6.672,13.16
669,0.698,35.914,29.304,31.975,25.74,5.769,6.794,13.161
670,0.701,36.031,29.54,31.956,25.74,5.768,6.795,13.161
671,0.705,36.118,29.589,31.966,25.74,5.728,6.917,13.12
672,0.711,35.764,29.355,31.975,25.736,5.809,6.959,12.957
673,0.702,35.914,29.524,31.966,25.74,5.728,7.122,12.956
674,0.711,36.05,29.284,31.956,25.733,5.809,7.246,12.956
675,0.721,36.128,29.496,31.985,25.747,5.85,7.369,13.037
676,0.711,35.812,29.577,31.966,25.743,5.851,7.533,13.038
677,0.715,35.934,29.453,31.966,25.74,5.81,7.534,12.997
678,0.721,36.04,29.588,31.937,25.733,5.728,7.534,12.875
679,0.711,36.089,29.339,31.927,25.733,5.768,7.616,12.873
680,0.721,35.658,29.595,31.918,25.729,5.687,7.576,12.751
681,0.711,35.807,29.449,31.937,25.733,5.727,7.657,12.791
682,0.708,35.934,29.424,31.927,25.733,5.687,7.739,12.873
683,0.715,35.973,29.556,31.975,25.733,5.768,7.862,12.955
684,0.711,35.849,29.292,31.947,25.733,5.768,7.782,12.956
685,0.705,35.992,29.516,31.966,25.736,5.728,7.822,13.037
686,0.698,36.099,29.546,31.956,25.736,5.809,7.903,13.038
687,0.705,36.406,29.44,31.927,25.726,5.728,7.863,13.078
688,0.698,35.767,29.576,31.975,25.726,5.687,7.863,12.916
689,0.698,35.904,29.292,31.976,25.733,5.768,7.944,13.037
690,0.708,36.011,29.508,31.985,25.736,5.972,8.026,13.038
691,0.711,35.821,29.581,31.966,25.74,5.933,8.109,13.038
692,0.715,35.876,29.363,32.014,25.743,5.933,8.15,13.038
693,0.718,36.002,29.536,31.976,25.74,5.892,8.273,12.997
694,0.721,36.079,29.499,31.985,25.736,5.892,8.274,12.956
695,0.728,35.716,29.432,31.956,25.733,5.892,8.314,12.956
696,0.741,35.846,29.576,31.975,25.733,6.014,8.396,12.915
697,0.744,35.944,29.413,31.976,25.736,5.934,8.438,12.955
698,0.764,36.069,29.572,31.966,25.733,5.852,8.438,12.874
699,0.78,35.601,29.378,31.995,25.747,5.973,8.519,12.873
700,0.793,35.74,29.517,32.014,25.754,6.055,8.723,12.955
701,0.787,35.818,29.589,31.985,25.74,6.056,8.644,12.956
702,0.81,35.895,29.32,31.995,25.74,5.934,8.603,12.874
703,0.823,35.676,29.563,31.966,25.74,5.892,8.602,12.914
704,0.846,35.808,29.409,31.966,25.733,5.892,8.48,12.874
705,0.866,35.943,29.451,31.966,25.729,5.892,8.479,12.914
706,0.892,36.002,29.588,31.966,25.726,5.851,8.479,12.874
707,0.928,35.696,29.324,31.975,25.733,5.81,8.479,12.914
708,0.961,35.817,29.473,31.985,25.733,5.932,8.479,12.955
709,0.99,35.953,29.553,31.985,25.733,5.892,8.479,13.037
710,1.039,35.983,29.347,31.985,25.736,5.933,8.398,12.956
711,1.089,35.667,29.567,31.985,25.736,5.892,8.397,12.956
712,1.148,35.788,29.238,31.966,25.726,5.892,8.316,12.874
713,1.204,35.914,29.445,31.947,25.726,5.729,8.274,12.751
714,1.295,36.213,29.572,31.966,25.729,5.809,8.152,12.75
715,1.384,35.736,29.374,32.004,25.733,5.932,8.191,12.791
716,1.469,35.856,29.56,32.014,25.743,5.933,8.273,12.832
717,1.535,35.953,29.324,32.005,25.736,5.974,8.152,12.792
718,1.601,35.648,29.419,31.995,25.736,5.974,8.191,12.791
719,1.657,35.692,29.549,31.985,25.74,5.933,8.11,12.71
720,1.719,35.779,29.398,31.995,25.74,5.892,7.987,12.668
721,1.746,35.885,29.56,31.995,25.733,5.851,8.027,12.668
722,1.782,35.58,29.21,31.995,25.736,5.891,8.027,12.709
723,1.805,35.73,29.48,31.995,25.733,5.892,7.987,12.587
724,1.838,35.866,29.592,32.004,25.736,5.973,7.905,12.627
725,1.864,35.973,29.39,32.043,25.747,6.015,7.945,12.668
726,1.891,35.753,29.56,32.015,25.747,6.015,8.026,12.871
727,1.904,35.856,29.304,31.985,25.743,6.015,7.946,12.711
728,1.92,35.973,29.477,31.976,25.733,5.893,7.783,12.668
729,1.966,36.07,29.522,31.976,25.729,5.851,7.74,12.587
730,1.911,35.553,29.343,31.966,25.729,5.851,7.618,12.586
731,1.881,35.672,29.595,31.995,25.726,5.932,7.657,12.545
732,1.796,35.808,29.265,31.985,25.733,5.852,7.658,12.586
733,1.695,35.857,29.445,31.995,25.729,5.851,7.617,12.586
734,1.531,35.714,29.557,31.985,25.736,5.891,7.617,12.708
735,1.321,35.837,29.363,32.004,25.74,5.851,7.617,12.75
736,1.137,35.934,29.564,31.966,25.733,5.891,7.535,12.791
737,0.986,35.973,29.351,31.966,25.722,5.77,7.494,12.791
738,0.886,35.581,29.474,31.966,25.733,5.809,7.371,12.832
739,0.788,35.74,29.264,31.985,25.733,5.891,7.411,13.117
740,0.699,35.847,29.516,32.004,25.74,5.892,7.574,13.445
741,0.604,36.011,29.577,32.005,25.736,5.933,7.535,13.895
742,0.489,35.638,29.207,32.014,25.74,5.974,7.534,14.185
743,0.413,35.759,29.496,32.033,25.736,5.974,7.453,14.391
744,0.302,35.857,29.288,31.995,25.743,5.933,7.452,14.718
745,0.219,35.618,29.469,32.004,25.736,5.852,7.412,14.965
746,0.153,35.702,29.576,32.005,25.736,5.851,7.371,15.334
747,0.098,35.808,29.378,32.014,25.733,5.851,7.37,15.581
748,0.055,35.915,29.552,32.014,25.736,5.851,7.37,15.868
749,0.025,35.494,29.362,32.043,25.74,5.932,7.37,16.156
750,0.015,35.595,29.587,32.024,25.75,5.974,7.452,16.403
751,0.015,35.711,29.343,32.014,25.74,5.852,7.33,16.446
752,0.025,35.77,29.442,31.985,25.729,5.729,7.248,16.365
753,0.051,35.483,29.557,31.985,25.729,5.768,7.125,16.283
754,0.11,35.624,29.304,31.966,25.733,5.768,7.165,16.282
755,0.175,35.778,29.528,32.004,25.729,5.728,7.124,16.404
756,0.228,35.799,29.472,32.005,25.729,5.768,7.165,16.568
757,0.264,35.636,29.463,32.005,25.736,5.85,7.084,16.814
758,0.32,35.779,29.549,32.005,25.74,5.851,7.164,16.938
759,0.35,35.885,29.347,32.005,25.736,5.81,7.124,17.102
760,0.405,35.906,29.567,31.985,25.729,5.81,7.043,17.266
761,0.471,35.494,29.382,31.966,25.722,5.728,6.96,17.308
762,0.533,35.643,29.419,32.004,25.729,5.85,7.0,17.593
763,0.589,35.788,29.549,32.024,25.74,5.891,7.123,18.125
764,0.635,35.818,29.339,32.024,25.736,5.892,7.124,18.577
765,0.694,35.493,29.555,32.024,25.74,5.933,7.043,18.907
766,0.718,35.643,29.359,32.014,25.733,5.892,7.123,18.992
767,0.744,35.731,29.489,32.014,25.736,5.892,7.083,19.196
768,0.744,35.837,29.557,32.014,25.74,5.892,7.042,19.401
769,0.773,35.598,29.284,32.043,25.733,5.933,7.042,19.362
770,0.767,35.74,29.528,32.015,25.74,5.974,7.001,19.321
771,0.79,35.828,29.347,32.024,25.743,5.893,6.919,19.118
772,0.813,35.512,29.493,32.034,25.74,6.014,6.959,19.075
773,0.82,35.557,29.592,32.053,25.747,6.096,7.041,19.115
774,0.817,35.644,29.39,32.043,25.743,6.016,7.001,18.994
775,0.82,35.74,29.576,32.015,25.733,5.852,6.919,18.667
776,0.823,35.454,29.359,32.005,25.733,5.769,6.837,18.42
777,0.82,35.575,29.446,32.014,25.726,5.809,6.877,18.052
778,0.83,35.73,29.514,32.005,25.729,5.85,6.755,17.885
779,0.833,35.799,29.276,32.005,25.733,5.891,6.795,17.802
780,0.843,35.483,29.567,31.995,25.733,5.892,6.795,17.639
781,0.836,35.614,29.308,32.014,25.736,5.892,6.795,17.556
782,0.813,35.75,29.504,32.024,25.733,5.892,6.836,17.514
783,0.826,35.808,29.518,32.005,25.736,5.933,6.796,17.392
784,0.813,35.378,29.343,31.985,25.726,5.811,6.714,17.188
785,0.82,35.555,29.575,31.985,25.722,5.891,6.713,17.023
786,0.817,35.701,29.316,32.014,25.729,5.892,6.794,16.899
787,0.82,35.75,29.559,32.024,25.74,5.973,6.836,16.857
788,0.81,35.435,29.277,32.043,25.74,5.974,6.877,16.776
789,0.816,35.546,29.461,32.043,25.74,6.015,6.877,16.653
790,0.82,35.663,29.568,32.034,25.736,5.893,6.877,16.367
791,0.82,35.702,29.433,32.024,25.736,5.892,6.796,16.161
792,0.813,35.396,29.463,32.053,25.74,5.933,6.877,16.037
793,0.833,35.517,29.369,32.024,25.736,5.892,6.877,15.832
794,0.836,35.643,29.548,32.034,25.729,5.892,6.877,15.668
795,0.856,35.673,29.335,32.043,25.736,5.973,6.877,15.544
796,0.849,35.501,29.528,32.072,25.747,6.055,7.0,15.462
797,0.84,35.614,29.573,32.024,25.743,6.097,6.96,15.298
798,0.839,35.692,29.39,32.034,25.736,5.975,6.919,15.052
799,0.839,35.376,29.54,32.005,25.729,5.933,6.837,14.847
800,0.846,35.44,29.417,32.014,25.729,5.892,6.796,14.601
801,0.846,35.566,29.56,32.005,25.733,5.933,6.795,14.517
802,0.849,35.682,29.308,32.081,25.726,6.014,6.836,14.475
803,0.853,35.319,29.415,32.005,25.736,5.974,6.877,14.434
804,0.836,35.459,29.572,32.005,25.733,6.055,6.837,14.312
805,0.839,35.595,29.316,32.024,25.733,6.097,6.877,14.27
806,0.83,35.682,29.528,32.014,25.733,6.097,6.877,14.27
807,0.843,35.252,29.589,32.024,25.736,6.219,6.877,14.148
808,0.836,35.372,29.339,32.005,25.719,6.098,6.877,14.024
809,0.852,35.527,29.548,31.995,25.722,6.097,6.755,13.861
810,0.849,35.586,29.28,32.024,25.74,6.097,6.795,13.737
811,0.859,35.337,29.496,32.034,25.736,6.178,6.958,13.776
812,0.862,35.478,29.541,32.024,25.736,6.261,6.96,13.736
813,0.862,35.624,29.316,32.043,25.743,6.262,6.878,13.655
814,0.862,35.663,29.567,32.053,25.74,6.262,6.959,13.613
815,0.866,35.299,29.285,32.043,25.74,6.18,6.919,13.653
816,0.866,35.44,29.477,32.043,25.74,6.139,6.878,13.45
817,0.869,35.537,29.639,32.015,25.74,6.138,6.918,13.408
818,0.872,35.557,29.332,32.043,25.736,6.179,6.878,13.326
819,0.876,35.346,29.544,32.034,25.729,6.139,6.877,13.325
820,0.885,35.488,29.398,32.062,25.75,6.301,6.837,13.325
821,0.872,35.566,29.587,32.063,25.747,6.262,6.999,13.406
822,0.863,35.5,29.285,32.034,25.737,6.139,6.879,13.367
823,0.859,35.307,29.411,32.014,25.733,6.098,6.837,13.285
824,0.859,35.43,29.572,32.014,25.729,6.097,6.796,13.243
825,0.856,35.556,29.339,32.033,25.733,5.975,6.755,13.243
826,0.853,35.212,29.548,32.024,25.726,6.015,6.714,13.243
827,0.859,35.285,29.308,32.034,25.733,6.056,6.754,13.121
828,0.856,35.42,29.458,32.024,25.729,6.056,6.714,13.201
829,0.856,35.527,29.549,32.043,25.733,6.015,6.754,13.121
830,0.859,35.26,29.359,32.024,25.733,6.015,6.754,13.12
831,0.862,35.353,29.63,32.024,25.733,6.056,6.673,13.079
832,0.856,35.478,29.285,32.005,25.726,5.893,6.672,13.038
833,0.869,35.595,29.469,32.024,25.726,5.892,6.631,12.956
834,0.885,35.155,29.572,32.034,25.733,5.933,6.672,12.956
835,0.892,35.323,29.367,32.043,25.736,6.014,6.672,13.078
836,0.882,35.44,29.567,32.053,25.74,6.056,6.713,13.079
837,0.892,35.518,29.304,32.063,25.736,5.975,6.754,13.038
838,0.915,35.173,29.461,32.034,25.74,5.974,6.673,12.997
839,0.909,35.314,29.565,32.024,25.74,5.933,6.631,12.915
840,0.908,35.44,29.37,32.043,25.729,5.892,6.631,12.955
841,0.902,35.489,29.579,32.043,25.733,5.892,6.631,12.956
842,0.892,35.278,29.234,32.043,25.736,5.851,6.59,12.956
843,0.899,35.43,29.453,32.062,25.733,5.932,6.631,12.915
844,0.895,35.566,29.561,32.091,25.747,6.014,6.672,12.955
845,0.886,35.586,29.331,32.063,25.754,6.015,6.672,13.159
846,0.885,35.289,29.544,32.043,25.744,5.852,6.631,13.161
847,0.889,35.392,29.288,32.043,25.726,5.729,6.59,13.039
848,0.876,35.517,29.457,32.024,25.733,5.768,6.468,12.956
849,0.882,35.346,29.529,32.043,25.729,5.728,6.467,12.915
850,0.885,35.124,29.362,32.043,25.729,5.809,6.467,12.874
851,0.898,35.256,29.599,32.034,25.733,5.728,6.507,12.873
852,0.895,35.343,29.261,32.043,25.733,5.727,6.427,12.833
853,0.899,35.056,29.492,32.024,25.733,5.727,6.507,12.832
854,0.905,35.178,29.549,32.043,25.74,5.809,6.508,12.792
855,0.905,35.285,29.378,32.034,25.736,5.728,6.508,12.791
856,0.908,35.372,29.544,32.005,25.726,5.646,6.386,12.669
857,0.918,35.124,29.339,32.033,25.729,5.727,6.344,12.627
858,0.931,35.256,29.477,32.062,25.747,5.768,6.506,12.586
859,0.925,35.41,29.448,32.053,25.747,5.768,6.549,12.708
860,0.931,35.479,29.443,32.043,25.747,5.728,6.508,12.709
861,0.925,35.087,29.58,32.053,25.74,5.727,6.508,12.75
862,0.922,35.236,29.296,32.063,25.736,5.727,6.427,12.75
863,0.928,35.353,29.559,32.053,25.736,5.687,6.466,12.75
864,0.915,35.411,29.296,32.043,25.736,5.727,6.467,12.872
865,0.918,35.191,29.45,32.034,25.743,5.646,6.467,12.955
866,0.905,35.362,29.58,32.053,25.74,5.645,6.467,12.956
867,0.921,35.469,29.417,32.063,25.74,5.686,6.426,12.956
868,0.918,35.528,29.56,32.082,25.75,5.809,6.548,13.118
869,0.915,35.001,29.335,32.082,25.743,5.81,6.549,13.16
870,0.912,35.12,29.555,32.053,25.736,5.647,6.508,13.12
871,0.918,35.217,29.308,32.043,25.733,5.564,6.345,12.957
872,0.925,35.257,29.383,32.034,25.729,5.645,6.384,12.996
873,0.935,35.199,29.587,32.034,25.726,5.564,6.425,12.915
874,0.948,35.343,29.332,32.034,25.733,5.523,6.426,12.955
875,0.958,35.45,29.548,32.034,25.733,5.563,6.466,13.037
876,0.948,35.24,29.562,32.053,25.733,5.523,6.426,13.119
877,0.954,35.084,29.452,32.053,25.74,5.563,6.466,13.12
878,0.954,35.198,29.553,32.053,25.729,5.523,6.467,13.079
879,0.945,35.276,29.253,32.024,25.729,5.482,6.507,13.038
880,0.958,34.97,29.492,32.024,25.722,5.4,6.386,12.997
881,0.971,35.081,29.588,32.053,25.736,5.48,6.425,13.078
882,0.964,35.246,29.285,32.072,25.736,5.522,6.548,13.201
883,0.974,35.334,29.512,32.053,25.74,5.522,6.508,13.324
884,0.958,35.008,29.362,32.072,25.743,5.603,6.63,13.325
885,0.961,35.187,29.489,32.072,25.74,5.564,6.631,13.366
886,0.958,35.295,29.573,32.053,25.736,5.563,6.59,13.366
887,0.964,35.363,29.417,32.063,25.733,5.482,6.59,13.325
888,0.961,35.038,29.537,32.063,25.736,5.522,6.631,13.366
889,0.964,35.188,29.276,32.063,25.74,5.522,6.59,13.285
890,0.974,35.304,29.504,32.053,25.736,5.482,6.59,13.243
891,0.99,35.392,29.588,32.091,25.747,5.603,6.671,13.284
892,0.987,34.99,29.265,32.082,25.747,5.645,6.713,13.406
893,0.974,35.12,29.492,32.063,25.74,5.483,6.632,13.285
894,0.984,35.217,29.276,32.063,25.733,5.481,6.59,13.325
895,0.978,35.257,29.481,32.063,25.733,5.44,6.549,13.122
896,1.0,34.941,29.541,32.043,25.726,5.44,6.427,13.079
897,1.007,35.091,29.479,32.062,25.726,5.318,6.466,13.119
898,1.01,35.179,29.569,32.063,25.726,5.398,6.467,13.12
899,1.01,35.237,29.374,32.053,25.729,5.48,6.467,13.12
900,1.017,35.007,29.595,32.072,25.733,5.44,6.467,13.201
901,1.017,35.139,29.269,32.044,25.733,5.44,6.507,13.283
902,1.017,35.256,29.492,32.072,25.729,5.399,6.508,13.365
903,1.014,35.084,29.534,32.072,25.74,5.48,6.508,13.366
904,1.014,34.996,29.374,32.034,25.723,5.44,6.508,13.366
905,1.027,35.149,29.525,32.043,25.726,5.318,6.467,13.366
906,1.037,35.256,29.319,32.072,25.729,5.439,6.467,13.407
907,1.05,34.95,29.544,32.091,25.74,5.481,6.507,13.489
908,1.027,35.062,29.331,32.101,25.736,5.522,6.549,13.53
909,1.033,35.188,29.45,32.101,25.733,5.563,6.549,13.531
910,1.043,35.256,29.576,32.092,25.74,5.523,6.59,13.571
911,1.056,34.96,29.39,32.082,25.736,5.522,6.59,13.449
912,1.053,35.081,29.525,32.072,25.736,5.563,6.509,13.408
913,1.063,35.217,29.284,32.072,25.736,5.645,6.508,13.367
914,1.063,35.285,29.508,32.091,25.733,5.605,6.508,13.285
915,1.069,34.97,29.549,32.082,25.733,5.604,6.508,13.203
916,1.089,35.139,29.37,32.092,25.74,5.645,6.508,13.161
917,1.096,35.246,29.595,32.12,25.747,5.645,6.63,13.202
918,1.109,35.295,29.234,32.102,25.75,5.727,6.672,13.161
919,1.093,34.816,29.465,32.082,25.737,5.646,6.55,13.08
920,1.096,34.936,29.592,32.044,25.726,5.605,6.508,12.916
921,1.096,35.081,29.425,32.062,25.733,5.564,6.386,12.874
922,1.096,35.121,29.51,32.063,25.722,5.604,6.425,12.833
923,1.106,34.997,29.288,32.053,25.729,5.604,6.466,12.832
924,1.106,35.13,29.481,32.063,25.733,5.645,6.386,12.873
925,1.112,35.246,29.534,32.063,25.74,5.645,6.466,12.873
926,1.115,35.276,29.386,32.082,25.729,5.645,6.426,12.914
927,1.122,35.046,29.575,32.072,25.733,5.686,6.426,12.955
928,1.132,35.159,29.32,32.082,25.733,5.646,6.466,12.915
929,1.122,35.256,29.434,32.063,25.726,5.645,6.386,12.874
930,1.142,34.988,29.556,32.043,25.726,5.523,6.344,12.873
931,1.161,34.919,29.363,32.062,25.726,5.522,6.303,12.711
932,1.168,35.052,29.544,32.082,25.733,5.644,6.384,12.79
933,1.181,35.159,29.413,32.092,25.736,5.727,6.425,12.791
934,1.188,34.978,29.431,32.092,25.74,5.727,6.466,12.791
935,1.197,35.101,29.572,32.101,25.733,5.727,6.426,12.791
936,1.198,35.227,29.277,32.092,25.736,5.727,6.385,12.832
937,1.207,35.305,29.516,32.092,25.736,5.687,6.425,12.751
938,1.217,34.893,29.538,32.082,25.74,5.646,6.426,12.709
939,1.221,35.052,29.347,32.072,25.74,5.686,6.426,12.709
940,1.23,35.14,29.571,32.082,25.736,5.768,6.385,12.75
941,1.24,35.237,29.308,32.082,25.736,5.687,6.425,12.791
942,1.253,35.017,29.446,32.12,25.747,5.809,6.507,12.751
943,1.24,35.159,29.564,32.102,25.747,5.85,6.508,12.913
944,1.24,35.256,29.331,32.082,25.74,5.851,6.508,12.874
945,1.234,35.314,29.528,32.082,25.736,5.769,6.345,12.873
946,1.24,35.037,29.55,32.053,25.729,5.768,6.343,12.792
947,1.247,35.168,29.39,32.063,25.729,5.728,6.343,12.791
948,1.253,35.275,29.56,32.063,25.736,5.727,6.303,12.669
949,1.266,35.334,29.273,32.072,25.736,5.768,6.343,12.749
950,1.276,35.392,29.477,32.072,25.74,5.85,6.262,12.791
951,1.286,35.546,29.362,32.091,25.736,5.851,6.302,12.71
952,1.28,35.634,29.497,32.082,25.736,5.851,6.343,12.75
953,1.289,35.635,29.518,32.072,25.733,5.851,6.425,12.831
954,1.296,35.107,29.315,32.082,25.726,5.81,6.344,12.751
955,1.312,35.255,29.536,32.082,25.729,5.85,6.262,12.75
956,1.329,35.382,29.316,32.101,25.736,5.891,6.343,12.709
957,1.332,35.412,29.547,32.121,25.736,5.973,6.466,12.831
958,1.349,35.479,29.374,32.102,25.736,5.974,6.467,12.751
959,1.349,35.604,29.423,32.111,25.74,5.974,6.426,12.791
960,1.355,35.702,29.564,32.101,25.74,5.974,6.344,12.751
961,1.346,35.376,29.351,32.082,25.733,5.974,6.425,12.709
962,1.365,35.488,29.462,32.111,25.74,5.974,6.426,12.79
963,1.372,35.643,29.284,32.101,25.733,6.015,6.344,12.873
964,1.362,35.702,29.532,32.101,25.733,6.015,6.384,12.873
965,1.378,35.655,29.249,32.073,25.736,5.934,6.425,12.873
966,1.385,35.836,29.492,32.12,25.743,6.055,6.385,12.995
967,1.382,35.944,29.58,32.121,25.747,6.178,6.507,13.078
968,1.378,35.983,29.394,32.121,25.747,6.139,6.427,13.119
969,1.378,35.955,29.556,32.111,25.733,6.016,6.466,13.039
970,1.375,36.089,29.32,32.092,25.726,5.974,6.304,12.916
971,1.398,36.195,29.602,32.082,25.726,5.974,6.221,12.874
972,1.398,36.254,29.25,32.082,25.726,5.974,6.261,12.873
973,1.405,36.197,29.508,32.092,25.722,5.974,6.302,12.833
974,1.411,36.35,29.37,32.092,25.733,6.015,6.343,12.873
975,1.424,36.457,29.4,32.111,25.733,6.056,6.343,12.914
976,1.428,36.516,29.556,32.101,25.733,6.056,6.303,12.915
977,1.418,36.516,29.292,32.092,25.736,6.056,6.302,12.915
978,1.431,36.631,29.415,32.092,25.726,5.975,6.302,12.874
979,1.434,36.747,29.525,32.082,25.729,5.974,6.18,12.792
980,1.441,36.768,29.393,32.092,25.736,5.974,6.301,12.873
981,1.437,36.749,29.572,32.12,25.747,6.055,6.343,12.955
982,1.431,36.873,29.343,32.121,25.737,6.097,6.425,13.078
983,1.431,36.99,29.54,32.14,25.743,6.097,6.466,13.079
984,1.424,37.039,29.261,32.121,25.743,5.975,6.345,13.201
985,1.424,37.135,29.449,32.102,25.736,6.055,6.384,13.202
986,1.411,37.251,29.568,32.111,25.736,6.015,6.344,13.202
987,1.418,37.339,29.37,32.111,25.733,5.974,6.303,13.283
988,1.418,37.33,29.486,32.121,25.74,5.974,6.343,13.325
989,1.418,37.474,29.483,32.111,25.736,6.055,6.343,13.244
990,1.418,37.628,29.487,32.159,25.74,6.015,6.425,13.243
991,1.421,37.668,29.588,32.15,25.747,6.137,6.507,13.284
992,1.405,37.506,29.386,32.111,25.74,6.057,6.467,13.243
993,1.398,37.638,29.544,32.101,25.733,5.975,6.386,13.243
994,1.382,37.745,29.366,32.101,25.733,5.893,6.263,13.121
995,1.391,37.823,29.532,32.111,25.733,5.892,6.302,13.039
996,1.382,37.699,29.503,32.101,25.733,5.892,6.384,13.119
997,1.382,37.851,29.401,32.111,25.736,5.892,6.344,13.12
998,1.372,37.939,29.525,32.101,25.729,5.892,6.384,13.039
999,1.372,38.026,29.347,32.111,25.733,5.851,6.425,13.038
1000,1.355,38.056,29.571,32.121,25.736,5.891,6.426,13.038
1001,1.333,38.162,29.331,32.121,25.736,5.892,6.426,12.997
1002,1.326,38.249,29.442,32.102,25.726,5.892,6.426,13.078
1003,1.316,38.279,29.549,32.101,25.726,5.892,6.385,13.038
1004,1.306,38.135,29.323,32.101,25.729,5.933,6.344,12.916
1005,1.293,38.277,29.544,32.14,25.74,5.974,6.425,13.037
1006,1.277,38.375,29.269,32.15,25.743,6.096,6.466,13.038
1007,1.263,38.52,29.485,32.15,25.74,6.016,6.467,13.078
1008,1.244,38.464,29.584,32.15,25.74,6.056,6.467,13.119
1009,1.234,38.588,29.359,32.14,25.747,5.975,6.467,12.998
1010,1.221,38.685,29.54,32.159,25.743,5.974,6.507,12.956
1011,1.211,38.475,29.335,32.121,25.733,6.015,6.549,12.874
1012,1.204,38.482,29.493,32.14,25.74,6.015,6.468,12.873
1013,1.194,38.597,29.526,32.15,25.733,6.056,6.467,12.833
1014,1.191,38.666,29.347,32.15,25.736,5.975,6.507,12.792
1015,1.181,38.609,29.544,32.159,25.74,6.055,6.508,12.873
1016,1.168,38.743,29.331,32.169,25.747,6.097,6.63,12.955
1017,1.145,38.84,29.442,32.15,25.737,6.016,6.55,12.874
1018,1.125,38.879,29.51,32.131,25.736,5.934,6.468,12.833
1019,1.116,38.582,29.241,32.13,25.736,5.933,6.467,12.792
1020,1.102,38.704,29.512,32.111,25.726,5.933,6.426,12.71
1021,1.08,38.83,29.557,32.13,25.736,5.974,6.385,12.668
1022,1.063,38.898,29.327,32.14,25.74,5.893,6.425,12.831
1023,1.05,38.755,29.532,32.121,25.733,5.973,6.385,12.914
1024,1.037,38.869,29.284,32.14,25.733,5.933,6.425,12.996
1025,1.037,38.985,29.438,32.13,25.733,5.892,6.426,13.078
1026,1.017,39.053,29.549,32.14,25.736,5.933,6.426,13.079
1027,0.997,38.872,29.394,32.14,25.736,5.933,6.466,13.16
1028,0.978,38.994,29.587,32.121,25.723,5.892,6.386,13.202
1029,0.974,39.12,29.359,32.149,25.729,5.811,6.385,13.08
1030,0.971,39.16,29.548,32.15,25.733,5.891,6.425,13.241
1031,0.961,38.882,29.312,32.159,25.74,5.973,6.426,13.202
1032,0.955,39.004,29.465,32.159,25.736,5.974,6.507,13.243
1033,0.941,39.12,29.514,32.179,25.74,6.015,6.508,13.202
1034,0.935,39.448,29.327,32.16,25.736,6.015,6.467,13.202
1035,0.925,38.962,29.532,32.15,25.743,6.015,6.426,13.243
1036,0.922,39.072,29.284,32.15,25.73,6.015,6.466,13.243
1037,0.905,39.179,29.473,32.15,25.736,6.015,6.386,13.243
1038,0.908,38.854,29.53,32.159,25.736,6.096,6.425,13.284
1039,0.908,38.898,29.472,32.159,25.736,6.056,6.385,13.203
1040,0.905,39.014,29.389,32.198,25.747,6.137,6.466,13.283
1041,0.886,39.092,29.497,32.179,25.75,6.219,6.467,13.325
1042,0.869,38.997,29.526,32.169,25.74,6.139,6.426,13.284
1043,0.859,39.12,29.323,32.15,25.74,6.016,6.466,13.243
1044,0.849,39.227,29.493,32.14,25.726,6.056,6.345,13.243
1045,0.84,39.314,29.444,32.14,25.729,6.015,6.303,13.243
1046,0.833,38.788,29.408,32.14,25.733,6.056,6.343,13.284
1047,0.826,38.926,29.576,32.159,25.74,6.137,6.343,13.365
1048,0.817,39.033,29.32,32.169,25.729,6.179,6.343,13.447
1049,0.82,39.092,29.485,32.16,25.736,6.098,6.343,13.448
1050,0.82,38.891,29.565,32.169,25.736,6.138,6.303,13.408
1051,0.813,38.975,29.367,32.16,25.733,6.057,6.302,13.285
1052,0.807,39.111,29.525,32.14,25.726,6.056,6.221,13.162
1053,0.813,39.169,29.413,32.169,25.726,6.056,6.22,13.161
1054,0.82,38.863,29.42,32.188,25.736,6.219,6.383,13.323
1055,0.82,38.994,29.58,32.188,25.74,6.18,6.425,13.325
1056,0.82,39.101,29.355,32.179,25.736,6.261,6.426,13.325
1057,0.817,39.131,29.579,32.179,25.74,6.18,6.385,13.284
1058,0.82,38.949,29.351,32.179,25.736,6.22,6.385,13.243
1059,0.813,39.082,29.419,32.179,25.736,6.139,6.385,13.202
1060,0.803,39.179,29.564,32.188,25.736,6.26,6.385,13.243
1061,0.797,39.429,29.363,32.179,25.733,6.221,6.385,13.202
1062,0.807,38.847,29.548,32.198,25.74,6.261,6.385,13.202
1063,0.794,38.965,29.312,32.227,25.74,6.384,6.588,13.283
1064,0.774,39.034,29.54,32.198,25.743,6.344,6.468,13.365
1065,0.761,38.776,29.534,32.198,25.736,6.303,6.345,13.204
1066,0.761,38.83,29.366,32.169,25.736,6.221,6.384,13.202
1067,0.767,38.937,29.54,32.16,25.733,6.098,6.344,13.121
1068,0.754,39.005,29.265,32.179,25.729,6.219,6.384,13.079
1069,0.761,38.651,29.426,32.179,25.729,6.139,6.385,13.079
1070,0.754,38.8,29.564,32.198,25.729,6.179,6.466,13.079
1071,0.764,38.898,29.347,32.198,25.729,6.22,6.386,13.079
1072,0.764,38.956,29.517,32.208,25.733,6.22,6.466,13.038
1073,0.761,38.516,29.549,32.189,25.729,6.261,6.467,12.956
1074,0.767,38.646,29.386,32.188,25.733,6.139,6.467,12.956
1075,0.77,38.772,29.548,32.198,25.722,6.057,6.386,12.915
1076,0.777,38.869,29.277,32.198,25.74,6.137,6.425,12.955
1077,0.777,38.582,29.489,32.198,25.74,6.179,6.466,12.996
1078,0.78,38.742,29.51,32.217,25.74,6.261,6.548,13.037
1079,0.777,38.821,29.362,32.208,25.74,6.18,6.508,13.078
1080,0.771,38.879,29.548,32.208,25.74,6.22,6.549,12.957
1081,0.774,38.544,29.296,32.217,25.743,6.18,6.549,13.037
1082,0.764,38.694,29.442,32.198,25.736,6.179,6.508,13.038
1083,0.767,38.801,29.279,32.208,25.743,6.179,6.427,13.119
1084,0.767,38.812,29.453,32.208,25.74,6.139,6.507,13.201
1085,0.757,38.39,29.561,32.208,25.736,6.098,6.467,13.202
1086,0.757,38.529,29.339,32.217,25.733,6.056,6.426,13.202
1087,0.77,38.655,29.559,32.237,25.743,6.219,6.548,13.283
1088,0.757,38.801,29.245,32.256,25.74,6.22,6.549,13.447
1089,0.748,38.495,29.461,32.237,25.736,6.22,6.59,13.367
1090,0.747,38.578,29.526,32.208,25.733,6.017,6.468,13.285
1091,0.751,38.675,29.401,32.208,25.733,6.015,6.386,13.203
1092,0.748,38.014,29.525,32.217,25.733,6.056,6.303,13.121
1093,0.754,38.008,29.284,32.218,25.733,6.015,6.343,13.12
1094,0.761,38.142,29.547,32.227,25.729,5.974,6.343,13.201
1095,0.761,38.258,29.292,32.227,25.733,5.974,6.343,13.202
1096,0.757,38.288,29.477,32.218,25.733,5.974,6.384,13.202
1097,0.774,38.413,29.592,32.227,25.733,6.096,6.425,13.161
1098,0.767,38.51,29.273,32.227,25.74,6.016,6.385,13.161
1099,0.757,38.588,29.508,32.208,25.733,5.974,6.385,13.202
1100,0.761,37.956,29.471,32.208,25.733,5.933,6.303,13.121
1101,0.754,38.113,29.432,32.227,25.729,5.974,6.262,13.039
1102,0.751,38.239,29.506,32.246,25.74,6.096,6.465,13.16
1103,0.764,38.288,29.303,32.247,25.74,6.097,6.507,13.283
1104,0.748,38.221,29.547,32.247,25.747,6.097,6.386,13.406
1105,0.751,38.355,29.585,32.256,25.743,6.138,6.385,13.489
1106,0.744,38.471,29.363,32.247,25.736,6.057,6.385,13.449
1107,0.744,38.501,29.536,32.256,25.74,6.015,6.385,13.448
1108,0.734,37.965,29.284,32.247,25.74,6.015,6.385,13.408
1109,0.738,38.103,29.528,32.256,25.736,6.056,6.344,13.407
1110,0.731,38.201,29.339,32.237,25.733,5.934,6.303,13.326
1111,0.757,38.24,29.466,32.256,25.736,6.014,6.302,13.325
1112,0.77,38.029,29.576,32.295,25.75,6.218,6.465,13.366
1113,0.774,38.142,29.32,32.276,25.75,6.18,6.467,13.325
1114,0.767,38.22,29.516,32.247,25.737,6.098,6.386,13.325
1115,0.754,38.278,29.561,32.237,25.733,6.056,6.344,13.122
1116,0.764,37.972,29.347,32.218,25.733,6.015,6.303,13.039
1117,0.761,38.094,29.563,32.237,25.729,5.974,6.302,12.997
1118,0.78,38.191,29.288,32.227,25.733,6.055,6.262,12.915
1119,0.777,37.808,29.469,32.237,25.733,5.975,6.302,12.915
1120,0.774,37.881,29.545,32.237,25.733,6.096,6.262,12.915
1121,0.774,37.987,29.425,32.227,25.733,6.016,6.302,12.996
1122,0.767,38.084,29.513,32.246,25.726,6.056,6.302,12.956
1123,0.767,37.769,29.214,32.247,25.74,6.056,6.262,13.037
1124,0.757,37.871,29.429,32.237,25.733,6.015,6.18,13.038
1125,0.757,38.016,29.556,32.227,25.726,5.974,6.139,12.956
1126,0.757,38.113,29.327,32.256,25.736,6.055,6.26,13.037
1127,0.761,37.692,29.528,32.275,25.74,6.056,6.221,13.078
1128,0.751,37.832,29.315,32.276,25.74,6.056,6.302,13.079
1129,0.754,37.958,29.501,32.352,25.747,6.137,6.302,13.038
1130,0.754,38.026,29.284,32.276,25.737,6.057,6.384,12.997
1131,0.764,38.142,29.5,32.266,25.74,6.097,6.303,12.996
1132,0.757,38.278,29.569,32.256,25.736,6.138,6.302,12.996
1133,0.764,38.375,29.363,32.275,25.733,6.016,6.262,13.037
1134,0.761,38.433,29.54,32.276,25.733,6.015,6.302,12.997
1135,0.764,37.36,29.253,32.276,25.736,6.056,6.262,13.037
1136,0.78,37.503,29.469,32.295,25.736,6.137,6.302,12.956
1137,0.78,37.6,29.549,32.295,25.747,6.138,6.465,13.078
1138,0.78,37.582,29.362,32.276,25.743,6.057,6.467,12.997
1139,0.774,37.668,29.528,32.247,25.726,5.975,6.304,12.875
1140,0.771,37.793,29.257,32.266,25.733,5.974,6.18,12.873
1141,0.767,37.891,29.48,32.256,25.74,5.974,6.22,12.914
1142,0.761,37.882,29.498,32.247,25.733,5.974,6.22,12.874
1143,0.761,37.642,29.354,32.266,25.726,5.933,6.261,12.914
1144,0.754,37.764,29.54,32.275,25.736,6.055,6.262,12.996
1145,0.757,37.871,29.249,32.276,25.74,6.015,6.262,13.078
1146,0.754,37.508,29.434,32.285,25.74,5.974,6.262,13.079
1147,0.738,37.552,29.525,32.266,25.733,5.974,6.302,13.201
1148,0.738,37.687,29.432,32.247,25.726,5.893,6.262,13.121
1149,0.751,37.774,29.533,32.275,25.726,5.892,6.262,12.957
1150,0.754,37.44,29.284,32.276,25.733,5.973,6.343,12.996
1151,0.767,37.571,29.559,32.295,25.747,5.974,6.384,13.037
1152,0.77,37.687,29.335,32.295,25.74,5.974,6.385,13.078
1153,0.767,37.774,29.52,32.305,25.743,6.055,6.466,13.079
1154,0.77,37.44,29.397,32.295,25.736,6.015,6.426,13.079
1155,0.767,37.58,29.4,32.305,25.733,5.974,6.385,13.038
1156,0.774,37.697,29.56,32.314,25.736,5.974,6.425,13.119
1157,0.777,37.746,29.351,32.286,25.733,5.893,6.466,13.079
1158,0.774,37.43,29.52,32.304,25.726,5.851,6.345,13.038
1159,0.784,37.59,29.288,32.295,25.733,5.851,6.343,12.956
1160,0.78,37.697,29.453,32.324,25.747,6.013,6.425,12.996
1161,0.78,37.746,29.588,32.324,25.75,5.974,6.507,13.2
1162,0.764,37.353,29.261,32.305,25.743,5.933,6.427,13.202
1163,0.757,37.464,29.465,32.276,25.726,5.77,6.385,13.121
1164,0.751,37.561,29.549,32.285,25.729,5.85,6.303,13.039
1165,0.748,37.601,29.316,32.285,25.729,5.81,6.302,13.16
1166,0.741,37.39,29.532,32.295,25.733,5.769,6.262,13.12
1167,0.741,37.512,29.253,32.295,25.729,5.809,6.343,13.201
1168,0.738,37.61,29.445,32.305,25.733,5.728,6.384,13.121
1169,0.741,37.572,29.549,32.305,25.733,5.85,6.344,13.079
1170,0.751,37.37,29.3,32.324,25.736,5.851,6.262,13.119
1171,0.751,37.484,29.579,32.305,25.74,5.851,6.424,13.039
1172,0.744,37.542,29.32,32.285,25.726,5.769,6.263,13.038
1173,0.754,37.178,29.481,32.295,25.726,5.728,6.262,12.875
1174,0.78,37.271,29.549,32.314,25.733,5.809,6.343,12.914
1175,0.78,37.396,29.362,32.314,25.74,5.891,6.425,12.955
1176,0.79,37.474,29.556,32.343,25.733,5.892,6.507,12.915
1177,0.784,37.283,29.284,32.334,25.743,5.933,6.508,12.874
1178,0.787,37.406,29.442,32.314,25.736,5.852,6.467,12.873
1179,0.774,37.532,29.545,32.353,25.736,5.851,6.426,12.833
1180,0.761,37.6,29.269,32.334,25.736,5.851,6.385,12.751
1181,0.761,37.074,29.531,32.314,25.733,5.81,6.425,12.791
1182,0.754,37.193,29.534,32.324,25.733,5.85,6.426,12.751
1183,0.761,37.348,29.394,32.324,25.729,5.891,6.385,12.791
1184,0.757,37.426,29.556,32.353,25.747,5.892,6.466,12.832
1185,0.748,37.225,29.273,32.363,25.75,5.933,6.467,13.036
1186,0.747,37.357,29.492,32.344,25.743,5.892,6.507,13.078
1187,0.738,37.435,29.53,32.334,25.733,5.811,6.427,12.916
1188,0.731,37.484,29.323,32.324,25.726,5.769,6.344,12.874
1189,0.741,37.12,29.501,32.305,25.733,5.728,6.221,12.873
1190,0.734,37.232,29.264,32.305,25.733,5.687,6.342,12.873
1191,0.754,37.348,29.477,32.314,25.733,5.646,6.343,12.792
1192,0.751,37.359,29.561,32.324,25.736,5.767,6.343,12.873
1193,0.751,37.062,29.327,32.334,25.736,5.768,6.384,12.792
1194,0.757,37.212,29.505,32.324,25.733,5.768,6.425,12.873
1195,0.751,37.319,29.245,32.353,25.733,5.809,6.385,12.955
1196,0.735,37.138,29.434,32.315,25.726,5.769,6.385,12.915
1197,0.757,37.002,29.537,32.305,25.722,5.687,6.303,12.752
1198,0.761,37.144,29.323,32.333,25.733,5.809,6.302,12.669
1199,0.761,37.27,29.532,32.343,25.736,5.81,6.343,12.831
1200,0.761,37.003,29.276,32.353,25.74,5.891,6.425,12.914
1201,0.754,37.106,29.5,32.353,25.74,5.973,6.385,12.915
1202,0.751,37.212,29.522,32.353,25.74,5.852,6.385,12.955
1203,0.744,37.329,29.39,32.363,25.736,5.891,6.425,12.996
1204,0.741,36.927,29.533,32.353,25.74,5.892,6.385,12.996
1205,0.741,37.057,29.288,32.353,25.736,5.851,6.344,13.078
1206,0.738,37.174,29.508,32.353,25.736,5.891,6.303,13.079
1207,0.734,37.251,29.487,32.353,25.736,5.892,6.302,13.16
1208,0.734,36.945,29.385,32.363,25.729,5.811,6.343,13.12
1209,0.747,37.115,29.544,32.382,25.747,5.891,6.262,13.079
1210,0.744,37.222,29.284,32.382,25.747,5.973,6.424,13.16
1211,0.741,37.233,29.547,32.363,25.747,5.893,6.304,13.12
1212,0.734,36.907,29.277,32.334,25.73,5.851,6.262,12.876
1213,0.738,37.067,29.465,32.343,25.733,5.769,6.221,12.914
1214,0.751,37.145,29.518,32.343,25.726,5.809,6.22,12.874
1215,0.751,37.203,29.37,32.343,25.726,5.81,6.098,12.873
1216,0.757,36.926,29.525,32.334,25.733,5.81,6.219,12.751
1217,0.754,37.057,29.323,32.334,25.733,5.81,6.261,12.791
1218,0.761,37.154,29.559,32.353,25.733,5.932,6.221,12.71
1219,0.751,37.184,29.331,32.353,25.736,5.892,6.22,12.709
1220,0.741,36.954,29.407,32.353,25.733,5.973,6.22,12.709
1221,0.728,37.067,29.595,32.334,25.729,5.893,6.18,12.709
1222,0.731,37.174,29.308,32.324,25.726,5.851,6.139,12.668
1223,0.747,37.031,29.489,32.334,25.729,5.891,6.138,12.749
1224,0.734,36.895,29.51,32.353,25.733,5.933,6.219,12.791
1225,0.728,37.038,29.378,32.382,25.736,6.014,6.22,13.076
1226,0.734,37.145,29.56,32.43,25.736,6.015,6.22,13.038
1227,0.725,36.954,29.265,32.363,25.74,6.015,6.302,13.038
1228,0.721,37.067,29.535,32.382,25.74,6.056,6.343,13.078
1229,0.731,37.174,29.206,32.392,25.736,5.934,6.262,13.079
1230,0.734,37.271,29.414,32.382,25.74,5.974,6.262,12.957
1231,0.738,36.811,29.568,32.363,25.736,5.974,6.221,12.996
1232,0.731,36.951,29.406,32.372,25.733,5.974,6.22,12.996
1233,0.741,37.115,29.548,32.392,25.74,5.974,6.302,13.037
1234,0.751,37.174,29.308,32.411,25.75,6.096,6.343,13.078
1235,0.744,36.964,29.485,32.392,25.747,6.056,6.343,13.16
1236,0.744,37.096,29.541,32.44,25.737,5.934,6.343,13.12
1237,0.731,37.203,29.37,32.354,25.733,5.811,6.303,12.998
1238,0.734,37.261,29.595,32.353,25.729,5.85,6.221,12.956
1239,0.731,37.013,29.293,32.372,25.726,5.81,6.18,12.956
1240,0.734,37.135,29.368,32.353,25.726,5.85,6.179,12.956
1241,0.731,37.232,29.556,32.382,25.729,5.851,6.179,12.956
1242,0.731,37.281,29.386,32.372,25.733,5.851,6.139,13.037
1243,0.728,36.946,29.505,32.382,25.729,5.932,6.098,13.119
1244,0.725,37.067,29.37,32.372,25.733,5.892,6.178,13.16
1245,0.711,37.174,29.486,32.372,25.733,5.811,6.22,13.202
1246,0.715,37.175,29.455,32.363,25.722,5.769,6.22,13.243
1247,0.715,36.973,29.334,32.382,25.726,5.768,6.18,13.202
1248,0.721,37.106,29.587,32.392,25.733,5.891,6.139,13.243
1249,0.721,37.193,29.183,32.411,25.74,5.851,6.219,13.202
1250,0.734,37.117,29.406,32.402,25.743,5.851,6.22,13.283
1251,0.728,37.107,29.552,32.411,25.733,5.891,6.22,13.243
1252,0.734,37.203,29.366,32.411,25.733,5.851,6.18,13.243
1253,0.738,37.29,29.525,32.392,25.74,5.851,6.261,13.202
1254,0.734,37.032,29.542,32.401,25.74,5.932,6.139,13.161
1255,0.725,37.145,29.362,32.382,25.736,5.933,6.138,13.202
1256,0.731,37.251,29.528,32.411,25.736,5.933,6.179,13.202
1257,0.747,37.358,29.257,32.411,25.733,5.933,6.139,13.202
1258,0.747,37.368,29.508,32.402,25.74,6.014,6.098,13.121
1259,0.741,37.512,29.456,32.44,25.75,6.015,6.341,13.16
1260,0.734,37.6,29.319,32.411,25.743,6.015,6.221,13.12
1261,0.725,37.658,29.555,32.402,25.747,5.974,6.139,13.12
1262,0.715,36.863,29.265,32.373,25.73,5.974,6.098,13.039
1263,0.711,36.999,29.453,32.411,25.729,5.933,6.056,13.078
1264,0.715,37.135,29.514,32.382,25.722,5.892,6.056,13.16
1265,0.718,37.203,29.276,32.392,25.736,5.973,6.015,13.161
1266,0.705,37.175,29.477,32.411,25.733,5.933,6.096,13.242
1267,0.708,37.328,29.21,32.392,25.729,5.974,6.097,13.284
1268,0.711,37.445,29.484,32.411,25.733,5.974,6.138,13.325
1269,0.715,37.465,29.471,32.43,25.74,5.933,6.179,13.284
1270,0.698,37.091,29.362,32.392,25.733,5.974,6.179,13.243
1271,0.718,37.231,29.536,32.382,25.726,5.811,5.976,13.04
1272,0.724,37.348,29.382,32.392,25.726,5.891,6.055,13.038
1273,0.728,37.368,29.54,32.42,25.736,5.973,6.097,13.119
1274,0.734,37.186,29.277,32.421,25.74,5.974,6.178,13.079
1275,0.734,37.309,29.516,32.43,25.74,5.974,6.22,13.201
1276,0.747,37.406,29.335,32.421,25.74,5.974,6.18,13.121
1277,0.747,37.254,29.415,32.43,25.733,5.974,6.22,13.039
1278,0.738,37.214,29.568,32.43,25.736,6.015,6.261,13.038
1279,0.738,37.357,29.308,32.43,25.736,5.893,6.221,13.038
1280,0.738,37.464,29.512,32.43,25.733,5.851,6.261,12.997
1281,0.728,37.139,29.417,32.43,25.74,5.973,6.262,12.956
1282,0.741,37.251,29.451,32.43,25.743,5.933,6.139,13.037
1283,0.741,37.396,29.549,32.43,25.743,5.974,6.26,13.078
1284,0.731,37.474,29.3,32.469,25.747,6.055,6.343,13.241
1285,0.708,37.187,29.489,32.44,25.74,6.015,6.343,13.243
1286,0.708,37.309,29.545,32.411,25.733,5.974,6.262,13.202
1287,0.692,37.454,29.394,32.43,25.726,5.893,6.18,13.161
1288,0.698,37.494,29.595,32.421,25.722,5.892,6.139,13.12
1289,0.705,37.082,29.304,32.411,25.726,5.892,6.179,13.079
1290,0.702,37.203,29.508,32.43,25.726,5.933,6.22,13.119
1291,0.701,37.328,29.569,32.43,25.736,5.974,6.261,13.079
1292,0.708,37.378,29.402,32.44,25.729,5.974,6.18,13.119
1293,0.715,37.215,29.537,32.431,25.736,5.974,6.261,13.12
1294,0.721,37.329,29.276,32.43,25.733,5.933,6.221,13.079
1295,0.724,37.426,29.461,32.421,25.733,5.892,6.261,13.201
1296,0.734,37.475,29.529,32.43,25.719,5.892,6.099,13.121
1297,0.738,37.37,29.354,32.45,25.726,5.851,6.26,13.079
1298,0.741,37.503,29.575,32.459,25.733,5.891,6.343,13.201
1299,0.738,37.6,29.296,32.46,25.74,5.973,6.303,13.243
1300,0.725,37.611,29.5,32.45,25.74,5.974,6.302,13.243
1301,0.721,37.237,29.577,32.45,25.733,5.893,6.302,13.324
1302,0.724,37.338,29.382,32.459,25.736,5.933,6.343,13.366
1303,0.724,37.464,29.556,32.469,25.74,5.974,6.303,13.488
1304,0.715,37.293,29.245,32.469,25.743,5.933,6.221,13.49
1305,0.708,37.253,29.43,32.46,25.736,5.852,6.261,13.449
1306,0.708,37.396,29.447,32.469,25.743,5.891,6.262,13.53
1307,0.705,37.493,29.319,32.469,25.736,5.851,6.302,13.531
1308,0.718,37.255,29.555,32.479,25.747,5.851,6.262,13.449
1309,0.718,37.406,29.21,32.498,25.75,5.973,6.384,13.57
1310,0.705,37.474,29.39,32.479,25.74,5.974,6.385,13.531
1311,0.711,37.542,29.544,32.469,25.733,5.852,6.303,13.449
1312,0.695,37.226,29.386,32.45,25.743,5.81,6.262,13.326
1313,0.714,37.357,29.529,32.469,25.73,5.769,6.221,13.244
1314,0.728,37.493,29.276,32.45,25.729,5.809,6.22,13.202
1315,0.738,37.571,29.485,32.469,25.733,5.81,6.261,13.243
1316,0.741,37.083,29.467,32.517,25.733,5.85,6.221,13.202
1317,0.738,37.231,29.408,32.45,25.733,5.81,6.22,13.08
1318,0.747,37.338,29.548,32.469,25.736,5.769,6.22,13.201
1319,0.728,37.387,29.195,32.469,25.736,5.809,6.18,13.08
1320,0.721,37.186,29.445,32.46,25.729,5.81,6.22,13.038
1321,0.724,37.328,29.276,32.479,25.726,5.769,6.18,12.997
1322,0.728,37.435,29.485,32.45,25.733,5.809,6.179,12.996
1323,0.728,37.503,29.553,32.488,25.733,5.85,6.301,13.119
1324,0.712,37.293,29.316,32.498,25.736,5.851,6.302,13.201
1325,0.721,37.425,29.559,32.489,25.733,5.932,6.343,13.324
1326,0.708,37.513,29.327,32.489,25.74,5.892,6.303,13.366
1327,0.715,37.552,29.501,32.498,25.743,5.933,6.425,13.244
1328,0.702,37.303,29.499,32.498,25.736,5.892,6.304,13.202
1329,0.708,37.406,29.37,32.508,25.736,5.851,6.343,13.202
1330,0.705,37.532,29.505,32.498,25.74,5.973,6.384,13.202
1331,0.715,37.14,29.288,32.508,25.733,5.893,6.425,13.08
1332,0.715,37.088,29.532,32.489,25.736,5.892,6.426,13.038
1333,0.731,37.251,29.3,32.527,25.74,5.892,6.344,13.038
1334,0.731,37.348,29.473,32.527,25.747,6.014,6.547,13.119
1335,0.738,37.196,29.545,32.527,25.737,5.974,6.549,13.12
1336,0.725,37.3,29.312,32.527,25.733,5.852,6.427,13.079
1337,0.741,37.416,29.497,32.489,25.729,5.851,6.385,13.038
1338,0.734,37.484,29.299,32.489,25.733,5.81,6.425,12.916
1339,0.738,37.015,29.418,32.489,25.726,5.85,6.385,12.833
1340,0.731,37.164,29.498,32.479,25.729,5.769,6.344,12.954
1341,0.721,37.299,29.362,32.488,25.729,5.809,6.425,12.956
1342,0.721,37.349,29.567,32.508,25.733,5.85,6.385,13.037
1343,0.721,37.023,29.261,32.517,25.733,5.81,6.425,13.119
1344,0.708,37.154,29.481,32.508,25.736,5.81,6.466,13.16
1345,0.702,37.27,29.53,32.489,25.726,5.769,6.386,13.161
1346,0.708,37.339,29.261,32.479,25.729,5.728,6.263,13.08
1347,0.705,37.119,29.5,32.517,25.736,5.809,6.424,13.16
1348,0.708,37.289,29.358,32.527,25.743,5.85,6.466,13.202
1349,0.708,37.387,29.4,32.537,25.74,5.729,6.467,13.283
1350,0.718,37.407,29.54,32.527,25.736,5.809,6.426,13.284
1351,0.715,37.033,29.284,32.518,25.74,5.85,6.385,13.203
1352,0.715,37.164,29.543,32.518,25.736,5.769,6.425,13.121
1353,0.721,37.261,29.312,32.537,25.726,5.728,6.385,13.12
1354,0.731,37.521,29.477,32.537,25.736,5.768,6.425,13.16
1355,0.715,37.044,29.545,32.537,25.736,5.768,6.466,13.12
1356,0.737,37.202,29.3,32.547,25.733,5.809,6.345,13.12
1357,0.751,37.309,29.536,32.556,25.747,5.891,6.466,13.12
1358,0.741,36.956,29.308,32.556,25.761,5.933,6.548,13.242
1359,0.728,36.942,29.383,32.537,25.737,5.852,6.468,13.162
1360,0.715,37.057,29.49,32.518,25.733,5.688,6.386,13.12
1361,0.715,37.154,29.385,32.518,25.733,5.687,6.385,13.079
1362,0.715,36.877,29.54,32.527,25.729,5.727,6.344,13.119
1363,0.715,36.999,29.273,32.518,25.729,5.727,6.303,13.16
1364,0.708,37.144,29.461,32.537,25.733,5.727,6.384,13.202
1365,0.708,37.194,29.498,32.527,25.729,5.768,6.385,13.243
1366,0.702,36.954,29.331,32.537,25.733,5.728,6.425,13.243
1367,0.705,37.105,29.391,32.556,25.74,5.809,6.304,13.284
1368,0.698,37.193,29.431,32.547,25.733,5.769,6.425,13.284
1369,0.692,37.271,29.494,32.527,25.722,5.768,6.344,13.203
1370,0.718,36.84,29.249,32.527,25.722,5.728,6.303,13.039
1371,0.728,36.999,29.469,32.546,25.74,5.727,6.384,13.119
1372,0.728,37.106,29.323,32.566,25.743,5.809,6.425,13.12
1373,0.728,37.155,29.419,32.566,25.74,5.85,6.385,13.16
1374,0.731,36.81,29.533,32.576,25.743,5.81,6.507,13.202
1375,0.725,36.941,29.237,32.556,25.736,5.769,6.467,13.121
1376,0.728,37.067,29.508,32.566,25.736,5.809,6.467,13.12
1377,0.734,37.107,29.417,32.556,25.736,5.81,6.467,13.079
1378,0.728,36.829,29.412,32.547,25.733,5.728,6.386,12.997
1379,0.725,36.97,29.548,32.595,25.733,5.809,6.425,12.834
1380,0.731,37.115,29.288,32.576,25.733,5.85,6.385,12.873
1381,0.734,37.433,29.524,32.604,25.743,5.81,6.466,12.914
1382,0.728,36.803,29.557,32.595,25.743,5.932,6.507,13.037
1383,0.712,36.912,29.339,32.576,25.736,5.77,6.508,13.078
1384,0.702,37.0,29.489,32.547,25.729,5.728,6.345,12.957
1385,0.698,36.857,29.206,32.556,25.729,5.646,6.343,12.956
1386,0.708,36.922,29.437,32.575,25.726,5.645,6.343,12.956
1387,0.705,37.048,29.494,32.576,25.729,5.686,6.384,12.996
1388,0.705,37.126,29.42,32.576,25.729,5.727,6.385,13.037
1389,0.708,36.628,29.533,32.624,25.729,5.727,6.385,12.956
1390,0.715,36.747,29.269,32.595,25.736,5.727,6.466,13.037
1391,0.695,36.864,29.531,32.585,25.733,5.727,6.386,12.956
1392,0.708,36.913,29.581,32.547,25.722,5.687,6.425,12.915
1393,0.711,36.568,29.367,32.556,25.722,5.605,6.304,12.833
1394,0.715,36.737,29.536,32.575,25.733,5.686,6.425,12.873
1395,0.724,36.854,29.249,32.585,25.74,5.809,6.466,12.914
1396,0.734,36.941,29.484,32.605,25.74,5.769,6.467,12.955
1397,0.731,36.645,29.545,32.576,25.74,5.768,6.426,12.915
1398,0.728,36.767,29.44,32.585,25.74,5.768,6.466,12.915
1399,0.725,36.883,29.525,32.585,25.736,5.768,6.467,12.955
1400,0.718,36.923,29.311,32.595,25.736,5.728,6.507,12.874
1401,0.708,36.559,29.536,32.605,25.736,5.727,6.427,12.914
1402,0.721,36.689,29.327,32.605,25.736,5.768,6.466,12.915
1403,0.728,36.825,29.509,32.605,25.733,5.809,6.426,13.037
1404,0.718,36.864,29.518,32.624,25.74,5.769,6.507,12.997
1405,0.708,36.692,29.378,32.624,25.747,5.891,6.549,13.2
1406,0.708,36.815,29.497,32.605,25.743,5.77,6.59,13.121
1407,0.695,36.912,29.276,32.605,25.733,5.768,6.468,13.12
1408,0.698,37.086,29.547,32.586,25.733,5.687,6.345,12.998
1409,0.688,36.503,29.468,32.595,25.726,5.687,6.343,12.996
1410,0.701,36.612,29.362,32.595,25.726,5.687,6.343,12.915
1411,0.711,36.728,29.521,32.605,25.736,5.768,6.303,12.915
1412,0.708,36.557,29.382,32.595,25.733,5.687,6.343,12.874
1413,0.711,36.622,29.509,32.605,25.74,5.727,6.384,12.914
1414,0.718,36.747,29.237,32.605,25.733,5.687,6.425,12.874
1415,0.718,36.825,29.414,32.614,25.733,5.727,6.385,12.914
1416,0.724,36.423,29.482,32.586,25.719,5.605,6.385,12.833
1417,0.731,36.573,29.264,32.624,25.733,5.645,6.344,12.792
1418,0.734,36.699,29.551,32.614,25.736,5.686,6.466,12.791
1419,0.741,36.777,29.402,32.624,25.74,5.849,6.467,12.873
1420,0.741,36.365,29.373,32.634,25.743,5.729,6.426,12.914
1421,0.721,36.476,29.525,32.634,25.736,5.727,6.426,12.915
1422,0.721,36.631,29.315,32.624,25.736,5.727,6.426,12.915
1423,0.715,36.68,29.485,32.643,25.733,5.727,6.507,12.955
1424,0.718,36.431,29.514,32.615,25.729,5.768,6.467,12.996
1425,0.698,36.582,29.432,32.624,25.736,5.768,6.467,12.956
1426,0.698,36.699,29.517,32.634,25.736,5.687,6.426,13.078
1427,0.692,36.767,29.284,32.634,25.736,5.768,6.385,13.038
1428,0.701,36.432,29.535,32.643,25.743,5.728,6.466,12.997
1429,0.701,36.554,29.495,32.672,25.747,5.85,6.507,13.119
1430,0.701,36.641,29.362,32.653,25.747,5.851,6.508,13.12
1431,0.708,36.661,29.513,32.644,25.733,5.729,6.305,12.998
1432,0.705,36.345,29.292,32.615,25.733,5.646,6.343,12.875
1433,0.705,36.466,29.438,32.634,25.722,5.605,6.262,12.873
1434,0.718,36.592,29.506,32.624,25.729,5.645,6.18,12.873
1435,0.721,36.67,29.303,32.643,25.733,5.727,6.261,12.792
1436,0.715,36.249,29.485,32.643,25.729,5.727,6.343,12.913
1437,0.721,36.398,29.213,32.643,25.733,5.687,6.262,12.874
1438,0.728,36.486,29.472,32.643,25.736,5.727,6.302,12.873
1439,0.725,36.362,29.448,32.643,25.733,5.727,6.302,12.914
1440,0.708,36.428,29.279,32.643,25.736,5.687,6.302,12.915
1441,0.708,36.534,29.524,32.615,25.723,5.564,6.18,12.792
1442,0.708,36.67,29.315,32.643,25.729,5.726,6.22,12.873
1443,0.708,36.125,29.407,32.672,25.733,5.727,6.302,12.955
1444,0.708,36.224,29.521,32.663,25.733,5.809,6.384,13.078
1445,0.708,36.369,29.257,32.663,25.736,5.81,6.344,13.119
1446,0.698,36.438,29.438,32.672,25.729,5.81,6.343,13.079
1447,0.695,36.18,29.416,32.672,25.733,5.769,6.262,13.119
1448,0.698,36.321,29.439,32.682,25.74,5.768,6.302,12.998
1449,0.692,36.447,29.51,32.682,25.74,5.809,6.262,13.037
1450,0.688,36.506,29.28,32.673,25.736,5.728,6.302,13.038
1451,0.714,36.257,29.52,32.672,25.733,5.768,6.262,12.956
1452,0.721,36.427,29.374,32.692,25.743,5.768,6.221,12.956
1453,0.724,36.525,29.447,32.711,25.747,5.809,6.342,12.996
1454,0.721,36.564,29.568,32.682,25.74,5.81,6.303,13.119
1455,0.715,36.123,29.253,32.663,25.736,5.728,6.262,13.079
1456,0.718,36.244,29.41,32.663,25.726,5.605,6.221,12.916
1457,0.721,36.36,29.369,32.663,25.729,5.645,6.139,12.874
1458,0.718,36.38,29.454,32.663,25.729,5.645,6.179,12.873
1459,0.731,36.179,29.49,32.653,25.733,5.645,6.139,12.955
1460,0.718,36.321,29.296,32.653,25.733,5.645,6.219,12.956
1461,0.708,36.428,29.5,32.672,25.726,5.645,6.139,12.996
1462,0.718,36.439,29.37,32.672,25.733,5.645,6.219,13.037
1463,0.711,36.151,29.548,32.701,25.736,5.727,6.18,13.078
1464,0.695,36.263,29.374,32.663,25.726,5.646,6.22,13.038
1465,0.695,36.36,29.376,32.682,25.722,5.564,6.058,12.997
1466,0.701,36.102,29.482,32.682,25.729,5.604,6.056,13.037
1467,0.705,36.186,29.252,32.711,25.743,5.726,6.137,13.078
1468,0.708,36.311,29.539,32.702,25.733,5.727,6.301,13.119
1469,0.711,36.38,29.483,32.711,25.74,5.727,6.221,13.039
1470,0.715,35.987,29.401,32.702,25.736,5.727,6.18,13.038
1471,0.721,36.127,29.544,32.711,25.74,5.687,6.179,12.956
1472,0.721,36.225,29.382,32.702,25.733,5.646,6.139,12.956
1473,0.721,36.321,29.536,32.701,25.736,5.686,6.138,12.915
1474,0.721,35.958,29.323,32.701,25.736,5.646,6.138,12.874
1475,0.724,36.117,29.411,32.701,25.736,5.686,6.179,12.914
1476,0.734,36.272,29.466,32.721,25.736,5.687,6.179,12.955
1477,0.744,36.322,29.26,32.74,25.743,5.809,6.261,12.996
1478,0.721,35.977,29.543,32.711,25.743,5.769,6.18,12.956
1479,0.724,36.118,29.214,32.692,25.73,5.728,6.139,12.833
1480,0.728,36.244,29.39,32.673,25.719,5.646,6.057,12.873
1481,0.715,36.312,29.521,32.672,25.719,5.564,6.015,12.711
1482,0.708,35.929,29.413,32.701,25.729,5.563,6.137,12.831
1483,0.708,36.069,29.529,32.711,25.726,5.604,6.098,12.914
1484,0.705,36.166,29.3,32.702,25.729,5.604,6.056,12.955
1485,0.705,36.196,29.504,32.711,25.733,5.645,6.137,13.078
1486,0.708,36.043,29.432,32.721,25.74,5.605,6.098,13.038
1487,0.702,36.166,29.357,32.73,25.733,5.604,6.178,12.997
1488,0.698,36.244,29.54,32.683,25.726,5.523,6.098,13.037
1489,0.708,36.59,29.136,32.701,25.722,5.563,6.056,12.956
1490,0.715,36.805,29.397,32.711,25.729,5.604,6.137,12.915
1491,0.721,36.941,29.501,32.721,25.736,5.645,6.098,12.874
1492,0.721,37.029,29.378,32.73,25.736,5.605,6.138,12.995
1493,0.728,35.754,29.54,32.721,25.736,5.645,6.179,12.915
1494,0.734,35.722,29.198,32.74,25.74,5.605,6.139,12.955
1495,0.734,35.856,29.453,32.731,25.74,5.604,6.098,12.956
1496,0.741,35.934,29.451,32.759,25.729,5.564,6.138,12.956
1497,0.747,35.973,29.319,32.731,25.74,5.563,6.098,12.833
1498,0.747,36.127,29.505,32.721,25.729,5.645,6.138,12.832
1499,0.754,36.282,29.186,32.74,25.733,5.564,6.138,12.832
1500,0.754,36.37,29.437,32.779,25.743,5.604,6.179,12.792
1501,0.744,35.834,29.537,32.769,25.747,5.686,6.22,12.913
1502,0.747,35.943,29.366,32.74,25.74,5.605,6.261,12.915
1503,0.747,36.069,29.489,32.74,25.736,5.564,6.099,12.874
1504,0.751,36.147,29.249,32.731,25.729,5.523,6.097,12.873
1505,0.757,35.947,29.469,32.702,25.726,5.441,6.097,12.873
1506,0.77,36.079,29.233,32.721,25.729,5.481,5.975,12.873
1507,0.77,36.205,29.43,32.73,25.729,5.562,6.096,12.792
1508,0.774,36.264,29.533,32.731,25.729,5.604,6.056,12.832
1509,0.774,35.823,29.315,32.731,25.733,5.604,6.097,12.751
1510,0.777,35.963,29.516,32.74,25.736,5.564,6.097,12.831
1511,0.777,36.06,29.241,32.74,25.729,5.563,6.097,12.751
1512,0.78,36.07,29.496,32.721,25.729,5.523,6.056,12.791
1513,0.774,35.888,29.424,32.721,25.722,5.441,5.975,12.669
1514,0.787,36.03,29.424,32.769,25.733,5.603,6.055,12.709
1515,0.78,36.156,29.529,32.75,25.74,5.686,6.137,12.831
1516,0.777,36.043,29.288,32.769,25.743,5.687,6.098,12.792
1517,0.78,35.888,29.516,32.769,25.736,5.646,6.097,12.791
1518,0.784,36.021,29.284,32.769,25.736,5.645,6.097,12.71
1519,0.777,36.108,29.438,32.76,25.733,5.645,6.138,12.628
1520,0.761,35.831,29.529,32.74,25.747,5.645,6.138,12.627
1521,0.757,35.934,29.327,32.759,25.737,5.645,6.098,12.749
1522,0.751,36.04,29.571,32.76,25.743,5.564,6.097,12.709
1523,0.748,36.137,29.277,32.75,25.736,5.563,6.138,12.79
1524,0.747,35.841,29.469,32.759,25.736,5.563,6.138,12.791
1525,0.754,35.972,29.397,32.788,25.747,5.645,6.179,12.832
1526,0.751,36.098,29.435,32.798,25.754,5.727,6.261,13.036
1527,0.754,36.176,29.521,32.77,25.747,5.646,6.18,13.038
1528,0.764,35.813,29.284,32.769,25.74,5.564,6.139,12.916
1529,0.751,35.934,29.496,32.769,25.729,5.482,6.098,12.874
1530,0.767,36.069,29.518,32.769,25.733,5.481,6.056,12.833
1531,0.79,36.119,29.35,32.769,25.729,5.562,6.056,12.751
1532,0.797,35.803,29.591,32.769,25.726,5.482,6.097,12.791
1533,0.79,35.972,29.261,32.769,25.729,5.481,6.056,12.751
1534,0.813,36.079,29.477,32.779,25.736,5.522,6.137,12.872
1535,0.8,36.138,29.272,32.769,25.74,5.563,6.138,12.873
1536,0.797,35.812,29.453,32.769,25.74,5.482,6.138,12.792
1537,0.813,35.953,29.502,32.75,25.726,5.44,6.098,12.791
1538,0.813,36.06,29.381,32.75,25.726,5.399,6.056,12.669
1539,0.803,36.118,29.505,32.769,25.729,5.44,6.178,12.709
1540,0.794,35.86,29.229,32.779,25.743,5.562,6.301,12.872
1541,0.78,35.982,29.429,32.779,25.74,5.523,6.262,12.914
1542,0.777,36.089,29.553,32.789,25.74,5.482,6.302,12.915
1543,0.767,35.994,29.292,32.798,25.736,5.481,6.343,12.955
1544,0.764,35.878,29.5,32.798,25.733,5.481,6.343,12.874
1545,0.757,36.011,29.276,32.789,25.736,5.44,6.343,12.914
1546,0.754,36.099,29.399,32.769,25.736,5.481,6.262,12.915
1547,0.754,35.774,29.509,32.808,25.733,5.44,6.302,12.915
1548,0.761,35.876,29.253,32.798,25.729,5.399,6.262,12.874
1549,0.764,36.011,29.48,32.798,25.743,5.48,6.302,12.914
1550,0.761,36.099,29.487,32.827,25.75,5.684,6.425,12.915
1551,0.764,35.716,29.311,32.789,25.74,5.564,6.344,12.874
1552,0.751,35.827,29.555,32.789,25.726,5.441,6.262,12.751
1553,0.751,35.953,29.245,32.779,25.722,5.399,6.221,12.628
1554,0.761,36.041,29.41,32.779,25.733,5.399,6.261,12.708
1555,0.751,35.725,29.513,32.769,25.733,5.44,6.302,12.668
1556,0.757,35.875,29.245,32.788,25.719,5.399,6.302,12.749
1557,0.761,35.982,29.461,32.789,25.733,5.399,6.262,12.75
1558,0.767,36.051,29.483,32.789,25.733,5.358,6.221,12.75
1559,0.757,35.783,29.342,32.789,25.74,5.399,6.302,12.831
1560,0.741,35.924,29.497,32.798,25.726,5.44,6.302,12.832
1561,0.734,36.031,29.225,32.77,25.722,5.237,6.221,12.832
1562,0.741,36.099,29.519,32.779,25.729,5.275,6.18,12.751
1563,0.731,35.726,29.319,32.817,25.729,5.479,6.342,12.913
1564,0.721,35.856,29.376,32.808,25.74,5.481,6.384,13.077
1565,0.721,35.982,29.525,32.808,25.733,5.481,6.466,13.119
1566,0.724,36.022,29.249,32.798,25.736,5.603,6.386,13.201
1567,0.702,35.869,29.441,32.817,25.726,5.482,6.385,13.121
1568,0.711,35.982,29.537,32.808,25.733,5.44,6.344,13.12
1569,0.698,36.079,29.3,32.818,25.729,5.481,6.425,13.12
1570,0.692,35.936,29.497,32.818,25.736,5.522,6.344,13.039
1571,0.692,35.81,29.413,32.808,25.733,5.482,6.384,13.038
1572,0.701,35.943,29.412,32.808,25.733,5.44,6.385,12.916
1573,0.714,36.079,29.525,32.837,25.747,5.481,6.466,12.996
1574,0.715,35.745,29.257,32.827,25.74,5.562,6.548,13.078
1575,0.705,35.828,29.5,32.827,25.733,5.482,6.427,13.038
1576,0.715,35.934,29.276,32.808,25.729,5.481,6.426,12.875
1577,0.718,36.05,29.407,32.798,25.729,5.4,6.263,12.833
1578,0.711,35.6,29.541,32.789,25.733,5.399,6.262,12.71
1579,0.718,35.74,29.277,32.808,25.729,5.399,6.262,12.709
1580,0.711,35.875,29.504,32.808,25.726,5.399,6.302,12.709
1581,0.698,35.944,29.229,32.818,25.74,5.44,6.221,12.75
1582,0.688,35.82,29.461,32.808,25.733,5.481,6.302,12.791
1583,0.682,35.963,29.514,32.827,25.733,5.481,6.343,12.791
1584,0.682,36.07,29.343,32.808,25.736,5.44,6.343,12.751
1585,0.669,36.147,29.501,32.789,25.726,5.399,6.181,12.75
1586,0.678,35.707,29.19,32.817,25.729,5.358,6.179,12.709
1587,0.682,35.866,29.429,32.846,25.74,5.521,6.261,12.79
1588,0.685,35.982,29.564,32.828,25.74,5.603,6.343,12.873
1589,0.682,36.022,29.316,32.846,25.74,5.523,6.384,12.873
1590,0.688,35.888,29.524,32.837,25.74,5.563,6.425,12.792
1591,0.698,36.011,29.269,32.837,25.729,5.563,6.344,12.832
1592,0.695,36.118,29.527,32.837,25.736,5.523,6.343,12.751
1593,0.698,36.148,29.241,32.827,25.74,5.603,6.262,12.75
1594,0.698,35.717,29.445,32.837,25.736,5.564,6.302,12.791
1595,0.701,35.846,29.541,32.827,25.729,5.563,6.302,12.873
1596,0.718,35.963,29.28,32.846,25.733,5.563,6.262,12.833
1597,0.715,35.82,29.512,32.875,25.74,5.685,6.384,12.873
1598,0.708,35.742,29.284,32.857,25.736,5.646,6.466,12.914
1599,0.698,35.856,29.383,32.856,25.74,5.523,6.345,12.833
1600,0.692,35.944,29.494,32.818,25.726,5.441,6.221,12.792
1601,0.695,35.628,29.299,32.818,25.729,5.359,6.22,12.873
1602,0.705,35.75,29.567,32.818,25.722,5.399,6.261,12.873
1603,0.702,35.876,29.261,32.837,25.729,5.48,6.302,12.914
1604,0.698,35.973,29.465,32.837,25.729,5.481,6.343,12.996
1605,0.698,35.763,29.514,32.827,25.733,5.481,6.303,12.996
1606,0.688,35.904,29.296,32.837,25.726,5.481,6.262,12.996
1607,0.685,36.021,29.477,32.866,25.733,5.481,6.343,13.037
1608,0.688,36.089,29.256,32.837,25.733,5.481,6.343,13.038
1609,0.685,35.62,29.391,32.837,25.729,5.44,6.384,12.956
1610,0.688,35.778,29.501,32.837,25.722,5.359,6.303,12.915
1611,0.708,35.924,29.237,32.837,25.722,5.439,6.302,12.833
1612,0.705,35.973,29.469,32.847,25.733,5.481,6.384,12.873
1613,0.711,35.638,29.514,32.875,25.74,5.522,6.507,12.995
1614,0.711,35.769,29.354,32.885,25.733,5.482,6.549,12.956
1615,0.702,35.895,29.524,32.866,25.733,5.481,6.59,13.037
1616,0.711,35.915,29.214,32.866,25.733,5.522,6.59,13.038
1617,0.721,35.705,29.464,32.866,25.729,5.482,6.631,12.916
1618,0.728,35.837,29.291,32.856,25.729,5.4,6.672,12.915
1619,0.725,35.953,29.387,32.876,25.736,5.521,6.631,12.915
1620,0.731,35.983,29.509,32.885,25.736,5.482,6.712,12.996
1621,0.725,35.724,29.331,32.876,25.747,5.603,6.794,13.037
1622,0.718,35.847,29.591,32.895,25.747,5.645,6.877,13.16
1623,0.698,35.944,29.332,32.886,25.747,5.605,6.959,13.242
1624,0.695,35.791,29.505,32.857,25.733,5.442,6.797,13.202
1625,0.695,35.78,29.389,32.847,25.726,5.481,6.795,13.161
1626,0.705,35.905,29.408,32.847,25.729,5.44,6.795,13.161
1627,0.698,36.021,29.49,32.856,25.726,5.44,6.795,13.202
1628,0.695,35.61,29.288,32.866,25.729,5.481,6.836,13.243
1629,0.692,35.702,29.508,32.856,25.733,5.481,6.796,13.202
1630,0.692,35.827,29.093,32.866,25.729,5.522,6.836,13.202
1631,0.718,35.934,29.409,32.866,25.736,5.482,6.918,13.121
1632,0.721,35.695,29.545,32.856,25.736,5.44,6.919,13.079
1633,0.721,35.808,29.359,32.856,25.733,5.44,6.878,13.079
1634,0.737,35.924,29.513,32.847,25.719,5.399,6.796,13.038
1635,0.76,36.031,29.245,32.866,25.729,5.358,6.755,12.997
1636,0.777,35.629,29.445,32.876,25.733,5.439,6.876,13.037
1637,0.787,35.788,29.518,32.876,25.736,5.562,6.837,13.038
1638,0.8,35.895,29.284,32.885,25.736,5.482,6.918,12.997
1639,0.826,35.944,29.532,32.876,25.736,5.522,6.878,12.956
1640,0.839,35.494,29.417,32.885,25.736,5.522,6.877,12.996
1641,0.869,35.643,29.33,32.885,25.733,5.482,6.837,12.956
1642,0.908,35.75,29.512,32.876,25.74,5.522,6.837,12.956
1643,0.934,35.78,29.354,32.876,25.74,5.522,6.877,13.037
1644,0.958,35.799,29.528,32.885,25.736,5.482,6.837,13.119
1645,1.0,35.953,29.265,32.914,25.736,5.44,6.877,13.12
1646,1.039,36.079,29.504,32.905,25.743,5.603,6.959,13.242
1647,1.076,36.061,29.51,32.914,25.743,5.604,7.0,13.487
1648,1.135,35.533,29.315,32.867,25.736,5.482,6.879,13.286
1649,1.21,35.653,29.536,32.876,25.736,5.44,6.837,13.162
1650,1.292,35.76,29.187,32.876,25.723,5.359,6.755,13.161
1651,1.371,35.636,29.46,32.876,25.729,5.439,6.754,13.161
1652,1.447,35.663,29.295,32.866,25.729,5.44,6.754,13.161
1653,1.548,35.798,29.36,32.895,25.736,5.481,6.836,13.12
1654,1.601,35.895,29.509,32.876,25.736,5.481,6.755,13.242
1655,1.693,35.589,29.331,32.904,25.733,5.44,6.836,13.202
1656,1.798,35.721,29.559,32.876,25.736,5.521,6.837,13.283
1657,1.844,35.827,29.218,32.876,25.733,5.482,6.796,13.203
1658,1.855,35.905,29.398,32.876,25.722,5.4,6.714,13.202
1659,1.897,35.494,29.552,32.866,25.729,5.48,6.672,13.08
1660,1.93,35.643,29.249,32.904,25.74,5.522,6.794,13.282
1661,1.976,35.788,29.48,32.914,25.733,5.603,6.877,13.406
1662,1.983,35.857,29.217,32.924,25.733,5.523,6.837,13.407
1663,1.967,35.685,29.375,32.905,25.736,5.522,6.877,13.448
1664,1.973,35.837,29.517,32.914,25.736,5.563,6.877,13.53
1665,1.976,35.963,29.331,32.924,25.74,5.563,6.837,13.49
1666,1.944,35.993,29.54,32.915,25.736,5.523,6.714,13.571
1667,1.862,35.552,29.249,32.914,25.726,5.603,6.794,13.531
1668,1.799,35.691,29.492,32.924,25.74,5.604,6.795,13.571
1669,1.678,35.827,29.538,32.934,25.74,5.482,6.755,13.653
1670,1.531,35.876,29.284,32.953,25.75,5.684,6.836,13.532
1671,1.39,35.628,29.5,32.934,25.747,5.646,6.837,13.693
1672,1.239,35.759,29.253,32.924,25.737,5.605,6.755,13.695
1673,1.097,35.857,29.453,32.895,25.733,5.564,6.714,13.817
1674,0.979,35.934,29.518,32.905,25.726,5.523,6.632,13.899
1675,0.89,35.551,29.261,32.895,25.722,5.482,6.59,13.941
1676,0.804,35.672,29.535,32.914,25.729,5.522,6.59,14.063
1677,0.709,35.798,29.421,32.905,25.736,5.563,6.549,14.105
1678,0.578,35.617,29.377,32.895,25.733,5.604,6.549,14.309
1679,0.463,35.625,29.575,32.905,25.733,5.523,6.59,14.555
1680,0.358,35.769,29.222,32.914,25.736,5.563,6.59,14.882
1681,0.272,35.857,29.472,32.867,25.733,5.482,6.509,15.089
1682,0.183,35.484,29.479,32.876,25.722,5.481,6.427,15.213
1683,0.14,35.633,29.366,32.904,25.729,5.562,6.466,15.296
1684,0.094,35.759,29.517,32.924,25.733,5.523,6.548,15.459
1685,0.048,35.876,29.268,32.934,25.736,5.644,6.59,15.623
1686,0.015,35.551,29.477,32.943,25.743,5.645,6.549,15.584
1687,0.025,35.72,29.494,32.943,25.743,5.564,6.63,15.543
1688,0.044,35.827,29.319,32.924,25.733,5.604,6.509,15.583
1689,0.07,35.886,29.516,32.934,25.74,5.523,6.549,15.584
1690,0.1,35.465,29.253,32.972,25.729,5.563,6.468,15.665
1691,0.139,35.566,29.438,32.925,25.736,5.482,6.467,15.707
1692,0.182,35.711,29.291,32.924,25.736,5.481,6.507,15.707
1693,0.228,35.789,29.481,32.972,25.747,5.603,6.549,15.87
1694,0.251,35.502,29.541,32.973,25.75,5.645,6.549,16.075
1695,0.261,35.624,29.339,32.953,25.733,5.564,6.468,16.321
1696,0.291,35.721,29.509,32.915,25.733,5.482,6.386,16.567
1697,0.34,35.76,29.225,32.924,25.729,5.481,6.344,16.773
1698,0.386,35.54,29.461,32.905,25.729,5.4,6.303,17.019
1699,0.467,35.662,29.502,32.914,25.733,5.358,6.302,17.184
1700,0.537,35.788,29.292,32.934,25.733,5.439,6.343,17.308
1701,0.593,36.106,29.461,32.934,25.736,5.521,6.303,17.593
1702,0.645,35.534,29.248,32.943,25.733,5.563,6.343,17.921
1703,0.678,35.653,29.484,32.953,25.733,5.482,6.384,18.169
1704,0.708,35.769,29.424,32.953,25.733,5.481,6.303,18.496
1705,0.728,35.473,29.404,32.944,25.729,5.481,6.302,18.581
1706,0.751,35.518,29.533,32.924,25.726,5.4,6.18,18.501
1707,0.767,35.672,29.28,32.953,25.726,5.44,6.22,18.5
1708,0.78,35.789,29.496,32.972,25.736,5.521,6.342,18.5
1709,0.774,35.473,29.553,32.973,25.736,5.644,6.343,18.378
1710,0.777,35.614,29.351,32.982,25.74,5.523,6.343,18.214
1711,0.787,35.74,29.493,32.963,25.736,5.563,6.384,18.05
1712,0.793,35.808,29.346,32.953,25.733,5.563,6.303,17.885
1713,0.8,35.425,29.536,32.963,25.74,5.482,6.302,17.884
1714,0.797,35.585,29.261,32.944,25.733,5.522,6.221,17.721
1715,0.803,35.711,29.496,32.972,25.736,5.563,6.342,17.597
1716,0.813,35.751,29.307,32.953,25.736,5.482,6.221,17.515
1717,0.826,35.339,29.407,32.972,25.74,5.44,6.18,17.311
1718,0.817,35.507,29.525,32.992,25.75,5.562,6.342,17.268
1719,0.823,35.576,29.354,32.982,25.743,5.563,6.425,17.186
1720,0.81,35.634,29.454,32.944,25.736,5.441,6.182,17.104
1721,0.807,35.548,29.217,32.934,25.733,5.44,6.22,16.941
1722,0.81,35.682,29.457,32.943,25.726,5.44,6.139,16.817
1723,0.81,35.798,29.506,32.943,25.729,5.399,6.138,16.613
1724,0.803,35.828,29.311,32.934,25.729,5.399,6.138,16.61
1725,0.807,35.397,29.501,32.953,25.74,5.399,6.219,16.407
1726,0.803,35.527,29.257,32.953,25.729,5.44,6.139,16.243
1727,0.797,35.653,29.402,32.963,25.736,5.481,6.26,16.2
1728,0.803,35.971,29.509,32.972,25.733,5.481,6.221,16.078
1729,0.797,35.379,29.354,32.973,25.733,5.44,6.18,15.914
1730,0.79,35.498,29.466,32.944,25.722,5.521,6.179,15.709
1731,0.813,35.595,29.217,32.934,25.726,5.4,6.098,15.463
1732,0.82,35.404,29.406,32.953,25.733,5.48,6.138,15.298
1733,0.826,35.46,29.529,32.972,25.736,5.644,6.219,15.215
1734,0.839,35.595,29.327,32.973,25.74,5.645,6.302,15.092
1735,0.846,35.701,29.497,32.992,25.736,5.605,6.262,15.01
1736,0.836,35.453,29.241,32.982,25.733,5.645,6.262,14.846
1737,0.843,35.585,29.437,32.973,25.733,5.645,6.302,14.682
1738,0.849,35.701,29.514,32.973,25.74,5.645,6.262,14.558
1739,0.849,35.789,29.405,32.963,25.736,5.686,6.262,14.354
1740,0.84,35.243,29.431,32.972,25.743,5.605,6.262,14.271
1741,0.839,35.391,29.225,32.963,25.73,5.604,6.302,14.229
1742,0.846,35.546,29.457,32.972,25.736,5.645,6.221,14.107
1743,0.843,35.615,29.475,33.001,25.747,5.808,6.302,14.146
1744,0.839,35.472,29.288,32.992,25.747,5.728,6.384,14.146
1745,0.817,35.633,29.493,32.982,25.737,5.687,6.303,14.065
1746,0.823,35.721,29.233,32.953,25.729,5.564,6.14,13.902
1747,0.82,35.789,29.375,32.972,25.729,5.563,6.138,13.819
1748,0.823,35.31,29.513,32.963,25.729,5.523,6.138,13.777
1749,0.823,35.449,29.3,32.963,25.733,5.603,6.179,13.736
1750,0.836,35.566,29.418,32.982,25.733,5.564,6.179,13.614
1751,0.833,35.624,29.478,33.001,25.733,5.563,6.22,13.572
1752,0.836,35.28,29.354,32.973,25.729,5.563,6.22,13.571
1753,0.839,35.401,29.509,33.001,25.729,5.604,6.261,13.449
1754,0.826,35.498,29.28,32.973,25.729,5.604,6.221,13.489
1755,0.843,35.739,29.481,32.953,25.716,5.523,6.139,13.367
1756,0.856,35.319,29.217,32.982,25.733,5.563,6.138,13.244
1757,0.862,35.469,29.406,33.001,25.74,5.604,6.219,13.284
1758,0.869,35.566,29.509,33.002,25.743,5.645,6.302,13.325
1759,0.869,35.318,29.272,32.992,25.736,5.686,6.302,13.284
1760,0.859,35.401,29.406,33.011,25.74,5.605,6.302,13.365
1761,0.853,35.527,29.505,33.011,25.74,5.686,6.302,13.244
1762,0.853,35.634,29.424,33.021,25.736,5.687,6.302,13.284
1763,0.849,35.213,29.552,33.011,25.733,5.646,6.343,13.406
1764,0.843,35.343,29.249,32.992,25.733,5.686,6.303,13.367
1765,0.843,35.488,29.477,32.992,25.733,5.605,6.302,13.366
1766,0.843,35.576,29.537,33.001,25.743,5.645,6.302,13.366
1767,0.846,35.26,29.374,33.03,25.747,5.686,6.302,13.407
1768,0.849,35.372,29.54,33.05,25.747,5.768,6.302,13.529
1769,0.836,35.44,29.316,33.021,25.737,5.728,6.384,13.49
1770,0.843,35.518,29.438,32.992,25.729,5.605,6.222,13.286
1771,0.856,35.26,29.205,32.973,25.726,5.564,6.22,13.162
1772,0.849,35.401,29.429,33.001,25.726,5.563,6.261,13.12
1773,0.853,35.527,29.502,32.992,25.729,5.604,6.262,13.079
1774,0.862,35.586,29.3,33.001,25.733,5.604,6.302,13.079
1775,0.869,35.26,29.481,33.002,25.733,5.645,6.302,13.038
1776,0.869,35.41,29.252,33.011,25.733,5.686,6.384,13.078
1777,0.882,35.517,29.391,33.002,25.733,5.564,6.303,13.038
1778,0.876,35.538,29.474,32.992,25.733,5.645,6.384,13.038
1779,0.876,35.116,29.311,32.973,25.722,5.564,6.344,12.916
1780,0.879,35.284,29.477,32.973,25.726,5.441,6.384,12.874
1781,0.876,35.42,29.186,33.011,25.733,5.603,6.385,12.833
1782,0.885,35.594,29.367,33.002,25.729,5.645,6.507,12.954
1783,0.885,35.289,29.528,33.011,25.736,5.645,6.508,13.037
1784,0.872,35.43,29.265,33.002,25.736,5.686,6.467,13.119
1785,0.866,35.537,29.504,33.002,25.74,5.646,6.507,13.16
1786,0.866,35.183,29.464,33.011,25.74,5.686,6.427,13.202
1787,0.862,35.237,29.373,33.011,25.736,5.687,6.466,13.202
1788,0.869,35.353,29.486,33.021,25.736,5.605,6.507,13.243
1789,0.866,35.45,29.331,33.021,25.736,5.564,6.386,13.08
1790,0.882,35.163,29.415,33.011,25.733,5.523,6.385,13.079
1791,0.898,35.352,29.271,33.011,25.736,5.522,6.507,12.997
1792,0.895,35.469,29.418,33.03,25.747,5.685,6.467,13.159
1793,0.895,35.547,29.221,33.011,25.747,5.687,6.629,13.202
1794,0.889,35.058,29.429,33.011,25.733,5.605,6.509,13.121
1795,0.895,35.226,29.381,32.992,25.733,5.523,6.427,12.998
1796,0.886,35.314,29.38,32.992,25.733,5.482,6.344,12.956
1797,0.895,35.401,29.478,32.992,25.726,5.4,6.303,12.874
1798,0.905,35.163,29.256,32.992,25.733,5.48,6.343,12.792
1799,0.905,35.294,29.473,33.001,25.74,5.481,6.343,12.832
1800,0.899,35.44,29.249,33.049,25.729,5.44,6.343,12.832
1801,0.895,35.499,29.379,33.012,25.736,5.481,6.384,12.873
1802,0.902,35.096,29.525,33.002,25.733,5.522,6.344,12.914
1803,0.892,35.236,29.284,33.011,25.733,5.522,6.384,12.955
1804,0.889,35.343,29.489,32.973,25.722,5.482,6.385,12.996
1805,0.899,35.363,29.206,32.982,25.726,5.4,6.303,12.834
1806,0.905,35.2,29.41,33.001,25.726,5.44,6.343,12.873
1807,0.899,35.362,29.509,33.021,25.74,5.481,6.384,12.955
1808,0.902,35.45,29.35,33.021,25.74,5.522,6.466,13.037
1809,0.895,35.441,29.552,33.021,25.743,5.522,6.426,12.997
1810,0.899,35.144,29.171,33.031,25.74,5.482,6.426,13.037
1811,0.912,35.256,29.413,33.021,25.74,5.481,6.385,12.956
1812,0.925,35.372,29.502,33.021,25.733,5.481,6.385,12.874
1813,0.922,35.105,29.323,32.992,25.733,5.481,6.385,12.873
1814,0.931,35.198,29.493,33.011,25.736,5.44,6.344,12.833
1815,0.931,35.343,29.237,33.002,25.733,5.399,6.384,12.873
1816,0.938,35.421,29.426,33.002,25.733,5.44,6.344,12.833
1817,0.951,34.952,29.498,33.021,25.747,5.521,6.343,12.832
1818,0.945,35.091,29.315,33.04,25.747,5.563,6.506,12.914
1819,0.935,35.198,29.524,33.002,25.74,5.482,6.386,12.792
1820,0.928,35.256,29.261,33.002,25.736,5.44,6.303,12.751
1821,0.925,35.113,29.363,32.982,25.723,5.359,6.262,12.669
1822,0.918,35.256,29.564,32.992,25.733,5.317,6.221,12.79
1823,0.931,35.372,29.246,32.992,25.729,5.398,6.261,12.791
1824,0.935,35.45,29.453,33.001,25.729,5.44,6.262,12.913
1825,0.938,34.99,29.451,32.992,25.736,5.399,6.302,12.915
1826,0.925,35.139,29.377,33.001,25.729,5.44,6.302,12.915
1827,0.925,35.275,29.493,33.021,25.74,5.44,6.221,12.955
1828,0.935,35.305,29.198,33.011,25.723,5.399,6.302,13.037
1829,0.931,35.104,29.464,32.982,25.726,5.358,6.262,12.916
1830,0.944,35.275,29.448,32.992,25.722,5.277,6.221,12.752
1831,0.951,35.391,29.276,33.021,25.733,5.438,6.261,12.791
1832,0.961,35.421,29.5,33.04,25.74,5.521,6.302,12.873
1833,0.971,35.019,29.221,33.031,25.743,5.441,6.302,12.914
1834,0.964,35.159,29.465,33.021,25.733,5.44,6.343,12.915
1835,0.977,35.275,29.42,33.05,25.747,5.44,6.303,12.955
1836,0.981,35.238,29.377,33.021,25.743,5.399,6.221,12.874
1837,0.984,35.075,29.501,33.031,25.733,5.44,6.302,12.873
1838,0.984,35.207,29.198,33.021,25.736,5.481,6.262,12.873
1839,0.991,35.285,29.464,33.011,25.729,5.4,6.302,12.792
1840,0.984,34.97,29.444,33.011,25.736,5.318,6.262,12.873
1841,1.0,35.101,29.338,33.021,25.736,5.48,6.221,12.833
1842,1.004,35.227,29.528,33.05,25.747,5.481,6.383,12.954
1843,0.991,35.276,29.323,33.021,25.743,5.481,6.385,13.037
1844,0.984,34.979,29.481,33.011,25.733,5.4,6.303,12.956
1845,0.987,35.139,29.237,33.011,25.736,5.318,6.221,12.915
1846,0.991,35.237,29.453,32.982,25.726,5.358,6.18,12.915
1847,0.994,35.324,29.506,33.068,25.729,5.277,6.098,12.874
1848,1.004,34.893,29.229,33.002,25.729,5.316,6.178,12.792
1849,1.004,35.033,29.511,33.002,25.733,5.358,6.139,12.832
1850,1.02,35.159,29.265,33.002,25.733,5.277,6.219,12.751
1851,1.02,35.227,29.348,33.002,25.733,5.398,6.22,12.75
1852,1.017,35.065,29.501,33.002,25.733,5.358,6.261,12.831
1853,1.017,35.178,29.303,32.982,25.729,5.277,6.221,12.873
1854,1.036,35.304,29.493,32.982,25.726,5.276,6.18,12.792
1855,1.059,35.392,29.526,33.001,25.726,5.276,6.22,12.791
1856,1.063,34.904,29.37,33.011,25.74,5.357,6.22,12.873
1857,1.069,35.042,29.497,33.03,25.74,5.358,6.302,12.873
1858,1.079,35.149,29.245,33.011,25.74,5.399,6.384,12.873
1859,1.099,35.179,29.461,33.03,25.736,5.399,6.303,12.955
1860,1.079,35.026,29.436,33.021,25.733,5.399,6.302,12.915
1861,1.079,35.178,29.311,33.011,25.747,5.318,6.343,12.915
1862,1.092,35.285,29.504,33.011,25.733,5.398,6.262,12.955
1863,1.079,35.152,29.241,32.992,25.736,5.358,6.343,12.915
1864,1.089,34.978,29.43,33.011,25.733,5.399,6.303,12.955
1865,1.102,35.149,29.533,33.002,25.733,5.358,6.384,12.996
1866,1.102,35.237,29.327,33.021,25.747,5.48,6.344,13.037
1867,1.093,34.998,29.47,33.021,25.747,5.522,6.425,13.2
1868,1.099,35.072,29.483,33.011,25.74,5.441,6.426,13.121
1869,1.099,35.178,29.459,32.992,25.733,5.318,6.344,12.998
1870,1.115,35.295,29.447,32.992,25.729,5.276,6.262,12.875
1871,1.115,34.778,29.26,32.973,25.726,5.398,6.262,12.833
1872,1.135,34.936,29.461,32.992,25.729,5.358,6.262,12.792
1873,1.151,35.043,29.205,32.992,25.726,5.358,6.221,12.832
1874,1.161,35.121,29.414,33.011,25.729,5.399,6.342,12.914
1875,1.171,34.958,29.498,33.011,25.733,5.399,6.303,12.874
1876,1.184,35.11,29.303,33.002,25.729,5.399,6.343,12.873
1877,1.188,35.217,29.465,32.973,25.733,5.399,6.343,12.792
1878,1.191,35.276,29.217,32.953,25.722,5.318,6.303,12.832
1879,1.201,34.845,29.464,32.953,25.719,5.236,6.221,12.71
1880,1.204,35.023,29.307,32.982,25.74,5.357,6.302,12.668
1881,1.207,35.168,29.407,33.011,25.733,5.399,6.343,12.79
1882,1.217,35.199,29.529,33.011,25.743,5.48,6.384,12.873
1883,1.221,35.045,29.3,33.002,25.736,5.44,6.385,12.873
1884,1.221,35.188,29.52,32.992,25.736,5.399,6.425,12.955
1885,1.221,35.314,29.499,32.992,25.736,5.44,6.344,12.996
1886,1.23,35.315,29.362,32.992,25.736,5.359,6.343,12.996
1887,1.23,35.018,29.517,32.992,25.733,5.399,6.425,12.956
1888,1.24,35.159,29.3,33.001,25.736,5.399,6.385,12.956
1889,1.247,35.246,29.551,32.982,25.736,5.399,6.344,12.915
1890,1.26,35.276,29.257,33.059,25.736,5.399,6.343,12.874
1891,1.27,35.19,29.379,33.021,25.747,5.44,6.425,12.955
1892,1.263,35.314,29.493,32.992,25.737,5.399,6.385,12.996
1893,1.273,35.373,29.327,32.963,25.733,5.318,6.303,12.793
1894,1.28,35.009,29.497,32.972,25.729,5.358,6.302,12.791
1895,1.289,35.111,29.264,32.973,25.726,5.317,6.343,12.751
1896,1.312,35.236,29.492,32.963,25.729,5.317,6.303,12.831
1897,1.309,35.343,29.432,32.982,25.729,5.317,6.343,12.832
1898,1.329,35.162,29.342,32.973,25.729,5.358,6.303,12.67
1899,1.336,35.304,29.536,32.973,25.729,5.277,6.302,12.749
1900,1.306,35.44,29.183,32.982,25.736,5.316,6.302,12.75
1901,1.316,35.479,29.429,32.973,25.729,5.317,6.384,12.75
1902,1.326,35.336,29.494,32.953,25.726,5.276,6.303,12.709
1903,1.326,35.497,29.358,32.972,25.726,5.235,6.221,12.79
1904,1.322,35.624,29.509,32.992,25.729,5.316,6.18,12.791
1905,1.319,35.702,29.257,32.992,25.733,5.439,6.383,12.873
1906,1.339,35.54,29.523,32.973,25.74,5.399,6.385,12.955
1907,1.342,35.71,29.226,33.011,25.736,5.399,6.303,12.956
1908,1.339,35.818,29.437,33.011,25.733,5.44,6.343,12.956
1909,1.339,35.838,29.529,32.982,25.736,5.399,6.343,12.996
1910,1.349,35.704,29.226,32.963,25.743,5.358,6.181,12.915
1911,1.355,35.827,29.445,32.972,25.733,5.399,6.261,12.874
1912,1.365,35.934,29.201,32.973,25.74,5.399,6.302,12.833
1913,1.368,35.964,29.378,32.953,25.736,5.44,6.343,12.832
1914,1.378,36.012,29.486,32.982,25.736,5.359,6.303,12.914
1915,1.391,36.156,29.295,33.011,25.75,5.521,6.425,13.037
1916,1.378,36.215,29.485,32.992,25.743,5.482,6.385,13.078
1917,1.385,36.273,29.225,32.963,25.736,5.44,6.303,12.957
1918,1.382,36.274,29.465,32.944,25.729,5.359,6.343,12.874
1919,1.388,36.399,29.416,32.943,25.726,5.358,6.221,12.792
1920,1.378,36.515,29.299,32.982,25.729,5.317,6.261,12.873
1921,1.378,36.334,29.497,32.953,25.729,5.317,6.302,12.873
1922,1.375,36.447,29.385,32.934,25.729,5.317,6.262,12.995
1923,1.372,36.554,29.505,32.963,25.729,5.317,6.302,13.037
1924,1.365,36.651,29.218,32.963,25.733,5.317,6.343,13.078
1925,1.352,36.661,29.449,32.972,25.733,5.358,6.303,13.079
1926,1.349,36.786,29.545,32.944,25.729,5.399,6.302,13.119
1927,1.336,36.902,29.339,32.934,25.722,5.318,6.262,13.12
1928,1.352,37.009,29.477,32.934,25.733,5.236,6.221,13.079
1929,1.349,37.068,29.288,32.963,25.733,5.316,6.22,13.079
1930,1.345,37.174,29.442,32.972,25.74,5.439,6.261,13.16
1931,1.349,37.309,29.221,32.953,25.736,5.399,6.343,13.202
1932,1.345,37.358,29.351,32.953,25.736,5.44,6.303,13.039
1933,1.336,37.205,29.528,32.963,25.74,5.44,6.262,13.078
1934,1.339,37.328,29.249,32.963,25.74,5.481,6.302,13.119
1935,1.332,37.454,29.461,32.963,25.733,5.4,6.302,13.12
1936,1.323,37.465,29.545,32.944,25.736,5.358,6.302,13.039
1937,1.319,37.446,29.366,32.934,25.733,5.399,6.302,12.997
1938,1.303,37.571,29.478,32.943,25.729,5.399,6.221,13.037
1939,1.303,37.687,29.323,32.953,25.736,5.399,6.261,13.078
1940,1.283,37.698,29.43,32.972,25.747,5.48,6.384,13.119
1941,1.26,37.775,29.424,32.953,25.754,5.481,6.466,13.242
1942,1.24,37.852,29.318,32.924,25.733,5.481,6.386,13.284
1943,1.218,37.968,29.458,32.924,25.733,5.4,6.222,13.284
1944,1.204,37.883,29.225,32.915,25.729,5.399,6.261,13.203
1945,1.201,37.863,29.449,32.914,25.733,5.399,6.221,13.243
1946,1.194,37.987,29.248,32.934,25.729,5.358,6.261,13.324
1947,1.178,38.103,29.383,32.953,25.729,5.358,6.221,13.406
1948,1.168,37.942,29.49,32.934,25.733,5.399,6.302,13.407
1949,1.155,38.026,29.264,32.934,25.733,5.399,6.302,13.367
1950,1.152,38.142,29.434,32.924,25.733,5.48,6.302,13.407
1951,1.122,38.23,29.447,33.001,25.74,5.359,6.343,13.285
1952,1.119,38.115,29.311,32.896,25.716,5.317,6.221,13.284
1953,1.109,38.258,29.485,32.914,25.726,5.317,6.18,13.203
1954,1.109,38.384,29.292,32.934,25.733,5.358,6.301,13.283
1955,1.106,38.462,29.504,32.934,25.736,5.439,6.302,13.325
1956,1.096,38.281,29.346,32.934,25.74,5.44,6.384,13.366
1957,1.079,38.423,29.399,32.943,25.736,5.399,6.303,13.204
1958,1.057,38.52,29.517,32.915,25.736,5.44,6.302,13.283
1959,1.047,38.579,29.319,32.924,25.74,5.399,6.343,13.243
1960,1.03,38.387,29.423,32.934,25.733,5.44,6.262,13.202
1961,1.014,38.529,29.186,32.915,25.736,5.399,6.262,13.243
1962,1.001,38.607,29.39,32.914,25.736,5.399,6.221,13.202
1963,0.987,38.656,29.263,32.914,25.733,5.48,6.302,13.243
1964,0.978,38.57,29.371,32.943,25.743,5.522,6.343,13.406
1965,0.951,38.713,29.532,32.924,25.747,5.522,6.343,13.489
1966,0.945,38.782,29.276,32.915,25.74,5.441,6.343,13.449
1967,0.932,38.773,29.449,32.905,25.733,5.399,6.303,13.367
1968,0.922,38.524,29.447,32.895,25.733,5.358,6.18,13.407
1969,0.918,38.627,29.393,32.895,25.729,5.439,6.179,13.326
1970,0.922,38.724,29.49,32.895,25.729,5.399,6.22,13.325
1971,0.915,38.619,29.284,32.895,25.733,5.44,6.261,13.366
1972,0.912,38.628,29.461,32.905,25.726,5.44,6.18,13.407
1973,0.905,38.733,29.221,32.914,25.733,5.481,6.179,13.367
1974,0.899,38.83,29.445,32.914,25.733,5.4,6.22,13.366
1975,0.886,38.61,29.178,32.886,25.736,5.399,6.22,13.407
1976,0.885,38.723,29.413,32.876,25.723,5.318,6.139,13.367
1977,0.889,38.859,29.478,32.876,25.726,5.358,6.098,13.204
1978,0.885,38.927,29.291,32.895,25.733,5.439,6.138,13.243
1979,0.879,38.727,29.52,32.905,25.74,5.521,6.179,13.284
1980,0.863,38.887,29.171,32.914,25.733,5.482,6.261,13.284
1981,0.853,38.995,29.417,32.914,25.729,5.481,6.302,13.325
1982,0.84,39.053,29.482,32.895,25.74,5.481,6.262,13.325
1983,0.826,38.594,29.26,32.905,25.733,5.522,6.343,13.406
1984,0.82,38.714,29.469,32.886,25.733,5.4,6.221,13.407
1985,0.813,38.839,29.198,32.905,25.74,5.399,6.261,13.407
1986,0.813,38.898,29.441,32.895,25.729,5.44,6.18,13.367
1987,0.8,38.678,29.514,32.886,25.736,5.359,6.261,13.366
1988,0.816,38.81,29.288,32.914,25.74,5.439,6.302,13.366
1989,0.81,38.936,29.504,32.914,25.747,5.603,6.384,13.366
1990,0.8,38.928,29.307,32.895,25.74,5.482,6.344,13.407
1991,0.794,38.65,29.333,32.895,25.733,5.44,6.221,13.204
1992,0.79,38.762,29.493,32.857,25.729,5.318,6.139,13.161
1993,0.793,38.869,29.233,32.876,25.726,5.276,6.179,13.08
1994,0.797,38.889,29.43,32.876,25.722,5.276,6.179,13.038
1995,0.8,38.601,29.389,32.876,25.733,5.357,6.22,13.119
1996,0.803,38.723,29.384,32.876,25.733,5.358,6.22,13.12
1997,0.803,38.811,29.482,32.895,25.729,5.317,6.22,12.957
1998,0.8,38.582,29.213,32.876,25.733,5.439,6.261,12.996
1999,0.81,38.522,29.453,32.885,25.733,5.399,6.221,12.996
2000,0.787,38.646,29.447,32.876,25.736,5.399,6.302,12.996
2001,0.79,38.752,29.342,32.857,25.723,5.277,6.18,12.956
2002,0.787,38.523,29.497,32.856,25.726,5.235,6.139,12.956
2003,0.774,38.646,29.276,32.866,25.726,5.397,6.219,13.037
2004,0.767,38.8,29.485,32.895,25.74,5.44,6.18,13.2
2005,0.77,38.869,29.479,32.886,25.736,5.481,6.301,13.202
2006,0.767,38.467,29.354,32.876,25.747,5.4,6.302,13.243
2007,0.761,38.607,29.517,32.876,25.733,5.44,6.262,13.365
2008,0.764,38.723,29.229,32.876,25.733,5.44,6.343,13.325
2009,0.757,38.772,29.5,32.885,25.74,5.481,6.303,13.284
2010,0.764,38.399,29.432,32.876,25.74,5.4,6.262,13.243
2011,0.774,38.529,29.307,32.876,25.733,5.318,6.262,13.162
2012,0.761,38.646,29.493,32.876,25.736,5.439,6.302,13.202
2013,0.767,38.714,29.221,32.885,25.736,5.44,6.262,13.121
2014,0.767,38.341,29.398,32.905,25.747,5.481,6.302,13.201
2015,0.777,38.462,29.486,32.895,25.747,5.481,6.384,13.243
2016,0.771,38.53,29.307,32.866,25.74,5.359,6.385,13.202
2017,0.774,38.56,29.473,32.856,25.726,5.358,6.263,13.039
2018,0.774,38.358,29.26,32.847,25.726,5.317,6.262,12.956
2019,0.767,38.481,29.41,32.847,25.733,5.358,6.221,12.996
2020,0.764,38.578,29.455,32.837,25.726,5.277,6.261,12.915
2021,0.761,38.723,29.217,32.847,25.729,5.316,6.302,12.874
2022,0.764,38.216,29.425,32.847,25.736,5.317,6.302,12.995
2023,0.761,38.374,29.357,32.856,25.733,5.358,6.384,12.915
2024,0.754,38.462,29.31,32.866,25.736,5.358,6.303,13.118
2025,0.751,38.31,29.477,32.856,25.729,5.439,6.384,12.998
2026,0.748,38.346,29.26,32.828,25.726,5.399,6.344,12.996
2027,0.741,38.433,29.383,32.827,25.726,5.277,6.262,12.915
2028,0.751,38.568,29.439,32.827,25.729,5.357,6.262,12.915
2029,0.751,37.985,29.369,32.856,25.736,5.439,6.343,12.915
2030,0.754,38.113,29.54,32.847,25.736,5.399,6.343,12.996
2031,0.757,38.22,29.171,32.866,25.736,5.44,6.425,12.996
2032,0.764,38.298,29.413,32.856,25.736,5.399,6.344,12.956
2033,0.764,38.049,29.506,32.876,25.736,5.358,6.466,12.915
2034,0.767,38.19,29.261,32.857,25.736,5.439,6.386,12.833
2035,0.767,38.307,29.477,32.856,25.733,5.399,6.425,12.792
2036,0.774,38.356,29.452,32.837,25.736,5.358,6.385,12.791
2037,0.774,37.925,29.35,32.837,25.74,5.358,6.425,12.751
2038,0.777,38.103,29.509,32.875,25.736,5.439,6.385,12.75
2039,0.777,38.172,29.319,32.866,25.747,5.481,6.466,12.913
2040,0.767,38.22,29.43,32.856,25.733,5.481,6.426,12.833
2041,0.757,37.972,29.197,32.837,25.736,5.359,6.385,12.873
2042,0.754,38.094,29.402,32.827,25.729,5.317,6.344,12.833
2043,0.754,38.2,29.443,32.808,25.729,5.317,6.303,12.792
2044,0.761,38.23,29.315,32.818,25.733,5.358,6.343,12.832
2045,0.748,37.809,29.477,32.808,25.726,5.277,6.384,12.914
2046,0.751,37.948,29.28,32.818,25.736,5.398,6.344,12.955
2047,0.748,38.074,29.403,32.818,25.736,5.399,6.343,12.915
2048,0.754,38.392,29.462,32.837,25.736,5.358,6.384,13.037
2049,0.748,37.849,29.35,32.818,25.733,5.399,6.385,12.997
2050,0.76,37.929,29.485,32.808,25.726,5.318,6.385,12.915
2051,0.77,38.026,29.128,32.818,25.722,5.195,6.303,12.874
2052,0.774,37.72,29.417,32.837,25.733,5.316,6.343,12.873
2053,0.784,37.717,29.17,32.827,25.733,5.398,6.425,12.955
2054,0.784,37.851,29.382,32.827,25.736,5.399,6.426,13.037
2055,0.787,37.949,29.482,32.846,25.743,5.399,6.426,13.038
2056,0.8,37.614,29.331,32.828,25.736,5.358,6.426,12.956
2057,0.803,37.735,29.403,32.837,25.733,5.399,6.507,12.915
2058,0.79,37.861,29.185,32.818,25.733,5.318,6.427,12.874
2059,0.787,37.92,29.39,32.818,25.733,5.398,6.426,12.873
2060,0.777,37.451,29.486,32.827,25.733,5.44,6.507,12.873
2061,0.777,37.599,29.167,32.837,25.736,5.44,6.508,12.914
2062,0.79,37.745,29.464,32.837,25.736,5.399,6.427,12.955
2063,0.777,37.813,29.529,32.847,25.754,5.562,6.548,13.078
2064,0.767,37.536,29.292,32.818,25.747,5.482,6.549,13.201
2065,0.764,37.687,29.496,32.808,25.733,5.44,6.427,13.243
2066,0.761,37.784,29.245,32.798,25.729,5.399,6.466,12.999
2067,0.748,37.814,29.258,32.808,25.729,5.44,6.386,13.037
2068,0.747,37.411,29.484,32.779,25.726,5.399,6.385,13.038
2069,0.751,37.532,29.272,32.779,25.733,5.399,6.344,12.916
2070,0.764,37.648,29.461,32.798,25.736,5.358,6.384,12.955
2071,0.767,37.688,29.229,32.808,25.733,5.439,6.466,12.915
2072,0.774,37.448,29.465,32.798,25.736,5.481,6.386,12.874
2073,0.777,37.571,29.229,32.789,25.729,5.481,6.466,12.873
2074,0.761,37.668,29.371,32.779,25.729,5.481,6.467,12.873
2075,0.767,37.918,29.509,32.76,25.722,5.278,6.386,12.792
2076,0.787,37.288,29.311,32.788,25.729,5.357,6.344,12.751
2077,0.793,37.425,29.442,32.808,25.733,5.48,6.466,12.75
2078,0.78,37.522,29.19,32.798,25.74,5.522,6.507,12.831
2079,0.787,37.322,29.456,32.76,25.736,5.522,6.508,12.832
2080,0.78,37.349,29.49,32.798,25.733,5.522,6.549,12.792
2081,0.774,37.483,29.221,32.798,25.74,5.482,6.549,12.873
2082,0.78,37.571,29.476,32.789,25.736,5.481,6.468,12.955
2083,0.777,37.236,29.221,32.779,25.74,5.481,6.507,13.037
2084,0.767,37.386,29.375,32.789,25.733,5.481,6.549,13.038
2085,0.767,37.474,29.486,32.769,25.736,5.522,6.508,13.078
2086,0.774,37.571,29.264,32.788,25.733,5.441,6.549,13.16
2087,0.767,37.227,29.496,32.884,25.747,5.643,6.671,13.202
2088,0.751,37.367,29.163,32.79,25.743,5.605,6.713,13.283
2089,0.744,37.455,29.401,32.789,25.733,5.482,6.632,13.243
2090,0.747,37.504,29.447,32.76,25.729,5.481,6.55,13.162
2091,0.747,37.044,29.233,32.75,25.726,5.44,6.468,13.039
2092,0.747,37.173,29.437,32.759,25.729,5.44,6.507,12.997
2093,0.767,37.29,29.233,32.769,25.722,5.44,6.508,12.996
2094,0.767,37.349,29.472,32.76,25.733,5.481,6.549,12.915
2095,0.774,37.138,29.416,32.74,25.733,5.522,6.549,12.955
2096,0.784,37.261,29.353,32.74,25.736,5.482,6.59,12.996
2097,0.777,37.377,29.481,32.769,25.733,5.522,6.549,12.875
2098,0.774,37.388,29.19,32.74,25.726,5.441,6.549,12.873
2099,0.787,37.062,29.406,32.721,25.726,5.399,6.468,12.833
2100,0.777,37.222,29.474,32.75,25.729,5.48,6.507,12.751
2101,0.771,37.348,29.291,32.75,25.74,5.522,6.589,12.872
2102,0.767,37.512,29.477,32.759,25.74,5.603,6.631,12.995
2103,0.761,37.14,29.295,32.76,25.74,5.564,6.672,13.037
2104,0.761,37.251,29.383,32.76,25.74,5.563,6.631,13.038
2105,0.761,37.367,29.494,32.74,25.74,5.604,6.59,13.038
2106,0.761,36.956,29.307,32.75,25.736,5.523,6.631,12.997
2107,0.748,37.01,29.422,32.759,25.729,5.522,6.59,13.037
2108,0.744,37.116,29.197,32.75,25.736,5.563,6.671,12.997
2109,0.744,37.213,29.394,32.74,25.733,5.441,6.591,12.956
2110,0.76,36.878,29.525,32.74,25.729,5.521,6.549,12.996
2111,0.761,37.018,29.253,32.769,25.75,5.563,6.63,12.915
2112,0.748,37.116,29.473,32.769,25.747,5.604,6.712,13.037
2113,0.757,37.174,29.209,32.75,25.74,5.523,6.632,13.038
2114,0.761,36.868,29.386,32.721,25.726,5.482,6.509,12.916
2115,0.767,36.999,29.49,32.721,25.726,5.4,6.549,12.833
2116,0.764,37.135,29.292,32.711,25.733,5.44,6.468,12.792
2117,0.764,37.184,29.442,32.75,25.726,5.399,6.467,12.751
