time,ecg,bvp,gsr,rsp,skt,emg_zygo,emg_coru,emg_trap
0,0.984,36.708,8.969,32.459,22.483,5.891,6.794,7.247
1,0.978,36.787,8.977,32.44,22.476,5.811,6.714,7.206
2,1.003,36.826,8.903,32.478,22.48,5.891,6.835,7.165
3,1.01,36.577,8.899,32.46,22.487,5.892,6.837,7.165
4,1.014,36.718,8.906,32.44,22.476,5.933,6.837,7.124
5,1.023,36.825,8.899,32.459,22.486,5.974,6.877,7.287
6,1.036,36.567,8.91,32.44,22.473,5.893,6.674,7.085
7,1.056,36.517,8.891,32.469,22.497,6.095,6.875,7.327
8,1.066,36.602,8.863,32.44,22.473,5.894,6.633,7.085
9,1.108,36.747,8.937,32.478,22.497,6.136,6.834,7.286
10,1.096,36.499,8.911,32.431,22.473,5.894,6.511,7.044
11,1.125,36.669,8.965,32.469,22.493,6.136,6.833,7.326
12,1.106,36.738,8.934,32.421,22.469,5.935,6.633,7.085
13,1.128,36.873,8.922,32.478,22.493,6.136,6.834,7.286
14,1.109,36.405,8.899,32.46,22.469,5.976,6.592,7.125
15,1.112,36.553,8.852,32.45,22.479,6.137,6.712,7.246
16,1.099,36.651,8.937,32.431,22.48,6.016,6.672,7.247
17,1.093,36.728,8.895,32.459,22.48,6.096,6.713,7.247
18,1.089,36.537,8.922,32.431,22.48,6.097,6.672,7.206
19,1.083,36.679,8.848,32.43,22.483,6.016,6.753,7.247
20,1.073,36.796,8.925,32.45,22.48,6.137,6.795,7.288
21,1.079,36.845,8.989,32.45,22.48,6.057,6.714,7.207
22,1.079,36.481,8.946,32.45,22.476,6.056,6.713,7.165
23,1.089,36.602,8.977,32.45,22.48,6.015,6.754,7.124
24,1.076,36.718,8.907,32.431,22.48,5.974,6.754,7.165
25,1.102,36.767,8.961,32.459,22.48,6.055,6.836,7.165
26,1.083,36.749,8.923,32.44,22.473,5.934,6.837,7.206
27,1.086,36.873,8.977,32.431,22.479,5.974,6.918,7.247
28,1.076,36.98,8.864,32.459,22.483,6.015,7.0,7.166
29,1.066,37.01,8.918,32.45,22.487,6.015,7.001,7.206
30,1.056,36.435,8.848,32.45,22.48,5.934,7.001,7.084
31,1.047,36.573,8.918,32.431,22.483,6.014,7.123,7.164
32,1.001,36.67,8.93,32.421,22.48,5.934,7.083,7.124
33,0.984,36.729,8.938,32.459,22.48,6.014,7.245,7.246
34,0.971,36.643,8.922,32.431,22.48,5.934,7.166,7.125
35,0.964,36.805,8.93,32.45,22.487,5.933,7.246,7.287
36,0.951,36.855,8.903,32.431,22.476,5.811,7.206,7.125
37,0.951,36.404,8.914,32.44,22.483,6.054,7.328,7.287
38,0.928,36.457,8.891,32.431,22.473,5.893,7.329,7.207
39,0.912,36.602,8.953,32.469,22.486,5.973,7.451,7.328
40,0.899,36.661,8.903,32.44,22.476,5.893,7.29,7.289
41,0.902,36.585,8.985,32.45,22.486,6.014,7.451,7.369
42,0.886,36.699,8.942,32.421,22.48,5.852,7.412,7.289
43,0.905,36.834,8.969,32.459,22.483,5.973,7.452,7.369
44,0.889,36.903,8.962,32.44,22.48,5.893,7.412,7.33
45,0.889,36.52,8.88,32.45,22.48,5.973,7.411,7.37
46,0.892,36.65,8.898,32.45,22.487,5.974,7.452,7.37
47,0.886,36.767,8.973,32.431,22.48,5.893,7.33,7.37
48,0.892,36.835,8.903,32.478,22.493,6.095,7.492,7.533
49,0.886,36.385,8.907,32.402,22.469,5.853,7.249,7.169
50,0.905,36.592,8.875,32.469,22.5,6.054,7.491,7.45
51,0.882,36.642,8.914,32.402,22.469,5.812,7.168,7.249
52,0.892,36.757,8.973,32.459,22.493,6.054,7.49,7.532
53,0.863,36.586,8.931,32.392,22.466,5.812,7.209,7.372
54,0.895,36.766,8.954,32.459,22.49,6.013,7.369,7.492
55,0.873,36.806,8.825,32.402,22.476,5.812,7.208,7.412
56,0.879,36.903,8.894,32.449,22.486,5.972,7.287,7.615
57,0.853,36.53,8.848,32.431,22.48,5.933,7.207,7.535
58,0.862,36.679,8.945,32.44,22.476,5.974,7.287,7.575
59,0.859,36.777,8.755,32.44,22.48,5.893,7.207,7.616
60,0.84,36.912,8.885,32.44,22.48,5.973,7.206,7.739
61,0.839,36.568,8.926,32.431,22.48,5.893,7.165,7.74
62,0.852,36.67,8.918,32.43,22.483,5.973,7.165,7.781
63,0.856,36.777,8.996,32.45,22.48,5.974,7.165,7.74
64,0.862,36.557,8.986,32.431,22.483,5.933,7.165,7.74
65,0.879,36.593,8.95,32.44,22.48,5.892,7.124,7.659
66,0.866,36.747,8.907,32.45,22.483,5.892,7.287,7.78
67,0.866,36.844,8.938,32.431,22.48,5.892,7.207,7.7
68,0.869,36.519,8.954,32.43,22.48,5.892,7.206,7.78
69,0.885,36.641,8.938,32.45,22.476,5.851,7.165,7.781
70,0.879,36.767,8.907,32.44,22.483,5.891,7.165,7.781
71,0.872,36.835,8.926,32.421,22.48,5.892,7.165,7.74
72,0.859,36.366,8.868,32.43,22.483,5.933,7.287,7.781
73,0.859,36.524,8.961,32.411,22.473,5.852,7.166,7.659
74,0.859,36.67,8.934,32.43,22.479,5.973,7.246,7.739
75,0.859,36.709,8.961,32.421,22.476,5.811,7.206,7.659
76,0.849,36.518,8.88,32.45,22.483,5.85,7.206,7.82
77,0.83,36.631,8.891,32.421,22.473,5.81,7.165,7.619
78,0.852,36.747,8.942,32.43,22.486,5.891,7.328,7.698
79,0.83,36.806,8.934,32.43,22.469,5.811,7.167,7.699
80,0.817,36.433,8.887,32.43,22.486,5.932,7.287,7.821
81,0.826,36.534,8.86,32.411,22.48,5.77,7.125,7.7
82,0.846,36.679,8.898,32.44,22.48,5.972,7.165,7.821
83,0.836,36.671,8.879,32.421,22.473,5.893,7.124,7.741
84,0.846,36.46,8.926,32.45,22.479,5.851,7.287,7.821
85,0.849,36.564,8.915,32.431,22.48,5.932,7.207,7.781
86,0.859,36.708,8.899,32.44,22.48,5.933,7.247,7.781
87,0.843,37.026,8.856,32.44,22.483,5.974,7.166,7.74
88,0.856,36.512,8.953,32.431,22.473,5.852,7.165,7.74
89,0.859,36.641,8.997,32.421,22.49,6.054,7.206,7.781
90,0.862,36.728,8.904,32.411,22.48,5.893,7.084,7.7
91,0.882,36.557,8.93,32.449,22.493,6.095,7.205,7.821
92,0.843,36.516,8.903,32.402,22.473,5.894,7.043,7.619
93,0.853,36.708,8.965,32.459,22.493,6.136,7.286,7.901
94,0.833,36.739,8.872,32.392,22.473,5.854,6.963,7.66
95,0.859,36.375,9.019,32.44,22.493,6.135,7.285,7.82
96,0.843,36.419,8.876,32.392,22.466,5.894,6.963,7.619
97,0.859,36.611,8.922,32.449,22.49,6.095,7.204,7.82
98,0.853,36.651,8.852,32.411,22.473,6.016,7.003,7.659
99,0.843,36.489,8.98,32.43,22.479,6.015,7.082,7.739
100,0.836,36.612,8.935,32.43,22.476,6.015,7.042,7.699
101,0.843,36.738,8.86,32.43,22.486,6.096,7.123,7.74
102,0.839,36.806,8.941,32.421,22.476,6.056,7.002,7.618
103,0.839,36.26,8.88,32.43,22.476,6.056,7.041,7.657
104,0.833,36.408,8.898,32.43,22.48,6.015,6.96,7.536
105,0.83,36.525,8.922,32.43,22.487,6.096,7.041,7.657
106,0.82,36.564,8.954,32.44,22.473,6.016,6.96,7.658
107,0.807,36.402,8.903,32.431,22.479,6.056,6.919,7.617
108,0.81,36.525,8.903,32.43,22.483,5.975,6.959,7.617
109,0.836,36.612,8.895,32.421,22.48,6.096,6.96,7.617
110,0.817,36.651,8.965,32.411,22.48,6.016,6.838,7.617
111,0.836,36.374,8.884,32.421,22.483,6.056,6.918,7.617
112,0.833,36.505,8.863,32.43,22.48,5.975,6.878,7.535
113,0.836,36.621,8.894,32.44,22.483,6.055,6.959,7.616
114,0.826,36.613,8.906,32.411,22.476,6.015,6.838,7.454
115,0.833,36.392,8.965,32.43,22.49,6.015,6.837,7.493
116,0.852,36.515,8.981,32.411,22.473,5.974,6.796,7.534
117,0.872,36.641,8.903,32.44,22.486,6.015,6.877,7.534
118,0.872,36.441,8.899,32.421,22.473,5.893,6.755,7.453
119,0.918,36.4,8.949,32.43,22.483,6.014,6.836,7.534
120,0.935,36.496,8.915,32.402,22.476,5.934,6.674,7.412
121,0.958,36.602,8.942,32.44,22.486,5.933,6.835,7.493
122,1.007,36.335,8.817,32.421,22.48,5.933,6.714,7.453
123,1.053,36.457,8.859,32.421,22.483,5.933,6.794,7.371
124,1.089,36.592,8.875,32.43,22.493,6.014,6.958,7.533
125,1.109,36.651,8.883,32.411,22.473,5.812,6.756,7.372
126,1.154,36.306,8.914,32.449,22.49,6.054,7.039,7.614
127,1.171,36.37,8.911,32.392,22.469,5.812,6.717,7.373
128,1.227,36.572,8.946,32.449,22.493,6.013,7.038,7.614
129,1.253,36.593,8.915,32.402,22.476,5.812,6.879,7.292
130,1.299,36.488,8.996,32.44,22.49,6.013,6.959,7.41
131,1.329,36.593,8.95,32.421,22.476,5.852,6.878,7.371
132,1.378,36.709,8.895,32.421,22.483,5.932,6.877,7.533
133,1.401,36.777,8.867,32.411,22.487,5.892,7.0,7.494
134,1.421,36.212,8.906,32.43,22.48,5.892,7.001,7.494
135,1.444,36.35,8.844,32.421,22.483,5.892,6.919,7.575
136,1.457,36.476,8.945,32.411,22.476,5.892,7.0,7.698
137,1.457,36.487,8.934,32.43,22.48,5.933,7.001,7.536
138,1.473,36.372,8.961,32.43,22.48,5.974,7.001,7.657
139,1.444,36.496,8.88,32.43,22.473,5.933,6.96,7.698
140,1.46,36.612,8.953,32.421,22.479,5.892,7.0,7.74
141,1.483,36.632,8.915,32.402,22.48,5.892,6.879,7.74
142,1.552,36.22,8.989,32.411,22.483,5.933,7.0,7.699
143,1.637,36.331,8.923,32.421,22.48,5.892,6.919,7.658
144,1.713,36.447,8.879,32.43,22.483,5.973,6.959,7.78
145,1.775,36.448,8.891,32.421,22.476,5.933,6.919,7.781
146,1.808,36.372,8.875,32.43,22.486,5.974,7.041,7.74
147,1.792,36.457,8.961,32.421,22.473,5.893,6.879,7.74
148,1.779,36.583,8.821,32.45,22.476,5.933,6.959,7.781
149,1.74,36.21,8.902,32.411,22.476,5.892,6.878,7.781
150,1.697,36.302,8.867,32.43,22.483,5.973,7.0,7.822
151,1.596,36.38,8.941,32.392,22.48,5.811,6.96,7.741
152,1.442,36.515,8.969,32.43,22.483,5.972,7.0,8.024
153,1.291,36.171,8.942,32.411,22.476,5.893,6.879,8.027
154,1.153,36.33,8.965,32.43,22.483,6.014,7.0,8.312
155,1.008,36.438,8.907,32.421,22.473,5.812,6.879,8.437
156,0.913,36.525,8.926,32.44,22.483,5.972,6.918,8.763
157,0.83,36.411,8.965,32.392,22.473,5.933,6.878,8.889
158,0.761,36.563,8.95,32.43,22.483,5.933,7.0,9.134
159,0.673,36.68,8.95,32.43,22.476,5.852,6.919,9.217
160,0.633,36.748,8.942,32.43,22.48,5.973,7.0,9.381
161,0.571,36.212,8.926,32.421,22.476,5.974,7.082,9.545
162,0.557,36.331,9.008,32.43,22.483,5.933,6.961,9.669
163,0.563,36.447,8.974,32.44,22.48,6.096,7.041,9.833
164,0.56,36.467,8.993,32.392,22.466,5.853,6.92,9.834
165,0.573,36.228,8.861,32.449,22.486,6.095,7.163,10.078
166,0.541,36.312,8.867,32.402,22.469,5.813,6.962,9.837
167,0.544,36.495,8.926,32.459,22.493,6.094,7.204,10.241
168,0.508,36.468,8.915,32.392,22.473,5.813,6.962,10.042
169,0.524,36.228,8.836,32.459,22.486,6.054,7.082,10.04
170,0.505,36.312,8.867,32.392,22.466,5.893,6.961,10.08
171,0.54,36.466,8.914,32.43,22.493,5.973,7.082,10.243
172,0.541,36.544,8.911,32.43,22.487,5.893,7.042,10.286
173,0.573,36.238,8.981,32.411,22.48,5.851,7.042,10.408
174,0.596,36.35,8.907,32.411,22.476,5.973,7.042,10.45
175,0.619,36.438,8.922,32.411,22.48,5.933,7.082,10.654
176,0.652,36.141,8.918,32.43,22.476,5.852,7.083,10.615
177,0.675,36.186,8.879,32.411,22.476,5.973,7.083,10.859
178,0.724,36.292,8.996,32.392,22.473,5.933,7.164,11.024
179,0.754,36.389,8.884,32.43,22.483,5.892,7.206,11.31
180,0.767,36.237,8.922,32.43,22.483,5.892,7.206,11.475
181,0.78,36.369,8.899,32.44,22.487,5.973,7.369,11.558
182,0.806,36.505,8.942,32.411,22.48,5.933,7.289,11.722
183,0.826,36.564,8.946,32.402,22.48,5.933,7.369,11.846
184,0.836,36.133,8.989,32.421,22.476,5.892,7.411,11.928
185,0.856,36.273,8.946,32.421,22.476,5.973,7.452,11.97
186,0.869,36.399,8.942,32.411,22.476,5.893,7.452,11.929
187,0.879,36.486,8.88,32.411,22.476,5.973,7.493,12.01
188,0.869,36.142,8.973,32.402,22.48,5.933,7.534,11.93
189,0.889,36.282,8.907,32.411,22.483,5.974,7.534,12.01
190,0.872,36.389,8.914,32.43,22.476,5.893,7.575,11.808
191,0.908,36.476,8.907,32.402,22.483,6.054,7.575,11.765
192,0.886,36.238,8.879,32.401,22.48,5.934,7.494,11.602
193,0.853,36.389,8.937,32.411,22.483,6.014,7.616,11.641
194,0.853,36.476,8.926,32.411,22.48,5.974,7.454,11.479
195,0.859,36.506,9.004,32.402,22.487,6.055,7.574,11.518
196,0.84,36.017,8.861,32.401,22.476,5.975,7.454,11.274
197,0.865,36.195,8.949,32.43,22.483,6.096,7.615,11.231
198,0.862,36.254,8.887,32.383,22.48,5.975,7.495,11.068
199,0.856,36.648,8.949,32.43,22.483,6.015,7.575,11.107
200,0.83,36.316,8.88,32.402,22.469,5.934,7.535,10.904
201,0.846,36.457,8.887,32.507,22.483,6.096,7.575,10.943
202,0.853,36.535,8.828,32.403,22.48,5.975,7.657,10.781
203,0.869,36.162,8.89,32.421,22.48,5.974,7.495,10.698
204,0.879,36.129,8.875,32.43,22.483,6.015,7.534,10.737
205,0.885,36.244,8.992,32.392,22.48,5.974,7.453,10.494
206,0.908,36.389,8.904,32.43,22.49,6.096,7.615,10.695
207,0.886,36.083,8.926,32.392,22.473,5.894,7.413,10.372
208,0.902,36.262,8.93,32.43,22.49,6.176,7.574,10.571
209,0.892,36.322,8.969,32.383,22.466,5.935,7.291,10.208
210,0.915,36.447,8.981,32.44,22.5,6.136,7.532,10.448
211,0.879,36.122,8.829,32.373,22.466,5.813,7.209,10.166
212,0.892,36.33,8.929,32.449,22.493,6.054,7.491,10.285
213,0.873,36.361,8.84,32.373,22.469,5.893,7.249,10.042
214,0.892,36.505,8.925,32.43,22.493,6.014,7.45,10.162
215,0.86,36.132,8.911,32.392,22.476,5.893,7.29,9.919
216,0.875,36.292,8.957,32.411,22.483,5.892,7.369,9.916
217,0.872,36.418,8.911,32.411,22.483,6.014,7.33,9.794
218,0.876,36.458,8.926,32.402,22.483,5.974,7.289,9.712
219,0.85,36.132,8.911,32.411,22.48,5.974,7.329,9.67
220,0.853,36.253,8.946,32.411,22.48,5.893,7.37,9.629
221,0.849,36.37,8.903,32.402,22.473,5.892,7.33,9.507
222,0.856,36.428,8.887,32.44,22.479,5.933,7.329,9.506
223,0.862,36.16,8.891,32.402,22.48,5.892,7.289,9.343
224,0.859,36.302,8.821,32.43,22.483,5.973,7.288,9.382
225,0.879,36.408,8.949,32.411,22.476,5.893,7.247,9.301
226,0.876,36.429,8.919,32.411,22.48,5.933,7.288,9.301
227,0.872,36.141,8.946,32.411,22.48,5.892,7.166,9.219
228,0.876,36.263,8.868,32.421,22.483,5.933,7.287,9.178
229,0.882,36.389,8.976,32.392,22.476,5.852,7.125,9.055
230,0.898,36.237,8.958,32.401,22.483,5.891,7.205,9.176
231,0.882,36.206,8.954,32.411,22.476,5.851,7.165,9.055
232,0.882,36.35,8.888,32.402,22.483,5.851,7.246,8.891
233,0.879,36.457,8.938,32.43,22.48,5.891,7.084,8.89
234,0.876,36.046,8.852,32.411,22.483,5.892,7.123,8.93
235,0.879,36.137,8.922,32.411,22.476,5.851,7.002,8.809
236,0.876,36.273,8.946,32.402,22.486,5.81,7.123,8.808
237,0.869,36.351,8.86,32.382,22.476,5.85,7.002,8.726
238,0.882,36.131,8.937,32.411,22.486,5.891,7.082,8.685
239,0.872,36.253,8.864,32.382,22.473,5.851,6.961,8.603
240,0.889,36.389,8.972,32.43,22.483,5.891,7.041,8.684
241,0.869,36.448,8.938,32.402,22.483,5.811,7.001,8.44
242,0.885,36.122,8.962,32.411,22.487,5.932,7.082,8.479
243,0.882,36.253,8.806,32.373,22.48,5.77,6.961,8.398
244,0.898,36.389,8.917,32.43,22.487,5.85,7.041,8.397
245,0.905,36.438,8.825,32.383,22.476,5.81,6.96,8.316
246,0.918,36.045,8.929,32.411,22.486,5.85,7.041,8.396
247,0.912,36.147,8.872,32.392,22.48,5.891,7.042,8.275
248,0.912,36.292,8.906,32.401,22.483,5.851,7.123,8.274
249,0.922,36.332,8.946,32.392,22.49,5.891,7.124,8.233
250,0.912,36.121,8.923,32.373,22.48,5.851,7.002,8.233
251,0.931,36.282,9.02,32.42,22.49,5.973,7.204,8.273
252,0.925,36.341,8.943,32.382,22.473,5.771,7.003,8.111
253,0.944,36.399,8.942,32.43,22.497,5.972,7.163,8.313
254,0.915,36.074,8.848,32.383,22.466,5.73,7.002,8.03
255,0.925,36.243,8.906,32.43,22.493,6.012,7.285,8.231
256,0.902,36.283,8.84,32.363,22.476,5.73,7.044,7.989
257,0.918,36.217,8.964,32.42,22.49,6.012,7.367,8.19
258,0.912,35.986,8.813,32.382,22.469,5.771,7.045,7.988
259,0.918,36.166,8.909,32.43,22.493,5.972,7.164,8.149
260,0.886,36.235,8.938,32.383,22.476,5.811,7.043,8.028
261,0.898,36.034,8.938,32.392,22.483,5.85,7.123,8.068
262,0.902,36.128,8.934,32.401,22.476,5.891,7.124,8.028
263,0.899,36.234,8.954,32.401,22.48,5.933,7.124,7.946
264,0.921,36.331,8.973,32.382,22.476,5.974,7.165,7.986
265,0.922,35.901,8.868,32.401,22.48,5.933,7.165,7.946
266,0.922,36.05,8.91,32.401,22.48,5.892,7.124,7.945
267,0.931,36.147,8.887,32.392,22.487,5.851,7.165,7.945
268,0.931,36.244,8.887,32.401,22.476,5.932,7.206,7.905
269,0.931,36.034,8.879,32.392,22.476,5.933,7.206,7.945
270,0.931,36.185,8.879,32.401,22.476,5.852,7.125,7.864
271,0.951,36.302,8.949,32.401,22.483,5.973,7.124,7.822
272,0.925,36.351,8.954,32.354,22.476,5.893,7.287,7.863
273,0.925,36.016,9.016,32.401,22.483,5.973,7.207,7.822
274,0.931,36.128,8.97,32.392,22.48,5.933,7.206,7.781
275,0.915,36.273,8.892,32.411,22.48,5.933,7.206,7.862
276,0.912,36.293,8.934,32.373,22.48,5.933,7.165,7.66
277,0.915,36.015,8.961,32.392,22.48,5.974,7.206,7.739
278,0.912,36.156,8.899,32.373,22.473,5.893,7.165,7.618
279,0.895,36.282,8.934,32.401,22.479,5.973,7.084,7.657
280,0.899,36.293,8.837,32.382,22.476,5.893,7.042,7.617
281,0.908,36.102,8.898,32.401,22.483,5.933,7.164,7.617
282,0.915,36.243,8.922,32.373,22.483,5.892,7.043,7.535
283,0.922,36.331,8.981,32.382,22.476,5.892,7.164,7.534
284,0.915,36.38,8.97,32.382,22.476,5.892,7.043,7.534
285,0.935,36.093,8.923,32.401,22.476,5.973,7.082,7.616
286,0.931,36.205,8.875,32.392,22.476,5.933,7.123,7.535
287,0.938,36.321,8.926,32.401,22.48,5.974,7.124,7.575
288,0.928,36.064,8.907,32.382,22.476,5.893,7.043,7.454
289,0.931,36.166,8.805,32.43,22.476,5.973,7.123,7.452
290,0.931,36.273,8.874,32.373,22.476,5.893,7.083,7.412
291,0.951,36.389,8.836,32.392,22.483,5.973,7.123,7.533
292,0.928,35.911,8.906,32.353,22.473,5.811,7.002,7.372
293,0.931,36.031,8.91,32.411,22.486,5.972,7.204,7.573
294,0.918,36.147,8.961,32.382,22.469,5.893,7.125,7.332
295,0.925,36.263,8.884,32.411,22.483,5.933,7.205,7.532
296,0.925,35.948,8.945,32.402,22.48,5.892,7.165,7.372
297,0.938,36.108,8.895,32.401,22.48,5.851,7.165,7.452
298,0.922,36.224,8.985,32.392,22.48,5.932,7.124,7.452
299,0.931,36.293,8.911,32.401,22.473,5.933,7.205,7.452
300,0.941,35.986,8.918,32.411,22.483,5.974,7.287,7.534
301,0.932,36.089,8.918,32.392,22.473,5.811,7.125,7.331
302,0.954,36.243,8.938,32.43,22.486,5.972,7.408,7.532
303,0.938,36.245,8.962,32.363,22.466,5.771,7.086,7.291
304,0.958,35.967,8.95,32.43,22.493,6.013,7.367,7.41
305,0.951,36.031,8.966,32.363,22.469,5.893,7.167,7.208
306,0.977,36.214,8.864,32.439,22.493,6.054,7.287,7.409
307,0.958,36.206,8.887,32.383,22.466,5.934,7.085,7.249
308,0.971,36.101,8.949,32.42,22.483,6.096,7.286,7.369
309,0.964,36.215,8.923,32.392,22.48,6.016,7.247,7.289
310,0.968,36.331,8.864,32.43,22.48,6.056,7.206,7.288
311,0.974,36.706,8.918,32.392,22.476,6.056,7.287,7.288
312,0.968,36.058,8.856,32.401,22.486,6.056,7.288,7.288
313,0.951,36.185,8.906,32.392,22.48,6.137,7.247,7.288
314,0.951,36.283,8.922,32.411,22.476,6.138,7.288,7.329
315,0.938,35.977,8.946,32.392,22.48,6.138,7.288,7.289
316,0.941,36.002,8.919,32.44,22.473,6.138,7.207,7.288
317,0.935,36.108,8.872,32.383,22.476,6.138,7.206,7.288
318,0.941,36.224,8.941,32.392,22.48,6.138,7.206,7.288
319,0.932,36.216,8.899,32.392,22.487,6.179,7.247,7.288
320,0.928,36.379,8.918,32.401,22.48,6.179,7.247,7.329
321,0.931,36.476,8.903,32.392,22.48,6.098,7.206,7.289
322,0.948,36.573,8.942,32.392,22.483,6.178,7.206,7.329
323,0.958,35.769,8.887,32.382,22.48,6.098,7.206,7.329
324,0.977,35.933,8.949,32.392,22.48,6.178,7.247,7.451
325,0.974,36.04,8.93,32.373,22.48,6.098,7.206,7.371
326,0.971,36.109,8.907,32.411,22.476,6.138,7.247,7.492
327,0.977,36.033,8.879,32.382,22.476,6.098,7.125,7.371
328,0.984,36.166,8.93,32.411,22.48,6.138,7.287,7.533
329,0.978,36.273,8.942,32.382,22.476,6.138,7.125,7.372
330,0.987,36.341,8.934,32.401,22.48,6.219,7.165,7.533
331,0.968,36.016,8.934,32.373,22.469,6.058,7.084,7.453
332,0.997,36.185,8.919,32.401,22.49,6.137,7.205,7.493
333,0.971,36.273,8.899,32.382,22.473,6.138,7.125,7.453
334,0.961,36.341,8.887,32.392,22.49,6.138,7.246,7.534
335,0.961,36.112,8.91,32.392,22.48,6.057,7.044,7.534
336,0.977,36.234,8.903,32.411,22.49,6.178,7.082,7.494
337,0.964,36.35,8.918,32.392,22.483,6.057,7.042,7.534
338,0.961,36.371,8.875,32.373,22.48,6.097,6.96,7.453
339,0.955,36.122,8.976,32.411,22.497,6.178,7.163,7.615
340,0.945,36.205,8.915,32.373,22.473,6.057,6.88,7.454
341,0.961,36.379,8.914,32.43,22.49,6.341,7.162,7.656
342,0.958,36.198,8.848,32.373,22.473,5.978,6.88,7.414
343,0.971,36.264,8.937,32.43,22.49,6.137,7.203,7.655
344,0.958,36.312,8.915,32.363,22.466,6.016,6.921,7.333
345,0.981,36.447,8.911,32.42,22.486,6.218,7.203,7.695
346,0.961,36.17,8.969,32.354,22.466,6.058,6.962,7.374
347,0.981,36.34,8.829,32.43,22.49,6.259,7.122,7.614
348,0.971,36.428,8.898,32.363,22.473,6.058,7.002,7.535
349,0.997,36.525,8.871,32.401,22.486,6.097,7.041,7.575
350,0.978,36.229,8.961,32.382,22.48,6.138,7.042,7.494
351,0.971,36.379,8.931,32.382,22.483,6.057,7.082,7.453
352,0.958,36.486,8.907,32.363,22.487,6.097,7.002,7.534
353,0.954,36.554,8.899,32.382,22.483,6.138,7.001,7.494
354,0.954,36.401,8.875,32.372,22.48,6.138,7.123,7.453
355,0.958,36.544,8.93,32.382,22.48,6.098,7.043,7.412
356,0.951,36.651,8.911,32.382,22.476,6.138,7.001,7.411
357,0.941,36.709,8.926,32.382,22.48,6.098,6.96,7.574
358,0.938,36.317,8.848,32.372,22.48,6.097,7.0,7.413
359,0.948,36.437,8.906,32.382,22.483,6.138,7.001,7.493
360,0.948,36.554,8.973,32.382,22.48,6.098,6.96,7.453
361,0.938,36.622,8.954,32.382,22.487,6.178,6.919,7.452
362,0.951,36.575,8.969,32.372,22.483,6.139,6.959,7.493
363,0.967,36.718,8.876,32.382,22.48,6.219,6.878,7.494
364,0.964,36.825,8.937,32.372,22.483,6.139,6.877,7.453
365,0.971,36.864,8.883,32.382,22.483,6.219,6.959,7.534
366,0.948,36.644,8.977,32.372,22.476,6.22,6.878,7.453
367,0.964,36.786,8.911,32.392,22.48,6.22,6.877,7.452
368,0.961,36.883,8.93,32.363,22.48,6.22,6.877,7.412
369,0.974,36.807,8.891,32.372,22.48,6.261,6.877,7.411
370,0.958,36.701,8.945,32.372,22.483,6.221,6.837,7.33
371,0.971,36.786,8.95,32.392,22.487,6.18,6.877,7.451
372,0.961,36.893,8.911,32.382,22.48,6.22,6.837,7.29
373,0.958,36.75,8.852,32.382,22.483,6.261,6.918,7.369
374,0.945,36.844,8.855,32.382,22.48,6.221,6.919,7.289
375,0.941,36.98,8.898,32.392,22.48,6.261,7.0,7.41
376,0.928,37.039,8.899,32.363,22.473,6.18,6.96,7.249
377,0.931,36.78,8.981,32.391,22.486,6.261,7.041,7.369
378,0.931,36.883,8.821,32.382,22.476,6.221,7.001,7.248
379,0.931,37.047,8.906,32.401,22.486,6.261,7.204,7.328
380,0.925,37.097,8.903,32.363,22.476,6.139,7.003,7.167
381,0.944,36.896,8.977,32.391,22.483,6.219,7.245,7.328
382,0.938,36.999,8.911,32.363,22.473,6.139,7.166,7.207
383,0.951,37.154,8.969,32.391,22.479,6.179,7.206,7.287
384,0.958,37.175,8.849,32.353,22.473,6.098,7.247,7.125
385,0.984,36.925,8.91,32.391,22.486,6.138,7.369,7.205
386,0.974,37.048,8.871,32.392,22.483,6.138,7.208,7.125
387,0.99,37.154,8.953,32.373,22.483,6.179,7.287,7.205
388,1.01,37.194,8.93,32.401,22.487,6.22,7.41,7.206
389,1.007,37.108,8.899,32.363,22.476,6.139,7.249,7.084
390,1.014,37.251,8.977,32.382,22.486,6.219,7.41,7.205
391,0.994,37.319,8.923,32.363,22.473,6.058,7.289,7.043
392,0.991,37.378,8.977,32.401,22.493,6.259,7.41,7.245
393,0.965,37.071,8.927,32.354,22.473,6.058,7.208,6.922
394,0.987,37.26,8.926,32.391,22.493,6.219,7.491,7.203
395,0.958,37.31,8.848,32.353,22.469,6.017,7.249,7.043
396,0.977,37.473,8.914,32.391,22.493,6.218,7.41,7.286
397,0.955,37.207,8.907,32.325,22.466,5.976,7.167,7.044
398,0.971,37.396,8.957,32.391,22.486,6.177,7.409,7.245
399,0.955,37.426,8.884,32.334,22.469,6.017,7.289,7.084
400,0.971,37.187,8.938,32.382,22.483,6.056,7.288,7.205
401,0.958,37.232,8.899,32.372,22.48,6.056,7.288,7.165
402,0.961,37.348,8.973,32.382,22.48,6.097,7.247,7.206
403,0.977,37.416,9.017,32.372,22.48,5.935,7.206,7.165
404,0.984,37.283,8.923,32.372,22.483,6.014,7.206,7.206
405,0.974,37.425,8.844,32.363,22.476,5.974,7.125,7.165
406,0.971,37.532,8.84,32.363,22.483,5.974,7.165,7.206
407,0.968,37.619,8.914,32.382,22.48,5.933,7.124,7.165
408,0.968,37.16,8.891,32.372,22.483,5.974,7.124,7.165
409,0.994,37.309,8.824,32.372,22.48,5.893,7.083,7.124
410,0.997,37.425,8.867,32.372,22.48,6.014,7.083,7.205
411,0.997,37.484,8.918,32.353,22.476,5.893,7.042,7.125
412,1.01,37.418,8.918,32.372,22.483,5.933,7.082,7.165
413,0.988,37.551,8.977,32.372,22.476,5.892,7.002,7.165
414,0.987,37.658,8.985,32.353,22.48,5.892,6.96,7.124
415,0.984,37.707,8.931,32.363,22.483,5.811,7.0,7.165
416,0.984,37.18,8.918,32.363,22.487,5.932,7.082,7.165
417,0.974,37.299,8.883,32.372,22.476,5.933,6.92,7.124
418,0.977,37.416,8.977,32.372,22.476,5.974,6.959,7.205
419,0.964,37.426,8.876,32.353,22.48,5.893,6.838,7.165
420,0.968,37.359,8.906,32.372,22.487,5.892,6.958,7.165
421,0.974,37.483,8.868,32.353,22.48,5.851,6.797,7.165
422,0.964,37.581,8.933,32.353,22.48,5.973,6.917,7.287
423,0.958,37.936,8.872,32.353,22.473,5.852,6.796,7.125
424,0.961,37.278,8.965,32.372,22.479,6.013,6.836,7.327
425,0.971,37.367,8.946,32.344,22.473,5.852,6.837,7.207
426,0.971,37.522,8.965,32.363,22.486,5.891,6.877,7.287
427,0.958,37.351,8.841,32.353,22.473,5.851,6.796,7.207
428,0.981,37.416,8.961,32.372,22.486,5.973,6.877,7.369
429,0.974,37.522,8.872,32.344,22.48,5.811,6.755,7.289
430,0.968,37.629,8.891,32.382,22.483,5.85,6.957,7.207
431,0.974,37.314,8.906,32.353,22.48,6.013,6.96,7.287
432,0.971,37.445,8.883,32.353,22.48,5.852,6.878,7.329
433,0.958,37.561,8.953,32.382,22.487,5.932,7.0,7.492
434,0.948,37.61,8.93,32.344,22.473,5.852,6.838,7.331
435,0.951,37.275,8.989,32.372,22.49,6.013,7.04,7.573
436,0.922,37.387,8.896,32.353,22.473,5.812,6.798,7.291
437,0.944,37.57,8.949,32.372,22.49,6.013,7.039,7.573
438,0.928,37.562,8.907,32.334,22.476,5.812,6.839,7.332
439,0.925,37.294,8.973,32.391,22.49,6.054,7.121,7.573
440,0.909,37.368,8.853,32.344,22.469,5.812,6.799,7.291
441,0.944,37.531,8.949,32.401,22.493,6.054,7.039,7.532
442,0.928,37.552,8.841,32.334,22.476,5.853,6.798,7.25
443,0.954,37.313,8.906,32.391,22.493,6.054,7.039,7.491
444,0.932,37.387,8.938,32.334,22.476,5.893,6.879,7.331
445,0.944,37.532,8.942,32.362,22.48,6.014,6.918,7.451
446,0.951,37.543,8.903,32.353,22.48,5.934,6.837,7.412
447,0.941,37.217,8.899,32.363,22.483,5.974,6.958,7.371
448,0.938,37.319,8.926,32.344,22.483,5.933,7.0,7.37
449,0.951,37.416,8.903,32.353,22.487,5.974,6.879,7.411
450,0.948,37.446,8.938,32.353,22.487,5.933,6.837,7.33
451,0.961,37.36,8.798,32.363,22.476,5.974,6.877,7.37
452,0.942,37.493,8.874,32.353,22.483,5.893,6.877,7.37
453,0.938,37.59,8.891,32.372,22.483,5.973,6.918,7.33
454,0.938,37.332,8.879,32.353,22.473,5.933,6.959,7.37
455,0.922,37.263,8.93,32.353,22.483,5.892,6.838,7.37
456,0.909,37.396,8.911,32.343,22.483,5.892,6.837,7.33
457,0.915,37.493,8.953,32.334,22.487,5.892,6.918,7.37
458,0.915,37.274,8.848,32.362,22.48,5.892,6.919,7.33
459,0.915,37.396,8.929,32.372,22.48,5.892,6.878,7.329
460,0.912,37.484,8.922,32.353,22.473,5.811,6.837,7.329
461,0.918,37.561,8.915,32.372,22.493,5.891,6.918,7.37
462,0.909,37.044,8.821,32.353,22.476,5.811,6.796,7.289
463,0.931,37.183,8.886,32.42,22.48,5.891,6.836,7.329
464,0.928,37.299,8.899,32.344,22.483,5.77,6.796,7.289
465,0.925,37.377,8.875,32.343,22.483,5.931,6.877,7.369
466,0.931,37.167,8.945,32.353,22.476,5.811,6.796,7.37
467,0.938,37.328,8.829,32.353,22.49,5.891,6.836,7.452
468,0.941,37.416,8.921,32.343,22.483,5.851,6.796,7.371
469,0.961,37.503,8.934,32.363,22.487,5.891,6.795,7.411
470,0.948,37.149,8.969,32.353,22.476,5.851,6.714,7.33
471,0.948,37.28,8.911,32.353,22.483,5.891,6.835,7.451
472,0.919,37.377,8.864,32.334,22.476,5.851,6.755,7.412
473,0.925,37.445,8.812,32.362,22.486,5.891,6.836,7.533
474,0.915,37.158,8.847,32.363,22.483,5.811,6.796,7.494
475,0.931,37.318,8.808,32.363,22.487,5.932,6.877,7.575
476,0.925,37.358,8.917,32.344,22.473,5.852,6.837,7.575
477,0.915,37.416,8.868,32.372,22.49,5.932,6.958,7.657
478,0.918,37.129,8.867,32.344,22.469,5.811,6.878,7.536
479,0.941,37.28,8.922,32.363,22.483,5.932,6.959,7.738
480,0.941,37.348,8.93,32.353,22.48,5.852,6.878,7.659
481,0.945,37.272,8.985,32.372,22.476,5.932,7.0,7.739
482,0.964,37.147,8.923,32.344,22.48,5.852,6.919,7.74
483,0.968,37.27,8.93,32.363,22.483,5.851,6.959,7.699
484,0.961,37.377,8.794,32.363,22.487,5.891,7.041,7.78
485,0.977,36.995,8.902,32.334,22.473,5.892,6.96,7.7
486,0.971,37.077,8.91,32.372,22.49,5.892,7.163,7.861
487,0.958,37.174,8.926,32.344,22.473,5.729,7.043,7.619
488,0.971,37.328,8.942,32.382,22.497,6.012,7.245,7.779
489,0.971,37.013,8.887,32.296,22.473,5.69,7.044,7.537
490,0.971,37.211,8.965,32.372,22.493,5.971,7.204,7.738
491,0.955,37.233,8.962,32.324,22.466,5.689,6.921,7.537
492,0.977,37.386,9.024,32.381,22.493,5.931,7.285,7.697
493,0.929,36.928,8.908,32.315,22.469,5.73,7.004,7.536
494,0.944,37.124,8.934,32.372,22.486,5.931,7.245,7.697
495,0.938,37.213,8.868,32.344,22.48,5.811,7.044,7.618
496,0.941,37.3,8.918,32.353,22.483,5.81,7.164,7.698
497,0.925,37.051,8.872,32.353,22.48,5.769,7.084,7.658
498,0.944,37.183,8.871,32.353,22.48,5.809,7.042,7.698
499,0.922,37.309,8.859,32.343,22.48,5.769,7.042,7.658
500,0.925,37.368,8.879,32.343,22.473,5.85,7.042,7.658
501,0.938,37.004,8.973,32.343,22.476,5.81,6.96,7.658
502,0.945,37.135,8.95,32.343,22.483,5.932,6.96,7.698
503,0.958,37.232,8.966,32.334,22.48,5.73,7.0,7.618
504,0.958,37.271,8.899,32.343,22.48,5.809,6.96,7.698
505,0.958,37.166,8.965,32.343,22.473,5.688,6.919,7.658
506,0.968,37.271,8.872,32.363,22.479,5.727,6.919,7.658
507,0.958,37.358,8.957,32.334,22.473,5.768,6.919,7.658
508,0.977,37.34,8.86,32.353,22.483,5.768,6.959,7.698
509,0.968,36.985,8.914,32.334,22.48,5.728,6.797,7.618
510,0.971,37.125,8.93,32.353,22.48,5.687,6.836,7.617
511,0.977,37.213,8.895,32.334,22.48,5.727,6.796,7.576
512,0.964,36.945,8.973,32.334,22.476,5.727,6.836,7.657
513,0.961,37.009,8.962,32.314,22.476,5.646,6.755,7.536
514,0.961,37.135,9.001,32.353,22.473,5.686,6.754,7.616
515,0.942,37.222,8.861,32.324,22.479,5.605,6.714,7.576
516,0.948,36.916,8.906,32.343,22.483,5.645,6.713,7.575
517,0.938,37.047,8.922,32.334,22.476,5.645,6.672,7.413
518,0.938,37.183,8.973,32.334,22.48,5.686,6.794,7.574
519,0.945,37.242,8.825,32.343,22.476,5.687,6.673,7.454
520,0.948,36.84,8.898,32.353,22.483,5.687,6.794,7.574
521,0.935,36.97,8.91,32.315,22.473,5.564,6.714,7.454
522,0.941,37.086,8.918,32.343,22.486,5.645,6.754,7.574
523,0.941,37.116,8.965,32.315,22.473,5.605,6.673,7.413
524,0.941,36.963,8.973,32.353,22.493,5.686,6.794,7.574
525,0.958,37.058,8.915,32.315,22.476,5.564,6.714,7.494
526,0.974,37.212,8.864,32.353,22.486,5.685,6.794,7.616
527,0.964,37.252,8.906,32.305,22.473,5.605,6.673,7.454
528,0.961,36.936,8.899,32.343,22.483,5.686,6.794,7.493
529,0.971,37.086,8.899,32.334,22.483,5.646,6.755,7.534
530,0.971,37.174,8.895,32.324,22.483,5.645,6.714,7.412
531,0.974,37.223,8.895,32.343,22.48,5.645,6.835,7.574
532,0.968,36.907,8.953,32.315,22.476,5.605,6.714,7.413
533,0.958,37.076,8.962,32.353,22.49,5.767,6.876,7.655
534,0.945,37.145,8.966,32.296,22.476,5.565,6.715,7.373
535,0.951,37.529,8.911,32.352,22.493,5.807,6.876,7.492
536,0.932,36.996,8.953,32.315,22.473,5.525,6.593,7.331
537,0.944,37.163,8.891,32.353,22.49,5.847,6.915,7.573
538,0.925,37.203,8.957,32.296,22.466,5.526,6.634,7.332
539,0.951,36.926,8.872,32.362,22.493,5.807,6.834,7.614
540,0.925,36.885,8.781,32.324,22.466,5.566,6.633,7.332
541,0.931,37.095,8.882,32.343,22.49,5.807,6.753,7.532
542,0.922,37.126,8.863,32.305,22.476,5.647,6.632,7.494
543,0.951,36.829,8.933,32.333,22.483,5.686,6.712,7.494
544,0.938,36.912,8.938,32.305,22.48,5.646,6.632,7.331
545,0.935,37.057,8.969,32.333,22.473,5.686,6.631,7.492
546,0.941,37.126,8.806,32.334,22.479,5.646,6.631,7.453
547,0.951,36.829,8.917,32.334,22.48,5.727,6.672,7.452
548,0.948,36.97,8.922,32.324,22.483,5.687,6.631,7.452
549,0.974,37.096,8.938,32.334,22.48,5.687,6.672,7.493
550,0.971,37.164,8.833,32.324,22.48,5.646,6.591,7.453
551,0.968,36.743,8.89,32.314,22.48,5.686,6.631,7.493
552,0.948,36.873,8.871,32.314,22.48,5.605,6.631,7.453
553,0.938,36.98,8.937,32.314,22.483,5.645,6.631,7.493
554,0.948,37.048,8.895,32.324,22.48,5.645,6.631,7.453
555,0.954,36.828,8.973,32.324,22.487,5.686,6.631,7.534
556,0.938,36.951,8.915,32.314,22.48,5.646,6.509,7.575
557,0.935,37.086,8.899,32.333,22.48,5.645,6.589,7.575
558,0.935,37.097,8.922,32.314,22.476,5.645,6.549,7.575
559,0.909,36.81,8.985,32.324,22.48,5.645,6.63,7.698
560,0.902,36.922,8.946,32.324,22.48,5.605,6.55,7.658
561,0.931,37.048,8.852,32.324,22.48,5.645,6.712,7.658
562,0.938,37.058,8.902,32.324,22.473,5.645,6.672,7.739
563,0.938,36.809,8.86,32.324,22.483,5.645,6.713,7.74
564,0.935,36.922,8.848,32.314,22.476,5.645,6.632,7.74
565,0.931,37.019,8.812,32.333,22.48,5.645,6.794,7.781
566,0.931,36.799,8.89,32.314,22.48,5.605,6.633,7.7
567,0.931,36.778,8.863,32.333,22.48,5.645,6.753,7.78
568,0.925,36.893,8.883,32.324,22.473,5.523,6.673,7.7
569,0.922,36.99,8.938,32.324,22.486,5.644,6.713,7.74
570,0.925,36.693,8.922,32.324,22.48,5.564,6.713,7.659
571,0.931,36.825,8.938,32.334,22.487,5.726,6.794,7.739
572,0.915,36.922,8.872,32.305,22.469,5.605,6.755,7.577
573,0.909,37.028,8.902,32.362,22.483,5.686,6.876,7.779
574,0.886,36.627,8.867,32.296,22.476,5.564,6.674,7.659
575,0.882,36.786,8.883,32.333,22.486,5.685,6.794,7.78
576,0.876,36.893,8.887,32.305,22.48,5.605,6.755,7.7
577,0.879,36.99,8.871,32.324,22.483,5.726,6.876,7.74
578,0.882,36.713,8.844,32.324,22.48,5.646,6.796,7.699
579,0.882,36.863,8.918,32.334,22.483,5.686,6.836,7.699
580,0.882,36.951,8.957,32.334,22.483,5.687,6.877,7.699
581,0.882,37.0,8.95,32.334,22.48,5.687,6.837,7.699
582,0.892,36.694,8.93,32.353,22.487,5.768,6.958,7.78
583,0.889,36.796,8.848,32.315,22.476,5.647,6.797,7.578
584,0.902,36.95,8.976,32.353,22.493,5.808,6.958,7.82
585,0.899,36.952,8.833,32.305,22.473,5.566,6.634,7.659
586,0.912,36.741,8.941,32.353,22.493,5.807,6.875,7.82
587,0.899,36.796,8.837,32.305,22.469,5.525,6.755,7.537
588,0.912,36.979,8.91,32.343,22.497,5.888,6.957,7.779
589,0.895,36.952,8.836,32.286,22.473,5.526,6.797,7.496
590,0.912,36.77,8.941,32.362,22.486,5.766,6.958,7.738
591,0.886,36.825,8.883,32.305,22.476,5.647,6.716,7.577
592,0.889,36.97,8.926,32.353,22.486,5.727,6.794,7.657
593,0.866,36.856,8.922,32.296,22.473,5.646,6.755,7.536
594,0.869,36.826,8.86,32.333,22.479,5.686,6.836,7.575
595,0.872,36.912,8.914,32.314,22.483,5.727,6.796,7.616
596,0.872,37.028,8.922,32.324,22.487,5.687,6.836,7.617
597,0.866,36.675,8.954,32.314,22.48,5.687,6.958,7.617
598,0.879,36.786,8.88,32.333,22.48,5.687,6.878,7.657
599,0.889,36.902,8.906,32.314,22.48,5.727,6.877,7.617
600,0.879,37.009,8.91,32.343,22.48,5.727,6.877,7.657
601,0.876,36.655,8.946,32.343,22.476,5.727,6.796,7.536
602,0.895,36.796,8.887,32.334,22.486,5.727,6.877,7.575
603,0.869,36.912,8.906,32.324,22.473,5.687,6.918,7.535
604,0.892,36.99,8.899,32.334,22.479,5.768,6.919,7.616
605,0.895,36.646,8.879,32.334,22.48,5.768,6.878,7.535
606,0.895,36.786,8.914,32.343,22.48,5.687,6.959,7.575
607,0.895,36.864,8.891,32.315,22.476,5.727,6.878,7.454
608,0.895,36.942,8.879,32.353,22.48,5.768,6.959,7.534
609,0.892,36.52,8.84,32.315,22.48,5.687,6.919,7.453
610,0.892,36.679,8.894,32.333,22.48,5.727,7.081,7.534
611,0.873,36.777,8.895,32.334,22.473,5.727,6.961,7.453
612,0.882,36.835,8.988,32.334,22.479,5.768,7.041,7.574
613,0.863,36.634,8.962,32.334,22.473,5.647,7.001,7.494
614,0.862,36.795,8.899,32.353,22.479,5.727,7.163,7.616
615,0.859,36.893,8.914,32.324,22.476,5.646,7.043,7.495
616,0.869,36.932,8.86,32.343,22.483,5.767,7.204,7.656
617,0.866,36.607,8.953,32.324,22.473,5.728,7.125,7.576
618,0.872,36.766,8.813,32.334,22.479,5.727,7.287,7.698
619,0.856,36.864,8.886,32.334,22.473,5.646,7.166,7.577
620,0.866,36.913,8.918,32.353,22.479,5.767,7.287,7.698
621,0.876,36.721,8.922,32.315,22.476,5.728,7.207,7.658
622,0.869,36.844,8.993,32.324,22.48,5.768,7.247,7.617
623,0.856,36.922,8.97,32.324,22.483,5.809,7.247,7.617
624,0.869,36.664,8.993,32.343,22.476,5.891,7.206,7.576
625,0.876,36.729,8.868,32.353,22.48,5.851,7.287,7.698
626,0.879,36.844,8.93,32.324,22.483,5.769,7.125,7.536
627,0.889,36.941,8.934,32.362,22.493,5.931,7.368,7.738
628,0.863,36.54,8.95,32.334,22.473,5.811,7.126,7.455
629,0.885,36.727,8.876,32.391,22.49,5.972,7.368,7.656
630,0.879,36.806,8.895,32.315,22.473,5.73,7.045,7.373
631,0.892,36.951,8.914,32.372,22.493,6.012,7.326,7.614
632,0.863,36.52,8.93,32.315,22.469,5.852,7.045,7.413
633,0.875,36.727,8.961,32.353,22.49,6.054,7.204,7.655
634,0.85,36.777,8.919,32.315,22.469,5.812,7.003,7.373
635,0.866,36.893,8.93,32.353,22.49,6.013,7.204,7.533
636,0.84,36.616,8.907,32.315,22.473,5.852,7.125,7.372
637,0.852,36.766,8.946,32.353,22.483,5.973,7.124,7.37
638,0.849,36.845,8.899,32.324,22.487,5.974,7.083,7.452
639,0.84,36.932,8.875,32.343,22.483,5.974,7.123,7.452
640,0.849,36.587,8.879,32.334,22.48,5.974,7.043,7.371
641,0.843,36.728,8.898,32.353,22.48,5.974,7.082,7.37
642,0.859,36.825,8.883,32.324,22.476,5.974,7.002,7.33
643,0.875,36.874,8.906,32.343,22.48,6.015,7.123,7.329
644,0.876,36.568,8.918,32.324,22.487,5.974,7.043,7.329
645,0.882,36.708,8.946,32.353,22.48,6.015,7.082,7.289
646,0.905,36.825,8.954,32.343,22.473,5.974,7.042,7.369
647,0.889,37.143,8.938,32.343,22.479,6.015,7.123,7.37
648,0.889,36.695,9.008,32.343,22.476,6.056,7.002,7.411
649,0.905,36.834,8.872,32.334,22.48,6.015,7.123,7.371
650,0.899,36.932,8.953,32.324,22.476,6.056,7.124,7.33
651,0.899,36.597,8.864,32.334,22.483,6.056,7.205,7.289
652,0.902,36.613,8.902,32.324,22.48,6.097,7.206,7.329
653,0.902,36.757,8.883,32.324,22.483,6.138,7.287,7.329
654,0.892,36.835,8.957,32.334,22.476,6.057,7.125,7.289
655,0.886,36.749,8.969,32.324,22.483,6.056,7.205,7.247
656,0.898,36.864,8.903,32.343,22.473,6.056,7.206,7.247
657,0.908,37.028,8.949,32.334,22.483,6.137,7.247,7.288
658,0.912,37.077,8.911,32.314,22.483,6.098,7.206,7.207
659,0.918,36.464,8.942,32.333,22.487,6.097,7.287,7.328
660,0.922,36.583,8.848,32.334,22.476,6.016,7.207,7.248
661,0.918,36.718,8.925,32.353,22.48,6.056,7.206,7.288
662,0.928,36.787,8.809,32.315,22.473,6.015,7.206,7.207
663,0.935,36.701,8.909,32.353,22.483,6.096,7.206,7.247
664,0.935,36.796,8.868,32.315,22.473,5.935,7.165,7.125
665,0.964,36.922,8.953,32.353,22.486,6.055,7.246,7.205
666,0.958,36.961,8.876,32.315,22.476,5.975,7.125,7.084
667,0.971,36.597,8.887,32.333,22.486,6.055,7.205,7.205
668,0.971,36.718,8.895,32.334,22.473,5.975,7.125,7.084
669,0.977,36.863,8.942,32.343,22.479,6.096,7.165,7.205
670,0.971,36.865,8.942,32.324,22.48,6.056,7.084,7.165
671,0.971,36.635,8.844,32.353,22.473,6.015,7.123,7.124
672,0.964,36.747,8.914,32.334,22.479,6.056,7.124,7.124
673,0.961,36.864,8.891,32.343,22.483,6.015,7.043,7.205
674,0.971,36.894,8.938,32.353,22.483,6.096,7.164,7.206
675,0.964,36.645,8.942,32.305,22.473,5.935,6.962,7.084
676,0.964,36.795,8.962,32.353,22.49,6.136,7.122,7.286
677,0.932,36.874,8.845,32.315,22.473,5.976,6.961,7.125
678,0.977,36.702,8.918,32.353,22.493,6.177,7.204,7.327
679,0.958,36.614,8.914,32.296,22.469,5.895,6.84,7.004
680,0.99,36.795,8.946,32.381,22.497,6.136,7.162,7.367
681,0.981,36.835,8.895,32.305,22.473,5.935,6.88,7.126
682,1.033,36.663,8.824,32.381,22.493,6.055,7.121,7.287
683,1.05,36.709,8.89,32.315,22.473,5.934,6.921,7.125
684,1.066,36.882,8.821,32.362,22.483,6.055,7.0,7.246
685,1.043,36.923,8.937,32.334,22.48,6.015,6.879,7.288
686,1.059,36.539,8.887,32.334,22.48,6.056,6.918,7.207
687,1.056,36.699,8.914,32.353,22.483,6.015,6.878,7.165
688,1.063,36.786,8.844,32.334,22.476,6.015,6.918,7.206
689,1.066,36.883,8.91,32.324,22.48,6.015,6.878,7.247
690,1.066,36.549,8.95,32.334,22.483,6.137,6.796,7.166
691,1.069,36.689,8.884,32.324,22.48,6.098,6.836,7.206
692,1.04,36.825,8.883,32.334,22.483,6.178,6.837,7.165
693,1.037,36.874,8.832,32.372,22.476,6.098,6.755,7.206
694,1.037,36.587,8.914,32.344,22.483,6.097,6.836,7.247
695,1.017,36.709,8.868,32.324,22.48,6.056,6.796,7.166
696,1.014,36.825,8.953,32.334,22.476,6.178,6.836,7.246
697,1.001,36.864,8.837,32.324,22.473,6.139,6.837,7.206
698,0.991,36.683,8.902,32.334,22.479,6.219,6.877,7.247
699,0.978,36.796,8.887,32.353,22.476,6.22,6.796,7.288
700,0.964,36.931,8.961,32.334,22.483,6.22,6.877,7.369
701,0.968,36.933,8.958,32.334,22.48,6.139,6.755,7.37
702,0.951,36.664,8.868,32.353,22.483,6.219,6.876,7.452
703,0.951,36.786,8.844,32.334,22.476,6.139,6.796,7.29
704,0.951,36.912,8.843,32.334,22.48,6.219,6.836,7.369
705,0.945,36.712,8.894,32.324,22.476,6.22,6.796,7.33
706,0.945,36.643,8.887,32.353,22.486,6.261,6.877,7.37
707,0.925,36.748,8.906,32.334,22.473,6.18,6.796,7.289
708,0.935,36.864,8.864,32.353,22.483,6.261,6.917,7.369
709,0.925,36.529,8.879,32.315,22.473,6.221,6.756,7.33
710,0.935,36.66,8.934,32.353,22.483,6.302,6.876,7.37
711,0.909,36.767,8.903,32.324,22.48,6.221,6.796,7.289
712,0.899,36.854,8.922,32.324,22.483,6.302,6.958,7.288
713,0.892,36.529,8.833,32.334,22.476,6.343,6.838,7.329
714,0.869,36.708,8.867,32.353,22.48,6.303,6.837,7.37
715,0.853,36.834,8.867,32.353,22.487,6.384,6.918,7.37
716,0.843,36.865,8.933,32.324,22.476,6.222,6.837,7.289
717,0.83,36.615,8.942,32.372,22.493,6.464,6.999,7.532
718,0.826,36.709,8.911,32.315,22.473,6.182,6.838,7.209
719,0.839,36.882,8.895,32.381,22.493,6.464,6.999,7.491
720,0.797,36.884,8.93,32.315,22.466,6.182,6.797,7.209
721,0.82,36.597,8.954,32.372,22.49,6.383,7.039,7.369
722,0.813,36.67,8.95,32.305,22.469,6.141,6.798,7.208
723,0.82,36.834,8.907,32.333,22.486,6.26,6.958,7.328
724,0.81,36.845,8.891,32.314,22.476,6.221,6.878,7.37
725,0.836,36.51,8.828,32.353,22.486,6.261,6.918,7.33
726,0.813,36.641,8.867,32.353,22.487,6.18,6.959,7.289
727,0.816,36.757,8.922,32.353,22.48,6.22,6.919,7.329
728,0.82,36.787,8.875,32.363,22.476,6.22,6.959,7.289
729,0.826,36.586,8.898,32.344,22.486,6.22,6.919,7.329
730,0.83,36.709,8.899,32.334,22.483,6.22,6.878,7.248
731,0.836,36.796,8.942,32.343,22.483,6.22,6.959,7.328
732,0.817,36.759,8.923,32.334,22.483,6.22,7.0,7.329
733,0.816,36.576,8.965,32.353,22.48,6.139,6.919,7.289
734,0.826,36.67,8.868,32.334,22.487,6.138,6.919,7.207
735,0.807,36.796,8.906,32.343,22.487,6.138,6.919,7.369
736,0.807,36.49,8.821,32.324,22.48,6.138,6.919,7.289
737,0.82,36.573,8.949,32.343,22.476,6.098,6.919,7.288
738,0.83,36.689,8.852,32.334,22.483,6.097,6.919,7.288
739,0.81,36.786,8.929,32.343,22.483,6.178,6.919,7.329
740,0.82,36.452,8.864,32.334,22.48,6.057,6.878,7.289
741,0.817,36.592,8.945,32.362,22.48,6.137,6.918,7.288
742,0.807,36.728,9.016,32.344,22.476,6.098,6.878,7.207
743,0.807,36.787,8.974,32.353,22.486,6.097,6.959,7.287
744,0.803,36.461,8.95,32.334,22.476,6.056,6.96,7.207
745,0.807,36.611,8.911,32.372,22.483,6.097,7.082,7.328
746,0.813,36.718,8.907,32.324,22.473,5.975,7.042,7.289
747,0.823,36.806,8.883,32.353,22.486,6.137,7.204,7.369
748,0.807,36.394,8.922,32.334,22.473,6.016,7.125,7.248
749,0.82,36.544,8.887,32.343,22.486,6.056,7.246,7.288
750,0.82,36.641,8.883,32.324,22.473,5.893,7.166,7.207
751,0.839,36.719,8.867,32.343,22.483,6.014,7.287,7.287
752,0.804,36.509,8.937,32.324,22.476,5.852,7.247,7.207
753,0.813,36.669,8.938,32.353,22.483,5.973,7.369,7.206
754,0.803,36.757,8.962,32.334,22.48,5.893,7.289,7.206
755,0.787,36.806,8.934,32.353,22.483,5.973,7.288,7.328
756,0.8,36.509,8.887,32.363,22.49,5.974,7.329,7.329
757,0.813,36.641,8.922,32.334,22.483,5.852,7.289,7.289
758,0.797,36.748,8.93,32.362,22.493,5.973,7.41,7.369
759,0.787,37.084,8.891,32.334,22.48,5.811,7.249,7.208
760,0.816,37.049,8.821,32.362,22.493,6.013,7.45,7.45
761,0.79,37.126,8.902,32.315,22.469,5.771,7.168,7.249
762,0.78,37.28,8.887,32.353,22.493,6.013,7.45,7.41
763,0.79,36.313,8.961,32.305,22.469,5.812,7.168,7.167
764,0.819,36.293,8.977,32.381,22.49,6.013,7.409,7.49
765,0.813,36.341,8.935,32.325,22.473,5.73,7.167,7.168
766,0.846,36.534,8.95,32.381,22.486,5.89,7.368,7.409
767,0.794,36.43,8.868,32.296,22.473,5.77,7.126,7.208
768,0.819,36.592,8.98,32.362,22.486,5.891,7.327,7.369
769,0.813,36.689,8.872,32.334,22.476,5.77,7.167,7.289
770,0.816,36.796,8.883,32.334,22.483,5.809,7.246,7.288
771,0.82,36.404,8.852,32.343,22.483,5.81,7.166,7.247
772,0.8,36.515,8.941,32.353,22.48,5.81,7.246,7.247
773,0.797,36.65,8.907,32.334,22.48,5.728,7.125,7.206
774,0.816,36.719,8.973,32.334,22.483,5.768,7.205,7.287
775,0.803,36.374,8.931,32.343,22.476,5.809,7.125,7.288
776,0.79,36.534,8.891,32.334,22.476,5.769,7.205,7.288
777,0.777,36.651,8.91,32.334,22.476,5.728,7.125,7.166
778,0.774,36.7,8.93,32.343,22.48,5.89,7.165,7.287
779,0.777,36.412,8.911,32.343,22.48,5.729,7.165,7.125
780,0.758,36.563,8.864,32.353,22.483,5.768,7.165,7.287
781,0.754,36.651,8.898,32.324,22.48,5.809,7.124,7.207
782,0.774,36.7,8.86,32.343,22.48,5.769,7.246,7.206
783,0.78,36.412,8.922,32.334,22.473,5.728,7.125,7.125
784,0.797,36.544,8.946,32.353,22.483,5.768,7.246,7.165
785,0.8,36.632,8.977,32.324,22.48,5.728,7.166,7.124
786,0.8,36.795,8.946,32.343,22.487,5.687,7.206,7.205
787,0.797,36.366,8.887,32.324,22.48,5.727,7.165,7.125
788,0.839,36.505,8.981,32.343,22.487,5.768,7.165,7.287
789,0.872,36.602,8.876,32.315,22.473,5.687,7.124,7.207
790,0.889,36.364,8.918,32.372,22.483,5.768,7.205,7.247
791,0.912,36.323,8.84,32.315,22.473,5.728,7.084,7.206
792,0.938,36.457,8.894,32.353,22.486,5.727,7.245,7.328
793,0.945,36.535,8.914,32.324,22.473,5.646,7.044,7.207
794,0.993,36.286,8.93,32.343,22.49,5.767,7.164,7.369
795,0.994,36.399,8.915,32.324,22.476,5.606,7.043,7.289
796,1.039,36.534,8.774,32.353,22.483,5.848,7.164,7.329
797,1.063,36.622,8.893,32.315,22.483,5.688,7.084,7.329
798,1.108,36.325,8.891,32.333,22.493,5.727,7.042,7.37
799,1.125,36.447,8.965,32.343,22.483,5.687,7.204,7.452
800,1.151,36.554,8.868,32.334,22.476,5.687,7.043,7.33
801,1.207,36.66,8.914,32.41,22.497,5.809,7.204,7.573
802,1.233,36.22,8.821,32.315,22.469,5.566,6.921,7.291
803,1.328,36.436,8.871,32.362,22.493,5.766,7.122,7.532
804,1.345,36.496,8.898,32.305,22.469,5.484,6.921,7.291
805,1.397,36.602,8.949,32.372,22.49,5.806,7.203,7.491
806,1.411,36.258,8.86,32.315,22.473,5.647,6.962,7.331
807,1.437,36.466,8.902,32.353,22.486,5.686,7.163,7.492
808,1.405,36.525,8.887,32.315,22.48,5.605,7.043,7.453
809,1.434,36.574,8.941,32.324,22.476,5.686,7.082,7.452
810,1.431,36.287,8.934,32.334,22.48,5.646,7.123,7.493
811,1.431,36.428,8.86,32.353,22.48,5.686,7.083,7.494
812,1.444,36.554,8.941,32.343,22.48,5.646,7.205,7.494
813,1.493,36.555,8.88,32.343,22.476,5.645,7.165,7.575
814,1.558,36.421,8.937,32.343,22.48,5.605,7.246,7.616
815,1.631,36.534,8.907,32.343,22.483,5.604,7.288,7.657
816,1.69,36.641,8.961,32.343,22.48,5.645,7.288,7.78
817,1.736,36.422,8.864,32.353,22.483,5.605,7.288,7.781
818,1.759,36.343,8.898,32.343,22.48,5.564,7.288,7.822
819,1.746,36.447,8.891,32.343,22.48,5.645,7.329,7.944
820,1.684,36.535,8.945,32.334,22.487,5.605,7.289,8.026
821,1.645,36.305,8.868,32.343,22.483,5.645,7.288,8.109
822,1.583,36.389,8.848,32.343,22.473,5.645,7.207,8.109
823,1.471,36.515,8.758,32.363,22.483,5.605,7.206,8.272
824,1.311,36.593,8.843,32.324,22.476,5.604,7.165,8.314
825,1.182,36.229,8.886,32.334,22.483,5.645,7.328,8.518
826,1.038,36.331,8.914,32.314,22.473,5.564,7.248,8.561
827,0.933,36.466,8.899,32.353,22.479,5.645,7.288,8.764
828,0.86,36.535,8.883,32.334,22.476,5.564,7.207,8.848
829,0.807,36.257,8.934,32.334,22.49,5.685,7.287,9.052
830,0.722,36.36,8.938,32.314,22.473,5.524,7.125,9.095
831,0.669,36.495,8.981,32.353,22.486,5.685,7.287,9.298
832,0.584,36.545,8.868,32.324,22.473,5.564,7.207,9.301
833,0.564,36.2,8.859,32.343,22.486,5.645,7.328,9.382
834,0.541,36.34,8.84,32.305,22.48,5.564,7.207,9.464
835,0.547,36.476,8.914,32.353,22.48,5.645,7.287,9.505
836,0.524,36.497,8.891,32.324,22.483,5.645,7.288,9.506
837,0.518,36.247,8.914,32.353,22.48,5.523,7.247,9.465
838,0.508,36.389,8.911,32.353,22.483,5.685,7.247,9.627
839,0.475,36.486,8.883,32.334,22.48,5.605,7.166,9.548
840,0.459,36.535,8.98,32.362,22.487,5.645,7.287,9.669
841,0.439,36.286,8.931,32.324,22.473,5.564,7.125,9.507
842,0.471,36.447,8.977,32.353,22.486,5.726,7.287,9.75
843,0.478,36.496,8.892,32.315,22.466,5.524,7.044,9.549
844,0.524,36.545,8.965,32.381,22.493,5.644,7.286,9.953
845,0.537,36.411,8.825,32.325,22.473,5.564,7.004,9.754
846,0.596,36.573,8.914,32.362,22.493,5.726,7.285,10.159
847,0.616,36.603,8.868,32.296,22.466,5.443,7.044,10.082
848,0.662,36.268,8.902,32.381,22.49,5.684,7.245,10.365
849,0.672,36.255,8.887,32.325,22.473,5.564,7.084,10.368
850,0.727,36.446,8.926,32.334,22.486,5.685,7.164,10.693
851,0.741,36.496,8.946,32.324,22.473,5.524,7.084,10.737
852,0.751,36.18,8.911,32.353,22.483,5.644,7.205,11.022
853,0.748,36.321,8.899,32.334,22.48,5.645,7.206,11.107
854,0.764,36.428,8.875,32.343,22.476,5.645,7.084,11.351
855,0.767,36.525,8.887,32.343,22.476,5.645,7.042,11.313
856,0.793,36.181,8.891,32.334,22.483,5.645,7.042,11.475
857,0.793,36.302,8.973,32.334,22.483,5.645,7.082,11.558
858,0.8,36.428,8.845,32.353,22.476,5.645,7.042,11.519
859,0.79,36.496,8.91,32.324,22.48,5.645,6.96,11.477
860,0.797,36.305,8.875,32.343,22.476,5.767,7.082,11.518
861,0.803,36.456,8.937,32.334,22.483,5.687,7.002,11.477
862,0.833,36.535,8.954,32.324,22.48,5.727,7.041,11.436
863,0.82,36.583,8.962,32.334,22.476,5.687,6.96,11.395
864,0.826,36.152,8.911,32.334,22.476,5.727,7.041,11.354
865,0.83,36.282,8.852,32.334,22.476,5.727,6.96,11.273
866,0.839,36.418,8.898,32.334,22.48,5.768,7.0,11.231
867,0.856,36.429,8.957,32.334,22.48,5.687,6.879,11.231
868,0.856,36.256,8.907,32.334,22.483,5.768,6.959,11.109
869,0.859,36.398,8.887,32.305,22.48,5.647,6.838,11.026
870,0.862,36.486,8.895,32.333,22.48,5.686,6.918,11.066
871,0.849,36.631,8.871,32.314,22.473,5.768,6.919,10.904
872,0.846,36.153,8.934,32.343,22.476,5.728,6.919,10.983
873,0.833,36.263,8.903,32.334,22.476,5.687,6.919,10.862
874,0.82,36.389,8.93,32.314,22.48,5.768,7.0,10.861
875,0.803,36.208,8.876,32.353,22.473,5.606,6.96,10.78
876,0.807,36.283,8.914,32.334,22.476,5.686,7.082,10.698
877,0.794,36.389,8.891,32.314,22.476,5.646,7.042,10.575
878,0.793,36.496,8.926,32.333,22.49,5.727,7.164,10.574
879,0.793,36.18,8.868,32.314,22.473,5.687,7.043,10.533
880,0.803,36.321,8.922,32.333,22.483,5.727,7.123,10.573
881,0.797,36.418,8.907,32.324,22.476,5.605,7.124,10.37
882,0.813,36.506,8.965,32.334,22.486,5.686,7.205,10.328
883,0.826,36.267,8.962,32.314,22.469,5.605,7.165,10.205
884,0.836,36.427,8.966,32.333,22.483,5.726,7.246,10.245
885,0.83,36.525,8.872,32.314,22.469,5.565,7.166,10.001
886,0.856,36.622,8.906,32.343,22.479,5.645,7.328,10.121
887,0.853,36.182,8.914,32.315,22.476,5.564,7.167,9.919
888,0.856,36.35,8.926,32.343,22.483,5.645,7.206,9.916
889,0.846,36.438,8.934,32.334,22.48,5.605,7.206,9.794
890,0.853,36.515,8.864,32.324,22.483,5.645,7.287,9.671
891,0.853,36.104,8.922,32.324,22.487,5.645,7.369,9.629
892,0.84,36.215,8.891,32.334,22.48,5.564,7.167,9.507
893,0.839,36.36,8.945,32.353,22.493,5.604,7.328,9.628
894,0.833,36.371,8.884,32.315,22.469,5.482,7.126,9.507
895,0.843,36.323,8.883,32.353,22.493,5.725,7.327,9.546
896,0.82,36.409,8.817,32.296,22.469,5.402,7.085,9.262
897,0.83,36.544,8.902,32.343,22.49,5.684,7.367,9.422
898,0.826,36.756,8.867,32.315,22.473,5.483,7.045,9.098
899,0.83,36.097,8.863,32.362,22.49,5.725,7.326,9.42
900,0.791,36.157,8.887,32.296,22.469,5.484,7.045,9.139
901,0.826,36.321,8.875,32.352,22.493,5.644,7.204,9.177
902,0.849,36.169,8.922,32.324,22.483,5.523,7.165,9.137
903,0.849,36.206,8.95,32.334,22.48,5.563,7.124,8.974
904,0.84,36.331,9.001,32.314,22.48,5.604,7.083,8.85
905,0.862,36.428,8.907,32.324,22.483,5.645,7.083,8.93
906,0.846,36.074,8.895,32.334,22.483,5.605,7.042,8.85
907,0.853,36.186,8.844,32.334,22.48,5.564,7.082,8.849
908,0.856,36.302,8.918,32.334,22.483,5.563,7.042,8.808
909,0.859,36.389,8.895,32.305,22.48,5.563,7.204,8.767
910,0.859,36.112,8.875,32.305,22.48,5.604,7.084,8.767
911,0.862,36.244,8.918,32.324,22.48,5.604,7.042,8.807
912,0.849,36.36,8.864,32.314,22.476,5.564,7.001,8.604
913,0.856,36.438,8.91,32.324,22.483,5.645,7.082,8.765
914,0.859,36.093,8.938,32.324,22.476,5.605,7.123,8.645
915,0.849,36.253,8.958,32.324,22.486,5.645,7.043,8.603
916,0.846,36.37,8.872,32.305,22.476,5.645,7.042,8.521
917,0.849,36.438,8.883,32.324,22.483,5.645,7.082,8.561
918,0.843,36.113,8.914,32.305,22.473,5.645,7.123,8.521
919,0.839,36.234,8.891,32.314,22.486,5.645,7.124,8.439
920,0.849,36.36,8.871,32.324,22.48,5.564,7.124,8.357
921,0.846,36.419,8.82,32.314,22.48,5.604,7.205,8.478
922,0.846,36.17,8.898,32.295,22.48,5.604,7.084,8.357
923,0.856,36.302,8.867,32.314,22.487,5.604,7.205,8.356
924,0.856,36.38,8.926,32.305,22.476,5.564,7.084,8.275
925,0.853,36.419,8.934,32.333,22.48,5.685,7.327,8.396
926,0.843,36.017,8.868,32.305,22.473,5.564,7.167,8.234
927,0.879,36.166,8.887,32.314,22.483,5.604,7.287,8.273
928,0.872,36.244,8.914,32.314,22.476,5.604,7.125,8.193
929,0.892,36.187,8.903,32.295,22.48,5.645,7.287,8.232
930,0.889,36.158,8.879,32.305,22.473,5.523,7.166,8.151
931,0.885,36.302,8.895,32.314,22.486,5.563,7.246,8.15
932,0.869,36.38,8.93,32.295,22.48,5.563,7.206,8.069
933,0.856,36.083,8.946,32.314,22.48,5.563,7.247,8.028
934,0.849,36.167,8.919,32.314,22.487,5.604,7.247,8.19
935,0.859,36.302,8.969,32.295,22.476,5.482,7.166,8.029
936,0.859,36.418,8.872,32.324,22.483,5.684,7.287,8.19
937,0.859,36.017,8.887,32.286,22.473,5.483,7.207,7.907
938,0.866,36.204,8.86,32.324,22.486,5.684,7.369,8.107
939,0.853,36.264,8.922,32.286,22.473,5.442,7.167,7.825
940,0.853,36.399,8.899,32.343,22.497,5.643,7.368,8.066
941,0.843,36.074,8.789,32.286,22.469,5.401,7.126,7.824
942,0.882,36.272,8.866,32.343,22.493,5.562,7.327,7.985
943,0.876,36.332,8.871,32.276,22.473,5.36,7.167,7.783
944,0.898,36.447,8.863,32.333,22.493,5.643,7.409,7.944
945,0.902,36.247,8.926,32.286,22.469,5.442,7.167,7.742
946,0.905,36.408,8.965,32.304,22.483,5.521,7.246,7.821
947,0.892,36.505,8.892,32.295,22.473,5.441,7.247,7.741
948,0.912,36.574,8.906,32.314,22.49,5.481,7.288,7.74
949,0.918,35.865,8.907,32.295,22.48,5.481,7.247,7.699
950,0.899,35.992,8.969,32.276,22.48,5.481,7.247,7.699
951,0.895,36.108,8.876,32.295,22.48,5.562,7.247,7.658
952,0.889,36.128,8.922,32.314,22.483,5.523,7.206,7.698
953,0.895,36.186,8.875,32.305,22.476,5.522,7.328,7.658
954,0.892,36.331,8.836,32.295,22.48,5.482,7.248,7.617
955,0.879,36.418,8.91,32.285,22.483,5.522,7.247,7.576
956,0.876,36.333,8.871,32.295,22.476,5.522,7.288,7.616
957,0.859,36.092,8.945,32.314,22.473,5.522,7.288,7.495
958,0.869,36.215,8.833,32.295,22.479,5.563,7.288,7.494
959,0.856,36.321,8.882,32.285,22.48,5.441,7.247,7.494
960,0.84,36.025,8.977,32.295,22.473,5.521,7.247,7.494
961,0.852,36.08,8.931,32.305,22.479,5.522,7.288,7.494
962,0.872,36.224,8.911,32.314,22.48,5.441,7.288,7.412
963,0.876,36.293,8.805,32.314,22.476,5.521,7.329,7.371
964,0.882,36.092,8.874,32.295,22.483,5.563,7.41,7.411
965,0.895,36.224,8.863,32.314,22.48,5.523,7.371,7.411
966,0.899,36.341,8.914,32.286,22.48,5.563,7.411,7.33
967,0.895,36.409,8.825,32.295,22.476,5.482,7.411,7.289
968,0.908,35.901,8.89,32.314,22.48,5.481,7.411,7.288
969,0.905,36.03,8.906,32.305,22.473,5.481,7.371,7.288
970,0.918,36.185,8.93,32.324,22.479,5.522,7.37,7.247
971,0.915,36.235,8.969,32.295,22.48,5.482,7.37,7.247
972,0.909,36.005,8.876,32.314,22.476,5.522,7.411,7.247
973,0.902,36.127,8.891,32.305,22.476,5.441,7.33,7.206
974,0.915,36.273,8.891,32.391,22.48,5.521,7.451,7.206
975,0.902,36.303,8.91,32.296,22.473,5.482,7.29,7.165
976,0.895,36.102,8.922,32.305,22.479,5.603,7.41,7.206
977,0.895,36.234,8.868,32.295,22.48,5.482,7.33,7.165
978,0.892,36.379,8.914,32.324,22.487,5.644,7.37,7.287
979,0.876,36.361,8.84,32.295,22.476,5.483,7.289,7.207
980,0.882,36.026,8.918,32.314,22.483,5.562,7.451,7.328
981,0.882,36.128,8.938,32.305,22.473,5.441,7.29,7.207
982,0.898,36.253,8.934,32.324,22.483,5.562,7.451,7.328
983,0.892,36.456,8.856,32.295,22.473,5.401,7.29,7.207
984,0.905,36.094,8.828,32.324,22.479,5.643,7.369,7.45
985,0.899,36.195,8.828,32.314,22.476,5.564,7.37,7.412
986,0.908,36.292,8.867,32.324,22.48,5.523,7.37,7.411
987,0.912,36.054,8.937,32.314,22.48,5.563,7.289,7.452
988,0.915,36.128,8.864,32.295,22.476,5.523,7.329,7.452
989,0.915,36.253,8.914,32.314,22.486,5.603,7.41,7.534
990,0.912,36.322,8.856,32.295,22.473,5.482,7.208,7.372
991,0.918,35.948,8.988,32.333,22.486,5.684,7.531,7.614
992,0.892,36.031,8.888,32.286,22.473,5.402,7.291,7.454
993,0.912,36.214,8.949,32.352,22.493,5.684,7.573,7.656
994,0.889,36.245,8.837,32.276,22.469,5.402,7.454,7.414
995,0.902,36.034,8.914,32.333,22.49,5.724,7.615,7.696
996,0.892,36.118,8.938,32.276,22.473,5.402,7.454,7.455
997,0.925,36.282,8.946,32.324,22.486,5.602,7.615,7.574
998,0.909,36.322,8.926,32.353,22.469,5.523,7.535,7.454
999,0.921,35.996,8.876,32.305,22.476,5.522,7.657,7.574
1000,0.912,36.118,8.926,32.305,22.48,5.482,7.658,7.616
1001,0.912,36.234,8.907,32.314,22.483,5.603,7.698,7.576
1002,0.918,36.312,8.992,32.305,22.48,5.442,7.658,7.575
1003,0.909,36.006,8.907,32.295,22.48,5.44,7.698,7.535
1004,0.921,36.127,8.899,32.305,22.473,5.521,7.658,7.494
1005,0.938,36.273,8.922,32.305,22.479,5.522,7.658,7.534
1006,0.932,36.293,8.887,32.305,22.476,5.482,7.617,7.453
1007,0.922,36.14,8.914,32.295,22.48,5.562,7.698,7.534
1008,0.922,36.282,8.875,32.314,22.473,5.482,7.699,7.534
1009,0.935,36.399,8.895,32.286,22.479,5.562,7.699,7.494
1010,0.931,36.572,8.856,32.295,22.48,5.482,7.658,7.412
1011,0.931,36.066,8.953,32.295,22.48,5.562,7.617,7.411
1012,0.931,36.176,8.919,32.285,22.476,5.523,7.617,7.33
1013,0.928,36.283,8.957,32.304,22.48,5.644,7.617,7.41
1014,0.925,36.332,8.923,32.295,22.48,5.523,7.535,7.411
1015,0.909,36.438,8.911,32.295,22.48,5.644,7.616,7.452
1016,0.908,36.535,8.93,32.295,22.48,5.523,7.535,7.33
1017,0.908,36.622,8.961,32.305,22.48,5.603,7.534,7.41
1018,0.905,36.095,8.907,32.285,22.476,5.564,7.494,7.411
1019,0.889,36.215,8.871,32.295,22.48,5.604,7.453,7.452
1020,0.885,36.331,8.871,32.305,22.476,5.604,7.452,7.412
1021,0.885,36.438,8.914,32.314,22.48,5.564,7.452,7.452
1022,0.902,36.285,8.981,32.286,22.48,5.563,7.371,7.371
1023,0.918,36.447,8.962,32.285,22.48,5.645,7.37,7.411
1024,0.909,36.544,8.958,32.276,22.48,5.483,7.248,7.33
1025,0.934,36.632,8.962,32.304,22.483,5.603,7.247,7.41
1026,0.912,36.287,8.95,32.285,22.469,5.523,7.166,7.289
1027,0.931,36.428,8.942,32.304,22.479,5.603,7.206,7.369
1028,0.918,36.554,8.895,32.266,22.473,5.564,7.125,7.33
1029,0.935,36.641,8.836,32.314,22.479,5.685,7.246,7.41
1030,0.928,36.374,8.855,32.276,22.473,5.605,7.084,7.289
1031,0.935,36.515,8.914,32.295,22.479,5.645,7.205,7.369
1032,0.915,36.593,8.926,32.295,22.473,5.523,7.125,7.289
1033,0.922,36.67,8.946,32.314,22.483,5.725,7.124,7.369
1034,0.915,36.585,8.895,32.286,22.476,5.646,7.124,7.411
1035,0.922,36.737,8.785,32.304,22.483,5.645,7.124,7.33
1036,0.909,36.825,8.855,32.295,22.48,5.645,7.165,7.329
1037,0.915,36.836,8.949,32.285,22.48,5.645,7.084,7.289
1038,0.922,36.682,8.899,32.304,22.487,5.767,7.205,7.41
1039,0.896,36.796,8.926,32.285,22.48,5.606,7.043,7.289
1040,0.908,36.922,8.84,32.333,22.487,5.848,7.164,7.451
1041,0.895,36.789,8.906,32.267,22.48,5.607,7.002,7.127
1042,0.912,36.768,8.891,32.323,22.487,5.808,7.204,7.368
1043,0.895,36.825,8.957,32.257,22.469,5.647,7.003,7.126
1044,0.915,36.979,8.946,32.304,22.486,5.808,7.123,7.327
1045,0.902,36.684,8.891,32.257,22.473,5.647,6.961,7.126
1046,0.908,36.863,8.887,32.304,22.486,5.686,7.163,7.205
1047,0.899,36.942,8.879,32.285,22.476,5.646,7.002,7.206
1048,0.905,37.038,8.957,32.295,22.48,5.727,7.041,7.247
1049,0.908,36.713,8.821,32.295,22.487,5.687,7.001,7.125
1050,0.925,36.873,8.921,32.276,22.48,5.768,7.041,7.205
1051,0.918,36.97,8.868,32.276,22.476,5.687,7.001,7.206
1052,0.915,37.058,8.941,32.285,22.473,5.768,7.123,7.206
1053,0.915,36.963,8.911,32.285,22.476,5.687,7.043,7.206
1054,0.902,37.096,8.93,32.314,22.476,5.687,7.042,7.328
1055,0.908,37.203,8.883,32.286,22.48,5.727,6.96,7.289
1056,0.912,37.29,8.891,32.314,22.48,5.727,7.082,7.247
1057,0.892,36.955,8.848,32.276,22.48,5.727,7.002,7.288
1058,0.905,37.086,8.933,32.285,22.476,5.687,7.041,7.329
1059,0.905,37.174,8.879,32.276,22.469,5.727,7.082,7.41
1060,0.899,37.271,8.898,32.352,22.479,5.687,7.002,7.33
1061,0.895,37.07,8.903,32.286,22.48,5.646,7.001,7.41
1062,0.912,37.193,8.899,32.285,22.48,5.686,6.96,7.411
1063,0.918,37.29,8.938,32.276,22.476,5.687,6.878,7.33
1064,0.922,37.301,8.899,32.295,22.48,5.768,6.959,7.329
1065,0.931,37.176,8.934,32.276,22.476,5.768,6.878,7.248
1066,0.922,37.309,8.876,32.295,22.486,5.728,6.918,7.369
1067,0.931,37.416,8.879,32.276,22.48,5.727,6.878,7.33
1068,0.944,37.331,8.902,32.276,22.476,5.687,6.918,7.451
1069,0.958,37.157,8.926,32.266,22.476,5.687,6.919,7.371
1070,0.948,37.29,8.852,32.295,22.483,5.687,6.878,7.37
1071,0.932,37.377,8.89,32.276,22.473,5.687,6.959,7.33
1072,0.931,37.254,8.879,32.295,22.479,5.687,7.041,7.37
1073,0.935,37.358,8.906,32.285,22.476,5.646,7.042,7.37
1074,0.948,37.474,8.926,32.295,22.486,5.645,7.042,7.37
1075,0.932,37.533,8.93,32.276,22.473,5.645,6.96,7.289
1076,0.925,37.188,8.844,32.285,22.49,5.605,7.041,7.369
1077,0.918,37.309,8.851,32.276,22.476,5.645,7.001,7.33
1078,0.935,37.425,8.933,32.295,22.476,5.645,7.082,7.451
1079,0.928,37.494,8.93,32.266,22.476,5.564,7.002,7.33
1080,0.918,37.341,8.883,32.285,22.486,5.645,7.041,7.37
1081,0.931,37.483,8.852,32.276,22.473,5.564,6.96,7.289
1082,0.938,37.609,8.918,32.276,22.479,5.685,7.041,7.41
1083,0.935,37.649,8.852,32.256,22.473,5.524,6.879,7.33
1084,0.945,37.266,8.898,32.295,22.486,5.644,7.04,7.451
1085,0.925,37.367,8.899,32.266,22.473,5.483,6.92,7.33
1086,0.931,37.493,8.856,32.295,22.486,5.644,7.041,7.573
1087,0.918,37.523,8.902,32.266,22.476,5.523,6.96,7.413
1088,0.948,37.332,8.883,32.285,22.48,5.603,6.96,7.655
1089,0.945,37.435,8.969,32.247,22.476,5.564,6.96,7.536
1090,0.941,37.542,8.853,32.294,22.48,5.645,6.96,7.575
1091,0.951,37.581,8.812,32.276,22.48,5.605,7.0,7.616
1092,0.932,37.486,8.87,32.285,22.48,5.645,6.96,7.657
1093,0.935,37.6,8.914,32.295,22.49,5.645,7.0,7.698
1094,0.935,37.687,8.926,32.257,22.48,5.564,6.96,7.618
1095,0.918,37.774,8.915,32.295,22.483,5.766,7.122,7.779
1096,0.925,37.219,8.879,32.247,22.466,5.484,6.88,7.537
1097,0.928,37.377,8.879,32.314,22.493,5.766,7.162,7.819
1098,0.909,37.426,8.859,32.238,22.469,5.443,6.921,7.497
1099,0.931,37.359,8.914,32.314,22.493,5.765,7.163,7.778
1100,0.905,37.407,8.93,32.257,22.469,5.484,7.002,7.578
1101,0.915,37.561,8.852,32.295,22.483,5.644,7.163,7.738
1102,0.918,37.61,8.801,32.266,22.476,5.564,7.084,7.699
1103,0.938,37.323,8.804,32.275,22.483,5.604,7.164,7.618
1104,0.935,37.435,8.874,32.285,22.473,5.564,7.124,7.698
1105,0.941,37.551,8.836,32.266,22.483,5.563,7.205,7.658
1106,0.941,37.62,8.953,32.275,22.476,5.563,7.206,7.617
1107,0.938,37.371,8.919,32.276,22.473,5.563,7.206,7.617
1108,0.938,37.503,8.899,32.256,22.479,5.482,7.206,7.535
1109,0.948,37.61,8.946,32.275,22.487,5.522,7.247,7.534
1110,0.948,37.668,8.923,32.256,22.476,5.563,7.288,7.534
1111,0.932,37.256,8.891,32.266,22.48,5.604,7.288,7.575
1112,0.918,37.386,8.821,32.266,22.48,5.564,7.247,7.494
1113,0.909,37.522,8.882,32.304,22.483,5.685,7.328,7.494
1114,0.895,37.552,8.844,32.257,22.476,5.564,7.329,7.371
1115,0.889,37.361,8.851,32.275,22.48,5.726,7.329,7.573
1116,0.889,37.474,8.875,32.276,22.48,5.646,7.289,7.494
1117,0.889,37.6,8.875,32.266,22.487,5.727,7.329,7.534
1118,0.889,37.63,8.906,32.256,22.476,5.687,7.329,7.453
1119,0.882,37.227,8.864,32.266,22.476,5.768,7.289,7.534
1120,0.872,37.357,8.953,32.266,22.476,5.728,7.288,7.412
1121,0.863,37.464,8.903,32.266,22.476,5.727,7.369,7.574
1122,0.869,37.772,8.91,32.247,22.473,5.687,7.289,7.454
1123,0.885,37.421,8.801,32.275,22.483,5.809,7.369,7.534
1124,0.879,37.522,8.894,32.256,22.487,5.81,7.289,7.494
1125,0.892,37.639,8.805,32.285,22.483,5.81,7.369,7.494
1126,0.892,37.247,8.925,32.257,22.48,5.81,7.248,7.412
1127,0.905,37.233,8.891,32.256,22.483,5.932,7.328,7.493
1128,0.886,37.367,8.887,32.256,22.466,5.811,7.289,7.331
1129,0.898,37.455,8.902,32.275,22.486,5.891,7.288,7.451
1130,0.899,37.235,8.914,32.228,22.476,5.851,7.207,7.371
1131,0.912,37.405,8.973,32.275,22.476,5.932,7.287,7.492
1132,0.892,37.484,8.876,32.247,22.476,5.811,7.247,7.412
1133,0.892,37.6,8.891,32.285,22.483,5.972,7.369,7.533
1134,0.899,37.131,8.75,32.247,22.473,5.852,7.248,7.372
1135,0.905,37.309,8.889,32.275,22.479,5.932,7.328,7.533
1136,0.886,37.406,8.824,32.237,22.476,5.852,7.289,7.453
1137,0.876,37.474,8.91,32.256,22.486,5.932,7.369,7.452
1138,0.879,37.13,8.895,32.342,22.487,5.892,7.33,7.452
1139,0.866,37.261,8.883,32.257,22.48,5.892,7.289,7.493
1140,0.876,37.387,8.941,32.256,22.487,5.973,7.369,7.575
1141,0.866,37.426,8.938,32.275,22.476,5.893,7.289,7.372
1142,0.885,37.196,8.965,32.285,22.49,6.054,7.369,7.573
1143,0.889,37.28,8.938,32.247,22.473,5.853,7.126,7.413
1144,0.905,37.425,8.926,32.285,22.486,6.054,7.327,7.574
1145,0.895,37.427,8.813,32.228,22.469,5.893,7.085,7.372
1146,0.905,37.484,8.882,32.294,22.493,6.136,7.327,7.614
1147,0.892,37.561,8.879,32.228,22.469,5.894,7.045,7.332
1148,0.912,37.706,8.883,32.294,22.493,6.054,7.367,7.654
1149,0.905,37.669,8.844,32.218,22.48,5.853,7.004,7.333
1150,0.931,37.074,8.918,32.294,22.493,6.054,7.245,7.573
1151,0.935,37.135,8.848,32.218,22.469,5.893,7.003,7.332
1152,0.941,37.309,8.961,32.294,22.486,6.054,7.163,7.532
1153,0.919,37.176,8.915,32.237,22.476,5.731,7.002,7.291
1154,0.925,37.242,8.973,32.285,22.483,6.053,7.041,7.41
1155,0.896,37.3,8.915,32.295,22.48,5.893,7.001,7.33
1156,0.915,37.435,8.903,32.257,22.48,5.892,7.082,7.37
1157,0.902,37.014,8.934,32.237,22.48,5.933,6.961,7.33
1158,0.905,37.125,8.883,32.256,22.483,5.892,6.96,7.37
1159,0.899,37.261,8.922,32.256,22.476,5.892,6.878,7.289
1160,0.899,37.339,8.872,32.275,22.48,5.851,6.877,7.329
1161,0.912,36.985,8.922,32.247,22.476,5.851,6.877,7.329
1162,0.922,37.134,8.946,32.256,22.476,5.851,6.959,7.329
1163,0.925,37.213,8.969,32.237,22.476,5.81,6.797,7.248
1164,0.928,37.3,8.946,32.256,22.476,5.891,6.836,7.288
1165,0.944,37.051,8.841,32.275,22.48,5.851,6.796,7.207
1166,0.938,37.202,8.851,32.256,22.476,5.851,6.795,7.287
1167,0.932,37.319,8.929,32.237,22.48,5.729,6.795,7.247
1168,0.931,37.378,8.907,32.246,22.48,5.85,6.795,7.288
1169,0.912,37.014,8.813,32.247,22.48,5.81,6.755,7.247
1170,0.935,37.164,8.867,32.237,22.48,5.85,6.754,7.206
1171,0.931,37.251,8.879,32.246,22.48,5.81,6.714,7.287
1172,0.915,37.31,8.934,32.237,22.48,5.81,6.713,7.247
1173,0.912,36.975,8.922,32.237,22.469,5.769,6.713,7.247
1174,0.918,37.115,8.977,32.246,22.476,5.728,6.672,7.369
1175,0.912,37.213,8.899,32.237,22.48,5.768,6.672,7.248
1176,0.908,37.252,8.899,32.256,22.487,5.768,6.672,7.288
1177,0.889,37.156,8.852,32.247,22.48,5.728,6.591,7.207
1178,0.905,37.27,8.957,32.247,22.483,5.809,6.631,7.287
1179,0.902,37.377,8.864,32.237,22.473,5.728,6.59,7.247
1180,0.912,37.254,8.926,32.237,22.473,5.768,6.631,7.288
1181,0.889,37.003,8.907,32.246,22.476,5.728,6.509,7.288
1182,0.902,37.144,8.91,32.237,22.48,5.727,6.549,7.369
1183,0.905,37.203,8.965,32.227,22.476,5.687,6.468,7.289
1184,0.915,36.945,8.938,32.227,22.483,5.768,6.507,7.288
1185,0.912,36.99,8.962,32.237,22.473,5.647,6.427,7.247
1186,0.928,37.163,8.88,32.237,22.49,5.808,6.507,7.369
1187,0.931,37.213,8.898,32.218,22.473,5.688,6.386,7.289
1188,0.938,36.964,8.887,32.246,22.486,5.768,6.507,7.329
1189,0.935,37.048,8.875,32.227,22.476,5.606,6.386,7.167
1190,0.938,37.193,8.898,32.237,22.493,5.726,6.466,7.287
1191,0.932,37.271,8.86,32.208,22.473,5.687,6.426,7.288
1192,0.918,36.965,8.922,32.237,22.486,5.768,6.507,7.369
1193,0.925,37.086,8.907,32.246,22.48,5.728,6.467,7.33
1194,0.928,37.203,8.965,32.237,22.476,5.768,6.467,7.289
1195,0.931,37.261,8.923,32.266,22.49,5.687,6.548,7.41
1196,0.918,36.917,8.915,32.218,22.469,5.687,6.386,7.371
1197,0.915,37.076,8.825,32.237,22.493,5.768,6.629,7.452
1198,0.915,37.135,8.929,32.199,22.476,5.647,6.509,7.249
1199,0.925,37.242,8.942,32.275,22.493,5.849,6.752,7.45
1200,0.902,36.945,8.774,32.218,22.476,5.607,6.632,7.249
1201,0.915,37.144,8.905,32.265,22.493,5.848,6.834,7.532
1202,0.918,37.174,8.836,32.199,22.473,5.648,6.633,7.291
1203,0.931,37.232,8.941,32.246,22.476,5.767,6.834,7.329
1204,0.918,36.888,8.926,32.208,22.473,5.687,6.674,7.329
1205,0.925,37.066,8.965,32.227,22.483,5.727,6.794,7.329
1206,0.918,37.154,8.903,32.285,22.476,5.687,6.755,7.329
1207,0.922,37.338,8.926,32.237,22.48,5.687,6.876,7.248
1208,0.931,36.908,8.899,32.218,22.483,5.687,6.877,7.288
1209,0.922,37.028,8.922,32.208,22.48,5.727,6.877,7.207
1210,0.918,37.135,8.883,32.227,22.476,5.687,6.837,7.247
1211,0.928,36.877,8.871,32.237,22.48,5.809,6.837,7.206
1212,0.922,36.942,8.922,32.208,22.48,5.769,6.918,7.206
1213,0.909,37.067,8.848,32.227,22.48,5.809,6.919,7.206
1214,0.905,37.135,8.906,32.218,22.48,5.769,6.919,7.206
1215,0.892,36.887,8.871,32.227,22.483,5.809,6.959,7.328
1216,0.892,37.028,8.84,32.227,22.48,5.81,6.878,7.207
1217,0.886,37.154,8.863,32.227,22.483,5.81,7.0,7.247
1218,0.905,37.213,8.914,32.237,22.48,5.81,7.001,7.247
1219,0.895,36.859,8.961,32.227,22.48,5.891,7.082,7.288
1220,0.892,36.989,8.868,32.218,22.476,5.811,7.002,7.166
1221,0.899,37.144,8.922,32.246,22.48,5.972,7.041,7.246
1222,0.892,37.184,8.844,32.218,22.48,5.893,6.96,7.166
1223,0.902,36.83,8.914,32.218,22.48,5.851,7.082,7.206
1224,0.899,36.96,8.844,32.218,22.48,5.932,6.961,7.206
1225,0.895,37.086,8.918,32.218,22.483,5.892,7.082,7.247
1226,0.895,37.107,8.833,32.198,22.48,5.851,7.042,7.166
1227,0.912,36.714,8.886,32.256,22.48,5.891,7.082,7.246
1228,0.899,36.825,8.899,32.218,22.476,5.892,7.083,7.166
1229,0.912,36.941,8.938,32.237,22.483,5.933,7.123,7.206
1230,0.905,36.961,8.926,32.199,22.476,5.892,7.043,7.125
1231,0.912,36.818,8.876,32.246,22.48,5.973,7.123,7.124
1232,0.908,36.941,8.902,32.218,22.476,5.852,7.043,7.124
1233,0.908,37.038,8.895,32.237,22.483,5.973,7.286,7.287
1234,0.895,37.279,8.899,32.218,22.469,5.893,7.125,7.125
1235,0.886,36.907,8.836,32.237,22.483,5.973,7.287,7.287
1236,0.879,36.999,8.906,32.227,22.476,5.852,7.125,7.207
1237,0.863,37.135,8.848,32.237,22.48,5.891,7.205,7.165
1238,0.862,36.772,8.867,32.237,22.48,5.892,7.165,7.287
1239,0.862,36.768,8.863,32.237,22.48,5.933,7.206,7.329
1240,0.843,36.864,8.902,32.246,22.48,5.974,7.247,7.289
1241,0.836,36.97,8.891,32.208,22.476,5.893,7.166,7.247
1242,0.852,36.722,8.84,32.237,22.483,6.014,7.246,7.41
1243,0.859,36.825,8.871,32.266,22.476,5.852,7.206,7.208
1244,0.869,36.979,8.859,32.256,22.486,6.013,7.287,7.328
1245,0.876,37.0,8.906,32.218,22.476,5.812,7.085,7.248
1246,0.898,36.799,8.914,32.265,22.49,6.013,7.327,7.45
1247,0.882,36.893,8.844,32.228,22.466,5.812,7.167,7.168
1248,0.889,37.076,8.879,32.275,22.486,6.013,7.368,7.45
1249,0.879,37.097,8.914,32.208,22.473,5.812,7.086,7.168
1250,0.882,36.695,8.918,32.256,22.486,6.013,7.327,7.368
1251,0.866,36.748,8.93,32.218,22.469,5.73,7.085,7.167
1252,0.885,36.94,8.891,32.275,22.493,5.89,7.286,7.409
1253,0.869,36.933,8.848,32.218,22.469,5.729,7.125,7.208
1254,0.885,36.674,8.914,32.265,22.486,5.89,7.246,7.369
1255,0.859,36.786,8.86,32.247,22.476,5.851,7.206,7.248
1256,0.846,36.902,8.957,32.247,22.486,5.851,7.247,7.288
1257,0.846,36.942,8.876,32.237,22.476,5.81,7.247,7.207
1258,0.84,36.703,8.891,32.246,22.483,5.891,7.288,7.247
1259,0.843,36.844,8.817,32.247,22.476,5.77,7.288,7.206
1260,0.833,36.951,8.89,32.237,22.483,5.85,7.288,7.206
1261,0.826,36.952,8.891,32.237,22.483,5.81,7.247,7.165
1262,0.843,36.712,8.856,32.246,22.48,5.81,7.288,7.206
1263,0.849,36.834,8.887,32.227,22.473,5.85,7.288,7.247
1264,0.846,36.932,8.82,32.266,22.479,5.851,7.288,7.206
1265,0.846,36.76,8.874,32.247,22.476,5.81,7.125,7.206
1266,0.859,36.662,8.875,32.247,22.48,5.85,7.327,7.165
1267,0.869,36.805,8.918,32.237,22.483,5.81,7.207,7.165
1268,0.866,36.903,8.836,32.237,22.48,5.891,7.287,7.246
1269,0.862,36.53,8.875,32.237,22.476,5.892,7.207,7.166
1270,0.869,36.631,8.867,32.237,22.476,5.851,7.206,7.165
1271,0.876,36.747,8.961,32.237,22.476,5.891,7.125,7.165
1272,0.859,36.825,8.923,32.237,22.476,5.892,7.205,7.206
1273,0.846,36.577,8.934,32.237,22.476,5.851,7.165,7.247
1274,0.843,36.737,8.887,32.256,22.48,5.851,7.165,7.247
1275,0.813,36.844,8.863,32.237,22.476,5.891,7.124,7.206
1276,0.82,36.941,8.93,32.246,22.483,5.933,7.165,7.287
1277,0.813,36.645,8.891,32.227,22.476,5.892,7.124,7.207
1278,0.826,36.786,8.863,32.256,22.48,5.933,7.124,7.287
1279,0.817,36.893,8.84,32.237,22.476,5.77,7.043,7.247
1280,0.826,36.971,8.906,32.275,22.483,5.891,7.123,7.288
1281,0.83,36.588,8.953,32.247,22.473,5.811,7.002,7.247
1282,0.843,36.747,8.95,32.247,22.479,5.85,7.082,7.206
1283,0.843,36.806,8.942,32.237,22.476,5.81,7.042,7.165
1284,0.843,36.893,8.915,32.256,22.483,5.891,7.123,7.246
1285,0.826,36.664,8.883,32.237,22.469,5.77,7.002,7.125
1286,0.846,36.805,8.809,32.266,22.483,5.85,7.123,7.246
1287,0.833,36.874,8.917,32.247,22.476,5.729,7.043,7.206
1288,0.839,36.942,8.836,32.256,22.48,5.809,7.082,7.287
1289,0.836,36.635,8.847,32.237,22.473,5.728,7.083,7.166
1290,0.856,36.776,8.902,32.237,22.486,5.85,7.083,7.165
1291,0.853,36.874,8.883,32.218,22.476,5.81,7.042,7.165
1292,0.84,36.827,8.973,32.256,22.483,5.81,7.082,7.246
1293,0.833,36.653,8.942,32.237,22.48,5.769,7.042,7.166
1294,0.843,36.805,8.977,32.246,22.483,5.768,7.001,7.206
1295,0.846,36.912,8.868,32.266,22.493,5.85,7.163,7.287
1296,0.836,36.616,8.883,32.228,22.48,5.729,6.962,7.085
1297,0.82,36.718,8.902,32.266,22.49,5.85,7.122,7.245
1298,0.813,36.815,8.891,32.228,22.476,5.648,6.921,7.084
1299,0.82,36.941,8.856,32.352,22.49,5.849,7.163,7.367
1300,0.79,36.587,8.89,32.238,22.473,5.607,6.962,7.045
1301,0.813,36.766,8.895,32.275,22.493,5.93,7.082,7.286
1302,0.803,36.835,8.918,32.237,22.476,5.689,6.92,7.085
1303,0.826,36.932,8.942,32.256,22.48,5.727,7.0,7.164
1304,0.817,36.53,8.938,32.237,22.476,5.646,6.96,7.124
1305,0.816,36.67,8.903,32.256,22.483,5.767,6.96,7.083
1306,0.826,36.805,8.864,32.256,22.48,5.687,6.96,7.083
1307,0.81,36.855,8.945,32.256,22.476,5.768,6.96,7.164
1308,0.813,36.596,8.911,32.247,22.48,5.687,6.96,7.165
1309,0.849,36.728,8.875,32.256,22.48,5.768,6.96,7.165
1310,0.843,36.844,8.848,32.247,22.473,5.647,6.919,7.124
1311,0.833,36.893,8.875,32.247,22.483,5.727,6.959,7.083
1312,0.836,36.616,8.875,32.237,22.476,5.727,6.878,7.083
1313,0.833,36.757,8.961,32.246,22.476,5.768,6.918,7.164
1314,0.833,36.854,8.962,32.247,22.48,5.647,6.919,7.165
1315,0.817,36.893,8.856,32.247,22.483,5.686,6.959,7.246
1316,0.816,36.664,8.871,32.237,22.476,5.646,6.919,7.166
1317,0.826,36.796,8.836,32.256,22.483,5.686,7.0,7.206
1318,0.817,36.883,8.91,32.237,22.48,5.727,6.838,7.247
1319,0.813,37.038,8.848,32.237,22.476,5.687,6.918,7.288
1320,0.82,36.751,8.902,32.256,22.48,5.646,6.919,7.288
1321,0.817,36.864,8.875,32.256,22.483,5.727,6.919,7.41
1322,0.82,36.961,8.906,32.237,22.48,5.687,6.837,7.33
1323,0.82,36.597,8.91,32.256,22.48,5.727,6.877,7.37
1324,0.82,36.594,8.946,32.237,22.48,5.605,6.796,7.37
1325,0.823,36.728,8.938,32.266,22.48,5.767,6.917,7.411
1326,0.83,36.825,8.946,32.228,22.469,5.647,6.796,7.371
1327,0.826,36.682,8.852,32.256,22.483,5.645,6.917,7.37
1328,0.83,36.786,8.883,32.237,22.473,5.605,6.796,7.289
1329,0.826,36.922,8.902,32.275,22.483,5.686,6.917,7.41
1330,0.833,36.99,8.797,32.237,22.473,5.646,6.837,7.289
1331,0.833,36.521,8.859,32.246,22.483,5.767,6.837,7.41
1332,0.81,36.65,8.855,32.227,22.476,5.606,6.837,7.371
1333,0.826,36.786,8.898,32.275,22.483,5.686,6.877,7.452
1334,0.826,36.826,8.879,32.247,22.48,5.646,6.796,7.412
1335,0.833,36.644,9.016,32.237,22.487,5.686,6.836,7.493
1336,0.813,36.786,8.822,32.256,22.476,5.687,6.755,7.371
1337,0.82,36.893,8.882,32.256,22.483,5.687,6.754,7.452
1338,0.823,36.951,8.863,32.256,22.48,5.687,6.795,7.452
1339,0.8,36.664,8.926,32.227,22.483,5.646,6.795,7.452
1340,0.807,36.824,8.915,32.266,22.49,5.686,6.877,7.656
1341,0.8,36.912,8.844,32.247,22.476,5.687,6.715,7.495
1342,0.82,36.99,8.882,32.275,22.493,5.809,6.957,7.616
1343,0.81,36.828,8.824,32.228,22.476,5.525,6.716,7.413
1344,0.803,36.999,8.906,32.294,22.493,5.807,6.957,7.696
1345,0.813,37.039,8.868,32.209,22.469,5.485,6.716,7.374
1346,0.826,37.413,8.93,32.285,22.493,5.766,6.957,7.777
1347,0.81,36.544,8.856,32.228,22.466,5.525,6.716,7.415
1348,0.833,36.718,8.929,32.275,22.486,5.725,6.957,7.574
1349,0.823,36.767,8.903,32.228,22.466,5.443,6.716,7.454
1350,0.852,36.758,8.93,32.275,22.497,5.684,6.957,7.534
1351,0.827,36.758,8.895,32.247,22.476,5.524,6.838,7.453
1352,0.836,36.921,8.727,32.266,22.483,5.644,6.918,7.534
1353,0.813,37.009,8.846,32.256,22.476,5.645,6.878,7.534
1354,0.826,36.588,8.812,32.247,22.483,5.645,6.959,7.534
1355,0.807,36.689,8.859,32.247,22.483,5.564,6.878,7.575
1356,0.816,36.815,8.863,32.237,22.48,5.604,6.877,7.535
1357,0.82,36.912,8.887,32.304,22.48,5.523,6.837,7.575
1358,0.807,36.511,8.824,32.266,22.48,5.563,6.796,7.494
1359,0.807,36.641,8.894,32.247,22.48,5.604,6.917,7.494
1360,0.8,36.767,8.953,32.256,22.487,5.604,6.919,7.534
1361,0.79,36.825,8.919,32.256,22.48,5.604,6.878,7.534
1362,0.816,36.606,8.86,32.256,22.483,5.604,6.918,7.616
1363,0.8,36.747,8.75,32.237,22.483,5.564,6.837,7.576
1364,0.813,36.864,8.893,32.246,22.476,5.563,6.837,7.616
1365,0.813,36.903,8.84,32.256,22.476,5.482,6.796,7.535
1366,0.816,36.654,8.918,32.275,22.476,5.522,6.836,7.575
1367,0.816,36.796,8.86,32.256,22.48,5.563,6.755,7.616
1368,0.826,36.902,8.914,32.275,22.487,5.563,6.836,7.576
1369,0.82,36.942,8.895,32.237,22.48,5.482,6.796,7.535
1370,0.836,36.645,8.965,32.246,22.48,5.562,6.836,7.657
1371,0.83,36.757,8.903,32.237,22.483,5.482,6.796,7.536
1372,0.843,36.873,8.91,32.256,22.48,5.562,6.877,7.657
1373,0.817,36.865,8.789,32.247,22.476,5.482,6.796,7.536
1374,0.826,36.673,8.882,32.256,22.48,5.481,6.917,7.616
1375,0.82,36.786,8.844,32.247,22.483,5.44,6.796,7.617
1376,0.813,36.893,8.89,32.256,22.487,5.521,6.917,7.657
1377,0.816,36.769,8.914,32.237,22.476,5.482,6.756,7.617
1378,0.839,36.749,8.879,32.256,22.483,5.562,6.836,7.657
1379,0.826,36.864,8.875,32.237,22.48,5.441,6.796,7.576
1380,0.833,36.97,8.922,32.275,22.49,5.521,6.958,7.698
1381,0.817,36.53,8.954,32.237,22.469,5.482,6.797,7.577
1382,0.849,36.67,8.872,32.256,22.486,5.562,6.877,7.698
1383,0.853,36.738,8.898,32.237,22.476,5.441,6.755,7.577
1384,0.856,36.864,8.793,32.266,22.493,5.562,6.876,7.698
1385,0.872,36.577,8.851,32.237,22.483,5.482,6.796,7.618
1386,0.905,36.718,8.867,32.256,22.483,5.603,6.795,7.617
1387,0.908,36.825,8.957,32.275,22.487,5.564,6.836,7.657
1388,0.905,36.912,8.888,32.237,22.476,5.523,6.714,7.617
1389,0.928,36.539,8.945,32.275,22.493,5.644,6.916,7.739
1390,0.925,36.66,8.864,32.237,22.473,5.442,6.674,7.577
1391,0.941,36.796,8.945,32.246,22.493,5.643,6.875,7.698
1392,0.909,36.826,8.93,32.218,22.473,5.401,6.674,7.496
1393,0.895,36.634,8.915,32.285,22.493,5.643,6.794,7.697
1394,0.879,36.7,8.883,32.218,22.469,5.361,6.551,7.496
1395,0.895,36.873,8.91,32.275,22.497,5.724,6.793,7.778
1396,0.869,36.855,8.918,32.228,22.473,5.402,6.551,7.537
1397,0.902,36.596,8.883,32.275,22.5,5.602,6.793,7.657
1398,0.869,36.67,8.824,32.218,22.469,5.401,6.551,7.455
1399,0.882,36.872,8.851,32.285,22.486,5.602,6.752,7.656
1400,0.876,36.807,8.89,32.247,22.473,5.442,6.632,7.455
1401,0.911,36.644,8.899,32.247,22.483,5.521,6.631,7.534
1402,0.922,36.757,8.977,32.247,22.483,5.563,6.59,7.453
1403,0.918,36.854,8.915,32.247,22.48,5.523,6.549,7.452
1404,0.928,36.807,8.934,32.247,22.48,5.522,6.59,7.452
1405,0.931,36.711,8.899,32.247,22.483,5.522,6.631,7.452
1406,0.938,36.825,8.899,32.237,22.483,5.482,6.55,7.452
1407,0.945,36.912,8.867,32.246,22.48,5.481,6.63,7.452
1408,0.945,36.463,8.863,32.247,22.48,5.44,6.55,7.412
1409,0.958,36.535,8.91,32.247,22.483,5.481,6.59,7.411
1410,0.971,36.651,8.844,32.227,22.483,5.522,6.509,7.371
1411,0.977,36.748,8.937,32.256,22.476,5.441,6.508,7.33
1412,0.964,36.509,8.946,32.247,22.476,5.521,6.63,7.41
1413,0.987,36.679,9.012,32.247,22.483,5.563,6.712,7.493
1414,1.01,36.777,8.892,32.247,22.483,5.482,6.713,7.371
1415,0.997,36.864,8.926,32.256,22.48,5.603,6.794,7.492
1416,0.991,36.5,8.852,32.237,22.48,5.523,6.795,7.453
1417,0.991,36.669,8.949,32.246,22.487,5.563,6.958,7.574
1418,0.994,36.738,8.93,32.218,22.476,5.523,6.96,7.494
1419,0.978,36.864,8.891,32.285,22.48,5.685,7.082,7.656
1420,0.958,36.452,8.817,32.247,22.48,5.564,7.042,7.495
1421,0.964,36.611,8.871,32.256,22.48,5.645,7.123,7.616
1422,0.974,36.709,8.918,32.227,22.48,5.564,7.083,7.413
1423,0.994,36.758,8.926,32.246,22.487,5.685,7.205,7.615
1424,0.978,36.509,8.961,32.227,22.48,5.605,7.125,7.495
1425,0.994,36.679,8.825,32.256,22.483,5.686,7.205,7.656
1426,0.984,36.757,8.835,32.218,22.476,5.605,7.125,7.536
1427,0.971,36.816,8.863,32.227,22.486,5.726,7.246,7.616
1428,0.964,36.423,8.898,32.218,22.473,5.646,7.206,7.535
1429,0.974,36.573,8.883,32.246,22.486,5.727,7.328,7.657
1430,0.968,36.68,8.863,32.237,22.48,5.646,7.207,7.536
1431,0.964,36.767,8.894,32.246,22.483,5.686,7.287,7.657
1432,0.925,36.423,8.863,32.237,22.483,5.727,7.247,7.617
1433,0.915,36.573,8.93,32.256,22.476,5.727,7.206,7.617
1434,0.905,36.67,8.887,32.247,22.493,5.809,7.328,7.698
1435,0.882,36.518,8.899,32.237,22.476,5.81,7.248,7.536
1436,0.869,36.631,8.899,32.256,22.486,5.972,7.41,7.738
1437,0.85,36.709,8.867,32.218,22.473,5.852,7.167,7.537
1438,0.859,36.854,8.957,32.256,22.497,6.135,7.49,7.738
1439,0.82,36.443,8.895,32.218,22.469,5.935,7.209,7.577
1440,0.836,36.64,8.899,32.304,22.49,6.177,7.45,7.779
1441,0.817,36.69,8.879,32.238,22.473,5.976,7.208,7.456
1442,0.849,36.863,8.906,32.285,22.497,6.34,7.45,7.818
1443,0.817,36.328,8.844,32.199,22.466,6.059,7.208,7.537
1444,0.826,36.533,8.953,32.256,22.493,6.3,7.369,7.657
1445,0.794,36.574,8.794,32.218,22.469,6.18,7.289,7.455
1446,0.816,36.708,8.898,32.265,22.483,6.383,7.369,7.534
1447,0.81,36.365,8.848,32.228,22.483,6.263,7.248,7.616
1448,0.813,36.505,8.886,32.237,22.48,6.302,7.41,7.576
1449,0.803,36.612,8.934,32.237,22.476,6.343,7.33,7.494
1450,0.787,36.69,8.848,32.256,22.483,6.384,7.37,7.534
1451,0.793,36.422,8.89,32.256,22.48,6.385,7.37,7.453
1452,0.774,36.544,8.852,32.247,22.483,6.385,7.37,7.534
1453,0.764,36.651,8.918,32.256,22.483,6.385,7.411,7.534
1454,0.767,36.69,8.903,32.247,22.487,6.466,7.411,7.616
1455,0.761,36.403,8.942,32.237,22.476,6.507,7.493,7.576
1456,0.774,36.534,8.848,32.246,22.48,6.549,7.534,7.616
1457,0.787,36.651,8.929,32.247,22.483,6.508,7.534,7.576
1458,0.774,37.016,8.883,32.237,22.48,6.589,7.575,7.616
1459,0.761,36.531,8.969,32.256,22.48,6.631,7.535,7.617
1460,0.767,36.66,8.849,32.247,22.483,6.712,7.575,7.739
1461,0.77,36.757,8.867,32.237,22.476,6.632,7.535,7.659
1462,0.78,36.327,8.836,32.246,22.48,6.712,7.494,7.658
1463,0.78,36.294,8.863,32.237,22.476,6.713,7.494,7.658
1464,0.774,36.428,8.859,32.246,22.48,6.672,7.616,7.739
1465,0.767,36.506,8.883,32.237,22.483,6.672,7.617,7.659
1466,0.787,36.353,8.938,32.246,22.48,6.753,7.617,7.739
1467,0.78,36.486,8.848,32.237,22.476,6.754,7.535,7.618
1468,0.771,36.593,8.902,32.246,22.483,6.714,7.697,7.617
1469,0.787,36.68,8.875,32.237,22.48,6.794,7.618,7.576
1470,0.787,36.201,8.922,32.237,22.483,6.714,7.617,7.657
1471,0.787,36.331,8.836,32.227,22.48,6.632,7.617,7.536
1472,0.774,36.466,8.843,32.256,22.48,6.753,7.617,7.657
1473,0.764,36.535,8.871,32.295,22.476,6.754,7.576,7.536
1474,0.777,36.401,8.848,32.247,22.483,6.754,7.698,7.616
1475,0.758,36.534,8.863,32.237,22.476,6.714,7.577,7.576
1476,0.774,36.66,8.898,32.256,22.483,6.713,7.575,7.616
1477,0.741,36.719,8.899,32.237,22.476,6.754,7.494,7.535
1478,0.76,36.336,8.887,32.256,22.48,6.754,7.575,7.616
1479,0.757,36.447,8.949,32.227,22.48,6.673,7.535,7.576
1480,0.754,36.573,8.915,32.256,22.487,6.794,7.575,7.657
1481,0.741,36.603,8.957,32.237,22.476,6.633,7.494,7.576
1482,0.773,36.306,8.852,32.275,22.483,6.753,7.494,7.657
1483,0.787,36.408,8.867,32.228,22.473,6.551,7.412,7.536
1484,0.78,36.553,8.863,32.246,22.479,6.712,7.533,7.575
1485,0.784,36.526,8.875,32.227,22.48,6.591,7.453,7.494
1486,0.787,36.439,8.945,32.256,22.483,6.712,7.615,7.616
1487,0.761,36.544,8.891,32.227,22.473,6.551,7.454,7.495
1488,0.787,36.67,8.91,32.275,22.483,6.63,7.574,7.616
1489,0.784,36.441,8.856,32.228,22.48,6.59,7.535,7.495
1490,0.774,36.391,8.937,32.237,22.483,6.631,7.616,7.453
1491,0.819,36.515,8.899,32.246,22.48,6.631,7.617,7.452
1492,0.777,36.583,8.906,32.247,22.473,6.59,7.535,7.452
1493,0.777,36.2,8.832,32.266,22.49,6.712,7.657,7.615
1494,0.758,36.283,8.847,32.237,22.473,6.469,7.455,7.454
1495,0.761,36.437,8.886,32.275,22.493,6.67,7.656,7.615
1496,0.741,36.477,8.867,32.228,22.473,6.509,7.414,7.413
1497,0.777,36.334,8.93,32.275,22.49,6.752,7.696,7.655
1498,0.745,36.447,8.86,32.256,22.466,6.388,7.374,7.455
1499,0.76,36.621,8.875,32.285,22.486,6.669,7.614,7.656
1500,0.731,36.632,8.82,32.228,22.473,6.469,7.373,7.536
1501,0.751,36.172,8.933,32.266,22.483,6.589,7.533,7.575
1502,0.748,36.292,8.895,32.247,22.48,6.509,7.453,7.535
1503,0.738,36.408,8.945,32.256,22.476,6.549,7.412,7.534
1504,0.747,36.486,8.852,32.247,22.473,6.549,7.411,7.575
1505,0.747,36.295,8.918,32.266,22.479,6.59,7.411,7.575
1506,0.741,36.437,8.914,32.247,22.483,6.509,7.411,7.494
1507,0.751,36.544,8.938,32.247,22.483,6.467,7.371,7.534
1508,0.751,36.593,8.856,32.227,22.476,6.507,7.37,7.494
1509,0.748,36.191,8.851,32.237,22.483,6.508,7.33,7.494
1510,0.751,36.331,8.89,32.237,22.476,6.549,7.289,7.494
1511,0.774,36.438,8.86,32.227,22.476,6.508,7.329,7.453
1512,0.761,36.458,8.933,32.237,22.476,6.508,7.289,7.412
1513,0.764,36.333,8.942,32.246,22.483,6.508,7.369,7.533
1514,0.78,36.447,8.891,32.256,22.48,6.467,7.289,7.412
1515,0.777,36.563,8.813,32.256,22.487,6.507,7.41,7.411
1516,0.784,36.421,8.886,32.237,22.476,6.467,7.33,7.33
1517,0.8,36.266,8.906,32.246,22.48,6.548,7.41,7.329
1518,0.826,36.399,8.887,32.218,22.476,6.59,7.371,7.329
1519,0.843,36.496,8.891,32.256,22.48,6.631,7.452,7.37
1520,0.866,36.257,8.891,32.237,22.473,6.631,7.33,7.33
1521,0.869,36.37,8.891,32.237,22.479,6.672,7.41,7.329
1522,0.898,36.476,8.879,32.246,22.476,6.753,7.452,7.329
1523,0.934,36.564,8.953,32.247,22.48,6.754,7.534,7.329
1524,0.954,36.651,8.891,32.227,22.476,6.754,7.453,7.248
1525,1.003,36.815,8.883,32.266,22.486,6.917,7.493,7.328
1526,1.043,36.893,8.856,32.228,22.476,6.919,7.453,7.207
1527,1.076,36.98,8.945,32.256,22.48,6.919,7.615,7.328
1528,1.109,35.965,8.876,32.227,22.476,6.878,7.576,7.207
1529,1.167,36.117,8.848,32.266,22.486,7.121,7.616,7.328
1530,1.175,36.205,8.906,32.218,22.476,7.083,7.495,7.207
1531,1.223,36.321,8.895,32.237,22.473,7.164,7.616,7.206
1532,1.273,36.179,8.949,32.227,22.476,7.124,7.535,7.206
1533,1.325,36.34,8.962,32.246,22.483,7.368,7.616,7.369
1534,1.339,36.438,8.962,32.218,22.48,7.452,7.535,7.208
1535,1.358,36.496,8.837,32.265,22.483,7.656,7.657,7.287
1536,1.372,36.276,8.859,32.247,22.48,7.739,7.576,7.288
1537,1.372,36.427,8.848,32.237,22.483,7.821,7.575,7.207
1538,1.391,36.525,8.91,32.246,22.49,7.944,7.698,7.369
1539,1.378,36.526,8.797,32.227,22.476,7.864,7.536,7.289
1540,1.378,36.267,8.878,32.285,22.49,8.107,7.779,7.532
1541,1.401,36.351,8.836,32.228,22.469,8.028,7.496,7.291
1542,1.476,36.495,8.96,32.294,22.493,8.19,7.778,7.532
1543,1.529,36.487,8.86,32.209,22.473,7.948,7.618,7.291
1544,1.64,36.18,8.992,32.285,22.5,8.189,7.779,7.613
1545,1.687,36.263,8.88,32.209,22.469,7.988,7.496,7.332
1546,1.746,36.427,8.91,32.285,22.493,8.271,7.738,7.573
1547,1.756,36.122,8.817,32.218,22.469,8.03,7.537,7.413
1548,1.769,36.224,8.941,32.275,22.49,8.231,7.657,7.615
1549,1.72,36.321,8.868,32.228,22.473,8.07,7.495,7.495
1550,1.694,36.437,8.852,32.246,22.476,8.109,7.575,7.534
1551,1.616,36.065,8.883,32.227,22.476,8.109,7.454,7.575
1552,1.481,36.186,8.887,32.246,22.476,8.069,7.574,7.698
1553,1.311,36.321,8.953,32.247,22.476,8.15,7.494,7.78
1554,1.166,36.418,8.903,32.256,22.48,8.11,7.453,7.984
1555,1.015,36.151,8.93,32.218,22.476,8.109,7.493,8.19
1556,0.9,36.292,8.915,32.237,22.48,8.109,7.494,8.436
1557,0.83,36.418,8.883,32.227,22.48,8.069,7.453,8.641
1558,0.765,36.477,8.938,32.246,22.48,8.109,7.452,8.887
1559,0.679,36.151,8.864,32.237,22.48,8.15,7.371,9.093
1560,0.617,36.301,8.851,32.256,22.48,8.11,7.452,9.339
1561,0.571,36.428,8.84,32.247,22.476,8.191,7.371,9.423
1562,0.544,36.477,8.902,32.256,22.483,8.151,7.452,9.627
1563,0.524,36.487,8.821,32.237,22.476,8.15,7.33,9.629
1564,0.524,36.631,8.925,32.246,22.476,8.191,7.37,9.751
1565,0.54,36.728,8.872,32.237,22.476,8.192,7.33,9.793
1566,0.524,36.787,8.902,32.256,22.476,8.314,7.37,9.915
1567,0.508,35.905,8.817,32.237,22.476,8.193,7.289,9.876
1568,0.452,36.05,8.906,32.246,22.476,8.354,7.369,9.957
1569,0.442,36.147,8.875,32.218,22.48,8.356,7.37,9.876
1570,0.432,36.57,8.875,32.246,22.483,8.559,7.37,9.997
1571,0.432,36.325,8.914,32.227,22.48,8.561,7.33,10.039
1572,0.445,36.457,8.872,32.246,22.487,8.683,7.37,10.243
1573,0.468,36.544,8.902,32.247,22.476,8.888,7.289,10.286
1574,0.484,36.104,8.891,32.247,22.48,9.052,7.369,10.327
1575,0.498,36.061,8.945,32.237,22.473,9.257,7.248,10.408
1576,0.524,36.214,8.844,32.246,22.479,9.463,7.328,10.613
1577,0.553,36.302,8.875,32.237,22.473,9.424,7.289,10.655
1578,0.593,36.111,8.848,32.237,22.483,9.749,7.329,10.9
1579,0.616,36.224,8.929,32.218,22.476,9.793,7.207,11.024
1580,0.655,36.36,8.911,32.265,22.48,9.915,7.328,11.229
1581,0.665,36.438,8.793,32.237,22.476,9.916,7.167,11.271
1582,0.701,36.007,8.855,32.237,22.486,10.12,7.287,11.475
1583,0.718,36.099,8.847,32.208,22.473,10.0,7.207,11.477
1584,0.734,36.253,8.886,32.256,22.479,10.243,7.247,11.64
1585,0.773,36.293,8.891,32.227,22.48,10.123,7.125,11.601
1586,0.793,36.14,8.918,32.237,22.487,10.284,7.205,11.763
1587,0.81,36.273,8.829,32.218,22.476,10.245,7.084,11.683
1588,0.829,36.399,8.875,32.237,22.48,10.367,7.245,11.764
1589,0.843,36.438,8.863,32.218,22.483,10.328,7.125,11.642
1590,0.833,35.921,8.898,32.246,22.483,10.246,7.165,11.601
1591,0.813,36.05,8.852,32.247,22.483,10.367,7.165,11.6
1592,0.803,36.166,8.902,32.256,22.48,10.246,7.002,11.438
1593,0.807,36.235,8.836,32.237,22.487,10.408,7.123,11.517
1594,0.807,36.743,8.875,32.227,22.48,10.247,6.961,11.274
1595,0.8,36.902,8.848,32.246,22.493,10.408,7.163,11.434
1596,0.774,36.961,8.89,32.199,22.48,10.328,6.962,11.273
1597,0.771,37.029,8.891,32.246,22.493,10.571,7.163,11.312
1598,0.764,35.687,8.848,32.189,22.473,10.533,6.962,11.11
1599,0.78,35.884,8.941,32.256,22.49,10.939,7.163,11.351
1600,0.767,35.934,8.883,32.208,22.473,10.943,7.002,10.988
1601,0.774,36.203,8.906,32.275,22.49,11.431,7.204,11.187
1602,0.767,36.264,8.825,32.228,22.476,11.395,7.003,10.864
1603,0.78,36.418,8.867,32.333,22.483,11.68,7.041,10.983
1604,0.774,36.496,8.816,32.228,22.48,11.683,7.082,10.862
1605,0.78,35.864,8.878,32.218,22.483,11.886,7.042,10.902
1606,0.8,35.953,8.898,32.227,22.483,11.928,7.042,10.78
1607,0.803,36.079,8.883,32.227,22.48,11.888,7.082,10.738
1608,0.813,36.176,8.887,32.237,22.48,11.928,7.002,10.738
1609,0.823,36.062,8.891,32.218,22.48,11.97,7.041,10.575
1610,0.784,36.195,8.949,32.218,22.476,11.929,7.001,10.574
1611,0.81,36.312,8.868,32.246,22.48,11.929,7.041,10.411
1612,0.787,36.399,8.844,32.218,22.48,11.807,7.042,10.328
1613,0.79,35.988,8.824,32.265,22.48,11.765,7.082,10.368
1614,0.793,36.127,8.886,32.237,22.473,11.602,7.042,10.165
1615,0.784,36.253,8.797,32.237,22.486,11.6,7.001,10.163
1616,0.767,36.322,8.909,32.218,22.483,11.56,7.001,10.041
1617,0.767,36.006,8.821,32.237,22.476,11.437,7.041,10.04
1618,0.777,36.137,8.863,32.227,22.48,11.436,7.042,9.918
1619,0.777,36.273,8.906,32.237,22.487,11.517,7.082,9.916
1620,0.78,36.293,8.926,32.208,22.469,11.477,6.961,9.754
1621,0.793,36.073,8.973,32.217,22.483,11.518,7.041,9.752
1622,0.787,36.195,8.845,32.218,22.476,11.518,6.92,9.59
1623,0.793,36.321,8.847,32.237,22.473,11.559,7.041,9.629
1624,0.803,36.342,8.847,32.227,22.479,11.559,7.042,9.426
1625,0.82,36.102,8.91,32.227,22.483,11.681,7.042,9.505
1626,0.797,36.224,8.946,32.218,22.473,11.764,7.001,9.384
1627,0.807,36.35,8.872,32.246,22.486,11.805,7.041,9.423
1628,0.81,36.179,8.902,32.237,22.469,11.765,6.96,9.18
1629,0.833,36.052,8.848,32.227,22.486,11.927,7.082,9.259
1630,0.83,36.147,8.949,32.218,22.476,11.766,6.961,9.137
1631,0.836,36.273,8.887,32.227,22.486,11.887,7.041,9.136
1632,0.804,36.13,8.902,32.208,22.476,11.847,6.96,9.014
1633,0.807,36.273,8.844,32.246,22.49,11.887,7.041,9.013
1634,0.784,36.399,8.812,32.227,22.48,11.888,7.123,8.972
1635,0.803,36.477,8.765,32.218,22.48,11.888,7.002,8.931
1636,0.82,35.892,8.89,32.237,22.49,11.888,7.123,8.931
1637,0.8,35.992,8.891,32.199,22.48,11.725,7.002,8.728
1638,0.823,36.175,8.902,32.265,22.49,11.846,7.163,8.888
1639,0.794,36.215,8.867,32.199,22.469,11.562,6.962,8.646
1640,0.797,36.091,8.887,32.275,22.493,11.722,7.122,8.725
1641,0.777,36.176,8.938,32.199,22.469,11.439,6.921,8.522
1642,0.803,36.34,8.946,32.246,22.493,11.558,7.122,8.683
1643,0.813,36.342,8.915,32.189,22.473,11.397,6.921,8.359
1644,0.816,35.891,8.86,32.246,22.486,11.639,7.122,8.559
1645,0.807,35.973,8.894,32.18,22.473,11.397,6.88,8.317
1646,0.839,36.146,8.871,32.255,22.486,11.476,7.081,8.437
1647,0.823,36.129,8.93,32.189,22.469,11.396,6.961,8.316
1648,0.836,35.994,8.825,32.236,22.486,11.558,7.0,8.356
1649,0.843,36.118,8.859,32.199,22.473,11.478,7.001,8.193
1650,0.843,36.234,8.898,32.208,22.473,11.477,7.001,8.273
1651,0.839,36.245,8.887,32.227,22.486,11.558,6.96,8.233
1652,0.83,36.015,8.938,32.218,22.483,11.681,7.041,8.273
1653,0.839,36.137,8.88,32.227,22.483,11.642,6.96,8.233
1654,0.823,36.225,8.922,32.208,22.48,11.641,7.0,8.192
1655,0.826,36.302,8.907,32.217,22.48,11.723,7.041,8.11
1656,0.83,36.015,8.871,32.218,22.48,11.683,7.001,8.069
1657,0.833,36.128,8.961,32.218,22.48,11.642,7.001,8.069
1658,0.839,36.225,8.837,32.227,22.48,11.601,7.041,7.987
1659,0.836,35.976,8.898,32.218,22.476,11.56,7.123,7.946
1660,0.83,36.041,8.813,32.227,22.483,11.519,7.083,8.067
1661,0.83,36.147,8.874,32.198,22.48,11.396,7.123,7.865
1662,0.843,36.244,8.898,32.217,22.483,11.395,7.124,7.944
1663,0.843,35.967,8.973,32.198,22.483,11.232,7.124,7.864
1664,0.853,36.137,8.899,32.217,22.48,11.231,7.165,7.904
1665,0.853,36.225,8.871,32.218,22.48,11.068,7.124,7.823
1666,0.853,36.312,8.887,32.218,22.48,10.985,7.165,7.822
1667,0.853,35.872,8.906,32.218,22.476,10.862,7.246,7.781
1668,0.853,36.03,8.91,32.218,22.48,10.78,7.206,7.822
1669,0.859,36.156,8.871,32.285,22.476,10.616,7.247,7.781
1670,0.849,36.234,8.863,32.209,22.483,10.533,7.206,7.7
1671,0.856,36.053,8.832,32.208,22.48,10.41,7.206,7.74
1672,0.853,36.195,8.914,32.208,22.483,10.328,7.369,7.699
1673,0.84,36.292,8.903,32.217,22.476,10.205,7.289,7.699
1674,0.836,36.37,8.973,32.227,22.48,10.123,7.288,7.74
1675,0.83,35.863,8.853,32.198,22.48,10.081,7.329,7.699
1676,0.826,36.011,8.902,32.227,22.483,10.162,7.492,7.821
1677,0.82,36.128,8.895,32.208,22.476,10.122,7.371,7.659
1678,0.843,36.157,8.91,32.227,22.486,10.366,7.452,7.78
1679,0.839,36.033,8.829,32.227,22.473,10.368,7.493,7.74
1680,0.833,36.176,8.82,32.227,22.483,10.653,7.494,7.781
1681,0.813,36.263,8.863,32.198,22.476,10.656,7.453,7.7
1682,0.833,36.629,8.84,32.217,22.486,10.656,7.615,7.74
1683,0.839,35.894,8.921,32.208,22.473,10.656,7.413,7.699
1684,0.856,36.04,8.911,32.227,22.479,10.818,7.574,7.699
1685,0.856,36.118,8.918,32.198,22.476,10.739,7.494,7.699
1686,0.872,36.119,8.864,32.217,22.48,10.819,7.616,7.699
1687,0.869,36.167,8.91,32.198,22.469,10.657,7.454,7.618
1688,0.876,36.302,8.938,32.236,22.486,10.696,7.574,7.739
1689,0.869,36.37,8.856,32.218,22.476,10.616,7.535,7.496
1690,0.882,35.863,8.898,32.227,22.483,10.615,7.534,7.656
1691,0.872,35.944,8.864,32.198,22.48,10.452,7.453,7.576
1692,0.866,36.079,8.879,32.227,22.483,10.491,7.534,7.657
1693,0.859,36.147,8.852,32.208,22.483,10.329,7.575,7.617
1694,0.856,35.966,8.918,32.227,22.483,10.286,7.575,7.617
1695,0.853,36.108,8.903,32.218,22.487,10.205,7.616,7.617
1696,0.849,36.205,8.918,32.218,22.476,10.041,7.495,7.576
1697,0.866,36.321,8.895,32.256,22.493,10.162,7.656,7.657
1698,0.856,35.92,8.91,32.189,22.473,9.919,7.455,7.495
1699,0.882,36.127,8.907,32.256,22.493,10.12,7.696,7.697
1700,0.859,36.196,8.899,32.208,22.473,9.878,7.455,7.496
1701,0.872,36.312,8.918,32.246,22.493,10.16,7.737,7.697
1702,0.859,35.948,8.852,32.199,22.473,9.96,7.537,7.536
1703,0.882,36.127,8.906,32.227,22.479,9.998,7.657,7.575
1704,0.872,36.215,8.864,32.208,22.476,9.958,7.576,7.575
1705,0.895,36.245,8.926,32.237,22.48,9.957,7.575,7.657
1706,0.892,35.938,8.852,32.218,22.48,9.917,7.535,7.536
1707,0.879,36.098,8.847,32.218,22.487,9.876,7.616,7.616
1708,0.889,36.196,8.89,32.218,22.48,9.916,7.535,7.535
1709,0.915,36.206,8.93,32.227,22.487,9.916,7.575,7.494
1710,0.886,36.053,8.852,32.218,22.48,9.916,7.494,7.534
1711,0.889,36.176,8.902,32.237,22.487,9.998,7.494,7.494
1712,0.882,36.283,8.809,32.218,22.48,10.08,7.534,7.453
1713,0.889,35.938,8.909,32.218,22.483,10.203,7.453,7.493
1714,0.882,35.82,8.86,32.208,22.48,10.245,7.452,7.494
1715,0.869,35.953,8.89,32.217,22.476,10.326,7.493,7.534
1716,0.863,36.06,8.934,32.265,22.476,10.408,7.371,7.534
1717,0.859,35.927,8.848,32.218,22.486,10.409,7.492,7.534
1718,0.862,36.069,8.937,32.218,22.48,10.491,7.453,7.412
1719,0.862,36.186,8.903,32.237,22.483,10.573,7.452,7.533
1720,0.853,36.244,8.899,32.237,22.48,10.492,7.371,7.453
1721,0.862,35.727,8.836,32.237,22.487,10.573,7.492,7.534
1722,0.885,35.856,8.898,32.208,22.476,10.533,7.371,7.494
1723,0.898,35.992,8.832,32.217,22.486,10.573,7.492,7.494
1724,0.873,36.051,8.851,32.208,22.473,10.411,7.331,7.453
1725,0.908,36.703,8.929,32.217,22.483,10.45,7.492,7.452
1726,0.895,36.834,8.84,32.208,22.476,10.288,7.331,7.371
1727,0.902,36.96,8.871,32.237,22.483,10.367,7.451,7.533
1728,0.905,37.0,8.844,32.199,22.476,10.206,7.371,7.453
1729,0.912,35.572,8.964,32.236,22.48,10.245,7.452,7.493
1730,0.908,35.672,8.833,32.208,22.48,10.082,7.29,7.453
1731,0.925,35.836,8.855,32.217,22.48,10.162,7.369,7.493
1732,0.899,35.867,8.836,32.208,22.487,10.0,7.37,7.494
1733,0.892,36.164,8.855,32.217,22.469,10.039,7.289,7.494
1734,0.905,36.302,8.828,32.227,22.483,10.04,7.369,7.575
1735,0.886,36.408,8.921,32.218,22.483,9.918,7.248,7.413
1736,0.882,36.429,8.864,32.237,22.493,10.039,7.41,7.574
1737,0.882,35.978,8.883,32.199,22.476,9.877,7.249,7.372
1738,0.898,36.156,8.887,32.256,22.493,10.201,7.328,7.533
1739,0.886,36.187,8.906,32.189,22.476,9.919,7.207,7.331
1740,0.915,36.148,8.942,32.236,22.493,10.12,7.409,7.614
1741,0.896,35.975,8.809,32.17,22.473,9.919,7.167,7.373
1742,0.912,36.146,8.882,32.246,22.493,10.12,7.45,7.533
1743,0.918,36.196,8.813,32.189,22.473,9.919,7.208,7.291
1744,0.938,36.024,8.886,32.236,22.486,10.161,7.531,7.573
1745,0.912,36.07,8.879,32.179,22.473,9.919,7.372,7.372
1746,0.935,36.224,8.945,32.236,22.486,10.079,7.614,7.533
1747,0.918,36.302,8.856,32.199,22.48,9.959,7.535,7.372
1748,0.902,36.092,8.867,32.217,22.483,10.039,7.697,7.452
1749,0.892,36.224,8.894,32.218,22.483,9.877,7.78,7.371
1750,0.899,36.341,8.895,32.198,22.487,9.835,7.781,7.33
1751,0.915,36.419,8.863,32.208,22.48,9.834,7.862,7.41
1752,0.905,36.132,8.789,32.208,22.48,9.753,7.944,7.371
1753,0.879,36.253,8.866,32.285,22.483,9.712,7.945,7.289
1754,0.863,36.37,8.836,32.209,22.483,9.67,8.067,7.41
1755,0.869,36.428,8.871,32.198,22.48,9.629,8.028,7.33
1756,0.872,36.323,8.863,32.198,22.483,9.629,8.068,7.329
1757,0.866,36.476,8.844,32.208,22.476,9.588,8.109,7.329
1758,0.879,36.583,8.832,32.208,22.48,9.507,8.15,7.37
1759,0.866,36.632,8.894,32.198,22.483,9.546,8.028,7.37
1760,0.866,36.383,8.883,32.217,22.476,9.669,8.149,7.33
1761,0.866,36.486,8.934,32.198,22.48,9.67,8.11,7.329
1762,0.876,36.583,8.852,32.217,22.476,9.873,8.069,7.41
1763,0.876,36.622,8.793,32.208,22.48,9.957,8.109,7.33
1764,0.885,36.488,8.874,32.208,22.476,10.08,8.069,7.451
1765,0.885,36.612,8.863,32.208,22.48,10.243,8.069,7.412
1766,0.879,36.718,8.961,32.198,22.48,10.245,8.109,7.452
1767,0.892,36.787,8.868,32.208,22.48,10.408,8.069,7.452
1768,0.882,36.567,8.891,32.189,22.49,10.409,8.109,7.452
1769,0.898,36.699,8.836,32.188,22.483,10.369,8.028,7.412
1770,0.905,36.806,8.914,32.198,22.487,10.409,7.987,7.452
1771,0.889,36.615,8.872,32.189,22.48,10.409,7.946,7.412
1772,0.882,36.69,8.922,32.198,22.49,10.531,8.026,7.533
1773,0.889,36.796,8.84,32.208,22.476,10.41,7.946,7.372
1774,0.882,36.902,8.898,32.198,22.483,10.491,8.067,7.411
1775,0.885,36.635,8.813,32.198,22.476,10.41,7.906,7.33
1776,0.889,36.767,8.859,32.208,22.483,10.369,7.985,7.41
1777,0.885,36.883,8.902,32.189,22.476,10.287,7.864,7.33
1778,0.895,36.97,8.887,32.198,22.483,10.367,7.863,7.451
1779,0.892,36.799,8.895,32.198,22.469,10.287,7.822,7.33
1780,0.895,36.97,8.871,32.208,22.476,10.245,7.863,7.451
1781,0.879,37.038,8.937,32.179,22.476,10.082,7.822,7.249
1782,0.892,37.145,8.922,32.188,22.483,10.203,7.863,7.45
1783,0.895,36.772,8.911,32.169,22.48,10.082,7.7,7.29
1784,0.902,36.95,8.829,32.207,22.487,10.121,7.861,7.329
1785,0.902,37.029,8.855,32.189,22.476,10.0,7.782,7.289
1786,0.921,37.097,8.808,32.208,22.48,9.958,8.106,7.329
1787,0.912,36.992,8.921,32.179,22.48,9.835,8.069,7.207
1788,0.925,37.163,8.786,32.227,22.483,9.875,8.15,7.369
1789,0.928,37.251,8.89,32.179,22.48,9.753,8.191,7.248
1790,0.931,37.3,8.922,32.198,22.48,9.752,8.232,7.288
1791,0.918,36.984,8.93,32.208,22.48,9.712,8.355,7.207
1792,0.915,37.096,8.946,32.198,22.476,9.589,8.315,7.206
1793,0.912,37.241,8.946,32.217,22.493,9.71,8.518,7.328
1794,0.899,37.578,8.876,32.179,22.473,9.63,8.317,7.126
1795,0.905,37.14,8.805,32.217,22.49,9.873,8.681,7.327
1796,0.895,37.222,8.843,32.16,22.473,9.713,8.4,7.207
1797,0.908,37.357,8.882,32.207,22.497,9.996,8.682,7.409
1798,0.889,37.148,8.828,32.16,22.469,9.917,8.359,7.208
1799,0.902,37.27,8.851,32.236,22.493,10.201,8.641,7.409
1800,0.882,37.329,8.847,32.17,22.473,9.96,8.318,7.208
1801,0.905,37.483,8.906,32.217,22.493,10.283,8.559,7.328
1802,0.905,37.092,8.926,32.17,22.473,10.164,8.439,7.207
1803,0.918,37.251,8.973,32.188,22.486,10.204,8.357,7.287
1804,0.909,37.348,8.927,32.179,22.487,10.163,8.397,7.288
1805,0.931,37.455,8.946,32.217,22.48,10.204,8.356,7.207
1806,0.931,37.178,8.88,32.179,22.48,10.163,8.234,7.247
1807,0.931,37.319,8.93,32.198,22.48,10.122,8.355,7.206
1808,0.931,37.406,8.915,32.189,22.476,10.081,8.234,7.247
1809,0.938,37.494,8.934,32.169,22.48,9.999,8.192,7.247
1810,0.935,37.236,8.848,32.179,22.48,9.917,8.11,7.125
1811,0.945,37.367,8.933,32.188,22.48,9.957,8.15,7.124
1812,0.922,37.464,8.922,32.179,22.483,9.835,8.11,7.165
1813,0.918,37.513,8.989,32.188,22.48,9.753,8.028,7.246
1814,0.922,37.284,8.9,32.169,22.48,9.671,7.987,7.084
1815,0.918,37.406,8.836,32.188,22.48,9.711,7.986,7.164
1816,0.918,37.532,8.886,32.188,22.476,9.67,7.946,7.124
1817,0.912,37.571,8.879,32.179,22.483,9.711,7.986,7.124
1818,0.905,37.275,8.93,32.169,22.48,9.67,7.864,7.165
1819,0.905,37.425,8.782,32.207,22.483,9.629,7.904,7.165
1820,0.902,37.522,8.866,32.179,22.476,9.588,7.945,7.165
1821,0.908,37.552,8.848,32.179,22.483,9.547,7.783,7.246
1822,0.938,37.351,8.918,32.169,22.476,9.506,7.781,7.206
1823,0.948,37.464,8.903,32.188,22.486,9.506,7.781,7.206
1824,0.941,37.542,8.953,32.169,22.48,9.384,7.659,7.247
1825,0.951,37.428,8.884,32.169,22.48,9.423,7.78,7.288
1826,0.945,37.436,8.883,32.179,22.476,9.342,7.7,7.166
1827,0.938,37.561,8.871,32.188,22.49,9.382,7.78,7.287
1828,0.935,37.629,8.949,32.169,22.483,9.261,7.7,7.207
1829,0.938,37.227,8.856,32.179,22.48,9.259,7.74,7.247
1830,0.928,37.329,8.883,32.169,22.476,9.137,7.699,7.247
1831,0.918,37.454,8.844,32.198,22.486,9.177,7.74,7.288
1832,0.905,37.523,8.867,32.169,22.476,9.137,7.699,7.125
1833,0.908,37.255,8.937,32.198,22.483,9.177,7.699,7.327
1834,0.905,37.348,8.93,32.16,22.476,9.055,7.658,7.126
1835,0.915,37.493,8.907,32.198,22.483,9.176,7.78,7.287
1836,0.909,37.562,8.844,32.169,22.476,9.096,7.781,7.166
1837,0.905,37.332,8.879,32.198,22.486,9.176,7.781,7.328
1838,0.912,37.454,8.867,32.169,22.483,9.055,7.74,7.248
1839,0.899,37.58,8.894,32.198,22.487,9.013,7.821,7.328
1840,0.889,37.639,8.863,32.236,22.48,9.135,7.7,7.329
1841,0.899,37.237,8.851,32.17,22.48,9.095,7.699,7.248
1842,0.905,37.377,8.879,32.188,22.487,9.176,7.78,7.41
1843,0.895,37.474,8.875,32.179,22.476,9.015,7.7,7.249
1844,0.902,37.523,8.922,32.198,22.486,9.216,7.821,7.369
1845,0.886,37.303,8.872,32.16,22.476,9.096,7.619,7.208
1846,0.892,37.492,8.918,32.227,22.483,9.38,7.82,7.409
1847,0.886,37.562,8.825,32.17,22.462,9.098,7.537,7.249
1848,0.905,37.601,8.917,32.207,22.49,9.42,7.819,7.45
1849,0.879,37.246,8.864,32.141,22.466,9.139,7.537,7.168
1850,0.921,37.434,8.89,32.217,22.493,9.461,7.86,7.45
1851,0.892,37.484,8.809,32.15,22.469,9.262,7.538,7.127
1852,0.895,37.475,8.906,32.207,22.493,9.585,7.738,7.49
1853,0.879,37.341,8.84,32.15,22.469,9.344,7.537,7.209
1854,0.892,37.493,8.949,32.217,22.493,9.545,7.697,7.45
1855,0.86,37.542,8.923,32.141,22.473,9.344,7.496,7.249
1856,0.888,37.274,8.848,32.217,22.486,9.586,7.575,7.328
1857,0.863,37.32,8.89,32.179,22.473,9.425,7.454,7.167
1858,0.882,37.483,8.899,32.198,22.479,9.627,7.574,7.246
1859,0.859,37.523,8.965,32.179,22.48,9.751,7.454,7.206
1860,0.853,37.149,8.852,32.179,22.48,9.833,7.493,7.206
1861,0.859,37.261,8.797,32.198,22.473,9.916,7.453,7.206
1862,0.869,37.396,8.827,32.189,22.486,9.998,7.412,7.247
1863,0.856,37.465,8.832,32.179,22.476,10.08,7.493,7.206
1864,0.862,37.149,8.781,32.179,22.486,10.121,7.494,7.165
1865,0.862,37.28,8.878,32.188,22.487,10.163,7.453,7.206
1866,0.882,37.396,8.859,32.188,22.483,10.244,7.534,7.287
1867,0.885,37.455,8.871,32.169,22.473,10.245,7.534,7.166
1868,0.872,37.12,8.883,32.198,22.483,10.286,7.534,7.246
1869,0.898,37.27,8.895,32.179,22.476,10.245,7.616,7.206
1870,0.902,37.377,8.914,32.188,22.48,10.286,7.657,7.206
1871,0.892,37.407,8.829,32.169,22.476,10.367,7.658,7.206
1872,0.892,37.206,8.925,32.188,22.483,10.368,7.739,7.206
1873,0.873,37.328,8.868,32.179,22.48,10.328,7.74,7.206
1874,0.879,37.445,8.863,32.198,22.483,10.408,7.862,7.247
1875,0.876,37.446,8.84,32.179,22.48,10.409,7.782,7.084
1876,0.866,37.149,8.863,32.188,22.48,10.572,7.781,7.164
1877,0.859,37.28,8.805,32.179,22.48,10.492,7.944,7.165
1878,0.853,37.406,8.87,32.179,22.48,10.573,8.026,7.246
1879,0.862,37.35,8.902,32.179,22.476,10.492,8.027,7.206
1880,0.859,37.119,8.918,32.198,22.483,10.654,8.19,7.206
1881,0.849,37.213,8.922,32.189,22.48,10.574,8.11,7.206
1882,0.866,37.338,8.825,32.179,22.483,10.655,8.191,7.206
1883,0.876,37.052,8.894,32.208,22.483,10.534,8.232,7.165
1884,0.885,37.097,8.848,32.198,22.48,10.573,8.192,7.206
1885,0.892,37.212,8.91,32.179,22.476,10.451,8.232,7.084
1886,0.889,37.3,8.922,32.198,22.48,10.491,8.273,7.164
1887,0.895,37.051,8.852,32.179,22.48,10.451,8.274,7.043
1888,0.905,37.221,8.894,32.179,22.483,10.45,8.274,7.123
1889,0.902,37.31,8.867,32.179,22.476,10.206,8.193,7.043
1890,0.908,37.406,8.945,32.188,22.486,10.367,8.273,7.123
1891,0.899,36.918,8.872,32.15,22.473,10.124,8.152,7.043
1892,0.899,37.095,8.894,32.188,22.486,10.122,8.313,7.123
1893,0.889,37.193,8.817,32.169,22.48,9.959,8.234,7.002
1894,0.892,37.28,8.921,32.188,22.48,10.08,8.233,7.163
1895,0.886,36.994,8.84,32.169,22.476,9.837,8.151,7.043
1896,0.882,37.144,8.921,32.188,22.483,9.916,8.191,7.042
1897,0.882,37.261,8.825,32.179,22.487,9.794,8.192,7.123
1898,0.892,37.31,8.871,32.179,22.48,9.753,8.192,7.043
1899,0.892,37.119,8.859,32.179,22.487,9.833,8.273,7.204
1900,0.879,37.203,8.89,32.169,22.48,9.672,8.071,7.003
1901,0.895,37.357,8.922,32.198,22.493,9.914,8.191,7.326
1902,0.895,37.311,8.883,32.15,22.469,9.713,8.029,6.963
1903,0.912,36.984,8.91,32.207,22.49,10.036,8.271,7.244
1904,0.902,37.058,8.813,32.141,22.469,9.674,7.989,7.003
1905,0.921,37.231,8.898,32.207,22.486,9.955,8.19,7.204
1906,0.918,37.453,8.867,32.15,22.473,9.876,7.907,7.043
1907,0.928,37.063,8.933,32.198,22.483,9.957,8.067,7.082
1908,0.922,37.145,8.856,32.15,22.473,9.876,7.946,7.002
1909,0.925,37.29,8.863,32.169,22.483,9.957,8.026,7.041
1910,0.935,36.917,8.844,32.16,22.483,9.795,7.987,7.001
1911,0.918,36.932,8.925,32.169,22.476,9.753,8.027,7.041
1912,0.896,37.057,8.879,32.16,22.48,9.752,8.027,7.042
1913,0.895,37.154,8.891,32.179,22.483,9.752,8.109,7.082
1914,0.905,36.877,8.84,32.169,22.487,9.671,8.109,7.042
1915,0.905,37.018,8.836,32.169,22.487,9.711,8.15,7.001
1916,0.892,37.135,8.867,32.16,22.48,9.63,8.191,7.001
1917,0.886,37.222,8.871,32.159,22.483,9.67,8.192,7.041
1918,0.902,36.801,8.785,32.169,22.48,9.548,8.232,7.001
1919,0.889,36.97,8.835,32.16,22.48,9.466,8.273,7.041
1920,0.892,37.077,8.871,32.159,22.483,9.424,8.233,7.082
1921,0.908,37.155,8.875,32.159,22.48,9.342,8.192,7.042
1922,0.905,36.896,8.965,32.159,22.48,9.342,8.151,7.001
1923,0.899,37.038,8.966,32.15,22.483,9.301,8.273,7.041
1924,0.899,37.135,8.923,32.159,22.476,9.301,8.193,6.96
1925,0.895,37.222,8.926,32.159,22.49,9.382,8.314,7.041
1926,0.889,36.868,8.891,32.15,22.48,9.22,8.193,6.96
1927,0.895,36.98,8.949,32.169,22.483,9.178,8.273,7.0
1928,0.902,37.096,8.856,32.14,22.476,9.177,8.193,7.001
1929,0.915,37.136,8.902,32.159,22.48,9.259,8.314,7.041
1930,0.912,37.098,8.867,32.159,22.473,9.3,8.274,6.96
1931,0.908,37.232,8.906,32.159,22.49,9.382,8.274,6.96
1932,0.886,37.338,8.961,32.14,22.476,9.301,8.274,6.96
1933,0.879,37.368,8.95,32.169,22.486,9.341,8.396,7.041
1934,0.882,36.688,8.926,32.15,22.473,9.342,8.275,7.001
1935,0.876,36.825,8.844,32.169,22.483,9.423,8.355,7.041
1936,0.889,36.922,8.793,32.14,22.476,9.464,8.275,7.001
1937,0.895,36.817,8.894,32.169,22.483,9.587,8.436,7.001
1938,0.876,36.797,8.84,32.15,22.48,9.547,8.397,6.96
1939,0.895,36.97,8.836,32.188,22.487,9.628,8.438,7.082
1940,0.889,37.048,8.82,32.16,22.48,9.629,8.397,7.002
1941,0.885,36.809,8.894,32.159,22.483,9.629,8.356,7.041
1942,0.889,36.922,8.86,32.179,22.49,9.67,8.519,7.082
1943,0.879,37.038,8.929,32.16,22.483,9.629,8.398,7.002
1944,0.879,37.145,8.911,32.169,22.487,9.751,8.478,7.163
1945,0.892,36.676,8.856,32.14,22.476,9.508,8.357,6.921
1946,0.902,36.844,8.84,32.178,22.497,9.709,8.641,7.122
1947,0.892,36.913,8.867,32.131,22.48,9.427,8.399,6.961
1948,0.905,37.038,8.91,32.188,22.493,9.668,8.722,7.204
1949,0.892,36.78,8.84,32.121,22.469,9.264,8.522,6.962
1950,0.886,36.969,8.91,32.207,22.493,9.544,8.723,7.204
1951,0.879,37.038,8.848,32.122,22.466,9.14,8.4,7.003
1952,0.898,37.135,8.914,32.188,22.493,9.339,8.682,7.245
1953,0.869,36.743,8.848,32.121,22.476,9.179,8.44,7.044
1954,0.885,36.921,8.918,32.159,22.493,9.218,8.682,7.204
1955,0.866,37.0,8.782,32.131,22.476,9.137,8.603,7.084
1956,0.869,37.068,8.882,32.15,22.483,9.055,8.521,7.123
1957,0.863,36.915,8.844,32.159,22.483,9.054,8.642,7.124
1958,0.859,37.038,8.906,32.159,22.487,9.054,8.603,7.165
1959,0.853,37.154,8.836,32.15,22.48,8.973,8.521,7.084
1960,0.859,37.155,8.89,32.217,22.48,8.972,8.52,7.164
1961,0.853,36.925,8.914,32.16,22.48,8.972,8.479,7.124
1962,0.875,37.057,8.868,32.15,22.48,9.013,8.479,7.165
1963,0.869,37.135,8.91,32.159,22.473,9.013,8.438,7.165
1964,0.866,36.8,8.883,32.159,22.483,8.932,8.438,7.124
1965,0.872,36.567,8.899,32.15,22.48,8.972,8.397,7.205
1966,0.876,36.708,8.844,32.15,22.483,8.972,8.356,7.206
1967,0.876,36.796,8.91,32.159,22.476,8.931,8.315,7.125
1968,0.885,36.634,8.868,32.159,22.476,9.053,8.274,7.205
1969,0.872,36.728,8.906,32.159,22.476,9.013,8.274,7.125
1970,0.882,36.863,8.825,32.169,22.48,9.054,8.314,7.165
1971,0.879,36.961,8.886,32.14,22.48,8.973,8.234,7.084
1972,0.882,36.578,8.902,32.159,22.487,9.094,8.273,7.083
1973,0.869,36.718,8.86,32.169,22.48,9.054,8.233,7.123
1974,0.863,36.835,8.945,32.16,22.487,9.095,8.233,7.165
1975,0.836,36.884,8.923,32.14,22.48,9.014,8.273,7.084
1976,0.843,36.481,8.852,32.169,22.48,9.094,8.396,7.205
1977,0.836,36.602,8.867,32.16,22.48,8.932,8.356,7.125
1978,0.836,36.738,8.867,32.169,22.487,9.012,8.437,7.205
1979,0.82,36.787,8.906,32.16,22.48,8.85,8.438,7.125
1980,0.839,36.72,8.852,32.169,22.483,8.849,8.56,7.165
1981,0.852,36.844,8.758,32.169,22.473,8.727,8.521,7.084
1982,0.869,36.97,8.85,32.188,22.486,8.888,8.683,7.245
1983,0.859,37.01,8.883,32.141,22.48,8.687,8.603,7.125
1984,0.872,36.684,8.852,32.159,22.483,8.847,8.765,7.246
1985,0.85,36.786,8.933,32.14,22.473,8.646,8.604,7.084
1986,0.859,36.941,8.879,32.178,22.486,8.684,8.765,7.164
1987,0.879,36.942,8.887,32.16,22.483,8.644,8.685,7.084
1988,0.863,36.511,8.871,32.169,22.487,8.684,8.766,7.123
1989,0.859,36.631,8.949,32.169,22.48,8.684,8.726,7.043
1990,0.879,36.747,8.907,32.169,22.483,8.603,8.685,7.164
1991,0.843,36.835,8.852,32.188,22.483,8.602,8.725,7.165
1992,0.833,36.711,8.875,32.141,22.483,8.521,8.522,7.084
1993,0.836,36.873,8.848,32.178,22.493,8.601,8.683,7.245
1994,0.823,36.903,8.898,32.141,22.48,8.44,8.522,6.962
1995,0.83,36.52,8.934,32.188,22.493,8.682,8.601,7.163
1996,0.813,36.516,8.922,32.15,22.476,8.481,8.358,7.002
1997,0.82,36.708,8.887,32.198,22.49,8.723,8.6,7.163
1998,0.794,36.739,8.902,32.131,22.466,8.441,8.318,6.921
1999,0.803,36.672,8.922,32.217,22.497,8.763,8.477,7.203
2000,0.8,36.767,8.903,32.15,22.469,8.482,8.316,6.962
2001,0.829,36.902,8.899,32.198,22.486,8.642,8.356,7.041
2002,0.826,36.98,8.782,32.169,22.483,8.521,8.356,7.082
2003,0.836,36.54,8.851,32.169,22.483,8.601,8.397,7.002
2004,0.839,36.679,8.816,32.16,22.48,8.643,8.397,7.001
2005,0.83,36.777,8.902,32.15,22.476,8.644,8.397,7.001
2006,0.836,36.826,8.836,32.159,22.48,8.562,8.316,7.001
2007,0.83,36.548,8.902,32.159,22.48,8.602,8.356,7.001
2008,0.826,36.67,8.817,32.169,22.483,8.562,8.315,7.001
2009,0.836,36.777,8.886,32.169,22.483,8.643,8.396,7.001
2010,0.826,36.826,8.863,32.14,22.476,8.603,8.275,7.001
2011,0.813,36.529,8.875,32.159,22.48,8.44,8.274,6.96
2012,0.816,36.67,8.875,32.159,22.48,8.519,8.314,7.0
2013,0.82,36.777,8.82,32.169,22.483,8.52,8.234,7.041
2014,0.817,36.816,8.874,32.16,22.483,8.479,8.273,6.96
2015,0.803,36.625,8.859,32.169,22.483,8.398,8.233,6.96
2016,0.794,36.738,9.004,32.169,22.473,8.316,8.273,7.0
2017,0.79,36.854,8.826,32.198,22.479,8.396,8.233,6.96
2018,0.797,37.181,8.874,32.169,22.48,8.275,8.151,6.96
2019,0.797,36.667,8.828,32.179,22.487,8.396,8.191,7.0
2020,0.781,36.748,8.914,32.15,22.48,8.112,8.07,6.919
2021,0.79,36.864,8.911,32.179,22.48,8.272,8.15,7.041
2022,0.797,36.654,8.856,32.16,22.48,8.152,8.15,6.839
2023,0.8,36.69,8.863,32.179,22.487,8.15,8.11,7.04
2024,0.8,36.825,8.859,32.15,22.48,8.11,8.028,6.92
2025,0.813,36.912,8.855,32.188,22.483,8.15,8.109,7.0
2026,0.807,36.443,8.824,32.16,22.476,8.028,7.987,6.96
2027,0.823,36.602,8.886,32.198,22.483,8.19,8.108,7.163
2028,0.813,36.68,8.824,32.16,22.469,8.07,7.987,6.88
2029,0.839,36.805,8.882,32.169,22.486,8.15,8.108,7.0
2030,0.826,36.596,8.859,32.14,22.473,8.028,7.987,6.879
2031,0.82,36.757,8.953,32.198,22.483,8.109,8.027,7.0
2032,0.81,36.854,8.829,32.16,22.473,8.109,8.027,6.879
2033,0.803,36.961,8.91,32.188,22.479,8.15,7.946,6.918
2034,0.803,36.425,8.871,32.179,22.483,8.069,7.945,6.919
2035,0.794,36.573,8.816,32.179,22.48,8.109,7.945,6.959
2036,0.797,36.689,8.933,32.198,22.483,8.191,7.945,7.082
2037,0.794,36.729,8.919,32.15,22.476,8.029,7.905,6.839
2038,0.8,36.748,8.93,32.217,22.486,8.109,8.107,7.162
2039,0.777,36.844,8.829,32.16,22.473,7.947,7.865,6.962
2040,0.8,36.98,8.917,32.198,22.497,8.067,8.188,7.204
2041,0.777,36.962,8.891,32.141,22.473,7.865,7.948,6.921
2042,0.803,36.569,8.996,32.207,22.49,8.148,8.148,7.203
2043,0.79,36.632,8.919,32.141,22.473,7.866,7.866,7.003
2044,0.816,36.805,8.903,32.207,22.497,8.107,8.188,7.285
2045,0.794,36.778,8.817,32.15,22.473,7.784,7.948,7.044
2046,0.823,36.711,8.867,32.198,22.493,7.984,8.148,7.367
2047,0.797,36.767,8.902,32.16,22.466,7.783,7.988,7.126
2048,0.823,36.931,8.805,32.198,22.486,7.944,8.149,7.287
2049,0.807,36.683,8.863,32.16,22.476,7.783,8.069,7.247
2050,0.816,36.652,8.828,32.188,22.48,7.862,8.15,7.288
2051,0.813,36.786,8.91,32.179,22.476,7.822,8.15,7.288
2052,0.813,36.883,8.907,32.16,22.48,7.944,8.191,7.329
2053,0.81,36.491,8.957,32.169,22.48,7.905,8.232,7.41
2054,0.816,36.602,8.849,32.188,22.48,7.945,8.314,7.371
2055,0.794,36.738,8.863,32.208,22.48,7.945,8.315,7.33
2056,0.777,36.825,8.816,32.179,22.48,7.945,8.396,7.37
2057,0.78,36.586,8.902,32.169,22.476,7.905,8.397,7.37
2058,0.78,36.747,8.852,32.169,22.48,7.904,8.438,7.37
2059,0.78,36.854,8.89,32.179,22.483,7.904,8.479,7.452
2060,0.767,36.941,8.821,32.179,22.48,7.985,8.438,7.452
2061,0.774,36.501,8.882,32.15,22.476,7.986,8.438,7.493
2062,0.79,36.65,8.977,32.188,22.483,7.986,8.438,7.453
2063,0.793,36.738,8.938,32.16,22.476,7.986,8.397,7.412
2064,0.784,36.806,8.981,32.179,22.486,8.108,8.438,7.411
2065,0.797,36.692,8.884,32.169,22.483,8.028,8.438,7.452
2066,0.8,36.844,8.91,32.198,22.476,8.149,8.438,7.412
2067,0.8,36.941,8.887,32.179,22.48,8.191,8.316,7.452
2068,0.79,36.99,8.945,32.179,22.476,8.273,8.274,7.452
2069,0.803,36.559,8.802,32.169,22.48,8.111,8.274,7.452
2070,0.813,36.689,8.851,32.169,22.476,8.272,8.274,7.493
2071,0.813,36.767,8.82,32.169,22.48,8.193,8.193,7.494
2072,0.81,36.816,8.917,32.188,22.48,8.314,8.273,7.616
2073,0.797,36.663,8.93,32.141,22.48,8.315,8.233,7.576
2074,0.803,36.805,8.942,32.178,22.487,8.437,8.273,7.698
2075,0.797,36.874,8.895,32.169,22.476,8.479,8.193,7.618
2076,0.797,36.807,8.856,32.179,22.486,8.479,8.232,7.698
2077,0.781,36.72,8.898,32.16,22.476,8.52,8.151,7.618
2078,0.78,36.854,8.906,32.179,22.483,8.642,8.313,7.739
2079,0.764,36.922,8.868,32.15,22.476,8.562,8.152,7.659
2080,0.78,36.568,8.82,32.179,22.483,8.643,8.273,7.739
2081,0.764,36.622,8.859,32.169,22.476,8.603,8.152,7.577
2082,0.783,36.776,8.828,32.179,22.49,8.684,8.232,7.698
2083,0.777,36.835,8.878,32.16,22.476,8.603,8.111,7.618
2084,0.79,36.615,8.934,32.179,22.48,8.643,8.191,7.698
2085,0.8,36.728,8.911,32.169,22.48,8.644,8.192,7.658
2086,0.807,36.892,8.938,32.179,22.473,8.644,8.151,7.698
2087,0.803,36.961,8.895,32.179,22.486,8.603,8.15,7.699
2088,0.807,36.53,8.942,32.169,22.48,8.562,8.11,7.618
2089,0.823,36.708,8.887,32.198,22.493,8.683,8.191,7.739
2090,0.813,36.787,8.891,32.16,22.473,8.4,7.988,7.455
2091,0.826,36.883,8.879,32.198,22.493,8.6,8.23,7.696
2092,0.81,36.558,8.902,32.141,22.466,8.277,7.948,7.496
2093,0.823,36.756,8.891,32.207,22.493,8.558,8.189,7.738
2094,0.797,36.816,8.887,32.131,22.466,8.277,7.866,7.374
2095,0.81,36.922,8.91,32.188,22.493,8.477,8.148,7.655
2096,0.787,36.53,8.887,32.131,22.469,8.154,7.825,7.414
2097,0.819,36.708,8.902,32.197,22.486,8.395,8.066,7.615
2098,0.8,36.748,8.903,32.141,22.466,8.194,7.987,7.454
2099,0.81,36.806,8.91,32.178,22.486,8.273,7.986,7.493
2100,0.81,36.653,8.829,32.179,22.483,8.193,7.946,7.494
2101,0.823,36.805,8.882,32.179,22.483,8.192,7.986,7.494
2102,0.826,36.912,8.859,32.169,22.476,8.192,7.946,7.412
2103,0.856,36.884,8.883,32.16,22.473,8.151,7.905,7.452
2104,0.853,36.673,8.867,32.159,22.479,8.11,7.904,7.412
2105,0.879,36.796,8.961,32.179,22.476,8.15,7.945,7.411
2106,0.859,36.883,8.876,32.16,22.473,8.028,7.905,7.371
2107,0.882,36.51,8.898,32.159,22.483,7.987,7.904,7.411
2108,0.882,36.574,8.891,32.169,22.473,8.027,7.863,7.33
2109,0.895,36.689,8.93,32.169,22.483,7.905,7.822,7.37
2110,0.905,36.786,8.883,32.16,22.48,7.904,7.822,7.289
2111,0.908,36.442,8.879,32.169,22.483,7.863,7.822,7.329
2112,0.902,36.573,8.945,32.16,22.48,7.782,7.741,7.289
2113,0.899,36.699,8.876,32.159,22.483,7.822,7.821,7.288
2114,0.889,36.777,8.902,32.15,22.476,7.7,7.781,7.288
2115,0.882,36.586,8.899,32.159,22.476,7.74,7.74,7.288
2116,0.879,36.747,8.84,32.15,22.48,7.659,7.659,7.247
2117,0.889,36.883,8.875,32.179,22.48,7.698,7.658,7.247
2118,0.882,36.923,8.883,32.131,22.469,7.536,7.576,7.247
2119,0.879,36.626,8.914,32.178,22.483,7.616,7.575,7.247
2120,0.892,36.747,8.879,32.15,22.476,7.454,7.535,7.084
2121,0.895,36.883,8.789,32.169,22.48,7.534,7.616,7.245
2122,0.889,36.903,8.87,32.15,22.476,7.372,7.454,7.166
2123,0.902,36.434,8.828,32.169,22.483,7.411,7.493,7.246
2124,0.912,36.544,8.859,32.14,22.476,7.33,7.371,7.084
2125,0.938,36.66,8.828,32.159,22.486,7.37,7.452,7.205
2126,0.941,36.681,8.875,32.131,22.48,7.208,7.371,7.125
2127,0.954,36.633,8.891,32.159,22.487,7.328,7.411,7.205
2128,0.974,36.728,8.852,32.159,22.473,7.167,7.289,7.084
2129,1.01,36.844,8.945,32.159,22.483,7.246,7.329,7.164
2130,0.991,37.085,8.884,32.131,22.469,7.166,7.207,7.124
2131,1.0,36.56,8.902,32.169,22.486,7.287,7.328,7.124
2132,0.991,36.68,8.774,32.15,22.48,7.125,7.289,7.124
2133,0.991,36.786,8.905,32.179,22.483,7.124,7.329,7.083
2134,0.971,36.605,8.805,32.169,22.483,7.124,7.37,7.205
2135,0.958,36.68,8.824,32.14,22.48,7.043,7.289,7.084
2136,0.958,36.786,8.933,32.169,22.487,7.204,7.369,7.205
2137,0.948,36.845,8.708,32.15,22.476,7.003,7.289,7.043
2138,0.951,36.414,8.905,32.188,22.493,7.204,7.532,7.204
2139,0.945,36.496,8.856,32.131,22.469,7.003,7.25,6.962
2140,0.958,36.669,8.933,32.207,22.493,7.123,7.532,7.285
2141,0.925,36.7,8.837,32.131,22.473,6.839,7.331,7.044
2142,0.964,36.47,8.879,32.178,22.493,7.162,7.532,7.245
2143,0.942,36.554,8.777,32.131,22.473,6.84,7.331,7.003
2144,0.964,36.737,8.87,32.178,22.486,7.04,7.532,7.123
2145,0.935,36.739,8.828,32.141,22.483,6.92,7.372,7.043
2146,0.941,36.47,8.902,32.159,22.48,7.081,7.452,7.042
2147,0.935,36.612,8.856,32.169,22.476,7.002,7.371,7.042
2148,0.928,36.718,8.883,32.169,22.483,7.123,7.452,7.042
2149,0.905,36.787,8.887,32.16,22.48,7.083,7.33,7.042
2150,0.905,36.433,8.922,32.159,22.48,7.123,7.37,7.042
2151,0.892,36.554,8.934,32.169,22.48,7.043,7.33,7.042
2152,0.873,36.66,8.883,32.16,22.483,7.082,7.41,7.001
2153,0.846,36.7,8.879,32.159,22.48,7.083,7.33,7.001
2154,0.836,36.441,8.852,32.246,22.48,7.083,7.37,7.041
2155,0.846,36.563,8.847,32.16,22.476,7.083,7.289,7.001
2156,0.833,36.67,8.871,32.14,22.483,7.123,7.369,7.041
2157,0.82,36.719,8.906,32.169,22.476,7.083,7.289,7.042
2158,0.826,36.576,8.821,32.169,22.48,7.083,7.329,7.123
2159,0.81,36.708,8.871,32.169,22.473,7.083,7.329,7.002
2160,0.8,36.806,8.914,32.15,22.476,7.123,7.289,7.082
2161,0.79,36.509,8.891,32.159,22.476,7.124,7.288,7.002
2162,0.787,36.497,8.938,32.179,22.48,7.165,7.329,7.082
2163,0.79,36.602,8.88,32.16,22.48,7.084,7.248,7.042
2164,0.784,36.699,8.859,32.179,22.48,7.123,7.206,7.082
2165,0.78,36.412,8.828,32.16,22.473,7.124,7.206,7.083
2166,0.78,36.544,8.867,32.15,22.483,7.205,7.287,7.164
2167,0.784,36.651,8.902,32.179,22.473,7.043,7.166,7.043
2168,0.767,36.738,8.774,32.188,22.479,7.245,7.287,7.123
2169,0.787,36.288,8.862,32.15,22.473,7.206,7.207,7.002
2170,0.78,36.466,8.867,32.159,22.486,7.206,7.287,7.204
2171,0.78,36.564,8.906,32.159,22.48,7.125,7.125,7.043
2172,0.771,36.641,8.926,32.198,22.483,7.205,7.287,7.123
2173,0.761,36.374,8.934,32.16,22.473,7.206,7.207,7.043
2174,0.761,36.534,8.86,32.188,22.479,7.287,7.247,7.042
2175,0.751,36.631,8.863,32.15,22.476,7.166,7.125,6.92
2176,0.751,36.719,8.824,32.179,22.486,7.287,7.205,7.081
2177,0.725,36.413,8.929,32.141,22.476,7.166,7.165,6.961
2178,0.734,36.592,8.864,32.198,22.48,7.165,7.206,7.122
2179,0.731,36.67,8.898,32.16,22.476,7.124,7.003,7.043
2180,0.734,36.757,8.875,32.188,22.48,7.205,7.163,7.082
2181,0.725,36.432,8.906,32.179,22.476,7.165,7.043,7.002
2182,0.754,36.592,8.977,32.188,22.48,7.124,7.123,7.082
2183,0.748,36.67,8.911,32.179,22.487,7.043,7.043,7.002
2184,0.744,36.7,8.899,32.188,22.476,7.082,7.082,7.082
2185,0.76,36.393,8.821,32.198,22.48,7.164,7.042,7.042
2186,0.754,36.515,8.82,32.189,22.469,7.084,6.92,7.001
2187,0.761,36.622,8.874,32.198,22.486,7.164,7.081,7.123
2188,0.761,36.479,8.895,32.16,22.469,7.043,6.88,6.961
2189,0.78,36.497,8.856,32.198,22.49,7.164,7.081,7.163
2190,0.758,36.573,8.867,32.16,22.473,6.88,6.798,6.962
2191,0.764,36.708,8.883,32.217,22.49,7.162,7.12,7.204
2192,0.748,36.278,8.953,32.15,22.466,6.921,6.88,6.962
2193,0.757,36.475,8.915,32.198,22.49,7.163,7.04,7.204
