time,ecg,bvp,gsr,rsp,skt,emg_zygo,emg_coru,emg_trap
0,0.715,34.657,15.597,41.945,29.432,4.536,5.399,11.764
1,0.757,34.906,15.589,41.965,29.438,4.618,5.48,11.724
2,0.757,35.052,15.659,41.955,29.442,4.578,5.4,11.764
3,0.751,34.593,15.609,41.907,29.425,4.415,5.318,11.602
4,0.761,34.713,15.605,41.926,29.431,4.535,5.398,11.6
5,0.761,34.926,15.624,41.955,29.435,4.577,5.562,11.803
6,0.767,35.119,15.566,41.965,29.438,4.578,5.441,11.684
7,0.77,34.469,15.644,41.974,29.442,4.578,5.521,11.764
8,0.764,34.587,15.683,41.926,29.432,4.537,5.441,11.764
9,0.764,34.828,15.535,41.955,29.435,4.496,5.359,11.642
10,0.787,34.984,15.612,41.965,29.449,4.658,5.561,11.845
11,0.79,34.449,15.632,41.936,29.435,4.497,5.401,11.684
12,0.793,34.654,15.617,41.955,29.442,4.618,5.399,11.642
13,0.803,34.867,15.617,41.955,29.439,4.578,5.44,11.641
14,0.81,34.994,15.613,41.955,29.438,4.496,5.359,11.438
15,0.813,34.391,15.687,41.965,29.445,4.536,5.439,11.558
16,0.82,34.606,15.617,41.936,29.435,4.618,5.481,11.437
17,0.833,34.829,15.668,41.936,29.435,4.537,5.4,11.233
18,0.836,34.927,15.617,41.936,29.442,4.537,5.44,11.149
19,0.833,34.362,15.48,41.936,29.442,4.496,5.359,11.149
20,0.846,34.673,15.635,41.945,29.442,4.577,5.521,11.067
21,0.84,34.848,15.687,41.955,29.442,4.578,5.522,11.026
22,0.83,34.956,15.664,41.936,29.432,4.415,5.36,10.7
23,0.836,34.353,15.648,41.936,29.435,4.535,5.399,10.656
24,0.839,34.586,15.605,41.926,29.428,4.577,5.44,10.656
25,0.849,34.809,15.663,41.926,29.442,4.578,5.481,10.574
26,0.843,34.927,15.602,41.964,29.442,4.618,5.522,10.533
27,0.843,34.458,15.609,41.917,29.421,4.456,5.319,10.288
28,0.856,34.712,15.597,41.926,29.431,4.617,5.48,10.286
29,0.849,34.887,15.566,41.936,29.431,4.537,5.481,10.286
30,0.869,35.014,15.573,41.945,29.435,4.577,5.481,10.164
31,0.876,34.296,15.632,41.945,29.445,4.618,5.522,10.082
32,0.872,34.509,15.621,41.917,29.428,4.456,5.36,9.837
33,0.885,34.713,15.66,41.926,29.435,4.536,5.439,9.753
34,0.892,34.801,15.656,41.936,29.435,4.618,5.562,9.915
35,0.905,34.332,15.68,41.936,29.442,4.619,5.441,9.713
36,0.915,34.596,15.656,41.936,29.442,4.619,5.481,9.63
37,0.899,34.733,15.609,41.917,29.432,4.578,5.359,9.507
38,0.908,34.82,15.66,41.916,29.428,4.537,5.358,9.343
39,0.915,34.236,15.586,41.936,29.449,4.699,5.561,9.423
40,0.909,34.48,15.589,41.936,29.439,4.62,5.441,9.342
41,0.912,34.674,15.64,41.936,29.445,4.619,5.44,9.301
42,0.892,34.781,15.637,41.936,29.435,4.537,5.44,9.219
43,0.889,34.437,15.625,41.936,29.432,4.577,5.399,9.015
44,0.902,34.693,15.668,41.974,29.445,4.659,5.521,9.094
45,0.902,34.858,15.649,41.926,29.445,4.619,5.441,9.014
46,0.905,34.553,15.66,41.955,29.439,4.619,5.44,8.932
47,0.895,34.128,15.637,41.926,29.432,4.537,5.481,8.931
48,0.902,34.335,15.636,41.926,29.431,4.496,5.4,8.768
49,0.921,34.557,15.59,41.945,29.438,4.577,5.399,8.767
50,0.931,34.406,15.57,41.945,29.442,4.618,5.48,8.767
51,0.938,34.414,15.608,41.936,29.435,4.497,5.318,8.482
52,0.932,34.596,15.597,41.945,29.435,4.536,5.398,8.52
53,0.931,34.761,15.574,41.926,29.435,4.537,5.44,8.52
54,0.944,34.168,15.585,41.955,29.438,4.577,5.44,8.52
55,0.954,34.22,15.62,41.926,29.438,4.618,5.44,8.52
56,0.958,34.432,15.597,42.003,29.428,4.497,5.318,8.317
57,0.954,34.597,15.62,41.917,29.428,4.455,5.439,8.274
58,0.948,34.119,15.679,41.916,29.431,4.658,5.44,8.396
59,0.958,34.315,15.637,41.926,29.435,4.579,5.481,8.316
60,0.951,34.567,15.601,41.945,29.442,4.578,5.481,8.315
61,0.951,34.684,15.621,41.897,29.432,4.537,5.4,8.234
62,0.954,34.072,15.668,41.926,29.428,4.537,5.318,8.151
63,0.951,34.257,15.649,41.926,29.442,4.577,5.52,8.313
64,0.948,34.518,15.613,41.926,29.442,4.578,5.441,8.112
65,0.954,34.636,15.636,41.926,29.445,4.659,5.481,8.109
66,0.935,33.918,15.633,41.888,29.428,4.579,5.481,8.109
67,0.945,34.17,15.601,41.897,29.431,4.496,5.44,8.028
68,0.948,34.383,15.699,41.945,29.442,4.658,5.603,8.231
69,0.961,34.5,15.606,41.936,29.435,4.579,5.442,8.111
70,0.984,34.012,15.632,41.917,29.438,4.578,5.521,8.028
71,0.971,34.209,15.644,41.936,29.432,4.496,5.441,7.946
72,0.981,34.422,15.64,41.907,29.425,4.495,5.399,7.864
73,0.997,34.577,15.648,41.955,29.438,4.699,5.602,8.066
74,0.994,33.917,15.609,41.917,29.432,4.538,5.482,8.028
75,1.0,34.17,15.624,41.916,29.435,4.577,5.44,7.987
76,0.997,34.374,15.621,41.916,29.432,4.578,5.399,7.864
77,1.004,34.462,15.586,41.888,29.428,4.496,5.358,7.822
78,1.007,34.041,15.663,41.945,29.442,4.618,5.48,7.863
79,0.997,34.247,15.566,41.917,29.435,4.659,5.4,7.822
80,1.004,34.48,15.566,41.926,29.432,4.538,5.399,7.659
81,1.0,34.511,15.651,41.907,29.428,4.537,5.48,7.78
82,1.0,33.984,15.629,41.897,29.424,4.496,5.481,7.659
83,1.013,34.285,15.675,41.926,29.435,4.577,5.481,7.658
84,1.01,34.471,15.625,41.907,29.435,4.578,5.4,7.739
85,1.007,34.54,15.687,41.897,29.432,4.456,5.358,7.618
86,1.001,33.965,15.668,41.983,29.431,4.495,5.399,7.617
87,0.997,34.208,15.606,41.907,29.431,4.536,5.44,7.617
88,1.026,34.412,15.71,41.916,29.428,4.577,5.44,7.698
89,1.01,34.453,15.598,41.916,29.431,4.659,5.481,7.699
90,1.02,34.002,15.628,41.888,29.421,4.457,5.359,7.496
91,1.04,34.238,15.57,41.897,29.428,4.577,5.317,7.534
92,1.04,34.432,15.648,41.887,29.428,4.578,5.48,7.697
93,1.046,34.424,15.625,41.897,29.438,4.537,5.481,7.618
94,1.056,34.012,15.64,41.916,29.438,4.659,5.562,7.657
95,1.063,34.218,15.668,41.859,29.418,4.497,5.482,7.576
96,1.066,34.422,15.512,41.906,29.431,4.536,5.359,7.535
97,1.073,34.309,15.62,41.907,29.431,4.618,5.521,7.616
98,1.066,33.943,15.664,41.887,29.428,4.537,5.482,7.576
99,1.076,34.17,15.574,41.897,29.435,4.618,5.481,7.575
100,1.063,34.335,15.581,41.897,29.432,4.537,5.4,7.494
101,1.06,34.155,15.554,41.897,29.428,4.496,5.399,7.494
102,1.076,34.076,15.643,41.916,29.449,4.699,5.602,7.656
103,1.07,34.286,15.633,41.916,29.439,4.579,5.482,7.455
104,1.073,34.48,15.605,41.888,29.442,4.578,5.44,7.534
105,1.073,34.022,15.652,41.897,29.432,4.578,5.399,7.494
106,1.069,34.084,15.578,41.887,29.428,4.537,5.358,7.371
107,1.089,34.334,15.671,41.935,29.431,4.699,5.399,7.452
108,1.076,34.442,15.676,41.897,29.438,4.66,5.44,7.534
109,1.099,33.839,15.59,41.897,29.432,4.538,5.399,7.372
110,1.112,33.996,15.636,41.887,29.428,4.537,5.399,7.37
111,1.102,34.18,15.64,41.878,29.424,4.496,5.399,7.37
112,1.119,34.354,15.625,41.897,29.435,4.577,5.399,7.37
113,1.138,33.819,15.671,41.907,29.438,4.578,5.44,7.37
114,1.125,33.996,15.61,41.859,29.428,4.496,5.359,7.33
115,1.138,34.228,15.648,41.887,29.435,4.536,5.317,7.167
116,1.142,34.365,15.625,41.954,29.438,4.537,5.439,7.328
117,1.148,33.771,15.59,41.898,29.435,4.577,5.481,7.207
118,1.158,33.995,15.663,41.897,29.438,4.618,5.481,7.287
119,1.145,34.17,15.566,41.868,29.435,4.537,5.359,7.247
120,1.148,34.335,15.612,41.868,29.442,4.414,5.317,7.125
121,1.152,33.848,15.589,41.906,29.449,4.576,5.52,7.287
122,1.152,34.063,15.671,41.897,29.442,4.537,5.441,7.207
123,1.155,34.305,15.649,41.907,29.445,4.577,5.44,7.247
124,1.132,34.384,15.629,41.868,29.435,4.537,5.44,7.206
125,1.151,33.762,15.656,41.858,29.428,4.414,5.318,7.206
126,1.148,34.053,15.629,41.916,29.449,4.739,5.52,7.287
127,1.152,34.229,15.621,41.897,29.442,4.498,5.36,7.288
128,1.158,34.336,15.652,41.878,29.439,4.455,5.439,7.166
129,1.168,33.809,15.531,41.878,29.438,4.495,5.359,7.165
130,1.181,34.044,15.596,41.878,29.425,4.495,5.277,7.165
131,1.191,34.286,15.593,41.906,29.449,4.577,5.357,7.165
132,1.194,34.346,15.636,41.887,29.446,4.618,5.317,7.124
133,1.201,33.79,15.687,41.897,29.432,4.497,5.317,7.043
134,1.194,34.024,15.656,41.897,29.435,4.618,5.358,7.082
135,1.194,34.209,15.719,41.849,29.435,4.497,5.277,7.083
136,1.224,34.336,15.657,41.964,29.435,4.536,5.398,7.164
137,1.221,33.742,15.656,41.878,29.445,4.496,5.44,7.084
138,1.221,33.995,15.641,41.878,29.435,4.455,5.277,6.92
139,1.23,34.19,15.629,41.878,29.435,4.495,5.316,7.0
140,1.204,34.249,15.59,41.878,29.432,4.414,5.317,7.041
141,1.22,33.991,15.562,41.878,29.442,4.535,5.317,7.042
142,1.201,34.209,15.612,41.878,29.442,4.496,5.358,7.082
143,1.204,34.374,15.597,41.868,29.432,4.333,5.236,6.961
144,1.188,34.423,15.617,41.878,29.442,4.534,5.316,7.0
145,1.188,33.791,15.656,41.858,29.435,4.455,5.439,7.123
146,1.194,34.044,15.609,41.887,29.435,4.536,5.44,7.124
147,1.185,34.228,15.624,41.897,29.442,4.618,5.481,7.124
148,1.178,34.154,15.625,41.839,29.425,4.537,5.278,7.043
149,1.191,33.693,15.59,41.877,29.438,4.537,5.316,7.001
150,1.194,33.918,15.628,41.887,29.438,4.577,5.48,7.163
151,1.201,34.093,15.597,41.878,29.438,4.537,5.4,7.043
152,1.217,34.008,15.648,41.887,29.442,4.496,5.399,7.123
153,1.211,33.883,15.582,41.868,29.439,4.495,5.318,7.083
154,1.204,34.15,15.609,41.858,29.438,4.536,5.358,7.002
155,1.217,34.335,15.652,41.906,29.456,4.74,5.521,7.204
156,1.224,33.742,15.562,41.878,29.439,4.539,5.4,7.084
157,1.23,33.736,15.624,41.878,29.449,4.577,5.399,7.002
158,1.214,33.947,15.625,41.878,29.432,4.537,5.358,6.96
159,1.217,34.103,15.66,41.839,29.431,4.455,5.277,6.96
160,1.217,33.711,15.633,41.906,29.452,4.658,5.479,7.122
161,1.214,33.822,15.652,41.887,29.446,4.538,5.4,7.124
162,1.211,34.044,15.715,41.878,29.439,4.577,5.358,7.083
163,1.194,34.2,15.672,41.887,29.442,4.496,5.358,7.002
164,1.188,33.635,15.633,41.849,29.428,4.455,5.317,7.001
165,1.194,33.879,15.652,41.897,29.449,4.617,5.439,7.123
166,1.178,34.083,15.605,41.878,29.439,4.659,5.399,7.165
167,1.188,34.21,15.613,41.878,29.438,4.579,5.318,7.043
168,1.171,33.693,15.625,41.868,29.442,4.578,5.317,7.082
169,1.168,33.889,15.574,41.868,29.435,4.496,5.398,6.961
170,1.197,34.169,15.566,41.897,29.442,4.577,5.358,7.122
171,1.188,34.278,15.624,41.887,29.435,4.537,5.439,7.124
172,1.191,33.79,15.586,41.878,29.435,4.496,5.359,6.961
173,1.191,34.024,15.609,41.858,29.432,4.536,5.358,7.041
174,1.185,34.219,15.632,41.849,29.431,4.496,5.358,7.042
175,1.197,34.403,15.66,41.887,29.442,4.536,5.399,7.164
176,1.191,33.762,15.594,41.878,29.439,4.577,5.44,7.084
177,1.188,33.995,15.589,41.849,29.438,4.496,5.318,6.961
178,1.181,34.199,15.687,41.858,29.438,4.577,5.358,7.082
179,1.168,34.307,15.594,41.83,29.435,4.496,5.358,7.123
180,1.168,33.886,15.624,41.954,29.435,4.536,5.399,7.083
181,1.155,34.131,15.593,41.878,29.435,4.577,5.44,7.123
182,1.158,34.325,15.659,41.839,29.425,4.415,5.318,7.002
183,1.135,34.442,15.66,41.858,29.438,4.576,5.398,7.041
184,1.125,34.089,15.641,41.868,29.435,4.496,5.399,7.082
185,1.119,34.363,15.676,41.858,29.438,4.536,5.399,7.083
186,1.109,34.567,15.633,41.877,29.442,4.577,5.399,7.164
187,1.106,34.636,15.594,41.83,29.428,4.456,5.277,7.002
188,1.093,34.253,15.663,41.868,29.431,4.577,5.357,7.041
189,1.083,34.499,15.59,41.858,29.435,4.578,5.439,7.164
190,1.102,34.703,15.562,41.849,29.435,4.578,5.399,7.084
191,1.096,34.772,15.612,41.868,29.438,4.659,5.48,7.123
192,1.092,34.322,15.57,41.83,29.428,4.497,5.44,7.124
193,1.092,34.557,15.624,41.877,29.442,4.536,5.359,7.002
194,1.083,34.751,15.632,41.839,29.439,4.577,5.439,7.163
195,1.092,34.811,15.629,41.858,29.435,4.537,5.44,7.165
196,1.092,34.677,15.617,41.935,29.442,4.659,5.399,7.206
197,1.073,34.896,15.566,41.84,29.432,4.538,5.399,7.084
198,1.066,35.081,15.647,41.839,29.435,4.537,5.318,7.042
199,1.05,35.294,15.629,41.868,29.442,4.699,5.52,7.286
200,1.037,34.97,15.617,41.868,29.439,4.538,5.4,7.085
201,1.024,35.206,15.617,41.868,29.442,4.618,5.399,7.164
202,1.023,35.324,15.586,41.839,29.435,4.537,5.358,7.084
203,1.014,35.286,15.62,41.858,29.435,4.537,5.358,6.961
204,0.997,35.19,15.632,41.887,29.449,4.74,5.521,7.163
205,0.991,35.4,15.672,41.849,29.439,4.579,5.441,7.084
206,0.978,35.575,15.582,41.887,29.449,4.659,5.359,7.164
207,0.958,35.452,15.589,41.859,29.439,4.579,5.317,7.124
208,0.961,35.451,15.687,41.839,29.438,4.456,5.317,6.961
209,0.968,35.71,15.656,41.887,29.452,4.78,5.52,7.122
210,0.968,35.846,15.625,41.849,29.439,4.58,5.4,7.043
211,0.951,35.637,15.617,41.868,29.442,4.659,5.318,7.082
212,0.948,35.74,15.605,41.858,29.435,4.619,5.358,7.083
213,0.935,35.952,15.617,41.839,29.435,4.537,5.317,7.042
214,0.964,36.146,15.664,41.896,29.449,4.577,5.439,7.082
215,0.951,35.908,15.613,41.839,29.442,4.618,5.399,7.164
216,0.941,36.088,15.625,41.839,29.432,4.619,5.318,6.921
217,0.932,36.301,15.59,41.839,29.438,4.578,5.358,7.041
218,0.918,36.408,15.64,41.839,29.438,4.537,5.277,7.042
219,0.925,36.179,15.594,41.848,29.438,4.659,5.357,7.082
220,0.909,36.379,15.558,41.849,29.442,4.619,5.358,7.083
221,0.908,36.572,15.593,41.839,29.428,4.497,5.236,6.92
222,0.892,36.699,15.554,41.848,29.435,4.577,5.316,7.041
223,0.879,36.518,15.612,41.849,29.435,4.578,5.317,7.082
224,0.885,36.785,15.601,41.849,29.432,4.618,5.358,7.042
225,0.866,36.979,15.671,41.839,29.438,4.619,5.358,7.123
226,0.853,37.067,15.574,41.839,29.428,4.456,5.155,7.043
227,0.846,36.819,15.624,41.848,29.442,4.536,5.356,7.082
228,0.849,37.018,15.671,41.829,29.439,4.577,5.439,7.205
229,0.862,37.24,15.68,41.848,29.442,4.659,5.44,7.084
230,0.862,37.348,15.617,41.897,29.442,4.66,5.359,7.123
231,0.846,37.09,15.601,41.811,29.432,4.538,5.236,7.165
232,0.849,37.347,15.605,41.848,29.431,4.577,5.275,7.043
233,0.849,37.551,15.628,41.849,29.435,4.618,5.438,7.204
234,0.849,37.639,15.64,41.849,29.449,4.497,5.359,7.043
235,0.856,37.458,15.629,41.858,29.442,4.658,5.399,7.082
236,0.846,37.638,15.586,41.839,29.432,4.619,5.318,7.042
237,0.84,37.831,15.585,41.82,29.435,4.537,5.317,6.96
238,0.846,37.948,15.698,41.858,29.452,4.659,5.398,7.163
239,0.827,37.489,15.602,41.849,29.442,4.579,5.399,6.962
240,0.826,37.744,15.64,41.849,29.442,4.7,5.358,7.041
241,0.82,37.919,15.621,41.839,29.435,4.498,5.358,7.082
242,0.826,37.949,15.636,41.839,29.438,4.495,5.277,7.002
243,0.826,38.065,15.66,41.868,29.456,4.699,5.479,7.082
244,0.81,38.267,15.586,41.849,29.435,4.66,5.359,7.083
245,0.81,38.461,15.632,41.839,29.435,4.579,5.317,7.002
246,0.8,38.492,15.64,41.839,29.435,4.578,5.317,7.082
247,0.794,38.061,15.547,41.839,29.432,4.496,5.276,6.961
248,0.806,38.296,15.632,41.858,29.449,4.618,5.357,7.082
249,0.797,38.442,15.64,41.839,29.442,4.619,5.399,7.083
250,0.81,38.578,15.617,41.839,29.442,4.578,5.318,6.961
251,0.807,38.502,15.648,41.839,29.439,4.659,5.317,7.0
252,0.8,38.713,15.621,41.81,29.435,4.497,5.236,6.96
253,0.823,38.926,15.656,41.858,29.442,4.577,5.316,7.041
254,0.807,38.861,15.664,41.839,29.442,4.578,5.317,7.001
255,0.81,38.649,15.684,41.82,29.428,4.496,5.276,6.838
256,0.807,38.858,15.625,41.839,29.435,4.536,5.316,6.877
257,0.803,39.014,15.523,41.829,29.432,4.496,5.317,6.959
258,0.82,38.842,15.663,41.829,29.435,4.577,5.358,6.919
259,0.803,38.822,15.586,41.829,29.445,4.618,5.399,6.959
260,0.8,39.013,15.585,41.81,29.428,4.415,5.236,6.838
261,0.794,39.159,15.648,41.829,29.435,4.535,5.275,6.958
262,0.774,38.873,15.64,41.839,29.442,4.577,5.357,7.0
263,0.777,38.927,15.637,41.848,29.442,4.537,5.358,6.919
264,0.78,39.148,15.679,41.849,29.439,4.618,5.317,7.041
265,0.78,39.256,15.617,41.81,29.435,4.497,5.317,6.92
266,0.771,39.046,15.589,41.81,29.435,4.536,5.276,6.796
267,0.774,39.236,15.574,41.839,29.442,4.659,5.438,7.12
268,0.777,39.43,15.632,41.82,29.442,4.497,5.359,7.043
269,0.78,39.566,15.629,41.839,29.442,4.658,5.399,7.082
270,0.787,39.04,15.461,41.829,29.439,4.538,5.318,6.961
271,0.79,39.236,15.584,41.82,29.438,4.577,5.317,6.878
272,0.803,39.449,15.601,41.848,29.452,4.7,5.439,7.121
273,0.797,39.585,15.648,41.829,29.439,4.66,5.399,7.043
274,0.807,39.193,15.644,41.82,29.438,4.538,5.399,6.96
275,0.797,39.391,15.672,41.848,29.438,4.537,5.358,7.041
276,0.8,39.585,15.641,41.81,29.435,4.496,5.236,6.92
277,0.81,39.711,15.637,41.867,29.442,4.618,5.357,6.959
278,0.803,39.137,15.672,41.83,29.442,4.659,5.317,7.041
279,0.803,39.361,15.567,41.82,29.432,4.538,5.195,6.96
280,0.79,39.536,15.605,41.82,29.435,4.537,5.275,6.96
281,0.78,39.634,15.617,41.82,29.438,4.496,5.316,6.96
282,0.79,39.309,15.601,41.82,29.435,4.618,5.358,6.96
283,0.784,39.536,15.593,41.829,29.445,4.578,5.317,7.041
284,0.787,39.711,15.593,41.8,29.432,4.496,5.154,6.92
285,0.784,39.808,15.656,41.819,29.435,4.577,5.315,7.0
286,0.767,39.32,15.535,41.82,29.435,4.578,5.276,7.041
287,0.78,39.574,15.612,41.829,29.435,4.659,5.316,7.001
288,0.784,39.749,15.636,41.839,29.449,4.579,5.398,7.123
289,0.784,39.79,15.613,41.82,29.425,4.496,5.236,6.961
290,0.777,39.301,15.621,41.858,29.428,4.577,5.357,7.0
291,0.787,39.497,15.574,41.82,29.445,4.578,5.399,7.123
292,0.797,39.691,15.632,41.829,29.439,4.659,5.318,7.083
293,0.8,39.751,15.574,41.829,29.452,4.579,5.358,7.123
294,0.787,39.396,15.605,41.8,29.439,4.537,5.399,7.083
295,0.793,39.633,15.632,41.81,29.435,4.537,5.318,7.002
296,0.8,39.817,15.625,41.877,29.449,4.699,5.398,7.163
297,0.813,39.848,15.609,41.83,29.442,4.579,5.358,7.124
298,0.816,39.378,15.617,41.81,29.449,4.618,5.358,7.124
299,0.794,39.556,15.621,41.819,29.432,4.619,5.317,7.043
300,0.787,39.749,15.652,41.82,29.435,4.497,5.276,7.001
301,0.787,39.809,15.641,41.848,29.452,4.699,5.479,7.123
302,0.79,39.464,15.687,41.82,29.439,4.538,5.359,7.083
303,0.787,39.7,15.637,41.82,29.442,4.537,5.358,7.042
304,0.793,39.856,15.625,41.81,29.445,4.577,5.358,7.082
305,0.787,39.733,15.679,41.781,29.432,4.578,5.277,7.002
306,0.8,39.367,15.586,41.858,29.442,4.659,5.357,7.082
307,0.79,39.575,15.632,41.839,29.435,4.579,5.399,7.123
308,0.803,39.721,15.609,41.81,29.435,4.578,5.277,7.043
309,0.794,39.473,15.628,41.819,29.435,4.578,5.316,7.082
310,0.787,39.346,15.539,41.82,29.435,4.496,5.317,7.002
311,0.806,39.594,15.616,41.81,29.442,4.577,5.358,7.082
312,0.794,39.711,15.621,41.81,29.439,4.618,5.439,7.123
313,0.803,39.223,15.613,41.781,29.421,4.497,5.196,6.961
314,0.797,39.238,15.613,41.819,29.435,4.495,5.316,7.0
315,0.8,39.42,15.621,41.8,29.438,4.618,5.358,7.082
316,0.807,39.594,15.562,41.839,29.435,4.619,5.439,7.083
317,0.816,39.078,15.601,41.82,29.449,4.659,5.44,7.083
318,0.807,39.169,15.621,41.772,29.428,4.457,5.237,7.002
319,0.803,39.391,15.582,41.8,29.435,4.536,5.316,7.082
320,0.803,39.527,15.554,41.781,29.438,4.659,5.358,7.164
321,0.8,39.039,15.593,41.81,29.432,4.579,5.358,7.084
322,0.81,39.245,15.628,41.8,29.442,4.7,5.399,7.164
323,0.787,39.401,15.601,41.771,29.435,4.498,5.399,7.043
324,0.78,39.546,15.656,41.781,29.442,4.536,5.318,7.042
325,0.78,38.963,15.652,41.79,29.442,4.659,5.48,7.204
326,0.78,39.168,15.644,41.81,29.442,4.579,5.4,7.125
327,0.79,39.391,15.656,41.819,29.442,4.659,5.358,7.124
328,0.784,39.47,15.625,41.791,29.432,4.579,5.317,7.083
329,0.79,38.866,15.679,41.791,29.431,4.578,5.276,6.92
330,0.803,39.1,15.574,41.819,29.456,4.74,5.479,7.163
331,0.807,39.304,15.616,41.8,29.442,4.579,5.359,7.084
332,0.803,39.43,15.628,41.819,29.449,4.618,5.317,7.083
333,0.8,38.722,15.593,41.8,29.439,4.537,5.358,7.002
334,0.813,38.964,15.605,41.781,29.435,4.496,5.277,6.919
335,0.813,39.187,15.644,41.838,29.452,4.658,5.479,7.081
336,0.82,39.266,15.629,41.801,29.439,4.619,5.4,6.961
337,0.82,38.711,15.574,41.8,29.442,4.537,5.399,6.919
338,0.823,38.945,15.659,41.771,29.435,4.537,5.358,6.959
339,0.804,39.129,15.539,41.771,29.435,4.537,5.317,6.838
340,0.813,39.266,15.608,41.809,29.435,4.659,5.317,6.958
341,0.816,38.605,15.636,41.8,29.438,4.619,5.439,6.96
342,0.81,38.848,15.633,41.791,29.435,4.497,5.318,6.838
343,0.794,39.023,15.656,41.791,29.438,4.536,5.317,6.877
344,0.78,39.082,15.609,41.762,29.435,4.537,5.276,6.837
345,0.8,38.584,15.648,41.8,29.435,4.537,5.357,6.877
346,0.794,38.8,15.57,41.8,29.442,4.618,5.399,6.959
347,0.797,38.965,15.573,41.762,29.428,4.456,5.236,6.838
348,0.784,39.015,15.671,41.781,29.431,4.577,5.235,6.877
349,0.78,38.392,15.598,41.771,29.438,4.578,5.357,7.0
350,0.8,38.664,15.62,41.8,29.435,4.578,5.358,6.96
351,0.803,38.82,15.636,41.81,29.449,4.659,5.358,7.041
352,0.81,38.841,15.629,41.752,29.428,4.497,5.236,6.96
353,0.816,38.38,15.636,41.781,29.435,4.536,5.316,6.919
354,0.816,38.577,15.625,41.781,29.435,4.659,5.439,7.041
355,0.81,38.761,15.671,41.79,29.442,4.619,5.318,7.042
356,0.823,38.811,15.649,41.791,29.442,4.659,5.439,7.042
357,0.804,38.179,15.543,41.752,29.442,4.579,5.318,6.96
358,0.82,38.431,15.671,41.752,29.432,4.496,5.317,6.919
359,0.813,38.597,15.559,41.8,29.445,4.699,5.48,7.163
360,0.803,38.397,15.554,41.771,29.439,4.579,5.318,7.043
361,0.8,38.223,15.604,41.79,29.445,4.659,5.398,7.082
362,0.784,38.432,15.601,41.771,29.435,4.619,5.318,7.083
363,0.784,38.597,15.601,41.781,29.428,4.537,5.236,7.002
364,0.806,38.023,15.597,41.8,29.452,4.699,5.479,7.123
365,0.794,37.979,15.687,41.771,29.435,4.579,5.4,7.083
366,0.787,38.209,15.621,41.8,29.449,4.618,5.399,7.083
367,0.79,38.345,15.636,41.771,29.435,4.619,5.318,7.083
368,0.79,37.915,15.687,41.752,29.428,4.537,5.317,7.002
369,0.793,38.045,15.633,41.8,29.445,4.699,5.358,7.123
370,0.806,38.248,15.625,41.8,29.442,4.579,5.399,7.165
371,0.813,38.394,15.574,41.781,29.442,4.659,5.318,6.962
372,0.81,37.695,15.605,41.771,29.439,4.619,5.317,7.0
373,0.807,37.851,15.613,41.752,29.435,4.537,5.236,7.001
374,0.826,38.102,15.621,41.8,29.449,4.659,5.397,7.041
375,0.82,38.201,15.664,41.781,29.442,4.619,5.358,7.164
376,0.82,37.549,15.609,41.752,29.435,4.537,5.277,7.002
377,0.817,37.763,15.628,41.742,29.435,4.577,5.276,6.96
378,0.803,37.977,15.648,41.742,29.435,4.578,5.316,6.96
379,0.813,38.123,15.59,41.761,29.442,4.578,5.358,7.082
380,0.79,37.414,15.652,41.761,29.442,4.7,5.358,7.083
381,0.793,37.618,15.601,41.742,29.432,4.498,5.114,6.961
382,0.8,37.812,15.621,41.742,29.435,4.618,5.315,7.041
383,0.787,37.91,15.566,41.752,29.432,4.619,5.317,7.082
384,0.787,37.336,15.601,41.752,29.442,4.578,5.317,7.042
385,0.793,37.579,15.621,41.771,29.439,4.618,5.317,7.082
386,0.774,37.745,15.531,41.723,29.428,4.497,5.236,6.961
387,0.767,37.88,15.589,41.761,29.438,4.577,5.316,7.0
388,0.78,37.316,15.574,41.761,29.435,4.659,5.358,7.123
389,0.793,37.569,15.644,41.771,29.438,4.66,5.358,7.043
390,0.806,37.773,15.5,41.771,29.438,4.66,5.399,7.123
391,0.794,37.842,15.612,41.742,29.428,4.538,5.277,7.043
392,0.797,37.028,15.613,41.752,29.438,4.577,5.316,7.001
393,0.781,37.269,15.656,41.781,29.449,4.7,5.439,7.204
394,0.793,37.483,15.609,41.742,29.446,4.66,5.237,7.165
395,0.797,37.552,15.648,41.78,29.442,4.619,5.397,7.124
396,0.787,36.948,15.547,41.733,29.439,4.578,5.318,7.002
397,0.81,37.192,15.639,41.742,29.428,4.496,5.276,6.919
398,0.813,37.405,15.66,41.771,29.449,4.74,5.438,7.163
399,0.8,37.465,15.637,41.762,29.435,4.579,5.359,7.002
400,0.794,36.88,15.578,41.761,29.442,4.659,5.358,7.001
401,0.784,37.105,15.585,41.742,29.439,4.66,5.317,7.001
402,0.777,37.299,15.585,41.752,29.435,4.497,5.276,6.879
403,0.787,37.368,15.659,41.771,29.445,4.699,5.479,7.04
404,0.767,36.774,15.652,41.771,29.442,4.66,5.4,7.001
405,0.774,36.989,15.621,41.752,29.449,4.66,5.318,6.879
406,0.761,37.173,15.601,41.761,29.435,4.579,5.317,7.04
407,0.761,37.376,15.539,41.742,29.435,4.537,5.276,6.96
408,0.78,36.784,15.643,41.761,29.445,4.659,5.276,6.96
409,0.771,36.979,15.629,41.752,29.445,4.619,5.398,6.96
410,0.79,37.154,15.492,41.752,29.432,4.578,5.236,6.838
411,0.784,36.858,15.557,41.742,29.442,4.659,5.316,6.918
412,0.787,36.548,15.554,41.733,29.435,4.538,5.236,6.959
413,0.793,36.814,15.616,41.752,29.435,4.659,5.316,6.919
414,0.793,36.951,15.586,41.761,29.442,4.66,5.358,7.0
415,0.797,36.616,15.663,41.723,29.425,4.579,5.236,6.797
416,0.777,36.555,15.637,41.761,29.435,4.618,5.275,6.836
417,0.787,36.795,15.597,41.733,29.442,4.659,5.357,6.958
418,0.79,36.96,15.663,41.732,29.435,4.66,5.358,6.96
419,0.793,36.406,15.582,41.752,29.442,4.66,5.399,6.878
420,0.764,36.467,15.562,41.723,29.428,4.579,5.236,6.837
421,0.77,36.727,15.62,41.732,29.435,4.578,5.235,6.918
422,0.774,36.835,15.609,41.752,29.442,4.7,5.479,7.0
423,0.764,36.433,15.628,41.752,29.439,4.701,5.318,6.879
424,0.764,36.592,15.59,41.752,29.445,4.66,5.398,6.959
425,0.751,36.785,15.648,41.723,29.435,4.579,5.318,6.878
426,0.757,36.931,15.59,41.732,29.435,4.578,5.276,6.837
427,0.754,36.175,15.562,41.732,29.445,4.74,5.438,7.08
428,0.761,36.369,15.663,41.732,29.442,4.579,5.359,7.002
429,0.764,36.572,15.633,41.742,29.442,4.659,5.317,6.96
430,0.751,36.67,15.551,41.742,29.442,4.66,5.317,6.838
431,0.767,36.22,15.612,41.723,29.435,4.579,5.358,6.796
432,0.774,36.436,15.593,41.761,29.452,4.74,5.48,7.08
433,0.777,36.659,15.601,41.742,29.439,4.579,5.278,6.88
434,0.777,36.786,15.57,41.742,29.449,4.659,5.316,6.918
435,0.754,36.241,15.648,41.733,29.442,4.619,5.236,6.837
436,0.783,36.513,15.52,41.732,29.435,4.578,5.194,6.755
437,0.78,36.717,15.577,41.771,29.452,4.7,5.438,6.998
438,0.793,36.806,15.64,41.723,29.435,4.66,5.318,6.919
439,0.78,36.068,15.578,41.752,29.445,4.579,5.317,6.878
440,0.764,36.32,15.632,41.781,29.435,4.618,5.317,6.837
441,0.764,36.505,15.633,41.723,29.432,4.619,5.236,6.837
442,0.774,36.65,15.64,41.761,29.452,4.741,5.479,6.958
443,0.758,36.23,15.656,41.742,29.442,4.661,5.359,6.919
444,0.761,36.475,15.637,41.742,29.449,4.66,5.358,6.878
445,0.744,36.64,15.683,41.723,29.442,4.579,5.317,6.918
446,0.744,36.709,15.598,41.713,29.428,4.618,5.195,6.796
447,0.757,36.125,15.624,41.771,29.445,4.741,5.275,6.958
448,0.748,36.32,15.648,41.723,29.439,4.661,5.357,6.96
449,0.76,36.505,15.621,41.723,29.438,4.579,5.155,6.716
450,0.757,36.574,15.543,41.713,29.442,4.618,5.315,6.876
451,0.751,36.172,15.546,41.713,29.439,4.537,5.236,6.877
452,0.774,36.455,15.585,41.742,29.438,4.699,5.316,6.959
453,0.774,36.64,15.632,41.733,29.432,4.62,5.358,7.0
454,0.767,36.661,15.609,41.704,29.425,4.497,5.195,6.96
455,0.767,36.211,15.679,41.723,29.431,4.577,5.275,6.96
456,0.754,36.436,15.547,41.723,29.435,4.618,5.316,7.041
457,0.774,36.611,15.6,41.723,29.442,4.619,5.317,6.92
458,0.767,36.575,15.624,41.732,29.445,4.659,5.317,7.041
459,0.757,36.219,15.586,41.704,29.425,4.619,5.317,6.92
460,0.764,36.475,15.597,41.703,29.424,4.578,5.236,6.919
461,0.751,36.66,15.554,41.713,29.438,4.659,5.397,7.081
462,0.751,36.527,15.585,41.732,29.438,4.66,5.358,7.042
463,0.751,36.219,15.562,41.732,29.442,4.66,5.358,7.082
464,0.735,36.427,15.601,41.685,29.432,4.66,5.317,7.042
465,0.747,36.592,15.632,41.722,29.428,4.579,5.317,6.96
466,0.738,36.411,15.601,41.742,29.442,4.74,5.52,7.204
467,0.738,36.371,15.64,41.733,29.439,4.661,5.36,7.125
468,0.747,36.601,15.66,41.732,29.442,4.66,5.399,7.124
469,0.734,36.728,15.672,41.723,29.432,4.579,5.318,7.124
470,0.754,36.163,15.602,41.723,29.431,4.578,5.317,7.043
471,0.764,36.244,15.632,41.742,29.445,4.74,5.439,7.204
472,0.761,36.456,15.656,41.713,29.439,4.701,5.359,7.165
473,0.764,36.611,15.574,41.732,29.445,4.66,5.317,7.165
474,0.764,36.335,15.597,41.713,29.439,4.579,5.317,7.124
475,0.761,36.486,15.617,41.703,29.425,4.578,5.276,7.043
476,0.78,36.736,15.535,41.761,29.449,4.74,5.398,7.082
477,0.777,36.854,15.604,41.723,29.439,4.661,5.358,7.083
478,0.784,36.309,15.609,41.723,29.442,4.66,5.317,7.042
479,0.764,36.504,15.632,41.713,29.442,4.579,5.317,7.082
480,0.761,36.708,15.586,41.78,29.428,4.578,5.236,7.042
481,0.774,36.873,15.628,41.752,29.442,4.659,5.316,7.082
482,0.758,36.338,15.617,41.723,29.442,4.66,5.358,7.083
483,0.748,36.553,15.609,41.723,29.442,4.579,5.236,6.961
484,0.741,36.756,15.605,41.723,29.442,4.578,5.316,7.041
485,0.734,36.864,15.621,41.694,29.428,4.537,5.317,7.001
486,0.757,36.472,15.589,41.742,29.442,4.659,5.317,7.082
487,0.741,36.688,15.593,41.713,29.435,4.7,5.358,7.164
488,0.741,36.882,15.578,41.713,29.438,4.579,5.236,6.921
489,0.747,36.999,15.609,41.713,29.432,4.659,5.316,7.081
490,0.751,36.377,15.636,41.703,29.428,4.497,5.276,7.002
491,0.764,36.658,15.617,41.732,29.438,4.658,5.276,7.082
492,0.761,36.834,15.66,41.732,29.435,4.619,5.316,7.123
493,0.757,36.912,15.617,41.704,29.432,4.497,5.236,6.921
494,0.764,36.635,15.64,41.713,29.431,4.618,5.316,7.0
495,0.754,36.872,15.676,41.684,29.435,4.578,5.317,6.96
496,0.774,37.105,15.563,41.722,29.438,4.618,5.276,7.0
497,0.777,37.165,15.605,41.723,29.438,4.619,5.398,7.082
498,0.761,36.58,15.601,41.684,29.428,4.537,5.196,6.961
499,0.761,36.824,15.593,41.694,29.435,4.618,5.275,7.0
500,0.744,37.008,15.593,41.761,29.432,4.619,5.276,7.041
501,0.757,37.116,15.578,41.723,29.435,4.7,5.357,7.001
502,0.757,36.647,15.609,41.723,29.438,4.66,5.399,7.001
503,0.748,36.863,15.57,41.694,29.425,4.497,5.196,6.919
504,0.747,37.066,15.589,41.703,29.431,4.577,5.356,6.919
505,0.741,37.116,15.636,41.703,29.438,4.659,5.48,7.041
506,0.744,36.704,15.57,41.723,29.432,4.66,5.4,6.96
507,0.744,36.969,15.624,41.723,29.435,4.66,5.318,6.96
508,0.738,37.115,15.601,41.704,29.438,4.66,5.317,6.96
509,0.76,37.155,15.64,41.694,29.421,4.579,5.236,6.878
510,0.774,36.781,15.516,41.742,29.445,4.74,5.438,6.959
511,0.777,36.96,15.573,41.723,29.442,4.661,5.399,6.919
512,0.803,37.153,15.624,41.713,29.442,4.66,5.399,6.959
513,0.82,37.136,15.601,41.723,29.435,4.66,5.277,6.96
514,0.836,36.829,15.605,41.694,29.435,4.579,5.316,6.96
515,0.878,37.104,15.632,41.732,29.438,4.659,5.358,6.96
516,0.876,37.232,15.59,41.713,29.442,4.7,5.358,6.96
517,0.866,36.907,15.616,41.694,29.435,4.579,5.236,6.797
518,0.872,36.75,15.648,41.684,29.438,4.7,5.357,6.877
519,0.846,36.95,15.656,41.703,29.435,4.579,5.317,6.877
520,0.853,37.153,15.605,41.703,29.445,4.659,5.317,6.959
521,0.853,36.887,15.624,41.703,29.442,4.66,5.317,7.0
522,0.853,36.932,15.625,41.684,29.435,4.579,5.236,6.879
523,0.856,37.163,15.547,41.703,29.438,4.618,5.275,6.877
524,0.843,37.299,15.604,41.723,29.445,4.7,5.398,7.0
525,0.853,36.754,15.597,41.694,29.442,4.66,5.318,6.96
526,0.859,36.902,15.601,41.713,29.439,4.7,5.398,7.0
527,0.84,37.095,15.574,41.684,29.432,4.62,5.236,6.919
528,0.852,37.222,15.589,41.703,29.435,4.659,5.275,6.959
529,0.862,36.849,15.644,41.703,29.442,4.7,5.438,7.163
530,0.888,37.018,15.543,41.703,29.435,4.66,5.318,6.962
531,0.899,37.231,15.643,41.723,29.442,4.741,5.398,7.041
532,0.879,37.338,15.609,41.694,29.445,4.701,5.318,7.082
533,0.882,36.591,15.636,41.675,29.428,4.538,5.195,7.083
534,0.889,36.824,15.636,41.722,29.449,4.781,5.478,7.286
535,0.872,37.027,15.648,41.704,29.439,4.661,5.318,7.207
536,0.872,37.135,15.59,41.723,29.435,4.619,5.358,7.206
537,0.863,36.81,15.597,41.684,29.442,4.578,5.358,7.125
538,0.849,37.027,15.64,41.674,29.435,4.537,5.236,7.165
539,0.862,37.26,15.617,41.722,29.452,4.74,5.316,7.328
540,0.84,37.339,15.644,41.713,29.439,4.701,5.358,7.289
541,0.836,36.668,15.621,41.703,29.438,4.538,5.358,7.288
542,0.852,36.901,15.613,41.684,29.442,4.659,5.399,7.288
543,0.843,37.086,15.644,41.684,29.428,4.538,5.277,7.288
544,0.872,37.241,15.617,41.722,29.449,4.659,5.316,7.41
545,0.856,36.811,15.613,41.704,29.442,4.619,5.439,7.452
546,0.859,37.075,15.687,41.684,29.442,4.578,5.318,7.29
547,0.862,37.27,15.598,41.713,29.439,4.659,5.358,7.369
548,0.856,37.339,15.601,41.694,29.432,4.579,5.317,7.452
549,0.892,36.793,15.585,41.713,29.442,4.618,5.439,7.493
550,0.879,36.989,15.609,41.713,29.439,4.659,5.399,7.534
551,0.869,37.202,15.535,41.713,29.432,4.497,5.277,7.291
552,0.889,37.271,15.569,41.703,29.435,4.536,5.398,7.491
553,0.885,36.802,15.601,41.694,29.432,4.537,5.358,7.494
554,0.911,37.094,15.589,41.703,29.442,4.618,5.399,7.534
555,0.899,37.26,15.609,41.694,29.445,4.659,5.399,7.575
556,0.899,37.31,15.543,41.684,29.425,4.497,5.318,7.372
557,0.892,36.697,15.616,41.684,29.445,4.618,5.358,7.533
558,0.889,36.892,15.671,41.684,29.435,4.578,5.399,7.616
559,0.889,37.086,15.66,41.694,29.449,4.659,5.44,7.617
560,0.879,37.136,15.641,41.732,29.442,4.7,5.399,7.617
561,0.876,36.791,15.594,41.675,29.432,4.498,5.318,7.617
562,0.872,37.037,15.64,41.674,29.435,4.618,5.317,7.535
563,0.866,37.221,15.633,41.694,29.449,4.659,5.48,7.779
564,0.859,37.281,15.594,41.703,29.435,4.619,5.4,7.618
565,0.862,36.677,15.609,41.694,29.449,4.7,5.399,7.657
566,0.84,36.844,15.574,41.684,29.439,4.62,5.358,7.617
567,0.859,37.037,15.624,41.694,29.438,4.619,5.358,7.617
568,0.843,36.838,15.593,41.713,29.452,4.741,5.48,7.82
569,0.853,36.673,15.64,41.684,29.435,4.661,5.4,7.619
570,0.843,36.911,15.609,41.684,29.445,4.66,5.44,7.617
571,0.83,37.019,15.601,41.674,29.442,4.538,5.318,7.617
572,0.82,36.684,15.667,41.665,29.432,4.537,5.358,7.495
573,0.823,36.71,15.625,41.722,29.449,4.699,5.521,7.656
574,0.813,36.892,15.601,41.684,29.435,4.62,5.36,7.658
575,0.826,37.066,15.617,41.694,29.442,4.659,5.358,7.658
576,0.81,36.618,15.605,41.684,29.435,4.619,5.317,7.536
577,0.813,36.738,15.593,41.674,29.435,4.497,5.317,7.453
578,0.81,36.998,15.617,41.722,29.449,4.74,5.48,7.656
579,0.784,37.106,15.57,41.684,29.439,4.62,5.4,7.576
580,0.774,36.445,15.566,41.694,29.435,4.619,5.358,7.535
581,0.758,36.611,15.601,41.684,29.438,4.537,5.358,7.575
582,0.751,36.805,15.648,41.665,29.428,4.496,5.317,7.535
583,0.744,36.97,15.648,41.713,29.445,4.658,5.439,7.616
584,0.728,36.425,15.633,41.684,29.439,4.579,5.399,7.576
585,0.734,36.649,15.668,41.674,29.438,4.618,5.318,7.494
586,0.734,36.824,15.602,41.684,29.438,4.578,5.439,7.534
587,0.718,36.951,15.628,41.684,29.428,4.578,5.359,7.575
588,0.731,36.405,15.644,41.694,29.442,4.618,5.399,7.616
589,0.725,36.592,15.679,41.703,29.445,4.578,5.48,7.576
590,0.721,36.805,15.524,41.675,29.439,4.537,5.278,7.454
591,0.715,36.922,15.569,41.665,29.438,4.618,5.357,7.493
592,0.718,36.3,15.558,41.665,29.432,4.578,5.317,7.494
593,0.741,36.6,15.616,41.703,29.431,4.537,5.398,7.534
594,0.731,36.795,15.636,41.684,29.449,4.618,5.48,7.616
595,0.721,36.893,15.586,41.665,29.432,4.497,5.278,7.413
596,0.728,36.184,15.624,41.674,29.431,4.536,5.357,7.493
597,0.715,36.426,15.566,41.674,29.431,4.577,5.399,7.494
598,0.728,36.63,15.628,41.684,29.435,4.659,5.399,7.453
599,0.725,36.738,15.625,41.674,29.445,4.579,5.521,7.574
600,0.711,36.269,15.547,41.665,29.425,4.496,5.36,7.372
601,0.708,36.533,15.565,41.674,29.438,4.618,5.358,7.452
602,0.692,36.708,15.546,41.655,29.442,4.619,5.439,7.534
603,0.695,36.806,15.593,41.684,29.439,4.578,5.44,7.494
604,0.701,36.145,15.601,41.703,29.442,4.659,5.481,7.494
605,0.682,36.34,15.613,41.655,29.439,4.538,5.44,7.453
606,0.685,36.534,15.605,41.674,29.435,4.537,5.399,7.493
607,0.688,36.631,15.609,41.703,29.449,4.74,5.643,7.575
608,0.682,36.134,15.675,41.684,29.439,4.579,5.483,7.494
609,0.685,36.359,15.668,41.694,29.445,4.74,5.44,7.534
610,0.688,36.534,15.567,41.684,29.449,4.62,5.399,7.412
611,0.685,36.593,15.593,41.674,29.435,4.537,5.399,7.371
612,0.701,36.133,15.624,41.722,29.452,4.781,5.562,7.533
613,0.701,36.359,15.629,41.684,29.439,4.58,5.482,7.494
614,0.701,36.534,15.621,41.694,29.438,4.618,5.44,7.453
615,0.701,36.727,15.625,41.675,29.438,4.619,5.521,7.371
616,0.698,36.039,15.547,41.655,29.435,4.415,5.4,7.411
617,0.721,36.329,15.585,41.703,29.449,4.657,5.48,7.411
618,0.708,36.466,15.648,41.684,29.439,4.619,5.481,7.371
619,0.708,36.286,15.637,41.674,29.438,4.578,5.4,7.248
620,0.692,36.034,15.535,41.684,29.438,4.578,5.358,7.369
621,0.695,36.243,15.624,41.674,29.432,4.578,5.399,7.289
622,0.705,36.456,15.574,41.674,29.438,4.659,5.44,7.41
623,0.692,36.074,15.628,41.684,29.438,4.66,5.481,7.371
624,0.685,36.023,15.582,41.665,29.435,4.538,5.318,7.208
625,0.685,36.243,15.605,41.674,29.438,4.618,5.439,7.328
626,0.675,36.37,15.609,41.674,29.438,4.537,5.359,7.451
627,0.678,35.863,15.55,41.674,29.435,4.577,5.439,7.371
628,0.672,35.925,15.616,41.694,29.445,4.618,5.44,7.37
629,0.672,36.117,15.593,41.646,29.428,4.497,5.359,7.289
630,0.682,36.272,15.507,41.684,29.438,4.577,5.399,7.247
631,0.682,35.67,15.584,41.665,29.435,4.618,5.48,7.369
632,0.688,35.827,15.624,41.684,29.438,4.659,5.4,7.33
633,0.698,36.059,15.625,41.684,29.438,4.66,5.399,7.37
634,0.692,36.166,15.664,41.646,29.432,4.579,5.318,7.208
635,0.695,35.621,15.645,41.655,29.435,4.618,5.317,7.206
636,0.708,35.826,15.617,41.674,29.442,4.659,5.561,7.369
637,0.708,36.049,15.586,41.674,29.442,4.538,5.401,7.289
638,0.715,36.195,15.64,41.684,29.449,4.659,5.48,7.369
639,0.698,35.612,15.64,41.665,29.439,4.619,5.4,7.289
640,0.705,35.874,15.535,41.655,29.428,4.497,5.318,7.288
641,0.698,36.107,15.612,41.722,29.452,4.74,5.561,7.369
642,0.695,36.215,15.574,41.684,29.446,4.62,5.482,7.289
643,0.708,35.41,15.628,41.694,29.439,4.659,5.44,7.247
644,0.708,35.613,15.582,41.665,29.438,4.66,5.399,7.288
645,0.711,35.836,15.605,41.655,29.432,4.538,5.318,7.247
646,0.737,35.972,15.636,41.703,29.449,4.699,5.52,7.288
647,0.754,35.571,15.59,41.684,29.439,4.579,5.441,7.288
648,0.777,35.816,15.601,41.684,29.445,4.618,5.44,7.207
649,0.823,36.011,15.609,41.665,29.435,4.578,5.399,7.247
650,0.882,36.089,15.578,41.646,29.432,4.578,5.358,7.166
651,0.954,35.438,15.597,41.693,29.452,4.659,5.48,7.206
652,1.006,35.652,15.589,41.675,29.439,4.619,5.522,7.287
653,1.075,35.855,15.632,41.665,29.432,4.537,5.441,7.207
654,1.154,35.944,15.59,41.674,29.435,4.618,5.481,7.165
655,1.21,35.427,15.624,41.655,29.432,4.537,5.4,7.165
656,1.26,35.719,15.601,41.693,29.442,4.618,5.48,7.165
657,1.267,35.885,15.589,41.665,29.439,4.659,5.562,7.124
658,1.293,35.944,15.644,41.655,29.435,4.579,5.401,7.124
659,1.309,35.293,15.609,41.655,29.428,4.537,5.521,7.083
660,1.277,35.545,15.562,41.655,29.428,4.496,5.522,7.083
661,1.247,35.749,15.612,41.665,29.438,4.658,5.685,7.164
662,1.195,35.789,15.648,41.684,29.449,4.619,5.768,7.165
663,1.162,35.301,15.64,41.646,29.435,4.497,5.565,7.043
664,1.129,35.535,15.586,41.664,29.435,4.577,5.726,7.123
665,1.09,35.71,15.574,41.655,29.438,4.578,5.768,7.205
666,1.04,35.693,15.616,41.665,29.435,4.618,5.85,7.287
667,1.017,35.348,15.574,41.684,29.442,4.659,5.851,7.166
668,1.017,35.555,15.569,41.636,29.432,4.497,5.81,7.165
669,0.997,35.72,15.601,41.664,29.438,4.536,5.891,7.124
670,0.958,35.597,15.558,41.674,29.445,4.699,5.933,7.287
671,0.941,35.289,15.562,41.655,29.439,4.62,5.892,7.247
672,0.948,35.535,15.608,41.684,29.445,4.741,5.973,7.247
673,0.951,35.662,15.648,41.655,29.435,4.62,5.933,7.125
674,0.977,35.242,15.586,41.645,29.432,4.578,5.852,7.124
675,0.977,35.142,15.655,41.693,29.449,4.781,6.135,7.368
676,0.942,35.361,15.574,41.665,29.439,4.661,5.976,7.167
677,0.876,35.546,15.593,41.684,29.438,4.7,6.015,7.206
678,0.781,35.058,15.609,41.655,29.438,4.579,5.893,7.206
679,0.663,35.149,15.613,41.665,29.428,4.578,5.973,7.206
680,0.617,35.409,15.558,41.693,29.452,4.74,6.137,7.409
681,0.505,35.537,15.577,41.675,29.428,4.701,5.976,7.493
682,0.397,35.058,15.64,41.674,29.438,4.742,6.055,7.534
683,0.279,35.217,15.594,41.655,29.432,4.742,6.015,7.616
684,0.161,35.439,15.617,41.636,29.421,4.579,5.893,7.779
685,0.049,35.614,15.668,41.684,29.438,4.659,6.014,7.944
686,-0.112,34.829,15.586,41.684,29.442,4.782,5.974,8.148
687,-0.237,35.032,15.616,41.665,29.442,4.742,5.933,8.191
688,-0.368,35.255,15.628,41.646,29.435,4.742,6.014,8.354
689,-0.461,35.353,15.648,41.636,29.432,4.701,6.056,8.478
690,-0.504,34.97,15.539,41.703,29.442,4.823,6.097,8.642
691,-0.576,35.168,15.518,41.665,29.435,4.743,6.056,8.765
692,-0.606,35.371,15.553,41.646,29.432,4.661,5.934,8.604
693,-0.652,35.498,15.526,41.645,29.435,4.741,6.014,8.765
694,-0.665,34.789,15.581,41.645,29.425,4.701,5.974,8.97
695,-0.633,35.06,15.624,41.655,29.435,4.782,6.055,8.931
696,-0.597,35.245,15.539,41.655,29.435,4.864,6.137,9.012
697,-0.534,35.362,15.585,41.645,29.428,4.662,5.935,8.932
698,-0.475,34.894,15.655,41.636,29.428,4.7,6.014,9.093
699,-0.436,35.138,15.629,41.645,29.435,4.823,6.015,9.258
700,-0.377,35.371,15.523,41.664,29.438,4.783,6.015,9.341
701,-0.321,35.488,15.585,41.665,29.442,4.783,6.096,9.504
702,-0.275,34.684,15.581,41.617,29.428,4.702,6.016,9.587
703,-0.186,34.954,15.593,41.645,29.428,4.701,5.934,9.751
704,-0.108,35.148,15.601,41.684,29.442,4.945,6.096,10.077
705,-0.022,35.237,15.652,41.665,29.442,4.825,6.097,10.162
706,0.066,34.758,15.574,41.674,29.439,4.783,6.016,10.407
707,0.116,35.003,15.616,41.665,29.438,4.742,6.015,10.531
708,0.198,35.159,15.675,41.646,29.438,4.742,6.015,10.655
709,0.303,35.294,15.668,41.684,29.452,4.905,6.137,10.859
710,0.382,34.644,15.613,41.655,29.442,4.744,6.016,10.942
711,0.451,34.906,15.585,41.665,29.442,4.701,5.974,11.024
712,0.494,35.081,15.624,41.655,29.442,4.823,6.015,11.188
713,0.543,35.15,15.609,41.645,29.432,4.743,5.974,11.108
714,0.596,34.623,15.624,41.684,29.449,4.742,6.015,11.351
715,0.622,34.838,15.621,41.665,29.435,4.823,6.056,11.354
716,0.652,35.023,15.535,41.655,29.435,4.702,5.893,11.232
717,0.688,35.082,15.561,41.645,29.435,4.701,5.973,11.271
718,0.714,34.603,15.62,41.636,29.435,4.701,5.974,11.312
719,0.737,34.867,15.578,41.655,29.438,4.823,6.015,11.313
720,0.744,35.042,15.546,41.655,29.438,4.824,6.056,11.394
721,0.754,34.977,15.55,41.626,29.432,4.661,5.893,11.273
722,0.767,34.583,15.573,41.645,29.431,4.741,5.892,11.272
723,0.77,34.79,15.64,41.664,29.438,4.742,6.014,11.312
724,0.777,35.003,15.64,41.655,29.435,4.742,5.974,11.232
725,0.774,34.708,15.656,41.665,29.445,4.823,6.015,11.231
726,0.774,34.532,15.563,41.626,29.432,4.743,5.893,11.19
727,0.777,34.789,15.612,41.655,29.438,4.701,5.892,11.108
728,0.784,34.965,15.578,41.655,29.442,4.823,6.095,11.23
729,0.777,34.544,15.632,41.636,29.439,4.783,5.935,11.149
730,0.806,34.617,15.566,41.664,29.438,4.783,6.014,11.067
731,0.794,34.79,15.577,41.646,29.432,4.742,5.852,11.026
732,0.816,34.955,15.573,41.645,29.431,4.62,5.932,10.903
733,0.82,34.448,15.593,41.664,29.452,4.863,6.055,11.065
734,0.826,34.539,15.617,41.636,29.442,4.743,5.934,11.026
735,0.839,34.77,15.648,41.664,29.435,4.742,5.933,10.985
736,0.833,34.897,15.57,41.646,29.435,4.742,5.852,10.781
737,0.839,34.295,15.608,41.636,29.432,4.701,5.81,10.738
738,0.862,34.547,15.624,41.684,29.445,4.823,5.932,10.779
739,0.849,34.732,15.648,41.655,29.442,4.702,5.892,10.698
740,0.856,34.887,15.543,41.655,29.439,4.701,5.811,10.575
741,0.846,34.294,15.546,41.626,29.438,4.701,5.81,10.574
742,0.853,34.509,15.589,41.616,29.428,4.66,5.81,10.451
743,0.856,34.77,15.605,41.655,29.449,4.782,5.85,10.491
744,0.853,34.878,15.589,41.655,29.442,4.742,5.891,10.41
745,0.866,34.17,15.605,41.636,29.435,4.701,5.811,10.247
746,0.872,34.402,15.578,41.655,29.438,4.742,5.85,10.245
747,0.853,34.616,15.577,41.636,29.425,4.701,5.81,10.123
748,0.879,34.771,15.612,41.655,29.442,4.701,5.81,10.122
749,0.863,34.341,15.664,41.626,29.435,4.782,5.81,10.081
750,0.895,34.596,15.602,41.626,29.425,4.661,5.728,9.878
751,0.882,34.79,15.57,41.626,29.438,4.741,5.768,9.794
752,0.898,34.898,15.64,41.616,29.432,4.701,5.809,9.793
753,0.918,34.179,15.582,41.664,29.435,4.742,5.769,9.712
754,0.909,34.421,15.628,41.655,29.438,4.742,5.85,9.589
755,0.915,34.616,15.633,41.617,29.425,4.579,5.648,9.466
756,0.922,34.714,15.57,41.626,29.435,4.74,5.686,9.343
757,0.925,34.149,15.593,41.626,29.435,4.701,5.727,9.342
758,0.931,34.412,15.574,41.626,29.435,4.66,5.768,9.342
759,0.925,34.596,15.659,41.645,29.449,4.822,5.768,9.301
760,0.912,34.646,15.52,41.617,29.428,4.661,5.647,9.097
761,0.925,34.206,15.596,41.607,29.438,4.7,5.686,9.014
762,0.922,34.441,15.624,41.635,29.445,4.742,5.809,9.094
763,0.918,34.635,15.578,41.645,29.439,4.701,5.728,8.932
764,0.915,34.704,15.609,41.664,29.442,4.782,5.85,9.012
765,0.899,34.206,15.562,41.607,29.439,4.661,5.688,8.85
766,0.908,34.489,15.585,41.635,29.435,4.7,5.605,8.767
767,0.912,34.703,15.581,41.684,29.449,4.863,5.848,8.807
768,0.902,34.724,15.589,41.646,29.442,4.743,5.729,8.686
769,0.925,34.206,15.64,41.664,29.442,4.783,5.687,8.644
770,0.925,34.441,15.519,41.646,29.435,4.661,5.646,8.521
771,0.931,34.616,15.549,41.645,29.435,4.619,5.523,8.439
772,0.941,34.733,15.608,41.674,29.452,4.781,5.807,8.519
773,0.941,34.178,15.585,41.636,29.439,4.742,5.688,8.439
774,0.945,34.431,15.62,41.655,29.442,4.742,5.646,8.397
775,0.945,34.587,15.621,41.636,29.435,4.783,5.686,8.356
776,0.951,34.378,15.593,41.616,29.435,4.661,5.564,8.153
777,0.974,34.28,15.679,41.655,29.449,4.741,5.726,8.273
778,0.964,34.47,15.629,41.636,29.439,4.742,5.687,8.233
779,0.961,34.635,15.679,41.636,29.438,4.661,5.727,8.07
780,0.951,34.158,15.559,41.645,29.435,4.7,5.687,8.109
781,0.945,34.124,15.589,41.626,29.428,4.66,5.646,8.109
782,0.971,34.402,15.613,41.664,29.438,4.741,5.686,8.069
783,0.955,34.548,15.578,41.636,29.432,4.701,5.687,8.109
784,0.954,34.138,15.601,41.636,29.428,4.62,5.564,7.947
785,0.948,34.229,15.597,41.626,29.431,4.659,5.645,8.026
786,0.941,34.46,15.589,41.626,29.431,4.66,5.564,7.946
787,0.958,34.626,15.616,41.645,29.438,4.66,5.645,8.067
788,0.954,34.014,15.586,41.645,29.438,4.7,5.686,7.946
789,0.961,34.19,15.659,41.626,29.421,4.579,5.483,7.823
790,0.971,34.393,15.539,41.616,29.435,4.618,5.522,7.903
791,0.968,34.539,15.604,41.616,29.432,4.659,5.603,7.863
792,0.984,33.955,15.546,41.635,29.435,4.7,5.645,7.944
793,0.987,34.16,15.577,41.655,29.445,4.66,5.605,7.945
794,0.994,34.383,15.589,41.607,29.432,4.619,5.442,7.823
795,1.013,34.539,15.562,41.616,29.435,4.659,5.643,7.822
796,1.014,33.965,15.569,41.616,29.432,4.66,5.686,7.944
797,1.01,34.228,15.589,41.635,29.442,4.7,5.564,7.905
798,1.017,34.47,15.624,41.645,29.435,4.742,5.645,7.823
799,1.007,34.54,15.644,41.588,29.425,4.579,5.564,7.741
800,1.007,33.965,15.574,41.626,29.435,4.659,5.482,7.781
801,1.004,34.208,15.624,41.616,29.438,4.7,5.644,7.944
802,1.007,34.431,15.66,41.626,29.442,4.701,5.645,7.864
803,1.007,34.568,15.613,41.626,29.439,4.701,5.686,7.863
804,0.991,33.86,15.648,41.626,29.442,4.579,5.646,7.782
805,1.004,34.159,15.582,41.607,29.435,4.7,5.605,7.7
806,1.01,34.364,15.628,41.655,29.449,4.782,5.767,7.943
807,1.01,34.471,15.605,41.636,29.446,4.783,5.606,7.823
808,1.014,33.974,15.558,41.645,29.442,4.702,5.604,7.781
809,1.03,34.208,15.589,41.617,29.435,4.66,5.604,7.659
810,1.03,34.383,15.55,41.597,29.432,4.579,5.482,7.658
811,1.056,34.519,15.616,41.645,29.452,4.781,5.766,7.78
812,1.053,33.888,15.566,41.636,29.435,4.661,5.687,7.74
813,1.056,34.14,15.632,41.626,29.442,4.66,5.605,7.618
814,1.053,34.344,15.59,41.616,29.442,4.66,5.564,7.657
815,1.06,34.404,15.613,41.607,29.435,4.619,5.523,7.536
816,1.079,33.944,15.609,41.645,29.442,4.7,5.603,7.534
817,1.079,34.17,15.585,41.607,29.442,4.701,5.645,7.534
818,1.086,34.364,15.585,41.626,29.439,4.62,5.483,7.453
819,1.07,34.404,15.628,41.597,29.435,4.659,5.522,7.534
820,1.069,33.973,15.539,41.597,29.435,4.579,5.522,7.575
821,1.089,34.247,15.589,41.626,29.438,4.74,5.603,7.616
822,1.073,34.413,15.554,41.626,29.442,4.742,5.645,7.657
823,1.069,34.616,15.647,41.607,29.428,4.579,5.442,7.536
824,1.069,33.86,15.625,41.616,29.435,4.659,5.521,7.616
825,1.079,34.092,15.613,41.616,29.438,4.7,5.522,7.617
826,1.099,34.277,15.64,41.597,29.442,4.701,5.563,7.698
827,1.093,34.231,15.594,41.626,29.442,4.701,5.563,7.74
828,1.076,34.077,15.613,41.578,29.428,4.538,5.441,7.699
829,1.092,34.296,15.652,41.616,29.428,4.659,5.521,7.658
830,1.099,34.442,15.574,41.607,29.428,4.66,5.522,7.698
831,1.112,33.964,15.577,41.616,29.438,4.66,5.563,7.78
832,1.132,33.902,15.558,41.616,29.442,4.66,5.563,7.822
833,1.129,34.112,15.562,41.588,29.421,4.538,5.482,7.7
834,1.132,34.277,15.589,41.578,29.435,4.618,5.481,7.699
835,1.132,33.847,15.585,41.597,29.438,4.7,5.562,7.861
836,1.142,33.92,15.62,41.606,29.438,4.62,5.523,7.741
837,1.148,34.179,15.558,41.616,29.438,4.741,5.563,7.699
838,1.142,34.278,15.581,41.588,29.432,4.62,5.441,7.699
839,1.148,33.828,15.616,41.597,29.438,4.619,5.399,7.658
840,1.145,34.006,15.523,41.606,29.442,4.7,5.643,7.861
841,1.148,34.238,15.585,41.616,29.439,4.742,5.523,7.66
842,1.145,34.393,15.589,41.616,29.445,4.701,5.563,7.658
843,1.158,33.743,15.585,41.568,29.428,4.66,5.482,7.658
844,1.165,33.976,15.597,41.587,29.431,4.579,5.481,7.576
845,1.158,34.189,15.585,41.587,29.445,4.781,5.522,7.698
846,1.152,34.335,15.636,41.606,29.439,4.661,5.563,7.658
847,1.161,33.809,15.578,41.607,29.442,4.7,5.523,7.658
848,1.158,34.005,15.605,41.597,29.432,4.62,5.441,7.536
849,1.181,34.238,15.683,41.597,29.431,4.537,5.44,7.494
850,1.194,34.345,15.629,41.616,29.449,4.74,5.562,7.656
851,1.178,33.646,15.621,41.607,29.446,4.701,5.523,7.495
852,1.194,33.889,15.625,41.626,29.439,4.701,5.522,7.494
853,1.178,34.073,15.617,41.588,29.435,4.66,5.441,7.453
854,1.194,34.19,15.593,41.587,29.435,4.619,5.44,7.33
855,1.207,33.722,15.632,41.616,29.452,4.781,5.684,7.532
856,1.22,33.957,15.605,41.597,29.442,4.661,5.524,7.453
857,1.221,34.16,15.531,41.606,29.449,4.7,5.563,7.452
858,1.221,34.258,15.6,41.597,29.439,4.701,5.523,7.33
859,1.208,33.703,15.566,41.606,29.438,4.62,5.441,7.289
860,1.204,33.985,15.593,41.655,29.449,4.781,5.684,7.451
861,1.22,34.161,15.566,41.607,29.432,4.661,5.524,7.371
862,1.221,34.258,15.585,41.626,29.442,4.7,5.522,7.33
863,1.214,33.77,15.585,41.607,29.435,4.66,5.482,7.289
864,1.204,34.024,15.566,41.607,29.428,4.579,5.44,7.247
865,1.22,34.228,15.632,41.626,29.452,4.862,5.603,7.369
866,1.221,34.297,15.617,41.607,29.435,4.702,5.523,7.289
867,1.211,33.751,15.586,41.626,29.438,4.66,5.522,7.247
868,1.214,34.005,15.597,41.607,29.438,4.66,5.522,7.206
869,1.224,34.17,15.601,41.597,29.432,4.619,5.441,7.206
870,1.237,34.268,15.621,41.616,29.442,4.7,5.562,7.206
871,1.224,33.751,15.609,41.635,29.435,4.66,5.523,7.206
872,1.234,34.014,15.57,41.616,29.442,4.66,5.4,7.084
873,1.234,34.18,15.624,41.616,29.439,4.66,5.521,7.123
874,1.234,34.134,15.562,41.588,29.435,4.579,5.441,7.083
875,1.247,33.779,15.636,41.626,29.445,4.659,5.481,7.123
876,1.237,33.986,15.629,41.616,29.445,4.7,5.522,7.124
877,1.247,34.17,15.59,41.588,29.435,4.538,5.4,6.961
878,1.253,34.057,15.64,41.606,29.438,4.577,5.44,7.041
879,1.231,33.787,15.633,41.587,29.435,4.537,5.481,6.96
880,1.243,34.053,15.625,41.606,29.438,4.659,5.522,7.082
881,1.221,34.219,15.59,41.626,29.435,4.66,5.482,7.164
882,1.227,33.923,15.542,41.597,29.438,4.579,5.359,6.962
883,1.211,33.853,15.569,41.597,29.438,4.659,5.48,7.041
884,1.198,34.083,15.569,41.597,29.428,4.579,5.481,6.96
885,1.207,34.277,15.589,41.597,29.435,4.7,5.562,7.041
886,1.201,34.25,15.558,41.606,29.438,4.742,5.604,7.204
887,1.194,34.355,15.577,41.587,29.425,4.539,5.36,7.003
888,1.207,34.596,15.585,41.616,29.431,4.577,5.521,7.041
889,1.201,34.723,15.577,41.597,29.435,4.659,5.522,7.123
890,1.22,33.698,15.593,41.606,29.438,4.619,5.482,7.124
891,1.208,33.832,15.613,41.616,29.438,4.7,5.562,7.124
892,1.214,34.025,15.597,41.568,29.432,4.579,5.441,7.124
893,1.221,34.19,15.644,41.616,29.431,4.659,5.481,7.043
894,1.217,33.904,15.594,41.607,29.438,4.741,5.562,7.204
895,1.214,34.112,15.609,41.616,29.445,4.661,5.563,7.165
896,1.208,34.344,15.601,41.607,29.445,4.741,5.563,7.165
897,1.204,34.433,15.566,41.568,29.432,4.62,5.441,7.084
898,1.207,34.002,15.605,41.587,29.425,4.659,5.399,7.083
899,1.194,34.228,15.621,41.616,29.442,4.741,5.562,7.245
900,1.185,34.441,15.55,41.607,29.432,4.62,5.441,7.166
901,1.175,34.578,15.593,41.635,29.438,4.7,5.562,7.206
902,1.155,34.157,15.589,41.597,29.438,4.66,5.482,7.206
903,1.161,34.431,15.624,41.587,29.438,4.66,5.359,7.125
904,1.161,34.664,15.601,41.654,29.452,4.741,5.602,7.327
905,1.145,34.752,15.617,41.626,29.435,4.661,5.442,7.248
906,1.132,34.427,15.582,41.626,29.438,4.7,5.562,7.206
907,1.119,34.673,15.585,41.607,29.438,4.62,5.482,7.206
908,1.112,34.848,15.577,41.607,29.435,4.578,5.481,7.206
909,1.128,34.975,15.601,41.645,29.449,4.74,5.522,7.247
910,1.125,34.564,15.546,41.607,29.439,4.661,5.522,7.247
911,1.122,34.819,15.483,41.616,29.438,4.619,5.482,7.166
912,1.109,35.003,15.572,41.616,29.432,4.619,5.44,7.206
913,1.109,35.091,15.566,41.597,29.435,4.578,5.399,7.165
914,1.112,34.996,15.593,41.616,29.445,4.618,5.521,7.206
915,1.102,35.216,15.617,41.616,29.442,4.659,5.522,7.206
916,1.099,35.391,15.605,41.588,29.435,4.497,5.36,7.043
917,1.093,35.479,15.601,41.606,29.438,4.536,5.521,7.204
918,1.083,35.144,15.628,41.578,29.432,4.618,5.441,7.165
919,1.073,35.39,15.656,41.597,29.442,4.659,5.562,7.246
920,1.053,35.584,15.605,41.606,29.442,4.7,5.441,7.247
921,1.04,35.625,15.542,41.578,29.432,4.498,5.359,7.084
922,1.033,35.491,15.6,41.587,29.431,4.577,5.439,7.164
923,1.004,35.729,15.574,41.587,29.435,4.578,5.481,7.206
924,1.004,35.933,15.585,41.606,29.438,4.618,5.481,7.165
925,1.004,35.973,15.624,41.607,29.449,4.7,5.481,7.287
926,0.991,35.705,15.554,41.587,29.428,4.498,5.4,7.166
927,0.984,35.952,15.597,41.597,29.435,4.577,5.399,7.165
928,0.974,36.117,15.585,41.587,29.442,4.578,5.521,7.287
929,0.974,36.292,15.659,41.597,29.439,4.7,5.563,7.207
930,0.977,36.217,15.586,41.606,29.445,4.701,5.523,7.247
931,0.968,36.408,15.527,41.578,29.432,4.579,5.4,7.084
932,0.964,36.582,15.553,41.587,29.431,4.578,5.399,7.123
933,0.948,36.546,15.565,41.597,29.445,4.578,5.521,7.165
934,0.958,36.488,15.558,41.606,29.445,4.618,5.522,7.084
935,0.941,36.727,15.585,41.607,29.442,4.7,5.522,7.123
936,0.935,36.835,15.554,41.568,29.428,4.498,5.36,7.083
937,0.941,36.721,15.554,41.606,29.438,4.577,5.358,7.002
938,0.932,36.777,15.581,41.597,29.438,4.659,5.48,7.082
939,0.909,37.008,15.616,41.606,29.435,4.579,5.44,7.042
940,0.905,37.135,15.613,41.597,29.445,4.7,5.481,7.042
941,0.895,37.031,15.562,41.559,29.428,4.579,5.359,7.042
942,0.889,37.192,15.651,41.587,29.438,4.659,5.399,7.042
943,0.882,37.424,15.629,41.606,29.449,4.66,5.521,7.204
944,0.872,37.551,15.597,41.607,29.439,4.66,5.482,7.084
945,0.879,37.255,15.617,41.616,29.445,4.66,5.44,7.164
946,0.856,37.406,15.617,41.568,29.435,4.579,5.481,7.165
947,0.862,37.647,15.605,41.587,29.435,4.578,5.318,7.124
948,0.856,37.755,15.589,41.616,29.445,4.74,5.52,7.287
949,0.859,37.698,15.62,41.607,29.442,4.661,5.441,7.166
950,0.859,37.918,15.582,41.626,29.449,4.7,5.44,7.165
951,0.846,38.074,15.601,41.578,29.432,4.579,5.359,7.124
952,0.853,38.21,15.613,41.606,29.438,4.618,5.317,7.124
953,0.853,37.799,15.617,41.607,29.449,4.741,5.561,7.327
954,0.856,38.025,15.57,41.597,29.442,4.62,5.482,7.207
955,0.866,38.238,15.612,41.616,29.439,4.578,5.44,7.206
956,0.856,38.298,15.539,41.588,29.438,4.659,5.399,7.125
957,0.833,38.164,15.581,41.587,29.438,4.579,5.358,7.043
958,0.849,38.45,15.593,41.626,29.452,4.74,5.521,7.204
959,0.836,38.616,15.593,41.607,29.449,4.661,5.4,7.125
960,0.843,38.695,15.562,41.597,29.442,4.66,5.399,7.165
961,0.83,38.389,15.577,41.587,29.442,4.579,5.399,7.165
962,0.823,38.596,15.55,41.587,29.439,4.618,5.318,7.043
963,0.833,38.848,15.62,41.626,29.456,4.741,5.48,7.123
964,0.81,38.908,15.554,41.607,29.446,4.661,5.44,7.083
965,0.8,38.688,15.624,41.597,29.442,4.619,5.399,7.083
966,0.8,38.906,15.629,41.597,29.442,4.619,5.358,7.083
967,0.794,39.091,15.609,41.597,29.432,4.578,5.277,7.042
968,0.8,39.188,15.636,41.654,29.442,4.659,5.438,7.123
969,0.797,38.969,15.609,41.597,29.445,4.66,5.359,7.124
970,0.803,39.206,15.648,41.606,29.445,4.66,5.358,7.002
971,0.8,39.381,15.586,41.597,29.435,4.66,5.358,7.082
972,0.81,39.402,15.609,41.578,29.435,4.538,5.317,7.002
973,0.813,39.192,15.589,41.625,29.449,4.659,5.358,7.001
974,0.807,39.372,15.601,41.597,29.439,4.579,5.399,7.123
975,0.807,39.556,15.601,41.587,29.435,4.496,5.236,7.043
976,0.813,39.577,15.535,41.587,29.442,4.577,5.357,7.042
977,0.803,39.328,15.569,41.568,29.432,4.537,5.317,7.042
978,0.826,39.574,15.597,41.587,29.438,4.659,5.358,7.042
979,0.794,39.721,15.617,41.597,29.442,4.66,5.358,7.164
980,0.787,39.895,15.586,41.587,29.435,4.538,5.317,6.962
981,0.79,39.513,15.585,41.587,29.435,4.537,5.236,7.041
982,0.78,39.73,15.601,41.578,29.435,4.537,5.397,7.123
983,0.784,39.895,15.574,41.597,29.445,4.577,5.399,7.205
984,0.78,39.82,15.577,41.606,29.442,4.659,5.44,7.206
985,0.777,39.666,15.534,41.578,29.425,4.457,5.318,7.125
986,0.784,39.894,15.604,41.597,29.438,4.577,5.317,7.165
987,0.767,40.04,15.605,41.587,29.435,4.578,5.398,7.287
988,0.777,39.831,15.562,41.606,29.442,4.578,5.399,7.288
989,0.784,39.819,15.628,41.587,29.445,4.618,5.399,7.329
990,0.78,40.001,15.59,41.568,29.435,4.578,5.358,7.207
991,0.793,40.147,15.601,41.577,29.438,4.578,5.358,7.206
992,0.78,39.88,15.621,41.597,29.445,4.659,5.439,7.369
993,0.79,39.992,15.621,41.606,29.439,4.66,5.359,7.33
994,0.8,40.214,15.632,41.607,29.449,4.66,5.399,7.37
995,0.787,40.283,15.586,41.578,29.442,4.66,5.358,7.289
996,0.797,39.824,15.648,41.578,29.439,4.619,5.317,7.166
997,0.797,40.001,15.609,41.606,29.449,4.659,5.48,7.45
998,0.794,40.195,15.585,41.587,29.442,4.619,5.4,7.29
999,0.784,40.321,15.593,41.606,29.442,4.659,5.399,7.369
1000,0.767,39.795,15.581,41.568,29.435,4.579,5.358,7.33
1001,0.77,40.01,15.499,41.635,29.432,4.537,5.236,7.207
1002,0.78,40.233,15.522,41.626,29.452,4.74,5.479,7.369
1003,0.774,40.322,15.549,41.597,29.442,4.62,5.4,7.289
1004,0.774,39.92,15.546,41.606,29.439,4.659,5.399,7.247
1005,0.774,40.108,15.585,41.607,29.438,4.66,5.358,7.247
1006,0.767,40.301,15.605,41.578,29.435,4.579,5.277,7.166
1007,0.787,40.457,15.613,41.635,29.442,4.659,5.357,7.287
1008,0.777,39.873,15.609,41.616,29.449,4.579,5.317,7.207
1009,0.78,40.098,15.632,41.597,29.439,4.578,5.317,7.084
1010,0.784,40.272,15.535,41.606,29.438,4.659,5.358,7.123
1011,0.784,40.351,15.522,41.578,29.435,4.497,5.358,7.124
1012,0.806,39.949,15.581,41.606,29.438,4.618,5.317,7.124
1013,0.797,40.137,15.636,41.607,29.445,4.619,5.398,7.165
1014,0.8,40.33,15.594,41.568,29.432,4.497,5.318,7.002
1015,0.797,40.39,15.624,41.577,29.438,4.618,5.276,7.123
1016,0.787,39.796,15.574,41.568,29.435,4.497,5.357,7.083
1017,0.8,40.078,15.601,41.587,29.442,4.495,5.399,7.083
1018,0.803,40.234,15.613,41.597,29.449,4.658,5.44,7.123
1019,0.8,40.283,15.648,41.568,29.435,4.457,5.277,7.083
1020,0.794,39.929,15.57,41.587,29.425,4.577,5.316,7.123
1021,0.787,40.175,15.573,41.587,29.442,4.618,5.358,7.165
1022,0.784,40.35,15.624,41.587,29.442,4.659,5.399,7.124
1023,0.79,40.4,15.566,41.606,29.439,4.619,5.399,7.327
1024,0.767,39.844,15.569,41.559,29.428,4.578,5.318,7.207
1025,0.787,40.116,15.558,41.577,29.438,4.537,5.236,7.287
1026,0.777,40.263,15.604,41.606,29.442,4.699,5.479,7.491
1027,0.767,40.312,15.57,41.616,29.439,4.62,5.481,7.371
1028,0.777,39.91,15.562,41.607,29.442,4.659,5.4,7.37
1029,0.78,40.079,15.577,41.587,29.435,4.619,5.399,7.33
1030,0.787,40.253,15.64,41.587,29.432,4.537,5.358,7.289
1031,0.793,40.351,15.57,41.654,29.445,4.699,5.48,7.532
1032,0.803,39.757,15.573,41.597,29.442,4.62,5.4,7.453
1033,0.807,39.981,15.577,41.597,29.445,4.659,5.44,7.452
1034,0.803,40.118,15.609,41.578,29.439,4.579,5.359,7.452
1035,0.81,39.966,15.632,41.578,29.432,4.496,5.317,7.33
1036,0.816,39.677,15.547,41.616,29.456,4.74,5.52,7.532
1037,0.823,39.885,15.581,41.607,29.442,4.62,5.441,7.494
1038,0.826,40.05,15.585,41.597,29.449,4.578,5.399,7.453
1039,0.807,39.802,15.62,41.568,29.442,4.578,5.399,7.574
1040,0.79,39.742,15.554,41.577,29.435,4.496,5.358,7.413
1041,0.816,39.991,15.585,41.625,29.452,4.74,5.561,7.655
1042,0.803,40.108,15.624,41.588,29.435,4.701,5.441,7.617
1043,0.803,39.534,15.625,41.587,29.438,4.62,5.481,7.617
1044,0.79,39.528,15.511,41.597,29.442,4.619,5.4,7.535
1045,0.79,39.749,15.557,41.578,29.432,4.619,5.358,7.575
1046,0.81,39.914,15.632,41.606,29.449,4.7,5.48,7.738
1047,0.797,39.475,15.617,41.683,29.442,4.62,5.4,7.699
1048,0.79,39.643,15.523,41.607,29.442,4.659,5.44,7.658
1049,0.797,39.836,15.592,41.587,29.439,4.66,5.44,7.658
1050,0.794,39.944,15.57,41.568,29.438,4.579,5.399,7.617
1051,0.81,39.235,15.608,41.606,29.449,4.7,5.48,7.739
1052,0.803,39.382,15.585,41.578,29.435,4.579,5.481,7.659
1053,0.826,39.594,15.55,41.587,29.438,4.618,5.44,7.617
1054,0.813,39.73,15.581,41.626,29.442,4.619,5.399,7.698
1055,0.807,39.291,15.523,41.568,29.435,4.537,5.358,7.577
1056,0.829,39.555,15.663,41.606,29.449,4.659,5.48,7.616
1057,0.82,39.74,15.578,41.597,29.449,4.579,5.44,7.698
1058,0.833,39.857,15.589,41.587,29.442,4.578,5.44,7.618
1059,0.81,39.11,15.605,41.568,29.439,4.618,5.359,7.576
1060,0.803,39.323,15.605,41.558,29.432,4.537,5.399,7.575
1061,0.82,39.555,15.617,41.692,29.445,4.659,5.44,7.616
1062,0.81,39.634,15.562,41.588,29.439,4.66,5.44,7.617
1063,0.803,39.117,15.628,41.568,29.442,4.497,5.399,7.535
1064,0.8,39.313,15.601,41.568,29.435,4.658,5.399,7.534
1065,0.8,39.526,15.566,41.558,29.435,4.538,5.358,7.453
1066,0.81,39.634,15.601,41.587,29.442,4.618,5.439,7.574
1067,0.797,38.858,15.589,41.587,29.449,4.659,5.44,7.616
1068,0.803,39.081,15.62,41.568,29.432,4.538,5.318,7.454
1069,0.79,39.265,15.64,41.577,29.438,4.659,5.358,7.493
1070,0.806,39.324,15.609,41.568,29.438,4.538,5.358,7.453
1071,0.816,38.98,15.578,41.597,29.438,4.618,5.399,7.534
1072,0.81,39.197,15.55,41.587,29.438,4.578,5.48,7.575
1073,0.813,39.372,15.585,41.568,29.435,4.578,5.318,7.332
1074,0.813,39.441,15.534,41.587,29.428,4.537,5.398,7.492
1075,0.803,38.847,15.538,41.558,29.431,4.496,5.358,7.412
1076,0.826,39.119,15.565,41.587,29.442,4.658,5.399,7.452
1077,0.823,39.275,15.554,41.578,29.442,4.619,5.44,7.452
1078,0.833,39.325,15.585,41.587,29.435,4.537,5.318,7.29
1079,0.826,38.702,15.601,41.568,29.442,4.577,5.317,7.369
1080,0.804,38.897,15.562,41.568,29.435,4.578,5.317,7.37
1081,0.826,39.129,15.593,41.587,29.445,4.618,5.398,7.37
1082,0.813,39.141,15.628,41.578,29.442,4.619,5.44,7.452
1083,0.803,38.69,15.597,41.558,29.428,4.497,5.318,7.208
1084,0.794,38.897,15.601,41.577,29.442,4.577,5.358,7.409
1085,0.787,39.033,15.574,41.578,29.439,4.496,5.399,7.289
1086,0.806,38.948,15.628,41.568,29.442,4.618,5.521,7.369
1087,0.8,38.554,15.621,41.587,29.439,4.659,5.482,7.411
1088,0.787,38.742,15.574,41.568,29.428,4.538,5.359,7.208
1089,0.803,38.916,15.655,41.568,29.438,4.618,5.399,7.247
1090,0.803,38.631,15.617,41.558,29.438,4.537,5.48,7.328
1091,0.813,38.532,15.566,41.587,29.438,4.618,5.44,7.37
1092,0.82,38.751,15.608,41.587,29.442,4.659,5.399,7.289
1093,0.813,38.878,15.578,41.549,29.432,4.538,5.399,7.207
1094,0.82,38.199,15.609,41.577,29.438,4.618,5.399,7.247
1095,0.813,38.201,15.55,41.597,29.445,4.659,5.521,7.41
1096,0.826,38.412,15.608,41.568,29.442,4.66,5.441,7.249
1097,0.823,38.578,15.601,41.568,29.442,4.579,5.481,7.288
1098,0.83,38.109,15.542,41.539,29.435,4.496,5.4,7.207
1099,0.817,38.268,15.628,41.558,29.442,4.577,5.399,7.206
1100,0.8,38.471,15.551,41.577,29.439,4.7,5.562,7.328
1101,0.8,38.626,15.55,41.568,29.449,4.579,5.482,7.289
1102,0.797,37.947,15.589,41.587,29.442,4.659,5.481,7.288
1103,0.784,38.084,15.554,41.587,29.439,4.619,5.4,7.247
1104,0.784,38.315,15.565,41.568,29.435,4.578,5.399,7.247
1105,0.797,38.471,15.562,41.597,29.456,4.74,5.643,7.288
1106,0.777,37.888,15.605,41.568,29.449,4.579,5.483,7.166
1107,0.79,38.102,15.593,41.587,29.449,4.578,5.44,7.084
1108,0.78,38.306,15.605,41.587,29.446,4.618,5.44,7.123
1109,0.787,38.413,15.663,41.558,29.442,4.578,5.359,7.083
1110,0.803,37.715,15.617,41.606,29.459,4.659,5.521,7.205
1111,0.8,37.918,15.613,41.597,29.446,4.619,5.441,7.125
1112,0.8,38.132,15.625,41.578,29.442,4.659,5.44,7.083
1113,0.8,38.22,15.597,41.568,29.435,4.619,5.399,7.042
1114,0.803,37.578,15.597,41.558,29.435,4.537,5.399,7.042
1115,0.823,37.869,15.593,41.606,29.445,4.659,5.399,7.042
1116,0.813,38.006,15.617,41.568,29.449,4.66,5.48,7.123
1117,0.81,38.113,15.535,41.568,29.435,4.497,5.4,6.921
1118,0.807,37.549,15.577,41.558,29.438,4.618,5.358,7.0
1119,0.787,37.763,15.636,41.549,29.435,4.578,5.399,7.041
1120,0.81,37.986,15.574,41.596,29.442,4.578,5.358,7.082
1121,0.803,38.075,15.609,41.568,29.442,4.618,5.439,7.164
1122,0.794,37.414,15.66,41.568,29.435,4.537,5.399,7.002
1123,0.787,37.647,15.582,41.577,29.442,4.659,5.48,7.123
1124,0.777,37.832,15.601,41.549,29.435,4.538,5.44,7.043
1125,0.787,37.929,15.581,41.587,29.438,4.618,5.44,7.164
1126,0.79,37.384,15.589,41.578,29.442,4.659,5.521,7.165
1127,0.78,37.627,15.574,41.558,29.432,4.497,5.319,7.002
1128,0.78,37.803,15.534,41.577,29.438,4.618,5.439,7.123
1129,0.78,37.852,15.62,41.558,29.438,4.619,5.44,7.124
1130,0.78,37.22,15.558,41.568,29.449,4.7,5.44,7.124
1131,0.777,37.463,15.628,41.587,29.449,4.66,5.521,7.205
1132,0.767,37.619,15.554,41.549,29.435,4.497,5.319,7.043
1133,0.78,37.668,15.624,41.568,29.442,4.577,5.48,7.123
1134,0.777,37.218,15.625,41.558,29.449,4.659,5.522,7.287
1135,0.78,37.463,15.59,41.597,29.442,4.619,5.441,7.207
1136,0.787,37.628,15.624,41.578,29.442,4.659,5.562,7.206
1137,0.79,37.601,15.586,41.539,29.435,4.538,5.441,7.125
1138,0.787,37.026,15.593,41.558,29.438,4.618,5.44,7.124
1139,0.774,37.25,15.632,41.587,29.452,4.741,5.603,7.287
1140,0.777,37.406,15.554,41.568,29.449,4.62,5.482,7.166
1141,0.777,37.235,15.565,41.587,29.449,4.7,5.481,7.206
1142,0.751,37.032,15.484,41.568,29.442,4.62,5.4,7.206
1143,0.774,37.269,15.533,41.558,29.435,4.578,5.399,7.084
1144,0.764,37.492,15.55,41.616,29.459,4.659,5.562,7.245
1145,0.761,36.967,15.554,41.568,29.442,4.619,5.482,7.206
1146,0.774,36.962,15.616,41.587,29.456,4.659,5.4,7.287
1147,0.735,37.182,15.539,41.587,29.435,4.619,5.44,7.166
1148,0.76,37.328,15.581,41.568,29.435,4.497,5.359,7.124
1149,0.767,36.946,15.624,41.616,29.449,4.74,5.561,7.246
1150,0.77,37.038,15.597,41.568,29.449,4.62,5.441,7.206
1151,0.774,37.26,15.585,41.587,29.442,4.659,5.399,7.206
1152,0.774,37.387,15.534,41.558,29.449,4.579,5.399,7.125
1153,0.777,36.669,15.585,41.558,29.435,4.537,5.358,7.165
1154,0.79,36.892,15.574,41.606,29.452,4.659,5.399,7.246
1155,0.78,37.105,15.601,41.587,29.442,4.66,5.358,7.206
1156,0.787,37.222,15.632,41.568,29.442,4.579,5.358,7.125
1157,0.784,36.725,15.605,41.568,29.439,4.578,5.399,7.246
1158,0.777,36.911,15.601,41.549,29.432,4.578,5.358,7.166
1159,0.774,37.143,15.66,41.568,29.445,4.618,5.439,7.165
1160,0.767,37.27,15.637,41.587,29.445,4.578,5.481,7.246
1161,0.761,36.696,15.594,41.568,29.439,4.537,5.318,7.044
1162,0.754,36.901,15.628,41.577,29.438,4.618,5.358,7.123
1163,0.738,37.095,15.617,41.549,29.438,4.619,5.439,7.165
1164,0.757,37.241,15.554,41.673,29.442,4.659,5.399,7.206
1165,0.754,36.677,15.554,41.569,29.449,4.66,5.44,7.247
1166,0.751,36.901,15.608,41.568,29.435,4.538,5.237,7.125
1167,0.754,37.095,15.578,41.568,29.435,4.618,5.438,7.165
1168,0.738,37.174,15.566,41.568,29.438,4.537,5.399,7.206
1169,0.751,36.714,15.605,41.568,29.442,4.618,5.399,7.165
1170,0.764,36.95,15.617,41.587,29.449,4.659,5.44,7.206
1171,0.761,37.134,15.535,41.539,29.435,4.497,5.237,7.084
1172,0.761,37.222,15.565,41.568,29.435,4.618,5.316,7.083
1173,0.754,36.648,15.585,41.568,29.438,4.619,5.317,7.205
1174,0.774,36.911,15.554,41.577,29.442,4.578,5.439,7.206
1175,0.771,37.095,15.593,41.597,29.449,4.618,5.44,7.206
1176,0.77,37.145,15.574,41.53,29.432,4.578,5.359,7.084
1177,0.767,36.666,15.577,41.567,29.435,4.578,5.358,7.205
1178,0.77,36.901,15.573,41.577,29.452,4.659,5.521,7.247
1179,0.754,37.114,15.62,41.578,29.442,4.66,5.441,7.206
1180,0.757,37.174,15.605,41.587,29.445,4.66,5.481,7.206
1181,0.754,36.743,15.562,41.549,29.439,4.538,5.359,7.125
1182,0.738,37.007,15.585,41.568,29.435,4.537,5.317,7.043
1183,0.738,37.183,15.628,41.577,29.452,4.74,5.52,7.286
1184,0.734,37.232,15.597,41.578,29.449,4.579,5.4,7.166
1185,0.751,37.099,15.62,41.578,29.442,4.659,5.399,7.165
1186,0.735,37.289,15.636,41.568,29.439,4.579,5.358,7.124
1187,0.731,37.502,15.621,41.597,29.428,4.537,5.317,7.124
1188,0.734,37.667,15.601,41.606,29.452,4.659,5.561,7.327
1189,0.747,36.671,15.609,41.587,29.442,4.538,5.401,7.126
1190,0.747,36.892,15.624,41.587,29.449,4.659,5.48,7.205
1191,0.741,37.047,15.547,41.587,29.435,4.619,5.4,7.125
1192,0.747,37.087,15.569,41.558,29.435,4.497,5.318,7.043
1193,0.757,37.02,15.566,41.616,29.445,4.74,5.48,7.286
1194,0.748,37.212,15.554,41.588,29.445,4.539,5.4,7.125
1195,0.751,37.386,15.561,41.587,29.435,4.618,5.358,7.124
1196,0.757,36.947,15.605,41.549,29.435,4.659,5.358,7.043
1197,0.761,36.875,15.562,41.568,29.432,4.497,5.317,7.082
1198,0.774,37.133,15.585,41.616,29.456,4.658,5.439,7.205
1199,0.754,37.261,15.577,41.578,29.439,4.66,5.481,7.165
1200,0.751,36.984,15.64,41.578,29.438,4.579,5.4,7.124
1201,0.751,37.048,15.465,41.568,29.442,4.578,5.399,7.043
1202,0.741,37.269,15.549,41.568,29.435,4.496,5.318,7.164
1203,0.747,37.425,15.593,41.625,29.456,4.74,5.439,7.206
1204,0.747,36.909,15.589,41.568,29.439,4.62,5.44,7.125
1205,0.741,37.067,15.616,41.577,29.449,4.619,5.399,7.043
1206,0.731,37.279,15.601,41.578,29.432,4.619,5.399,7.082
1207,0.728,37.406,15.581,41.558,29.435,4.537,5.318,7.083
1208,0.744,36.976,15.605,41.597,29.449,4.659,5.398,7.205
1209,0.744,37.144,15.632,41.578,29.442,4.619,5.44,7.165
1210,0.744,37.347,15.609,41.578,29.435,4.578,5.359,7.084
1211,0.751,37.464,15.609,41.587,29.442,4.578,5.399,7.042
1212,0.748,36.986,15.609,41.549,29.435,4.578,5.358,7.001
1213,0.757,37.259,15.621,41.587,29.442,4.578,5.399,7.163
1214,0.761,37.435,15.574,41.597,29.439,4.659,5.44,7.165
1215,0.754,37.571,15.589,41.568,29.432,4.538,5.318,7.002
1216,0.748,36.92,15.538,41.568,29.442,4.537,5.317,7.001
1217,0.741,37.153,15.589,41.549,29.432,4.537,5.317,7.082
1218,0.76,37.395,15.554,41.587,29.449,4.577,5.439,7.123
1219,0.741,37.465,15.604,41.587,29.449,4.618,5.44,7.124
1220,0.744,37.063,15.566,41.558,29.432,4.497,5.318,6.961
1221,0.744,37.289,15.523,41.568,29.435,4.577,5.317,7.122
1222,0.738,37.483,15.538,41.539,29.438,4.537,5.398,7.083
1223,0.744,37.609,15.589,41.568,29.435,4.537,5.358,7.083
1224,0.734,37.16,15.554,41.597,29.432,4.659,5.358,7.123
1225,0.731,37.386,15.589,41.559,29.428,4.538,5.317,7.002
1226,0.728,37.57,15.632,41.577,29.431,4.537,5.317,7.041
1227,0.712,37.668,15.535,41.568,29.435,4.537,5.358,7.123
1228,0.724,37.113,15.569,41.587,29.438,4.577,5.439,7.043
1229,0.737,37.366,15.62,41.597,29.442,4.659,5.359,7.123
1230,0.741,37.484,15.629,41.549,29.435,4.497,5.317,7.083
1231,0.754,37.59,15.574,41.568,29.449,4.536,5.236,6.92
1232,0.764,37.179,15.577,41.587,29.442,4.577,5.438,7.163
1233,0.777,37.434,15.558,41.568,29.442,4.618,5.399,7.043
1234,0.8,37.609,15.581,41.597,29.445,4.659,5.358,7.042
1235,0.803,37.649,15.573,41.549,29.435,4.497,5.358,7.082
1236,0.829,37.16,15.609,41.549,29.438,4.536,5.358,6.961
1237,0.836,37.386,15.523,41.596,29.449,4.659,5.48,7.163
1238,0.839,37.58,15.565,41.578,29.446,4.66,5.4,7.043
1239,0.849,37.534,15.585,41.578,29.449,4.579,5.399,7.042
1240,0.836,37.265,15.605,41.549,29.439,4.578,5.358,7.001
1241,0.836,37.502,15.515,41.568,29.438,4.496,5.317,6.879
1242,0.817,37.686,15.495,41.587,29.452,4.74,5.48,7.121
1243,0.833,37.631,15.522,41.578,29.442,4.579,5.481,7.083
1244,0.833,37.352,15.592,41.578,29.442,4.618,5.481,7.042
1245,0.836,37.541,15.562,41.539,29.432,4.537,5.359,6.96
1246,0.843,37.715,15.573,41.548,29.442,4.577,5.317,6.96
1247,0.846,37.429,15.581,41.587,29.456,4.659,5.48,7.122
1248,0.853,37.34,15.562,41.587,29.449,4.579,5.44,7.083
1249,0.869,37.57,15.675,41.587,29.446,4.618,5.44,7.083
1250,0.853,37.668,15.602,41.568,29.449,4.578,5.399,6.961
1251,0.879,37.304,15.578,41.568,29.439,4.578,5.318,6.96
1252,0.892,37.397,15.573,41.606,29.456,4.659,5.52,7.163
1253,0.886,37.58,15.62,41.578,29.439,4.579,5.36,7.002
1254,0.889,37.754,15.625,41.587,29.442,4.578,5.399,7.041
1255,0.859,37.123,15.554,41.578,29.442,4.578,5.358,7.042
1256,0.866,37.26,15.616,41.549,29.439,4.537,5.317,6.92
1257,0.859,37.483,15.55,41.606,29.452,4.699,5.48,7.163
1258,0.856,37.619,15.589,41.568,29.442,4.62,5.359,7.043
1259,0.836,37.189,15.659,41.597,29.449,4.619,5.399,7.042
1260,0.823,37.376,15.602,41.578,29.439,4.619,5.358,7.042
1261,0.823,37.58,15.574,41.578,29.438,4.537,5.277,6.96
1262,0.826,37.754,15.577,41.606,29.456,4.659,5.438,7.122
1263,0.82,37.133,15.609,41.568,29.446,4.579,5.399,7.043
1264,0.833,37.366,15.562,41.587,29.442,4.659,5.318,7.001
1265,0.833,37.551,15.558,41.578,29.442,4.619,5.358,7.041
1266,0.833,37.658,15.585,41.568,29.432,4.537,5.317,7.001
1267,0.852,37.16,15.57,41.606,29.449,4.577,5.398,7.123
1268,0.856,37.366,15.554,41.578,29.449,4.618,5.399,7.043
1269,0.859,37.56,15.593,41.568,29.439,4.537,5.236,7.001
1270,0.869,37.658,15.578,41.568,29.442,4.577,5.316,7.123
1271,0.866,37.132,15.566,41.568,29.439,4.537,5.358,7.002
1272,0.882,37.404,15.534,41.597,29.438,4.537,5.399,7.001
1273,0.872,37.57,15.643,41.587,29.449,4.618,5.399,7.001
1274,0.872,37.668,15.574,41.568,29.442,4.497,5.318,6.919
1275,0.869,37.113,15.605,41.568,29.442,4.536,5.317,7.0
1276,0.885,37.347,15.617,41.549,29.435,4.577,5.317,6.919
1277,0.908,37.579,15.589,41.606,29.449,4.496,5.358,7.0
1278,0.902,37.639,15.605,41.568,29.446,4.577,5.317,6.96
1279,0.879,37.064,15.613,41.568,29.432,4.537,5.276,6.919
1280,0.866,37.279,15.613,41.568,29.442,4.537,5.316,7.0
1281,0.866,37.454,15.57,41.558,29.435,4.537,5.317,6.879
1282,0.879,37.561,15.538,41.577,29.445,4.577,5.358,6.959
1283,0.866,37.092,15.565,41.578,29.445,4.537,5.399,6.96
1284,0.862,37.327,15.503,41.568,29.439,4.496,5.318,6.878
1285,0.859,37.493,15.541,41.568,29.445,4.495,5.358,6.959
1286,0.856,37.562,15.651,41.568,29.432,4.495,5.317,7.0
1287,0.856,37.064,15.539,41.587,29.431,4.577,5.439,7.041
1288,0.846,37.289,15.604,41.606,29.445,4.659,5.399,7.042
1289,0.856,37.454,15.574,41.54,29.435,4.457,5.318,6.798
1290,0.856,37.484,15.628,41.568,29.438,4.495,5.358,6.795
1291,0.833,37.044,15.523,41.568,29.442,4.536,5.439,6.999
1292,0.833,37.288,15.526,41.587,29.439,4.577,5.399,6.96
1293,0.83,37.464,15.55,41.578,29.449,4.578,5.399,6.919
1294,0.817,37.35,15.522,41.568,29.432,4.456,5.277,6.919
1295,0.813,36.956,15.585,41.568,29.435,4.495,5.357,6.959
1296,0.813,37.182,15.57,41.568,29.445,4.536,5.399,6.96
1297,0.81,37.357,15.573,41.568,29.439,4.577,5.358,6.919
1298,0.81,37.186,15.601,41.577,29.438,4.578,5.399,7.0
1299,0.797,37.06,15.648,41.53,29.432,4.496,5.318,6.919
1300,0.781,37.308,15.609,41.567,29.438,4.536,5.317,6.878
1301,0.774,37.483,15.617,41.577,29.449,4.537,5.48,7.0
1302,0.751,36.948,15.593,41.578,29.442,4.537,5.4,6.919
1303,0.741,36.971,15.593,41.597,29.449,4.577,5.48,7.041
1304,0.715,37.173,15.538,41.568,29.439,4.578,5.359,6.92
1305,0.718,37.338,15.589,41.568,29.435,4.456,5.317,6.837
1306,0.721,36.774,15.632,41.577,29.452,4.698,5.48,7.04
1307,0.715,36.893,15.515,41.587,29.442,4.457,5.318,6.96
1308,0.721,37.114,15.577,41.587,29.442,4.577,5.398,6.919
1309,0.711,37.222,15.562,41.587,29.439,4.496,5.358,6.837
1310,0.724,36.763,15.589,41.558,29.435,4.455,5.317,6.796
1311,0.724,36.998,15.616,41.606,29.452,4.658,5.48,6.917
1312,0.728,37.173,15.535,41.587,29.435,4.538,5.359,6.837
1313,0.725,37.347,15.589,41.597,29.442,4.618,5.317,6.877
1314,0.731,36.448,15.616,41.568,29.439,4.537,5.398,6.877
1315,0.725,36.64,15.566,41.549,29.428,4.537,5.277,6.837
1316,0.747,36.882,15.616,41.616,29.449,4.618,5.316,6.837
1317,0.734,37.009,15.554,41.597,29.435,4.578,5.439,6.796
1318,0.731,36.607,15.561,41.587,29.435,4.578,5.359,6.795
1319,0.712,36.833,15.597,41.578,29.435,4.537,5.317,6.755
1320,0.698,37.037,15.554,41.558,29.432,4.455,5.276,6.795
1321,0.701,37.173,15.569,41.597,29.449,4.577,5.398,6.836
1322,0.688,36.484,15.527,41.568,29.439,4.537,5.399,6.796
1323,0.701,36.736,15.604,41.577,29.438,4.577,5.358,6.714
1324,0.675,36.979,15.585,41.606,29.435,4.537,5.277,6.876
1325,0.669,37.01,15.581,41.568,29.435,4.537,5.276,6.755
1326,0.682,36.569,15.698,41.616,29.442,4.577,5.398,6.917
1327,0.682,36.795,15.622,41.664,29.442,4.578,5.358,6.878
1328,0.679,36.998,15.593,41.578,29.435,4.537,5.277,6.796
1329,0.678,37.058,15.628,41.578,29.435,4.537,5.357,6.917
1330,0.682,36.368,15.621,41.568,29.432,4.496,5.277,6.756
1331,0.692,36.668,15.586,41.606,29.445,4.577,5.357,6.876
1332,0.685,36.834,15.542,41.578,29.435,4.537,5.399,6.918
1333,0.698,36.912,15.55,41.597,29.438,4.496,5.277,6.756
1334,0.682,36.434,15.558,41.664,29.435,4.536,5.316,6.795
1335,0.679,36.678,15.538,41.559,29.432,4.496,5.236,6.795
1336,0.704,36.873,15.635,41.587,29.445,4.536,5.316,6.877
1337,0.685,36.922,15.558,41.654,29.449,4.659,5.398,6.837
1338,0.695,36.29,15.526,41.569,29.432,4.497,5.277,6.714
1339,0.682,36.523,15.624,41.587,29.435,4.618,5.316,6.835
1340,0.675,36.67,15.629,41.558,29.435,4.497,5.236,6.837
1341,0.691,36.767,15.593,41.587,29.442,4.577,5.275,6.877
1342,0.679,36.279,15.562,41.578,29.439,4.618,5.357,6.877
1343,0.669,36.514,15.562,41.558,29.435,4.456,5.195,6.837
1344,0.672,36.689,15.519,41.568,29.442,4.536,5.316,6.837
1345,0.665,36.777,15.549,41.558,29.439,4.496,5.276,6.877
1346,0.682,36.269,15.616,41.587,29.438,4.577,5.357,6.959
1347,0.675,36.514,15.48,41.587,29.445,4.659,5.358,7.082
1348,0.669,36.65,15.569,41.558,29.428,4.497,5.236,6.92
1349,0.665,36.345,15.636,41.577,29.435,4.536,5.275,6.919
1350,0.669,36.092,15.64,41.568,29.432,4.577,5.357,7.041
1351,0.682,36.339,15.656,41.587,29.431,4.537,5.317,7.001
1352,0.682,36.495,15.605,41.587,29.435,4.577,5.398,7.041
1353,0.669,36.036,15.628,41.539,29.425,4.496,5.318,7.082
1354,0.672,36.032,15.558,41.577,29.438,4.455,5.276,6.961
1355,0.675,36.272,15.593,41.587,29.445,4.577,5.438,7.163
1356,0.691,36.408,15.601,41.578,29.442,4.578,5.277,7.124
1357,0.695,36.036,15.503,41.616,29.449,4.618,5.438,7.205
1358,0.695,36.147,15.522,41.549,29.435,4.578,5.318,7.165
1359,0.692,36.378,15.549,41.568,29.435,4.456,5.317,7.165
1360,0.675,36.524,15.616,41.587,29.452,4.658,5.48,7.287
1361,0.678,35.787,15.586,41.587,29.442,4.66,5.278,7.166
1362,0.688,35.943,15.585,41.587,29.442,4.619,5.357,7.206
1363,0.672,36.156,15.558,41.568,29.435,4.578,5.317,7.165
1364,0.675,36.302,15.495,41.568,29.432,4.537,5.236,7.165
1365,0.695,35.843,15.573,41.606,29.449,4.659,5.438,7.368
1366,0.698,36.049,15.659,41.568,29.435,4.619,5.318,7.289
1367,0.714,36.262,15.535,41.597,29.435,4.578,5.358,7.288
1368,0.724,36.379,15.585,41.587,29.442,4.578,5.317,7.288
1369,0.744,35.642,15.574,41.549,29.439,4.496,5.276,7.288
1370,0.803,35.913,15.632,41.616,29.452,4.658,5.357,7.369
1371,0.836,36.098,15.597,41.588,29.442,4.579,5.358,7.411
1372,0.901,36.215,15.562,41.587,29.439,4.578,5.317,7.249
1373,0.947,35.688,15.612,41.578,29.438,4.537,5.276,7.328
1374,1.013,35.913,15.562,41.568,29.435,4.537,5.235,7.37
1375,1.098,36.155,15.601,41.616,29.449,4.659,5.357,7.452
1376,1.161,36.234,15.644,41.578,29.442,4.619,5.317,7.412
1377,1.204,35.564,15.492,41.587,29.442,4.537,5.276,7.289
1378,1.237,35.816,15.576,41.568,29.435,4.537,5.316,7.329
1379,1.253,36.001,15.593,41.549,29.435,4.496,5.276,7.329
1380,1.302,36.118,15.628,41.606,29.445,4.536,5.357,7.37
1381,1.29,35.601,15.543,41.587,29.439,4.577,5.317,7.452
1382,1.251,35.845,15.491,41.578,29.432,4.537,5.236,7.33
1383,1.198,36.03,15.522,41.587,29.445,4.537,5.316,7.451
1384,1.159,36.109,15.577,41.578,29.428,4.496,5.317,7.412
1385,1.145,35.572,15.546,41.587,29.442,4.577,5.358,7.452
1386,1.099,35.797,15.6,41.568,29.439,4.578,5.399,7.534
1387,1.066,35.972,15.554,41.568,29.438,4.496,5.236,7.412
1388,1.027,36.05,15.581,41.568,29.435,4.577,5.316,7.574
1389,1.023,35.466,15.597,41.558,29.432,4.496,5.358,7.494
1390,1.033,35.719,15.609,41.577,29.442,4.577,5.399,7.534
1391,0.985,35.923,15.617,41.587,29.445,4.578,5.399,7.616
1392,0.965,35.944,15.543,41.549,29.425,4.456,5.277,7.535
1393,0.951,35.475,15.577,41.577,29.435,4.617,5.316,7.534
1394,0.967,35.7,15.511,41.597,29.438,4.537,5.358,7.616
1395,0.974,35.913,15.573,41.578,29.442,4.577,5.358,7.657
1396,0.987,36.107,15.632,41.568,29.449,4.659,5.48,7.617
1397,0.958,35.438,15.574,41.568,29.425,4.457,5.197,7.535
1398,0.906,35.652,15.581,41.577,29.431,4.536,5.275,7.534
1399,0.817,35.798,15.609,41.568,29.438,4.577,5.398,7.738
1400,0.725,35.665,15.605,41.568,29.435,4.618,5.399,7.74
1401,0.637,35.443,15.597,41.587,29.438,4.659,5.318,7.903
1402,0.541,35.633,15.554,41.539,29.421,4.457,5.236,7.863
1403,0.44,35.836,15.597,41.577,29.435,4.577,5.316,7.944
1404,0.325,35.311,15.527,41.578,29.449,4.659,5.48,8.27
1405,0.223,35.238,15.53,41.587,29.439,4.538,5.4,8.355
1406,0.101,35.468,15.596,41.587,29.442,4.659,5.358,8.519
1407,-0.049,35.604,15.503,41.568,29.439,4.538,5.358,8.601
1408,-0.181,35.26,15.541,41.568,29.432,4.455,5.277,8.724
1409,-0.303,35.362,15.585,41.606,29.449,4.658,5.438,9.091
1410,-0.398,35.584,15.577,41.568,29.439,4.619,5.359,9.014
1411,-0.48,35.749,15.573,41.587,29.442,4.578,5.399,9.257
1412,-0.559,35.089,15.515,41.578,29.435,4.537,5.318,9.259
1413,-0.599,35.246,15.545,41.568,29.438,4.496,5.276,9.3
1414,-0.639,35.487,15.522,41.616,29.456,4.658,5.479,9.544
1415,-0.655,35.624,15.538,41.597,29.439,4.579,5.359,9.628
1416,-0.639,35.069,15.635,41.587,29.442,4.659,5.358,9.507
1417,-0.645,35.255,15.578,41.587,29.442,4.538,5.317,9.587
1418,-0.564,35.468,15.554,41.568,29.435,4.455,5.236,9.547
1419,-0.489,35.623,15.608,41.606,29.449,4.617,5.316,9.506
1420,-0.455,34.906,15.628,41.568,29.442,4.578,5.317,9.709
1421,-0.403,35.157,15.586,41.597,29.445,4.537,5.276,9.589
1422,-0.36,35.361,15.554,41.568,29.439,4.537,5.276,9.832
1423,-0.314,35.469,15.593,41.549,29.438,4.496,5.195,9.956
1424,-0.226,34.933,15.538,41.596,29.435,4.577,5.275,10.161
1425,-0.16,35.158,15.542,41.587,29.438,4.578,5.357,10.488
1426,-0.075,35.371,15.671,41.587,29.432,4.496,5.317,10.654
1427,-0.009,35.469,15.539,41.587,29.438,4.536,5.276,11.062
1428,0.076,34.876,15.561,41.568,29.438,4.537,5.316,11.27
1429,0.185,35.138,15.608,41.597,29.435,4.537,5.236,11.556
1430,0.254,35.313,15.632,41.587,29.442,4.618,5.397,11.803
1431,0.336,35.43,15.574,41.568,29.432,4.497,5.236,11.928
1432,0.412,34.846,15.53,41.568,29.435,4.455,5.235,12.091
1433,0.464,35.09,15.569,41.577,29.435,4.536,5.357,12.215
1434,0.527,35.322,15.46,41.597,29.442,4.496,5.317,12.379
1435,0.563,35.401,15.561,41.587,29.445,4.577,5.398,12.421
1436,0.606,34.875,15.573,41.549,29.428,4.415,5.277,12.3
1437,0.639,35.128,15.476,41.568,29.435,4.495,5.316,12.421
1438,0.662,35.332,15.514,41.568,29.438,4.536,5.398,12.544
1439,0.691,35.421,15.612,41.587,29.435,4.577,5.358,12.545
1440,0.708,34.779,15.628,41.587,29.442,4.578,5.48,12.545
1441,0.715,34.993,15.574,41.654,29.432,4.496,5.237,12.22
1442,0.721,35.216,15.589,41.569,29.435,4.495,5.275,12.216
1443,0.741,35.257,15.648,41.568,29.438,4.658,5.479,12.298
1444,0.754,34.787,15.594,41.568,29.435,4.538,5.359,12.136
1445,0.767,35.032,15.589,41.577,29.442,4.577,5.399,12.175
1446,0.748,35.168,15.593,41.568,29.432,4.496,5.318,12.135
1447,0.751,35.16,15.593,41.568,29.435,4.495,5.276,12.053
1448,0.751,34.777,15.589,41.616,29.442,4.658,5.52,12.215
1449,0.77,35.012,15.577,41.588,29.435,4.579,5.319,12.054
1450,0.777,35.187,15.612,41.606,29.442,4.618,5.398,12.011
1451,0.78,35.007,15.55,41.587,29.439,4.578,5.318,11.808
1452,0.803,34.67,15.612,41.568,29.435,4.456,5.236,11.765
1453,0.823,34.954,15.57,41.597,29.449,4.658,5.479,11.805
1454,0.817,35.101,15.507,41.597,29.439,4.497,5.318,11.724
1455,0.82,34.757,15.565,41.597,29.445,4.536,5.358,11.601
1456,0.83,34.648,15.562,41.568,29.439,4.537,5.358,11.478
1457,0.817,34.848,15.507,41.577,29.438,4.496,5.195,11.314
1458,0.839,35.052,15.545,41.606,29.452,4.658,5.438,11.394
1459,0.836,34.66,15.589,41.578,29.439,4.579,5.359,11.232
1460,0.839,34.743,15.57,41.597,29.438,4.537,5.317,11.068
1461,0.839,34.983,15.546,41.568,29.435,4.537,5.358,11.026
1462,0.833,35.11,15.554,41.577,29.432,4.577,5.277,10.822
1463,0.849,34.584,15.565,41.625,29.442,4.578,5.398,10.779
1464,0.833,34.694,15.612,41.588,29.442,4.537,5.399,10.738
1465,0.849,34.935,15.597,41.597,29.439,4.537,5.318,10.494
1466,0.846,35.062,15.585,41.568,29.445,4.537,5.358,10.491
1467,0.843,34.488,15.589,41.568,29.425,4.455,5.317,10.369
1468,0.853,34.741,15.585,41.587,29.442,4.495,5.398,10.328
1469,0.849,34.935,15.605,41.587,29.439,4.618,5.358,10.246
1470,0.872,35.062,15.632,41.578,29.435,4.497,5.317,10.001
1471,0.885,34.363,15.531,41.578,29.438,4.577,5.358,9.917
1472,0.869,34.577,15.553,41.558,29.428,4.578,5.317,9.916
1473,0.892,34.799,15.542,41.587,29.442,4.578,5.317,9.876
1474,0.892,34.955,15.577,41.587,29.449,4.578,5.398,9.835
1475,0.899,34.381,15.523,41.578,29.428,4.496,5.236,9.59
1476,0.905,34.615,15.557,41.578,29.435,4.495,5.357,9.466
1477,0.892,34.829,15.554,41.558,29.435,4.495,5.317,9.546
1478,0.902,34.965,15.589,41.577,29.442,4.536,5.317,9.384
1479,0.899,34.362,15.632,41.587,29.442,4.577,5.358,9.423
1480,0.899,34.577,15.574,41.549,29.435,4.496,5.317,9.18
1481,0.908,34.809,15.558,41.587,29.435,4.495,5.358,9.218
1482,0.902,34.898,15.554,41.578,29.445,4.536,5.399,9.178
1483,0.908,34.304,15.546,41.578,29.442,4.537,5.277,9.096
1484,0.899,34.576,15.522,41.587,29.442,4.577,5.398,9.136
1485,0.902,34.752,15.503,41.558,29.432,4.456,5.399,8.974
1486,0.905,34.849,15.58,41.577,29.435,4.495,5.358,8.891
1487,0.895,34.304,15.538,41.597,29.438,4.658,5.439,9.012
1488,0.905,34.567,15.534,41.587,29.438,4.579,5.359,8.85
1489,0.921,34.771,15.655,41.606,29.445,4.618,5.358,8.849
1490,0.915,34.801,15.621,41.568,29.432,4.619,5.317,8.727
1491,0.918,34.294,15.601,41.568,29.438,4.497,5.236,8.603
1492,0.922,34.538,15.617,41.616,29.449,4.658,5.438,8.806
1493,0.928,34.722,15.597,41.597,29.442,4.538,5.318,8.686
1494,0.935,34.791,15.539,41.597,29.445,4.618,5.398,8.522
1495,0.928,34.274,15.554,41.597,29.435,4.497,5.358,8.52
1496,0.931,34.528,15.64,41.568,29.432,4.455,5.317,8.439
1497,0.951,34.722,15.539,41.616,29.449,4.617,5.48,8.56
1498,0.948,34.753,15.53,41.588,29.435,4.578,5.318,8.399
1499,0.948,34.331,15.604,41.616,29.438,4.618,5.317,8.397
1500,0.932,34.557,15.582,41.568,29.435,4.497,5.317,8.397
1501,0.925,34.713,15.55,41.587,29.432,4.455,5.317,8.275
1502,0.938,34.734,15.569,41.616,29.459,4.658,5.439,8.314
1503,0.945,34.37,15.566,41.616,29.446,4.579,5.318,8.315
1504,0.935,34.586,15.569,41.597,29.449,4.537,5.317,8.193
1505,0.938,34.752,15.53,41.606,29.439,4.537,5.358,8.192
1506,0.938,34.456,15.6,41.578,29.435,4.496,5.317,8.192
1507,0.961,34.348,15.554,41.587,29.445,4.577,5.317,8.192
1508,0.955,34.596,15.53,41.606,29.442,4.659,5.398,8.151
1509,0.954,34.733,15.577,41.607,29.435,4.416,5.318,8.069
1510,0.971,34.312,15.601,41.568,29.442,4.495,5.358,8.069
1511,0.968,34.346,15.558,41.577,29.442,4.495,5.358,8.069
1512,0.997,34.634,15.554,41.606,29.442,4.618,5.358,7.946
1513,0.978,34.771,15.55,41.607,29.449,4.578,5.439,8.067
1514,0.981,34.216,15.577,41.578,29.435,4.456,5.277,7.946
1515,0.994,34.355,15.581,41.587,29.438,4.536,5.398,7.945
1516,0.994,34.558,15.632,41.578,29.438,4.537,5.48,7.945
1517,0.994,34.723,15.601,41.597,29.442,4.537,5.44,7.905
1518,1.01,34.091,15.566,41.606,29.449,4.577,5.481,7.863
1519,0.988,34.277,15.647,41.549,29.432,4.415,5.318,7.822
1520,0.984,34.499,15.625,41.596,29.438,4.495,5.439,7.781
1521,0.984,34.636,15.613,41.587,29.442,4.577,5.399,7.862
1522,0.987,34.177,15.511,41.587,29.439,4.537,5.44,7.782
1523,0.997,34.393,15.573,41.616,29.449,4.618,5.44,7.822
1524,0.981,34.567,15.523,41.568,29.435,4.537,5.481,7.741
1525,0.991,34.742,15.522,41.606,29.442,4.455,5.359,7.659
1526,0.991,34.082,15.585,41.597,29.452,4.577,5.48,7.78
1527,0.997,34.325,15.492,41.606,29.446,4.578,5.44,7.7
1528,1.007,34.538,15.557,41.616,29.439,4.659,5.481,7.78
1529,1.001,34.627,15.585,41.568,29.438,4.497,5.44,7.659
1530,1.023,34.004,15.636,41.568,29.438,4.455,5.44,7.536
1531,1.017,34.257,15.613,41.606,29.452,4.698,5.643,7.738
1532,1.027,34.451,15.57,41.587,29.446,4.579,5.564,7.699
1533,1.037,34.587,15.601,41.587,29.449,4.618,5.482,7.618
1534,1.046,34.052,15.562,41.578,29.446,4.578,5.481,7.535
1535,1.053,34.324,15.53,41.568,29.445,4.496,5.4,7.453
1536,1.056,34.528,15.608,41.616,29.452,4.699,5.684,7.615
1537,1.053,34.617,15.461,41.597,29.439,4.62,5.564,7.495
1538,1.066,34.157,15.557,41.587,29.442,4.659,5.523,7.453
1539,1.06,34.373,15.601,41.587,29.442,4.538,5.482,7.412
1540,1.056,34.558,15.656,41.568,29.435,4.455,5.4,7.411
1541,1.063,34.694,15.512,41.645,29.456,4.658,5.521,7.452
1542,1.066,34.082,15.584,41.588,29.442,4.619,5.563,7.412
1543,1.063,34.353,15.616,41.597,29.445,4.497,5.441,7.371
1544,1.069,34.529,15.531,41.587,29.439,4.536,5.481,7.37
1545,1.063,34.578,15.616,41.568,29.432,4.496,5.4,7.33
1546,1.079,34.167,15.636,41.606,29.445,4.618,5.44,7.451
1547,1.063,34.373,15.476,41.607,29.449,4.578,5.562,7.452
1548,1.06,34.567,15.533,41.607,29.439,4.496,5.36,7.29
1549,1.066,34.617,15.546,41.587,29.438,4.536,5.48,7.329
1550,1.076,34.023,15.554,41.578,29.432,4.537,5.4,7.37
1551,1.099,34.295,15.577,41.606,29.445,4.618,5.399,7.37
1552,1.093,34.451,15.511,41.607,29.449,4.659,5.48,7.411
1553,1.109,34.52,15.561,41.578,29.432,4.416,5.318,7.289
1554,1.119,34.099,15.53,41.578,29.442,4.535,5.398,7.288
1555,1.125,34.306,15.553,41.587,29.445,4.577,5.44,7.41
1556,1.145,34.5,15.585,41.578,29.439,4.496,5.481,7.33
1557,1.148,34.271,15.566,41.587,29.445,4.658,5.481,7.329
1558,1.139,34.087,15.562,41.558,29.435,4.416,5.4,7.248
1559,1.135,34.325,15.577,41.577,29.435,4.535,5.44,7.288
1560,1.132,34.461,15.628,41.597,29.449,4.577,5.44,7.41
1561,1.148,34.098,15.605,41.578,29.442,4.537,5.44,7.371
1562,1.148,34.133,15.554,41.606,29.449,4.577,5.521,7.411
1563,1.145,34.344,15.569,41.568,29.428,4.456,5.482,7.289
1564,1.142,34.51,15.538,41.597,29.442,4.577,5.359,7.288
1565,1.132,33.974,15.561,41.587,29.449,4.618,5.521,7.451
1566,1.138,34.103,15.647,41.597,29.446,4.619,5.441,7.412
1567,1.148,34.334,15.473,41.616,29.449,4.619,5.521,7.411
1568,1.142,34.461,15.588,41.597,29.439,4.578,5.482,7.289
1569,1.158,33.82,15.593,41.597,29.435,4.537,5.481,7.288
1570,1.168,34.006,15.632,41.606,29.449,4.74,5.644,7.369
1571,1.165,34.209,15.621,41.616,29.449,4.62,5.483,7.33
1572,1.191,34.374,15.547,41.597,29.452,4.659,5.522,7.289
1573,1.175,33.906,15.55,41.606,29.442,4.579,5.482,7.288
1574,1.194,34.112,15.511,41.597,29.439,4.537,5.44,7.207
1575,1.198,34.373,15.545,41.645,29.456,4.74,5.603,7.409
1576,1.204,34.462,15.589,41.588,29.442,4.579,5.564,7.289
1577,1.224,33.868,15.476,41.616,29.449,4.578,5.523,7.288
1578,1.208,34.112,15.545,41.607,29.439,4.578,5.482,7.288
1579,1.201,34.315,15.557,41.587,29.438,4.496,5.4,7.207
1580,1.204,34.471,15.632,41.635,29.452,4.658,5.521,7.287
1581,1.198,33.772,15.597,41.607,29.449,4.619,5.482,7.247
1582,1.198,34.034,15.566,41.607,29.452,4.537,5.481,7.125
1583,1.207,34.228,15.593,41.607,29.442,4.537,5.481,7.205
1584,1.198,34.317,15.503,41.578,29.439,4.537,5.44,7.247
1585,1.217,33.857,15.588,41.616,29.442,4.577,5.44,7.288
1586,1.208,34.083,15.609,41.607,29.449,4.618,5.44,7.288
1587,1.217,34.296,15.546,41.616,29.439,4.497,5.44,7.166
1588,1.217,34.384,15.585,41.616,29.442,4.577,5.481,7.165
1589,1.208,34.203,15.558,41.597,29.435,4.496,5.4,7.206
1590,1.227,34.489,15.655,41.606,29.442,4.618,5.44,7.206
1591,1.23,34.674,15.535,41.626,29.449,4.659,5.481,7.287
1592,1.23,34.733,15.593,41.597,29.428,4.457,5.4,7.085
1593,1.237,33.66,15.585,41.626,29.442,4.536,5.44,7.205
1594,1.224,33.898,15.503,41.626,29.435,4.577,5.481,7.206
1595,1.227,34.121,15.557,41.626,29.445,4.578,5.481,7.247
1596,1.234,34.181,15.589,41.607,29.445,4.578,5.481,7.288
1597,1.227,33.846,15.55,41.597,29.432,4.456,5.4,7.166
1598,1.234,34.121,15.554,41.597,29.438,4.536,5.48,7.206
1599,1.214,34.296,15.561,41.626,29.445,4.659,5.44,7.328
1600,1.211,34.365,15.597,41.626,29.449,4.579,5.521,7.207
1601,1.207,33.867,15.546,41.645,29.449,4.578,5.522,7.247
1602,1.201,34.073,15.499,41.588,29.435,4.537,5.482,7.166
1603,1.207,34.267,15.557,41.606,29.435,4.537,5.359,7.084
1604,1.217,34.49,15.495,41.635,29.463,4.659,5.643,7.286
1605,1.214,33.869,15.541,41.616,29.446,4.579,5.523,7.207
1606,1.211,34.121,15.643,41.635,29.449,4.618,5.522,7.165
1607,1.194,34.248,15.586,41.626,29.446,4.619,5.482,7.165
1608,1.198,34.144,15.554,41.616,29.439,4.497,5.4,7.124
1609,1.233,33.999,15.569,41.664,29.452,4.699,5.602,7.205
1610,1.227,34.199,15.628,41.617,29.442,4.66,5.482,7.125
1611,1.221,34.355,15.554,41.635,29.445,4.579,5.481,7.043
1612,1.221,34.068,15.577,41.645,29.439,4.578,5.481,7.164
1613,1.208,34.037,15.581,41.617,29.428,4.415,5.4,7.084
1614,1.22,34.315,15.519,41.664,29.442,4.657,5.521,7.123
1615,1.211,34.461,15.569,41.626,29.442,4.66,5.522,7.124
1616,1.22,34.07,15.632,41.626,29.439,4.538,5.4,6.961
1617,1.214,34.171,15.535,41.616,29.428,4.618,5.48,7.041
1618,1.201,34.393,15.569,41.607,29.435,4.537,5.4,7.001
1619,1.201,34.558,15.577,41.645,29.442,4.577,5.521,7.001
1620,1.185,34.08,15.64,41.626,29.439,4.659,5.441,7.163
1621,1.184,34.267,15.586,41.645,29.435,4.457,5.359,7.002
1622,1.171,34.499,15.554,41.617,29.435,4.495,5.399,7.082
1623,1.165,34.607,15.538,41.607,29.432,4.536,5.44,7.083
1624,1.168,34.205,15.542,41.645,29.438,4.537,5.481,7.123
1625,1.152,34.422,15.518,41.636,29.449,4.577,5.481,7.287
1626,1.148,34.616,15.6,41.616,29.432,4.537,5.4,7.125
1627,1.139,34.733,15.578,41.635,29.438,4.577,5.48,7.246
1628,1.125,34.341,15.57,41.626,29.435,4.578,5.44,7.166
1629,1.142,34.596,15.519,41.626,29.442,4.618,5.481,7.165
1630,1.129,34.809,15.561,41.645,29.449,4.578,5.522,7.124
1631,1.119,34.907,15.64,41.597,29.435,4.496,5.4,7.083
1632,1.122,34.592,15.609,41.626,29.445,4.618,5.44,7.083
1633,1.125,34.828,15.613,41.645,29.439,4.578,5.521,7.205
1634,1.122,35.042,15.535,41.645,29.449,4.578,5.441,7.125
1635,1.116,35.169,15.593,41.664,29.449,4.659,5.562,7.246
1636,1.099,34.7,15.62,41.588,29.439,4.538,5.401,7.166
1637,1.102,34.983,15.562,41.645,29.438,4.496,5.48,7.124
1638,1.093,35.178,15.585,41.626,29.435,4.577,5.522,7.165
1639,1.076,35.285,15.546,41.636,29.442,4.578,5.482,7.165
1640,1.073,35.133,15.589,41.655,29.449,4.659,5.562,7.124
1641,1.063,35.39,15.538,41.626,29.432,4.457,5.441,7.083
1642,1.047,35.584,15.534,41.636,29.435,4.536,5.399,7.042
1643,1.037,35.663,15.553,41.645,29.442,4.659,5.521,7.286
1644,1.017,35.309,15.53,41.645,29.439,4.579,5.482,7.125
1645,1.01,35.574,15.585,41.664,29.452,4.578,5.522,7.165
1646,0.997,35.72,15.574,41.626,29.442,4.578,5.441,7.165
1647,1.004,35.799,15.53,41.636,29.439,4.537,5.399,7.124
1648,1.0,35.713,15.569,41.655,29.452,4.699,5.602,7.246
1649,1.004,35.942,15.53,41.655,29.439,4.538,5.482,7.084
1650,0.994,36.156,15.62,41.665,29.449,4.659,5.44,7.083
1651,0.968,36.158,15.523,41.646,29.442,4.538,5.44,7.123
1652,0.971,36.071,15.538,41.645,29.442,4.537,5.399,7.083
1653,0.984,36.31,15.534,41.655,29.449,4.699,5.602,7.286
1654,0.978,36.476,15.503,41.674,29.442,4.579,5.442,7.125
1655,0.971,36.449,15.565,41.674,29.452,4.659,5.521,7.124
1656,0.951,36.314,15.573,41.646,29.449,4.538,5.441,7.043
1657,0.945,36.543,15.558,41.636,29.439,4.537,5.359,7.001
1658,0.948,36.727,15.562,41.664,29.456,4.74,5.602,7.123
1659,0.935,36.758,15.612,41.636,29.449,4.579,5.442,7.165
1660,0.931,36.595,15.675,41.664,29.449,4.618,5.481,7.124
1661,0.922,36.814,15.645,41.665,29.446,4.578,5.4,7.083
1662,0.909,36.97,15.586,41.646,29.435,4.578,5.399,7.002
1663,0.912,37.01,15.585,41.674,29.452,4.781,5.602,7.123
1664,0.892,37.001,15.534,41.655,29.442,4.58,5.442,7.043
1665,0.895,37.231,15.561,41.674,29.445,4.659,5.481,7.042
1666,0.86,37.367,15.538,41.674,29.439,4.579,5.359,7.001
1667,0.866,37.225,15.554,41.655,29.435,4.537,5.399,6.96
1668,0.856,37.357,15.526,41.722,29.452,4.699,5.562,7.122
1669,0.859,37.541,15.546,41.656,29.446,4.66,5.482,7.002
1670,0.869,37.696,15.647,41.665,29.449,4.579,5.44,6.919
1671,0.876,37.544,15.594,41.674,29.439,4.578,5.399,7.0
1672,0.863,37.677,15.613,41.646,29.438,4.537,5.318,7.001
1673,0.869,37.909,15.562,41.703,29.459,4.74,5.561,7.082
1674,0.872,38.016,15.562,41.665,29.439,4.579,5.482,7.083
1675,0.879,37.643,15.491,41.693,29.449,4.578,5.4,7.083
1676,0.863,37.841,15.584,41.665,29.449,4.578,5.358,7.083
1677,0.853,38.006,15.554,41.655,29.439,4.496,5.358,7.083
1678,0.869,38.19,15.526,41.703,29.452,4.658,5.48,7.164
1679,0.843,38.077,15.53,41.684,29.446,4.619,5.481,7.165
1680,0.839,38.286,15.604,41.665,29.442,4.578,5.4,7.084
1681,0.82,38.48,15.617,41.665,29.442,4.578,5.399,7.164
1682,0.817,38.588,15.601,41.646,29.442,4.496,5.318,7.084
1683,0.839,38.368,15.617,41.722,29.452,4.658,5.439,7.123
1684,0.82,38.539,15.589,41.675,29.442,4.538,5.481,7.246
1685,0.826,38.771,15.577,41.694,29.445,4.537,5.4,7.125
1686,0.826,38.859,15.616,41.684,29.449,4.618,5.44,7.246
1687,0.8,38.572,15.578,41.655,29.435,4.497,5.399,7.247
1688,0.813,38.838,15.562,41.703,29.449,4.658,5.521,7.247
1689,0.81,38.985,15.573,41.684,29.442,4.66,5.563,7.288
1690,0.81,39.082,15.566,41.674,29.439,4.579,5.36,7.166
1691,0.816,38.728,15.562,41.684,29.442,4.618,5.439,7.206
1692,0.82,38.974,15.495,41.665,29.439,4.537,5.399,7.206
1693,0.83,39.159,15.569,41.693,29.449,4.618,5.44,7.287
1694,0.82,39.237,15.48,41.694,29.449,4.659,5.481,7.329
1695,0.826,39.008,15.53,41.684,29.442,4.538,5.318,7.167
1696,0.804,39.216,15.62,41.684,29.449,4.618,5.48,7.287
1697,0.803,39.391,15.539,41.674,29.439,4.578,5.522,7.288
1698,0.833,39.479,15.589,41.684,29.445,4.618,5.522,7.288
1699,0.817,39.221,15.574,41.703,29.445,4.659,5.522,7.288
1700,0.803,39.391,15.609,41.675,29.432,4.538,5.36,7.166
1701,0.807,39.565,15.574,41.665,29.442,4.618,5.48,7.206
1702,0.787,39.596,15.577,41.665,29.442,4.619,5.522,7.369
1703,0.79,39.452,15.562,41.684,29.445,4.619,5.522,7.33
1704,0.793,39.691,15.554,41.703,29.449,4.659,5.563,7.37
1705,0.8,39.827,15.561,41.665,29.439,4.538,5.482,7.289
1706,0.787,39.867,15.624,41.684,29.442,4.577,5.4,7.329
1707,0.787,39.455,15.578,41.684,29.449,4.7,5.602,7.451
1708,0.793,39.691,15.593,41.703,29.439,4.579,5.442,7.33
1709,0.803,39.866,15.578,41.703,29.449,4.618,5.521,7.329
1710,0.784,39.896,15.632,41.655,29.442,4.578,5.563,7.207
1711,0.803,39.724,15.57,41.674,29.445,4.496,5.401,7.165
1712,0.816,39.943,15.593,41.713,29.456,4.699,5.643,7.409
1713,0.807,40.089,15.601,41.713,29.446,4.62,5.523,7.289
1714,0.81,39.898,15.527,41.732,29.449,4.741,5.563,7.288
1715,0.807,39.743,15.565,41.713,29.442,4.62,5.441,7.288
1716,0.807,39.943,15.573,41.684,29.442,4.578,5.359,7.166
1717,0.807,40.137,15.546,41.732,29.466,4.74,5.602,7.246
1718,0.803,39.861,15.538,41.704,29.446,4.62,5.564,7.288
1719,0.803,39.896,15.538,41.703,29.449,4.578,5.482,7.207
1720,0.794,40.079,15.577,41.703,29.449,4.618,5.44,7.206
1721,0.784,40.215,15.527,41.684,29.439,4.537,5.399,7.165
1722,0.797,39.833,15.592,41.722,29.456,4.659,5.562,7.287
1723,0.797,39.925,15.546,41.704,29.439,4.66,5.563,7.207
1724,0.79,40.108,15.554,41.694,29.445,4.579,5.401,7.125
1725,0.79,40.263,15.577,41.703,29.442,4.659,5.48,7.246
1726,0.777,39.833,15.589,41.694,29.435,4.457,5.4,7.166
1727,0.803,40.049,15.577,41.742,29.449,4.617,5.48,7.206
1728,0.794,40.262,15.554,41.713,29.449,4.619,5.522,7.247
1729,0.803,40.36,15.577,41.703,29.442,4.537,5.4,7.044
1730,0.81,39.776,15.597,41.694,29.445,4.577,5.44,7.164
1731,0.8,39.991,15.585,41.684,29.439,4.578,5.399,7.165
1732,0.81,40.233,15.62,41.722,29.442,4.618,5.44,7.165
1733,0.803,40.312,15.566,41.732,29.449,4.619,5.481,7.206
1734,0.816,39.853,15.601,41.704,29.442,4.497,5.359,7.084
1735,0.826,40.088,15.585,41.742,29.445,4.577,5.399,7.123
1736,0.81,40.244,15.589,41.713,29.442,4.618,5.44,7.287
1737,0.826,40.37,15.601,41.723,29.442,4.537,5.521,7.247
1738,0.823,39.757,15.558,41.723,29.449,4.659,5.522,7.247
1739,0.813,39.981,15.522,41.684,29.432,4.457,5.4,7.166
1740,0.81,40.166,15.577,41.722,29.445,4.577,5.48,7.287
1741,0.813,40.244,15.566,41.723,29.445,4.659,5.522,7.369
1742,0.807,39.862,15.503,41.723,29.442,4.579,5.441,7.37
1743,0.794,40.088,15.541,41.742,29.442,4.578,5.521,7.37
1744,0.787,40.234,15.511,41.694,29.439,4.537,5.441,7.33
1745,0.78,40.331,15.483,41.703,29.438,4.496,5.44,7.289
1746,0.78,39.834,15.565,41.723,29.438,4.699,5.643,7.532
1747,0.793,40.04,15.585,41.742,29.449,4.579,5.564,7.453
1748,0.79,40.234,15.589,41.752,29.442,4.659,5.563,7.452
1749,0.793,40.264,15.601,41.723,29.442,4.579,5.523,7.452
1750,0.806,39.641,15.593,41.713,29.442,4.537,5.4,7.371
1751,0.807,39.875,15.609,41.751,29.452,4.74,5.602,7.614
1752,0.803,40.059,15.566,41.742,29.449,4.62,5.482,7.535
1753,0.816,40.109,15.597,41.742,29.449,4.619,5.481,7.575
1754,0.81,39.716,15.601,41.723,29.446,4.578,5.481,7.413
1755,0.816,39.943,15.527,41.723,29.439,4.578,5.4,7.452
1756,0.836,40.146,15.585,41.752,29.452,4.7,5.602,7.574
1757,0.826,40.129,15.554,41.733,29.449,4.579,5.523,7.494
1758,0.83,39.669,15.554,41.752,29.446,4.578,5.482,7.453
1759,0.813,39.865,15.538,41.733,29.445,4.618,5.522,7.452
1760,0.813,40.011,15.616,41.723,29.439,4.497,5.4,7.371
1761,0.826,40.195,15.636,41.78,29.452,4.658,5.48,7.492
1762,0.8,39.583,15.609,41.723,29.446,4.579,5.562,7.453
1763,0.803,39.807,15.617,41.742,29.445,4.537,5.482,7.371
1764,0.8,39.953,15.511,41.723,29.445,4.577,5.522,7.452
1765,0.803,39.724,15.503,41.732,29.439,4.496,5.482,7.371
1766,0.813,39.559,15.553,41.752,29.445,4.618,5.562,7.452
1767,0.8,39.759,15.542,41.752,29.449,4.619,5.523,7.452
1768,0.803,39.905,15.55,41.742,29.439,4.537,5.36,7.33
1769,0.803,39.484,15.542,41.723,29.435,4.577,5.48,7.37
1770,0.807,39.432,15.561,41.723,29.438,4.496,5.481,7.37
1771,0.826,39.681,15.53,41.752,29.449,4.577,5.481,7.411
1772,0.826,39.818,15.628,41.733,29.449,4.7,5.522,7.33
1773,0.81,39.349,15.543,41.723,29.442,4.457,5.4,7.207
1774,0.813,39.45,15.565,41.732,29.445,4.577,5.48,7.287
1775,0.813,39.643,15.585,41.723,29.439,4.537,5.522,7.329
1776,0.826,39.808,15.566,41.732,29.445,4.618,5.522,7.248
1777,0.83,39.109,15.62,41.752,29.449,4.619,5.522,7.288
1778,0.833,39.256,15.547,41.723,29.432,4.497,5.36,7.207
1779,0.823,39.478,15.593,41.752,29.445,4.577,5.399,7.165
1780,0.81,39.605,15.581,41.723,29.442,4.618,5.521,7.246
1781,0.813,39.136,15.577,41.742,29.445,4.659,5.563,7.166
1782,0.807,39.333,15.558,41.742,29.442,4.619,5.563,7.246
1783,0.794,39.536,15.538,41.713,29.432,4.497,5.401,7.084
1784,0.793,39.644,15.514,41.732,29.449,4.495,5.521,7.245
1785,0.79,38.906,15.561,41.742,29.446,4.699,5.522,7.288
1786,0.803,39.158,15.605,41.761,29.445,4.579,5.603,7.207
1787,0.81,39.343,15.57,41.752,29.449,4.7,5.523,7.247
1788,0.794,39.44,15.546,41.723,29.435,4.538,5.482,7.206
1789,0.81,38.895,15.546,41.742,29.438,4.537,5.44,7.206
1790,0.82,39.129,15.597,41.761,29.449,4.659,5.562,7.369
1791,0.833,39.313,15.523,41.761,29.439,4.619,5.401,7.37
1792,0.836,39.44,15.565,41.771,29.449,4.659,5.521,7.37
1793,0.82,38.799,15.487,41.742,29.435,4.497,5.441,7.289
1794,0.826,39.042,15.569,41.733,29.445,4.577,5.318,7.207
1795,0.833,39.265,15.538,41.771,29.456,4.7,5.601,7.491
1796,0.823,39.344,15.565,41.752,29.442,4.579,5.523,7.331
1797,0.83,38.75,15.608,41.781,29.449,4.618,5.522,7.248
1798,0.826,38.955,15.57,41.752,29.439,4.578,5.482,7.288
1799,0.83,39.177,15.597,41.742,29.438,4.537,5.4,7.207
1800,0.82,39.256,15.609,41.771,29.452,4.699,5.602,7.491
1801,0.813,38.586,15.593,41.762,29.442,4.579,5.482,7.331
1802,0.813,38.857,15.597,41.781,29.442,4.659,5.522,7.329
1803,0.8,39.023,15.581,41.762,29.435,4.579,5.441,7.329
1804,0.813,39.073,15.585,41.761,29.435,4.537,5.359,7.248
1805,0.816,38.517,15.562,41.8,29.452,4.659,5.521,7.328
1806,0.8,38.722,15.569,41.762,29.442,4.66,5.482,7.289
1807,0.826,38.907,15.608,41.761,29.442,4.538,5.44,7.329
1808,0.8,38.937,15.531,41.771,29.445,4.537,5.481,7.248
1809,0.816,38.075,15.546,41.742,29.435,4.496,5.359,7.206
1810,0.836,38.334,15.624,41.78,29.449,4.658,5.48,7.287
1811,0.826,38.481,15.586,41.762,29.442,4.619,5.481,7.288
1812,0.83,38.434,15.589,41.761,29.439,4.578,5.4,7.166
1813,0.82,38.463,15.554,41.761,29.442,4.496,5.358,7.206
1814,0.823,38.683,15.53,41.752,29.435,4.577,5.317,7.206
1815,0.839,38.887,15.526,41.79,29.445,4.659,5.48,7.328
1816,0.817,38.621,15.565,41.771,29.449,4.66,5.481,7.289
1817,0.826,38.148,15.534,41.733,29.428,4.416,5.318,7.085
1818,0.83,38.412,15.522,41.752,29.438,4.535,5.398,7.205
1819,0.826,38.558,15.526,41.761,29.442,4.659,5.399,7.287
1820,0.817,38.224,15.565,41.771,29.442,4.66,5.521,7.288
1821,0.813,38.106,15.546,41.771,29.452,4.66,5.522,7.247
1822,0.8,38.316,15.569,41.723,29.439,4.579,5.441,7.206
1823,0.803,38.5,15.573,41.761,29.438,4.578,5.481,7.084
1824,0.807,37.965,15.616,41.771,29.449,4.7,5.522,7.245
1825,0.803,38.017,15.558,41.781,29.446,4.62,5.482,7.206
1826,0.803,38.248,15.565,41.8,29.445,4.619,5.522,7.287
1827,0.794,38.355,15.597,41.762,29.439,4.619,5.441,7.166
1828,0.8,37.839,15.554,41.781,29.432,4.578,5.359,7.043
1829,0.807,37.987,15.577,41.79,29.456,4.7,5.561,7.204
1830,0.794,38.161,15.57,41.791,29.446,4.62,5.441,7.165
1831,0.81,38.278,15.569,41.781,29.449,4.659,5.481,7.084
1832,0.807,37.579,15.566,41.771,29.449,4.579,5.44,7.042
1833,0.81,37.744,15.546,41.781,29.435,4.537,5.359,7.001
1834,0.81,37.996,15.565,41.8,29.449,4.659,5.521,7.123
1835,0.813,38.123,15.538,41.791,29.442,4.579,5.4,7.083
1836,0.816,37.549,15.593,41.781,29.442,4.659,5.44,7.002
1837,0.813,37.725,15.558,41.781,29.439,4.497,5.399,7.001
1838,0.81,37.957,15.53,41.771,29.432,4.455,5.358,6.96
1839,0.813,38.103,15.604,41.809,29.456,4.658,5.439,7.041
1840,0.8,37.414,15.574,41.8,29.442,4.579,5.399,7.082
1841,0.794,37.637,15.558,41.81,29.442,4.537,5.318,6.961
1842,0.787,37.831,15.526,41.781,29.442,4.577,5.398,7.082
1843,0.78,37.92,15.53,41.771,29.428,4.578,5.399,7.002
1844,0.79,37.278,15.577,41.819,29.435,4.618,5.44,7.082
1845,0.787,37.483,15.499,41.81,29.442,4.578,5.399,7.123
1846,0.793,37.686,15.584,41.781,29.435,4.496,5.318,7.002
1847,0.774,37.755,15.55,41.8,29.438,4.618,5.358,7.041
1848,0.78,37.2,15.55,41.781,29.438,4.456,5.358,7.123
1849,0.8,37.491,15.604,41.81,29.435,4.658,5.358,7.124
1850,0.8,37.686,15.636,41.791,29.445,4.538,5.521,7.165
1851,0.784,37.736,15.59,41.781,29.425,4.496,5.278,7.043
1852,0.797,37.104,15.605,41.81,29.438,4.536,5.357,7.082
1853,0.794,37.337,15.566,41.791,29.435,4.618,5.358,7.164
1854,0.816,37.57,15.577,41.81,29.442,4.578,5.358,7.165
1855,0.8,37.629,15.534,41.819,29.442,4.578,5.399,7.206
1856,0.8,36.968,15.569,41.762,29.432,4.496,5.318,7.084
1857,0.794,37.23,15.554,41.79,29.442,4.577,5.317,7.042
1858,0.793,37.396,15.519,41.819,29.449,4.618,5.439,7.204
1859,0.787,37.474,15.561,41.8,29.446,4.619,5.399,7.206
1860,0.793,37.015,15.542,41.839,29.445,4.619,5.48,7.247
1861,0.764,37.173,15.526,41.781,29.439,4.537,5.359,7.206
1862,0.787,37.405,15.546,41.8,29.432,4.537,5.317,7.125
1863,0.78,37.446,15.573,41.819,29.452,4.699,5.561,7.327
1864,0.777,36.909,15.558,41.82,29.442,4.62,5.482,7.289
1865,0.78,37.153,15.554,41.839,29.442,4.659,5.4,7.329
1866,0.758,37.29,15.593,41.81,29.439,4.579,5.399,7.289
1867,0.78,37.262,15.519,41.8,29.438,4.537,5.358,7.247
1868,0.777,36.974,15.557,41.839,29.456,4.74,5.521,7.41
1869,0.793,37.163,15.589,41.82,29.449,4.579,5.4,7.371
1870,0.79,37.328,15.558,41.829,29.442,4.659,5.399,7.33
1871,0.78,36.985,15.546,41.82,29.445,4.66,5.44,7.289
1872,0.787,36.808,15.55,41.8,29.432,4.538,5.399,7.207
1873,0.8,37.075,15.561,41.867,29.449,4.699,5.48,7.247
1874,0.797,37.203,15.601,41.839,29.442,4.66,5.44,7.328
1875,0.787,36.83,15.581,41.848,29.442,4.579,5.44,7.289
1876,0.797,36.874,15.613,41.82,29.442,4.618,5.359,7.166
1877,0.79,37.057,15.554,41.82,29.425,4.578,5.317,7.165
1878,0.8,37.27,15.612,41.867,29.449,4.7,5.48,7.206
1879,0.787,36.667,15.605,41.83,29.439,4.579,5.481,7.247
1880,0.78,36.796,15.582,41.839,29.442,4.578,5.4,7.166
1881,0.774,36.989,15.57,41.82,29.442,4.578,5.44,7.206
1882,0.767,37.135,15.527,41.81,29.435,4.496,5.318,7.165
1883,0.767,36.791,15.53,41.848,29.442,4.618,5.439,7.287
1884,0.761,36.922,15.569,41.82,29.442,4.659,5.44,7.288
1885,0.767,37.153,15.527,41.82,29.439,4.538,5.359,7.207
1886,0.767,37.27,15.569,41.839,29.435,4.618,5.358,7.328
1887,0.767,36.457,15.53,41.81,29.428,4.578,5.358,7.248
1888,0.767,36.726,15.561,41.839,29.442,4.578,5.439,7.328
1889,0.774,36.931,15.605,41.848,29.439,4.659,5.44,7.329
1890,0.771,37.038,15.582,41.829,29.428,4.457,5.318,7.126
1891,0.78,36.627,15.601,41.82,29.438,4.577,5.358,7.287
1892,0.78,36.862,15.515,41.82,29.438,4.659,5.358,7.247
1893,0.787,37.076,15.573,41.848,29.435,4.579,5.399,7.288
1894,0.793,37.193,15.507,41.858,29.445,4.618,5.48,7.329
1895,0.78,36.59,15.522,41.82,29.432,4.497,5.318,7.207
1896,0.79,36.843,15.592,41.82,29.435,4.495,5.398,7.247
1897,0.79,37.008,15.527,41.839,29.428,4.618,5.399,7.247
1898,0.793,37.125,15.553,41.839,29.438,4.659,5.48,7.206
1899,0.774,36.637,15.624,41.858,29.449,4.66,5.522,7.287
1900,0.764,36.843,15.617,41.81,29.435,4.457,5.36,7.247
1901,0.777,37.056,15.597,41.839,29.435,4.577,5.317,7.206
1902,0.771,37.116,15.593,41.858,29.445,4.659,5.52,7.287
1903,0.767,36.599,15.554,41.858,29.442,4.579,5.4,7.288
1904,0.777,36.843,15.62,41.858,29.442,4.7,5.48,7.288
1905,0.754,37.037,15.523,41.839,29.439,4.579,5.4,7.166
1906,0.761,37.097,15.549,41.839,29.435,4.578,5.44,7.165
1907,0.757,36.81,15.526,41.877,29.452,4.74,5.562,7.368
1908,0.751,37.037,15.546,41.868,29.446,4.661,5.441,7.248
1909,0.761,37.221,15.518,41.849,29.445,4.66,5.44,7.328
1910,0.764,37.262,15.585,41.858,29.445,4.66,5.481,7.329
1911,0.761,36.715,15.577,41.858,29.432,4.497,5.359,7.207
1912,0.78,36.988,15.55,41.906,29.452,4.658,5.48,7.328
1913,0.774,37.125,15.561,41.878,29.442,4.619,5.44,7.37
1914,0.787,37.184,15.562,41.858,29.442,4.659,5.318,7.33
1915,0.787,36.724,15.546,41.868,29.435,4.619,5.398,7.41
1916,0.79,36.95,15.593,41.839,29.435,4.537,5.399,7.289
1917,0.8,37.153,15.585,41.877,29.445,4.618,5.48,7.41
1918,0.787,37.232,15.562,41.858,29.445,4.659,5.522,7.452
1919,0.777,36.792,15.538,41.868,29.435,4.619,5.319,7.371
1920,0.777,37.027,15.604,41.858,29.435,4.578,5.358,7.411
1921,0.764,37.154,15.55,41.858,29.435,4.496,5.358,7.452
1922,0.767,37.079,15.542,41.868,29.442,4.618,5.399,7.452
1923,0.757,36.915,15.581,41.868,29.445,4.659,5.48,7.452
1924,0.751,37.124,15.531,41.878,29.428,4.497,5.318,7.249
1925,0.754,37.309,15.569,41.878,29.438,4.577,5.439,7.41
1926,0.735,36.917,15.605,41.858,29.432,4.578,5.44,7.411
1927,0.76,36.971,15.527,41.877,29.442,4.659,5.359,7.371
1928,0.757,37.173,15.569,41.897,29.449,4.66,5.399,7.452
1929,0.764,37.309,15.53,41.859,29.435,4.457,5.277,7.33
1930,0.757,36.86,15.612,41.858,29.438,4.536,5.357,7.37
1931,0.764,36.941,15.519,41.887,29.435,4.537,5.358,7.411
1932,0.783,37.192,15.553,41.878,29.438,4.577,5.439,7.371
1933,0.784,37.328,15.526,41.897,29.442,4.659,5.481,7.452
1934,0.777,36.841,15.55,41.849,29.432,4.497,5.318,7.371
1935,0.774,37.028,15.538,41.887,29.445,4.536,5.358,7.33
1936,0.777,37.221,15.557,41.878,29.442,4.618,5.439,7.451
1937,0.774,37.377,15.562,41.887,29.445,4.578,5.44,7.371
1938,0.774,36.889,15.534,41.897,29.442,4.659,5.481,7.37
1939,0.771,37.066,15.573,41.859,29.435,4.497,5.318,7.37
1940,0.774,37.289,15.636,41.868,29.435,4.577,5.317,7.37
1941,0.771,37.387,15.551,41.906,29.449,4.74,5.398,7.492
1942,0.767,36.918,15.569,41.887,29.435,4.661,5.358,7.331
1943,0.761,37.153,15.608,41.906,29.442,4.66,5.439,7.451
1944,0.744,37.328,15.539,41.868,29.439,4.619,5.481,7.412
1945,0.747,37.474,15.593,41.878,29.428,4.578,5.4,7.33
1946,0.754,36.938,15.597,41.916,29.449,4.74,5.521,7.614
1947,0.767,37.172,15.542,41.907,29.442,4.62,5.482,7.495
1948,0.767,37.386,15.511,41.897,29.449,4.659,5.481,7.453
1949,0.777,37.445,15.573,41.887,29.442,4.66,5.359,7.371
1950,0.78,36.947,15.648,41.878,29.439,4.497,5.399,7.37
1951,0.816,37.23,15.574,41.935,29.449,4.74,5.562,7.492
1952,0.836,37.405,15.609,41.897,29.442,4.62,5.401,7.412
1953,0.859,37.494,15.566,41.907,29.449,4.619,5.358,7.452
1954,0.859,37.025,15.55,41.897,29.439,4.619,5.399,7.452
1955,0.859,37.259,15.542,41.878,29.435,4.456,5.358,7.371
1956,0.879,37.492,15.569,41.935,29.452,4.739,5.521,7.452
1957,0.872,37.523,15.573,41.917,29.446,4.661,5.522,7.493
1958,0.856,37.092,15.511,41.916,29.442,4.66,5.36,7.371
1959,0.84,37.308,15.522,41.907,29.439,4.619,5.358,7.452
1960,0.839,37.473,15.585,41.897,29.435,4.537,5.399,7.452
1961,0.869,37.561,15.558,41.935,29.449,4.74,5.358,7.534
1962,0.866,37.15,15.534,41.907,29.449,4.661,5.48,7.494
1963,0.853,37.376,15.514,41.907,29.439,4.538,5.318,7.412
1964,0.856,37.551,15.569,41.897,29.438,4.577,5.48,7.452
1965,0.84,37.581,15.55,41.897,29.438,4.456,5.359,7.412
1966,0.859,37.198,15.604,41.916,29.442,4.617,5.439,7.533
1967,0.866,37.405,15.605,41.916,29.449,4.7,5.521,7.534
1968,0.869,37.561,15.554,41.907,29.432,4.457,5.319,7.412
1969,0.882,37.764,15.585,41.907,29.431,4.577,5.439,7.452
1970,0.879,37.152,15.648,41.887,29.442,4.659,5.44,7.493
1971,0.895,37.385,15.57,41.926,29.449,4.619,5.399,7.412
1972,0.892,37.551,15.589,41.916,29.442,4.578,5.48,7.493
1973,0.879,37.39,15.499,41.897,29.428,4.415,5.4,7.412
1974,0.879,37.177,15.538,41.916,29.442,4.617,5.358,7.452
1975,0.863,37.395,15.554,41.888,29.439,4.578,5.561,7.493
1976,0.879,37.57,15.554,41.916,29.442,4.578,5.482,7.453
1977,0.863,37.15,15.597,41.926,29.445,4.659,5.522,7.493
1978,0.866,37.088,15.499,41.888,29.435,4.538,5.441,7.453
1979,0.849,37.318,15.569,41.897,29.438,4.537,5.44,7.412
1980,0.856,37.445,15.589,41.916,29.438,4.659,5.521,7.574
1981,0.866,37.206,15.574,41.926,29.438,4.619,5.482,7.535
1982,0.866,37.328,15.601,41.926,29.449,4.659,5.603,7.494
1983,0.853,37.493,15.527,41.897,29.432,4.66,5.442,7.494
1984,0.856,37.648,15.546,41.926,29.438,4.579,5.481,7.453
1985,0.859,37.026,15.495,41.936,29.449,4.659,5.603,7.574
1986,0.862,37.173,15.553,41.926,29.442,4.579,5.482,7.494
1987,0.866,37.376,15.573,41.964,29.442,4.659,5.603,7.616
1988,0.866,37.493,15.534,41.917,29.439,4.579,5.482,7.454
1989,0.889,36.909,15.55,41.926,29.435,4.496,5.481,7.493
1990,0.882,37.114,15.624,41.936,29.456,4.699,5.644,7.656
1991,0.882,37.318,15.601,41.936,29.439,4.579,5.442,7.536
1992,0.902,37.454,15.636,41.945,29.442,4.659,5.521,7.534
1993,0.892,37.072,15.566,41.936,29.449,4.579,5.441,7.453
1994,0.873,37.279,15.581,41.936,29.446,4.578,5.399,7.412
1995,0.889,37.521,15.554,41.974,29.463,4.659,5.602,7.533
1996,0.892,37.619,15.593,41.965,29.442,4.579,5.442,7.412
1997,0.889,36.93,15.542,41.936,29.449,4.578,5.481,7.411
1998,0.892,37.172,15.515,41.926,29.435,4.578,5.481,7.371
1999,0.873,37.338,15.542,41.916,29.438,4.578,5.44,7.37
2000,0.889,37.483,15.569,41.983,29.449,4.7,5.521,7.492
2001,0.885,36.89,15.589,41.955,29.442,4.66,5.522,7.534
2002,0.879,37.143,15.577,41.936,29.442,4.579,5.522,7.372
2003,0.866,37.328,15.554,41.945,29.445,4.537,5.482,7.492
2004,0.866,37.406,15.597,41.936,29.435,4.577,5.44,7.453
2005,0.885,36.957,15.527,41.955,29.438,4.618,5.481,7.452
2006,0.866,37.173,15.581,41.965,29.449,4.659,5.522,7.534
2007,0.872,37.347,15.577,41.936,29.425,4.497,5.4,7.331
2008,0.846,37.435,15.511,41.984,29.442,4.618,5.44,7.37
2009,0.853,36.909,15.522,41.946,29.435,4.578,5.399,7.411
2010,0.853,37.172,15.557,41.974,29.442,4.659,5.399,7.371
2011,0.833,37.357,15.585,41.965,29.449,4.741,5.521,7.411
2012,0.826,37.388,15.581,41.936,29.435,4.539,5.36,7.289
2013,0.846,36.841,15.546,41.936,29.442,4.537,5.358,7.288
2014,0.82,37.066,15.589,41.955,29.442,4.659,5.48,7.451
2015,0.817,37.26,15.542,41.984,29.442,4.579,5.481,7.371
2016,0.813,37.31,15.62,41.955,29.445,4.659,5.522,7.37
2017,0.8,36.812,15.511,41.917,29.435,4.538,5.482,7.289
2018,0.807,37.066,15.569,41.955,29.438,4.496,5.4,7.207
2019,0.794,37.25,15.593,41.974,29.449,4.699,5.562,7.491
2020,0.79,37.204,15.601,41.965,29.446,4.66,5.482,7.29
2021,0.78,36.926,15.601,41.984,29.449,4.66,5.481,7.329
2022,0.754,37.124,15.507,41.965,29.435,4.66,5.44,7.207
2023,0.751,37.309,15.534,41.955,29.435,4.497,5.399,7.165
2024,0.754,37.128,15.604,41.984,29.449,4.658,5.562,7.368
2025,0.738,36.752,15.542,41.965,29.442,4.66,5.482,7.248
2026,0.747,36.998,15.561,41.974,29.442,4.579,5.481,7.288
2027,0.712,37.115,15.585,41.955,29.442,4.618,5.44,7.247
2028,0.731,36.906,15.574,41.984,29.432,4.497,5.399,7.084
2029,0.754,36.865,15.55,41.994,29.449,4.658,5.521,7.245
2030,0.761,37.076,15.558,41.965,29.435,4.619,5.482,7.206
2031,0.761,37.212,15.601,42.003,29.442,4.659,5.44,7.165
2032,0.751,36.581,15.519,41.975,29.435,4.66,5.359,7.124
2033,0.754,36.641,15.557,41.955,29.438,4.497,5.358,7.043
2034,0.761,36.872,15.511,42.003,29.452,4.699,5.602,7.286
2035,0.77,37.018,15.534,41.984,29.442,4.579,5.442,7.085
2036,0.754,36.54,15.604,41.975,29.449,4.659,5.481,7.002
2037,0.741,36.66,15.492,41.965,29.439,4.538,5.44,7.041
2038,0.751,36.882,15.534,41.955,29.435,4.537,5.318,7.001
2039,0.754,37.057,15.6,42.013,29.456,4.659,5.48,7.041
2040,0.728,36.406,15.66,41.994,29.446,4.66,5.44,7.001
2041,0.734,36.592,15.629,41.984,29.442,4.579,5.359,6.96
2042,0.715,36.795,15.617,41.965,29.445,4.618,5.399,6.96
2043,0.711,36.922,15.578,41.955,29.432,4.456,5.358,6.96
2044,0.721,36.415,15.609,42.003,29.442,4.658,5.358,6.96
2045,0.711,36.611,15.585,41.975,29.445,4.579,5.439,7.041
2046,0.715,36.843,15.597,41.994,29.445,4.578,5.359,6.92
2047,0.708,36.941,15.55,41.984,29.435,4.537,5.358,7.0
2048,0.711,36.415,15.522,41.994,29.435,4.537,5.358,6.919
2049,0.741,36.649,15.542,42.003,29.438,4.577,5.439,7.0
2050,0.718,36.824,15.593,41.984,29.449,4.659,5.481,7.041
2051,0.728,36.941,15.546,41.994,29.435,4.579,5.359,6.839
2052,0.718,36.223,15.55,41.984,29.435,4.537,5.399,6.958
2053,0.711,36.446,15.561,41.975,29.435,4.537,5.358,6.919
2054,0.744,36.678,15.569,41.994,29.442,4.496,5.358,7.0
2055,0.725,36.786,15.581,41.994,29.445,4.577,5.439,6.96
2056,0.731,36.289,15.546,41.975,29.435,4.496,5.237,6.797
2057,0.721,36.523,15.593,41.974,29.442,4.536,5.357,6.836
2058,0.715,36.698,15.542,41.984,29.445,4.577,5.317,6.958
2059,0.721,36.815,15.554,42.003,29.442,4.578,5.358,6.96
2060,0.715,36.26,15.573,41.994,29.442,4.659,5.399,7.041
2061,0.698,36.446,15.569,41.965,29.432,4.457,5.318,6.92
2062,0.708,36.688,15.573,41.984,29.438,4.455,5.358,6.919
2063,0.695,36.729,15.562,41.994,29.435,4.617,5.439,7.0
2064,0.698,36.144,15.562,41.984,29.442,4.537,5.44,6.96
2065,0.698,36.416,15.597,41.994,29.449,4.659,5.481,6.96
2066,0.692,36.544,15.558,41.984,29.446,4.538,5.359,6.96
2067,0.685,36.612,15.569,41.994,29.439,4.537,5.358,6.96
2068,0.682,36.028,15.593,42.023,29.452,4.699,5.561,7.122
2069,0.695,36.271,15.566,42.004,29.446,4.579,5.401,6.961
2070,0.695,36.466,15.62,41.994,29.442,4.659,5.48,7.082
2071,0.695,36.468,15.574,42.003,29.442,4.538,5.4,6.961
2072,0.708,35.96,15.519,41.994,29.432,4.537,5.358,6.96
2073,0.728,36.223,15.549,42.023,29.452,4.74,5.561,7.041
2074,0.725,36.369,15.561,42.013,29.442,4.661,5.482,7.042
2075,0.718,36.38,15.558,42.013,29.445,4.579,5.359,6.96
2076,0.724,36.045,15.515,41.994,29.449,4.537,5.358,6.919
2077,0.711,36.252,15.565,41.984,29.435,4.496,5.277,6.878
2078,0.734,36.475,15.484,42.061,29.452,4.618,5.479,7.0
2079,0.712,36.084,15.526,42.014,29.446,4.537,5.4,6.96
2080,0.715,35.898,15.608,42.013,29.439,4.577,5.358,6.838
2081,0.715,36.126,15.585,42.004,29.442,4.578,5.399,6.918
2082,0.721,36.263,15.546,41.984,29.435,4.496,5.358,6.878
2083,0.741,35.957,15.561,42.032,29.445,4.536,5.399,6.959
2084,0.728,35.964,15.55,42.023,29.449,4.577,5.399,6.96
2085,0.767,36.194,15.565,42.004,29.439,4.456,5.318,6.878
2086,0.77,36.35,15.585,42.003,29.438,4.577,5.358,6.918
2087,0.78,36.169,15.585,41.975,29.435,4.578,5.277,6.878
2088,0.839,36.369,15.581,42.042,29.438,4.578,5.316,6.959
2089,0.905,36.553,15.499,42.004,29.442,4.496,5.358,7.082
2090,0.954,36.689,15.592,42.003,29.432,4.536,5.317,6.839
2091,1.01,35.329,15.593,41.994,29.435,4.496,5.317,6.918
2092,1.069,35.488,15.542,41.984,29.438,4.495,5.317,6.878
2093,1.138,35.748,15.577,42.032,29.449,4.618,5.358,6.918
2094,1.19,35.856,15.577,42.032,29.446,4.578,5.358,7.0
2095,1.253,35.541,15.577,42.013,29.435,4.537,5.317,6.838
2096,1.273,35.739,15.601,42.013,29.442,4.496,5.358,6.958
2097,1.28,35.943,15.558,41.994,29.432,4.495,5.317,6.96
2098,1.332,36.108,15.495,42.023,29.442,4.577,5.398,6.96
2099,1.326,35.524,15.502,42.032,29.439,4.578,5.399,7.041
2100,1.293,35.758,15.561,42.013,29.435,4.456,5.277,6.92
2101,1.238,35.952,15.562,42.032,29.438,4.536,5.316,6.959
2102,1.178,36.079,15.491,41.994,29.438,4.577,5.317,7.041
2103,1.178,35.447,15.541,42.013,29.438,4.537,5.398,7.042
2104,1.136,35.69,15.538,42.032,29.445,4.577,5.399,7.123
2105,1.09,35.865,15.55,41.994,29.442,4.537,5.358,7.043
2106,1.086,35.973,15.62,42.013,29.439,4.537,5.399,7.042
2107,1.105,35.437,15.566,42.042,29.445,4.659,5.521,7.164
2108,1.106,35.7,15.597,42.033,29.439,4.579,5.319,7.084
2109,1.102,35.904,15.585,42.032,29.449,4.618,5.439,7.123
2110,1.076,35.954,15.605,41.994,29.435,4.578,5.359,7.002
2111,1.063,35.264,15.57,42.013,29.435,4.537,5.317,6.919
2112,1.06,35.506,15.554,42.051,29.449,4.659,5.52,7.163
2113,1.05,35.72,15.581,42.023,29.439,4.579,5.4,7.043
2114,1.03,35.789,15.55,42.042,29.442,4.578,5.44,7.082
2115,0.991,35.262,15.558,42.023,29.445,4.578,5.44,7.042
2116,0.935,35.477,15.597,42.013,29.432,4.496,5.359,6.96
2117,0.85,35.71,15.585,42.071,29.452,4.699,5.48,7.163
2118,0.752,35.751,15.546,42.033,29.449,4.579,5.359,7.165
2119,0.679,35.061,15.577,42.052,29.446,4.659,5.399,7.165
2120,0.594,35.293,15.616,42.033,29.439,4.619,5.318,7.246
2121,0.492,35.478,15.605,42.032,29.432,4.497,5.317,7.288
2122,0.39,35.556,15.566,42.071,29.452,4.699,5.439,7.532
2123,0.269,35.356,15.546,42.033,29.435,4.579,5.44,7.738
2124,0.144,35.584,15.589,42.042,29.449,4.496,5.359,7.699
2125,0.029,35.759,15.535,42.052,29.432,4.577,5.358,7.943
2126,-0.079,35.857,15.534,42.014,29.428,4.456,5.358,7.986
2127,-0.165,35.071,15.573,42.071,29.442,4.577,5.358,8.19
2128,-0.267,35.274,15.523,42.042,29.439,4.578,5.48,8.314
2129,-0.294,35.449,15.53,42.042,29.438,4.496,5.359,8.274
2130,-0.369,35.336,15.561,42.004,29.438,4.536,5.358,8.477
2131,-0.425,35.114,15.636,42.023,29.428,4.455,5.358,8.479
2132,-0.435,35.39,15.621,42.061,29.445,4.577,5.399,8.601
2133,-0.465,35.565,15.613,42.052,29.442,4.578,5.44,8.765
2134,-0.462,35.116,15.546,42.033,29.435,4.456,5.359,8.645
2135,-0.436,35.092,15.569,42.042,29.435,4.536,5.399,8.806
2136,-0.383,35.294,15.608,42.033,29.428,4.455,5.399,8.848
2137,-0.331,35.487,15.589,42.061,29.449,4.536,5.399,8.971
2138,-0.311,35.02,15.585,42.052,29.446,4.577,5.399,9.216
2139,-0.262,35.111,15.523,42.042,29.435,4.456,5.277,9.178
2140,-0.251,35.342,15.592,42.042,29.438,4.536,5.357,9.502
2141,-0.238,35.459,15.542,42.013,29.438,4.496,5.358,9.831
2142,-0.196,34.789,15.561,42.042,29.435,4.577,5.358,10.119
2143,-0.134,34.955,15.565,42.071,29.445,4.496,5.48,10.406
2144,-0.068,35.148,15.55,42.033,29.432,4.455,5.278,10.531
2145,-0.002,35.304,15.581,42.042,29.435,4.536,5.398,10.98
2146,0.067,34.816,15.57,42.052,29.435,4.496,5.44,11.269
2147,0.168,35.061,15.593,42.071,29.435,4.536,5.44,11.516
2148,0.251,35.274,15.55,42.148,29.449,4.577,5.481,11.762
2149,0.326,35.382,15.503,42.043,29.428,4.496,5.318,11.764
2150,0.389,34.788,15.549,42.042,29.445,4.495,5.358,12.049
2151,0.451,35.022,15.53,42.052,29.439,4.495,5.439,12.215
2152,0.536,35.245,15.565,42.061,29.442,4.577,5.481,12.298
2153,0.583,35.362,15.526,42.071,29.449,4.618,5.562,12.38
