time,ecg,bvp,gsr,rsp,skt,emg_zygo,emg_coru,emg_trap
0,0.964,35.527,14.639,42.052,31.37,18.994,6.712,8.684
1,0.977,35.643,14.604,42.09,31.377,19.033,6.713,8.684
2,0.971,35.213,14.623,42.091,31.37,18.83,6.754,8.725
3,0.984,35.41,14.654,42.11,31.377,18.828,6.754,8.685
4,0.974,35.469,14.647,42.072,31.356,18.666,6.714,8.562
5,0.971,35.528,14.604,42.071,31.367,18.542,6.794,8.643
6,0.968,35.327,14.565,42.09,31.36,18.338,6.673,8.644
7,0.971,35.497,14.603,42.11,31.37,18.295,6.835,8.806
8,0.971,35.633,14.619,42.1,31.374,18.172,6.796,8.726
9,0.994,35.663,14.682,42.139,31.381,18.252,6.917,8.848
10,0.987,35.328,14.671,42.062,31.374,17.969,6.674,8.605
11,1.004,35.478,14.671,42.081,31.37,18.169,6.835,8.643
12,1.0,35.595,14.561,42.071,31.363,18.293,6.755,8.562
13,1.007,35.49,14.615,42.09,31.377,18.538,6.836,8.724
14,1.02,35.394,14.639,42.091,31.374,18.663,6.837,8.603
15,1.03,35.527,14.655,42.081,31.374,18.827,6.918,8.602
16,1.033,35.653,14.608,42.071,31.37,18.788,6.796,8.562
17,1.037,35.309,14.623,42.138,31.37,18.909,6.795,8.521
18,1.04,35.42,14.588,42.072,31.377,18.91,6.795,8.479
19,1.03,35.546,14.635,42.09,31.374,18.951,6.836,8.52
20,1.037,35.643,14.627,42.091,31.367,18.87,6.877,8.52
21,1.017,35.328,14.666,42.081,31.374,18.788,6.796,8.52
22,1.017,35.459,14.651,42.062,31.363,18.665,6.836,8.398
23,1.004,35.585,14.612,42.062,31.367,18.623,6.918,8.397
24,1.023,35.711,14.615,42.09,31.367,18.623,6.919,8.519
25,1.017,35.3,14.666,42.081,31.37,18.542,6.919,8.52
26,1.04,35.449,14.671,42.119,31.384,18.5,6.959,8.52
27,1.024,35.547,14.592,42.062,31.37,18.256,6.797,8.439
28,1.02,35.624,14.545,42.081,31.37,18.213,6.877,8.438
29,1.043,35.289,14.568,42.081,31.36,18.131,6.755,8.316
30,1.053,35.468,14.623,42.081,31.377,18.293,6.836,8.477
31,1.06,35.585,14.643,42.09,31.363,18.416,6.918,8.479
32,1.079,35.663,14.698,42.081,31.381,18.824,7.041,8.601
33,1.07,35.242,14.593,42.052,31.367,18.869,6.798,8.44
34,1.069,35.401,14.584,42.071,31.37,19.113,6.917,8.479
35,1.082,35.517,14.619,42.062,31.367,19.156,6.837,8.316
36,1.092,35.557,14.654,42.071,31.37,19.36,6.958,8.437
37,1.089,35.471,14.651,42.081,31.377,19.403,6.878,8.397
38,1.096,35.623,14.581,42.071,31.381,19.362,7.0,8.519
39,1.092,35.721,14.564,42.062,31.37,19.24,6.879,8.398
40,1.096,35.52,14.552,42.071,31.377,19.076,6.918,8.438
41,1.099,35.423,14.626,42.081,31.374,19.034,6.878,8.479
42,1.089,35.556,14.678,42.071,31.377,18.952,6.959,8.52
43,1.092,35.682,14.678,42.071,31.37,18.952,6.838,8.561
44,1.089,35.367,14.565,42.081,31.37,18.789,6.796,8.602
45,1.092,35.469,14.607,42.071,31.367,18.746,6.836,8.602
46,1.089,35.585,14.654,42.062,31.367,18.624,6.837,8.684
47,1.099,35.711,14.694,42.09,31.381,18.542,6.837,8.644
48,1.109,36.029,14.671,42.071,31.367,18.459,6.837,8.725
49,1.128,36.204,14.616,42.129,31.381,18.418,6.877,8.644
50,1.112,36.292,14.619,42.062,31.374,18.214,6.796,8.603
51,1.135,36.389,14.584,42.129,31.367,18.334,6.836,8.602
52,1.129,34.904,14.58,42.043,31.37,18.539,6.755,8.643
53,1.161,35.081,14.642,42.09,31.377,18.825,6.836,8.725
54,1.155,35.207,14.608,42.071,31.377,18.909,6.755,8.685
55,1.171,35.324,14.631,42.09,31.388,19.154,6.917,8.684
56,1.155,35.421,14.619,42.043,31.37,19.035,6.756,8.562
57,1.161,35.594,14.686,42.061,31.37,19.115,6.795,8.561
58,1.165,35.692,14.679,42.033,31.363,18.994,6.673,8.48
59,1.161,35.76,14.706,42.08,31.384,19.196,6.794,8.682
60,1.158,35.358,14.659,42.071,31.377,18.995,6.714,8.684
61,1.174,35.536,14.608,42.11,31.388,19.074,6.835,8.766
62,1.165,35.634,14.623,42.052,31.37,18.831,6.714,8.604
63,1.161,35.663,14.67,42.061,31.37,18.828,6.713,8.724
64,1.168,35.529,14.686,42.071,31.374,18.706,6.632,8.563
65,1.165,35.691,14.577,42.081,31.37,18.746,6.712,8.764
66,1.165,35.798,14.619,42.081,31.374,18.583,6.754,8.767
67,1.171,35.579,14.627,42.09,31.384,18.541,6.795,8.889
68,1.188,35.394,14.697,42.052,31.367,18.338,6.633,8.727
69,1.194,35.527,14.714,42.042,31.367,18.295,6.672,8.685
70,1.211,35.643,14.718,42.081,31.37,18.254,6.672,8.684
71,1.217,35.347,14.702,42.071,31.37,18.375,6.753,8.807
72,1.224,35.469,14.647,42.157,31.37,18.58,6.714,8.767
73,1.221,35.576,14.631,42.072,31.374,18.826,6.754,8.767
74,1.24,35.692,14.655,42.062,31.37,18.95,6.632,8.726
75,1.247,35.328,14.651,42.033,31.374,19.114,6.712,8.726
76,1.27,35.507,14.577,42.071,31.377,19.156,6.672,8.848
77,1.273,35.643,14.615,42.062,31.377,19.197,6.713,8.767
78,1.289,35.75,14.611,42.071,31.37,19.157,6.672,8.767
79,1.264,35.319,14.639,42.062,31.37,18.994,6.672,8.807
80,1.276,35.488,14.694,42.052,31.37,18.87,6.631,8.767
81,1.27,35.576,14.702,42.042,31.36,18.829,6.631,8.929
82,1.286,35.673,14.686,42.071,31.37,18.706,6.631,9.053
83,1.283,35.405,14.675,42.081,31.374,18.705,6.672,8.932
84,1.299,35.594,14.698,42.119,31.384,18.705,6.713,9.134
85,1.28,35.653,14.702,42.043,31.363,18.38,6.591,9.095
86,1.286,35.731,14.694,42.081,31.363,18.417,6.671,9.095
87,1.299,35.473,14.624,42.043,31.363,18.092,6.469,8.973
88,1.319,35.633,14.569,42.081,31.37,18.13,6.67,9.175
89,1.322,35.75,14.627,42.1,31.374,18.008,6.672,9.137
90,1.332,35.789,14.631,42.091,31.381,18.129,6.794,9.258
91,1.336,35.454,14.639,42.062,31.37,18.13,6.511,9.015
92,1.352,35.614,14.701,42.081,31.374,18.374,6.589,9.094
93,1.352,35.711,14.64,42.062,31.367,18.58,6.468,9.014
94,1.365,35.54,14.631,42.071,31.381,18.866,6.589,9.135
95,1.375,35.404,14.666,42.062,31.377,18.869,6.59,9.136
96,1.388,35.546,14.721,42.081,31.381,18.991,6.631,9.136
97,1.391,35.663,14.675,42.052,31.374,19.074,6.468,8.974
98,1.391,35.491,14.616,42.052,31.374,19.075,6.507,9.013
99,1.401,35.624,14.576,42.071,31.374,19.156,6.549,9.054
100,1.398,35.75,14.595,42.062,31.374,19.116,6.63,9.054
101,1.405,35.876,14.623,42.071,31.374,19.116,6.55,9.095
102,1.401,35.436,14.658,42.062,31.367,18.872,6.508,9.054
103,1.411,35.604,14.694,42.042,31.37,18.829,6.467,9.135
104,1.405,35.711,14.597,42.052,31.374,18.788,6.467,9.095
105,1.427,35.856,14.666,42.071,31.377,18.868,6.548,9.176
106,1.421,35.436,14.717,42.071,31.377,18.747,6.59,9.137
107,1.437,35.604,14.749,42.1,31.384,18.583,6.631,9.177
108,1.437,35.702,14.71,42.052,31.37,18.419,6.468,9.055
109,1.447,35.77,14.655,42.052,31.374,18.336,6.507,9.054
110,1.457,35.502,14.627,42.033,31.367,18.254,6.467,8.973
111,1.467,35.691,14.639,42.119,31.377,18.578,6.548,9.175
112,1.467,35.827,14.659,42.072,31.374,18.704,6.508,9.137
113,1.487,35.886,14.733,42.11,31.388,19.152,6.63,9.258
114,1.487,35.541,14.667,42.043,31.37,19.116,6.428,9.056
115,1.496,35.701,14.631,42.071,31.37,19.319,6.507,9.013
116,1.5,35.798,14.658,42.033,31.367,19.321,6.427,9.013
117,1.513,35.847,14.659,42.061,31.384,19.443,6.548,9.094
118,1.519,35.598,14.729,42.052,31.377,19.404,6.468,9.054
119,1.516,35.769,14.734,42.09,31.388,19.484,6.589,9.217
120,1.51,35.837,14.683,42.043,31.367,19.201,6.427,8.934
121,1.513,35.838,14.647,42.061,31.377,19.157,6.548,9.012
122,1.5,35.819,14.651,42.042,31.374,18.994,6.427,9.013
123,1.5,35.972,14.674,42.071,31.377,19.033,6.548,9.176
124,1.5,36.07,14.706,42.062,31.374,18.911,6.468,9.177
125,1.503,35.668,14.632,42.09,31.384,18.87,6.629,9.299
126,1.49,35.75,14.67,42.043,31.374,18.585,6.346,9.097
127,1.496,35.895,14.69,42.071,31.374,18.46,6.466,9.217
128,1.51,35.992,14.698,42.052,31.381,18.377,6.467,9.137
129,1.523,35.859,14.718,42.071,31.374,18.295,6.507,9.258
130,1.523,35.992,14.733,42.062,31.377,18.172,6.549,9.097
131,1.523,36.108,14.734,42.052,31.377,18.252,6.59,9.258
132,1.513,36.205,14.702,42.071,31.374,18.294,6.427,9.097
133,1.519,36.053,14.663,42.062,31.377,18.538,6.507,9.176
134,1.529,36.214,14.741,42.081,31.381,18.703,6.467,9.137
135,1.526,36.34,14.699,42.052,31.384,18.786,6.548,9.095
136,1.526,36.419,14.612,42.061,31.377,18.787,6.549,9.258
137,1.507,36.189,14.643,42.052,31.374,18.746,6.549,9.178
138,1.497,36.35,14.67,42.052,31.377,18.665,6.59,9.015
139,1.484,36.447,14.71,42.061,31.374,18.542,6.549,9.135
140,1.493,36.525,14.71,42.071,31.377,18.541,6.63,9.095
141,1.464,36.478,14.718,42.062,31.374,18.419,6.631,9.095
142,1.467,36.631,14.687,42.071,31.384,18.295,6.672,9.054
143,1.434,36.69,14.647,42.033,31.37,18.213,6.713,9.054
144,1.424,36.738,14.682,42.052,31.367,18.05,6.754,9.095
145,1.405,36.566,14.71,42.033,31.363,17.926,6.673,9.136
146,1.411,36.728,14.714,42.08,31.374,18.006,6.875,9.258
147,1.395,36.816,14.636,42.081,31.374,17.763,6.918,9.259
148,1.391,36.912,14.608,42.11,31.388,17.801,6.959,9.341
149,1.372,36.923,14.674,42.129,31.367,17.558,6.797,9.097
150,1.359,37.048,14.702,42.072,31.37,17.474,6.917,9.136
151,1.352,37.135,14.683,42.042,31.37,17.473,6.796,9.095
152,1.355,37.098,14.757,42.071,31.381,17.839,6.877,9.176
153,1.342,37.174,14.632,42.09,31.37,17.924,6.837,9.137
154,1.339,37.347,14.678,42.091,31.391,18.25,6.999,9.299
155,1.319,37.387,14.702,42.043,31.367,18.05,6.838,9.016
156,1.316,37.215,14.733,42.042,31.374,18.251,6.837,9.013
157,1.287,37.338,14.714,42.033,31.367,18.172,6.674,9.013
158,1.277,37.483,14.64,42.061,31.381,18.496,6.835,9.054
159,1.263,37.552,14.651,42.062,31.377,18.459,6.837,9.095
160,1.25,37.648,14.596,42.109,31.388,18.459,6.958,9.298
161,1.221,37.774,14.678,42.033,31.37,18.215,6.716,9.016
162,1.217,37.89,14.702,42.052,31.381,18.212,6.794,9.013
163,1.198,37.939,14.71,42.052,31.374,18.09,6.673,8.972
164,1.194,37.921,14.597,42.09,31.374,18.17,6.794,9.094
165,1.172,38.036,14.654,42.071,31.374,18.171,6.836,9.176
166,1.162,38.161,14.721,42.081,31.384,18.13,6.918,9.259
167,1.145,38.182,14.737,42.043,31.37,17.845,6.674,9.015
168,1.142,38.259,14.722,42.071,31.377,17.802,6.753,9.094
169,1.129,38.394,14.671,42.052,31.37,17.72,6.714,8.973
170,1.129,38.501,14.643,42.071,31.374,17.801,6.713,9.053
171,1.129,38.511,14.651,42.138,31.37,17.883,6.713,9.095
172,1.119,38.655,14.647,42.072,31.381,18.128,6.794,9.095
173,1.106,38.781,14.748,42.042,31.367,18.211,6.673,8.973
174,1.106,38.888,14.699,42.052,31.377,18.456,6.713,9.013
175,1.099,38.601,14.694,42.052,31.381,18.581,6.713,8.972
176,1.096,38.426,14.683,42.061,31.377,18.623,6.672,8.972
177,1.089,38.568,14.749,42.042,31.381,18.542,6.713,8.931
178,1.06,38.617,14.742,42.042,31.377,18.581,6.632,8.972
179,1.053,38.628,14.71,42.052,31.374,18.501,6.631,8.809
180,1.017,38.724,14.726,42.014,31.367,18.459,6.59,8.808
181,1.04,38.868,14.644,42.071,31.384,18.377,6.671,8.889
182,1.024,38.975,14.666,42.052,31.381,18.377,6.55,8.93
183,1.03,38.765,14.713,42.09,31.388,18.458,6.712,8.89
184,1.004,38.821,14.741,42.023,31.367,18.215,6.591,8.809
185,0.981,38.956,14.683,42.032,31.381,18.253,6.631,8.808
186,0.984,39.015,14.686,42.042,31.363,18.05,6.468,8.767
187,0.991,38.9,14.725,42.071,31.381,18.089,6.629,8.929
188,0.984,39.043,14.745,42.033,31.37,17.967,6.59,8.931
189,0.994,39.15,14.773,42.09,31.384,18.088,6.671,8.972
190,0.984,39.17,14.746,42.023,31.374,17.845,6.428,8.769
191,0.981,39.017,14.749,42.052,31.374,18.046,6.507,8.807
192,0.977,39.14,14.628,42.052,31.363,18.129,6.386,8.808
193,0.987,39.285,14.658,42.081,31.384,18.537,6.507,8.93
194,0.981,39.344,14.729,42.043,31.377,18.581,6.508,8.931
195,0.974,39.153,14.761,42.052,31.388,18.785,6.589,9.012
196,0.968,39.247,14.679,42.004,31.374,18.787,6.468,8.85
197,0.974,39.353,14.608,42.051,31.37,18.868,6.467,8.849
198,0.968,39.383,14.728,42.033,31.367,18.788,6.386,8.767
199,0.958,39.095,14.738,42.052,31.377,18.909,6.466,8.929
200,0.958,39.227,14.745,42.071,31.377,18.788,6.507,8.85
201,0.945,39.314,14.792,42.052,31.381,18.828,6.549,8.971
202,0.925,39.296,14.754,42.023,31.374,18.666,6.386,8.809
203,0.938,39.325,14.726,42.052,31.377,18.583,6.507,8.808
204,0.932,39.469,14.706,42.042,31.384,18.541,6.467,8.889
205,0.912,39.537,14.78,42.052,31.377,18.5,6.548,8.809
206,0.931,39.145,14.75,42.061,31.37,18.296,6.549,8.93
207,0.909,39.189,14.695,42.052,31.374,18.254,6.508,8.85
208,0.918,39.333,14.632,42.033,31.367,18.131,6.549,8.849
209,0.925,39.421,14.662,42.042,31.374,18.13,6.63,8.849
210,0.931,39.134,14.694,42.042,31.374,18.008,6.55,8.889
211,0.925,39.256,14.694,42.042,31.384,18.048,6.59,8.849
212,0.944,39.401,14.761,42.052,31.384,18.211,6.549,8.808
213,0.935,39.412,14.671,42.033,31.377,18.293,6.549,8.808
214,0.925,39.134,14.721,42.042,31.374,18.376,6.59,8.808
215,0.941,39.256,14.694,42.023,31.367,18.377,6.549,8.767
216,0.958,39.401,14.749,42.052,31.384,18.621,6.712,8.726
217,0.945,39.45,14.773,42.042,31.381,18.582,6.632,8.766
218,0.948,39.019,14.734,42.071,31.395,18.663,6.834,8.929
219,0.925,39.13,14.699,42.042,31.37,18.501,6.674,8.728
220,0.931,39.256,14.651,42.042,31.377,18.459,6.631,8.766
221,0.925,39.305,14.694,42.023,31.37,18.337,6.631,8.726
222,0.915,39.286,14.741,42.052,31.381,18.376,6.834,8.848
223,0.909,39.43,14.792,42.042,31.377,18.295,6.755,8.808
224,0.918,39.537,14.738,42.052,31.381,18.335,6.876,8.93
225,0.918,39.557,14.734,42.052,31.37,18.132,6.796,8.809
226,0.922,38.973,14.749,42.042,31.374,18.049,6.714,8.808
227,0.909,39.11,14.753,42.033,31.374,17.967,6.835,8.767
228,0.908,39.217,14.765,42.052,31.37,17.885,6.796,8.889
229,0.928,39.123,14.781,42.033,31.37,17.884,6.836,8.849
230,0.925,39.074,14.761,42.042,31.37,17.884,6.796,8.889
231,0.922,39.198,14.66,42.052,31.374,17.884,6.714,8.809
232,0.909,39.295,14.709,42.033,31.367,18.006,6.794,8.848
233,0.925,38.817,14.753,42.042,31.377,18.291,6.917,8.849
234,0.922,38.888,14.753,42.042,31.381,18.254,6.796,8.849
235,0.944,39.033,14.625,42.042,31.384,18.375,6.795,8.889
236,0.938,39.111,14.686,42.013,31.374,18.254,6.714,8.809
237,0.941,38.7,14.733,42.023,31.377,18.253,6.754,8.767
238,0.922,38.83,14.706,41.994,31.367,18.172,6.673,8.807
239,0.918,38.994,14.788,42.023,31.381,18.13,6.875,8.889
240,0.922,39.063,14.781,42.042,31.37,18.008,6.796,8.849
241,0.928,38.603,14.785,42.081,31.388,18.007,6.958,8.971
242,0.909,38.694,14.758,42.129,31.374,17.722,6.756,8.769
243,0.908,38.858,14.722,42.033,31.374,17.638,6.836,8.807
244,0.892,38.908,14.788,42.023,31.374,17.475,6.714,8.848
245,0.892,38.544,14.746,42.042,31.377,17.554,6.916,9.011
246,0.895,38.694,14.71,42.042,31.384,17.514,6.756,9.013
247,0.905,38.82,14.729,42.061,31.388,17.514,6.998,9.176
248,0.899,38.841,14.722,42.023,31.381,17.27,6.757,8.933
249,0.908,38.361,14.773,42.023,31.381,17.308,6.836,8.972
250,0.915,38.5,14.785,42.032,31.37,17.309,6.796,8.972
251,0.931,38.626,14.816,42.042,31.381,17.39,6.836,9.094
252,0.935,38.656,14.758,42.042,31.381,17.594,6.877,9.136
253,0.948,38.379,14.757,42.061,31.384,17.881,7.0,9.258
254,0.941,38.491,14.734,42.033,31.374,17.843,6.879,9.097
255,0.935,38.607,14.808,42.013,31.377,18.005,6.837,9.095
256,0.938,38.311,14.773,42.023,31.381,17.966,6.796,8.973
257,0.945,38.222,14.691,42.023,31.388,18.047,6.917,9.175
258,0.948,38.374,14.64,42.052,31.381,17.967,6.878,9.096
259,0.945,38.472,14.701,42.052,31.395,17.885,7.0,9.258
260,0.932,38.041,14.753,42.033,31.374,17.64,6.797,8.975
261,0.931,38.142,14.746,42.032,31.374,17.637,6.877,9.013
262,0.925,38.268,14.8,42.013,31.384,17.515,6.837,8.932
263,0.915,38.394,14.672,42.032,31.377,17.514,6.999,8.972
264,0.915,37.791,14.729,42.023,31.377,17.473,6.879,9.013
265,0.915,37.91,14.8,42.042,31.384,17.514,7.0,9.054
266,0.912,38.026,14.805,42.033,31.374,17.27,6.838,8.932
267,0.918,38.113,14.781,42.023,31.381,17.227,6.877,8.931
268,0.922,37.587,14.722,42.023,31.377,17.186,6.959,8.89
269,0.922,37.735,14.702,42.032,31.377,17.185,6.919,9.012
270,0.925,37.842,14.679,42.042,31.374,17.185,6.959,8.932
271,0.925,37.92,14.76,42.023,31.381,17.348,6.919,9.093
272,0.938,37.71,14.785,42.004,31.363,17.634,6.919,8.851
273,0.938,37.861,14.781,42.023,31.374,17.962,6.919,8.93
274,0.945,38.006,14.718,42.013,31.367,18.21,6.959,8.89
275,0.958,38.046,14.757,42.023,31.374,18.415,6.919,8.971
276,0.968,37.279,14.796,41.994,31.374,18.458,6.919,8.891
277,0.945,37.396,14.789,42.003,31.374,18.581,6.878,8.849
278,0.941,37.532,14.801,42.003,31.374,18.501,6.796,8.971
279,0.932,37.524,14.73,42.003,31.367,18.296,6.917,8.85
280,0.938,37.303,14.71,42.032,31.381,18.457,6.919,8.971
281,0.948,37.435,14.714,42.013,31.381,18.255,6.959,8.931
282,0.935,37.599,14.765,42.051,31.388,18.253,6.96,8.931
283,0.918,37.179,14.777,41.994,31.37,18.05,6.838,8.89
284,0.935,37.031,14.734,42.003,31.374,18.048,6.918,8.93
285,0.925,37.173,14.734,41.975,31.367,17.804,6.796,8.931
286,0.935,37.309,14.757,42.022,31.384,17.842,6.958,9.053
287,0.941,36.821,14.777,42.013,31.377,17.721,6.919,9.054
288,0.951,36.922,14.816,42.061,31.391,17.76,7.081,9.135
289,0.945,37.019,14.859,41.994,31.377,17.516,6.839,8.974
290,0.951,37.135,14.797,42.013,31.374,17.514,6.877,9.013
291,0.961,36.743,14.738,42.013,31.367,17.595,6.837,8.85
292,0.955,36.902,14.765,42.042,31.384,17.84,6.877,9.011
293,0.951,37.038,14.804,41.994,31.384,18.087,6.959,9.013
294,0.951,37.116,14.836,42.032,31.384,18.211,7.0,9.094
295,0.958,36.426,14.731,42.004,31.374,18.212,6.838,8.932
296,0.968,36.611,14.769,42.013,31.377,18.293,6.877,8.931
297,0.964,36.738,14.75,42.004,31.374,18.213,6.796,8.931
298,0.974,36.816,14.804,42.023,31.384,18.293,6.917,9.093
299,0.958,36.481,14.797,42.004,31.381,18.254,6.837,9.014
300,0.961,36.64,14.789,42.013,31.377,18.131,6.958,8.972
301,0.948,36.748,14.797,41.975,31.37,17.886,6.838,8.931
302,0.958,36.816,14.672,42.042,31.381,17.843,6.796,8.972
303,0.951,36.375,14.745,42.023,31.377,17.721,6.795,8.931
304,0.941,36.496,14.804,42.004,31.381,17.679,6.917,9.012
305,0.938,36.621,14.812,41.994,31.37,17.475,6.878,9.013
306,0.938,36.651,14.707,42.003,31.374,17.392,6.877,9.054
307,0.951,36.153,14.765,42.061,31.367,17.228,6.837,8.932
308,0.945,36.321,14.757,42.004,31.374,17.105,6.877,9.053
309,0.958,36.428,14.773,42.003,31.377,17.144,6.959,8.973
310,0.958,36.237,14.804,42.013,31.377,17.063,6.838,9.013
311,0.961,36.168,14.832,42.004,31.377,17.225,6.837,9.013
312,0.955,36.273,14.801,41.984,31.381,17.349,6.837,9.013
313,0.961,36.408,14.762,42.003,31.374,17.594,6.837,8.972
314,0.945,35.853,14.792,41.965,31.37,17.637,6.837,8.931
315,0.958,35.992,14.82,42.003,31.374,17.84,6.877,8.931
316,0.964,36.118,14.832,41.994,31.388,17.883,6.877,8.972
317,0.974,36.244,14.75,42.013,31.395,17.924,6.877,9.013
318,0.955,35.823,14.71,41.975,31.37,17.762,6.674,8.891
319,0.948,35.991,14.769,42.003,31.374,17.801,6.794,8.93
320,0.932,36.108,14.785,41.984,31.37,17.476,6.673,8.89
321,0.941,36.215,14.816,41.994,31.384,17.554,6.916,8.971
322,0.941,35.784,14.832,41.975,31.377,17.433,6.878,9.013
323,0.945,35.972,14.809,42.022,31.395,17.432,6.959,9.094
324,0.935,36.089,14.754,41.984,31.377,17.147,6.756,8.932
325,0.935,36.157,14.804,42.003,31.377,16.982,6.836,8.972
326,0.925,35.669,14.812,41.994,31.37,16.736,6.714,8.891
327,0.922,35.808,14.832,42.003,31.381,16.734,6.835,9.093
328,0.922,35.934,14.77,41.984,31.377,16.571,6.796,8.973
329,0.931,36.002,14.746,42.013,31.388,16.529,6.917,9.175
330,0.925,35.6,14.71,41.984,31.374,16.325,6.796,8.933
331,0.938,35.778,14.757,41.994,31.384,16.445,6.836,8.972
332,0.951,35.885,14.812,41.984,31.374,16.487,6.755,8.931
333,0.945,35.915,14.871,42.013,31.381,16.609,6.876,9.012
334,0.941,35.513,14.739,41.994,31.374,16.692,6.837,8.972
335,0.951,35.662,14.761,41.994,31.384,16.733,6.837,9.013
336,0.954,35.779,14.804,41.984,31.374,16.693,6.796,8.891
337,0.945,35.492,14.859,41.984,31.367,16.733,6.755,8.93
338,0.941,35.441,14.821,41.984,31.377,16.734,6.836,8.972
339,0.932,35.556,14.828,41.984,31.377,16.774,6.877,8.972
340,0.941,35.653,14.797,41.994,31.377,16.694,6.877,8.931
341,0.928,35.328,14.734,41.984,31.374,16.611,6.796,9.012
342,0.918,35.478,14.757,41.984,31.374,16.488,6.836,9.013
343,0.912,35.595,14.824,41.975,31.374,16.528,6.796,8.972
344,0.922,35.74,14.844,42.003,31.384,16.61,6.836,9.094
345,0.912,35.233,14.758,42.013,31.384,16.529,6.877,9.095
346,0.918,35.401,14.773,42.013,31.374,16.488,6.877,9.095
347,0.899,35.489,14.781,41.965,31.37,16.365,6.837,8.973
348,0.905,35.595,14.804,41.993,31.37,16.283,6.837,9.053
349,0.902,35.28,14.848,41.955,31.367,16.241,6.714,8.973
350,0.931,35.487,14.879,42.003,31.384,16.404,6.957,9.094
351,0.925,35.614,14.805,41.994,31.384,16.527,6.878,9.054
352,0.938,35.721,14.828,42.09,31.388,16.854,6.959,9.135
353,0.922,35.223,14.758,41.976,31.374,16.898,6.756,8.974
354,0.935,35.381,14.839,41.994,31.374,17.101,6.836,8.972
355,0.945,35.488,14.797,41.965,31.36,17.144,6.714,8.85
356,0.945,35.585,14.765,42.003,31.38,17.429,6.876,9.011
357,0.941,35.27,14.804,41.984,31.384,17.473,6.837,8.932
358,0.941,35.439,14.812,42.013,31.391,17.636,6.958,9.012
359,0.925,35.537,14.859,41.984,31.377,17.434,6.797,8.891
360,0.922,35.567,14.836,42.003,31.384,17.351,6.795,8.93
361,0.912,35.183,14.875,41.984,31.37,17.309,6.755,8.768
362,0.912,35.323,14.813,41.994,31.384,17.349,6.917,8.97
363,0.908,35.43,14.805,41.994,31.391,17.187,6.878,8.931
364,0.899,35.316,14.812,42.003,31.377,17.308,6.918,9.053
365,0.889,35.267,14.863,41.965,31.37,16.984,6.796,8.932
366,0.892,35.41,14.813,41.993,31.381,16.899,6.755,8.931
367,0.899,35.546,14.754,42.003,31.37,16.776,6.795,8.931
368,0.905,35.087,14.788,42.003,31.384,16.734,6.877,8.972
369,0.918,35.188,14.797,41.994,31.384,16.653,6.877,8.972
370,0.899,35.314,14.82,41.994,31.384,16.611,6.837,9.013
371,0.899,35.421,14.816,42.003,31.377,16.692,6.755,8.85
372,0.895,35.268,14.867,41.984,31.377,16.815,6.836,8.889
373,0.925,35.449,14.758,42.013,31.377,16.979,6.837,8.89
374,0.912,35.575,14.789,42.013,31.384,17.143,6.796,8.971
375,0.931,35.682,14.855,42.032,31.384,17.307,6.795,8.891
376,0.922,35.127,14.864,41.975,31.377,17.187,6.673,8.768
377,0.925,35.284,14.809,41.994,31.377,17.308,6.713,8.807
378,0.918,35.401,14.766,41.955,31.37,17.268,6.632,8.726
379,0.922,35.508,14.753,42.013,31.381,17.39,6.834,8.766
380,0.922,35.259,14.796,42.051,31.388,17.228,6.796,8.807
381,0.922,35.449,14.847,42.033,31.391,17.389,6.917,8.848
382,0.902,35.518,14.856,41.975,31.377,17.147,6.634,8.686
383,0.892,35.586,14.844,41.994,31.381,17.104,6.753,8.766
384,0.892,35.231,14.801,41.965,31.367,17.022,6.673,8.604
385,0.895,35.401,14.82,42.003,31.387,16.981,6.794,8.846
386,0.895,35.489,14.863,42.003,31.384,16.899,6.714,8.767
387,0.886,35.537,14.875,42.023,31.384,16.817,6.876,8.929
388,0.892,35.356,14.833,41.984,31.377,16.613,6.715,8.687
389,0.902,35.507,14.778,41.975,31.381,16.57,6.713,8.725
390,0.899,35.633,14.765,41.984,31.381,16.488,6.672,8.685
391,0.899,35.328,14.792,41.994,31.384,16.569,6.753,8.807
392,0.908,35.229,14.804,42.003,31.377,16.692,6.754,8.726
393,0.908,35.353,14.894,42.003,31.37,16.774,6.754,8.807
394,0.895,35.459,14.766,41.984,31.374,16.897,6.673,8.726
395,0.908,35.355,14.796,41.984,31.377,16.979,6.713,8.644
396,0.918,35.507,14.816,42.003,31.381,17.102,6.632,8.765
397,0.915,35.643,14.852,41.975,31.384,17.063,6.631,8.726
398,0.918,35.759,14.899,41.994,31.388,17.062,6.712,8.685
399,0.909,35.454,14.848,41.975,31.377,16.9,6.632,8.603
400,0.902,35.594,14.828,41.974,31.384,16.898,6.712,8.724
401,0.886,35.682,14.75,41.965,31.37,16.654,6.672,8.644
402,0.882,35.837,14.812,42.013,31.384,16.774,6.794,8.765
403,0.905,35.512,14.852,41.984,31.374,16.734,6.755,8.807
404,0.902,35.681,14.922,42.032,31.394,16.856,6.876,8.808
405,0.879,35.779,14.786,41.985,31.37,16.654,6.715,8.767
406,0.885,35.857,14.816,42.003,31.377,16.611,6.754,8.767
407,0.879,35.618,14.813,41.975,31.37,16.448,6.632,8.685
408,0.885,35.798,14.855,41.994,31.384,16.568,6.794,8.807
409,0.902,35.886,14.879,41.994,31.384,16.529,6.877,8.889
410,0.902,35.944,14.899,42.032,31.388,16.691,6.959,8.89
411,0.899,35.647,14.888,41.975,31.374,16.652,6.797,8.809
412,0.899,35.807,14.72,42.013,31.381,16.936,6.877,8.808
413,0.912,35.924,14.835,41.994,31.377,17.264,6.837,8.726
414,0.912,35.964,14.86,42.003,31.384,17.43,6.918,8.807
415,0.922,35.705,14.868,41.994,31.384,17.595,6.878,8.808
416,0.918,35.856,14.758,41.984,31.384,17.799,6.877,8.848
417,0.899,35.982,14.831,42.08,31.374,17.802,6.796,8.727
418,0.889,35.897,14.805,42.004,31.384,17.883,6.795,8.726
419,0.892,35.915,14.808,42.013,31.384,17.884,6.877,8.807
420,0.892,36.05,14.844,42.004,31.384,17.884,6.877,8.848
421,0.892,36.166,14.84,42.013,31.388,17.802,6.837,8.849
422,0.869,36.033,14.821,41.984,31.381,17.679,6.918,8.767
423,0.869,36.166,14.828,42.003,31.377,17.597,6.796,8.767
424,0.866,36.254,14.856,41.975,31.367,17.515,6.836,8.726
425,0.869,36.379,14.875,41.994,31.384,17.595,6.837,8.807
426,0.866,35.786,14.911,42.003,31.384,17.434,6.877,8.848
427,0.885,35.972,14.837,42.042,31.391,17.473,6.918,8.93
428,0.872,36.06,14.77,41.985,31.374,17.148,6.796,8.687
429,0.879,36.166,14.804,42.013,31.384,17.063,6.755,8.766
430,0.879,36.024,14.828,41.965,31.374,16.981,6.714,8.685
431,0.889,36.195,14.859,41.993,31.384,17.143,6.835,8.888
432,0.892,36.302,14.907,42.003,31.384,17.226,6.796,8.768
433,0.899,36.399,14.829,42.042,31.391,17.389,6.877,9.011
434,0.882,36.074,14.828,41.994,31.374,17.35,6.674,8.81
435,0.885,36.243,14.852,41.994,31.381,17.39,6.753,8.767
436,0.895,36.36,14.883,41.984,31.377,17.31,6.632,8.645
437,0.895,36.428,14.88,42.003,31.381,17.431,6.753,8.887
438,0.895,36.18,14.821,41.994,31.381,17.31,6.673,8.849
439,0.886,36.321,14.793,42.013,31.391,17.309,6.753,8.971
440,0.882,36.437,14.789,41.994,31.381,17.065,6.632,8.809
441,0.872,36.458,14.816,42.003,31.384,17.103,6.712,8.889
442,0.885,36.353,14.887,42.013,31.377,17.022,6.672,8.93
443,0.872,36.476,14.88,41.994,31.384,17.062,6.753,9.012
444,0.876,36.621,14.782,42.023,31.374,17.062,6.714,9.054
445,0.856,36.44,14.839,41.994,31.381,17.022,6.713,9.054
446,0.856,36.391,14.883,41.994,31.37,16.899,6.713,9.095
447,0.846,36.524,14.911,41.965,31.377,16.817,6.713,9.136
448,0.866,36.65,14.899,41.993,31.384,16.857,6.754,9.258
449,0.876,36.565,14.891,41.994,31.377,16.938,6.673,9.259
450,0.895,36.737,14.852,42.032,31.395,17.061,6.753,9.259
451,0.863,36.825,14.852,42.013,31.377,17.144,6.632,9.178
452,0.888,36.922,14.871,42.004,31.381,17.348,6.672,9.096
453,0.869,36.52,14.907,41.984,31.377,17.512,6.672,9.217
454,0.892,36.689,14.88,42.013,31.384,17.758,6.713,9.3
455,0.902,36.815,14.84,42.004,31.384,17.883,6.632,9.178
456,0.915,36.922,14.856,42.051,31.391,18.046,6.712,9.218
457,0.889,36.597,14.836,41.985,31.374,17.926,6.632,9.096
458,0.895,36.737,14.895,41.994,31.381,18.047,6.631,9.054
459,0.873,36.844,14.872,41.955,31.37,18.007,6.631,9.054
460,0.879,36.951,14.891,41.993,31.388,18.129,6.753,9.176
461,0.885,36.722,14.805,42.003,31.384,18.008,6.714,9.137
462,0.885,36.892,14.863,42.051,31.395,18.007,6.835,9.258
463,0.869,36.98,14.86,41.985,31.374,17.804,6.633,9.056
464,0.879,37.01,14.899,41.984,31.384,17.761,6.672,9.095
465,0.869,36.799,14.852,41.984,31.374,17.557,6.631,8.973
466,0.863,36.979,14.832,42.07,31.384,17.514,6.712,9.135
467,0.866,37.077,14.856,42.004,31.384,17.433,6.713,9.095
468,0.879,37.116,14.875,42.023,31.388,17.432,6.876,9.136
469,0.872,36.867,14.879,41.984,31.381,17.188,6.755,8.933
470,0.889,37.018,14.907,41.994,31.377,17.145,6.795,8.972
471,0.885,37.125,14.895,41.994,31.363,17.226,6.755,8.891
472,0.885,36.954,14.848,42.013,31.387,17.43,6.836,9.052
473,0.889,36.914,14.879,41.994,31.377,17.554,6.674,8.973
474,0.899,37.038,14.899,42.003,31.384,17.677,6.794,9.013
475,0.908,37.116,14.899,41.984,31.377,17.597,6.592,8.932
476,0.895,36.944,14.841,41.994,31.377,17.637,6.793,8.931
477,0.918,37.096,14.77,42.051,31.377,17.678,6.795,8.972
478,0.905,37.212,14.839,42.004,31.377,17.638,6.755,8.972
479,0.899,37.309,14.879,42.003,31.381,17.597,6.714,8.972
480,0.882,36.898,14.93,41.984,31.37,17.474,6.672,8.972
481,0.889,37.028,14.931,41.994,31.377,17.351,6.672,8.931
482,0.859,37.154,14.868,41.965,31.377,17.309,6.713,9.093
483,0.885,37.27,14.868,42.013,31.377,17.349,6.754,9.136
484,0.882,36.917,14.852,42.004,31.377,17.309,6.714,9.095
485,0.872,37.076,14.93,42.023,31.391,17.309,6.835,9.258
486,0.866,37.155,14.9,41.994,31.37,17.024,6.674,9.137
487,0.872,37.222,14.848,41.984,31.377,16.981,6.713,9.177
488,0.856,36.907,14.797,41.955,31.367,16.818,6.632,9.015
489,0.872,37.114,14.832,42.041,31.384,16.857,6.753,9.257
490,0.879,37.203,14.887,42.004,31.377,16.735,6.673,9.137
491,0.895,37.29,14.895,42.032,31.388,16.937,6.835,9.258
492,0.882,37.013,14.938,41.975,31.374,16.817,6.674,9.056
493,0.892,37.154,14.861,41.994,31.377,16.938,6.631,9.095
494,0.886,37.261,14.848,41.975,31.374,16.898,6.631,9.014
495,0.902,37.31,14.875,41.994,31.384,17.061,6.712,9.176
496,0.899,36.994,14.954,41.994,31.384,17.144,6.713,9.137
497,0.908,37.135,14.962,42.013,31.391,17.185,6.754,9.217
498,0.892,37.222,14.869,41.965,31.374,16.941,6.592,9.015
499,0.882,37.146,14.821,42.003,31.384,16.98,6.671,9.094
500,0.889,37.165,14.801,41.984,31.374,16.858,6.55,8.932
501,0.885,37.309,14.89,42.003,31.384,16.898,6.712,9.093
502,0.879,37.406,14.876,41.984,31.381,16.817,6.672,9.014
503,0.876,36.909,14.934,42.003,31.388,16.857,6.753,9.176
504,0.866,36.99,14.864,41.984,31.381,16.776,6.592,9.055
505,0.869,37.135,14.879,42.003,31.381,16.775,6.671,9.135
506,0.872,37.232,14.926,42.003,31.384,16.572,6.631,9.095
507,0.866,36.878,14.942,41.994,31.381,16.488,6.753,9.217
508,0.866,36.999,14.939,42.003,31.384,16.487,6.673,9.218
509,0.869,37.144,14.911,41.994,31.381,16.406,6.753,9.3
510,0.869,37.213,14.911,41.975,31.374,16.243,6.673,9.178
511,0.879,36.763,14.81,41.994,31.381,16.485,6.672,9.137
512,0.892,36.931,14.867,42.003,31.381,16.65,6.672,9.217
513,0.892,37.048,14.926,41.994,31.384,16.855,6.672,9.259
514,0.892,37.135,14.915,42.003,31.384,17.101,6.672,9.178
515,0.895,36.839,14.903,42.003,31.381,17.144,6.672,9.259
516,0.902,36.97,14.911,41.994,31.381,17.226,6.672,9.137
517,0.889,37.096,14.915,41.965,31.384,17.227,6.713,9.177
518,0.895,37.184,14.946,41.993,31.381,17.389,6.672,9.177
519,0.886,36.811,14.974,41.994,31.384,17.31,6.672,9.259
520,0.885,36.998,14.955,42.013,31.388,17.309,6.713,9.259
521,0.859,37.058,14.904,41.975,31.374,17.146,6.632,9.178
522,0.853,37.097,14.884,41.984,31.384,17.063,6.672,9.177
523,0.853,36.666,14.868,41.965,31.374,16.9,6.55,9.096
524,0.875,36.863,14.954,42.003,31.388,16.979,6.712,9.217
525,0.866,36.942,14.927,41.994,31.384,16.858,6.672,9.259
526,0.869,36.798,14.837,42.032,31.398,16.938,6.753,9.341
527,0.859,36.739,14.86,41.985,31.377,16.492,6.632,9.097
528,0.866,36.873,14.875,41.984,31.381,16.406,6.753,9.258
529,0.872,36.961,14.926,41.975,31.37,16.283,6.551,9.015
530,0.869,36.588,14.958,42.003,31.384,16.363,6.712,9.176
531,0.866,36.689,14.962,41.984,31.384,16.323,6.754,9.177
532,0.872,36.853,14.915,42.013,31.391,16.608,6.876,9.259
533,0.869,36.913,14.907,41.984,31.374,16.61,6.633,9.056
534,0.879,36.53,14.903,41.994,31.384,16.814,6.712,9.054
535,0.892,36.65,14.97,41.975,31.381,16.857,6.591,8.932
536,0.889,36.786,14.919,42.013,31.388,17.142,6.712,9.053
537,0.879,36.874,14.845,41.984,31.391,17.063,6.794,8.973
538,0.889,36.577,14.871,42.032,31.391,17.225,6.755,9.094
539,0.876,36.699,14.903,41.985,31.377,17.227,6.714,8.851
540,0.872,36.844,14.903,41.994,31.384,17.186,6.713,8.889
541,0.872,36.913,14.95,41.984,31.377,17.185,6.713,8.849
542,0.869,36.434,15.032,42.003,31.388,17.185,6.794,8.93
543,0.869,36.602,14.873,42.003,31.384,17.185,6.755,8.85
544,0.856,36.709,14.907,41.994,31.377,17.226,6.795,8.808
545,0.846,36.758,14.919,41.975,31.384,17.105,6.755,8.767
546,0.843,36.413,14.974,41.974,31.377,17.144,6.754,8.807
547,0.866,36.573,14.923,41.994,31.388,17.063,6.795,8.808
548,0.859,36.699,14.841,41.984,31.388,16.981,6.836,8.767
549,0.882,36.748,14.817,42.032,31.388,16.98,6.837,8.685
550,0.866,36.365,14.824,41.975,31.381,16.858,6.755,8.603
551,0.872,36.515,14.906,41.984,31.384,16.938,6.754,8.643
552,0.869,36.631,14.923,41.984,31.381,17.142,6.795,8.603
553,0.879,36.373,14.958,42.003,31.384,17.348,6.836,8.684
554,0.869,36.332,14.915,42.023,31.384,17.472,6.796,8.603
555,0.889,36.486,14.958,42.013,31.388,17.595,6.795,8.602
556,0.885,36.554,14.923,41.965,31.384,17.556,6.755,8.521
557,0.885,36.171,14.954,41.993,31.384,17.636,6.754,8.52
558,0.876,36.254,14.892,41.955,31.374,17.597,6.714,8.439
559,0.885,36.427,14.923,41.993,31.391,17.759,6.794,8.601
560,0.876,36.515,14.892,41.994,31.384,17.72,6.877,8.521
561,0.879,36.085,14.938,42.08,31.388,17.638,6.796,8.601
562,0.853,36.186,14.915,41.985,31.381,17.434,6.836,8.48
563,0.856,36.34,14.946,41.965,31.384,17.513,6.837,8.52
564,0.83,36.38,14.923,41.955,31.377,17.392,6.796,8.601
565,0.836,36.074,14.923,41.993,31.388,17.432,6.958,8.684
566,0.836,36.205,14.938,42.003,31.388,17.351,6.878,8.644
567,0.846,36.35,14.978,42.013,31.398,17.309,7.0,8.725
568,0.843,36.399,14.974,41.975,31.381,16.984,6.797,8.603
569,0.849,36.083,14.955,41.994,31.381,16.98,6.795,8.562
570,0.856,36.186,14.962,41.955,31.37,16.818,6.714,8.521
571,0.869,36.369,14.931,42.003,31.377,17.019,6.876,8.723
572,0.863,36.4,14.892,41.994,31.381,17.021,6.918,8.685
573,0.866,35.988,14.95,42.003,31.395,17.224,7.041,8.847
574,0.872,36.098,14.943,41.984,31.374,17.145,6.757,8.646
575,0.895,36.224,14.904,42.003,31.384,17.226,6.836,8.684
576,0.899,36.264,14.868,41.984,31.381,17.267,6.796,8.603
577,0.895,35.881,14.911,42.003,31.388,17.308,6.877,8.724
578,0.912,35.992,14.958,41.984,31.381,17.349,6.837,8.766
579,0.931,36.137,14.993,42.003,31.391,17.269,6.877,8.929
580,0.941,35.966,14.998,41.975,31.381,17.146,6.796,8.809
581,0.967,35.983,15.002,41.994,31.384,17.063,6.795,8.808
582,0.987,36.156,14.939,41.994,31.384,17.062,6.795,8.848
583,1.01,36.254,14.935,41.994,31.384,16.94,6.795,8.971
584,1.027,35.727,14.993,41.965,31.391,17.02,6.714,9.053
585,1.03,35.808,14.951,41.974,31.381,16.94,6.754,9.013
586,1.04,35.953,14.876,41.984,31.384,16.858,6.795,9.013
587,1.046,36.031,14.911,41.965,31.377,16.776,6.714,9.054
588,1.082,35.725,14.911,42.013,31.384,16.775,6.794,9.176
589,1.099,35.885,14.97,41.994,31.388,16.653,6.795,9.137
590,1.128,36.05,14.99,42.013,31.391,16.692,6.795,9.136
591,1.129,36.051,14.959,41.975,31.377,16.53,6.714,9.136
592,1.148,35.639,14.931,41.984,31.381,16.651,6.672,9.136
593,1.161,35.788,14.907,41.955,31.374,16.611,6.631,9.014
594,1.197,35.934,14.942,42.003,31.384,16.855,6.794,9.257
595,1.198,36.002,14.97,41.975,31.384,16.816,6.795,9.178
596,1.207,35.725,14.974,42.013,31.402,16.979,6.836,9.34
597,1.207,35.818,14.857,41.975,31.377,16.777,6.674,9.057
598,1.201,35.972,14.875,41.994,31.374,16.775,6.672,9.095
599,1.188,36.031,14.93,41.975,31.374,16.694,6.631,9.014
600,1.188,35.591,14.939,41.994,31.384,16.693,6.753,9.176
601,1.175,35.721,14.946,41.975,31.374,16.652,6.714,9.177
602,1.171,35.856,15.013,42.013,31.384,16.652,6.794,9.259
603,1.165,35.867,14.904,41.975,31.384,16.408,6.673,9.056
604,1.165,35.627,14.911,41.984,31.381,16.486,6.713,9.135
605,1.158,35.778,14.989,41.994,31.384,16.406,6.713,9.014
606,1.174,35.895,15.037,41.984,31.388,16.405,6.754,9.094
607,1.175,35.589,15.002,41.994,31.384,16.283,6.754,9.136
608,1.158,35.548,14.924,41.994,31.391,16.323,6.795,9.177
609,1.155,35.663,14.88,41.975,31.384,16.242,6.673,9.015
610,1.155,35.798,14.833,41.994,31.391,16.322,6.753,9.054
611,1.161,35.425,14.953,41.994,31.384,16.364,6.836,9.013
612,1.161,35.527,15.005,41.994,31.391,16.567,6.796,9.054
613,1.152,35.662,14.99,42.003,31.388,16.651,6.714,9.013
614,1.129,35.769,14.861,42.023,31.384,16.733,6.794,9.054
615,1.106,35.425,14.911,41.975,31.381,16.774,6.714,8.932
616,1.089,35.546,14.962,41.974,31.388,16.856,6.713,8.931
617,1.099,35.711,14.994,41.984,31.391,17.02,6.754,8.972
618,1.089,35.789,14.986,41.975,31.384,16.899,6.754,9.013
619,1.079,35.406,14.986,42.013,31.395,16.979,6.795,8.891
620,1.053,35.517,14.908,41.956,31.377,16.818,6.673,8.89
621,1.04,35.643,14.931,42.003,31.377,16.694,6.672,8.809
622,1.04,35.712,14.923,41.956,31.374,16.53,6.713,8.808
623,1.033,35.472,15.005,41.993,31.377,16.61,6.794,8.889
624,1.02,35.614,14.947,41.984,31.384,16.61,6.836,8.849
625,1.023,35.769,14.939,42.089,31.391,16.61,6.958,9.011
626,1.004,35.77,14.923,41.985,31.377,16.407,6.797,8.891
627,0.994,35.358,14.95,41.984,31.384,16.405,6.795,8.809
628,0.987,35.488,15.001,41.984,31.374,16.243,6.755,8.726
629,0.987,35.624,14.978,41.975,31.381,16.282,6.917,8.848
630,0.984,35.644,14.974,41.984,31.381,16.201,6.837,8.849
631,0.984,35.433,14.962,41.994,31.388,16.322,6.918,8.808
632,0.971,35.604,14.955,41.984,31.384,16.404,6.756,8.726
633,0.961,35.721,14.947,41.984,31.388,16.73,6.876,8.726
634,0.964,35.425,15.036,41.984,31.381,16.856,6.837,8.766
635,0.961,35.364,14.975,41.965,31.388,16.979,6.877,8.767
636,0.951,35.517,14.916,41.984,31.391,17.061,6.837,8.726
637,0.935,35.605,14.954,41.965,31.381,17.103,6.877,8.766
638,0.905,35.289,14.954,41.974,31.377,17.063,6.755,8.726
639,0.882,35.392,14.99,41.965,31.381,17.144,6.795,8.726
640,0.898,35.556,15.006,41.984,31.374,17.104,6.877,8.766
641,0.882,35.672,15.041,42.013,31.391,17.022,6.796,8.807
642,0.885,35.28,14.963,42.004,31.388,17.062,6.755,8.808
643,0.856,35.411,14.951,41.975,31.377,16.94,6.754,8.767
644,0.862,35.556,14.974,41.984,31.388,16.898,6.754,8.767
645,0.843,35.624,15.005,41.955,31.374,16.817,6.754,8.807
646,0.839,35.404,14.998,41.993,31.384,16.897,6.876,8.93
647,0.839,35.556,14.928,42.003,31.374,16.776,6.796,8.85
648,0.846,35.739,14.97,42.042,31.394,16.897,6.958,8.971
649,0.843,35.76,14.935,41.966,31.377,16.613,6.797,8.891
650,0.836,35.137,14.958,41.965,31.381,16.57,6.795,8.768
651,0.836,35.294,14.97,41.984,31.374,16.57,6.714,8.685
652,0.836,35.42,15.029,41.994,31.388,16.854,6.916,8.888
653,0.836,35.47,14.936,41.984,31.388,16.898,6.837,8.849
654,0.849,35.432,14.962,42.013,31.391,17.223,7.04,9.011
655,0.843,35.527,14.982,41.965,31.381,17.105,6.757,8.769
656,0.846,35.643,15.021,41.984,31.377,17.185,6.795,8.767
657,0.853,35.664,15.01,41.965,31.37,17.145,6.673,8.685
658,0.843,35.338,14.932,41.993,31.388,17.267,6.875,8.888
659,0.833,35.469,14.9,42.003,31.388,17.268,6.755,8.849
660,0.817,35.604,14.884,42.003,31.398,17.308,6.917,8.93
661,0.826,35.356,14.946,41.965,31.388,17.024,6.756,8.809
662,0.826,35.325,15.017,41.965,31.388,16.94,6.754,8.848
663,0.817,35.469,15.021,41.965,31.388,16.898,6.673,8.849
664,0.813,35.595,14.967,42.022,31.391,16.898,6.794,8.971
665,0.8,35.308,14.939,41.994,31.388,16.817,6.795,8.972
666,0.807,35.411,15.013,41.984,31.391,16.775,6.836,9.053
667,0.803,35.537,15.037,41.955,31.377,16.49,6.714,8.932
668,0.794,35.643,14.986,41.984,31.388,16.406,6.754,9.012
669,0.813,35.203,14.959,41.975,31.388,16.405,6.836,8.972
670,0.813,35.343,14.915,41.984,31.388,16.405,6.837,9.094
671,0.823,35.488,14.954,41.994,31.384,16.527,6.796,8.973
672,0.826,35.557,14.982,41.965,31.384,16.61,6.836,9.053
673,0.823,35.26,15.052,41.974,31.384,16.855,6.796,8.973
674,0.807,35.382,14.955,41.965,31.377,17.06,6.795,9.013
675,0.82,35.555,14.993,41.984,31.384,17.266,6.836,9.094
676,0.826,35.624,15.006,41.975,31.384,17.39,6.837,9.014
677,0.843,35.433,15.052,41.994,31.391,17.472,6.877,9.054
678,0.826,35.537,15.026,41.975,31.381,17.351,6.796,8.973
679,0.826,35.672,15.021,41.965,31.377,17.472,6.795,9.013
680,0.813,35.693,15.025,41.946,31.377,17.27,6.714,8.972
681,0.807,35.3,14.885,41.993,31.388,17.227,6.876,9.053
682,0.8,35.42,14.962,41.984,31.388,17.227,6.837,9.135
683,0.813,35.585,15.021,42.013,31.398,17.308,6.999,9.258
684,0.797,35.557,15.018,41.946,31.377,17.065,6.797,9.056
685,0.813,35.385,14.916,41.974,31.384,17.062,6.836,9.054
686,0.807,35.517,14.974,41.965,31.377,16.859,6.755,8.973
687,0.813,35.634,14.994,41.984,31.391,16.816,6.876,9.175
688,0.82,35.414,15.025,41.965,31.384,16.735,6.918,9.177
689,0.826,35.393,15.045,41.984,31.391,16.774,7.0,9.299
690,0.823,35.517,15.026,41.965,31.381,16.531,6.879,9.097
691,0.826,35.624,15.002,41.955,31.384,16.569,6.918,9.176
692,0.826,35.328,14.986,41.965,31.381,16.651,6.919,9.096
693,0.826,35.459,14.994,41.984,31.388,16.814,6.959,9.176
694,0.836,35.575,15.013,41.965,31.388,16.857,6.96,9.137
695,0.843,35.682,14.986,41.974,31.395,16.938,6.96,9.217
696,0.83,35.232,14.908,41.955,31.381,16.898,6.838,9.056
697,0.83,35.391,14.954,41.974,31.384,16.857,6.837,9.135
698,0.836,35.527,15.009,41.994,31.384,16.816,6.918,9.095
699,0.836,35.614,15.049,41.965,31.388,16.816,6.878,9.136
700,0.846,35.395,15.08,41.984,31.388,16.775,6.918,9.055
701,0.82,35.508,15.061,41.946,31.384,16.653,6.837,9.013
702,0.813,35.662,15.034,41.965,31.381,16.611,6.837,9.013
703,0.8,35.702,14.983,41.946,31.381,16.651,6.837,9.054
704,0.833,35.338,15.037,41.974,31.388,16.692,6.958,9.054
705,0.826,35.497,15.053,41.965,31.391,16.652,6.878,9.095
706,0.83,35.633,15.01,42.022,31.395,16.611,6.877,9.136
707,0.807,35.644,14.916,41.975,31.377,16.488,6.755,8.974
708,0.813,35.395,14.993,41.965,31.384,16.528,6.754,8.972
709,0.816,35.517,14.978,41.936,31.37,16.366,6.632,8.931
710,0.82,35.681,15.033,41.993,31.391,16.486,6.834,8.972
711,0.807,35.674,15.025,41.965,31.388,16.609,6.714,8.972
712,0.82,35.347,15.064,42.003,31.398,16.977,6.916,9.094
713,0.803,35.469,14.905,41.965,31.374,16.858,6.715,8.851
714,0.81,35.585,15.001,41.965,31.384,17.142,6.754,8.889
715,0.81,35.375,15.025,41.955,31.384,17.145,6.592,8.768
716,0.816,35.412,15.061,41.984,31.395,17.267,6.712,8.807
717,0.826,35.537,14.987,41.965,31.391,17.43,6.632,8.848
718,0.817,35.643,14.92,41.965,31.398,17.554,6.753,8.971
719,0.816,35.29,14.892,41.965,31.388,17.433,6.632,8.687
720,0.829,35.401,14.973,41.965,31.391,17.391,6.631,8.807
721,0.839,35.575,15.001,41.974,31.384,17.31,6.631,8.686
722,0.856,35.644,15.072,41.984,31.391,17.268,6.672,8.766
723,0.875,35.29,15.041,41.975,31.391,17.308,6.631,8.726
724,0.902,35.449,15.002,41.974,31.391,17.349,6.672,8.766
725,0.938,35.604,15.025,41.955,31.384,17.187,6.55,8.604
726,0.948,35.682,15.068,41.984,31.391,17.145,6.63,8.643
727,0.961,35.319,15.08,41.975,31.391,16.982,6.59,8.603
728,0.968,35.469,15.018,41.974,31.388,16.818,6.631,8.684
729,1.013,35.595,15.006,41.965,31.391,16.775,6.55,8.603
730,1.033,35.653,14.939,41.955,31.384,16.694,6.63,8.643
731,1.072,35.318,14.97,41.965,31.384,16.571,6.55,8.603
732,1.112,35.449,15.009,41.965,31.384,16.692,6.549,8.602
733,1.158,35.614,15.045,41.974,31.384,16.855,6.63,8.602
734,1.178,35.644,15.002,41.974,31.388,16.857,6.631,8.643
735,1.21,35.472,15.013,41.994,31.395,16.938,6.55,8.562
736,1.24,35.566,15.029,41.946,31.384,16.817,6.468,8.521
737,1.244,35.711,15.057,41.945,31.388,16.857,6.507,8.52
738,1.273,35.693,15.073,41.926,31.381,16.776,6.386,8.317
739,1.312,35.444,15.057,41.974,31.395,16.978,6.547,8.518
740,1.342,35.575,15.041,41.974,31.388,16.818,6.549,8.52
741,1.397,35.72,14.971,41.994,31.402,16.897,6.712,8.561
742,1.398,35.425,14.99,41.936,31.381,16.654,6.429,8.439
743,1.378,35.402,15.045,41.955,31.384,16.53,6.588,8.438
744,1.356,35.517,15.037,41.945,31.381,16.447,6.468,8.357
745,1.326,35.653,14.979,42.003,31.384,16.406,6.629,8.559
746,1.313,35.462,14.998,41.965,31.384,16.405,6.672,8.48
747,1.319,35.585,15.06,41.993,31.391,16.365,6.631,8.479
748,1.293,35.711,15.057,41.936,31.377,16.08,6.468,8.357
749,1.273,35.827,15.096,41.974,31.388,16.117,6.589,8.356
750,1.228,35.339,15.085,41.936,31.377,15.915,6.59,8.275
751,1.211,35.488,15.065,41.974,31.388,16.075,6.671,8.436
752,1.129,35.633,15.01,41.965,31.384,16.199,6.672,8.357
753,1.054,35.711,15.041,41.984,31.398,16.403,6.794,8.478
754,1.001,35.52,15.065,41.946,31.377,16.283,6.551,8.316
755,0.965,35.681,15.006,41.955,31.388,16.404,6.63,8.274
756,0.916,35.846,14.951,41.965,31.384,16.527,6.631,8.274
757,0.811,35.896,15.001,41.955,31.384,16.528,6.672,8.274
758,0.644,35.283,14.998,41.955,31.388,16.488,6.631,8.233
759,0.489,35.439,15.037,41.984,31.395,16.609,6.753,8.395
760,0.335,35.566,15.065,41.936,31.388,16.407,6.632,8.194
761,0.236,35.615,15.069,41.955,31.388,16.486,6.712,8.192
762,0.15,35.615,15.057,41.945,31.384,16.365,6.672,8.11
763,0.107,35.759,15.014,41.974,31.384,16.486,6.753,8.272
764,0.039,35.885,15.017,41.955,31.388,16.325,6.795,8.274
765,-0.027,35.877,15.096,41.974,31.395,16.364,6.877,8.396
766,-0.103,35.388,15.053,41.946,31.388,16.08,6.755,8.194
767,-0.116,35.527,14.998,41.965,31.384,16.077,6.795,8.273
768,-0.1,35.653,14.955,41.965,31.384,15.995,6.836,8.274
769,-0.087,35.549,15.025,42.041,31.391,15.954,6.918,8.314
770,-0.038,35.576,15.061,41.956,31.388,15.953,6.959,8.234
771,0.053,35.701,15.08,41.965,31.388,16.076,6.96,8.355
772,0.142,35.789,15.12,41.955,31.388,16.199,6.878,8.234
773,0.257,35.473,15.019,41.965,31.388,16.363,6.959,8.273
774,0.365,35.614,15.025,41.955,31.381,16.608,7.0,8.233
775,0.487,35.74,15.033,41.936,31.391,16.692,7.001,8.192
776,0.592,35.847,15.104,41.955,31.388,16.733,7.001,8.232
777,0.642,35.416,15.042,41.936,31.381,16.815,6.879,8.273
778,0.711,35.585,15.002,41.945,31.384,16.775,6.959,8.274
779,0.737,35.692,14.982,41.926,31.381,16.734,6.919,8.314
780,0.799,35.808,14.939,41.964,31.388,16.774,7.0,8.315
781,0.839,35.464,15.044,41.974,31.384,16.694,7.041,8.315
782,0.875,35.643,15.111,41.994,31.402,16.733,7.123,8.396
783,0.879,35.721,15.089,41.946,31.384,16.449,7.002,8.316
784,0.892,35.818,15.022,42.003,31.384,16.406,7.001,8.356
785,0.886,35.483,15.021,41.927,31.377,16.202,6.919,8.315
786,0.895,35.643,15.072,41.974,31.384,16.2,7.081,8.396
787,0.892,35.759,15.108,41.965,31.384,16.078,7.042,8.519
788,0.902,35.799,15.077,41.965,31.395,15.955,7.164,8.601
789,0.895,35.569,15.049,41.955,31.384,15.709,6.962,8.318
790,0.892,35.701,15.037,41.955,31.395,15.748,6.96,8.396
791,0.905,35.837,15.049,41.945,31.388,15.829,6.96,8.356
792,0.905,35.857,15.053,41.955,31.391,16.033,7.082,8.478
793,0.899,35.579,15.084,41.945,31.391,16.076,7.042,8.438
794,0.895,35.74,15.03,41.955,31.388,16.117,7.001,8.519
795,0.908,35.856,15.033,41.955,31.381,16.158,7.001,8.358
796,0.902,35.541,15.076,41.955,31.391,16.24,7.041,8.437
797,0.905,35.519,15.092,41.955,31.391,16.2,7.001,8.438
798,0.915,35.672,15.096,41.974,31.388,16.159,7.082,8.438
799,0.912,35.769,15.085,41.965,31.388,16.078,7.002,8.479
800,0.892,35.646,15.038,41.946,31.388,15.955,7.001,8.438
801,0.905,35.788,14.994,41.945,31.388,15.872,6.96,8.479
802,0.895,35.895,15.029,41.936,31.381,15.709,6.96,8.52
803,0.899,36.021,15.076,41.955,31.398,15.707,7.0,8.601
804,0.895,35.418,15.084,41.936,31.384,15.626,7.041,8.562
805,0.899,35.613,15.003,42.003,31.398,15.666,7.123,8.764
806,0.869,35.692,15.049,41.956,31.377,15.381,6.961,8.604
807,0.876,35.779,15.072,41.945,31.388,15.46,6.96,8.684
808,0.876,35.521,15.1,41.917,31.37,15.176,6.878,8.684
809,0.898,35.701,15.12,41.964,31.391,15.295,7.0,8.766
810,0.905,35.827,15.147,41.965,31.384,15.297,7.041,8.685
811,0.921,35.896,15.116,41.984,31.402,15.54,7.123,8.847
812,0.912,35.522,15.026,41.946,31.388,15.502,6.921,8.686
813,0.918,35.701,15.057,41.955,31.384,15.664,6.919,8.766
814,0.922,35.789,15.131,41.917,31.377,15.747,6.837,8.645
815,0.938,35.857,15.101,41.964,31.391,15.951,7.04,8.806
816,0.928,35.522,15.003,41.936,31.391,16.035,6.96,8.767
817,0.925,35.691,15.068,41.974,31.395,16.158,7.082,8.848
818,0.922,35.798,15.045,41.946,31.391,16.078,6.88,8.767
819,0.931,35.819,15.084,41.955,31.384,16.158,6.796,8.889
820,0.928,35.569,15.127,41.945,31.388,16.118,6.877,8.687
821,0.922,35.711,15.081,41.955,31.384,16.118,6.959,8.847
822,0.909,35.827,15.03,41.965,31.388,16.199,6.919,8.889
823,0.912,35.608,15.025,41.946,31.398,16.2,7.041,8.971
824,0.905,35.586,15.053,41.945,31.388,16.119,6.879,8.85
825,0.912,35.74,15.108,41.945,31.388,16.118,6.877,8.889
826,0.905,35.856,15.073,41.974,31.391,16.158,6.959,8.93
827,0.918,35.637,14.991,41.965,31.391,16.159,6.878,8.972
828,0.925,35.759,15.052,41.955,31.384,16.078,6.877,9.053
829,0.925,35.876,15.049,41.945,31.381,16.036,6.877,8.891
830,0.931,35.973,15.096,41.955,31.388,15.873,6.796,8.849
831,0.918,35.513,15.112,41.917,31.381,15.993,6.877,8.971
832,0.941,35.681,15.128,41.974,31.388,16.035,6.837,8.972
833,0.945,35.827,15.019,41.984,31.388,16.076,6.796,9.013
834,0.958,35.934,15.072,41.975,31.391,16.239,6.877,8.932
835,0.945,35.551,15.096,41.907,31.384,16.2,6.715,8.85
836,0.954,35.701,15.092,41.935,31.388,16.322,6.754,8.849
837,0.951,35.827,15.065,41.917,31.377,16.201,6.673,8.767
838,0.958,35.924,15.026,41.983,31.388,16.363,6.794,8.929
839,0.935,35.561,14.986,41.955,31.388,16.242,6.755,8.89
840,0.954,35.768,15.068,42.013,31.398,16.241,6.876,8.93
841,0.941,35.847,15.049,41.936,31.381,16.038,6.715,8.809
842,0.941,35.886,15.111,41.945,31.391,16.035,6.672,8.808
843,0.912,35.589,15.085,41.907,31.374,15.873,6.631,8.686
844,0.922,35.807,15.057,42.031,31.391,15.953,6.794,8.847
845,0.915,35.915,15.065,41.956,31.384,15.913,6.755,8.849
846,0.935,35.944,15.112,41.984,31.398,15.953,6.957,8.971
847,0.918,35.667,15.081,41.946,31.377,15.628,6.797,8.728
848,0.941,35.817,15.092,41.936,31.384,15.625,6.877,8.807
849,0.945,35.934,15.049,41.955,31.381,15.503,6.755,8.686
850,0.948,35.791,15.033,41.974,31.391,15.542,6.917,8.807
851,0.958,35.809,15.014,42.032,31.388,15.502,6.878,8.889
852,0.961,35.953,15.056,41.994,31.395,15.705,6.959,8.93
853,0.948,36.031,15.123,41.955,31.381,15.666,6.797,8.768
854,0.951,35.543,15.038,41.965,31.391,15.869,6.877,8.767
855,0.971,35.662,15.061,41.955,31.388,15.831,6.837,8.767
856,0.977,35.817,15.096,41.974,31.384,15.993,6.918,8.807
857,0.984,35.905,15.104,41.955,31.381,16.035,6.837,8.767
858,0.981,35.599,15.135,41.955,31.398,16.076,6.958,8.889
859,0.971,35.74,15.112,41.955,31.384,15.995,6.878,8.768
860,0.974,35.875,15.112,41.965,31.374,15.995,6.918,8.767
861,0.977,35.973,15.022,41.965,31.377,15.872,6.878,8.685
862,0.968,35.6,15.072,41.946,31.384,15.912,6.959,8.847
863,0.961,35.74,15.065,41.945,31.381,15.872,6.96,8.767
864,0.961,35.875,15.119,41.945,31.384,15.912,7.0,8.848
865,0.958,35.915,15.054,41.945,31.377,15.709,6.96,8.727
866,0.971,35.657,15.065,41.965,31.388,15.707,7.0,8.766
867,0.977,35.807,15.053,41.965,31.388,15.666,6.919,8.767
868,0.974,35.915,15.061,41.965,31.388,15.585,7.041,8.848
869,0.987,35.964,15.131,41.955,31.391,15.421,7.042,8.849
870,0.994,35.667,15.081,41.945,31.388,15.42,7.001,8.849
871,1.0,35.798,15.127,41.955,31.384,15.42,7.001,8.767
872,1.004,35.914,14.991,41.955,31.388,15.623,7.041,8.848
873,1.01,35.964,15.052,41.965,31.395,15.91,7.001,8.849
874,1.014,35.667,15.092,41.946,31.395,15.994,7.082,8.808
875,1.033,35.856,15.12,41.945,31.391,16.076,7.042,8.808
876,1.017,35.944,15.026,41.926,31.381,16.158,6.92,8.767
877,1.027,35.782,15.033,41.945,31.388,16.2,6.959,8.726
878,1.017,35.77,15.033,41.917,31.374,16.119,6.878,8.685
879,1.023,35.933,15.08,41.955,31.391,16.321,6.959,8.807
880,1.023,36.04,15.147,41.945,31.391,16.282,6.96,8.808
881,1.027,35.639,15.128,41.965,31.398,16.241,7.082,8.93
882,1.007,35.702,15.116,41.917,31.388,16.038,6.88,8.809
883,1.001,35.856,15.061,41.945,31.384,16.076,6.918,8.889
884,1.01,35.934,15.084,41.926,31.377,15.873,6.796,8.809
885,1.014,35.839,15.143,41.945,31.384,15.871,6.917,8.97
886,1.004,35.992,15.097,41.965,31.388,15.831,6.878,9.013
887,1.007,36.127,15.046,41.955,31.398,15.708,6.959,9.054
888,1.004,36.196,15.022,41.945,31.384,15.504,6.756,8.932
889,1.02,35.746,15.045,41.945,31.388,15.461,6.836,8.972
890,1.04,35.885,15.068,41.936,31.391,15.339,6.796,8.931
891,1.043,36.021,15.112,41.945,31.388,15.5,6.877,9.053
892,1.05,36.08,15.136,41.926,31.384,15.583,6.877,8.973
893,1.04,35.869,15.038,41.926,31.384,15.665,6.837,9.013
894,1.053,36.03,15.068,41.936,31.384,15.707,6.755,8.891
895,1.05,36.137,15.096,41.917,31.384,15.707,6.714,8.93
896,1.069,36.196,15.116,41.936,31.388,15.87,6.754,8.89
897,1.082,35.938,15.108,41.926,31.388,15.831,6.714,8.93
898,1.096,36.127,15.077,41.945,31.391,15.83,6.754,8.89
899,1.079,36.186,15.038,41.926,31.384,15.708,6.754,8.809
900,1.079,36.216,15.033,41.926,31.384,15.585,6.754,8.808
901,1.053,35.832,15.045,41.897,31.377,15.421,6.795,8.848
902,1.082,36.02,15.092,41.935,31.388,15.542,6.836,8.808
903,1.076,36.108,15.135,41.936,31.391,15.421,6.877,8.889
904,1.092,35.937,15.034,41.974,31.395,15.542,6.959,8.93
905,1.057,35.877,15.064,41.917,31.384,15.299,6.756,8.809
906,1.06,36.04,15.084,41.936,31.384,15.297,6.795,8.93
907,1.06,36.118,15.131,41.917,31.381,15.093,6.755,8.89
908,1.073,35.822,15.167,41.926,31.384,15.213,6.876,8.89
909,1.089,35.934,15.105,41.926,31.384,15.092,6.918,8.93
910,1.102,36.069,15.128,41.955,31.398,15.213,6.919,9.053
911,1.102,36.157,15.003,41.926,31.381,15.092,6.837,8.851
912,1.102,35.774,15.088,41.926,31.391,15.172,6.837,8.889
913,1.112,35.924,15.104,41.926,31.384,15.254,6.755,8.809
914,1.115,36.069,15.116,41.945,31.395,15.418,6.917,8.97
915,1.122,36.157,14.948,41.974,31.391,15.338,6.796,8.972
916,1.142,35.774,15.056,41.917,31.391,15.46,6.836,8.972
917,1.145,35.914,15.096,41.926,31.384,15.339,6.755,8.891
918,1.142,36.05,15.104,41.936,31.384,15.378,6.795,8.93
919,1.135,36.138,15.116,41.955,31.402,15.378,6.877,8.972
920,1.129,35.86,15.1,41.955,31.384,15.297,6.837,9.013
921,1.135,36.02,15.065,41.926,31.391,15.256,6.796,8.972
922,1.129,36.156,15.073,41.926,31.384,15.133,6.795,8.972
923,1.125,36.177,15.104,41.916,31.381,15.051,6.836,8.931
924,1.109,35.861,15.12,41.907,31.381,14.969,6.837,8.931
925,1.148,36.04,15.081,41.955,31.395,15.009,6.837,9.053
926,1.145,36.166,15.073,41.984,31.398,14.846,6.918,9.013
927,1.142,36.206,15.112,41.965,31.395,14.845,6.959,9.135
928,1.135,35.823,15.104,41.936,31.381,14.682,6.919,8.892
929,1.155,35.963,15.135,41.945,31.388,14.64,6.878,9.012
930,1.165,36.079,15.155,41.907,31.377,14.517,6.796,8.85
931,1.194,35.86,15.167,41.945,31.395,14.76,6.999,9.093
932,1.198,35.867,15.05,41.945,31.395,14.925,6.96,9.054
933,1.204,36.021,15.057,41.965,31.398,15.089,7.041,9.176
934,1.214,36.089,15.135,41.936,31.384,15.132,6.879,8.974
935,1.224,35.831,15.12,41.917,31.388,15.335,6.918,9.013
936,1.234,35.972,15.073,41.945,31.391,15.338,6.878,8.972
937,1.237,36.108,15.022,41.945,31.391,15.541,6.918,9.053
938,1.237,36.205,15.092,41.955,31.391,15.543,6.837,8.973
939,1.231,35.823,15.057,41.936,31.384,15.583,6.877,9.053
940,1.24,35.972,15.088,41.936,31.384,15.503,6.837,8.932
941,1.24,36.098,15.088,41.926,31.388,15.42,6.837,8.972
942,1.24,36.196,15.155,41.964,31.388,15.46,6.837,9.013
943,1.24,35.87,14.972,41.955,31.391,15.542,6.918,9.013
944,1.26,36.059,15.091,41.955,31.398,15.502,6.878,9.013
945,1.247,36.157,15.124,41.917,31.384,15.339,6.796,9.013
946,1.257,36.234,15.163,41.955,31.384,15.338,6.755,8.932
947,1.257,35.88,15.089,41.907,31.384,15.093,6.714,8.972
948,1.279,36.049,15.042,41.955,31.384,15.254,6.835,9.013
949,1.293,36.176,14.987,41.955,31.391,15.133,6.877,8.972
950,1.306,36.254,15.091,41.984,31.405,15.335,6.877,9.094
951,1.293,35.967,15.077,41.927,31.384,15.215,6.755,8.851
952,1.303,36.098,15.151,41.936,31.391,15.458,6.795,8.889
953,1.312,36.205,15.093,41.917,31.384,15.542,6.673,8.809
954,1.322,36.283,15.1,41.955,31.398,15.909,6.875,8.93
955,1.326,36.006,15.092,41.926,31.384,15.994,6.796,8.85
956,1.352,36.166,15.116,41.974,31.402,16.198,6.917,8.971
957,1.352,36.244,15.128,41.926,31.388,16.119,6.715,8.769
958,1.355,36.015,15.085,41.926,31.395,16.24,6.794,8.767
959,1.355,36.003,15.018,41.926,31.381,16.119,6.673,8.726
960,1.368,36.156,15.017,41.955,31.391,16.199,6.835,8.929
961,1.365,36.254,15.068,41.955,31.395,16.159,6.796,8.809
962,1.368,35.9,15.1,41.965,31.395,16.281,6.877,8.889
963,1.359,35.983,15.112,41.917,31.384,15.997,6.755,8.768
964,1.362,36.127,15.077,41.945,31.388,16.117,6.795,8.807
965,1.362,36.225,15.069,41.936,31.388,15.955,6.714,8.808
966,1.362,36.034,15.112,41.955,31.388,15.994,6.835,8.889
967,1.381,36.185,15.143,41.955,31.391,15.832,6.837,8.849
968,1.382,36.292,15.171,41.945,31.395,15.83,6.918,8.971
969,1.401,36.351,15.128,41.926,31.384,15.79,6.715,8.809
970,1.411,36.016,15.089,41.936,31.391,15.749,6.835,8.767
971,1.414,36.185,15.026,41.964,31.384,15.748,6.796,8.807
972,1.424,36.321,15.064,41.965,31.395,15.87,6.836,8.848
973,1.444,36.37,15.143,41.955,31.391,16.115,6.796,8.808
974,1.424,35.949,15.109,41.936,31.388,16.158,6.836,8.808
975,1.447,36.117,15.081,41.964,31.384,16.281,6.796,8.686
976,1.457,36.215,15.065,41.936,31.388,16.241,6.755,8.684
977,1.464,36.302,15.135,41.936,31.398,16.363,6.836,8.725
978,1.454,36.082,15.163,41.964,31.395,16.364,6.796,8.726
979,1.464,36.262,15.183,41.974,31.395,16.445,6.836,8.726
980,1.444,36.322,15.128,41.926,31.388,16.162,6.714,8.644
981,1.447,36.37,15.077,41.936,31.388,16.118,6.754,8.644
982,1.447,36.198,15.073,41.926,31.377,16.036,6.714,8.521
983,1.444,36.35,15.077,41.974,31.395,16.117,6.835,8.683
984,1.46,36.438,15.143,41.946,31.388,16.036,6.837,8.644
985,1.477,36.285,15.097,41.984,31.405,16.158,6.918,8.806
986,1.457,36.312,14.979,41.965,31.388,15.834,6.715,8.645
987,1.457,36.437,15.091,41.974,31.391,15.83,6.754,8.603
988,1.464,36.535,15.112,41.946,31.384,15.749,6.714,8.602
989,1.467,36.209,15.175,41.965,31.395,15.707,6.835,8.643
990,1.47,36.331,15.163,41.965,31.391,15.666,6.837,8.562
991,1.467,36.438,15.148,41.955,31.391,15.707,6.877,8.643
992,1.467,36.525,15.089,41.936,31.384,15.707,6.755,8.521
993,1.464,36.305,15.085,41.945,31.388,15.91,6.754,8.561
994,1.473,36.476,15.116,41.965,31.391,16.156,6.795,8.602
995,1.477,36.564,15.143,41.965,31.395,16.159,6.795,8.602
996,1.477,36.68,15.101,41.955,31.398,16.281,6.795,8.521
997,1.464,36.336,14.987,41.945,31.388,16.282,6.755,8.479
998,1.464,36.457,15.095,41.955,31.391,16.282,6.714,8.479
999,1.428,36.573,15.077,41.936,31.388,16.323,6.754,8.438
1000,1.444,36.67,15.143,41.974,31.398,16.323,6.836,8.56
1001,1.421,36.537,15.155,41.955,31.391,16.201,6.796,8.561
1002,1.405,36.727,15.183,41.993,31.412,16.322,6.836,8.643
1003,1.392,36.806,15.089,41.936,31.395,16.079,6.714,8.44
1004,1.391,36.826,15.088,41.964,31.391,15.914,6.672,8.519
1005,1.365,36.606,15.147,41.946,31.374,15.831,6.672,8.561
1006,1.362,36.766,15.136,41.984,31.391,15.871,6.835,8.643
1007,1.342,36.883,15.081,41.965,31.395,15.749,6.755,8.603
1008,1.336,36.961,15.018,42.003,31.402,15.707,6.917,8.765
1009,1.326,36.827,14.975,41.965,31.391,15.382,6.634,8.604
1010,1.326,36.96,15.099,41.965,31.391,15.256,6.753,8.602
1011,1.3,37.058,15.112,41.946,31.391,15.215,6.632,8.602
1012,1.28,36.943,15.163,41.974,31.391,15.417,6.753,8.724
1013,1.27,36.981,15.07,41.955,31.395,15.42,6.632,8.766
1014,1.276,37.134,15.096,41.984,31.402,15.582,6.794,8.889
1015,1.257,37.222,15.112,41.955,31.388,15.503,6.633,8.727
1016,1.25,37.146,15.159,41.965,31.395,15.583,6.59,8.726
1017,1.244,37.328,15.163,41.974,31.395,15.543,6.671,8.766
1018,1.231,37.416,15.113,41.984,31.391,15.543,6.672,8.848
1019,1.217,37.503,15.081,41.975,31.391,15.543,6.672,8.889
1020,1.188,37.379,15.049,41.974,31.388,15.462,6.591,8.849
1021,1.168,37.532,15.084,41.984,31.391,15.339,6.631,8.849
1022,1.139,37.629,15.1,41.955,31.391,15.297,6.59,8.889
1023,1.142,37.716,15.151,41.993,31.395,15.459,6.631,8.93
1024,1.135,37.564,15.066,41.994,31.391,15.339,6.672,8.972
1025,1.129,37.735,15.1,42.013,31.402,15.419,6.672,8.931
1026,1.103,37.784,15.116,41.965,31.384,15.216,6.631,8.85
1027,1.089,37.852,15.179,41.974,31.388,15.133,6.55,8.889
1028,1.073,37.728,15.175,41.946,31.388,14.969,6.468,8.809
1029,1.079,37.88,15.136,41.974,31.391,15.212,6.67,8.848
1030,1.063,37.987,15.112,41.955,31.398,15.092,6.672,8.889
1031,1.073,38.046,15.034,42.003,31.405,15.254,6.835,8.93
1032,1.063,37.931,15.088,41.965,31.384,15.174,6.592,8.768
1033,1.066,38.084,15.128,41.974,31.395,15.295,6.59,8.848
1034,1.063,38.181,15.112,41.984,31.388,15.337,6.549,8.605
1035,1.056,38.336,15.112,42.07,31.402,15.419,6.549,8.806
1036,1.053,38.107,15.096,41.966,31.391,15.42,6.63,8.686
1037,1.037,38.22,15.128,41.974,31.395,15.542,6.631,8.766
1038,1.011,38.326,15.163,41.974,31.391,15.502,6.55,8.685
1039,1.004,38.279,15.167,41.984,31.391,15.38,6.671,8.644
1040,1.004,38.337,15.105,41.994,31.388,15.378,6.631,8.644
1041,0.978,38.452,15.116,41.965,31.395,15.338,6.672,8.684
1042,0.981,38.578,15.097,41.984,31.388,15.297,6.672,8.644
1043,0.955,38.224,15.112,41.955,31.388,15.297,6.672,8.644
1044,0.961,38.345,15.182,41.965,31.384,15.297,6.631,8.644
1045,0.942,38.452,15.101,41.955,31.377,15.174,6.672,8.684
1046,0.938,38.588,15.081,42.013,31.388,15.295,6.835,8.766
1047,0.925,38.445,15.096,41.984,31.395,15.256,6.755,8.645
1048,0.941,38.607,15.147,42.022,31.395,15.337,6.876,8.887
1049,0.922,38.685,15.112,41.956,31.377,15.093,6.715,8.646
1050,0.912,38.743,15.143,41.965,31.384,15.091,6.794,8.725
1051,0.922,38.437,15.132,41.965,31.381,15.05,6.714,8.644
1052,0.931,38.587,15.058,41.993,31.398,15.294,6.876,8.847
1053,0.931,38.714,15.084,41.984,31.391,15.378,6.837,8.808
1054,0.928,38.782,15.147,42.032,31.409,15.663,6.958,8.93
1055,0.938,38.581,15.171,41.956,31.374,15.422,6.756,8.768
1056,0.925,38.752,15.078,41.974,31.384,15.582,6.795,8.807
1057,0.918,38.878,14.999,41.974,31.381,15.503,6.633,8.726
1058,0.922,38.918,15.099,41.994,31.391,15.664,6.875,8.929
1059,0.902,38.822,15.135,41.994,31.391,15.625,6.837,8.931
1060,0.895,38.975,15.147,42.003,31.402,15.706,6.958,9.012
1061,0.886,39.053,15.163,41.984,31.384,15.585,6.797,8.85
1062,0.882,39.226,15.159,42.003,31.391,15.503,6.836,8.971
1063,0.872,38.653,15.109,41.994,31.388,15.502,6.755,8.85
1064,0.882,38.772,15.12,41.984,31.395,15.624,6.795,8.971
1065,0.869,38.878,15.151,42.003,31.391,15.503,6.836,8.972
1066,0.859,38.726,15.171,41.994,31.395,15.502,6.918,9.094
1067,0.859,38.763,15.113,41.975,31.388,15.299,6.674,8.973
1068,0.862,38.926,15.089,41.984,31.391,15.256,6.713,9.094
1069,0.879,39.024,15.081,42.022,31.388,15.093,6.713,9.014
1070,0.876,38.689,15.127,42.004,31.388,15.213,6.754,9.013
1071,0.869,38.782,15.144,42.023,31.391,15.296,6.795,9.054
1072,0.869,38.936,15.183,42.004,31.391,15.5,6.877,9.176
1073,0.859,38.986,15.093,41.965,31.395,15.542,6.715,9.137
1074,0.869,38.708,15.1,42.013,31.391,15.705,6.672,9.217
1075,0.882,38.859,15.128,42.013,31.398,15.87,6.672,9.137
1076,0.885,38.975,15.147,41.994,31.398,15.993,6.753,9.217
1077,0.885,39.034,15.155,42.003,31.395,16.035,6.673,9.178
1078,0.863,38.584,15.042,41.975,31.391,16.035,6.672,9.299
1079,0.853,38.723,15.053,41.994,31.391,16.035,6.672,9.178
1080,0.846,38.84,15.053,41.975,31.391,15.914,6.631,9.259
1081,0.843,38.927,15.131,42.013,31.398,15.872,6.753,9.219
1082,0.843,38.774,15.159,41.994,31.388,15.953,6.754,9.381
1083,0.843,38.946,15.195,42.032,31.405,15.872,6.754,9.301
1084,0.823,39.024,15.109,41.994,31.388,15.668,6.632,9.26
1085,0.826,39.054,15.116,42.013,31.391,15.747,6.712,9.381
1086,0.83,38.536,15.124,41.946,31.377,15.464,6.632,9.22
1087,0.833,38.703,15.155,42.003,31.401,15.664,6.712,9.3
1088,0.83,38.801,15.14,42.003,31.388,15.463,6.713,9.301
1089,0.852,39.09,15.136,42.013,31.405,15.501,6.835,9.504
1090,0.84,38.699,15.101,41.984,31.388,15.339,6.633,9.221
1091,0.833,38.82,15.135,42.032,31.388,15.46,6.712,9.218
1092,0.865,38.927,15.112,41.994,31.381,15.461,6.591,9.178
1093,0.862,38.573,15.206,42.023,31.402,15.705,6.753,9.259
1094,0.856,38.57,15.125,42.013,31.398,15.829,6.754,9.259
1095,0.869,38.694,15.112,42.032,31.402,15.912,6.836,9.3
1096,0.866,38.782,15.081,41.985,31.388,15.953,6.633,8.975
1097,0.866,38.38,15.124,42.013,31.398,16.116,6.753,9.053
1098,0.862,38.491,15.143,42.013,31.391,16.077,6.714,9.054
1099,0.859,38.626,15.167,42.023,31.391,16.077,6.794,9.013
1100,0.859,38.724,15.144,42.013,31.391,16.036,6.795,9.013
1101,0.846,38.293,15.062,42.004,31.395,15.995,6.795,8.891
1102,0.843,38.442,15.112,42.003,31.388,15.954,6.755,8.849
1103,0.833,38.578,15.143,41.994,31.384,15.913,6.754,8.849
1104,0.846,38.666,15.175,42.013,31.395,15.994,6.714,8.767
1105,0.833,38.369,15.085,42.032,31.398,16.035,6.876,8.807
1106,0.833,38.529,15.135,42.032,31.391,15.995,6.877,8.726
1107,0.817,38.607,15.116,42.004,31.388,15.751,6.715,8.685
1108,0.833,38.666,15.12,42.013,31.391,15.707,6.713,8.644
1109,0.833,38.053,15.163,41.965,31.381,15.585,6.672,8.521
1110,0.849,38.229,15.171,42.022,31.391,15.706,6.875,8.601
1111,0.853,38.336,15.167,42.032,31.395,15.748,6.877,8.643
1112,0.866,38.395,15.113,42.071,31.405,15.992,6.918,8.644
1113,0.849,38.012,15.096,42.014,31.388,15.954,6.796,8.44
1114,0.859,38.142,15.135,42.023,31.388,16.035,6.836,8.519
1115,0.872,38.22,15.155,41.994,31.381,16.076,6.674,8.358
1116,0.882,38.556,15.081,42.032,31.402,16.239,6.916,8.478
1117,0.869,37.946,14.971,42.042,31.395,16.2,6.837,8.438
1118,0.879,38.113,15.13,42.071,31.402,16.403,6.958,8.479
1119,0.856,38.181,15.14,42.023,31.384,16.08,6.716,8.357
1120,0.846,37.799,15.155,42.013,31.391,16.077,6.754,8.397
1121,0.843,37.756,15.179,42.004,31.384,15.914,6.673,8.356
1122,0.843,37.919,15.187,42.042,31.395,15.994,6.875,8.519
1123,0.846,38.016,15.117,42.071,31.398,15.913,6.837,8.561
1124,0.856,37.624,15.108,42.062,31.398,16.034,6.958,8.683
1125,0.833,37.707,15.155,42.014,31.388,15.792,6.756,8.603
1126,0.83,37.851,15.179,42.032,31.391,15.83,6.836,8.643
1127,0.839,37.949,15.109,42.032,31.391,15.586,6.674,8.725
1128,0.846,37.566,15.081,42.032,31.391,15.625,6.835,8.807
1129,0.849,37.696,15.014,42.042,31.398,15.462,6.796,8.808
1130,0.836,37.822,15.135,42.033,31.398,15.542,6.958,8.97
1131,0.836,37.9,15.151,42.023,31.391,15.299,6.756,8.769
1132,0.852,37.345,15.21,42.042,31.388,15.378,6.876,8.929
1133,0.849,37.512,15.121,42.052,31.391,15.419,6.755,8.89
1134,0.853,37.648,15.128,42.061,31.391,15.46,6.795,8.89
1135,0.859,37.707,15.151,42.042,31.388,15.461,6.714,8.809
1136,0.856,37.18,15.167,42.042,31.402,15.42,6.876,8.889
1137,0.869,37.328,15.183,42.033,31.388,15.338,6.674,8.849
1138,0.869,37.445,15.109,42.032,31.395,15.378,6.753,8.849
1139,0.866,37.523,15.085,42.061,31.395,15.297,6.795,8.849
1140,0.856,37.14,15.049,42.052,31.388,15.215,6.714,8.849
1141,0.856,37.28,15.135,42.052,31.391,15.092,6.754,8.849
1142,0.849,37.368,15.128,42.042,31.395,14.928,6.714,8.849
1143,0.859,37.695,15.151,42.052,31.388,14.886,6.672,8.808
1144,0.84,36.911,15.077,42.052,31.391,14.764,6.753,8.848
1145,0.856,37.095,15.116,42.071,31.398,14.722,6.795,8.808
1146,0.84,37.193,15.151,42.071,31.395,14.518,6.755,8.93
1147,0.849,36.859,15.191,42.062,31.402,14.394,6.795,8.85
1148,0.84,36.846,15.171,42.052,31.388,14.312,6.714,8.808
1149,0.852,36.989,15.199,42.042,31.395,14.229,6.754,8.808
1150,0.853,37.058,15.133,42.023,31.384,14.147,6.714,8.767
1151,0.859,36.541,15.05,42.08,31.384,14.269,6.754,8.807
1152,0.866,36.641,15.108,42.071,31.388,14.351,6.795,8.889
1153,0.882,36.805,15.19,42.081,31.405,14.474,6.755,8.93
1154,0.866,36.864,15.129,42.062,31.388,14.434,6.714,8.85
1155,0.866,36.443,15.073,42.062,31.391,14.556,6.754,8.849
1156,0.862,36.592,15.112,42.033,31.384,14.598,6.632,8.849
1157,0.869,36.757,15.151,42.08,31.398,14.679,6.753,8.808
1158,0.876,36.816,15.191,42.062,31.391,14.721,6.795,8.808
1159,0.872,36.289,15.207,42.09,31.402,14.844,6.795,8.889
1160,0.853,36.408,15.195,42.052,31.388,14.641,6.673,8.809
1161,0.862,36.544,15.168,42.071,31.391,14.68,6.672,8.848
1162,0.849,36.584,15.128,42.033,31.377,14.518,6.631,8.808
1163,0.866,36.21,15.104,42.09,31.395,14.719,6.712,8.93
1164,0.859,36.321,15.167,42.091,31.395,14.681,6.794,8.89
1165,0.859,36.495,15.12,42.11,31.405,14.802,6.877,9.052
1166,0.843,36.516,15.112,42.148,31.391,14.56,6.633,8.973
1167,0.839,36.171,15.1,42.082,31.391,14.557,6.672,9.013
1168,0.839,36.302,15.112,42.062,31.388,14.435,6.631,8.85
1169,0.852,36.437,15.132,42.09,31.398,14.556,6.712,9.011
1170,0.849,36.765,15.179,42.071,31.398,14.516,6.713,8.932
1171,0.853,35.953,15.206,42.09,31.398,14.719,6.876,9.012
1172,0.853,36.06,15.121,42.081,31.395,14.64,6.633,8.932
1173,0.846,36.205,15.147,42.1,31.395,14.843,6.672,8.972
1174,0.859,35.909,15.155,42.062,31.391,14.885,6.631,8.891
1175,0.879,35.915,15.163,42.09,31.391,15.17,6.753,8.93
1176,0.863,36.069,15.07,42.091,31.384,15.173,6.795,8.89
1177,0.866,36.205,15.112,42.1,31.398,15.295,6.836,9.012
1178,0.862,35.746,15.108,42.091,31.388,15.174,6.674,8.85
1179,0.853,35.875,15.143,42.091,31.398,15.214,6.713,8.849
1180,0.846,36.011,15.187,42.11,31.398,15.174,6.632,8.808
1181,0.853,36.108,15.144,42.1,31.391,15.254,6.794,8.97
1182,0.84,35.668,15.151,42.091,31.391,15.174,6.673,8.972
1183,0.833,35.827,15.144,42.1,31.395,15.173,6.753,9.053
1184,0.833,35.943,15.144,42.081,31.384,15.132,6.673,8.891
1185,0.813,36.041,15.187,42.09,31.395,15.051,6.631,8.971
1186,0.829,35.61,15.164,42.119,31.395,15.009,6.631,9.053
1187,0.83,35.74,15.109,42.11,31.391,14.846,6.672,9.054
1188,0.826,35.904,15.116,42.148,31.391,14.804,6.631,9.013
1189,0.833,35.925,15.116,42.11,31.384,14.763,6.672,9.013
1190,0.83,35.484,15.1,42.11,31.381,14.803,6.631,8.972
1191,0.83,35.614,15.116,42.1,31.384,14.803,6.59,8.972
1192,0.852,35.788,15.19,42.11,31.391,15.007,6.712,9.053
1193,0.849,35.818,15.093,42.11,31.388,15.131,6.591,9.095
1194,0.859,35.521,15.128,42.167,31.409,15.335,6.631,9.095
1195,0.856,35.624,15.159,42.091,31.388,15.215,6.509,8.932
1196,0.862,35.759,15.152,42.1,31.391,15.377,6.508,8.931
1197,0.859,36.087,15.132,42.072,31.381,15.297,6.386,8.809
1198,0.846,35.524,15.116,42.129,31.388,15.5,6.629,8.97
1199,0.836,35.691,15.042,42.129,31.391,15.461,6.55,8.931
1200,0.846,35.798,15.127,42.216,31.398,15.542,6.712,9.053
1201,0.84,35.473,15.144,42.092,31.384,15.38,6.551,8.851
1202,0.826,35.518,15.187,42.119,31.384,15.338,6.508,8.93
1203,0.83,35.653,15.144,42.11,31.388,15.338,6.508,8.85
1204,0.839,35.788,15.148,42.129,31.395,15.419,6.589,8.971
1205,0.817,35.416,15.112,42.139,31.384,15.338,6.631,9.013
1206,0.82,35.527,15.186,42.158,31.384,15.297,6.672,9.094
1207,0.81,35.643,15.187,42.12,31.388,15.174,6.509,9.014
1208,0.82,35.759,15.16,42.139,31.391,15.132,6.63,9.054
1209,0.836,35.339,15.136,42.129,31.391,15.213,6.509,8.973
1210,0.833,35.497,15.089,42.139,31.388,15.174,6.63,9.094
1211,0.833,35.643,15.108,42.129,31.391,15.214,6.631,9.095
1212,0.839,35.712,15.124,42.148,31.391,15.255,6.631,9.176
1213,0.826,35.348,15.198,42.12,31.377,15.296,6.55,9.055
1214,0.83,35.498,15.086,42.158,31.384,15.337,6.508,9.095
1215,0.843,35.643,15.112,42.149,31.381,15.338,6.63,9.176
1216,0.839,35.712,15.136,42.149,31.384,15.419,6.59,9.218
1217,0.839,35.511,15.155,42.139,31.384,15.42,6.468,9.178
1218,0.833,35.662,15.21,42.149,31.395,15.338,6.589,9.299
1219,0.83,35.788,15.16,42.129,31.384,15.297,6.509,9.178
1220,0.82,35.809,15.128,42.148,31.384,15.256,6.63,9.218
1221,0.82,35.397,14.995,42.149,31.388,15.255,6.631,9.259
1222,0.807,35.565,15.142,42.139,31.395,15.174,6.59,9.259
1223,0.823,35.692,15.171,42.158,31.402,15.132,6.631,9.259
1224,0.804,36.028,15.187,42.139,31.391,15.051,6.59,9.178
1225,0.813,35.61,15.078,42.168,31.391,15.05,6.631,9.259
1226,0.794,35.702,15.112,42.13,31.381,14.969,6.509,9.178
1227,0.81,35.846,15.159,42.168,31.398,15.009,6.63,9.259
1228,0.813,35.694,15.187,42.168,31.398,14.846,6.631,9.259
1229,0.823,35.76,15.238,42.206,31.405,14.885,6.631,9.259
1230,0.82,35.857,15.164,42.159,31.395,14.682,6.468,9.137
1231,0.826,35.953,15.148,42.158,31.395,14.64,6.589,9.136
1232,0.813,35.446,15.105,42.158,31.377,14.639,6.427,9.095
1233,0.826,35.604,15.108,42.187,31.398,14.843,6.629,9.176
1234,0.833,35.721,15.19,42.178,31.395,14.885,6.55,9.177
1235,0.833,35.847,15.152,42.216,31.409,14.967,6.752,9.34
1236,0.81,35.646,15.12,42.168,31.388,14.846,6.551,9.097
1237,0.82,35.817,15.104,42.187,31.395,14.926,6.508,9.176
1238,0.826,35.934,15.132,42.187,31.388,14.846,6.427,9.096
1239,0.817,36.021,15.163,42.187,31.398,14.926,6.588,9.258
1240,0.8,35.696,15.175,42.187,31.398,14.846,6.59,9.137
1241,0.794,35.837,15.203,42.207,31.412,14.845,6.631,9.339
1242,0.784,35.934,15.121,42.188,31.391,14.641,6.468,9.016
1243,0.784,36.021,15.136,42.187,31.395,14.721,6.507,9.054
1244,0.774,35.888,15.144,42.187,31.384,14.599,6.467,9.054
1245,0.777,36.03,15.198,42.197,31.391,14.639,6.629,9.176
1246,0.767,36.137,15.133,42.187,31.398,14.558,6.55,9.177
1247,0.777,36.186,15.097,42.197,31.402,14.598,6.63,9.218
1248,0.774,35.669,15.151,42.187,31.388,14.436,6.387,9.015
1249,0.777,35.808,15.152,42.197,31.395,14.393,6.385,8.932
1250,0.784,35.934,15.152,42.197,31.395,14.393,6.425,8.972
1251,0.78,36.29,15.198,42.187,31.388,14.434,6.507,9.094
1252,0.787,35.814,15.199,42.187,31.391,14.556,6.508,9.054
1253,0.793,35.934,15.047,42.235,31.398,14.679,6.508,9.054
1254,0.787,36.05,15.135,42.188,31.384,14.599,6.345,8.891
1255,0.79,35.725,15.155,42.187,31.402,14.679,6.384,8.93
1256,0.8,35.76,15.187,42.197,31.398,14.802,6.466,8.89
1257,0.803,35.904,15.117,42.216,31.398,14.803,6.467,8.93
1258,0.803,36.031,15.081,42.226,31.395,14.844,6.426,8.85
1259,0.768,35.821,15.018,42.207,31.395,14.763,6.466,8.849
1260,0.787,35.943,15.123,42.207,31.395,14.64,6.426,8.889
1261,0.767,36.079,15.108,42.188,31.388,14.599,6.385,8.93
1262,0.783,36.205,15.19,42.216,31.395,14.598,6.425,8.85
1263,0.777,35.794,15.164,42.216,31.398,14.517,6.466,8.849
1264,0.797,35.991,15.136,42.245,31.405,14.597,6.467,8.93
1265,0.771,36.079,15.144,42.207,31.384,14.436,6.386,8.89
1266,0.761,36.167,15.21,42.197,31.391,14.353,6.385,8.971
1267,0.764,35.957,15.199,42.197,31.377,14.189,6.303,8.85
1268,0.767,36.127,15.136,42.235,31.398,14.31,6.506,9.011
1269,0.783,36.253,15.124,42.207,31.395,14.229,6.467,8.932
1270,0.79,36.312,15.065,42.245,31.405,14.31,6.548,9.053
1271,0.78,35.948,15.069,42.207,31.391,14.229,6.386,8.891
1272,0.793,36.108,15.135,42.226,31.395,14.351,6.466,8.93
1273,0.79,36.215,15.187,42.207,31.384,14.393,6.386,8.809
1274,0.797,36.283,15.062,42.255,31.398,14.596,6.507,8.97
1275,0.8,36.015,15.119,42.236,31.395,14.639,6.549,8.931
1276,0.8,36.175,15.163,42.265,31.405,14.802,6.671,9.134
1277,0.803,36.254,15.171,42.207,31.391,14.56,6.388,8.811
1278,0.8,36.59,15.206,42.235,31.398,14.598,6.507,8.808
1279,0.787,36.037,15.156,42.226,31.391,14.517,6.427,8.767
1280,0.784,36.195,15.132,42.245,31.398,14.557,6.466,8.889
1281,0.79,36.283,15.007,42.245,31.391,14.435,6.467,8.89
1282,0.774,36.13,15.131,42.236,31.402,14.515,6.548,9.012
1283,0.767,36.167,15.167,42.226,31.388,14.435,6.468,8.728
1284,0.774,36.311,15.183,42.255,31.391,14.434,6.548,8.848
1285,0.761,36.418,15.093,42.265,31.391,14.475,6.468,8.849
1286,0.767,36.151,15.124,42.265,31.398,14.394,6.507,8.93
1287,0.767,36.273,15.151,42.255,31.395,14.352,6.467,8.85
1288,0.764,36.399,15.206,42.236,31.398,14.352,6.589,8.808
1289,0.767,36.477,15.242,42.226,31.391,14.271,6.468,8.726
1290,0.77,36.276,15.191,42.236,31.391,14.27,6.548,8.685
1291,0.777,36.418,15.168,42.245,31.402,14.392,6.549,8.684
1292,0.787,36.563,15.148,42.265,31.398,14.515,6.59,8.725
1293,0.784,36.651,15.148,42.255,31.398,14.557,6.468,8.766
1294,0.771,36.134,15.191,42.226,31.398,14.598,6.467,8.685
1295,0.796,36.301,15.132,42.245,31.391,14.639,6.507,8.644
1296,0.777,36.408,15.108,42.303,31.388,14.721,6.508,8.603
1297,0.8,36.525,15.12,42.265,31.391,14.844,6.508,8.643
1298,0.8,36.43,15.147,42.265,31.398,14.804,6.589,8.725
1299,0.807,36.602,15.202,42.294,31.412,14.844,6.59,8.644
1300,0.781,36.651,15.207,42.256,31.388,14.723,6.549,8.603
1301,0.78,36.709,15.199,42.255,31.398,14.722,6.508,8.602
1302,0.771,36.345,15.121,42.226,31.384,14.559,6.386,8.562
1303,0.777,36.505,15.12,42.284,31.402,14.72,6.507,8.683
1304,0.764,36.631,15.179,42.265,31.398,14.722,6.549,8.684
1305,0.761,37.006,15.179,42.303,31.405,14.681,6.712,8.888
1306,0.751,36.492,15.093,42.265,31.377,14.436,6.51,8.646
1307,0.757,36.631,15.069,42.274,31.395,14.434,6.549,8.684
1308,0.764,36.738,15.123,42.265,31.391,14.393,6.468,8.522
1309,0.78,36.538,15.155,42.274,31.395,14.393,6.548,8.642
1310,0.774,36.564,15.167,42.294,31.388,14.271,6.549,8.644
1311,0.777,36.699,15.199,42.294,31.398,14.514,6.63,8.725
1312,0.784,36.796,15.203,42.265,31.388,14.394,6.468,8.563
1313,0.774,36.5,15.168,42.361,31.395,14.637,6.589,8.602
1314,0.777,36.631,15.14,42.285,31.391,14.761,6.509,8.521
1315,0.78,36.767,15.194,42.275,31.398,14.803,6.508,8.642
1316,0.787,36.854,15.199,42.265,31.395,14.926,6.549,8.603
1317,0.787,36.788,15.133,42.294,31.402,15.008,6.508,8.724
1318,0.787,36.922,15.093,42.275,31.395,14.887,6.427,8.644
1319,0.764,37.076,15.12,42.303,31.395,15.008,6.507,8.644
1320,0.774,37.126,15.175,42.294,31.395,14.887,6.508,8.725
1321,0.767,36.58,15.175,42.294,31.388,14.926,6.508,8.726
1322,0.767,36.737,15.234,42.294,31.395,14.846,6.589,8.685
1323,0.751,36.825,15.125,42.294,31.391,14.723,6.509,8.766
1324,0.751,36.903,15.136,42.284,31.384,14.681,6.549,8.767
1325,0.735,36.923,15.128,42.275,31.391,14.68,6.549,8.807
1326,0.751,37.086,15.159,42.322,31.398,14.599,6.549,8.93
1327,0.748,37.183,15.183,42.323,31.398,14.436,6.549,9.012
1328,0.767,37.252,15.144,42.342,31.402,14.393,6.59,8.85
1329,0.757,36.754,15.093,42.285,31.395,14.23,6.509,8.889
1330,0.757,36.912,15.049,42.294,31.402,14.147,6.508,8.849
1331,0.754,37.019,15.127,42.275,31.384,14.106,6.549,8.808
1332,0.777,37.413,15.175,42.322,31.395,14.187,6.508,9.011
1333,0.761,37.014,15.191,42.323,31.402,14.147,6.508,8.932
1334,0.761,37.221,15.117,42.361,31.409,14.269,6.63,9.012
1335,0.764,37.262,15.108,42.295,31.395,14.107,6.468,8.81
1336,0.764,36.907,15.167,42.294,31.398,14.187,6.467,8.889
1337,0.761,36.913,15.175,42.294,31.384,14.106,6.386,8.809
1338,0.757,37.076,15.195,42.313,31.398,14.187,6.466,8.97
1339,0.754,37.164,15.144,42.323,31.377,14.188,6.467,8.931
1340,0.751,36.973,15.163,42.352,31.405,14.188,6.589,9.093
1341,0.725,37.058,15.109,42.314,31.391,13.944,6.468,8.892
1342,0.731,37.212,15.147,42.304,31.395,13.941,6.507,8.89
1343,0.741,37.319,15.198,42.323,31.384,13.941,6.467,8.849
1344,0.731,36.908,15.156,42.323,31.388,13.982,6.589,8.971
1345,0.705,37.057,15.113,42.352,31.395,13.942,6.509,9.013
1346,0.728,37.174,15.128,42.323,31.395,13.982,6.63,9.094
1347,0.731,37.251,15.175,42.313,31.384,13.779,6.468,8.973
1348,0.734,37.195,15.187,42.332,31.391,13.777,6.507,9.013
1349,0.731,37.338,15.199,42.333,31.388,13.655,6.549,8.972
1350,0.738,37.464,15.199,42.342,31.398,13.694,6.508,9.013
1351,0.751,37.523,15.136,42.333,31.395,13.654,6.508,9.054
1352,0.744,36.967,15.128,42.352,31.391,13.776,6.589,9.135
1353,0.734,37.115,15.132,42.314,31.384,13.94,6.468,8.974
1354,0.751,37.222,15.19,42.332,31.391,14.144,6.507,9.094
1355,0.757,37.262,15.121,42.352,31.388,14.269,6.549,9.095
1356,0.764,37.07,15.151,42.39,31.395,14.351,6.549,9.176
1357,0.754,37.202,15.14,42.352,31.391,14.514,6.508,9.177
1358,0.748,37.328,15.179,42.342,31.395,14.597,6.589,9.259
1359,0.734,37.637,15.175,42.342,31.388,14.598,6.509,9.178
1360,0.734,37.093,15.206,42.342,31.391,14.679,6.63,9.259
1361,0.734,37.203,15.238,42.342,31.388,14.68,6.55,9.3
1362,0.725,37.338,15.141,42.352,31.391,14.721,6.549,9.301
1363,0.731,37.052,15.124,42.352,31.384,14.722,6.508,9.301
1364,0.734,37.058,15.159,42.333,31.384,14.762,6.589,9.26
1365,0.715,37.193,15.191,42.342,31.395,14.681,6.509,9.219
1366,0.721,37.3,15.148,42.352,31.388,14.64,6.508,9.259
1367,0.734,36.927,15.066,42.362,31.398,14.761,6.549,9.381
1368,0.728,37.038,15.147,42.362,31.395,14.64,6.508,9.261
1369,0.747,37.183,15.159,42.381,31.398,14.68,6.508,9.3
1370,0.731,37.223,15.163,42.343,31.395,14.518,6.508,9.26
1371,0.738,36.983,15.175,42.352,31.391,14.597,6.508,9.178
1372,0.731,37.096,15.183,42.342,31.388,14.639,6.467,9.177
1373,0.754,37.279,15.07,42.381,31.402,14.883,6.589,9.299
1374,0.761,37.348,15.116,42.352,31.398,14.967,6.509,9.178
1375,0.767,37.004,15.19,42.39,31.412,15.09,6.549,9.259
1376,0.744,37.077,15.179,42.343,31.391,15.05,6.508,9.015
1377,0.741,37.222,15.14,42.361,31.395,15.05,6.467,9.054
1378,0.728,37.271,15.085,42.342,31.384,14.928,6.386,9.013
1379,0.721,36.926,15.112,42.4,31.398,15.089,6.547,9.094
1380,0.728,37.076,15.132,42.381,31.391,14.969,6.508,9.014
1381,0.738,37.212,15.21,42.4,31.412,15.13,6.589,9.257
1382,0.721,37.223,15.199,42.372,31.391,14.766,6.387,9.015
1383,0.721,37.003,15.144,42.362,31.391,14.803,6.466,9.054
1384,0.721,37.135,15.116,42.371,31.381,14.6,6.386,9.013
1385,0.721,37.27,15.171,42.381,31.398,14.72,6.507,9.176
1386,0.718,37.54,15.234,42.381,31.395,14.518,6.508,9.177
1387,0.711,36.92,15.215,42.429,31.412,14.557,6.63,9.259
1388,0.711,37.028,15.156,42.353,31.388,14.313,6.428,9.056
1389,0.724,37.164,15.109,42.39,31.391,14.27,6.548,9.054
1390,0.734,36.906,15.085,42.381,31.388,14.107,6.468,9.054
1391,0.728,36.952,15.135,42.391,31.398,14.187,6.507,9.176
1392,0.741,37.067,15.163,42.391,31.398,14.269,6.467,9.096
1393,0.751,37.174,15.179,42.419,31.402,14.473,6.629,9.176
1394,0.731,36.714,15.097,42.381,31.391,14.353,6.468,9.015
1395,0.754,36.882,15.112,42.4,31.391,14.514,6.507,8.932
1396,0.754,36.999,15.159,42.381,31.391,14.516,6.508,8.931
1397,0.764,37.096,15.171,42.4,31.409,14.557,6.549,8.931
1398,0.754,37.462,15.179,42.391,31.395,14.557,6.508,8.931
1399,0.728,37.619,15.179,42.381,31.398,14.598,6.467,9.012
1400,0.715,37.726,15.148,42.4,31.398,14.436,6.426,8.85
1401,0.708,37.794,15.093,42.41,31.395,14.434,6.507,8.808
1402,0.718,36.289,15.139,42.42,31.398,14.353,6.467,8.848
1403,0.724,36.437,15.202,42.401,31.405,14.393,6.467,8.808
1404,0.728,36.573,15.191,42.41,31.398,14.271,6.467,8.808
1405,0.715,36.651,15.086,42.391,31.388,14.27,6.386,8.808
1406,0.721,36.92,15.131,42.381,31.388,14.188,6.425,8.767
1407,0.705,37.086,15.132,42.41,31.391,14.147,6.426,8.807
1408,0.724,37.222,15.222,42.42,31.395,14.106,6.385,8.808
1409,0.724,37.242,15.207,42.41,31.395,14.024,6.466,8.848
1410,0.734,36.533,15.226,42.429,31.405,14.064,6.467,8.808
1411,0.721,36.631,15.199,42.41,31.391,14.064,6.386,8.726
1412,0.731,36.747,15.16,42.42,31.391,14.105,6.344,8.726
1413,0.734,37.046,15.124,42.391,31.384,14.146,6.262,8.685
1414,0.757,36.589,15.182,42.429,31.398,14.431,6.465,8.888
1415,0.751,36.699,15.148,42.429,31.398,14.434,6.386,8.849
1416,0.751,36.844,15.07,42.458,31.409,14.637,6.588,8.93
1417,0.744,36.539,15.119,42.41,31.395,14.477,6.305,8.768
1418,0.747,36.593,15.124,42.42,31.398,14.475,6.384,8.767
1419,0.728,36.728,15.132,42.42,31.388,14.272,6.222,8.685
1420,0.731,36.825,15.202,42.448,31.405,14.351,6.424,8.847
1421,0.728,36.404,15.183,42.439,31.402,14.311,6.344,8.889
1422,0.721,36.544,15.164,42.449,31.412,14.311,6.506,9.012
1423,0.721,36.66,15.144,42.43,31.384,14.108,6.345,8.81
1424,0.734,36.776,15.155,42.429,31.402,14.024,6.262,8.889
1425,0.712,36.346,15.191,42.429,31.391,13.901,6.302,8.768
1426,0.708,36.476,15.175,42.458,31.402,13.981,6.384,8.97
1427,0.708,36.621,15.097,42.449,31.402,13.86,6.344,8.972
1428,0.715,36.68,15.057,42.468,31.402,13.737,6.466,8.931
1429,0.724,36.307,15.154,42.439,31.395,13.614,6.264,8.931
1430,0.715,36.466,15.159,42.458,31.398,13.531,6.343,8.85
1431,0.731,36.592,15.159,42.439,31.395,13.531,6.303,8.93
1432,0.731,36.651,15.206,42.468,31.402,13.653,6.343,8.931
1433,0.721,36.287,15.09,42.468,31.402,13.776,6.303,8.931
1434,0.724,36.447,15.12,42.468,31.405,14.021,6.465,9.093
1435,0.724,36.554,15.167,42.43,31.395,13.861,6.304,8.851
1436,0.75,36.603,15.179,42.439,31.398,13.981,6.302,8.849
1437,0.744,36.364,15.16,42.449,31.398,13.942,6.262,8.767
1438,0.738,36.515,15.124,42.468,31.402,14.022,6.343,8.848
1439,0.715,36.641,15.081,42.468,31.402,14.023,6.384,8.849
1440,0.721,36.872,15.006,42.497,31.405,14.023,6.466,8.849
1441,0.718,36.232,15.131,42.459,31.395,13.861,6.264,8.686
1442,0.718,36.36,15.151,42.458,31.398,13.9,6.302,8.684
1443,0.708,36.457,15.148,42.468,31.395,13.778,6.343,8.725
1444,0.705,36.276,15.12,42.554,31.405,13.858,6.384,8.807
1445,0.698,36.322,15.12,42.479,31.398,13.859,6.303,8.767
1446,0.695,36.476,15.179,42.478,31.398,13.859,6.425,8.889
1447,0.701,36.554,15.214,42.478,31.398,13.615,6.304,8.727
1448,0.708,36.104,15.195,42.487,31.391,13.653,6.425,8.766
1449,0.718,36.243,15.183,42.478,31.398,13.532,6.426,8.726
1450,0.724,36.379,15.105,42.497,31.405,13.49,6.385,8.807
1451,0.731,36.476,15.042,42.497,31.395,13.49,6.344,8.767
1452,0.738,35.96,15.139,42.478,31.395,13.611,6.466,8.767
1453,0.751,36.117,15.187,42.478,31.395,13.572,6.304,8.685
1454,0.764,36.244,15.156,42.497,31.398,13.694,6.384,8.807
1455,0.77,36.36,15.152,42.507,31.402,13.695,6.385,8.686
1456,0.783,36.054,15.136,42.488,31.395,13.776,6.425,8.644
1457,0.793,36.205,15.171,42.507,31.398,13.777,6.385,8.684
1458,0.813,36.321,15.214,42.488,31.402,13.818,6.385,8.644
1459,0.807,36.37,15.195,42.478,31.398,13.737,6.425,8.684
1460,0.81,36.016,15.172,42.497,31.402,13.695,6.385,8.725
1461,0.826,36.175,15.117,42.507,31.405,13.654,6.466,8.726
1462,0.83,36.321,15.128,42.507,31.402,13.654,6.426,8.726
1463,0.856,36.38,15.163,42.507,31.402,13.613,6.385,8.726
1464,0.853,36.007,15.195,42.488,31.391,13.491,6.344,8.726
1465,0.859,36.166,15.144,42.497,31.398,13.408,6.425,8.726
1466,0.853,36.273,15.136,42.535,31.391,13.285,6.304,8.726
1467,0.856,36.562,15.14,42.526,31.402,13.365,6.547,8.888
1468,0.879,36.018,15.159,42.526,31.395,13.204,6.468,8.809
1469,0.895,36.185,15.206,42.536,31.402,13.365,6.589,8.93
1470,0.915,36.254,15.179,42.498,31.395,13.082,6.468,8.728
1471,0.938,35.977,15.191,42.497,31.395,13.16,6.467,8.848
1472,0.948,36.002,15.113,42.507,31.391,13.202,6.386,8.767
1473,0.967,36.175,15.136,42.526,31.402,13.487,6.547,8.929
1474,0.984,36.254,15.175,42.517,31.395,13.53,6.59,8.931
1475,0.997,36.005,15.203,42.536,31.412,13.693,6.59,9.093
1476,0.997,36.108,15.097,42.488,31.398,13.695,6.427,8.851
1477,1.0,36.272,15.12,42.583,31.395,13.695,6.507,8.93
1478,1.02,36.37,15.155,42.517,31.391,13.735,6.508,8.85
1479,1.014,35.796,15.144,42.545,31.402,13.736,6.589,9.011
1480,1.01,35.924,15.206,42.536,31.395,13.776,6.549,9.094
1481,1.001,36.06,15.199,42.536,31.405,13.777,6.63,9.258
1482,0.994,36.118,15.168,42.526,31.395,13.655,6.509,9.056
1483,0.984,35.966,15.124,42.526,31.398,13.654,6.549,9.095
1484,0.978,36.146,15.155,42.536,31.402,13.694,6.549,9.136
1485,0.958,36.263,15.218,42.526,31.405,13.613,6.59,9.177
1486,0.961,36.341,15.18,42.545,31.402,13.572,6.631,9.177
1487,0.968,35.814,15.101,42.546,31.402,13.531,6.631,9.259
1488,0.955,35.962,15.034,42.526,31.391,13.327,6.509,9.178
1489,0.958,36.098,15.146,42.612,31.398,13.406,6.508,9.218
1490,0.968,36.128,15.12,42.556,31.384,13.407,6.508,9.178
1491,0.961,35.956,15.175,42.536,31.402,13.489,6.467,9.299
1492,0.968,36.117,15.179,42.555,31.402,13.652,6.467,9.26
1493,0.948,36.224,15.128,42.546,31.402,13.776,6.467,9.259
1494,0.932,36.475,15.108,42.546,31.398,13.858,6.426,9.219
1495,0.931,35.94,15.147,42.536,31.395,13.981,6.548,9.178
1496,0.938,36.079,15.206,42.545,31.405,14.104,6.63,9.177
1497,0.948,36.186,15.16,42.565,31.402,14.187,6.631,9.259
1498,0.948,36.177,15.109,42.555,31.405,14.188,6.631,9.178
1499,0.915,36.225,15.046,42.546,31.398,14.228,6.509,9.218
1500,0.922,36.389,15.037,42.565,31.395,14.269,6.63,9.178
1501,0.899,36.457,15.123,42.527,31.395,14.188,6.59,9.177
1502,0.908,35.787,15.198,42.564,31.402,14.35,6.671,9.259
1503,0.892,35.905,15.211,42.574,31.402,14.352,6.713,9.259
1504,0.876,36.059,15.074,42.603,31.405,14.311,6.672,9.259
1505,0.853,36.118,15.139,42.556,31.391,14.27,6.713,9.219
1506,0.84,35.793,15.171,42.565,31.395,14.188,6.713,9.259
1507,0.833,35.905,15.183,42.536,31.384,14.106,6.591,9.259
1508,0.83,36.098,15.175,42.584,31.398,14.146,6.753,9.3
1509,0.813,36.138,15.144,42.575,31.402,14.065,6.754,9.219
1510,0.816,35.87,15.105,42.584,31.412,14.146,6.876,9.259
1511,0.803,35.982,15.018,42.584,31.388,13.984,6.633,9.219
1512,0.82,36.127,15.119,42.565,31.391,14.063,6.712,9.178
1513,0.826,36.167,15.19,42.546,31.391,14.105,6.672,9.015
1514,0.817,35.937,15.152,42.593,31.402,14.268,6.713,9.176
1515,0.813,36.108,15.128,42.604,31.398,14.27,6.713,9.177
1516,0.816,36.244,15.171,42.604,31.402,14.351,6.794,9.218
1517,0.803,36.255,15.183,42.556,31.381,14.271,6.592,8.974
1518,0.787,35.794,15.183,42.574,31.402,14.229,6.712,8.972
1519,0.771,35.914,15.195,42.555,31.391,14.066,6.632,8.931
1520,0.761,36.031,15.195,42.603,31.402,14.186,6.712,9.053
1521,0.748,36.358,15.113,42.584,31.398,14.147,6.754,8.973
1522,0.734,36.083,15.136,42.594,31.402,14.065,6.754,9.053
1523,0.725,36.215,15.179,42.575,31.391,13.942,6.673,8.932
1524,0.724,36.321,15.206,42.594,31.398,13.982,6.753,8.972
1525,0.711,35.91,15.113,42.584,31.398,13.982,6.714,9.013
1526,0.695,35.963,15.124,42.613,31.391,13.982,6.835,9.094
1527,0.688,36.098,15.143,42.594,31.398,13.901,6.796,9.054
1528,0.682,36.205,15.179,42.594,31.384,13.819,6.795,9.095
1529,0.701,35.784,15.214,42.604,31.391,13.818,6.755,8.973
1530,0.698,35.866,15.199,42.604,31.391,13.696,6.754,9.053
1531,0.701,36.04,15.172,42.623,31.398,13.817,6.754,9.095
1532,0.708,36.137,15.109,42.613,31.398,13.859,6.754,8.973
1533,0.715,35.889,15.116,42.632,31.402,13.981,6.795,9.013
1534,0.692,35.982,15.159,42.604,31.391,13.982,6.795,8.85
1535,0.695,36.098,15.159,42.613,31.402,13.982,6.836,8.889
1536,0.705,36.167,15.062,42.585,31.384,13.982,6.714,8.89
1537,0.724,35.909,15.088,42.67,31.405,14.104,6.835,8.93
1538,0.698,36.069,15.147,42.614,31.395,14.146,6.837,8.972
1539,0.698,36.214,15.183,42.661,31.405,14.187,6.918,9.013
1540,0.679,36.235,15.179,42.604,31.391,14.025,6.756,8.85
1541,0.682,35.823,15.234,42.613,31.395,14.023,6.836,8.849
1542,0.672,35.963,15.211,42.585,31.388,13.942,6.755,8.727
1543,0.685,36.117,15.172,42.642,31.402,14.063,6.876,8.929
1544,0.685,36.167,15.124,42.623,31.395,13.983,6.796,8.85
1545,0.682,36.014,15.225,42.652,31.409,14.063,6.958,9.011
1546,0.666,36.089,15.164,42.614,31.395,13.861,6.756,8.81
1547,0.672,36.224,15.101,42.642,31.391,13.9,6.795,8.848
1548,0.662,36.532,15.085,42.633,31.398,13.778,6.714,8.727
1549,0.672,36.248,15.163,42.728,31.398,13.858,6.835,8.888
1550,0.678,36.398,15.136,42.643,31.398,13.818,6.755,8.849
1551,0.675,36.496,15.159,42.661,31.405,13.981,6.917,8.93
1552,0.675,35.73,15.222,42.623,31.388,13.942,6.715,8.687
1553,0.678,35.693,15.105,42.652,31.391,14.022,6.672,8.807
1554,0.672,35.827,15.104,42.642,31.398,14.105,6.672,8.686
1555,0.675,35.943,15.128,42.652,31.398,14.268,6.753,8.807
1556,0.685,35.897,15.186,42.652,31.402,14.27,6.795,8.767
1557,0.692,36.04,15.187,42.652,31.402,14.432,6.877,8.848
1558,0.679,36.157,15.117,42.633,31.388,14.271,6.674,8.727
1559,0.675,36.263,15.104,42.652,31.391,14.31,6.713,8.807
1560,0.675,35.756,15.042,42.662,31.395,14.229,6.713,8.686
1561,0.672,35.914,15.119,42.681,31.405,14.351,6.713,8.928
1562,0.652,36.04,15.171,42.671,31.398,14.23,6.713,8.85
1563,0.659,36.118,15.202,42.671,31.398,14.473,6.794,9.011
1564,0.646,35.918,15.09,42.662,31.395,14.394,6.633,8.85
1565,0.655,36.088,15.12,42.681,31.388,14.434,6.712,9.052
1566,0.652,36.224,15.179,42.662,31.391,14.393,6.632,8.973
1567,0.646,36.264,15.214,42.671,31.398,14.474,6.712,9.013
1568,0.652,35.823,15.191,42.671,31.395,14.353,6.672,9.054
1569,0.659,35.953,15.144,42.681,31.391,14.393,6.672,9.135
1570,0.659,36.06,15.159,42.662,31.391,14.23,6.631,9.014
1571,0.656,36.109,15.081,42.671,31.391,14.391,6.59,9.054
1572,0.672,35.956,15.139,42.69,31.398,14.515,6.631,9.054
1573,0.665,36.079,15.194,42.691,31.395,14.638,6.55,9.054
1574,0.672,36.234,15.152,42.7,31.395,14.721,6.63,9.054
1575,0.672,36.408,15.128,42.672,31.391,14.722,6.55,9.013
1576,0.678,35.863,15.124,42.662,31.395,14.762,6.59,8.972
1577,0.675,35.973,15.167,42.652,31.388,14.722,6.468,8.931
1578,0.695,36.137,15.187,42.709,31.398,14.884,6.629,9.053
1579,0.679,35.927,15.191,42.7,31.395,14.845,6.631,9.054
1580,0.685,36.031,15.179,42.729,31.416,14.885,6.631,9.013
1581,0.659,36.118,15.109,42.653,31.384,14.682,6.509,8.932
1582,0.665,36.244,15.124,42.69,31.395,14.68,6.508,8.85
1583,0.656,35.785,15.155,42.691,31.391,14.558,6.386,8.727
1584,0.668,35.924,15.206,42.7,31.388,14.598,6.547,8.929
1585,0.649,36.05,15.136,42.71,31.398,14.598,6.468,8.89
1586,0.649,36.195,15.034,42.739,31.405,14.639,6.629,9.052
1587,0.646,35.842,15.135,42.672,31.395,14.273,6.428,8.81
1588,0.646,36.001,15.175,42.7,31.391,14.27,6.426,8.808
1589,0.655,36.127,15.156,42.71,31.398,14.188,6.426,8.686
1590,0.655,36.205,15.187,42.71,31.402,14.188,6.548,8.847
1591,0.655,35.909,15.183,42.7,31.402,14.188,6.508,8.727
1592,0.649,36.069,15.109,42.71,31.398,14.228,6.467,8.848
1593,0.649,36.195,15.139,42.71,31.391,14.228,6.426,8.646
1594,0.668,36.235,15.159,42.729,31.398,14.31,6.466,8.684
1595,0.675,35.804,15.187,42.72,31.398,14.229,6.507,8.644
1596,0.675,35.953,15.136,42.71,31.398,14.351,6.467,8.603
1597,0.688,36.098,15.089,42.72,31.391,14.433,6.467,8.602
1598,0.688,36.128,15.088,42.701,31.395,14.312,6.426,8.602
1599,0.688,35.908,15.12,42.71,31.391,14.311,6.385,8.44
1600,0.685,36.05,15.136,42.71,31.395,14.351,6.466,8.479
1601,0.721,36.176,15.167,42.72,31.402,14.393,6.507,8.56
1602,0.728,36.398,15.191,42.729,31.398,14.312,6.467,8.521
1603,0.767,35.93,15.097,42.758,31.398,14.311,6.467,8.479
1604,0.78,36.021,15.131,42.701,31.388,14.108,6.426,8.479
1605,0.803,36.137,15.19,42.71,31.384,14.105,6.344,8.52
1606,0.81,35.899,15.207,42.691,31.377,13.902,6.343,8.479
1607,0.846,35.983,15.148,42.748,31.398,13.981,6.506,8.642
1608,0.862,36.127,15.077,42.73,31.398,13.942,6.427,8.521
1609,0.915,36.263,15.073,42.777,31.419,13.982,6.507,8.601
1610,0.931,35.862,15.073,42.739,31.391,13.738,6.386,8.48
1611,0.961,35.973,15.123,42.72,31.395,13.858,6.425,8.438
1612,0.994,36.089,15.167,42.71,31.388,13.859,6.304,8.357
1613,1.039,36.186,15.171,42.748,31.409,14.022,6.465,8.519
1614,1.066,35.832,15.144,42.768,31.402,14.105,6.426,8.479
1615,1.121,35.982,15.148,42.759,31.412,14.227,6.548,8.601
1616,1.155,36.118,15.159,42.739,31.398,14.147,6.346,8.358
1617,1.187,36.177,15.183,42.739,31.405,14.187,6.384,8.397
1618,1.201,35.832,15.152,42.73,31.398,14.35,6.263,8.356
1619,1.24,35.972,15.159,42.768,31.398,14.352,6.384,8.437
1620,1.279,36.098,15.116,42.759,31.412,14.352,6.385,8.397
1621,1.299,36.196,15.143,42.778,31.405,14.433,6.466,8.478
1622,1.322,35.899,15.144,42.73,31.395,14.353,6.345,8.316
1623,1.319,36.05,15.183,42.739,31.398,14.514,6.425,8.315
1624,1.342,36.185,15.136,42.768,31.409,14.516,6.344,8.356
1625,1.339,36.206,15.116,42.854,31.405,14.557,6.466,8.397
1626,1.326,35.957,15.132,42.788,31.402,14.476,6.386,8.356
1627,1.277,36.108,15.147,42.749,31.395,14.394,6.385,8.437
1628,1.228,36.215,15.202,42.768,31.402,14.23,6.385,8.357
1629,1.208,36.417,15.199,42.759,31.395,14.228,6.425,8.356
1630,1.175,35.997,15.207,42.778,31.405,14.269,6.385,8.356
1631,1.184,36.137,15.199,42.768,31.405,14.31,6.385,8.356
1632,1.155,36.282,15.168,42.778,31.398,14.311,6.425,8.356
1633,1.064,35.891,15.156,42.768,31.402,14.433,6.344,8.356
1634,1.011,35.934,15.195,42.768,31.398,14.475,6.343,8.315
1635,0.942,36.04,15.148,42.739,31.388,14.516,6.303,8.396
1636,0.883,36.185,15.058,42.777,31.402,14.638,6.384,8.397
1637,0.762,35.89,15.112,42.778,31.398,14.639,6.385,8.356
1638,0.663,36.05,15.116,42.807,31.405,14.802,6.588,8.519
1639,0.499,36.138,15.175,42.759,31.395,14.478,6.305,8.358
1640,0.384,36.244,15.191,42.787,31.395,14.434,6.343,8.397
1641,0.298,35.842,15.183,42.759,31.384,14.353,6.221,8.234
1642,0.197,36.03,15.167,42.787,31.398,14.433,6.424,8.436
1643,0.13,36.176,15.132,42.788,31.395,14.353,6.385,8.438
1644,0.049,36.244,15.147,42.788,31.405,14.311,6.547,8.519
1645,-0.053,35.813,15.187,42.759,31.391,14.067,6.346,8.479
1646,-0.132,35.962,15.168,42.797,31.395,14.064,6.384,8.438
1647,-0.14,36.098,15.066,42.797,31.388,13.942,6.344,8.397
1648,-0.149,36.167,15.01,42.816,31.395,13.941,6.425,8.519
1649,-0.133,35.957,15.099,42.807,31.391,13.86,6.426,8.52
1650,-0.087,36.098,15.124,42.807,31.402,13.859,6.507,8.642
1651,-0.051,36.243,15.167,42.788,31.388,13.778,6.345,8.521
1652,0.001,36.255,15.187,42.807,31.402,13.818,6.343,8.601
1653,0.057,35.9,15.074,42.807,31.391,13.859,6.343,8.44
1654,0.11,36.04,15.116,42.816,31.384,14.022,6.466,8.682
1655,0.152,36.157,15.147,42.807,31.398,14.023,6.467,8.522
1656,0.195,36.359,15.222,42.816,31.395,14.145,6.507,8.683
1657,0.248,35.92,15.172,42.807,31.388,14.024,6.345,8.522
1658,0.29,36.079,15.101,42.826,31.388,14.105,6.425,8.601
1659,0.327,36.176,15.081,42.817,31.381,14.024,6.385,8.521
1660,0.392,35.976,15.073,42.826,31.388,14.023,6.466,8.805
1661,0.451,36.041,15.151,42.836,31.391,13.901,6.467,8.604
1662,0.501,36.185,15.179,42.845,31.395,13.859,6.467,8.806
1663,0.54,36.273,15.21,42.807,31.388,13.696,6.345,8.604
1664,0.586,35.929,15.066,42.845,31.395,13.613,6.466,8.684
1665,0.606,36.05,15.123,42.846,31.395,13.613,6.386,8.684
1666,0.629,36.195,15.143,42.836,31.395,13.572,6.466,8.766
1667,0.655,36.264,15.202,42.845,31.398,13.449,6.386,8.767
1668,0.668,35.823,15.179,42.836,31.395,13.408,6.466,8.807
1669,0.685,35.963,15.152,42.845,31.384,13.204,6.304,8.767
1670,0.692,36.098,15.105,42.836,31.395,13.202,6.384,8.767
1671,0.708,36.186,15.069,42.855,31.398,13.283,6.425,8.807
1672,0.708,35.957,15.143,42.865,31.395,13.284,6.466,8.808
1673,0.715,36.117,15.175,42.855,31.398,13.365,6.426,8.808
1674,0.705,36.215,15.128,42.827,31.395,13.407,6.385,8.686
1675,0.721,36.273,15.101,42.855,31.391,13.367,6.344,8.684
1676,0.721,35.977,15.12,42.836,31.398,13.447,6.343,8.684
1677,0.728,36.156,15.171,42.855,31.405,13.53,6.466,8.766
1678,0.718,36.254,15.171,42.855,31.405,13.49,6.467,8.767
1679,0.721,36.341,15.214,42.884,31.412,13.49,6.467,8.767
1680,0.702,35.939,15.16,42.865,31.395,13.449,6.304,8.685
1681,0.708,36.088,15.136,42.855,31.398,13.408,6.384,8.684
1682,0.695,36.176,15.128,42.836,31.391,13.326,6.344,8.684
1683,0.714,36.436,15.147,42.884,31.402,13.447,6.425,8.766
1684,0.715,36.017,15.175,42.865,31.402,13.448,6.426,8.767
1685,0.718,36.195,15.144,42.903,31.409,13.448,6.507,8.848
1686,0.702,36.273,15.136,42.904,31.398,13.286,6.305,8.727
1687,0.695,35.977,15.147,42.875,31.402,13.325,6.343,8.726
1688,0.714,36.012,15.124,42.865,31.388,13.081,6.221,8.603
1689,0.728,36.195,15.143,42.894,31.402,13.241,6.464,8.765
1690,0.725,36.283,15.159,42.894,31.405,13.202,6.304,8.726
1691,0.721,35.977,15.195,42.904,31.416,13.405,6.506,8.807
1692,0.711,36.05,15.074,42.884,31.395,13.204,6.305,8.604
1693,0.715,36.224,15.112,42.894,31.398,13.405,6.384,8.602
1694,0.718,36.302,15.136,42.875,31.402,13.367,6.222,8.562
1695,0.734,35.939,15.187,42.884,31.409,13.569,6.342,8.683
1696,0.747,36.069,15.113,42.884,31.398,13.571,6.303,8.603
1697,0.734,36.205,15.069,42.903,31.409,13.653,6.465,8.643
1698,0.725,36.273,15.127,42.884,31.402,13.532,6.264,8.603
1699,0.731,35.881,15.151,42.903,31.405,13.49,6.302,8.48
1700,0.734,36.03,15.187,42.894,31.402,13.449,6.302,8.479
1701,0.738,36.166,15.179,42.904,31.405,13.408,6.343,8.601
1702,0.734,36.206,15.238,42.884,31.402,13.407,6.384,8.562
1703,0.731,35.986,15.07,42.903,31.398,13.407,6.425,8.602
1704,0.728,36.137,15.123,42.884,31.398,13.326,6.385,8.521
1705,0.715,36.263,15.167,42.913,31.402,13.284,6.344,8.561
1706,0.721,36.303,15.195,42.894,31.405,13.284,6.466,8.602
1707,0.724,36.035,15.129,42.904,31.405,13.284,6.467,8.521
1708,0.718,36.204,15.065,42.913,31.405,13.162,6.467,8.52
1709,0.721,36.302,15.018,42.894,31.405,13.12,6.467,8.561
1710,0.721,36.456,15.115,42.923,31.402,13.079,6.467,8.48
1711,0.728,35.998,15.132,42.894,31.402,13.119,6.426,8.479
1712,0.738,36.175,15.198,42.923,31.409,13.323,6.548,8.52
1713,0.741,36.273,15.144,42.913,31.409,13.366,6.549,8.52
1714,0.777,36.121,15.132,42.942,31.412,13.569,6.59,8.479
1715,0.745,36.119,15.105,42.914,31.398,13.449,6.468,8.398
1716,0.757,36.282,15.155,42.913,31.405,13.489,6.548,8.397
1717,0.757,36.36,15.128,42.885,31.395,13.49,6.427,8.316
1718,0.774,36.428,15.132,42.913,31.412,13.693,6.548,8.477
1719,0.741,36.563,15.101,42.942,31.405,13.735,6.59,8.398
1720,0.767,36.728,15.057,42.952,31.412,13.817,6.712,8.438
1721,0.754,36.768,15.143,42.904,31.402,13.696,6.591,8.357
1722,0.741,35.636,15.144,42.932,31.402,13.695,6.631,8.437
1723,0.728,35.769,15.214,42.913,31.391,13.613,6.59,8.316
1724,0.728,35.905,15.121,42.932,31.405,13.775,6.753,8.599
1725,0.721,35.983,15.12,42.942,31.402,13.696,6.673,8.602
1726,0.721,36.175,15.12,42.942,31.416,13.735,6.794,8.765
1727,0.741,36.311,15.182,42.914,31.398,13.533,6.673,8.645
1728,0.754,36.437,15.206,42.923,31.405,13.531,6.713,8.644
1729,0.754,36.506,15.183,42.933,31.405,13.531,6.713,8.603
1730,0.761,35.931,15.167,42.942,31.405,13.531,6.794,8.765
1731,0.774,36.088,15.078,42.952,31.398,13.531,6.795,8.767
1732,0.774,36.176,15.096,42.933,31.405,13.653,6.836,8.807
1733,0.78,36.225,15.147,42.942,31.402,13.694,6.796,8.767
1734,0.767,36.11,15.198,42.923,31.402,13.857,6.755,8.767
1735,0.793,36.282,15.086,42.952,31.409,13.94,6.795,8.807
1736,0.793,36.418,15.1,42.942,31.405,14.022,6.836,8.808
1737,0.79,36.544,15.128,42.962,31.412,14.105,6.837,8.808
1738,0.774,36.027,15.136,42.923,31.398,14.065,6.796,8.808
1739,0.771,36.185,15.159,42.961,31.405,14.105,6.755,8.848
1740,0.777,36.263,15.183,42.933,31.395,13.983,6.795,8.889
1741,0.787,36.015,15.132,42.952,31.409,14.145,6.836,8.89
1742,0.784,36.06,15.069,42.962,31.402,14.106,6.755,8.93
1743,0.803,36.243,15.143,42.99,31.416,14.187,6.876,9.093
1744,0.797,36.293,15.159,42.962,31.398,13.984,6.715,8.932
1745,0.794,36.044,15.187,42.943,31.402,14.023,6.672,9.053
1746,0.8,36.176,15.074,42.942,31.395,13.901,6.631,9.013
1747,0.797,36.321,15.041,42.99,31.405,13.981,6.794,9.176
1748,0.784,36.409,15.111,42.962,31.402,13.982,6.755,9.177
1749,0.787,36.016,15.175,43.0,31.419,14.063,6.876,9.299
1750,0.78,36.118,15.152,42.962,31.398,13.861,6.633,9.016
1751,0.78,36.263,15.167,42.962,31.402,13.9,6.672,9.135
1752,0.787,36.331,15.175,42.943,31.398,13.941,6.55,9.095
1753,0.793,36.035,15.117,42.99,31.405,14.144,6.793,9.258
1754,0.803,36.166,15.116,42.972,31.405,14.187,6.714,9.259
1755,0.82,36.283,15.143,43.0,31.419,14.391,6.713,9.341
1756,0.823,36.322,15.163,42.962,31.402,14.23,6.632,9.138
1757,0.82,35.977,15.124,42.971,31.405,14.391,6.59,9.136
1758,0.82,36.108,15.069,42.971,31.395,14.312,6.59,9.136
1759,0.81,36.263,15.01,43.01,31.412,14.514,6.671,9.177
1760,0.813,36.283,15.115,42.962,31.398,14.435,6.55,9.259
1761,0.81,36.533,15.143,43.0,31.412,14.393,6.671,9.259
1762,0.807,36.651,15.19,42.962,31.395,14.271,6.509,9.137
1763,0.82,36.776,15.156,42.971,31.402,14.27,6.63,9.136
1764,0.81,36.739,15.105,42.962,31.398,14.229,6.509,9.136
1765,0.803,35.885,15.116,42.981,31.409,14.269,6.63,9.217
1766,0.797,36.011,15.182,42.981,31.398,14.107,6.631,9.3
1767,0.807,36.137,15.167,42.971,31.402,14.024,6.55,9.26
1768,0.816,36.004,15.136,42.971,31.402,13.861,6.549,9.259
1769,0.813,36.079,15.081,42.971,31.409,13.859,6.63,9.219
1770,0.829,36.224,15.069,43.01,31.405,13.859,6.672,9.218
1771,0.833,36.35,15.057,43.001,31.405,13.737,6.631,9.178
1772,0.852,35.891,15.151,43.02,31.412,13.817,6.631,9.259
1773,0.833,35.944,15.183,42.972,31.405,13.737,6.59,9.178
1774,0.849,36.117,15.066,43.0,31.402,13.776,6.631,9.218
1775,0.843,36.177,15.112,42.962,31.395,13.777,6.468,9.096
1776,0.859,36.014,15.143,43.0,31.405,13.858,6.711,9.176
1777,0.856,36.156,15.19,43.0,31.402,13.778,6.632,9.177
1778,0.859,36.33,15.191,43.02,31.416,13.899,6.794,9.259
1779,0.84,36.361,15.16,43.001,31.398,13.534,6.551,9.056
1780,0.843,35.872,15.12,43.0,31.402,13.612,6.549,9.054
1781,0.839,36.021,15.046,43.0,31.395,13.45,6.508,8.973
1782,0.852,36.176,15.088,43.02,31.405,13.53,6.63,9.135
1783,0.856,36.235,15.135,43.01,31.409,13.531,6.631,9.136
1784,0.856,35.996,15.14,43.01,31.416,13.571,6.753,9.258
1785,0.823,36.127,15.066,43.01,31.398,13.327,6.632,9.097
1786,0.846,36.292,15.112,43.02,31.402,13.284,6.672,9.136
1787,0.853,36.313,15.104,43.02,31.398,13.243,6.591,9.055
1788,0.856,36.054,15.174,43.02,31.402,13.284,6.712,9.176
1789,0.872,36.185,15.16,43.039,31.402,13.203,6.754,9.137
1790,0.876,36.283,15.187,43.02,31.412,13.243,6.754,9.258
1791,0.885,36.418,15.164,43.01,31.402,13.243,6.673,9.056
1792,0.885,36.007,15.038,43.029,31.398,13.365,6.672,9.095
1793,0.892,36.175,15.115,43.039,31.405,13.569,6.672,9.095
1794,0.899,36.263,15.179,43.03,31.409,13.694,6.713,9.054
1795,0.899,35.89,15.167,43.039,31.402,13.735,6.672,9.054
1796,0.889,35.925,15.05,43.039,31.402,13.858,6.713,9.013
1797,0.905,36.088,15.084,43.02,31.402,13.859,6.551,8.972
1798,0.905,36.186,15.127,43.02,31.405,13.981,6.63,8.972
1799,0.921,35.89,15.155,43.039,31.409,13.982,6.672,9.094
1800,0.922,36.021,15.148,43.039,31.412,13.982,6.631,9.014
1801,0.909,36.166,15.151,43.058,31.409,13.982,6.794,9.094
1802,0.899,36.215,15.144,43.03,31.398,13.901,6.633,8.932
1803,0.912,35.823,15.128,43.029,31.402,13.981,6.59,9.012
1804,0.899,35.943,15.116,43.001,31.391,13.901,6.549,8.972
1805,0.905,36.117,15.179,43.048,31.405,14.022,6.712,9.094
1806,0.905,36.177,15.124,43.039,31.409,13.942,6.632,9.136
1807,0.921,35.918,15.073,43.077,31.416,14.063,6.794,9.258
1808,0.918,36.021,14.963,43.059,31.398,13.861,6.633,9.056
1809,0.938,36.147,15.107,43.049,31.405,13.859,6.631,9.054
1810,0.932,36.206,15.077,43.03,31.391,13.859,6.468,8.932
1811,0.954,36.024,15.131,43.049,31.405,14.062,6.629,9.093
1812,0.954,36.137,15.163,43.058,31.402,14.146,6.631,9.095
1813,0.964,36.292,15.093,43.087,31.416,14.391,6.712,9.217
1814,0.968,36.322,15.124,43.059,31.402,14.352,6.551,8.974
1815,0.99,35.785,15.151,43.049,31.412,14.352,6.59,9.013
1816,0.984,35.924,15.202,43.049,31.398,14.433,6.468,8.972
1817,0.978,36.06,15.121,43.049,31.409,14.434,6.629,9.013
1818,1.0,36.224,15.097,43.058,31.402,14.393,6.55,9.013
1819,0.991,35.986,15.046,43.049,31.405,14.393,6.59,9.094
1820,0.994,36.108,14.971,43.068,31.405,14.312,6.549,8.932
1821,0.994,36.244,15.083,43.049,31.398,14.189,6.549,9.053
1822,0.997,35.823,15.131,43.068,31.402,14.269,6.59,9.095
1823,1.0,35.838,15.128,43.059,31.405,14.148,6.549,9.136
1824,1.004,36.001,15.128,43.164,31.405,14.146,6.549,9.177
1825,0.997,36.07,15.124,43.05,31.402,14.065,6.549,9.218
1826,1.004,35.821,15.14,43.068,31.395,13.983,6.549,9.178
1827,1.0,35.934,15.159,43.049,31.398,13.901,6.549,9.137
1828,1.013,36.108,15.144,43.078,31.405,13.981,6.63,9.258
1829,1.017,36.176,15.112,43.078,31.412,13.901,6.631,9.137
1830,1.04,35.765,15.085,43.097,31.423,14.022,6.672,9.339
1831,1.046,35.885,15.085,43.049,31.398,13.779,6.509,9.097
1832,1.063,36.021,15.116,43.087,31.405,13.899,6.589,9.095
1833,1.073,36.08,15.163,43.04,31.395,13.737,6.509,8.973
1834,1.086,35.716,15.113,43.077,31.412,13.939,6.589,9.175
1835,1.066,35.875,15.104,43.078,31.398,13.941,6.631,9.096
1836,1.069,36.021,15.116,43.097,31.419,13.982,6.672,9.298
1837,1.079,36.041,15.147,43.059,31.405,13.901,6.469,9.016
1838,1.089,35.859,15.148,43.068,31.398,13.859,6.507,9.176
1839,1.083,36.02,15.187,43.068,31.391,13.778,6.467,9.096
1840,1.092,36.147,15.144,43.087,31.409,13.736,6.548,9.176
1841,1.083,36.177,15.046,43.088,31.405,13.695,6.59,9.218
1842,1.089,35.755,15.084,43.088,31.412,13.695,6.671,9.3
1843,1.089,35.895,15.143,43.078,31.402,13.573,6.428,9.138
1844,1.099,35.983,15.151,43.068,31.402,13.612,6.507,9.258
1845,1.102,36.185,15.066,43.097,31.405,13.531,6.549,9.137
1846,1.099,35.957,15.112,43.107,31.398,13.571,6.549,9.217
1847,1.115,36.089,15.096,43.088,31.398,13.49,6.508,9.218
1848,1.122,36.176,15.143,43.068,31.409,13.408,6.63,9.096
1849,1.138,35.64,15.148,43.078,31.388,13.407,6.509,9.054
1850,1.142,35.673,15.175,43.078,31.402,13.367,6.508,9.095
1851,1.158,35.827,15.163,43.097,31.409,13.529,6.63,9.136
1852,1.171,35.934,15.031,43.116,31.412,13.531,6.59,9.014
1853,1.165,35.82,15.088,43.088,31.409,13.612,6.509,8.972
1854,1.155,35.934,15.147,43.097,31.402,13.613,6.589,8.972
1855,1.168,36.079,15.14,43.078,31.402,13.613,6.509,8.85
1856,1.148,36.138,15.042,43.059,31.398,13.694,6.508,8.808
1857,1.168,35.697,15.08,43.097,31.405,13.857,6.589,8.93
1858,1.175,35.875,15.084,43.097,31.412,13.778,6.631,8.89
1859,1.188,36.021,15.147,43.136,31.416,13.899,6.631,8.93
1860,1.188,36.032,15.151,43.098,31.409,13.737,6.468,8.768
1861,1.188,36.243,15.175,43.097,31.412,13.817,6.467,8.807
1862,1.194,36.37,15.128,43.059,31.391,13.777,6.467,8.767
1863,1.191,36.534,15.128,43.116,31.405,13.858,6.629,8.929
1864,1.185,36.593,15.14,43.097,31.409,13.9,6.55,8.931
1865,1.194,35.529,15.19,43.136,31.412,13.981,6.712,9.093
1866,1.181,35.634,15.148,43.088,31.402,13.82,6.591,8.851
1867,1.204,35.779,15.054,43.116,31.402,13.859,6.549,8.93
1868,1.181,35.809,15.014,43.088,31.391,13.656,6.549,8.89
1869,1.191,36.039,15.103,43.145,31.409,13.735,6.63,8.971
1870,1.191,36.166,15.135,43.107,31.412,13.695,6.631,9.053
1871,1.204,36.292,15.112,43.126,31.419,13.776,6.753,9.135
1872,1.211,36.36,15.159,43.098,31.395,13.696,6.592,8.933
1873,1.211,35.901,15.058,43.097,31.405,13.857,6.59,8.972
1874,1.207,36.04,15.104,43.116,31.395,13.9,6.59,9.013
1875,1.214,36.157,15.112,43.126,31.402,13.981,6.671,9.013
1876,1.227,36.023,15.143,43.117,31.412,13.982,6.591,9.013
1877,1.217,36.089,15.12,43.117,31.412,13.982,6.671,9.054
1878,1.214,36.205,15.089,43.078,31.402,13.901,6.55,8.932
1879,1.188,36.292,15.061,43.107,31.398,13.859,6.63,9.053
1880,1.194,36.073,15.026,43.126,31.405,13.778,6.672,8.932
1881,1.194,36.186,15.088,43.126,31.416,13.777,6.591,9.012
1882,1.198,36.35,15.159,43.136,31.409,13.777,6.549,8.932
1883,1.175,36.39,15.156,43.098,31.402,13.655,6.549,8.89
1884,1.171,36.15,15.07,43.126,31.398,13.572,6.549,8.849
1885,1.149,36.282,15.096,43.098,31.395,13.531,6.63,8.849
1886,1.152,36.428,15.135,43.145,31.409,13.449,6.59,8.93
1887,1.145,36.496,15.167,43.146,31.405,13.367,6.631,8.89
1888,1.145,36.439,15.183,43.155,31.416,13.366,6.672,8.89
1889,1.116,36.525,15.136,43.098,31.398,13.204,6.55,8.809
1890,1.109,36.641,15.116,43.116,31.402,13.202,6.549,8.767
1891,1.089,36.69,15.061,43.117,31.395,13.08,6.508,8.645
1892,1.099,36.441,15.084,43.155,31.402,13.363,6.67,8.806
1893,1.115,36.573,15.159,43.146,31.398,13.447,6.631,8.808
1894,1.102,36.689,15.144,43.155,31.426,13.692,6.753,8.848
1895,1.089,36.71,15.089,43.203,31.399,13.532,6.551,8.686
1896,1.073,36.662,15.081,43.117,31.412,13.571,6.549,8.766
1897,1.066,36.805,15.127,43.117,31.395,13.571,6.468,8.685
1898,1.053,36.903,15.144,43.136,31.412,13.653,6.67,8.807
1899,1.03,37.076,15.159,43.136,31.412,13.654,6.631,8.726
1900,1.037,36.771,15.159,43.126,31.409,13.654,6.631,8.766
1901,1.004,36.912,15.101,43.126,31.398,13.491,6.55,8.726
1902,0.994,37.038,15.1,43.136,31.405,13.53,6.549,8.766
1903,0.984,36.819,15.104,43.136,31.398,13.408,6.59,8.767
1904,0.935,36.884,15.178,43.136,31.412,13.529,6.631,8.889
1905,0.935,37.038,15.101,43.136,31.405,13.368,6.672,8.89
1906,0.925,37.106,14.987,43.155,31.405,13.325,6.591,8.849
1907,0.918,36.886,15.107,43.146,31.402,13.244,6.59,8.808
1908,0.902,36.999,15.132,43.136,31.402,13.284,6.631,8.808
1909,0.921,37.144,15.151,43.165,31.405,13.284,6.55,8.889
1910,0.909,37.232,15.152,43.155,31.398,13.203,6.63,8.849
1911,0.915,37.137,15.198,43.174,31.412,13.365,6.672,8.889
1912,0.899,37.222,15.078,43.136,31.391,13.285,6.55,8.768
1913,0.905,37.367,15.088,43.146,31.402,13.406,6.59,8.807
1914,0.873,37.436,15.081,43.117,31.388,13.326,6.549,8.808
1915,0.882,37.206,15.159,43.145,31.412,13.528,6.712,8.848
1916,0.879,37.338,15.101,43.136,31.409,13.531,6.672,8.849
1917,0.869,37.483,15.085,43.174,31.419,13.693,6.753,9.093
1918,0.85,37.523,15.081,43.136,31.398,13.492,6.551,8.892
1919,0.82,37.341,15.12,43.155,31.409,13.49,6.63,8.971
1920,0.865,37.474,15.136,43.146,31.398,13.449,6.59,8.891
1921,0.862,37.6,15.132,43.146,31.409,13.57,6.712,9.012
1922,0.83,37.63,15.183,43.136,31.405,13.49,6.672,8.972
1923,0.817,37.477,15.019,43.165,31.412,13.49,6.672,9.135
1924,0.803,37.609,15.072,43.127,31.405,13.408,6.631,8.974
1925,0.797,37.735,15.143,43.136,31.402,13.367,6.672,9.013
1926,0.794,37.9,15.151,43.146,31.402,13.366,6.672,9.094
1927,0.797,37.671,15.112,43.155,31.409,13.325,6.753,9.095
1928,0.781,37.822,15.038,43.165,31.405,13.325,6.754,9.014
1929,0.78,37.881,15.037,43.165,31.395,13.244,6.714,8.932
1930,0.777,37.68,15.139,43.146,31.398,13.202,6.632,8.931
1931,0.761,37.707,15.12,43.155,31.395,13.243,6.712,9.012
1932,0.787,37.861,15.194,43.155,31.405,13.446,6.794,9.054
1933,0.764,37.958,15.144,43.165,31.409,13.53,6.795,8.973
1934,0.787,37.825,15.116,43.194,31.412,13.693,6.795,9.013
1935,0.771,37.91,15.077,43.156,31.395,13.695,6.755,8.932
1936,0.777,38.036,15.17,43.146,31.402,13.776,6.714,8.85
1937,0.761,38.085,15.117,43.136,31.384,13.736,6.632,8.808
1938,0.761,37.874,15.128,43.165,31.405,13.898,6.834,8.93
1939,0.754,38.026,15.085,43.165,31.402,13.941,6.796,8.931
1940,0.748,38.181,15.049,43.184,31.409,14.063,6.877,9.012
1941,0.747,38.201,15.01,43.175,31.398,13.78,6.755,8.81
1942,0.728,37.895,15.092,43.175,31.405,13.858,6.714,8.889
1943,0.718,38.055,15.155,43.146,31.398,13.818,6.632,8.727
1944,0.731,38.181,15.081,43.174,31.412,13.899,6.834,8.929
1945,0.725,38.23,15.069,43.175,31.398,13.9,6.796,8.931
1946,0.718,38.048,15.112,43.175,31.409,14.022,6.877,9.012
1947,0.692,38.162,15.112,43.165,31.402,13.861,6.796,8.85
1948,0.695,38.287,15.151,43.175,31.398,13.859,6.877,8.93
1949,0.698,38.289,15.159,43.165,31.405,13.818,6.796,8.931
1950,0.714,38.087,15.156,43.184,31.405,13.899,6.836,9.012
1951,0.724,38.219,15.113,43.194,31.398,13.9,6.837,9.013
1952,0.708,38.336,15.124,43.184,31.412,14.103,6.918,9.135
1953,0.721,38.423,15.12,43.175,31.398,14.146,6.796,8.933
1954,0.741,38.117,15.136,43.184,31.402,14.187,6.795,9.093
1955,0.744,38.258,15.116,43.194,31.402,14.31,6.836,9.054
1956,0.734,38.365,15.007,43.213,31.405,14.433,6.796,9.095
1957,0.731,38.098,15.08,43.185,31.405,14.393,6.836,9.095
1958,0.721,38.143,15.096,43.184,31.405,14.515,6.796,9.095
1959,0.721,38.297,15.108,43.175,31.398,14.435,6.795,9.136
1960,0.698,38.365,15.139,43.194,31.402,14.434,6.795,9.136
1961,0.698,38.05,15.167,43.204,31.402,14.434,6.836,9.177
1962,0.682,38.133,15.136,43.194,31.409,14.393,6.837,9.177
1963,0.711,38.325,15.093,43.223,31.398,14.474,6.877,9.137
1964,0.695,38.375,15.089,43.175,31.402,14.353,6.837,9.095
1965,0.692,38.146,15.143,43.184,31.398,14.311,6.918,9.095
1966,0.685,38.278,15.101,43.184,31.395,14.311,6.837,9.095
1967,0.705,38.442,15.046,43.213,31.402,14.27,6.958,9.136
1968,0.702,38.539,15.006,43.223,31.405,14.188,7.0,9.095
1969,0.698,38.109,15.072,43.242,31.409,14.106,6.96,9.095
1970,0.685,38.21,15.049,43.204,31.398,13.943,6.878,9.054
1971,0.692,38.336,15.166,43.213,31.402,13.982,6.959,8.973
1972,0.701,38.356,15.156,43.175,31.388,13.86,6.838,8.891
1973,0.727,37.915,15.042,43.232,31.405,14.022,7.121,9.012
1974,0.721,38.045,15.08,43.233,31.405,13.983,7.043,9.013
1975,0.737,38.181,15.143,43.271,31.416,14.185,7.204,9.176
1976,0.728,38.182,15.148,43.204,31.398,13.944,6.921,8.933
1977,0.731,38.23,15.109,43.213,31.398,13.941,7.0,8.972
1978,0.721,38.374,15.054,43.213,31.398,13.86,6.797,8.85
1979,0.705,38.481,14.983,43.233,31.405,13.94,6.958,8.971
1980,0.708,38.444,15.056,43.3,31.409,13.9,6.96,9.013
1981,0.695,37.945,15.08,43.224,31.412,13.941,7.082,9.054
1982,0.701,38.065,15.112,43.213,31.402,13.697,6.92,8.973
1983,0.708,38.162,15.116,43.223,31.409,13.817,6.919,9.013
1984,0.705,37.933,15.089,43.223,31.405,13.859,6.959,9.094
1985,0.698,37.988,15.104,43.233,31.412,13.94,6.96,9.136
1986,0.711,38.132,15.135,43.233,31.398,13.9,6.919,9.136
1987,0.698,38.191,15.19,43.233,31.398,13.778,6.919,9.095
1988,0.714,38.527,15.105,43.223,31.398,13.777,6.919,9.095
1989,0.708,38.627,15.085,43.233,31.402,13.858,6.959,9.176
1990,0.715,38.781,15.057,43.252,31.412,13.9,7.041,9.137
1991,0.711,38.869,15.08,43.243,31.405,13.9,7.001,9.177
1992,0.711,37.422,15.112,43.281,31.416,14.063,7.041,9.137
1993,0.711,37.503,15.124,43.233,31.398,14.024,6.879,9.095
1994,0.724,37.658,15.069,43.271,31.405,14.064,6.959,9.054
1995,0.728,37.736,15.053,43.224,31.398,14.024,6.838,9.054
1996,0.751,37.756,15.108,43.261,31.416,14.186,6.999,9.095
1997,0.751,37.909,15.175,43.252,31.416,14.188,6.919,9.095
1998,0.731,38.045,15.191,43.3,31.416,14.391,7.081,9.176
1999,0.699,38.066,15.148,43.243,31.405,14.108,6.88,8.974
2000,0.724,37.51,15.124,43.271,31.405,14.024,6.837,8.972
2001,0.721,37.648,15.081,43.233,31.405,13.983,6.714,8.931
2002,0.715,37.793,15.077,43.271,31.409,14.063,6.916,9.053
2003,0.731,37.814,15.131,43.271,31.409,13.983,6.796,9.054
2004,0.734,37.43,15.144,43.281,31.416,14.023,6.917,9.054
2005,0.705,37.551,15.05,43.272,31.402,13.861,6.756,8.851
2006,0.692,37.677,15.08,43.271,31.402,13.9,6.836,8.93
2007,0.695,37.813,15.069,43.281,31.398,13.778,6.674,8.972
2008,0.695,37.574,15.073,43.291,31.409,13.777,6.753,8.972
2009,0.711,37.687,15.131,43.272,31.405,13.655,6.754,8.972
2010,0.715,37.784,15.155,43.281,31.405,13.613,6.795,9.013
2011,0.728,37.315,15.105,43.272,31.405,13.531,6.633,8.932
2012,0.741,37.358,15.042,43.291,31.412,13.531,6.712,8.972
2013,0.725,37.541,15.08,43.291,31.405,13.612,6.672,8.931
2014,0.728,37.61,15.155,43.291,31.412,13.572,6.713,9.053
2015,0.741,37.189,15.159,43.281,31.412,13.531,6.632,8.973
2016,0.738,37.328,15.062,43.272,31.402,13.449,6.631,8.972
2017,0.741,37.483,15.061,43.319,31.402,13.489,6.631,8.891
2018,0.741,37.513,15.053,43.282,31.402,13.367,6.55,8.93
2019,0.738,37.044,15.104,43.31,31.416,13.407,6.59,9.012
2020,0.725,37.183,15.12,43.31,31.409,13.326,6.671,9.013
2021,0.731,37.357,15.163,43.32,31.419,13.366,6.753,9.054
2022,0.715,37.349,15.136,43.291,31.405,13.122,6.592,8.973
2023,0.708,36.946,15.101,43.3,31.405,13.12,6.631,9.013
2024,0.698,37.077,15.108,43.262,31.398,13.039,6.59,8.972
2025,0.698,37.241,15.132,43.319,31.412,13.119,6.753,9.135
2026,0.714,37.271,15.136,43.329,31.412,13.079,6.714,9.095
2027,0.731,36.878,15.066,43.33,31.416,13.16,6.876,9.176
2028,0.712,36.99,15.018,43.301,31.395,12.876,6.674,8.974
2029,0.718,37.106,15.037,43.31,31.391,12.955,6.713,9.135
2030,0.731,37.145,15.072,43.31,31.384,12.956,6.672,8.933
2031,0.715,37.347,15.1,43.329,31.398,13.078,6.794,9.093
2032,0.721,37.503,15.132,43.301,31.391,13.201,6.795,9.095
2033,0.728,37.6,15.12,43.339,31.412,13.405,6.958,9.217
2034,0.725,37.409,15.065,43.32,31.402,13.407,6.797,9.056
2035,0.728,36.42,15.088,43.32,31.409,13.529,6.836,9.095
2036,0.712,36.553,15.128,43.32,31.405,13.653,6.837,9.095
2037,0.721,36.67,15.136,43.32,31.416,13.694,6.837,9.176
2038,0.715,36.633,15.093,43.329,31.412,13.776,6.837,9.096
2039,0.711,36.747,15.069,43.33,31.412,13.858,6.958,9.258
2040,0.698,36.864,15.03,43.32,31.405,13.737,6.838,9.097
2041,0.701,36.98,15.08,43.339,31.402,13.776,6.796,9.095
2042,0.701,36.396,15.116,43.33,31.402,13.736,6.836,9.176
2043,0.705,36.524,15.151,43.349,31.402,13.736,6.918,9.218
2044,0.708,36.66,15.081,43.33,31.398,13.776,6.837,9.218
2045,0.702,36.748,15.073,43.339,31.398,13.736,6.877,9.3
2046,0.688,36.403,15.104,43.33,31.402,13.655,6.837,9.138
2047,0.705,36.525,15.132,43.32,31.398,13.613,6.837,9.177
2048,0.715,36.708,15.147,43.358,31.405,13.613,6.877,9.177
2049,0.721,36.748,15.124,43.349,31.402,13.572,6.918,9.259
2050,0.715,36.288,15.101,43.349,31.405,13.571,6.919,9.137
2051,0.711,36.399,15.053,43.339,31.398,13.571,6.837,9.055
2052,0.734,36.563,15.049,43.349,31.398,13.653,6.796,9.095
2053,0.741,36.603,15.111,43.349,31.405,13.654,6.836,9.136
2054,0.734,36.277,15.139,43.358,31.402,13.776,6.877,9.095
2055,0.721,36.418,15.046,43.349,31.409,13.736,6.837,9.095
2056,0.715,36.573,15.053,43.358,31.405,13.695,6.877,9.095
2057,0.715,36.565,15.08,43.359,31.412,13.735,6.796,9.095
2058,0.728,36.191,15.112,43.359,31.402,13.655,6.795,9.014
2059,0.721,36.331,15.12,43.378,31.405,13.735,6.836,9.216
2060,0.715,36.457,15.163,43.368,31.409,13.695,6.796,9.218
2061,0.702,36.516,15.136,43.378,31.405,13.613,6.877,9.178
2062,0.701,36.075,15.054,43.368,31.409,13.653,6.837,9.218
2063,0.698,36.205,15.084,43.368,31.402,13.532,6.755,9.218
2064,0.695,36.321,15.112,43.368,31.405,13.49,6.754,9.178
2065,0.682,35.977,15.128,43.359,31.398,13.449,6.795,9.218
2066,0.705,36.089,15.093,43.397,31.416,13.53,6.917,9.3
2067,0.708,36.215,15.049,43.397,31.412,13.368,6.796,9.26
2068,0.702,36.369,15.084,43.416,31.416,13.61,6.836,9.341
2069,0.705,35.824,15.104,43.378,31.405,13.369,6.755,9.179
2070,0.708,35.963,15.096,43.397,31.412,13.447,6.714,9.177
2071,0.676,36.079,15.085,43.378,31.395,13.367,6.632,9.096
2072,0.711,36.205,15.143,43.388,31.412,13.691,6.753,9.258
2073,0.698,35.823,15.042,43.407,31.412,13.817,6.795,9.259
2074,0.705,35.991,15.068,43.445,31.419,14.062,6.877,9.3
2075,0.705,36.099,15.084,43.379,31.402,13.983,6.674,9.056
2076,0.705,36.186,15.143,43.397,31.405,14.104,6.753,9.135
2077,0.708,35.803,15.081,43.397,31.409,14.146,6.551,9.014
2078,0.711,35.991,15.057,43.426,31.409,14.228,6.712,9.176
2079,0.698,36.118,15.002,43.436,31.412,14.228,6.713,9.096
2080,0.695,36.177,15.072,43.436,31.416,14.228,6.754,9.258
2081,0.682,35.765,15.073,43.407,31.395,14.107,6.592,9.097
2082,0.669,35.924,15.135,43.417,31.405,14.105,6.631,9.217
2083,0.669,36.05,15.112,43.417,31.412,14.024,6.59,9.096
2084,0.682,36.09,14.964,43.445,31.409,14.064,6.671,9.217
2085,0.669,35.764,15.095,43.427,31.405,13.942,6.713,9.178
2086,0.678,35.895,15.112,43.445,31.412,13.982,6.672,9.259
2087,0.669,36.011,15.159,43.436,31.398,13.779,6.55,9.137
2088,0.672,36.06,15.124,43.446,31.402,13.777,6.63,9.177
2089,0.678,35.649,15.116,43.436,31.409,13.736,6.631,9.177
2090,0.678,35.798,15.093,43.455,31.409,13.776,6.631,9.218
2091,0.695,35.924,15.022,43.465,31.409,13.736,6.631,9.137
2092,0.682,35.551,15.076,43.455,31.405,13.858,6.631,9.095
2093,0.669,35.595,15.127,43.446,31.402,13.94,6.59,9.095
2094,0.659,35.73,15.101,43.446,31.402,13.982,6.549,9.054
2095,0.675,35.885,15.003,43.484,31.398,14.063,6.63,9.013
2096,0.682,35.445,15.064,43.475,31.412,14.146,6.59,9.013
2097,0.695,35.604,15.104,43.456,31.423,14.146,6.671,9.013
2098,0.672,35.702,15.085,43.475,31.409,14.146,6.631,9.013
2099,0.669,35.798,15.12,43.446,31.398,14.228,6.631,8.972
2100,0.636,35.56,15.1,43.446,31.384,14.147,6.631,8.931
2101,0.652,35.778,15.089,43.474,31.405,14.187,6.712,8.972
2102,0.649,35.905,15.065,43.58,31.402,14.188,6.672,8.972
2103,0.662,36.031,15.08,43.505,31.416,14.188,6.794,8.972
2104,0.643,35.437,15.12,43.465,31.391,14.065,6.633,8.85
2105,0.649,35.613,15.124,43.484,31.398,14.186,6.672,8.93
2106,0.652,35.711,15.019,43.456,31.391,14.025,6.591,8.809
2107,0.672,35.808,15.049,43.503,31.405,14.064,6.671,8.93
2108,0.662,35.368,15.072,43.485,31.398,14.064,6.631,8.972
2109,0.652,35.517,15.112,43.532,31.412,14.105,6.834,9.094
2110,0.642,35.624,15.112,43.475,31.402,13.983,6.714,8.851
2111,0.659,35.673,15.085,43.494,31.405,14.023,6.672,8.93
