time,ecg,bvp,gsr,rsp,skt,emg_zygo,emg_coru,emg_trap
0,1.043,37.861,27.732,46.427,30.585,5.481,7.0,5.974
1,1.043,37.968,27.775,46.408,30.578,5.44,7.001,6.015
2,1.03,38.027,27.651,46.408,30.571,5.399,6.879,5.852
3,1.011,37.874,27.696,46.388,30.564,5.318,6.837,5.851
4,1.027,38.035,27.736,46.417,30.574,5.52,7.04,5.932
5,1.01,38.142,27.795,46.417,30.585,5.4,7.001,6.014
6,1.014,38.201,27.772,46.398,30.574,5.399,6.879,5.934
7,1.01,38.24,27.756,46.408,30.581,5.399,7.0,5.892
8,1.014,38.384,27.623,46.427,30.581,5.48,6.96,5.892
9,0.988,38.481,27.743,46.408,30.574,5.359,6.878,5.851
10,0.987,38.53,27.807,46.398,30.571,5.399,6.877,5.851
11,0.978,38.397,27.678,46.408,30.585,5.358,6.918,5.932
12,0.968,38.529,27.747,46.398,30.571,5.399,6.959,5.892
13,0.968,38.627,27.748,46.398,30.585,5.44,6.919,5.892
14,0.951,38.676,27.768,46.417,30.578,5.521,7.0,5.973
15,0.967,38.59,27.705,46.436,30.592,5.563,7.204,5.974
16,0.945,38.666,27.748,46.417,30.571,5.482,7.043,5.811
17,0.938,38.801,27.736,46.408,30.581,5.481,7.082,5.85
18,0.948,38.802,27.775,46.398,30.581,5.44,7.123,5.851
19,0.932,38.84,27.772,46.369,30.571,5.399,7.043,5.81
20,0.912,38.956,27.694,46.369,30.567,5.358,7.123,5.85
21,0.905,39.101,27.72,46.407,30.581,5.439,7.205,5.891
22,0.892,39.016,27.748,46.408,30.588,5.521,7.287,5.933
23,0.882,38.948,27.756,46.379,30.571,5.441,7.166,5.892
24,0.885,39.11,27.709,46.484,30.585,5.44,7.246,5.933
25,0.879,39.189,27.728,46.399,30.571,5.481,7.206,5.852
26,0.872,39.055,27.748,46.388,30.571,5.4,7.125,5.769
27,0.879,39.159,27.787,46.35,30.571,5.358,7.124,5.768
28,0.872,39.285,27.772,46.388,30.574,5.521,7.246,5.85
29,0.843,39.363,27.698,46.369,30.571,5.36,7.125,5.81
30,0.853,39.095,27.673,46.398,30.578,5.48,7.205,5.891
31,0.853,39.246,27.771,46.398,30.585,5.481,7.165,5.851
32,0.859,39.353,27.74,46.417,30.592,5.562,7.328,6.013
33,0.849,39.421,27.713,46.36,30.575,5.441,7.207,5.812
34,0.859,39.297,27.744,46.398,30.574,5.521,7.206,5.85
35,0.849,39.411,27.752,46.388,30.585,5.441,7.165,5.891
36,0.82,39.498,27.795,46.369,30.571,5.44,7.165,5.851
37,0.813,39.528,27.721,46.369,30.571,5.359,7.206,5.851
38,0.839,39.327,27.666,46.398,30.574,5.48,7.206,5.973
39,0.81,39.469,27.739,46.388,30.578,5.522,7.206,5.933
40,0.771,39.566,27.744,46.388,30.574,5.441,7.206,5.811
41,0.78,39.615,27.713,46.388,30.585,5.481,7.287,5.891
42,0.793,39.462,27.72,46.398,30.578,5.4,7.207,5.892
43,0.784,39.585,27.736,46.388,30.571,5.399,7.125,5.811
44,0.787,39.654,27.767,46.36,30.571,5.318,7.205,5.85
45,0.771,39.683,27.737,46.388,30.574,5.439,7.206,6.013
46,0.764,39.607,27.728,46.369,30.571,5.359,7.206,5.852
47,0.777,39.759,27.724,46.388,30.578,5.439,7.247,5.81
48,0.784,39.838,27.744,46.388,30.581,5.481,7.288,5.972
49,0.803,39.714,27.771,46.407,30.592,5.522,7.369,6.096
50,0.794,39.511,27.713,46.379,30.575,5.36,7.248,5.935
51,0.78,39.672,27.713,46.407,30.585,5.439,7.288,5.933
52,0.771,39.75,27.748,46.388,30.574,5.399,7.288,5.933
53,0.767,39.483,27.76,46.369,30.571,5.358,7.207,5.77
54,0.754,39.557,27.682,46.369,30.574,5.317,7.206,5.85
55,0.754,39.711,27.724,46.388,30.581,5.48,7.369,5.973
56,0.754,39.77,27.752,46.369,30.578,5.44,7.37,5.933
57,0.757,39.55,27.764,46.369,30.581,5.359,7.33,5.974
58,0.761,39.682,27.791,46.388,30.581,5.48,7.37,6.015
59,0.767,39.808,27.752,46.427,30.588,5.4,7.37,5.934
60,0.738,39.867,27.744,46.389,30.574,5.277,7.289,5.852
61,0.751,39.503,27.76,46.369,30.574,5.357,7.41,5.851
62,0.751,39.614,27.764,46.388,30.574,5.317,7.289,5.973
63,0.741,39.731,27.701,46.494,30.571,5.236,7.329,5.893
64,0.731,39.789,27.736,46.38,30.578,5.357,7.41,5.892
65,0.741,39.665,27.725,46.407,30.585,5.399,7.452,5.973
66,0.725,39.779,27.795,46.417,30.588,5.44,7.493,6.096
67,0.734,39.886,27.733,46.36,30.571,5.359,7.371,5.975
68,0.744,39.935,27.701,46.388,30.581,5.399,7.492,5.974
69,0.741,39.494,27.712,46.407,30.578,5.399,7.453,5.974
70,0.731,39.605,27.755,46.36,30.571,5.318,7.412,5.893
71,0.728,39.692,27.74,46.369,30.574,5.317,7.371,5.851
72,0.738,39.741,27.721,46.388,30.581,5.358,7.452,5.851
73,0.728,39.492,27.759,46.379,30.574,5.236,7.412,5.851
74,0.734,39.624,27.768,46.388,30.581,5.357,7.411,5.891
75,0.738,39.75,27.733,46.407,30.581,5.48,7.493,5.973
76,0.751,39.905,27.678,46.417,30.592,5.603,7.575,6.055
77,0.731,39.945,27.689,46.408,30.575,5.36,7.454,5.934
78,0.728,40.05,27.736,46.398,30.585,5.521,7.452,6.014
79,0.725,40.138,27.756,46.398,30.578,5.482,7.493,5.934
80,0.705,39.304,27.736,46.35,30.571,5.359,7.331,5.852
81,0.715,39.325,27.74,46.369,30.571,5.358,7.207,5.851
82,0.734,39.469,27.752,46.388,30.581,5.48,7.328,5.973
83,0.715,39.537,27.775,46.388,30.571,5.562,7.289,5.974
84,0.718,39.385,27.662,46.407,30.581,5.563,7.329,5.974
85,0.721,39.537,27.712,46.388,30.581,5.563,7.329,6.055
86,0.728,39.653,27.705,46.427,30.588,5.645,7.41,5.975
87,0.721,39.702,27.771,46.379,30.574,5.483,7.249,5.893
88,0.731,39.195,27.748,46.379,30.571,5.481,7.247,5.851
89,0.734,39.324,27.771,46.379,30.578,5.522,7.288,6.013
90,0.738,39.421,27.721,46.369,30.571,5.4,7.166,5.852
91,0.731,39.489,27.74,46.378,30.574,5.48,7.206,5.973
92,0.744,39.317,27.767,46.398,30.581,5.562,7.206,6.015
93,0.744,39.469,27.733,46.494,30.585,5.563,7.328,6.056
94,0.738,39.566,27.697,46.389,30.574,5.523,7.207,5.975
95,0.738,39.615,27.775,46.388,30.581,5.563,7.328,6.015
96,0.734,39.136,27.799,46.379,30.581,5.482,7.207,5.974
97,0.721,39.246,27.737,46.359,30.574,5.481,7.125,5.852
98,0.724,39.363,27.701,46.369,30.564,5.481,7.083,5.81
99,0.728,39.412,27.74,46.388,30.578,5.522,7.205,5.972
100,0.734,39.307,27.748,46.369,30.574,5.522,7.247,5.933
101,0.728,39.44,27.744,46.369,30.581,5.522,7.206,5.933
102,0.731,39.556,27.721,46.398,30.578,5.522,7.247,5.974
103,0.728,39.414,27.744,46.408,30.581,5.563,7.166,6.015
104,0.715,39.057,27.736,46.369,30.574,5.401,7.124,5.893
105,0.721,39.198,27.752,46.369,30.578,5.48,7.083,5.933
106,0.728,39.305,27.658,46.378,30.578,5.481,7.205,6.014
107,0.728,39.085,27.728,46.446,30.578,5.4,7.084,5.893
108,0.741,39.179,27.701,46.37,30.574,5.44,7.123,5.933
109,0.738,39.314,27.775,46.388,30.578,5.481,7.124,5.892
110,0.738,39.421,27.772,46.407,30.585,5.562,7.246,6.095
111,0.738,38.77,27.74,46.379,30.578,5.401,7.084,5.894
112,0.734,38.926,27.721,46.388,30.585,5.48,7.164,5.973
113,0.738,39.014,27.763,46.369,30.571,5.44,7.084,5.974
114,0.738,39.082,27.662,46.359,30.567,5.318,6.961,5.852
115,0.725,38.834,27.681,46.359,30.564,5.358,6.96,5.769
116,0.737,38.994,27.751,46.378,30.585,5.561,7.082,5.931
117,0.738,39.13,27.725,46.388,30.578,5.441,7.083,5.974
118,0.747,39.17,27.76,46.369,30.578,5.399,6.961,5.852
119,0.767,38.786,27.744,46.388,30.581,5.48,7.0,5.973
120,0.764,38.965,27.721,46.379,30.581,5.4,7.001,5.974
121,0.748,39.043,27.701,46.35,30.578,5.318,6.919,5.893
122,0.731,39.083,27.755,46.35,30.564,5.317,6.837,5.851
123,0.734,38.805,27.693,46.397,30.571,5.398,6.958,5.932
124,0.731,38.879,27.697,46.36,30.578,5.399,6.919,5.974
125,0.728,39.004,27.748,46.359,30.578,5.48,6.959,5.933
126,0.734,39.034,27.779,46.378,30.578,5.481,7.041,5.974
127,0.744,38.708,27.76,46.398,30.581,5.522,7.123,6.055
128,0.744,38.782,27.682,46.369,30.571,5.36,6.961,5.893
129,0.744,38.917,27.736,46.369,30.578,5.439,7.0,5.851
130,0.741,38.899,27.709,46.369,30.574,5.399,7.001,5.973
131,0.754,38.669,27.724,46.359,30.574,5.44,6.919,5.852
132,0.751,38.781,27.713,46.34,30.564,5.318,6.837,5.891
133,0.761,38.907,27.713,46.34,30.574,5.48,6.999,6.014
134,0.761,38.592,27.771,46.349,30.574,5.4,7.041,5.974
135,0.764,38.675,27.717,46.34,30.574,5.44,6.879,5.852
136,0.764,38.801,27.666,46.369,30.578,5.481,6.959,5.932
137,0.764,38.907,27.704,46.378,30.578,5.481,6.96,5.892
138,0.744,38.429,27.744,46.35,30.574,5.359,6.96,5.811
139,0.741,38.53,27.768,46.321,30.567,5.317,6.838,5.81
140,0.738,38.646,27.721,46.359,30.578,5.439,6.918,5.932
141,0.747,38.733,27.736,46.33,30.567,5.318,6.878,5.852
142,0.741,38.456,27.701,46.34,30.571,5.398,6.796,5.81
143,0.747,38.588,27.767,46.349,30.581,5.399,6.877,5.891
144,0.757,38.742,27.694,46.388,30.592,5.562,7.0,6.095
145,0.735,38.763,27.724,46.34,30.578,5.441,6.838,5.894
146,0.754,38.437,27.72,46.34,30.578,5.399,6.918,5.933
147,0.757,38.549,27.775,46.349,30.578,5.399,6.796,5.892
148,0.744,38.656,27.76,46.311,30.571,5.318,6.795,5.851
149,0.751,38.676,27.701,46.301,30.564,5.317,6.714,5.81
150,0.777,38.235,27.716,46.339,30.578,5.398,6.713,5.932
151,0.767,38.365,27.728,46.33,30.578,5.399,6.876,5.892
152,0.77,38.472,27.76,46.349,30.571,5.399,6.755,5.77
153,0.793,38.521,27.686,46.445,30.574,5.399,6.836,5.891
154,0.793,38.377,27.736,46.37,30.588,5.399,6.837,5.892
155,0.761,38.433,27.709,46.321,30.568,5.318,6.714,5.77
156,0.761,38.578,27.759,46.32,30.578,5.358,6.754,5.728
157,0.754,38.55,27.744,46.33,30.581,5.399,6.836,5.809
158,0.757,38.186,27.67,46.33,30.564,5.318,6.674,5.728
159,0.748,38.316,27.689,46.321,30.571,5.317,6.753,5.768
160,0.757,38.442,27.732,46.33,30.581,5.398,6.795,5.891
161,0.754,38.185,27.767,46.349,30.588,5.48,6.877,5.933
162,0.757,38.24,27.69,46.33,30.581,5.318,6.674,5.77
163,0.754,38.374,27.747,46.34,30.585,5.398,6.753,5.891
164,0.741,38.443,27.771,46.349,30.578,5.358,6.795,5.892
165,0.744,38.05,27.76,46.311,30.571,5.277,6.673,5.729
166,0.741,38.162,27.619,46.311,30.567,5.235,6.631,5.687
167,0.754,38.316,27.716,46.34,30.574,5.357,6.753,5.849
168,0.748,38.366,27.674,46.33,30.574,5.317,6.673,5.851
169,0.773,37.963,27.72,46.321,30.574,5.358,6.672,5.769
170,0.771,38.103,27.752,46.33,30.574,5.439,6.672,5.891
171,0.774,38.239,27.74,46.369,30.588,5.481,6.794,5.973
172,0.767,38.259,27.74,46.331,30.571,5.318,6.673,5.771
173,0.783,38.001,27.771,46.33,30.581,5.358,6.631,5.85
174,0.787,38.161,27.686,46.311,30.578,5.317,6.631,5.81
175,0.78,38.23,27.673,46.292,30.571,5.317,6.631,5.728
176,0.761,38.278,27.708,46.291,30.571,5.236,6.55,5.727
177,0.761,37.819,27.705,46.311,30.578,5.397,6.712,5.89
178,0.774,37.939,27.732,46.32,30.581,5.44,6.713,5.933
179,0.774,38.017,27.721,46.33,30.574,5.359,6.591,5.811
180,0.744,38.104,27.709,46.349,30.574,5.439,6.712,5.85
181,0.757,37.913,27.724,46.321,30.578,5.399,6.632,5.81
182,0.751,38.007,27.767,46.292,30.571,5.358,6.672,5.728
183,0.751,38.113,27.623,46.311,30.574,5.317,6.55,5.809
184,0.757,38.181,27.747,46.311,30.581,5.439,6.671,5.81
185,0.751,37.741,27.713,46.311,30.571,5.399,6.631,5.769
186,0.751,37.88,27.752,46.311,30.578,5.318,6.712,5.809
187,0.764,37.987,27.725,46.32,30.581,5.439,6.794,5.891
188,0.78,37.768,27.689,46.349,30.585,5.481,6.795,5.933
189,0.764,37.823,27.673,46.302,30.578,5.318,6.714,5.73
190,0.774,37.948,27.712,46.33,30.581,5.358,6.794,5.85
191,0.771,38.026,27.732,46.33,30.578,5.358,6.755,5.891
192,0.761,37.5,27.67,46.311,30.574,5.317,6.714,5.729
193,0.757,37.6,27.732,46.282,30.564,5.195,6.713,5.727
194,0.767,37.745,27.76,46.32,30.585,5.356,6.835,5.85
195,0.767,37.823,27.736,46.32,30.581,5.399,6.877,5.891
196,0.774,37.488,27.623,46.32,30.578,5.318,6.796,5.851
197,0.761,37.648,27.7,46.34,30.581,5.358,6.836,5.851
198,0.77,37.793,27.724,46.311,30.585,5.358,6.796,5.729
199,0.757,37.804,27.74,46.301,30.574,5.236,6.714,5.727
200,0.761,37.488,27.756,46.292,30.574,5.235,6.632,5.727
201,0.761,37.648,27.686,46.32,30.585,5.357,6.753,5.85
202,0.751,37.764,27.74,46.311,30.571,5.236,6.754,5.851
203,0.748,37.814,27.767,46.33,30.578,5.316,6.714,5.81
204,0.764,37.469,27.678,46.301,30.588,5.317,6.672,5.85
205,0.761,37.638,27.665,46.339,30.581,5.398,6.794,5.891
206,0.764,37.697,27.704,46.311,30.571,5.236,6.633,5.811
207,0.757,37.755,27.736,46.311,30.574,5.316,6.631,5.81
208,0.767,37.353,27.783,46.311,30.578,5.276,6.712,5.81
209,0.761,37.483,27.748,46.292,30.567,5.235,6.632,5.728
210,0.751,37.561,27.69,46.301,30.574,5.316,6.672,5.809
211,0.761,37.773,27.732,46.32,30.574,5.398,6.631,5.891
212,0.774,37.344,27.736,46.349,30.588,5.318,6.794,6.014
213,0.754,37.435,27.6,46.311,30.574,5.276,6.511,5.812
214,0.764,37.542,27.672,46.33,30.578,5.357,6.589,5.85
215,0.761,37.207,27.736,46.301,30.574,5.317,6.59,5.851
216,0.761,37.213,27.756,46.292,30.571,5.276,6.427,5.851
217,0.748,37.348,27.709,46.282,30.564,5.195,6.385,5.851
218,0.751,37.483,27.685,46.33,30.578,5.316,6.466,5.851
219,0.754,37.207,27.693,46.301,30.574,5.236,6.548,5.891
220,0.751,37.328,27.748,46.311,30.578,5.316,6.468,5.811
221,0.761,37.445,27.729,46.311,30.574,5.317,6.507,5.85
222,0.757,37.58,27.693,46.33,30.585,5.317,6.467,5.851
223,0.741,37.102,27.708,46.301,30.571,5.236,6.426,5.81
224,0.747,37.241,27.713,46.311,30.571,5.275,6.344,5.81
225,0.747,37.386,27.728,46.32,30.581,5.276,6.506,5.891
226,0.747,37.426,27.611,46.292,30.571,5.276,6.427,5.811
227,0.764,36.89,27.712,46.301,30.578,5.357,6.426,5.81
228,0.754,37.057,27.689,46.311,30.578,5.399,6.426,5.85
229,0.767,37.183,27.759,46.33,30.592,5.44,6.629,6.013
230,0.751,37.223,27.756,46.301,30.568,5.237,6.387,5.771
231,0.761,37.146,27.682,46.33,30.574,5.357,6.425,5.891
232,0.757,37.28,27.751,46.301,30.581,5.358,6.466,5.851
233,0.751,37.377,27.693,46.282,30.571,5.317,6.426,5.729
234,0.748,37.397,27.658,46.291,30.567,5.195,6.344,5.687
235,0.747,37.024,27.681,46.301,30.585,5.316,6.466,5.849
236,0.728,37.125,27.708,46.292,30.574,5.317,6.467,5.851
237,0.741,37.251,27.748,46.311,30.581,5.317,6.507,5.81
238,0.744,37.53,27.775,46.32,30.578,5.317,6.549,5.932
239,0.757,37.063,27.725,46.34,30.585,5.398,6.63,5.892
240,0.738,37.174,27.705,46.292,30.571,5.277,6.55,5.77
241,0.738,37.29,27.705,46.311,30.578,5.276,6.63,5.768
242,0.741,37.032,27.709,46.301,30.574,5.276,6.55,5.809
243,0.728,37.058,27.701,46.311,30.571,5.235,6.508,5.728
244,0.731,37.193,27.693,46.292,30.571,5.235,6.63,5.809
245,0.725,37.29,27.767,46.311,30.578,5.357,6.631,5.972
246,0.741,36.879,27.768,46.33,30.585,5.439,6.753,5.974
247,0.738,36.951,27.733,46.292,30.574,5.237,6.673,5.811
248,0.734,37.105,27.666,46.33,30.581,5.357,6.794,5.891
249,0.744,37.193,27.669,46.311,30.581,5.358,6.714,5.811
250,0.734,36.897,27.689,46.292,30.564,5.195,6.632,5.769
251,0.728,37.038,27.681,46.282,30.571,5.112,6.55,5.687
252,0.728,37.193,27.693,46.33,30.574,5.315,6.793,5.809
253,0.731,37.261,27.712,46.311,30.574,5.236,6.673,5.769
254,0.734,36.965,27.74,46.301,30.574,5.316,6.753,5.768
255,0.76,37.115,27.732,46.311,30.581,5.358,6.754,5.809
256,0.761,37.289,27.627,46.349,30.592,5.439,6.876,5.932
257,0.735,37.291,27.696,46.302,30.575,5.318,6.796,5.73
258,0.734,36.927,27.697,46.311,30.581,5.317,6.836,5.809
259,0.731,37.048,27.736,46.301,30.574,5.358,6.918,5.85
260,0.728,37.154,27.678,46.292,30.571,5.236,6.837,5.769
261,0.728,37.175,27.685,46.291,30.571,5.235,6.837,5.768
262,0.731,36.983,27.744,46.32,30.585,5.397,6.999,5.85
263,0.728,37.096,27.74,46.311,30.574,5.358,6.96,5.81
264,0.725,37.251,27.693,46.33,30.574,5.358,6.96,5.81
265,0.724,37.55,27.685,46.349,30.578,5.358,7.082,5.81
266,0.731,36.958,27.74,46.33,30.585,5.358,7.002,5.891
267,0.715,37.038,27.748,46.311,30.574,5.317,6.96,5.811
268,0.721,37.145,27.764,46.301,30.571,5.236,6.96,5.728
269,0.728,37.011,27.67,46.311,30.578,5.357,7.041,5.809
270,0.725,37.068,27.665,46.292,30.571,5.277,6.96,5.728
271,0.741,37.231,27.736,46.291,30.574,5.316,7.041,5.89
272,0.738,37.31,27.678,46.33,30.578,5.358,7.042,5.851
273,0.741,36.86,27.728,46.34,30.585,5.439,7.123,5.973
274,0.731,36.922,27.705,46.302,30.574,5.318,6.961,5.811
275,0.738,37.086,27.779,46.311,30.581,5.398,7.0,5.769
276,0.734,37.145,27.76,46.311,30.574,5.318,6.96,5.809
277,0.728,36.868,27.658,46.292,30.567,5.236,6.878,5.728
278,0.725,36.999,27.579,46.282,30.571,5.194,6.959,5.646
279,0.728,37.183,27.684,46.32,30.578,5.397,6.96,5.849
280,0.715,37.223,27.759,46.311,30.578,5.358,7.0,5.891
281,0.715,36.955,27.639,46.33,30.571,5.358,6.919,5.811
282,0.724,37.134,27.681,46.34,30.581,5.439,6.959,5.81
283,0.724,37.251,27.759,46.311,30.585,5.44,6.919,5.85
284,0.711,37.281,27.721,46.32,30.571,5.359,6.837,5.81
285,0.708,36.879,27.658,46.32,30.578,5.358,6.755,5.688
286,0.715,37.028,27.693,46.32,30.574,5.439,6.876,5.849
287,0.705,37.135,27.689,46.292,30.578,5.399,6.837,5.891
288,0.711,37.174,27.716,46.33,30.574,5.48,6.837,5.851
289,0.711,37.012,27.728,46.33,30.585,5.4,6.837,5.851
290,0.718,37.154,27.701,46.359,30.585,5.521,6.999,5.932
291,0.715,37.232,27.677,46.321,30.574,5.4,6.797,5.73
292,0.715,37.482,27.794,46.33,30.578,5.48,6.877,5.85
293,0.715,37.024,27.686,46.33,30.581,5.481,6.796,5.729
294,0.715,37.144,27.697,46.292,30.571,5.481,6.714,5.768
295,0.715,37.251,27.646,46.291,30.564,5.44,6.672,5.728
296,0.711,36.965,27.731,46.32,30.578,5.603,6.835,5.809
297,0.708,36.981,27.728,46.32,30.585,5.686,6.958,5.891
298,0.724,37.106,27.74,46.32,30.571,5.605,6.797,5.851
299,0.721,37.222,27.682,46.34,30.578,5.767,6.877,5.81
300,0.715,37.041,27.704,46.311,30.581,5.768,6.796,5.769
301,0.708,37.135,27.767,46.311,30.574,5.768,6.755,5.728
302,0.705,37.27,27.647,46.292,30.571,5.728,6.714,5.687
303,0.702,37.367,27.696,46.339,30.581,5.972,6.794,5.809
304,0.705,36.918,27.669,46.33,30.574,5.893,6.836,5.769
305,0.702,37.057,27.736,46.33,30.578,5.933,6.837,5.768
306,0.705,37.202,27.697,46.33,30.581,6.014,6.837,5.809
307,0.711,37.281,27.638,46.359,30.588,6.056,6.877,5.85
308,0.702,37.08,27.673,46.378,30.574,5.975,6.755,5.688
309,0.711,37.212,27.704,46.321,30.578,6.055,6.754,5.768
310,0.708,37.329,27.736,46.32,30.574,6.015,6.754,5.85
311,0.702,37.387,27.646,46.33,30.571,6.015,6.673,5.729
312,0.721,36.956,27.673,46.34,30.571,6.096,6.794,5.727
313,0.724,37.105,27.739,46.321,30.578,6.178,6.795,5.768
314,0.744,37.232,27.744,46.34,30.592,6.22,6.877,5.85
315,0.734,37.252,27.607,46.33,30.575,6.098,6.674,5.648
316,0.731,37.06,27.665,46.33,30.581,6.26,6.753,5.808
317,0.712,37.174,27.696,46.33,30.581,6.18,6.714,5.688
318,0.705,37.261,27.728,46.311,30.571,6.139,6.591,5.727
319,0.692,37.281,27.728,46.301,30.557,6.016,6.631,5.646
320,0.701,37.147,27.631,46.359,30.578,6.137,6.672,5.767
321,0.701,37.251,27.669,46.321,30.581,6.098,6.672,5.768
322,0.721,37.358,27.732,46.33,30.581,6.097,6.672,5.768
323,0.702,37.109,27.682,46.349,30.581,6.219,6.794,5.85
324,0.711,37.174,27.681,46.35,30.585,6.22,6.836,5.81
325,0.695,37.251,27.685,46.33,30.574,6.098,6.755,5.647
326,0.727,37.348,27.744,46.34,30.578,6.178,6.876,5.727
327,0.702,36.946,27.748,46.321,30.581,6.139,6.877,5.809
328,0.692,37.048,27.721,46.311,30.564,6.057,6.796,5.728
329,0.688,37.174,27.65,46.32,30.578,6.056,6.999,5.768
330,0.705,37.299,27.677,46.33,30.578,6.137,7.041,5.809
331,0.702,37.051,27.728,46.349,30.585,6.219,7.204,5.85
332,0.698,37.174,27.592,46.359,30.574,6.058,7.003,5.688
333,0.721,37.309,27.696,46.35,30.585,6.097,7.082,5.809
334,0.724,37.387,27.744,46.33,30.574,6.056,7.083,5.688
335,0.718,36.851,27.771,46.321,30.571,6.056,6.961,5.687
336,0.708,36.999,27.659,46.311,30.564,5.934,7.0,5.646
337,0.702,37.115,27.65,46.34,30.578,6.055,7.082,5.767
338,0.698,37.174,27.642,46.33,30.571,6.056,7.083,5.728
339,0.708,37.031,27.704,46.349,30.571,6.056,7.042,5.727
340,0.702,37.154,27.728,46.34,30.578,6.097,7.123,5.768
341,0.705,37.309,27.705,46.484,30.588,6.138,7.287,5.85
342,0.692,37.33,27.685,46.332,30.574,5.976,7.125,5.648
343,0.692,37.004,27.736,46.349,30.581,6.055,7.124,5.767
344,0.701,37.125,27.728,46.321,30.574,5.975,7.165,5.768
345,0.688,37.213,27.603,46.32,30.567,5.852,7.084,5.687
346,0.695,37.204,27.676,46.292,30.571,5.932,7.083,5.646
347,0.705,37.022,27.697,46.33,30.578,5.974,7.123,5.727
348,0.708,37.144,27.759,46.349,30.585,6.015,7.205,5.85
349,0.708,37.242,27.729,46.35,30.571,5.934,7.125,5.729
350,0.711,37.051,27.709,46.359,30.578,5.974,7.287,5.727
351,0.715,37.03,27.662,46.35,30.578,5.893,7.329,5.727
352,0.708,37.135,27.708,46.321,30.574,5.851,7.126,5.646
353,0.721,37.222,27.592,46.34,30.571,5.769,7.287,5.564
354,0.744,36.84,27.707,46.34,30.581,5.972,7.369,5.726
355,0.734,36.941,27.713,46.33,30.571,5.893,7.37,5.687
356,0.721,37.057,27.74,46.34,30.581,5.811,7.37,5.687
357,0.698,37.174,27.721,46.34,30.581,5.932,7.533,5.727
358,0.714,36.916,27.65,46.388,30.585,5.974,7.494,5.727
359,0.705,37.019,27.692,46.36,30.574,5.811,7.453,5.687
360,0.711,37.173,27.705,46.34,30.578,5.85,7.452,5.646
361,0.695,37.213,27.716,46.34,30.578,5.851,7.493,5.727
362,0.692,36.801,27.67,46.321,30.571,5.851,7.494,5.605
363,0.695,36.922,27.7,46.33,30.574,5.851,7.534,5.726
364,0.695,37.067,27.775,46.369,30.585,5.891,7.575,5.727
365,0.708,37.145,27.705,46.369,30.585,5.933,7.616,5.89
366,0.695,36.839,27.662,46.359,30.574,5.811,7.413,5.648
367,0.701,36.989,27.689,46.369,30.578,5.891,7.533,5.808
368,0.705,37.077,27.673,46.34,30.571,5.811,7.534,5.688
369,0.721,37.107,27.704,46.311,30.567,5.769,7.453,5.605
370,0.715,36.771,27.634,46.32,30.571,5.647,7.33,5.564
371,0.721,36.912,27.681,46.34,30.578,5.889,7.532,5.726
372,0.721,37.019,27.743,46.34,30.578,5.77,7.412,5.727
373,0.708,37.049,27.717,46.33,30.574,5.768,7.411,5.687
374,0.721,36.838,27.697,46.455,30.578,5.809,7.493,5.646
375,0.711,36.989,27.689,46.37,30.592,5.932,7.575,5.767
376,0.711,37.058,27.732,46.331,30.571,5.77,7.372,5.647
377,0.702,36.905,27.74,46.349,30.574,5.809,7.411,5.686
378,0.701,36.865,27.709,46.35,30.578,5.81,7.411,5.687
379,0.685,36.98,27.658,46.34,30.571,5.688,7.371,5.524
380,0.675,37.067,27.7,46.311,30.571,5.646,7.289,5.603
381,0.691,36.637,27.728,46.34,30.578,5.727,7.329,5.645
382,0.695,36.709,27.685,46.359,30.574,5.727,7.329,5.727
383,0.692,36.863,27.669,46.35,30.571,5.727,7.289,5.687
384,0.692,36.97,27.712,46.369,30.585,5.727,7.288,5.727
385,0.692,36.722,27.736,46.378,30.578,5.768,7.369,5.727
386,0.682,36.825,27.674,46.331,30.571,5.606,7.208,5.646
387,0.698,36.96,27.63,46.33,30.571,5.686,7.084,5.605
388,0.695,37.038,27.669,46.464,30.571,5.727,7.205,5.645
389,0.698,36.502,27.712,46.322,30.571,5.646,7.084,5.564
390,0.708,36.641,27.728,46.349,30.574,5.686,7.123,5.645
391,0.721,36.776,27.744,46.388,30.578,5.646,7.205,5.686
392,0.724,36.854,27.693,46.369,30.592,5.808,7.206,5.768
393,0.715,36.654,27.708,46.321,30.571,5.525,7.043,5.565
394,0.728,36.824,27.713,46.349,30.581,5.685,7.164,5.685
395,0.708,36.912,27.638,46.35,30.571,5.687,7.084,5.646
396,0.715,36.971,27.665,46.34,30.571,5.564,7.002,5.564
397,0.708,37.163,27.65,46.33,30.567,5.482,6.96,5.523
398,0.705,37.328,27.731,46.34,30.578,5.603,7.122,5.644
399,0.692,37.416,27.713,46.34,30.567,5.564,7.002,5.564
400,0.711,37.455,27.697,46.359,30.578,5.604,7.001,5.645
401,0.695,36.276,27.697,46.359,30.585,5.686,7.123,5.686
402,0.711,36.408,27.748,46.34,30.581,5.524,7.083,5.564
403,0.692,36.515,27.643,46.349,30.571,5.482,6.92,5.604
404,0.685,36.602,27.657,46.34,30.574,5.44,6.878,5.482
405,0.695,36.69,27.677,46.349,30.574,5.562,7.04,5.644
406,0.688,36.806,27.704,46.34,30.564,5.482,6.92,5.605
407,0.688,36.893,27.705,46.349,30.571,5.522,6.959,5.604
408,0.701,36.405,27.685,46.369,30.581,5.563,7.041,5.604
409,0.718,36.534,27.681,46.388,30.585,5.645,7.123,5.726
410,0.708,36.612,27.689,46.35,30.574,5.483,6.921,5.605
411,0.721,36.738,27.724,46.359,30.581,5.522,6.959,5.645
412,0.708,36.307,27.697,46.359,30.571,5.522,6.919,5.645
413,0.721,36.408,27.662,46.35,30.564,5.482,6.919,5.483
414,0.702,36.525,27.724,46.35,30.574,5.481,6.878,5.481
415,0.698,36.631,27.713,46.35,30.578,5.522,6.918,5.562
416,0.714,36.479,27.65,46.369,30.588,5.644,7.041,5.726
417,0.702,36.612,27.618,46.369,30.568,5.483,6.839,5.565
418,0.698,36.728,27.68,46.369,30.578,5.481,6.918,5.645
419,0.698,36.787,27.708,46.369,30.574,5.481,6.837,5.605
420,0.682,36.231,27.701,46.331,30.564,5.359,6.755,5.523
421,0.672,36.398,27.681,46.311,30.567,5.358,6.714,5.522
422,0.688,36.525,27.646,46.34,30.585,5.439,6.835,5.644
423,0.685,36.555,27.716,46.349,30.581,5.44,6.877,5.645
424,0.675,36.296,27.603,46.359,30.574,5.481,6.755,5.605
425,0.685,36.466,27.684,46.369,30.574,5.481,6.876,5.686
426,0.705,36.592,27.681,46.369,30.581,5.522,6.755,5.646
427,0.692,36.555,27.716,46.35,30.564,5.441,6.754,5.564
428,0.705,36.21,27.759,46.35,30.574,5.44,6.714,5.523
429,0.698,36.36,27.69,46.35,30.571,5.521,6.835,5.563
430,0.695,36.457,27.72,46.35,30.578,5.441,6.796,5.523
431,0.708,36.324,27.697,46.369,30.574,5.481,6.877,5.563
432,0.705,36.255,27.697,46.369,30.581,5.481,6.959,5.604
433,0.715,36.427,27.689,46.398,30.585,5.603,7.041,5.726
434,0.708,36.487,27.658,46.35,30.571,5.442,6.96,5.565
435,0.708,36.18,27.739,46.35,30.578,5.481,6.96,5.645
436,0.702,36.263,27.697,46.35,30.574,5.603,7.0,5.564
437,0.692,36.379,27.662,46.34,30.564,5.401,6.96,5.604
438,0.682,36.467,27.614,46.349,30.571,5.48,6.878,5.564
439,0.695,35.998,27.665,46.378,30.581,5.522,6.918,5.645
440,0.698,36.147,27.732,46.388,30.585,5.644,7.081,5.767
441,0.692,36.254,27.682,46.35,30.571,5.483,6.92,5.525
442,0.708,36.351,27.665,46.378,30.588,5.562,6.959,5.644
443,0.708,36.179,27.696,46.359,30.574,5.482,6.919,5.645
444,0.711,36.263,27.693,46.33,30.571,5.522,6.959,5.605
445,0.698,36.408,27.58,46.349,30.564,5.441,6.838,5.523
446,0.718,36.496,27.676,46.369,30.574,5.562,7.04,5.644
447,0.695,35.921,27.697,46.35,30.571,5.441,7.082,5.605
448,0.679,36.079,27.697,46.369,30.574,5.481,7.083,5.523
449,0.704,36.205,27.732,46.378,30.578,5.522,7.205,5.685
450,0.715,36.273,27.682,46.407,30.588,5.603,7.328,5.687
451,0.702,36.053,27.658,46.35,30.578,5.564,7.289,5.564
452,0.708,36.185,27.72,46.378,30.578,5.482,7.329,5.645
453,0.715,36.292,27.701,46.398,30.571,5.481,7.41,5.645
454,0.715,36.322,27.658,46.34,30.567,5.481,7.452,5.645
455,0.702,35.9,27.685,46.349,30.574,5.522,7.493,5.686
456,0.718,36.05,27.708,46.369,30.581,5.563,7.575,5.727
457,0.728,36.195,27.744,46.388,30.588,5.685,7.616,5.768
458,0.728,36.101,27.705,46.35,30.574,5.442,7.495,5.687
459,0.747,36.09,27.634,46.378,30.578,5.521,7.616,5.687
460,0.741,36.205,27.677,46.369,30.574,5.482,7.576,5.646
461,0.747,36.264,27.685,46.35,30.571,5.44,7.535,5.523
462,0.741,35.871,27.595,46.34,30.564,5.399,7.453,5.522
463,0.747,35.992,27.657,46.369,30.574,5.521,7.615,5.685
464,0.741,36.108,27.704,46.359,30.581,5.441,7.495,5.727
465,0.747,36.215,27.709,46.359,30.578,5.521,7.494,5.646
466,0.76,35.813,27.662,46.369,30.581,5.563,7.575,5.686
467,0.777,35.962,27.642,46.388,30.585,5.645,7.535,5.727
468,0.78,36.06,27.638,46.34,30.574,5.483,7.494,5.646
469,0.784,36.128,27.688,46.349,30.578,5.481,7.412,5.645
470,0.8,35.784,27.693,46.369,30.574,5.562,7.533,5.686
471,0.787,35.933,27.697,46.35,30.571,5.482,7.412,5.605
472,0.803,36.06,27.654,46.35,30.578,5.522,7.452,5.686
473,0.816,36.147,27.747,46.359,30.581,5.563,7.452,5.646
474,0.829,35.812,27.627,46.378,30.588,5.604,7.615,5.767
475,0.807,35.924,27.669,46.35,30.571,5.564,7.454,5.606
476,0.813,36.06,27.697,46.388,30.574,5.563,7.493,5.686
477,0.8,36.109,27.697,46.369,30.578,5.563,7.494,5.646
478,0.79,35.85,27.728,46.35,30.574,5.482,7.494,5.483
479,0.78,35.963,27.658,46.321,30.564,5.44,7.412,5.522
480,0.793,36.117,27.677,46.349,30.578,5.521,7.533,5.685
481,0.784,36.129,27.697,46.33,30.578,5.563,7.494,5.646
482,0.806,35.688,27.697,46.349,30.581,5.645,7.534,5.564
483,0.813,35.846,27.701,46.474,30.578,5.605,7.575,5.726
484,0.846,35.982,27.685,46.399,30.592,5.686,7.575,5.727
485,0.836,35.859,27.708,46.34,30.571,5.524,7.494,5.646
486,0.859,35.79,27.697,46.369,30.571,5.603,7.534,5.645
487,0.843,35.895,27.65,46.369,30.581,5.564,7.534,5.645
488,0.836,35.983,27.626,46.34,30.571,5.523,7.453,5.605
489,0.859,35.609,27.626,46.34,30.574,5.644,7.534,5.645
490,0.859,35.73,27.739,46.388,30.581,5.645,7.534,5.645
491,0.862,35.856,27.666,46.398,30.585,5.686,7.657,5.808
492,0.853,35.944,27.712,46.379,30.578,5.605,7.495,5.688
493,0.879,35.58,27.705,46.369,30.574,5.604,7.534,5.646
494,0.872,35.673,27.728,46.359,30.574,5.645,7.494,5.645
495,0.885,35.798,27.658,46.34,30.571,5.483,7.453,5.523
496,0.876,35.886,27.634,46.33,30.56,5.481,7.412,5.522
497,0.885,35.503,27.677,46.359,30.574,5.684,7.452,5.685
498,0.863,35.643,27.65,46.35,30.571,5.605,7.493,5.646
499,0.853,35.759,27.72,46.35,30.574,5.604,7.494,5.686
500,0.872,35.837,27.615,46.378,30.581,5.686,7.453,5.687
501,0.879,35.646,27.704,46.379,30.581,5.727,7.493,5.687
502,0.859,35.75,27.712,46.359,30.571,5.687,7.453,5.646
503,0.853,35.856,27.685,46.35,30.571,5.687,7.33,5.483
504,0.875,35.963,27.681,46.378,30.578,5.727,7.451,5.684
505,0.863,35.523,27.677,46.35,30.571,5.687,7.371,5.687
506,0.846,35.672,27.704,46.359,30.578,5.646,7.411,5.564
507,0.872,35.789,27.728,46.369,30.581,5.727,7.411,5.726
508,0.859,35.857,27.744,46.388,30.581,5.809,7.411,5.727
509,0.846,35.503,27.611,46.36,30.571,5.728,7.289,5.646
510,0.849,35.643,27.641,46.369,30.571,5.646,7.288,5.605
511,0.836,35.75,27.7,46.369,30.571,5.686,7.288,5.726
512,0.83,35.722,27.642,46.35,30.564,5.646,7.207,5.646
513,0.833,35.645,27.642,46.369,30.578,5.686,7.247,5.686
514,0.839,35.759,27.708,46.359,30.581,5.727,7.247,5.646
515,0.836,35.895,27.72,46.378,30.592,5.85,7.328,5.767
516,0.81,35.369,27.678,46.35,30.578,5.729,7.248,5.647
517,0.79,35.479,27.626,46.359,30.578,5.809,7.206,5.645
518,0.771,35.624,27.665,46.436,30.581,5.85,7.287,5.686
519,0.761,35.692,27.657,46.331,30.571,5.729,7.166,5.605
520,0.754,35.271,27.743,46.34,30.564,5.809,7.206,5.645
521,0.757,35.439,27.58,46.388,30.574,5.81,7.328,5.686
522,0.774,35.594,27.641,46.379,30.578,5.972,7.37,5.768
523,0.751,35.673,27.731,46.369,30.574,5.933,7.37,5.687
524,0.744,35.434,27.658,46.369,30.578,6.014,7.33,5.768
525,0.744,35.575,27.603,46.369,30.578,5.934,7.41,5.728
526,0.731,35.682,27.661,46.34,30.571,5.933,7.33,5.646
527,0.731,35.75,27.685,46.359,30.564,5.974,7.207,5.564
528,0.738,35.329,27.712,46.369,30.578,6.015,7.369,5.726
529,0.731,35.44,27.74,46.35,30.564,6.015,7.289,5.727
530,0.728,35.575,27.728,46.474,30.578,5.974,7.329,5.727
531,0.731,35.644,27.681,46.389,30.574,6.055,7.37,5.768
532,0.738,35.338,27.701,46.407,30.588,6.178,7.452,5.768
533,0.715,35.43,27.634,46.36,30.571,6.017,7.208,5.687
534,0.715,35.556,27.645,46.378,30.578,6.137,7.328,5.727
535,0.708,35.596,27.677,46.369,30.574,6.057,7.289,5.768
536,0.692,35.356,27.708,46.35,30.564,6.015,7.125,5.647
537,0.679,35.498,27.72,46.34,30.571,6.056,7.165,5.686
538,0.688,35.633,27.674,46.378,30.578,6.178,7.206,5.768
539,0.672,35.539,27.685,46.398,30.574,6.22,7.287,5.809
540,0.656,35.221,27.665,46.379,30.578,6.139,7.247,5.728
541,0.649,35.381,27.704,46.379,30.581,6.179,7.369,5.85
542,0.655,35.508,27.67,46.388,30.574,6.179,7.289,5.688
543,0.642,35.346,27.657,46.369,30.578,6.017,7.288,5.646
544,0.646,35.43,27.7,46.369,30.567,6.015,7.329,5.645
545,0.652,35.585,27.685,46.388,30.578,6.096,7.573,5.767
546,0.652,35.663,27.658,46.36,30.571,6.097,7.454,5.768
547,0.678,35.184,27.571,46.378,30.578,6.056,7.534,5.768
548,0.688,35.352,27.68,46.369,30.574,6.137,7.616,5.809
549,0.669,35.488,27.693,46.407,30.592,6.26,7.779,5.972
550,0.669,35.518,27.689,46.369,30.575,6.058,7.659,5.73
551,0.669,35.164,27.681,46.407,30.581,6.056,7.658,5.809
552,0.669,35.304,27.677,46.388,30.578,6.056,7.576,5.81
553,0.659,35.401,27.697,46.35,30.574,5.934,7.616,5.688
554,0.662,35.479,27.595,46.34,30.567,5.974,7.535,5.768
555,0.678,35.135,27.688,46.369,30.571,6.015,7.697,5.85
556,0.669,35.275,27.654,46.378,30.571,6.056,7.699,5.891
557,0.662,35.391,27.712,46.369,30.571,6.015,7.618,5.851
558,0.672,35.46,27.732,46.398,30.574,6.015,7.657,5.891
559,0.678,35.259,27.721,46.388,30.581,6.056,7.617,5.851
560,0.656,35.372,27.658,46.369,30.571,5.893,7.495,5.81
561,0.659,35.517,27.661,46.369,30.574,5.892,7.534,5.769
562,0.652,35.528,27.673,46.378,30.578,6.014,7.534,5.85
563,0.665,35.173,27.638,46.379,30.571,5.893,7.534,5.769
564,0.672,35.304,27.681,46.369,30.571,5.892,7.453,5.891
565,0.685,35.43,27.685,46.388,30.581,6.054,7.534,5.851
566,0.695,35.479,27.732,46.407,30.585,6.097,7.575,6.013
567,0.679,35.192,27.666,46.369,30.574,5.975,7.372,5.812
568,0.695,35.314,27.607,46.388,30.585,5.974,7.492,5.932
569,0.692,35.44,27.633,46.388,30.574,5.933,7.412,5.811
570,0.672,35.048,27.692,46.369,30.567,5.852,7.33,5.81
571,0.662,35.082,27.607,46.35,30.564,5.81,7.248,5.728
572,0.685,35.246,27.665,46.388,30.571,5.932,7.41,5.89
573,0.672,35.324,27.72,46.36,30.574,5.933,7.371,5.892
574,0.682,35.056,27.693,46.378,30.571,5.892,7.33,5.811
575,0.692,35.217,27.634,46.398,30.578,6.014,7.37,5.932
576,0.679,35.381,27.7,46.408,30.574,5.974,7.411,5.892
577,0.672,35.431,27.65,46.379,30.567,5.811,7.289,5.811
578,0.678,35.048,27.704,46.379,30.571,5.81,7.288,5.81
579,0.682,35.226,27.701,46.379,30.571,5.85,7.329,5.85
580,0.666,35.324,27.564,46.359,30.578,5.81,7.207,5.769
581,0.672,35.421,27.621,46.388,30.567,5.81,7.328,5.809
582,0.669,35.0,27.704,46.388,30.581,5.85,7.451,5.891
583,0.669,35.178,27.685,46.417,30.585,6.013,7.493,6.014
584,0.662,35.304,27.646,46.389,30.578,5.771,7.331,5.812
585,0.682,35.363,27.7,46.388,30.578,5.972,7.37,5.891
586,0.688,35.114,27.693,46.379,30.578,5.811,7.33,5.851
587,0.682,35.236,27.751,46.369,30.574,5.81,7.289,5.851
588,0.672,35.333,27.69,46.369,30.564,5.728,7.207,5.688
589,0.672,35.382,27.603,46.398,30.571,5.89,7.369,5.89
590,0.695,34.932,27.622,46.379,30.574,5.892,7.33,5.851
591,0.692,35.091,27.716,46.379,30.574,5.811,7.329,5.851
592,0.695,35.236,27.635,46.436,30.574,5.932,7.37,5.891
593,0.708,35.343,27.653,46.417,30.585,5.933,7.452,5.892
594,0.689,34.961,27.731,46.369,30.571,5.811,7.33,5.77
595,0.688,35.11,27.705,46.369,30.574,5.81,7.329,5.768
596,0.688,35.208,27.623,46.388,30.578,5.891,7.289,5.809
597,0.682,34.95,27.661,46.379,30.564,5.729,7.288,5.769
598,0.675,35.024,27.626,46.369,30.567,5.768,7.41,5.768
599,0.685,35.178,27.677,46.388,30.578,5.891,7.33,5.85
600,0.692,35.285,27.716,46.388,30.581,5.933,7.41,5.973
601,0.685,34.854,27.666,46.379,30.574,5.852,7.249,5.852
602,0.688,35.013,27.646,46.388,30.578,5.81,7.288,5.891
603,0.682,35.139,27.704,46.379,30.578,5.81,7.166,5.851
604,0.675,35.189,27.646,46.359,30.564,5.81,7.124,5.81
605,0.669,34.959,27.638,46.369,30.571,5.728,7.043,5.728
606,0.695,35.139,27.673,46.398,30.581,5.809,7.204,5.85
607,0.695,35.227,27.7,46.369,30.571,5.85,7.206,5.851
608,0.708,35.314,27.701,46.369,30.578,5.81,7.165,5.81
609,0.698,34.797,27.705,46.388,30.578,5.85,7.246,5.932
610,0.711,34.984,27.697,46.407,30.588,5.973,7.247,5.852
611,0.698,35.062,27.681,46.369,30.571,5.811,7.125,5.769
612,0.701,35.102,27.669,46.378,30.571,5.769,7.083,5.809
613,0.698,34.862,27.638,46.379,30.581,5.809,7.123,5.81
614,0.701,34.994,27.634,46.369,30.571,5.728,7.083,5.769
615,0.701,35.111,27.681,46.378,30.578,5.727,7.164,5.809
616,0.695,35.179,27.669,46.388,30.578,5.89,7.206,5.81
617,0.688,34.882,27.657,46.417,30.588,5.973,7.287,5.891
618,0.675,34.985,27.575,46.35,30.568,5.771,7.207,5.77
619,0.678,35.12,27.668,46.397,30.574,5.85,7.206,5.768
620,0.672,35.332,27.716,46.379,30.574,5.729,7.247,5.85
621,0.698,34.97,27.646,46.369,30.567,5.727,7.206,5.769
622,0.721,35.081,27.673,46.35,30.56,5.727,7.206,5.687
623,0.76,35.226,27.681,46.388,30.574,5.809,7.287,5.89
624,0.78,34.854,27.693,46.388,30.574,5.85,7.329,5.892
625,0.813,34.879,27.572,46.379,30.574,5.81,7.248,5.77
626,0.826,35.042,27.66,46.388,30.581,5.81,7.247,5.891
627,0.859,35.13,27.65,46.398,30.585,5.769,7.328,5.811
628,0.866,34.815,27.696,46.369,30.571,5.728,7.248,5.688
629,0.905,34.955,27.689,46.378,30.571,5.646,7.206,5.687
630,0.947,35.091,27.658,46.388,30.574,5.808,7.287,5.849
631,0.99,35.159,27.634,46.369,30.564,5.769,7.166,5.729
632,1.02,34.777,27.7,46.369,30.571,5.768,7.206,5.85
633,1.062,34.936,27.638,46.378,30.578,5.768,7.287,5.851
634,1.108,35.091,27.634,46.398,30.585,5.891,7.288,5.891
635,1.122,35.14,27.673,46.369,30.571,5.729,7.207,5.729
636,1.151,34.738,27.7,46.378,30.574,5.809,7.247,5.89
637,1.194,34.868,27.701,46.388,30.574,5.769,7.206,5.851
638,1.243,34.985,27.681,46.36,30.574,5.647,7.165,5.81
639,1.299,35.024,27.548,46.378,30.564,5.686,7.002,5.85
640,1.381,34.785,27.652,46.398,30.574,5.727,7.163,5.973
641,1.43,34.917,27.669,46.369,30.578,5.768,7.165,5.974
642,1.48,35.043,27.654,46.426,30.578,5.728,7.084,6.055
643,1.509,35.092,27.634,46.379,30.578,5.85,7.205,6.097
644,1.555,34.795,27.704,46.407,30.585,5.81,7.125,6.138
645,1.552,34.907,27.716,46.369,30.571,5.769,7.043,6.138
646,1.575,35.023,27.638,46.369,30.571,5.687,7.001,6.098
647,1.65,35.351,27.661,46.407,30.578,5.809,7.041,6.138
648,1.687,34.817,27.646,46.35,30.571,5.688,7.001,6.219
649,1.742,34.955,27.692,46.369,30.571,5.727,7.001,6.261
650,1.811,35.062,27.677,46.388,30.578,5.768,7.041,6.384
651,1.815,34.747,27.665,46.407,30.585,5.687,7.164,6.507
652,1.805,34.744,27.7,46.369,30.568,5.646,7.043,6.305
653,1.815,34.897,27.681,46.388,30.578,5.767,7.042,6.343
654,1.828,34.975,27.626,46.379,30.574,5.728,7.001,6.425
655,1.828,34.621,27.649,46.359,30.574,5.646,6.919,6.385
656,1.796,34.752,27.696,46.33,30.564,5.645,6.878,6.425
657,1.766,34.916,27.677,46.388,30.574,5.808,7.04,6.67
658,1.707,34.975,27.736,46.369,30.571,5.688,6.96,6.794
659,1.629,34.64,27.658,46.378,30.574,5.727,6.919,6.917
660,1.478,34.81,27.661,46.398,30.578,5.768,7.041,7.163
661,1.353,34.955,27.677,46.417,30.588,5.85,7.042,7.328
662,1.196,35.005,27.619,46.369,30.571,5.769,6.92,7.37
663,1.035,34.65,27.649,46.388,30.571,5.768,6.919,7.573
664,0.913,34.8,27.649,46.379,30.571,5.768,6.919,7.779
665,0.84,34.898,27.735,46.379,30.564,5.687,6.796,7.781
666,0.703,34.966,27.662,46.379,30.564,5.727,6.795,7.984
667,0.604,34.803,27.638,46.388,30.578,5.809,6.877,8.108
668,0.522,34.955,27.56,46.446,30.585,5.85,6.877,8.435
669,0.426,35.081,27.676,46.389,30.571,5.769,6.796,8.397
670,0.325,35.121,27.681,46.398,30.578,5.809,6.836,8.519
671,0.239,34.632,27.677,46.398,30.581,5.81,6.796,8.601
672,0.163,34.752,27.634,46.388,30.567,5.769,6.633,8.562
673,0.104,34.878,27.677,46.369,30.567,5.728,6.631,8.683
674,0.032,35.196,27.646,46.388,30.574,5.727,6.712,8.766
675,-0.011,34.758,27.634,46.388,30.574,5.727,6.632,8.807
676,-0.031,34.916,27.649,46.388,30.571,5.768,6.712,8.889
677,-0.012,35.033,27.689,46.388,30.571,5.85,6.713,8.93
678,0.021,34.708,27.72,46.427,30.588,5.932,6.794,9.053
679,0.038,34.676,27.693,46.379,30.568,5.73,6.673,8.891
680,0.054,34.848,27.658,46.398,30.571,5.727,6.713,8.971
681,0.057,34.936,27.653,46.398,30.571,5.809,6.754,9.013
682,0.08,34.592,27.657,46.369,30.567,5.728,6.673,9.013
683,0.126,34.704,27.54,46.388,30.567,5.646,6.631,9.094
684,0.156,34.877,27.676,46.407,30.571,5.727,6.794,9.258
685,0.202,34.966,27.697,46.408,30.581,5.85,6.795,9.503
686,0.267,34.707,27.693,46.379,30.578,5.688,6.714,9.546
687,0.336,34.858,27.666,46.398,30.578,5.768,6.916,9.791
688,0.389,35.004,27.646,46.427,30.578,5.728,6.796,9.915
689,0.432,35.053,27.591,46.398,30.564,5.687,6.714,10.12
690,0.494,34.641,27.704,46.398,30.578,5.687,6.754,10.284
691,0.537,34.81,27.623,46.388,30.571,5.727,6.795,10.571
692,0.563,34.917,27.634,46.407,30.567,5.687,6.755,10.736
693,0.59,34.995,27.673,46.408,30.574,5.687,6.795,10.982
694,0.632,34.593,27.685,46.417,30.578,5.768,6.836,11.228
695,0.678,34.752,27.658,46.456,30.585,5.85,6.999,11.475
696,0.704,34.849,27.618,46.399,30.571,5.729,6.716,11.558
697,0.737,34.917,27.673,46.427,30.588,5.727,6.876,11.803
698,0.751,34.717,27.642,46.408,30.574,5.687,6.796,11.887
699,0.757,34.839,27.727,46.398,30.571,5.605,6.673,11.806
700,0.761,34.946,27.6,46.388,30.564,5.564,6.713,11.846
701,0.783,35.091,27.676,46.427,30.574,5.726,6.794,11.887
702,0.8,34.728,27.728,46.437,30.581,5.727,6.836,11.969
703,0.803,34.839,27.639,46.427,30.574,5.646,6.714,11.889
704,0.813,34.984,27.665,46.446,30.578,5.645,6.794,11.806
705,0.833,34.708,27.642,46.446,30.574,5.645,6.714,11.765
706,0.826,34.705,27.661,46.408,30.567,5.605,6.672,11.642
707,0.843,34.82,27.65,46.408,30.564,5.523,6.631,11.601
708,0.823,34.936,27.7,46.446,30.574,5.644,6.753,11.682
709,0.807,34.583,27.588,46.456,30.571,5.605,6.673,11.642
710,0.803,34.713,27.661,46.446,30.574,5.645,6.753,11.641
711,0.813,34.849,27.712,46.446,30.581,5.686,6.836,11.601
712,0.816,34.975,27.701,46.58,30.585,5.809,6.918,11.722
713,0.829,34.573,27.662,46.419,30.571,5.606,6.837,11.561
714,0.82,34.723,27.696,46.465,30.585,5.686,6.877,11.559
715,0.81,34.839,27.673,46.447,30.578,5.646,7.0,11.519
716,0.8,34.908,27.579,46.446,30.574,5.564,6.838,11.477
717,0.807,34.496,27.59,46.494,30.571,5.523,6.958,11.436
718,0.826,34.674,27.641,46.476,30.578,5.644,7.0,11.436
719,0.83,34.81,27.634,46.475,30.581,5.727,7.082,11.477
720,0.826,34.84,27.72,46.447,30.567,5.727,6.961,11.233
721,0.83,34.601,27.646,46.485,30.578,5.727,7.082,11.231
722,0.826,34.733,27.665,46.456,30.571,5.605,7.042,11.149
723,0.82,34.849,27.696,46.466,30.567,5.523,6.92,10.986
724,0.817,34.888,27.587,46.485,30.567,5.522,6.919,10.822
725,0.826,34.611,27.629,46.495,30.571,5.603,6.959,10.861
726,0.82,34.733,27.649,46.485,30.571,5.645,6.96,10.78
727,0.836,34.849,27.712,46.495,30.574,5.564,6.96,10.535
728,0.843,34.888,27.677,46.504,30.578,5.645,7.0,10.614
729,0.856,34.649,27.708,46.504,30.581,5.686,7.082,10.452
730,0.849,34.752,27.611,46.485,30.571,5.605,6.961,10.288
731,0.875,34.868,27.688,46.485,30.574,5.523,7.0,10.164
732,0.85,34.649,27.642,46.495,30.574,5.603,7.082,10.122
733,0.853,34.637,27.61,46.485,30.571,5.564,6.961,9.878
734,0.862,34.771,27.665,46.485,30.571,5.523,7.0,9.916
735,0.862,34.869,27.685,46.495,30.578,5.563,7.041,9.754
736,0.853,34.544,27.689,46.543,30.585,5.685,7.123,9.833
737,0.853,34.636,27.603,46.514,30.564,5.524,7.043,9.59
738,0.869,34.781,27.606,46.524,30.581,5.563,7.042,9.547
739,0.863,34.878,27.626,46.514,30.574,5.523,6.92,9.425
740,0.859,34.553,27.657,46.495,30.574,5.482,6.837,9.261
741,0.846,34.675,27.575,46.476,30.564,5.44,6.796,9.097
742,0.849,34.839,27.637,46.523,30.581,5.481,6.958,9.176
743,0.849,34.908,27.681,46.514,30.578,5.562,6.878,9.218
744,0.856,34.506,27.685,46.514,30.571,5.441,6.877,9.015
745,0.872,34.664,27.603,46.533,30.578,5.521,6.959,8.972
746,0.885,34.81,27.672,46.562,30.581,5.482,6.878,8.891
747,0.876,34.831,27.654,46.505,30.567,5.44,6.796,8.727
748,0.866,34.658,27.689,46.514,30.578,5.359,6.836,8.644
749,0.876,34.81,27.701,46.514,30.578,5.439,6.877,8.603
750,0.876,34.898,27.634,46.505,30.574,5.318,6.796,8.48
751,0.879,34.975,27.622,46.524,30.574,5.48,6.795,8.479
752,0.882,34.42,27.684,46.524,30.578,5.522,6.795,8.479
753,0.898,34.596,27.599,46.543,30.581,5.563,6.917,8.479
754,0.886,34.685,27.633,46.514,30.571,5.401,6.756,8.276
755,0.915,34.705,27.704,46.514,30.578,5.48,6.795,8.233
756,0.902,34.561,27.693,46.524,30.574,5.44,6.836,8.233
757,0.882,34.703,27.724,46.485,30.574,5.399,6.714,8.07
758,0.879,34.801,27.646,46.485,30.564,5.318,6.632,7.946
759,0.885,34.581,27.673,46.523,30.574,5.439,6.753,7.986
760,0.869,34.512,27.615,46.524,30.574,5.562,6.714,7.946
761,0.879,34.655,27.692,46.514,30.574,5.401,6.672,7.864
762,0.869,34.791,27.642,46.533,30.585,5.521,6.753,7.863
763,0.885,34.466,27.669,46.553,30.578,5.522,6.754,7.863
764,0.869,34.549,27.72,46.524,30.571,5.319,6.673,7.741
765,0.882,34.684,27.642,46.505,30.571,5.439,6.55,7.699
766,0.895,34.781,27.61,46.524,30.571,5.44,6.712,7.78
767,0.915,34.485,27.602,46.562,30.557,5.44,6.591,7.659
768,0.902,34.645,27.633,46.524,30.574,5.399,6.671,7.576
769,0.908,34.781,27.638,46.524,30.581,5.44,6.713,7.657
770,0.921,34.888,27.692,46.553,30.581,5.521,6.835,7.658
771,0.909,34.294,27.619,46.486,30.567,5.4,6.674,7.455
772,0.918,34.451,27.645,46.533,30.581,5.44,6.753,7.493
773,0.918,34.568,27.665,46.495,30.571,5.44,6.673,7.412
774,0.912,34.627,27.587,46.495,30.571,5.318,6.631,7.289
775,0.908,34.368,27.625,46.466,30.56,5.317,6.631,7.288
776,0.912,34.519,27.657,46.504,30.574,5.439,6.794,7.288
777,0.922,34.655,27.7,46.533,30.578,5.481,6.877,7.369
778,0.912,34.695,27.689,46.505,30.571,5.359,6.715,7.248
779,0.915,34.465,27.63,46.514,30.574,5.48,6.876,7.206
780,0.925,34.616,27.583,46.524,30.578,5.4,6.755,7.206
781,0.915,34.714,27.676,46.495,30.567,5.358,6.754,7.125
782,0.918,34.734,27.63,46.476,30.571,5.317,6.714,7.083
783,0.896,34.456,27.657,46.514,30.574,5.439,6.835,7.123
784,0.912,34.549,27.657,46.505,30.571,5.359,6.796,7.083
785,0.915,34.684,27.704,46.504,30.578,5.399,6.795,7.042
786,0.918,34.465,27.701,46.524,30.581,5.399,6.836,7.082
787,0.931,34.415,27.619,46.553,30.585,5.44,6.918,7.164
788,0.938,34.501,27.501,46.524,30.574,5.359,6.756,7.002
789,0.938,34.655,27.636,46.533,30.574,5.439,6.795,7.041
790,0.941,34.254,27.645,46.514,30.578,5.44,6.755,7.001
791,0.938,34.384,27.642,46.543,30.571,5.359,6.673,6.879
792,0.935,34.5,27.618,46.495,30.56,5.317,6.672,6.877
793,0.958,34.617,27.696,46.514,30.574,5.48,6.713,6.959
794,0.958,34.234,27.654,46.514,30.571,5.522,6.835,7.0
795,0.951,34.365,27.618,46.524,30.574,5.4,6.714,6.919
796,0.951,34.538,27.637,46.524,30.574,5.44,6.794,6.959
797,0.961,34.617,27.653,46.524,30.578,5.44,6.714,6.919
798,0.951,34.263,27.673,46.495,30.567,5.359,6.713,6.837
799,0.958,34.403,27.626,46.504,30.564,5.358,6.672,6.755
800,0.951,34.548,27.677,46.524,30.571,5.439,6.835,6.836
801,0.951,34.598,27.619,46.505,30.574,5.399,6.755,6.755
802,0.951,34.263,27.704,46.504,30.571,5.399,6.795,6.795
803,0.958,34.442,27.642,46.562,30.578,5.399,6.836,6.877
804,0.971,34.578,27.665,46.572,30.585,5.521,6.837,6.918
805,0.964,34.598,27.716,46.524,30.564,5.36,6.755,6.756
806,0.977,34.186,27.646,46.533,30.571,5.439,6.836,6.754
807,0.974,34.306,27.649,46.505,30.571,5.44,6.796,6.714
808,0.981,34.413,27.544,46.504,30.571,5.277,6.755,6.632
809,0.987,34.424,27.605,46.495,30.571,5.316,6.836,6.672
810,1.0,34.309,27.696,46.514,30.578,5.439,6.918,6.753
811,0.994,34.423,27.638,46.533,30.585,5.481,7.0,6.836
812,0.984,34.539,27.61,46.505,30.571,5.4,6.919,6.633
813,0.994,34.329,27.7,46.504,30.581,5.358,7.0,6.672
814,1.004,34.202,27.681,46.524,30.571,5.358,7.001,6.631
815,1.01,34.335,27.568,46.485,30.56,5.317,6.96,6.59
816,0.994,34.423,27.637,46.495,30.564,5.276,6.96,6.468
817,1.007,34.155,27.638,46.523,30.578,5.479,7.082,6.589
818,1.03,34.249,27.634,46.505,30.567,5.359,7.042,6.549
819,1.001,34.393,27.696,46.504,30.574,5.399,7.001,6.508
820,0.997,34.491,27.541,46.533,30.581,5.48,7.082,6.549
821,1.013,34.127,27.652,46.553,30.581,5.562,7.245,6.63
822,1.01,34.248,27.673,46.514,30.571,5.401,7.125,6.468
823,1.01,34.393,27.611,46.533,30.574,5.44,7.124,6.589
824,1.004,34.472,27.626,46.533,30.578,5.399,7.124,6.468
825,1.01,34.041,27.634,46.495,30.564,5.358,7.083,6.386
826,1.01,34.2,27.688,46.485,30.56,5.317,7.083,6.466
827,1.04,34.355,27.669,46.533,30.574,5.439,7.205,6.467
828,1.037,34.423,27.673,46.505,30.581,5.481,7.328,6.548
829,1.04,34.155,27.626,46.524,30.578,5.4,7.248,6.386
830,1.053,34.316,27.673,46.514,30.574,5.48,7.369,6.507
831,1.06,34.413,27.63,46.524,30.574,5.481,7.33,6.345
832,1.043,34.481,27.657,46.524,30.571,5.318,7.248,6.343
833,1.043,34.252,27.65,46.485,30.56,5.358,7.328,6.303
834,1.053,34.403,27.696,46.514,30.574,5.48,7.37,6.465
835,1.043,34.501,27.619,46.505,30.571,5.359,7.452,6.345
836,1.066,34.569,27.552,46.524,30.574,5.439,7.493,6.343
837,1.056,34.157,27.633,46.524,30.571,5.44,7.534,6.384
838,1.073,34.325,27.661,46.553,30.585,5.521,7.616,6.547
839,1.069,34.423,27.7,46.524,30.571,5.4,7.495,6.305
840,1.056,34.347,27.627,46.533,30.581,5.399,7.494,6.343
841,1.076,34.26,27.673,46.524,30.578,5.44,7.534,6.303
842,1.092,34.394,27.63,46.485,30.574,5.359,7.412,6.221
843,1.079,34.491,27.638,46.485,30.564,5.358,7.493,6.22
844,1.083,34.06,27.618,46.523,30.585,5.48,7.534,6.342
845,1.086,34.171,27.634,46.524,30.578,5.481,7.534,6.425
846,1.099,34.278,27.661,46.505,30.571,5.4,7.494,6.222
847,1.109,34.394,27.704,46.524,30.571,5.521,7.534,6.302
848,1.089,34.261,27.712,46.495,30.578,5.482,7.494,6.262
849,1.092,34.374,27.556,46.523,30.571,5.359,7.453,6.18
850,1.122,34.519,27.645,46.514,30.571,5.317,7.452,6.179
851,1.116,34.626,27.696,46.524,30.578,5.398,7.452,6.22
852,1.102,34.071,27.584,46.533,30.571,5.399,7.412,6.18
853,1.119,34.219,27.629,46.524,30.567,5.44,7.452,6.22
854,1.129,34.355,27.657,46.524,30.578,5.481,7.452,6.22
855,1.129,34.442,27.689,46.553,30.585,5.522,7.615,6.302
856,1.119,34.117,27.58,46.524,30.578,5.319,7.413,6.14
857,1.115,34.306,27.633,46.553,30.574,5.48,7.452,6.138
858,1.115,34.404,27.626,46.524,30.571,5.44,7.371,6.179
859,1.115,34.462,27.649,46.505,30.564,5.359,7.33,6.139
860,1.109,34.233,27.685,46.495,30.564,5.399,7.248,6.057
861,1.119,34.432,27.662,46.543,30.578,5.44,7.369,6.137
862,1.125,34.549,27.642,46.534,30.571,5.44,7.33,6.179
863,1.129,34.579,27.673,46.524,30.571,5.399,7.289,6.179
864,1.125,34.272,27.595,46.553,30.585,5.521,7.288,6.22
865,1.132,34.442,27.637,46.543,30.574,5.441,7.288,6.18
866,1.129,34.53,27.649,46.534,30.571,5.399,7.166,6.098
867,1.132,34.55,27.7,46.524,30.571,5.399,7.165,6.056
868,1.138,34.483,27.681,46.524,30.578,5.44,7.165,6.137
869,1.135,34.568,27.622,46.505,30.574,5.44,7.084,6.098
870,1.148,34.694,27.591,46.543,30.571,5.44,7.123,6.138
871,1.142,34.57,27.672,46.534,30.578,5.562,7.083,6.098
872,1.155,34.703,27.576,46.562,30.592,5.604,7.123,6.219
873,1.165,34.82,27.633,46.524,30.575,5.401,6.961,6.058
874,1.165,34.917,27.649,46.543,30.585,5.521,7.041,6.219
875,1.168,34.812,27.7,46.524,30.574,5.563,6.96,6.058
876,1.152,34.936,27.642,46.505,30.567,5.482,6.96,5.975
877,1.148,35.081,27.544,46.504,30.56,5.4,6.878,5.974
878,1.161,35.188,27.648,46.533,30.571,5.562,6.959,6.096
879,1.145,34.949,27.599,46.524,30.585,5.523,6.96,6.097
880,1.158,35.129,27.68,46.524,30.574,5.522,6.878,6.097
881,1.152,35.275,27.63,46.533,30.578,5.563,6.877,6.097
882,1.168,35.353,27.638,46.562,30.585,5.685,7.0,6.056
883,1.145,35.373,27.677,46.534,30.571,5.483,6.838,6.056
884,1.155,35.527,27.607,46.543,30.578,5.562,6.877,6.056
885,1.142,35.653,27.622,46.553,30.578,5.482,6.877,6.056
886,1.155,35.683,27.634,46.505,30.564,5.4,6.796,5.934
887,1.161,35.558,27.677,46.524,30.567,5.48,6.795,6.055
888,1.165,35.711,27.697,46.533,30.574,5.562,6.958,6.056
889,1.135,35.808,27.666,46.562,30.585,5.604,6.96,6.219
890,1.145,35.828,27.642,46.534,30.571,5.523,6.797,6.017
891,1.148,35.934,27.642,46.553,30.578,5.522,6.917,6.137
892,1.145,36.05,27.645,46.543,30.571,5.603,6.837,6.057
893,1.152,36.147,27.638,46.505,30.564,5.442,6.796,5.975
894,1.171,36.254,27.63,46.504,30.56,5.359,6.755,5.852
895,1.155,36.216,27.681,46.543,30.578,5.521,6.836,6.095
896,1.148,36.34,27.665,46.514,30.571,5.4,6.837,5.975
897,1.158,36.447,27.622,46.533,30.578,5.521,6.918,6.015
898,1.145,36.477,27.563,46.553,30.585,5.482,7.0,6.056
899,1.152,36.621,27.676,46.572,30.581,5.562,7.001,6.097
900,1.145,36.699,27.673,46.534,30.571,5.441,7.001,5.894
901,1.139,36.806,27.583,46.533,30.574,5.44,7.001,5.973
902,1.138,36.788,27.594,46.543,30.574,5.521,7.041,6.015
903,1.116,36.902,27.68,46.524,30.571,5.36,7.042,5.974
904,1.109,37.038,27.673,46.543,30.581,5.439,7.164,6.015
905,1.115,37.125,27.564,46.553,30.574,5.44,7.124,6.015
906,1.122,37.222,27.645,46.572,30.581,5.603,7.368,6.137
907,1.119,37.348,27.607,46.534,30.571,5.401,7.167,5.894
908,1.109,37.483,27.68,46.562,30.578,5.48,7.246,5.973
909,1.115,37.494,27.65,46.534,30.571,5.4,7.247,5.974
910,1.115,37.456,27.634,46.524,30.571,5.358,7.166,5.974
911,1.102,37.561,27.602,46.533,30.56,5.399,7.165,5.933
912,1.106,37.677,27.692,46.562,30.574,5.44,7.287,6.014
913,1.102,37.746,27.599,46.562,30.592,5.562,7.329,6.096
914,1.096,37.66,27.622,46.534,30.575,5.401,7.167,5.935
915,1.092,37.793,27.673,46.553,30.585,5.48,7.206,5.974
916,1.07,37.9,27.7,46.553,30.581,5.4,7.165,5.974
917,1.063,37.901,27.673,46.534,30.564,5.399,7.124,5.811
918,1.066,38.035,27.576,46.524,30.571,5.277,7.043,5.81
919,1.066,38.161,27.621,46.562,30.578,5.398,7.164,5.972
920,1.043,38.259,27.618,46.534,30.571,5.399,7.043,5.974
921,1.033,38.375,27.637,46.553,30.574,5.358,7.082,5.933
922,1.03,38.318,27.634,46.543,30.578,5.439,7.164,5.974
923,1.037,38.471,27.677,46.591,30.581,5.521,7.246,5.974
924,1.007,38.521,27.661,46.534,30.578,5.36,7.003,5.852
925,1.017,38.444,27.591,46.562,30.574,5.439,7.001,5.973
926,1.01,38.559,27.625,46.61,30.571,5.44,7.082,5.933
927,0.991,38.656,27.602,46.525,30.564,5.359,6.961,5.852
928,0.987,38.724,27.661,46.533,30.571,5.317,6.96,5.891
929,0.997,38.609,27.689,46.553,30.578,5.439,7.041,5.973
930,1.004,38.771,27.619,46.582,30.574,5.562,7.082,6.055
931,0.994,38.869,27.653,46.563,30.574,5.482,6.92,5.893
932,0.991,38.956,27.692,46.543,30.574,5.522,7.081,5.892
933,0.965,38.832,27.611,46.543,30.578,5.482,7.042,5.892
934,0.971,38.956,27.602,46.543,30.567,5.4,7.001,5.77
935,0.951,39.034,27.602,46.534,30.56,5.358,6.919,5.728
936,0.951,39.13,27.633,46.543,30.578,5.48,6.959,5.972
937,0.922,38.901,27.622,46.553,30.578,5.522,7.0,5.893
938,0.918,39.043,27.645,46.562,30.571,5.482,6.879,5.851
939,0.925,39.188,27.614,46.601,30.574,5.522,7.081,5.932
940,0.905,39.228,27.676,46.572,30.574,5.563,7.083,5.892
941,0.905,39.103,27.665,46.534,30.571,5.401,6.961,5.892
942,0.908,39.246,27.642,46.639,30.574,5.358,6.878,5.811
943,0.892,39.363,27.649,46.573,30.574,5.48,6.959,5.891
944,0.876,39.354,27.646,46.563,30.571,5.359,6.96,5.933
945,0.882,39.201,27.665,46.562,30.571,5.439,7.0,5.933
946,0.879,39.314,27.572,46.572,30.581,5.481,7.001,5.974
947,0.892,39.45,27.504,46.601,30.585,5.562,7.123,6.015
948,0.873,39.528,27.613,46.563,30.568,5.441,6.961,5.812
949,0.872,39.317,27.645,46.562,30.574,5.521,6.96,5.891
950,0.863,39.402,27.634,46.582,30.574,5.441,6.919,5.973
951,0.846,39.489,27.638,46.563,30.571,5.399,6.796,5.852
952,0.843,39.346,27.649,46.543,30.564,5.399,6.836,5.851
953,0.846,39.44,27.677,46.562,30.574,5.48,6.958,5.973
954,0.853,39.576,27.572,46.582,30.581,5.522,6.96,5.974
955,0.862,39.634,27.602,46.563,30.571,5.4,6.878,5.852
956,0.856,39.462,27.629,46.572,30.578,5.48,6.877,5.973
957,0.846,39.585,27.704,46.572,30.574,5.481,6.877,5.933
958,0.827,39.682,27.673,46.543,30.574,5.359,6.796,5.892
959,0.813,39.731,27.607,46.562,30.571,5.317,6.755,5.811
960,0.81,39.559,27.587,46.572,30.578,5.48,6.836,5.972
961,0.794,39.692,27.668,46.563,30.571,5.481,6.796,5.933
962,0.793,39.799,27.626,46.572,30.571,5.4,6.877,5.892
963,0.8,39.867,27.591,46.601,30.574,5.48,6.877,6.014
964,0.81,39.589,27.665,46.601,30.581,5.481,6.837,5.934
965,0.803,39.673,27.65,46.582,30.567,5.318,6.674,5.933
966,0.8,39.779,27.653,46.553,30.571,5.398,6.753,5.892
967,0.8,39.819,27.587,46.582,30.574,5.44,6.795,5.973
968,0.787,39.704,27.61,46.611,30.567,5.399,6.795,5.893
969,0.787,39.808,27.606,46.592,30.571,5.44,6.836,5.933
970,0.797,39.915,27.696,46.592,30.578,5.481,6.837,6.014
971,0.803,39.973,27.615,46.63,30.585,5.562,6.958,6.056
972,0.787,39.696,27.622,46.601,30.568,5.36,6.797,5.853
973,0.806,39.808,27.677,46.601,30.578,5.521,6.836,5.973
974,0.8,39.915,27.634,46.582,30.578,5.4,6.796,5.974
975,0.787,40.041,27.634,46.572,30.571,5.318,6.714,5.852
976,0.767,39.716,27.622,46.572,30.571,5.398,6.754,5.973
977,0.764,39.856,27.684,46.601,30.574,5.44,6.836,6.015
978,0.774,39.963,27.673,46.62,30.581,5.481,6.918,6.137
979,0.767,39.667,27.673,46.601,30.574,5.359,6.837,5.976
980,0.764,39.76,27.611,46.611,30.574,5.521,6.837,5.974
981,0.774,39.886,27.618,46.611,30.567,5.441,6.796,5.974
982,0.774,39.925,27.653,46.573,30.571,5.399,6.714,5.933
983,0.754,39.628,27.618,46.687,30.567,5.277,6.672,5.811
984,0.757,39.788,27.634,46.621,30.574,5.357,6.835,6.013
985,0.744,39.886,27.634,46.601,30.571,5.399,6.796,5.974
986,0.751,39.944,27.681,46.601,30.578,5.358,6.714,5.974
987,0.764,39.581,27.65,46.611,30.578,5.439,6.835,6.015
988,0.767,39.749,27.595,46.659,30.581,5.481,6.837,6.015
989,0.757,39.838,27.61,46.611,30.567,5.4,6.714,5.852
990,0.757,39.896,27.669,46.62,30.571,5.358,6.672,5.932
991,0.761,39.532,27.576,46.621,30.581,5.399,6.713,5.974
992,0.754,39.653,27.598,46.63,30.564,5.318,6.713,5.893
993,0.754,39.75,27.641,46.611,30.571,5.398,6.713,5.973
994,0.757,39.818,27.653,46.62,30.578,5.44,6.835,5.974
995,0.764,39.531,27.591,46.659,30.581,5.562,6.877,6.055
996,0.748,39.643,27.614,46.631,30.574,5.36,6.755,5.853
997,0.747,39.76,27.614,46.659,30.578,5.48,6.836,6.013
998,0.747,39.78,27.665,46.621,30.574,5.359,6.714,5.974
999,0.741,39.598,27.634,46.611,30.571,5.277,6.713,5.852
1000,0.741,39.711,27.595,46.62,30.571,5.357,6.713,5.851
1001,0.76,39.828,27.602,46.64,30.574,5.521,6.835,5.932
1002,0.754,40.001,27.688,46.64,30.578,5.482,6.796,5.974
1003,0.751,39.456,27.595,46.64,30.578,5.44,6.795,5.893
1004,0.754,39.604,27.61,46.659,30.585,5.481,6.836,5.973
1005,0.761,39.711,27.669,46.678,30.578,5.4,6.796,5.974
1006,0.744,39.473,27.622,46.631,30.571,5.358,6.714,5.852
1007,0.751,39.528,27.68,46.64,30.571,5.317,6.754,5.769
1008,0.754,39.653,27.619,46.659,30.585,5.439,6.876,5.931
1009,0.738,39.712,27.579,46.64,30.571,5.359,6.755,5.811
1010,0.77,39.329,27.582,46.64,30.574,5.439,6.876,5.85
1011,0.787,39.459,27.668,46.659,30.578,5.44,6.918,5.932
1012,0.767,39.604,27.579,46.678,30.585,5.521,6.919,5.974
1013,0.757,39.654,27.629,46.659,30.571,5.4,6.796,5.771
1014,0.774,39.232,27.665,46.64,30.578,5.44,6.836,5.891
1015,0.764,39.353,27.65,46.65,30.578,5.44,6.877,5.892
1016,0.757,39.46,27.61,46.63,30.561,5.399,6.715,5.729
1017,0.761,39.518,27.54,46.669,30.571,5.318,6.876,5.809
1018,0.767,39.202,27.621,46.659,30.581,5.398,6.918,5.932
1019,0.757,39.372,27.626,46.688,30.588,5.48,6.959,5.974
1020,0.744,39.46,27.684,46.64,30.571,5.318,6.797,5.811
1021,0.747,39.537,27.646,46.678,30.574,5.439,6.917,5.85
1022,0.741,39.202,27.638,46.659,30.574,5.44,6.837,5.851
1023,0.738,39.305,27.653,46.64,30.571,5.318,6.796,5.81
1024,0.734,39.411,27.591,46.64,30.557,5.317,6.755,5.81
1025,0.76,39.489,27.606,46.678,30.578,5.358,6.836,5.81
1026,0.761,39.144,27.571,46.669,30.574,5.439,6.877,5.891
1027,0.761,39.266,27.621,46.659,30.571,5.399,6.796,5.77
1028,0.764,39.382,27.673,46.678,30.574,5.48,6.836,5.85
1029,0.78,39.623,27.693,46.679,30.574,5.44,6.796,5.891
1030,0.767,39.031,27.638,46.65,30.571,5.44,6.714,5.811
1031,0.764,39.159,27.638,46.65,30.571,5.318,6.713,5.647
1032,0.754,39.266,27.681,46.659,30.578,5.317,6.835,5.849
1033,0.748,38.989,27.622,46.755,30.571,5.358,6.674,5.729
1034,0.751,39.015,27.618,46.67,30.574,5.399,6.713,5.768
1035,0.744,39.149,27.665,46.669,30.574,5.44,6.835,5.85
1036,0.76,39.275,27.661,46.707,30.588,5.521,6.796,5.891
1037,0.741,38.816,27.626,46.65,30.574,5.319,6.714,5.729
1038,0.757,38.955,27.559,46.678,30.578,5.439,6.754,5.768
1039,0.754,39.062,27.606,46.669,30.578,5.399,6.714,5.85
1040,0.751,39.131,27.63,46.659,30.567,5.358,6.672,5.688
1041,0.757,38.796,27.591,46.64,30.56,5.277,6.631,5.687
1042,0.764,38.955,27.614,46.678,30.574,5.398,6.794,5.768
1043,0.754,39.072,27.637,46.669,30.574,5.399,6.755,5.85
1044,0.751,39.15,27.681,46.679,30.578,5.358,6.754,5.769
1045,0.751,38.738,27.603,46.679,30.578,5.399,6.836,5.85
1046,0.764,38.907,27.61,46.784,30.581,5.562,6.877,5.851
1047,0.774,38.985,27.571,46.661,30.564,5.36,6.715,5.729
1048,0.78,39.034,27.645,46.65,30.571,5.399,6.754,5.727
1049,0.767,38.632,27.649,46.669,30.574,5.399,6.795,5.768
1050,0.78,38.743,27.564,46.659,30.564,5.44,6.714,5.728
1051,0.774,38.849,27.606,46.659,30.578,5.359,6.835,5.768
1052,0.774,38.908,27.665,46.698,30.581,5.48,6.796,5.809
1053,0.78,38.602,27.587,46.698,30.592,5.603,6.958,5.891
1054,0.774,38.704,27.571,46.66,30.575,5.36,6.716,5.77
1055,0.784,38.82,27.614,46.678,30.578,5.399,6.754,5.728
1056,0.771,39.119,27.688,46.679,30.574,5.399,6.714,5.809
1057,0.764,38.556,27.662,46.659,30.567,5.358,6.713,5.647
1058,0.767,38.656,27.611,46.65,30.567,5.358,6.632,5.727
1059,0.77,38.781,27.528,46.698,30.578,5.439,6.712,5.809
1060,0.767,38.524,27.613,46.698,30.585,5.481,6.835,5.81
1061,0.77,38.55,27.657,46.66,30.574,5.4,6.714,5.81
1062,0.77,38.684,27.575,46.698,30.578,5.48,6.713,5.728
1063,0.78,38.762,27.621,46.698,30.578,5.4,6.713,5.768
1064,0.764,38.293,27.626,46.669,30.567,5.44,6.672,5.768
1065,0.767,38.394,27.653,46.65,30.571,5.277,6.631,5.606
1066,0.767,38.529,27.579,46.678,30.578,5.398,6.834,5.808
1067,0.77,38.607,27.567,46.659,30.567,5.318,6.796,5.647
1068,0.783,38.244,27.586,46.678,30.574,5.358,6.877,5.767
1069,0.784,38.384,27.641,46.698,30.581,5.439,6.918,5.728
1070,0.78,38.51,27.681,46.717,30.595,5.481,6.959,5.809
1071,0.78,38.55,27.599,46.679,30.571,5.4,6.838,5.688
1072,0.78,38.368,27.633,46.688,30.571,5.358,6.918,5.768
1073,0.793,38.472,27.645,46.688,30.578,5.439,6.959,5.728
1074,0.78,38.578,27.591,46.66,30.567,5.277,6.878,5.646
1075,0.78,38.627,27.571,46.669,30.567,5.398,6.959,5.686
1076,0.793,38.167,27.637,46.688,30.574,5.358,6.919,5.768
1077,0.793,38.297,27.649,46.688,30.585,5.439,7.081,5.809
1078,0.793,38.394,27.673,46.66,30.578,5.318,6.92,5.647
1079,0.797,38.414,27.665,46.688,30.581,5.439,6.959,5.808
1080,0.777,38.184,27.626,46.688,30.574,5.318,6.96,5.688
1081,0.774,38.278,27.618,46.66,30.567,5.317,6.878,5.646
1082,0.767,38.384,27.626,46.65,30.567,5.195,6.755,5.564
1083,0.78,38.635,27.599,46.698,30.571,5.438,6.957,5.766
1084,0.78,38.187,27.594,46.698,30.571,5.359,6.878,5.687
1085,0.784,38.316,27.649,46.679,30.571,5.317,6.837,5.687
1086,0.787,38.394,27.685,46.688,30.574,5.358,6.958,5.809
1087,0.8,38.088,27.611,46.717,30.588,5.521,6.96,5.728
1088,0.787,38.018,27.575,46.679,30.574,5.36,6.797,5.646
1089,0.793,38.171,27.582,46.707,30.578,5.439,6.836,5.727
1090,0.78,38.249,27.629,46.689,30.578,5.359,6.796,5.727
1091,0.774,37.828,27.595,46.679,30.571,5.317,6.714,5.646
1092,0.771,37.958,27.586,46.679,30.574,5.398,6.754,5.686
1093,0.783,38.113,27.664,46.698,30.574,5.399,6.754,5.646
1094,0.8,38.181,27.646,46.698,30.578,5.521,6.836,5.767
1095,0.787,37.875,27.556,46.688,30.571,5.4,6.714,5.647
1096,0.784,38.026,27.559,46.688,30.578,5.44,6.672,5.808
1097,0.78,38.152,27.633,46.707,30.574,5.481,6.631,5.728
1098,0.777,38.201,27.587,46.698,30.571,5.44,6.631,5.646
1099,0.774,37.77,27.637,46.66,30.56,5.359,6.509,5.564
1100,0.767,37.9,27.489,46.717,30.578,5.561,6.67,5.726
1101,0.767,38.016,27.582,46.698,30.574,5.482,6.631,5.768
1102,0.77,38.056,27.672,46.679,30.578,5.522,6.631,5.606
1103,0.783,37.797,27.587,46.717,30.581,5.482,6.59,5.808
1104,0.784,37.958,27.637,46.727,30.578,5.481,6.631,5.728
1105,0.78,38.046,27.591,46.698,30.574,5.44,6.55,5.646
1106,0.777,38.094,27.676,46.708,30.574,5.521,6.549,5.645
1107,0.79,37.75,27.626,46.698,30.574,5.522,6.59,5.727
1108,0.787,37.861,27.606,46.698,30.564,5.441,6.549,5.605
1109,0.767,37.978,27.587,46.688,30.571,5.399,6.63,5.645
1110,0.787,38.017,27.579,46.736,30.574,5.562,6.672,5.727
1111,0.79,37.691,27.633,46.756,30.585,5.685,6.753,5.768
1112,0.78,37.794,27.606,46.718,30.571,5.483,6.592,5.647
1113,0.8,37.891,27.637,46.727,30.574,5.562,6.631,5.686
1114,0.781,37.613,27.649,46.698,30.571,5.523,6.672,5.727
1115,0.774,37.563,27.63,46.688,30.571,5.441,6.631,5.565
1116,0.774,37.687,27.56,46.679,30.56,5.399,6.509,5.563
1117,0.771,37.813,27.594,46.727,30.574,5.562,6.67,5.685
1118,0.777,37.517,27.626,46.708,30.578,5.523,6.631,5.727
1119,0.78,37.638,27.626,46.717,30.571,5.482,6.631,5.646
1120,0.793,37.755,27.634,46.727,30.578,5.562,6.631,5.727
1121,0.787,37.881,27.638,46.737,30.578,5.482,6.631,5.687
1122,0.774,37.364,27.622,46.708,30.567,5.481,6.55,5.646
1123,0.787,37.493,27.637,46.698,30.564,5.522,6.549,5.564
1124,0.774,37.648,27.638,46.756,30.578,5.522,6.671,5.766
1125,0.774,37.697,27.61,46.708,30.571,5.441,6.55,5.687
1126,0.758,37.343,27.591,46.727,30.574,5.521,6.63,5.687
1127,0.78,37.483,27.665,46.737,30.578,5.563,6.672,5.687
1128,0.777,37.638,27.669,46.756,30.588,5.685,6.753,5.768
1129,0.754,37.64,27.536,46.737,30.574,5.524,6.51,5.647
1130,0.78,37.323,27.633,46.746,30.571,5.563,6.67,5.767
1131,0.777,37.435,27.63,46.727,30.574,5.482,6.55,5.768
1132,0.761,37.532,27.618,46.727,30.571,5.44,6.549,5.647
1133,0.767,37.552,27.571,46.717,30.564,5.359,6.468,5.564
1134,0.78,37.265,27.66,46.727,30.574,5.561,6.548,5.766
1135,0.767,37.406,27.618,46.746,30.581,5.563,6.671,5.768
1136,0.78,37.513,27.622,46.718,30.567,5.441,6.55,5.728
1137,0.774,37.543,27.54,46.756,30.578,5.481,6.671,5.727
1138,0.787,37.198,27.602,46.746,30.574,5.562,6.55,5.727
1139,0.774,37.3,27.583,46.746,30.571,5.441,6.508,5.687
1140,0.767,37.416,27.645,46.727,30.571,5.44,6.549,5.646
1141,0.751,37.225,27.622,46.746,30.571,5.481,6.671,5.808
1142,0.757,37.175,27.556,46.737,30.571,5.44,6.591,5.728
1143,0.761,37.328,27.668,46.765,30.578,5.481,6.671,5.727
1144,0.783,37.435,27.587,46.756,30.581,5.562,6.713,5.809
1145,0.787,37.139,27.61,46.794,30.581,5.563,6.672,5.85
1146,0.774,37.213,27.633,46.747,30.571,5.401,6.631,5.729
1147,0.78,37.367,27.642,46.775,30.578,5.48,6.672,5.809
1148,0.774,37.426,27.669,46.775,30.571,5.522,6.631,5.688
1149,0.761,37.11,27.654,46.747,30.56,5.4,6.59,5.687
1150,0.754,37.232,27.614,46.727,30.564,5.44,6.549,5.727
1151,0.757,37.386,27.602,46.756,30.571,5.481,6.63,5.809
1152,0.761,37.465,27.626,46.785,30.578,5.562,6.712,5.932
1153,0.774,36.928,27.63,46.776,30.571,5.441,6.591,5.811
1154,0.79,37.076,27.606,46.775,30.581,5.521,6.671,5.81
1155,0.777,37.183,27.649,46.775,30.578,5.482,6.55,5.769
1156,0.758,37.242,27.642,46.766,30.571,5.481,6.549,5.687
1157,0.748,37.07,27.603,46.756,30.56,5.4,6.549,5.687
1158,0.754,37.231,27.559,46.775,30.574,5.521,6.63,5.849
1159,0.754,37.348,27.61,46.756,30.571,5.441,6.59,5.688
1160,0.751,37.416,27.68,46.775,30.571,5.399,6.59,5.809
1161,0.754,37.014,27.552,46.785,30.578,5.44,6.671,5.81
1162,0.764,37.164,27.641,46.814,30.592,5.643,6.713,5.891
1163,0.751,37.232,27.575,46.757,30.568,5.442,6.551,5.892
1164,0.757,37.252,27.61,46.794,30.574,5.481,6.59,5.811
1165,0.751,37.108,27.54,46.795,30.574,5.44,6.631,5.85
1166,0.754,37.232,27.578,46.766,30.564,5.359,6.509,5.769
1167,0.757,37.329,27.598,46.756,30.567,5.358,6.467,5.728
1168,0.751,37.042,27.61,46.785,30.574,5.48,6.589,5.85
1169,0.751,36.982,27.676,46.814,30.578,5.603,6.631,5.932
1170,0.757,37.134,27.533,46.824,30.567,5.482,6.468,5.77
1171,0.754,37.232,27.598,46.805,30.578,5.522,6.548,5.85
1172,0.761,36.993,27.645,46.795,30.574,5.482,6.549,5.81
1173,0.757,37.067,27.579,46.795,30.56,5.481,6.508,5.81
1174,0.774,37.193,27.582,46.766,30.571,5.481,6.386,5.688
1175,0.771,37.319,27.61,46.795,30.578,5.562,6.547,5.768
1176,0.751,36.917,27.645,46.776,30.571,5.523,6.468,5.768
1177,0.744,37.067,27.646,46.785,30.574,5.603,6.467,5.85
1178,0.757,37.202,27.622,46.795,30.571,5.645,6.467,5.851
1179,0.757,37.328,27.618,46.852,30.588,5.727,6.548,5.851
1180,0.728,37.023,27.602,46.805,30.571,5.605,6.386,5.769
1181,0.731,37.164,27.657,46.804,30.574,5.686,6.466,5.768
1182,0.734,37.28,27.591,46.814,30.571,5.646,6.467,5.768
1183,0.721,37.339,27.59,46.795,30.564,5.523,6.345,5.809
1184,0.702,37.052,27.625,46.776,30.564,5.522,6.343,5.769
1185,0.731,37.212,27.638,46.833,30.574,5.644,6.384,5.809
1186,0.728,37.329,27.56,46.834,30.574,5.645,6.466,5.972
1187,0.747,37.368,27.586,46.814,30.571,5.605,6.345,5.771
1188,0.751,37.042,27.606,46.833,30.574,5.686,6.466,5.809
1189,0.751,37.173,27.645,46.834,30.578,5.646,6.345,5.81
1190,0.748,37.271,27.579,46.805,30.564,5.564,6.343,5.728
1191,0.741,37.281,27.559,46.795,30.564,5.482,6.303,5.727
1192,0.747,37.128,27.633,46.833,30.578,5.684,6.384,5.89
1193,0.747,37.241,27.602,46.805,30.571,5.646,6.344,5.851
1194,0.751,37.358,27.602,46.929,30.567,5.605,6.384,5.729
1195,0.764,37.253,27.598,46.834,30.571,5.645,6.425,5.809
1196,0.757,37.262,27.68,46.862,30.581,5.727,6.466,5.81
1197,0.735,37.339,27.642,46.843,30.564,5.605,6.345,5.769
1198,0.734,37.445,27.657,46.853,30.564,5.564,6.425,5.768
1199,0.731,37.014,27.548,46.834,30.574,5.604,6.385,5.85
1200,0.725,37.135,27.535,46.824,30.564,5.564,6.425,5.769
1201,0.718,37.251,27.641,46.833,30.571,5.685,6.507,5.809
1202,0.734,37.367,27.56,46.862,30.581,5.646,6.508,5.891
1203,0.738,37.167,27.617,46.882,30.592,5.767,6.63,5.973
1204,0.731,37.271,27.618,46.863,30.578,5.647,6.428,5.811
1205,0.728,37.406,27.673,46.882,30.578,5.686,6.548,5.81
1206,0.725,37.455,27.599,46.863,30.571,5.646,6.468,5.81
1207,0.737,37.005,27.555,46.853,30.571,5.564,6.426,5.728
1208,0.751,37.144,27.559,46.843,30.564,5.563,6.466,5.687
1209,0.761,37.29,27.61,46.862,30.571,5.645,6.629,5.809
1210,0.764,37.339,27.641,46.863,30.581,5.686,6.631,5.891
1211,0.748,37.109,27.61,46.853,30.571,5.687,6.631,5.77
1212,0.741,37.26,27.614,46.872,30.578,5.646,6.712,5.809
1213,0.764,37.358,27.634,46.872,30.567,5.727,6.713,5.81
1214,0.738,37.378,27.602,46.863,30.571,5.605,6.672,5.769
1215,0.731,37.1,27.563,46.843,30.564,5.523,6.631,5.647
1216,0.731,37.27,27.613,46.881,30.578,5.603,6.794,5.808
1217,0.721,37.339,27.602,46.863,30.564,5.604,6.673,5.769
1218,0.744,37.378,27.661,46.863,30.571,5.564,6.713,5.809
1219,0.747,37.1,27.595,46.891,30.585,5.604,6.835,5.81
1220,0.747,37.289,27.641,46.93,30.578,5.686,6.918,5.932
1221,0.734,37.339,27.61,46.882,30.574,5.564,6.715,5.77
1222,0.76,37.244,27.641,46.901,30.571,5.563,6.794,5.809
1223,0.738,37.223,27.587,46.949,30.578,5.563,6.836,5.85
1224,0.715,37.348,27.594,46.883,30.571,5.523,6.755,5.769
1225,0.708,37.445,27.622,46.872,30.571,5.563,6.836,5.809
1226,0.728,37.12,27.637,46.901,30.574,5.604,6.837,5.81
1227,0.728,37.213,27.618,46.92,30.588,5.686,6.918,5.932
1228,0.734,37.319,27.544,46.921,30.574,5.483,6.715,5.73
1229,0.741,37.426,27.57,46.911,30.574,5.562,6.754,5.89
1230,0.741,37.149,27.633,46.911,30.578,5.563,6.673,5.892
1231,0.738,37.251,27.56,46.911,30.571,5.441,6.672,5.77
1232,0.728,37.377,27.59,46.901,30.56,5.359,6.591,5.647
1233,0.747,37.455,27.637,46.92,30.571,5.48,6.753,5.767
1234,0.738,37.091,27.638,46.911,30.574,5.562,6.795,5.768
1235,0.744,37.212,27.579,46.911,30.571,5.523,6.755,5.687
1236,0.738,37.357,27.586,46.93,30.574,5.563,6.836,5.849
1237,0.741,37.445,27.61,46.949,30.578,5.563,6.755,5.81
1238,0.718,37.187,27.587,46.892,30.574,5.441,6.673,5.647
1239,0.721,37.328,27.649,46.911,30.564,5.44,6.672,5.767
1240,0.728,37.445,27.54,46.93,30.578,5.481,6.794,5.768
1241,0.715,37.484,27.598,46.911,30.571,5.4,6.673,5.728
1242,0.711,37.13,27.637,46.921,30.571,5.521,6.794,5.768
1243,0.711,37.27,27.591,46.94,30.574,5.482,6.795,5.891
1244,0.711,37.406,27.594,46.969,30.585,5.644,6.877,6.014
1245,0.718,37.388,27.602,46.94,30.571,5.523,6.715,5.771
1246,0.741,37.215,27.649,46.95,30.574,5.482,6.835,5.809
1247,0.734,37.329,27.63,46.95,30.574,5.522,6.755,5.81
1248,0.725,37.406,27.638,46.921,30.571,5.482,6.714,5.728
1249,0.724,37.263,27.56,46.978,30.564,5.44,6.632,5.727
1250,0.731,37.185,27.621,46.94,30.574,5.521,6.753,5.809
1251,0.734,37.319,27.618,46.959,30.571,5.482,6.836,5.932
1252,0.731,37.397,27.626,47.055,30.571,5.522,6.755,5.77
1253,0.738,36.995,27.618,46.97,30.571,5.522,6.876,5.891
1254,0.747,37.096,27.657,46.969,30.578,5.522,6.837,5.811
1255,0.715,37.174,27.63,46.931,30.564,5.522,6.755,5.81
1256,0.721,37.28,27.509,46.94,30.564,5.441,6.673,5.688
1257,0.718,37.061,27.578,46.969,30.571,5.603,6.875,5.89
1258,0.728,37.164,27.547,46.95,30.571,5.564,6.755,5.77
1259,0.734,37.309,27.629,46.95,30.571,5.563,6.754,5.809
1260,0.734,37.368,27.63,46.959,30.574,5.604,6.795,5.85
1261,0.734,37.11,27.614,46.988,30.585,5.726,6.958,5.973
1262,0.721,37.222,27.602,46.969,30.564,5.524,6.797,5.852
1263,0.741,37.348,27.637,46.969,30.581,5.603,6.836,5.891
1264,0.734,37.407,27.56,46.988,30.571,5.564,6.877,5.851
1265,0.725,37.129,27.59,46.96,30.571,5.523,6.796,5.81
1266,0.721,37.232,27.61,46.94,30.56,5.482,6.714,5.81
1267,0.724,37.396,27.61,46.988,30.571,5.603,6.835,5.81
1268,0.724,37.417,27.653,46.988,30.578,5.645,6.837,5.85
1269,0.737,36.995,27.587,46.96,30.564,5.564,6.714,5.891
1270,0.734,37.144,27.59,47.007,30.574,5.645,6.794,5.933
1271,0.731,37.251,27.606,47.008,30.574,5.605,6.836,5.852
1272,0.725,37.252,27.583,46.989,30.564,5.564,6.714,5.851
1273,0.744,37.022,27.586,46.979,30.564,5.604,6.713,5.729
1274,0.754,37.144,27.594,46.998,30.571,5.686,6.754,5.809
1275,0.722,37.222,27.653,46.979,30.571,5.564,6.754,5.81
1276,0.728,37.214,27.607,47.007,30.571,5.645,6.673,5.81
1277,0.721,37.175,27.548,47.008,30.578,5.727,6.753,5.85
1278,0.728,37.347,27.59,47.075,30.585,5.768,6.836,6.013
1279,0.725,37.387,27.563,47.008,30.568,5.647,6.674,5.812
1280,0.731,36.928,27.617,47.008,30.578,5.808,6.794,5.932
1281,0.725,37.019,27.595,47.027,30.571,5.688,6.673,5.892
1282,0.721,37.125,27.583,46.989,30.564,5.727,6.591,5.811
1283,0.698,37.213,27.61,46.969,30.564,5.646,6.549,5.81
1284,0.708,36.907,27.606,47.026,30.578,5.767,6.752,5.932
1285,0.708,37.047,27.509,47.027,30.574,5.687,6.673,5.892
1286,0.718,37.164,27.593,47.018,30.571,5.687,6.55,5.892
1287,0.724,37.251,27.633,47.027,30.581,5.768,6.63,5.892
1288,0.731,36.869,27.642,47.027,30.578,5.809,6.631,5.851
1289,0.721,36.98,27.626,47.018,30.567,5.728,6.55,5.851
1290,0.724,37.096,27.563,47.123,30.56,5.646,6.549,5.769
1291,0.728,37.164,27.602,47.018,30.567,5.727,6.549,5.931
1292,0.721,36.791,27.602,46.998,30.564,5.687,6.549,5.811
1293,0.728,36.96,27.516,47.027,30.571,5.768,6.63,5.932
1294,0.741,37.096,27.59,47.027,30.574,5.809,6.672,5.892
1295,0.754,37.184,27.645,47.056,30.581,5.891,6.672,6.014
1296,0.728,36.916,27.661,47.018,30.571,5.811,6.55,5.812
1297,0.738,37.076,27.638,47.065,30.571,5.85,6.671,5.891
1298,0.747,37.183,27.606,47.056,30.571,5.769,6.631,5.892
1299,0.721,37.184,27.544,47.018,30.564,5.728,6.509,5.811
1300,0.708,36.772,27.594,47.008,30.564,5.687,6.508,5.81
1301,0.728,36.921,27.622,47.056,30.574,5.809,6.711,5.891
1302,0.708,37.057,27.595,47.075,30.588,5.932,6.713,5.973
1303,0.705,37.011,27.583,47.047,30.568,5.77,6.632,5.933
1304,0.715,36.914,27.657,47.046,30.581,5.85,6.712,5.892
1305,0.721,37.028,27.614,47.066,30.574,5.729,6.713,5.892
1306,0.708,37.135,27.489,47.047,30.564,5.687,6.591,5.851
1307,0.711,36.676,27.589,47.027,30.56,5.646,6.59,5.769
1308,0.721,36.757,27.618,47.056,30.571,5.727,6.712,5.891
1309,0.718,36.912,27.637,47.047,30.574,5.768,6.754,5.892
1310,0.731,37.0,27.622,47.066,30.567,5.809,6.714,5.851
1311,0.734,36.722,27.548,47.085,30.574,5.81,6.794,5.973
1312,0.738,36.873,27.621,47.076,30.574,5.81,6.836,5.893
1313,0.738,36.951,27.602,47.066,30.56,5.647,6.796,5.811
1314,0.738,37.086,27.583,47.085,30.564,5.686,6.714,5.81
1315,0.734,36.714,27.629,47.076,30.574,5.768,6.876,5.891
1316,0.725,36.834,27.61,47.066,30.564,5.728,6.755,5.811
1317,0.718,36.98,27.661,47.075,30.567,5.768,6.795,5.85
1318,0.721,37.029,27.611,47.076,30.578,5.768,6.917,5.891
1319,0.724,36.751,27.559,47.104,30.585,5.85,6.959,5.973
1320,0.715,36.844,27.539,47.085,30.571,5.648,6.756,5.771
1321,0.724,36.999,27.641,47.076,30.578,5.767,6.795,5.891
1322,0.724,37.02,27.575,47.085,30.574,5.768,6.755,5.933
1323,0.702,36.579,27.578,47.066,30.567,5.647,6.673,5.811
1324,0.705,36.699,27.614,47.066,30.567,5.645,6.753,5.85
1325,0.711,36.844,27.641,47.095,30.571,5.727,6.836,5.973
1326,0.721,36.884,27.645,47.114,30.581,5.768,6.837,6.015
1327,0.724,36.702,27.493,47.095,30.578,5.647,6.714,5.893
1328,0.728,36.863,27.558,47.229,30.574,5.767,6.835,5.892
1329,0.738,36.951,27.594,47.096,30.578,5.647,6.796,5.892
1330,0.734,36.827,27.645,47.085,30.564,5.605,6.673,5.811
1331,0.731,36.558,27.595,47.076,30.564,5.482,6.713,5.769
1332,0.725,36.708,27.575,47.123,30.567,5.603,6.876,5.891
1333,0.721,36.796,27.649,47.086,30.574,5.686,6.796,5.933
1334,0.731,36.596,27.591,47.095,30.571,5.605,6.877,5.811
1335,0.741,36.718,27.59,47.114,30.571,5.604,6.837,5.932
1336,0.747,36.854,27.618,47.124,30.581,5.604,6.877,5.892
1337,0.715,36.922,27.614,47.095,30.574,5.564,6.796,5.811
1338,0.724,36.396,27.649,47.104,30.564,5.563,6.795,5.728
1339,0.724,36.515,27.622,47.114,30.571,5.645,6.877,5.85
1340,0.718,36.641,27.595,47.095,30.571,5.605,6.715,5.851
1341,0.731,36.719,27.622,47.114,30.574,5.645,6.835,5.81
1342,0.738,36.499,27.634,47.124,30.578,5.727,6.837,5.85
1343,0.725,36.669,27.614,47.162,30.581,5.809,6.918,5.973
1344,0.721,36.786,27.563,47.143,30.578,5.566,6.756,5.811
1345,0.731,36.854,27.621,47.134,30.581,5.563,6.836,5.81
1346,0.738,36.404,27.614,47.134,30.578,5.563,6.674,5.85
1347,0.734,36.525,27.591,47.105,30.564,5.482,6.631,5.769
1348,0.751,36.631,27.52,47.095,30.557,5.481,6.672,5.768
1349,0.77,36.69,27.609,47.143,30.571,5.562,6.713,5.768
1350,0.77,36.374,27.618,47.134,30.574,5.563,6.713,5.85
1351,0.764,36.524,27.587,47.153,30.564,5.563,6.632,5.81
1352,0.774,36.679,27.582,47.162,30.581,5.604,6.712,5.85
1353,0.793,36.7,27.657,47.143,30.578,5.564,6.632,5.769
1354,0.787,36.412,27.591,47.124,30.571,5.523,6.59,5.768
1355,0.784,36.544,27.524,47.133,30.571,5.482,6.59,5.687
1356,0.797,36.66,27.57,47.134,30.571,5.522,6.712,5.809
1357,0.781,36.633,27.532,47.134,30.564,5.522,6.591,5.728
1358,0.8,36.345,27.594,47.143,30.571,5.563,6.712,5.809
1359,0.807,36.476,27.602,47.153,30.571,5.604,6.713,5.81
1360,0.816,36.612,27.606,47.201,30.588,5.645,6.835,6.013
1361,0.803,36.249,27.559,47.144,30.571,5.523,6.714,5.69
1362,0.813,36.331,27.66,47.143,30.574,5.522,6.713,5.849
1363,0.794,36.457,27.556,47.162,30.571,5.522,6.754,5.851
1364,0.8,36.544,27.59,47.153,30.564,5.441,6.632,5.729
1365,0.8,36.171,27.606,47.124,30.56,5.399,6.631,5.727
1366,0.79,36.35,27.637,47.153,30.574,5.521,6.794,5.85
1367,0.803,36.447,27.657,47.162,30.578,5.563,6.795,5.932
1368,0.826,36.535,27.599,47.163,30.571,5.441,6.673,5.77
1369,0.826,36.152,27.598,47.297,30.574,5.562,6.835,5.809
1370,0.843,36.301,27.563,47.174,30.574,5.482,6.714,5.81
1371,0.839,36.399,27.649,47.153,30.571,5.359,6.713,5.769
1372,0.846,36.448,27.552,47.143,30.564,5.317,6.632,5.687
1373,0.862,36.094,27.598,47.172,30.574,5.358,6.753,5.809
1374,0.862,36.205,27.614,47.144,30.564,5.439,6.714,5.769
1375,0.875,36.369,27.614,47.162,30.574,5.44,6.713,5.809
1376,0.895,36.438,27.559,47.191,30.571,5.44,6.754,5.891
1377,0.892,36.151,27.613,47.22,30.585,5.562,6.836,5.933
1378,0.892,36.244,27.606,47.163,30.571,5.441,6.674,5.77
1379,0.892,36.37,27.602,47.191,30.571,5.399,6.713,5.85
1380,0.886,36.4,27.618,47.182,30.571,5.44,6.713,5.81
1381,0.889,36.055,27.571,47.172,30.564,5.359,6.632,5.769
1382,0.882,36.166,27.602,47.153,30.567,5.317,6.631,5.728
1383,0.905,36.321,27.626,47.191,30.567,5.48,6.794,5.85
1384,0.879,36.457,27.54,47.201,30.574,5.481,6.755,5.932
1385,0.882,36.285,27.566,47.182,30.578,5.359,6.632,5.811
1386,0.908,36.447,27.602,47.211,30.574,5.48,6.672,5.891
1387,0.915,36.535,27.645,47.192,30.571,5.4,6.631,5.851
1388,0.892,35.96,27.646,47.192,30.571,5.318,6.631,5.769
1389,0.879,35.974,27.517,47.163,30.564,5.317,6.55,5.728
1390,0.898,36.137,27.597,47.211,30.567,5.398,6.63,5.89
1391,0.882,36.225,27.594,47.201,30.571,5.358,6.631,5.811
1392,0.885,35.928,27.579,47.201,30.571,5.439,6.59,5.81
1393,0.898,36.069,27.551,47.211,30.578,5.399,6.671,5.891
1394,0.892,36.243,27.609,47.24,30.578,5.48,6.713,5.851
1395,0.879,36.264,27.633,47.192,30.564,5.359,6.672,5.688
1396,0.872,35.938,27.595,47.211,30.571,5.317,6.631,5.809
1397,0.853,36.069,27.559,47.201,30.571,5.317,6.672,5.769
1398,0.833,36.205,27.531,47.259,30.567,5.317,6.591,5.768
1399,0.82,36.273,27.605,47.202,30.564,5.358,6.671,5.809
1400,0.826,35.986,27.622,47.22,30.571,5.399,6.713,5.891
1401,0.833,36.156,27.626,47.249,30.585,5.48,6.794,6.014
1402,0.807,36.254,27.563,47.221,30.571,5.359,6.633,5.812
1403,0.816,36.331,27.641,47.221,30.574,5.399,6.672,5.891
1404,0.813,35.872,27.571,47.211,30.578,5.358,6.631,5.892
1405,0.797,36.011,27.575,47.211,30.564,5.277,6.631,5.892
1406,0.8,36.118,27.555,47.192,30.564,5.195,6.55,5.892
1407,0.826,36.186,27.621,47.24,30.571,5.316,6.671,5.892
1408,0.8,35.937,27.637,47.25,30.581,5.439,6.672,6.014
1409,0.787,36.079,27.618,47.211,30.567,5.277,6.631,5.893
1410,0.79,36.186,27.614,47.345,30.581,5.316,6.631,5.973
1411,0.787,36.321,27.579,47.251,30.574,5.317,6.631,5.893
1412,0.774,35.9,27.614,47.221,30.56,5.317,6.55,5.892
1413,0.764,36.011,27.555,47.211,30.564,5.236,6.508,5.811
1414,0.754,36.166,27.594,47.24,30.571,5.397,6.549,5.972
1415,0.748,35.784,27.602,47.211,30.56,5.277,6.508,5.933
1416,0.744,35.838,27.637,47.249,30.574,5.316,6.549,5.933
1417,0.741,35.992,27.618,47.259,30.574,5.317,6.63,6.014
1418,0.731,36.099,27.571,47.269,30.585,5.48,6.712,6.096
1419,0.699,35.649,27.563,47.25,30.571,5.318,6.51,5.975
1420,0.711,35.817,27.613,47.25,30.574,5.317,6.589,5.933
1421,0.695,35.915,27.591,47.24,30.574,5.317,6.671,5.974
1422,0.698,36.021,27.59,47.25,30.564,5.236,6.509,5.893
1423,0.688,35.725,27.579,47.221,30.557,5.194,6.508,5.973
1424,0.692,35.914,27.641,47.269,30.574,5.316,6.63,6.015
1425,0.685,36.021,27.653,47.269,30.574,5.398,6.794,6.096
1426,0.695,36.089,27.532,47.26,30.574,5.318,6.551,6.016
1427,0.692,35.764,27.582,47.279,30.574,5.398,6.712,6.015
1428,0.682,35.904,27.532,47.26,30.567,5.318,6.632,5.974
1429,0.669,36.011,27.617,47.25,30.564,5.317,6.59,5.933
1430,0.669,36.051,27.567,47.24,30.564,5.195,6.509,5.933
1431,0.675,35.562,27.598,47.269,30.574,5.397,6.63,6.014
1432,0.685,35.701,27.59,47.25,30.567,5.277,6.631,5.974
1433,0.688,35.808,27.633,47.269,30.571,5.357,6.55,5.974
1434,0.695,35.876,27.501,47.288,30.571,5.399,6.712,6.015
1435,0.711,35.752,27.605,47.288,30.581,5.48,6.672,6.015
1436,0.689,35.808,27.594,47.26,30.571,5.318,6.631,6.015
1437,0.695,35.962,27.645,47.279,30.571,5.398,6.59,5.974
1438,0.682,36.165,27.638,47.279,30.574,5.358,6.671,6.015
1439,0.685,35.65,27.556,47.26,30.571,5.317,6.509,5.974
1440,0.675,35.779,27.574,47.279,30.574,5.358,6.63,5.974
1441,0.672,35.914,27.586,47.279,30.574,5.399,6.672,6.015
1442,0.675,35.676,27.633,47.317,30.578,5.562,6.713,6.137
1443,0.665,35.693,27.583,47.27,30.567,5.401,6.551,6.057
1444,0.659,35.837,27.579,47.307,30.578,5.44,6.59,6.097
1445,0.656,35.915,27.633,47.298,30.571,5.481,6.549,6.016
1446,0.675,35.57,27.595,47.269,30.564,5.359,6.427,5.934
1447,0.678,35.711,27.536,47.26,30.564,5.317,6.426,5.933
1448,0.682,35.856,27.477,47.298,30.571,5.358,6.588,6.014
1449,0.685,35.944,27.581,47.298,30.574,5.521,6.59,6.096
1450,0.701,35.513,27.614,47.279,30.571,5.4,6.509,6.056
1451,0.708,35.681,27.536,47.317,30.574,5.48,6.63,6.056
1452,0.692,35.817,27.598,47.318,30.574,5.522,6.59,6.015
1453,0.685,35.867,27.633,47.289,30.557,5.4,6.468,5.974
1454,0.695,35.503,27.622,47.279,30.571,5.318,6.426,5.893
1455,0.701,35.672,27.513,47.317,30.571,5.398,6.548,6.054
1456,0.688,35.789,27.57,47.279,30.574,5.521,6.63,6.015
1457,0.688,35.847,27.575,47.307,30.571,5.441,6.509,5.974
1458,0.675,35.512,27.629,47.308,30.578,5.521,6.589,6.137
1459,0.685,35.681,27.645,47.327,30.581,5.603,6.631,6.057
1460,0.688,35.76,27.567,47.298,30.567,5.401,6.509,5.975
1461,0.679,35.809,27.571,47.298,30.571,5.44,6.508,5.933
1462,0.678,35.483,27.617,47.298,30.574,5.481,6.589,6.055
1463,0.669,35.614,27.548,47.298,30.571,5.4,6.509,5.934
1464,0.662,35.75,27.531,47.298,30.564,5.521,6.549,6.014
1465,0.682,36.067,27.598,47.336,30.571,5.482,6.59,6.056
1466,0.688,35.486,27.626,47.366,30.581,5.603,6.712,6.137
1467,0.698,35.576,27.653,47.308,30.571,5.401,6.551,5.935
1468,0.685,35.711,27.65,47.337,30.578,5.521,6.508,6.014
1469,0.685,35.444,27.505,47.337,30.567,5.441,6.549,6.015
1470,0.685,35.479,27.601,47.308,30.571,5.359,6.386,5.934
1471,0.679,35.604,27.587,47.279,30.56,5.317,6.344,5.933
1472,0.678,35.721,27.551,47.346,30.571,5.48,6.466,5.974
1473,0.701,35.29,27.539,47.327,30.571,5.481,6.386,5.933
1474,0.721,35.401,27.613,47.318,30.571,5.44,6.425,5.933
1475,0.711,35.556,27.594,47.337,30.571,5.481,6.466,6.014
1476,0.708,35.663,27.555,47.346,30.574,5.562,6.467,6.015
1477,0.698,35.414,27.555,47.366,30.567,5.401,6.304,5.893
1478,0.698,35.556,27.594,47.328,30.578,5.399,6.302,5.851
1479,0.685,35.682,27.645,47.318,30.578,5.521,6.384,5.932
1480,0.685,35.741,27.618,47.308,30.567,5.441,6.385,5.811
1481,0.695,35.319,27.602,47.327,30.574,5.481,6.385,5.932
1482,0.701,35.488,27.583,47.356,30.581,5.522,6.425,5.974
1483,0.695,35.624,27.621,47.366,30.578,5.644,6.629,6.096
1484,0.682,35.663,27.532,47.337,30.561,5.483,6.387,5.853
1485,0.698,35.434,27.555,47.337,30.578,5.562,6.425,6.013
1486,0.701,35.546,27.602,47.337,30.571,5.523,6.507,5.893
1487,0.718,35.643,27.61,47.308,30.564,5.441,6.427,5.811
1488,0.715,35.683,27.622,47.308,30.564,5.44,6.304,5.81
1489,0.721,35.29,27.614,47.346,30.574,5.562,6.506,5.972
1490,0.705,35.42,27.602,47.337,30.571,5.604,6.508,5.933
1491,0.711,35.556,27.59,47.327,30.567,5.564,6.427,5.933
1492,0.715,35.854,27.586,47.356,30.571,5.645,6.588,6.055
1493,0.731,35.397,27.559,47.375,30.578,5.605,6.509,5.975
1494,0.721,35.488,27.571,47.318,30.564,5.564,6.508,5.852
1495,0.718,35.614,27.625,47.318,30.564,5.482,6.508,5.851
1496,0.718,35.337,27.598,47.356,30.571,5.522,6.589,5.891
1497,0.708,35.354,27.544,47.327,30.56,5.522,6.509,5.933
1498,0.711,35.478,27.531,47.337,30.567,5.563,6.549,5.892
1499,0.715,35.604,27.562,47.366,30.578,5.523,6.63,5.933
1500,0.705,35.318,27.653,47.385,30.585,5.725,6.672,6.014
1501,0.708,35.411,27.568,47.347,30.571,5.565,6.509,5.893
1502,0.711,35.556,27.586,47.366,30.574,5.645,6.549,5.811
1503,0.692,35.644,27.606,47.356,30.571,5.564,6.59,5.891
1504,0.685,35.184,27.614,47.337,30.567,5.523,6.549,5.811
1505,0.679,35.333,27.524,47.346,30.571,5.603,6.549,5.891
1506,0.695,35.478,27.574,47.481,30.574,5.645,6.59,6.014
1507,0.688,35.585,27.582,47.415,30.581,5.767,6.59,6.015
1508,0.701,35.241,27.579,47.366,30.567,5.606,6.387,5.893
1509,0.714,35.41,27.633,47.385,30.571,5.726,6.588,6.014
1510,0.744,35.517,27.575,47.376,30.574,5.646,6.509,5.893
1511,0.77,35.576,27.586,47.347,30.564,5.605,6.345,5.77
1512,0.796,35.222,27.598,47.327,30.564,5.523,6.384,5.85
1513,0.826,35.391,27.633,47.375,30.581,5.725,6.385,5.932
1514,0.836,35.508,27.567,47.376,30.571,5.727,6.507,5.974
1515,0.859,35.557,27.59,47.385,30.571,5.646,6.386,5.893
1516,0.888,35.25,27.633,47.376,30.578,5.727,6.385,5.973
1517,0.902,35.362,27.614,47.366,30.574,5.646,6.466,5.893
1518,0.947,35.479,27.606,47.375,30.567,5.645,6.345,5.851
1519,0.984,35.518,27.516,47.366,30.564,5.564,6.343,5.769
1520,1.023,35.25,27.57,47.375,30.574,5.685,6.425,5.931
1521,1.056,35.381,27.602,47.356,30.564,5.727,6.385,5.811
1522,1.092,35.498,27.551,47.385,30.574,5.687,6.344,5.891
1523,1.105,35.288,27.555,47.385,30.578,5.768,6.425,5.973
1524,1.164,35.315,27.625,47.414,30.578,5.85,6.466,6.055
1525,1.194,35.411,27.634,47.376,30.571,5.607,6.386,5.975
1526,1.224,35.537,27.587,47.385,30.574,5.726,6.466,5.974
1527,1.295,35.087,27.508,47.385,30.567,5.687,6.426,5.974
1528,1.332,35.188,27.535,47.357,30.564,5.646,6.385,5.933
1529,1.43,35.304,27.574,47.375,30.567,5.686,6.385,6.014
1530,1.528,35.42,27.625,47.385,30.571,5.727,6.344,6.056
1531,1.549,35.144,27.599,47.414,30.578,5.85,6.547,6.178
1532,1.585,35.246,27.587,47.405,30.571,5.729,6.427,6.057
1533,1.628,35.391,27.614,47.385,30.571,5.768,6.466,6.056
1534,1.703,35.46,27.575,47.395,30.571,5.728,6.426,6.097
1535,1.759,35.029,27.555,47.385,30.571,5.646,6.426,6.016
1536,1.808,35.149,27.567,47.366,30.56,5.645,6.385,6.056
1537,1.848,35.313,27.594,47.395,30.574,5.686,6.466,6.219
1538,1.884,35.373,27.633,47.395,30.571,5.727,6.507,6.18
1539,1.946,35.172,27.638,47.376,30.578,5.687,6.549,6.098
1540,1.969,35.342,27.583,47.395,30.578,5.768,6.549,6.26
1541,2.002,35.478,27.606,47.414,30.578,5.768,6.508,6.221
1542,1.977,35.47,27.61,47.386,30.567,5.647,6.467,6.302
1543,1.924,35.154,27.532,47.404,30.571,5.686,6.386,6.302
1544,1.93,35.285,27.551,47.395,30.571,5.727,6.547,6.465
1545,1.839,35.382,27.621,47.404,30.564,5.687,6.468,6.507
1546,1.806,35.402,27.583,47.395,30.571,5.727,6.507,6.63
1547,1.721,35.143,27.594,47.414,30.574,5.809,6.589,6.672
1548,1.609,35.304,27.567,47.443,30.581,5.769,6.671,6.875
1549,1.498,35.382,27.52,47.376,30.571,5.687,6.509,6.837
1550,1.379,35.124,27.601,47.433,30.574,5.646,6.589,7.04
1551,1.235,35.083,27.567,47.405,30.571,5.686,6.631,7.042
1552,1.081,35.217,27.578,47.366,30.564,5.727,6.55,7.123
1553,0.952,35.314,27.579,47.375,30.571,5.646,6.549,7.287
1554,0.841,35.056,27.621,47.395,30.574,5.686,6.549,7.369
1555,0.735,35.178,27.595,47.424,30.578,5.768,6.712,7.614
1556,0.627,35.304,27.458,47.395,30.571,5.687,6.632,7.535
1557,0.541,35.411,27.55,47.433,30.571,5.687,6.631,7.697
1558,0.456,35.028,27.598,47.414,30.571,5.605,6.55,7.78
1559,0.341,35.149,27.618,47.386,30.567,5.645,6.549,7.781
1560,0.249,35.256,27.598,47.376,30.56,5.564,6.468,7.781
1561,0.177,35.372,27.571,47.414,30.571,5.604,6.629,7.984
1562,0.14,35.133,27.614,47.414,30.578,5.686,6.631,8.108
1563,0.117,35.275,27.591,47.433,30.571,5.646,6.631,8.109
1564,0.117,35.43,27.462,47.443,30.574,5.686,6.631,8.15
1565,0.117,35.498,27.566,47.453,30.574,5.646,6.631,8.232
1566,0.143,34.991,27.571,47.415,30.564,5.564,6.509,8.111
1567,0.162,35.149,27.633,47.414,30.571,5.563,6.549,8.15
1568,0.179,35.285,27.602,47.433,30.564,5.563,6.63,8.273
1569,0.16,35.305,27.598,47.424,30.564,5.563,6.55,8.314
1570,0.169,35.075,27.579,47.434,30.571,5.523,6.59,8.437
1571,0.195,35.217,27.676,47.434,30.574,5.603,6.631,8.56
1572,0.202,35.333,27.576,47.472,30.585,5.686,6.753,8.764
1573,0.248,35.334,27.567,47.434,30.571,5.483,6.673,8.767
1574,0.284,35.143,27.598,47.443,30.578,5.603,6.672,8.929
1575,0.304,35.256,27.579,47.453,30.571,5.523,6.631,9.093
1576,0.356,35.353,27.582,47.415,30.567,5.482,6.55,9.217
1577,0.405,35.181,27.512,47.414,30.557,5.44,6.549,9.34
1578,0.448,35.199,27.437,47.472,30.574,5.562,6.712,9.586
1579,0.468,35.352,27.565,47.453,30.581,5.604,6.754,9.873
1580,0.504,35.45,27.629,47.443,30.571,5.482,6.632,9.876
1581,0.543,34.981,27.513,47.453,30.574,5.522,6.794,10.079
1582,0.563,35.082,27.566,47.453,30.574,5.482,6.755,10.284
1583,0.573,35.198,27.614,47.453,30.564,5.522,6.754,10.286
1584,0.609,35.276,27.579,47.415,30.557,5.4,6.754,10.327
1585,0.658,35.046,27.477,47.472,30.571,5.48,6.836,10.571
1586,0.701,35.178,27.542,47.463,30.56,5.481,6.837,10.655
1587,0.737,35.314,27.586,47.472,30.571,5.522,6.837,10.656
1588,0.757,35.401,27.582,47.472,30.574,5.644,6.877,10.737
1589,0.78,34.923,27.625,47.492,30.585,5.605,6.959,10.779
1590,0.774,35.023,27.599,47.559,30.571,5.482,6.797,10.657
1591,0.79,35.178,27.559,47.483,30.564,5.481,6.795,10.574
1592,0.8,35.237,27.637,47.482,30.574,5.562,6.917,10.655
1593,0.797,34.979,27.536,47.463,30.56,5.401,6.796,10.534
1594,0.797,35.11,27.551,47.472,30.571,5.44,6.958,10.492
1595,0.816,35.275,27.609,47.492,30.578,5.521,6.96,10.532
1596,0.813,35.324,27.637,47.53,30.578,5.685,7.082,10.736
1597,0.807,34.999,27.626,47.473,30.571,5.483,7.002,10.413
1598,0.807,35.158,27.563,47.511,30.578,5.562,7.041,10.531
1599,0.79,35.275,27.606,47.501,30.574,5.482,7.042,10.451
1600,0.8,35.296,27.563,47.482,30.56,5.481,6.96,10.328
1601,0.794,35.008,27.602,47.463,30.557,5.359,6.96,10.327
1602,0.793,35.206,27.575,47.511,30.571,5.602,7.0,10.368
1603,0.803,35.304,27.582,47.511,30.578,5.564,7.123,10.368
1604,0.807,35.027,27.633,47.511,30.571,5.482,7.002,10.287
1605,0.82,34.967,27.595,47.511,30.571,5.481,7.041,10.245
1606,0.83,35.081,27.571,47.521,30.571,5.522,7.082,10.245
1607,0.823,35.179,27.578,47.597,30.564,5.482,7.002,10.042
1608,0.833,34.834,27.602,47.502,30.56,5.481,7.041,9.999
1609,0.833,34.965,27.602,47.53,30.571,5.481,7.082,10.08
1610,0.82,35.062,27.571,47.521,30.571,5.481,7.002,9.918
1611,0.846,35.188,27.547,47.521,30.574,5.481,6.96,9.957
1612,0.849,34.969,27.598,47.54,30.574,5.522,7.082,9.917
1613,0.853,35.101,27.606,47.55,30.574,5.563,7.164,9.916
1614,0.833,35.207,27.516,47.54,30.564,5.482,6.962,9.632
1615,0.849,35.314,27.566,47.531,30.574,5.522,6.96,9.67
1616,0.846,34.893,27.602,47.53,30.571,5.563,7.041,9.67
1617,0.833,35.004,27.626,47.54,30.571,5.441,7.001,9.548
1618,0.836,35.139,27.638,47.531,30.567,5.481,7.001,9.547
1619,0.856,35.208,27.591,47.559,30.571,5.562,7.001,9.547
1620,0.846,34.998,27.547,47.579,30.585,5.645,7.204,9.506
1621,0.843,35.12,27.609,47.531,30.571,5.523,7.043,9.262
1622,0.839,35.246,27.552,47.569,30.574,5.603,7.082,9.381
1623,0.839,35.305,27.555,47.569,30.578,5.564,7.042,9.261
1624,0.843,35.248,27.578,47.54,30.557,5.523,6.96,9.097
1625,0.833,35.353,27.602,47.521,30.564,5.441,6.919,9.014
1626,0.852,35.478,27.587,47.559,30.574,5.562,7.081,9.094
1627,0.84,35.499,27.555,47.579,30.574,5.563,7.123,9.054
1628,0.839,34.789,27.508,47.569,30.574,5.523,7.043,8.81
1629,0.859,34.945,27.562,47.569,30.571,5.644,7.123,8.93
1630,0.869,35.081,27.629,47.588,30.574,5.605,7.124,8.768
1631,0.846,34.958,27.583,47.569,30.564,5.523,7.083,8.645
1632,0.869,34.947,27.559,47.569,30.564,5.482,6.961,8.562
1633,0.863,35.052,27.61,47.569,30.571,5.603,7.163,8.602
1634,0.866,35.14,27.571,47.56,30.567,5.482,7.084,8.44
1635,0.876,34.824,27.465,47.588,30.571,5.562,7.123,8.397
1636,0.879,34.936,27.57,47.579,30.581,5.685,7.287,8.397
1637,0.885,35.091,27.602,47.627,30.581,5.687,7.207,8.438
1638,0.859,35.169,27.633,47.579,30.564,5.605,7.125,8.235
1639,0.869,34.892,27.649,47.579,30.581,5.604,7.124,8.233
1640,0.869,35.052,27.653,47.675,30.564,5.564,7.083,8.151
1641,0.853,35.169,27.544,47.551,30.571,5.482,7.002,8.028
1642,0.849,35.208,27.645,47.55,30.564,5.522,7.041,8.027
1643,0.869,34.748,27.521,47.598,30.574,5.522,7.164,8.109
1644,0.882,34.907,27.59,47.627,30.578,5.603,7.165,8.069
1645,0.876,35.004,27.59,47.57,30.571,5.523,7.002,7.865
1646,0.859,35.082,27.629,47.588,30.578,5.603,7.082,7.944
1647,0.866,34.872,27.61,47.56,30.574,5.523,6.961,7.864
1648,0.872,35.013,27.552,47.569,30.564,5.482,6.96,7.66
1649,0.882,35.101,27.586,47.55,30.557,5.318,6.838,7.698
1650,0.898,35.179,27.543,47.598,30.574,5.52,6.958,7.78
1651,0.892,34.729,27.613,47.579,30.564,5.522,6.96,7.7
1652,0.886,34.887,27.587,47.579,30.574,5.522,6.878,7.577
1653,0.911,35.014,27.586,47.588,30.574,5.603,6.959,7.575
1654,0.912,35.063,27.641,47.617,30.581,5.645,6.96,7.535
1655,0.902,34.814,27.567,47.589,30.571,5.442,6.838,7.412
1656,0.895,34.965,27.453,47.588,30.571,5.44,6.837,7.411
1657,0.905,35.091,27.546,47.617,30.571,5.521,6.877,7.411
1658,0.882,34.901,27.57,47.589,30.564,5.36,6.715,7.371
1659,0.889,34.764,27.614,47.598,30.567,5.48,6.794,7.37
1660,0.902,34.897,27.618,47.627,30.574,5.522,6.795,7.37
1661,0.915,35.042,27.61,47.618,30.581,5.644,6.877,7.37
1662,0.879,34.689,27.579,47.598,30.561,5.483,6.633,7.167
1663,0.892,34.81,27.614,47.617,30.578,5.481,6.794,7.328
1664,0.895,34.946,27.575,47.618,30.578,5.481,6.673,7.289
1665,0.892,35.033,27.547,47.598,30.564,5.4,6.591,7.166
1666,0.889,34.67,27.578,47.579,30.557,5.358,6.509,7.084
1667,0.899,34.867,27.598,47.617,30.571,5.439,6.63,7.205
1668,0.892,34.965,27.641,47.608,30.571,5.481,6.631,7.125
1669,0.899,35.034,27.564,47.589,30.571,5.4,6.631,7.083
1670,0.912,34.622,27.633,47.627,30.574,5.48,6.631,7.123
1671,0.925,34.79,27.567,47.618,30.574,5.44,6.55,7.002
1672,0.915,34.869,27.598,47.598,30.567,5.359,6.549,6.96
1673,0.922,34.937,27.555,47.608,30.56,5.317,6.549,6.838
1674,0.925,34.707,27.59,47.608,30.571,5.398,6.549,6.958
1675,0.925,34.82,27.618,47.608,30.564,5.358,6.508,6.838
1676,0.925,34.965,27.606,47.617,30.571,5.399,6.508,6.877
1677,0.928,35.014,27.528,47.627,30.571,5.48,6.549,7.0
1678,0.928,34.66,27.434,47.656,30.592,5.562,6.59,7.001
1679,0.935,34.752,27.558,47.618,30.568,5.441,6.468,6.838
1680,0.931,34.888,27.606,47.627,30.574,5.481,6.467,6.918
1681,0.925,34.908,27.559,47.627,30.564,5.359,6.426,6.796
1682,0.941,34.621,27.539,47.608,30.567,5.358,6.304,6.714
1683,0.919,34.733,27.613,47.598,30.564,5.317,6.343,6.713
1684,0.925,34.868,27.606,47.617,30.571,5.439,6.425,6.835
1685,0.935,35.052,27.536,47.646,30.571,5.481,6.466,6.837
1686,0.931,35.13,27.559,47.627,30.571,5.359,6.386,6.714
1687,0.948,35.256,27.567,47.637,30.578,5.48,6.425,6.754
1688,0.958,35.362,27.614,47.637,30.581,5.4,6.426,6.673
1689,0.941,34.376,27.618,47.618,30.567,5.44,6.304,6.591
1690,0.951,34.404,27.548,47.627,30.564,5.318,6.262,6.549
1691,0.967,34.568,27.543,47.646,30.574,5.358,6.424,6.712
1692,0.971,34.636,27.605,47.608,30.567,5.317,6.304,6.551
1693,0.984,34.541,27.516,47.617,30.571,5.358,6.343,6.63
1694,1.0,34.694,27.57,47.618,30.574,5.439,6.303,6.672
1695,0.994,34.858,27.61,47.637,30.588,5.603,6.465,6.672
1696,0.968,34.908,27.641,47.589,30.564,5.36,6.264,6.591
1697,0.977,34.448,27.63,47.617,30.567,5.358,6.302,6.59
1698,0.971,34.578,27.61,47.608,30.571,5.399,6.302,6.549
1699,0.961,34.684,27.454,47.627,30.564,5.358,6.262,6.427
1700,0.958,34.762,27.577,47.589,30.564,5.399,6.221,6.507
1701,0.961,34.475,27.606,47.608,30.574,5.44,6.342,6.589
1702,0.961,34.626,27.598,47.723,30.581,5.562,6.466,6.712
1703,0.958,34.752,27.567,47.609,30.567,5.36,6.223,6.551
1704,0.961,34.811,27.633,47.627,30.574,5.439,6.342,6.59
1705,0.968,34.447,27.602,47.618,30.571,5.399,6.262,6.468
1706,0.964,34.578,27.512,47.598,30.571,5.399,6.139,6.426
1707,0.968,34.694,27.551,47.684,30.56,5.318,6.26,6.426
1708,1.007,34.762,27.594,47.609,30.574,5.439,6.302,6.426
1709,1.017,34.6,27.641,47.617,30.574,5.44,6.384,6.466
1710,1.017,34.752,27.622,47.608,30.571,5.399,6.303,6.426
1711,1.01,34.878,27.595,47.608,30.571,5.44,6.425,6.507
1712,1.01,34.716,27.571,47.608,30.571,5.481,6.344,6.467
1713,1.02,34.369,27.61,47.579,30.567,5.44,6.303,6.345
1714,1.02,34.491,27.497,47.569,30.557,5.318,6.262,6.303
1715,1.03,34.636,27.57,47.607,30.574,5.439,6.465,6.384
1716,1.024,34.484,27.578,47.589,30.564,5.44,6.386,6.385
1717,1.017,34.588,27.637,47.588,30.571,5.44,6.385,6.344
1718,1.017,34.723,27.661,47.617,30.571,5.44,6.466,6.384
1719,1.017,34.839,27.591,47.618,30.578,5.399,6.426,6.344
1720,1.014,34.39,27.583,47.579,30.567,5.358,6.385,6.303
1721,1.023,34.539,27.571,47.588,30.564,5.358,6.385,6.18
1722,1.033,34.674,27.586,47.608,30.574,5.439,6.547,6.301
1723,1.007,34.772,27.543,47.579,30.571,5.359,6.508,6.302
1724,1.007,34.437,27.594,47.598,30.574,5.399,6.589,6.343
1725,1.023,34.597,27.594,47.598,30.574,5.44,6.549,6.343
1726,1.049,34.761,27.606,47.627,30.581,5.562,6.63,6.425
1727,1.04,34.792,27.524,47.579,30.571,5.319,6.55,6.222
1728,1.04,34.37,27.492,47.617,30.571,5.358,6.549,6.261
1729,1.046,34.529,27.535,47.598,30.574,5.521,6.549,6.343
1730,1.053,34.617,27.633,47.569,30.557,5.36,6.468,6.221
1731,1.043,34.675,27.54,47.579,30.564,5.399,6.507,6.22
1732,1.082,34.484,27.539,47.617,30.571,5.44,6.63,6.261
1733,1.079,34.626,27.637,47.608,30.581,5.562,6.712,6.384
1734,1.06,34.733,27.591,47.589,30.564,5.401,6.551,6.141
1735,1.05,34.791,27.571,47.598,30.571,5.44,6.63,6.301
1736,1.069,34.456,27.543,47.569,30.571,5.44,6.631,6.221
1737,1.053,34.597,27.59,47.56,30.571,5.399,6.59,6.18
1738,1.06,34.704,27.586,47.559,30.557,5.318,6.509,6.057
1739,1.069,34.724,27.618,47.579,30.571,5.48,6.711,6.178
1740,1.066,34.475,27.602,47.598,30.571,5.44,6.672,6.22
1741,1.079,34.626,27.571,47.569,30.571,5.481,6.672,6.18
1742,1.076,34.733,27.621,47.588,30.571,5.481,6.794,6.22
1743,1.089,34.485,27.54,47.617,30.581,5.603,6.836,6.342
1744,1.07,34.511,27.563,47.589,30.571,5.482,6.755,6.1
1745,1.06,34.674,27.586,47.588,30.571,5.44,6.795,6.178
1746,1.086,34.753,27.637,47.598,30.574,5.481,6.836,6.179
1747,1.089,34.466,27.587,47.569,30.571,5.4,6.714,6.139
1748,1.073,34.597,27.559,47.55,30.564,5.44,6.794,6.179
1749,1.089,34.761,27.535,47.588,30.574,5.481,6.836,6.22
1750,1.092,34.859,27.582,47.598,30.578,5.522,6.877,6.22
1751,1.089,34.38,27.602,47.569,30.571,5.482,6.837,6.098
1752,1.102,34.548,27.579,47.607,30.574,5.522,6.958,6.178
1753,1.096,34.675,27.582,47.57,30.574,5.4,6.797,6.139
1754,1.092,34.733,27.614,47.55,30.567,5.44,6.795,6.138
1755,1.089,34.504,27.571,47.55,30.557,5.318,6.755,6.016
1756,1.102,34.674,27.489,47.569,30.571,5.48,6.876,6.178
1757,1.089,34.8,27.546,47.569,30.571,5.522,6.837,6.139
1758,1.099,34.85,27.578,47.569,30.567,5.522,6.837,6.098
1759,1.102,34.658,27.602,47.579,30.571,5.522,6.958,6.138
1760,1.115,34.81,27.649,47.608,30.585,5.522,6.919,6.138
1761,1.083,34.917,27.56,47.56,30.564,5.441,6.837,6.057
1762,1.092,34.966,27.582,47.579,30.571,5.44,6.877,6.097
1763,1.089,34.794,27.621,47.579,30.574,5.481,6.918,6.097
1764,1.096,34.926,27.516,47.55,30.571,5.44,6.959,6.097
1765,1.115,35.052,27.574,47.579,30.571,5.481,6.96,6.056
1766,1.112,35.236,27.59,47.588,30.578,5.481,6.96,6.097
1767,1.119,35.084,27.645,47.588,30.585,5.644,7.082,6.219
1768,1.106,35.169,27.614,47.56,30.571,5.442,6.961,6.017
1769,1.109,35.266,27.634,47.579,30.574,5.521,7.0,6.096
1770,1.109,35.084,27.571,47.569,30.578,5.563,6.96,6.097
1771,1.109,35.131,27.602,47.531,30.567,5.441,6.797,6.016
1772,1.096,35.237,27.536,47.521,30.564,5.359,6.836,6.015
1773,1.122,35.381,27.559,47.569,30.574,5.521,6.958,6.096
1774,1.112,35.229,27.567,47.56,30.574,5.563,6.919,6.138
1775,1.119,35.372,27.606,47.559,30.567,5.482,6.796,6.016
1776,1.122,35.488,27.606,47.559,30.578,5.522,6.958,6.096
1777,1.119,35.585,27.516,47.588,30.574,5.522,6.797,6.056
1778,1.112,35.529,27.445,47.569,30.564,5.4,6.795,5.975
1779,1.115,35.662,27.526,47.569,30.564,5.48,6.795,5.974
1780,1.102,35.788,27.648,47.54,30.571,5.522,6.877,5.974
1781,1.093,35.847,27.517,47.55,30.567,5.4,6.755,5.974
1782,1.083,35.905,27.57,47.55,30.567,5.562,6.714,6.015
1783,1.086,36.05,27.61,47.579,30.571,5.482,6.835,6.096
1784,1.099,36.205,27.598,47.588,30.578,5.562,6.877,6.097
1785,1.079,36.225,27.532,47.569,30.571,5.441,6.755,6.016
1786,1.089,36.13,27.57,47.579,30.574,5.481,6.836,5.974
1787,1.079,36.244,27.598,47.55,30.567,5.4,6.714,6.015
1788,1.076,36.341,27.59,47.54,30.564,5.358,6.672,5.934
1789,1.07,36.361,27.618,47.54,30.567,5.399,6.672,5.933
1790,1.095,36.447,27.618,47.617,30.571,5.48,6.794,6.014
1791,1.092,36.602,27.579,47.579,30.581,5.562,6.795,6.096
1792,1.083,36.69,27.606,47.541,30.578,5.401,6.633,5.975
1793,1.089,37.112,27.505,47.569,30.571,5.562,6.753,6.096
1794,1.083,37.193,27.539,47.531,30.571,5.482,6.632,6.056
1795,1.063,37.29,27.574,47.54,30.564,5.4,6.631,6.097
1796,1.066,37.387,27.614,47.531,30.557,5.358,6.59,5.894
1797,1.069,36.793,27.614,47.559,30.574,5.48,6.671,6.054
1798,1.063,36.768,27.567,47.55,30.571,5.44,6.631,6.056
1799,1.034,36.902,27.598,47.559,30.578,5.481,6.631,6.015
1800,1.04,36.999,27.587,47.559,30.574,5.481,6.672,6.056
1801,1.056,37.259,27.618,47.559,30.564,5.481,6.631,5.975
1802,1.03,37.396,27.567,47.55,30.571,5.359,6.55,5.893
1803,1.014,37.522,27.571,47.531,30.564,5.358,6.468,5.933
1804,1.014,37.571,27.594,47.559,30.578,5.48,6.629,6.014
1805,1.02,37.39,27.563,47.54,30.567,5.4,6.509,6.015
1806,1.017,37.541,27.571,47.578,30.564,5.399,6.508,6.015
1807,1.014,37.648,27.52,47.56,30.578,5.521,6.589,6.056
1808,1.033,37.755,27.605,47.579,30.581,5.522,6.59,6.056
1809,1.001,37.737,27.587,47.531,30.564,5.4,6.468,5.975
1810,0.997,37.871,27.555,47.55,30.574,5.358,6.467,5.974
1811,0.984,37.987,27.547,47.559,30.571,5.439,6.507,6.096
1812,0.965,38.027,27.617,47.531,30.571,5.359,6.467,5.975
1813,0.981,37.893,27.555,47.54,30.567,5.439,6.467,6.015
1814,0.991,38.045,27.574,47.55,30.581,5.44,6.507,6.056
1815,0.984,38.181,27.571,47.579,30.581,5.562,6.589,6.137
1816,0.961,38.182,27.586,47.541,30.571,5.441,6.427,5.976
1817,0.948,38.182,27.618,47.559,30.578,5.44,6.466,6.015
1818,0.941,38.278,27.587,47.54,30.574,5.399,6.386,5.974
1819,0.941,38.375,27.547,47.521,30.56,5.399,6.385,6.015
1820,0.938,38.711,27.524,47.521,30.567,5.399,6.344,6.015
1821,0.938,38.418,27.617,47.549,30.571,5.48,6.384,6.015
1822,0.935,38.549,27.505,47.559,30.581,5.481,6.466,6.137
1823,0.912,38.656,27.539,47.55,30.571,5.4,6.386,6.016
1824,0.905,38.551,27.629,47.559,30.574,5.48,6.425,6.137
1825,0.905,38.617,27.602,47.531,30.571,5.481,6.385,6.057
1826,0.889,38.704,27.555,47.54,30.56,5.4,6.303,5.975
1827,0.882,38.801,27.512,47.502,30.56,5.358,6.221,5.811
1828,0.885,38.754,27.554,47.549,30.571,5.399,6.302,6.054
1829,0.892,38.849,27.559,47.54,30.564,5.48,6.343,6.097
1830,0.882,38.975,27.582,47.531,30.571,5.359,6.384,5.975
1831,0.879,39.053,27.555,47.54,30.578,5.48,6.385,6.055
1832,0.869,38.766,27.567,47.559,30.578,5.481,6.344,6.015
1833,0.876,38.859,27.621,47.521,30.567,5.4,6.262,5.893
1834,0.872,38.975,27.571,47.54,30.571,5.399,6.18,5.973
1835,0.853,39.043,27.575,47.55,30.571,5.399,6.261,6.096
1836,0.836,38.958,27.606,47.502,30.564,5.399,6.302,6.016
1837,0.839,39.091,27.602,47.54,30.574,5.358,6.302,5.974
1838,0.862,39.208,27.606,47.55,30.571,5.439,6.384,6.055
1839,0.823,39.266,27.579,47.559,30.581,5.562,6.425,6.097
1840,0.813,39.123,27.571,47.521,30.567,5.36,6.222,5.894
1841,0.823,39.285,27.606,47.559,30.571,5.439,6.302,5.973
1842,0.826,39.344,27.579,47.521,30.578,5.399,6.262,6.015
1843,0.823,39.383,27.559,47.53,30.564,5.358,6.139,5.974
1844,0.797,39.201,27.543,47.521,30.557,5.358,6.179,6.015
1845,0.807,39.343,27.645,47.549,30.571,5.439,6.301,6.096
1846,0.81,39.459,27.591,47.55,30.574,5.481,6.343,6.056
1847,0.807,39.729,27.571,47.531,30.571,5.4,6.221,5.975
1848,0.8,39.166,27.481,47.54,30.574,5.521,6.342,6.055
1849,0.8,39.285,27.558,47.521,30.571,5.4,6.221,5.975
1850,0.803,39.344,27.578,47.511,30.564,5.399,6.18,5.933
1851,0.794,39.277,27.528,47.501,30.564,5.358,6.098,5.892
1852,0.806,39.392,27.566,47.53,30.574,5.48,6.219,6.014
1853,0.8,39.489,27.61,47.502,30.574,5.44,6.261,5.974
1854,0.797,39.586,27.594,47.511,30.578,5.44,6.18,5.974
1855,0.797,39.27,27.532,47.53,30.578,5.521,6.261,6.055
1856,0.8,39.382,27.574,47.53,30.578,5.522,6.262,6.015
1857,0.774,39.498,27.551,47.53,30.567,5.4,6.18,5.934
1858,0.777,39.538,27.594,47.521,30.56,5.399,6.179,5.852
1859,0.784,39.346,27.598,47.53,30.571,5.399,6.22,6.013
1860,0.771,39.479,27.501,47.521,30.567,5.358,6.18,5.934
1861,0.751,39.585,27.543,47.511,30.567,5.48,6.261,5.974
1862,0.761,39.682,27.641,47.511,30.571,5.481,6.343,5.974
1863,0.764,39.233,27.579,47.559,30.588,5.603,6.384,6.055
1864,0.757,39.343,27.547,47.531,30.571,5.401,6.222,5.975
1865,0.754,39.459,27.574,47.511,30.571,5.399,6.22,5.974
1866,0.741,39.499,27.586,47.511,30.578,5.48,6.302,6.055
1867,0.747,39.298,27.598,47.501,30.564,5.4,6.221,5.853
1868,0.741,39.44,27.579,47.492,30.564,5.399,6.261,5.973
1869,0.747,39.576,27.52,47.578,30.574,5.521,6.343,5.974
1870,0.773,39.634,27.605,47.569,30.585,5.644,6.425,6.096
1871,0.774,39.338,27.606,47.493,30.564,5.361,6.304,5.853
1872,0.784,39.498,27.606,47.53,30.578,5.48,6.343,5.973
1873,0.767,39.586,27.551,47.511,30.567,5.481,6.303,5.974
1874,0.77,39.73,27.609,47.501,30.56,5.4,6.262,5.811
1875,0.754,39.204,27.552,47.482,30.557,5.358,6.221,5.81
1876,0.761,39.343,27.485,47.501,30.574,5.439,6.424,5.891
1877,0.751,39.45,27.55,47.511,30.585,5.562,6.385,6.014
1878,0.748,39.326,27.531,47.501,30.571,5.482,6.425,5.893
1879,0.754,39.373,27.621,47.511,30.581,5.522,6.466,5.973
1880,0.754,39.489,27.563,47.511,30.574,5.4,6.386,5.893
1881,0.748,39.566,27.59,47.482,30.564,5.358,6.344,5.77
1882,0.751,39.155,27.567,47.463,30.56,5.317,6.303,5.809
1883,0.751,39.285,27.602,47.501,30.571,5.398,6.425,5.891
1884,0.744,39.401,27.505,47.511,30.564,5.399,6.385,5.892
1885,0.754,39.498,27.527,47.501,30.571,5.399,6.507,5.892
1886,0.744,39.212,27.605,47.511,30.578,5.44,6.549,5.973
1887,0.754,39.372,27.614,47.54,30.574,5.481,6.508,5.933
1888,0.761,39.431,27.637,47.483,30.564,5.4,6.386,5.811
1889,0.764,39.508,27.587,47.472,30.564,5.358,6.385,5.85
1890,0.748,39.087,27.555,47.492,30.574,5.439,6.425,5.973
1891,0.747,39.217,27.594,47.453,30.571,5.399,6.344,5.852
1892,0.741,39.314,27.551,47.491,30.571,5.399,6.384,5.891
1893,0.76,39.402,27.547,47.482,30.571,5.48,6.547,5.892
1894,0.787,39.086,27.606,47.501,30.581,5.562,6.508,6.014
1895,0.787,39.188,27.606,47.453,30.571,5.36,6.427,5.852
1896,0.774,39.304,27.579,47.472,30.571,5.48,6.385,5.973
1897,0.754,39.354,27.454,47.472,30.574,5.481,6.425,5.893
1898,0.751,39.066,27.569,47.444,30.571,5.4,6.304,5.892
1899,0.748,39.198,27.571,47.443,30.571,5.318,6.343,5.892
1900,0.751,39.324,27.629,47.462,30.571,5.439,6.384,5.892
1901,0.754,39.344,27.622,47.491,30.585,5.562,6.466,6.095
1902,0.757,39.086,27.579,47.453,30.574,5.401,6.304,5.975
1903,0.754,39.198,27.645,47.482,30.574,5.521,6.465,5.974
1904,0.757,39.295,27.556,47.463,30.571,5.4,6.345,5.974
1905,0.735,38.98,27.574,47.443,30.564,5.358,6.262,5.893
1906,0.731,38.938,27.532,47.424,30.56,5.317,6.262,5.851
1907,0.767,39.072,27.601,47.443,30.564,5.439,6.384,5.973
1908,0.767,39.14,27.618,47.453,30.581,5.521,6.425,6.055
1909,0.754,38.853,27.606,47.453,30.571,5.36,6.385,5.853
1910,0.78,38.965,27.575,47.453,30.574,5.439,6.425,5.973
1911,0.774,39.091,27.582,47.453,30.571,5.399,6.344,5.933
1912,0.777,39.14,27.59,47.415,30.571,5.358,6.221,5.811
1913,0.774,38.614,27.575,47.501,30.56,5.277,6.22,5.728
1914,0.771,38.781,27.586,47.444,30.574,5.438,6.383,5.931
1915,0.764,38.869,27.637,47.424,30.56,5.359,6.385,5.974
1916,0.767,38.956,27.634,47.424,30.571,5.399,6.303,5.852
1917,0.761,38.688,27.591,47.443,30.574,5.48,6.384,5.973
1918,0.757,38.849,27.532,47.453,30.574,5.481,6.466,5.893
1919,0.764,38.937,27.535,47.434,30.571,5.4,6.304,5.851
1920,0.764,38.986,27.559,47.414,30.564,5.277,6.262,5.851
1921,0.751,38.689,27.559,47.424,30.571,5.398,6.302,5.891
1922,0.744,38.801,27.539,47.414,30.571,5.318,6.343,5.811
1923,0.751,38.936,27.582,47.414,30.571,5.358,6.384,5.891
1924,0.754,38.986,27.649,47.414,30.571,5.48,6.466,5.933
1925,0.767,38.574,27.575,47.443,30.581,5.562,6.589,6.014
1926,0.761,38.685,27.528,47.415,30.571,5.36,6.387,5.852
1927,0.77,38.791,27.586,47.414,30.571,5.439,6.466,5.973
1928,0.77,38.783,27.579,47.395,30.571,5.44,6.467,5.893
1929,0.767,38.447,27.586,47.376,30.564,5.318,6.386,5.851
1930,0.761,38.549,27.555,47.366,30.557,5.358,6.385,5.891
1931,0.77,38.694,27.57,47.395,30.574,5.399,6.507,5.973
1932,0.767,38.523,27.586,47.404,30.578,5.48,6.508,6.015
1933,0.79,38.531,27.582,47.385,30.571,5.4,6.508,5.934
1934,0.8,38.655,27.559,47.404,30.574,5.44,6.589,5.933
1935,0.8,38.762,27.594,47.376,30.571,5.399,6.509,5.852
1936,0.787,38.236,27.61,47.376,30.574,5.318,6.508,5.851
1937,0.78,38.355,27.633,47.356,30.56,5.317,6.467,5.81
1938,0.777,38.491,27.575,47.375,30.578,5.358,6.629,5.972
1939,0.771,38.569,27.508,47.366,30.564,5.399,6.55,5.852
1940,0.777,38.263,27.562,47.375,30.571,5.399,6.63,5.973
1941,0.777,38.394,27.606,47.376,30.571,5.48,6.712,5.933
1942,0.771,38.539,27.579,47.404,30.585,5.481,6.794,6.014
1943,0.767,38.588,27.543,47.366,30.561,5.359,6.633,5.852
1944,0.78,38.177,27.625,47.366,30.578,5.399,6.753,5.891
1945,0.787,38.297,27.571,47.375,30.574,5.358,6.754,5.892
1946,0.767,38.385,27.551,47.328,30.56,5.399,6.632,5.811
1947,0.764,38.453,27.446,47.327,30.564,5.318,6.753,5.891
1948,0.793,38.166,27.554,47.356,30.578,5.439,6.795,5.933
1949,0.79,38.297,27.602,47.366,30.574,5.521,6.795,6.014
1950,0.8,38.385,27.645,47.328,30.571,5.36,6.714,5.812
1951,0.807,38.443,27.575,47.346,30.578,5.399,6.794,5.932
1952,0.797,37.993,27.582,47.346,30.571,5.318,6.795,5.892
1953,0.794,38.084,27.633,47.327,30.571,5.317,6.673,5.77
1954,0.787,38.181,27.509,47.298,30.564,5.276,6.631,5.728
1955,0.793,38.23,27.566,47.336,30.564,5.357,6.794,5.85
1956,0.79,37.952,27.535,47.308,30.564,5.236,6.714,5.81
1957,0.79,38.113,27.594,47.317,30.571,5.316,6.754,5.85
1958,0.777,38.21,27.594,47.327,30.578,5.398,6.876,5.891
1959,0.78,38.048,27.579,47.356,30.585,5.399,6.918,5.933
1960,0.777,37.999,27.571,47.299,30.571,5.236,6.796,5.77
1961,0.774,38.123,27.567,47.317,30.571,5.397,6.795,5.809
1962,0.78,38.22,27.59,47.298,30.574,5.358,6.795,5.85
1963,0.774,37.78,27.583,47.289,30.571,5.236,6.755,5.81
1964,0.761,37.852,27.547,47.288,30.567,5.275,6.795,5.891
1965,0.78,37.987,27.621,47.308,30.574,5.357,6.755,5.892
1966,0.803,38.103,27.61,47.327,30.578,5.439,6.876,5.973
1967,0.807,37.769,27.516,47.289,30.567,5.318,6.715,5.852
1968,0.79,37.9,27.496,47.288,30.571,5.358,6.754,5.891
1969,0.787,38.007,27.566,47.288,30.571,5.358,6.714,5.851
1970,0.774,38.056,27.602,47.26,30.564,5.155,6.591,5.729
1971,0.771,37.663,27.583,47.269,30.56,5.275,6.59,5.768
1972,0.79,37.851,27.567,47.288,30.571,5.316,6.671,5.891
1973,0.797,37.958,27.602,47.269,30.574,5.317,6.753,5.851
1974,0.797,38.007,27.59,47.279,30.571,5.236,6.632,5.769
1975,0.8,37.615,27.555,47.288,30.574,5.397,6.672,5.85
1976,0.797,37.745,27.567,47.279,30.574,5.277,6.631,5.769
1977,0.797,37.842,27.539,47.26,30.571,5.235,6.55,5.728
1978,0.787,37.891,27.625,47.25,30.564,5.194,6.508,5.727
1979,0.787,37.575,27.587,47.269,30.574,5.316,6.67,5.809
1980,0.774,37.706,27.594,47.24,30.564,5.195,6.55,5.728
1981,0.774,37.823,27.598,47.24,30.571,5.316,6.63,5.809
1982,0.777,37.872,27.614,47.25,30.571,5.317,6.672,5.769
1983,0.787,37.556,27.555,47.317,30.581,5.439,6.713,5.972
1984,0.767,37.629,27.555,47.241,30.574,5.277,6.551,5.771
1985,0.777,37.755,27.621,47.269,30.571,5.276,6.549,5.891
1986,0.78,37.555,27.61,47.24,30.571,5.316,6.59,5.811
1987,0.774,37.485,27.591,47.221,30.564,5.195,6.509,5.769
1988,0.764,37.6,27.469,47.221,30.56,5.234,6.63,5.728
1989,0.78,37.735,27.589,47.259,30.574,5.316,6.753,5.768
1990,0.784,37.295,27.586,47.259,30.578,5.358,6.714,5.85
1991,0.784,37.387,27.579,47.231,30.571,5.277,6.591,5.729
1992,0.787,37.522,27.543,47.24,30.578,5.316,6.712,5.85
1993,0.787,37.6,27.621,47.24,30.571,5.276,6.632,5.729
1994,0.787,37.131,27.575,47.211,30.567,5.276,6.672,5.768
1995,0.79,37.27,27.454,47.201,30.56,5.235,6.631,5.647
1996,0.787,37.415,27.554,47.23,30.571,5.357,6.794,5.727
1997,0.777,37.494,27.559,47.211,30.571,5.277,6.795,5.768
1998,0.771,37.13,27.586,47.221,30.564,5.235,6.917,5.768
1999,0.777,37.28,27.625,47.211,30.578,5.275,6.959,5.85
2000,0.793,37.454,27.583,47.297,30.578,5.398,7.0,5.932
2001,0.78,37.456,27.575,47.221,30.567,5.318,6.919,5.77
2002,0.78,37.12,27.571,47.192,30.564,5.236,6.959,5.768
2003,0.774,37.251,27.485,47.24,30.574,5.235,7.041,5.768
2004,0.774,37.339,27.562,47.183,30.571,5.235,7.123,5.768
2005,0.761,37.387,27.574,47.182,30.571,5.275,7.205,5.768
2006,0.767,37.023,27.633,47.182,30.578,5.316,7.206,5.85
2007,0.787,37.183,27.571,47.211,30.585,5.358,7.328,5.973
2008,0.78,37.252,27.543,47.201,30.571,5.236,7.126,5.811
2009,0.784,37.3,27.555,47.201,30.571,5.316,7.246,5.769
2010,0.78,37.051,27.598,47.192,30.564,5.236,7.288,5.85
2011,0.767,37.164,27.563,47.173,30.56,5.194,7.166,5.81
2012,0.767,37.271,27.547,47.163,30.557,5.112,7.206,5.81
2013,0.78,37.003,27.578,47.191,30.571,5.274,7.287,5.81
2014,0.774,36.857,27.579,47.192,30.571,5.276,7.288,5.769
2015,0.774,36.98,27.528,47.173,30.571,5.195,7.288,5.687
2016,0.777,37.096,27.543,47.182,30.578,5.194,7.247,5.849
2017,0.777,36.829,27.586,47.182,30.571,5.153,7.247,5.81
2018,0.78,36.893,27.614,47.182,30.571,5.153,7.166,5.769
2019,0.784,37.028,27.622,47.144,30.557,5.112,7.043,5.687
2020,0.784,37.135,27.536,47.172,30.571,5.193,7.204,5.809
2021,0.777,36.781,27.531,47.153,30.567,5.153,7.165,5.728
2022,0.771,36.95,27.582,47.143,30.56,5.234,7.165,5.768
2023,0.767,37.067,27.575,47.191,30.571,5.235,7.165,5.85
2024,0.78,37.183,27.563,47.201,30.585,5.357,7.165,5.891
2025,0.771,36.782,27.563,47.144,30.568,5.195,7.084,5.77
2026,0.774,36.921,27.613,47.172,30.567,5.234,7.042,5.768
2027,0.774,37.028,27.649,47.153,30.571,5.153,7.082,5.85
2028,0.758,37.068,27.607,47.124,30.564,5.153,7.042,5.688
2029,0.777,36.675,27.516,47.133,30.564,5.153,7.001,5.768
2030,0.784,36.825,27.558,47.153,30.567,5.275,7.041,5.891
2031,0.787,36.96,27.633,47.153,30.578,5.357,7.123,5.973
2032,0.767,37.029,27.501,47.162,30.561,5.195,6.961,5.73
2033,0.783,36.588,27.55,47.143,30.574,5.275,6.96,5.809
2034,0.774,36.718,27.621,47.153,30.571,5.235,7.0,5.769
2035,0.784,36.825,27.571,47.134,30.564,5.153,6.919,5.809
2036,0.761,36.845,27.508,47.095,30.557,5.112,6.878,5.728
2037,0.764,36.788,27.488,47.2,30.571,5.234,7.0,5.85
2038,0.757,36.902,27.558,47.125,30.564,5.153,7.001,5.851
2039,0.774,36.999,27.59,47.124,30.571,5.193,6.879,5.81
2040,0.777,36.761,27.618,47.153,30.574,5.194,7.0,5.891
2041,0.767,36.653,27.579,47.153,30.574,5.234,7.001,5.851
2042,0.744,36.709,27.555,47.134,30.567,5.194,6.838,5.851
2043,0.754,36.825,27.633,47.124,30.567,5.234,6.755,5.851
2044,0.761,36.606,27.501,47.143,30.564,5.194,6.917,5.851
2045,0.735,36.709,27.539,47.115,30.564,5.031,6.796,5.769
2046,0.754,36.844,27.543,47.114,30.571,5.192,6.836,5.85
2047,0.757,36.951,27.586,47.143,30.567,5.234,6.837,5.81
2048,0.764,36.588,27.586,47.153,30.578,5.275,6.958,5.972
2049,0.754,36.689,27.571,47.115,30.571,5.195,6.838,5.811
2050,0.757,36.844,27.555,47.133,30.571,5.275,6.877,5.891
2051,0.767,36.922,27.59,47.124,30.56,5.235,6.796,5.851
2052,0.761,36.53,27.567,47.105,30.567,5.113,6.755,5.729
2053,0.774,36.67,27.551,47.105,30.56,5.071,6.714,5.727
2054,0.771,36.805,27.586,47.114,30.567,5.274,6.835,5.85
2055,0.761,36.864,27.598,47.124,30.564,5.113,6.837,5.851
2056,0.751,36.577,27.598,47.095,30.571,5.234,6.837,5.769
2057,0.751,36.699,27.536,47.133,30.574,5.275,6.837,5.891
2058,0.757,36.863,27.504,47.172,30.581,5.195,6.918,5.892
2059,0.735,36.865,27.566,47.096,30.571,5.194,6.796,5.811
2060,0.738,36.539,27.582,47.104,30.564,5.194,6.795,5.81
2061,0.741,36.689,27.481,47.105,30.567,5.234,6.836,5.85
2062,0.744,36.806,27.554,47.114,30.56,5.153,6.796,5.769
2063,0.744,36.826,27.617,47.095,30.571,5.153,6.877,5.809
2064,0.767,36.644,27.606,47.114,30.571,5.153,6.837,5.932
2065,0.764,36.786,27.427,47.153,30.581,5.315,6.999,5.974
2066,0.725,36.883,27.55,47.105,30.567,5.195,6.757,5.811
2067,0.741,36.769,27.574,47.124,30.578,5.153,6.876,5.932
2068,0.751,36.615,27.625,47.105,30.564,5.234,6.837,5.892
2069,0.767,36.738,27.587,47.095,30.567,5.153,6.755,5.892
2070,0.77,36.825,27.567,47.066,30.547,5.112,6.673,5.729
2071,0.767,36.567,27.586,47.085,30.574,5.193,6.875,5.768
2072,0.757,36.651,27.618,47.095,30.574,5.234,6.918,5.891
2073,0.764,36.786,27.575,47.152,30.571,5.235,6.919,5.729
2074,0.761,36.902,27.559,47.095,30.574,5.275,6.959,5.85
2075,0.754,36.52,27.637,47.104,30.574,5.316,6.878,5.81
2076,0.741,36.612,27.583,47.076,30.567,5.154,6.918,5.81
2077,0.741,36.757,27.571,47.076,30.564,5.153,6.919,5.688
2078,0.747,36.845,27.461,47.095,30.574,5.234,6.919,5.809
2079,0.747,36.548,27.546,47.076,30.567,5.153,6.837,5.728
2080,0.744,36.708,27.578,47.104,30.567,5.315,6.877,5.85
2081,0.744,36.834,27.555,47.095,30.571,5.317,6.959,5.769
2082,0.747,36.951,27.582,47.124,30.585,5.398,7.041,5.891
2083,0.728,36.636,27.59,47.076,30.571,5.236,6.839,5.77
2084,0.744,36.767,27.633,47.085,30.571,5.357,6.877,5.809
2085,0.741,36.883,27.493,47.085,30.571,5.277,6.877,5.81
2086,0.741,36.942,27.554,47.066,30.564,5.276,6.755,5.728
2087,0.741,36.693,27.524,47.056,30.56,5.316,6.795,5.809
2088,0.747,36.863,27.578,47.085,30.571,5.358,6.877,5.769
2089,0.747,36.999,27.641,47.104,30.574,5.48,6.918,5.931
2090,0.741,36.991,27.56,47.095,30.567,5.278,6.837,5.811
2091,0.741,36.684,27.571,47.095,30.564,5.357,6.918,5.81
2092,0.741,36.805,27.621,47.066,30.56,5.399,6.837,5.769
2093,0.741,36.903,27.524,47.037,30.56,5.277,6.796,5.687
2094,0.741,36.798,27.535,47.046,30.557,5.276,6.714,5.646
2095,0.747,36.663,27.586,47.094,30.571,5.357,6.794,5.767
2096,0.738,36.757,27.594,47.066,30.571,5.317,6.836,5.768
2097,0.738,36.864,27.598,47.075,30.571,5.276,6.755,5.768
2098,0.744,36.961,27.54,47.085,30.567,5.398,6.795,5.85
2099,0.757,37.106,27.57,47.095,30.578,5.399,6.917,5.81
2100,0.731,37.203,27.555,47.057,30.564,5.236,6.796,5.688
2101,0.738,37.281,27.59,47.066,30.56,5.357,6.755,5.687
2102,0.731,36.591,27.555,47.066,30.571,5.358,6.836,5.809
2103,0.725,36.709,27.559,47.066,30.557,5.236,6.796,5.728
2104,0.724,36.854,27.602,47.066,30.571,5.316,6.836,5.768
2105,0.737,36.932,27.54,47.066,30.574,5.358,6.918,5.891
2106,0.731,36.664,27.492,47.104,30.578,5.48,6.919,5.933
2107,0.728,36.796,27.578,47.066,30.564,5.318,6.837,5.73
2108,0.741,36.931,27.594,47.075,30.571,5.317,6.958,5.727
2109,0.747,36.981,27.61,47.056,30.571,5.317,6.919,5.727
2110,0.738,36.626,27.559,47.037,30.567,5.317,6.837,5.727
2111,0.744,36.786,27.563,47.046,30.571,5.276,6.958,5.768
2112,0.747,36.931,27.571,47.075,30.574,5.316,7.041,5.809
2113,0.757,36.952,27.571,47.076,30.585,5.439,7.082,5.85
2114,0.754,36.789,27.536,47.047,30.568,5.277,7.083,5.688
2115,0.757,36.95,27.57,47.066,30.574,5.357,7.123,5.768
2116,0.748,37.048,27.59,47.056,30.564,5.317,7.165,5.728
2117,0.731,37.039,27.606,47.027,30.564,5.276,7.084,5.646
2118,0.728,36.742,27.622,47.018,30.557,5.195,7.002,5.645
2119,0.747,36.902,27.516,47.046,30.571,5.316,7.163,5.808
2120,0.741,36.999,27.617,47.066,30.574,5.317,7.206,5.769
2121,0.734,36.962,27.587,47.047,30.571,5.317,7.206,5.768
2122,0.731,36.818,27.532,47.066,30.578,5.358,7.206,5.809
2123,0.741,36.979,27.547,47.075,30.574,5.317,7.165,5.81
2124,0.728,37.039,27.563,47.037,30.564,5.276,7.084,5.769
2125,0.725,36.665,27.606,47.037,30.56,5.276,7.002,5.728
2126,0.731,36.738,27.544,47.037,30.571,5.316,7.163,5.727
2127,0.721,36.854,27.496,47.037,30.564,5.317,7.043,5.768
2128,0.741,36.951,27.55,47.037,30.564,5.317,7.123,5.728
2129,0.738,36.847,27.621,47.046,30.571,5.317,7.165,5.809
2130,0.76,36.989,27.626,47.075,30.581,5.398,7.206,5.891
2131,0.735,37.067,27.563,47.037,30.571,5.196,7.043,5.689
2132,0.741,37.154,27.528,47.056,30.574,5.275,7.082,5.809
2133,0.741,36.705,27.605,47.047,30.564,5.316,7.123,5.769
2134,0.734,36.825,27.481,47.018,30.571,5.236,7.002,5.728
2135,0.734,36.951,27.542,47.037,30.567,5.275,7.082,5.727
2136,0.754,37.038,27.57,47.056,30.574,5.316,7.164,5.809
2137,0.748,36.751,27.586,47.047,30.585,5.398,7.246,5.932
2138,0.728,36.854,27.622,47.037,30.568,5.236,7.125,5.77
2139,0.747,36.98,27.583,47.037,30.571,5.316,7.165,5.809
2140,0.734,37.029,27.563,47.046,30.574,5.317,7.124,5.81
2141,0.731,36.828,27.539,47.018,30.564,5.195,7.002,5.728
2142,0.728,36.951,27.598,46.998,30.56,5.234,7.041,5.727
2143,0.728,37.105,27.524,47.046,30.567,5.275,7.164,5.768
2144,0.715,37.126,27.547,47.037,30.574,5.316,7.206,5.809
2145,0.711,36.791,27.609,47.027,30.574,5.317,7.084,5.769
2146,0.731,36.931,27.598,47.037,30.574,5.358,7.164,5.768
2147,0.747,37.029,27.551,47.056,30.574,5.317,7.124,5.768
2148,0.741,37.068,27.512,47.008,30.564,5.236,7.043,5.768
2149,0.747,36.905,27.511,47.027,30.564,5.316,7.001,5.728
2150,0.76,37.028,27.586,47.027,30.571,5.358,7.041,5.809
2151,0.744,37.097,27.532,47.018,30.564,5.317,7.001,5.769
2152,0.738,36.723,27.562,47.027,30.567,5.317,7.041,5.809
2153,0.754,36.787,27.594,47.018,30.574,5.398,7.082,5.85
2154,0.754,36.941,27.614,47.046,30.578,5.48,7.164,5.851
2155,0.728,37.009,27.516,47.018,30.567,5.359,7.043,5.769
