time,ecg,bvp,gsr,rsp,skt,emg_zygo,emg_coru,emg_trap
0,0.872,36.256,18.155,33.902,27.528,7.616,5.194,7.123
1,0.869,36.36,17.957,33.892,27.521,7.657,5.031,7.043
2,0.882,36.524,18.103,33.892,27.528,7.617,5.07,7.082
3,0.879,36.574,17.96,33.873,27.514,7.535,5.03,6.961
4,0.863,36.162,18.119,33.882,27.524,7.657,5.192,7.163
5,0.882,36.302,18.046,33.902,27.528,7.658,5.153,7.165
6,0.879,36.437,18.108,33.892,27.51,7.617,5.031,7.043
7,0.876,36.544,18.128,33.902,27.51,7.657,5.07,7.123
8,0.866,36.325,18.046,33.863,27.503,7.536,4.989,7.002
9,0.872,36.447,18.038,33.863,27.521,7.657,5.151,7.123
10,0.895,36.592,17.967,33.882,27.528,7.617,5.153,7.124
11,0.889,36.632,18.084,33.863,27.521,7.617,5.071,7.043
12,0.882,36.335,18.015,33.882,27.521,7.617,5.152,7.164
13,0.889,36.447,18.147,33.863,27.517,7.454,4.99,7.043
14,0.882,36.563,18.082,33.863,27.521,7.493,5.11,7.164
15,0.879,36.622,18.05,33.892,27.521,7.616,5.112,7.246
16,0.879,36.536,18.092,33.873,27.528,7.454,5.071,7.166
17,0.876,36.699,18.026,33.901,27.528,7.493,5.111,7.165
18,0.859,36.796,18.08,33.863,27.521,7.412,4.989,7.043
19,0.849,36.807,17.952,33.863,27.528,7.33,5.11,7.164
20,0.859,36.529,18.087,33.882,27.531,7.451,5.152,7.287
21,0.849,36.679,18.104,33.873,27.524,7.33,5.153,7.207
22,0.872,36.786,17.984,33.892,27.528,7.329,5.112,7.206
23,0.866,36.653,18.084,33.863,27.514,7.248,5.03,7.206
24,0.84,36.489,17.976,33.873,27.528,7.288,5.111,7.287
25,0.879,36.631,18.111,33.901,27.528,7.288,5.193,7.369
26,0.879,36.728,17.976,33.873,27.521,7.207,5.031,7.289
27,0.882,36.585,18.076,33.882,27.524,7.247,5.151,7.329
28,0.866,36.632,17.983,33.854,27.517,7.125,5.031,7.207
29,0.853,36.738,18.064,33.863,27.524,7.124,5.111,7.328
30,0.872,36.883,18.112,33.882,27.524,7.205,5.193,7.289
31,0.879,36.558,17.976,33.873,27.528,7.125,5.031,7.288
32,0.882,36.708,18.107,33.892,27.528,7.124,5.151,7.288
33,0.866,36.806,18.03,33.873,27.521,6.961,4.99,7.125
34,0.846,36.864,18.139,33.882,27.514,7.041,5.029,7.408
35,0.859,36.577,17.968,33.902,27.535,7.123,5.151,7.411
36,0.853,36.68,18.006,33.873,27.518,7.002,5.031,7.289
37,0.859,36.834,18.143,33.882,27.524,7.001,5.111,7.41
38,0.853,36.865,17.961,33.873,27.514,6.919,4.989,7.208
39,0.859,36.711,18.064,33.863,27.517,6.959,5.11,7.369
40,0.853,36.863,17.975,33.882,27.528,7.041,5.152,7.411
41,0.853,36.97,18.123,33.882,27.524,7.042,5.071,7.33
42,0.866,37.038,18.105,33.892,27.528,7.123,5.111,7.41
43,0.833,36.627,17.972,33.863,27.514,7.043,4.989,7.208
44,0.82,36.747,18.052,33.863,27.524,7.042,4.988,7.287
45,0.839,36.892,17.944,33.892,27.531,7.164,5.11,7.41
46,0.852,36.894,18.076,33.873,27.521,7.165,5.112,7.33
47,0.869,36.884,18.108,33.892,27.524,7.124,5.071,7.329
48,0.859,36.99,18.034,33.873,27.521,7.124,4.948,7.207
49,0.862,37.058,18.151,33.854,27.517,7.083,5.069,7.328
50,0.859,36.963,17.945,33.882,27.524,7.245,5.152,7.37
51,0.869,36.799,18.068,33.873,27.524,7.206,5.071,7.37
52,0.876,36.95,17.964,33.892,27.531,7.165,5.152,7.289
53,0.869,37.0,18.08,33.863,27.521,7.124,4.99,7.247
54,0.85,36.722,18.139,33.863,27.521,7.124,5.07,7.369
55,0.843,36.825,17.999,33.892,27.524,7.165,5.193,7.37
56,0.826,36.96,18.084,33.854,27.521,7.124,5.072,7.33
57,0.836,37.077,17.979,33.872,27.521,7.165,5.111,7.37
58,0.852,36.694,18.072,33.863,27.517,7.043,5.03,7.126
59,0.83,36.815,17.979,33.853,27.524,7.164,5.03,7.327
60,0.839,36.96,18.049,33.872,27.524,7.165,5.111,7.37
61,0.833,37.019,18.1,33.854,27.521,7.084,4.949,7.289
62,0.856,36.732,18.062,33.892,27.524,7.083,5.11,7.329
63,0.84,36.844,18.139,33.863,27.514,7.042,4.989,7.167
64,0.849,36.941,17.914,33.853,27.514,7.042,5.07,7.206
65,0.866,37.019,18.044,33.882,27.524,7.082,5.152,7.206
66,0.862,36.665,18.12,33.863,27.521,7.083,5.031,7.247
67,0.843,36.834,18.073,33.882,27.528,7.083,5.151,7.288
68,0.862,36.912,18.081,33.873,27.517,6.92,4.949,7.166
69,0.849,36.961,18.046,33.854,27.528,7.0,5.029,7.246
70,0.849,36.837,18.155,33.872,27.528,7.041,5.151,7.166
71,0.856,36.96,17.902,33.863,27.521,7.082,5.112,7.043
72,0.862,37.134,18.052,33.892,27.524,7.123,5.112,7.123
73,0.84,37.136,18.096,33.854,27.517,6.921,4.989,7.083
74,0.833,36.733,18.042,33.863,27.521,7.041,5.151,7.164
75,0.833,36.883,18.155,33.863,27.524,7.082,5.153,7.246
76,0.843,37.009,18.015,33.863,27.528,7.042,4.99,7.125
77,0.846,37.068,18.104,33.863,27.528,7.042,5.11,7.205
78,0.827,36.867,18.038,33.863,27.517,7.001,5.03,7.043
79,0.807,36.989,18.041,33.853,27.514,7.001,4.989,7.123
80,0.826,37.115,18.084,33.853,27.528,7.082,5.11,7.205
81,0.813,36.752,18.018,33.853,27.531,7.002,5.112,7.125
82,0.836,36.864,18.158,33.872,27.517,7.041,5.152,7.083
83,0.82,36.951,18.066,33.863,27.517,6.96,5.031,7.002
84,0.81,37.019,18.108,33.844,27.521,6.96,5.07,7.082
85,0.826,36.732,18.066,33.863,27.528,7.082,5.152,7.205
86,0.82,36.863,18.026,33.873,27.521,7.083,5.112,7.125
87,0.836,37.018,18.115,33.873,27.531,7.042,5.112,7.165
88,0.83,37.068,17.991,33.854,27.521,6.96,5.03,7.002
89,0.833,36.637,18.076,33.844,27.521,7.0,5.07,7.001
90,0.836,36.805,18.003,33.853,27.524,7.082,5.152,7.041
91,0.833,36.883,18.111,33.853,27.528,7.042,5.112,7.001
92,0.833,36.999,17.96,33.882,27.528,7.123,5.152,7.041
93,0.826,36.751,18.06,33.854,27.524,7.124,5.071,6.96
94,0.83,36.883,18.065,33.825,27.517,7.043,5.07,7.0
95,0.81,37.018,18.03,33.853,27.528,7.123,5.193,7.163
96,0.813,37.049,18.065,33.863,27.521,7.043,5.072,7.043
97,0.803,36.732,17.987,33.892,27.542,7.204,5.111,7.082
98,0.79,36.863,18.099,33.863,27.525,7.125,5.152,6.961
99,0.784,36.961,18.007,33.844,27.517,7.043,5.031,6.96
100,0.787,36.99,18.064,33.872,27.524,7.123,5.111,7.082
101,0.797,36.837,17.96,33.844,27.528,7.043,5.112,7.002
102,0.803,36.989,18.037,33.882,27.535,7.204,5.112,7.123
103,0.797,37.087,18.112,33.863,27.524,7.084,5.03,6.961
104,0.784,37.068,18.062,33.853,27.521,7.083,4.989,6.96
105,0.797,36.694,18.073,33.863,27.528,7.083,5.151,7.122
106,0.8,36.825,17.936,33.863,27.521,7.002,5.112,7.002
107,0.81,36.941,18.107,33.882,27.535,7.082,5.071,7.041
108,0.813,36.674,18.058,33.873,27.528,7.083,5.111,6.96
109,0.816,36.709,18.018,33.834,27.517,7.042,5.071,7.0
110,0.8,36.844,18.092,33.844,27.528,7.123,5.111,7.041
111,0.803,36.922,18.038,33.844,27.524,6.961,5.152,6.96
112,0.813,36.683,18.119,33.882,27.535,7.163,5.193,7.041
113,0.803,36.786,17.96,33.854,27.521,7.043,5.153,7.042
114,0.8,36.893,18.037,33.825,27.521,6.96,5.071,7.001
115,0.794,36.98,17.924,33.853,27.528,7.041,5.152,7.123
116,0.784,36.598,18.075,33.844,27.521,7.001,5.071,7.083
117,0.787,36.795,18.108,33.901,27.538,7.123,5.193,7.123
118,0.777,36.883,17.984,33.854,27.528,7.043,5.194,7.124
119,0.764,36.923,18.095,33.844,27.524,6.92,5.031,7.083
120,0.767,36.664,17.991,33.853,27.524,6.959,5.151,7.083
121,0.757,36.786,17.982,33.853,27.528,6.96,5.112,7.083
122,0.78,36.922,18.088,33.872,27.535,7.041,5.315,7.164
123,0.777,36.98,17.952,33.844,27.535,6.96,5.154,7.124
124,0.774,36.76,18.08,33.834,27.524,6.919,5.071,7.043
125,0.777,36.912,17.999,33.844,27.528,7.0,5.152,7.042
126,0.784,37.019,18.049,33.825,27.517,6.919,5.153,7.082
127,0.79,37.068,18.092,33.844,27.535,7.041,5.275,7.164
128,0.784,36.627,18.077,33.872,27.531,7.042,5.073,7.124
129,0.784,36.757,18.053,33.825,27.517,7.001,5.03,7.043
130,0.79,36.893,17.967,33.853,27.524,7.123,5.151,7.042
131,0.8,37.057,18.091,33.815,27.521,7.124,5.071,7.123
132,0.8,36.646,18.085,33.853,27.531,7.287,5.233,7.165
133,0.803,36.795,18.128,33.853,27.528,7.369,5.194,7.043
134,0.803,36.874,18.124,33.825,27.524,7.33,5.072,6.96
135,0.787,36.702,18.019,33.844,27.524,7.532,5.111,7.041
136,0.761,36.71,18.069,33.786,27.517,7.534,5.071,6.96
137,0.757,36.863,18.007,33.824,27.531,7.738,5.233,7.122
138,0.774,36.999,18.088,33.844,27.528,7.821,5.194,7.083
139,0.771,36.626,17.96,33.844,27.521,7.781,5.031,6.961
140,0.767,36.738,18.087,33.825,27.524,7.903,5.192,7.041
141,0.757,36.844,18.108,33.805,27.51,7.863,5.153,6.96
142,0.757,36.941,17.999,33.834,27.528,7.985,5.275,7.122
143,0.767,36.635,17.955,33.863,27.521,7.986,5.235,7.043
144,0.774,36.767,17.97,33.834,27.521,7.946,5.153,6.92
145,0.774,36.873,18.064,33.834,27.528,8.026,5.112,7.041
146,0.761,36.932,17.936,33.805,27.514,7.946,5.071,6.96
147,0.757,36.607,18.044,33.834,27.524,8.108,5.274,7.122
148,0.793,36.766,17.987,33.844,27.531,7.987,5.195,7.043
149,0.806,36.854,18.08,33.825,27.521,7.946,5.112,7.001
150,0.787,36.932,18.069,33.834,27.528,8.026,5.152,7.001
151,0.784,36.655,17.975,33.805,27.524,7.946,5.153,6.96
152,0.793,36.834,18.064,33.843,27.538,8.026,5.234,7.163
153,0.79,36.97,18.003,33.853,27.524,7.987,5.235,7.043
154,0.787,36.981,18.146,33.834,27.514,7.864,5.153,7.001
155,0.78,36.559,17.91,33.834,27.524,7.944,5.193,7.041
156,0.767,36.67,18.009,33.824,27.517,7.864,5.072,7.001
157,0.764,36.805,18.107,33.824,27.531,7.944,5.233,7.123
158,0.774,37.181,17.929,33.834,27.524,7.945,5.153,7.083
159,0.761,36.782,18.048,33.824,27.521,7.864,5.112,7.002
160,0.764,36.931,17.963,33.844,27.531,7.822,5.193,7.123
161,0.741,36.99,18.048,33.805,27.524,7.822,5.153,7.043
162,0.754,36.578,18.131,33.843,27.528,7.863,5.234,7.164
163,0.774,36.574,17.996,33.834,27.535,7.822,5.194,7.043
164,0.774,36.708,18.072,33.901,27.521,7.7,5.153,7.042
165,0.771,36.815,17.936,33.835,27.528,7.74,5.112,7.042
166,0.761,36.605,18.118,33.815,27.524,7.699,5.152,7.082
167,0.774,36.757,17.991,33.843,27.538,7.78,5.315,7.286
168,0.79,36.902,18.064,33.844,27.528,7.659,5.236,7.166
169,0.793,36.952,17.999,33.834,27.521,7.536,5.113,7.084
170,0.78,36.511,18.037,33.815,27.531,7.534,5.193,7.123
171,0.771,36.612,18.041,33.824,27.521,7.494,5.153,7.083
172,0.793,36.786,17.983,33.844,27.538,7.616,5.356,7.245
173,0.787,36.854,18.08,33.834,27.528,7.576,5.155,7.125
174,0.787,36.692,17.96,33.824,27.517,7.413,5.153,7.043
175,0.793,36.834,18.115,33.834,27.528,7.411,5.234,7.164
176,0.78,36.932,18.062,33.824,27.524,7.371,5.194,7.165
177,0.78,37.029,18.042,33.844,27.531,7.452,5.316,7.287
178,0.787,36.655,18.123,33.834,27.535,7.33,5.195,7.207
179,0.771,36.786,17.878,33.834,27.521,7.248,5.112,7.125
180,0.761,36.912,18.032,33.824,27.528,7.247,5.152,7.165
181,0.757,36.923,18.084,33.815,27.521,7.247,5.193,7.165
182,0.77,36.635,18.085,33.824,27.528,7.288,5.316,7.287
183,0.78,36.805,18.186,33.824,27.528,7.207,5.195,7.247
184,0.774,36.883,18.004,33.805,27.517,7.043,5.112,7.166
185,0.784,37.153,18.08,33.824,27.524,7.082,5.193,7.206
186,0.784,36.647,18.007,33.796,27.521,7.123,5.112,7.206
187,0.793,36.795,18.068,33.834,27.528,7.124,5.315,7.328
188,0.81,36.941,18.034,33.834,27.528,7.002,5.236,7.207
189,0.8,36.568,18.069,33.796,27.528,6.919,5.113,7.125
190,0.813,36.565,18.143,33.805,27.528,7.0,5.193,7.124
191,0.794,36.68,17.976,33.786,27.521,6.919,5.112,7.205
192,0.78,36.815,18.08,33.824,27.535,7.041,5.315,7.409
193,0.8,36.586,17.956,33.834,27.528,6.96,5.195,7.208
194,0.797,36.689,18.056,33.805,27.521,6.797,5.112,7.084
195,0.787,36.834,18.018,33.824,27.531,6.836,5.234,7.123
196,0.774,36.893,18.006,33.815,27.521,6.796,5.235,7.165
197,0.771,36.53,18.076,33.824,27.531,6.958,5.357,7.246
198,0.783,36.67,18.022,33.815,27.531,6.878,5.114,7.166
199,0.777,36.757,18.084,33.795,27.528,6.796,5.193,7.124
200,0.777,36.873,17.952,33.805,27.528,6.795,5.153,7.246
201,0.764,36.587,18.025,33.795,27.517,6.836,5.193,7.166
202,0.774,36.737,18.088,33.795,27.531,6.877,5.275,7.328
203,0.784,36.873,18.058,33.805,27.528,6.837,5.316,7.167
204,0.784,36.913,18.12,33.786,27.521,6.796,5.154,7.084
205,0.793,36.549,17.941,33.795,27.521,6.795,5.193,7.164
206,0.813,36.679,18.037,33.776,27.517,6.755,5.112,7.084
207,0.797,36.796,18.065,33.805,27.528,6.957,5.234,7.205
208,0.803,36.864,18.042,33.824,27.531,6.919,5.194,7.165
209,0.813,36.75,18.061,33.786,27.524,6.796,5.112,7.043
210,0.807,36.902,18.026,33.795,27.521,6.917,5.152,7.042
211,0.803,36.98,18.112,33.767,27.514,6.837,5.112,7.042
212,0.8,36.991,17.906,33.795,27.524,6.958,5.234,7.204
213,0.807,36.665,17.981,33.805,27.528,6.919,5.194,7.165
214,0.8,36.796,18.033,33.776,27.521,6.837,5.112,7.043
215,0.794,36.893,17.987,33.795,27.528,6.877,5.193,7.123
216,0.787,36.587,18.057,33.767,27.514,6.796,5.153,7.083
217,0.79,36.584,17.967,33.785,27.528,6.917,5.193,7.164
218,0.793,36.747,18.052,33.795,27.528,6.837,5.234,7.084
219,0.777,36.825,18.108,33.795,27.528,6.837,5.113,7.002
220,0.784,36.644,17.991,33.814,27.524,6.837,5.234,7.082
221,0.777,36.757,18.053,33.767,27.51,6.755,5.153,7.042
222,0.777,36.902,17.967,33.795,27.524,6.917,5.315,7.204
223,0.8,36.99,18.072,33.805,27.524,6.919,5.195,7.084
224,0.784,36.415,17.991,33.776,27.524,6.796,5.153,6.961
225,0.79,36.553,18.025,33.795,27.517,6.958,5.112,7.041
226,0.793,36.67,18.03,33.757,27.517,6.797,5.193,7.042
227,0.813,36.748,18.026,33.785,27.524,6.958,5.316,7.204
228,0.81,36.643,18.069,33.805,27.528,7.0,5.195,7.084
229,0.807,36.786,17.952,33.786,27.517,6.879,5.194,6.961
230,0.807,36.902,18.087,33.786,27.521,6.918,5.153,7.0
231,0.807,36.932,17.999,33.757,27.514,6.919,5.112,6.96
232,0.813,36.511,18.139,33.785,27.524,7.081,5.234,7.163
233,0.813,36.66,18.085,33.805,27.524,6.961,5.235,7.043
234,0.797,36.767,17.897,33.786,27.514,6.878,5.153,6.96
235,0.79,36.816,18.028,33.786,27.514,6.959,5.234,6.96
236,0.787,36.605,17.963,33.747,27.517,6.919,5.153,7.0
237,0.79,36.747,17.974,33.795,27.524,7.0,5.275,7.163
238,0.797,36.883,17.9,33.786,27.524,6.96,5.235,7.002
239,0.787,36.894,18.083,33.757,27.524,6.878,5.153,7.041
240,0.787,36.616,18.077,33.795,27.528,6.959,5.234,6.96
241,0.79,36.728,17.929,33.757,27.514,6.838,5.072,6.96
242,0.787,36.854,18.06,33.776,27.528,6.958,5.152,7.163
243,0.803,36.625,17.948,33.776,27.528,6.96,5.234,7.002
244,0.807,36.556,18.064,33.776,27.514,6.919,5.072,6.919
245,0.816,36.699,18.112,33.776,27.521,6.919,5.193,7.041
246,0.807,36.786,18.027,33.757,27.514,6.796,5.112,7.001
247,0.813,36.394,18.065,33.766,27.524,6.917,5.234,7.123
248,0.807,36.496,18.007,33.785,27.524,6.959,5.194,7.124
249,0.797,36.631,18.084,33.824,27.517,6.838,5.031,6.921
250,0.8,36.747,17.944,33.776,27.524,6.918,5.192,7.0
251,0.813,36.432,18.111,33.738,27.51,6.796,5.153,6.96
252,0.813,36.602,18.144,33.785,27.528,6.917,5.234,7.163
253,0.81,36.728,18.097,33.776,27.528,6.796,5.153,7.124
254,0.794,36.806,18.062,33.757,27.517,6.755,5.071,6.961
255,0.78,36.471,17.944,33.776,27.521,6.795,5.111,7.082
256,0.784,36.573,18.072,33.747,27.521,6.714,5.112,7.042
257,0.797,36.718,18.042,33.756,27.524,6.835,5.315,7.286
258,0.8,36.806,18.026,33.766,27.528,6.837,5.154,7.085
259,0.784,36.615,18.076,33.766,27.521,6.633,5.112,6.961
260,0.784,36.747,18.042,33.766,27.528,6.712,5.193,7.082
261,0.784,36.864,18.061,33.747,27.517,6.632,5.153,7.002
262,0.774,36.922,17.846,33.776,27.524,6.794,5.275,7.123
263,0.793,36.424,17.989,33.786,27.528,6.755,5.235,7.043
264,0.774,36.534,18.037,33.747,27.528,6.673,5.072,6.92
265,0.78,36.631,18.053,33.776,27.524,6.713,5.152,7.081
266,0.787,36.652,18.108,33.805,27.524,6.632,5.071,7.042
267,0.803,36.987,17.952,33.795,27.538,6.834,5.314,7.164
268,0.823,37.115,18.103,33.776,27.528,6.674,5.236,7.084
269,0.83,37.213,18.062,33.728,27.521,6.55,5.113,6.961
270,0.826,36.6,17.999,33.766,27.531,6.63,5.193,7.0
271,0.82,36.239,18.057,33.766,27.524,6.631,5.112,6.919
272,0.823,36.389,18.022,33.785,27.538,6.712,5.274,7.122
273,0.823,36.496,18.131,33.776,27.528,6.591,5.195,7.043
274,0.813,36.526,18.066,33.757,27.521,6.631,5.072,7.001
275,0.803,36.679,18.007,33.785,27.528,6.631,5.233,7.041
276,0.787,36.786,18.037,33.757,27.521,6.712,5.153,7.001
277,0.793,36.912,17.998,33.766,27.538,6.957,5.315,7.163
278,0.797,36.319,18.045,33.757,27.528,6.797,5.236,7.084
279,0.777,36.418,17.874,33.747,27.517,6.714,5.113,7.002
280,0.79,36.553,18.024,33.776,27.521,6.794,5.112,7.082
281,0.777,36.593,18.096,33.747,27.524,6.917,5.071,7.042
282,0.8,36.498,17.882,33.776,27.528,7.0,5.233,7.164
283,0.79,36.641,17.997,33.757,27.531,6.919,5.113,7.002
284,0.787,36.767,17.897,33.747,27.517,6.837,5.03,6.96
285,0.797,36.835,18.036,33.747,27.517,6.999,5.151,7.041
286,0.784,36.433,18.03,33.747,27.531,6.96,5.153,7.001
287,0.79,36.63,17.998,33.756,27.535,7.041,5.315,7.204
288,0.806,36.728,18.076,33.766,27.528,7.001,5.195,7.084
289,0.8,36.748,18.014,33.728,27.528,6.96,5.072,6.961
290,0.797,36.346,18.033,33.747,27.528,7.041,5.233,7.041
291,0.797,36.466,17.905,33.728,27.521,6.96,5.113,7.001
292,0.797,36.612,18.009,33.756,27.528,7.0,5.315,7.204
293,0.803,36.632,18.092,33.757,27.524,7.001,5.154,7.003
294,0.803,36.489,18.019,33.747,27.528,6.919,5.112,6.96
295,0.777,36.65,18.022,33.756,27.524,7.041,5.193,7.082
296,0.767,36.719,17.901,33.728,27.51,6.839,5.153,7.002
297,0.764,36.604,18.052,33.737,27.528,6.958,5.234,7.123
298,0.78,36.527,18.053,33.747,27.528,6.96,5.235,7.083
299,0.767,36.66,17.944,33.747,27.517,6.878,5.072,6.961
300,0.761,36.748,18.06,33.747,27.521,7.0,5.193,7.082
301,0.757,36.49,18.003,33.709,27.51,6.919,5.153,7.042
302,0.751,36.602,18.076,33.737,27.535,7.163,5.275,7.123
303,0.777,36.757,17.975,33.756,27.528,7.084,5.195,7.043
304,0.771,36.825,17.994,33.737,27.517,7.083,5.072,7.042
305,0.793,36.327,18.029,33.756,27.524,7.123,5.193,7.042
306,0.79,36.447,17.991,33.709,27.521,7.083,5.072,7.042
307,0.79,36.592,18.072,33.747,27.528,7.164,5.233,7.164
308,0.793,36.689,17.948,33.737,27.528,7.206,5.153,7.002
309,0.793,37.285,18.095,33.718,27.524,7.125,5.153,6.96
310,0.8,37.406,18.108,33.737,27.521,7.205,5.153,7.0
311,0.794,37.522,17.886,33.728,27.517,7.125,5.031,6.919
312,0.777,37.6,18.083,33.728,27.528,7.287,5.192,7.122
313,0.79,36.124,17.983,33.737,27.524,7.247,5.153,6.961
314,0.774,36.244,18.053,33.718,27.521,7.206,5.112,6.919
315,0.767,36.36,18.116,33.727,27.528,7.247,5.071,7.041
316,0.764,36.409,17.956,33.708,27.514,7.125,5.03,6.96
317,0.774,36.563,18.068,33.718,27.524,7.165,5.192,7.041
318,0.761,36.737,18.053,33.727,27.528,7.246,5.194,7.042
319,0.764,36.844,17.96,33.737,27.521,7.206,5.112,6.92
320,0.77,36.884,18.056,33.737,27.528,7.247,5.234,6.959
321,0.767,36.481,18.003,33.718,27.514,7.166,5.032,6.919
322,0.764,36.592,18.146,33.727,27.521,7.287,5.151,6.959
323,0.78,36.728,18.031,33.747,27.528,7.329,5.153,6.96
324,0.774,36.681,18.057,33.737,27.517,7.289,5.071,6.919
325,0.797,36.595,17.936,33.718,27.521,7.329,5.111,6.959
326,0.787,36.699,18.064,33.708,27.521,7.167,4.989,6.838
327,0.774,36.786,18.046,33.737,27.517,7.206,5.151,6.918
328,0.787,36.442,17.983,33.737,27.521,7.328,5.153,6.959
329,0.797,36.535,18.095,33.718,27.521,7.289,5.071,6.838
330,0.803,36.67,18.054,33.737,27.528,7.288,5.07,6.918
331,0.797,36.757,18.034,33.728,27.521,7.247,4.989,6.756
332,0.794,36.509,18.022,33.737,27.524,7.166,5.11,6.876
333,0.78,36.669,17.971,33.728,27.524,7.206,5.152,7.0
334,0.777,36.786,18.06,33.737,27.524,7.165,5.112,6.879
335,0.777,36.893,17.999,33.756,27.524,7.287,5.152,6.877
336,0.764,36.501,18.076,33.766,27.528,7.166,5.112,6.837
337,0.757,36.612,18.038,33.699,27.517,7.084,5.112,6.918
338,0.77,36.738,18.061,33.708,27.528,7.205,5.152,6.959
339,0.757,36.816,18.065,33.737,27.535,7.043,5.071,6.96
340,0.757,36.404,17.975,33.766,27.531,7.164,5.152,7.0
341,0.754,36.505,18.049,33.728,27.524,7.084,5.112,6.96
342,0.744,36.612,17.971,33.718,27.514,7.083,5.071,6.919
343,0.764,36.651,18.091,33.737,27.528,7.083,5.07,6.959
344,0.767,36.527,18.132,33.718,27.528,7.042,5.111,6.919
345,0.803,36.718,18.007,33.756,27.538,7.164,5.193,7.041
346,0.8,36.815,18.049,33.737,27.528,7.124,5.112,6.96
347,0.8,36.807,17.999,33.718,27.521,7.043,5.071,6.96
348,0.8,36.49,18.057,33.727,27.524,7.082,5.152,7.082
349,0.79,36.612,17.901,33.708,27.517,7.042,5.112,6.961
350,0.78,36.747,18.079,33.747,27.545,7.082,5.152,7.0
351,0.787,36.739,18.077,33.728,27.528,7.002,5.071,6.96
352,0.78,36.528,18.003,33.699,27.521,6.96,5.03,7.041
353,0.78,36.67,18.033,33.775,27.528,7.0,5.151,7.082
354,0.777,36.767,17.936,33.709,27.524,7.001,5.031,7.042
355,0.784,36.538,18.126,33.737,27.531,7.001,5.151,7.001
356,0.774,36.583,18.031,33.728,27.528,6.919,5.071,6.96
357,0.767,36.718,17.975,33.699,27.524,6.878,5.03,7.0
358,0.764,36.815,18.107,33.708,27.524,6.918,5.111,7.123
359,0.754,36.519,17.972,33.708,27.528,6.919,5.071,7.043
360,0.764,36.717,18.033,33.775,27.535,6.878,5.152,7.042
361,0.764,36.787,17.909,33.709,27.524,6.796,5.071,6.96
362,0.751,36.864,18.005,33.708,27.528,6.673,5.07,7.0
363,0.761,36.548,17.998,33.708,27.528,6.835,5.193,7.001
364,0.764,36.67,18.096,33.718,27.524,6.755,5.112,7.082
365,0.793,36.844,18.108,33.814,27.535,6.836,5.112,7.083
366,0.774,36.893,17.987,33.719,27.528,6.755,4.989,6.961
367,0.774,36.414,18.107,33.708,27.517,6.714,5.029,6.96
368,0.784,36.592,17.948,33.727,27.528,6.876,5.192,7.041
369,0.787,36.718,18.021,33.699,27.521,6.755,5.112,6.96
370,0.806,36.815,18.002,33.727,27.531,6.795,5.152,7.0
371,0.794,36.567,18.088,33.718,27.524,6.714,5.071,6.919
372,0.777,36.689,18.093,33.68,27.517,6.754,5.07,6.959
373,0.787,36.806,17.944,33.708,27.524,6.836,5.152,6.96
374,0.777,36.845,18.048,33.708,27.524,6.714,5.071,6.919
375,0.78,36.529,17.948,33.727,27.535,6.876,5.111,6.959
376,0.777,36.66,18.06,33.708,27.528,6.796,5.152,6.878
377,0.78,36.757,17.987,33.699,27.524,6.673,5.031,6.837
378,0.771,36.835,18.025,33.708,27.528,6.835,5.151,6.958
379,0.761,36.577,18.1,33.708,27.524,6.714,5.193,6.878
380,0.774,36.728,18.015,33.747,27.535,6.916,5.194,6.918
381,0.751,36.825,18.068,33.728,27.535,6.715,5.153,6.878
382,0.748,36.462,17.909,33.699,27.524,6.713,5.031,6.837
383,0.773,36.506,18.06,33.718,27.528,6.794,5.192,6.877
384,0.767,36.641,17.96,33.689,27.524,6.714,5.194,6.877
385,0.78,36.748,18.076,33.746,27.535,6.794,5.153,6.959
386,0.79,36.432,18.046,33.709,27.528,6.673,5.153,6.878
387,0.777,36.506,18.034,33.699,27.514,6.631,5.031,6.877
388,0.784,36.66,18.088,33.708,27.528,6.712,5.192,6.959
389,0.8,36.748,17.956,33.699,27.528,6.672,5.112,6.878
390,0.777,36.547,18.056,33.737,27.535,6.794,5.274,6.877
391,0.774,36.679,18.018,33.699,27.531,6.714,5.032,6.837
392,0.784,36.757,18.018,33.698,27.517,6.551,5.03,6.837
393,0.784,36.854,18.115,33.708,27.528,6.671,5.151,6.918
394,0.767,36.347,17.898,33.699,27.528,6.631,5.193,6.878
395,0.77,36.524,18.013,33.727,27.538,6.794,5.234,6.959
396,0.767,36.631,18.104,33.718,27.528,6.633,5.113,6.96
397,0.757,36.652,17.917,33.699,27.521,6.55,5.152,6.838
398,0.764,36.546,18.04,33.708,27.528,6.671,5.193,6.877
399,0.757,36.67,17.94,33.699,27.524,6.631,5.194,6.877
400,0.754,36.815,18.103,33.746,27.538,6.672,5.234,7.0
401,0.761,36.836,17.96,33.728,27.528,6.631,5.153,6.919
402,0.77,36.5,17.92,33.699,27.517,6.55,5.071,6.837
403,0.767,36.65,18.029,33.698,27.521,6.671,5.274,6.918
404,0.757,36.709,17.963,33.698,27.528,6.509,5.154,6.878
405,0.77,36.94,18.068,33.718,27.535,6.752,5.315,7.04
406,0.767,36.559,17.921,33.775,27.528,6.673,5.236,6.92
407,0.774,36.689,18.005,33.69,27.517,6.631,5.113,6.878
408,0.797,36.786,17.994,33.689,27.528,6.712,5.152,6.877
409,0.777,36.433,17.998,33.67,27.521,6.632,5.193,6.877
410,0.787,36.525,18.053,33.708,27.528,6.794,5.316,7.04
411,0.8,36.66,17.991,33.708,27.531,6.755,5.195,7.001
412,0.774,36.729,18.115,33.67,27.521,6.714,5.072,6.96
413,0.777,36.461,18.023,33.708,27.524,6.713,5.193,7.0
414,0.774,36.544,18.08,33.67,27.528,6.754,5.194,6.919
415,0.764,36.708,18.03,33.708,27.521,6.836,5.234,7.041
416,0.761,36.796,17.948,33.708,27.521,6.877,5.194,6.96
417,0.761,36.433,18.091,33.67,27.521,6.796,5.072,6.96
418,0.764,36.573,17.968,33.727,27.528,6.917,5.111,6.96
419,0.764,36.689,18.017,33.66,27.517,6.878,5.152,7.0
420,0.748,36.748,18.065,33.688,27.531,7.04,5.234,7.082
421,0.751,36.423,18.03,33.67,27.528,7.082,5.153,7.042
422,0.757,36.534,18.065,33.689,27.521,7.002,5.112,6.92
423,0.764,36.67,17.882,33.698,27.521,7.082,5.152,6.919
424,0.777,36.7,18.02,33.651,27.514,6.961,5.071,6.878
425,0.767,36.393,17.897,33.679,27.514,7.122,5.193,7.04
426,0.774,36.553,18.056,33.708,27.528,7.124,5.234,7.001
427,0.764,36.651,18.061,33.708,27.524,7.083,5.113,6.879
428,0.78,36.69,17.983,33.689,27.531,7.123,5.152,6.959
429,0.777,36.412,18.095,33.641,27.514,7.124,5.112,6.838
430,0.78,36.573,17.956,33.698,27.524,7.205,5.193,6.958
431,0.787,36.699,18.052,33.689,27.531,7.287,5.194,6.919
432,0.777,37.017,17.936,33.679,27.517,7.125,5.194,6.796
433,0.787,36.559,18.072,33.679,27.524,7.205,5.153,6.877
434,0.787,36.66,18.089,33.67,27.514,7.125,5.153,6.837
435,0.774,36.767,18.026,33.679,27.528,7.205,5.275,7.04
436,0.774,36.442,18.076,33.689,27.528,7.247,5.195,7.001
437,0.761,36.429,17.999,33.67,27.517,7.166,5.112,6.879
438,0.757,36.573,18.08,33.679,27.524,7.206,5.193,6.918
439,0.751,36.661,17.894,33.67,27.514,7.247,5.072,6.919
440,0.764,36.46,18.013,33.679,27.524,7.369,5.274,6.959
441,0.77,36.592,18.076,33.689,27.528,7.411,5.195,6.919
442,0.764,36.718,18.003,33.679,27.524,7.371,5.153,6.837
443,0.767,36.806,18.139,33.679,27.524,7.37,5.193,6.958
444,0.761,36.222,17.894,33.66,27.514,7.289,5.112,6.838
445,0.78,36.388,18.009,33.669,27.524,7.451,5.193,6.918
446,0.806,36.534,18.1,33.689,27.531,7.452,5.194,6.919
447,0.8,36.593,18.007,33.67,27.521,7.33,5.153,6.796
448,0.79,36.354,18.076,33.689,27.528,7.41,5.153,6.877
449,0.79,36.486,17.987,33.66,27.521,7.33,5.153,6.796
450,0.784,36.612,18.135,33.679,27.528,7.41,5.315,6.917
451,0.787,36.68,17.937,33.708,27.531,7.411,5.195,6.837
452,0.774,36.393,17.978,33.708,27.524,7.289,5.112,6.796
453,0.79,36.515,17.986,33.67,27.524,7.369,5.193,6.877
454,0.78,36.574,17.975,33.66,27.521,7.33,5.153,6.837
455,0.79,36.641,18.099,33.688,27.528,7.451,5.315,6.999
456,0.797,36.374,17.894,33.698,27.524,7.371,5.236,6.919
457,0.767,36.505,18.052,33.67,27.524,7.289,5.072,6.796
458,0.777,36.631,17.967,33.669,27.524,7.329,5.152,6.836
459,0.754,36.853,18.041,33.65,27.521,7.329,5.153,6.918
460,0.738,36.452,17.956,33.669,27.528,7.41,5.315,7.041
461,0.741,36.573,17.99,33.698,27.524,7.33,5.195,6.92
462,0.757,36.68,18.06,33.651,27.524,7.248,5.153,6.837
463,0.761,36.403,18.003,33.66,27.528,7.41,5.193,6.958
464,0.761,36.371,18.092,33.631,27.517,7.208,5.153,6.878
465,0.78,36.524,17.937,33.765,27.535,7.409,5.234,7.04
466,0.78,36.641,17.99,33.68,27.535,7.33,5.235,7.001
467,0.777,36.287,18.068,33.66,27.518,7.207,5.153,6.879
468,0.777,36.408,17.979,33.679,27.524,7.328,5.234,6.959
469,0.784,36.534,18.029,33.65,27.521,7.289,5.153,6.96
470,0.784,36.631,17.959,33.669,27.531,7.329,5.356,7.082
471,0.79,36.91,18.138,33.669,27.531,7.289,5.195,6.961
472,0.784,37.019,17.999,33.66,27.524,7.166,5.153,6.878
473,0.784,37.125,17.955,33.669,27.528,7.206,5.153,6.918
474,0.777,37.203,18.009,33.65,27.524,7.125,5.193,6.878
475,0.764,36.082,17.908,33.669,27.535,7.205,5.356,7.0
476,0.77,36.234,18.091,33.669,27.531,7.247,5.195,6.96
477,0.777,36.35,17.917,33.65,27.528,7.125,5.153,6.838
478,0.774,36.419,17.958,33.669,27.524,7.165,5.112,6.918
479,0.751,36.304,18.08,33.622,27.514,7.124,5.152,6.919
480,0.767,36.456,17.96,33.659,27.528,7.165,5.275,7.081
481,0.757,36.611,17.974,33.679,27.524,7.124,5.276,6.88
482,0.764,36.613,17.881,33.65,27.524,7.002,5.113,6.837
483,0.767,36.325,18.005,33.669,27.531,7.123,5.193,6.877
484,0.754,36.428,17.998,33.631,27.514,6.88,5.112,6.837
485,0.764,36.544,18.033,33.631,27.524,7.081,5.274,6.958
486,0.774,36.564,18.076,33.65,27.531,7.083,5.154,6.878
487,0.761,36.239,17.925,33.66,27.521,6.961,5.153,6.796
488,0.77,36.379,18.036,33.65,27.524,7.082,5.234,6.917
489,0.767,36.476,18.069,33.669,27.514,6.88,5.113,6.756
490,0.774,36.295,17.964,33.65,27.521,6.959,5.193,6.876
491,0.8,36.322,18.068,33.65,27.524,7.0,5.194,6.837
492,0.781,36.437,18.01,33.641,27.521,6.879,5.153,6.755
493,0.787,36.563,18.096,33.64,27.524,6.959,5.234,6.795
494,0.777,36.21,17.921,33.621,27.514,6.838,4.991,6.755
495,0.764,36.331,18.013,33.621,27.51,6.918,5.232,6.876
496,0.77,36.457,18.065,33.659,27.514,7.0,5.194,6.918
497,0.767,36.554,17.948,33.641,27.514,6.919,5.072,6.756
498,0.78,36.238,18.056,33.64,27.514,6.959,5.152,6.876
499,0.78,36.379,17.897,33.621,27.51,6.838,5.071,6.715
500,0.758,36.486,18.095,33.631,27.507,6.837,5.152,6.835
501,0.754,36.573,17.987,33.65,27.524,6.958,5.275,6.877
502,0.764,36.229,17.943,33.621,27.524,6.878,5.195,6.796
503,0.777,36.369,18.025,33.64,27.521,6.918,5.194,6.836
504,0.78,36.486,17.963,33.612,27.521,6.796,5.031,6.714
505,0.774,36.525,18.06,33.611,27.517,6.877,5.151,6.794
506,0.78,36.229,17.921,33.65,27.524,6.918,5.234,6.836
507,0.777,36.398,18.021,33.65,27.517,6.878,5.153,6.755
508,0.79,36.534,17.951,33.65,27.521,6.877,5.234,6.836
509,0.787,36.545,18.044,33.631,27.514,6.918,5.072,6.633
510,0.777,36.171,18.069,33.64,27.517,6.837,5.152,6.794
511,0.793,36.33,17.991,33.631,27.524,6.958,5.234,6.877
512,0.777,36.438,18.092,33.64,27.528,6.96,5.113,6.755
513,0.784,36.496,18.019,33.65,27.528,7.041,5.152,6.836
514,0.774,36.286,18.162,33.631,27.521,7.082,5.071,6.714
515,0.751,36.38,17.922,33.612,27.521,7.164,5.152,6.672
516,0.757,36.515,18.001,33.65,27.531,7.368,5.193,6.794
517,0.767,36.353,18.111,33.631,27.521,7.33,5.153,6.755
518,0.787,36.351,17.956,33.669,27.524,7.451,5.193,6.795
519,0.774,36.467,18.076,33.631,27.517,7.493,5.072,6.714
520,0.754,36.525,17.917,33.612,27.524,7.534,5.111,6.754
521,0.761,36.286,18.095,33.631,27.528,7.738,5.152,6.795
522,0.77,36.399,18.073,33.621,27.521,7.74,5.112,6.755
523,0.79,36.553,18.003,33.65,27.531,7.781,5.193,6.754
524,0.78,36.641,18.033,33.631,27.521,7.781,5.112,6.632
525,0.774,36.048,17.952,33.602,27.521,7.7,5.152,6.753
526,0.78,36.205,18.083,33.63,27.524,7.74,5.234,6.795
527,0.787,36.321,17.944,33.631,27.521,7.781,5.194,6.755
528,0.819,36.437,18.025,33.659,27.535,7.862,5.194,6.714
529,0.79,36.199,18.1,33.602,27.528,7.741,5.194,6.713
530,0.787,36.35,17.987,33.611,27.521,7.781,5.153,6.632
531,0.793,36.505,18.033,33.65,27.528,7.781,5.193,6.753
532,0.784,36.535,17.909,33.621,27.524,7.7,5.153,6.754
533,0.78,36.219,18.024,33.64,27.535,7.902,5.193,6.754
534,0.777,36.36,18.061,33.64,27.524,7.66,5.234,6.714
535,0.774,36.447,17.987,33.612,27.517,7.576,5.113,6.672
536,0.774,36.525,18.049,33.621,27.531,7.616,5.193,6.794
537,0.748,36.123,17.936,33.621,27.524,7.535,5.112,6.755
538,0.764,36.282,18.048,33.631,27.538,7.697,5.274,6.836
539,0.754,36.399,17.948,33.698,27.528,7.577,5.235,6.796
540,0.764,36.419,17.974,33.612,27.517,7.535,5.153,6.795
541,0.764,36.256,18.045,33.602,27.524,7.534,5.234,6.795
542,0.754,36.351,18.014,33.592,27.521,7.453,5.153,6.836
543,0.761,36.514,18.104,33.63,27.535,7.656,5.356,6.918
544,0.774,36.334,17.933,33.612,27.528,7.576,5.195,6.837
545,0.774,36.236,18.009,33.602,27.524,7.575,5.112,6.796
546,0.771,36.369,17.924,33.63,27.524,7.575,5.152,6.877
547,0.774,36.428,17.982,33.602,27.521,7.575,5.153,6.837
548,0.774,36.074,18.049,33.621,27.535,7.698,5.275,6.999
549,0.79,36.176,18.014,33.621,27.528,7.74,5.195,6.797
550,0.774,36.283,18.127,33.592,27.524,7.618,5.153,6.673
551,0.774,36.399,17.937,33.621,27.531,7.698,5.275,6.875
552,0.758,36.103,18.017,33.621,27.528,7.618,5.154,6.796
553,0.764,36.272,17.979,33.621,27.535,7.779,5.275,6.999
554,0.777,36.399,17.986,33.621,27.528,7.7,5.154,6.879
555,0.764,36.457,18.049,33.592,27.521,7.577,5.071,6.715
556,0.777,36.074,17.85,33.63,27.524,7.657,5.152,6.794
557,0.761,36.186,18.032,33.612,27.524,7.617,5.153,6.836
558,0.767,36.35,17.959,33.621,27.531,7.779,5.356,6.918
559,0.761,36.399,18.013,33.631,27.531,7.7,5.195,6.878
560,0.764,36.103,17.905,33.592,27.524,7.658,5.153,6.796
561,0.754,36.263,18.005,33.602,27.524,7.739,5.153,6.836
562,0.774,36.36,18.061,33.583,27.517,7.659,5.153,6.755
563,0.774,36.409,18.03,33.602,27.535,7.78,5.234,6.957
564,0.787,36.112,18.088,33.602,27.528,7.781,5.194,6.919
565,0.767,36.272,17.952,33.583,27.514,7.7,5.153,6.837
566,0.751,36.379,17.998,33.602,27.528,7.78,5.234,6.837
567,0.751,36.371,18.061,33.573,27.517,7.7,5.153,6.837
568,0.774,36.093,17.979,33.668,27.528,7.821,5.315,6.918
569,0.793,36.243,18.025,33.602,27.528,7.863,5.236,6.837
570,0.787,36.331,17.983,33.583,27.521,7.578,5.113,6.755
571,0.793,36.284,18.099,33.592,27.528,7.698,5.193,6.876
572,0.784,36.149,17.952,33.563,27.514,7.658,5.194,6.837
573,0.767,36.33,17.978,33.592,27.535,7.739,5.234,6.999
574,0.774,36.438,18.033,33.611,27.528,7.74,5.194,6.838
575,0.774,36.113,17.952,33.592,27.528,7.659,5.112,6.796
576,0.767,36.224,18.08,33.602,27.531,7.658,5.234,6.877
577,0.761,36.331,17.933,33.573,27.521,7.536,5.113,6.837
578,0.764,36.428,18.017,33.592,27.524,7.697,5.234,6.918
579,0.754,36.017,18.084,33.592,27.528,7.658,5.235,6.919
580,0.748,36.137,17.968,33.582,27.524,7.536,5.072,6.837
581,0.747,36.282,18.045,33.621,27.521,7.575,5.193,6.837
582,0.741,36.312,17.874,33.554,27.51,7.494,5.072,6.714
583,0.754,36.083,18.001,33.592,27.528,7.616,5.233,6.876
584,0.761,36.253,18.068,33.602,27.528,7.535,5.194,6.877
585,0.761,36.351,18.038,33.592,27.521,7.412,5.112,6.796
586,0.774,36.428,18.088,33.602,27.521,7.493,5.193,6.836
587,0.777,36.036,17.968,33.563,27.514,7.29,5.153,6.796
588,0.78,36.176,18.076,33.573,27.521,7.451,5.315,6.958
589,0.787,36.35,17.893,33.601,27.528,7.452,5.195,6.838
590,0.787,36.361,17.997,33.573,27.517,7.371,5.072,6.755
591,0.797,36.026,18.049,33.573,27.528,7.33,5.152,6.754
592,0.777,36.166,18.022,33.544,27.517,7.289,5.112,6.754
593,0.777,36.283,18.111,33.582,27.524,7.369,5.152,6.795
594,0.774,36.332,17.929,33.592,27.528,7.411,5.275,6.755
595,0.771,36.159,17.993,33.573,27.524,7.371,5.073,6.714
596,0.774,36.273,18.068,33.582,27.521,7.37,5.193,6.754
597,0.758,36.379,17.968,33.554,27.514,7.33,5.072,6.754
598,0.767,36.246,18.037,33.572,27.524,7.451,5.193,6.795
599,0.761,36.015,17.936,33.582,27.535,7.534,5.153,6.755
600,0.767,36.156,18.087,33.573,27.521,7.494,5.112,6.714
601,0.767,36.263,17.921,33.573,27.521,7.575,5.152,6.713
602,0.774,36.101,17.947,33.544,27.514,7.454,5.031,6.672
603,0.767,36.196,17.88,33.572,27.524,7.656,5.233,6.713
604,0.774,36.331,17.934,33.582,27.521,7.658,5.153,6.794
605,0.774,36.409,18.056,33.554,27.521,7.617,5.071,6.673
606,0.787,35.901,17.882,33.572,27.521,7.617,5.193,6.753
607,0.767,36.021,17.997,33.544,27.514,7.576,5.153,6.714
608,0.754,36.137,17.955,33.563,27.517,7.698,5.234,6.794
609,0.78,36.234,18.017,33.582,27.531,7.78,5.194,6.714
610,0.787,35.948,18.029,33.64,27.528,7.781,5.194,6.632
611,0.787,36.108,17.983,33.564,27.528,7.781,5.194,6.712
612,0.784,36.215,18.017,33.525,27.514,7.781,5.072,6.632
613,0.787,36.283,17.987,33.572,27.531,7.944,5.233,6.794
614,0.787,36.025,18.131,33.563,27.524,7.986,5.153,6.755
615,0.771,36.147,17.859,33.573,27.528,7.946,5.153,6.632
616,0.774,36.311,18.024,33.582,27.528,8.026,5.153,6.631
617,0.764,36.322,17.971,33.544,27.514,7.865,5.112,6.59
618,0.77,35.968,17.951,33.563,27.524,7.985,5.274,6.753
619,0.774,36.156,18.017,33.582,27.528,8.068,5.235,6.714
620,0.784,36.254,17.967,33.573,27.521,7.865,5.153,6.632
621,0.767,36.283,18.111,33.573,27.524,8.026,5.153,6.712
622,0.767,36.054,17.921,33.525,27.514,7.865,5.031,6.632
623,0.764,36.205,17.943,33.563,27.528,7.944,5.192,6.753
624,0.767,36.321,18.017,33.563,27.524,8.026,5.153,6.673
625,0.774,36.274,17.959,33.553,27.517,7.987,5.112,6.672
626,0.787,35.996,18.076,33.553,27.521,8.027,5.193,6.672
627,0.777,36.127,17.929,33.544,27.51,7.946,5.031,6.631
628,0.777,36.234,18.017,33.544,27.524,8.108,5.151,6.834
629,0.793,35.996,18.1,33.563,27.528,8.191,5.193,6.674
630,0.793,36.06,17.991,33.525,27.517,8.11,5.153,6.591
631,0.793,36.224,18.049,33.591,27.528,8.109,5.153,6.712
632,0.774,36.293,17.936,33.525,27.514,7.947,5.071,6.591
633,0.777,35.948,18.033,33.553,27.521,8.108,5.193,6.793
634,0.793,36.088,17.963,33.563,27.531,8.109,5.153,6.714
635,0.78,36.205,18.033,33.534,27.524,8.109,5.153,6.713
636,0.78,36.302,18.073,33.524,27.521,8.109,5.193,6.632
637,0.771,35.929,17.968,33.515,27.51,7.947,5.072,6.631
638,0.77,36.088,18.091,33.553,27.521,8.067,5.233,6.753
639,0.761,36.243,17.925,33.63,27.531,8.191,5.235,6.714
640,0.774,36.302,18.017,33.544,27.521,8.029,5.194,6.672
641,0.777,36.082,18.065,33.553,27.524,8.068,5.153,6.713
642,0.774,36.195,17.987,33.525,27.51,7.946,5.153,6.672
643,0.784,36.34,18.103,33.524,27.521,8.067,5.193,6.835
644,0.793,36.39,17.937,33.553,27.528,8.028,5.194,6.674
645,0.797,35.911,17.966,33.525,27.521,7.987,5.153,6.713
646,0.803,36.079,18.06,33.534,27.531,8.027,5.153,6.713
647,0.794,36.167,17.925,33.515,27.517,7.905,4.99,6.713
648,0.806,36.196,18.017,33.553,27.521,7.945,5.151,6.876
649,0.833,36.091,17.924,33.544,27.531,7.986,5.112,6.796
650,0.839,36.195,18.083,33.524,27.514,7.905,5.152,6.714
651,0.843,36.35,17.972,33.563,27.528,7.945,5.153,6.794
652,0.82,36.351,17.869,33.534,27.524,7.905,5.153,6.755
653,0.826,35.939,18.032,33.534,27.531,8.026,5.275,6.998
654,0.839,36.088,17.94,33.524,27.531,7.987,5.195,6.879
655,0.826,36.176,18.048,33.534,27.524,7.905,5.072,6.877
656,0.826,36.005,17.854,33.544,27.521,8.026,5.152,6.959
657,0.82,36.032,17.985,33.505,27.514,7.987,5.193,6.96
658,0.836,36.195,17.947,33.534,27.531,8.19,5.234,7.204
659,0.846,36.302,18.021,33.553,27.524,8.314,5.235,7.003
660,0.853,35.91,18.026,33.515,27.521,8.315,5.113,7.041
661,0.856,36.031,17.94,33.534,27.521,8.396,5.193,7.042
662,0.846,36.137,18.029,33.496,27.517,8.397,5.194,7.042
663,0.833,36.225,17.967,33.534,27.528,8.6,5.316,7.204
664,0.836,35.871,18.076,33.534,27.538,8.521,5.276,7.165
665,0.843,36.021,18.053,33.515,27.521,8.439,5.154,7.043
666,0.859,36.137,17.952,33.534,27.528,8.601,5.193,7.123
667,0.862,36.196,18.076,33.515,27.514,8.562,5.112,7.124
668,0.866,35.938,17.944,33.601,27.531,8.724,5.315,7.327
669,0.879,36.108,18.044,33.535,27.528,8.685,5.236,7.126
670,0.866,36.205,17.948,33.524,27.517,8.562,5.072,7.083
671,0.869,36.273,18.04,33.515,27.528,8.602,5.193,7.164
672,0.863,35.833,18.034,33.515,27.528,8.684,5.234,7.165
673,0.879,36.001,17.924,33.553,27.535,8.766,5.316,7.246
674,0.892,36.118,18.017,33.515,27.528,8.645,5.236,7.125
675,0.905,36.148,17.893,33.534,27.524,8.603,5.113,7.083
676,0.912,35.918,18.063,33.515,27.521,8.602,5.193,7.083
677,0.899,36.04,17.893,33.486,27.528,8.562,5.194,7.083
678,0.928,36.166,17.962,33.524,27.531,8.602,5.316,7.164
679,0.935,36.426,18.08,33.534,27.528,8.602,5.154,7.165
680,0.935,35.921,17.917,33.505,27.521,8.602,5.112,7.043
681,0.925,36.069,18.025,33.524,27.524,8.602,5.152,7.082
682,0.918,36.166,17.885,33.467,27.514,8.765,5.112,7.042
683,0.925,35.861,18.044,33.505,27.528,9.011,5.234,7.164
684,0.935,35.896,18.065,33.505,27.528,9.176,5.113,7.124
685,0.918,36.03,17.999,33.505,27.521,9.38,5.152,6.961
686,0.931,36.147,18.037,33.505,27.524,9.627,5.234,7.122
687,0.931,35.832,17.963,33.467,27.514,9.792,5.153,7.002
688,0.918,35.963,18.033,33.505,27.524,10.118,5.315,7.123
689,0.948,36.108,17.905,33.505,27.531,10.284,5.276,7.043
690,0.941,36.196,17.966,33.486,27.521,10.408,5.195,6.96
691,0.945,35.861,18.056,33.495,27.528,10.694,5.194,7.041
692,0.919,35.953,17.96,33.476,27.524,10.819,5.194,6.96
693,0.915,36.098,18.107,33.495,27.528,10.983,5.397,7.163
694,0.922,36.186,17.909,33.505,27.535,11.147,5.318,7.002
695,0.896,35.947,18.021,33.486,27.518,11.149,5.195,6.919
696,0.886,36.079,18.006,33.495,27.531,11.271,5.316,7.0
697,0.866,36.176,17.967,33.466,27.514,11.272,5.154,6.96
698,0.853,36.244,18.029,33.505,27.531,11.394,5.234,7.082
699,0.84,35.823,18.002,33.514,27.528,11.436,5.316,7.042
700,0.843,35.934,18.092,33.486,27.524,11.395,5.195,6.96
701,0.859,36.05,17.956,33.495,27.517,11.436,5.234,6.96
702,0.853,36.138,18.029,33.495,27.51,11.233,5.235,6.96
703,0.862,35.879,17.873,33.486,27.528,11.312,5.316,7.041
704,0.856,36.049,18.04,33.514,27.524,11.232,5.317,7.042
705,0.853,36.157,18.002,33.476,27.517,11.027,5.236,6.92
706,0.853,36.532,18.022,33.495,27.517,11.066,5.275,6.959
707,0.846,36.008,18.033,33.476,27.507,10.782,5.113,6.878
708,0.84,36.137,17.991,33.476,27.521,10.82,5.315,6.959
709,0.843,36.244,18.053,33.485,27.524,10.739,5.276,7.0
710,0.839,35.9,17.893,33.466,27.521,10.575,5.195,6.879
711,0.852,35.935,17.97,33.485,27.521,10.492,5.316,6.918
712,0.84,36.031,18.08,33.486,27.521,10.166,5.114,6.837
713,0.81,36.147,17.956,33.466,27.514,10.204,5.234,6.918
714,0.82,35.889,18.052,33.485,27.524,10.163,5.235,7.0
715,0.8,36.03,17.999,33.495,27.524,10.041,5.235,6.879
716,0.816,36.195,17.971,33.505,27.524,9.958,5.316,6.959
717,0.8,36.235,18.08,33.467,27.517,9.795,5.154,6.838
718,0.777,35.804,17.921,33.514,27.521,9.671,5.234,6.958
719,0.78,35.972,18.025,33.486,27.528,9.711,5.316,7.0
720,0.787,36.079,17.909,33.457,27.524,9.508,5.276,6.919
721,0.793,36.195,18.064,33.485,27.528,9.465,5.316,6.959
722,0.78,35.87,18.038,33.466,27.521,9.302,5.073,6.838
723,0.777,35.982,17.862,33.466,27.514,9.26,5.233,6.877
724,0.774,36.127,18.001,33.485,27.521,9.259,5.316,7.0
725,0.787,36.167,17.889,33.476,27.524,9.219,5.276,6.96
726,0.79,35.909,18.056,33.495,27.531,9.259,5.276,6.96
727,0.777,36.021,17.901,33.486,27.524,9.178,5.195,6.878
728,0.758,36.128,18.005,33.447,27.517,9.218,5.234,6.959
729,0.761,36.186,18.072,33.476,27.531,9.3,5.316,6.919
730,0.77,35.765,17.952,33.457,27.521,9.341,5.195,6.919
731,0.774,35.924,18.072,33.495,27.524,9.301,5.275,6.959
732,0.751,36.021,17.94,33.466,27.528,9.26,5.235,6.838
733,0.744,36.137,18.021,33.466,27.521,9.381,5.235,6.958
734,0.744,35.889,17.92,33.476,27.524,9.667,5.316,7.041
735,0.734,36.03,17.974,33.476,27.521,9.792,5.317,7.001
736,0.738,36.176,18.021,33.476,27.528,9.956,5.317,7.001
737,0.721,35.841,17.959,33.476,27.521,9.998,5.195,6.96
738,0.721,35.819,18.029,33.447,27.521,10.121,5.194,6.96
739,0.724,35.972,17.858,33.485,27.521,10.284,5.356,7.082
740,0.728,36.05,17.942,33.457,27.517,10.367,5.317,6.961
741,0.721,35.898,18.068,33.495,27.535,10.531,5.317,7.082
742,0.724,35.983,17.991,33.476,27.524,10.451,5.317,6.961
743,0.728,36.089,18.068,33.438,27.521,10.45,5.236,7.0
744,0.738,36.215,17.862,33.475,27.531,10.572,5.397,7.123
745,0.734,35.794,17.989,33.457,27.521,10.533,5.318,7.083
746,0.757,35.943,17.955,33.495,27.535,10.614,5.358,7.042
747,0.754,36.06,17.943,33.486,27.521,10.493,5.317,7.001
748,0.751,36.118,17.99,33.438,27.514,10.491,5.276,7.082
749,0.754,35.755,18.025,33.456,27.528,10.573,5.357,7.123
750,0.751,35.885,18.08,33.437,27.521,10.492,5.358,7.002
751,0.764,36.05,17.944,33.485,27.531,10.491,5.399,7.082
752,0.757,36.09,18.029,33.466,27.517,10.369,5.318,6.961
753,0.735,35.783,17.905,33.447,27.51,10.368,5.398,7.041
754,0.738,35.924,18.044,33.456,27.521,10.409,5.318,7.123
755,0.738,36.05,17.979,33.447,27.514,10.206,5.317,7.124
756,0.734,36.118,18.037,33.485,27.524,10.163,5.398,7.083
757,0.712,35.87,18.037,33.438,27.521,10.0,5.318,7.002
758,0.724,36.001,18.01,33.418,27.517,9.917,5.317,7.082
759,0.715,36.127,18.006,33.447,27.521,9.916,5.358,7.205
760,0.724,36.148,17.979,33.428,27.517,9.835,5.277,7.125
761,0.744,35.851,17.963,33.475,27.535,9.712,5.398,7.124
762,0.76,35.963,18.076,33.438,27.521,9.548,5.236,6.961
763,0.754,36.041,17.975,33.428,27.517,9.506,5.235,7.122
764,0.764,35.859,18.095,33.437,27.524,9.506,5.357,7.124
765,0.761,35.877,17.913,33.428,27.514,9.303,5.317,7.043
766,0.761,36.03,18.013,33.466,27.517,9.26,5.358,7.164
767,0.741,36.118,18.041,33.447,27.514,9.097,5.195,6.962
768,0.731,35.726,17.967,33.437,27.521,9.054,5.356,7.122
769,0.747,35.866,18.037,33.456,27.524,9.013,5.358,7.124
770,0.754,35.992,17.936,33.437,27.521,8.932,5.317,7.083
771,0.774,36.108,18.064,33.437,27.521,8.85,5.317,7.002
772,0.754,35.735,17.983,33.428,27.514,8.686,5.154,6.919
773,0.735,35.847,17.896,33.437,27.514,8.684,5.315,7.041
774,0.751,35.992,18.04,33.456,27.528,8.684,5.317,7.123
775,0.748,36.06,17.948,33.418,27.514,8.644,5.276,7.002
776,0.757,35.85,18.044,33.447,27.524,8.603,5.398,7.001
777,0.748,35.982,17.913,33.437,27.514,8.44,5.196,6.838
778,0.734,36.07,17.982,33.408,27.514,8.438,5.275,6.958
779,0.754,36.147,18.045,33.437,27.524,8.519,5.316,7.0
780,0.761,35.678,17.92,33.428,27.517,8.398,5.317,6.96
781,0.8,35.875,18.005,33.447,27.521,8.356,5.317,7.041
782,0.81,35.944,17.893,33.428,27.517,8.193,5.195,6.798
783,0.839,35.935,18.032,33.408,27.521,8.192,5.316,6.958
784,0.869,35.916,17.995,33.437,27.517,8.232,5.358,6.96
785,0.885,36.031,17.951,33.428,27.521,8.151,5.317,6.96
786,0.931,36.195,18.021,33.447,27.514,8.15,5.276,6.96
787,0.954,36.187,17.959,33.418,27.507,8.069,5.235,6.838
788,0.971,35.688,17.998,33.418,27.514,8.069,5.357,6.958
789,1.013,35.856,17.893,33.418,27.521,8.272,5.317,6.919
790,1.036,35.944,17.981,33.408,27.514,8.152,5.317,6.878
791,1.066,35.897,18.076,33.408,27.521,8.273,5.317,6.918
792,1.086,35.858,17.991,33.399,27.517,8.193,5.154,6.837
793,1.122,35.982,18.006,33.398,27.517,8.273,5.315,6.958
794,1.148,36.108,17.811,33.437,27.524,8.274,5.358,6.96
795,1.204,35.687,17.906,33.418,27.521,8.314,5.317,7.0
796,1.253,35.798,18.048,33.408,27.521,8.356,5.236,7.001
797,1.286,35.914,17.897,33.399,27.51,8.275,5.113,6.838
798,1.358,36.002,18.001,33.389,27.517,8.314,5.315,6.999
799,1.398,35.715,17.924,33.427,27.524,8.396,5.358,7.123
800,1.44,35.875,18.048,33.418,27.517,8.356,5.236,6.961
801,1.486,36.011,17.967,33.427,27.521,8.397,5.275,7.082
802,1.535,36.07,17.931,33.418,27.51,8.194,5.154,7.002
803,1.562,35.668,17.986,33.399,27.507,8.314,5.315,7.123
804,1.601,35.827,17.9,33.408,27.521,8.437,5.317,7.205
805,1.611,35.924,18.044,33.418,27.51,8.235,5.236,7.125
806,1.595,36.05,17.881,33.408,27.514,8.273,5.316,7.165
807,1.598,35.706,17.942,33.408,27.503,8.152,5.195,7.084
808,1.628,35.827,18.068,33.399,27.51,8.11,5.234,7.205
809,1.625,35.972,17.913,33.398,27.517,8.191,5.275,7.165
810,1.553,36.022,17.997,33.408,27.517,8.11,5.195,7.206
811,1.513,36.147,17.897,33.399,27.514,8.028,5.275,7.247
812,1.402,36.263,18.032,33.398,27.51,7.946,5.113,7.084
813,1.313,36.331,18.096,33.389,27.514,7.986,5.234,7.205
814,1.215,36.39,18.019,33.398,27.521,7.986,5.275,7.287
815,1.136,35.575,18.045,33.398,27.521,7.946,5.235,7.085
816,1.038,35.72,17.862,33.418,27.521,7.945,5.235,7.205
817,0.9,35.818,18.028,33.389,27.5,7.783,5.153,7.125
818,0.791,35.828,17.952,33.379,27.521,7.822,5.275,7.327
819,0.657,35.896,17.97,33.408,27.528,7.822,5.276,7.573
820,0.503,36.011,18.052,33.389,27.524,7.781,5.235,7.616
821,0.41,36.118,17.995,33.408,27.517,7.74,5.275,7.983
822,0.315,35.659,18.045,33.37,27.517,7.618,5.113,8.027
823,0.197,35.692,17.819,33.379,27.521,7.657,5.234,8.434
824,0.117,35.875,18.004,33.398,27.521,7.658,5.316,8.723
825,0.048,35.944,17.979,33.379,27.521,7.617,5.154,8.929
826,0.028,35.743,18.002,33.398,27.524,7.617,5.315,9.297
827,0.002,35.885,18.025,33.36,27.51,7.495,5.154,9.382
828,-0.034,35.992,17.928,33.369,27.517,7.575,5.315,9.708
829,-0.051,36.089,18.075,33.398,27.528,7.535,5.317,9.914
830,-0.083,35.63,17.851,33.379,27.524,7.494,5.236,9.998
831,-0.067,35.798,17.973,33.389,27.528,7.534,5.235,10.161
832,-0.087,35.914,18.029,33.37,27.521,7.331,5.153,10.163
833,-0.087,35.954,17.994,33.369,27.521,7.492,5.315,10.407
834,-0.042,35.695,18.135,33.398,27.528,7.616,5.317,10.531
835,-0.025,35.827,17.941,33.389,27.517,7.495,5.236,10.532
836,0.005,35.991,18.037,33.389,27.528,7.494,5.235,10.695
837,0.037,36.012,17.928,33.36,27.514,7.331,5.113,10.697
838,0.057,35.648,17.982,33.369,27.521,7.492,5.234,10.981
839,0.1,35.827,18.006,33.389,27.524,7.494,5.316,11.187
840,0.139,35.934,17.924,33.389,27.524,7.412,5.236,11.189
841,0.182,35.973,18.071,33.379,27.528,7.452,5.316,11.393
842,0.215,35.753,18.022,33.36,27.514,7.412,5.114,11.476
843,0.248,35.856,17.975,33.369,27.524,7.411,5.193,11.762
844,0.277,36.011,18.037,33.475,27.528,7.452,5.275,12.09
845,0.326,35.84,17.905,33.37,27.517,7.371,5.235,12.256
846,0.379,35.742,18.079,33.389,27.524,7.411,5.235,12.42
847,0.406,35.847,17.897,33.379,27.521,7.289,5.113,12.584
848,0.451,35.953,17.974,33.341,27.517,7.41,5.274,12.83
849,0.491,35.609,18.06,33.369,27.524,7.452,5.235,12.954
850,0.511,35.711,17.999,33.369,27.51,7.452,5.235,12.996
851,0.547,35.856,18.025,33.398,27.521,7.371,5.235,12.996
852,0.557,35.944,17.924,33.36,27.51,7.33,5.113,12.956
853,0.56,35.609,18.009,33.36,27.507,7.451,5.274,12.996
854,0.573,35.759,17.924,33.369,27.531,7.534,5.316,12.956
855,0.59,35.895,18.005,33.369,27.524,7.372,5.154,12.833
856,0.613,35.992,18.014,33.369,27.528,7.452,5.234,12.792
857,0.606,35.744,17.94,33.36,27.521,7.33,5.113,12.588
858,0.603,35.895,18.044,33.36,27.524,7.41,5.234,12.586
859,0.622,36.03,17.772,33.408,27.531,7.533,5.316,12.464
860,0.623,36.099,17.949,33.37,27.521,7.372,5.195,12.3
861,0.658,35.687,17.998,33.369,27.528,7.492,5.234,12.258
862,0.682,35.827,17.982,33.341,27.524,7.331,5.153,12.013
863,0.695,35.934,18.041,33.34,27.524,7.451,5.234,12.052
864,0.708,36.012,17.917,33.369,27.528,7.493,5.316,11.93
865,0.728,35.638,17.993,33.36,27.524,7.412,5.236,11.766
866,0.751,35.788,17.9,33.36,27.524,7.493,5.194,11.724
867,0.757,35.886,17.95,33.321,27.514,7.371,5.112,11.642
868,0.757,35.925,17.998,33.359,27.531,7.411,5.274,11.601
869,0.78,35.647,17.955,33.36,27.528,7.371,5.276,11.438
870,0.8,35.769,18.087,33.341,27.528,7.289,5.235,11.273
871,0.803,35.876,17.937,33.35,27.521,7.369,5.235,11.272
872,0.774,35.858,17.97,33.35,27.514,7.208,5.153,11.109
873,0.793,35.733,17.849,33.34,27.528,7.328,5.315,11.108
874,0.784,35.895,17.965,33.35,27.528,7.207,5.317,10.945
875,0.771,35.973,18.08,33.34,27.524,7.165,5.195,10.699
876,0.77,35.648,17.897,33.34,27.524,7.206,5.194,10.697
877,0.777,35.702,18.024,33.321,27.514,7.003,5.072,10.494
878,0.774,35.856,17.92,33.331,27.521,7.082,5.233,10.491
879,0.767,35.953,18.005,33.359,27.524,7.164,5.275,10.41
880,0.774,35.59,18.018,33.331,27.517,7.043,5.195,10.165
881,0.777,35.74,17.928,33.35,27.517,7.042,5.234,10.163
882,0.777,35.847,18.032,33.312,27.514,7.001,5.194,10.0
883,0.777,35.925,17.963,33.35,27.521,7.123,5.234,10.08
884,0.78,35.59,18.072,33.35,27.524,7.083,5.235,9.878
885,0.784,35.749,17.913,33.34,27.524,7.042,5.153,9.672
886,0.803,35.876,17.97,33.34,27.521,7.082,5.193,9.629
887,0.797,35.906,18.037,33.302,27.517,7.042,5.153,9.548
888,0.794,35.513,17.963,33.407,27.521,7.204,5.275,9.588
889,0.803,35.672,17.994,33.341,27.528,7.328,5.235,9.425
890,0.807,35.789,17.936,33.312,27.517,7.289,5.235,9.302
891,0.816,35.828,18.064,33.34,27.521,7.41,5.235,9.26
892,0.813,35.617,17.913,33.292,27.507,7.411,5.153,9.219
893,0.81,35.769,17.915,33.34,27.521,7.574,5.275,9.178
894,0.81,35.933,18.001,33.34,27.521,7.698,5.235,9.096
895,0.797,35.945,17.92,33.331,27.517,7.577,5.153,8.892
896,0.803,35.667,18.052,33.331,27.521,7.698,5.193,8.89
897,0.794,35.798,17.905,33.312,27.51,7.536,5.194,8.768
898,0.79,35.934,17.989,33.33,27.528,7.738,5.234,8.889
899,0.797,35.916,18.002,33.331,27.521,7.781,5.275,8.849
900,0.787,35.637,17.982,33.321,27.517,7.7,5.154,8.646
901,0.784,35.788,18.041,33.311,27.528,7.78,5.193,8.644
902,0.787,35.895,17.881,33.302,27.507,7.74,5.153,8.481
903,0.803,35.57,18.005,33.321,27.521,7.821,5.275,8.56
904,0.816,35.653,17.967,33.331,27.517,7.741,5.276,8.521
905,0.816,35.769,17.982,33.312,27.514,7.821,5.195,8.398
906,0.833,35.905,18.021,33.33,27.51,7.741,5.275,8.438
907,0.826,35.484,17.951,33.292,27.51,7.74,5.154,8.275
908,0.817,35.614,18.021,33.321,27.524,7.821,5.315,8.436
909,0.833,35.778,17.901,33.311,27.531,7.741,5.236,8.275
910,0.82,35.857,18.017,33.321,27.524,7.699,5.194,8.152
911,0.817,35.694,17.932,33.311,27.524,7.74,5.234,8.191
912,0.8,35.808,18.036,33.311,27.521,7.618,5.194,8.151
913,0.807,35.953,18.018,33.321,27.524,7.698,5.275,8.273
914,0.82,36.031,17.881,33.359,27.524,7.78,5.195,8.111
915,0.817,35.61,17.973,33.331,27.524,7.578,5.153,7.987
916,0.82,35.749,17.955,33.321,27.528,7.657,5.234,8.027
917,0.8,35.847,17.927,33.302,27.517,7.617,5.113,8.027
918,0.803,35.925,17.861,33.321,27.521,7.698,5.315,8.068
919,0.807,35.599,18.016,33.331,27.521,7.618,5.236,7.946
920,0.803,35.721,18.045,33.302,27.521,7.454,5.153,7.945
921,0.803,35.856,17.905,33.311,27.524,7.534,5.153,7.905
922,0.81,35.848,17.962,33.273,27.51,7.494,5.153,7.863
923,0.813,35.618,17.912,33.301,27.528,7.534,5.315,7.985
924,0.813,35.788,18.025,33.302,27.528,7.534,5.195,7.864
925,0.813,35.866,17.944,33.292,27.521,7.331,5.153,7.782
926,0.82,35.982,18.013,33.311,27.521,7.37,5.234,7.74
927,0.83,35.629,18.006,33.283,27.514,7.37,5.194,7.74
928,0.836,35.788,17.979,33.311,27.524,7.492,5.234,7.821
929,0.843,35.924,18.049,33.359,27.521,7.453,5.194,7.7
930,0.839,35.475,17.885,33.283,27.514,7.371,5.194,7.658
931,0.843,35.489,17.997,33.292,27.528,7.492,5.194,7.658
932,0.833,35.633,18.037,33.263,27.514,7.494,5.112,7.617
933,0.83,35.731,17.967,33.311,27.524,7.616,5.234,7.779
934,0.82,35.559,18.017,33.292,27.531,7.698,5.275,7.659
935,0.82,35.682,17.893,33.282,27.517,7.658,5.113,7.536
936,0.813,35.827,18.063,33.292,27.524,7.78,5.193,7.575
937,0.82,35.896,17.866,33.263,27.517,7.7,5.072,7.535
938,0.833,35.551,17.954,33.282,27.524,7.861,5.355,7.657
939,0.833,35.701,18.029,33.301,27.528,7.985,5.236,7.658
940,0.82,35.808,18.01,33.273,27.517,7.864,5.072,7.455
941,0.82,35.876,17.99,33.301,27.524,7.985,5.152,7.574
942,0.81,35.512,17.896,33.263,27.514,7.783,5.153,7.454
943,0.813,35.662,17.989,33.282,27.524,8.025,5.275,7.574
944,0.816,35.798,17.877,33.292,27.528,7.987,5.195,7.535
945,0.826,35.828,18.028,33.273,27.517,7.946,5.072,7.494
946,0.839,35.55,18.03,33.292,27.524,7.945,5.152,7.494
947,0.846,35.682,17.916,33.263,27.514,7.823,5.071,7.412
948,0.853,35.808,18.04,33.282,27.528,8.025,5.233,7.533
949,0.853,35.857,17.838,33.292,27.528,8.027,5.194,7.453
950,0.846,35.493,17.95,33.292,27.524,7.946,5.153,7.412
951,0.869,35.662,18.044,33.263,27.528,7.945,5.153,7.452
952,0.846,35.74,17.971,33.234,27.517,7.945,5.153,7.412
953,0.846,36.029,18.107,33.272,27.528,7.945,5.275,7.493
954,0.836,35.61,17.921,33.282,27.531,8.067,5.154,7.453
955,0.836,35.759,17.974,33.263,27.521,7.865,5.153,7.33
956,0.836,35.866,18.049,33.263,27.524,7.944,5.153,7.451
957,0.82,35.608,17.928,33.234,27.524,7.823,5.112,7.452
958,0.82,35.692,18.036,33.263,27.528,8.025,5.234,7.493
959,0.823,35.856,17.92,33.282,27.528,7.946,5.194,7.453
960,0.826,35.925,18.06,33.273,27.521,7.945,5.112,7.371
961,0.82,35.417,17.862,33.253,27.524,7.986,5.193,7.37
962,0.82,35.508,17.884,33.234,27.517,7.864,5.112,7.33
963,0.83,35.653,17.966,33.272,27.528,7.944,5.274,7.451
964,0.839,35.788,17.892,33.282,27.528,7.864,5.195,7.412
965,0.846,35.492,18.056,33.244,27.521,7.741,5.072,7.289
966,0.853,35.643,17.893,33.263,27.521,7.699,5.193,7.329
967,0.846,35.75,17.981,33.244,27.521,7.74,5.153,7.289
968,0.846,35.856,17.928,33.253,27.538,7.862,5.315,7.451
969,0.862,35.426,17.978,33.272,27.531,7.782,5.154,7.29
970,0.866,35.546,17.998,33.234,27.524,7.578,5.071,7.207
971,0.856,35.701,17.932,33.253,27.524,7.616,5.233,7.287
972,0.846,35.722,18.033,33.234,27.528,7.617,5.194,7.247
973,0.853,35.597,17.971,33.253,27.535,7.698,5.275,7.41
974,0.859,35.711,18.025,33.263,27.528,7.577,5.154,7.289
975,0.856,35.856,17.975,33.244,27.521,7.494,5.071,7.207
976,0.853,35.896,17.881,33.253,27.528,7.534,5.152,7.247
977,0.836,35.551,18.048,33.224,27.524,7.494,5.112,7.247
978,0.843,35.72,17.917,33.31,27.531,7.697,5.315,7.369
979,0.843,35.837,17.989,33.273,27.531,7.577,5.276,7.248
980,0.836,36.145,17.912,33.225,27.521,7.535,5.073,7.206
981,0.833,35.448,18.013,33.253,27.524,7.616,5.152,7.247
982,0.82,35.546,18.01,33.215,27.517,7.495,5.153,7.206
983,0.843,35.701,17.842,33.262,27.531,7.616,5.275,7.369
984,0.849,35.53,17.973,33.263,27.524,7.535,5.154,7.208
985,0.859,35.567,17.857,33.253,27.517,7.494,5.112,7.165
986,0.853,35.692,17.965,33.253,27.528,7.616,5.234,7.206
987,0.836,35.77,17.912,33.234,27.524,7.617,5.113,7.125
988,0.859,35.463,17.958,33.253,27.531,7.942,5.234,7.246
989,0.866,35.585,18.091,33.244,27.528,7.823,5.194,7.125
990,0.866,35.721,17.859,33.244,27.521,7.863,5.112,7.002
991,0.879,35.818,17.985,33.234,27.528,7.944,5.193,7.041
992,0.859,35.416,17.877,33.205,27.524,8.108,5.153,7.082
993,0.866,35.594,18.028,33.253,27.538,8.272,5.315,7.245
994,0.866,35.721,18.096,33.244,27.531,8.233,5.154,7.084
995,0.843,35.779,17.866,33.234,27.521,8.192,5.112,6.961
996,0.836,35.454,17.977,33.234,27.528,8.273,5.112,7.122
997,0.83,35.566,17.904,33.224,27.524,8.355,5.152,7.083
998,0.846,35.73,17.962,33.243,27.528,8.519,5.315,7.245
999,0.856,35.799,17.885,33.253,27.528,8.439,5.154,7.166
1000,0.843,35.579,17.946,33.234,27.521,8.316,5.071,7.002
1001,0.849,35.711,18.033,33.243,27.528,8.356,5.193,7.082
1002,0.843,35.789,17.952,33.215,27.528,8.234,5.153,7.002
1003,0.846,35.866,17.97,33.243,27.535,8.355,5.315,7.163
1004,0.862,35.436,17.846,33.244,27.528,8.275,5.114,7.002
1005,0.862,35.556,17.93,33.224,27.521,8.193,5.071,6.96
1006,0.879,35.682,17.904,33.234,27.524,8.273,5.111,7.041
1007,0.876,35.712,17.931,33.234,27.517,8.152,5.193,6.96
1008,0.885,35.511,18.025,33.253,27.535,8.313,5.316,7.122
1009,0.892,35.643,18.018,33.253,27.524,8.152,5.236,7.002
1010,0.886,35.731,17.948,33.224,27.524,8.069,5.113,7.001
1011,0.895,35.549,18.025,33.234,27.531,8.028,5.234,7.001
1012,0.879,35.519,17.877,33.224,27.528,7.946,5.113,6.919
1013,0.885,35.681,18.012,33.243,27.528,8.148,5.315,7.244
1014,0.885,35.779,17.963,33.253,27.528,7.947,5.154,7.044
1015,0.879,35.416,17.974,33.224,27.521,7.823,5.031,7.042
1016,0.876,35.546,18.025,33.243,27.528,7.863,5.192,7.082
1017,0.859,35.643,17.909,33.224,27.528,7.782,5.194,7.002
1018,0.869,35.759,18.036,33.234,27.538,7.944,5.316,7.123
1019,0.869,35.463,17.909,33.253,27.528,7.823,5.154,7.124
1020,0.866,35.585,17.993,33.224,27.517,7.619,5.071,7.043
1021,0.866,35.721,17.885,33.234,27.528,7.657,5.152,7.082
1022,0.859,35.779,18.016,33.205,27.524,7.617,5.153,7.042
1023,0.882,35.444,18.041,33.243,27.531,7.739,5.275,7.204
1024,0.892,35.604,17.893,33.244,27.528,7.537,5.154,7.125
1025,0.879,35.721,17.981,33.215,27.524,7.494,5.031,7.043
1026,0.885,35.799,17.932,33.224,27.524,7.453,5.192,7.123
1027,0.876,35.435,18.005,33.263,27.524,7.534,5.153,7.002
1028,0.889,35.613,17.885,33.253,27.535,7.616,5.315,7.204
1029,0.908,35.721,18.001,33.234,27.528,7.454,5.154,7.043
1030,0.912,35.751,18.053,33.215,27.517,7.412,5.153,6.92
1031,0.905,35.492,17.858,33.243,27.524,7.452,5.153,6.959
1032,0.892,35.624,17.973,33.224,27.521,7.371,5.193,7.082
1033,0.912,35.75,17.861,33.253,27.535,7.492,5.234,7.123
1034,0.899,35.78,17.977,33.234,27.528,7.453,5.194,7.002
1035,0.886,35.607,18.021,33.215,27.524,7.33,5.112,6.919
1036,0.895,35.778,17.873,33.215,27.528,7.37,5.152,7.0
1037,0.892,35.857,17.993,33.224,27.524,7.37,5.153,7.041
1038,0.899,35.637,17.893,33.243,27.535,7.452,5.234,7.042
1039,0.912,35.625,17.903,33.253,27.528,7.412,5.194,7.042
1040,0.905,35.75,17.868,33.205,27.521,7.289,5.153,6.96
1041,0.892,35.856,17.969,33.214,27.517,7.369,5.153,7.041
1042,0.886,35.455,18.049,33.215,27.524,7.33,5.112,6.96
1043,0.898,35.623,17.999,33.243,27.535,7.492,5.274,7.041
1044,0.905,35.73,18.029,33.215,27.528,7.371,5.195,7.001
1045,0.902,35.799,17.862,33.205,27.514,7.289,5.031,6.879
1046,0.902,35.627,18.044,33.214,27.524,7.451,5.151,6.959
1047,0.905,35.769,17.92,33.205,27.524,7.412,5.153,6.96
1048,0.925,35.914,17.958,33.262,27.542,7.452,5.193,6.96
1049,0.931,35.992,18.025,33.196,27.528,7.452,5.194,6.838
1050,0.922,35.744,17.94,33.205,27.514,7.452,5.112,6.796
1051,0.918,35.895,17.978,33.214,27.528,7.656,5.193,6.958
1052,0.905,36.021,17.889,33.262,27.521,7.617,5.153,6.96
1053,0.928,36.128,17.962,33.225,27.528,7.779,5.193,6.96
1054,0.925,35.755,17.966,33.195,27.524,7.7,5.072,6.797
1055,0.909,35.876,17.951,33.166,27.517,7.821,5.07,6.877
1056,0.908,36.021,17.947,33.214,27.531,7.944,5.193,6.918
1057,0.915,36.07,17.869,33.205,27.521,7.945,5.153,6.878
1058,0.922,35.879,18.044,33.205,27.524,8.026,5.153,6.877
1059,0.899,35.982,17.889,33.186,27.517,8.027,5.071,6.755
1060,0.895,36.089,17.974,33.176,27.521,8.109,5.07,6.876
1061,0.905,36.119,17.974,33.205,27.528,8.232,5.233,6.959
1062,0.912,35.994,17.994,33.195,27.514,8.273,5.194,6.838
1063,0.935,36.156,18.06,33.195,27.531,8.314,5.112,6.837
1064,0.925,36.234,17.952,33.176,27.521,8.234,4.989,6.796
1065,0.918,35.996,17.97,33.195,27.51,8.355,5.11,6.836
1066,0.935,35.945,17.865,33.186,27.528,8.397,5.193,6.918
1067,0.935,36.088,17.989,33.195,27.517,8.438,5.153,6.756
1068,0.941,36.215,18.021,33.205,27.524,8.397,5.193,6.836
1069,0.941,35.938,17.905,33.176,27.517,8.275,5.112,6.674
1070,0.954,36.04,18.028,33.176,27.514,8.314,5.193,6.875
1071,0.958,36.185,17.944,33.176,27.528,8.356,5.153,6.877
1072,0.948,36.273,18.013,33.166,27.524,8.315,5.112,6.715
1073,0.958,36.178,17.826,33.195,27.524,8.315,5.152,6.876
1074,0.938,36.273,17.938,33.176,27.517,8.152,5.071,6.715
1075,0.915,36.379,17.982,33.166,27.521,8.273,5.152,6.876
1076,0.938,36.486,17.908,33.176,27.528,8.314,5.193,6.877
1077,0.922,36.113,17.985,33.166,27.521,8.112,5.153,6.755
1078,0.941,36.263,17.971,33.176,27.524,8.272,5.153,6.836
1079,0.938,36.36,17.994,33.166,27.521,8.03,4.99,6.796
1080,0.932,36.428,17.971,33.204,27.524,8.19,5.273,6.877
1081,0.935,36.199,17.881,33.195,27.528,8.192,5.195,6.918
1082,0.941,36.35,17.981,33.166,27.521,8.11,5.112,6.796
1083,0.945,36.457,17.916,33.185,27.521,8.028,5.193,6.877
1084,0.925,36.477,18.036,33.147,27.521,7.946,5.153,6.796
1085,0.918,36.257,17.995,33.156,27.524,8.026,5.275,6.917
1086,0.935,36.408,17.92,33.185,27.531,8.027,5.195,6.919
1087,0.938,36.525,18.021,33.176,27.521,7.905,5.153,6.796
1088,0.958,36.555,17.909,33.176,27.524,7.945,5.193,6.877
1089,0.954,36.411,17.989,33.147,27.514,7.783,5.112,6.877
1090,0.948,36.544,17.861,33.166,27.524,7.862,5.234,6.959
1091,0.964,36.679,18.055,33.166,27.531,7.944,5.235,6.878
1092,0.948,36.47,18.034,33.166,27.524,7.823,5.072,6.796
1093,0.958,36.362,17.952,33.166,27.524,7.863,5.152,6.836
1094,0.938,36.486,17.982,33.147,27.514,7.782,5.153,6.877
1095,0.948,36.593,17.885,33.147,27.528,7.903,5.193,6.959
1096,0.941,36.344,18.091,33.176,27.528,7.823,5.316,6.96
1097,0.925,36.447,17.874,33.176,27.524,7.7,5.154,6.838
1098,0.931,36.554,17.95,33.166,27.521,7.78,5.193,6.877
1099,0.922,36.641,17.904,33.137,27.521,7.659,5.112,6.959
1100,0.925,36.412,17.97,33.175,27.528,7.698,5.234,7.082
1101,0.935,36.553,17.959,33.176,27.524,7.699,5.235,6.92
1102,0.931,36.68,17.884,33.147,27.524,7.699,5.113,6.919
1103,0.941,36.767,17.981,33.156,27.521,7.74,5.193,7.0
1104,0.932,36.423,17.857,33.137,27.514,7.537,5.153,7.001
1105,0.948,36.544,18.02,33.166,27.531,7.697,5.275,7.123
1106,0.948,36.708,17.987,33.157,27.524,7.618,5.235,7.083
1107,0.945,36.748,17.932,33.147,27.521,7.495,5.113,7.002
1108,0.958,36.451,18.044,33.166,27.524,7.575,5.152,7.001
1109,0.951,36.583,17.741,33.109,27.514,7.413,5.071,6.96
1110,0.945,36.718,17.925,33.146,27.524,7.452,5.193,7.122
1111,0.948,36.787,18.025,33.156,27.528,7.534,5.194,7.043
1112,0.938,36.49,17.955,33.147,27.524,7.494,5.153,6.96
1113,0.945,36.66,18.056,33.166,27.528,7.371,5.193,7.082
1114,0.938,36.748,17.874,33.128,27.51,7.248,5.031,7.002
1115,0.922,36.787,17.966,33.137,27.528,7.328,5.233,7.123
1116,0.925,36.615,18.017,33.156,27.524,7.329,5.194,7.083
1117,0.925,36.728,17.975,33.137,27.514,7.167,5.153,7.042
1118,0.938,36.883,18.006,33.156,27.528,7.287,5.153,7.001
1119,0.925,36.673,17.869,33.109,27.514,7.166,5.112,7.041
1120,0.918,36.527,18.02,33.146,27.528,7.246,5.234,7.164
1121,0.931,36.689,17.912,33.156,27.528,7.206,5.235,7.124
1122,0.922,36.777,17.907,33.137,27.521,7.125,5.072,7.083
1123,0.928,36.615,17.927,33.127,27.524,7.124,5.152,7.123
1124,0.915,36.699,17.872,33.127,27.517,7.002,5.153,7.002
1125,0.915,36.825,17.981,33.137,27.521,7.123,5.193,7.123
1126,0.931,36.932,17.873,33.156,27.535,7.124,5.234,7.083
1127,0.935,36.434,18.001,33.147,27.528,7.124,5.113,7.042
1128,0.941,36.573,17.865,33.156,27.521,7.083,5.193,7.082
1129,0.938,36.68,18.005,33.099,27.514,7.002,5.112,7.002
1130,0.938,36.777,17.912,33.175,27.524,7.082,5.234,7.123
1131,0.954,36.567,17.896,33.157,27.531,7.205,5.235,7.083
1132,0.938,36.708,17.978,33.128,27.517,7.084,5.113,6.961
1133,0.932,36.825,17.92,33.147,27.524,7.205,5.193,7.041
1134,0.922,36.884,18.048,33.108,27.514,7.084,5.153,7.001
1135,0.912,36.52,17.839,33.156,27.528,7.286,5.193,7.123
1136,0.912,36.679,17.922,33.147,27.528,7.329,5.234,7.083
1137,0.915,36.805,18.044,33.118,27.517,7.289,5.153,6.92
1138,0.925,36.864,17.858,33.127,27.521,7.369,5.112,7.041
1139,0.902,36.51,17.965,33.108,27.514,7.37,5.112,7.001
1140,0.895,36.66,17.916,33.127,27.524,7.573,5.234,7.123
1141,0.905,36.805,18.028,33.147,27.528,7.779,5.194,7.083
1142,0.908,36.797,17.998,33.128,27.521,7.7,5.072,6.961
1143,0.908,36.644,17.904,33.127,27.524,7.861,5.193,7.0
1144,0.905,36.767,17.95,33.108,27.514,7.782,5.112,7.001
1145,0.912,36.873,17.931,33.118,27.524,7.984,5.193,7.082
1146,0.925,36.759,18.044,33.127,27.528,8.027,5.194,7.042
1147,0.912,36.567,17.901,33.137,27.521,8.068,5.072,6.96
1148,0.922,36.689,18.005,33.118,27.531,8.028,5.111,7.041
1149,0.931,36.767,17.92,33.089,27.521,8.068,5.112,6.96
1150,0.922,36.586,17.982,33.127,27.524,8.231,5.274,7.163
1151,0.941,36.709,17.869,33.147,27.535,8.273,5.276,7.043
1152,0.925,36.825,17.95,33.118,27.518,8.193,5.113,7.001
1153,0.915,36.932,18.005,33.127,27.531,8.273,5.234,7.001
1154,0.896,36.396,17.955,33.089,27.517,8.274,5.194,6.96
1155,0.895,36.515,17.982,33.127,27.528,8.396,5.234,7.041
1156,0.895,36.679,17.865,33.147,27.531,8.397,5.235,6.96
1157,0.889,36.757,17.989,33.089,27.521,8.316,5.113,6.919
1158,0.892,36.547,17.912,33.108,27.528,8.437,5.112,6.959
1159,0.879,36.67,17.966,33.108,27.517,8.479,5.152,6.96
1160,0.882,36.825,18.009,33.146,27.535,8.642,5.315,7.122
1161,0.882,36.903,17.947,33.128,27.528,8.603,5.154,6.961
1162,0.885,36.462,18.021,33.108,27.524,8.562,5.071,6.919
1163,0.876,36.611,17.92,33.118,27.524,8.724,5.152,6.959
1164,0.869,36.718,17.888,33.099,27.517,8.766,5.153,7.0
1165,0.895,36.787,17.821,33.118,27.524,8.889,5.234,7.041
1166,0.905,36.538,17.969,33.127,27.531,8.971,5.235,6.96
1167,0.886,36.679,17.986,33.127,27.517,8.85,5.153,6.919
1168,0.902,36.796,17.916,33.127,27.521,8.93,5.193,7.0
1169,0.895,36.797,18.009,33.07,27.521,8.85,5.234,6.96
1170,0.886,36.529,17.92,33.127,27.531,8.93,5.316,7.082
1171,0.889,36.679,17.939,33.127,27.535,8.89,5.236,6.961
1172,0.902,36.796,17.997,33.108,27.521,8.809,5.113,6.878
1173,0.889,36.816,17.893,33.118,27.524,8.767,5.152,6.959
1174,0.869,36.529,17.993,33.108,27.521,8.807,5.193,6.96
1175,0.879,36.708,17.932,33.127,27.542,8.848,5.275,7.122
1176,0.869,36.834,17.982,33.108,27.525,8.686,5.235,6.961
1177,0.859,36.539,17.994,33.098,27.514,8.603,5.072,6.878
1178,0.872,36.603,17.92,33.108,27.524,8.643,5.193,6.959
1179,0.859,36.718,17.943,33.108,27.528,8.603,5.194,6.96
1180,0.856,36.863,17.826,33.146,27.535,8.684,5.356,7.122
1181,0.849,36.443,17.953,33.118,27.528,8.481,5.155,7.002
1182,0.849,36.544,18.017,33.099,27.514,8.276,5.031,6.879
1183,0.856,36.651,17.963,33.108,27.528,8.396,5.192,6.877
1184,0.846,36.748,18.037,33.098,27.524,8.356,5.194,6.877
1185,0.853,36.48,17.874,33.127,27.531,8.397,5.275,7.0
1186,0.849,36.612,18.009,33.118,27.528,8.234,5.154,6.879
1187,0.862,36.709,17.897,33.089,27.514,8.111,5.071,6.837
1188,0.872,36.796,17.985,33.108,27.528,8.109,5.193,6.999
1189,0.863,36.452,17.971,33.079,27.531,8.109,5.153,6.879
1190,0.866,36.621,17.986,33.137,27.535,8.15,5.356,7.0
1191,0.866,36.728,18.045,33.108,27.531,8.069,5.155,6.919
1192,0.859,36.787,17.842,33.089,27.517,7.946,5.071,6.837
1193,0.866,36.452,17.969,33.156,27.528,7.986,5.152,6.958
1194,0.84,36.563,17.814,33.099,27.524,7.946,5.153,6.878
1195,0.849,36.718,17.961,33.137,27.538,8.067,5.356,7.0
1196,0.853,36.739,17.998,33.118,27.528,7.946,5.114,6.879
1197,0.833,36.566,17.936,33.089,27.517,7.864,5.071,6.837
1198,0.833,36.689,18.005,33.098,27.517,7.944,5.193,6.918
1199,0.817,36.767,17.936,33.079,27.517,7.945,5.153,6.878
1200,0.842,36.979,17.939,33.127,27.538,8.067,5.234,7.081
1201,0.833,36.789,17.966,33.108,27.531,7.946,5.235,6.92
1202,0.823,36.893,17.9,33.089,27.528,7.823,5.032,6.756
1203,0.839,36.999,18.028,33.098,27.524,7.863,5.151,6.876
1204,0.826,36.272,17.959,33.098,27.531,7.822,5.071,6.877
1205,0.839,36.283,17.986,33.108,27.538,7.944,5.314,6.959
1206,0.859,36.437,17.881,33.108,27.528,7.864,5.154,6.797
1207,0.843,36.496,18.016,33.089,27.517,7.741,5.112,6.755
1208,0.839,36.526,17.858,33.089,27.531,7.781,5.112,6.836
1209,0.843,36.66,17.962,33.098,27.521,7.74,5.152,6.837
1210,0.856,36.796,17.963,33.108,27.542,7.943,5.234,6.918
1211,0.856,36.883,18.002,33.079,27.528,7.783,5.153,6.837
1212,0.84,36.434,18.064,33.079,27.521,7.7,5.153,6.796
1213,0.836,36.582,17.862,33.098,27.528,7.699,5.153,6.917
1214,0.839,36.709,17.926,33.108,27.528,7.699,5.153,6.837
1215,0.833,36.796,17.966,33.108,27.531,7.821,5.275,6.918
1216,0.833,36.49,17.97,33.089,27.528,7.781,5.073,6.919
1217,0.81,36.631,18.017,33.079,27.524,7.659,5.03,6.796
1218,0.816,36.757,17.866,33.079,27.531,7.617,5.192,6.877
1219,0.803,36.787,18.001,33.069,27.528,7.617,5.153,6.918
1220,0.807,36.346,18.041,33.117,27.535,7.698,5.275,6.959
1221,0.816,36.495,17.889,33.099,27.531,7.618,5.073,6.878
1222,0.807,36.593,17.97,33.089,27.528,7.535,5.07,6.755
1223,0.813,36.632,17.869,33.089,27.524,7.575,5.152,6.836
1224,0.803,36.469,17.958,33.07,27.524,7.535,5.153,6.877
1225,0.826,36.65,17.935,33.098,27.538,7.616,5.275,7.0
1226,0.826,36.776,17.954,33.108,27.531,7.576,5.113,6.879
1227,0.833,36.989,17.99,33.07,27.521,7.535,5.112,6.877
1228,0.843,36.396,17.932,33.088,27.521,7.575,5.152,7.04
1229,0.836,36.505,17.958,33.07,27.528,7.616,5.193,6.92
1230,0.839,36.641,17.892,33.088,27.538,7.617,5.275,7.041
1231,0.865,36.489,17.997,33.07,27.524,7.535,5.195,7.001
1232,0.843,36.535,17.924,33.06,27.521,7.453,5.112,6.919
1233,0.833,36.66,18.009,33.088,27.521,7.493,5.234,6.919
1234,0.826,36.729,17.986,33.06,27.521,7.453,5.194,7.041
1235,0.817,36.403,17.916,33.098,27.538,7.615,5.397,7.082
1236,0.829,36.515,17.986,33.098,27.521,7.454,5.277,7.002
1237,0.826,36.622,17.857,33.06,27.521,7.33,5.154,6.919
1238,0.843,36.728,17.973,33.098,27.521,7.41,5.193,7.0
1239,0.81,36.374,17.834,33.06,27.521,7.371,5.275,6.96
1240,0.813,36.524,17.957,33.098,27.528,7.411,5.357,7.163
1241,0.82,36.66,17.99,33.098,27.531,7.452,5.195,7.084
1242,0.82,36.729,17.815,33.06,27.524,7.249,5.153,6.961
1243,0.83,36.394,17.985,33.127,27.524,7.288,5.193,7.082
1244,0.826,36.544,17.935,33.041,27.514,7.207,5.112,6.961
1245,0.83,36.651,17.923,33.079,27.528,7.45,5.315,7.041
1246,0.839,36.719,17.974,33.089,27.531,7.493,5.276,7.042
1247,0.833,36.346,17.842,33.07,27.514,7.412,5.154,7.001
1248,0.839,36.495,18.012,33.079,27.517,7.615,5.193,7.001
1249,0.843,36.583,17.924,33.05,27.51,7.535,5.112,6.96
1250,0.869,36.632,17.896,33.098,27.528,7.616,5.274,7.082
1251,0.869,36.517,17.974,33.089,27.531,7.739,5.357,7.042
1252,0.863,36.66,17.846,33.07,27.524,7.781,5.236,6.96
1253,0.859,36.767,18.02,33.06,27.528,7.781,5.316,7.0
1254,0.846,37.056,17.994,33.031,27.514,7.781,5.236,6.879
1255,0.836,36.454,17.912,33.069,27.521,7.944,5.275,7.081
1256,0.862,36.611,17.958,33.069,27.528,7.905,5.235,6.961
1257,0.849,36.709,17.955,33.05,27.524,7.863,5.194,6.919
1258,0.843,36.441,17.951,33.069,27.528,7.944,5.234,7.0
1259,0.826,36.439,17.865,33.05,27.517,7.783,5.153,6.96
1260,0.826,36.573,17.965,33.06,27.524,7.984,5.356,7.122
1261,0.82,36.718,17.892,33.069,27.531,7.986,5.236,7.043
1262,0.839,36.336,17.962,33.05,27.521,7.905,5.153,6.879
1263,0.846,36.457,17.982,33.079,27.524,7.945,5.315,6.959
1264,0.83,36.554,17.877,33.041,27.514,7.864,5.236,6.878
1265,0.843,36.67,17.938,33.059,27.524,8.026,5.316,7.0
1266,0.862,36.307,17.888,33.069,27.524,7.865,5.276,6.96
1267,0.859,36.466,17.997,33.05,27.524,7.863,5.195,6.919
1268,0.862,36.583,17.846,33.079,27.521,7.822,5.275,6.878
1269,0.853,36.622,17.981,33.041,27.521,7.741,5.276,6.918
1270,0.859,36.412,18.01,33.059,27.531,7.781,5.357,7.0
1271,0.879,36.553,17.905,33.079,27.528,7.74,5.317,6.879
1272,0.866,36.68,17.962,33.041,27.521,7.618,5.154,6.877
1273,0.866,36.748,17.892,33.05,27.531,7.698,5.315,6.877
1274,0.849,36.394,18.005,33.05,27.521,7.577,5.195,6.877
1275,0.853,36.534,18.014,33.069,27.528,7.657,5.356,6.959
1276,0.853,36.679,17.92,33.069,27.531,7.576,5.317,6.838
1277,0.849,36.729,18.029,33.041,27.521,7.454,5.276,6.796
1278,0.862,36.47,17.881,33.05,27.528,7.412,5.316,6.836
1279,0.843,36.612,17.946,33.04,27.521,7.371,5.317,6.796
1280,0.839,36.747,17.935,33.059,27.531,7.492,5.439,6.958
1281,0.833,36.825,17.931,33.06,27.528,7.371,5.318,6.919
1282,0.839,36.452,18.036,33.04,27.521,7.289,5.236,6.796
1283,0.839,36.563,17.924,33.059,27.521,7.288,5.357,6.836
1284,0.833,36.641,17.927,33.031,27.521,7.288,5.277,6.755
1285,0.849,36.479,17.982,33.059,27.531,7.329,5.398,6.998
1286,0.869,36.487,17.99,33.05,27.531,7.207,5.318,6.919
1287,0.866,36.621,17.975,33.06,27.521,7.125,5.236,6.837
1288,0.869,36.728,17.885,33.05,27.528,7.165,5.316,6.877
1289,0.866,36.326,17.981,33.021,27.524,7.043,5.154,6.877
1290,0.879,36.476,17.896,33.059,27.535,7.204,5.397,7.0
1291,0.895,36.612,17.919,33.06,27.528,7.125,5.358,6.879
1292,0.879,36.699,17.95,33.05,27.521,7.043,5.236,6.796
1293,0.879,36.355,17.88,33.05,27.524,7.001,5.316,6.877
1294,0.872,36.486,17.966,33.031,27.521,7.001,5.317,6.837
1295,0.869,36.612,17.92,33.05,27.531,7.041,5.358,6.958
1296,0.872,36.709,18.001,33.06,27.528,6.96,5.358,6.919
1297,0.856,36.365,17.908,33.05,27.517,6.878,5.155,6.837
1298,0.853,36.524,17.974,33.04,27.521,6.959,5.315,6.918
1299,0.849,36.612,17.971,33.012,27.524,6.878,5.195,6.959
1300,0.859,36.69,17.885,33.059,27.535,6.877,5.316,7.041
1301,0.849,36.441,17.97,33.069,27.531,6.877,5.317,6.96
1302,0.84,36.573,17.873,33.041,27.521,6.755,5.195,6.878
1303,0.852,36.689,18.005,33.05,27.524,6.836,5.316,6.918
1304,0.843,36.69,17.998,33.031,27.517,6.918,5.236,6.959
1305,0.866,36.374,17.912,33.059,27.538,7.0,5.438,7.0
1306,0.866,36.505,17.954,33.05,27.531,7.001,5.237,6.96
1307,0.866,36.631,17.92,33.031,27.524,6.919,5.235,6.838
1308,0.862,36.632,17.978,33.059,27.528,6.959,5.235,6.918
1309,0.869,36.469,17.807,33.021,27.524,6.919,5.194,6.837
1310,0.885,36.65,17.969,33.059,27.531,7.122,5.356,6.918
1311,0.892,36.738,18.013,33.04,27.531,7.083,5.317,6.919
1312,0.882,36.566,17.877,33.05,27.521,7.042,5.114,6.796
1313,0.889,36.555,17.845,33.05,27.521,7.245,5.234,6.917
1314,0.876,36.651,17.833,33.021,27.517,7.166,5.235,6.878
1315,0.872,36.786,17.938,33.05,27.535,7.45,5.357,7.04
1316,0.866,36.356,17.88,33.05,27.524,7.371,5.317,6.879
1317,0.856,36.457,17.95,33.031,27.521,7.411,5.236,6.796
1318,0.836,36.602,17.869,33.04,27.524,7.452,5.235,6.795
1319,0.82,36.642,17.966,33.021,27.521,7.534,5.275,6.877
1320,0.833,36.335,17.951,33.059,27.531,7.657,5.398,7.0
1321,0.843,36.457,17.873,33.05,27.528,7.617,5.318,6.919
1322,0.853,36.573,17.981,33.021,27.517,7.535,5.154,6.756
1323,0.862,36.661,17.877,33.05,27.521,7.575,5.234,6.836
1324,0.853,36.815,18.012,33.021,27.524,7.616,5.235,6.796
1325,0.856,36.979,17.998,33.05,27.531,7.739,5.357,6.958
1326,0.862,37.144,17.943,33.05,27.524,7.781,5.317,6.797
1327,0.862,37.174,18.021,33.05,27.517,7.659,5.195,6.755
1328,0.859,35.976,17.858,33.05,27.524,7.739,5.316,6.876
1329,0.872,36.098,17.969,32.992,27.517,7.618,5.236,6.877
1330,0.872,36.243,17.834,33.049,27.531,7.779,5.316,6.959
1331,0.876,36.302,18.035,33.04,27.535,7.781,5.317,6.797
1332,0.879,36.37,17.913,33.031,27.518,7.7,5.195,6.755
1333,0.869,36.515,17.958,33.021,27.528,7.821,5.275,6.917
1334,0.863,36.602,17.92,33.011,27.514,7.659,5.235,6.878
1335,0.846,36.632,17.845,33.03,27.531,7.861,5.357,6.877
1336,0.849,36.345,18.028,33.05,27.524,7.822,5.236,6.877
1337,0.853,36.505,17.768,33.04,27.517,7.781,5.235,6.755
1338,0.859,36.612,17.961,33.05,27.524,7.74,5.235,6.876
1339,0.843,36.354,17.849,33.002,27.507,7.618,5.153,6.796
1340,0.839,36.265,17.95,33.03,27.521,7.739,5.315,6.917
1341,0.852,36.427,17.9,33.04,27.528,7.74,5.236,6.878
1342,0.853,36.525,17.837,33.031,27.521,7.618,5.194,6.837
1343,0.853,36.267,17.957,33.021,27.528,7.698,5.316,6.877
1344,0.846,36.36,17.865,33.002,27.51,7.536,5.154,6.796
1345,0.846,36.486,17.993,33.021,27.521,7.657,5.275,6.917
1346,0.849,36.583,18.006,33.05,27.521,7.698,5.276,6.878
1347,0.853,36.229,17.928,33.012,27.517,7.618,5.235,6.837
1348,0.879,36.379,18.048,33.05,27.528,7.617,5.275,6.837
1349,0.879,36.505,17.874,33.012,27.51,7.413,5.113,6.674
1350,0.876,36.574,17.962,33.002,27.521,7.533,5.234,6.875
1351,0.879,36.191,17.873,33.03,27.531,7.534,5.275,6.877
1352,0.869,36.34,18.032,33.021,27.524,7.453,5.235,6.715
1353,0.879,36.447,17.967,33.031,27.531,7.534,5.194,6.835
1354,0.869,36.506,17.924,33.002,27.517,7.291,5.234,6.796
1355,0.859,36.343,17.97,33.021,27.531,7.532,5.357,6.917
1356,0.866,36.486,17.861,33.031,27.528,7.534,5.236,6.878
1357,0.862,36.593,17.965,33.002,27.521,7.453,5.194,6.755
1358,0.866,36.661,17.814,33.03,27.528,7.452,5.275,6.876
1359,0.84,36.383,17.93,32.992,27.514,7.371,5.195,6.877
1360,0.826,36.515,18.017,33.001,27.524,7.411,5.316,6.959
1361,0.843,36.641,17.889,33.03,27.528,7.371,5.276,6.919
1362,0.846,36.661,17.892,33.011,27.517,7.33,5.154,6.796
1363,0.84,36.326,17.837,33.03,27.521,7.329,5.275,6.917
1364,0.836,36.447,17.926,32.992,27.521,7.248,5.113,6.796
1365,0.843,36.544,18.009,33.011,27.524,7.288,5.274,6.999
1366,0.866,36.373,17.811,33.05,27.524,7.329,5.235,6.919
1367,0.859,36.246,17.953,33.012,27.524,7.167,5.194,6.837
1368,0.856,36.389,17.896,33.021,27.524,7.206,5.234,6.877
1369,0.859,36.457,17.942,32.983,27.51,7.125,5.194,6.877
1370,0.856,36.295,17.834,33.011,27.528,7.205,5.234,7.0
1371,0.866,36.428,17.953,33.03,27.528,7.165,5.316,6.879
1372,0.853,36.534,17.986,33.002,27.521,7.084,5.195,6.837
1373,0.859,36.631,17.932,33.021,27.528,7.123,5.153,6.877
1374,0.849,36.968,18.044,32.983,27.514,7.002,5.193,6.918
1375,0.833,37.134,17.858,33.011,27.521,7.245,5.234,6.919
1376,0.852,37.27,17.962,33.002,27.531,7.166,5.235,7.0
1377,0.833,37.32,18.006,32.992,27.521,7.206,5.235,6.797
1378,0.843,35.939,17.936,33.069,27.521,7.247,5.275,6.877
1379,0.839,36.05,17.947,32.993,27.514,7.125,5.154,6.837
1380,0.833,36.166,17.873,32.992,27.524,7.287,5.234,6.918
1381,0.83,36.273,17.985,33.021,27.521,7.247,5.235,6.878
1382,0.823,36.37,17.857,33.002,27.521,7.288,5.153,6.837
1383,0.839,36.524,17.883,32.982,27.528,7.288,5.193,6.877
1384,0.839,36.631,17.927,32.973,27.517,7.207,5.072,6.755
1385,0.849,36.671,17.861,33.001,27.528,7.287,5.152,6.917
1386,0.853,36.125,17.985,33.021,27.524,7.288,5.193,6.878
1387,0.859,36.272,17.912,32.992,27.521,7.166,5.153,6.837
1388,0.862,36.408,17.97,33.021,27.521,7.246,5.153,6.837
1389,0.869,36.41,17.877,32.973,27.51,7.044,5.071,6.714
1390,0.872,36.295,17.923,32.982,27.524,7.123,5.193,6.835
1391,0.859,36.447,17.986,33.021,27.528,7.165,5.275,6.877
1392,0.849,36.554,17.896,33.002,27.528,7.124,5.154,6.796
1393,0.869,36.469,17.974,33.002,27.528,7.124,5.193,6.917
1394,0.853,36.286,17.908,32.982,27.514,7.002,5.072,6.756
1395,0.836,36.408,17.935,32.982,27.521,7.041,5.193,6.917
1396,0.843,36.544,17.974,33.001,27.524,7.082,5.194,6.959
1397,0.839,36.267,17.955,33.002,27.524,7.002,5.194,6.838
1398,0.852,36.341,17.994,32.992,27.528,7.001,5.194,6.918
1399,0.836,36.476,17.9,33.001,27.521,6.879,5.112,6.715
1400,0.82,36.554,17.97,32.982,27.517,6.918,5.112,6.876
1401,0.823,36.238,17.892,32.992,27.524,7.0,5.193,6.918
1402,0.839,36.369,18.024,33.011,27.517,6.879,5.153,6.878
1403,0.862,36.534,18.037,33.011,27.524,6.877,5.193,6.837
1404,0.843,36.603,17.819,32.992,27.524,6.755,5.072,6.755
1405,0.853,36.21,17.953,32.992,27.521,6.795,5.111,6.836
1406,0.846,36.379,17.9,32.992,27.528,6.877,5.193,6.918
1407,0.833,36.505,17.942,33.001,27.517,6.796,5.112,6.878
1408,0.856,36.602,17.861,33.002,27.531,6.755,5.152,6.877
1409,0.846,36.517,17.981,32.992,27.521,6.754,5.112,6.715
1410,0.849,36.631,18.037,32.992,27.514,6.714,5.112,6.794
1411,0.875,36.786,17.928,33.011,27.528,6.632,5.152,6.917
1412,0.859,36.807,17.974,33.002,27.524,6.712,5.112,6.837
1413,0.866,36.164,17.892,33.021,27.528,6.713,5.152,6.837
1414,0.849,36.273,18.001,33.002,27.521,6.672,5.112,6.714
1415,0.82,36.379,17.865,32.973,27.517,6.591,5.112,6.835
1416,0.833,36.419,17.95,33.049,27.521,6.712,5.234,6.877
1417,0.826,36.448,17.959,32.983,27.524,6.591,5.153,6.796
1418,0.839,36.631,17.955,33.011,27.542,6.671,5.153,6.877
1419,0.82,36.719,17.982,33.002,27.521,6.672,5.071,6.796
1420,0.817,36.576,17.846,32.982,27.514,6.672,5.152,6.877
1421,0.823,36.239,17.934,33.001,27.521,6.713,5.234,6.918
1422,0.817,36.369,18.033,33.002,27.517,6.591,5.072,6.837
1423,0.846,36.505,17.991,33.03,27.535,6.671,5.193,6.877
1424,0.833,36.257,18.018,32.992,27.521,6.672,5.031,6.715
1425,0.839,36.351,17.912,32.982,27.517,6.631,5.151,6.754
1426,0.862,36.495,17.966,32.992,27.521,6.712,5.153,6.876
1427,0.856,36.564,17.885,32.992,27.528,6.794,5.153,6.877
1428,0.859,36.181,17.958,33.03,27.524,6.755,5.234,6.918
1429,0.843,36.292,17.845,32.992,27.524,6.592,5.072,6.674
1430,0.839,36.389,17.938,32.973,27.521,6.631,5.07,6.753
1431,0.849,36.486,18.025,33.001,27.524,6.712,5.193,6.836
1432,0.846,36.219,17.85,32.992,27.524,6.713,5.153,6.796
1433,0.849,36.398,17.926,33.03,27.538,6.754,5.234,6.877
1434,0.836,36.486,17.798,32.983,27.524,6.632,5.072,6.755
1435,0.833,36.554,17.91,32.973,27.521,6.631,5.03,6.836
1436,0.83,36.238,17.958,33.001,27.521,6.712,5.192,6.837
1437,0.826,36.408,17.9,32.992,27.524,6.713,5.112,6.837
1438,0.826,36.544,17.989,33.021,27.538,6.754,5.152,6.877
1439,0.826,36.584,17.877,33.011,27.521,6.714,5.112,6.755
1440,0.817,36.239,17.903,32.992,27.517,6.672,5.071,6.876
1441,0.82,36.389,17.821,33.001,27.531,6.753,5.193,6.918
1442,0.826,36.505,17.914,32.982,27.517,6.632,5.153,6.837
1443,0.843,36.574,17.966,33.03,27.538,6.794,5.193,6.877
1444,0.833,36.2,17.99,32.992,27.521,6.673,5.112,6.837
1445,0.833,36.321,17.92,32.973,27.521,6.591,5.071,6.877
1446,0.833,36.447,17.833,33.001,27.528,6.671,5.152,6.959
1447,0.836,36.506,18.012,32.982,27.524,6.631,5.112,6.878
1448,0.846,36.295,17.826,33.011,27.531,6.712,5.193,6.877
1449,0.846,36.408,17.949,32.992,27.524,6.551,5.072,6.755
1450,0.843,36.477,17.962,32.982,27.514,6.59,5.03,6.876
1451,0.849,36.305,17.963,32.973,27.528,6.631,5.151,6.959
1452,0.843,36.389,18.009,32.982,27.524,6.672,5.031,6.838
1453,0.853,36.534,17.819,32.992,27.524,6.631,5.111,6.958
1454,0.846,36.631,17.953,32.982,27.521,6.55,5.03,6.838
1455,0.82,36.124,17.877,32.963,27.524,6.63,5.07,6.877
1456,0.83,36.272,17.919,32.972,27.528,6.712,5.111,6.959
1457,0.833,36.389,17.966,32.982,27.524,6.672,5.071,6.919
1458,0.846,36.515,17.846,33.001,27.524,6.631,5.152,6.878
1459,0.827,36.219,17.977,32.982,27.517,6.672,5.031,6.837
1460,0.813,36.35,17.982,32.944,27.528,6.713,5.03,6.958
1461,0.813,36.505,17.877,33.001,27.521,6.794,5.151,6.96
1462,0.826,36.564,17.962,32.982,27.528,6.836,5.112,6.919
1463,0.836,36.267,17.861,33.001,27.524,6.796,5.112,6.959
1464,0.833,36.389,17.985,32.982,27.524,6.755,4.989,6.878
1465,0.833,36.476,17.9,32.953,27.521,6.795,5.11,6.959
1466,0.836,36.564,17.974,32.982,27.531,6.836,5.234,7.082
1467,0.833,36.411,17.857,32.973,27.524,6.837,5.153,6.961
1468,0.849,36.563,17.989,32.982,27.528,6.877,5.153,6.878
1469,0.843,36.68,17.978,32.982,27.521,6.796,4.949,6.755
1470,0.836,36.671,17.912,32.963,27.517,6.958,5.11,6.917
1471,0.849,36.268,18.013,32.982,27.528,7.122,5.112,7.041
1472,0.846,36.399,17.92,32.973,27.524,7.083,5.071,6.879
1473,0.846,36.544,18.048,32.992,27.535,7.286,5.111,7.0
1474,0.836,36.737,17.881,32.973,27.518,7.207,4.949,6.838
1475,0.817,36.336,17.938,32.953,27.517,7.409,4.988,6.958
1476,0.816,36.495,17.841,32.982,27.528,7.533,5.151,6.96
1477,0.823,36.602,17.942,32.973,27.528,7.616,5.071,7.0
1478,0.826,36.287,17.966,32.992,27.528,7.739,5.111,6.96
1479,0.813,36.293,17.908,32.982,27.521,7.699,5.03,6.878
1480,0.803,36.418,18.013,32.953,27.517,7.74,5.07,6.959
1481,0.8,36.525,17.873,33.001,27.528,7.781,5.111,7.041
1482,0.797,36.305,17.891,32.973,27.521,7.862,5.071,6.96
1483,0.82,36.456,17.833,33.02,27.535,7.944,5.111,7.0
1484,0.817,36.535,17.895,32.992,27.518,7.864,4.989,6.96
1485,0.82,36.603,17.981,32.954,27.517,7.822,5.07,6.96
1486,0.836,36.153,17.807,32.992,27.531,7.903,5.193,7.082
1487,0.839,36.301,17.949,32.992,27.524,7.904,5.112,6.961
1488,0.846,36.456,17.896,33.03,27.535,7.945,5.112,7.041
1489,0.843,36.506,17.95,32.964,27.521,7.864,5.071,6.879
1490,0.843,36.161,17.931,32.953,27.514,7.822,5.03,7.0
1491,0.846,36.321,17.919,32.982,27.524,7.863,5.151,7.041
1492,0.843,36.428,17.989,32.973,27.517,7.782,5.071,7.042
1493,0.843,36.515,17.939,33.001,27.528,7.781,5.152,7.042
1494,0.826,36.2,18.033,32.963,27.521,7.781,4.99,6.96
1495,0.813,36.35,17.807,32.992,27.521,7.862,5.029,7.082
1496,0.826,36.476,17.899,33.001,27.528,7.985,5.233,7.083
1497,0.82,36.506,17.985,32.973,27.521,7.986,5.072,7.002
1498,0.823,36.228,17.873,33.001,27.531,8.149,5.07,7.082
1499,0.817,36.369,17.934,32.992,27.524,8.11,5.07,6.961
1500,0.807,36.448,17.806,32.963,27.517,8.313,5.07,7.0
1501,0.803,36.784,18.0,32.972,27.524,8.518,5.111,7.123
1502,0.81,36.174,17.99,32.982,27.521,8.764,5.03,7.043
1503,0.829,36.378,17.857,33.011,27.531,9.092,5.151,7.082
1504,0.813,36.457,17.942,32.973,27.528,9.217,4.99,6.961
1505,0.813,36.17,17.791,32.953,27.517,9.422,5.029,7.0
1506,0.81,36.225,17.965,32.982,27.521,9.627,5.233,7.082
1507,0.8,36.389,17.97,32.982,27.528,9.751,5.113,7.002
1508,0.833,36.496,17.908,33.011,27.538,10.037,5.234,7.082
1509,0.846,36.238,18.013,32.982,27.521,10.04,5.113,6.961
1510,0.83,36.35,17.826,32.963,27.517,9.999,4.949,6.96
1511,0.839,36.495,17.938,32.982,27.531,10.08,5.15,7.0
1512,0.82,36.573,17.837,32.982,27.528,10.04,5.071,6.919
1513,0.823,36.162,17.996,33.001,27.538,10.202,5.233,7.041
1514,0.83,36.282,18.057,32.982,27.524,10.123,5.032,6.96
1515,0.813,36.38,17.921,32.953,27.521,10.0,5.07,7.041
1516,0.813,36.467,17.993,32.982,27.521,10.039,5.193,7.082
1517,0.82,36.228,17.873,32.973,27.528,9.958,5.072,7.002
1518,0.823,36.379,17.958,33.011,27.535,9.998,5.152,7.041
1519,0.807,36.515,17.939,32.992,27.528,9.917,5.153,7.001
1520,0.79,36.535,17.888,32.963,27.514,9.794,4.99,7.001
1521,0.787,36.104,18.005,32.963,27.517,9.753,5.11,6.96
1522,0.793,36.215,17.92,32.972,27.517,9.712,5.112,7.0
1523,0.823,36.379,18.017,32.992,27.535,9.833,5.193,7.001
1524,0.826,36.39,17.799,32.982,27.528,9.59,5.112,6.879
1525,0.836,36.141,17.871,32.963,27.521,9.466,4.989,6.918
1526,0.836,36.273,17.997,32.972,27.528,9.424,5.07,7.0
1527,0.836,36.379,17.893,32.982,27.528,9.424,5.07,6.96
1528,0.846,36.659,17.966,33.001,27.535,9.505,5.233,7.0
1529,0.83,36.172,17.896,32.973,27.521,9.262,5.032,6.879
1530,0.82,36.263,17.985,32.963,27.524,9.219,5.07,6.796
1531,0.83,36.37,17.889,32.953,27.528,9.259,5.152,6.917
1532,0.826,36.237,17.923,32.972,27.524,9.219,5.112,6.837
1533,0.826,36.293,17.97,32.982,27.531,9.259,5.152,7.04
1534,0.82,36.428,17.908,32.982,27.524,9.137,5.153,6.96
1535,0.807,36.496,18.036,32.944,27.521,9.055,5.112,6.838
1536,0.816,36.152,17.866,32.963,27.528,9.054,5.152,6.918
1537,0.797,36.263,17.969,32.963,27.521,8.973,5.112,6.878
1538,0.816,36.399,18.029,33.001,27.542,9.053,5.234,6.959
1539,0.813,36.486,17.87,32.982,27.528,8.891,5.113,6.878
1540,0.807,36.056,17.95,32.925,27.517,8.727,5.071,6.837
1541,0.8,36.195,17.814,32.953,27.524,8.726,5.152,6.877
1542,0.8,36.312,17.981,32.953,27.524,8.685,5.153,6.837
1543,0.816,36.399,18.029,32.992,27.535,8.644,5.234,6.918
1544,0.826,36.103,17.952,32.973,27.531,8.603,5.153,6.878
1545,0.81,36.253,17.947,32.953,27.521,8.399,5.031,6.837
1546,0.829,36.379,17.88,32.963,27.524,8.438,5.111,6.837
1547,0.82,36.409,17.927,32.944,27.524,8.357,5.071,6.796
1548,0.83,36.026,17.826,32.991,27.535,8.478,5.274,6.917
1549,0.836,36.156,17.918,32.954,27.528,8.316,5.154,6.796
1550,0.839,36.244,18.029,32.934,27.524,8.193,5.071,6.714
1551,0.843,36.322,17.873,32.963,27.528,8.151,5.152,6.876
1552,0.826,36.198,17.829,32.972,27.517,8.069,5.071,6.796
1553,0.846,36.35,17.84,32.973,27.535,8.15,5.07,6.877
1554,0.83,36.447,17.922,32.973,27.524,8.11,5.111,6.755
1555,0.8,36.429,17.818,32.934,27.514,7.906,4.989,6.754
1556,0.81,36.141,17.836,32.953,27.528,8.026,5.192,6.876
1557,0.803,36.282,17.942,32.953,27.524,7.905,5.112,6.796
1558,0.816,36.399,17.908,32.963,27.538,7.985,5.193,6.958
1559,0.81,36.256,17.954,32.953,27.531,7.783,5.153,6.797
1560,0.803,36.264,17.822,32.924,27.521,7.781,5.071,6.795
1561,0.81,36.399,17.934,32.953,27.524,7.822,5.152,6.836
1562,0.807,36.477,17.884,32.934,27.528,7.741,5.071,6.796
1563,0.829,36.036,17.97,32.991,27.531,7.821,5.152,6.917
1564,0.823,36.089,18.041,32.963,27.528,7.741,5.031,6.756
1565,0.817,36.215,17.858,32.953,27.517,7.659,5.07,6.795
1566,0.81,36.321,17.938,32.953,27.528,7.698,5.193,6.917
1567,0.826,36.102,17.88,32.944,27.528,7.618,5.072,6.796
1568,0.839,36.282,17.954,32.982,27.524,7.657,5.111,6.836
1569,0.836,36.38,17.92,32.944,27.521,7.536,5.03,6.755
1570,0.833,36.428,17.954,32.915,27.514,7.534,5.03,6.754
1571,0.843,35.978,18.029,32.924,27.521,7.534,5.192,6.795
1572,0.833,36.108,17.838,32.934,27.528,7.494,5.112,6.714
1573,0.836,36.272,17.825,32.982,27.531,7.534,5.152,6.794
1574,0.823,36.322,17.77,32.953,27.524,7.494,5.071,6.714
1575,0.813,36.169,17.875,32.915,27.514,7.371,5.07,6.794
1576,0.81,36.311,17.93,32.934,27.528,7.492,5.193,6.836
1577,0.813,36.428,17.865,32.915,27.528,7.371,5.153,6.714
1578,0.826,36.525,17.989,32.943,27.528,7.37,5.153,6.835
1579,0.807,36.037,17.885,32.915,27.517,7.289,5.071,6.714
1580,0.803,36.166,17.845,32.934,27.517,7.288,5.111,6.835
1581,0.813,36.311,17.942,32.943,27.528,7.369,5.234,6.837
1582,0.81,36.303,17.873,32.924,27.524,7.289,5.113,6.796
1583,0.829,36.169,17.981,32.953,27.524,7.369,5.152,6.836
1584,0.823,36.263,17.92,32.915,27.521,7.167,5.071,6.674
1585,0.83,36.351,17.919,32.914,27.521,7.246,5.07,6.835
1586,0.826,36.15,17.837,32.914,27.528,7.328,5.152,6.877
1587,0.839,36.11,17.993,32.934,27.524,7.289,5.112,6.959
1588,0.846,36.292,17.846,32.953,27.528,7.207,5.152,6.838
1589,0.833,36.341,17.934,32.905,27.524,7.165,5.031,6.755
1590,0.83,35.949,17.966,32.905,27.517,7.165,5.111,6.876
1591,0.846,36.079,17.959,32.914,27.517,7.287,5.152,6.918
1592,0.84,36.205,18.029,32.895,27.521,7.207,5.112,6.878
1593,0.846,36.331,17.858,32.943,27.531,7.287,5.112,6.918
1594,0.836,36.054,17.954,32.896,27.514,7.125,5.071,6.756
1595,0.826,36.176,17.838,32.905,27.51,7.043,5.111,6.836
1596,0.83,36.311,17.965,32.914,27.524,7.204,5.071,6.877
1597,0.813,36.399,17.998,32.914,27.517,7.125,5.152,6.755
1598,0.826,36.036,17.869,32.953,27.531,7.205,5.071,6.876
1599,0.8,36.166,17.997,32.934,27.521,7.084,5.07,6.755
1600,0.803,36.273,17.842,32.895,27.507,7.002,5.07,6.795
1601,0.803,36.351,17.883,32.933,27.531,7.041,5.152,6.877
1602,0.807,35.997,17.903,32.905,27.517,6.96,5.031,6.877
1603,0.816,36.166,17.868,32.943,27.514,7.082,5.151,6.877
1604,0.81,36.283,17.989,32.924,27.514,6.92,4.99,6.715
1605,0.813,36.284,17.889,32.905,27.514,6.878,5.07,6.794
1606,0.816,36.025,17.966,32.914,27.528,7.0,5.152,6.836
1607,0.823,36.166,17.838,32.924,27.521,6.879,5.071,6.837
1608,0.839,36.321,17.934,32.962,27.538,6.877,5.152,6.796
1609,0.826,36.303,17.97,32.972,27.521,6.877,5.153,6.755
1610,0.833,36.562,17.857,32.905,27.514,6.837,5.112,6.754
1611,0.843,36.708,17.977,32.924,27.524,6.918,5.112,6.836
1612,0.813,36.815,17.873,32.924,27.521,6.796,5.112,6.877
1613,0.82,36.088,18.02,32.943,27.538,6.999,5.193,6.837
1614,0.82,35.687,17.838,32.924,27.524,6.879,5.112,6.796
1615,0.82,35.817,17.926,32.905,27.517,6.796,4.989,6.795
1616,0.833,35.934,17.986,32.914,27.531,6.795,5.11,6.917
1617,0.813,36.069,17.857,32.905,27.517,6.795,5.152,6.878
1618,0.82,36.234,17.946,32.953,27.538,6.917,5.193,6.877
1619,0.807,36.36,17.861,32.934,27.528,6.796,5.072,6.959
1620,0.8,36.419,17.985,32.905,27.521,6.755,5.03,6.919
1621,0.794,35.863,17.795,32.905,27.524,6.754,5.111,6.959
1622,0.793,36.001,17.898,32.962,27.528,6.754,5.152,6.919
1623,0.813,36.156,17.95,32.944,27.535,6.836,5.275,6.959
1624,0.807,36.225,17.814,32.924,27.524,6.755,5.113,6.96
1625,0.8,36.398,17.996,32.905,27.521,6.632,5.071,6.96
1626,0.807,36.553,17.83,32.924,27.524,6.712,5.152,7.041
1627,0.803,36.66,17.934,32.924,27.521,6.672,5.071,7.082
1628,0.829,36.767,17.884,32.943,27.535,6.835,5.233,7.083
1629,0.836,35.694,17.911,32.915,27.528,6.714,5.072,7.002
1630,0.817,35.808,17.81,32.905,27.514,6.632,5.03,6.96
1631,0.826,35.943,17.906,32.914,27.531,6.712,5.151,7.122
1632,0.826,35.993,17.989,32.895,27.528,6.591,5.071,7.002
1633,0.833,36.079,17.951,32.943,27.538,6.753,5.193,7.082
1634,0.823,36.186,18.009,32.934,27.535,6.673,5.153,7.042
1635,0.813,36.311,17.834,32.905,27.521,6.55,5.031,7.001
1636,0.787,36.332,17.922,32.914,27.531,6.671,5.151,7.123
1637,0.774,35.91,17.911,32.905,27.528,6.631,5.031,7.002
1638,0.8,36.088,17.95,32.953,27.542,6.672,5.192,7.082
1639,0.8,36.205,17.966,32.915,27.531,6.631,5.153,7.002
1640,0.787,36.062,17.888,32.905,27.521,6.509,5.031,6.96
1641,0.803,35.946,17.938,32.905,27.521,6.63,5.111,7.082
1642,0.8,36.06,17.806,32.905,27.521,6.55,5.112,6.961
1643,0.813,36.214,17.883,32.943,27.542,6.671,5.234,7.082
1644,0.807,35.88,17.919,32.915,27.528,6.591,5.194,7.002
1645,0.807,35.925,17.872,32.905,27.521,6.509,5.072,7.001
1646,0.8,36.079,17.915,32.905,27.521,6.63,5.233,7.041
1647,0.813,36.186,17.822,32.914,27.521,6.509,5.153,7.001
1648,0.816,35.88,17.985,32.962,27.545,6.752,5.193,7.082
1649,0.816,35.992,17.904,32.925,27.532,6.673,5.112,6.961
1650,0.816,36.127,17.911,32.905,27.517,6.631,5.071,6.919
1651,0.833,36.215,17.97,32.905,27.524,6.753,5.193,7.041
1652,0.817,35.794,17.892,32.895,27.524,6.714,5.153,6.92
1653,0.816,35.953,18.017,32.933,27.538,6.754,5.153,6.959
1654,0.829,36.06,17.897,32.915,27.521,6.673,5.071,6.838
1655,0.804,36.109,17.888,32.953,27.521,6.713,5.111,6.958
1656,0.803,35.994,17.927,32.905,27.528,6.754,5.152,7.0
1657,0.8,36.137,17.9,32.905,27.528,6.836,5.112,6.96
1658,0.813,36.292,17.997,32.972,27.531,6.877,5.112,7.0
1659,0.8,36.322,17.819,32.925,27.521,6.877,5.193,6.919
1660,0.784,35.9,17.969,32.886,27.517,6.837,5.031,6.959
1661,0.8,36.05,17.877,32.924,27.528,6.918,5.233,7.041
1662,0.79,36.176,17.923,32.915,27.528,6.919,5.153,7.001
1663,0.819,36.244,17.9,32.934,27.531,6.959,5.112,6.96
1664,0.817,35.89,17.845,32.895,27.521,6.96,5.03,6.878
1665,0.81,36.03,17.903,32.895,27.521,6.919,5.151,6.959
1666,0.826,36.137,17.825,32.905,27.528,7.081,5.234,7.0
1667,0.83,36.071,17.981,32.905,27.521,7.083,5.153,7.001
1668,0.833,35.965,17.865,32.924,27.524,7.083,5.193,7.041
1669,0.846,36.05,17.981,32.895,27.521,7.083,5.031,6.839
1670,0.843,36.147,17.935,32.895,27.517,7.205,5.151,6.958
1671,0.833,35.793,17.857,32.895,27.528,7.287,5.193,6.96
1672,0.826,35.847,17.95,32.895,27.517,7.288,5.112,6.919
1673,0.849,36.03,17.849,32.914,27.524,7.288,5.152,6.919
1674,0.82,36.089,17.95,32.876,27.517,7.329,4.99,6.837
1675,0.82,35.812,17.916,32.895,27.521,7.37,5.07,6.958
1676,0.817,35.962,17.865,32.905,27.528,7.411,5.193,7.041
1677,0.813,36.079,17.993,32.886,27.521,7.371,5.112,7.042
1678,0.829,36.186,17.799,32.924,27.524,7.411,5.152,7.001
1679,0.817,35.842,17.902,32.895,27.514,7.289,4.99,6.96
1680,0.79,35.963,17.931,32.886,27.524,7.41,5.151,7.0
1681,0.784,36.098,17.935,32.914,27.531,7.493,5.193,7.082
1682,0.8,36.148,17.974,32.895,27.517,7.371,5.031,7.002
1683,0.82,35.717,17.81,32.895,27.521,7.37,5.192,7.041
1684,0.8,35.837,17.871,32.895,27.51,7.33,5.031,6.92
1685,0.816,35.963,17.899,32.866,27.517,7.329,5.111,7.041
1686,0.82,36.031,17.907,32.895,27.524,7.451,5.193,7.042
1687,0.83,35.888,17.95,32.972,27.531,7.412,5.153,6.96
1688,0.83,36.03,17.834,32.896,27.531,7.371,5.153,7.0
1689,0.833,36.128,17.953,32.876,27.507,7.37,5.071,6.96
1690,0.833,36.167,17.842,32.876,27.521,7.37,5.152,6.96
1691,0.843,35.899,17.856,32.904,27.531,7.492,5.193,7.041
1692,0.833,36.03,17.903,32.876,27.524,7.494,5.194,6.92
1693,0.836,36.185,17.837,32.895,27.524,7.453,5.153,7.0
1694,0.833,36.129,17.918,32.857,27.517,7.371,4.99,6.879
1695,0.823,35.851,17.888,32.856,27.524,7.452,5.151,7.081
1696,0.833,36.011,17.938,32.914,27.521,7.412,5.275,7.002
1697,0.823,36.108,17.9,32.895,27.521,7.33,5.154,6.96
1698,0.836,35.956,17.927,32.876,27.528,7.37,5.153,7.082
1699,0.817,36.031,17.923,32.885,27.514,7.289,5.031,6.961
1700,0.813,36.147,17.787,32.885,27.517,7.288,5.192,7.0
1701,0.81,36.254,17.949,32.905,27.531,7.329,5.194,7.082
1702,0.813,35.737,17.853,32.895,27.521,7.248,5.112,7.002
1703,0.839,35.875,17.977,32.886,27.524,7.247,5.112,7.001
1704,0.843,35.973,17.963,32.876,27.514,7.125,4.989,6.96
1705,0.83,36.07,17.881,32.866,27.521,7.205,5.192,7.122
1706,0.826,35.888,17.97,32.895,27.528,7.287,5.153,7.165
1707,0.83,36.002,17.861,32.876,27.517,7.166,5.153,7.002
1708,0.836,36.175,17.938,32.876,27.524,7.124,5.153,7.001
1709,0.833,36.225,17.837,32.847,27.514,7.083,5.031,6.96
1710,0.839,35.804,17.954,32.866,27.524,7.164,5.192,7.082
1711,0.839,35.953,17.97,32.876,27.531,7.165,5.234,7.042
1712,0.833,36.089,17.861,32.885,27.521,7.124,5.153,7.001
1713,0.843,36.147,17.887,32.876,27.521,7.165,5.193,7.001
1714,0.83,35.822,17.794,32.866,27.514,7.043,4.99,6.879
1715,0.807,35.943,17.941,32.866,27.521,7.082,5.11,7.0
1716,0.81,36.098,17.943,32.895,27.531,7.205,5.234,7.082
1717,0.8,36.128,17.853,32.895,27.521,7.003,5.072,7.002
1718,0.823,35.86,18.02,32.886,27.528,7.041,5.152,6.96
1719,0.81,35.963,17.846,32.857,27.517,6.879,5.031,6.96
1720,0.813,36.089,17.926,32.933,27.521,7.0,5.151,7.082
1721,0.826,36.234,17.876,32.905,27.528,7.001,5.234,7.123
1722,0.83,35.842,17.891,32.886,27.521,6.879,5.153,7.002
1723,0.836,35.982,18.013,32.876,27.521,6.877,5.153,6.96
1724,0.826,36.079,17.862,32.857,27.514,6.715,5.071,6.919
1725,0.82,35.754,17.926,32.943,27.517,6.835,5.152,7.081
1726,0.823,35.818,17.798,32.886,27.528,6.877,5.193,7.083
1727,0.83,35.943,17.996,32.876,27.524,6.837,5.153,7.002
1728,0.839,36.088,17.865,32.895,27.521,6.918,5.193,7.041
1729,0.839,35.764,17.895,32.857,27.514,6.715,5.031,6.92
1730,0.833,35.885,17.989,32.856,27.521,6.794,5.192,7.081
1731,0.839,36.05,17.904,32.876,27.524,6.836,5.153,7.042
1732,0.833,36.109,17.939,32.866,27.521,6.796,5.153,7.001
1733,0.833,35.831,17.752,32.866,27.521,6.795,5.153,7.001
1734,0.826,35.963,17.878,32.847,27.514,6.551,5.031,6.96
1735,0.807,36.07,17.884,32.866,27.517,6.712,5.151,7.082
1736,0.813,36.166,17.892,32.885,27.521,6.754,5.193,7.123
1737,0.8,35.688,17.946,32.876,27.524,6.714,5.112,7.002
1738,0.813,35.846,17.845,32.876,27.521,6.754,5.152,7.001
1739,0.81,35.944,17.946,32.847,27.517,6.673,5.031,6.879
1740,0.807,35.983,17.83,32.856,27.521,6.713,5.151,7.081
1741,0.803,35.878,17.903,32.876,27.528,6.754,5.153,7.123
1742,0.803,36.021,17.9,32.885,27.517,6.754,5.031,6.961
1743,0.829,36.137,17.88,32.876,27.521,6.795,5.192,7.041
1744,0.823,36.158,17.966,32.837,27.517,6.673,5.031,6.96
1745,0.83,35.803,17.822,32.866,27.517,6.875,5.192,7.082
1746,0.836,35.953,17.891,32.876,27.524,6.918,5.153,7.042
1747,0.83,36.06,17.833,32.847,27.524,6.837,5.153,7.001
1748,0.843,36.387,17.817,32.875,27.524,6.877,5.153,7.041
1749,0.836,35.92,17.93,32.857,27.514,6.796,5.031,6.92
1750,0.826,36.05,17.83,32.866,27.524,6.877,5.151,7.122
1751,0.846,36.185,18.016,32.876,27.528,6.918,5.275,7.043
1752,0.853,35.698,17.83,32.857,27.517,6.796,5.113,6.96
1753,0.833,35.683,17.875,32.866,27.521,6.877,5.152,7.0
1754,0.83,35.808,17.891,32.828,27.514,6.796,5.071,6.919
1755,0.826,35.895,17.825,32.856,27.528,6.877,5.193,7.041
1756,0.823,35.992,17.961,32.866,27.528,6.918,5.153,7.123
1757,0.807,36.137,17.814,32.847,27.521,6.837,5.071,6.961
1758,0.813,36.263,17.914,32.856,27.524,6.877,5.152,7.0
1759,0.81,36.312,17.841,32.818,27.514,6.837,5.031,7.001
1760,0.8,35.507,17.891,32.875,27.524,6.918,5.151,7.082
1761,0.807,35.672,17.919,32.866,27.528,6.837,5.153,7.123
1762,0.807,35.808,17.845,32.856,27.521,6.877,5.153,7.002
1763,0.826,35.876,17.95,32.866,27.528,6.877,5.112,7.123
1764,0.81,36.299,17.892,32.837,27.514,6.796,5.112,7.043
1765,0.823,36.447,17.919,32.866,27.528,6.836,5.234,7.204
1766,0.826,36.592,17.798,32.866,27.521,6.877,5.194,7.125
1767,0.83,36.642,17.922,32.847,27.521,6.837,5.153,7.083
1768,0.83,35.367,17.931,32.856,27.528,6.796,5.112,7.123
1769,0.82,35.517,17.802,32.837,27.524,6.795,5.152,7.083
1770,0.843,35.662,17.941,32.866,27.535,6.917,5.315,7.286
1771,0.853,35.702,17.869,32.866,27.524,6.959,5.114,7.166
1772,0.823,35.818,17.969,32.828,27.521,6.838,5.071,7.084
1773,0.826,35.943,17.885,32.866,27.521,6.837,5.111,7.123
1774,0.81,36.069,17.868,32.876,27.517,6.877,5.152,7.165
1775,0.803,36.329,17.891,32.866,27.535,7.04,5.275,7.287
1776,0.803,35.728,17.907,32.876,27.528,6.96,5.195,7.207
1777,0.8,35.856,17.943,32.914,27.524,6.878,5.031,7.125
1778,0.81,35.973,17.798,32.847,27.528,6.959,5.192,7.205
1779,0.794,35.734,17.941,32.818,27.524,7.041,5.072,7.287
1780,0.8,35.799,17.943,32.875,27.531,7.164,5.314,7.288
1781,0.803,35.953,17.795,32.857,27.524,7.124,5.195,7.207
1782,0.8,36.041,17.926,32.837,27.521,7.043,5.072,7.165
1783,0.807,35.62,17.849,32.856,27.528,7.123,5.152,7.165
1784,0.803,35.702,17.946,32.837,27.524,7.124,5.112,7.165
1785,0.813,35.856,17.869,32.847,27.531,7.287,5.315,7.328
1786,0.823,35.953,17.927,32.856,27.524,7.288,5.154,7.289
1787,0.823,35.667,17.908,32.837,27.521,7.166,5.071,7.125
1788,0.826,35.808,17.939,32.856,27.521,7.246,5.193,7.246
1789,0.83,35.934,17.97,32.856,27.521,7.247,5.153,7.166
1790,0.839,36.012,17.818,32.866,27.535,7.288,5.275,7.287
1791,0.833,35.696,17.965,32.856,27.528,7.288,5.154,7.125
1792,0.836,35.827,17.896,32.828,27.521,7.207,5.071,7.043
1793,0.823,35.972,17.962,32.846,27.524,7.247,5.274,7.123
1794,0.826,35.974,17.916,32.828,27.528,7.084,5.154,7.124
1795,0.826,35.705,17.825,32.866,27.531,7.367,5.315,7.205
1796,0.813,35.875,17.973,32.876,27.528,7.208,5.195,7.165
1797,0.803,35.963,17.795,32.818,27.514,7.084,5.031,7.043
1798,0.816,36.041,17.914,32.846,27.531,7.286,5.151,7.082
1799,0.803,35.668,17.798,32.837,27.524,7.207,5.071,7.123
1800,0.803,35.827,17.926,32.875,27.535,7.328,5.314,7.205
1801,0.8,35.953,17.923,32.857,27.524,7.207,5.073,7.084
1802,0.82,35.945,17.849,32.895,27.521,7.125,5.111,7.042
1803,0.817,35.839,17.911,32.857,27.524,7.165,5.152,7.123
1804,0.803,35.982,17.833,32.847,27.528,7.165,5.112,7.043
1805,0.826,36.098,17.977,32.875,27.535,7.287,5.274,7.042
1806,0.826,35.716,17.779,32.857,27.521,7.125,5.154,6.96
1807,0.813,35.645,17.863,32.837,27.517,7.083,5.112,7.0
1808,0.839,35.807,17.969,32.856,27.524,7.123,5.152,7.041
1809,0.843,35.895,17.865,32.837,27.524,7.083,5.112,6.96
1810,0.849,35.81,17.954,32.866,27.535,7.123,5.112,7.0
1811,0.862,35.924,17.822,32.837,27.524,7.043,5.071,6.919
1812,0.843,36.04,17.953,32.827,27.521,6.96,5.03,6.919
1813,0.849,36.147,17.849,32.846,27.524,6.96,5.233,7.0
1814,0.836,35.669,17.895,32.856,27.517,7.0,5.113,6.96
1815,0.846,35.856,17.919,32.885,27.535,7.041,5.193,7.0
1816,0.846,35.973,17.81,32.847,27.524,7.001,5.072,6.879
1817,0.846,36.041,17.906,32.828,27.517,7.001,5.03,6.877
1818,0.856,35.629,17.95,32.837,27.528,7.001,5.151,6.918
1819,0.853,35.769,17.826,32.837,27.521,7.041,5.153,6.959
1820,0.853,35.914,18.016,32.866,27.542,7.082,5.193,6.96
1821,0.846,35.964,17.862,32.847,27.528,6.961,5.112,6.838
1822,0.853,35.628,17.848,32.828,27.521,7.0,5.071,6.877
1823,0.866,35.807,17.887,32.846,27.528,7.041,5.152,6.877
1824,0.859,35.915,17.81,32.847,27.528,7.082,5.112,6.877
1825,0.869,35.992,17.957,32.885,27.535,7.164,5.234,6.877
1826,0.876,35.705,17.83,32.837,27.524,7.002,5.113,6.837
1827,0.869,35.856,17.953,32.837,27.514,6.96,5.071,6.837
1828,0.879,35.973,17.845,32.866,27.528,7.163,5.152,6.918
1829,0.905,35.983,18.0,32.818,27.521,7.084,5.153,6.878
1830,0.938,35.734,17.889,32.866,27.531,7.164,5.153,6.877
1831,0.938,35.856,17.86,32.847,27.531,7.165,5.112,6.796
1832,0.915,35.953,17.946,32.808,27.517,6.962,5.071,6.795
1833,0.902,35.763,17.841,32.856,27.524,7.163,5.193,6.917
1834,0.905,35.722,17.954,32.837,27.521,7.084,5.112,6.878
1835,0.886,35.875,17.896,32.875,27.535,7.164,5.234,6.837
1836,0.879,35.954,17.864,32.837,27.521,7.165,5.113,6.755
1837,0.876,35.676,17.934,32.827,27.517,7.165,5.071,6.836
1838,0.898,35.836,17.822,32.846,27.528,7.287,5.193,6.918
1839,0.902,35.953,17.903,32.856,27.521,7.207,5.112,6.837
1840,0.908,36.089,17.841,32.876,27.538,7.369,5.234,6.877
1841,0.905,35.668,17.989,32.847,27.514,7.37,5.072,6.837
1842,0.899,35.769,17.854,32.847,27.517,7.37,5.07,6.918
1843,0.921,35.905,17.891,32.847,27.528,7.492,5.193,6.959
1844,0.938,35.992,17.919,32.847,27.521,7.412,5.112,6.919
1845,0.958,35.61,17.857,32.875,27.535,7.533,5.193,6.959
1846,0.964,35.74,17.965,32.847,27.528,7.453,5.153,6.878
1847,0.977,35.856,17.846,32.828,27.524,7.452,5.153,6.837
1848,0.994,35.925,17.903,32.846,27.521,7.656,5.153,6.877
1849,1.01,35.618,17.981,32.837,27.521,7.617,5.153,6.959
1850,1.03,35.798,17.873,32.875,27.535,7.657,5.234,7.0
1851,1.001,35.895,17.946,32.857,27.524,7.617,5.072,6.838
1852,0.984,35.915,17.814,32.837,27.521,7.617,5.152,6.877
1853,0.987,35.733,17.953,32.866,27.528,7.617,5.234,6.959
1854,0.978,35.856,17.994,32.837,27.528,7.617,5.153,6.919
1855,0.981,36.001,17.854,32.866,27.528,7.739,5.193,6.837
1856,0.971,36.012,17.934,32.837,27.528,7.618,5.112,6.796
1857,0.955,35.629,17.798,32.818,27.521,7.617,5.112,6.917
1858,0.967,35.807,17.914,32.837,27.524,7.617,5.152,6.959
1859,0.964,35.915,17.943,32.837,27.524,7.657,5.234,6.838
1860,0.948,35.791,17.877,32.885,27.531,7.698,5.153,6.918
1861,0.945,35.742,17.966,32.837,27.521,7.618,5.071,6.796
1862,0.941,35.837,17.849,32.837,27.514,7.617,5.152,6.917
1863,0.958,35.953,17.954,32.837,27.521,7.698,5.193,6.959
1864,0.958,35.619,17.744,32.837,27.521,7.658,5.194,6.878
1865,0.954,35.75,17.863,32.875,27.531,7.658,5.234,6.918
1866,0.941,35.856,17.88,32.837,27.521,7.658,5.113,6.796
1867,0.922,35.934,17.876,32.827,27.514,7.617,5.152,6.917
1868,0.922,35.571,17.923,32.856,27.521,7.698,5.153,6.919
1869,0.935,35.711,17.904,32.837,27.524,7.577,5.193,6.837
1870,0.938,35.866,17.978,32.856,27.535,7.698,5.194,6.796
1871,0.925,35.934,17.768,32.856,27.521,7.536,5.153,6.877
1872,0.905,35.609,17.867,32.828,27.524,7.616,5.112,6.796
1873,0.915,35.759,17.903,32.837,27.531,7.617,5.152,6.836
1874,0.899,35.885,17.876,32.837,27.524,7.535,5.193,6.877
1875,0.889,35.982,17.981,32.856,27.538,7.616,5.234,6.877
1876,0.879,35.657,17.822,32.847,27.524,7.454,5.072,6.755
1877,0.869,35.779,17.883,32.818,27.517,7.452,5.111,6.836
1878,0.866,35.905,17.993,32.827,27.524,7.493,5.193,6.918
1879,0.849,35.954,17.779,32.846,27.524,7.412,5.153,6.878
1880,0.862,35.734,17.937,32.856,27.535,7.533,5.234,6.918
1881,0.853,35.866,17.802,32.837,27.524,7.494,5.153,6.837
1882,0.84,35.934,17.941,32.818,27.517,7.331,5.071,6.755
1883,0.83,35.993,17.982,32.846,27.528,7.492,5.193,6.876
1884,0.843,35.61,17.818,32.828,27.517,7.412,5.153,6.837
1885,0.862,35.788,17.942,32.866,27.542,7.533,5.234,6.877
1886,0.84,35.876,17.798,32.837,27.525,7.494,5.153,6.837
1887,0.843,35.752,17.895,32.818,27.517,7.371,5.153,6.796
1888,0.839,35.722,17.935,32.846,27.524,7.533,5.193,6.795
1889,0.836,35.856,17.876,32.828,27.524,7.412,5.194,6.755
1890,0.852,35.992,17.997,32.846,27.535,7.655,5.194,6.876
1891,0.849,35.657,17.842,32.837,27.528,7.536,5.194,6.755
1892,0.833,35.74,17.879,32.827,27.514,7.494,5.112,6.754
1893,0.836,35.875,17.837,32.837,27.531,7.656,5.193,6.876
1894,0.823,35.973,17.864,32.847,27.528,7.617,5.153,6.755
1895,0.826,35.533,17.954,32.856,27.531,7.779,5.315,6.876
1896,0.82,35.643,17.818,32.856,27.524,7.7,5.236,6.796
1897,0.8,35.759,17.906,32.808,27.521,7.74,5.113,6.795
1898,0.79,35.866,17.818,32.837,27.524,7.821,5.193,6.836
1899,0.777,35.647,17.918,32.808,27.524,7.741,5.194,6.796
1900,0.784,35.817,17.857,32.875,27.535,7.943,5.234,6.958
1901,0.767,35.943,17.794,32.837,27.524,7.905,5.194,6.756
1902,0.761,35.983,17.926,32.799,27.517,7.863,5.153,6.917
1903,0.783,35.514,17.849,32.827,27.528,7.944,5.234,6.919
1904,0.8,35.633,17.961,32.818,27.517,7.986,5.113,6.919
1905,0.794,35.779,17.904,32.856,27.538,8.149,5.234,7.0
1906,0.803,35.828,17.841,32.837,27.531,8.069,5.194,6.879
1907,0.794,35.656,17.973,32.808,27.517,8.028,5.112,6.918
1908,0.8,35.798,17.834,32.837,27.528,8.149,5.234,6.959
1909,0.803,35.914,17.922,32.837,27.528,8.11,5.153,6.919
1910,0.81,35.944,17.794,32.866,27.538,8.232,5.315,6.959
1911,0.803,35.504,17.969,32.837,27.528,8.151,5.154,6.878
1912,0.803,35.633,17.783,32.827,27.521,8.028,5.112,6.877
1913,0.794,35.759,17.855,32.818,27.524,8.149,5.193,7.0
1914,0.787,35.703,17.876,32.818,27.528,8.028,5.153,6.96
1915,0.797,35.578,17.864,32.856,27.535,8.109,5.193,7.0
1916,0.797,35.692,17.962,32.837,27.528,8.028,5.194,6.96
1917,0.771,35.798,17.842,32.799,27.521,7.946,5.153,6.96
1918,0.78,35.531,17.942,32.827,27.521,7.945,5.275,7.0
1919,0.78,35.614,17.88,32.818,27.524,7.945,5.195,7.041
1920,0.774,35.798,17.938,32.856,27.542,7.986,5.234,7.082
1921,0.767,35.857,17.935,32.856,27.525,7.905,5.194,7.002
1922,0.77,35.474,17.853,32.818,27.517,7.742,5.153,6.96
1923,0.793,35.623,17.895,32.818,27.528,7.862,5.275,7.082
1924,0.8,35.74,17.825,32.827,27.524,7.741,5.195,7.002
1925,0.8,35.866,17.922,32.856,27.531,7.943,5.356,7.041
1926,0.79,35.503,17.841,32.828,27.531,7.742,5.236,7.001
1927,0.79,35.605,17.864,32.799,27.517,7.618,5.113,6.919
1928,0.79,35.759,17.942,32.827,27.528,7.617,5.274,7.081
1929,0.806,35.818,17.849,32.799,27.521,7.657,5.195,7.002
1930,0.82,35.55,17.926,32.846,27.538,7.658,5.316,7.123
1931,0.839,35.663,17.849,32.808,27.521,7.536,5.236,6.961
1932,0.813,35.779,17.95,32.808,27.517,7.453,5.194,6.96
1933,0.813,35.847,17.998,32.827,27.524,7.574,5.194,7.082
1934,0.816,35.531,17.834,32.827,27.524,7.454,5.194,7.002
1935,0.8,35.701,17.926,32.837,27.538,7.534,5.316,7.041
1936,0.774,35.818,17.845,32.818,27.535,7.412,5.236,7.082
1937,0.764,35.828,17.895,32.798,27.521,7.289,5.235,6.961
1938,0.787,35.541,17.892,32.827,27.531,7.451,5.275,7.082
1939,0.793,35.653,17.841,32.818,27.528,7.371,5.154,7.042
1940,0.797,35.817,18.0,32.837,27.535,7.492,5.315,7.082
1941,0.79,35.752,17.78,32.837,27.524,7.371,5.317,7.042
1942,0.784,35.559,17.894,32.818,27.524,7.289,5.073,6.96
1943,0.8,35.691,17.825,32.827,27.524,7.288,5.193,7.082
1944,0.781,35.779,17.852,32.818,27.524,7.288,5.194,7.042
1945,0.79,35.502,17.954,32.846,27.538,7.369,5.316,7.123
1946,0.8,35.576,17.853,32.895,27.524,7.289,5.195,7.043
1947,0.807,35.701,17.903,32.799,27.517,7.166,5.112,6.96
1948,0.842,35.779,17.892,32.817,27.524,7.246,5.193,7.082
1949,0.836,35.502,17.876,32.818,27.521,7.206,5.234,7.002
1950,0.872,35.7,17.798,32.837,27.542,7.287,5.275,7.123
1951,0.895,35.827,17.926,32.818,27.528,7.166,5.195,7.002
1952,0.908,35.896,17.97,32.779,27.517,7.124,5.194,7.123
1953,0.931,35.532,17.986,32.817,27.521,7.246,5.275,7.246
1954,0.951,35.653,17.967,32.779,27.521,7.206,5.195,7.125
1955,0.977,35.846,17.896,32.817,27.535,7.165,5.234,7.165
1956,1.003,35.877,17.942,32.808,27.524,7.124,5.194,7.002
1957,1.01,35.618,17.822,32.779,27.524,7.124,5.153,7.082
1958,1.036,35.778,17.907,32.798,27.524,7.165,5.315,7.123
1959,1.056,35.914,17.81,32.817,27.528,7.206,5.195,7.205
1960,1.089,36.002,17.945,32.827,27.531,7.206,5.316,7.206
1961,1.125,35.466,17.955,32.808,27.521,7.165,5.154,7.043
1962,1.155,35.614,17.771,32.779,27.521,7.124,5.112,7.123
1963,1.184,35.759,17.902,32.865,27.524,7.205,5.152,7.246
1964,1.243,35.761,17.763,32.818,27.521,7.084,5.153,7.125
1965,1.309,35.588,17.91,32.818,27.528,7.245,5.275,7.165
1966,1.365,35.711,17.919,32.798,27.524,7.166,5.195,7.084
1967,1.407,35.827,17.845,32.779,27.521,7.043,5.275,7.205
1968,1.45,35.848,17.969,32.817,27.531,7.123,5.316,7.328
1969,1.509,35.512,17.853,32.789,27.528,7.124,5.195,7.207
1970,1.565,35.729,17.926,32.846,27.521,7.205,5.194,7.287
1971,1.601,35.78,17.802,32.789,27.521,7.043,5.153,7.207
1972,1.628,35.521,17.887,32.779,27.517,7.123,5.153,7.328
1973,1.644,35.605,17.938,32.808,27.524,7.165,5.234,7.41
1974,1.625,35.74,17.939,32.798,27.517,7.043,5.235,7.411
1975,1.628,35.875,17.888,32.827,27.528,7.245,5.316,7.452
1976,1.621,35.465,17.798,32.789,27.524,7.125,5.154,7.33
1977,1.638,35.556,17.922,32.779,27.521,7.124,5.153,7.37
1978,1.609,35.711,17.751,32.798,27.528,7.205,5.193,7.533
1979,1.537,35.808,17.851,32.798,27.531,7.206,5.234,7.494
1980,1.477,35.541,17.911,32.817,27.524,7.247,5.194,7.453
1981,1.363,35.662,17.904,32.798,27.521,7.125,5.112,7.371
1982,1.284,35.76,17.95,32.779,27.517,7.246,5.193,7.411
1983,1.205,35.837,17.795,32.798,27.524,7.328,5.194,7.533
1984,1.113,35.416,17.906,32.798,27.521,7.248,5.153,7.494
1985,1.037,35.594,17.763,32.817,27.528,7.288,5.234,7.534
1986,0.952,35.692,17.922,32.798,27.521,7.207,5.113,7.575
1987,0.821,35.741,17.802,32.779,27.521,7.247,5.112,7.82
1988,0.677,35.655,17.867,32.798,27.524,7.41,5.193,7.944
1989,0.535,35.769,17.997,32.789,27.524,7.411,5.112,8.067
1990,0.469,35.933,17.815,32.827,27.521,7.371,5.112,8.394
1991,0.354,35.954,17.93,32.799,27.521,7.289,5.112,8.478
1992,0.256,35.389,17.791,32.789,27.517,7.288,5.152,8.804
1993,0.173,35.546,17.894,32.798,27.528,7.329,5.234,9.133
1994,0.101,35.672,17.974,32.798,27.524,7.329,5.153,9.38
1995,0.051,35.923,17.814,32.808,27.528,7.329,5.234,9.627
1996,0.005,35.618,17.903,32.798,27.528,7.329,5.153,9.751
1997,-0.041,35.692,17.814,32.77,27.521,7.289,5.153,9.996
1998,-0.064,35.846,17.91,32.798,27.524,7.329,5.153,10.243
1999,-0.084,35.541,17.759,32.798,27.517,7.289,5.193,10.367
2000,-0.08,35.624,17.898,32.827,27.528,7.329,5.194,10.409
2001,-0.077,35.711,17.962,32.808,27.521,7.289,5.072,10.409
2002,-0.058,35.798,17.849,32.789,27.514,7.207,5.152,10.613
2003,-0.025,35.397,17.907,32.817,27.531,7.287,5.275,10.777
2004,0.008,35.527,17.751,32.818,27.521,7.288,5.195,10.779
2005,0.051,35.672,17.851,32.827,27.528,7.329,5.194,10.901
2006,0.08,35.731,17.84,32.799,27.521,7.248,5.072,10.861
2007,0.126,35.434,17.883,32.779,27.517,7.166,5.152,11.064
2008,0.188,35.594,17.899,32.808,27.521,7.287,5.153,11.31
2009,0.218,35.711,17.892,32.798,27.524,7.288,5.153,11.475
2010,0.271,35.827,17.935,32.837,27.528,7.329,5.153,11.802
2011,0.317,35.474,17.806,32.799,27.521,7.248,5.071,11.887
2012,0.317,35.614,17.856,32.77,27.517,7.328,5.152,12.254
2013,0.356,35.74,17.926,32.798,27.528,7.329,5.193,12.42
2014,0.386,35.808,17.861,32.817,27.524,7.329,5.153,12.625
2015,0.425,35.483,17.95,32.818,27.528,7.41,5.153,12.993
2016,0.458,35.604,17.787,32.808,27.528,7.289,5.153,12.956
2017,0.471,35.702,17.918,32.789,27.514,7.41,5.193,13.281
2018,0.498,35.741,17.845,32.789,27.528,7.452,5.234,13.447
2019,0.517,35.569,17.872,32.798,27.524,7.493,5.072,13.448
2020,0.553,35.739,17.919,32.817,27.524,7.494,5.193,13.489
2021,0.563,35.828,17.868,32.789,27.517,7.453,4.99,13.245
2022,0.564,36.097,17.989,32.789,27.517,7.493,5.151,13.365
2023,0.596,35.476,17.861,32.808,27.528,7.616,5.153,13.366
2024,0.622,35.595,17.903,32.798,27.521,7.535,5.193,13.244
2025,0.645,35.749,17.821,32.808,27.521,7.494,5.194,13.162
2026,0.655,35.482,17.895,32.779,27.517,7.412,5.031,12.958
2027,0.675,35.509,17.884,32.789,27.521,7.411,5.192,12.956
2028,0.695,35.681,17.802,32.798,27.524,7.574,5.234,12.874
2029,0.721,35.769,17.934,32.789,27.524,7.494,5.153,12.711
2030,0.75,35.876,17.845,32.779,27.524,7.494,5.153,12.628
2031,0.761,36.002,17.848,32.789,27.521,7.371,5.071,12.424
2032,0.754,36.099,17.868,32.798,27.524,7.411,5.233,12.462
2033,0.767,36.205,17.837,32.789,27.528,7.493,5.235,12.422
2034,0.761,35.218,17.938,32.817,27.524,7.453,5.153,12.218
2035,0.777,35.381,17.888,32.798,27.521,7.412,5.153,12.135
2036,0.767,35.508,17.95,32.77,27.517,7.33,5.071,11.89
2037,0.77,35.566,17.783,32.779,27.524,7.41,5.193,11.888
2038,0.787,35.509,17.926,32.798,27.528,7.452,5.194,11.806
2039,0.777,35.662,17.911,32.789,27.521,7.452,5.153,11.684
2040,0.784,35.788,17.814,32.798,27.528,7.534,5.153,11.52
2041,0.78,35.847,17.914,32.76,27.514,7.575,5.112,11.396
2042,0.797,35.407,17.97,32.769,27.521,7.657,5.193,11.436
2043,0.803,35.556,17.939,32.798,27.524,7.78,5.234,11.273
2044,0.807,35.663,17.955,32.779,27.514,7.781,5.153,11.028
2045,0.826,35.731,17.787,32.798,27.528,7.822,5.193,11.066
2046,0.81,35.444,17.933,32.779,27.517,7.781,5.031,10.863
2047,0.794,35.566,17.814,32.789,27.524,7.984,5.192,10.861
2048,0.813,35.72,17.922,32.798,27.528,8.027,5.194,10.82
2049,0.816,35.933,17.818,32.789,27.521,7.987,5.194,10.576
2050,0.826,35.475,17.926,32.789,27.524,8.027,5.153,10.574
2051,0.839,35.604,17.783,32.769,27.521,8.027,5.153,10.411
2052,0.823,35.74,17.851,32.779,27.524,8.19,5.315,10.409
2053,0.817,35.425,17.88,32.817,27.531,8.232,5.236,10.247
2054,0.823,35.412,17.802,32.798,27.521,8.151,5.153,10.082
2055,0.817,35.546,17.965,32.789,27.528,8.232,5.193,9.959
2056,0.803,35.643,17.826,32.76,27.517,8.151,5.194,9.917
2057,0.807,35.443,17.864,32.807,27.528,8.313,5.316,9.916
2058,0.82,35.575,17.958,32.798,27.528,8.315,5.236,9.794
2059,0.8,35.682,17.795,32.789,27.521,8.193,5.153,9.671
2060,0.8,35.779,17.883,32.817,27.528,8.232,5.193,9.589
2061,0.794,35.329,17.759,32.77,27.514,8.151,5.194,9.507
2062,0.81,35.497,17.906,32.808,27.531,8.232,5.316,9.546
2063,0.826,35.614,17.892,32.808,27.531,8.151,5.236,9.425
2064,0.83,35.682,17.884,32.789,27.524,8.11,5.153,9.22
2065,0.81,35.443,17.923,32.789,27.521,8.109,5.153,9.259
2066,0.813,35.566,17.841,32.779,27.517,8.028,5.153,9.137
2067,0.823,35.711,17.938,32.817,27.528,8.149,5.315,9.258
2068,0.833,35.808,17.798,32.827,27.531,8.028,5.195,9.056
2069,0.83,35.416,17.922,32.789,27.517,7.905,5.031,8.851
2070,0.833,35.575,17.853,32.798,27.528,7.985,5.192,8.849
2071,0.839,35.663,17.891,32.77,27.521,7.946,5.194,8.808
2072,0.833,35.75,17.911,32.846,27.535,8.067,5.316,8.93
2073,0.846,35.463,17.802,32.818,27.528,7.946,5.195,8.728
2074,0.843,35.585,17.879,32.789,27.524,7.783,5.072,8.522
2075,0.826,35.701,17.841,32.817,27.528,7.862,5.193,8.601
2076,0.81,35.683,17.809,32.789,27.521,7.822,5.112,8.48
2077,0.826,35.568,17.797,32.817,27.535,7.822,5.315,8.601
2078,0.833,35.711,17.906,32.818,27.528,7.781,5.236,8.48
2079,0.817,35.798,17.9,32.818,27.517,7.618,5.072,8.316
2080,0.826,35.483,17.837,32.818,27.521,7.617,5.152,8.356
2081,0.817,35.403,17.875,32.798,27.514,7.617,5.112,8.234
2082,0.816,35.565,17.794,32.827,27.531,7.657,5.234,8.314
2083,0.826,35.692,17.953,32.818,27.528,7.617,5.235,8.234
2084,0.826,35.415,17.955,32.789,27.524,7.617,5.113,8.029
2085,0.833,35.546,17.849,32.817,27.528,7.495,5.193,8.19
2086,0.833,35.663,17.891,32.798,27.517,7.412,5.072,8.11
2087,0.843,35.74,17.853,32.798,27.531,7.533,5.233,8.109
2088,0.866,35.367,17.911,32.827,27.528,7.534,5.153,8.069
2089,0.866,35.488,17.892,32.799,27.517,7.412,5.071,7.824
2090,0.859,35.633,17.868,32.798,27.528,7.452,5.152,7.863
2091,0.853,35.702,17.966,32.779,27.514,7.33,5.071,7.863
2092,0.849,35.319,17.752,32.789,27.528,7.451,5.193,7.944
2093,0.849,35.478,17.878,32.817,27.528,7.412,5.234,7.864
2094,0.859,35.595,17.798,32.798,27.521,7.289,5.153,7.7
2095,0.853,35.673,17.793,32.798,27.521,7.369,5.112,7.78
2096,0.836,35.376,17.879,32.779,27.514,7.289,5.112,7.74
2097,0.817,35.527,17.786,32.808,27.524,7.41,5.193,7.781
2098,0.836,35.672,17.926,32.818,27.531,7.371,5.194,7.7
2099,0.839,35.702,17.818,32.808,27.517,7.33,5.072,7.658
2100,0.839,35.434,17.836,32.827,27.524,7.329,5.193,7.617
2101,0.817,35.556,17.868,32.779,27.517,7.207,5.112,7.617
2102,0.829,35.682,17.825,32.808,27.531,7.328,5.193,7.657
2103,0.846,35.702,17.965,32.808,27.524,7.37,5.194,7.617
2104,0.853,35.271,17.877,32.798,27.521,7.248,5.112,7.495
2105,0.856,35.439,17.868,32.817,27.528,7.288,5.234,7.534
2106,0.856,35.508,17.864,32.779,27.51,7.247,5.032,7.453
2107,0.859,35.422,17.907,32.808,27.528,7.369,5.273,7.615
2108,0.862,35.45,17.853,32.837,27.531,7.289,5.195,7.495
2109,0.859,35.585,17.786,32.799,27.517,7.207,5.112,7.412
2110,0.859,35.701,17.894,32.817,27.528,7.287,5.152,7.411
2111,0.866,35.367,17.837,32.789,27.514,7.125,5.071,7.33
2112,0.869,35.459,17.879,32.798,27.524,7.287,5.193,7.451
2113,0.863,35.633,17.86,32.817,27.528,7.207,5.194,7.371
2114,0.853,35.702,17.79,32.808,27.524,7.165,5.112,7.208
2115,0.846,35.29,17.859,32.818,27.528,7.165,5.152,7.328
2116,0.843,35.411,17.852,32.779,27.507,7.084,5.031,7.289
2117,0.839,35.537,17.942,32.789,27.521,7.164,5.151,7.288
2118,0.856,35.662,17.759,32.827,27.535,7.206,5.112,7.288
2119,0.84,35.376,17.918,32.799,27.521,7.165,5.112,7.207
2120,0.843,35.536,17.919,32.817,27.528,7.165,5.152,7.287
2121,0.836,35.682,17.81,32.808,27.514,7.043,5.112,7.166
2122,0.836,35.712,17.883,32.808,27.517,7.082,5.193,7.287
2123,0.849,35.357,17.778,32.818,27.528,7.205,5.194,7.247
2124,0.846,35.507,17.918,32.818,27.524,7.084,5.112,7.206
2125,0.869,35.624,17.884,32.818,27.528,7.123,5.112,7.206
2126,0.853,35.683,17.841,32.798,27.51,6.961,5.071,7.165
2127,0.853,35.405,17.911,32.817,27.514,7.122,5.193,7.287
2128,0.853,35.546,17.818,32.846,27.524,7.165,5.194,7.207
2129,0.862,35.663,17.914,32.818,27.521,6.962,5.072,7.125
2130,0.862,35.702,17.771,32.808,27.524,7.082,5.152,7.124
2131,0.872,35.338,17.914,32.77,27.514,6.92,5.071,7.083
2132,0.866,35.488,17.982,32.808,27.524,7.081,5.193,7.205
2133,0.869,35.614,17.924,32.846,27.528,7.042,5.153,7.165
2134,0.859,35.529,17.876,32.818,27.528,6.96,5.071,7.084
2135,0.869,35.49,17.739,32.827,27.524,7.0,5.233,7.164
2136,0.853,35.614,17.91,32.818,27.514,6.96,5.032,7.084
2137,0.843,35.721,17.864,32.798,27.521,7.041,5.192,7.164
2138,0.836,35.3,17.809,32.827,27.524,7.042,5.153,7.165
2139,0.843,35.363,17.926,32.827,27.517,6.96,5.071,7.165
2140,0.872,35.526,17.818,32.837,27.524,7.0,5.152,7.165
2141,0.84,35.624,17.774,32.818,27.507,6.838,4.949,7.084
2142,0.836,35.28,17.863,32.808,27.514,6.958,5.15,7.123
2143,0.843,35.449,17.723,32.837,27.528,7.041,5.193,7.205
2144,0.856,35.547,17.874,32.827,27.528,7.042,5.072,7.206
2145,0.879,35.653,17.891,32.837,27.524,7.164,5.152,7.206
2146,0.863,35.386,17.872,32.818,27.521,7.043,4.99,7.125
2147,0.856,35.517,17.911,32.818,27.521,7.245,5.151,7.327
2148,0.875,35.643,17.872,32.846,27.528,7.41,5.193,7.329
2149,0.895,35.721,17.919,32.875,27.521,7.371,5.153,7.167
