time,ecg,bvp,gsr,rsp,skt,emg_zygo,emg_coru,emg_trap
0,0.859,36.913,14.229,32.701,30.273,6.509,6.016,7.001
1,0.846,36.741,14.209,32.692,30.266,6.549,6.015,6.96
2,0.859,36.864,14.159,32.692,30.262,6.427,6.015,7.0
3,0.853,36.951,14.232,32.682,30.266,6.507,5.974,7.001
4,0.869,36.962,14.276,32.701,30.262,6.549,6.055,6.96
5,0.872,36.837,14.222,32.711,30.273,6.549,6.097,7.041
6,0.885,36.999,14.202,32.711,30.266,6.508,6.056,7.001
7,0.889,37.096,14.197,32.711,30.273,6.508,6.056,6.96
8,0.892,36.963,14.17,32.711,30.269,6.549,6.097,6.919
9,0.873,37.058,14.154,32.721,30.273,6.508,6.056,7.0
10,0.882,37.174,14.22,32.711,30.273,6.508,6.137,6.96
11,0.898,37.261,14.221,32.711,30.269,6.508,6.057,7.0
12,0.912,37.003,14.198,32.692,30.262,6.467,6.056,6.838
13,0.905,37.144,14.194,32.701,30.262,6.467,6.015,6.877
14,0.912,37.261,14.217,32.711,30.266,6.507,6.096,6.959
15,0.918,37.329,14.26,32.721,30.273,6.467,6.016,6.878
16,0.902,37.148,14.198,32.702,30.269,6.467,6.015,6.877
17,0.882,37.29,14.217,32.701,30.262,6.426,6.015,6.837
18,0.879,37.406,14.221,32.673,30.266,6.344,6.056,6.837
19,0.882,37.484,14.209,32.682,30.266,6.384,6.056,6.837
20,0.882,37.264,14.201,32.673,30.266,6.466,6.097,6.999
21,0.892,37.387,14.256,32.701,30.276,6.426,6.138,6.96
22,0.889,37.551,14.202,32.701,30.273,6.548,6.138,7.041
23,0.879,37.62,14.217,32.74,30.276,6.63,6.26,6.96
24,0.911,37.486,14.221,32.74,30.28,6.55,6.302,7.041
25,0.928,37.629,14.237,32.74,30.29,6.671,6.262,6.96
26,0.922,37.745,14.268,32.74,30.28,6.509,6.262,7.0
27,0.931,37.785,14.222,32.731,30.276,6.467,6.18,6.879
28,0.935,37.459,14.233,32.721,30.276,6.467,6.22,6.877
29,0.931,37.58,14.21,32.721,30.273,6.467,6.22,6.918
30,0.931,37.706,14.194,32.702,30.273,6.467,6.22,6.959
31,0.935,37.966,14.229,32.701,30.276,6.467,6.22,6.878
32,0.935,37.624,14.209,32.711,30.273,6.507,6.261,6.918
33,0.938,37.764,14.159,32.73,30.276,6.508,6.221,6.837
34,0.941,37.881,14.201,32.721,30.28,6.508,6.261,6.877
35,0.932,37.7,14.201,32.702,30.273,6.508,6.221,6.918
36,0.928,37.765,14.276,32.701,30.269,6.467,6.22,6.837
37,0.918,37.909,14.253,32.711,30.28,6.548,6.342,6.837
38,0.931,37.997,14.225,32.721,30.269,6.549,6.181,6.918
39,0.941,37.643,14.276,32.702,30.276,6.63,6.22,6.878
40,0.938,37.755,14.233,32.721,30.276,6.509,6.261,6.918
41,0.922,37.9,14.213,32.711,30.276,6.63,6.18,6.959
42,0.915,37.978,14.264,32.721,30.276,6.59,6.261,6.919
43,0.922,37.758,14.253,32.711,30.269,6.509,6.221,6.837
44,0.931,37.919,14.151,32.711,30.269,6.508,6.139,6.837
45,0.941,38.045,14.166,32.702,30.262,6.467,6.138,6.796
46,0.948,38.085,14.154,32.673,30.259,6.426,6.098,6.795
47,0.967,37.654,14.142,32.682,30.252,6.385,6.097,6.877
48,0.945,37.812,14.166,32.673,30.266,6.425,6.097,6.837
49,0.951,37.91,14.244,32.672,30.269,6.548,6.138,6.918
50,0.958,37.978,14.182,32.701,30.269,6.508,6.219,6.878
51,0.964,37.796,14.205,32.692,30.269,6.467,6.139,6.918
52,0.977,37.948,14.237,32.682,30.273,6.467,6.179,6.878
53,0.984,38.065,14.256,32.692,30.273,6.467,6.139,6.877
54,0.961,38.085,14.202,32.682,30.266,6.507,6.098,6.877
55,0.951,37.932,14.182,32.692,30.269,6.549,6.138,6.959
56,0.958,38.074,14.158,32.701,30.269,6.508,6.138,6.96
57,0.941,38.162,14.205,32.701,30.266,6.427,6.138,6.919
58,0.941,38.259,14.221,32.682,30.269,6.385,6.138,7.0
59,0.951,37.818,14.182,32.682,30.269,6.425,6.098,7.001
60,0.941,37.967,14.244,32.673,30.269,6.304,6.056,7.041
61,0.922,38.084,14.175,32.692,30.269,6.425,6.056,7.042
62,0.935,37.932,14.213,32.682,30.262,6.385,6.097,7.001
63,0.928,37.959,14.229,32.682,30.266,6.385,6.056,7.082
64,0.931,38.094,14.264,32.663,30.269,6.425,6.178,7.164
65,0.941,38.181,14.233,32.672,30.269,6.507,6.139,7.165
66,0.925,37.76,14.112,32.692,30.273,6.508,6.26,7.287
67,0.931,37.89,14.165,32.711,30.28,6.508,6.221,7.329
68,0.948,38.016,14.209,32.73,30.283,6.549,6.342,7.289
69,0.945,38.123,14.201,32.731,30.287,6.549,6.262,7.288
70,0.948,37.913,14.233,32.74,30.283,6.59,6.221,7.288
71,0.941,38.036,14.268,32.711,30.28,6.59,6.22,7.207
72,0.932,38.181,14.167,32.711,30.273,6.468,6.18,7.206
73,0.931,38.249,14.193,32.692,30.269,6.467,6.179,7.125
74,0.922,37.809,14.201,32.701,30.269,6.467,6.179,7.246
75,0.915,37.939,14.248,32.673,30.273,6.467,6.22,7.206
76,0.886,38.065,14.245,32.682,30.269,6.507,6.22,7.125
77,0.902,38.143,14.186,32.682,30.276,6.467,6.22,7.246
78,0.886,38.038,14.201,32.682,30.276,6.507,6.22,7.206
79,0.882,38.161,14.135,32.682,30.28,6.508,6.261,7.206
80,0.882,38.278,14.185,32.692,30.273,6.427,6.221,7.206
81,0.866,38.337,14.248,32.701,30.28,6.466,6.22,7.247
82,0.866,37.934,14.198,32.711,30.266,6.507,6.22,7.288
83,0.84,38.074,14.197,32.702,30.276,6.508,6.18,7.288
84,0.859,38.181,14.201,32.711,30.269,6.467,6.179,7.288
85,0.885,38.201,14.221,32.692,30.269,6.507,6.22,7.166
86,0.882,37.923,14.248,32.701,30.276,6.467,6.22,7.206
87,0.889,38.064,14.233,32.701,30.28,6.386,6.139,7.287
88,0.882,38.181,14.233,32.701,30.276,6.425,6.219,7.207
89,0.885,38.029,14.206,32.682,30.273,6.426,6.18,7.247
90,0.885,37.989,14.233,32.682,30.273,6.385,6.098,7.125
91,0.889,38.084,14.198,32.692,30.273,6.303,6.056,7.124
92,0.869,38.181,14.24,32.663,30.259,6.302,6.015,7.083
93,0.859,37.866,14.178,32.663,30.262,6.221,5.974,7.042
94,0.853,37.968,14.205,32.644,30.259,6.139,6.015,7.082
95,0.846,38.074,14.205,32.663,30.262,6.219,6.056,7.042
96,0.84,38.152,14.213,32.663,30.266,6.261,6.097,7.164
97,0.83,37.875,14.162,32.672,30.273,6.262,6.138,7.165
98,0.83,38.026,14.189,32.672,30.269,6.221,6.138,7.206
99,0.817,38.161,14.252,32.663,30.269,6.302,6.057,7.125
100,0.823,38.249,14.225,32.72,30.269,6.221,6.097,7.043
101,0.804,37.943,14.182,32.683,30.273,6.342,6.138,7.123
102,0.813,38.093,14.236,32.682,30.266,6.303,6.138,7.124
103,0.81,38.191,14.233,32.673,30.273,6.343,6.179,7.124
104,0.82,38.269,14.186,32.672,30.269,6.384,6.139,7.083
105,0.817,37.934,14.174,32.672,30.273,6.425,6.016,7.002
106,0.807,38.065,14.209,32.663,30.269,6.385,6.096,7.082
107,0.81,38.162,14.213,32.663,30.259,6.385,6.097,7.083
108,0.826,38.23,14.174,32.672,30.269,6.466,6.097,7.002
109,0.817,38.048,14.236,32.672,30.269,6.507,6.138,6.96
110,0.8,38.181,14.182,32.663,30.262,6.508,6.098,7.041
111,0.813,38.297,14.201,32.682,30.269,6.508,6.138,7.042
112,0.807,38.308,14.213,32.663,30.273,6.63,6.219,7.042
113,0.81,37.982,14.276,32.672,30.28,6.631,6.261,7.123
114,0.81,38.142,14.187,32.692,30.287,6.712,6.343,7.205
115,0.81,38.268,14.127,32.711,30.29,6.794,6.303,7.165
116,0.816,38.183,14.185,32.702,30.287,6.755,6.262,7.084
117,0.807,38.067,14.24,32.721,30.287,6.754,6.302,7.002
118,0.816,38.219,14.245,32.74,30.283,6.714,6.221,6.96
119,0.813,38.298,14.178,32.683,30.273,6.632,6.22,6.96
120,0.816,38.03,14.252,32.673,30.273,6.59,6.261,6.96
121,0.794,38.113,14.175,32.692,30.273,6.59,6.139,7.0
122,0.78,38.239,14.197,32.682,30.273,6.671,6.219,6.96
123,0.787,38.346,14.213,32.682,30.273,6.631,6.18,7.0
124,0.793,38.078,14.241,32.682,30.273,6.672,6.139,6.96
125,0.8,38.2,14.26,32.692,30.273,6.631,6.138,7.0
126,0.784,38.317,14.116,32.682,30.276,6.631,6.138,6.919
127,0.806,38.404,14.177,32.673,30.273,6.59,6.179,6.959
128,0.807,38.021,14.201,32.682,30.276,6.631,6.22,6.96
129,0.803,38.171,14.213,32.701,30.276,6.631,6.22,6.96
130,0.807,38.278,14.221,32.682,30.273,6.59,6.22,7.0
131,0.813,38.346,14.225,32.682,30.273,6.549,6.22,7.001
132,0.8,38.03,14.081,32.692,30.28,6.63,6.18,7.001
133,0.797,38.171,14.181,32.692,30.276,6.631,6.22,7.041
134,0.787,38.307,14.232,32.692,30.276,6.672,6.22,7.001
135,0.78,38.346,14.26,32.692,30.269,6.591,6.22,7.041
136,0.797,38.088,14.253,32.682,30.28,6.59,6.261,6.92
137,0.794,38.258,14.237,32.682,30.273,6.549,6.221,6.919
138,0.777,38.355,14.229,32.673,30.269,6.508,6.139,6.796
139,0.771,38.385,14.155,32.663,30.262,6.467,6.057,6.795
140,0.774,38.318,14.166,32.634,30.266,6.386,6.097,6.836
141,0.774,38.414,14.228,32.653,30.259,6.385,6.097,6.958
142,0.767,38.51,14.206,32.663,30.262,6.466,6.219,6.96
143,0.78,38.502,14.205,32.672,30.273,6.467,6.22,7.0
144,0.813,38.147,14.205,32.672,30.273,6.507,6.342,6.96
145,0.823,38.278,14.205,32.682,30.269,6.467,6.303,6.96
146,0.804,38.384,14.248,32.673,30.269,6.507,6.302,6.919
147,0.79,38.261,14.198,32.682,30.269,6.427,6.343,6.919
148,0.793,38.346,14.194,32.701,30.266,6.426,6.303,6.919
149,0.797,38.443,14.182,32.663,30.269,6.466,6.302,6.959
150,0.81,38.568,14.209,32.672,30.273,6.467,6.302,6.96
151,0.823,38.138,14.201,32.663,30.269,6.345,6.221,6.878
152,0.807,38.287,14.229,32.682,30.273,6.343,6.302,6.959
153,0.794,38.394,14.198,32.673,30.266,6.303,6.302,6.838
154,0.797,38.491,14.19,32.672,30.266,6.262,6.221,6.918
155,0.781,38.185,14.182,32.672,30.266,6.262,6.22,6.919
156,0.787,38.336,14.229,32.663,30.266,6.262,6.22,6.878
157,0.777,38.433,14.124,32.682,30.266,6.302,6.261,6.918
158,0.78,38.53,14.173,32.663,30.266,6.221,6.302,6.919
159,0.784,38.281,14.201,32.653,30.266,6.18,6.302,6.878
160,0.78,38.432,14.205,32.682,30.266,6.22,6.384,6.959
161,0.767,38.539,14.178,32.682,30.269,6.302,6.385,7.082
162,0.764,38.608,14.252,32.682,30.28,6.343,6.466,7.002
163,0.77,38.321,14.241,32.701,30.283,6.343,6.507,7.082
164,0.806,38.452,14.186,32.701,30.28,6.343,6.467,7.002
165,0.794,38.588,14.197,32.701,30.29,6.384,6.467,7.041
166,0.803,38.608,14.205,32.711,30.283,6.385,6.467,6.96
167,0.816,38.426,14.194,32.702,30.287,6.303,6.345,6.96
168,0.839,38.549,14.186,32.682,30.273,6.221,6.343,6.919
169,0.833,38.636,14.24,32.682,30.269,6.261,6.343,6.878
170,0.823,38.935,14.139,32.692,30.273,6.302,6.384,6.877
171,0.813,38.496,14.154,32.673,30.276,6.18,6.303,6.918
172,0.813,38.626,14.205,32.692,30.28,6.139,6.343,6.796
173,0.82,38.724,14.248,32.673,30.269,6.26,6.343,6.877
174,0.813,38.437,14.175,32.672,30.273,6.221,6.343,6.877
175,0.8,38.472,14.213,32.663,30.269,6.22,6.303,6.918
176,0.8,38.626,14.194,32.682,30.273,6.22,6.343,6.959
177,0.794,38.724,14.26,32.673,30.283,6.139,6.303,6.919
178,0.793,38.408,14.229,32.663,30.273,6.219,6.302,6.878
179,0.78,38.53,14.209,32.672,30.276,6.139,6.343,6.959
180,0.79,38.655,14.237,32.682,30.269,6.219,6.303,7.0
181,0.78,38.724,14.202,32.682,30.276,6.139,6.343,7.001
182,0.78,38.389,14.205,32.663,30.276,6.138,6.343,7.001
183,0.787,38.539,14.198,32.672,30.28,6.098,6.384,7.001
184,0.787,38.656,14.244,32.663,30.28,6.178,6.344,6.919
185,0.784,38.724,14.217,32.682,30.28,6.179,6.425,6.959
186,0.777,38.437,14.221,32.682,30.273,6.179,6.304,6.96
187,0.803,38.568,14.213,32.673,30.273,6.22,6.262,6.96
188,0.816,38.685,14.162,32.653,30.269,6.098,6.262,6.878
189,0.82,38.743,14.185,32.653,30.262,6.016,6.18,6.837
190,0.83,38.447,14.209,32.644,30.262,6.015,6.179,6.796
191,0.826,38.568,14.174,32.615,30.259,6.056,6.139,6.836
192,0.823,38.675,14.178,32.614,30.262,5.975,6.219,6.958
193,0.8,38.724,14.166,32.614,30.266,6.055,6.261,6.96
194,0.794,38.485,14.217,32.643,30.269,6.056,6.302,7.0
195,0.8,38.607,14.237,32.634,30.273,6.137,6.302,7.041
196,0.8,38.723,14.178,32.643,30.276,6.138,6.262,7.042
197,0.794,38.734,14.193,32.643,30.276,6.098,6.262,6.96
198,0.8,38.494,14.24,32.634,30.266,6.138,6.302,7.041
199,0.79,38.617,14.221,32.643,30.273,6.098,6.262,7.123
200,0.784,38.733,14.166,32.634,30.273,6.056,6.262,7.083
201,0.78,38.562,14.263,32.643,30.273,6.056,6.262,7.083
202,0.79,38.579,14.175,32.634,30.269,6.137,6.221,7.205
203,0.787,38.704,14.197,32.643,30.269,6.098,6.22,7.165
204,0.797,38.791,14.186,32.624,30.266,6.056,6.261,7.206
205,0.807,38.418,14.225,32.624,30.266,6.015,6.302,7.206
206,0.816,38.51,14.252,32.624,30.273,5.974,6.302,7.206
207,0.849,38.655,14.182,32.624,30.269,5.974,6.221,7.287
208,0.84,38.724,14.229,32.614,30.262,5.933,6.261,7.288
209,0.82,38.418,14.143,32.653,30.269,6.055,6.343,7.369
210,0.82,38.539,14.181,32.634,30.276,5.934,6.343,7.37
211,0.82,38.684,14.236,32.624,30.273,6.055,6.384,7.452
212,0.817,38.762,14.19,32.634,30.283,6.097,6.425,7.534
213,0.833,38.399,14.221,32.662,30.28,6.178,6.426,7.494
214,0.836,38.539,14.182,32.663,30.283,6.139,6.426,7.453
215,0.839,38.675,14.24,32.663,30.283,6.098,6.426,7.493
216,0.839,38.724,14.26,32.644,30.276,6.097,6.344,7.494
217,0.82,38.398,14.253,32.643,30.28,6.016,6.343,7.494
218,0.817,38.539,14.237,32.643,30.28,5.974,6.343,7.534
219,0.8,38.636,14.198,32.634,30.276,5.893,6.343,7.494
220,0.787,38.666,14.217,32.643,30.273,5.892,6.221,7.616
221,0.787,38.446,14.209,32.634,30.269,5.892,6.302,7.698
222,0.793,38.559,14.252,32.653,30.273,5.933,6.302,7.699
223,0.803,38.684,14.178,32.624,30.273,5.892,6.302,7.74
224,0.803,38.715,14.197,32.634,30.28,5.933,6.302,7.781
225,0.813,38.341,14.19,32.643,30.273,5.892,6.302,7.781
226,0.803,38.462,14.229,32.624,30.276,5.892,6.221,7.862
227,0.8,38.568,14.225,32.634,30.269,5.933,6.22,7.944
228,0.816,38.445,14.182,32.634,30.273,5.933,6.22,7.986
229,0.82,38.386,14.229,32.624,30.273,5.974,6.261,7.946
230,0.843,38.52,14.198,32.634,30.273,5.893,6.262,7.986
231,0.826,38.627,14.201,32.634,30.28,5.973,6.262,7.946
232,0.833,38.206,14.252,32.634,30.276,5.893,6.262,7.945
233,0.833,38.269,14.214,32.624,30.283,5.933,6.262,8.026
234,0.823,38.423,14.073,32.643,30.28,5.974,6.221,7.987
235,0.813,38.511,14.184,32.634,30.28,5.893,6.139,8.027
236,0.826,38.176,14.225,32.634,30.269,5.892,6.138,7.946
237,0.826,38.287,14.202,32.624,30.266,5.811,6.138,7.945
238,0.82,38.423,14.19,32.605,30.262,5.728,6.138,7.864
239,0.8,38.472,14.24,32.595,30.259,5.768,6.098,7.944
240,0.794,38.137,14.174,32.595,30.262,5.728,6.138,8.067
241,0.784,38.287,14.182,32.624,30.266,5.85,6.179,7.987
242,0.81,38.442,14.217,32.605,30.273,5.851,6.139,8.068
243,0.794,38.472,14.252,32.614,30.273,5.769,6.219,7.987
244,0.803,38.127,14.221,32.605,30.269,5.809,6.18,7.946
245,0.813,38.268,14.159,32.624,30.262,5.81,6.22,7.945
246,0.82,38.384,14.154,32.614,30.276,5.769,6.22,8.026
247,0.82,38.433,14.209,32.605,30.269,5.768,6.18,7.946
248,0.82,38.108,14.221,32.614,30.276,5.768,6.261,7.945
249,0.826,38.229,14.186,32.605,30.266,5.809,6.18,7.823
250,0.817,38.336,14.232,32.595,30.266,5.728,6.179,7.863
251,0.833,38.356,14.081,32.624,30.273,5.727,6.139,7.741
252,0.83,38.021,14.149,32.595,30.262,5.768,6.219,7.699
253,0.826,38.161,14.228,32.585,30.262,5.728,6.18,7.74
254,0.804,38.259,14.26,32.595,30.266,5.768,6.139,7.659
255,0.79,38.154,14.241,32.576,30.269,5.768,6.179,7.739
256,0.774,38.0,14.167,32.604,30.276,5.768,6.22,7.699
257,0.8,38.18,14.193,32.595,30.276,5.809,6.302,7.78
258,0.807,38.259,14.197,32.614,30.28,5.932,6.343,7.862
259,0.81,37.982,14.205,32.634,30.276,5.892,6.425,7.782
260,0.829,38.065,14.209,32.634,30.287,5.973,6.344,7.74
261,0.817,38.2,14.252,32.634,30.283,5.852,6.303,7.699
262,0.81,38.317,14.202,32.653,30.276,5.851,6.262,7.699
263,0.8,37.877,14.186,32.624,30.28,5.81,6.18,7.577
264,0.803,37.968,14.229,32.595,30.269,5.81,6.22,7.575
265,0.807,38.103,14.276,32.614,30.269,5.81,6.22,7.535
266,0.813,38.181,14.237,32.605,30.269,5.891,6.22,7.494
267,0.826,37.894,14.221,32.605,30.269,5.851,6.18,7.534
268,0.826,38.026,14.264,32.595,30.269,5.932,6.301,7.534
269,0.83,38.161,14.229,32.614,30.276,5.892,6.221,7.494
270,0.833,38.23,14.178,32.595,30.276,5.973,6.383,7.494
271,0.839,37.904,14.228,32.585,30.276,5.974,6.263,7.453
272,0.833,38.026,14.163,32.605,30.273,6.096,6.262,7.412
273,0.833,38.171,14.162,32.595,30.276,6.178,6.262,7.33
274,0.823,38.22,14.185,32.605,30.273,6.22,6.262,7.41
275,0.817,37.856,14.209,32.595,30.276,6.22,6.302,7.411
276,0.813,37.997,14.28,32.585,30.269,6.342,6.221,7.33
277,0.8,38.113,14.249,32.614,30.269,6.384,6.302,7.37
278,0.803,38.143,14.245,32.605,30.276,6.425,6.302,7.37
279,0.81,37.913,14.186,32.605,30.283,6.426,6.302,7.289
280,0.81,38.045,14.182,32.605,30.283,6.426,6.343,7.288
281,0.803,38.142,14.229,32.595,30.269,6.466,6.303,7.288
282,0.803,38.201,14.256,32.605,30.269,6.426,6.262,7.288
283,0.803,37.923,14.155,32.586,30.269,6.385,6.221,7.166
284,0.81,38.045,14.17,32.585,30.262,6.344,6.22,7.246
285,0.8,38.142,14.143,32.566,30.262,6.425,6.22,7.247
286,0.787,37.693,14.189,32.566,30.262,6.385,6.22,7.247
287,0.797,37.726,14.19,32.576,30.262,6.344,6.302,7.328
288,0.8,37.861,14.158,32.566,30.266,6.425,6.221,7.329
289,0.807,37.968,14.228,32.585,30.269,6.466,6.302,7.37
290,0.82,37.825,14.213,32.585,30.269,6.426,6.302,7.37
291,0.82,37.948,14.174,32.595,30.269,6.426,6.384,7.289
292,0.813,38.074,14.213,32.576,30.269,6.507,6.263,7.369
293,0.826,38.143,14.186,32.576,30.269,6.508,6.302,7.33
294,0.8,37.721,14.174,32.576,30.269,6.345,6.302,7.37
295,0.813,37.851,14.17,32.576,30.262,6.466,6.302,7.37
296,0.813,37.997,14.201,32.585,30.273,6.467,6.302,7.37
297,0.8,38.046,14.17,32.585,30.276,6.426,6.302,7.33
298,0.79,37.701,14.182,32.585,30.266,6.426,6.262,7.329
299,0.774,37.842,14.24,32.585,30.266,6.344,6.302,7.329
300,0.767,37.949,14.155,32.585,30.262,6.384,6.221,7.329
301,0.77,38.026,14.181,32.605,30.269,6.385,6.22,7.41
302,0.774,37.749,14.236,32.586,30.262,6.385,6.22,7.371
303,0.784,37.88,14.256,32.585,30.266,6.385,6.22,7.411
304,0.79,38.016,14.182,32.585,30.266,6.385,6.261,7.452
305,0.8,38.046,14.174,32.585,30.273,6.466,6.343,7.574
306,0.781,37.749,14.143,32.605,30.273,6.467,6.425,7.575
307,0.797,37.89,14.197,32.605,30.28,6.507,6.385,7.616
308,0.803,38.026,14.197,32.624,30.283,6.549,6.425,7.576
309,0.81,38.344,14.229,32.634,30.287,6.63,6.426,7.535
310,0.816,37.781,14.182,32.643,30.276,6.55,6.385,7.575
311,0.82,37.929,14.166,32.643,30.28,6.549,6.303,7.535
312,0.82,38.045,14.224,32.605,30.273,6.508,6.302,7.534
313,0.813,37.816,14.26,32.605,30.276,6.467,6.262,7.494
314,0.813,37.833,14.237,32.595,30.273,6.467,6.262,7.494
315,0.81,37.958,14.174,32.605,30.276,6.548,6.262,7.534
316,0.8,38.065,14.174,32.605,30.273,6.549,6.343,7.494
317,0.794,37.721,14.201,32.586,30.273,6.508,6.303,7.453
318,0.803,37.813,14.158,32.614,30.273,6.508,6.302,7.452
319,0.768,37.958,14.224,32.595,30.273,6.549,6.302,7.493
320,0.783,38.036,14.245,32.595,30.269,6.427,6.262,7.453
321,0.787,37.74,14.198,32.614,30.28,6.548,6.302,7.493
322,0.784,37.909,14.209,32.614,30.269,6.468,6.343,7.453
323,0.784,38.045,14.182,32.624,30.28,6.548,6.303,7.412
324,0.793,38.104,14.217,32.624,30.273,6.549,6.262,7.411
325,0.79,37.644,14.252,32.605,30.273,6.468,6.343,7.371
326,0.787,37.793,14.182,32.624,30.273,6.589,6.303,7.37
327,0.787,37.91,14.182,32.634,30.276,6.549,6.343,7.33
328,0.793,37.949,14.221,32.605,30.276,6.508,6.343,7.289
329,0.8,37.796,14.198,32.605,30.273,6.427,6.221,7.207
330,0.8,37.891,14.17,32.614,30.269,6.426,6.18,7.247
331,0.803,38.007,14.252,32.576,30.266,6.344,6.22,7.125
332,0.807,38.046,14.159,32.595,30.259,6.303,6.18,7.124
333,0.807,37.682,14.174,32.576,30.262,6.302,6.179,7.205
334,0.797,37.813,14.185,32.595,30.266,6.384,6.301,7.287
335,0.794,37.948,14.264,32.605,30.269,6.385,6.221,7.247
336,0.79,37.959,14.241,32.605,30.269,6.344,6.22,7.328
337,0.78,37.815,14.198,32.605,30.273,6.425,6.302,7.289
338,0.774,37.939,14.213,32.595,30.28,6.344,6.262,7.288
339,0.771,38.065,14.151,32.614,30.273,6.303,6.302,7.247
340,0.764,37.836,14.209,32.614,30.269,6.384,6.262,7.206
341,0.754,37.795,14.213,32.614,30.266,6.385,6.221,7.247
342,0.767,37.929,14.217,32.614,30.269,6.344,6.261,7.206
343,0.767,38.026,14.12,32.614,30.269,6.343,6.221,7.287
344,0.783,37.701,14.158,32.605,30.269,6.303,6.302,7.288
345,0.774,37.822,14.158,32.605,30.273,6.343,6.221,7.288
346,0.793,37.929,14.232,32.595,30.266,6.384,6.261,7.288
347,0.8,38.026,14.206,32.595,30.262,6.344,6.262,7.207
348,0.8,37.663,14.186,32.595,30.269,6.262,6.262,7.369
349,0.803,37.803,14.205,32.614,30.273,6.262,6.302,7.33
350,0.787,37.948,14.186,32.624,30.266,6.384,6.343,7.492
351,0.797,38.017,14.19,32.614,30.273,6.425,6.384,7.371
352,0.8,37.624,14.233,32.605,30.276,6.466,6.425,7.492
353,0.813,37.783,14.167,32.633,30.283,6.507,6.466,7.494
354,0.8,37.929,14.201,32.643,30.283,6.549,6.467,7.453
355,0.8,37.997,14.213,32.643,30.287,6.508,6.467,7.412
356,0.803,37.988,14.248,32.634,30.276,6.427,6.304,7.411
357,0.777,38.123,14.237,32.634,30.273,6.344,6.262,7.371
358,0.78,38.239,14.186,32.615,30.276,6.343,6.343,7.37
359,0.771,38.259,14.244,32.614,30.276,6.303,6.303,7.492
360,0.777,37.464,14.241,32.614,30.269,6.343,6.302,7.412
361,0.767,37.599,14.182,32.614,30.276,6.303,6.302,7.411
362,0.787,37.697,14.221,32.595,30.273,6.343,6.343,7.533
363,0.79,37.736,14.202,32.614,30.273,6.262,6.262,7.494
364,0.787,37.641,14.119,32.624,30.269,6.262,6.343,7.534
365,0.787,37.774,14.142,32.605,30.276,6.262,6.343,7.534
366,0.787,37.871,14.189,32.614,30.273,6.302,6.343,7.534
367,0.793,37.843,14.174,32.605,30.273,6.302,6.343,7.575
368,0.806,37.805,14.201,32.614,30.276,6.343,6.303,7.575
369,0.803,37.948,14.244,32.624,30.276,6.303,6.302,7.575
370,0.79,38.036,14.171,32.614,30.273,6.302,6.343,7.698
371,0.803,37.433,14.17,32.624,30.273,6.384,6.303,7.618
372,0.807,37.503,14.213,32.624,30.273,6.385,6.302,7.657
373,0.8,37.619,14.244,32.614,30.276,6.385,6.343,7.536
374,0.79,37.735,14.151,32.624,30.273,6.344,6.262,7.575
375,0.79,37.602,14.162,32.614,30.269,6.384,6.302,7.575
376,0.793,37.745,14.185,32.595,30.269,6.344,6.18,7.535
377,0.767,37.852,14.225,32.585,30.259,6.221,6.179,7.534
378,0.774,37.91,14.217,32.585,30.266,6.302,6.179,7.575
379,0.767,37.412,14.19,32.585,30.266,6.302,6.261,7.616
380,0.764,37.551,14.217,32.595,30.273,6.384,6.302,7.739
381,0.77,37.716,14.116,32.633,30.276,6.385,6.302,7.699
382,0.761,37.794,14.189,32.624,30.269,6.344,6.302,7.699
383,0.761,37.66,14.213,32.586,30.273,6.343,6.221,7.699
384,0.774,37.793,14.213,32.605,30.273,6.303,6.22,7.699
385,0.784,37.919,14.194,32.595,30.276,6.302,6.261,7.74
386,0.78,37.978,14.17,32.595,30.266,6.343,6.262,7.74
387,0.784,37.336,14.143,32.595,30.269,6.343,6.221,7.699
388,0.793,37.474,14.177,32.595,30.276,6.303,6.22,7.74
389,0.8,37.6,14.186,32.605,30.269,6.343,6.22,7.699
390,0.81,37.639,14.197,32.595,30.269,6.343,6.18,7.658
391,0.81,37.486,14.229,32.595,30.269,6.303,6.22,7.617
392,0.784,37.638,14.206,32.595,30.269,6.302,6.18,7.617
393,0.784,37.745,14.186,32.576,30.266,6.302,6.22,7.617
394,0.771,37.641,14.186,32.595,30.262,6.262,6.261,7.617
395,0.751,37.362,14.209,32.595,30.273,6.262,6.221,7.657
396,0.764,37.483,14.213,32.585,30.276,6.343,6.18,7.698
397,0.764,37.629,14.17,32.605,30.276,6.343,6.301,7.699
398,0.764,37.409,14.217,32.605,30.276,6.466,6.302,7.78
399,0.761,37.503,14.241,32.691,30.28,6.467,6.465,7.74
400,0.77,37.648,14.198,32.644,30.287,6.507,6.426,7.74
401,0.77,37.755,14.252,32.653,30.283,6.427,6.385,7.821
402,0.777,37.363,14.21,32.634,30.283,6.426,6.303,7.741
403,0.78,37.503,14.209,32.624,30.273,6.344,6.343,7.74
404,0.79,37.619,14.201,32.624,30.276,6.303,6.343,7.699
405,0.777,37.678,14.209,32.595,30.273,6.302,6.303,7.658
406,0.777,37.333,14.233,32.605,30.273,6.221,6.343,7.658
407,0.78,37.464,14.21,32.614,30.273,6.18,6.262,7.658
408,0.777,37.6,14.209,32.624,30.269,6.22,6.302,7.658
409,0.774,37.678,14.147,32.614,30.276,6.18,6.262,7.658
410,0.774,37.17,14.177,32.605,30.273,6.179,6.343,7.739
411,0.767,37.318,14.221,32.605,30.276,6.179,6.303,7.618
412,0.803,37.454,14.217,32.624,30.273,6.179,6.221,7.657
413,0.813,37.523,14.166,32.624,30.273,6.179,6.302,7.617
414,0.8,37.265,14.178,32.614,30.28,6.179,6.262,7.698
415,0.807,37.406,14.209,32.614,30.273,6.179,6.302,7.699
416,0.777,37.541,14.237,32.624,30.28,6.139,6.343,7.699
417,0.761,37.562,14.221,32.624,30.28,6.179,6.384,7.78
418,0.774,37.198,14.198,32.624,30.28,6.139,6.344,7.781
419,0.774,37.338,14.201,32.614,30.276,6.138,6.221,7.781
420,0.761,37.464,14.209,32.624,30.276,6.098,6.22,7.74
421,0.748,37.657,14.194,32.614,30.269,6.016,6.22,7.74
422,0.76,37.18,14.233,32.595,30.269,5.974,6.139,7.781
423,0.751,37.319,14.186,32.585,30.262,6.015,6.179,7.822
424,0.767,37.416,14.17,32.605,30.262,6.015,6.139,7.822
425,0.761,37.206,14.166,32.586,30.269,5.974,6.219,7.863
426,0.774,37.271,14.178,32.595,30.266,6.055,6.22,7.904
427,0.78,37.406,14.107,32.605,30.269,6.056,6.261,7.904
428,0.78,37.532,14.157,32.624,30.269,6.056,6.262,7.945
429,0.787,37.063,14.228,32.605,30.266,6.056,6.221,7.986
430,0.784,37.174,14.209,32.586,30.266,6.015,6.261,7.946
431,0.79,37.309,14.178,32.605,30.269,6.056,6.221,7.864
432,0.793,37.397,14.217,32.595,30.269,6.015,6.18,7.944
433,0.787,37.062,14.205,32.605,30.269,6.015,6.22,7.986
434,0.767,37.231,14.143,32.605,30.269,6.015,6.22,7.864
435,0.774,37.358,14.15,32.605,30.266,6.015,6.22,7.944
436,0.774,37.426,14.17,32.595,30.269,6.015,6.18,7.905
437,0.774,36.995,14.197,32.595,30.266,6.015,6.139,7.863
438,0.761,37.144,14.201,32.605,30.266,6.015,6.179,7.904
439,0.757,37.251,14.19,32.586,30.262,6.015,6.179,7.863
440,0.754,37.329,14.174,32.595,30.266,6.015,6.22,7.904
441,0.744,36.965,14.185,32.595,30.269,6.015,6.261,7.985
442,0.754,37.115,14.186,32.614,30.273,6.096,6.302,8.027
443,0.754,37.251,14.236,32.624,30.28,6.178,6.343,7.987
444,0.774,37.31,14.206,32.624,30.28,6.139,6.343,8.068
445,0.774,37.061,14.166,32.634,30.29,6.138,6.303,7.987
446,0.774,37.202,14.197,32.634,30.283,6.098,6.343,7.864
447,0.78,37.328,14.205,32.634,30.29,6.016,6.303,7.822
448,0.777,37.502,14.19,32.634,30.277,6.015,6.221,7.822
449,0.78,37.216,14.193,32.615,30.269,5.934,6.22,7.822
450,0.79,37.319,14.221,32.605,30.273,6.014,6.261,7.781
451,0.79,37.445,14.163,32.614,30.273,5.974,6.262,7.822
452,0.793,36.928,14.162,32.614,30.269,5.933,6.221,7.822
453,0.787,36.865,14.197,32.605,30.273,5.974,6.22,7.822
454,0.764,36.999,14.244,32.595,30.273,5.974,6.18,7.903
455,0.757,37.115,14.221,32.614,30.273,5.933,6.22,7.823
456,0.767,36.915,14.12,32.605,30.269,6.014,6.18,7.863
457,0.764,37.047,14.158,32.614,30.276,6.015,6.22,7.904
458,0.761,37.154,14.228,32.605,30.273,6.015,6.261,7.945
459,0.764,37.299,14.194,32.624,30.28,5.974,6.221,7.986
460,0.774,36.745,14.174,32.624,30.276,5.974,6.22,7.946
461,0.761,36.864,14.24,32.624,30.269,6.015,6.302,7.945
462,0.77,37.037,14.167,32.624,30.276,6.015,6.221,7.945
463,0.761,37.106,14.174,32.634,30.273,6.015,6.261,7.864
464,0.777,36.771,14.197,32.615,30.269,6.015,6.18,7.944
465,0.771,36.893,14.201,32.595,30.266,5.893,6.017,7.823
466,0.777,37.009,14.244,32.605,30.266,5.892,6.056,7.781
467,0.777,37.058,14.214,32.586,30.262,5.892,6.056,7.822
468,0.767,36.78,14.225,32.576,30.262,5.892,6.056,7.822
469,0.761,36.921,14.163,32.585,30.262,5.892,6.097,7.944
470,0.761,37.038,14.17,32.595,30.266,6.054,6.178,7.945
471,0.777,37.106,14.236,32.595,30.269,5.975,6.139,7.905
472,0.774,36.714,14.198,32.614,30.266,6.015,6.098,8.026
473,0.777,36.873,14.197,32.634,30.273,5.934,6.138,7.987
474,0.771,36.98,14.158,32.605,30.276,5.974,6.179,8.068
475,0.774,37.01,14.166,32.614,30.276,6.055,6.139,8.028
476,0.764,36.885,14.197,32.614,30.273,6.056,6.179,8.068
477,0.77,37.018,14.205,32.595,30.269,5.934,6.139,7.987
478,0.764,37.116,14.166,32.595,30.269,5.974,6.179,7.864
479,0.748,36.819,14.213,32.605,30.273,5.933,6.139,7.904
480,0.754,36.711,14.186,32.605,30.276,5.933,6.098,7.945
481,0.761,36.854,14.174,32.605,30.266,5.974,6.219,7.945
482,0.744,36.941,14.236,32.576,30.266,5.893,6.098,7.945
483,0.747,36.693,14.198,32.595,30.269,5.892,6.178,7.945
484,0.751,36.806,14.178,32.624,30.262,5.892,6.179,7.945
485,0.751,36.941,14.162,32.595,30.273,5.892,6.139,7.986
486,0.757,37.019,14.181,32.605,30.269,5.973,6.26,7.986
487,0.78,36.55,14.135,32.624,30.28,6.055,6.302,8.068
488,0.78,36.699,14.158,32.624,30.276,6.097,6.343,8.069
489,0.767,36.825,14.228,32.624,30.29,6.178,6.384,8.069
490,0.793,36.922,14.209,32.653,30.283,6.179,6.385,8.069
491,0.813,36.539,14.182,32.644,30.276,6.098,6.303,8.028
492,0.794,36.718,14.221,32.624,30.28,6.056,6.221,7.946
493,0.784,36.815,14.26,32.614,30.269,5.975,6.22,7.945
494,0.774,36.884,14.155,32.624,30.276,5.974,6.302,8.026
495,0.774,36.568,14.166,32.605,30.266,6.055,6.262,7.865
496,0.774,36.718,14.178,32.595,30.273,6.137,6.302,7.944
497,0.761,36.854,14.209,32.595,30.269,6.057,6.302,7.945
498,0.764,36.893,14.186,32.614,30.276,6.056,6.302,7.864
499,0.748,36.587,14.166,32.605,30.28,6.097,6.302,7.822
500,0.76,36.728,14.205,32.614,30.276,6.138,6.302,7.822
501,0.741,36.863,14.096,32.634,30.276,6.179,6.343,7.863
502,0.747,36.894,14.185,32.615,30.276,6.22,6.303,7.822
503,0.754,36.53,14.232,32.605,30.28,6.261,6.343,7.822
504,0.774,36.66,14.225,32.624,30.276,6.302,6.343,7.822
505,0.78,36.767,14.209,32.624,30.276,6.302,6.262,7.741
506,0.78,36.71,14.205,32.634,30.276,6.302,6.262,7.781
507,0.797,36.652,14.186,32.615,30.283,6.302,6.262,7.659
508,0.8,36.786,14.19,32.614,30.269,6.262,6.18,7.658
509,0.79,36.912,14.182,32.614,30.273,6.262,6.139,7.536
510,0.774,36.405,14.201,32.586,30.262,6.262,6.138,7.534
511,0.774,36.457,14.182,32.585,30.259,6.262,6.179,7.494
512,0.771,36.573,14.197,32.585,30.259,6.302,6.179,7.534
513,0.767,36.68,14.151,32.585,30.266,6.343,6.22,7.534
514,0.761,36.403,14.216,32.605,30.28,6.425,6.22,7.534
515,0.744,36.553,14.276,32.595,30.273,6.385,6.22,7.575
516,0.751,36.699,14.226,32.605,30.269,6.303,6.22,7.454
517,0.754,36.796,14.182,32.605,30.269,6.425,6.22,7.452
518,0.757,36.49,14.225,32.586,30.269,6.344,6.261,7.452
519,0.754,36.64,14.209,32.595,30.28,6.303,6.139,7.371
520,0.767,36.786,14.151,32.614,30.269,6.343,6.179,7.37
521,0.751,36.874,14.205,32.605,30.273,6.343,6.22,7.33
522,0.754,36.366,14.182,32.614,30.266,6.343,6.261,7.289
523,0.754,36.515,14.17,32.662,30.269,6.303,6.18,7.329
524,0.774,36.631,14.162,32.596,30.269,6.221,6.139,7.289
525,0.78,36.68,14.189,32.585,30.266,6.261,6.179,7.288
526,0.764,36.345,14.209,32.585,30.266,6.384,6.139,7.329
527,0.764,36.495,14.19,32.585,30.266,6.344,6.138,7.289
528,0.774,36.612,14.217,32.585,30.269,6.303,6.179,7.329
529,0.774,36.651,14.174,32.585,30.273,6.302,6.22,7.37
530,0.764,36.316,14.185,32.605,30.28,6.302,6.261,7.452
531,0.78,36.476,14.209,32.614,30.28,6.384,6.302,7.452
532,0.784,36.592,14.225,32.624,30.283,6.466,6.343,7.493
533,0.787,36.843,14.17,32.643,30.29,6.467,6.262,7.371
534,0.771,36.836,14.182,32.624,30.277,6.386,6.221,7.33
535,0.754,36.96,14.201,32.614,30.273,6.303,6.22,7.329
536,0.754,37.038,14.201,32.605,30.269,6.302,6.22,7.37
537,0.748,36.176,14.158,32.605,30.269,6.343,6.261,7.37
538,0.744,36.11,14.158,32.614,30.273,6.303,6.139,7.37
539,0.741,36.272,14.224,32.586,30.28,6.302,6.219,7.37
540,0.754,36.399,14.108,32.614,30.273,6.262,6.22,7.37
541,0.754,36.189,14.181,32.605,30.276,6.221,6.22,7.33
542,0.751,36.331,14.217,32.605,30.273,6.261,6.22,7.329
543,0.741,36.466,14.229,32.624,30.266,6.262,6.22,7.41
544,0.751,36.544,14.167,32.614,30.273,6.262,6.261,7.371
545,0.764,36.19,14.158,32.624,30.269,6.262,6.18,7.33
546,0.777,36.331,14.17,32.624,30.269,6.262,6.22,7.329
547,0.787,36.457,14.24,32.614,30.276,6.221,6.22,7.329
548,0.8,36.535,14.198,32.614,30.269,6.22,6.22,7.329
549,0.8,36.114,14.213,32.614,30.28,6.261,6.18,7.37
550,0.797,36.272,14.217,32.624,30.28,6.221,6.179,7.33
551,0.797,36.408,14.198,32.605,30.276,6.139,6.139,7.207
552,0.774,36.477,14.158,32.586,30.269,6.016,6.138,7.206
553,0.777,36.266,14.209,32.585,30.259,6.056,6.057,7.125
554,0.774,36.379,14.229,32.585,30.269,6.015,6.137,7.083
555,0.761,36.496,14.151,32.557,30.262,5.974,6.138,7.164
556,0.761,36.516,14.181,32.595,30.262,6.055,6.219,7.246
557,0.761,36.334,14.1,32.585,30.269,6.137,6.22,7.206
558,0.761,36.486,14.154,32.595,30.269,6.016,6.139,7.165
559,0.751,36.631,14.181,32.605,30.273,6.137,6.179,7.124
560,0.777,36.92,14.209,32.605,30.266,5.976,6.179,7.124
561,0.754,36.06,14.182,32.614,30.273,6.055,6.22,7.124
562,0.735,36.205,14.186,32.614,30.269,5.975,6.18,7.124
563,0.747,36.312,14.178,32.605,30.276,6.015,6.179,7.083
564,0.77,36.092,14.201,32.605,30.269,6.015,6.179,7.042
565,0.774,36.157,14.248,32.595,30.269,5.934,6.261,7.042
566,0.764,36.254,14.19,32.585,30.266,5.933,6.139,7.042
567,0.787,36.379,14.174,32.605,30.266,5.974,6.219,7.082
568,0.774,36.074,14.213,32.586,30.269,5.893,6.098,7.123
569,0.793,36.224,14.19,32.595,30.269,6.014,6.178,7.083
570,0.787,36.35,14.166,32.585,30.262,5.974,6.179,7.042
571,0.771,36.438,14.197,32.595,30.273,5.974,6.261,7.082
572,0.774,35.921,14.162,32.605,30.273,5.974,6.262,7.164
573,0.784,36.088,14.174,32.595,30.28,6.055,6.302,7.165
574,0.787,36.205,14.189,32.624,30.276,6.097,6.425,7.206
575,0.78,36.302,14.209,32.624,30.283,6.138,6.385,7.247
576,0.771,36.15,14.248,32.634,30.283,6.098,6.385,7.206
577,0.751,36.34,14.19,32.643,30.28,6.056,6.263,7.125
578,0.751,36.438,14.205,32.615,30.276,6.056,6.302,7.124
579,0.761,36.477,14.205,32.605,30.276,6.056,6.262,7.124
580,0.754,35.96,14.166,32.605,30.28,6.015,6.262,7.124
581,0.741,36.108,14.185,32.595,30.276,6.015,6.221,7.124
582,0.757,36.196,14.264,32.605,30.269,6.015,6.302,7.124
583,0.761,36.264,14.175,32.605,30.276,6.015,6.302,7.043
584,0.767,36.025,14.213,32.605,30.269,6.056,6.262,7.123
585,0.78,36.176,14.174,32.624,30.276,6.015,6.262,7.083
586,0.79,36.292,14.217,32.595,30.269,6.015,6.302,7.042
587,0.777,36.293,14.202,32.643,30.273,6.056,6.302,7.123
588,0.774,36.821,14.182,32.615,30.276,6.097,6.262,7.124
589,0.78,36.96,14.213,32.624,30.276,6.016,6.302,7.083
590,0.774,37.086,14.201,32.614,30.276,6.137,6.221,7.042
591,0.771,35.966,14.186,32.605,30.276,6.016,6.261,7.001
592,0.774,35.571,14.209,32.605,30.276,6.015,6.262,7.082
593,0.784,35.739,14.217,32.624,30.276,6.056,6.262,6.961
594,0.774,35.856,14.143,32.624,30.273,6.015,6.18,6.96
595,0.761,36.04,14.197,32.576,30.266,5.974,6.139,6.878
596,0.764,36.176,14.155,32.585,30.266,5.933,6.057,6.877
597,0.751,36.311,14.205,32.585,30.266,5.811,6.137,6.959
598,0.741,36.38,14.201,32.585,30.266,5.891,6.179,6.919
599,0.734,35.681,14.174,32.566,30.262,5.973,6.22,6.959
600,0.744,35.817,14.201,32.585,30.269,6.015,6.22,6.919
601,0.741,35.982,14.174,32.605,30.273,5.974,6.302,7.041
602,0.747,36.06,14.15,32.624,30.262,5.974,6.262,7.001
603,0.764,36.013,14.22,32.605,30.276,6.055,6.262,7.001
604,0.764,36.156,14.229,32.605,30.269,5.975,6.262,7.001
605,0.77,36.282,14.194,32.586,30.269,6.015,6.262,6.96
606,0.77,36.341,14.182,32.595,30.269,6.015,6.221,7.0
607,0.78,35.757,14.193,32.595,30.262,6.015,6.22,7.001
608,0.777,35.895,14.151,32.605,30.269,6.096,6.22,7.001
609,0.78,36.03,14.177,32.586,30.266,6.178,6.18,6.96
610,0.777,36.08,14.213,32.585,30.273,6.139,6.179,7.0
611,0.78,35.831,14.174,32.585,30.266,6.098,6.139,7.082
612,0.774,35.991,14.17,32.585,30.262,6.26,6.219,7.042
613,0.761,36.099,14.146,32.585,30.266,6.221,6.22,7.123
614,0.761,36.119,14.228,32.585,30.269,6.22,6.302,7.246
615,0.761,35.889,14.209,32.595,30.266,6.261,6.262,7.166
616,0.748,36.03,14.178,32.605,30.269,6.343,6.384,7.287
617,0.747,36.156,14.162,32.624,30.273,6.384,6.425,7.369
618,0.76,35.908,14.256,32.634,30.28,6.425,6.385,7.37
619,0.761,35.8,14.229,32.615,30.28,6.548,6.466,7.452
620,0.774,35.934,14.186,32.643,30.29,6.427,6.467,7.371
621,0.774,36.05,14.232,32.663,30.283,6.466,6.386,7.37
622,0.78,35.879,14.151,32.634,30.276,6.467,6.344,7.452
623,0.774,36.002,14.185,32.624,30.276,6.386,6.303,7.33
624,0.79,36.108,14.158,32.605,30.266,6.385,6.262,7.329
625,0.78,36.176,14.217,32.605,30.269,6.385,6.384,7.289
626,0.774,35.736,14.221,32.614,30.273,6.425,6.303,7.369
627,0.777,35.885,14.241,32.586,30.273,6.385,6.384,7.33
628,0.774,36.021,14.213,32.614,30.28,6.385,6.263,7.37
629,0.787,36.099,14.166,32.624,30.266,6.385,6.302,7.33
630,0.784,35.697,14.17,32.605,30.276,6.344,6.302,7.37
631,0.777,35.846,14.209,32.624,30.273,6.343,6.262,7.289
632,0.777,35.963,14.209,32.605,30.269,6.425,6.262,7.288
633,0.777,36.041,14.182,32.653,30.276,6.466,6.343,7.369
634,0.774,35.773,14.15,32.615,30.273,6.467,6.343,7.37
635,0.774,35.914,14.185,32.614,30.269,6.426,6.384,7.37
636,0.771,36.04,14.209,32.624,30.273,6.385,6.303,7.411
637,0.77,36.099,14.178,32.605,30.28,6.344,6.221,7.411
638,0.767,35.706,14.15,32.614,30.276,6.343,6.302,7.289
639,0.757,35.837,14.213,32.614,30.269,6.343,6.262,7.288
640,0.777,35.963,14.17,32.614,30.269,6.262,6.18,7.288
641,0.767,35.964,14.135,32.595,30.262,6.18,6.179,7.207
642,0.764,35.734,14.216,32.576,30.262,6.261,6.179,7.287
643,0.751,35.875,14.194,32.595,30.259,6.262,6.22,7.288
644,0.754,35.973,14.1,32.566,30.266,6.302,6.261,7.329
645,0.767,35.897,14.169,32.595,30.262,6.221,6.302,7.289
646,0.777,35.695,14.174,32.605,30.28,6.302,6.302,7.329
647,0.774,35.837,14.189,32.595,30.269,6.302,6.343,7.329
648,0.777,35.963,14.19,32.595,30.273,6.302,6.221,7.329
649,0.78,35.648,14.197,32.595,30.273,6.384,6.302,7.329
650,0.78,35.731,14.155,32.585,30.269,6.263,6.302,7.329
651,0.797,35.885,14.181,32.605,30.276,6.262,6.302,7.289
652,0.797,35.973,14.189,32.595,30.273,6.221,6.302,7.207
653,0.794,35.533,14.244,32.595,30.262,6.22,6.302,7.287
654,0.777,35.662,14.21,32.605,30.266,6.18,6.262,7.288
655,0.767,35.808,14.131,32.595,30.266,6.261,6.262,7.288
656,0.78,35.895,14.185,32.605,30.266,6.221,6.221,7.207
657,0.777,35.513,14.158,32.586,30.266,6.261,6.22,7.247
658,0.771,35.672,14.15,32.585,30.269,6.221,6.139,7.247
659,0.748,35.798,14.162,32.585,30.269,6.18,6.179,7.206
660,0.741,35.847,14.209,32.585,30.262,6.22,6.179,7.247
661,0.751,35.483,14.17,32.595,30.266,6.22,6.22,7.288
662,0.761,35.672,14.174,32.605,30.269,6.261,6.22,7.329
663,0.754,35.798,14.174,32.605,30.273,6.302,6.261,7.37
664,0.754,35.847,14.26,32.624,30.28,6.343,6.302,7.37
665,0.767,35.531,14.221,32.605,30.287,6.466,6.302,7.411
666,0.774,35.643,14.163,32.624,30.283,6.386,6.302,7.371
667,0.777,35.798,14.181,32.634,30.287,6.466,6.343,7.33
668,0.784,35.819,14.205,32.624,30.283,6.386,6.262,7.248
669,0.8,35.531,14.186,32.634,30.276,6.303,6.221,7.288
670,0.79,35.672,14.178,32.595,30.276,6.262,6.22,7.247
671,0.793,35.76,14.221,32.585,30.269,6.18,6.139,7.247
672,0.79,36.058,14.139,32.605,30.269,6.261,6.219,7.206
673,0.784,35.917,14.15,32.586,30.273,6.18,6.22,7.287
674,0.784,36.069,14.213,32.595,30.276,6.179,6.22,7.207
675,0.777,36.176,14.213,32.624,30.273,6.22,6.18,7.206
676,0.774,35.4,14.252,32.605,30.276,6.22,6.139,7.206
677,0.758,35.373,14.194,32.605,30.276,6.22,6.138,7.287
678,0.757,35.498,14.209,32.614,30.283,6.22,6.138,7.166
679,0.748,35.624,14.135,32.614,30.273,6.139,6.179,7.206
680,0.754,35.433,14.173,32.614,30.276,6.138,6.22,7.206
681,0.767,35.575,14.205,32.605,30.269,6.138,6.139,7.206
682,0.751,35.711,14.221,32.624,30.276,6.179,6.179,7.206
683,0.764,35.798,14.116,32.634,30.276,6.179,6.139,7.206
684,0.787,35.397,14.181,32.624,30.273,6.098,6.179,7.206
685,0.8,35.536,14.201,32.624,30.276,6.178,6.139,7.206
686,0.787,35.662,14.205,32.614,30.276,6.098,6.098,7.287
687,0.797,35.75,14.213,32.614,30.269,6.097,6.097,7.125
688,0.8,35.367,14.182,32.595,30.269,6.016,6.016,7.083
689,0.787,35.498,14.186,32.595,30.266,5.893,6.015,7.083
690,0.787,35.633,14.186,32.585,30.262,5.892,5.974,7.123
691,0.79,35.683,14.166,32.557,30.262,5.933,6.015,7.083
692,0.784,35.348,14.217,32.556,30.269,5.974,6.015,7.205
693,0.79,35.507,14.163,32.585,30.273,5.974,6.096,7.206
694,0.777,35.653,14.154,32.595,30.273,6.015,6.097,7.247
695,0.771,35.721,14.189,32.605,30.276,6.015,6.097,7.166
696,0.774,35.405,14.19,32.595,30.276,6.015,6.056,7.206
697,0.761,35.527,14.209,32.595,30.269,6.015,6.056,7.165
698,0.767,35.682,14.159,32.605,30.276,6.015,6.015,7.124
699,0.764,35.837,14.22,32.586,30.266,5.974,6.015,7.083
700,0.764,35.349,14.143,32.595,30.269,5.933,6.056,7.083
701,0.767,35.498,14.142,32.595,30.273,5.974,6.056,7.123
702,0.774,35.595,14.158,32.595,30.269,5.974,6.015,7.124
703,0.8,35.404,14.228,32.585,30.266,5.933,6.056,7.083
704,0.807,35.421,14.174,32.585,30.269,5.933,6.056,7.083
705,0.813,35.556,14.1,32.595,30.266,5.892,5.893,7.123
706,0.813,35.672,14.15,32.595,30.269,5.851,6.014,7.002
707,0.823,35.328,14.158,32.585,30.262,5.891,5.974,7.001
708,0.813,35.44,14.193,32.624,30.269,5.811,6.015,7.001
709,0.813,35.594,14.162,32.595,30.262,5.972,5.974,7.041
710,0.82,35.682,14.217,32.605,30.269,5.893,6.055,7.123
711,0.839,35.175,14.159,32.595,30.269,6.014,6.056,7.124
712,0.859,35.342,14.166,32.605,30.28,5.974,6.137,7.165
713,0.862,35.459,14.174,32.624,30.287,6.055,6.138,7.246
714,0.862,35.566,14.182,32.624,30.283,6.097,6.179,7.166
715,0.853,35.318,14.201,32.653,30.29,5.975,6.139,7.124
716,0.856,35.488,14.104,32.653,30.287,5.974,6.138,7.124
717,0.856,35.624,14.146,32.634,30.276,5.933,6.098,7.043
718,0.866,35.673,14.197,32.624,30.273,5.892,6.016,7.042
719,0.846,35.232,14.205,32.595,30.28,5.851,6.056,7.042
720,0.843,35.372,14.217,32.585,30.269,5.891,6.097,7.042
721,0.853,35.498,14.213,32.624,30.266,5.811,6.138,7.082
722,0.856,35.537,14.159,32.605,30.276,5.81,6.098,7.083
723,0.859,35.26,14.154,32.614,30.273,5.81,6.138,7.123
724,0.882,35.41,14.158,32.605,30.269,5.81,6.098,7.083
725,0.895,35.546,14.205,32.595,30.269,5.85,6.138,7.205
726,0.876,35.557,14.19,32.595,30.276,5.769,6.179,7.084
727,0.879,35.241,14.166,32.614,30.273,5.85,6.139,7.123
728,0.892,35.362,14.213,32.624,30.273,5.81,6.138,7.124
729,0.892,35.498,14.182,32.605,30.276,5.769,6.138,7.124
730,0.899,35.288,14.147,32.624,30.276,5.85,6.138,7.124
731,0.905,35.228,14.224,32.605,30.28,5.81,6.179,7.124
732,0.902,35.353,14.209,32.605,30.276,5.81,6.22,7.124
733,0.902,35.478,14.19,32.624,30.276,5.85,6.18,7.083
734,0.912,35.125,14.162,32.614,30.276,5.851,6.139,7.042
735,0.908,35.236,14.174,32.605,30.269,5.769,6.138,6.879
736,0.908,35.372,14.24,32.614,30.262,5.768,6.057,6.918
737,0.899,35.46,14.198,32.586,30.266,5.728,6.015,6.959
738,0.886,35.067,14.182,32.566,30.262,5.727,6.015,6.96
739,0.869,35.217,14.17,32.585,30.259,5.809,6.178,7.041
740,0.872,35.362,14.174,32.595,30.269,5.769,6.098,6.96
741,0.869,35.469,14.178,32.624,30.269,5.85,6.138,7.0
742,0.879,35.086,14.205,32.586,30.273,5.851,6.138,7.041
743,0.879,35.246,14.178,32.614,30.276,5.932,6.138,7.001
744,0.895,35.381,14.166,32.681,30.273,5.852,6.138,7.041
745,0.889,35.44,14.182,32.596,30.266,5.891,6.179,6.96
746,0.905,35.067,14.154,32.585,30.273,5.892,6.179,6.96
747,0.915,35.226,14.162,32.614,30.269,5.933,6.22,7.041
748,0.905,35.362,14.162,32.605,30.269,5.892,6.139,7.001
749,0.905,35.411,14.213,32.595,30.269,5.892,6.138,7.001
750,0.905,35.095,14.178,32.624,30.266,5.892,6.179,7.001
751,0.895,35.246,14.17,32.586,30.255,5.892,6.098,6.879
752,0.905,35.353,14.224,32.585,30.269,5.851,6.097,6.918
753,0.908,35.373,14.19,32.605,30.269,5.973,6.138,6.919
754,0.899,35.105,14.1,32.595,30.266,5.974,6.057,6.919
755,0.889,35.275,14.122,32.595,30.266,6.015,6.178,6.959
756,0.899,35.382,14.123,32.585,30.269,6.056,6.139,6.96
757,0.882,35.258,14.232,32.595,30.28,6.056,6.26,7.082
758,0.892,35.113,14.19,32.595,30.276,6.137,6.302,7.123
759,0.899,35.256,14.201,32.624,30.283,6.138,6.221,7.043
760,0.915,35.391,14.229,32.624,30.283,6.219,6.302,7.123
761,0.905,35.086,14.209,32.643,30.287,6.18,6.302,7.083
762,0.905,35.131,14.166,32.634,30.28,6.139,6.221,7.123
763,0.938,35.275,14.213,32.615,30.269,6.057,6.139,7.083
764,0.925,35.363,14.229,32.614,30.269,6.056,6.057,7.042
765,0.909,34.99,14.167,32.614,30.269,6.097,6.097,6.96
766,0.899,35.13,14.178,32.614,30.276,6.056,6.178,7.082
767,0.886,35.256,14.143,32.614,30.276,6.056,6.139,7.042
768,0.895,35.353,14.173,32.624,30.276,6.097,6.138,7.042
769,0.889,34.922,14.17,32.614,30.269,6.138,6.138,7.123
770,0.863,35.062,14.205,32.624,30.276,6.138,6.138,7.124
771,0.875,35.207,14.186,32.614,30.269,6.138,6.138,6.961
772,0.869,35.285,14.174,32.605,30.276,6.138,6.179,7.041
773,0.872,34.95,14.174,32.614,30.273,6.179,6.179,7.042
774,0.856,35.11,14.232,32.605,30.273,6.301,6.139,7.001
775,0.849,35.236,14.225,32.605,30.269,6.302,6.138,7.082
776,0.843,35.286,14.202,32.614,30.276,6.384,6.138,7.083
777,0.813,34.96,14.194,32.614,30.273,6.425,6.179,7.164
778,0.807,35.11,14.236,32.624,30.276,6.466,6.22,7.165
779,0.784,35.236,14.085,32.643,30.273,6.467,6.18,7.124
780,0.774,35.276,14.157,32.624,30.276,6.548,6.139,7.205
781,0.764,34.941,14.217,32.624,30.273,6.468,6.057,7.247
782,0.754,35.091,14.182,32.614,30.269,6.467,6.056,7.125
783,0.735,35.198,14.131,32.605,30.262,6.467,6.056,7.124
784,0.757,35.228,14.177,32.605,30.266,6.548,5.975,7.165
785,0.761,34.969,14.201,32.576,30.262,6.508,6.015,7.165
786,0.767,35.101,14.229,32.585,30.269,6.63,6.096,7.246
787,0.777,35.246,14.209,32.585,30.269,6.55,6.056,7.288
788,0.777,34.902,14.186,32.605,30.269,6.63,6.056,7.329
789,0.793,34.975,14.162,32.624,30.273,6.59,6.056,7.329
790,0.784,35.139,14.154,32.624,30.273,6.631,6.097,7.37
791,0.777,35.246,14.17,32.624,30.273,6.631,6.138,7.33
792,0.774,35.228,14.201,32.614,30.269,6.672,6.098,7.41
793,0.761,35.353,14.119,32.614,30.269,6.672,6.097,7.493
794,0.764,35.488,14.146,32.634,30.273,6.55,6.097,7.494
795,0.748,35.566,14.134,32.624,30.269,6.59,6.056,7.616
796,0.738,34.608,14.212,32.634,30.269,6.549,5.975,7.657
797,0.725,34.761,14.084,32.634,30.266,6.549,6.055,7.78
798,0.737,34.926,14.189,32.634,30.262,6.468,6.056,7.862
799,0.738,34.985,14.225,32.605,30.262,6.548,6.056,7.863
800,0.728,34.88,14.17,32.605,30.266,6.549,6.056,7.944
801,0.721,35.061,14.174,32.614,30.269,6.508,6.056,8.067
802,0.721,35.159,14.201,32.614,30.259,6.508,6.015,8.15
803,0.728,35.208,14.197,32.605,30.262,6.549,6.096,8.232
804,0.751,34.72,14.092,32.633,30.273,6.63,6.178,8.273
805,0.767,34.878,14.153,32.634,30.273,6.631,6.22,8.477
806,0.757,35.013,14.142,32.643,30.28,6.631,6.261,8.398
807,0.757,35.053,14.228,32.653,30.283,6.672,6.262,8.478
808,0.757,34.862,14.217,32.672,30.287,6.753,6.262,8.479
809,0.767,35.013,14.182,32.663,30.276,6.714,6.262,8.438
810,0.761,35.12,14.213,32.672,30.28,6.672,6.139,8.397
811,0.761,35.457,14.166,32.634,30.276,6.591,6.138,8.397
812,0.761,34.837,14.162,32.634,30.276,6.631,6.138,8.356
813,0.764,34.965,14.228,32.634,30.276,6.712,6.138,8.437
814,0.754,35.081,14.209,32.624,30.273,6.632,6.138,8.438
815,0.738,34.824,14.112,32.643,30.273,6.631,6.138,8.316
816,0.744,34.85,14.158,32.634,30.276,6.631,6.098,8.396
817,0.728,35.004,14.158,32.643,30.269,6.59,6.097,8.356
818,0.731,35.111,14.119,32.615,30.269,6.671,6.097,8.356
819,0.734,34.757,14.15,32.624,30.276,6.672,6.097,8.478
820,0.734,34.868,14.216,32.614,30.269,6.672,6.097,8.398
821,0.731,35.033,14.178,32.634,30.273,6.631,6.097,8.397
822,0.734,35.13,14.178,32.643,30.28,6.672,6.097,8.397
823,0.738,34.623,14.162,32.643,30.276,6.631,6.138,8.397
824,0.747,34.771,14.213,32.653,30.273,6.631,6.138,8.438
825,0.757,34.897,14.19,32.644,30.28,6.631,6.138,8.397
826,0.761,34.994,14.174,32.643,30.273,6.55,6.057,8.356
827,0.751,34.727,14.143,32.643,30.276,6.63,6.137,8.397
828,0.774,34.878,14.197,32.643,30.269,6.59,6.098,8.356
829,0.761,35.042,14.162,32.643,30.269,6.631,6.097,8.356
830,0.754,35.082,14.162,32.634,30.273,6.55,5.975,8.193
831,0.761,34.689,14.221,32.615,30.262,6.427,6.015,8.151
832,0.761,34.858,14.155,32.595,30.266,6.466,5.934,8.069
833,0.754,34.984,14.17,32.585,30.262,6.345,5.974,8.109
834,0.741,35.005,14.174,32.605,30.262,6.343,5.974,8.109
835,0.734,34.717,14.205,32.605,30.273,6.506,6.096,8.109
836,0.731,34.878,14.201,32.643,30.276,6.427,6.056,8.109
837,0.731,34.994,14.17,32.615,30.276,6.385,6.015,8.028
838,0.734,35.024,14.197,32.624,30.269,6.385,6.137,8.068
839,0.734,34.67,14.158,32.624,30.269,6.425,6.098,8.028
840,0.718,34.829,14.154,32.634,30.269,6.385,6.097,7.987
841,0.702,34.946,14.201,32.624,30.266,6.303,6.097,7.946
842,0.721,34.707,14.24,32.634,30.269,6.343,6.138,7.986
843,0.689,34.695,14.139,32.615,30.269,6.343,6.138,7.946
844,0.675,34.839,14.166,32.624,30.273,6.343,6.138,7.864
845,0.688,34.936,14.17,32.624,30.273,6.343,6.179,7.863
846,0.679,34.659,14.205,32.624,30.266,6.221,6.179,7.7
847,0.695,34.781,14.178,32.634,30.269,6.302,6.22,7.74
848,0.688,34.907,14.158,32.624,30.262,6.221,6.22,7.699
849,0.688,35.004,14.181,32.614,30.262,6.302,6.261,7.74
850,0.688,34.507,14.162,32.624,30.266,6.262,6.262,7.659
851,0.711,34.655,14.185,32.605,30.266,6.343,6.343,7.78
852,0.728,34.8,14.24,32.605,30.273,6.384,6.343,7.7
853,0.731,34.888,14.171,32.643,30.269,6.425,6.466,7.74
854,0.744,34.611,14.146,32.643,30.28,6.426,6.467,7.74
855,0.773,34.761,14.174,32.663,30.28,6.426,6.467,7.781
856,0.826,34.907,14.17,32.672,30.283,6.466,6.467,7.7
857,0.859,34.975,14.197,32.663,30.283,6.345,6.386,7.618
858,0.895,34.564,14.201,32.663,30.273,6.343,6.425,7.535
859,0.941,34.703,14.201,32.634,30.276,6.303,6.304,7.616
860,0.987,34.81,14.174,32.643,30.269,6.262,6.384,7.535
861,1.007,34.85,14.15,32.643,30.273,6.221,6.344,7.575
862,1.046,34.62,14.185,32.624,30.266,6.302,6.303,7.616
863,1.108,34.771,14.213,32.653,30.266,6.221,6.302,7.617
864,1.158,34.907,14.174,32.644,30.273,6.22,6.384,7.698
865,1.207,34.927,14.182,32.634,30.273,6.342,6.385,7.618
866,1.279,34.707,14.139,32.634,30.276,6.303,6.344,7.617
867,1.358,34.839,14.228,32.634,30.276,6.221,6.425,7.657
868,1.417,34.994,14.209,32.653,30.28,6.302,6.304,7.78
869,1.437,34.708,14.174,32.663,30.273,6.343,6.343,7.74
870,1.428,34.542,14.201,32.644,30.276,6.303,6.303,7.699
871,1.457,34.665,14.151,32.643,30.28,6.302,6.343,7.78
872,1.477,34.81,14.15,32.624,30.28,6.302,6.343,7.822
873,1.539,34.447,14.181,32.643,30.273,6.302,6.343,7.7
874,1.559,34.568,14.232,32.643,30.273,6.262,6.343,7.74
875,1.582,34.703,14.178,32.653,30.269,6.18,6.303,7.781
876,1.592,34.82,14.154,32.691,30.269,6.179,6.302,7.74
877,1.605,34.543,14.154,32.634,30.273,6.098,6.302,7.699
878,1.638,34.694,14.166,32.615,30.269,6.138,6.221,7.699
879,1.657,34.829,14.178,32.624,30.262,6.098,6.18,7.74
880,1.693,34.898,14.186,32.624,30.262,6.097,6.22,7.781
881,1.674,34.438,14.19,32.595,30.262,6.219,6.261,7.944
882,1.684,34.606,14.154,32.633,30.266,6.261,6.302,8.026
883,1.674,34.761,14.138,32.634,30.276,6.221,6.302,8.19
884,1.628,34.84,14.197,32.643,30.269,6.139,6.302,8.354
885,1.553,34.495,14.205,32.634,30.269,6.179,6.221,8.559
886,1.507,34.655,14.201,32.634,30.266,6.098,6.261,8.927
887,1.451,34.771,14.158,32.643,30.273,6.138,6.262,9.256
888,1.386,34.821,14.22,32.634,30.269,6.179,6.262,9.666
889,1.297,34.457,14.182,32.624,30.269,6.057,6.221,10.199
890,1.215,34.587,14.166,32.624,30.273,6.097,6.22,10.854
891,1.162,34.713,14.197,32.624,30.269,6.056,6.18,11.349
892,1.106,34.734,14.147,32.614,30.269,6.056,6.179,11.76
893,1.044,34.485,14.166,32.614,30.266,6.097,6.139,12.252
894,0.994,34.597,14.158,32.614,30.259,6.016,6.219,12.623
895,0.968,34.713,14.197,32.614,30.266,6.015,6.22,12.993
896,0.938,34.667,14.201,32.614,30.273,6.096,6.22,13.2
897,0.906,34.494,14.174,32.614,30.276,6.056,6.342,13.527
898,0.853,34.626,14.193,32.634,30.276,6.178,6.384,13.815
899,0.84,34.771,14.143,32.653,30.29,6.22,6.344,13.818
900,0.83,34.408,14.17,32.663,30.283,6.261,6.343,13.859
901,0.82,34.51,14.209,32.663,30.28,6.262,6.343,13.859
902,0.82,34.655,14.217,32.663,30.276,6.18,6.303,13.859
903,0.781,34.752,14.198,32.644,30.269,6.057,6.262,13.859
904,0.8,34.427,14.143,32.634,30.269,6.097,6.262,13.981
905,0.813,34.577,14.173,32.634,30.276,6.138,6.302,14.023
906,0.807,34.704,14.201,32.643,30.273,6.138,6.262,14.226
907,0.852,34.791,14.151,32.643,30.276,6.179,6.262,14.432
908,0.859,34.313,14.158,32.634,30.273,6.179,6.262,14.841
909,0.859,34.442,14.17,32.624,30.269,6.22,6.302,15.129
910,0.866,34.587,14.166,32.634,30.273,6.261,6.302,15.457
911,0.869,34.665,14.178,32.634,30.273,6.302,6.262,15.583
912,0.876,34.359,14.213,32.624,30.273,6.262,6.262,15.909
913,0.863,34.529,14.123,32.634,30.276,6.302,6.343,16.075
914,0.849,34.665,14.15,32.653,30.273,6.302,6.262,16.199
915,0.846,34.743,14.17,32.624,30.283,6.384,6.262,16.281
916,0.846,34.465,14.189,32.634,30.28,6.344,6.262,16.201
917,0.846,34.626,14.147,32.643,30.276,6.384,6.302,16.2
918,0.836,34.771,14.162,32.634,30.273,6.303,6.262,16.037
919,0.823,34.801,14.205,32.634,30.273,6.302,6.221,15.792
920,0.826,34.351,14.139,32.615,30.273,6.262,6.18,15.586
921,0.804,34.51,14.158,32.624,30.256,6.262,6.179,15.462
922,0.8,34.626,14.193,32.605,30.262,6.18,6.179,15.176
923,0.8,34.781,14.213,32.595,30.262,6.179,6.22,15.092
924,0.813,34.456,14.143,32.605,30.266,6.301,6.261,14.928
925,0.816,34.606,14.15,32.672,30.28,6.302,6.302,14.602
926,0.816,34.723,14.115,32.644,30.273,6.384,6.221,14.395
927,0.813,34.331,14.189,32.615,30.269,6.303,6.261,14.108
928,0.8,34.365,14.19,32.624,30.273,6.302,6.18,13.861
929,0.82,34.5,14.147,32.624,30.273,6.384,6.22,13.656
930,0.803,34.607,14.209,32.624,30.266,6.303,6.22,13.328
931,0.8,34.311,14.194,32.624,30.266,6.262,6.261,13.041
932,0.81,34.461,14.139,32.605,30.276,6.302,6.221,12.956
933,0.81,34.616,14.181,32.614,30.273,6.262,6.139,12.752
934,0.797,34.694,14.236,32.614,30.262,6.221,6.179,12.506
935,0.794,34.273,14.194,32.614,30.269,6.22,6.139,12.301
936,0.813,34.413,14.127,32.624,30.262,6.22,6.219,12.095
937,0.807,34.568,14.134,32.624,30.259,6.18,6.139,11.849
938,0.82,34.636,14.181,32.605,30.266,6.22,6.138,11.725
939,0.787,34.311,14.166,32.605,30.269,6.22,6.179,11.561
940,0.774,34.452,14.15,32.614,30.269,6.302,6.261,11.397
941,0.771,34.578,14.197,32.634,30.276,6.302,6.262,11.395
942,0.8,34.684,14.092,32.643,30.287,6.302,6.302,11.232
943,0.81,34.359,14.161,32.643,30.283,6.425,6.425,11.109
944,0.797,34.51,14.178,32.653,30.28,6.426,6.344,10.904
945,0.81,34.626,14.236,32.634,30.283,6.304,6.262,10.699
946,0.813,34.675,14.26,32.643,30.276,6.262,6.221,10.575
947,0.803,34.244,14.202,32.624,30.269,6.302,6.22,10.533
948,0.813,34.365,14.24,32.614,30.273,6.343,6.261,10.451
949,0.829,34.481,14.155,32.634,30.266,6.221,6.221,10.328
950,0.817,34.77,14.185,32.624,30.266,6.302,6.302,10.327
951,0.813,34.312,14.19,32.614,30.276,6.262,6.262,10.205
952,0.813,34.461,14.186,32.614,30.273,6.262,6.302,10.245
953,0.803,34.578,14.119,32.634,30.276,6.343,6.221,10.204
954,0.8,34.301,14.15,32.634,30.269,6.343,6.22,10.163
955,0.8,34.288,14.174,32.634,30.276,6.303,6.342,10.122
956,0.787,34.432,14.213,32.634,30.276,6.302,6.303,10.081
957,0.79,34.549,14.151,32.672,30.273,6.343,6.302,9.959
958,0.819,34.176,14.15,32.634,30.273,6.343,6.262,9.917
959,0.82,34.287,14.22,32.624,30.276,6.303,6.302,9.916
960,0.826,34.461,14.166,32.643,30.276,6.262,6.302,9.835
961,0.804,34.549,14.154,32.643,30.276,6.302,6.221,9.712
962,0.81,34.205,14.209,32.624,30.276,6.221,6.261,9.67
963,0.794,34.364,14.198,32.624,30.266,6.18,6.221,9.548
964,0.806,34.51,14.139,32.624,30.269,6.139,6.18,9.425
965,0.813,34.588,14.115,32.605,30.266,6.098,6.139,9.383
966,0.81,34.176,14.134,32.595,30.266,6.138,6.098,9.342
967,0.807,34.326,14.169,32.595,30.266,5.976,6.178,9.342
968,0.813,34.461,14.166,32.605,30.262,6.137,6.22,9.26
969,0.813,34.52,14.205,32.614,30.28,6.179,6.302,9.3
970,0.82,34.195,14.19,32.614,30.273,6.139,6.221,9.219
971,0.826,34.383,14.178,32.614,30.269,6.179,6.22,9.137
972,0.826,34.5,14.154,32.605,30.273,6.139,6.261,9.095
973,0.82,34.549,14.201,32.633,30.269,6.219,6.221,8.932
974,0.807,34.176,14.194,32.624,30.269,6.139,6.18,8.972
975,0.813,34.345,14.162,32.595,30.269,6.179,6.179,8.931
976,0.803,34.481,14.142,32.614,30.269,6.22,6.261,8.89
977,0.81,34.501,14.115,32.614,30.266,6.18,6.18,8.849
978,0.794,34.185,14.173,32.605,30.266,6.301,6.22,8.767
979,0.793,34.364,14.158,32.605,30.269,6.221,6.139,8.726
980,0.793,34.452,14.217,32.586,30.269,6.22,6.138,8.685
981,0.79,34.309,14.198,32.614,30.262,6.302,6.138,8.725
982,0.797,34.26,14.186,32.614,30.269,6.302,6.098,8.726
983,0.8,34.422,14.147,32.595,30.262,6.384,6.178,8.726
984,0.807,34.529,14.177,32.605,30.262,6.385,6.22,8.644
985,0.816,34.204,14.228,32.586,30.269,6.344,6.261,8.725
986,0.81,34.307,14.202,32.595,30.276,6.466,6.221,8.685
987,0.82,34.461,14.186,32.624,30.28,6.548,6.302,8.766
988,0.826,34.587,14.221,32.634,30.276,6.549,6.384,8.767
989,0.836,34.08,14.19,32.634,30.283,6.59,6.425,8.726
990,0.846,34.229,14.166,32.643,30.276,6.549,6.304,8.644
991,0.853,34.384,14.228,32.634,30.276,6.508,6.262,8.521
992,0.833,34.433,14.198,32.605,30.276,6.467,6.262,8.52
993,0.843,34.127,14.162,32.614,30.266,6.507,6.262,8.561
994,0.82,34.277,14.166,32.605,30.273,6.386,6.302,8.521
995,0.826,34.422,14.185,32.614,30.269,6.547,6.302,8.642
996,0.836,34.482,14.221,32.605,30.269,6.468,6.343,8.603
997,0.823,34.175,14.229,32.624,30.269,6.507,6.303,8.684
998,0.813,34.326,14.155,32.614,30.276,6.549,6.262,8.603
999,0.803,34.461,14.189,32.614,30.276,6.63,6.343,8.724
1000,0.807,34.53,14.178,32.614,30.273,6.59,6.303,8.685
1001,0.807,34.511,14.178,32.614,30.276,6.631,6.302,8.603
1002,0.816,34.645,14.221,32.624,30.276,6.712,6.302,8.684
1003,0.813,34.791,14.174,32.595,30.28,6.794,6.343,8.684
1004,0.82,34.821,14.17,32.624,30.273,6.836,6.343,8.603
1005,0.823,34.438,14.135,32.624,30.276,6.918,6.262,8.602
1006,0.817,34.597,14.166,32.614,30.276,6.796,6.262,8.521
1007,0.82,34.704,14.162,32.605,30.269,6.795,6.221,8.479
1008,0.833,34.264,14.142,32.586,30.262,6.836,6.18,8.398
1009,0.833,33.885,14.181,32.585,30.266,6.796,6.098,8.316
1010,0.833,34.045,14.135,32.576,30.266,6.755,6.138,8.274
1011,0.836,34.161,14.142,32.585,30.262,6.714,6.098,8.274
1012,0.836,34.067,14.181,32.557,30.269,6.835,6.219,8.274
1013,0.826,34.181,14.213,32.585,30.273,6.796,6.261,8.274
1014,0.83,34.345,14.174,32.585,30.269,6.795,6.221,8.274
1015,0.813,34.442,14.146,32.605,30.269,6.877,6.18,8.314
1016,0.813,33.964,14.154,32.586,30.28,6.837,6.22,8.274
1017,0.803,34.103,14.154,32.595,30.269,6.837,6.22,8.233
1018,0.803,34.239,14.142,32.595,30.269,6.796,6.18,8.314
1019,0.813,34.336,14.166,32.595,30.276,6.795,6.179,8.274
1020,0.81,34.49,14.189,32.566,30.266,6.755,6.179,8.355
1021,0.813,34.645,14.135,32.585,30.269,6.795,6.179,8.315
1022,0.807,34.771,14.146,32.595,30.273,6.795,6.179,8.356
1023,0.807,34.849,14.201,32.595,30.269,6.714,6.139,8.356
1024,0.826,33.699,14.217,32.585,30.269,6.713,6.138,8.356
1025,0.833,33.841,14.205,32.585,30.266,6.754,6.138,8.356
1026,0.839,33.968,14.151,32.585,30.269,6.754,6.138,8.315
1027,0.846,34.055,14.15,32.585,30.266,6.754,6.138,8.396
1028,0.836,34.123,14.197,32.595,30.269,6.795,6.179,8.356
1029,0.826,34.306,14.166,32.595,30.269,6.836,6.179,8.478
1030,0.849,34.442,14.142,32.605,30.269,6.877,6.261,8.479
1031,0.856,34.472,14.224,32.605,30.283,6.959,6.302,8.438
1032,0.846,33.955,14.127,32.633,30.283,7.0,6.343,8.438
1033,0.849,34.132,14.146,32.634,30.283,7.001,6.303,8.397
1034,0.849,34.248,14.134,32.624,30.28,7.001,6.18,8.316
1035,0.836,34.298,14.216,32.605,30.276,6.879,6.179,8.274
1036,0.839,34.058,14.229,32.605,30.269,6.877,6.179,8.314
1037,0.83,34.19,14.198,32.586,30.269,6.877,6.179,8.234
1038,0.836,34.307,14.186,32.605,30.269,6.959,6.22,8.233
1039,0.82,34.049,14.182,32.586,30.269,6.919,6.22,8.273
1040,0.826,34.152,14.15,32.595,30.273,6.878,6.261,8.193
1041,0.826,34.306,14.158,32.605,30.273,6.918,6.18,8.11
1042,0.82,34.375,14.213,32.605,30.273,6.919,6.22,8.191
1043,0.83,33.877,14.135,32.605,30.273,6.919,6.302,8.029
1044,0.833,34.016,14.158,32.614,30.273,6.919,6.302,8.068
1045,0.833,34.161,14.139,32.605,30.269,6.837,6.302,8.069
1046,0.839,34.258,14.185,32.595,30.28,6.837,6.302,7.987
1047,0.856,33.962,14.178,32.614,30.276,6.958,6.343,7.986
1048,0.869,34.141,14.174,32.624,30.28,6.838,6.303,7.946
1049,0.856,34.277,14.205,32.586,30.28,6.877,6.221,7.905
1050,0.82,34.346,14.178,32.614,30.276,6.877,6.302,7.863
1051,0.849,33.838,14.143,32.605,30.28,6.837,6.302,7.782
1052,0.856,33.987,14.185,32.586,30.273,6.877,6.262,7.659
1053,0.846,34.113,14.182,32.585,30.273,6.674,6.18,7.698
1054,0.843,34.181,14.111,32.585,30.262,6.713,6.179,7.618
1055,0.83,33.932,14.134,32.585,30.262,6.794,6.057,7.698
1056,0.826,34.055,14.119,32.585,30.262,6.795,6.219,7.74
1057,0.826,34.171,14.212,32.585,30.266,6.714,6.261,7.862
1058,0.826,34.249,14.186,32.585,30.269,6.876,6.221,7.822
1059,0.839,34.202,14.193,32.595,30.273,6.796,6.261,7.863
1060,0.836,34.355,14.186,32.585,30.276,6.795,6.221,7.782
1061,0.83,34.471,14.096,32.614,30.269,6.795,6.261,7.822
1062,0.836,34.751,14.107,32.605,30.269,6.795,6.262,7.822
1063,0.833,33.814,14.193,32.605,30.276,6.714,6.262,7.781
1064,0.83,33.929,14.205,32.605,30.276,6.794,6.221,7.822
1065,0.839,34.074,14.182,32.595,30.269,6.795,6.261,7.781
1066,0.836,34.027,14.065,32.605,30.266,6.795,6.221,7.74
1067,0.846,34.094,14.122,32.605,30.262,6.755,6.22,7.74
1068,0.843,34.229,14.15,32.566,30.262,6.754,6.261,7.781
1069,0.853,34.355,14.146,32.595,30.266,6.754,6.262,7.7
1070,0.849,33.838,14.181,32.585,30.266,6.673,6.18,7.658
1071,0.859,33.91,14.189,32.595,30.269,6.794,6.179,7.617
1072,0.859,34.083,14.151,32.566,30.262,6.795,6.179,7.617
1073,0.846,34.2,14.174,32.566,30.269,6.877,6.261,7.657
1074,0.849,33.971,14.178,32.585,30.266,6.918,6.221,7.658
1075,0.849,34.113,14.209,32.585,30.276,6.878,6.342,7.658
1076,0.846,34.267,14.217,32.595,30.269,7.04,6.303,7.78
1077,0.843,34.365,14.155,32.605,30.276,7.082,6.343,7.822
1078,0.853,34.385,14.174,32.614,30.283,7.123,6.425,7.781
1079,0.849,34.558,14.045,32.662,30.29,7.124,6.426,7.74
1080,0.853,34.694,14.176,32.624,30.294,7.165,6.426,7.699
1081,0.853,34.743,14.209,32.624,30.283,7.084,6.344,7.74
1082,0.856,34.053,14.162,32.624,30.28,7.042,6.221,7.659
1083,0.843,34.209,14.142,32.634,30.276,7.001,6.302,7.658
1084,0.853,34.326,14.146,32.595,30.269,7.041,6.302,7.658
1085,0.849,34.346,14.17,32.595,30.269,7.001,6.343,7.617
1086,0.853,34.375,14.217,32.614,30.273,6.96,6.262,7.617
1087,0.856,34.51,14.186,32.595,30.276,7.0,6.343,7.657
1088,0.859,34.636,14.166,32.595,30.276,7.001,6.303,7.617
1089,0.859,34.647,14.17,32.605,30.28,7.082,6.302,7.698
1090,0.859,34.426,14.143,32.624,30.276,7.042,6.343,7.658
1091,0.879,34.568,14.189,32.595,30.269,7.001,6.343,7.536
1092,0.863,34.665,14.221,32.595,30.273,7.082,6.303,7.616
1093,0.866,34.618,14.12,32.605,30.269,7.083,6.302,7.657
1094,0.869,34.694,14.154,32.605,30.28,7.123,6.343,7.78
1095,0.859,34.829,14.15,32.624,30.276,7.083,6.343,7.7
1096,0.853,34.927,14.197,32.605,30.273,7.164,6.425,7.74
1097,0.849,34.65,14.131,32.614,30.28,7.124,6.344,7.781
1098,0.866,34.781,14.142,32.614,30.273,7.124,6.343,7.781
1099,0.849,34.897,14.189,32.595,30.276,7.083,6.303,7.781
1100,0.862,35.014,14.19,32.595,30.273,7.042,6.262,7.74
1101,0.856,34.929,14.162,32.576,30.266,7.042,6.221,7.74
1102,0.856,35.043,14.17,32.585,30.266,7.001,6.22,7.699
1103,0.856,35.159,14.182,32.576,30.262,6.96,6.18,7.821
1104,0.856,35.237,14.115,32.595,30.266,7.082,6.261,7.822
1105,0.869,34.988,14.169,32.585,30.273,7.083,6.262,7.822
1106,0.879,35.149,14.143,32.595,30.276,7.083,6.262,7.822
1107,0.866,35.265,14.181,32.605,30.269,7.042,6.221,7.822
1108,0.866,35.343,14.182,32.605,30.273,7.123,6.261,7.822
1109,0.879,35.747,14.17,32.605,30.276,7.083,6.221,7.822
1110,0.882,35.866,14.146,32.614,30.269,7.083,6.18,7.863
1111,0.872,35.992,14.158,32.586,30.269,7.123,6.261,7.822
1112,0.892,36.041,14.181,32.576,30.273,7.043,6.221,7.822
1113,0.892,35.207,14.213,32.585,30.266,7.001,6.22,7.781
1114,0.879,35.333,14.201,32.595,30.269,7.001,6.22,7.781
1115,0.869,35.469,14.119,32.585,30.262,7.001,6.22,7.822
1116,0.863,35.48,14.122,32.605,30.266,6.96,6.22,7.741
1117,0.856,35.815,14.169,32.586,30.266,6.919,6.22,7.74
1118,0.853,35.924,14.127,32.585,30.269,6.796,6.139,7.74
1119,0.856,36.05,14.142,32.585,30.269,6.795,6.26,7.74
1120,0.856,35.879,14.193,32.585,30.276,6.795,6.221,7.74
1121,0.856,35.762,14.139,32.605,30.269,6.877,6.261,7.862
1122,0.849,35.895,14.134,32.605,30.273,6.918,6.302,7.944
1123,0.853,36.011,14.15,32.595,30.276,6.919,6.302,8.067
1124,0.866,36.128,14.201,32.614,30.276,6.919,6.384,8.191
1125,0.882,36.263,14.217,32.605,30.28,6.878,6.466,8.232
1126,0.889,36.399,14.17,32.624,30.28,6.918,6.548,8.273
1127,0.902,36.505,14.201,32.653,30.283,6.878,6.427,8.314
1128,0.899,36.18,14.225,32.624,30.283,6.877,6.466,8.356
1129,0.892,36.331,14.19,32.634,30.28,6.796,6.386,8.315
1130,0.902,36.457,14.17,32.615,30.266,6.795,6.385,8.315
1131,0.912,36.525,14.197,32.595,30.273,6.673,6.344,8.315
1132,0.908,36.411,14.108,32.614,30.273,6.713,6.384,8.356
1133,0.908,36.553,14.115,32.614,30.276,6.672,6.425,8.356
1134,0.902,36.68,14.161,32.595,30.273,6.672,6.466,8.356
1135,0.899,36.757,14.209,32.595,30.266,6.713,6.426,8.315
1136,0.895,36.634,14.221,32.614,30.273,6.672,6.385,8.274
1137,0.895,36.767,14.186,32.624,30.269,6.631,6.466,8.355
1138,0.899,36.893,14.182,32.605,30.276,6.672,6.426,8.397
1139,0.889,36.942,14.143,32.605,30.28,6.631,6.466,8.316
1140,0.899,36.77,14.15,32.595,30.276,6.59,6.426,8.437
1141,0.902,36.921,14.197,32.624,30.276,6.631,6.344,8.438
1142,0.902,37.028,14.201,32.624,30.283,6.631,6.466,8.519
1143,0.886,37.058,14.116,32.634,30.276,6.631,6.426,8.479
1144,0.898,36.934,14.126,32.615,30.273,6.631,6.426,8.438
1145,0.908,37.067,14.142,32.614,30.276,6.631,6.466,8.397
1146,0.908,37.174,14.22,32.605,30.266,6.59,6.426,8.397
1147,0.908,37.232,14.205,32.624,30.269,6.509,6.304,8.356
1148,0.908,37.137,14.147,32.586,30.266,6.467,6.302,8.356
1149,0.905,37.251,14.205,32.566,30.269,6.345,6.343,8.356
1150,0.905,37.348,14.162,32.566,30.262,6.506,6.221,8.437
1151,0.928,37.033,14.142,32.576,30.262,6.467,6.302,8.397
1152,0.922,37.135,14.197,32.576,30.269,6.467,6.384,8.438
1153,0.931,37.251,14.178,32.614,30.273,6.467,6.425,8.397
1154,0.931,37.358,14.15,32.605,30.269,6.507,6.385,8.356
1155,0.931,37.263,14.15,32.614,30.273,6.467,6.425,8.315
1156,0.935,37.425,14.162,32.614,30.273,6.467,6.385,8.356
1157,0.918,37.542,14.193,32.605,30.273,6.467,6.344,8.315
1158,0.905,37.62,14.158,32.595,30.273,6.467,6.425,8.356
1159,0.918,37.381,14.174,32.595,30.276,6.386,6.385,8.356
1160,0.918,37.522,14.135,32.585,30.269,6.425,6.466,8.315
1161,0.925,37.658,14.127,32.605,30.266,6.385,6.426,8.315
1162,0.922,37.736,14.189,32.605,30.266,6.385,6.304,8.274
1163,0.918,37.353,14.213,32.605,30.266,6.303,6.384,8.274
1164,0.922,37.503,14.17,32.595,30.269,6.302,6.385,8.233
1165,0.915,37.619,14.096,32.595,30.266,6.302,6.385,8.192
1166,0.918,37.668,14.161,32.585,30.262,6.302,6.425,8.151
1167,0.931,38.014,14.178,32.585,30.273,6.221,6.385,8.232
1168,0.944,38.161,14.15,32.595,30.266,6.302,6.425,8.192
1169,0.964,38.278,14.146,32.605,30.269,6.302,6.507,8.232
1170,0.958,38.279,14.209,32.605,30.276,6.384,6.508,8.273
1171,0.964,37.263,14.131,32.624,30.283,6.344,6.549,8.274
1172,0.974,37.444,14.166,32.643,30.283,6.384,6.549,8.152
1173,0.99,37.551,14.201,32.643,30.294,6.425,6.59,8.11
1174,0.971,37.907,14.24,32.634,30.283,6.344,6.59,8.15
1175,0.964,37.757,14.206,32.624,30.283,6.343,6.468,8.069
1176,0.971,37.89,14.116,32.614,30.28,6.221,6.467,7.987
1177,0.951,37.997,14.115,32.605,30.276,6.22,6.467,7.946
1178,0.948,37.662,14.173,32.595,30.276,6.18,6.386,7.905
1179,0.945,37.678,14.162,32.595,30.273,6.22,6.507,7.823
1180,0.948,37.813,14.127,32.605,30.269,6.139,6.427,7.822
1181,0.938,37.891,14.177,32.586,30.273,6.219,6.466,7.822
1182,0.958,37.681,14.119,32.614,30.276,6.22,6.467,7.781
1183,0.961,37.813,14.138,32.605,30.273,6.139,6.467,7.822
1184,0.977,37.939,14.17,32.614,30.276,6.219,6.507,7.7
1185,0.99,37.997,14.228,32.614,30.269,6.18,6.467,7.78
1186,0.994,37.576,14.217,32.595,30.269,6.139,6.467,7.7
1187,1.0,37.716,14.186,32.624,30.273,6.179,6.507,7.699
1188,1.004,37.851,14.213,32.614,30.269,6.22,6.467,7.658
1189,1.0,37.92,14.108,32.624,30.276,6.22,6.426,7.658
1190,1.0,37.748,14.161,32.614,30.276,6.302,6.548,7.658
1191,1.013,37.852,14.197,32.605,30.273,6.262,6.427,7.617
1192,1.004,37.977,14.182,32.605,30.273,6.302,6.548,7.617
1193,1.01,38.065,14.147,32.614,30.276,6.343,6.386,7.535
1194,0.991,37.644,14.185,32.605,30.28,6.303,6.466,7.616
1195,0.984,37.793,14.186,32.614,30.273,6.262,6.386,7.495
1196,0.974,37.919,14.205,32.605,30.269,6.302,6.385,7.453
1197,0.984,37.949,14.162,32.605,30.273,6.262,6.303,7.412
1198,0.991,37.825,14.139,32.586,30.262,6.221,6.302,7.289
1199,0.978,37.958,14.146,32.595,30.262,6.22,6.302,7.369
1200,0.977,38.065,14.138,32.585,30.259,6.22,6.302,7.33
1201,0.971,38.133,14.173,32.566,30.262,6.302,6.384,7.41
1202,0.964,37.741,14.201,32.585,30.266,6.384,6.425,7.33
1203,0.961,37.871,14.155,32.605,30.273,6.425,6.385,7.37
1204,0.971,38.026,14.15,32.624,30.269,6.385,6.344,7.411
1205,0.974,37.768,14.135,32.605,30.273,6.344,6.343,7.289
1206,0.977,37.785,14.193,32.605,30.269,6.384,6.343,7.207
1207,0.974,37.919,14.053,32.624,30.276,6.385,6.343,7.247
1208,0.968,38.026,14.141,32.605,30.269,6.344,6.303,7.288
1209,0.958,37.73,14.209,32.595,30.269,6.343,6.343,7.207
1210,0.951,37.852,14.166,32.595,30.269,6.384,6.303,7.287
1211,0.967,37.987,14.135,32.585,30.266,6.425,6.302,7.125
1212,0.968,38.056,14.201,32.595,30.266,6.426,6.302,7.124
1213,0.951,37.74,14.186,32.585,30.266,6.385,6.302,7.083
1214,0.951,37.871,14.065,32.605,30.269,6.466,6.302,7.164
1215,0.938,37.997,14.161,32.586,30.276,6.426,6.343,7.124
1216,0.928,38.084,14.146,32.595,30.269,6.466,6.384,7.165
1217,0.915,37.682,14.216,32.585,30.269,6.548,6.425,7.165
1218,0.905,37.841,14.182,32.624,30.273,6.549,6.426,7.206
1219,0.905,37.987,14.189,32.624,30.28,6.59,6.548,7.287
1220,0.912,38.036,14.205,32.624,30.283,6.631,6.468,7.288
1221,0.905,37.922,14.17,32.643,30.283,6.631,6.386,7.207
1222,0.899,38.064,14.174,32.634,30.283,6.631,6.425,7.165
1223,0.908,38.181,14.213,32.615,30.283,6.59,6.385,7.124
1224,0.915,38.201,14.209,32.624,30.269,6.549,6.344,7.083
1225,0.909,37.741,14.143,32.605,30.283,6.549,6.303,7.083
1226,0.899,37.89,14.142,32.605,30.266,6.508,6.302,7.083
1227,0.902,38.007,14.123,32.605,30.273,6.589,6.384,7.123
1228,0.905,38.008,14.123,32.605,30.273,6.509,6.303,7.124
1229,0.905,37.758,14.158,32.624,30.269,6.549,6.384,7.083
1230,0.892,37.89,14.189,32.595,30.269,6.59,6.385,7.042
1231,0.892,37.987,14.166,32.585,30.28,6.509,6.303,7.082
1232,0.892,37.892,14.146,32.605,30.273,6.549,6.384,7.083
1233,0.899,37.853,14.154,32.605,30.269,6.508,6.385,7.083
1234,0.886,38.006,14.174,32.605,30.28,6.549,6.344,7.083
1235,0.872,38.104,14.225,32.624,30.276,6.549,6.343,7.042
1236,0.853,37.731,14.174,32.634,30.276,6.508,6.384,7.042
1237,0.849,37.871,14.104,32.624,30.276,6.508,6.344,7.123
1238,0.849,37.997,14.165,32.624,30.276,6.467,6.303,7.083
1239,0.849,38.104,14.158,32.634,30.276,6.467,6.343,7.042
1240,0.859,37.798,14.15,32.615,30.269,6.467,6.303,7.001
1241,0.843,37.919,14.216,32.605,30.269,6.386,6.302,6.96
1242,0.839,38.045,14.17,32.605,30.262,6.344,6.262,6.96
1243,0.83,38.114,14.15,32.595,30.269,6.303,6.221,6.96
1244,0.82,37.731,14.142,32.585,30.266,6.302,6.261,6.96
1245,0.833,37.852,14.173,32.585,30.266,6.302,6.302,7.082
1246,0.843,37.987,14.193,32.595,30.266,6.384,6.343,7.042
1247,0.849,38.056,14.151,32.605,30.273,6.344,6.343,7.123
1248,0.849,37.807,14.146,32.614,30.276,6.303,6.303,7.124
1249,0.849,37.948,14.158,32.605,30.276,6.343,6.302,7.083
1250,0.846,38.074,14.174,32.614,30.269,6.343,6.302,7.164
1251,0.846,38.104,14.166,32.586,30.262,6.343,6.262,7.084
1252,0.843,37.884,14.197,32.605,30.269,6.303,6.262,7.123
1253,0.853,38.006,14.127,32.605,30.273,6.262,6.302,7.124
1254,0.83,38.142,14.166,32.614,30.269,6.343,6.262,7.165
1255,0.82,38.163,14.111,32.605,30.266,6.303,6.302,7.165
1256,0.826,37.981,14.138,32.595,30.273,6.302,6.262,7.206
1257,0.83,38.084,14.158,32.605,30.273,6.221,6.262,7.125
1258,0.817,38.219,14.166,32.605,30.262,6.302,6.302,7.124
1259,0.794,38.039,14.178,32.605,30.273,6.302,6.262,7.124
1260,0.806,37.845,14.135,32.595,30.262,6.221,6.302,7.165
1261,0.8,37.997,14.134,32.605,30.269,6.261,6.302,7.287
1262,0.8,38.104,14.154,32.614,30.269,6.262,6.302,7.329
1263,0.8,37.922,14.213,32.634,30.276,6.343,6.384,7.329
1264,0.816,38.036,14.194,32.634,30.283,6.384,6.466,7.289
1265,0.836,38.181,14.108,32.662,30.287,6.425,6.507,7.288
1266,0.846,38.278,14.161,32.653,30.283,6.263,6.345,7.125
1267,0.84,37.953,14.193,32.634,30.276,6.302,6.384,7.246
1268,0.8,38.074,14.127,32.653,30.269,6.18,6.385,7.206
1269,0.816,38.191,14.138,32.596,30.273,6.261,6.344,7.328
1270,0.826,38.297,14.205,32.624,30.273,6.262,6.384,7.289
1271,0.839,37.896,14.135,32.624,30.28,6.221,6.344,7.288
1272,0.833,38.055,14.142,32.624,30.273,6.22,6.384,7.369
1273,0.846,38.152,14.17,32.634,30.283,6.22,6.425,7.37
1274,0.846,38.23,14.197,32.624,30.276,6.18,6.426,7.452
1275,0.827,38.106,14.166,32.614,30.276,6.179,6.426,7.534
1276,0.813,38.277,14.049,32.634,30.276,6.261,6.426,7.534
1277,0.807,38.384,14.149,32.643,30.28,6.262,6.385,7.494
1278,0.803,38.424,14.177,32.624,30.276,6.262,6.466,7.534
1279,0.807,38.05,14.174,32.653,30.28,6.221,6.467,7.616
1280,0.79,38.19,14.205,32.644,30.273,6.22,6.548,7.617
1281,0.78,38.297,14.182,32.634,30.276,6.18,6.427,7.657
1282,0.793,38.308,14.08,32.643,30.273,6.179,6.304,7.617
1283,0.8,38.155,14.114,32.624,30.273,6.098,6.262,7.576
1284,0.813,38.278,14.165,32.614,30.269,6.056,6.262,7.535
1285,0.813,38.365,14.201,32.624,30.262,6.015,6.302,7.575
1286,0.8,38.376,14.237,32.595,30.262,6.015,6.302,7.657
1287,0.803,38.107,14.151,32.614,30.266,6.056,6.343,7.658
1288,0.81,38.239,14.166,32.614,30.269,6.097,6.384,7.698
1289,0.826,38.346,14.123,32.634,30.273,6.138,6.344,7.618
1290,0.83,38.097,14.158,32.643,30.273,6.057,6.343,7.698
1291,0.83,38.152,14.197,32.615,30.269,6.097,6.303,7.618
1292,0.833,38.287,14.178,32.643,30.269,6.138,6.343,7.576
1293,0.843,38.375,14.158,32.691,30.269,6.138,6.343,7.616
1294,0.833,38.146,14.123,32.625,30.269,6.098,6.343,7.617
1295,0.81,38.287,14.177,32.643,30.273,6.097,6.384,7.617
1296,0.82,38.413,14.201,32.634,30.273,6.138,6.303,7.617
1297,0.817,38.482,14.139,32.634,30.269,6.179,6.302,7.698
1298,0.816,38.233,14.15,32.643,30.269,6.139,6.343,7.74
1299,0.8,38.355,14.201,32.643,30.262,6.098,6.303,7.659
1300,0.803,38.491,14.158,32.634,30.266,6.097,6.343,7.698
1301,0.79,38.55,14.139,32.634,30.269,6.138,6.303,7.74
1302,0.8,38.234,14.185,32.615,30.266,6.219,6.425,7.699
1303,0.794,38.394,14.147,32.643,30.269,6.261,6.385,7.78
1304,0.797,38.51,14.056,32.682,30.276,6.343,6.547,7.781
1305,0.826,38.579,14.177,32.663,30.283,6.384,6.63,7.944
1306,0.833,38.32,14.166,32.672,30.283,6.425,6.59,7.945
1307,0.839,38.442,14.213,32.682,30.283,6.466,6.59,7.864
1308,0.836,38.587,14.182,32.701,30.287,6.426,6.468,7.822
1309,0.836,38.608,14.201,32.663,30.28,6.385,6.426,7.781
1310,0.836,38.311,14.166,32.663,30.273,6.425,6.466,7.781
1311,0.836,38.452,14.166,32.653,30.273,6.426,6.467,7.781
1312,0.839,38.549,14.166,32.653,30.276,6.548,6.507,7.781
1313,0.833,38.876,14.213,32.653,30.28,6.508,6.63,7.781
1314,0.82,38.371,14.182,32.644,30.283,6.508,6.468,7.781
1315,0.813,38.539,14.108,32.643,30.273,6.589,6.548,7.74
1316,0.807,38.646,14.134,32.663,30.269,6.59,6.508,7.699
1317,0.81,38.311,14.115,32.663,30.276,6.631,6.549,7.74
1318,0.803,38.308,14.119,32.663,30.276,6.672,6.59,7.699
1319,0.794,38.452,14.134,32.644,30.266,6.713,6.549,7.699
1320,0.803,38.559,14.189,32.653,30.28,6.713,6.63,7.699
1321,0.826,38.493,14.17,32.663,30.276,6.713,6.509,7.78
1322,0.826,38.607,14.131,32.663,30.276,6.794,6.63,7.781
1323,0.804,38.733,14.138,32.672,30.28,6.795,6.631,7.7
1324,0.823,38.811,14.212,32.672,30.28,6.836,6.59,7.618
1325,0.826,38.265,14.213,32.672,30.276,6.796,6.59,7.617
1326,0.82,38.403,14.174,32.672,30.269,6.795,6.509,7.535
1327,0.82,38.52,14.135,32.663,30.273,6.795,6.467,7.494
1328,0.8,38.588,14.173,32.644,30.269,6.795,6.467,7.412
1329,0.816,38.522,14.154,32.653,30.266,6.714,6.507,7.452
1330,0.833,38.627,14.131,32.644,30.266,6.672,6.467,7.452
1331,0.836,38.733,14.193,32.624,30.266,6.753,6.507,7.452
1332,0.82,38.782,14.135,32.634,30.269,6.795,6.549,7.452
1333,0.839,38.322,14.138,32.662,30.276,6.795,6.508,7.574
1334,0.826,38.481,14.142,32.672,30.276,6.755,6.508,7.494
1335,0.817,38.588,14.17,32.663,30.269,6.795,6.508,7.453
1336,0.82,38.627,14.201,32.644,30.269,6.755,6.589,7.452
1337,0.82,38.493,14.155,32.672,30.269,6.754,6.549,7.534
1338,0.826,38.636,14.127,32.653,30.269,6.754,6.59,7.453
1339,0.813,38.743,14.146,32.672,30.269,6.673,6.509,7.452
1340,0.816,38.753,14.162,32.663,30.273,6.713,6.549,7.412
1341,0.816,38.485,14.166,32.644,30.269,6.713,6.508,7.411
1342,0.81,38.597,14.209,32.653,30.266,6.632,6.508,7.411
1343,0.8,38.723,14.174,32.663,30.269,6.631,6.508,7.371
1344,0.816,38.494,14.178,32.672,30.269,6.55,6.589,7.411
1345,0.813,38.473,14.135,32.644,30.262,6.59,6.549,7.411
1346,0.826,38.597,14.193,32.663,30.269,6.59,6.59,7.452
1347,0.826,38.694,14.158,32.653,30.266,6.631,6.59,7.412
1348,0.82,38.408,14.123,32.682,30.276,6.631,6.712,7.574
1349,0.83,38.51,14.181,32.682,30.269,6.672,6.713,7.616
1350,0.826,38.646,14.135,32.701,30.283,6.753,6.794,7.617
1351,0.836,38.752,14.146,32.721,30.283,6.673,6.795,7.576
1352,0.839,38.332,14.181,32.721,30.29,6.713,6.795,7.616
1353,0.856,38.49,14.217,32.721,30.287,6.672,6.714,7.657
1354,0.856,38.598,14.163,32.711,30.28,6.631,6.632,7.658
1355,0.84,38.675,14.139,32.711,30.276,6.631,6.712,7.698
1356,0.826,38.35,14.146,32.692,30.269,6.631,6.672,7.78
1357,0.82,38.471,14.138,32.682,30.276,6.59,6.631,7.862
1358,0.817,38.578,14.049,32.692,30.273,6.631,6.631,7.822
1359,0.81,38.656,14.106,32.692,30.276,6.631,6.631,7.944
1360,0.81,38.264,14.189,32.711,30.269,6.672,6.55,7.986
1361,0.8,38.403,14.119,32.711,30.273,6.672,6.63,8.108
1362,0.803,38.51,14.158,32.692,30.273,6.672,6.631,8.109
1363,0.807,38.588,14.166,32.711,30.28,6.672,6.631,8.15
1364,0.807,38.311,14.193,32.702,30.276,6.672,6.712,8.069
1365,0.816,38.433,14.205,32.692,30.276,6.713,6.632,8.069
1366,0.813,38.53,14.119,32.701,30.276,6.672,6.672,8.109
1367,0.826,38.569,14.146,32.711,30.273,6.672,6.631,8.109
1368,0.833,38.263,14.174,32.721,30.28,6.713,6.712,8.109
1369,0.846,38.375,14.166,32.73,30.28,6.672,6.672,8.191
1370,0.853,38.481,14.139,32.74,30.28,6.672,6.631,8.07
1371,0.872,38.291,14.201,32.721,30.28,6.672,6.631,8.028
1372,0.859,38.202,14.135,32.74,30.269,6.631,6.55,7.987
1373,0.856,38.326,14.127,32.721,30.273,6.55,6.549,7.946
1374,0.846,38.433,14.138,32.711,30.262,6.549,6.508,7.945
1375,0.817,38.137,14.197,32.702,30.262,6.549,6.467,7.905
1376,0.807,38.22,14.162,32.682,30.262,6.508,6.507,7.863
1377,0.787,38.345,14.123,32.701,30.262,6.589,6.508,7.904
1378,0.816,38.452,14.173,32.701,30.262,6.631,6.589,7.945
1379,0.82,37.974,14.123,32.721,30.273,6.712,6.59,7.945
1380,0.823,38.103,14.142,32.74,30.273,6.713,6.509,7.864
1381,0.82,38.239,14.185,32.721,30.269,6.713,6.63,7.944
1382,0.836,38.317,14.182,32.74,30.269,6.754,6.509,7.945
1383,0.82,38.04,14.088,32.74,30.273,6.673,6.589,7.945
1384,0.833,38.161,14.122,32.74,30.273,6.713,6.509,7.905
1385,0.826,38.297,14.15,32.74,30.266,6.794,6.467,7.863
1386,0.83,38.356,14.193,32.711,30.273,6.755,6.467,7.863
1387,0.839,37.992,14.17,32.74,30.266,6.795,6.467,7.863
1388,0.846,38.132,14.17,32.731,30.273,6.755,6.426,7.863
1389,0.853,38.258,14.17,32.731,30.266,6.673,6.466,7.863
1390,0.853,38.288,14.154,32.74,30.269,6.794,6.426,7.782
1391,0.859,38.011,14.146,32.731,30.262,6.714,6.385,7.822
1392,0.853,38.142,14.174,32.74,30.262,6.713,6.385,7.822
1393,0.849,38.268,14.15,32.731,30.266,6.754,6.466,7.781
1394,0.833,38.298,14.138,32.74,30.276,6.795,6.467,7.903
1395,0.826,38.222,14.134,32.769,30.276,6.877,6.629,7.904
1396,0.826,38.355,14.138,32.779,30.276,6.877,6.631,7.904
1397,0.82,38.462,14.267,32.789,30.287,6.918,6.59,7.945
1398,0.826,38.271,14.159,32.798,30.29,6.878,6.671,7.864
1399,0.826,37.943,14.189,32.798,30.283,6.877,6.631,7.782
1400,0.83,38.074,14.174,32.798,30.29,6.796,6.509,7.781
1401,0.817,38.181,14.162,32.779,30.28,6.714,6.467,7.781
1402,0.813,37.837,14.15,32.769,30.28,6.632,6.467,7.781
1403,0.82,37.92,14.213,32.769,30.276,6.631,6.507,7.781
1404,0.817,38.036,14.205,32.798,30.283,6.672,6.508,7.781
1405,0.823,38.123,14.112,32.798,30.283,6.631,6.467,7.74
1406,0.836,37.731,14.138,32.798,30.273,6.55,6.467,7.781
1407,0.83,37.852,14.134,32.789,30.273,6.549,6.507,7.781
1408,0.826,37.977,14.115,32.789,30.276,6.59,6.467,7.822
1409,0.836,38.065,14.134,32.798,30.269,6.549,6.426,7.741
1410,0.833,37.807,14.181,32.798,30.276,6.508,6.466,7.74
1411,0.833,37.948,14.135,32.789,30.273,6.549,6.467,7.699
1412,0.846,38.084,14.142,32.798,30.276,6.508,6.467,7.699
1413,0.853,38.143,14.154,32.789,30.273,6.467,6.426,7.618
1414,0.84,37.779,14.205,32.808,30.276,6.548,6.466,7.657
1415,0.836,37.89,14.194,32.818,30.269,6.427,6.467,7.617
1416,0.826,38.026,14.127,32.818,30.276,6.426,6.345,7.617
1417,0.813,38.075,14.107,32.808,30.273,6.344,6.425,7.576
1418,0.826,37.682,14.197,32.798,30.269,6.343,6.344,7.454
1419,0.804,37.822,14.162,32.808,30.262,6.303,6.303,7.452
1420,0.803,37.958,14.123,32.798,30.266,6.302,6.302,7.452
1421,0.79,37.95,14.165,32.789,30.266,6.221,6.384,7.574
1422,0.797,37.719,14.119,32.798,30.269,6.302,6.385,7.575
1423,0.79,37.871,14.138,32.817,30.269,6.302,6.344,7.494
1424,0.81,37.997,14.131,32.808,30.269,6.221,6.384,7.494
1425,0.82,38.065,14.193,32.818,30.269,6.261,6.385,7.494
1426,0.826,37.644,14.236,32.827,30.269,6.221,6.344,7.412
1427,0.839,37.803,14.171,32.818,30.273,6.22,6.384,7.411
1428,0.849,37.91,14.189,32.827,30.269,6.18,6.344,7.411
1429,0.846,37.7,14.147,32.827,30.273,6.179,6.384,7.371
1430,0.84,37.794,14.15,32.818,30.273,6.179,6.385,7.37
1431,0.833,37.91,14.162,32.818,30.269,6.179,6.303,7.37
1432,0.83,37.997,14.181,32.837,30.266,6.098,6.343,7.248
1433,0.817,37.643,14.08,32.818,30.269,6.138,6.303,7.247
1434,0.813,37.755,14.118,32.827,30.269,6.138,6.302,7.328
1435,0.807,37.871,14.119,32.837,30.262,6.138,6.262,7.289
1436,0.807,37.958,14.134,32.827,30.266,6.016,6.302,7.288
1437,0.794,37.576,14.068,32.846,30.266,6.096,6.384,7.288
1438,0.813,37.716,14.122,32.856,30.276,6.138,6.385,7.369
1439,0.82,37.842,14.154,32.866,30.28,6.179,6.466,7.411
1440,0.813,37.939,14.119,32.876,30.283,6.179,6.548,7.371
1441,0.807,37.691,14.146,32.895,30.283,6.342,6.468,7.37
1442,0.807,37.851,14.205,32.914,30.283,6.262,6.467,7.33
1443,0.807,37.949,14.19,32.895,30.28,6.302,6.426,7.329
1444,0.813,38.007,14.174,32.905,30.276,6.343,6.304,7.207
1445,0.82,37.691,14.158,32.866,30.269,6.384,6.343,7.206
1446,0.803,37.813,14.17,32.866,30.273,6.425,6.384,7.247
1447,0.803,37.92,14.185,32.876,30.276,6.466,6.385,7.206
1448,0.807,37.969,14.19,32.914,30.276,6.548,6.344,7.206
1449,0.813,37.662,14.151,32.876,30.276,6.63,6.425,7.247
1450,0.816,37.793,14.193,32.895,30.269,6.631,6.426,7.288
1451,0.826,37.929,14.178,32.924,30.273,6.672,6.385,7.166
1452,0.826,38.237,14.123,32.895,30.28,6.753,6.385,7.246
1453,0.826,37.732,14.165,32.905,30.276,6.754,6.385,7.247
1454,0.817,37.861,14.213,32.895,30.276,6.795,6.425,7.247
1455,0.813,37.978,14.198,32.905,30.276,6.795,6.385,7.247
1456,0.81,37.701,14.061,32.924,30.273,6.917,6.425,7.288
1457,0.8,37.707,14.204,32.915,30.276,6.878,6.385,7.125
1458,0.797,37.842,14.178,32.924,30.276,6.837,6.425,7.246
1459,0.797,37.968,14.135,32.905,30.283,6.837,6.426,7.166
1460,0.8,37.605,14.162,32.905,30.28,6.837,6.344,7.124
1461,0.794,37.726,14.185,32.934,30.276,6.918,6.303,7.165
1462,0.787,37.88,14.15,32.953,30.273,6.878,6.384,7.124
1463,0.79,37.949,14.115,32.924,30.269,6.837,6.222,7.083
1464,0.79,37.652,14.161,32.934,30.269,6.796,6.22,7.042
1465,0.803,37.774,14.217,32.924,30.269,6.673,6.22,7.042
1466,0.8,37.871,14.186,32.915,30.269,6.672,6.22,7.042
1467,0.79,37.958,14.154,32.905,30.262,6.794,6.22,7.123
1468,0.797,37.633,14.181,32.914,30.269,6.795,6.302,7.287
1469,0.797,37.793,14.119,32.953,30.276,6.877,6.384,7.207
1470,0.794,37.929,14.15,32.944,30.269,6.837,6.303,7.206
1471,0.819,37.978,14.185,32.934,30.269,6.877,6.262,7.165
1472,0.817,37.538,14.147,32.924,30.273,6.877,6.302,7.206
1473,0.826,37.687,14.138,32.943,30.273,6.877,6.343,7.165
1474,0.81,37.813,14.127,32.953,30.283,6.877,6.262,7.287
1475,0.81,37.852,14.15,32.972,30.273,6.837,6.302,7.207
1476,0.816,37.766,14.189,32.953,30.273,6.877,6.343,7.287
1477,0.787,37.909,14.131,33.02,30.273,6.877,6.303,7.288
1478,0.797,38.007,14.127,32.963,30.269,6.877,6.221,7.247
1479,0.777,38.008,14.166,32.963,30.273,6.796,6.302,7.206
1480,0.784,37.538,14.135,32.963,30.266,6.714,6.302,7.247
1481,0.774,37.658,14.142,32.972,30.269,6.754,6.262,7.328
1482,0.784,37.755,14.193,32.963,30.262,6.754,6.343,7.37
1483,0.777,37.708,14.186,32.963,30.273,6.754,6.303,7.37
1484,0.777,37.784,14.061,32.972,30.266,6.795,6.262,7.411
1485,0.787,37.89,14.106,32.973,30.273,6.795,6.384,7.452
1486,0.79,38.007,14.126,32.982,30.273,6.836,6.466,7.534
1487,0.8,37.5,14.201,32.992,30.283,6.837,6.467,7.616
1488,0.813,37.638,14.151,33.001,30.287,6.877,6.467,7.617
1489,0.807,37.774,14.193,33.03,30.287,6.918,6.507,7.617
1490,0.81,37.852,14.186,33.04,30.29,6.837,6.467,7.535
1491,0.842,37.479,14.178,33.021,30.283,6.796,6.426,7.494
1492,0.83,37.6,14.186,33.011,30.276,6.795,6.344,7.494
1493,0.833,37.706,14.217,33.011,30.266,6.714,6.303,7.453
1494,0.81,37.784,14.147,33.011,30.276,6.754,6.425,7.452
1495,0.797,37.584,14.099,33.021,30.28,6.754,6.466,7.615
1496,0.8,37.754,14.107,33.031,30.273,6.714,6.426,7.495
1497,0.794,37.871,14.189,33.002,30.276,6.754,6.466,7.534
1498,0.787,37.93,14.096,33.021,30.276,6.795,6.426,7.575
1499,0.777,37.528,14.134,33.031,30.28,6.836,6.426,7.454
1500,0.78,37.677,14.181,33.031,30.276,6.918,6.385,7.493
1501,0.793,37.774,14.104,33.05,30.269,6.919,6.466,7.616
1502,0.78,37.833,14.161,33.04,30.276,6.919,6.467,7.617
1503,0.79,37.565,14.17,33.04,30.28,6.959,6.467,7.657
1504,0.797,37.706,14.221,33.05,30.276,6.96,6.548,7.617
1505,0.787,37.823,14.202,33.05,30.283,7.041,6.468,7.617
1506,0.793,37.824,14.123,33.06,30.276,7.042,6.507,7.617
1507,0.81,37.498,14.087,33.05,30.276,7.001,6.467,7.495
1508,0.807,37.638,14.15,33.05,30.269,7.082,6.426,7.534
1509,0.794,37.745,14.15,33.05,30.273,7.002,6.344,7.453
1510,0.806,37.602,14.135,33.031,30.269,6.96,6.343,7.371
1511,0.82,37.486,14.138,33.011,30.262,6.96,6.384,7.452
1512,0.8,37.619,14.068,33.04,30.262,6.838,6.385,7.534
1513,0.8,37.716,14.114,33.04,30.269,6.999,6.425,7.534
1514,0.807,37.42,14.126,33.05,30.276,7.041,6.548,7.494
1515,0.781,37.522,14.205,33.06,30.273,6.96,6.427,7.534
1516,0.803,37.667,14.186,33.06,30.276,7.0,6.507,7.534
1517,0.79,37.755,14.166,33.05,30.283,7.001,6.427,7.494
1518,0.787,37.353,14.162,33.069,30.273,6.96,6.507,7.534
1519,0.774,37.503,14.096,33.069,30.269,6.878,6.427,7.453
1520,0.784,37.638,14.15,33.069,30.269,6.959,6.466,7.534
1521,0.79,37.716,14.205,33.069,30.269,6.878,6.426,7.412
1522,0.79,37.391,14.178,33.079,30.273,6.837,6.426,7.411
1523,0.777,37.56,14.15,33.098,30.266,6.796,6.385,7.371
1524,0.787,37.687,14.162,33.079,30.273,6.836,6.344,7.452
1525,0.793,37.746,14.146,33.069,30.273,6.714,6.384,7.371
1526,0.797,37.391,14.197,33.06,30.269,6.754,6.425,7.37
1527,0.797,37.551,14.151,33.069,30.269,6.754,6.426,7.411
1528,0.787,37.658,14.166,33.06,30.269,6.795,6.426,7.411
1529,0.8,37.688,14.166,33.088,30.266,6.714,6.385,7.452
1530,0.8,37.257,14.158,33.089,30.269,6.754,6.466,7.452
1531,0.8,37.386,14.158,33.089,30.28,6.795,6.467,7.452
1532,0.807,37.522,14.197,33.108,30.283,6.877,6.548,7.534
1533,0.81,37.562,14.073,33.127,30.29,6.918,6.549,7.534
1534,0.8,37.466,14.173,33.147,30.283,6.878,6.508,7.412
1535,0.826,37.59,14.135,33.118,30.276,6.715,6.427,7.452
1536,0.823,37.687,14.197,33.089,30.273,6.713,6.385,7.371
1537,0.791,37.631,14.123,33.117,30.276,6.794,6.385,7.452
1538,0.793,37.438,14.146,33.118,30.273,6.755,6.425,7.452
1539,0.79,37.58,14.205,33.108,30.266,6.714,6.426,7.412
1540,0.78,37.677,14.092,33.127,30.269,6.754,6.385,7.452
1541,0.787,37.333,14.107,33.127,30.273,6.795,6.385,7.452
1542,0.777,37.378,14.146,33.137,30.269,6.714,6.385,7.452
1543,0.78,37.512,14.189,33.127,30.276,6.672,6.425,7.534
1544,0.787,37.61,14.08,33.137,30.273,6.713,6.426,7.412
1545,0.787,37.141,14.146,33.137,30.276,6.672,6.426,7.533
1546,0.793,37.251,14.154,33.147,30.276,6.672,6.426,7.534
1547,0.803,37.367,14.205,33.128,30.28,6.631,6.385,7.494
1548,0.807,37.445,14.17,33.147,30.28,6.672,6.385,7.616
1549,0.79,37.11,14.162,33.147,30.28,6.631,6.466,7.576
1550,0.806,37.26,14.174,33.156,30.276,6.631,6.386,7.657
1551,0.816,37.396,14.143,33.147,30.276,6.59,6.466,7.576
1552,0.816,37.474,14.142,33.137,30.28,6.59,6.386,7.616
1553,0.8,37.168,14.177,33.137,30.283,6.631,6.425,7.495
1554,0.803,37.328,14.197,33.156,30.28,6.59,6.344,7.616
1555,0.797,37.426,14.139,33.147,30.273,6.549,6.384,7.535
1556,0.79,37.494,14.15,33.147,30.266,6.468,6.263,7.616
1557,0.774,37.101,14.123,33.137,30.259,6.386,6.221,7.617
1558,0.771,37.212,14.142,33.127,30.266,6.344,6.261,7.698
1559,0.77,37.348,14.134,33.127,30.262,6.343,6.221,7.699
1560,0.774,37.378,14.15,33.137,30.269,6.343,6.302,7.902
1561,0.78,37.138,14.15,33.156,30.276,6.466,6.302,7.945
1562,0.758,37.309,14.138,33.147,30.266,6.304,6.262,8.026
1563,0.767,37.435,14.123,33.166,30.269,6.343,6.302,8.027
1564,0.78,37.561,14.193,33.147,30.276,6.384,6.343,7.987
1565,0.777,37.073,14.178,33.166,30.273,6.344,6.221,8.027
1566,0.797,37.202,14.143,33.157,30.269,6.384,6.261,8.027
1567,0.797,37.319,14.119,33.156,30.273,6.385,6.262,8.027
1568,0.794,37.042,14.173,33.166,30.273,6.385,6.221,8.027
1569,0.803,37.106,14.158,33.176,30.273,6.263,6.261,8.027
1570,0.803,37.222,14.135,33.157,30.266,6.302,6.302,8.068
1571,0.803,37.319,14.162,33.156,30.273,6.302,6.221,8.028
1572,0.797,36.917,14.057,33.166,30.262,6.343,6.139,8.027
1573,0.8,37.047,14.102,33.166,30.269,6.303,6.219,8.068
1574,0.8,37.193,14.107,33.166,30.269,6.262,6.22,8.109
1575,0.781,37.271,14.197,33.185,30.262,6.384,6.22,8.15
1576,0.774,36.926,14.186,33.166,30.269,6.385,6.261,8.191
1577,0.767,37.076,14.158,33.224,30.28,6.385,6.343,8.232
1578,0.774,37.183,14.178,33.205,30.283,6.344,6.343,8.273
1579,0.78,37.309,14.154,33.234,30.283,6.425,6.425,8.274
1580,0.787,37.013,14.17,33.234,30.283,6.466,6.344,8.193
1581,0.774,37.173,14.213,33.234,30.28,6.386,6.303,8.11
1582,0.787,37.29,14.182,33.234,30.276,6.263,6.221,8.069
1583,0.793,37.339,14.158,33.215,30.269,6.262,6.22,8.069
1584,0.797,36.831,14.146,33.205,30.28,6.221,6.22,8.109
1585,0.797,36.96,14.134,33.234,30.276,6.22,6.22,8.069
1586,0.803,37.048,14.169,33.224,30.276,6.22,6.261,8.069
1587,0.797,37.106,14.15,33.234,30.273,6.18,6.221,8.069
1588,0.797,36.858,14.131,33.215,30.273,6.179,6.302,8.028
1589,0.803,37.018,14.115,33.215,30.273,6.139,6.262,7.987
1590,0.82,37.116,14.122,33.243,30.269,6.26,6.302,7.986
1591,0.81,37.376,14.158,33.215,30.276,6.139,6.221,8.027
1592,0.787,36.851,14.166,33.205,30.273,6.179,6.22,8.027
1593,0.8,36.999,14.146,33.243,30.273,6.057,6.261,8.109
1594,0.787,37.096,14.166,33.224,30.28,6.178,6.262,8.028
1595,0.78,36.915,14.142,33.243,30.276,6.179,6.262,7.987
1596,0.8,36.942,14.216,33.244,30.276,6.179,6.262,7.986
1597,0.787,37.086,14.123,33.244,30.273,6.139,6.302,8.027
1598,0.774,37.183,14.134,33.244,30.28,6.138,6.343,7.946
1599,0.774,37.127,14.169,33.263,30.276,6.219,6.221,7.864
1600,0.78,37.28,14.166,33.253,30.273,6.098,6.18,7.822
1601,0.78,37.377,14.154,33.253,30.276,5.975,6.179,7.781
1602,0.78,37.474,14.205,33.224,30.269,6.015,6.139,7.822
1603,0.767,36.564,14.155,33.215,30.262,5.974,6.057,7.781
1604,0.767,36.699,14.115,33.224,30.276,6.015,6.219,7.822
1605,0.774,36.815,14.115,33.234,30.266,6.015,6.22,7.781
1606,0.774,36.912,14.134,33.253,30.273,6.056,6.261,7.822
1607,0.8,36.712,14.084,33.253,30.276,6.015,6.221,7.781
1608,0.79,36.873,14.118,33.253,30.28,6.056,6.139,7.781
1609,0.793,37.009,14.154,33.272,30.276,6.056,6.138,7.74
1610,0.813,37.087,14.15,33.311,30.273,6.056,6.179,7.74
1611,0.813,36.646,14.111,33.244,30.269,6.015,6.139,7.699
1612,0.8,36.805,14.177,33.244,30.273,6.015,6.219,7.699
1613,0.807,36.903,14.193,33.282,30.276,6.015,6.139,7.618
1614,0.787,36.971,14.123,33.273,30.269,5.974,6.138,7.698
1615,0.79,36.578,14.162,33.263,30.269,6.015,6.179,7.618
1616,0.787,36.708,14.15,33.263,30.269,5.974,6.179,7.617
1617,0.777,36.834,14.193,33.244,30.269,5.974,6.179,7.535
1618,0.777,36.855,14.154,33.272,30.269,5.893,6.139,7.575
1619,0.761,36.567,14.127,33.253,30.276,5.973,6.138,7.575
1620,0.783,36.689,14.177,33.253,30.276,5.974,6.179,7.616
1621,0.787,36.825,14.154,33.282,30.266,6.015,6.22,7.698
1622,0.784,36.74,14.135,33.292,30.28,6.096,6.261,7.78
1623,0.79,36.72,14.162,33.302,30.276,6.178,6.302,7.781
1624,0.8,36.873,14.181,33.292,30.283,6.139,6.343,7.862
1625,0.79,36.99,14.104,33.34,30.283,6.138,6.343,7.863
1626,0.8,36.53,14.15,33.321,30.29,6.098,6.262,7.822
1627,0.81,36.641,14.15,33.331,30.283,6.138,6.262,7.741
1628,0.8,36.748,14.088,33.331,30.28,6.016,6.221,7.781
1629,0.813,36.854,14.126,33.302,30.276,6.015,6.18,7.822
1630,0.81,36.472,14.177,33.292,30.273,6.056,6.22,7.822
1631,0.81,36.602,14.135,33.302,30.273,5.975,6.18,7.822
1632,0.803,36.738,14.123,33.321,30.273,5.974,6.139,7.863
1633,0.807,36.835,14.142,33.302,30.273,6.015,6.219,7.944
1634,0.81,37.104,14.185,33.292,30.276,6.056,6.18,7.986
1635,0.787,37.232,14.186,33.311,30.276,6.056,6.22,7.986
1636,0.784,37.377,14.104,33.33,30.276,6.015,6.261,8.027
1637,0.787,37.426,14.095,33.321,30.276,6.137,6.221,8.068
1638,0.774,36.142,14.153,33.321,30.273,6.098,6.22,8.069
1639,0.771,36.301,14.15,33.34,30.28,6.097,6.22,8.109
1640,0.777,36.447,14.142,33.331,30.276,6.138,6.22,8.069
1641,0.764,36.467,14.193,33.35,30.28,6.179,6.22,8.069
1642,0.777,36.669,14.088,33.35,30.273,6.179,6.18,8.069
1643,0.777,36.815,14.122,33.35,30.28,6.179,6.179,8.069
1644,0.784,36.922,14.146,33.34,30.276,6.139,6.139,7.987
1645,0.793,36.913,14.197,33.35,30.273,6.138,6.138,7.905
1646,0.787,36.338,14.178,33.331,30.269,6.098,6.016,7.863
1647,0.767,36.476,14.17,33.34,30.266,6.056,6.015,7.863
1648,0.777,36.583,14.17,33.331,30.266,6.015,5.974,7.822
1649,0.78,36.507,14.08,33.331,30.262,6.015,6.055,7.903
1650,0.767,36.401,14.106,33.321,30.266,6.096,6.056,7.945
1651,0.774,36.544,14.157,33.34,30.276,6.138,6.137,7.945
1652,0.787,36.67,14.142,33.35,30.276,6.179,6.138,7.864
1653,0.803,36.441,14.134,33.35,30.266,6.139,6.179,7.904
1654,0.803,36.525,14.111,33.369,30.276,6.179,6.098,7.904
1655,0.813,36.66,14.126,33.36,30.273,6.179,6.097,7.823
1656,0.8,36.757,14.197,33.35,30.273,6.139,6.138,7.822
1657,0.764,36.183,14.143,33.36,30.273,6.179,6.098,7.781
1658,0.761,36.311,14.142,33.36,30.273,6.22,6.138,7.7
1659,0.764,36.428,14.154,33.36,30.269,6.22,6.057,7.658
1660,0.774,36.525,14.166,33.369,30.273,6.18,6.137,7.698
1661,0.767,36.324,14.15,33.36,30.266,6.22,6.098,7.658
1662,0.77,36.428,14.197,33.369,30.262,6.22,6.097,7.617
1663,0.757,36.563,14.123,33.36,30.266,6.18,6.138,7.617
1664,0.767,36.641,14.076,33.36,30.266,6.179,6.098,7.576
1665,0.774,36.22,14.11,33.35,30.266,6.098,6.138,7.575
1666,0.761,36.36,14.142,33.369,30.269,6.178,6.057,7.575
1667,0.79,36.476,14.146,33.36,30.269,6.179,6.097,7.657
1668,0.78,36.535,14.138,33.388,30.273,6.179,6.138,7.739
1669,0.787,36.267,14.181,33.408,30.28,6.301,6.138,7.699
1670,0.79,36.408,14.096,33.408,30.287,6.302,6.219,7.74
1671,0.81,36.563,14.134,33.427,30.283,6.343,6.261,7.659
1672,0.807,36.593,14.181,33.437,30.283,6.343,6.221,7.617
1673,0.813,36.344,14.213,33.428,30.287,6.262,6.139,7.576
1674,0.807,36.505,14.108,33.418,30.273,6.221,6.138,7.535
1675,0.81,36.602,14.103,33.408,30.276,6.18,6.098,7.534
1676,0.797,36.536,14.111,33.399,30.276,6.179,6.097,7.534
1677,0.781,36.094,14.138,33.389,30.273,6.179,6.056,7.453
1678,0.774,36.243,14.138,33.408,30.266,6.22,6.137,7.534
1679,0.79,36.36,14.131,33.408,30.269,6.22,6.138,7.494
1680,0.797,36.179,14.185,33.408,30.273,6.139,6.138,7.453
1681,0.774,36.292,14.143,33.427,30.276,6.138,6.179,7.534
1682,0.754,36.437,14.15,33.427,30.273,6.219,6.139,7.534
1683,0.761,36.544,14.181,33.437,30.273,6.22,6.138,7.412
1684,0.777,36.19,14.186,33.437,30.276,6.18,6.219,7.493
1685,0.797,36.321,14.139,33.428,30.276,6.139,6.22,7.453
1686,0.8,36.476,14.131,33.447,30.276,6.138,6.22,7.493
1687,0.8,36.544,14.119,33.437,30.276,6.138,6.139,7.453
1688,0.797,36.056,14.126,33.447,30.283,6.179,6.179,7.452
1689,0.8,36.195,14.13,33.447,30.276,6.139,6.179,7.452
1690,0.797,36.331,14.158,33.447,30.276,6.016,6.139,7.29
1691,0.797,36.399,14.119,33.456,30.273,6.056,6.016,7.247
1692,0.794,36.074,14.13,33.418,30.266,5.975,6.015,7.166
1693,0.793,36.224,14.123,33.408,30.262,5.974,6.056,7.246
1694,0.78,36.35,14.208,33.418,30.266,5.974,6.097,7.288
1695,0.767,36.371,14.186,33.437,30.266,6.015,6.138,7.369
1696,0.78,36.006,14.092,33.447,30.266,6.015,6.138,7.33
1697,0.764,36.166,14.13,33.466,30.276,6.056,6.179,7.289
1698,0.764,36.292,14.169,33.457,30.269,6.137,6.139,7.369
1699,0.767,36.36,14.139,33.457,30.276,6.098,6.219,7.289
1700,0.777,36.112,14.111,33.466,30.269,6.097,6.139,7.288
1701,0.767,36.234,14.165,33.476,30.276,6.097,6.138,7.288
1702,0.77,36.379,14.08,33.485,30.269,6.138,6.098,7.329
1703,0.774,36.649,14.11,33.476,30.273,6.098,6.097,7.329
1704,0.774,36.048,14.169,33.457,30.273,6.016,6.016,7.289
1705,0.771,36.147,14.197,33.457,30.269,6.056,6.096,7.207
1706,0.77,36.273,14.182,33.457,30.269,5.975,6.016,7.287
1707,0.79,35.986,14.17,33.485,30.262,6.055,6.056,7.329
1708,0.787,36.012,14.174,33.486,30.266,6.097,6.097,7.289
1709,0.777,36.147,14.139,33.543,30.276,6.056,6.056,7.288
1710,0.777,36.273,14.127,33.486,30.269,6.097,6.137,7.329
1711,0.777,35.986,14.177,33.495,30.283,6.178,6.138,7.41
1712,0.797,36.118,14.119,33.505,30.29,6.139,6.26,7.452
1713,0.807,36.272,14.119,33.534,30.287,6.219,6.262,7.412
1714,0.777,36.379,14.15,33.534,30.283,6.139,6.221,7.493
1715,0.777,35.987,14.174,33.534,30.287,6.219,6.18,7.453
1716,0.8,36.108,14.197,33.534,30.28,6.098,6.139,7.412
1717,0.8,36.263,14.174,33.534,30.273,6.097,6.138,7.33
1718,0.774,36.322,14.185,33.496,30.269,6.056,6.138,7.329
1719,0.774,35.939,14.139,33.514,30.269,6.137,6.138,7.37
1720,0.774,36.098,14.131,33.515,30.276,6.138,6.138,7.411
1721,0.754,36.224,14.15,33.524,30.273,6.098,6.179,7.452
1722,0.761,36.283,14.15,33.534,30.273,6.219,6.139,7.371
1723,0.767,35.919,14.095,33.524,30.273,6.139,6.138,7.452
1724,0.78,36.069,14.146,33.534,30.266,6.138,6.098,7.371
1725,0.787,36.205,14.131,33.524,30.276,6.138,6.178,7.411
1726,0.78,36.235,14.185,33.543,30.276,6.179,6.098,7.411
1727,0.797,35.928,14.127,33.524,30.276,6.22,6.138,7.371
1728,0.794,36.069,14.146,33.543,30.276,6.18,6.138,7.37
1729,0.79,36.195,14.158,33.544,30.273,6.22,6.179,7.37
1730,0.797,36.216,14.127,33.553,30.28,6.18,6.179,7.411
1731,0.797,35.967,14.138,33.544,30.283,6.22,6.179,7.411
1732,0.803,36.079,14.177,33.553,30.276,6.22,6.179,7.371
1733,0.797,36.215,14.143,33.563,30.273,6.18,6.22,7.37
1734,0.79,35.938,14.099,33.582,30.276,6.179,6.22,7.33
1735,0.793,35.897,14.118,33.573,30.276,6.139,6.098,7.289
1736,0.787,36.011,14.138,33.544,30.269,5.976,6.138,7.288
1737,0.787,36.108,14.185,33.534,30.262,5.974,6.057,7.207
1738,0.784,35.802,14.139,33.515,30.255,6.055,6.097,7.328
1739,0.78,35.905,14.158,33.543,30.262,6.056,6.138,7.37
1740,0.767,36.05,14.123,33.544,30.273,6.015,6.219,7.411
1741,0.754,36.176,14.138,33.572,30.276,6.056,6.139,7.493
1742,0.764,35.861,14.162,33.582,30.276,6.015,6.179,7.534
1743,0.774,36.001,14.209,33.582,30.276,6.056,6.179,7.494
1744,0.78,36.127,14.139,33.582,30.269,6.056,6.22,7.575
1745,0.787,36.215,14.033,33.592,30.269,6.015,6.098,7.535
1746,0.78,35.746,14.102,33.582,30.273,6.015,6.138,7.575
1747,0.797,35.895,14.091,33.592,30.266,6.056,6.098,7.616
1748,0.784,36.011,14.13,33.64,30.266,5.975,6.097,7.617
1749,0.787,36.089,14.103,33.592,30.269,6.015,6.097,7.535
1750,0.793,35.783,14.165,33.592,30.273,6.015,6.097,7.575
1751,0.79,35.953,14.119,33.602,30.273,5.934,6.138,7.575
1752,0.79,36.079,14.126,33.583,30.269,5.974,6.098,7.535
1753,0.8,36.109,14.15,33.563,30.269,6.096,6.056,7.575
1754,0.777,35.678,14.189,33.582,30.259,5.975,6.137,7.616
1755,0.764,35.817,14.151,33.582,30.269,6.055,6.219,7.657
1756,0.777,35.963,14.068,33.602,30.273,6.137,6.22,7.658
1757,0.774,35.993,14.106,33.602,30.276,6.098,6.302,7.698
1758,0.764,35.83,14.134,33.611,30.28,6.178,6.343,7.699
1759,0.77,35.982,14.154,33.631,30.287,6.22,6.343,7.699
1760,0.78,36.098,14.181,33.65,30.283,6.261,6.303,7.78
1761,0.787,35.956,14.205,33.641,30.287,6.18,6.221,7.618
1762,0.774,35.906,14.158,33.64,30.276,6.098,6.22,7.617
1763,0.777,36.021,14.146,33.631,30.273,6.138,6.139,7.617
1764,0.787,36.099,14.185,33.621,30.28,6.057,6.138,7.576
1765,0.787,35.63,14.209,33.611,30.273,6.137,6.179,7.494
1766,0.787,35.73,14.12,33.631,30.276,6.179,6.179,7.494
1767,0.784,35.885,14.052,33.621,30.28,6.139,6.139,7.534
1768,0.784,35.973,14.153,33.64,30.273,6.179,6.179,7.575
1769,0.784,35.571,14.127,33.64,30.276,6.098,6.139,7.535
1770,0.787,35.711,14.123,33.65,30.269,6.138,6.179,7.453
1771,0.8,35.846,14.185,33.631,30.269,6.138,6.139,7.534
1772,0.8,35.934,14.115,33.631,30.276,6.138,6.138,7.494
1773,0.803,35.638,14.111,33.631,30.28,6.138,6.179,7.453
1774,0.784,35.779,14.154,33.631,30.276,6.098,6.22,7.412
1775,0.793,35.924,14.224,33.631,30.28,6.138,6.261,7.411
1776,0.79,35.983,14.194,33.659,30.276,6.138,6.18,7.371
1777,0.797,35.561,14.147,33.66,30.276,6.138,6.179,7.33
1778,0.794,35.701,14.166,33.65,30.276,6.138,6.139,7.329
1779,0.78,35.856,14.119,33.65,30.269,6.098,6.138,7.289
1780,0.774,35.896,14.146,33.65,30.273,6.056,6.138,7.207
1781,0.774,35.676,14.181,33.65,30.266,6.015,6.098,7.206
1782,0.774,35.827,14.158,33.631,30.262,5.974,6.056,7.125
1783,0.777,35.943,14.103,33.65,30.262,5.974,6.056,7.165
1784,0.79,35.945,14.107,33.631,30.262,5.974,6.137,7.124
1785,0.79,35.552,14.15,33.621,30.269,6.055,6.138,7.165
1786,0.771,35.711,14.201,33.65,30.273,6.097,6.179,7.124
1787,0.78,35.846,14.143,33.669,30.273,6.097,6.139,7.165
1788,0.793,35.761,14.181,33.669,30.269,6.056,6.138,7.165
1789,0.793,35.588,14.119,33.669,30.273,6.056,6.179,7.124
1790,0.803,35.74,14.15,33.679,30.276,6.015,6.139,7.165
1791,0.823,35.856,14.174,33.67,30.269,6.015,6.138,7.124
1792,0.804,35.589,14.131,33.669,30.269,6.056,6.138,7.083
1793,0.797,35.673,14.119,33.698,30.273,5.975,6.138,7.123
1794,0.797,35.798,14.138,33.67,30.273,5.974,6.138,7.083
1795,0.797,35.895,14.15,33.679,30.266,5.974,6.098,7.083
1796,0.803,35.465,14.197,33.67,30.269,5.933,6.138,7.123
1797,0.8,35.633,14.201,33.669,30.266,5.974,6.098,7.043
1798,0.794,35.759,14.131,33.66,30.269,5.974,6.138,7.082
1799,0.803,35.828,14.146,33.65,30.262,5.933,6.057,7.083
1800,0.803,35.445,14.119,33.679,30.269,5.974,6.056,7.083
1801,0.79,35.604,14.107,33.67,30.269,5.974,6.056,7.164
1802,0.79,35.711,14.161,33.669,30.273,6.015,6.097,7.165
1803,0.8,35.798,14.135,33.698,30.28,6.015,6.178,7.165
1804,0.826,35.464,14.091,33.727,30.287,6.056,6.301,7.328
1805,0.833,35.643,14.122,33.718,30.29,6.097,6.302,7.289
1806,0.852,35.779,14.173,33.718,30.283,6.056,6.302,7.207
1807,0.853,35.818,14.158,33.727,30.29,6.137,6.221,7.206
1808,0.862,35.426,14.142,33.747,30.28,6.016,6.22,7.165
1809,0.869,35.565,14.201,33.709,30.276,5.974,6.18,7.124
1810,0.866,35.663,14.104,33.727,30.273,6.055,6.301,7.165
1811,0.879,35.721,14.134,33.699,30.273,6.015,6.262,7.206
1812,0.876,35.444,14.193,33.708,30.28,6.015,6.343,7.125
1813,0.885,35.594,14.151,33.718,30.276,6.015,6.343,7.205
1814,0.846,35.73,14.045,33.727,30.273,6.015,6.343,7.247
1815,0.849,35.789,14.094,33.718,30.28,6.056,6.384,7.166
1816,0.859,35.368,14.15,33.727,30.28,6.056,6.466,7.165
1817,0.853,35.507,14.197,33.747,30.276,6.015,6.507,7.124
1818,0.866,35.624,14.147,33.747,30.276,6.015,6.549,7.124
1819,0.872,35.529,14.158,33.737,30.276,6.015,6.508,7.205
1820,0.859,35.634,14.142,33.718,30.276,5.974,6.549,7.206
1821,0.849,35.798,14.115,33.737,30.276,6.096,6.549,7.206
1822,0.862,35.886,14.095,33.747,30.269,6.056,6.671,7.206
1823,0.872,35.302,14.169,33.747,30.28,6.137,6.631,7.206
1824,0.872,35.43,14.166,33.737,30.283,6.057,6.712,7.165
1825,0.879,35.575,14.111,33.747,30.276,6.137,6.672,7.124
1826,0.885,35.673,14.111,33.747,30.276,6.098,6.631,7.165
1827,0.898,35.415,14.134,33.747,30.266,6.097,6.712,7.124
1828,0.912,35.556,14.072,33.756,30.273,6.056,6.591,7.043
1829,0.922,35.672,14.13,33.728,30.266,6.015,6.631,7.042
1830,0.909,35.75,14.166,33.728,30.262,6.056,6.59,7.082
1831,0.889,35.262,14.103,33.718,30.266,6.056,6.509,7.123
1832,0.905,35.42,14.111,33.737,30.266,6.137,6.63,7.165
1833,0.908,35.527,14.122,33.728,30.269,6.179,6.631,7.165
1834,0.899,35.614,14.154,33.737,30.276,6.179,6.712,7.206
1835,0.899,35.241,14.189,33.756,30.273,6.22,6.672,7.165
1836,0.899,35.381,14.084,33.757,30.269,6.261,6.631,7.124
1837,0.892,35.527,14.126,33.766,30.269,6.221,6.672,7.083
1838,0.892,35.567,14.162,33.747,30.266,6.261,6.672,7.123
1839,0.879,35.433,14.119,33.776,30.276,6.262,6.631,7.083
1840,0.889,35.585,14.134,33.747,30.269,6.302,6.672,7.083
1841,0.889,35.692,14.162,33.766,30.269,6.18,6.631,7.083
1842,0.895,36.019,14.096,33.747,30.273,6.179,6.631,7.042
1843,0.895,35.38,14.111,33.756,30.273,6.179,6.631,7.042
1844,0.889,35.498,14.161,33.776,30.269,6.261,6.631,7.082
1845,0.892,35.614,14.189,33.757,30.269,6.221,6.631,7.002
1846,0.892,35.308,14.182,33.747,30.273,6.22,6.631,7.082
1847,0.905,35.325,14.158,33.756,30.273,6.139,6.672,7.002
1848,0.899,35.469,14.135,33.766,30.266,6.179,6.55,7.001
1849,0.895,35.566,14.095,33.766,30.266,6.22,6.671,7.123
1850,0.908,35.164,14.118,33.766,30.273,6.261,6.672,7.165
1851,0.918,35.313,14.165,33.766,30.276,6.262,6.713,7.206
1852,0.931,35.43,14.154,33.795,30.276,6.302,6.713,7.247
1853,0.941,35.546,14.115,33.805,30.287,6.384,6.713,7.288
1854,0.945,35.317,14.158,33.824,30.29,6.303,6.794,7.288
1855,0.922,35.488,14.162,33.824,30.287,6.262,6.673,7.247
1856,0.938,35.605,14.197,33.834,30.283,6.262,6.591,7.288
1857,0.958,35.702,14.17,33.796,30.28,6.18,6.59,7.247
1858,0.945,35.204,14.127,33.795,30.269,6.179,6.59,7.328
1859,0.938,35.333,14.123,33.786,30.276,6.22,6.509,7.289
1860,0.925,35.469,14.119,33.786,30.273,6.22,6.589,7.329
1861,0.902,35.528,14.142,33.795,30.269,6.22,6.59,7.451
1862,0.889,35.202,14.173,33.795,30.276,6.139,6.509,7.452
1863,0.892,35.343,14.131,33.805,30.276,6.138,6.549,7.412
1864,0.899,35.478,14.138,33.786,30.276,6.219,6.63,7.411
1865,0.882,35.528,14.127,33.795,30.276,6.139,6.59,7.452
1866,0.863,35.097,14.158,33.814,30.276,6.138,6.549,7.493
1867,0.853,35.227,14.131,33.824,30.276,6.138,6.59,7.534
1868,0.849,35.381,14.107,33.824,30.273,6.219,6.509,7.453
1869,0.862,35.392,14.161,33.815,30.276,6.18,6.63,7.493
1870,0.856,35.201,14.08,33.824,30.276,6.139,6.59,7.534
1871,0.849,35.333,14.099,33.824,30.28,6.219,6.509,7.534
1872,0.853,35.44,14.165,33.824,30.276,6.139,6.508,7.575
1873,0.853,35.22,14.197,33.834,30.283,6.219,6.549,7.575
1874,0.853,35.209,14.092,33.824,30.28,6.18,6.508,7.657
1875,0.827,35.362,14.13,33.824,30.276,6.22,6.508,7.658
1876,0.817,35.459,14.127,33.815,30.269,6.18,6.467,7.658
1877,0.8,35.086,14.189,33.815,30.269,6.098,6.386,7.617
1878,0.787,35.179,14.166,33.882,30.266,6.138,6.303,7.657
1879,0.767,35.314,14.127,33.787,30.262,6.098,6.343,7.698
1880,0.761,35.421,14.166,33.786,30.262,6.097,6.384,7.78
1881,0.738,35.028,14.142,33.824,30.266,6.219,6.425,7.862
1882,0.741,35.188,14.111,33.824,30.276,6.261,6.466,7.904
1883,0.747,35.333,14.142,33.824,30.276,6.262,6.386,7.904
1884,0.744,35.44,14.201,33.824,30.269,6.343,6.466,7.823
1885,0.751,35.048,14.166,33.834,30.273,6.221,6.426,7.863
1886,0.751,35.216,14.072,33.834,30.273,6.22,6.385,7.904
1887,0.754,35.352,14.087,33.824,30.273,6.302,6.344,7.985
1888,0.754,35.411,14.134,33.834,30.273,6.262,6.384,7.946
1889,0.751,35.048,14.13,33.844,30.269,6.221,6.385,7.905
1890,0.764,35.197,14.127,33.815,30.273,6.18,6.385,7.863
1891,0.767,35.324,14.162,33.824,30.266,6.22,6.344,7.782
1892,0.783,35.373,14.146,33.834,30.266,6.139,6.343,7.822
1893,0.777,35.066,14.107,33.824,30.262,6.138,6.303,7.741
1894,0.764,35.217,14.122,33.834,30.266,6.179,6.302,7.74
1895,0.764,35.352,14.212,33.815,30.269,6.098,6.302,7.699
1896,0.754,35.354,14.166,33.843,30.269,6.138,6.262,7.74
1897,0.738,35.037,14.131,33.834,30.262,6.138,6.302,7.74
1898,0.725,35.178,14.22,33.824,30.269,6.138,6.302,7.74
1899,0.728,35.304,14.17,33.911,30.269,6.219,6.343,7.781
1900,0.741,35.19,14.146,33.844,30.276,6.261,6.343,7.781
1901,0.744,35.084,14.154,33.853,30.28,6.343,6.425,7.862
1902,0.738,35.255,14.135,33.882,30.283,6.303,6.466,7.822
1903,0.741,35.372,14.111,33.892,30.287,6.343,6.426,7.741
1904,0.747,34.961,14.103,33.883,30.273,6.262,6.344,7.618
1905,0.773,35.043,14.165,33.844,30.276,6.262,6.303,7.617
1906,0.764,35.13,14.189,33.844,30.276,6.221,6.302,7.657
1907,0.77,35.237,14.174,33.844,30.269,6.18,6.262,7.617
1908,0.757,35.007,14.182,33.844,30.276,6.22,6.262,7.617
1909,0.744,35.149,14.162,33.882,30.269,6.22,6.262,7.617
1910,0.747,35.304,14.127,33.854,30.276,6.22,6.262,7.617
1911,0.773,35.373,14.162,33.834,30.276,6.22,6.302,7.576
1912,0.771,34.903,14.119,33.844,30.276,6.22,6.343,7.657
1913,0.767,35.071,14.13,33.853,30.276,6.22,6.303,7.658
1914,0.764,35.178,14.123,33.853,30.276,6.22,6.302,7.658
1915,0.751,35.256,14.162,33.872,30.276,6.22,6.262,7.698
1916,0.748,34.95,14.205,33.854,30.28,6.261,6.221,7.699
1917,0.747,35.11,14.17,33.863,30.28,6.221,6.22,7.658
1918,0.744,35.236,14.139,33.853,30.276,6.302,6.22,7.658
1919,0.744,35.266,14.146,33.863,30.276,6.221,6.302,7.698
1920,0.744,34.96,14.119,33.882,30.28,6.22,6.262,7.699
1921,0.747,35.12,14.162,33.873,30.276,6.261,6.302,7.78
1922,0.738,35.236,14.158,33.882,30.28,6.302,6.221,7.7
1923,0.747,35.276,14.088,33.892,30.273,6.18,6.261,7.658
1924,0.76,34.931,14.126,33.883,30.273,6.22,6.139,7.698
1925,0.79,35.052,14.111,33.863,30.269,6.058,6.098,7.496
1926,0.78,35.14,14.158,33.853,30.266,6.056,6.056,7.494
1927,0.741,35.112,14.099,33.872,30.262,6.056,6.178,7.494
1928,0.741,34.891,14.107,33.844,30.262,6.056,6.098,7.575
1929,0.741,34.994,14.142,33.853,30.269,6.137,6.178,7.657
1930,0.741,35.101,14.162,33.863,30.273,6.179,6.139,7.617
1931,0.764,34.786,14.127,33.853,30.273,6.098,6.219,7.657
1932,0.757,34.84,14.166,33.863,30.269,6.138,6.22,7.658
1933,0.764,35.003,14.146,33.882,30.269,6.179,6.139,7.698
1934,0.757,35.101,14.127,33.93,30.276,6.139,6.179,7.618
1935,0.757,34.843,14.103,33.873,30.269,6.138,6.261,7.657
1936,0.738,34.956,14.118,33.863,30.273,6.098,6.18,7.739
1937,0.708,35.081,14.197,33.863,30.276,6.097,6.22,7.699
1938,0.702,35.179,14.147,33.882,30.273,6.138,6.22,7.658
1939,0.688,34.748,14.134,33.863,30.276,6.098,6.22,7.739
1940,0.675,34.907,14.15,33.853,30.269,5.935,6.22,7.659
1941,0.649,35.052,14.099,33.863,30.266,6.055,6.22,7.617
1942,0.642,35.13,14.126,33.853,30.266,6.015,6.261,7.698
1943,0.649,34.728,14.154,33.863,30.262,6.056,6.221,7.658
1944,0.649,34.878,14.162,33.882,30.266,6.015,6.342,7.739
1945,0.668,34.994,14.119,33.873,30.273,6.056,6.303,7.659
1946,0.685,35.063,14.099,33.873,30.273,6.056,6.302,7.739
1947,0.714,34.737,14.118,33.892,30.28,6.137,6.384,7.74
1948,0.734,34.878,14.103,33.883,30.276,6.219,6.466,7.699
1949,0.744,35.033,14.134,33.911,30.287,6.22,6.426,7.821
1950,0.76,35.063,14.173,33.902,30.283,6.22,6.466,7.741
1951,0.787,34.795,14.123,33.911,30.283,6.098,6.426,7.659
1952,0.845,34.955,14.15,33.911,30.276,6.138,6.385,7.698
1953,0.888,35.072,14.138,33.883,30.273,6.098,6.263,7.618
1954,0.928,35.293,14.173,33.882,30.276,6.016,6.343,7.698
1955,0.98,34.826,14.189,33.882,30.276,6.015,6.425,7.699
1956,1.026,34.984,14.123,33.882,30.269,6.056,6.344,7.618
1957,1.076,35.12,14.111,33.882,30.273,6.097,6.343,7.657
1958,1.125,34.747,14.173,33.882,30.273,6.016,6.384,7.698
1959,1.184,34.801,14.15,33.882,30.276,6.015,6.385,7.699
1960,1.223,34.955,14.119,33.882,30.269,6.015,6.303,7.74
1961,1.266,35.043,14.169,33.902,30.273,6.056,6.302,7.781
1962,1.315,34.718,14.107,33.883,30.276,6.056,6.384,7.781
1963,1.374,34.849,14.115,33.902,30.276,6.015,6.344,7.74
1964,1.437,35.004,14.13,33.892,30.273,5.974,6.384,7.781
1965,1.496,35.082,14.181,33.902,30.276,6.015,6.344,7.862
1966,1.526,34.469,14.229,33.902,30.276,6.056,6.384,7.904
1967,1.562,34.626,14.174,33.892,30.28,6.015,6.385,7.945
1968,1.592,34.762,14.193,33.902,30.28,5.974,6.344,8.026
1969,1.631,34.849,14.045,33.911,30.273,6.055,6.425,7.987
1970,1.657,34.706,14.098,33.892,30.276,5.975,6.304,7.986
1971,1.684,34.839,14.161,33.892,30.266,5.933,6.302,7.986
1972,1.723,34.975,14.139,33.854,30.262,5.852,6.262,7.946
1973,1.717,35.043,14.123,33.863,30.266,5.891,6.18,7.945
1974,1.765,34.622,14.119,33.853,30.269,5.933,6.261,8.026
1975,1.789,34.771,14.119,33.872,30.266,5.974,6.262,8.109
1976,1.805,34.897,14.158,33.882,30.269,6.015,6.343,8.232
1977,1.805,34.985,14.15,33.902,30.266,6.137,6.303,8.192
1978,1.763,34.784,14.135,33.902,30.273,6.098,6.343,8.314
1979,1.704,34.945,14.154,33.892,30.276,6.138,6.262,8.356
1980,1.658,35.062,14.115,33.902,30.276,6.179,6.343,8.519
1981,1.576,35.082,14.122,33.883,30.273,6.22,6.343,8.642
1982,1.491,34.632,14.181,33.882,30.273,6.261,6.343,8.806
1983,1.396,34.781,14.108,33.882,30.276,6.221,6.262,9.133
1984,1.317,34.897,14.103,33.882,30.269,6.22,6.302,9.461
1985,1.257,34.64,14.099,33.882,30.266,6.22,6.384,9.912
1986,1.214,34.618,14.118,33.882,30.273,6.302,6.344,10.526
1987,1.181,34.742,14.181,33.882,30.266,6.343,6.303,10.98
1988,1.145,34.859,14.119,33.882,30.269,6.343,6.262,11.553
1989,1.099,34.553,14.158,33.863,30.262,6.384,6.221,12.047
1990,1.073,34.684,14.103,33.882,30.269,6.344,6.22,12.418
1991,1.021,34.829,14.091,33.863,30.266,6.384,6.261,12.828
1992,0.971,34.898,14.146,33.853,30.266,6.425,6.302,13.117
1993,0.929,34.457,14.15,33.872,30.273,6.507,6.302,13.445
1994,0.902,34.616,14.08,33.892,30.28,6.508,6.384,13.652
1995,0.86,34.762,14.103,33.892,30.283,6.549,6.385,13.776
1996,0.82,34.868,14.111,33.911,30.287,6.59,6.425,13.858
1997,0.794,34.678,14.2,33.921,30.29,6.631,6.385,13.9
1998,0.784,34.858,14.155,33.931,30.29,6.631,6.344,13.819
1999,0.797,34.975,14.142,33.921,30.283,6.55,6.343,13.737
2000,0.803,35.072,14.205,33.911,30.276,6.59,6.343,13.695
2001,0.79,34.622,14.143,33.892,30.269,6.509,6.343,13.735
2002,0.79,34.771,14.138,33.911,30.273,6.549,6.343,13.898
2003,0.803,34.878,14.193,33.883,30.276,6.549,6.303,14.063
2004,0.836,34.927,14.178,33.882,30.276,6.671,6.302,14.105
2005,0.836,34.554,14.057,33.902,30.273,6.672,6.302,14.268
2006,0.836,34.694,14.13,33.911,30.276,6.672,6.302,14.514
2007,0.852,34.829,14.099,33.902,30.276,6.672,6.384,14.801
2008,0.872,34.84,14.064,33.902,30.276,6.631,6.344,15.048
2009,0.866,34.572,14.118,33.902,30.28,6.672,6.384,15.213
2010,0.862,34.703,14.162,33.892,30.28,6.713,6.466,15.458
2011,0.866,34.839,14.119,33.902,30.276,6.672,6.304,15.461
2012,0.859,34.658,14.107,33.902,30.28,6.753,6.343,15.664
2013,0.853,34.57,14.154,33.902,30.283,6.754,6.384,15.544
2014,0.84,34.703,14.185,33.902,30.276,6.714,6.385,15.705
2015,0.823,34.83,14.162,33.892,30.28,6.713,6.385,15.626
2016,0.833,34.562,14.107,33.911,30.276,6.794,6.303,15.462
2017,0.83,34.646,14.091,33.892,30.28,6.714,6.302,15.298
2018,0.843,34.752,14.138,33.873,30.269,6.713,6.221,15.134
2019,0.826,34.888,14.142,33.873,30.262,6.713,6.22,14.848
2020,0.8,34.515,14.158,33.863,30.259,6.632,6.261,14.804
2021,0.8,34.626,14.154,33.863,30.262,6.753,6.302,14.641
2022,0.787,34.762,14.064,33.863,30.262,6.754,6.343,14.517
2023,0.793,34.868,14.114,33.863,30.269,6.754,6.303,14.313
2024,0.803,34.476,14.146,33.873,30.273,6.836,6.302,14.189
2025,0.81,34.635,14.185,33.873,30.276,6.796,6.384,14.025
2026,0.81,34.771,14.166,33.882,30.269,6.836,6.344,13.861
2027,0.81,34.849,14.107,33.873,30.273,6.755,6.343,13.696
2028,0.816,34.553,14.165,33.873,30.276,6.795,6.262,13.532
2029,0.81,34.732,14.154,33.873,30.276,6.755,6.302,13.49
2030,0.807,34.839,14.119,33.882,30.276,6.714,6.302,13.245
2031,0.823,34.888,14.177,33.854,30.273,6.713,6.302,13.121
2032,0.826,34.448,14.119,33.853,30.269,6.672,6.262,12.917
2033,0.826,34.616,14.099,33.872,30.266,6.713,6.262,12.792
2034,0.807,34.723,14.107,33.834,30.273,6.672,6.302,12.629
2035,0.803,34.743,14.193,33.834,30.269,6.591,6.18,12.505
2036,0.807,34.513,14.174,33.844,30.269,6.549,6.179,12.341
2037,0.816,34.684,14.158,33.853,30.266,6.59,6.301,12.217
2038,0.813,34.801,14.15,33.853,30.266,6.671,6.343,12.176
2039,0.797,34.715,14.111,33.863,30.276,6.591,6.343,12.013
2040,0.8,34.542,14.111,33.863,30.28,6.59,6.425,11.97
2041,0.807,34.703,14.15,33.873,30.287,6.671,6.466,11.889
2042,0.797,34.82,14.189,33.892,30.29,6.713,6.426,11.644
2043,0.803,34.438,14.115,33.902,30.29,6.632,6.466,11.438
2044,0.82,34.52,14.115,33.902,30.283,6.631,6.386,11.314
2045,0.839,34.655,14.15,33.883,30.276,6.59,6.303,11.15
2046,0.826,34.724,14.17,33.863,30.28,6.509,6.343,10.986
2047,0.836,34.446,14.158,33.863,30.276,6.549,6.303,10.944
2048,0.807,34.587,14.146,33.844,30.273,6.468,6.302,10.821
2049,0.803,34.704,14.146,33.844,30.276,6.548,6.343,10.739
2050,0.823,34.82,14.15,33.844,30.273,6.549,6.343,10.657
2051,0.823,34.275,14.15,33.853,30.273,6.468,6.343,10.493
2052,0.82,34.422,14.158,33.853,30.28,6.507,6.343,10.329
2053,0.826,34.558,14.111,33.853,30.276,6.508,6.303,10.286
2054,0.83,34.636,14.111,33.834,30.269,6.427,6.302,10.123
2055,0.807,34.464,14.122,33.834,30.283,6.507,6.302,10.0
2056,0.816,34.616,14.13,33.844,30.276,6.508,6.343,9.917
2057,0.813,34.742,14.189,33.834,30.283,6.427,6.343,9.876
2058,0.813,34.811,14.154,33.853,30.283,6.466,6.425,9.753
2059,0.81,34.399,14.15,33.844,30.28,6.426,6.344,9.752
2060,0.81,34.558,14.123,33.844,30.273,6.466,6.343,9.59
2061,0.81,34.684,14.134,33.844,30.276,6.386,6.303,9.507
2062,0.826,34.714,14.134,33.834,30.266,6.303,6.262,9.425
2063,0.823,34.427,14.154,33.805,30.266,6.302,6.221,9.302
2064,0.791,34.558,14.127,33.805,30.262,6.262,6.22,9.26
2065,0.784,34.675,14.041,33.815,30.262,6.262,6.261,9.3
2066,0.793,34.772,14.083,33.805,30.276,6.343,6.302,9.341
2067,0.8,34.37,14.157,33.805,30.273,6.303,6.262,9.26
2068,0.82,34.548,14.135,33.862,30.273,6.343,6.302,9.259
2069,0.836,34.665,14.123,33.844,30.276,6.343,6.262,9.178
2070,0.833,34.446,14.138,33.805,30.269,6.262,6.343,9.177
2071,0.83,34.52,14.15,33.834,30.273,6.262,6.303,9.177
2072,0.83,34.665,14.103,33.805,30.269,6.221,6.302,9.096
2073,0.826,34.762,14.142,33.805,30.276,6.302,6.18,9.054
2074,0.82,34.226,14.15,33.815,30.273,6.221,6.261,9.013
2075,0.82,34.336,14.123,33.805,30.269,6.18,6.262,8.972
2076,0.839,34.509,14.029,33.805,30.273,6.22,6.18,8.972
2077,0.836,34.597,14.114,33.786,30.266,6.22,6.179,8.85
2078,0.81,34.311,14.134,33.795,30.266,6.261,6.261,8.889
2079,0.807,34.48,14.134,33.795,30.266,6.221,6.262,8.768
2080,0.813,34.616,14.13,33.795,30.269,6.18,6.18,8.767
2081,0.816,34.675,14.138,33.795,30.273,6.261,6.261,8.767
2082,0.803,34.273,14.123,33.805,30.273,6.262,6.262,8.767
2083,0.803,34.413,14.119,33.805,30.273,6.302,6.424,8.807
2084,0.81,34.549,14.119,33.824,30.276,6.343,6.344,8.808
2085,0.829,34.588,14.162,33.815,30.287,6.343,6.343,8.767
2086,0.833,34.358,14.135,33.815,30.29,6.384,6.384,8.767
2087,0.852,34.529,14.13,33.834,30.287,6.466,6.344,8.726
2088,0.859,34.646,14.154,33.815,30.283,6.426,6.303,8.685
2089,0.859,34.695,14.146,33.805,30.276,6.344,6.221,8.603
2090,0.853,34.312,14.146,33.786,30.269,6.303,6.22,8.602
2091,0.846,34.452,14.134,33.786,30.276,6.302,6.302,8.521
2092,0.853,34.578,14.111,33.786,30.276,6.302,6.18,8.479
2093,0.853,34.895,14.119,33.776,30.28,6.302,6.179,8.52
2094,0.843,34.419,14.107,33.795,30.276,6.302,6.22,8.52
2095,0.839,34.539,14.157,33.786,30.276,6.384,6.18,8.439
2096,0.826,34.665,14.154,33.786,30.276,6.303,6.22,8.438
2097,0.823,34.388,14.096,33.786,30.276,6.302,6.261,8.438
2098,0.804,34.414,14.157,33.776,30.276,6.343,6.18,8.397
2099,0.813,34.549,14.111,33.766,30.273,6.262,6.179,8.356
2100,0.816,34.675,14.122,33.757,30.276,6.302,6.179,8.397
2101,0.813,34.216,14.15,33.776,30.276,6.343,6.261,8.316
2102,0.81,34.336,14.166,33.757,30.28,6.262,6.139,8.396
2103,0.803,34.481,14.139,33.776,30.283,6.262,6.219,8.316
2104,0.813,34.597,14.111,33.766,30.28,6.262,6.18,8.396
2105,0.829,34.186,14.138,33.757,30.276,6.221,6.179,8.275
2106,0.839,34.326,14.177,33.747,30.269,6.261,6.139,8.233
2107,0.839,34.452,14.147,33.728,30.273,6.139,6.057,8.111
2108,0.846,34.549,14.111,33.728,30.269,6.098,6.097,8.109
2109,0.836,34.253,14.091,33.699,30.255,6.138,6.056,8.191
2110,0.839,34.413,14.099,33.698,30.262,6.179,6.097,8.192
2111,0.83,34.539,14.138,33.689,30.266,6.179,6.097,8.192
2112,0.826,34.598,14.177,33.698,30.262,6.22,6.097,8.192
2113,0.849,34.138,14.068,33.737,30.269,6.22,6.178,8.273
2114,0.859,34.306,14.145,33.718,30.269,6.18,6.179,8.233
2115,0.856,34.432,14.134,33.718,30.273,6.179,6.098,8.192
2116,0.843,34.491,14.169,33.708,30.276,6.179,6.097,8.232
2117,0.82,34.214,14.1,33.718,30.276,6.139,6.138,8.151
2118,0.813,34.355,14.083,33.689,30.276,6.138,6.098,8.191
2119,0.823,34.471,14.126,33.708,30.269,6.098,6.097,8.11
2120,0.83,34.511,14.103,33.718,30.266,6.138,6.138,8.109
2121,0.817,34.204,14.095,33.689,30.266,6.138,6.098,8.15
2122,0.813,34.345,14.142,33.679,30.269,6.057,6.016,8.15
2123,0.813,34.481,14.162,33.679,30.273,6.015,6.096,8.11
2124,0.816,34.262,14.096,33.679,30.269,6.096,6.097,8.109
2125,0.826,34.192,14.118,33.67,30.266,5.975,6.097,8.069
2126,0.823,34.326,14.122,33.65,30.266,6.055,6.056,8.069
2127,0.833,34.442,14.177,33.679,30.273,6.056,6.137,8.15
2128,0.849,34.089,14.135,33.67,30.276,6.056,6.098,8.15
2129,0.849,34.2,14.146,33.679,30.276,6.056,6.219,8.069
2130,0.853,34.345,14.158,33.679,30.273,6.097,6.22,8.191
2131,0.853,34.481,14.158,33.698,30.29,6.178,6.302,8.151
2132,0.862,34.089,14.107,33.689,30.283,6.139,6.221,8.069
2133,0.853,34.258,14.169,33.689,30.29,6.098,6.22,8.069
2134,0.849,34.374,14.154,33.67,30.28,6.056,6.18,8.028
2135,0.833,34.462,14.068,33.669,30.28,6.056,6.139,8.027
2136,0.826,34.118,14.118,33.669,30.276,6.056,6.098,7.987
2137,0.826,34.239,14.095,33.669,30.276,6.056,6.138,8.027
2138,0.823,34.374,14.111,33.65,30.276,6.056,6.179,8.027
2139,0.833,34.481,14.122,33.66,30.276,6.056,6.139,8.109
2140,0.843,34.156,14.177,33.65,30.276,6.097,6.138,8.109
2141,0.846,34.306,14.143,33.66,30.28,6.097,6.138,8.15
2142,0.83,34.452,14.127,33.669,30.28,6.138,6.098,8.15
2143,0.82,34.491,14.107,33.66,30.269,6.179,6.097,8.15
2144,0.83,34.108,14.15,33.65,30.276,6.139,6.138,8.11
2145,0.846,34.267,14.213,33.641,30.276,6.219,6.179,8.109
2146,0.846,34.394,14.12,33.65,30.28,6.18,6.098,8.109
2147,0.84,34.443,14.076,33.641,30.276,6.261,6.178,8.028
2148,0.843,34.108,14.118,33.631,30.276,6.262,6.098,8.068
2149,0.856,34.258,14.119,33.631,30.276,6.221,6.138,8.069
2150,0.859,34.384,14.126,33.631,30.276,6.22,6.138,7.946
2151,0.869,34.289,14.146,33.612,30.276,6.139,6.057,7.905
2152,0.869,34.24,14.041,33.621,30.266,6.179,6.015,7.823
2153,0.859,34.365,14.098,33.592,30.266,6.098,6.096,7.822
2154,0.846,34.462,14.087,33.573,30.266,6.097,6.016,7.781
2155,0.833,33.935,14.146,33.563,30.266,6.097,6.056,7.781
