time,ecg,bvp,gsr,rsp,skt,emg_zygo,emg_coru,emg_trap
0,1.112,37.523,38.261,46.147,27.177,5.235,9.794,5.769
1,1.109,37.341,38.204,46.137,27.174,5.235,9.631,5.768
2,1.102,37.493,38.18,46.117,27.17,5.153,9.548,5.728
3,1.102,37.638,38.282,46.251,27.184,5.315,9.71,5.89
4,1.115,37.764,38.216,46.186,27.188,5.317,9.548,5.851
5,1.102,37.449,38.333,46.137,27.188,5.276,9.466,5.81
6,1.089,37.628,38.197,46.137,27.177,5.276,9.383,5.85
7,1.089,37.774,38.27,46.146,27.184,5.235,9.301,5.851
8,1.083,37.794,38.283,46.156,27.184,5.316,9.301,5.891
9,1.086,37.574,38.216,46.156,27.184,5.195,9.178,5.689
10,1.063,37.697,38.286,46.118,27.167,5.153,9.055,5.768
11,1.066,37.822,38.193,46.146,27.184,5.234,9.054,5.809
12,1.056,37.987,38.172,46.156,27.177,5.194,9.095,5.728
13,1.05,38.046,38.262,46.146,27.17,5.194,9.095,5.727
14,1.04,38.181,38.224,46.127,27.177,5.153,9.176,5.768
15,1.043,38.307,38.309,46.165,27.191,5.234,9.462,5.931
16,1.033,37.8,38.24,46.194,27.184,5.316,9.343,5.852
17,1.024,37.804,38.263,46.147,27.181,5.236,9.423,5.81
18,1.02,37.948,38.337,46.165,27.181,5.235,9.505,5.769
19,1.01,38.065,38.147,46.175,27.188,5.235,9.546,5.85
20,1.004,37.922,38.281,46.156,27.181,5.235,9.628,5.81
21,1.007,38.036,38.271,46.166,27.181,5.194,9.507,5.769
22,0.988,38.152,38.228,46.127,27.167,4.99,9.546,5.768
23,0.987,38.297,38.212,46.252,27.181,5.232,9.547,5.768
24,0.981,37.915,38.216,46.166,27.177,5.153,9.547,5.768
25,0.971,38.064,38.325,46.127,27.181,5.153,9.466,5.728
26,0.971,38.2,38.228,46.146,27.174,5.112,9.424,5.687
27,0.968,38.307,38.247,46.156,27.184,5.315,9.546,5.809
28,0.984,37.982,38.259,46.185,27.195,5.276,9.588,5.85
29,0.971,38.123,38.271,46.147,27.181,5.195,9.385,5.81
30,0.958,38.268,38.189,46.146,27.184,5.153,9.382,5.769
31,0.954,38.336,38.282,46.137,27.188,5.193,9.342,5.768
32,0.948,38.078,38.212,46.146,27.195,5.234,9.301,5.891
33,0.938,38.258,38.196,46.146,27.184,5.194,9.341,5.77
34,0.932,38.346,38.262,46.146,27.17,5.031,9.138,5.687
35,0.912,38.414,38.255,46.137,27.181,5.192,9.217,5.768
36,0.912,38.098,38.239,46.146,27.181,5.194,9.178,5.768
37,0.912,38.277,38.271,46.137,27.181,5.153,9.177,5.687
38,0.899,38.404,38.255,46.127,27.174,5.153,9.096,5.687
39,0.889,38.424,38.247,46.146,27.174,5.193,9.136,5.809
40,0.892,38.606,38.216,46.175,27.195,5.316,9.258,5.972
41,0.892,38.752,38.302,46.166,27.181,5.236,9.097,5.852
42,0.882,38.859,38.283,46.146,27.188,5.235,9.054,5.851
43,0.892,38.553,38.205,46.137,27.184,5.235,9.095,5.851
44,0.876,37.898,38.305,46.146,27.184,5.235,9.014,5.891
45,0.872,38.055,38.248,46.146,27.181,5.153,9.135,5.892
46,0.872,38.152,38.259,46.137,27.167,5.071,9.095,5.729
47,0.859,38.182,38.216,46.127,27.181,5.193,9.258,5.85
48,0.859,38.268,38.262,46.146,27.174,5.153,9.341,5.851
49,0.859,38.432,38.267,46.127,27.177,5.112,9.342,5.729
50,0.859,38.539,38.177,46.136,27.181,5.071,9.382,5.687
51,0.859,38.128,38.293,46.108,27.177,5.111,9.505,5.849
52,0.853,38.268,38.111,46.165,27.191,5.274,9.709,6.013
53,0.849,38.442,38.261,46.156,27.184,5.276,9.508,5.852
54,0.846,38.501,38.279,46.146,27.181,5.195,9.546,5.851
55,0.846,38.176,38.224,46.156,27.181,5.194,9.628,5.891
56,0.836,38.307,38.239,46.175,27.188,5.194,9.588,5.933
57,0.833,38.452,38.165,46.166,27.184,5.234,9.588,5.933
58,0.833,38.54,38.301,46.137,27.174,5.113,9.425,5.77
59,0.826,38.042,38.279,46.108,27.174,5.152,9.464,5.809
60,0.82,38.209,38.279,46.146,27.177,5.153,9.505,5.85
61,0.826,38.355,38.31,46.156,27.174,5.193,9.465,5.851
62,0.82,38.424,38.162,46.146,27.174,5.112,9.424,5.891
63,0.823,38.079,38.274,46.137,27.177,5.112,9.505,5.77
64,0.823,38.248,38.255,46.165,27.184,5.193,9.628,5.972
65,0.83,38.422,38.302,46.175,27.188,5.316,9.548,5.933
66,0.82,38.434,38.279,46.127,27.181,5.154,9.466,5.892
67,0.813,38.185,38.228,46.146,27.181,5.193,9.383,5.851
68,0.823,38.336,38.282,46.146,27.181,5.234,9.423,5.851
69,0.82,38.471,38.209,46.165,27.184,5.275,9.383,5.932
70,0.826,38.53,38.251,46.146,27.181,5.195,9.261,5.811
71,0.804,37.975,38.247,46.098,27.17,5.112,9.219,5.81
72,0.813,38.18,38.232,46.136,27.177,5.193,9.34,5.85
73,0.803,38.297,38.29,46.137,27.184,5.153,9.423,5.81
74,0.803,38.567,38.228,46.137,27.177,5.193,9.424,5.769
75,0.797,38.071,38.235,46.137,27.174,5.153,9.464,5.809
76,0.8,38.258,38.286,46.137,27.191,5.275,9.587,5.972
77,0.816,38.413,38.205,46.175,27.191,5.276,9.547,5.852
78,0.8,38.089,38.305,46.147,27.184,5.235,9.547,5.81
79,0.803,38.056,38.248,46.156,27.181,5.235,9.506,5.85
80,0.803,38.229,38.267,46.166,27.177,5.275,9.628,5.891
81,0.81,38.336,38.31,46.156,27.188,5.276,9.629,5.892
82,0.803,37.982,38.139,46.146,27.181,5.195,9.426,5.77
83,0.8,38.055,38.266,46.137,27.17,5.112,9.424,5.809
84,0.8,38.229,38.193,46.137,27.181,5.193,9.424,5.769
85,0.807,38.298,38.305,46.146,27.174,5.153,9.383,5.891
86,0.81,37.848,38.291,46.137,27.177,5.153,9.301,5.77
87,0.803,37.997,38.209,46.137,27.177,5.112,9.301,5.768
88,0.807,38.142,38.294,46.156,27.184,5.193,9.382,5.931
89,0.816,38.297,38.209,46.194,27.188,5.316,9.342,5.892
90,0.816,37.8,38.294,46.137,27.181,5.195,9.26,5.77
91,0.807,37.948,38.279,46.156,27.181,5.153,9.137,5.891
92,0.803,38.132,38.15,46.156,27.177,5.234,9.136,5.811
93,0.803,38.191,38.266,46.146,27.191,5.235,9.136,5.85
94,0.81,37.895,38.24,46.146,27.177,5.153,9.055,5.769
95,0.803,38.007,38.321,46.118,27.167,5.112,8.932,5.768
96,0.794,38.161,38.283,46.117,27.181,5.274,9.012,5.768
97,0.8,38.239,38.228,46.136,27.181,5.195,9.013,5.728
98,0.797,37.655,38.302,46.117,27.177,5.112,9.013,5.768
99,0.8,37.822,38.209,46.136,27.181,5.152,8.891,5.809
100,0.797,37.977,38.239,46.137,27.181,5.153,8.971,5.81
101,0.81,38.036,38.313,46.175,27.191,5.356,9.135,5.891
102,0.813,37.778,38.146,46.147,27.177,5.277,8.933,5.811
103,0.82,37.919,38.254,46.156,27.184,5.316,9.053,5.85
104,0.813,38.045,38.232,46.137,27.181,5.276,9.095,5.851
105,0.813,38.104,38.294,46.146,27.181,5.276,9.136,5.81
106,0.826,37.759,38.31,46.146,27.184,5.113,9.095,5.688
107,0.81,37.881,38.205,46.118,27.167,5.152,9.095,5.727
108,0.82,38.035,38.333,46.136,27.177,5.234,9.176,5.809
109,0.82,37.845,38.186,46.117,27.184,5.153,9.177,5.728
110,0.817,37.786,38.25,46.108,27.181,5.234,9.096,5.646
111,0.816,37.929,38.286,46.117,27.17,5.153,9.095,5.767
112,0.813,38.074,38.099,46.165,27.188,5.315,9.258,5.85
113,0.826,37.606,38.273,46.146,27.181,5.236,9.097,5.769
114,0.817,37.63,38.224,46.118,27.181,5.235,9.054,5.768
115,0.826,37.793,38.321,46.136,27.181,5.275,9.054,5.728
116,0.804,37.91,38.256,46.137,27.184,5.235,9.054,5.809
117,0.81,37.546,38.267,46.146,27.188,5.235,9.054,5.728
118,0.816,37.696,38.314,46.127,27.177,5.113,8.973,5.687
119,0.803,37.832,38.178,46.108,27.177,5.152,8.972,5.727
120,0.813,37.948,38.254,46.136,27.181,5.153,8.931,5.768
121,0.813,37.422,38.306,46.108,27.181,5.112,8.89,5.728
122,0.81,37.58,38.146,46.108,27.177,5.193,8.89,5.768
123,0.813,37.706,38.231,46.117,27.177,5.112,8.89,5.728
124,0.81,37.832,38.208,46.146,27.195,5.274,8.971,5.89
125,0.82,37.459,38.313,46.137,27.184,5.195,8.85,5.729
126,0.823,37.599,38.299,46.127,27.177,5.234,8.889,5.768
127,0.82,37.754,38.24,46.117,27.184,5.113,8.89,5.768
128,0.823,37.813,38.302,46.117,27.188,5.274,8.93,5.809
129,0.826,37.392,38.201,46.136,27.191,5.195,8.931,5.85
130,0.826,37.541,38.309,46.117,27.174,5.153,8.768,5.648
131,0.81,37.648,38.217,46.098,27.174,5.112,8.807,5.767
132,0.823,37.755,38.231,46.155,27.181,5.112,8.848,5.768
133,0.823,37.449,38.216,46.127,27.174,5.112,8.808,5.728
134,0.807,37.599,38.282,46.098,27.177,5.112,8.889,5.687
135,0.816,37.716,38.166,46.098,27.174,5.071,8.849,5.687
136,0.816,37.775,38.262,46.107,27.177,5.193,9.052,5.809
137,0.833,37.44,38.294,46.155,27.195,5.234,9.095,5.769
138,0.813,37.542,38.236,46.118,27.184,5.235,8.973,5.768
139,0.813,37.687,38.274,46.127,27.184,5.194,8.931,5.809
140,0.82,37.496,38.189,46.117,27.184,5.194,8.972,5.81
141,0.82,37.341,38.305,46.146,27.188,5.194,9.053,5.769
142,0.817,37.502,38.162,46.118,27.177,5.153,8.891,5.687
143,0.81,37.6,38.25,46.088,27.163,5.071,8.849,5.687
144,0.807,37.189,38.282,46.098,27.174,5.111,8.889,5.687
145,0.816,37.242,38.255,46.107,27.177,5.152,8.809,5.768
146,0.82,37.377,38.298,46.108,27.184,5.193,8.808,5.647
147,0.813,37.503,38.17,46.108,27.177,5.072,8.808,5.686
148,0.823,37.581,38.278,46.108,27.184,5.233,8.808,5.931
149,0.833,37.745,38.208,46.155,27.191,5.235,8.848,5.811
150,0.83,37.861,38.216,46.137,27.184,5.235,8.767,5.81
151,0.833,37.949,38.298,46.117,27.184,5.194,8.685,5.769
152,0.817,36.904,38.123,46.127,27.181,5.194,8.766,5.809
153,0.826,37.047,38.281,46.127,27.184,5.153,8.726,5.769
154,0.826,37.212,38.287,46.117,27.184,5.153,8.685,5.728
155,0.82,37.252,38.287,46.108,27.17,5.071,8.603,5.646
156,0.81,37.108,38.263,46.117,27.177,5.193,8.765,5.727
157,0.82,37.27,38.169,46.136,27.184,5.153,8.726,5.727
158,0.81,37.415,38.278,46.098,27.184,5.112,8.685,5.768
159,0.8,37.503,38.279,46.088,27.17,5.112,8.644,5.687
160,0.81,37.053,38.216,46.107,27.184,5.193,8.725,5.809
161,0.826,37.26,38.317,46.127,27.191,5.316,8.888,5.891
162,0.82,37.396,38.123,46.127,27.174,5.073,8.809,5.851
163,0.826,37.446,38.234,46.127,27.184,5.193,8.889,5.769
164,0.817,37.043,38.235,46.117,27.184,5.153,8.93,5.85
165,0.82,37.202,38.259,46.127,27.184,5.315,8.972,5.81
166,0.833,37.357,38.29,46.117,27.184,5.154,9.013,5.728
167,0.826,37.349,38.185,46.098,27.177,5.071,8.932,5.687
168,0.82,36.841,38.282,46.088,27.181,5.152,9.093,5.809
169,0.826,37.028,38.197,46.107,27.177,5.153,9.014,5.769
170,0.83,37.145,38.251,46.108,27.181,5.153,9.094,5.687
171,0.82,37.127,38.302,46.088,27.174,5.071,9.014,5.687
172,0.813,36.877,38.174,46.117,27.177,5.152,9.135,5.727
173,0.813,37.076,38.301,46.136,27.191,5.275,9.217,5.85
174,0.816,37.222,38.248,46.137,27.188,5.154,9.015,5.729
175,0.813,36.878,38.356,46.117,27.181,5.153,9.054,5.727
176,0.81,36.913,38.233,46.117,27.184,5.112,9.013,5.768
177,0.81,37.057,38.231,46.117,27.184,5.193,9.054,5.85
178,0.803,37.183,38.294,46.117,27.181,5.275,8.932,5.729
179,0.81,36.647,38.213,46.117,27.177,5.113,8.809,5.646
180,0.794,36.728,38.27,46.098,27.177,5.152,8.808,5.767
181,0.81,36.902,38.216,46.117,27.177,5.153,8.848,5.768
182,0.807,36.999,38.192,46.108,27.181,5.153,8.767,5.728
183,0.816,36.694,38.262,46.098,27.181,5.031,8.726,5.605
184,0.813,36.825,38.247,46.079,27.177,5.151,8.726,5.686
185,0.81,36.979,38.317,46.126,27.184,5.193,8.888,5.809
186,0.829,37.086,38.256,46.146,27.191,5.234,8.849,5.769
187,0.817,36.589,38.255,46.108,27.191,5.153,8.849,5.728
188,0.813,36.747,38.212,46.108,27.177,5.112,8.849,5.809
189,0.813,36.902,38.231,46.117,27.184,5.193,8.849,5.769
190,0.813,36.99,38.294,46.108,27.184,5.194,8.93,5.809
191,0.813,36.713,38.255,46.108,27.184,5.153,8.85,5.647
192,0.8,36.825,38.185,46.079,27.17,5.031,8.808,5.727
193,0.8,37.018,38.184,46.117,27.184,5.111,8.848,5.687
194,0.807,37.068,38.274,46.098,27.181,5.152,8.889,5.727
195,0.803,36.646,38.247,46.088,27.177,5.071,8.849,5.687
196,0.8,36.805,38.271,46.107,27.181,5.07,8.889,5.646
197,0.8,36.951,38.283,46.117,27.184,5.193,8.93,5.767
198,0.813,37.048,38.314,46.136,27.188,5.194,9.012,5.728
199,0.784,36.598,38.252,46.127,27.184,5.153,8.85,5.727
200,0.797,36.805,38.232,46.108,27.188,5.153,8.808,5.727
201,0.797,36.922,38.298,46.098,27.184,5.234,8.808,5.727
202,0.803,37.134,38.174,46.098,27.184,5.235,8.848,5.768
203,0.807,36.609,38.145,46.136,27.174,5.113,8.686,5.565
204,0.794,36.747,38.203,46.089,27.177,5.193,8.684,5.685
205,0.793,36.883,38.216,46.098,27.181,5.153,8.603,5.687
206,0.806,36.702,38.262,46.098,27.181,5.071,8.602,5.646
207,0.8,36.719,38.185,46.098,27.177,5.152,8.521,5.605
208,0.803,36.863,38.309,46.079,27.17,5.112,8.479,5.726
209,0.813,37.009,38.318,46.136,27.188,5.315,8.723,5.809
210,0.816,36.598,38.232,46.117,27.184,5.195,8.563,5.647
211,0.82,36.67,38.321,46.108,27.181,5.234,8.48,5.686
212,0.807,36.825,38.17,46.108,27.184,5.235,8.479,5.727
213,0.797,36.941,38.239,46.117,27.184,5.316,8.438,5.768
214,0.807,36.559,38.181,46.117,27.191,5.195,8.438,5.728
215,0.807,36.689,38.293,46.079,27.174,5.153,8.235,5.605
216,0.781,36.825,38.267,46.098,27.177,5.234,8.395,5.645
217,0.803,36.96,38.216,46.098,27.177,5.153,8.356,5.645
218,0.794,36.741,38.341,46.079,27.177,5.153,8.315,5.686
219,0.79,36.902,38.162,46.088,27.174,5.153,8.396,5.646
220,0.787,37.047,38.227,46.079,27.191,5.193,8.478,5.686
221,0.793,37.145,38.329,46.117,27.188,5.316,8.764,5.89
222,0.81,36.561,38.236,46.117,27.184,5.195,8.604,5.689
223,0.8,36.708,38.263,46.203,27.188,5.316,8.602,5.687
224,0.79,36.844,38.193,46.108,27.181,5.236,8.643,5.727
225,0.797,36.913,38.293,46.108,27.188,5.194,8.806,5.687
226,0.794,36.674,38.248,46.117,27.184,5.234,8.848,5.768
227,0.79,36.834,38.208,46.108,27.184,5.194,8.849,5.606
228,0.787,36.951,38.301,46.088,27.177,5.153,8.93,5.645
229,0.793,37.019,38.24,46.203,27.188,5.234,9.012,5.727
230,0.79,36.655,38.267,46.08,27.181,5.235,9.176,5.646
231,0.793,36.815,38.22,46.088,27.181,5.275,9.259,5.605
232,0.793,36.941,38.223,46.079,27.177,5.195,9.3,5.564
233,0.787,37.067,38.255,46.107,27.177,5.316,9.544,5.807
234,0.813,36.8,38.243,46.136,27.191,5.398,9.588,5.728
235,0.797,36.931,38.294,46.098,27.184,5.318,9.547,5.565
236,0.794,37.057,38.205,46.107,27.181,5.276,9.628,5.645
237,0.79,36.857,38.282,46.117,27.184,5.235,9.629,5.727
238,0.784,36.788,38.248,46.098,27.184,5.275,9.629,5.727
239,0.784,36.97,38.134,46.107,27.184,5.235,9.588,5.646
240,0.774,37.058,38.277,46.069,27.17,5.153,9.507,5.645
241,0.777,36.656,38.236,46.098,27.181,5.315,9.587,5.727
242,0.784,36.738,38.231,46.098,27.177,5.236,9.507,5.646
243,0.787,36.902,38.228,46.165,27.181,5.235,9.384,5.564
244,0.78,36.999,38.251,46.079,27.177,5.235,9.382,5.685
245,0.784,36.626,38.239,46.088,27.184,5.316,9.382,5.687
246,0.797,36.795,38.263,46.136,27.195,5.439,9.423,5.809
247,0.787,36.97,38.302,46.108,27.181,5.318,9.261,5.647
248,0.8,37.038,38.228,46.108,27.177,5.236,9.178,5.645
249,0.79,36.704,38.294,46.098,27.188,5.316,9.177,5.645
250,0.79,36.844,38.213,46.117,27.188,5.317,9.137,5.727
251,0.8,37.028,38.29,46.117,27.188,5.236,9.014,5.605
252,0.787,37.068,38.158,46.06,27.17,5.153,8.891,5.523
253,0.78,36.848,38.219,46.078,27.181,5.234,8.849,5.685
254,0.79,37.037,38.294,46.088,27.181,5.194,8.808,5.687
255,0.78,37.154,38.259,46.088,27.181,5.153,8.726,5.564
256,0.774,37.232,38.263,46.059,27.177,5.193,8.603,5.563
257,0.774,36.696,38.259,46.088,27.177,5.194,8.643,5.645
258,0.787,36.921,38.255,46.136,27.198,5.316,8.725,5.767
259,0.79,37.048,38.232,46.175,27.184,5.236,8.563,5.728
260,0.78,37.078,38.216,46.099,27.184,5.194,8.561,5.727
261,0.777,36.829,38.302,46.098,27.181,5.234,8.48,5.727
262,0.784,36.999,38.244,46.117,27.195,5.275,8.438,5.768
263,0.79,37.135,38.22,46.117,27.188,5.235,8.357,5.687
264,0.784,37.174,38.259,46.079,27.181,5.113,8.234,5.524
265,0.774,36.801,38.236,46.079,27.181,5.193,8.192,5.603
266,0.79,37.008,38.247,46.098,27.181,5.153,8.151,5.686
267,0.79,37.125,38.294,46.098,27.184,5.153,8.191,5.646
268,0.784,36.954,38.255,46.088,27.181,5.112,8.151,5.564
269,0.78,36.827,38.271,46.079,27.174,5.112,8.028,5.645
270,0.793,36.999,38.208,46.098,27.188,5.315,8.231,5.767
271,0.8,37.154,38.309,46.117,27.191,5.236,8.07,5.728
272,0.794,36.906,38.123,46.108,27.181,5.194,8.109,5.809
273,0.784,36.971,38.246,46.108,27.188,5.194,8.028,5.728
274,0.784,37.134,38.302,46.098,27.181,5.234,7.946,5.768
275,0.787,37.251,38.291,46.107,27.191,5.235,8.026,5.728
276,0.777,36.773,38.283,46.098,27.177,5.194,7.865,5.605
277,0.774,36.873,38.173,46.079,27.174,5.031,7.822,5.686
278,0.774,37.038,38.293,46.088,27.181,5.233,7.781,5.646
279,0.774,37.145,38.22,46.146,27.181,5.194,7.781,5.727
280,0.767,36.8,38.2,46.079,27.181,5.153,7.7,5.646
281,0.767,36.941,38.309,46.069,27.177,5.193,7.618,5.727
282,0.774,37.096,38.189,46.107,27.191,5.316,7.739,5.89
283,0.797,37.232,38.25,46.165,27.188,5.195,7.659,5.77
284,0.784,36.849,38.294,46.099,27.181,5.234,7.658,5.768
285,0.78,36.999,38.294,46.098,27.181,5.194,7.617,5.728
286,0.784,37.154,38.275,46.136,27.184,5.234,7.617,5.809
287,0.784,37.222,38.24,46.117,27.191,5.235,7.617,5.769
288,0.784,36.859,38.29,46.069,27.177,5.153,7.413,5.647
289,0.774,36.989,38.107,46.078,27.184,5.153,7.411,5.645
290,0.8,37.173,38.222,46.098,27.184,5.275,7.493,5.645
291,0.797,37.213,38.317,46.098,27.181,5.235,7.494,5.605
292,0.787,36.811,38.17,46.06,27.177,5.113,7.453,5.645
293,0.787,36.97,38.172,46.126,27.177,5.112,7.534,5.645
294,0.79,37.154,38.2,46.117,27.191,5.356,7.697,5.849
295,0.8,37.184,38.27,46.117,27.184,5.317,7.496,5.769
296,0.784,36.887,38.298,46.088,27.188,5.236,7.575,5.647
297,0.787,37.066,38.216,46.088,27.184,5.235,7.575,5.727
298,0.774,37.183,38.313,46.107,27.184,5.316,7.657,5.809
299,0.777,37.194,38.146,46.117,27.184,5.317,7.617,5.728
300,0.777,37.022,38.207,46.088,27.177,5.154,7.535,5.605
301,0.78,37.173,38.317,46.059,27.17,5.153,7.616,5.686
302,0.784,37.299,38.217,46.097,27.188,5.275,7.698,5.727
303,0.784,36.84,38.181,46.098,27.181,5.276,7.658,5.687
304,0.784,36.788,38.176,46.088,27.177,5.195,7.698,5.687
305,0.771,36.97,38.266,46.079,27.191,5.234,7.821,5.687
306,0.79,37.106,38.275,46.107,27.195,5.438,7.985,5.89
307,0.793,36.858,38.232,46.117,27.188,5.359,7.946,5.689
308,0.793,36.951,38.298,46.088,27.184,5.277,7.864,5.727
309,0.803,37.115,38.142,46.107,27.181,5.316,7.944,5.727
310,0.781,37.213,38.25,46.108,27.188,5.317,7.945,5.768
311,0.797,36.792,38.306,46.108,27.188,5.317,7.986,5.687
312,0.79,36.902,38.201,46.069,27.17,5.317,7.783,5.483
313,0.767,37.057,38.247,46.155,27.177,5.317,7.781,5.725
314,0.787,37.174,38.185,46.089,27.184,5.276,7.862,5.646
315,0.784,36.714,38.254,46.079,27.181,5.276,7.822,5.645
316,0.774,36.882,38.294,46.088,27.177,5.235,7.741,5.645
317,0.767,37.047,38.181,46.088,27.177,5.316,7.821,5.686
318,0.78,37.154,38.286,46.117,27.191,5.52,7.944,5.768
319,0.784,36.858,38.166,46.098,27.181,5.319,7.823,5.647
320,0.771,37.028,38.274,46.107,27.181,5.358,7.822,5.686
321,0.78,37.145,38.236,46.098,27.184,5.399,7.781,5.687
322,0.777,37.213,38.298,46.107,27.188,5.399,7.822,5.768
323,0.787,36.753,38.232,46.117,27.184,5.358,7.7,5.728
324,0.78,36.902,38.192,46.079,27.17,5.236,7.618,5.565
325,0.771,37.019,38.258,46.098,27.181,5.357,7.617,5.645
326,0.783,37.077,38.181,46.098,27.177,5.317,7.576,5.605
327,0.787,36.685,38.247,46.088,27.181,5.276,7.535,5.645
328,0.79,36.834,38.294,46.098,27.177,5.357,7.534,5.645
329,0.784,36.98,38.185,46.079,27.181,5.317,7.534,5.645
330,0.8,37.182,38.301,46.107,27.198,5.48,7.657,5.767
331,0.807,36.772,38.263,46.098,27.188,5.359,7.617,5.647
332,0.79,36.902,38.271,46.079,27.181,5.358,7.576,5.686
333,0.784,37.038,38.177,46.098,27.188,5.399,7.616,5.687
334,0.79,36.771,38.231,46.098,27.184,5.44,7.657,5.687
335,0.784,36.749,38.341,46.098,27.184,5.44,7.658,5.687
336,0.777,36.902,38.236,46.098,27.177,5.359,7.576,5.524
337,0.764,37.019,38.247,46.079,27.174,5.317,7.616,5.644
338,0.774,36.636,38.216,46.088,27.181,5.358,7.739,5.645
339,0.771,36.709,38.239,46.098,27.181,5.317,7.74,5.605
340,0.774,36.873,38.161,46.079,27.177,5.317,7.699,5.564
341,0.774,36.999,38.281,46.088,27.177,5.317,7.78,5.645
342,0.777,36.559,38.294,46.098,27.188,5.439,7.944,5.727
343,0.8,36.737,38.162,46.136,27.191,5.481,7.945,5.687
344,0.79,36.883,38.215,46.098,27.181,5.359,7.945,5.646
345,0.78,36.961,38.278,46.117,27.184,5.358,7.986,5.645
346,0.79,36.453,38.216,46.108,27.181,5.439,7.986,5.605
347,0.784,36.631,38.298,46.127,27.188,5.359,7.986,5.645
348,0.79,36.786,38.24,46.108,27.184,5.399,7.986,5.645
349,0.78,36.835,38.208,46.079,27.17,5.155,7.946,5.483
350,0.78,36.443,38.262,46.088,27.184,5.356,8.026,5.603
351,0.797,36.611,38.271,46.107,27.177,5.277,7.946,5.564
352,0.787,36.747,38.216,46.088,27.177,5.316,7.864,5.563
353,0.774,36.835,38.165,46.203,27.181,5.276,7.863,5.523
354,0.777,36.548,38.254,46.089,27.181,5.316,7.904,5.563
355,0.774,36.737,38.31,46.117,27.191,5.398,8.026,5.766
356,0.79,36.902,38.232,46.117,27.188,5.318,7.946,5.728
357,0.767,36.932,38.27,46.088,27.181,5.236,7.986,5.605
358,0.78,36.472,38.255,46.098,27.188,5.316,8.027,5.726
359,0.78,36.659,38.204,46.098,27.188,5.317,8.027,5.646
360,0.78,36.796,38.266,46.098,27.184,5.358,8.109,5.686
361,0.777,36.998,38.236,46.079,27.181,5.155,8.069,5.483
362,0.777,36.377,38.243,46.069,27.177,5.234,8.109,5.603
363,0.79,36.582,38.122,46.098,27.177,5.275,8.15,5.645
364,0.784,36.709,38.195,46.107,27.184,5.276,8.191,5.564
365,0.787,36.518,38.282,46.069,27.181,5.195,8.314,5.604
366,0.78,36.487,38.209,46.069,27.181,5.234,8.437,5.645
367,0.797,36.66,38.313,46.098,27.184,5.316,8.641,5.808
368,0.797,36.824,38.244,46.117,27.191,5.317,8.725,5.728
369,0.797,36.26,38.208,46.098,27.184,5.276,8.807,5.687
370,0.79,36.341,38.266,46.098,27.184,5.235,8.808,5.646
371,0.793,36.495,38.236,46.098,27.191,5.316,8.93,5.727
372,0.79,36.602,38.294,46.098,27.188,5.317,9.012,5.687
373,0.787,36.268,38.131,46.098,27.184,5.236,8.891,5.605
374,0.774,36.379,38.254,46.079,27.174,5.194,8.809,5.523
375,0.777,36.553,38.228,46.098,27.188,5.234,8.848,5.644
376,0.774,36.641,38.267,46.088,27.184,5.235,8.93,5.645
377,0.78,36.191,38.279,46.098,27.174,5.153,8.85,5.523
378,0.767,36.311,38.255,46.079,27.177,5.234,8.889,5.563
379,0.774,36.466,38.232,46.088,27.181,5.235,8.89,5.726
380,0.78,36.592,38.208,46.136,27.195,5.397,8.971,5.809
381,0.79,36.363,38.317,46.098,27.181,5.236,8.891,5.728
382,0.787,36.505,38.217,46.117,27.181,5.235,8.768,5.687
383,0.8,36.66,38.2,46.117,27.181,5.235,8.807,5.646
384,0.807,36.757,38.18,46.127,27.188,5.235,8.848,5.727
385,0.8,36.269,38.282,46.098,27.188,5.194,8.727,5.687
386,0.81,36.446,38.298,46.079,27.181,5.072,8.603,5.564
387,0.803,36.535,38.263,46.098,27.184,5.193,8.684,5.685
388,0.836,36.641,38.337,46.107,27.181,5.153,8.725,5.687
389,0.849,36.048,38.209,46.175,27.181,5.234,8.563,5.687
390,0.849,36.205,38.231,46.089,27.181,5.194,8.521,5.605
391,0.846,36.331,38.224,46.098,27.177,5.234,8.642,5.645
392,0.849,36.399,38.208,46.136,27.188,5.357,8.847,5.889
393,0.872,36.199,38.262,46.117,27.188,5.236,8.727,5.729
394,0.863,36.35,38.224,46.088,27.188,5.235,8.807,5.727
395,0.869,36.457,38.286,46.127,27.181,5.275,8.93,5.768
396,0.863,36.305,38.244,46.127,27.181,5.195,9.012,5.687
397,0.866,36.178,38.282,46.108,27.184,5.316,9.094,5.646
398,0.879,36.321,38.236,46.098,27.181,5.114,9.095,5.605
399,0.872,36.428,38.157,46.069,27.17,5.112,9.176,5.767
400,0.889,35.988,38.242,46.107,27.184,5.193,9.259,5.728
401,0.889,36.022,38.259,46.117,27.181,5.194,9.3,5.687
402,0.889,36.166,38.259,46.088,27.181,5.153,9.301,5.646
403,0.892,36.302,38.161,46.088,27.177,5.193,9.341,5.727
404,0.905,36.015,38.219,46.127,27.191,5.397,9.504,5.768
405,0.905,36.137,38.333,46.117,27.184,5.236,9.425,5.768
406,0.908,36.282,38.225,46.117,27.181,5.153,9.383,5.809
407,0.915,36.399,38.263,46.108,27.181,5.275,9.382,5.81
408,0.928,35.92,38.318,46.108,27.188,5.276,9.423,5.81
409,0.944,36.088,38.193,46.108,27.195,5.316,9.424,5.769
410,0.938,36.243,38.262,46.079,27.181,5.154,9.261,5.647
411,0.932,36.312,38.212,46.098,27.181,5.234,9.381,5.727
412,0.938,35.948,38.294,46.098,27.181,5.235,9.261,5.768
413,0.941,36.108,38.095,46.098,27.181,5.153,9.259,5.728
414,0.958,36.272,38.23,46.098,27.181,5.112,9.219,5.727
415,0.961,36.351,38.298,46.088,27.177,5.193,9.178,5.809
416,0.964,35.901,38.201,46.136,27.191,5.316,9.299,5.972
417,0.99,36.088,38.274,46.127,27.191,5.236,9.178,5.771
418,0.978,36.215,38.244,46.098,27.181,5.235,9.137,5.85
419,0.977,36.264,38.189,46.117,27.177,5.235,9.136,5.81
420,0.984,35.881,38.262,46.136,27.188,5.316,9.095,5.891
421,0.984,36.03,38.263,46.117,27.195,5.317,9.095,5.892
422,0.984,36.166,38.279,46.098,27.177,5.195,8.851,5.689
423,0.968,36.158,38.142,46.088,27.177,5.234,9.011,5.768
424,0.977,35.822,38.254,46.098,27.181,5.194,8.932,5.85
425,0.974,35.982,38.239,46.107,27.177,5.194,8.972,5.81
426,0.981,36.098,38.263,46.088,27.181,5.194,8.972,5.728
427,0.977,36.052,38.322,46.088,27.181,5.194,8.891,5.768
428,0.984,35.859,38.267,46.117,27.191,5.316,9.174,5.972
429,0.987,36.049,38.208,46.127,27.195,5.317,9.015,5.811
430,0.968,36.138,38.188,46.098,27.184,5.236,8.932,5.769
431,0.958,35.745,38.293,46.098,27.184,5.275,9.012,5.85
432,0.951,35.78,38.255,46.098,27.188,5.316,8.972,5.81
433,0.941,35.962,38.2,46.107,27.188,5.317,9.053,5.972
434,0.932,36.07,38.27,46.127,27.184,5.276,8.973,5.852
435,0.922,35.716,38.189,46.069,27.174,5.195,8.769,5.769
436,0.915,35.818,38.29,46.107,27.188,5.316,8.848,5.809
437,0.918,36.011,38.271,46.108,27.184,5.276,8.767,5.85
438,0.912,36.118,38.228,46.088,27.184,5.235,8.685,5.81
439,0.915,35.716,38.173,46.098,27.184,5.194,8.644,5.891
440,0.918,35.866,38.188,46.107,27.184,5.356,8.765,6.054
441,0.922,36.059,38.297,46.136,27.198,5.48,8.767,6.015
442,0.912,36.147,38.275,46.117,27.184,5.359,8.645,5.934
443,0.902,35.563,38.134,46.108,27.181,5.236,8.644,5.974
444,0.895,35.72,38.246,46.117,27.188,5.316,8.521,5.974
445,0.879,35.875,38.193,46.136,27.188,5.358,8.52,6.055
446,0.869,35.973,38.266,46.117,27.184,5.317,8.398,5.934
447,0.853,35.667,38.286,46.088,27.167,5.236,8.234,5.852
448,0.843,35.817,38.24,46.088,27.177,5.235,8.314,5.973
449,0.839,35.982,38.22,46.107,27.184,5.357,8.274,5.893
450,0.833,36.051,38.165,46.098,27.174,5.317,8.274,5.892
451,0.817,35.668,38.25,46.088,27.177,5.236,8.152,5.892
452,0.8,35.827,38.271,46.098,27.184,5.316,8.232,5.973
453,0.813,36.02,38.165,46.136,27.195,5.439,8.314,6.096
454,0.813,36.061,38.27,46.137,27.181,5.277,8.152,6.016
455,0.8,35.62,38.224,46.108,27.181,5.398,8.191,6.056
456,0.797,35.778,38.27,46.098,27.191,5.358,8.151,6.056
457,0.797,35.914,38.267,46.107,27.177,5.358,8.15,6.097
458,0.79,36.069,38.271,46.136,27.191,5.358,8.191,6.138
459,0.774,35.639,38.22,46.089,27.177,5.317,8.029,5.935
460,0.767,35.779,38.177,46.107,27.177,5.317,8.027,6.096
461,0.783,35.933,38.305,46.117,27.181,5.317,8.068,6.056
462,0.774,35.542,38.209,46.098,27.181,5.358,8.028,5.975
463,0.767,35.5,38.177,46.098,27.181,5.236,7.987,5.974
464,0.754,35.662,38.215,46.098,27.177,5.316,7.986,6.015
465,0.754,35.788,38.247,46.127,27.191,5.439,8.068,6.178
466,0.761,35.646,38.282,46.136,27.198,5.399,7.987,6.098
467,0.748,35.75,38.166,46.098,27.184,5.318,7.905,6.016
468,0.757,35.914,38.332,46.107,27.181,5.398,7.904,6.056
469,0.761,36.021,38.143,46.117,27.184,5.399,7.904,6.015
470,0.757,35.418,38.262,46.108,27.184,5.318,7.863,6.056
471,0.757,35.575,38.259,46.117,27.184,5.276,7.741,6.015
472,0.744,35.72,38.239,46.079,27.17,5.276,7.659,5.974
473,0.721,35.837,38.2,46.117,27.184,5.357,7.698,6.015
474,0.728,35.474,38.208,46.079,27.184,5.236,7.658,6.015
475,0.725,35.623,38.27,46.098,27.181,5.316,7.617,5.893
476,0.715,35.778,38.181,46.088,27.177,5.195,7.495,5.892
477,0.721,35.885,38.254,46.117,27.191,5.356,7.616,6.095
478,0.728,35.503,38.294,46.127,27.195,5.439,7.657,6.056
479,0.721,35.672,38.193,46.136,27.181,5.359,7.495,6.015
480,0.718,35.798,38.262,46.117,27.181,5.317,7.453,6.015
481,0.715,35.866,38.236,46.127,27.188,5.358,7.493,5.974
482,0.721,35.407,38.239,46.117,27.188,5.317,7.494,6.055
483,0.718,35.594,38.2,46.146,27.184,5.358,7.453,6.015
484,0.718,35.711,38.184,46.089,27.177,5.317,7.371,5.812
485,0.698,35.76,38.293,46.107,27.181,5.317,7.452,5.932
486,0.721,35.444,38.189,46.117,27.184,5.358,7.412,5.974
487,0.715,35.604,38.262,46.108,27.181,5.277,7.574,5.974
488,0.711,35.749,38.314,46.088,27.181,5.316,7.535,5.893
489,0.721,36.144,38.084,46.107,27.184,5.317,7.779,5.892
490,0.724,36.819,38.292,46.136,27.198,5.439,7.944,6.136
491,0.728,36.96,38.232,46.117,27.184,5.399,7.986,5.894
492,0.715,37.067,38.251,46.117,27.181,5.358,8.108,5.973
493,0.715,35.486,38.247,46.146,27.188,5.358,8.15,5.974
494,0.715,34.895,38.22,46.108,27.184,5.399,8.273,5.893
495,0.728,35.081,38.278,46.117,27.191,5.358,8.233,5.973
496,0.715,35.207,38.193,46.098,27.181,5.277,8.111,5.811
497,0.705,35.582,38.251,46.098,27.181,5.276,8.272,5.891
498,0.718,35.749,38.271,46.107,27.184,5.276,8.274,5.892
499,0.705,35.924,38.204,46.108,27.181,5.235,8.314,5.892
500,0.708,36.021,38.251,46.127,27.181,5.194,8.274,5.811
501,0.705,35.15,38.236,46.098,27.181,5.275,8.274,5.932
502,0.715,35.285,38.27,46.127,27.195,5.398,8.436,5.974
503,0.728,35.497,38.259,46.127,27.188,5.358,8.316,5.852
504,0.712,35.547,38.208,46.127,27.184,5.317,8.396,5.891
505,0.715,35.317,38.266,46.117,27.188,5.317,8.275,5.933
506,0.715,35.478,38.24,46.117,27.184,5.358,8.314,5.933
507,0.721,35.643,38.274,46.136,27.191,5.317,8.274,5.892
508,0.724,35.731,38.228,46.117,27.177,5.317,8.233,5.811
509,0.728,35.29,38.169,46.079,27.181,5.236,8.273,5.81
510,0.728,35.497,38.266,46.126,27.184,5.316,8.314,5.85
511,0.715,35.672,38.24,46.098,27.188,5.317,8.315,5.81
512,0.708,35.721,38.325,46.088,27.174,5.276,8.315,5.81
513,0.705,35.185,38.15,46.088,27.181,5.357,8.396,5.85
514,0.721,35.39,38.277,46.155,27.191,5.48,8.6,5.973
515,0.724,35.556,38.248,46.118,27.177,5.318,8.44,5.893
516,0.711,35.605,38.243,46.127,27.188,5.317,8.601,5.892
517,0.711,35.366,38.294,46.117,27.181,5.358,8.643,5.811
518,0.715,35.536,38.24,46.117,27.181,5.399,8.684,5.85
519,0.715,35.672,38.247,46.117,27.188,5.399,8.684,5.851
520,0.715,35.702,38.204,46.098,27.181,5.318,8.562,5.729
521,0.705,35.3,38.239,46.098,27.177,5.317,8.683,5.809
522,0.705,35.478,38.278,46.107,27.181,5.358,8.684,5.81
523,0.718,35.614,38.158,46.108,27.177,5.277,8.725,5.81
524,0.715,35.414,38.274,46.098,27.177,5.195,8.766,5.728
525,0.711,35.316,38.247,46.079,27.188,5.316,8.726,5.768
526,0.724,35.497,38.321,46.136,27.191,5.439,8.888,6.013
527,0.731,35.643,38.201,46.117,27.184,5.399,8.687,5.893
528,0.721,35.165,38.278,46.117,27.177,5.236,8.644,5.811
529,0.721,35.218,38.193,46.098,27.188,5.316,8.684,5.81
530,0.721,35.372,38.161,46.117,27.191,5.398,8.766,5.891
531,0.721,35.488,38.27,46.117,27.188,5.358,8.685,5.811
532,0.721,35.25,38.255,46.088,27.181,5.317,8.522,5.769
533,0.692,35.353,38.146,46.088,27.181,5.276,8.52,5.768
534,0.705,35.555,38.273,46.107,27.184,5.276,8.52,5.809
535,0.711,35.644,38.212,46.108,27.188,5.276,8.479,5.81
536,0.702,35.222,38.325,46.098,27.181,5.276,8.398,5.728
537,0.718,35.372,38.189,46.079,27.17,5.316,8.356,5.809
538,0.711,35.536,38.282,46.126,27.188,5.317,8.437,5.85
539,0.728,35.643,38.279,46.136,27.198,5.358,8.316,5.729
540,0.721,35.222,38.193,46.117,27.181,5.317,8.274,5.768
541,0.75,35.381,38.286,46.127,27.191,5.317,8.233,5.85
542,0.774,35.546,38.224,46.108,27.184,5.317,8.192,5.81
543,0.793,35.615,38.22,46.117,27.188,5.317,8.151,5.81
544,0.806,35.184,38.173,46.108,27.181,5.276,8.11,5.688
545,0.81,35.323,38.274,46.069,27.174,5.113,7.987,5.687
546,0.833,35.488,38.263,46.107,27.181,5.315,7.946,5.768
547,0.872,35.537,38.216,46.108,27.177,5.317,8.026,5.768
548,0.898,35.221,38.317,46.088,27.177,5.195,7.946,5.768
549,0.918,35.391,38.143,46.079,27.177,5.234,7.945,5.606
550,0.951,35.527,38.246,46.088,27.181,5.275,7.945,5.767
551,1.006,35.576,38.298,46.127,27.195,5.398,8.026,5.891
552,1.043,35.327,38.295,46.117,27.184,5.277,7.946,5.811
553,1.063,35.469,38.24,46.098,27.184,5.316,7.905,5.81
554,1.118,35.623,38.212,46.107,27.191,5.317,7.904,5.81
555,1.168,35.548,38.247,46.108,27.191,5.317,7.945,5.891
556,1.181,35.337,38.169,46.098,27.188,5.317,7.945,5.851
557,1.204,35.488,38.246,46.079,27.177,5.154,7.783,5.729
558,1.227,35.595,38.263,46.079,27.188,5.234,7.862,5.89
559,1.201,35.28,38.2,46.117,27.184,5.235,7.944,5.973
560,1.207,35.315,38.247,46.098,27.181,5.235,7.864,5.933
561,1.214,35.449,38.208,46.098,27.181,5.235,7.822,5.933
562,1.224,35.547,38.298,46.107,27.184,5.235,7.863,6.014
563,1.26,35.145,38.295,46.127,27.191,5.438,8.026,6.096
564,1.286,35.304,38.201,46.136,27.191,5.318,7.824,6.097
565,1.299,35.411,38.266,46.108,27.184,5.236,7.822,6.056
566,1.309,35.527,38.204,46.108,27.188,5.316,7.822,6.178
567,1.26,35.288,38.219,46.127,27.188,5.358,7.863,6.139
568,1.192,35.468,38.208,46.117,27.195,5.399,7.863,6.179
569,1.162,35.585,38.204,46.088,27.177,5.196,7.7,6.057
570,1.139,35.663,38.274,46.079,27.177,5.194,7.699,6.219
571,1.116,35.117,38.216,46.079,27.184,5.275,7.74,6.342
572,1.008,35.275,38.298,46.098,27.184,5.235,7.659,6.343
573,0.857,35.439,38.177,46.079,27.174,5.235,7.658,6.506
574,0.762,35.508,38.204,46.079,27.177,5.235,7.576,6.589
575,0.696,35.183,38.313,46.117,27.188,5.438,7.738,6.875
576,0.614,35.4,38.224,46.146,27.191,5.318,7.699,6.837
577,0.509,35.517,38.227,46.098,27.184,5.276,7.618,6.999
578,0.42,35.586,38.173,46.098,27.177,5.316,7.698,7.163
579,0.347,35.088,38.227,46.117,27.184,5.317,7.577,7.287
580,0.288,35.255,38.255,46.136,27.188,5.317,7.575,7.491
581,0.258,35.401,38.232,46.117,27.184,5.276,7.535,7.453
582,0.219,35.412,38.309,46.088,27.177,5.113,7.412,7.574
583,0.199,35.239,38.174,46.098,27.188,5.315,7.452,7.698
584,0.183,35.429,38.293,46.175,27.177,5.236,7.412,7.821
585,0.156,35.556,38.185,46.099,27.184,5.275,7.371,7.863
586,0.114,35.634,38.247,46.088,27.177,5.195,7.289,7.863
587,0.097,35.117,38.239,46.107,27.184,5.234,7.491,8.107
588,0.084,35.313,38.267,46.146,27.198,5.357,7.494,8.15
589,0.074,35.411,38.267,46.098,27.184,5.236,7.412,8.028
590,0.032,35.239,38.169,46.107,27.184,5.316,7.371,8.19
591,0.005,35.276,38.289,46.098,27.184,5.317,7.452,8.232
592,0.005,35.42,38.294,46.107,27.188,5.276,7.493,8.395
593,0.015,35.556,38.17,46.098,27.191,5.316,7.453,8.397
594,0.044,35.164,38.242,46.088,27.174,5.236,7.371,8.438
595,0.067,35.237,38.22,46.098,27.184,5.235,7.573,8.601
596,0.1,35.439,38.263,46.098,27.181,5.235,7.494,8.684
597,0.143,35.546,38.236,46.088,27.177,5.194,7.534,8.725
598,0.175,35.001,38.247,46.098,27.181,5.194,7.494,8.888
599,0.186,35.139,38.275,46.098,27.181,5.234,7.575,9.093
600,0.208,35.323,38.232,46.136,27.191,5.397,7.738,9.339
601,0.241,35.44,38.282,46.127,27.188,5.277,7.659,9.301
602,0.248,35.412,38.248,46.108,27.191,5.316,7.82,9.423
603,0.268,35.585,38.239,46.098,27.195,5.317,7.903,9.505
604,0.271,35.73,38.134,46.136,27.188,5.317,8.026,9.587
605,0.304,35.837,38.289,46.117,27.191,5.317,8.068,9.547
606,0.317,34.879,38.248,46.088,27.177,5.154,8.028,9.547
607,0.327,35.061,38.22,46.107,27.188,5.153,8.231,9.669
608,0.363,35.226,38.282,46.117,27.184,5.234,8.233,9.67
609,0.392,35.295,38.209,46.079,27.177,5.194,8.273,9.548
610,0.419,35.104,38.262,46.088,27.177,5.194,8.355,9.466
611,0.445,35.275,38.185,46.088,27.181,5.234,8.437,9.546
612,0.468,35.439,38.293,46.136,27.202,5.357,8.601,9.547
613,0.501,35.489,38.271,46.108,27.191,5.236,8.48,9.466
614,0.514,35.039,38.103,46.146,27.184,5.235,8.56,9.424
615,0.537,35.236,38.296,46.127,27.188,5.275,8.602,9.383
616,0.553,35.362,38.22,46.108,27.191,5.316,8.602,9.342
617,0.576,35.661,38.298,46.127,27.188,5.317,8.684,9.26
618,0.603,35.05,38.263,46.089,27.174,5.276,8.522,9.137
619,0.6,35.207,38.236,46.079,27.184,5.357,8.764,9.177
620,0.626,35.381,38.274,46.107,27.184,5.317,8.685,9.137
621,0.642,35.076,38.181,46.098,27.188,5.317,8.725,9.055
622,0.659,35.006,38.266,46.098,27.181,5.236,8.685,9.013
623,0.678,35.159,38.24,46.098,27.181,5.316,8.725,8.932
624,0.695,35.323,38.2,46.127,27.202,5.439,8.929,9.053
625,0.721,35.066,38.255,46.136,27.184,5.318,8.85,8.891
626,0.721,35.121,38.259,46.127,27.188,5.317,8.808,8.849
627,0.728,35.304,38.282,46.127,27.184,5.398,8.93,8.808
628,0.751,35.411,38.232,46.127,27.188,5.358,8.85,8.726
629,0.764,34.904,38.255,46.117,27.184,5.317,8.889,8.644
630,0.767,35.042,38.181,46.108,27.184,5.236,8.727,8.521
631,0.764,35.188,38.27,46.088,27.174,5.275,8.726,8.561
632,0.78,35.304,38.271,46.117,27.181,5.276,8.766,8.439
633,0.774,34.989,38.158,46.108,27.177,5.316,8.685,8.438
634,0.767,35.149,38.196,46.098,27.181,5.236,8.644,8.316
635,0.77,35.294,38.18,46.098,27.177,5.235,8.562,8.315
636,0.774,35.401,38.258,46.117,27.191,5.357,8.683,8.437
637,0.793,35.009,38.314,46.146,27.198,5.317,8.603,8.275
638,0.787,35.149,38.236,46.108,27.184,5.236,8.521,8.233
639,0.78,35.294,38.27,46.117,27.184,5.316,8.561,8.355
640,0.787,35.392,38.181,46.136,27.184,5.358,8.602,8.234
641,0.793,34.961,38.254,46.137,27.188,5.277,8.643,8.233
642,0.806,35.139,38.325,46.089,27.181,5.235,8.481,7.948
643,0.79,35.237,38.158,46.098,27.174,5.235,8.479,8.026
644,0.8,35.362,38.164,46.127,27.188,5.235,8.601,7.987
645,0.803,34.951,38.176,46.117,27.184,5.194,8.521,7.986
646,0.807,35.129,38.274,46.108,27.184,5.194,8.52,7.824
647,0.807,35.275,38.228,46.108,27.181,5.112,8.479,7.903
648,0.803,35.296,38.278,46.108,27.188,5.274,8.56,8.026
649,0.829,34.893,38.29,46.155,27.191,5.316,8.602,7.946
650,0.839,35.042,38.189,46.118,27.188,5.276,8.602,7.742
651,0.823,35.207,38.29,46.117,27.191,5.235,8.521,7.74
652,0.826,35.055,38.232,46.108,27.191,5.275,8.52,7.781
653,0.823,34.958,38.22,46.127,27.195,5.276,8.561,7.822
654,0.82,35.129,38.169,46.213,27.191,5.276,8.439,7.659
655,0.826,35.246,38.196,46.08,27.177,5.154,8.357,7.536
656,0.813,35.027,38.251,46.107,27.191,5.234,8.437,7.616
657,0.816,35.111,38.204,46.117,27.181,5.194,8.479,7.617
658,0.816,35.275,38.255,46.117,27.177,5.234,8.357,7.454
659,0.813,35.382,38.294,46.098,27.177,5.153,8.356,7.493
660,0.807,34.788,38.216,46.127,27.184,5.315,8.437,7.534
661,0.829,34.955,38.286,46.165,27.202,5.439,8.479,7.534
662,0.83,35.081,38.236,46.127,27.178,5.277,8.398,7.453
663,0.823,35.198,38.259,46.136,27.184,5.316,8.397,7.412
664,0.826,34.873,38.208,46.117,27.188,5.276,8.397,7.411
665,0.83,35.061,38.184,46.146,27.191,5.398,8.397,7.371
666,0.833,35.217,38.293,46.137,27.184,5.318,8.316,7.33
667,0.836,35.305,38.158,46.089,27.174,5.195,8.234,7.329
668,0.833,34.673,38.266,46.127,27.181,5.316,8.314,7.248
669,0.852,34.8,38.286,46.108,27.184,5.317,8.274,7.166
670,0.846,34.974,38.212,46.108,27.177,5.276,8.314,7.084
671,0.843,35.053,38.262,46.088,27.188,5.316,8.315,7.164
672,0.849,34.785,38.22,46.127,27.184,5.398,8.396,7.246
673,0.856,35.012,38.282,46.146,27.198,5.48,8.519,7.206
674,0.856,35.149,38.115,46.118,27.188,5.359,8.439,7.084
675,0.843,35.198,38.242,46.146,27.184,5.399,8.397,7.083
676,0.836,34.921,38.263,46.108,27.188,5.44,8.56,7.123
677,0.846,35.071,38.22,46.136,27.188,5.481,8.521,7.124
678,0.853,35.226,38.27,46.127,27.191,5.44,8.561,6.961
679,0.836,35.237,38.29,46.108,27.174,5.277,8.399,6.878
680,0.839,34.72,38.193,46.117,27.188,5.357,8.56,6.918
681,0.852,34.897,38.254,46.127,27.191,5.317,8.521,6.878
682,0.849,35.023,38.243,46.108,27.184,5.439,8.561,6.796
683,0.853,34.986,38.259,46.098,27.181,5.359,8.48,6.795
684,0.856,34.823,38.173,46.107,27.181,5.439,8.601,6.917
685,0.862,35.032,38.207,46.136,27.198,5.562,8.643,6.959
686,0.859,35.149,38.298,46.137,27.188,5.401,8.562,6.838
687,0.856,34.719,38.177,46.137,27.188,5.399,8.521,6.796
688,0.862,34.743,38.266,46.117,27.188,5.44,8.52,6.795
689,0.872,34.887,38.247,46.127,27.188,5.481,8.561,6.795
690,0.876,35.033,38.208,46.136,27.191,5.481,8.48,6.673
691,0.869,34.727,38.317,46.098,27.181,5.318,8.276,6.55
692,0.863,34.859,38.189,46.107,27.181,5.439,8.396,6.671
693,0.862,35.042,38.219,46.117,27.181,5.44,8.316,6.591
694,0.862,35.14,38.177,46.194,27.181,5.44,8.274,6.631
695,0.869,34.604,38.293,46.108,27.181,5.318,8.314,6.631
696,0.859,34.752,38.287,46.117,27.177,5.398,8.396,6.59
697,0.862,34.935,38.22,46.136,27.195,5.521,8.438,6.712
698,0.866,35.052,38.274,46.127,27.181,5.482,8.316,6.591
699,0.859,34.718,38.22,46.089,27.188,5.44,8.274,6.59
700,0.866,34.897,38.235,46.127,27.181,5.44,8.274,6.549
701,0.869,35.062,38.294,46.127,27.184,5.481,8.355,6.63
702,0.882,35.14,38.263,46.117,27.188,5.522,8.356,6.509
703,0.879,34.546,38.255,46.079,27.174,5.319,8.193,6.345
704,0.869,34.694,38.138,46.098,27.184,5.48,8.354,6.466
705,0.889,34.858,38.219,46.098,27.188,5.481,8.275,6.426
706,0.889,34.927,38.278,46.088,27.184,5.4,8.193,6.426
707,0.885,34.707,38.216,46.098,27.177,5.399,8.273,6.385
708,0.892,34.868,38.282,46.098,27.181,5.399,8.314,6.385
709,0.899,35.052,38.24,46.127,27.198,5.602,8.437,6.507
710,0.902,35.101,38.271,46.108,27.195,5.482,8.235,6.427
711,0.892,34.623,38.216,46.098,27.195,5.44,8.314,6.385
712,0.899,34.771,38.29,46.088,27.181,5.44,8.274,6.425
713,0.899,34.916,38.24,46.107,27.188,5.481,8.193,6.385
714,0.882,35.081,38.208,46.127,27.188,5.522,8.192,6.385
715,0.879,34.632,38.262,46.069,27.17,5.36,8.029,6.263
716,0.876,34.8,38.224,46.088,27.188,5.48,8.109,6.302
717,0.885,34.936,38.247,46.098,27.191,5.44,8.069,6.18
718,0.895,34.63,38.259,46.098,27.177,5.44,8.028,6.179
719,0.882,34.608,38.251,46.069,27.181,5.359,7.987,6.22
720,0.882,34.781,38.216,46.098,27.184,5.48,8.108,6.342
721,0.895,34.936,38.274,46.127,27.198,5.562,8.109,6.425
722,0.915,34.544,38.322,46.108,27.191,5.482,7.987,6.344
723,0.905,34.607,38.189,46.108,27.188,5.44,7.946,6.221
724,0.905,34.79,38.18,46.098,27.184,5.481,7.945,6.22
725,0.908,34.898,38.149,46.098,27.191,5.481,7.945,6.261
726,0.915,34.505,38.262,46.098,27.191,5.44,7.864,6.302
727,0.905,34.655,38.251,46.079,27.177,5.318,7.741,6.099
728,0.892,34.781,38.243,46.079,27.181,5.439,7.862,6.26
729,0.915,34.888,38.247,46.079,27.181,5.481,7.782,6.18
730,0.918,34.467,38.224,46.088,27.184,5.4,7.781,6.139
731,0.918,34.616,38.298,46.107,27.181,5.318,7.74,6.098
732,0.909,34.762,38.205,46.069,27.177,5.317,7.699,6.138
733,0.912,34.859,38.219,46.088,27.195,5.48,7.943,6.341
734,0.922,34.563,38.259,46.127,27.198,5.562,7.783,6.14
735,0.915,34.684,38.232,46.098,27.188,5.401,7.781,6.179
736,0.909,34.829,38.255,46.079,27.188,5.48,7.781,6.22
737,0.918,34.898,38.185,46.098,27.188,5.481,7.862,6.18
738,0.918,34.477,38.282,46.107,27.195,5.481,7.782,6.301
739,0.918,34.626,38.267,46.088,27.184,5.44,7.74,6.14
740,0.912,34.762,38.224,46.069,27.174,5.318,7.781,6.179
741,0.918,34.821,38.274,46.088,27.184,5.398,7.862,6.179
742,0.931,34.562,38.24,46.088,27.184,5.358,7.782,6.179
743,0.935,34.723,38.251,46.059,27.181,5.358,7.74,6.179
744,0.925,34.859,38.169,46.078,27.181,5.358,7.74,6.057
745,0.931,35.148,38.161,46.079,27.177,5.399,7.781,6.259
746,0.944,34.565,38.262,46.117,27.195,5.562,7.903,6.343
747,0.954,34.742,38.2,46.117,27.191,5.401,7.823,6.14
748,0.941,34.859,38.247,46.108,27.188,5.318,7.781,6.138
749,0.948,34.687,38.247,46.088,27.188,5.398,7.74,6.219
750,0.951,34.657,38.224,46.098,27.188,5.48,7.74,6.302
751,0.958,34.819,38.305,46.098,27.188,5.44,7.74,6.18
752,0.945,34.927,38.217,46.069,27.181,5.318,7.577,6.098
753,0.935,34.439,38.22,46.078,27.184,5.439,7.616,6.26
754,0.948,34.549,38.153,46.194,27.188,5.399,7.617,6.221
755,0.948,34.723,38.25,46.099,27.184,5.399,7.617,6.18
756,0.948,34.82,38.286,46.088,27.184,5.358,7.535,6.098
757,0.945,34.38,38.177,46.079,27.177,5.317,7.534,6.138
758,0.948,34.529,38.266,46.088,27.191,5.48,7.657,6.301
759,0.961,34.713,38.212,46.136,27.202,5.481,7.617,6.262
760,0.955,34.81,38.278,46.098,27.188,5.4,7.535,6.221
761,0.958,34.389,38.193,46.127,27.181,5.399,7.494,6.261
762,0.968,34.548,38.286,46.098,27.184,5.44,7.494,6.221
763,0.968,34.684,38.294,46.117,27.188,5.399,7.494,6.22
764,0.977,34.791,38.146,46.127,27.191,5.44,7.494,6.139
765,0.971,34.37,38.254,46.079,27.177,5.237,7.371,6.098
766,0.968,34.538,38.185,46.088,27.188,5.357,7.452,6.178
767,0.977,34.713,38.247,46.117,27.188,5.317,7.452,6.139
768,0.984,34.772,38.29,46.098,27.188,5.358,7.412,6.098
769,0.991,34.399,38.216,46.069,27.177,5.317,7.371,6.056
770,0.991,34.567,38.259,46.088,27.184,5.398,7.452,6.178
771,0.994,34.751,38.212,46.117,27.198,5.521,7.574,6.261
772,1.0,34.82,38.255,46.108,27.188,5.441,7.372,6.139
773,0.987,34.495,38.2,46.088,27.188,5.399,7.452,6.179
774,0.987,34.674,38.106,46.136,27.184,5.44,7.452,6.261
775,0.997,34.829,38.273,46.117,27.195,5.399,7.452,6.139
776,1.007,34.86,38.263,46.108,27.184,5.399,7.412,6.098
777,0.997,34.467,38.263,46.108,27.177,5.318,7.289,5.975
778,0.984,34.626,38.212,46.098,27.184,5.317,7.451,6.137
779,0.991,34.762,38.262,46.107,27.184,5.358,7.412,6.138
780,0.997,34.629,38.247,46.088,27.188,5.317,7.371,6.016
781,0.997,34.522,38.216,46.098,27.177,5.317,7.37,6.056
782,0.991,34.674,38.286,46.098,27.181,5.358,7.289,6.137
783,1.02,34.829,38.232,46.146,27.198,5.521,7.41,6.219
784,1.033,34.457,38.161,46.108,27.191,5.36,7.371,6.098
785,1.017,34.501,38.274,46.108,27.191,5.439,7.289,6.138
786,1.023,34.684,38.247,46.108,27.191,5.481,7.329,6.179
787,1.043,34.81,38.294,46.127,27.191,5.481,7.37,6.139
788,1.04,34.495,38.224,46.127,27.195,5.4,7.33,6.098
789,1.037,34.607,38.243,46.089,27.177,5.318,7.207,5.853
790,1.037,34.742,38.263,46.088,27.181,5.317,7.328,6.054
791,1.053,34.887,38.236,46.117,27.188,5.358,7.329,6.015
792,1.04,34.572,38.274,46.088,27.177,5.358,7.37,5.974
793,1.04,34.732,38.119,46.098,27.177,5.317,7.289,5.933
794,1.053,34.897,38.258,46.127,27.184,5.317,7.329,6.014
795,1.056,35.014,38.279,46.127,27.195,5.52,7.37,6.218
796,1.06,34.602,38.244,46.136,27.202,5.482,7.37,6.058
797,1.056,34.752,38.169,46.117,27.191,5.481,7.248,6.056
798,1.056,34.897,38.196,46.098,27.191,5.4,7.41,6.097
799,1.056,34.985,38.286,46.117,27.191,5.399,7.411,6.056
800,1.06,34.717,38.127,46.136,27.191,5.48,7.371,6.097
801,1.06,34.906,38.254,46.098,27.188,5.359,7.452,5.975
802,1.056,35.014,38.302,46.079,27.181,5.317,7.493,6.055
803,1.073,35.101,38.259,46.117,27.184,5.398,7.575,5.975
804,1.086,34.891,38.232,46.108,27.184,5.358,7.575,5.974
805,1.083,35.071,38.216,46.098,27.188,5.236,7.657,5.974
806,1.083,35.226,38.235,46.088,27.184,5.316,7.82,6.015
807,1.092,35.276,38.306,46.136,27.198,5.439,7.985,6.137
808,1.102,35.2,38.232,46.127,27.184,5.359,7.946,6.016
809,1.102,35.324,38.29,46.098,27.191,5.399,7.945,6.015
810,1.106,35.469,38.197,46.117,27.191,5.358,7.945,5.974
811,1.106,35.441,38.258,46.098,27.184,5.399,7.986,6.015
812,1.102,35.288,38.22,46.107,27.188,5.399,7.986,5.974
813,1.096,35.411,38.286,46.079,27.184,5.236,7.824,5.771
814,1.089,35.527,38.232,46.088,27.177,5.316,7.985,5.972
815,1.115,35.605,38.208,46.107,27.191,5.317,7.864,5.974
816,1.106,35.682,38.258,46.088,27.181,5.358,7.944,5.933
817,1.112,35.827,38.197,46.079,27.184,5.277,7.742,5.852
818,1.109,35.943,38.223,46.079,27.184,5.316,7.862,5.973
819,1.115,35.906,38.282,46.117,27.195,5.48,8.026,6.096
820,1.128,36.088,38.212,46.146,27.195,5.44,7.865,5.975
821,1.122,36.195,38.274,46.098,27.191,5.44,7.822,5.974
822,1.122,36.292,38.224,46.107,27.191,5.399,7.863,5.974
823,1.125,35.747,38.231,46.108,27.188,5.44,7.822,5.974
824,1.132,35.914,38.196,46.117,27.191,5.44,7.741,5.893
825,1.135,36.069,38.188,46.108,27.191,5.318,7.618,5.851
826,1.129,36.128,38.274,46.079,27.181,5.358,7.657,5.932
827,1.135,36.157,38.13,46.107,27.191,5.358,7.617,5.933
828,1.148,36.321,38.258,46.098,27.191,5.358,7.535,5.892
829,1.145,36.437,38.247,46.107,27.181,5.317,7.534,5.77
830,1.145,36.506,38.224,46.079,27.181,5.317,7.494,5.891
831,1.148,36.315,38.278,46.098,27.198,5.439,7.656,5.973
832,1.158,36.514,38.287,46.136,27.195,5.44,7.576,5.974
833,1.148,36.612,38.22,46.098,27.188,5.359,7.575,5.893
834,1.155,36.699,38.192,46.107,27.184,5.358,7.616,5.973
835,1.155,36.489,38.258,46.108,27.184,5.358,7.576,5.933
836,1.148,36.65,38.255,46.117,27.198,5.439,7.535,5.974
837,1.155,36.786,38.204,46.117,27.191,5.318,7.534,5.811
838,1.148,36.787,38.29,46.069,27.181,5.276,7.575,5.85
839,1.158,36.797,38.181,46.107,27.188,5.316,7.82,5.932
840,1.142,36.95,38.223,46.098,27.184,5.317,7.944,5.933
841,1.145,37.077,38.2,46.107,27.177,5.317,7.986,5.811
842,1.152,37.279,38.294,46.098,27.181,5.276,8.108,5.85
843,1.152,36.984,38.181,46.098,27.188,5.357,8.354,5.973
844,1.161,37.192,38.258,46.146,27.205,5.399,8.397,5.852
845,1.168,37.29,38.275,46.118,27.188,5.318,8.356,5.851
846,1.165,37.099,38.205,46.108,27.191,5.276,8.478,5.932
847,1.168,37.126,38.266,46.127,27.188,5.357,8.56,5.892
848,1.168,37.289,38.201,46.117,27.198,5.399,8.683,5.892
849,1.158,37.396,38.208,46.108,27.188,5.318,8.684,5.892
850,1.161,37.273,38.247,46.088,27.177,5.195,8.603,5.77
851,1.161,37.387,38.239,46.107,27.184,5.234,8.684,5.768
852,1.145,37.541,38.267,46.088,27.184,5.275,8.644,5.809
853,1.139,37.639,38.15,46.098,27.181,5.235,8.644,5.932
854,1.142,37.285,38.25,46.079,27.184,5.235,8.562,5.811
855,1.132,37.444,38.282,46.098,27.184,5.357,8.683,5.891
856,1.138,37.609,38.189,46.127,27.198,5.317,8.766,5.973
857,1.135,37.707,38.262,46.108,27.184,5.195,8.645,5.811
858,1.122,37.516,38.208,46.127,27.191,5.234,8.644,5.85
859,1.119,37.648,38.231,46.127,27.184,5.316,8.725,5.81
860,1.109,37.822,38.274,46.127,27.188,5.317,8.726,5.932
861,1.109,37.92,38.24,46.117,27.191,5.276,8.685,5.933
862,1.106,37.729,38.267,46.098,27.177,5.113,8.522,5.77
863,1.096,37.861,38.13,46.107,27.184,5.193,8.601,5.809
864,1.099,38.045,38.187,46.146,27.184,5.194,8.602,5.81
865,1.089,38.104,38.223,46.108,27.181,5.234,8.562,5.85
866,1.079,37.817,38.192,46.098,27.188,5.153,8.561,5.729
867,1.076,37.987,38.27,46.088,27.184,5.153,8.521,5.85
868,1.076,38.132,38.204,46.117,27.198,5.234,8.723,5.973
869,1.092,38.201,38.212,46.117,27.195,5.316,8.644,5.811
870,1.073,37.923,38.243,46.117,27.188,5.195,8.644,5.85
871,1.066,38.074,38.239,46.108,27.181,5.275,8.644,5.81
872,1.053,38.21,38.302,46.108,27.191,5.316,8.684,5.932
873,1.053,38.499,38.158,46.117,27.195,5.276,8.684,5.933
874,1.05,38.061,38.231,46.108,27.184,5.154,8.644,5.77
875,1.027,38.181,38.13,46.079,27.174,5.112,8.684,5.809
876,1.02,38.336,38.262,46.088,27.195,5.193,8.684,5.85
877,1.017,38.174,38.259,46.107,27.184,5.194,8.725,5.81
878,1.014,38.124,38.224,46.088,27.184,5.194,8.726,5.85
879,0.997,38.287,38.231,46.088,27.184,5.194,8.726,5.81
880,0.987,38.413,38.192,46.117,27.195,5.316,8.888,5.932
881,0.997,38.146,38.297,46.146,27.195,5.358,8.809,5.933
882,0.987,38.191,38.279,46.108,27.191,5.277,8.767,5.933
883,0.984,38.336,38.158,46.108,27.188,5.276,8.726,5.933
884,0.971,38.471,38.223,46.098,27.191,5.316,8.766,5.892
885,0.971,38.099,38.2,46.117,27.191,5.317,8.726,5.933
886,0.974,38.239,38.294,46.136,27.191,5.236,8.685,5.852
887,0.958,38.374,38.201,46.089,27.181,5.153,8.603,5.769
888,0.945,38.453,38.286,46.107,27.184,5.234,8.643,5.809
889,0.945,38.242,38.177,46.117,27.191,5.194,8.603,5.85
890,0.945,38.394,38.2,46.088,27.184,5.194,8.521,5.81
891,0.945,38.539,38.294,46.069,27.184,5.112,8.439,5.769
892,0.932,38.608,38.201,46.078,27.188,5.152,8.479,5.809
893,0.918,38.158,38.192,46.117,27.198,5.234,8.52,6.013
894,0.931,38.364,38.278,46.117,27.188,5.194,8.398,5.852
895,0.912,38.452,38.248,46.117,27.188,5.153,8.356,5.851
896,0.912,38.53,38.259,46.127,27.188,5.234,8.356,5.851
897,0.902,38.272,38.177,46.108,27.191,5.194,8.315,5.932
898,0.895,38.451,38.305,46.146,27.195,5.234,8.274,5.933
899,0.899,38.568,38.209,46.108,27.188,5.194,8.152,5.811
900,0.882,38.589,38.235,46.088,27.181,5.072,7.988,5.81
901,0.876,38.282,38.286,46.107,27.191,5.152,8.068,5.769
902,0.885,38.432,38.24,46.108,27.184,5.153,7.987,5.85
903,0.879,38.559,38.243,46.098,27.181,5.153,7.946,5.81
904,0.869,38.579,38.173,46.136,27.181,5.071,7.905,5.81
905,0.866,38.205,38.25,46.117,27.191,5.233,7.945,5.972
906,0.885,38.412,38.278,46.165,27.195,5.275,7.945,5.933
907,0.869,38.51,38.259,46.099,27.191,5.195,7.864,5.77
908,0.863,38.387,38.318,46.098,27.188,5.153,7.822,5.891
909,0.866,38.318,38.17,46.117,27.191,5.153,7.944,5.892
910,0.866,38.481,38.25,46.117,27.191,5.234,8.026,5.851
911,0.859,38.588,38.286,46.098,27.184,5.113,7.865,5.688
912,0.846,38.205,38.189,46.079,27.177,5.071,8.026,5.809
913,0.846,38.297,38.176,46.098,27.188,5.152,8.109,5.81
914,0.846,38.471,38.168,46.107,27.184,5.153,8.109,5.81
915,0.843,38.559,38.223,46.088,27.184,5.071,8.109,5.728
916,0.833,38.147,38.298,46.098,27.184,5.152,8.15,5.85
917,0.833,38.306,38.193,46.117,27.198,5.275,8.313,5.973
918,0.836,38.5,38.301,46.136,27.188,5.154,8.274,5.811
919,0.83,38.521,38.205,46.108,27.191,5.153,8.314,5.891
920,0.826,38.185,38.227,46.108,27.191,5.153,8.356,5.811
921,0.83,38.336,38.286,46.127,27.195,5.234,8.397,5.932
922,0.83,38.481,38.228,46.127,27.188,5.194,8.397,5.852
923,0.826,38.549,38.208,46.089,27.177,5.072,8.275,5.688
924,0.813,38.08,38.173,46.088,27.184,5.111,8.396,5.809
925,0.829,38.258,38.254,46.107,27.191,5.193,8.438,5.769
926,0.823,38.403,38.271,46.098,27.188,5.153,8.438,5.85
927,0.836,38.472,38.185,46.088,27.184,5.112,8.438,5.729
928,0.82,38.137,38.262,46.088,27.184,5.03,8.479,5.85
929,0.83,38.306,38.146,46.117,27.195,5.273,8.723,5.973
930,0.836,38.481,38.277,46.136,27.205,5.235,8.644,5.73
931,0.826,38.482,38.251,46.098,27.188,5.072,8.603,5.809
932,0.826,38.06,38.161,46.117,27.188,5.193,8.602,5.81
933,0.826,38.238,38.188,46.136,27.191,5.153,8.562,5.891
934,0.826,38.374,38.215,46.137,27.195,5.193,8.602,5.892
935,0.83,38.395,38.286,46.098,27.184,5.153,8.521,5.689
936,0.81,38.05,38.291,46.079,27.177,5.071,8.52,5.809
937,0.813,38.248,38.22,46.117,27.181,5.111,8.52,5.85
938,0.813,38.384,38.294,46.098,27.188,5.152,8.439,5.769
939,0.816,38.261,38.134,46.098,27.181,5.071,8.357,5.728
940,0.81,38.077,38.168,46.088,27.181,5.07,8.397,5.768
941,0.813,38.239,38.258,46.117,27.188,5.193,8.438,5.891
942,0.823,38.374,38.251,46.146,27.205,5.316,8.479,5.892
943,0.82,38.031,38.247,46.137,27.188,5.154,8.357,5.851
944,0.813,38.075,38.247,46.117,27.184,5.193,8.275,5.81
945,0.82,38.239,38.263,46.127,27.188,5.194,8.274,5.891
946,0.83,38.336,38.302,46.136,27.191,5.194,8.193,5.933
947,0.823,38.011,38.205,46.117,27.191,5.194,8.11,5.811
948,0.826,38.084,38.266,46.117,27.177,5.112,8.069,5.769
949,0.83,38.21,38.126,46.098,27.188,5.234,8.069,5.85
950,0.826,38.345,38.203,46.098,27.184,5.235,8.028,5.81
951,0.82,37.858,38.243,46.079,27.181,5.153,7.987,5.81
952,0.817,37.997,38.208,46.098,27.188,5.071,7.946,5.769
953,0.813,38.161,38.184,46.098,27.184,5.233,7.945,5.891
954,0.826,38.278,38.208,46.146,27.205,5.316,8.067,5.973
955,0.826,37.876,38.301,46.089,27.191,5.276,7.946,5.852
956,0.823,38.006,38.22,46.117,27.188,5.276,7.783,5.891
957,0.82,38.171,38.255,46.108,27.188,5.316,7.822,5.811
958,0.82,38.23,38.278,46.127,27.198,5.358,7.863,5.891
959,0.826,37.77,38.224,46.117,27.188,5.317,7.782,5.851
960,0.823,37.938,38.235,46.108,27.184,5.195,7.578,5.729
961,0.813,38.055,38.216,46.098,27.188,5.275,7.657,5.85
962,0.823,38.133,38.262,46.088,27.191,5.235,7.698,5.81
963,0.817,37.76,38.134,46.079,27.188,5.194,7.658,5.769
964,0.826,37.909,38.215,46.079,27.181,5.234,7.495,5.728
965,0.817,38.074,38.294,46.088,27.188,5.275,7.616,5.809
966,0.829,38.114,38.213,46.127,27.202,5.357,7.861,5.972
967,0.843,37.855,38.282,46.117,27.191,5.277,7.66,5.811
968,0.833,37.977,38.201,46.098,27.181,5.235,7.617,5.81
969,0.843,38.113,38.215,46.107,27.191,5.316,7.657,5.81
970,0.836,38.181,38.247,46.088,27.184,5.317,7.658,5.85
971,0.843,37.751,38.275,46.098,27.191,5.276,7.739,5.851
972,0.833,37.9,38.279,46.069,27.191,5.154,7.618,5.729
973,0.823,37.997,38.099,46.078,27.177,5.275,7.657,5.768
974,0.826,37.749,38.23,46.088,27.191,5.195,7.658,5.809
975,0.823,37.746,38.212,46.079,27.184,5.234,7.658,5.728
976,0.826,37.9,38.196,46.079,27.184,5.194,7.617,5.687
977,0.813,37.997,38.247,46.079,27.177,5.194,7.576,5.727
978,0.833,37.614,38.232,46.088,27.195,5.316,7.738,5.809
979,0.843,37.745,38.239,46.117,27.198,5.317,7.699,5.81
980,0.83,37.871,38.251,46.098,27.188,5.317,7.618,5.81
981,0.826,37.978,38.275,46.098,27.188,5.317,7.535,5.85
982,0.836,37.729,38.29,46.088,27.191,5.317,7.616,5.769
983,0.839,37.871,38.17,46.107,27.195,5.358,7.535,5.809
984,0.833,38.016,38.254,46.098,27.184,5.195,7.412,5.647
985,0.826,38.085,38.216,46.06,27.181,5.234,7.452,5.645
986,0.843,37.433,38.216,46.088,27.191,5.316,7.452,5.767
987,0.836,37.59,38.27,46.098,27.188,5.236,7.412,5.647
988,0.833,37.735,38.212,46.098,27.181,5.235,7.371,5.727
989,0.836,37.804,38.212,46.069,27.181,5.235,7.37,5.687
990,0.843,37.354,38.196,46.098,27.191,5.316,7.411,5.768
991,0.853,37.56,38.333,46.127,27.205,5.52,7.33,5.809
992,0.849,37.677,38.303,46.089,27.195,5.319,7.289,5.728
993,0.833,37.736,38.127,46.107,27.191,5.358,7.288,5.809
994,0.833,37.458,38.262,46.108,27.191,5.399,7.288,5.85
995,0.843,37.628,38.232,46.098,27.191,5.358,7.247,5.769
996,0.836,37.774,38.243,46.107,27.191,5.358,7.288,5.728
997,0.833,37.804,38.263,46.06,27.177,5.236,7.085,5.565
998,0.826,37.421,38.216,46.088,27.191,5.316,7.245,5.685
999,0.826,37.59,38.231,46.088,27.184,5.276,7.247,5.687
1000,0.823,37.716,38.192,46.088,27.184,5.235,7.166,5.646
1001,0.826,38.034,38.235,46.088,27.181,5.235,7.206,5.686
1002,0.833,37.279,38.313,46.079,27.184,5.316,7.328,5.768
1003,0.846,37.454,38.209,46.117,27.198,5.48,7.451,5.809
1004,0.843,37.58,38.247,46.098,27.188,5.359,7.29,5.81
1005,0.843,37.419,38.161,46.107,27.188,5.399,7.329,5.728
1006,0.839,37.359,38.285,46.088,27.191,5.399,7.41,5.768
1007,0.839,37.541,38.271,46.107,27.191,5.358,7.411,5.809
1008,0.846,37.667,38.22,46.098,27.184,5.399,7.411,5.647
1009,0.843,37.199,38.247,46.06,27.177,5.236,7.33,5.645
1010,0.833,37.29,38.173,46.097,27.188,5.357,7.451,5.727
1011,0.849,37.444,38.27,46.098,27.184,5.317,7.493,5.768
1012,0.843,37.561,38.329,46.069,27.181,5.195,7.494,5.647
1013,0.833,37.092,38.147,46.059,27.181,5.234,7.616,5.686
1014,0.836,37.231,38.25,46.097,27.198,5.438,7.739,5.809
1015,0.839,37.425,38.204,46.127,27.202,5.399,7.781,5.728
1016,0.82,37.494,38.309,46.089,27.184,5.318,7.74,5.687
1017,0.826,37.082,38.26,46.098,27.188,5.317,7.781,5.687
1018,0.826,37.231,38.247,46.098,27.191,5.317,7.862,5.727
1019,0.83,37.386,38.267,46.107,27.191,5.317,7.822,5.809
1020,0.833,37.465,38.177,46.098,27.191,5.236,7.822,5.688
1021,0.813,37.111,38.25,46.06,27.181,5.194,7.741,5.646
1022,0.813,37.26,38.29,46.088,27.191,5.316,7.862,5.727
1023,0.82,37.415,38.209,46.088,27.181,5.236,7.904,5.646
1024,0.82,37.474,38.239,46.088,27.184,5.275,7.823,5.645
1025,0.82,36.967,38.192,46.069,27.174,5.154,7.822,5.686
1026,0.82,37.134,38.251,46.078,27.191,5.315,7.944,5.809
1027,0.83,37.309,38.247,46.126,27.205,5.398,7.986,5.81
1028,0.836,37.33,38.251,46.098,27.188,5.318,7.864,5.728
1029,0.836,36.85,38.212,46.079,27.184,5.195,7.863,5.687
1030,0.83,37.028,38.184,46.088,27.191,5.316,7.904,5.768
1031,0.836,37.154,38.305,46.098,27.188,5.276,7.863,5.768
1032,0.833,37.165,38.263,46.088,27.191,5.316,7.863,5.687
1033,0.826,36.887,38.158,46.079,27.177,5.154,7.741,5.605
1034,0.813,37.038,38.207,46.098,27.188,5.234,7.821,5.726
1035,0.82,37.173,38.239,46.088,27.184,5.275,7.822,5.687
1036,0.82,37.069,38.267,46.079,27.188,5.154,7.822,5.687
1037,0.817,36.972,38.177,46.079,27.181,5.153,7.741,5.727
1038,0.816,37.134,38.293,46.079,27.184,5.234,7.74,5.727
1039,0.81,37.261,38.24,46.117,27.195,5.357,7.943,5.89
1040,0.826,36.83,38.216,46.136,27.191,5.277,7.783,5.77
1041,0.813,36.845,38.298,46.089,27.188,5.276,7.74,5.728
1042,0.813,36.999,38.162,46.069,27.191,5.316,7.699,5.809
1043,0.82,37.115,38.223,46.107,27.195,5.358,7.658,5.769
1044,0.817,36.839,38.181,46.108,27.188,5.195,7.698,5.768
1045,0.82,36.96,38.282,46.098,27.188,5.234,7.577,5.687
1046,0.81,37.077,38.185,46.05,27.184,5.153,7.535,5.768
1047,0.82,37.203,38.274,46.097,27.191,5.153,7.534,5.809
1048,0.826,36.705,38.314,46.079,27.191,5.234,7.494,5.769
1049,0.823,36.854,38.139,46.079,27.188,5.113,7.453,5.647
1050,0.82,37.018,38.258,46.059,27.177,5.234,7.371,5.727
1051,0.813,37.116,38.247,46.088,27.188,5.235,7.492,5.85
1052,0.82,36.714,38.232,46.136,27.202,5.357,7.534,5.81
1053,0.817,36.854,38.185,46.089,27.191,5.317,7.372,5.769
1054,0.813,37.009,38.204,46.088,27.188,5.317,7.411,5.809
1055,0.82,37.077,38.262,46.098,27.191,5.317,7.371,5.81
1056,0.803,36.733,38.31,46.107,27.195,5.317,7.411,5.769
1057,0.813,36.921,38.256,46.088,27.188,5.276,7.371,5.728
1058,0.803,37.038,38.294,46.059,27.177,5.113,7.289,5.646
1059,0.803,37.097,38.154,46.088,27.188,5.234,7.41,5.767
1060,0.807,36.838,38.235,46.098,27.181,5.194,7.371,5.728
1061,0.803,37.008,38.298,46.079,27.181,5.234,7.411,5.768
1062,0.8,37.135,38.228,46.069,27.184,5.194,7.371,5.687
1063,0.81,37.155,38.2,46.088,27.184,5.234,7.452,5.809
1064,0.816,36.849,38.153,46.107,27.205,5.397,7.574,5.85
1065,0.82,36.999,38.297,46.079,27.188,5.155,7.535,5.81
1066,0.817,37.115,38.232,46.079,27.184,5.193,7.575,5.85
1067,0.81,37.002,38.239,46.088,27.191,5.234,7.535,5.851
1068,0.807,36.77,38.325,46.088,27.191,5.235,7.453,5.851
1069,0.813,36.931,38.158,46.098,27.195,5.235,7.452,5.729
1070,0.81,37.067,38.274,46.06,27.184,5.113,7.29,5.687
1071,0.81,36.685,38.216,46.059,27.188,5.234,7.41,5.768
1072,0.794,36.738,38.251,46.078,27.195,5.194,7.371,5.809
1073,0.8,36.902,38.185,46.088,27.184,5.153,7.37,5.688
1074,0.803,37.028,38.153,46.059,27.184,5.112,7.37,5.768
1075,0.787,36.665,38.258,46.069,27.181,5.112,7.37,5.728
1076,0.8,36.824,38.275,46.088,27.195,5.274,7.452,5.85
1077,0.807,37.027,38.224,46.098,27.195,5.276,7.371,5.729
1078,0.794,37.077,38.321,46.088,27.191,5.195,7.33,5.768
1079,0.78,36.781,38.185,46.098,27.195,5.275,7.329,5.809
1080,0.8,36.931,38.231,46.098,27.195,5.235,7.41,5.85
1081,0.803,37.096,38.298,46.098,27.191,5.316,7.289,5.81
1082,0.797,37.184,38.248,46.088,27.188,5.236,7.247,5.728
1083,0.784,36.609,38.15,46.059,27.177,5.032,7.206,5.768
1084,0.797,36.776,38.153,46.088,27.191,5.233,7.165,5.809
1085,0.803,36.921,38.238,46.079,27.191,5.194,7.206,5.769
1086,0.807,37.009,38.216,46.069,27.188,5.153,7.125,5.728
1087,0.803,36.79,38.208,46.059,27.188,5.153,7.083,5.768
1088,0.8,36.96,38.301,46.078,27.195,5.275,7.164,5.891
1089,0.803,37.134,38.138,46.117,27.198,5.398,7.328,5.892
1090,0.81,37.194,38.238,46.088,27.188,5.318,7.085,5.851
1091,0.807,36.763,38.274,46.079,27.191,5.236,7.083,5.851
1092,0.8,36.931,38.275,46.098,27.195,5.235,7.123,5.81
1093,0.8,37.076,38.162,46.098,27.195,5.235,7.124,5.972
1094,0.8,37.135,38.215,46.098,27.191,5.235,7.124,5.852
1095,0.797,36.8,38.262,46.06,27.184,5.153,6.839,5.729
1096,0.787,36.96,38.271,46.069,27.188,5.193,6.958,5.809
1097,0.797,37.106,38.24,46.078,27.188,5.194,7.0,5.81
1098,0.787,37.155,38.325,46.079,27.188,5.153,6.96,5.81
1099,0.797,36.82,38.158,46.059,27.184,5.153,6.96,5.81
1100,0.781,36.979,38.223,46.078,27.188,5.193,6.919,5.932
1101,0.79,37.125,38.22,46.107,27.195,5.397,7.081,6.055
1102,0.803,36.963,38.239,46.098,27.191,5.236,7.002,5.975
1103,0.8,36.981,38.255,46.088,27.191,5.194,6.96,5.893
1104,0.784,37.144,38.173,46.107,27.195,5.234,6.919,5.973
1105,0.8,37.251,38.258,46.098,27.195,5.316,6.919,5.933
1106,0.816,36.84,38.243,46.088,27.195,5.317,6.919,5.892
1107,0.787,36.893,38.247,46.079,27.174,5.114,6.756,5.811
1108,0.784,37.057,38.306,46.088,27.184,5.315,6.836,5.891
1109,0.793,37.174,38.111,46.079,27.188,5.236,6.918,5.933
1110,0.797,36.791,38.246,46.069,27.184,5.275,6.796,5.811
1111,0.794,36.931,38.216,46.069,27.177,5.276,6.714,5.81
1112,0.793,37.096,38.223,46.088,27.195,5.357,6.916,5.85
1113,0.803,37.232,38.231,46.127,27.202,5.521,6.919,6.054
1114,0.794,36.868,38.243,46.079,27.191,5.441,6.878,5.853
1115,0.787,37.028,38.274,46.079,27.191,5.318,6.837,5.891
1116,0.793,37.173,38.205,46.069,27.188,5.398,6.877,5.973
1117,0.787,37.261,38.251,46.098,27.191,5.44,6.918,5.974
1118,0.79,36.917,38.302,46.098,27.191,5.399,6.959,5.893
1119,0.78,37.057,38.154,46.06,27.177,5.277,6.756,5.811
1120,0.777,37.212,38.246,46.078,27.191,5.316,6.876,5.891
1121,0.787,37.29,38.235,46.079,27.191,5.439,7.0,5.973
1122,0.787,36.764,38.251,46.069,27.184,5.399,7.041,5.893
1123,0.79,36.921,38.232,46.059,27.184,5.399,6.96,5.851
1124,0.784,37.086,38.228,46.078,27.188,5.44,7.082,5.932
1125,0.8,37.145,38.282,46.117,27.202,5.603,7.205,5.974
1126,0.797,37.031,38.212,46.088,27.198,5.482,7.084,5.933
1127,0.794,37.164,38.262,46.098,27.195,5.4,7.123,5.933
1128,0.793,37.309,38.24,46.098,27.198,5.44,7.165,5.974
1129,0.79,37.636,38.251,46.088,27.191,5.521,7.165,5.893
1130,0.8,36.968,38.196,46.107,27.195,5.522,7.124,5.851
1131,0.79,37.106,38.239,46.05,27.184,5.319,7.083,5.729
1132,0.774,37.193,38.274,46.078,27.188,5.439,7.164,5.85
1133,0.777,37.674,38.138,46.079,27.184,5.44,7.206,5.891
1134,0.784,37.87,38.23,46.069,27.184,5.399,7.206,5.892
1135,0.784,37.997,38.208,46.069,27.188,5.399,7.165,5.811
1136,0.777,38.113,38.231,46.059,27.188,5.399,7.165,5.932
1137,0.78,36.532,38.263,46.107,27.198,5.562,7.368,6.014
1138,0.79,36.554,38.267,46.098,27.191,5.482,7.248,5.974
1139,0.774,36.708,38.228,46.088,27.188,5.44,7.328,5.852
1140,0.784,36.825,38.177,46.098,27.191,5.481,7.329,5.973
1141,0.774,36.999,38.27,46.088,27.191,5.481,7.329,5.933
1142,0.784,37.173,38.294,46.107,27.195,5.481,7.37,5.933
1143,0.787,37.309,38.107,46.098,27.188,5.359,7.248,5.811
1144,0.774,37.378,38.238,46.06,27.177,5.277,7.206,5.81
1145,0.79,36.87,38.247,46.078,27.198,5.438,7.287,5.972
1146,0.79,37.018,38.239,46.079,27.184,5.44,7.247,5.811
1147,0.787,37.183,38.251,46.079,27.184,5.277,7.206,5.85
1148,0.78,37.271,38.216,46.059,27.181,5.316,7.247,5.81
1149,0.777,36.869,38.212,46.097,27.191,5.398,7.328,5.932
1150,0.8,37.095,38.188,46.136,27.198,5.48,7.289,5.933
1151,0.8,37.174,38.278,46.069,27.191,5.359,7.247,5.933
1152,0.794,37.261,38.181,46.088,27.195,5.358,7.247,5.892
1153,0.774,37.003,38.122,46.098,27.195,5.439,7.206,5.851
1154,0.78,37.202,38.207,46.107,27.191,5.44,7.247,5.973
1155,0.784,37.319,38.231,46.098,27.195,5.44,7.166,5.852
1156,0.774,37.339,38.224,46.05,27.184,5.277,7.043,5.729
1157,0.774,36.927,38.266,46.088,27.195,5.398,7.245,5.89
1158,0.774,37.096,38.263,46.079,27.191,5.399,7.206,5.892
1159,0.767,37.203,38.247,46.079,27.191,5.399,7.165,5.892
1160,0.764,37.233,38.189,46.079,27.181,5.358,7.206,5.892
1161,0.77,37.032,38.258,46.088,27.191,5.48,7.328,5.973
1162,0.787,37.221,38.247,46.127,27.202,5.522,7.329,6.015
1163,0.784,37.329,38.157,46.079,27.198,5.441,7.289,5.974
1164,0.78,37.1,38.246,46.088,27.191,5.44,7.329,5.933
1165,0.78,36.982,38.208,46.098,27.191,5.44,7.41,5.974
1166,0.787,37.125,38.282,46.117,27.191,5.481,7.452,5.933
1167,0.787,37.27,38.22,46.088,27.195,5.481,7.29,5.892
1168,0.78,36.994,38.278,46.059,27.177,5.278,7.288,5.811
1169,0.777,37.067,38.189,46.069,27.191,5.398,7.41,5.85
1170,0.793,37.231,38.247,46.078,27.184,5.399,7.289,5.891
1171,0.793,37.338,38.314,46.059,27.188,5.399,7.41,5.892
1172,0.784,36.793,38.178,46.059,27.181,5.358,7.33,5.851
1173,0.777,36.922,38.161,46.069,27.188,5.399,7.37,5.973
1174,0.78,37.105,38.278,46.117,27.202,5.562,7.573,6.015
1175,0.787,37.193,38.244,46.098,27.191,5.36,7.413,5.852
1176,0.771,36.859,38.263,46.088,27.195,5.399,7.452,5.891
1177,0.774,37.018,38.185,46.098,27.191,5.358,7.412,5.892
1178,0.787,37.164,38.289,46.098,27.191,5.521,7.411,5.973
1179,0.78,37.271,38.209,46.088,27.195,5.36,7.371,5.852
1180,0.78,36.744,38.204,46.069,27.181,5.195,7.208,5.769
1181,0.767,36.902,38.297,46.078,27.184,5.316,7.328,5.85
1182,0.78,37.057,38.177,46.088,27.188,5.398,7.329,5.891
1183,0.787,37.126,38.184,46.069,27.191,5.358,7.248,5.851
1184,0.78,36.848,38.266,46.078,27.181,5.277,7.125,5.851
1185,0.767,37.008,38.216,46.079,27.184,5.357,7.165,5.932
1186,0.787,37.183,38.294,46.098,27.205,5.521,7.328,6.014
1187,0.8,37.252,38.255,46.098,27.195,5.36,7.167,5.934
1188,0.781,36.84,38.267,46.098,27.191,5.358,7.124,5.974
1189,0.797,37.018,38.185,46.098,27.191,5.358,7.246,5.852
1190,0.8,37.164,38.25,46.117,27.198,5.358,7.206,5.973
1191,0.787,37.203,38.224,46.108,27.188,5.358,7.206,5.893
1192,0.79,36.696,38.278,46.079,27.184,5.277,6.962,5.811
1193,0.777,36.825,38.24,46.059,27.184,5.316,7.0,5.891
1194,0.79,36.999,38.212,46.078,27.188,5.236,7.082,5.933
1195,0.78,36.981,38.262,46.069,27.184,5.275,6.961,5.852
1196,0.777,36.866,38.247,46.078,27.181,5.235,6.96,5.81
1197,0.774,37.018,38.263,46.059,27.181,5.275,6.96,5.891
1198,0.78,37.144,38.298,46.088,27.191,5.398,7.041,6.014
1199,0.787,36.705,38.154,46.107,27.202,5.44,6.96,5.974
1200,0.777,36.729,38.211,46.088,27.184,5.277,6.919,5.933
1201,0.78,36.873,38.184,46.098,27.188,5.357,6.919,5.933
1202,0.787,36.999,38.262,46.088,27.195,5.358,6.919,5.933
1203,0.79,36.636,38.208,46.107,27.198,5.358,6.919,5.974
1204,0.78,36.738,38.223,46.079,27.191,5.236,6.756,5.811
1205,0.767,36.864,38.302,46.059,27.177,5.275,6.876,5.932
1206,0.79,36.999,38.197,46.078,27.184,5.316,6.918,5.892
1207,0.787,36.598,38.266,46.079,27.195,5.276,6.878,5.811
1208,0.787,36.747,38.283,46.059,27.184,5.235,6.918,5.85
1209,0.787,36.873,38.216,46.059,27.181,5.235,6.959,5.851
1210,0.803,36.999,38.239,46.097,27.205,5.438,7.041,6.013
1211,0.81,36.444,38.208,46.098,27.202,5.318,7.001,5.934
1212,0.787,36.592,38.258,46.098,27.191,5.236,7.123,5.892
1213,0.777,36.737,38.204,46.088,27.191,5.316,7.043,5.973
1214,0.793,36.825,38.212,46.098,27.198,5.317,7.082,5.974
1215,0.787,36.606,38.27,46.098,27.198,5.317,7.164,5.893
1216,0.787,36.785,38.208,46.06,27.181,5.195,7.002,5.77
1217,0.767,36.893,38.258,46.069,27.191,5.234,7.204,5.891
1218,0.777,36.98,38.255,46.069,27.191,5.194,7.287,5.892
1219,0.777,36.425,38.189,46.069,27.195,5.194,7.247,5.851
1220,0.777,36.601,38.235,46.088,27.177,5.153,7.166,5.851
1221,0.767,36.728,38.189,46.069,27.184,5.153,7.246,5.973
1222,0.783,36.816,38.309,46.098,27.205,5.356,7.491,6.055
1223,0.793,36.519,38.178,46.079,27.195,5.277,7.29,5.975
1224,0.777,36.679,38.254,46.184,27.188,5.316,7.369,5.974
1225,0.784,36.796,38.271,46.099,27.191,5.276,7.37,5.974
1226,0.787,36.864,38.224,46.107,27.198,5.316,7.411,5.974
1227,0.79,36.529,38.29,46.098,27.191,5.276,7.289,5.933
1228,0.79,36.66,38.24,46.06,27.181,5.154,7.247,5.852
1229,0.78,36.776,38.185,46.069,27.191,5.315,7.288,5.973
1230,0.793,36.48,38.161,46.088,27.188,5.236,7.288,5.811
1231,0.787,36.477,38.285,46.059,27.191,5.275,7.247,5.891
1232,0.78,36.602,38.302,46.069,27.188,5.154,7.125,5.892
1233,0.774,36.728,38.115,46.098,27.191,5.315,7.287,5.973
1234,0.787,36.307,38.254,46.127,27.205,5.439,7.41,6.055
1235,0.777,36.389,38.208,46.089,27.195,5.237,7.208,5.975
1236,0.774,36.524,38.223,46.088,27.191,5.275,7.165,5.974
1237,0.777,36.67,38.259,46.098,27.191,5.276,7.165,5.974
1238,0.78,36.211,38.204,46.088,27.202,5.316,7.246,6.015
1239,0.787,36.379,38.231,46.107,27.188,5.236,7.125,5.893
1240,0.787,36.524,38.177,46.06,27.184,5.113,7.043,5.892
1241,0.761,36.603,38.266,46.088,27.191,5.274,7.123,5.933
1242,0.787,36.249,38.279,46.079,27.184,5.276,7.083,5.892
1243,0.784,36.389,38.158,46.079,27.184,5.195,7.042,5.892
1244,0.774,36.553,38.25,46.069,27.181,5.153,7.001,5.811
1245,0.78,36.603,38.169,46.088,27.188,5.234,7.041,5.932
1246,0.79,36.143,38.27,46.127,27.202,5.438,7.123,6.055
1247,0.79,36.321,38.279,46.108,27.191,5.277,6.921,5.893
1248,0.787,36.447,38.22,46.088,27.191,5.235,6.959,5.892
1249,0.793,36.515,38.231,46.088,27.191,5.316,6.96,5.851
1250,0.787,36.085,38.157,46.088,27.188,5.317,7.0,5.932
1251,0.797,36.253,38.25,46.079,27.202,5.358,6.879,5.974
1252,0.79,36.408,38.302,46.079,27.181,5.195,6.715,5.811
1253,0.774,36.41,38.174,46.059,27.181,5.275,6.957,5.891
1254,0.787,36.122,38.231,46.078,27.195,5.276,6.797,5.892
1255,0.777,36.292,38.181,46.079,27.191,5.235,6.836,5.851
1256,0.774,36.437,38.254,46.079,27.188,5.153,6.755,5.851
1257,0.774,36.755,38.193,46.079,27.188,5.234,6.754,5.891
1258,0.787,36.145,38.239,46.117,27.198,5.397,6.917,6.095
1259,0.797,36.311,38.274,46.127,27.191,5.318,6.796,5.853
1260,0.781,36.409,38.208,46.098,27.191,5.317,6.795,5.891
1261,0.777,36.199,38.262,46.098,27.191,5.317,6.714,5.933
1262,0.79,36.158,38.236,46.088,27.195,5.317,6.754,5.974
1263,0.793,36.33,38.255,46.098,27.198,5.317,6.714,5.933
1264,0.787,36.457,38.232,46.079,27.177,5.195,6.713,5.73
1265,0.784,35.94,38.196,46.059,27.181,5.275,6.713,5.809
1266,0.797,36.05,38.247,46.078,27.188,5.316,6.713,5.891
1267,0.797,36.224,38.193,46.079,27.191,5.276,6.672,5.892
1268,0.803,36.302,38.266,46.088,27.188,5.276,6.631,5.811
1269,0.803,35.987,38.138,46.069,27.181,5.235,6.631,5.81
1270,0.82,36.175,38.199,46.107,27.198,5.438,6.794,6.013
1271,0.843,36.35,38.313,46.117,27.202,5.359,6.673,5.852
1272,0.839,36.399,38.275,46.088,27.191,5.317,6.713,5.932
1273,0.846,35.853,38.216,46.079,27.191,5.358,6.713,5.892
1274,0.846,36.02,38.188,46.107,27.198,5.358,6.632,5.933
1275,0.856,36.185,38.262,46.098,27.191,5.399,6.672,5.892
1276,0.859,36.273,38.263,46.088,27.181,5.277,6.55,5.811
1277,0.833,35.89,38.189,46.069,27.188,5.316,6.712,5.81
1278,0.856,36.088,38.293,46.088,27.184,5.398,6.754,5.81
1279,0.862,36.215,38.154,46.079,27.188,5.358,6.795,5.85
1280,0.866,36.302,38.227,46.088,27.191,5.317,6.836,5.81
1281,0.866,35.987,38.294,46.069,27.191,5.236,7.04,5.891
1282,0.892,36.175,38.271,46.098,27.198,5.397,7.286,6.014
1283,0.899,36.331,38.251,46.107,27.198,5.318,7.207,5.893
1284,0.886,36.351,38.193,46.088,27.195,5.317,7.328,5.851
1285,0.895,41.04,38.27,46.098,27.195,5.317,7.451,5.891
1286,0.902,41.184,38.263,46.107,27.191,5.439,7.534,5.892
1287,0.908,41.29,38.236,46.098,27.191,5.44,7.616,5.973
1288,0.905,41.262,38.294,46.098,27.191,5.318,7.576,5.73
1289,0.902,33.495,38.131,46.06,27.184,5.276,7.616,5.85
1290,0.915,33.685,38.238,46.097,27.184,5.357,7.698,5.81
1291,0.912,33.86,38.278,46.069,27.188,5.358,7.699,5.85
1292,0.915,35.684,38.228,46.078,27.184,5.317,7.74,5.81
1293,0.915,36.729,38.173,46.069,27.188,5.317,7.781,5.85
1294,0.944,36.892,38.188,46.098,27.191,5.48,7.944,6.013
1295,0.954,37.057,38.278,46.117,27.198,5.481,7.864,5.893
1296,0.948,35.496,38.263,46.088,27.191,5.44,7.904,5.851
1297,0.954,35.432,38.232,46.088,27.195,5.359,7.945,5.81
1298,0.964,35.604,38.27,46.098,27.195,5.439,7.945,5.891
1299,0.974,35.74,38.185,46.098,27.198,5.521,7.945,5.851
1300,0.984,35.77,38.235,46.098,27.188,5.319,7.864,5.729
1301,0.978,35.885,38.235,46.06,27.181,5.236,7.863,5.809
1302,0.994,36.059,38.228,46.078,27.198,5.397,7.822,5.81
1303,0.994,36.157,38.231,46.079,27.188,5.358,7.903,5.891
1304,0.984,35.621,38.196,46.174,27.181,5.358,7.863,5.811
1305,0.974,35.778,38.239,46.099,27.188,5.439,7.904,5.891
1306,0.987,35.943,38.294,46.107,27.202,5.562,8.026,6.014
1307,0.991,36.041,38.232,46.098,27.195,5.441,7.865,5.771
1308,0.984,35.562,38.259,46.107,27.195,5.399,7.904,5.85
1309,0.987,35.739,38.197,46.108,27.195,5.44,7.945,5.851
1310,0.987,35.895,38.239,46.098,27.191,5.481,7.945,5.891
1311,0.981,35.963,38.298,46.098,27.195,5.44,7.905,5.811
1312,0.971,35.705,38.205,46.06,27.181,5.318,7.701,5.688
1313,0.958,35.856,38.231,46.078,27.191,5.398,7.74,5.849
1314,0.951,36.011,38.138,46.194,27.198,5.44,7.781,5.81
1315,0.938,36.08,38.215,46.089,27.191,5.399,7.781,5.81
1316,0.932,35.515,38.251,46.069,27.184,5.358,7.659,5.728
1317,0.928,35.681,38.224,46.088,27.191,5.399,7.739,5.85
1318,0.931,35.875,38.263,46.107,27.198,5.562,7.781,5.973
1319,0.931,35.896,38.216,46.108,27.195,5.36,7.618,5.811
1320,0.918,35.647,38.235,46.108,27.191,5.399,7.657,5.81
1321,0.931,35.817,38.274,46.108,27.191,5.44,7.658,5.891
1322,0.931,35.963,38.236,46.098,27.198,5.399,7.617,5.933
1323,0.925,35.811,38.259,46.107,27.191,5.44,7.576,5.852
1324,0.909,35.569,38.169,46.098,27.188,5.277,7.413,5.729
1325,0.902,35.73,38.207,46.069,27.188,5.398,7.533,5.85
1326,0.895,35.875,38.208,46.078,27.188,5.358,7.412,5.851
1327,0.886,35.637,38.255,46.088,27.191,5.317,7.411,5.769
1328,0.869,35.702,38.263,46.088,27.188,5.317,7.371,5.728
1329,0.859,35.856,38.212,46.069,27.188,5.317,7.33,5.809
1330,0.859,36.011,38.251,46.107,27.198,5.48,7.573,5.891
1331,0.859,35.389,38.236,46.098,27.198,5.4,7.535,5.892
1332,0.827,35.469,38.321,46.098,27.191,5.358,7.534,5.77
1333,0.826,35.633,38.143,46.088,27.191,5.317,7.575,5.85
1334,0.813,35.759,38.219,46.107,27.191,5.317,7.657,5.769
1335,0.81,35.396,38.216,46.117,27.195,5.398,7.739,5.891
1336,0.813,35.575,38.239,46.088,27.198,5.318,7.74,5.729
1337,0.79,35.682,38.274,46.059,27.177,5.236,7.781,5.85
1338,0.803,35.817,38.212,46.107,27.188,5.316,7.862,5.769
1339,0.8,35.435,38.278,46.079,27.188,5.276,7.863,5.768
1340,0.784,35.604,38.244,46.088,27.191,5.235,7.863,5.728
1341,0.771,35.778,38.2,46.069,27.188,5.275,7.904,5.768
1342,0.783,35.838,38.282,46.098,27.188,5.398,8.148,5.931
1343,0.803,35.368,38.216,46.136,27.205,5.399,8.11,5.852
1344,0.777,35.507,38.157,46.108,27.191,5.358,8.069,5.851
1345,0.78,35.672,38.164,46.117,27.195,5.317,8.069,5.891
1346,0.764,35.731,38.289,46.088,27.191,5.317,8.191,5.851
1347,0.77,35.559,38.177,46.107,27.195,5.317,8.151,5.891
1348,0.767,35.73,38.27,46.098,27.198,5.317,8.11,5.811
1349,0.748,35.837,38.216,46.06,27.184,5.154,8.028,5.769
1350,0.744,35.905,38.184,46.097,27.188,5.234,8.068,5.768
1351,0.764,35.292,38.27,46.098,27.188,5.316,8.069,5.809
1352,0.748,35.449,38.208,46.079,27.184,5.236,8.028,5.728
1353,0.738,35.604,38.231,46.088,27.184,5.113,8.027,5.768
1354,0.734,35.778,38.169,46.098,27.195,5.315,8.149,5.85
1355,0.738,35.579,38.211,46.136,27.205,5.48,8.15,5.851
1356,0.728,35.74,38.251,46.098,27.188,5.278,8.028,5.81
1357,0.715,35.847,38.216,46.098,27.191,5.316,8.027,5.769
1358,0.718,35.522,38.247,46.098,27.195,5.358,7.987,5.85
1359,0.728,35.518,38.286,46.098,27.191,5.358,8.027,5.81
1360,0.712,35.71,38.185,46.117,27.191,5.236,7.865,5.769
1361,0.708,35.808,38.254,46.069,27.181,5.194,7.741,5.728
1362,0.708,35.33,38.185,46.078,27.191,5.316,7.821,5.727
1363,0.718,35.44,38.27,46.107,27.191,5.317,7.741,5.809
1364,0.711,35.604,38.22,46.098,27.184,5.317,7.699,5.728
1365,0.711,35.702,38.212,46.088,27.184,5.236,7.699,5.687
1366,0.718,35.29,38.259,46.088,27.191,5.235,7.699,5.809
1367,0.728,35.459,38.193,46.127,27.202,5.479,7.74,5.932
1368,0.734,35.614,38.239,46.098,27.188,5.318,7.618,5.77
1369,0.725,35.702,38.165,46.107,27.184,5.236,7.576,5.768
1370,0.731,35.271,38.239,46.098,27.191,5.357,7.535,5.768
1371,0.731,35.43,38.263,46.098,27.191,5.317,7.534,5.768
1372,0.725,35.604,38.224,46.098,27.191,5.398,7.494,5.687
1373,0.715,35.654,38.266,46.069,27.177,5.155,7.29,5.687
1374,0.715,35.357,38.185,46.184,27.188,5.275,7.451,5.727
1375,0.721,35.546,38.274,46.099,27.184,5.276,7.412,5.727
1376,0.708,35.701,38.205,46.088,27.188,5.235,7.289,5.727
1377,0.708,35.75,38.243,46.079,27.184,5.194,7.329,5.646
1378,0.702,35.319,38.243,46.079,27.191,5.234,7.41,5.727
1379,0.711,35.507,38.193,46.117,27.205,5.438,7.574,5.89
1380,0.708,35.662,38.262,46.117,27.191,5.277,7.535,5.77
1381,0.702,35.673,38.165,46.098,27.195,5.316,7.575,5.768
1382,0.714,35.376,38.285,46.098,27.195,5.358,7.616,5.809
1383,0.718,35.536,38.267,46.107,27.191,5.358,7.657,5.85
1384,0.711,35.682,38.134,46.108,27.198,5.317,7.698,5.729
1385,0.715,35.98,38.246,46.088,27.184,5.236,7.618,5.646
1386,0.702,35.235,38.208,46.088,27.188,5.316,7.657,5.686
1387,0.721,35.41,38.223,46.098,27.191,5.317,7.78,5.727
1388,0.711,35.546,38.251,46.098,27.188,5.317,7.74,5.768
1389,0.721,35.423,38.189,46.079,27.184,5.317,7.699,5.606
1390,0.724,35.402,38.231,46.079,27.191,5.317,7.699,5.645
1391,0.721,35.594,38.224,46.107,27.191,5.52,7.902,5.849
1392,0.734,35.759,38.27,46.108,27.198,5.4,7.782,5.688
1393,0.712,35.233,38.224,46.088,27.191,5.44,7.74,5.727
1394,0.721,35.324,38.153,46.098,27.191,5.481,7.699,5.768
1395,0.711,35.478,38.274,46.098,27.198,5.481,7.78,5.809
1396,0.715,35.614,38.173,46.107,27.205,5.4,7.862,5.688
1397,0.715,35.213,38.239,46.079,27.191,5.358,7.7,5.687
1398,0.711,35.314,38.267,46.069,27.188,5.317,7.699,5.687
1399,0.708,35.488,38.212,46.088,27.195,5.358,7.74,5.727
1400,0.702,35.595,38.247,46.098,27.191,5.399,7.74,5.727
1401,0.708,35.251,38.177,46.088,27.188,5.399,7.699,5.687
1402,0.705,35.41,38.266,46.088,27.188,5.358,7.699,5.646
1403,0.711,35.565,38.173,46.098,27.198,5.521,7.943,5.93
1404,0.731,35.692,38.09,46.136,27.205,5.482,7.783,5.77
1405,0.721,35.098,38.238,46.117,27.188,5.44,7.7,5.728
1406,0.721,35.265,38.204,46.098,27.188,5.399,7.74,5.727
1407,0.721,35.41,38.266,46.098,27.198,5.48,7.821,5.809
1408,0.731,35.489,38.204,46.107,27.191,5.44,7.781,5.85
1409,0.728,35.288,38.219,46.088,27.188,5.359,7.659,5.566
1410,0.721,35.478,38.251,46.079,27.188,5.439,7.698,5.766
1411,0.724,35.624,38.255,46.079,27.191,5.359,7.658,5.687
1412,0.721,35.663,38.294,46.098,27.191,5.439,7.617,5.687
1413,0.708,35.127,38.146,46.079,27.184,5.359,7.617,5.646
1414,0.698,35.284,38.195,46.146,27.181,5.317,7.617,5.727
1415,0.711,35.439,38.153,46.118,27.198,5.48,7.739,5.931
1416,0.721,35.508,38.235,46.108,27.198,5.4,7.577,5.73
1417,0.715,35.394,38.267,46.098,27.191,5.399,7.616,5.809
1418,0.718,35.546,38.243,46.098,27.188,5.399,7.617,5.769
1419,0.715,35.682,38.267,46.098,27.195,5.48,7.535,5.728
1420,0.721,35.405,38.193,46.107,27.198,5.481,7.616,5.809
1421,0.718,35.201,38.251,46.108,27.191,5.359,7.454,5.647
1422,0.724,35.343,38.29,46.06,27.184,5.317,7.452,5.727
1423,0.737,35.478,38.22,46.097,27.188,5.398,7.493,5.727
1424,0.764,35.182,38.13,46.117,27.184,5.399,7.494,5.687
1425,0.774,35.256,38.152,46.06,27.184,5.318,7.494,5.646
1426,0.777,35.43,38.219,46.059,27.184,5.358,7.494,5.686
1427,0.793,35.556,38.274,46.117,27.191,5.521,7.616,5.849
1428,0.829,35.154,38.247,46.117,27.202,5.522,7.617,5.851
1429,0.836,35.256,38.271,46.088,27.195,5.441,7.617,5.769
1430,0.872,35.42,38.216,46.088,27.188,5.44,7.617,5.728
1431,0.895,35.537,38.262,46.088,27.195,5.481,7.617,5.85
1432,0.912,35.279,38.216,46.098,27.198,5.481,7.739,5.932
1433,0.941,35.439,38.208,46.088,27.191,5.44,7.618,5.73
1434,0.974,35.585,38.247,46.059,27.184,5.237,7.535,5.727
1435,1.0,35.673,38.173,46.088,27.191,5.316,7.697,5.809
1436,1.056,35.156,38.278,46.098,27.188,5.398,7.618,5.769
1437,1.095,35.342,38.251,46.079,27.191,5.358,7.535,5.768
1438,1.128,35.488,38.232,46.059,27.184,5.358,7.534,5.85
1439,1.158,35.557,38.259,46.088,27.191,5.358,7.616,5.891
1440,1.197,35.174,38.146,46.127,27.205,5.48,7.779,5.973
1441,1.204,35.333,38.25,46.108,27.191,5.44,7.618,5.852
1442,1.204,35.459,38.286,46.088,27.195,5.399,7.657,5.932
1443,1.201,35.499,38.216,46.098,27.198,5.399,7.576,5.933
1444,1.204,35.183,38.231,46.107,27.195,5.48,7.535,6.014
1445,1.22,35.342,38.185,46.117,27.198,5.44,7.534,5.974
1446,1.24,35.478,38.266,46.06,27.184,5.277,7.372,5.893
1447,1.279,35.489,38.228,46.088,27.198,5.438,7.492,6.014
1448,1.302,35.163,38.231,46.088,27.191,5.359,7.453,5.974
1449,1.306,35.323,38.27,46.079,27.188,5.358,7.452,5.933
1450,1.218,35.449,38.158,46.079,27.191,5.317,7.371,6.014
1451,1.169,35.316,38.219,46.069,27.191,5.398,7.37,6.137
1452,1.135,35.114,38.294,46.117,27.212,5.521,7.573,6.341
1453,1.142,35.284,38.213,46.108,27.195,5.36,7.372,6.343
1454,1.099,35.392,38.196,46.098,27.188,5.399,7.452,6.506
1455,0.966,35.277,38.215,46.107,27.191,5.44,7.412,6.63
1456,0.847,35.353,38.274,46.098,27.198,5.44,7.411,6.794
1457,0.752,35.507,38.193,46.194,27.198,5.44,7.411,6.958
1458,0.676,35.614,38.188,46.08,27.184,5.277,7.208,6.919
1459,0.571,35.002,38.286,46.088,27.191,5.398,7.328,7.244
1460,0.492,35.168,38.185,46.098,27.188,5.399,7.289,7.41
1461,0.407,35.304,38.254,46.098,27.191,5.399,7.288,7.533
1462,0.354,35.411,38.212,46.079,27.188,5.358,7.166,7.657
1463,0.301,35.038,38.243,46.059,27.188,5.277,7.206,7.861
1464,0.268,35.236,38.212,46.117,27.195,5.479,7.409,8.148
1465,0.248,35.429,38.231,46.127,27.195,5.359,7.249,8.028
1466,0.219,35.479,38.267,46.089,27.191,5.399,7.288,8.149
1467,0.196,35.077,38.169,46.098,27.191,5.358,7.207,8.273
1468,0.176,35.236,38.278,46.107,27.195,5.358,7.206,8.314
1469,0.15,35.41,38.154,46.098,27.191,5.358,7.287,8.315
1470,0.12,35.489,38.223,46.088,27.191,5.317,7.044,8.274
1471,0.087,35.067,38.251,46.088,27.191,5.317,7.082,8.355
1472,0.064,35.284,38.239,46.079,27.184,5.276,7.042,8.559
1473,0.035,35.43,38.22,46.079,27.195,5.316,7.042,8.602
1474,0.009,35.479,38.173,46.069,27.184,5.236,7.001,8.724
1475,0.005,34.972,38.254,46.088,27.184,5.235,6.96,8.766
1476,0.028,35.168,38.282,46.107,27.205,5.438,7.163,9.092
1477,0.064,35.333,38.24,46.194,27.195,5.399,7.043,9.054
1478,0.08,35.363,38.278,46.099,27.195,5.318,7.082,9.257
1479,0.129,35.085,38.177,46.088,27.191,5.358,7.123,9.341
1480,0.162,35.274,38.172,46.155,27.195,5.358,7.124,9.504
1481,0.182,35.411,38.25,46.118,27.198,5.317,7.124,9.668
1482,0.215,35.46,38.208,46.069,27.184,5.154,7.002,9.67
1483,0.225,34.981,38.258,46.078,27.184,5.234,7.123,9.833
1484,0.241,35.168,38.115,46.098,27.188,5.235,7.124,9.956
1485,0.264,35.294,38.203,46.088,27.184,5.275,7.165,10.08
1486,0.274,35.075,38.274,46.079,27.184,5.154,7.165,10.04
1487,0.281,35.083,38.177,46.079,27.191,5.234,7.206,10.202
1488,0.304,35.274,38.266,46.098,27.202,5.357,7.369,10.326
1489,0.34,35.401,38.204,46.098,27.191,5.277,7.248,10.246
1490,0.347,34.952,38.243,46.098,27.195,5.235,7.247,10.204
1491,0.369,35.062,38.267,46.107,27.191,5.316,7.247,10.245
1492,0.392,35.236,38.236,46.098,27.191,5.317,7.288,10.164
1493,0.422,35.362,38.29,46.107,27.198,5.236,7.329,10.163
1494,0.458,34.97,38.115,46.098,27.188,5.194,7.167,9.96
1495,0.458,35.101,38.246,46.079,27.181,5.194,7.246,10.039
1496,0.484,35.275,38.247,46.088,27.188,5.234,7.288,9.999
1497,0.511,35.372,38.216,46.107,27.195,5.153,7.247,9.917
1498,0.53,34.894,38.262,46.088,27.188,5.193,7.247,9.754
1499,0.547,35.071,38.216,46.079,27.191,5.234,7.288,9.833
1500,0.576,35.274,38.266,46.146,27.198,5.357,7.451,9.916
1501,0.603,35.353,38.263,46.108,27.191,5.195,7.29,9.672
1502,0.613,35.478,38.267,46.098,27.198,5.234,7.288,9.589
1503,0.642,35.691,38.298,46.117,27.191,5.235,7.329,9.629
1504,0.655,35.827,38.111,46.117,27.195,5.316,7.329,9.507
1505,0.675,35.896,38.203,46.098,27.195,5.236,7.167,9.303
1506,0.669,34.535,38.247,46.069,27.184,5.113,7.124,9.219
1507,0.688,34.732,38.193,46.203,27.195,5.193,7.124,9.178
1508,0.701,34.878,38.247,46.089,27.188,5.153,7.124,9.137
1509,0.718,34.918,38.224,46.098,27.191,5.193,7.124,9.014
1510,0.731,34.851,38.224,46.079,27.188,5.194,7.165,9.054
1511,0.738,35.042,38.216,46.098,27.198,5.356,7.206,9.095
1512,0.757,35.216,38.274,46.117,27.202,5.317,7.206,8.892
1513,0.751,35.487,38.283,46.098,27.195,5.276,7.206,8.849
1514,0.761,34.857,38.15,46.107,27.195,5.316,7.125,8.767
1515,0.764,35.042,38.262,46.117,27.191,5.317,7.205,8.726
1516,0.774,35.178,38.177,46.098,27.205,5.358,7.165,8.685
1517,0.774,34.978,38.157,46.107,27.191,5.317,7.124,8.522
1518,0.767,34.909,38.242,46.079,27.198,5.358,7.205,8.52
1519,0.774,35.1,38.224,46.107,27.191,5.358,7.125,8.479
1520,0.774,35.217,38.2,46.098,27.181,5.358,7.205,8.438
1521,0.777,34.739,38.157,46.088,27.195,5.399,7.206,8.357
1522,0.784,34.801,38.281,46.088,27.188,5.358,7.287,8.437
1523,0.797,34.984,38.294,46.127,27.205,5.561,7.451,8.519
1524,0.8,35.11,38.185,46.108,27.198,5.441,7.29,8.317
1525,0.794,34.891,38.27,46.098,27.191,5.481,7.329,8.193
1526,0.8,35.033,38.146,46.088,27.195,5.44,7.329,8.232
1527,0.803,35.207,38.238,46.107,27.195,5.481,7.37,8.151
1528,0.803,35.314,38.251,46.117,27.198,5.481,7.37,8.15
1529,0.807,34.634,38.196,46.079,27.184,5.4,7.289,7.947
1530,0.797,34.781,38.231,46.088,27.195,5.48,7.369,8.026
1531,0.8,34.965,38.173,46.107,27.191,5.44,7.411,7.946
1532,0.81,35.034,38.258,46.098,27.188,5.44,7.371,7.945
1533,0.81,34.775,38.259,46.069,27.184,5.44,7.452,7.823
1534,0.807,34.955,38.115,46.088,27.184,5.44,7.493,7.903
1535,0.813,35.129,38.246,46.107,27.198,5.643,7.575,7.945
1536,0.813,35.217,38.208,46.117,27.198,5.442,7.454,7.742
1537,0.803,34.691,38.188,46.117,27.191,5.521,7.452,7.781
1538,0.81,34.858,38.258,46.098,27.191,5.482,7.452,7.781
1539,0.82,35.013,38.236,46.107,27.198,5.522,7.534,7.74
1540,0.817,35.082,38.173,46.127,27.198,5.522,7.494,7.699
1541,0.807,34.824,38.164,46.108,27.195,5.4,7.371,7.536
1542,0.81,34.965,38.27,46.098,27.195,5.44,7.452,7.534
1543,0.816,35.12,38.267,46.117,27.191,5.44,7.452,7.534
1544,0.816,35.141,38.212,46.108,27.198,5.481,7.412,7.412
1545,0.823,34.767,38.22,46.088,27.181,5.4,7.289,7.411
1546,0.82,34.926,38.173,46.088,27.188,5.399,7.369,7.452
1547,0.83,35.119,38.258,46.174,27.205,5.562,7.492,7.615
1548,0.843,34.949,38.22,46.118,27.195,5.482,7.371,7.454
1549,0.833,34.832,38.27,46.098,27.191,5.481,7.33,7.29
1550,0.836,35.003,38.154,46.127,27.195,5.481,7.289,7.369
1551,0.836,35.149,38.207,46.108,27.198,5.522,7.369,7.37
1552,0.833,34.738,38.29,46.117,27.195,5.563,7.289,7.289
1553,0.83,34.791,38.177,46.088,27.188,5.36,7.125,7.085
1554,0.826,34.917,38.161,46.098,27.188,5.399,7.165,7.205
1555,0.826,35.062,38.219,46.107,27.195,5.399,7.124,7.165
1556,0.823,34.555,38.208,46.098,27.188,5.399,7.165,7.124
1557,0.83,34.675,38.153,46.079,27.188,5.399,7.084,7.083
1558,0.823,34.848,38.16,46.098,27.191,5.399,7.083,7.083
1559,0.83,34.975,38.266,46.127,27.202,5.521,7.286,7.205
1560,0.843,34.612,38.177,46.127,27.205,5.4,7.125,7.084
1561,0.833,34.752,38.2,46.117,27.195,5.44,7.083,7.042
1562,0.833,34.907,38.286,46.117,27.191,5.521,7.083,7.001
1563,0.839,35.023,38.236,46.117,27.198,5.441,7.042,7.001
1564,0.843,34.583,38.181,46.108,27.202,5.481,7.042,6.96
1565,0.846,34.752,38.168,46.098,27.191,5.359,6.879,6.838
1566,0.84,34.878,38.207,46.079,27.181,5.439,6.959,6.837
1567,0.846,34.985,38.251,46.098,27.184,5.399,6.878,6.837
1568,0.849,34.631,38.193,46.088,27.191,5.399,6.837,6.837
1569,0.846,34.781,38.293,46.059,27.184,5.358,6.877,6.714
1570,0.846,34.945,38.154,46.078,27.188,5.317,6.877,6.754
1571,0.866,35.005,38.219,46.098,27.191,5.48,7.0,6.836
1572,0.862,34.689,38.282,46.117,27.212,5.522,7.001,6.714
1573,0.859,34.829,38.201,46.088,27.195,5.482,7.001,6.713
1574,0.853,34.984,38.219,46.098,27.195,5.481,7.082,6.754
1575,0.853,35.043,38.153,46.098,27.191,5.44,7.205,6.795
1576,0.856,34.603,38.262,46.098,27.191,5.481,7.369,6.755
1577,0.853,34.771,38.064,46.107,27.198,5.359,7.37,6.592
1578,0.853,34.878,38.249,46.06,27.181,5.358,7.411,6.509
1579,0.856,34.831,38.204,46.097,27.191,5.439,7.574,6.549
1580,0.849,34.687,38.18,46.088,27.188,5.359,7.535,6.59
1581,0.853,34.839,38.239,46.098,27.191,5.358,7.657,6.549
1582,0.859,34.975,38.204,46.06,27.188,5.317,7.739,6.549
1583,0.859,34.468,38.274,46.069,27.195,5.439,7.943,6.59
1584,0.879,34.511,38.099,46.107,27.209,5.521,8.026,6.671
1585,0.872,34.655,38.246,46.098,27.191,5.4,7.946,6.631
1586,0.872,34.771,38.243,46.088,27.191,5.318,7.986,6.631
1587,0.872,34.619,38.224,46.088,27.195,5.439,8.149,6.55
1588,0.872,34.752,38.298,46.079,27.202,5.399,8.11,6.59
1589,0.885,34.926,38.185,46.079,27.191,5.399,8.069,6.427
1590,0.879,35.004,38.223,46.04,27.184,5.236,7.987,6.385
1591,0.879,34.372,38.216,46.078,27.195,5.316,8.108,6.466
1592,0.869,34.538,38.247,46.079,27.188,5.317,8.15,6.426
1593,0.863,34.694,38.251,46.079,27.195,5.317,8.11,6.385
1594,0.872,34.772,38.068,46.069,27.188,5.317,8.069,6.344
1595,0.869,34.475,38.202,46.059,27.188,5.358,8.15,6.466
1596,0.872,34.664,38.208,46.107,27.205,5.521,8.191,6.507
1597,0.869,34.8,38.18,46.108,27.195,5.36,8.11,6.386
1598,0.876,34.888,38.25,46.06,27.198,5.358,8.109,6.385
1599,0.879,34.553,38.247,46.069,27.202,5.358,8.109,6.466
1600,0.879,34.723,38.228,46.098,27.198,5.399,8.109,6.467
1601,0.882,34.868,38.161,46.079,27.191,5.399,8.069,6.345
1602,0.885,34.908,38.246,46.04,27.184,5.155,7.946,6.303
1603,0.898,34.496,38.255,46.069,27.198,5.356,7.986,6.384
1604,0.889,34.655,38.157,46.059,27.191,5.317,7.946,6.303
1605,0.892,34.781,38.199,46.059,27.188,5.236,7.783,6.343
1606,0.892,34.84,38.153,46.059,27.184,5.235,7.781,6.303
1607,0.889,34.419,38.133,46.117,27.198,5.438,7.984,6.465
1608,0.908,34.606,38.273,46.088,27.195,5.237,7.824,6.304
1609,0.899,34.704,38.24,46.059,27.198,5.275,7.822,6.221
1610,0.902,34.791,38.173,46.078,27.202,5.276,7.781,6.261
1611,0.908,34.408,38.157,46.069,27.195,5.316,7.74,6.343
1612,0.905,34.577,38.231,46.088,27.198,5.276,7.74,6.262
1613,0.899,34.713,38.309,46.04,27.188,5.154,7.618,6.139
1614,0.902,34.715,38.139,46.069,27.198,5.356,7.617,6.179
1615,0.905,34.81,38.254,46.069,27.191,5.236,7.535,6.22
1616,0.899,34.974,38.177,46.05,27.188,5.275,7.494,6.139
1617,0.895,35.082,38.153,46.059,27.184,5.195,7.494,6.138
1618,0.895,34.22,38.227,46.05,27.188,5.234,7.494,6.26
1619,0.899,34.307,38.263,46.088,27.205,5.357,7.656,6.384
1620,0.908,34.49,38.2,46.088,27.191,5.277,7.495,6.222
1621,0.908,34.597,38.153,46.069,27.195,5.235,7.534,6.22
1622,0.905,34.522,38.242,46.069,27.195,5.316,7.372,6.22
1623,0.918,34.693,38.317,46.069,27.202,5.317,7.492,6.22
1624,0.918,34.839,38.189,46.069,27.198,5.276,7.371,6.139
1625,0.915,34.927,38.247,46.05,27.184,5.154,7.248,6.057
1626,0.915,34.237,38.2,46.059,27.195,5.315,7.288,6.137
1627,0.918,34.384,38.231,46.059,27.188,5.195,7.288,6.098
1628,0.922,34.548,38.235,46.05,27.184,5.234,7.207,6.097
1629,0.925,34.617,38.22,46.021,27.184,5.153,7.165,6.016
1630,0.918,34.282,38.231,46.049,27.195,5.275,7.287,6.218
1631,0.941,34.48,38.173,46.097,27.209,5.398,7.369,6.22
1632,0.928,34.635,38.254,46.05,27.198,5.277,7.126,6.098
1633,0.925,34.685,38.271,46.078,27.191,5.235,7.246,6.097
1634,0.928,34.369,38.165,46.069,27.195,5.275,7.247,6.097
1635,0.935,34.548,38.254,46.078,27.198,5.316,7.206,6.056
1636,0.935,34.703,38.204,46.069,27.195,5.276,7.165,6.015
1637,0.931,34.734,38.235,46.117,27.184,5.154,7.084,5.974
1638,0.918,34.331,38.153,46.079,27.191,5.234,7.205,6.055
1639,0.931,34.509,38.25,46.069,27.195,5.194,7.165,6.056
1640,0.935,34.665,38.107,46.088,27.191,5.234,7.124,6.015
1641,0.925,34.973,38.179,46.059,27.188,5.235,7.083,5.974
1642,0.941,34.362,38.278,46.059,27.195,5.235,7.164,6.055
1643,0.951,34.567,38.216,46.117,27.202,5.357,7.328,6.137
1644,0.948,34.684,38.169,46.079,27.188,5.317,7.207,6.016
1645,0.945,34.35,38.231,46.079,27.198,5.317,7.084,6.056
1646,0.958,34.26,38.188,46.088,27.198,5.317,7.123,6.097
1647,0.958,34.442,38.25,46.079,27.198,5.317,7.165,6.097
1648,0.971,34.558,38.196,46.079,27.195,5.276,7.084,5.975
1649,0.961,34.416,38.243,46.04,27.181,5.154,6.961,5.852
1650,0.955,34.491,38.224,46.069,27.191,5.234,7.122,6.013
1651,0.967,34.703,38.216,46.059,27.202,5.235,7.124,5.974
1652,0.955,34.782,38.27,46.05,27.191,5.235,7.043,6.055
1653,0.961,34.322,38.208,46.059,27.184,5.275,7.001,6.015
1654,0.964,34.452,38.212,46.059,27.191,5.235,7.082,6.056
1655,0.964,34.645,38.27,46.107,27.212,5.357,7.123,6.178
1656,0.981,34.752,38.169,46.098,27.198,5.277,7.083,5.976
1657,0.971,34.168,38.223,46.079,27.191,5.195,7.042,6.015
1658,0.964,34.335,38.173,46.088,27.195,5.234,7.042,6.056
1659,0.964,34.519,38.278,46.079,27.202,5.316,7.042,6.056
1660,0.971,34.578,38.146,46.098,27.198,5.317,7.123,6.097
1661,0.968,34.32,38.223,46.069,27.188,5.195,6.961,5.894
1662,0.974,34.471,38.282,46.059,27.188,5.316,7.041,6.014
1663,0.99,34.655,38.224,46.059,27.195,5.317,6.96,5.974
1664,0.991,34.724,38.274,46.059,27.191,5.276,6.96,5.974
1665,0.994,34.312,38.15,46.069,27.181,5.276,6.96,5.933
1666,0.997,34.461,38.203,46.069,27.191,5.195,6.919,6.055
1667,1.0,34.655,38.177,46.107,27.198,5.397,7.203,6.137
1668,1.023,34.733,38.184,46.079,27.195,5.358,6.962,6.016
1669,1.014,34.37,38.262,46.059,27.195,5.277,7.0,6.056
1670,1.017,34.548,38.115,46.097,27.202,5.235,7.001,5.975
1671,1.02,34.713,38.261,46.069,27.195,5.316,7.001,6.096
1672,1.017,34.743,38.286,46.069,27.191,5.276,7.001,6.056
1673,1.017,34.427,38.224,46.069,27.184,5.154,6.838,5.893
1674,1.007,34.568,38.208,46.05,27.198,5.275,6.877,6.014
1675,1.02,34.742,38.134,46.069,27.195,5.235,6.877,6.015
1676,1.02,34.619,38.23,46.059,27.191,5.153,6.837,5.974
1677,1.027,34.522,38.13,46.078,27.191,5.193,6.837,5.933
1678,1.023,34.703,38.18,46.04,27.184,5.194,6.796,5.852
1679,1.023,34.83,38.301,46.078,27.198,5.275,6.958,6.135
1680,1.04,34.706,38.162,46.126,27.202,5.316,6.756,5.976
1681,1.037,34.743,38.231,46.079,27.198,5.317,6.795,5.974
1682,1.043,34.897,38.274,46.069,27.198,5.317,6.755,5.974
1683,1.05,35.004,38.247,46.088,27.198,5.317,6.754,6.015
1684,1.056,34.66,38.114,46.079,27.202,5.317,6.714,5.893
1685,1.06,34.791,38.16,46.059,27.191,5.236,6.632,5.851
1686,1.053,34.926,38.25,46.05,27.191,5.235,6.712,5.891
1687,1.069,35.062,38.181,46.069,27.195,5.235,6.632,5.933
1688,1.076,34.718,38.215,46.059,27.195,5.235,6.631,5.933
1689,1.083,34.858,38.196,46.05,27.191,5.153,6.59,5.852
1690,1.076,35.023,38.188,46.049,27.188,5.234,6.549,5.891
1691,1.079,35.13,38.262,46.088,27.202,5.357,6.752,6.054
1692,1.086,35.054,38.275,46.098,27.202,5.317,6.551,5.934
1693,1.066,35.169,38.279,46.06,27.191,5.317,6.59,5.933
1694,1.073,35.333,38.107,46.078,27.191,5.317,6.59,5.974
1695,1.083,35.411,38.199,46.069,27.195,5.398,6.549,5.974
1696,1.083,35.249,38.247,46.078,27.205,5.399,6.508,5.974
1697,1.086,35.429,38.138,46.059,27.188,5.236,6.386,5.73
1698,1.076,35.537,38.238,46.03,27.191,5.194,6.507,5.89
1699,1.086,35.643,38.228,46.059,27.191,5.275,6.508,5.851
1700,1.089,35.347,38.177,46.059,27.191,5.316,6.467,5.891
1701,1.092,35.507,38.149,46.059,27.188,5.195,6.467,5.851
1702,1.099,35.643,38.25,46.059,27.191,5.275,6.507,5.932
1703,1.115,35.683,38.306,46.107,27.209,5.479,6.67,6.055
1704,1.115,35.712,38.142,46.079,27.198,5.318,6.631,5.812
1705,1.109,35.856,38.23,46.079,27.191,5.358,6.712,5.891
1706,1.112,35.992,38.173,46.079,27.195,5.358,6.835,6.054
1707,1.122,35.983,38.168,46.107,27.205,5.399,6.796,5.975
1708,1.129,35.878,38.262,46.098,27.195,5.358,6.795,5.811
1709,1.122,36.002,38.189,46.04,27.184,5.236,6.714,5.81
1710,1.122,36.127,38.204,46.069,27.188,5.316,6.876,5.891
1711,1.132,35.966,38.13,46.069,27.191,5.358,6.796,5.851
1712,1.129,36.012,38.23,46.069,27.191,5.317,6.836,5.851
1713,1.122,36.156,38.302,46.059,27.191,5.317,6.837,5.891
1714,1.132,36.282,38.177,46.078,27.202,5.439,7.04,6.095
1715,1.142,36.351,38.278,46.088,27.205,5.44,6.879,5.894
1716,1.142,36.447,38.201,46.059,27.191,5.318,6.918,5.892
1717,1.135,36.611,38.239,46.059,27.191,5.317,6.959,5.892
1718,1.142,36.709,38.177,46.078,27.202,5.358,7.041,5.973
1719,1.145,36.441,38.258,46.079,27.198,5.399,7.082,5.933
1720,1.145,36.554,38.169,46.079,27.195,5.236,6.92,5.811
1721,1.129,36.689,38.133,46.04,27.188,5.357,6.959,5.891
1722,1.142,36.815,38.215,46.078,27.195,5.317,6.96,5.973
1723,1.142,36.692,38.274,46.059,27.188,5.317,7.0,5.852
1724,1.138,36.863,38.193,46.04,27.191,5.276,6.96,5.851
1725,1.142,36.999,38.235,46.059,27.188,5.316,6.96,5.891
1726,1.148,37.106,38.228,46.088,27.202,5.398,7.163,6.014
1727,1.155,36.781,38.247,46.117,27.205,5.399,7.002,5.893
1728,1.145,36.921,38.204,46.06,27.195,5.358,7.041,5.973
1729,1.158,37.048,38.278,46.078,27.202,5.358,7.082,5.933
1730,1.142,37.106,38.052,46.088,27.198,5.399,7.083,5.933
1731,1.155,37.069,38.218,46.069,27.198,5.399,7.123,5.933
1732,1.158,37.222,38.196,46.059,27.191,5.358,6.961,5.811
1733,1.135,37.319,38.247,46.03,27.188,5.317,7.041,5.972
1734,1.132,37.397,38.118,46.059,27.195,5.398,7.123,5.893
1735,1.132,37.321,38.183,46.078,27.191,5.358,7.043,5.892
1736,1.122,37.502,38.247,46.059,27.188,5.317,7.082,5.811
1737,1.116,37.629,38.169,46.05,27.188,5.358,7.002,5.85
1738,1.125,37.764,38.227,46.078,27.198,5.48,7.204,6.054
1739,1.129,37.459,38.227,46.079,27.205,5.44,7.125,5.893
1740,1.106,37.59,38.185,46.069,27.198,5.481,7.043,5.973
1741,1.106,37.697,38.235,46.088,27.195,5.481,7.082,5.852
1742,1.102,37.564,38.189,46.069,27.202,5.4,7.083,5.973
1743,1.106,37.601,38.282,46.069,27.198,5.399,7.123,5.933
1744,1.102,37.726,38.138,46.069,27.191,5.318,7.002,5.77
1745,1.089,37.823,38.18,46.05,27.184,5.236,7.041,5.891
1746,1.086,37.565,38.235,46.078,27.188,5.397,7.204,5.811
1747,1.089,37.648,38.138,46.059,27.195,5.318,7.206,5.81
1748,1.076,37.812,38.234,46.059,27.191,5.317,7.206,5.81
1749,1.076,37.891,38.189,46.05,27.191,5.236,7.287,5.85
1750,1.076,37.786,38.172,46.069,27.198,5.397,7.532,5.973
1751,1.073,37.958,38.254,46.088,27.202,5.358,7.372,5.893
1752,1.066,38.055,38.228,46.069,27.195,5.317,7.33,5.811
1753,1.05,38.162,38.321,46.059,27.202,5.317,7.37,5.85
1754,1.056,37.818,38.15,46.069,27.202,5.358,7.37,5.973
1755,1.043,37.996,38.227,46.078,27.198,5.358,7.452,5.974
1756,1.033,38.132,38.224,46.069,27.195,5.236,7.412,5.811
1757,1.017,38.172,38.149,46.05,27.188,5.194,7.33,5.81
1758,1.023,38.0,38.223,46.059,27.195,5.316,7.37,5.85
1759,1.01,38.151,38.224,46.05,27.191,5.276,7.452,5.891
1760,1.007,38.268,38.169,46.059,27.195,5.276,7.33,5.811
1761,0.988,38.317,38.207,46.059,27.191,5.235,7.37,5.81
1762,0.994,38.126,38.208,46.078,27.198,5.397,7.452,5.972
1763,1.0,38.316,38.309,46.088,27.205,5.318,7.371,5.852
1764,0.981,38.414,38.162,46.05,27.195,5.317,7.37,5.769
1765,0.984,38.453,38.219,46.069,27.195,5.276,7.33,5.809
1766,0.971,38.214,38.243,46.069,27.202,5.316,7.37,5.932
1767,0.964,38.384,38.079,46.069,27.205,5.317,7.37,5.852
1768,0.964,38.491,38.238,46.069,27.198,5.236,7.289,5.81
1769,0.951,38.78,38.153,46.03,27.184,5.113,7.207,5.81
1770,0.948,38.092,38.153,46.078,27.188,5.234,7.247,5.81
1771,0.951,38.258,38.238,46.05,27.191,5.194,7.247,5.769
1772,0.945,38.365,38.235,46.069,27.195,5.194,7.166,5.768
1773,0.928,38.27,38.255,46.04,27.188,5.234,7.206,5.768
1774,0.925,38.269,38.118,46.078,27.195,5.316,7.287,5.891
1775,0.915,38.451,38.273,46.107,27.202,5.398,7.369,5.892
1776,0.915,38.54,38.119,46.069,27.195,5.277,7.248,5.811
1777,0.905,38.339,38.133,46.059,27.195,5.316,7.247,5.85
1778,0.905,38.433,38.25,46.069,27.202,5.276,7.166,5.851
1779,0.902,38.587,38.22,46.059,27.198,5.276,7.246,5.891
1780,0.892,38.704,38.204,46.097,27.191,5.276,7.166,5.811
1781,0.879,38.216,38.126,46.06,27.188,5.113,7.043,5.728
1782,0.879,38.345,38.23,46.069,27.198,5.274,7.123,5.727
1783,0.889,38.491,38.267,46.069,27.188,5.154,7.124,5.727
1784,0.882,38.578,38.158,46.059,27.195,5.193,7.083,5.687
1785,0.879,38.205,38.254,46.059,27.188,5.153,7.123,5.809
1786,0.866,38.355,38.169,46.069,27.205,5.234,7.205,5.891
1787,0.879,38.539,38.25,46.107,27.205,5.397,7.206,5.811
1788,0.869,38.598,38.259,46.088,27.195,5.277,7.206,5.85
1789,0.863,38.234,38.193,46.069,27.198,5.235,7.206,5.81
1790,0.862,38.413,38.282,46.174,27.195,5.235,7.206,5.85
1791,0.866,38.558,38.154,46.079,27.205,5.275,7.247,5.81
1792,0.859,38.617,38.285,46.069,27.191,5.235,7.166,5.728
1793,0.833,38.129,38.267,46.05,27.184,5.113,7.124,5.727
1794,0.846,38.316,38.15,46.059,27.198,5.234,7.124,5.768
1795,0.843,38.471,38.215,46.059,27.191,5.194,7.205,5.647
1796,0.833,38.521,38.138,46.059,27.188,5.194,7.084,5.767
1797,0.833,38.233,38.137,46.059,27.184,5.153,7.123,5.728
1798,0.826,38.441,38.188,46.097,27.205,5.275,7.246,5.85
1799,0.836,38.597,38.282,46.117,27.205,5.316,7.166,5.81
1800,0.826,38.57,38.169,46.088,27.195,5.114,7.124,5.769
1801,0.83,38.349,38.168,46.079,27.191,5.234,7.124,5.809
1802,0.823,38.491,38.262,46.088,27.205,5.194,7.124,5.769
1803,0.833,38.607,38.243,46.088,27.198,5.275,7.124,5.85
1804,0.83,38.388,38.212,46.088,27.184,5.073,6.961,5.648
1805,0.807,38.261,38.243,46.079,27.195,5.274,7.041,5.808
1806,0.823,38.423,38.2,46.088,27.198,5.235,6.96,5.728
1807,0.826,38.53,38.094,46.117,27.191,5.235,6.96,5.768
1808,0.823,38.109,38.129,46.069,27.188,5.153,7.0,5.687
1809,0.826,38.172,38.254,46.098,27.198,5.153,7.001,5.809
1810,0.833,38.364,38.185,46.127,27.209,5.356,7.123,5.728
1811,0.826,38.452,38.188,46.079,27.198,5.195,7.043,5.768
1812,0.817,38.06,38.254,46.088,27.195,5.234,7.082,5.768
1813,0.813,38.19,38.189,46.098,27.198,5.194,7.123,5.809
1814,0.813,38.326,38.196,46.098,27.198,5.194,7.287,5.85
1815,0.813,38.433,38.208,46.088,27.205,5.153,7.207,5.688
1816,0.803,38.012,38.2,46.069,27.195,5.031,7.125,5.646
1817,0.807,38.18,38.169,46.098,27.195,5.111,7.368,5.767
1818,0.803,38.326,38.141,46.088,27.195,5.112,7.289,5.687
1819,0.81,38.394,38.266,46.098,27.195,5.112,7.41,5.727
1820,0.807,38.05,38.177,46.079,27.191,5.112,7.371,5.727
1821,0.803,38.209,38.153,46.098,27.191,5.274,7.492,5.809
1822,0.816,38.384,38.277,46.136,27.205,5.316,7.616,5.81
1823,0.807,38.433,38.177,46.098,27.195,5.154,7.576,5.728
1824,0.807,37.916,38.223,46.098,27.191,5.275,7.657,5.768
1825,0.81,38.093,38.188,46.117,27.198,5.235,7.739,5.809
1826,0.813,38.239,38.2,46.108,27.205,5.275,7.74,5.81
1827,0.81,38.298,38.208,46.117,27.195,5.195,7.74,5.728
1828,0.803,37.953,38.219,46.088,27.184,5.072,7.699,5.646
1829,0.807,38.093,38.29,46.088,27.195,5.152,7.78,5.727
1830,0.816,38.258,38.177,46.107,27.188,5.153,7.822,5.727
1831,0.813,38.279,38.243,46.108,27.195,5.153,7.863,5.687
1832,0.8,37.886,38.247,46.088,27.191,5.112,7.822,5.646
1833,0.803,38.045,38.189,46.098,27.188,5.152,8.066,5.808
1834,0.813,38.209,38.145,46.165,27.209,5.315,8.109,5.891
1835,0.81,38.058,38.188,46.108,27.191,5.236,8.069,5.729
1836,0.807,37.807,38.192,46.108,27.195,5.153,7.987,5.687
1837,0.803,37.958,38.192,46.117,27.202,5.153,8.027,5.768
1838,0.813,38.094,38.184,46.108,27.195,5.193,8.109,5.768
1839,0.81,37.807,38.278,46.136,27.195,5.234,8.069,5.809
1840,0.807,37.862,38.095,46.127,27.191,5.113,7.865,5.688
1841,0.79,37.968,38.214,46.098,27.191,5.152,7.985,5.768
1842,0.803,38.113,38.208,46.107,27.191,5.112,7.986,5.768
1843,0.81,37.75,38.262,46.098,27.191,5.071,7.905,5.809
1844,0.803,37.871,38.208,46.107,27.188,5.111,7.863,5.728
1845,0.81,38.016,38.149,46.098,27.184,5.071,7.944,5.727
1846,0.81,38.133,38.231,46.136,27.205,5.274,8.108,6.012
1847,0.826,37.683,38.149,46.127,27.202,5.235,7.865,5.812
1848,0.81,37.793,38.25,46.117,27.195,5.194,7.944,5.85
1849,0.82,37.929,38.259,46.108,27.202,5.153,7.945,5.81
1850,0.82,38.045,38.2,46.117,27.198,5.153,7.864,5.85
1851,0.826,37.567,38.255,46.127,27.205,5.193,7.904,5.81
1852,0.823,37.716,38.216,46.108,27.195,5.072,7.742,5.81
1853,0.8,37.842,38.235,46.088,27.184,5.07,7.821,5.81
1854,0.81,37.939,38.157,46.127,27.198,5.152,7.741,5.81
1855,0.803,37.537,38.18,46.108,27.191,5.112,7.74,5.728
1856,0.813,37.706,38.254,46.088,27.188,5.071,7.659,5.768
1857,0.803,37.842,38.165,46.107,27.191,5.07,7.617,5.809
1858,0.813,37.92,38.25,46.146,27.202,5.233,7.698,5.972
1859,0.816,37.614,38.243,46.137,27.205,5.194,7.618,5.811
1860,0.803,37.735,38.146,46.146,27.195,5.153,7.576,5.891
1861,0.8,37.88,38.215,46.118,27.198,5.153,7.575,5.892
1862,0.823,37.93,38.196,46.117,27.195,5.153,7.575,5.933
1863,0.82,37.518,38.262,46.127,27.205,5.234,7.575,5.892
1864,0.82,37.677,38.107,46.108,27.195,5.072,7.372,5.77
1865,0.807,37.784,38.168,46.088,27.195,4.989,7.452,5.809
1866,0.816,37.843,38.266,46.117,27.195,5.151,7.452,5.81
1867,0.816,37.469,38.185,46.136,27.188,5.112,7.412,5.81
1868,0.816,37.609,38.227,46.108,27.191,5.03,7.411,5.81
1869,0.816,37.726,38.177,46.088,27.191,5.111,7.452,5.81
1870,0.823,37.449,38.215,46.146,27.198,5.234,7.615,5.972
1871,0.83,37.484,38.134,46.156,27.202,5.153,7.495,5.852
1872,0.817,37.6,38.25,46.127,27.198,5.071,7.453,5.81
1873,0.816,37.716,38.278,46.136,27.195,5.152,7.452,5.891
1874,0.803,37.276,38.087,46.137,27.198,5.193,7.534,5.811
1875,0.816,37.367,38.292,46.156,27.202,5.194,7.575,5.972
1876,0.803,37.522,38.185,46.137,27.195,5.072,7.291,5.771
1877,0.797,37.6,38.231,46.194,27.191,5.07,7.369,5.85
1878,0.816,37.208,38.22,46.128,27.205,5.152,7.411,5.81
1879,0.813,37.338,38.216,46.136,27.195,5.153,7.452,5.85
1880,0.807,37.512,38.208,46.156,27.188,5.031,7.371,5.851
1881,0.807,37.581,38.141,46.137,27.188,5.03,7.33,5.851
1882,0.8,37.217,38.27,46.137,27.188,5.233,7.37,6.013
1883,0.816,37.386,38.255,46.156,27.205,5.235,7.411,5.974
1884,0.82,37.541,38.169,46.137,27.198,5.153,7.33,5.811
1885,0.807,37.581,38.239,46.146,27.195,5.112,7.329,5.932
1886,0.82,37.102,38.161,46.146,27.198,5.112,7.37,5.933
1887,0.826,37.26,38.153,46.137,27.198,5.234,7.33,5.933
1888,0.813,37.444,38.254,46.165,27.198,5.194,7.248,5.852
1889,0.82,37.465,38.212,46.118,27.188,5.072,7.125,5.769
1890,0.807,37.158,38.157,46.117,27.191,5.152,7.165,5.891
1891,0.82,37.338,38.141,46.136,27.198,5.153,7.206,5.851
1892,0.81,37.483,38.254,46.137,27.191,5.112,7.165,5.769
1893,0.813,37.513,38.247,46.137,27.188,5.112,7.124,5.85
1894,0.81,37.044,38.161,46.137,27.191,5.193,7.124,5.769
1895,0.803,37.231,38.207,46.175,27.198,5.316,7.205,6.053
1896,0.82,37.405,38.18,46.166,27.202,5.276,7.206,5.893
1897,0.8,37.724,38.192,46.166,27.198,5.154,7.206,5.933
1898,0.807,37.199,38.13,46.166,27.195,5.153,7.287,5.852
1899,0.8,37.348,38.234,46.166,27.202,5.275,7.369,5.973
1900,0.816,37.474,38.181,46.175,27.205,5.195,7.452,5.933
1901,0.8,37.053,38.168,46.156,27.191,5.153,7.412,5.852
1902,0.803,36.915,38.239,46.127,27.181,5.112,7.533,5.973
1903,0.803,37.115,38.235,46.156,27.195,5.193,7.616,5.852
1904,0.807,37.213,38.22,46.146,27.191,5.234,7.657,5.851
1905,0.807,36.849,38.153,46.137,27.191,5.194,7.658,5.851
1906,0.797,36.922,38.215,46.137,27.191,5.194,7.658,5.891
1907,0.81,37.105,38.231,46.213,27.202,5.316,7.861,6.014
1908,0.826,37.222,38.216,46.214,27.205,5.317,7.741,5.893
1909,0.813,36.849,38.282,46.147,27.198,5.195,7.781,5.851
1910,0.813,36.989,38.072,46.194,27.198,5.234,7.822,5.891
1911,0.813,37.154,38.206,46.166,27.202,5.275,7.944,5.973
1912,0.807,37.232,38.27,46.166,27.198,5.316,7.864,5.974
1913,0.813,36.696,38.201,46.156,27.188,5.154,7.7,5.771
1914,0.803,36.786,38.145,46.156,27.195,5.234,7.78,5.85
1915,0.8,36.979,38.172,46.156,27.191,5.316,7.781,5.891
1916,0.797,37.077,38.2,46.166,27.195,5.236,7.822,5.811
1917,0.787,36.675,38.255,46.261,27.191,5.275,7.741,5.81
1918,0.793,36.863,38.15,46.157,27.195,5.235,7.781,5.972
1919,0.8,36.999,38.27,46.204,27.209,5.397,7.903,6.015
1920,0.813,37.115,38.107,46.233,27.202,5.318,7.701,5.934
1921,0.794,36.666,38.187,46.176,27.198,5.276,7.699,5.892
1922,0.797,36.805,38.282,46.175,27.202,5.398,7.74,5.973
1923,0.807,36.96,38.181,46.175,27.198,5.358,7.699,5.893
1924,0.803,37.019,38.219,46.194,27.195,5.358,7.699,5.973
1925,0.797,36.665,38.114,46.175,27.188,5.236,7.618,5.852
1926,0.781,36.815,38.176,46.175,27.191,5.235,7.617,5.851
1927,0.79,36.979,38.145,46.185,27.198,5.235,7.535,5.932
1928,0.797,36.991,38.16,46.166,27.195,5.316,7.534,5.892
1929,0.81,36.665,38.274,46.166,27.184,5.276,7.616,5.811
1930,0.794,36.834,38.115,46.204,27.191,5.195,7.657,5.81
1931,0.8,36.97,38.234,46.195,27.202,5.397,7.78,5.972
1932,0.8,36.741,38.251,46.195,27.205,5.358,7.862,5.933
1933,0.797,36.566,38.247,46.175,27.198,5.277,7.7,5.933
1934,0.79,36.747,38.122,46.204,27.198,5.316,7.861,5.892
1935,0.787,36.864,38.191,46.195,27.195,5.317,7.782,5.973
1936,0.79,36.596,38.247,46.204,27.205,5.317,7.822,5.893
1937,0.784,36.68,38.169,46.185,27.195,5.276,7.863,5.811
1938,0.784,36.805,38.153,46.166,27.191,5.154,7.782,5.81
1939,0.78,36.941,38.297,46.194,27.195,5.315,7.822,5.932
1940,0.774,36.54,38.146,46.195,27.195,5.236,7.822,5.852
1941,0.78,36.67,38.215,46.175,27.191,5.194,7.781,5.851
1942,0.78,36.805,38.216,46.166,27.188,5.194,7.74,5.729
1943,0.787,36.903,38.274,46.175,27.191,5.234,7.943,5.972
1944,0.793,36.51,38.173,46.233,27.219,5.357,8.067,5.974
1945,0.797,36.679,38.204,46.185,27.192,5.317,7.946,5.974
1946,0.787,36.815,38.239,46.214,27.202,5.317,7.945,5.974
1947,0.787,36.903,38.142,46.319,27.198,5.276,7.945,5.974
1948,0.79,36.443,38.203,46.215,27.198,5.357,8.026,5.933
1949,0.8,36.573,38.231,46.195,27.198,5.317,7.946,5.892
1950,0.797,36.708,38.083,46.214,27.191,5.154,7.864,5.811
1951,0.774,36.787,38.23,46.185,27.195,5.275,7.985,5.85
1952,0.78,36.538,38.231,46.204,27.195,5.195,7.864,5.851
1953,0.777,36.718,38.231,46.195,27.195,5.194,7.863,5.851
1954,0.774,36.854,38.161,46.185,27.191,5.234,7.863,5.81
1955,0.761,36.913,38.188,46.175,27.195,5.194,7.863,5.85
1956,0.774,36.568,38.243,46.223,27.205,5.356,7.904,5.973
1957,0.79,36.785,38.099,46.291,27.205,5.236,7.823,5.893
1958,0.777,36.883,38.242,46.215,27.195,5.357,7.781,5.973
1959,0.777,36.913,38.271,46.224,27.195,5.317,7.822,5.974
1960,0.767,36.664,38.193,46.233,27.195,5.317,7.822,6.055
1961,0.774,36.815,38.231,46.224,27.198,5.317,7.822,6.015
1962,0.774,36.951,38.243,46.214,27.191,5.236,7.7,5.812
1963,0.767,36.731,38.243,46.185,27.188,5.235,7.78,5.891
1964,0.78,36.537,38.138,46.214,27.198,5.275,7.7,5.892
1965,0.78,36.67,38.215,46.224,27.195,5.316,7.78,5.933
1966,0.771,36.805,38.204,46.224,27.191,5.236,7.822,5.852
1967,0.761,36.644,38.122,46.224,27.195,5.275,7.822,5.932
1968,0.767,36.728,38.254,46.224,27.202,5.357,8.147,6.014
1969,0.79,36.911,38.236,46.252,27.209,5.399,8.15,5.974
1970,0.774,37.0,38.099,46.234,27.202,5.358,8.15,5.933
1971,0.78,36.55,38.14,46.224,27.202,5.317,8.273,5.892
1972,0.774,36.651,38.203,46.243,27.198,5.317,8.274,5.933
1973,0.771,36.824,38.258,46.233,27.205,5.358,8.314,6.014
1974,0.774,36.922,38.118,46.233,27.198,5.317,8.274,5.893
1975,0.758,36.482,38.226,46.195,27.184,5.195,8.193,5.811
1976,0.761,36.669,38.235,46.223,27.195,5.316,8.314,5.891
1977,0.757,36.825,38.212,46.3,27.191,5.317,8.356,5.892
1978,0.754,36.941,38.22,46.244,27.198,5.317,8.315,5.851
1979,0.761,36.635,38.2,46.224,27.188,5.276,8.274,5.932
1980,0.757,36.824,38.227,46.339,27.198,5.357,8.355,5.974
1981,0.764,37.008,38.185,46.273,27.212,5.439,8.397,6.015
1982,0.774,37.039,38.262,46.263,27.195,5.359,8.356,5.974
1983,0.761,36.627,38.138,46.253,27.195,5.358,8.315,5.893
1984,0.754,36.805,38.164,46.253,27.205,5.358,8.274,5.973
1985,0.774,36.96,38.196,46.253,27.195,5.358,8.274,5.974
1986,0.78,37.029,38.223,46.253,27.202,5.317,8.233,5.893
1987,0.764,36.723,38.204,46.243,27.195,5.236,8.151,5.892
1988,0.774,36.921,38.169,46.253,27.191,5.235,8.15,5.851
1989,0.777,37.038,38.242,46.243,27.195,5.235,8.15,5.729
1990,0.777,37.078,38.142,46.243,27.198,5.194,8.15,5.768
1991,0.78,36.714,38.168,46.233,27.188,5.194,8.028,5.728
1992,0.774,36.902,38.274,46.243,27.202,5.356,8.19,5.972
1993,0.777,37.047,38.205,46.291,27.216,5.439,8.11,5.852
1994,0.771,37.25,38.169,46.272,27.192,5.318,8.028,5.851
1995,0.77,37.185,38.219,46.253,27.191,5.317,7.987,5.851
1996,0.767,37.328,38.192,46.253,27.202,5.317,7.946,5.932
1997,0.761,37.474,38.223,46.329,27.205,5.276,7.986,5.933
1998,0.764,36.67,38.157,46.273,27.198,5.316,7.824,5.77
1999,0.751,36.527,38.266,46.253,27.188,5.195,7.781,5.728
2000,0.748,36.727,38.154,46.262,27.191,5.316,7.781,5.768
2001,0.751,36.844,38.223,46.272,27.195,5.317,7.781,5.768
2002,0.761,36.884,38.263,46.263,27.195,5.276,7.74,5.809
2003,0.761,36.999,38.212,46.243,27.198,5.316,7.659,5.769
2004,0.761,37.183,38.227,46.291,27.198,5.358,7.78,5.931
2005,0.787,37.309,38.185,46.311,27.202,5.399,7.7,5.852
2006,0.774,36.649,38.25,46.282,27.198,5.318,7.618,5.769
2007,0.774,36.795,38.068,46.301,27.195,5.358,7.657,5.768
2008,0.774,36.96,38.218,46.282,27.205,5.277,7.739,5.809
2009,0.774,37.058,38.266,46.291,27.212,5.398,7.699,5.85
2010,0.774,36.665,38.185,46.359,27.192,5.236,7.536,5.648
2011,0.764,36.796,38.211,46.263,27.198,5.275,7.616,5.808
2012,0.754,36.97,38.196,46.282,27.195,5.316,7.576,5.728
2013,0.761,37.038,38.235,46.282,27.191,5.236,7.494,5.768
2014,0.764,36.713,38.196,46.282,27.195,5.235,7.494,5.768
2015,0.751,36.863,38.18,46.253,27.184,5.235,7.534,5.647
2016,0.764,37.028,38.25,46.31,27.205,5.438,7.697,5.849
2017,0.761,37.116,38.122,46.311,27.195,5.318,7.577,5.729
2018,0.764,36.848,38.223,46.292,27.202,5.317,7.575,5.89
2019,0.748,37.008,38.255,46.32,27.198,5.358,7.616,5.811
2020,0.754,37.154,38.138,46.311,27.205,5.317,7.617,5.85
2021,0.764,37.194,38.242,46.311,27.202,5.398,7.576,5.81
2022,0.757,36.878,38.173,46.292,27.191,5.155,7.494,5.688
2023,0.754,37.009,38.219,46.291,27.191,5.315,7.616,5.727
2024,0.757,37.164,38.212,46.311,27.191,5.276,7.617,5.727
2025,0.757,37.501,38.161,46.301,27.198,5.276,7.657,5.727
2026,0.754,36.862,38.242,46.292,27.188,5.235,7.658,5.727
2027,0.761,37.018,38.165,46.301,27.198,5.275,7.698,5.727
2028,0.77,37.173,38.235,46.33,27.205,5.398,7.821,5.89
2029,0.77,36.916,38.2,46.301,27.191,5.277,7.781,5.729
2030,0.767,36.865,38.176,46.311,27.205,5.316,7.74,5.768
2031,0.764,37.018,38.254,46.301,27.205,5.236,7.74,5.728
2032,0.761,37.125,38.236,46.301,27.205,5.316,7.74,5.768
2033,0.761,37.5,38.239,46.32,27.202,5.317,7.74,5.768
2034,0.764,37.638,38.161,46.282,27.191,5.195,7.618,5.687
2035,0.751,37.764,38.188,46.301,27.198,5.194,7.698,5.768
2036,0.757,37.89,38.2,46.301,27.195,5.275,7.699,5.728
2037,0.748,36.348,38.134,46.311,27.191,5.154,7.699,5.727
2038,0.751,36.457,38.187,46.311,27.191,5.193,7.699,5.687
2039,0.751,36.602,38.161,46.292,27.198,5.275,7.74,5.809
2040,0.761,36.728,38.16,46.339,27.205,5.438,7.943,5.85
2041,0.77,36.873,38.25,46.369,27.202,5.237,7.823,5.729
2042,0.757,37.018,38.173,46.331,27.202,5.316,7.863,5.809
2043,0.761,37.154,38.274,46.33,27.202,5.317,7.904,5.769
2044,0.761,37.251,38.169,46.349,27.205,5.317,7.985,5.809
2045,0.767,36.658,38.223,46.321,27.202,5.317,7.864,5.81
2046,0.761,36.844,38.266,46.32,27.195,5.114,7.782,5.728
2047,0.754,36.951,38.025,46.34,27.195,5.234,7.944,5.768
2048,0.774,37.019,38.218,46.33,27.195,5.235,7.945,5.85
2049,0.771,36.886,38.138,46.311,27.195,5.194,7.945,5.648
2050,0.761,37.047,38.078,46.349,27.188,5.234,7.905,5.727
2051,0.764,37.174,38.117,46.321,27.195,5.194,7.945,5.687
2052,0.754,37.251,38.25,46.34,27.202,5.316,8.067,5.931
2053,0.774,36.782,38.282,46.349,27.209,5.317,8.028,5.811
2054,0.758,36.902,38.193,46.35,27.198,5.236,7.946,5.769
2055,0.754,37.038,38.231,46.35,27.198,5.275,7.945,5.728
2056,0.757,37.097,38.181,46.35,27.198,5.316,7.986,5.809
2057,0.764,36.714,38.168,46.34,27.205,5.317,7.986,5.81
2058,0.77,36.902,38.121,46.34,27.198,5.236,7.824,5.688
2059,0.754,36.98,38.246,46.311,27.184,5.153,7.781,5.809
2060,0.761,36.924,38.169,46.378,27.198,5.315,7.862,5.769
2061,0.757,36.865,38.161,46.331,27.198,5.236,7.822,5.768
2062,0.761,37.009,38.231,46.33,27.195,5.235,7.822,5.728
2063,0.757,37.116,38.177,46.321,27.191,5.194,7.781,5.727
2064,0.754,36.685,38.161,46.349,27.198,5.234,7.944,5.89
2065,0.777,36.777,38.211,46.407,27.212,5.357,7.945,5.811
2066,0.767,36.912,38.216,46.35,27.195,5.317,7.823,5.81
2067,0.767,37.019,38.247,46.359,27.202,5.276,7.863,5.728
2068,0.767,36.55,38.193,46.359,27.202,5.276,7.863,5.85
2069,0.774,36.679,38.219,46.359,27.205,5.276,7.822,5.81
2070,0.767,36.863,38.145,46.369,27.198,5.276,7.781,5.647
2071,0.767,36.922,38.195,46.331,27.188,5.154,7.7,5.645
2072,0.767,36.923,38.27,46.34,27.202,5.153,7.78,5.727
2073,0.764,37.076,38.15,46.349,27.195,5.275,7.862,5.646
2074,0.764,37.212,38.219,46.35,27.198,5.113,7.782,5.645
2075,0.751,37.29,38.161,46.359,27.202,5.234,7.781,5.686
2076,0.748,36.38,38.192,46.359,27.198,5.275,7.944,5.849
2077,0.76,36.563,38.196,46.417,27.209,5.398,8.108,5.81
2078,0.767,36.718,38.2,46.369,27.198,5.318,8.028,5.769
2079,0.774,36.767,38.282,46.369,27.205,5.236,7.946,5.728
2080,0.767,36.615,38.095,46.398,27.198,5.275,7.986,5.727
2081,0.767,36.786,38.246,46.379,27.205,5.276,8.068,5.809
2082,0.777,36.931,38.189,46.379,27.198,5.276,7.946,5.647
2083,0.761,36.961,38.2,46.359,27.184,5.154,7.823,5.605
2084,0.751,36.482,38.184,46.378,27.198,5.234,7.985,5.726
2085,0.764,36.631,38.157,46.379,27.198,5.194,7.946,5.687
2086,0.764,36.795,38.215,46.379,27.198,5.234,7.945,5.687
2087,0.761,36.816,38.153,46.379,27.191,5.194,7.945,5.646
2088,0.754,36.538,38.207,46.369,27.191,5.234,7.986,5.727
2089,0.774,36.737,38.255,46.388,27.212,5.316,8.149,5.85
2090,0.784,36.883,38.193,46.532,27.205,5.317,7.988,5.769
2091,0.761,36.616,38.231,46.38,27.202,5.236,7.986,5.768
2092,0.761,36.297,38.185,46.388,27.205,5.275,8.027,5.809
2093,0.77,36.447,38.208,46.407,27.202,5.316,8.027,5.81
2094,0.777,36.592,38.212,46.408,27.202,5.317,8.027,5.85
2095,0.774,36.488,38.145,46.388,27.198,5.236,7.865,5.729
2096,0.767,36.516,38.195,46.369,27.188,5.113,7.863,5.687
2097,0.761,36.689,38.106,46.388,27.198,5.234,7.822,5.727
2098,0.757,36.806,38.172,46.388,27.198,5.235,7.863,5.768
2099,0.754,36.318,38.27,46.379,27.195,5.235,7.822,5.728
2100,0.754,36.409,38.111,46.369,27.188,5.153,7.741,5.809
2101,0.757,36.582,38.218,46.388,27.195,5.275,7.821,5.891
2102,0.78,36.747,38.192,46.436,27.212,5.398,7.781,5.892
2103,0.771,36.413,38.29,46.408,27.195,5.358,7.74,5.811
2104,0.761,36.563,38.177,46.408,27.202,5.358,7.74,5.85
2105,0.764,36.699,38.192,46.408,27.198,5.317,7.699,5.851
2106,0.767,36.825,38.247,46.408,27.202,5.358,7.74,5.81
2107,0.774,36.174,38.169,46.408,27.198,5.277,7.577,5.688
2108,0.754,36.302,38.215,46.388,27.188,5.195,7.535,5.809
2109,0.764,36.476,38.149,46.388,27.195,5.275,7.616,5.81
2110,0.774,36.573,38.223,46.417,27.195,5.235,7.657,5.769
2111,0.774,36.306,38.204,46.408,27.191,5.194,7.576,5.687
2112,0.758,36.456,38.223,46.388,27.191,5.234,7.616,5.768
2113,0.764,36.621,38.239,46.417,27.209,5.357,7.739,5.972
2114,0.78,36.709,38.216,46.446,27.205,5.358,7.862,5.893
2115,0.754,36.25,38.13,46.408,27.205,5.358,7.741,5.851
2116,0.761,36.418,38.25,46.427,27.202,5.317,7.821,5.851
2117,0.757,36.544,38.107,46.427,27.198,5.398,7.781,5.891
2118,0.757,36.612,38.226,46.417,27.205,5.399,7.822,5.892
2119,0.774,36.191,38.282,46.417,27.198,5.358,7.7,5.77
2120,0.761,36.302,38.119,46.398,27.188,5.358,7.821,5.85
2121,0.774,36.456,38.219,46.436,27.198,5.358,7.741,5.851
2122,0.777,36.554,38.161,46.427,27.195,5.358,7.862,5.851
2123,0.774,36.152,38.242,46.398,27.191,5.317,7.822,5.851
2124,0.761,36.301,38.142,46.417,27.191,5.276,7.863,5.769
2125,0.77,36.437,38.184,46.436,27.202,5.438,8.066,5.972
2126,0.777,36.103,38.247,46.456,27.212,5.481,8.109,5.893
2127,0.774,36.061,38.138,46.446,27.195,5.44,8.109,5.933
2128,0.777,36.214,38.242,46.446,27.198,5.44,8.069,5.892
2129,0.78,36.35,38.122,46.437,27.202,5.44,8.028,5.973
2130,0.767,35.997,38.199,46.465,27.205,5.481,8.068,5.974
2131,0.774,36.099,38.243,46.447,27.195,5.4,8.028,5.852
2132,0.764,36.234,38.208,46.427,27.188,5.277,7.987,5.81
2133,0.761,36.35,38.18,46.437,27.205,5.398,8.027,5.891
2134,0.761,36.035,38.122,46.456,27.198,5.44,7.987,5.892
2135,0.761,36.185,38.219,46.437,27.195,5.359,7.946,5.851
2136,0.754,36.34,38.243,46.427,27.191,5.358,7.945,5.891
2137,0.757,36.438,38.134,46.446,27.205,5.439,8.026,5.933
2138,0.767,35.892,38.254,46.485,27.209,5.562,8.027,5.892
2139,0.764,36.04,38.189,46.466,27.198,5.523,7.865,5.892
2140,0.757,36.195,38.169,46.456,27.195,5.482,7.904,5.933
2141,0.754,36.273,38.203,46.466,27.202,5.359,7.863,5.892
2142,0.764,35.929,38.149,46.466,27.209,5.48,7.904,5.892
2143,0.764,36.107,38.262,46.447,27.195,5.481,7.782,5.851
2144,0.754,36.215,38.161,46.427,27.184,5.318,7.74,5.81
2145,0.754,36.302,38.281,46.456,27.205,5.439,7.821,5.891
2146,0.767,35.872,38.181,46.456,27.202,5.44,7.822,5.811
2147,0.757,36.04,38.188,46.475,27.195,5.481,7.741,5.81
2148,0.764,36.176,38.219,46.447,27.191,5.318,7.618,5.81
2149,0.761,36.215,38.165,46.456,27.195,5.439,7.698,5.932
2150,0.767,35.784,38.145,46.494,27.216,5.562,7.821,5.974
2151,0.77,35.953,38.156,46.466,27.205,5.482,7.659,5.852
2152,0.764,36.079,38.223,46.466,27.195,5.4,7.617,5.891
