time,ecg,bvp,gsr,rsp,skt,emg_zygo,emg_coru,emg_trap
0,0.636,36.41,30.61,42.962,32.411,7.411,5.687,10.081
1,0.626,36.419,30.65,42.942,32.408,7.37,5.687,9.999
2,0.629,36.022,30.602,42.942,32.408,7.288,5.604,9.834
3,0.619,36.274,30.681,42.991,32.422,7.411,5.687,10.04
4,0.609,36.41,30.642,42.962,32.408,7.37,5.645,9.999
5,0.613,36.632,30.614,42.991,32.411,7.329,5.727,9.999
6,0.616,36.08,30.583,42.952,32.404,7.288,5.687,9.999
7,0.619,36.322,30.614,42.991,32.422,7.37,5.727,10.081
8,0.629,36.458,30.673,42.942,32.408,7.288,5.687,9.999
9,0.632,36.167,30.626,42.971,32.411,7.288,5.604,9.876
10,0.629,35.896,30.606,42.991,32.432,7.411,5.727,9.999
11,0.619,36.119,30.618,42.981,32.408,7.329,5.604,9.999
12,0.619,36.274,30.65,42.962,32.418,7.329,5.768,9.916
13,0.632,36.003,30.618,42.991,32.408,7.288,5.645,9.793
14,0.636,36.022,30.559,42.981,32.415,7.329,5.727,9.957
15,0.632,36.235,30.634,42.942,32.411,7.288,5.645,9.876
16,0.632,36.4,30.658,42.962,32.411,7.329,5.645,9.752
17,0.629,35.925,30.563,43.01,32.429,7.452,5.768,9.999
18,0.606,35.983,30.614,42.962,32.415,7.329,5.687,9.999
19,0.619,36.235,30.614,42.971,32.411,7.288,5.687,10.081
20,0.606,36.371,30.63,42.971,32.411,7.288,5.81,10.04
21,0.6,35.848,30.689,42.981,32.415,7.37,5.645,10.163
22,0.593,35.993,30.532,42.952,32.411,7.206,5.563,10.04
23,0.586,36.264,30.591,43.0,32.418,7.247,5.645,10.163
24,0.593,36.381,30.65,43.0,32.436,7.411,5.81,10.245
25,0.58,35.683,30.579,42.942,32.408,7.247,5.727,10.204
26,0.593,35.945,30.559,42.981,32.408,7.288,5.727,10.163
27,0.603,36.148,30.559,42.962,32.411,7.288,5.727,10.081
28,0.603,36.264,30.622,42.952,32.418,7.206,5.727,10.122
29,0.606,35.77,30.685,42.933,32.404,7.124,5.604,10.04
30,0.623,36.051,30.63,42.971,32.422,7.206,5.727,10.081
31,0.626,36.255,30.681,42.981,32.422,7.329,5.81,10.163
32,0.626,36.371,30.551,42.942,32.404,7.124,5.727,10.081
33,0.649,35.557,30.63,42.981,32.418,7.165,5.687,10.081
34,0.636,35.819,30.666,42.962,32.408,7.083,5.645,9.957
35,0.626,36.042,30.591,42.981,32.411,7.165,5.687,9.957
36,0.623,36.138,30.599,42.952,32.408,7.083,5.645,9.999
37,0.616,35.722,30.595,42.971,32.411,7.165,5.727,9.999
38,0.619,35.964,30.673,42.971,32.418,7.247,5.81,10.122
39,0.616,36.196,30.65,42.952,32.404,7.083,5.604,10.081
40,0.623,36.332,30.504,43.0,32.408,7.247,5.687,10.122
41,0.603,35.654,30.634,42.952,32.411,7.288,5.645,10.163
42,0.596,35.916,30.638,42.962,32.422,7.329,5.687,10.245
43,0.59,36.1,30.63,42.962,32.411,7.288,5.604,10.163
44,0.603,36.206,30.606,42.991,32.418,7.411,5.687,10.286
45,0.586,35.673,30.638,42.962,32.418,7.37,5.768,10.327
46,0.593,35.954,30.63,42.942,32.404,7.288,5.604,10.204
47,0.609,36.167,30.535,42.981,32.415,7.37,5.768,10.204
48,0.6,36.226,30.618,42.981,32.408,7.37,5.645,10.163
49,0.619,35.644,30.61,42.971,32.411,7.329,5.687,10.245
50,0.619,35.896,30.591,42.962,32.411,7.329,5.645,10.163
51,0.623,36.09,30.681,42.971,32.415,7.37,5.727,10.204
52,0.626,36.129,30.528,42.962,32.418,7.288,5.727,10.327
53,0.642,35.712,30.571,42.942,32.404,7.247,5.645,10.081
54,0.652,36.012,30.638,42.971,32.415,7.288,5.687,10.163
55,0.632,36.129,30.61,42.942,32.411,7.247,5.687,10.081
56,0.636,36.206,30.618,42.942,32.408,7.288,5.768,10.163
57,0.626,35.77,30.583,42.962,32.408,7.124,5.727,10.122
58,0.626,36.012,30.662,42.971,32.415,7.288,5.727,10.245
59,0.606,36.187,30.622,42.962,32.415,7.288,5.727,10.286
60,0.613,36.216,30.626,42.942,32.404,7.124,5.604,10.122
61,0.619,35.664,30.677,42.981,32.415,7.206,5.727,10.286
62,0.603,35.887,30.587,42.962,32.411,7.206,5.687,10.245
63,0.606,36.071,30.622,42.962,32.415,7.165,5.727,10.245
64,0.6,36.003,30.662,42.952,32.408,7.124,5.645,10.204
65,0.596,35.712,30.602,42.971,32.411,7.165,5.768,10.327
66,0.609,35.935,30.614,42.942,32.411,7.247,5.727,10.245
67,0.629,36.119,30.599,42.962,32.404,7.124,5.563,10.081
68,0.632,35.79,30.681,42.991,32.422,7.206,5.687,10.163
69,0.623,35.625,30.602,42.962,32.411,7.206,5.727,10.163
70,0.636,35.887,30.563,42.962,32.411,7.124,5.687,10.204
71,0.636,36.032,30.595,42.962,32.408,7.124,5.687,10.122
72,0.646,35.673,30.63,42.971,32.415,7.206,5.727,10.163
73,0.655,35.751,30.595,42.952,32.411,7.206,5.687,10.122
74,0.655,35.974,30.563,42.962,32.408,7.124,5.645,9.916
75,0.659,36.138,30.658,42.991,32.425,7.247,5.727,10.04
76,0.646,35.518,30.65,42.942,32.415,7.288,5.645,10.04
77,0.646,35.722,30.539,42.962,32.422,7.288,5.687,10.081
78,0.649,35.925,30.606,42.962,32.408,7.247,5.645,9.999
79,0.652,36.09,30.547,42.981,32.411,7.288,5.687,10.04
80,0.652,35.422,30.61,42.923,32.408,7.206,5.687,10.04
81,0.662,35.664,30.642,42.942,32.411,7.206,5.604,9.916
82,0.672,35.877,30.567,42.991,32.432,7.329,5.768,10.081
83,0.665,35.993,30.587,42.942,32.415,7.247,5.727,10.04
84,0.701,35.441,30.646,42.942,32.415,7.247,5.727,10.081
85,0.721,35.664,30.634,42.962,32.415,7.124,5.727,9.999
86,0.741,35.906,30.567,42.952,32.422,7.206,5.768,10.081
87,0.764,35.993,30.559,42.942,32.404,7.124,5.645,9.957
88,0.784,35.431,30.606,42.971,32.408,7.206,5.687,9.957
89,0.79,35.683,30.65,42.971,32.425,7.247,5.851,10.163
90,0.797,35.887,30.599,42.923,32.404,7.042,5.727,10.081
91,0.813,36.032,30.673,42.962,32.411,7.124,5.768,9.999
92,0.826,35.412,30.587,42.942,32.408,7.042,5.687,9.957
93,0.833,35.683,30.614,42.952,32.415,7.083,5.768,9.999
94,0.826,35.877,30.681,42.933,32.411,6.96,5.645,9.916
95,0.853,35.993,30.571,42.971,32.422,6.96,5.727,9.957
96,0.856,35.393,30.595,42.962,32.425,7.001,5.81,10.163
97,0.882,35.654,30.622,42.933,32.401,6.795,5.687,10.04
98,0.918,35.906,30.662,42.962,32.415,6.919,5.687,10.081
99,0.958,35.954,30.673,42.962,32.411,6.837,5.687,9.999
100,1.007,35.422,30.622,42.962,32.408,6.877,5.645,10.163
101,1.053,35.664,30.677,42.942,32.408,6.754,5.645,10.04
102,1.089,35.887,30.579,42.971,32.415,6.795,5.768,10.122
103,1.102,35.964,30.618,42.962,32.411,6.837,5.727,10.286
104,1.135,35.489,30.666,42.933,32.404,6.631,5.522,9.999
105,1.194,35.799,30.492,43.0,32.422,6.795,5.687,10.163
106,1.221,35.974,30.591,42.962,32.411,6.672,5.727,10.163
107,1.299,36.032,30.579,42.962,32.411,6.713,5.645,10.204
108,1.375,35.267,30.646,42.962,32.408,6.631,5.604,10.04
109,1.454,35.528,30.646,42.942,32.411,6.713,5.727,10.163
110,1.503,35.702,30.524,42.942,32.411,6.631,5.727,10.245
111,1.575,35.79,30.591,42.962,32.411,6.631,5.563,10.04
112,1.592,35.548,30.677,42.991,32.429,6.795,5.727,10.245
113,1.582,35.78,30.606,42.962,32.411,6.754,5.645,10.122
114,1.543,35.974,30.599,42.942,32.415,6.795,5.687,10.204
115,1.513,36.003,30.618,42.933,32.415,6.713,5.604,10.081
116,1.451,35.373,30.654,42.942,32.415,6.795,5.645,10.204
117,1.388,35.606,30.524,42.923,32.408,6.754,5.604,10.122
118,1.368,35.819,30.599,42.942,32.411,6.837,5.563,10.163
119,1.316,36.032,30.646,42.981,32.422,6.96,5.81,10.245
120,1.214,35.47,30.599,42.933,32.411,6.877,5.645,10.327
121,1.129,35.761,30.646,42.942,32.415,6.919,5.687,10.409
122,1.04,35.896,30.52,42.942,32.408,6.837,5.604,10.409
123,0.954,35.712,30.579,42.971,32.415,6.96,5.687,10.615
124,0.866,35.47,30.63,42.923,32.408,6.919,5.604,10.656
125,0.849,35.741,30.614,42.942,32.411,6.96,5.563,10.697
126,0.83,35.887,30.52,42.971,32.425,7.124,5.727,10.943
127,0.846,35.441,30.52,42.923,32.408,6.96,5.645,10.984
128,0.846,35.431,30.599,42.952,32.411,7.042,5.645,11.149
129,0.853,35.664,30.685,42.942,32.408,6.96,5.645,11.313
130,0.826,35.819,30.626,42.962,32.415,7.042,5.687,11.641
131,0.787,35.373,30.662,42.933,32.401,6.96,5.645,11.806
132,0.754,35.518,30.606,42.962,32.411,7.083,5.727,11.97
133,0.711,35.732,30.634,42.971,32.425,7.247,5.81,12.422
134,0.626,35.838,30.63,42.913,32.404,7.083,5.727,12.586
135,0.534,35.247,30.535,42.952,32.415,7.124,5.687,12.956
136,0.458,35.431,30.606,42.962,32.401,7.042,5.645,13.243
137,0.422,35.664,30.587,42.952,32.415,7.083,5.727,13.613
138,0.393,35.799,30.65,42.933,32.401,6.96,5.645,13.859
139,0.386,35.383,30.571,42.962,32.411,7.124,5.645,14.064
140,0.38,35.596,30.599,42.952,32.422,7.165,5.851,14.352
141,0.399,35.78,30.583,42.894,32.397,6.919,5.645,14.311
142,0.445,35.954,30.575,42.942,32.411,6.96,5.768,14.393
143,0.472,35.218,30.642,42.933,32.415,6.96,5.687,14.311
144,0.508,35.47,30.575,42.952,32.415,7.001,5.727,14.475
145,0.541,35.683,30.622,43.01,32.401,6.837,5.645,14.434
146,0.593,35.828,30.61,42.952,32.418,6.919,5.687,14.639
147,0.646,35.276,30.606,42.933,32.418,7.001,5.768,14.845
148,0.692,35.557,30.662,42.923,32.397,6.754,5.604,14.68
149,0.747,35.819,30.583,42.952,32.418,6.877,5.687,15.009
150,0.744,35.896,30.575,42.923,32.408,6.837,5.687,15.05
151,0.797,35.296,30.583,42.971,32.404,6.837,5.727,15.338
152,0.803,35.548,30.599,42.913,32.415,6.795,5.727,15.42
153,0.83,35.78,30.606,42.962,32.422,6.877,5.727,15.707
154,0.826,35.848,30.602,42.942,32.422,6.877,5.81,15.995
155,0.833,35.257,30.634,42.923,32.397,6.713,5.645,15.871
156,0.853,35.567,30.654,42.962,32.418,6.754,5.687,15.995
157,0.833,35.751,30.52,42.933,32.408,6.713,5.687,16.118
158,0.83,35.838,30.599,42.952,32.411,6.754,5.687,16.2
159,0.823,35.325,30.626,42.923,32.408,6.631,5.687,16.2
160,0.807,35.625,30.602,42.933,32.418,6.672,5.687,16.364
161,0.803,35.79,30.638,42.913,32.411,6.631,5.645,16.364
162,0.807,35.887,30.543,42.923,32.404,6.549,5.604,16.118
163,0.803,35.257,30.61,42.971,32.422,6.631,5.645,16.118
164,0.8,35.489,30.622,42.933,32.408,6.59,5.604,15.912
165,0.787,35.683,30.626,42.962,32.411,6.508,5.645,15.83
166,0.793,35.741,30.547,42.933,32.408,6.467,5.604,15.584
167,0.8,35.334,30.559,42.952,32.415,6.508,5.727,15.42
168,0.803,35.596,30.606,42.942,32.415,6.549,5.687,15.255
169,0.81,35.78,30.67,42.913,32.404,6.302,5.563,14.968
170,0.823,35.848,30.646,42.952,32.415,6.385,5.604,14.927
171,0.816,35.296,30.65,42.933,32.411,6.385,5.604,14.803
172,0.82,35.557,30.575,42.942,32.408,6.385,5.645,14.68
173,0.833,35.732,30.606,42.923,32.411,6.343,5.563,14.311
174,0.833,35.751,30.662,42.942,32.411,6.343,5.645,14.27
175,0.823,35.267,30.504,42.923,32.415,6.302,5.687,14.064
176,0.83,35.538,30.567,42.933,32.411,6.22,5.563,13.777
177,0.823,35.761,30.614,42.981,32.422,6.302,5.604,13.777
178,0.816,35.644,30.662,42.923,32.415,6.262,5.604,13.613
179,0.816,35.383,30.654,42.923,32.425,6.22,5.645,13.571
180,0.803,35.644,30.599,42.933,32.408,6.138,5.604,13.284
181,0.793,35.79,30.622,42.942,32.418,6.22,5.604,13.284
182,0.8,35.509,30.551,42.913,32.404,6.138,5.645,13.202
183,0.8,35.422,30.634,42.942,32.411,6.056,5.481,12.956
184,0.8,35.683,30.658,42.971,32.418,6.22,5.645,12.915
185,0.807,35.799,30.559,42.981,32.408,6.056,5.604,12.709
186,0.82,35.422,30.606,42.933,32.411,6.097,5.522,12.586
187,0.826,35.46,30.575,42.923,32.408,6.015,5.563,12.422
188,0.82,35.683,30.658,42.952,32.415,6.056,5.687,12.339
189,0.83,35.838,30.622,42.904,32.401,5.974,5.645,12.216
190,0.83,35.131,30.606,42.952,32.411,6.056,5.563,12.052
191,0.846,35.267,30.599,42.991,32.422,6.097,5.687,11.97
192,0.839,35.431,30.591,42.923,32.408,6.056,5.645,11.847
193,0.866,35.615,30.595,42.933,32.415,6.056,5.604,11.723
194,0.853,35.238,30.539,42.913,32.408,6.138,5.563,11.518
195,0.849,35.451,30.65,42.942,32.415,6.138,5.645,11.559
196,0.843,35.664,30.618,42.923,32.404,6.056,5.563,11.354
197,0.846,35.819,30.524,42.952,32.415,6.179,5.645,11.272
198,0.846,35.16,30.567,42.942,32.422,6.302,5.727,11.354
199,0.826,35.373,30.532,42.904,32.401,6.097,5.522,11.149
200,0.833,35.644,30.575,42.942,32.408,6.262,5.604,11.149
201,0.816,35.751,30.626,42.904,32.408,6.262,5.604,10.984
202,0.826,35.238,30.539,42.942,32.404,6.385,5.645,10.984
203,0.82,35.509,30.599,42.923,32.408,6.302,5.522,10.82
204,0.83,35.741,30.599,42.952,32.415,6.467,5.645,10.738
205,0.826,35.838,30.63,42.962,32.422,6.467,5.727,10.902
206,0.833,35.179,30.48,42.923,32.404,6.343,5.522,10.697
207,0.853,35.47,30.551,42.933,32.404,6.467,5.563,10.656
208,0.846,35.673,30.614,42.942,32.404,6.467,5.604,10.532
209,0.856,35.761,30.666,42.923,32.415,6.508,5.563,10.574
210,0.866,35.141,30.618,42.933,32.408,6.467,5.604,10.368
211,0.869,35.422,30.67,42.942,32.411,6.59,5.604,10.45
212,0.862,35.606,30.599,42.942,32.422,6.59,5.687,10.615
213,0.866,35.702,30.626,42.904,32.401,6.343,5.481,10.327
214,0.905,35.16,30.646,42.933,32.415,6.549,5.563,10.327
215,0.889,35.422,30.551,42.933,32.415,6.467,5.563,10.286
216,0.872,35.596,30.583,42.933,32.415,6.549,5.604,10.245
217,0.876,35.683,30.602,42.923,32.404,6.508,5.481,10.286
218,0.882,35.141,30.693,42.933,32.408,6.59,5.645,10.368
219,0.879,35.383,30.539,42.923,32.408,6.631,5.645,10.409
220,0.879,35.596,30.583,42.904,32.401,6.467,5.44,10.245
221,0.876,35.702,30.543,42.933,32.411,6.672,5.563,10.245
222,0.866,35.189,30.599,42.923,32.408,6.631,5.563,10.286
223,0.869,35.451,30.634,42.933,32.411,6.754,5.604,10.327
224,0.869,35.635,30.587,42.933,32.404,6.631,5.481,10.245
225,0.876,35.712,30.599,42.933,32.422,6.795,5.645,10.368
226,0.872,35.16,30.567,42.923,32.411,6.754,5.563,10.286
227,0.885,35.422,30.654,42.923,32.408,6.672,5.44,10.122
228,0.902,35.635,30.666,42.942,32.422,6.837,5.563,10.163
229,0.892,35.635,30.614,42.923,32.415,6.754,5.522,10.204
230,0.905,35.238,30.606,42.933,32.411,6.795,5.563,10.245
231,0.908,35.489,30.606,42.923,32.411,6.795,5.358,10.204
232,0.928,35.654,30.587,42.933,32.415,6.877,5.563,10.245
233,0.922,35.857,30.559,42.913,32.408,6.795,5.522,10.163
234,0.925,35.257,30.654,42.904,32.411,6.754,5.399,10.04
235,0.928,35.499,30.673,42.952,32.422,7.001,5.645,10.204
236,0.918,35.644,30.52,42.923,32.422,6.837,5.522,10.122
237,0.915,35.46,30.595,42.913,32.415,6.919,5.604,10.163
238,0.915,35.228,30.579,42.923,32.404,6.919,5.481,10.163
239,0.925,35.47,30.666,42.933,32.408,7.001,5.604,10.327
240,0.918,35.635,30.618,42.884,32.408,6.919,5.563,10.286
241,0.925,35.267,30.634,42.913,32.418,7.042,5.563,10.245
242,0.918,35.267,30.591,42.923,32.425,7.165,5.645,10.409
243,0.915,35.431,30.543,42.904,32.408,7.042,5.563,10.368
244,0.918,35.625,30.63,42.894,32.411,7.083,5.604,10.409
245,0.931,35.121,30.539,42.913,32.408,7.001,5.563,10.327
246,0.931,35.218,30.559,42.913,32.408,7.083,5.604,10.409
247,0.941,35.441,30.614,42.884,32.404,7.001,5.563,10.368
248,0.958,35.606,30.654,42.904,32.415,7.124,5.604,10.327
249,0.964,35.102,30.595,42.913,32.422,7.247,5.727,10.45
250,0.954,35.238,30.559,42.875,32.401,7.042,5.563,10.327
251,0.971,35.518,30.555,42.894,32.415,7.083,5.645,10.368
252,0.971,35.625,30.618,42.884,32.415,7.124,5.645,10.286
253,0.977,35.063,30.583,42.894,32.411,7.124,5.645,10.327
254,0.977,35.286,30.575,42.894,32.404,7.042,5.563,10.245
255,0.997,35.548,30.595,42.904,32.415,7.206,5.563,10.245
256,0.984,35.635,30.606,42.904,32.422,7.288,5.727,10.409
257,0.977,34.928,30.512,42.884,32.404,7.206,5.563,10.245
258,0.991,35.218,30.539,42.913,32.404,7.288,5.563,10.286
259,0.977,35.431,30.614,42.894,32.411,7.494,5.604,10.245
260,0.987,35.557,30.591,42.884,32.411,7.617,5.645,10.286
261,0.974,35.054,30.63,42.875,32.408,7.617,5.563,10.163
262,0.984,35.334,30.559,42.904,32.415,7.863,5.645,10.245
263,0.968,35.518,30.563,42.904,32.422,7.986,5.727,10.45
264,0.971,35.635,30.63,42.865,32.401,7.863,5.563,10.204
265,0.997,35.044,30.579,42.884,32.411,8.069,5.645,10.245
266,0.997,35.286,30.547,42.904,32.411,8.15,5.645,10.163
267,1.01,35.499,30.591,42.894,32.411,8.274,5.687,10.245
268,1.02,35.567,30.583,42.894,32.404,8.192,5.563,10.081
269,1.03,34.995,30.693,42.894,32.415,8.356,5.687,10.163
270,1.027,35.257,30.599,42.884,32.411,8.397,5.727,10.286
271,1.043,35.451,30.666,42.875,32.401,8.069,5.522,10.122
272,1.05,35.606,30.599,42.913,32.411,8.356,5.645,10.204
273,1.046,35.044,30.599,42.884,32.408,8.356,5.604,10.081
274,1.056,35.315,30.654,42.884,32.415,8.356,5.687,10.122
275,1.066,35.528,30.516,42.865,32.404,8.315,5.604,10.04
276,1.069,35.615,30.599,42.894,32.422,8.397,5.687,10.122
277,1.06,34.947,30.599,42.875,32.411,8.356,5.645,10.204
278,1.076,35.257,30.618,42.894,32.408,8.315,5.563,9.999
279,1.076,35.451,30.701,42.933,32.422,8.397,5.645,10.163
280,1.066,35.48,30.599,42.884,32.411,8.356,5.604,10.163
281,1.079,34.966,30.638,42.894,32.411,8.274,5.645,10.204
282,1.069,35.228,30.614,42.875,32.415,8.274,5.563,10.122
283,1.063,35.422,30.626,42.894,32.422,8.315,5.645,10.286
284,1.063,35.441,30.662,42.865,32.401,8.315,5.645,10.245
285,1.083,34.976,30.504,42.904,32.408,8.274,5.522,9.999
286,1.096,35.247,30.61,42.923,32.422,8.479,5.645,10.163
287,1.096,35.402,30.606,42.884,32.401,8.315,5.645,10.04
288,1.109,35.422,30.646,42.875,32.411,8.438,5.604,10.081
289,1.122,35.054,30.638,42.884,32.404,8.479,5.563,10.04
290,1.142,35.334,30.583,42.962,32.415,8.52,5.645,10.081
291,1.138,35.489,30.583,42.875,32.401,8.52,5.645,10.081
292,1.142,35.431,30.602,42.875,32.408,8.52,5.481,9.916
293,1.161,35.102,30.614,42.894,32.422,8.684,5.645,9.999
294,1.161,35.296,30.567,42.865,32.404,8.644,5.645,9.957
295,1.175,35.489,30.622,42.875,32.411,8.644,5.645,9.957
296,1.171,35.199,30.599,42.855,32.408,8.602,5.563,9.957
297,1.168,35.092,30.457,42.894,32.415,8.602,5.687,10.081
298,1.171,35.315,30.559,42.875,32.401,8.561,5.604,10.04
299,1.175,35.47,30.563,42.894,32.415,8.684,5.645,10.04
300,1.168,35.034,30.61,42.904,32.418,8.684,5.851,10.163
301,1.168,35.044,30.634,42.836,32.404,8.561,5.645,10.081
302,1.175,35.315,30.52,42.865,32.411,8.602,5.727,10.122
303,1.181,35.451,30.571,42.865,32.408,8.52,5.687,10.081
304,1.194,34.899,30.599,42.875,32.404,8.479,5.727,10.163
305,1.188,34.995,30.622,42.865,32.411,8.356,5.645,10.163
306,1.204,35.257,30.551,42.904,32.411,8.479,5.687,10.04
307,1.211,35.412,30.551,42.913,32.422,8.479,5.81,10.163
308,1.211,34.86,30.591,42.846,32.404,8.233,5.687,10.081
309,1.234,35.131,30.618,42.865,32.411,8.274,5.727,10.122
310,1.227,35.325,30.583,42.865,32.404,8.15,5.645,10.04
311,1.244,35.47,30.626,42.855,32.411,8.233,5.81,10.163
312,1.257,34.821,30.575,42.855,32.401,8.069,5.687,10.04
313,1.27,35.092,30.614,42.865,32.415,8.109,5.768,10.204
314,1.273,35.286,30.599,42.865,32.418,8.109,5.851,10.204
315,1.28,35.431,30.504,42.826,32.401,7.781,5.645,10.081
316,1.28,34.87,30.555,42.865,32.411,7.945,5.768,10.081
317,1.27,35.112,30.571,42.855,32.411,7.945,5.687,10.04
318,1.27,35.325,30.646,42.865,32.411,7.863,5.727,10.081
319,1.276,35.441,30.591,42.846,32.408,7.781,5.687,9.999
320,1.273,34.976,30.587,42.875,32.422,7.781,5.81,10.122
321,1.26,35.218,30.61,42.865,32.408,7.74,5.81,10.163
322,1.27,35.431,30.551,42.846,32.397,7.575,5.687,9.999
323,1.276,35.596,30.638,42.894,32.418,7.658,5.727,10.122
324,1.276,35.044,30.583,42.846,32.408,7.658,5.687,10.122
325,1.286,35.334,30.606,42.894,32.415,7.617,5.81,10.122
326,1.283,35.518,30.563,42.865,32.408,7.494,5.727,10.04
327,1.303,35.625,30.634,42.865,32.411,7.575,5.81,10.163
328,1.303,35.189,30.681,42.836,32.411,7.452,5.727,10.081
329,1.316,35.489,30.599,42.855,32.404,7.411,5.687,9.957
330,1.322,35.702,30.638,42.904,32.418,7.575,5.851,10.163
331,1.319,35.732,30.61,42.855,32.415,7.411,5.727,10.163
332,1.332,35.373,30.555,42.846,32.415,7.37,5.768,10.204
333,1.342,35.654,30.595,42.846,32.411,7.288,5.687,10.04
334,1.342,35.848,30.595,42.855,32.415,7.37,5.851,10.245
335,1.332,35.896,30.65,42.836,32.404,7.206,5.727,10.122
336,1.339,35.509,30.524,42.846,32.408,7.206,5.687,10.04
337,1.339,35.761,30.606,42.894,32.425,7.288,5.81,10.245
338,1.309,35.916,30.599,42.846,32.411,7.206,5.687,10.245
339,1.313,35.983,30.654,42.855,32.408,7.083,5.768,10.286
340,1.303,35.79,30.65,42.855,32.408,7.042,5.687,10.245
341,1.296,36.032,30.65,42.846,32.411,7.124,5.851,10.286
342,1.286,36.216,30.63,42.826,32.401,6.96,5.687,10.204
343,1.286,36.274,30.579,42.846,32.411,7.083,5.768,10.245
344,1.283,35.857,30.606,42.865,32.422,7.165,5.974,10.368
345,1.276,36.08,30.547,42.826,32.404,6.919,5.727,10.245
346,1.29,36.284,30.551,42.836,32.411,7.001,5.727,10.286
347,1.29,36.487,30.614,42.846,32.408,6.96,5.768,10.163
348,1.283,36.148,30.638,42.836,32.411,7.001,5.81,10.245
349,1.276,36.371,30.67,42.836,32.401,6.96,5.687,10.204
350,1.273,36.555,30.622,42.846,32.418,7.001,5.768,10.245
351,1.273,36.497,30.587,42.836,32.415,7.001,5.892,10.409
352,1.26,36.342,30.571,42.807,32.411,6.96,5.727,10.286
353,1.267,36.613,30.563,42.846,32.404,6.919,5.768,10.204
354,1.24,36.758,30.614,42.817,32.408,6.877,5.727,10.163
355,1.234,36.584,30.602,42.923,32.418,6.96,5.851,10.163
356,1.188,36.574,30.551,42.826,32.401,6.837,5.645,10.204
357,1.204,36.816,30.63,42.846,32.418,6.877,5.727,10.204
358,1.181,36.971,30.658,42.836,32.425,7.001,5.933,10.327
359,1.148,36.652,30.555,42.797,32.401,6.837,5.768,10.245
360,1.155,36.826,30.606,42.826,32.411,6.837,5.851,10.286
361,1.142,37.029,30.547,42.807,32.408,6.795,5.727,10.327
362,1.115,37.194,30.571,42.826,32.408,6.754,5.81,10.327
363,1.089,36.845,30.626,42.807,32.401,6.795,5.727,10.327
364,1.089,37.068,30.563,42.836,32.418,6.795,5.768,10.368
365,1.083,37.252,30.579,42.836,32.425,6.837,5.933,10.491
366,1.063,37.359,30.535,42.788,32.401,6.713,5.727,10.368
367,1.066,36.952,30.614,42.826,32.408,6.837,5.768,10.368
368,1.056,37.165,30.642,42.817,32.401,6.754,5.727,10.327
369,1.027,37.378,30.575,42.826,32.411,6.713,5.768,10.327
370,1.02,37.494,30.587,42.797,32.404,6.631,5.645,10.204
371,1.027,37.214,30.579,42.826,32.415,6.672,5.768,10.286
372,1.0,37.427,30.599,42.807,32.422,6.795,5.851,10.45
373,1.004,37.611,30.575,42.768,32.397,6.631,5.727,10.245
374,1.0,37.775,30.543,42.807,32.415,6.713,5.81,10.204
375,0.981,37.078,30.626,42.807,32.411,6.672,5.768,10.204
376,0.971,37.339,30.516,42.826,32.411,6.672,5.727,10.245
377,0.941,37.553,30.555,42.884,32.404,6.549,5.687,10.163
378,0.931,37.659,30.563,42.826,32.415,6.631,5.851,10.245
379,0.931,37.417,30.583,42.797,32.415,6.754,5.892,10.409
380,0.905,37.669,30.579,42.768,32.401,6.508,5.645,10.245
381,0.895,37.882,30.634,42.807,32.415,6.631,5.81,10.368
382,0.872,37.959,30.583,42.817,32.408,6.549,5.727,10.286
383,0.859,37.31,30.599,42.807,32.411,6.631,5.81,10.327
384,0.846,37.562,30.618,42.788,32.411,6.549,5.687,10.245
385,0.846,37.756,30.618,42.807,32.415,6.631,5.851,10.327
386,0.826,37.843,30.551,42.797,32.418,6.672,5.768,10.409
387,0.83,37.543,30.559,42.768,32.401,6.549,5.645,10.245
388,0.839,37.853,30.646,42.797,32.411,6.713,5.768,10.286
389,0.826,38.008,30.622,42.797,32.408,6.672,5.687,10.204
390,0.83,38.076,30.61,42.797,32.411,6.713,5.727,10.245
391,0.82,37.465,30.61,42.788,32.404,6.631,5.687,10.122
392,0.807,37.775,30.606,42.807,32.415,6.713,5.768,10.204
393,0.8,37.921,30.599,42.788,32.411,6.631,5.768,10.245
394,0.813,37.979,30.622,42.768,32.408,6.59,5.604,9.999
395,0.816,37.678,30.535,42.826,32.418,6.754,5.768,10.081
396,0.79,37.911,30.563,42.797,32.411,6.713,5.768,9.999
397,0.774,38.105,30.614,42.797,32.415,6.713,5.687,10.04
398,0.767,38.134,30.662,42.778,32.404,6.672,5.687,9.957
399,0.761,37.64,30.587,42.807,32.415,6.713,5.81,10.04
400,0.747,37.892,30.599,42.768,32.404,6.713,5.687,9.957
401,0.741,38.085,30.567,42.778,32.411,6.672,5.687,9.957
402,0.738,38.124,30.606,42.826,32.429,6.795,5.81,10.04
403,0.728,37.64,30.602,42.768,32.408,6.631,5.687,10.04
404,0.734,37.911,30.583,42.788,32.415,6.672,5.768,10.04
405,0.728,38.066,30.595,42.884,32.408,6.631,5.727,9.957
406,0.721,38.008,30.571,42.788,32.408,6.672,5.727,9.999
407,0.724,37.553,30.599,42.768,32.404,6.59,5.687,9.957
408,0.738,37.814,30.666,42.788,32.411,6.631,5.687,9.957
409,0.728,37.969,30.579,42.807,32.422,6.713,5.892,10.04
410,0.728,37.766,30.579,42.749,32.404,6.467,5.768,9.916
411,0.747,37.707,30.547,42.778,32.415,6.631,5.727,9.957
412,0.744,37.921,30.571,42.778,32.408,6.467,5.727,9.793
413,0.734,38.105,30.587,42.768,32.411,6.549,5.768,9.876
414,0.741,37.475,30.539,42.758,32.408,6.385,5.727,9.752
415,0.734,37.475,30.634,42.778,32.415,6.508,5.81,9.793
416,0.728,37.688,30.508,42.778,32.411,6.508,5.851,9.916
417,0.728,37.824,30.543,42.768,32.401,6.302,5.604,9.752
418,0.731,37.494,30.591,42.788,32.411,6.508,5.727,9.834
419,0.715,37.601,30.602,42.778,32.404,6.426,5.727,9.752
420,0.701,37.804,30.626,42.778,32.415,6.467,5.727,9.793
421,0.692,37.95,30.599,42.768,32.415,6.385,5.687,9.752
422,0.688,37.388,30.591,42.797,32.415,6.467,5.727,9.876
423,0.698,37.543,30.591,42.778,32.411,6.467,5.768,9.957
424,0.692,37.795,30.61,42.788,32.408,6.343,5.604,9.711
425,0.688,37.94,30.555,42.817,32.415,6.467,5.687,9.793
426,0.678,37.146,30.532,42.788,32.404,6.426,5.687,9.793
427,0.695,37.407,30.587,42.797,32.415,6.508,5.727,9.793
428,0.698,37.611,30.658,42.778,32.408,6.385,5.687,9.711
429,0.705,37.737,30.528,42.788,32.408,6.549,5.727,9.876
430,0.695,37.126,30.567,42.768,32.404,6.467,5.687,9.752
431,0.708,37.388,30.504,42.788,32.401,6.549,5.687,9.711
432,0.705,37.601,30.571,42.807,32.422,6.754,5.81,9.876
433,0.708,37.678,30.61,42.758,32.408,6.549,5.727,9.793
434,0.721,37.068,30.445,42.758,32.408,6.549,5.727,9.834
435,0.721,37.349,30.571,42.778,32.411,6.59,5.645,9.793
436,0.718,37.543,30.602,42.758,32.415,6.59,5.768,9.793
437,0.701,37.64,30.602,42.739,32.401,6.549,5.645,9.752
438,0.701,37.126,30.618,42.768,32.411,6.631,5.645,9.876
439,0.698,37.368,30.563,42.788,32.422,6.713,5.851,10.04
440,0.688,37.562,30.575,42.758,32.401,6.549,5.687,9.957
441,0.692,37.688,30.622,42.758,32.408,6.549,5.687,9.957
442,0.692,36.913,30.579,42.749,32.404,6.59,5.687,9.916
443,0.685,37.204,30.579,42.788,32.404,6.631,5.727,10.04
444,0.695,37.388,30.547,42.768,32.408,6.549,5.687,9.957
445,0.692,37.465,30.638,42.768,32.411,6.631,5.768,9.999
446,0.672,36.913,30.547,42.788,32.418,6.672,5.81,10.163
447,0.701,37.184,30.516,42.729,32.394,6.426,5.687,9.957
448,0.721,37.407,30.602,42.768,32.415,6.467,5.687,10.081
449,0.721,37.436,30.606,42.758,32.408,6.467,5.687,9.916
450,0.724,36.778,30.614,42.768,32.411,6.467,5.768,9.999
451,0.728,37.02,30.634,42.749,32.408,6.385,5.687,9.916
452,0.731,37.233,30.595,42.797,32.415,6.59,5.81,9.999
453,0.728,37.262,30.599,42.778,32.418,6.631,5.933,10.163
454,0.728,36.71,30.587,42.729,32.397,6.508,5.687,9.957
455,0.747,37.02,30.535,42.758,32.411,6.549,5.727,9.957
456,0.724,37.184,30.547,42.758,32.411,6.467,5.727,9.876
457,0.715,37.233,30.567,42.758,32.408,6.631,5.81,9.916
458,0.711,36.729,30.638,42.739,32.404,6.549,5.687,9.916
459,0.715,37.0,30.606,42.758,32.422,6.713,5.81,9.999
460,0.715,37.175,30.571,42.788,32.415,6.795,5.892,10.245
461,0.715,37.272,30.551,42.71,32.401,6.713,5.768,10.122
462,0.724,36.613,30.571,42.768,32.411,6.877,5.768,10.122
463,0.711,36.836,30.622,42.758,32.404,6.837,5.768,10.163
464,0.695,37.0,30.583,42.778,32.411,6.919,5.933,10.163
465,0.692,36.845,30.591,42.758,32.401,6.877,5.604,10.163
466,0.708,36.652,30.524,42.788,32.411,7.001,5.81,10.204
467,0.708,36.865,30.599,42.768,32.422,7.083,5.892,10.327
468,0.718,37.02,30.63,42.739,32.401,7.001,5.81,10.245
469,0.728,36.71,30.575,42.758,32.408,7.042,5.81,10.204
470,0.728,36.613,30.575,42.768,32.404,7.124,5.892,10.163
471,0.734,36.855,30.551,42.778,32.408,7.083,5.851,10.286
472,0.721,36.981,30.563,42.749,32.408,7.001,5.768,10.122
473,0.731,36.429,30.595,42.758,32.411,7.206,5.892,10.204
474,0.738,36.477,30.551,42.749,32.415,7.124,5.974,10.286
475,0.738,36.71,30.622,42.729,32.397,7.001,5.768,10.081
476,0.757,36.894,30.535,42.758,32.411,7.083,5.892,10.163
477,0.728,36.342,30.539,42.749,32.415,7.083,5.892,10.122
478,0.731,36.506,30.559,42.768,32.404,7.165,5.933,10.204
479,0.711,36.71,30.571,42.758,32.408,7.083,5.892,10.122
480,0.711,36.865,30.614,42.749,32.411,7.124,5.974,10.286
481,0.708,36.148,30.559,42.729,32.404,7.083,5.974,10.327
482,0.708,36.41,30.602,42.836,32.411,6.96,5.851,10.122
483,0.708,36.642,30.575,42.797,32.415,7.165,5.974,10.245
484,0.688,36.71,30.587,42.749,32.415,7.042,5.974,10.245
485,0.708,36.235,30.551,42.768,32.411,7.083,5.974,10.204
486,0.711,36.477,30.535,42.758,32.411,7.001,5.933,10.245
487,0.721,36.69,30.563,42.758,32.415,7.042,6.015,10.204
488,0.724,36.797,30.626,42.739,32.404,6.919,5.892,10.163
489,0.731,36.119,30.606,42.729,32.408,7.001,5.892,10.081
490,0.728,36.4,30.606,42.797,32.429,7.124,6.056,10.122
491,0.721,36.555,30.551,42.729,32.408,6.96,6.015,10.122
492,0.724,36.71,30.559,42.749,32.408,6.96,5.974,9.957
493,0.728,36.129,30.63,42.729,32.408,6.837,5.974,9.957
494,0.728,36.371,30.61,42.729,32.415,6.837,6.056,10.04
495,0.731,36.594,30.61,42.807,32.404,6.754,5.892,9.916
496,0.734,36.72,30.555,42.768,32.411,6.754,5.974,9.916
497,0.721,36.1,30.638,42.768,32.422,6.96,6.138,10.163
498,0.711,36.351,30.65,42.71,32.404,6.713,5.974,10.081
499,0.731,36.574,30.587,42.758,32.411,6.754,5.933,10.122
500,0.724,36.642,30.587,42.729,32.408,6.672,5.974,10.04
501,0.711,36.08,30.567,42.729,32.411,6.754,5.933,10.122
502,0.701,36.332,30.547,42.729,32.404,6.631,5.892,10.04
503,0.718,36.545,30.646,42.749,32.415,6.795,5.974,10.122
504,0.705,36.603,30.551,42.739,32.422,6.754,6.056,10.286
505,0.711,36.012,30.532,42.729,32.397,6.508,5.892,10.081
506,0.734,36.322,30.602,42.749,32.404,6.59,5.974,10.04
507,0.715,36.468,30.599,42.739,32.404,6.508,5.933,9.999
508,0.718,36.535,30.634,42.729,32.411,6.549,5.933,10.122
509,0.715,36.022,30.614,42.739,32.408,6.508,5.892,9.999
510,0.734,36.322,30.575,42.739,32.411,6.631,5.974,10.081
511,0.728,36.477,30.61,42.729,32.404,6.549,5.974,10.163
512,0.741,36.516,30.535,42.72,32.397,6.385,5.851,10.04
513,0.747,36.08,30.583,42.749,32.411,6.467,5.892,10.081
514,0.741,36.274,30.559,42.72,32.411,6.549,5.974,10.04
515,0.754,36.468,30.614,42.739,32.408,6.549,5.974,9.999
516,0.751,36.526,30.543,42.72,32.408,6.467,5.892,9.957
517,0.731,36.1,30.551,42.749,32.415,6.467,5.933,10.122
518,0.721,36.332,30.567,42.71,32.408,6.508,5.974,9.999
519,0.724,36.526,30.602,42.729,32.401,6.385,5.81,9.834
520,0.728,36.535,30.634,42.768,32.422,6.631,5.974,9.999
521,0.701,36.022,30.63,42.72,32.404,6.631,5.851,9.999
522,0.705,36.284,30.575,42.729,32.411,6.713,5.933,10.04
523,0.715,36.439,30.579,42.7,32.404,6.713,5.768,9.957
524,0.705,36.109,30.599,42.729,32.411,6.837,5.974,10.04
525,0.698,35.916,30.528,42.729,32.397,6.877,5.892,9.999
526,0.708,36.187,30.535,42.729,32.408,6.877,5.81,9.916
527,0.728,36.351,30.575,42.768,32.422,6.96,5.933,9.957
528,0.711,35.954,30.638,42.72,32.408,6.96,5.81,9.916
529,0.728,35.993,30.587,42.72,32.411,7.042,5.851,9.957
530,0.724,36.216,30.559,42.749,32.415,6.96,5.81,9.916
531,0.734,36.39,30.48,42.729,32.408,7.083,5.892,9.999
532,0.724,35.838,30.543,42.71,32.404,6.96,5.768,9.834
533,0.731,35.983,30.606,42.729,32.418,7.042,5.81,9.793
534,0.734,36.196,30.528,42.739,32.422,7.206,5.974,9.999
535,0.734,36.313,30.547,42.7,32.404,7.042,5.81,9.999
536,0.738,35.77,30.543,42.7,32.408,7.124,5.892,9.916
537,0.728,35.964,30.602,42.729,32.404,7.001,5.81,9.999
538,0.715,36.177,30.63,42.729,32.408,7.083,5.892,10.081
539,0.705,36.313,30.543,42.71,32.404,7.001,5.81,10.081
540,0.715,35.741,30.563,42.729,32.411,7.083,5.892,10.163
541,0.708,35.983,30.551,42.729,32.422,7.124,5.933,10.409
542,0.698,36.167,30.555,42.7,32.404,7.001,5.81,10.286
543,0.708,36.342,30.543,42.72,32.411,7.124,5.81,10.409
544,0.695,35.683,30.563,42.72,32.408,7.083,5.727,10.286
545,0.698,35.925,30.622,42.729,32.404,7.124,5.892,10.368
546,0.701,36.129,30.457,42.72,32.404,7.083,5.768,10.204
547,0.701,36.264,30.547,42.739,32.418,7.124,5.851,10.368
548,0.701,35.596,30.579,42.729,32.408,7.165,5.892,10.491
549,0.718,35.867,30.606,42.71,32.397,7.001,5.727,10.368
550,0.731,36.1,30.614,42.739,32.411,7.288,5.768,10.409
551,0.724,36.167,30.583,42.72,32.404,7.206,5.81,10.368
552,0.721,35.77,30.579,42.729,32.411,7.206,5.892,10.45
553,0.718,36.022,30.547,42.72,32.404,7.206,5.768,10.204
554,0.708,36.235,30.595,42.71,32.418,7.288,5.851,10.368
555,0.705,36.303,30.587,42.729,32.411,7.288,5.81,10.45
556,0.715,35.596,30.559,42.7,32.404,7.124,5.727,10.163
557,0.711,35.896,30.654,42.749,32.411,7.288,5.81,10.327
558,0.701,36.071,30.606,42.729,32.404,7.288,5.851,10.286
559,0.708,36.148,30.571,42.729,32.415,7.206,5.851,10.286
560,0.692,35.683,30.524,42.71,32.404,7.206,5.768,10.245
561,0.692,35.945,30.547,42.739,32.418,7.329,5.851,10.368
562,0.688,36.148,30.571,42.71,32.408,7.206,5.851,10.327
563,0.692,36.226,30.614,42.7,32.404,7.083,5.727,10.245
564,0.701,35.751,30.622,42.758,32.415,7.206,5.892,10.286
565,0.675,35.954,30.535,42.739,32.411,7.206,5.81,10.286
566,0.678,36.158,30.583,42.729,32.411,7.165,5.768,10.286
567,0.692,36.206,30.638,42.72,32.411,7.083,5.768,10.204
568,0.695,35.586,30.626,42.729,32.415,7.124,5.892,10.286
569,0.688,35.838,30.575,42.72,32.411,7.042,5.768,10.286
570,0.701,36.032,30.599,42.7,32.408,6.96,5.687,10.081
571,0.705,36.09,30.602,42.749,32.422,7.083,5.892,10.163
572,0.695,35.693,30.532,42.72,32.408,7.042,5.768,10.204
573,0.701,35.964,30.516,42.729,32.411,7.042,5.851,10.163
574,0.711,36.148,30.61,42.71,32.408,6.96,5.727,10.122
575,0.715,36.226,30.622,42.72,32.411,7.124,5.892,10.204
576,0.705,35.712,30.476,42.729,32.404,6.96,5.81,10.204
577,0.711,35.974,30.599,42.72,32.408,7.042,5.81,10.04
578,0.698,36.129,30.602,42.749,32.425,7.206,5.974,10.245
579,0.682,35.974,30.662,42.7,32.411,7.083,5.892,10.122
580,0.682,35.819,30.559,42.71,32.415,7.124,5.892,10.245
581,0.695,36.071,30.591,42.72,32.408,7.165,5.81,10.204
582,0.678,36.245,30.575,42.729,32.411,7.288,5.851,10.286
583,0.662,35.935,30.539,42.7,32.404,7.206,5.81,10.204
584,0.672,35.906,30.63,42.739,32.408,7.329,5.81,10.245
585,0.672,36.138,30.504,42.768,32.422,7.494,5.933,10.327
586,0.665,36.293,30.528,42.71,32.404,7.329,5.851,10.245
587,0.685,35.761,30.61,42.729,32.415,7.452,5.851,10.286
588,0.678,35.828,30.634,42.72,32.408,7.411,5.81,10.163
589,0.678,36.061,30.579,42.729,32.411,7.534,5.851,10.204
590,0.688,36.206,30.535,42.71,32.404,7.411,5.851,10.081
591,0.692,35.741,30.528,42.72,32.415,7.617,5.851,10.163
592,0.695,35.896,30.508,42.739,32.415,7.617,5.974,10.245
593,0.698,36.1,30.575,42.671,32.401,7.452,5.81,9.999
594,0.711,36.274,30.575,42.729,32.408,7.494,5.81,10.04
595,0.695,35.819,30.535,42.71,32.415,7.534,5.768,9.999
596,0.698,36.042,30.567,42.71,32.411,7.534,5.851,9.999
597,0.698,36.255,30.567,42.7,32.411,7.534,5.81,9.876
598,0.685,36.4,30.638,42.749,32.411,7.617,5.851,9.999
599,0.672,35.673,30.61,42.807,32.408,7.534,5.851,10.081
600,0.675,35.925,30.532,42.691,32.401,7.37,5.727,9.876
601,0.692,36.167,30.539,42.739,32.415,7.452,5.81,9.999
602,0.655,36.264,30.528,42.72,32.411,7.452,5.81,9.957
603,0.672,36.187,30.602,42.72,32.411,7.494,5.81,10.081
604,0.662,36.439,30.516,42.729,32.408,7.452,5.81,9.957
605,0.665,36.681,30.535,42.729,32.415,7.452,5.892,9.999
606,0.652,36.739,30.571,42.72,32.404,7.411,5.851,10.081
607,0.672,35.683,30.571,42.71,32.397,7.288,5.687,9.916
608,0.688,35.983,30.614,42.739,32.411,7.411,5.892,9.957
609,0.678,36.167,30.606,42.729,32.411,7.329,5.81,9.916
610,0.688,36.274,30.563,42.71,32.411,7.411,5.81,9.957
611,0.688,36.032,30.622,42.71,32.404,7.247,5.727,9.834
612,0.698,36.284,30.488,42.739,32.415,7.329,5.892,9.957
613,0.682,36.477,30.539,42.71,32.408,7.288,5.81,9.916
614,0.695,36.584,30.634,42.71,32.404,7.165,5.727,9.793
615,0.701,35.867,30.583,42.749,32.422,7.288,5.851,9.916
616,0.688,36.129,30.591,42.807,32.415,7.165,5.851,9.957
617,0.682,36.303,30.528,42.729,32.411,7.165,5.851,9.916
618,0.669,36.39,30.599,42.71,32.404,7.042,5.851,9.999
619,0.669,35.993,30.599,42.729,32.415,7.083,5.933,10.04
620,0.662,36.235,30.599,42.71,32.408,7.042,5.81,10.081
621,0.669,36.448,30.638,42.71,32.408,7.001,5.727,9.957
622,0.669,36.545,30.567,42.758,32.422,7.124,5.851,10.122
623,0.659,35.983,30.602,42.691,32.404,7.042,5.81,10.163
624,0.665,36.274,30.583,42.729,32.411,6.96,5.892,10.122
625,0.669,36.468,30.48,42.729,32.404,6.919,5.81,10.122
626,0.665,36.526,30.555,42.72,32.408,6.96,5.974,10.163
627,0.678,36.051,30.583,42.691,32.401,6.877,5.768,10.04
628,0.682,36.322,30.662,42.729,32.415,6.877,5.768,9.999
629,0.675,36.487,30.543,42.749,32.415,7.042,5.974,10.163
630,0.669,36.477,30.559,42.72,32.411,6.837,5.768,10.04
631,0.682,36.148,30.555,42.758,32.411,6.877,5.81,10.081
632,0.692,36.371,30.539,42.71,32.408,6.837,5.81,10.081
633,0.685,36.565,30.614,42.72,32.418,6.837,5.851,10.081
634,0.685,36.594,30.504,42.71,32.408,6.754,5.851,9.957
635,0.692,36.167,30.563,42.739,32.415,6.713,5.81,9.957
636,0.695,36.419,30.614,42.739,32.425,6.96,6.015,10.204
637,0.682,36.555,30.606,42.671,32.397,6.672,5.851,10.081
638,0.692,36.351,30.587,42.71,32.408,6.754,5.851,10.081
639,0.669,36.216,30.528,42.72,32.408,6.713,5.81,10.081
640,0.678,36.448,30.575,42.729,32.411,6.754,5.892,10.122
641,0.662,36.603,30.567,42.691,32.404,6.631,5.81,10.081
642,0.655,36.758,30.512,42.72,32.415,6.631,5.851,10.204
643,0.646,36.836,30.563,42.729,32.408,6.672,5.892,10.409
644,0.655,37.059,30.535,42.691,32.397,6.508,5.768,10.204
645,0.669,37.233,30.626,42.71,32.408,6.631,5.81,10.204
646,0.662,35.819,30.461,42.71,32.408,6.549,5.81,10.163
647,0.675,35.867,30.551,42.72,32.404,6.631,5.892,10.204
648,0.665,36.09,30.555,42.7,32.404,6.508,5.81,10.122
649,0.669,36.245,30.595,42.729,32.411,6.549,5.851,10.245
650,0.678,36.206,30.599,42.71,32.401,6.549,5.81,10.368
651,0.688,36.439,30.535,42.72,32.401,6.385,5.727,10.204
652,0.698,36.7,30.579,42.739,32.415,6.508,5.851,10.286
653,0.678,36.797,30.547,42.72,32.408,6.467,5.81,10.204
654,0.685,35.974,30.587,42.71,32.411,6.549,5.81,10.245
655,0.685,36.187,30.535,42.768,32.404,6.467,5.81,10.081
656,0.695,36.429,30.535,42.739,32.422,6.508,5.974,10.245
657,0.672,36.545,30.579,42.71,32.408,6.426,5.892,10.327
658,0.672,36.071,30.599,42.7,32.401,6.302,5.768,10.163
659,0.685,36.342,30.567,42.758,32.408,6.426,5.851,10.245
660,0.655,36.535,30.528,42.729,32.404,6.343,5.851,10.245
661,0.669,36.623,30.528,42.72,32.408,6.426,5.974,10.286
662,0.659,36.051,30.543,42.729,32.411,6.343,5.851,10.204
663,0.669,36.322,30.579,42.72,32.418,6.508,5.974,10.327
664,0.649,36.497,30.583,42.72,32.411,6.467,6.015,10.409
665,0.652,36.632,30.52,42.71,32.394,6.385,5.851,10.204
666,0.662,36.09,30.579,42.749,32.418,6.467,5.933,10.286
667,0.652,36.303,30.626,42.71,32.404,6.467,5.933,10.286
668,0.669,36.526,30.63,42.71,32.401,6.549,6.015,10.327
669,0.655,36.594,30.63,42.72,32.404,6.508,5.892,10.245
670,0.685,36.003,30.535,42.749,32.415,6.631,6.056,10.286
671,0.675,36.226,30.48,42.71,32.397,6.549,6.015,10.327
672,0.675,36.477,30.583,42.71,32.401,6.508,5.892,10.122
673,0.678,36.574,30.634,42.768,32.415,6.549,6.056,10.163
674,0.682,36.109,30.516,42.71,32.408,6.549,6.056,10.245
675,0.688,36.39,30.535,42.72,32.411,6.508,6.097,10.245
676,0.685,36.565,30.622,42.71,32.404,6.549,6.015,10.204
677,0.675,36.652,30.602,42.729,32.415,6.59,6.138,10.245
678,0.669,35.974,30.583,42.691,32.401,6.549,6.056,10.245
679,0.669,36.274,30.595,42.72,32.408,6.549,5.974,10.122
680,0.672,36.477,30.591,42.749,32.415,6.631,6.015,10.327
681,0.655,36.497,30.595,42.71,32.411,6.508,6.138,10.245
682,0.652,36.129,30.551,42.729,32.408,6.59,6.179,10.286
683,0.659,36.39,30.563,42.71,32.408,6.508,6.015,10.245
684,0.662,36.584,30.606,42.729,32.415,6.549,6.138,10.327
685,0.652,36.594,30.599,42.72,32.404,6.549,6.097,10.286
686,0.659,36.109,30.5,42.749,32.408,6.549,6.015,10.081
687,0.672,36.381,30.5,42.758,32.422,6.672,6.22,10.204
688,0.662,36.497,30.551,42.729,32.401,6.508,6.097,10.204
689,0.662,36.458,30.587,42.72,32.411,6.549,6.138,10.163
690,0.672,36.051,30.567,42.71,32.404,6.508,6.056,10.081
691,0.682,36.303,30.638,42.729,32.411,6.631,6.179,10.122
692,0.675,36.448,30.559,42.72,32.404,6.508,6.097,10.122
693,0.685,36.332,30.591,42.739,32.408,6.467,6.097,9.957
694,0.692,36.012,30.563,42.758,32.422,6.631,6.302,10.081
695,0.672,36.245,30.504,42.72,32.404,6.549,6.138,9.957
696,0.692,36.429,30.539,42.71,32.408,6.549,6.179,9.999
697,0.678,36.167,30.575,42.729,32.401,6.59,6.179,9.916
698,0.669,36.119,30.638,42.749,32.415,6.672,6.22,10.081
699,0.655,36.322,30.555,42.71,32.401,6.631,6.179,9.999
700,0.669,36.516,30.535,42.729,32.411,6.795,6.22,9.999
701,0.662,36.187,30.575,42.749,32.422,6.96,6.426,10.163
702,0.646,36.255,30.516,42.7,32.411,6.754,6.22,9.957
703,0.662,36.526,30.622,42.72,32.408,6.877,6.262,9.999
704,0.646,36.661,30.524,42.729,32.397,6.837,6.179,9.999
705,0.655,35.693,30.547,42.729,32.408,6.877,6.262,9.999
706,0.642,35.819,30.563,42.71,32.397,6.877,6.179,9.999
707,0.655,36.061,30.567,42.729,32.411,6.96,6.262,9.999
708,0.659,36.177,30.626,42.758,32.418,7.042,6.426,10.081
709,0.665,35.741,30.496,42.691,32.401,6.96,6.22,9.916
710,0.678,35.983,30.555,42.729,32.411,7.001,6.179,9.957
711,0.669,36.206,30.575,42.729,32.404,6.919,6.22,9.916
712,0.669,36.332,30.524,42.739,32.408,6.96,6.22,10.04
713,0.672,35.683,30.524,42.729,32.408,6.877,6.138,9.834
714,0.682,35.916,30.555,42.729,32.411,6.919,6.22,9.876
715,0.665,36.138,30.583,42.729,32.415,7.001,6.302,10.081
716,0.659,36.245,30.468,42.7,32.394,6.837,6.097,9.916
717,0.678,35.761,30.532,42.729,32.408,6.919,6.138,9.916
718,0.652,36.003,30.583,42.729,32.401,6.877,6.22,9.916
719,0.655,36.206,30.602,42.729,32.408,6.877,6.22,10.04
720,0.642,36.322,30.591,42.729,32.401,6.837,6.179,9.834
721,0.642,35.615,30.614,42.729,32.411,6.96,6.262,9.957
722,0.632,35.877,30.528,42.72,32.411,6.919,6.262,10.163
723,0.642,36.071,30.579,42.7,32.394,6.795,6.056,9.957
724,0.642,36.245,30.587,42.749,32.411,6.877,6.179,9.916
725,0.629,35.799,30.563,42.749,32.408,6.837,6.097,9.916
726,0.629,36.09,30.551,42.749,32.411,6.837,6.138,9.999
727,0.639,36.264,30.591,42.7,32.401,6.713,6.015,9.876
728,0.646,36.351,30.673,42.739,32.408,6.837,6.138,9.957
729,0.649,35.586,30.539,42.72,32.411,6.837,6.22,9.957
730,0.659,35.877,30.583,42.71,32.397,6.631,5.974,9.793
731,0.685,36.1,30.567,42.749,32.411,6.713,6.097,9.834
732,0.678,36.148,30.551,42.749,32.404,6.713,6.097,9.916
733,0.688,35.693,30.646,42.739,32.411,6.713,6.138,9.876
734,0.685,35.925,30.516,42.72,32.397,6.672,6.015,9.711
735,0.695,36.148,30.567,42.739,32.408,6.713,6.056,9.793
736,0.688,36.167,30.634,42.71,32.411,6.672,6.056,9.916
737,0.685,35.518,30.63,42.739,32.401,6.59,5.933,9.711
738,0.695,35.809,30.606,42.778,32.415,6.631,6.056,9.793
739,0.669,35.945,30.524,42.749,32.408,6.59,5.974,9.834
740,0.688,36.022,30.599,42.729,32.404,6.549,6.015,9.916
741,0.685,35.635,30.599,42.729,32.404,6.508,5.974,9.834
742,0.682,35.887,30.528,42.758,32.415,6.631,6.056,9.999
743,0.695,36.051,30.563,42.729,32.408,6.467,5.974,9.916
744,0.711,36.109,30.587,42.758,32.401,6.426,5.851,9.916
745,0.731,35.596,30.571,42.768,32.418,6.549,6.015,9.916
746,0.721,35.799,30.504,42.758,32.411,6.467,5.974,9.916
747,0.747,36.003,30.52,42.749,32.408,6.426,6.015,9.876
748,0.774,36.138,30.591,42.739,32.408,6.385,5.892,9.793
749,0.774,35.586,30.622,42.749,32.408,6.426,5.974,9.916
750,0.79,35.828,30.583,42.739,32.408,6.343,5.892,9.916
751,0.8,36.022,30.583,42.768,32.401,6.385,5.892,9.752
752,0.807,35.809,30.555,42.807,32.418,6.508,5.974,9.957
753,0.78,35.606,30.602,42.749,32.408,6.385,5.974,9.834
754,0.793,35.867,30.539,42.758,32.404,6.426,5.974,9.876
755,0.774,36.012,30.551,42.729,32.401,6.385,5.892,9.793
756,0.777,35.567,30.532,42.749,32.408,6.467,5.974,9.834
757,0.757,35.509,30.555,42.729,32.394,6.467,5.933,9.916
758,0.764,35.77,30.602,42.758,32.401,6.385,5.892,9.834
759,0.777,35.945,30.543,42.788,32.415,6.508,5.892,9.957
760,0.757,35.48,30.535,42.749,32.408,6.549,5.974,9.999
761,0.777,35.615,30.512,42.768,32.415,6.549,5.933,10.04
762,0.77,35.848,30.48,42.739,32.404,6.508,5.933,9.999
763,0.787,36.012,30.579,42.749,32.408,6.59,5.974,10.081
764,0.78,35.402,30.535,42.749,32.408,6.59,5.933,10.122
765,0.793,35.635,30.524,42.768,32.404,6.549,5.81,9.916
766,0.807,35.887,30.583,42.797,32.415,6.713,5.974,10.081
767,0.81,35.964,30.563,42.768,32.404,6.631,5.974,10.04
768,0.833,35.383,30.638,42.768,32.408,6.672,5.933,10.081
769,0.833,35.635,30.535,42.778,32.408,6.672,5.892,9.916
770,0.839,35.857,30.512,42.768,32.408,6.754,5.933,10.122
771,0.826,35.974,30.472,42.768,32.397,6.672,5.974,10.081
772,0.826,35.296,30.516,42.749,32.401,6.59,5.768,9.957
773,0.813,35.577,30.614,42.807,32.415,6.754,5.933,10.04
774,0.79,35.741,30.535,42.758,32.404,6.713,5.892,9.999
775,0.79,35.877,30.524,42.768,32.408,6.713,5.892,10.081
776,0.78,35.344,30.571,42.749,32.408,6.713,5.974,9.999
777,0.77,35.586,30.575,42.778,32.408,6.795,5.974,10.081
778,0.764,35.79,30.587,42.749,32.411,6.713,5.892,10.163
779,0.754,35.916,30.571,42.758,32.408,6.672,5.81,9.999
780,0.751,35.286,30.571,42.807,32.422,6.837,5.974,10.204
781,0.728,35.499,30.563,42.749,32.408,6.754,5.892,10.245
782,0.721,35.741,30.599,42.768,32.408,6.713,5.974,10.204
783,0.708,35.828,30.532,42.778,32.401,6.713,5.892,10.163
784,0.688,35.315,30.595,42.778,32.408,6.713,5.933,10.327
785,0.678,35.557,30.583,42.758,32.404,6.672,5.892,10.204
786,0.682,35.79,30.528,42.807,32.401,6.672,5.851,10.163
787,0.688,35.887,30.504,42.807,32.422,6.837,6.015,10.286
788,0.675,35.257,30.535,42.768,32.404,6.713,5.933,10.245
789,0.688,35.548,30.622,42.788,32.408,6.754,5.892,10.163
790,0.695,35.722,30.559,42.768,32.401,6.795,5.892,10.122
791,0.705,35.819,30.634,42.778,32.411,6.877,5.974,10.204
792,0.695,35.238,30.535,42.768,32.404,6.795,5.81,10.163
793,0.708,35.528,30.606,42.788,32.411,6.919,5.892,10.081
794,0.705,35.712,30.638,42.788,32.422,7.042,6.015,10.163
795,0.692,35.77,30.543,42.855,32.401,6.96,5.892,10.081
796,0.701,35.238,30.555,42.788,32.408,7.042,5.974,9.999
797,0.688,35.499,30.571,42.778,32.408,7.042,5.892,10.04
798,0.672,35.683,30.622,42.788,32.404,7.042,5.974,10.081
799,0.659,35.702,30.551,42.778,32.401,7.042,5.81,10.04
800,0.655,35.247,30.524,42.788,32.411,7.124,5.892,10.122
801,0.639,35.48,30.528,42.807,32.411,7.124,6.015,10.286
802,0.629,35.683,30.516,42.768,32.394,6.96,5.81,10.081
803,0.642,35.683,30.61,42.788,32.408,7.083,5.851,10.163
804,0.623,35.257,30.543,42.788,32.411,7.124,5.851,10.163
805,0.626,35.548,30.512,42.797,32.408,7.042,5.933,10.204
806,0.619,35.683,30.583,42.768,32.408,7.001,5.81,10.122
807,0.629,35.577,30.599,42.797,32.404,7.001,5.892,10.245
808,0.629,35.257,30.61,42.778,32.411,7.001,5.892,10.286
809,0.629,35.518,30.575,42.788,32.397,6.96,5.645,10.04
810,0.642,35.712,30.528,42.836,32.411,7.042,5.81,10.122
811,0.632,35.325,30.591,42.778,32.408,6.919,5.81,10.081
812,0.636,35.257,30.488,42.807,32.408,6.96,5.892,10.245
813,0.642,35.489,30.543,42.807,32.404,6.837,5.768,9.999
814,0.646,35.644,30.618,42.807,32.408,6.877,5.892,10.163
815,0.632,35.702,30.52,42.768,32.401,6.877,5.81,10.04
816,0.649,35.857,30.535,42.807,32.408,6.837,5.81,10.04
817,0.636,36.109,30.535,42.836,32.411,6.96,5.892,10.122
818,0.616,36.187,30.543,42.768,32.401,6.795,5.81,10.04
819,0.619,34.879,30.638,42.788,32.411,6.795,5.768,10.122
820,0.6,34.976,30.551,42.817,32.397,6.713,5.81,10.081
821,0.606,35.218,30.563,42.788,32.408,6.713,5.892,10.122
822,0.603,35.354,30.496,42.788,32.401,6.672,5.81,10.122
823,0.609,35.15,30.583,42.797,32.411,6.672,5.851,10.081
824,0.593,35.344,30.559,42.817,32.418,6.837,5.892,10.327
825,0.596,35.548,30.508,42.778,32.397,6.713,5.81,10.163
826,0.6,35.722,30.563,42.807,32.408,6.672,5.768,10.122
827,0.606,35.054,30.555,42.797,32.411,6.59,5.727,10.081
828,0.616,35.276,30.63,42.807,32.408,6.672,5.768,10.163
829,0.609,35.499,30.488,42.807,32.401,6.467,5.768,10.04
830,0.616,35.635,30.504,42.826,32.408,6.631,5.851,10.081
831,0.613,34.976,30.535,42.826,32.415,6.672,5.974,10.245
832,0.616,35.218,30.528,42.778,32.397,6.508,5.81,10.081
833,0.636,35.451,30.571,42.807,32.411,6.549,5.81,10.122
834,0.636,35.586,30.555,42.807,32.401,6.549,5.768,9.957
835,0.632,34.937,30.516,42.807,32.404,6.467,5.81,10.04
836,0.629,35.209,30.591,42.807,32.401,6.467,5.727,9.957
837,0.626,35.431,30.606,42.817,32.408,6.467,5.892,10.04
838,0.619,35.518,30.464,42.817,32.411,6.467,5.933,10.163
839,0.609,34.947,30.532,42.788,32.394,6.302,5.768,10.04
840,0.616,35.257,30.575,42.807,32.404,6.385,5.851,10.04
841,0.613,35.393,30.61,42.797,32.404,6.302,5.81,10.04
842,0.6,35.518,30.571,42.865,32.408,6.385,5.892,10.122
843,0.6,35.044,30.528,42.797,32.404,6.302,5.81,9.999
844,0.609,35.325,30.626,42.826,32.415,6.426,5.81,10.163
845,0.6,35.518,30.496,42.797,32.408,6.343,5.851,10.245
846,0.609,35.625,30.543,42.788,32.401,6.262,5.851,9.916
847,0.619,35.102,30.583,42.855,32.415,6.385,5.933,9.999
848,0.613,35.344,30.61,42.807,32.408,6.385,5.892,9.999
849,0.619,35.528,30.65,42.797,32.408,6.426,5.892,10.081
850,0.629,35.606,30.547,42.817,32.408,6.343,5.892,9.957
851,0.629,34.986,30.528,42.826,32.408,6.467,5.933,10.04
852,0.626,35.247,30.555,42.826,32.401,6.467,6.015,10.163
853,0.642,35.422,30.61,42.788,32.397,6.262,5.81,9.957
854,0.655,35.509,30.575,42.836,32.411,6.385,5.933,9.999
855,0.636,35.054,30.539,42.817,32.411,6.385,5.933,9.957
856,0.632,35.315,30.575,42.826,32.415,6.467,5.933,9.999
857,0.629,35.499,30.591,42.807,32.401,6.426,5.851,9.999
858,0.629,35.538,30.618,42.826,32.408,6.426,5.974,10.122
859,0.616,35.024,30.5,42.817,32.408,6.426,5.974,10.245
860,0.623,35.296,30.5,42.788,32.401,6.343,5.892,10.081
861,0.629,35.509,30.488,42.855,32.415,6.385,5.933,10.245
862,0.603,35.664,30.524,42.826,32.404,6.385,5.892,10.286
863,0.619,35.131,30.579,42.817,32.415,6.467,5.933,10.286
864,0.606,35.402,30.508,42.807,32.404,6.385,5.892,10.245
865,0.616,35.557,30.508,42.836,32.411,6.426,5.974,10.327
866,0.606,35.199,30.599,42.797,32.408,6.385,6.015,10.327
867,0.623,34.947,30.618,42.817,32.401,6.385,5.727,10.163
868,0.632,35.218,30.559,42.836,32.415,6.467,5.974,10.286
869,0.629,35.354,30.547,42.836,32.404,6.508,5.892,10.286
870,0.636,35.083,30.508,42.817,32.408,6.508,5.974,10.327
871,0.646,35.092,30.606,42.817,32.404,6.549,5.892,10.204
872,0.646,35.325,30.512,42.836,32.408,6.631,5.974,10.409
873,0.652,35.48,30.539,42.807,32.404,6.631,5.892,10.286
874,0.655,34.986,30.614,42.817,32.401,6.549,5.768,10.122
875,0.659,35.102,30.508,42.846,32.418,6.795,5.974,10.204
876,0.655,35.296,30.532,42.817,32.408,6.713,5.974,10.204
877,0.655,35.46,30.547,42.826,32.408,6.837,5.933,10.245
878,0.646,34.908,30.555,42.807,32.408,6.795,5.892,10.163
879,0.646,35.102,30.595,42.826,32.415,6.837,5.974,10.286
880,0.632,35.325,30.524,42.807,32.404,6.877,5.933,10.163
881,0.646,35.47,30.543,42.836,32.408,6.919,5.768,10.163
882,0.642,34.879,30.512,42.865,32.422,7.083,6.015,10.327
883,0.629,35.063,30.571,42.807,32.411,7.001,6.015,10.204
884,0.642,35.305,30.575,42.826,32.404,6.919,5.974,10.286
885,0.652,35.441,30.512,42.826,32.408,6.919,5.892,10.204
886,0.655,34.86,30.563,42.826,32.408,6.919,5.974,10.286
887,0.669,35.102,30.575,42.826,32.408,6.877,5.892,10.122
888,0.695,35.325,30.63,42.836,32.408,7.042,5.974,10.204
889,0.718,35.412,30.508,42.846,32.415,7.124,6.097,10.286
890,0.747,34.753,30.504,42.788,32.397,6.919,5.933,10.204
891,0.784,35.063,30.52,42.884,32.411,6.96,6.015,10.204
892,0.787,35.247,30.508,42.836,32.404,6.919,6.015,10.163
893,0.8,35.373,30.61,42.826,32.415,6.919,6.097,10.204
894,0.81,34.87,30.559,42.855,32.397,6.96,5.851,10.04
895,0.82,35.16,30.528,42.826,32.408,6.96,6.015,10.122
896,0.813,35.334,30.614,42.817,32.404,6.877,6.056,10.122
897,0.83,35.451,30.61,42.788,32.401,6.713,5.851,9.999
898,0.839,34.792,30.539,42.855,32.404,6.919,6.015,10.122
899,0.816,35.024,30.555,42.836,32.404,6.795,5.892,10.04
900,0.826,35.238,30.528,42.826,32.408,6.837,5.974,10.122
901,0.836,35.325,30.599,42.826,32.401,6.837,5.851,9.957
902,0.856,34.928,30.492,42.817,32.415,6.837,6.015,10.122
903,0.879,35.179,30.543,42.817,32.408,6.754,5.933,10.122
904,0.931,35.383,30.622,42.826,32.411,6.713,5.851,10.04
905,0.977,35.48,30.539,42.865,32.422,6.795,6.056,10.081
906,1.03,34.763,30.563,42.836,32.408,6.672,5.892,9.999
907,1.089,35.034,30.551,42.836,32.408,6.713,5.892,10.122
908,1.135,35.218,30.614,42.826,32.401,6.713,5.892,9.999
909,1.175,35.286,30.681,42.826,32.415,6.837,6.015,10.122
910,1.201,34.879,30.583,42.817,32.397,6.672,5.933,10.081
911,1.253,35.16,30.575,42.826,32.401,6.631,5.974,10.081
912,1.309,35.354,30.535,42.875,32.418,6.919,6.056,10.204
913,1.375,35.354,30.606,42.817,32.404,6.795,5.892,10.163
914,1.46,34.782,30.535,42.826,32.408,6.837,5.974,10.163
915,1.536,35.054,30.524,42.826,32.411,6.877,5.892,10.163
916,1.589,35.238,30.567,42.846,32.404,7.001,5.974,10.327
917,1.625,35.218,30.575,42.817,32.397,6.795,5.933,10.286
918,1.635,34.889,30.63,42.836,32.411,6.919,5.892,10.245
919,1.592,35.141,30.488,42.846,32.415,7.124,6.015,10.491
920,1.556,35.267,30.551,42.807,32.404,6.877,5.933,10.491
921,1.533,35.218,30.567,42.933,32.408,6.96,5.933,10.491
922,1.49,34.908,30.524,42.836,32.404,7.001,5.892,10.491
923,1.421,35.16,30.602,42.826,32.411,7.042,5.974,10.574
924,1.375,35.305,30.441,42.855,32.401,6.96,5.81,10.574
925,1.339,35.034,30.528,42.836,32.408,7.001,5.974,10.574
926,1.257,34.918,30.587,42.855,32.418,7.124,6.097,10.656
927,1.165,35.121,30.539,42.807,32.397,6.877,5.933,10.574
928,1.099,35.315,30.559,42.836,32.408,6.96,5.892,10.697
929,0.997,34.85,30.512,42.855,32.401,6.96,5.851,10.738
930,0.928,34.918,30.543,42.855,32.404,6.96,5.974,10.943
931,0.915,35.112,30.622,42.817,32.411,6.837,5.81,10.902
932,0.931,35.315,30.551,42.865,32.411,6.919,5.892,11.066
933,0.948,34.773,30.535,42.855,32.415,7.124,6.056,11.395
934,0.958,34.889,30.551,42.788,32.401,6.919,5.851,11.436
935,0.961,35.16,30.524,42.846,32.404,6.919,5.933,11.683
936,0.899,35.296,30.488,42.846,32.408,6.96,5.851,11.847
937,0.846,34.773,30.539,42.846,32.408,6.919,5.892,12.216
938,0.79,34.966,30.61,42.826,32.397,6.795,5.933,12.381
939,0.715,35.218,30.555,42.846,32.411,6.877,5.974,12.668
940,0.593,35.315,30.551,42.836,32.415,6.96,6.015,12.956
941,0.527,34.715,30.512,42.817,32.394,6.837,5.81,12.956
942,0.465,34.986,30.532,42.875,32.408,6.96,5.892,13.202
943,0.419,35.189,30.614,42.836,32.408,7.001,5.851,13.366
944,0.396,35.305,30.48,42.855,32.404,7.083,5.974,13.531
945,0.399,34.647,30.535,42.846,32.401,7.042,5.851,13.49
946,0.409,34.928,30.567,42.855,32.411,7.247,5.974,13.695
947,0.439,35.112,30.602,42.836,32.401,7.37,5.974,13.818
948,0.472,35.247,30.614,42.826,32.397,7.288,5.81,13.531
949,0.508,34.734,30.535,42.884,32.411,7.411,5.892,13.654
950,0.547,34.957,30.579,42.846,32.408,7.534,5.892,13.613
951,0.606,35.17,30.563,42.855,32.408,7.534,5.933,13.736
952,0.636,35.276,30.591,42.913,32.401,7.534,5.851,13.695
953,0.688,34.695,30.555,42.865,32.408,7.534,5.974,13.9
954,0.741,34.937,30.591,42.846,32.411,7.534,5.974,14.064
955,0.777,35.15,30.539,42.836,32.401,7.452,5.687,13.982
956,0.803,35.286,30.532,42.875,32.408,7.534,5.851,14.105
957,0.807,34.831,30.579,42.846,32.404,7.534,5.892,14.188
958,0.816,35.102,30.622,42.875,32.411,7.575,5.892,14.475
959,0.823,35.286,30.606,42.836,32.404,7.494,5.851,14.639
960,0.833,35.383,30.599,42.875,32.408,7.534,5.974,14.968
961,0.83,34.618,30.512,42.846,32.404,7.494,5.933,15.132
962,0.836,34.928,30.532,42.855,32.401,7.411,5.727,15.132
963,0.846,35.141,30.583,42.894,32.411,7.534,5.851,15.338
964,0.83,35.16,30.575,42.855,32.401,7.411,5.892,15.42
965,0.83,34.792,30.563,42.855,32.408,7.452,5.892,15.502
966,0.83,35.054,30.539,42.846,32.394,7.494,5.81,15.42
967,0.846,35.257,30.622,42.884,32.404,7.494,5.892,15.502
968,0.843,35.276,30.567,42.826,32.401,7.617,5.81,15.42
969,0.856,34.676,30.425,42.894,32.397,7.575,5.768,15.214
970,0.859,34.966,30.575,42.894,32.415,7.945,5.851,15.214
971,0.849,35.083,30.52,42.846,32.411,7.986,5.851,15.091
972,0.862,35.16,30.559,42.884,32.401,8.192,5.851,15.132
973,0.859,34.724,30.583,42.846,32.401,8.233,5.851,14.845
974,0.872,35.015,30.595,42.884,32.404,8.479,5.892,14.803
975,0.849,35.179,30.516,42.855,32.401,8.561,5.81,14.639
976,0.862,35.402,30.61,42.875,32.404,8.684,5.768,14.434
977,0.853,34.86,30.622,42.884,32.418,8.931,5.974,14.516
978,0.839,35.083,30.496,42.855,32.411,8.849,5.81,14.27
979,0.836,35.276,30.535,42.855,32.408,8.931,5.851,14.188
980,0.839,35.005,30.539,42.865,32.408,8.931,5.768,13.982
981,0.833,34.782,30.583,42.875,32.408,9.054,5.892,13.982
982,0.826,34.995,30.472,42.865,32.394,9.054,5.768,13.777
983,0.839,35.179,30.535,42.865,32.401,9.013,5.727,13.49
984,0.833,34.85,30.614,42.894,32.422,9.177,5.892,13.448
985,0.82,34.811,30.512,42.846,32.411,9.054,5.81,13.284
986,0.83,35.083,30.559,42.884,32.408,9.013,5.81,13.202
987,0.833,35.238,30.508,42.865,32.404,8.972,5.768,12.956
988,0.846,34.705,30.587,42.865,32.411,9.013,5.892,12.873
989,0.839,34.773,30.622,42.855,32.408,8.931,5.768,12.75
990,0.862,35.034,30.559,42.875,32.394,8.972,5.768,12.545
991,0.862,35.209,30.555,42.913,32.415,8.972,5.851,12.504
992,0.853,34.627,30.464,42.865,32.401,8.89,5.727,12.339
993,0.856,34.831,30.591,42.884,32.411,8.849,5.81,12.298
994,0.866,35.044,30.492,42.865,32.401,8.767,5.727,12.011
995,0.866,35.209,30.524,42.865,32.411,8.849,5.768,12.052
996,0.869,34.598,30.551,42.865,32.401,8.684,5.727,11.847
997,0.862,34.831,30.583,42.894,32.411,8.726,5.768,11.723
998,0.866,35.063,30.595,42.904,32.425,8.726,5.933,11.847
999,0.849,35.179,30.457,42.865,32.404,8.52,5.727,11.683
1000,0.859,34.579,30.535,42.875,32.408,8.561,5.81,11.6
1001,0.856,34.831,30.528,42.875,32.408,8.397,5.727,11.477
1002,0.853,35.073,30.524,42.884,32.408,8.438,5.768,11.477
1003,0.849,35.16,30.614,42.865,32.401,8.233,5.687,11.313
1004,0.846,34.715,30.5,42.923,32.404,8.356,5.81,11.231
1005,0.843,34.947,30.516,42.913,32.422,8.356,5.892,11.313
1006,0.849,35.16,30.563,42.875,32.397,8.109,5.768,11.189
1007,0.869,35.296,30.567,42.884,32.404,8.069,5.727,11.108
1008,0.866,34.589,30.559,42.865,32.404,8.027,5.768,11.025
1009,0.869,34.879,30.551,42.884,32.404,7.945,5.727,11.066
1010,0.879,35.083,30.571,42.884,32.397,7.822,5.687,10.902
1011,0.895,35.189,30.622,42.904,32.408,7.945,5.81,10.984
1012,0.892,34.598,30.539,42.884,32.404,7.822,5.974,11.025
1013,0.899,34.879,30.551,42.875,32.394,7.617,5.645,10.82
1014,0.915,35.112,30.63,42.894,32.397,7.74,5.768,10.697
1015,0.902,35.16,30.496,42.894,32.411,7.575,5.687,10.738
1016,0.912,34.598,30.532,42.894,32.404,7.617,5.768,10.738
1017,0.908,34.879,30.524,42.884,32.397,7.452,5.687,10.615
1018,0.902,35.054,30.63,42.913,32.404,7.575,5.81,10.697
1019,0.895,35.112,30.626,42.875,32.404,7.411,5.81,10.697
1020,0.899,34.579,30.571,42.894,32.397,7.247,5.645,10.491
1021,0.899,34.87,30.583,42.913,32.415,7.452,5.727,10.615
1022,0.882,35.044,30.532,42.894,32.401,7.37,5.727,10.574
1023,0.885,35.112,30.618,42.904,32.404,7.288,5.768,10.574
1024,0.895,34.598,30.535,42.904,32.411,7.206,5.645,10.45
1025,0.899,34.899,30.52,42.904,32.404,7.329,5.768,10.574
1026,0.895,35.054,30.559,42.884,32.401,7.288,5.727,10.574
1027,0.912,35.141,30.567,42.913,32.401,7.165,5.645,10.327
1028,0.922,34.56,30.595,42.923,32.418,7.329,5.81,10.45
1029,0.899,34.763,30.535,42.894,32.401,7.206,5.727,10.409
1030,0.922,34.966,30.535,42.913,32.404,7.206,5.768,10.368
1031,0.931,34.976,30.583,42.894,32.404,7.083,5.727,10.368
1032,0.941,34.647,30.52,42.913,32.408,7.165,5.81,10.368
1033,0.931,34.879,30.559,42.894,32.397,7.083,5.687,10.286
1034,0.954,35.063,30.575,42.904,32.408,7.042,5.768,10.122
1035,0.938,34.995,30.551,43.01,32.415,7.165,5.892,10.327
1036,0.948,34.618,30.52,42.875,32.401,6.96,5.768,10.245
1037,0.948,34.879,30.575,42.894,32.411,7.001,5.851,10.204
1038,0.935,35.015,30.602,42.904,32.404,6.96,5.81,10.163
1039,0.941,34.773,30.535,42.913,32.408,6.96,5.851,10.327
1040,0.938,34.656,30.508,42.884,32.397,6.837,5.768,10.245
1041,0.941,34.908,30.476,42.913,32.411,6.877,5.81,10.245
1042,0.928,35.083,30.492,42.923,32.411,7.001,5.974,10.409
1043,0.935,34.54,30.602,42.865,32.397,6.713,5.81,10.368
1044,0.945,34.618,30.441,42.913,32.408,6.795,5.81,10.368
1045,0.941,34.831,30.52,42.913,32.404,6.713,5.81,10.286
1046,0.941,35.005,30.591,42.913,32.404,6.754,5.892,10.368
1047,0.948,34.501,30.602,42.884,32.404,6.713,5.768,10.286
1048,0.964,34.686,30.508,42.913,32.401,6.795,5.851,10.327
1049,0.958,34.879,30.488,42.894,32.411,6.754,5.974,10.45
1050,0.971,35.054,30.535,42.904,32.397,6.549,5.727,10.245
1051,0.994,34.579,30.583,42.933,32.404,6.713,5.81,10.368
1052,0.991,34.763,30.532,42.904,32.408,6.549,5.768,10.327
1053,0.987,35.005,30.543,42.942,32.411,6.631,5.892,10.327
1054,0.987,35.112,30.543,42.884,32.397,6.549,5.768,10.286
1055,1.0,34.376,30.468,42.923,32.411,6.672,5.892,10.368
1056,0.997,34.627,30.52,42.913,32.411,6.59,5.933,10.409
1057,1.004,34.85,30.559,42.894,32.39,6.467,5.768,10.286
1058,0.997,35.024,30.634,42.942,32.411,6.549,5.81,10.286
1059,0.987,34.405,30.543,42.904,32.404,6.508,5.81,10.327
1060,0.991,34.686,30.547,42.913,32.411,6.508,5.81,10.409
1061,0.997,34.899,30.453,42.894,32.397,6.426,5.768,10.327
1062,0.994,35.024,30.524,42.933,32.408,6.508,5.81,10.491
1063,0.987,34.434,30.587,42.904,32.404,6.426,5.892,10.45
1064,0.994,34.734,30.496,42.923,32.401,6.343,5.687,10.286
1065,1.01,34.966,30.559,42.942,32.415,6.549,5.933,10.368
1066,1.0,35.034,30.532,42.923,32.408,6.426,5.892,10.368
1067,1.014,34.434,30.595,42.923,32.408,6.426,5.851,10.327
1068,1.017,34.695,30.595,42.913,32.401,6.385,5.81,10.163
1069,1.03,34.928,30.551,42.933,32.415,6.508,5.851,10.245
1070,1.027,34.995,30.547,42.904,32.408,6.426,5.81,10.327
1071,1.043,34.356,30.524,42.913,32.401,6.302,5.645,10.122
1072,1.05,34.656,30.567,42.962,32.408,6.467,5.81,10.204
1073,1.04,34.811,30.606,42.894,32.404,6.426,5.81,10.204
1074,1.056,34.928,30.543,42.923,32.408,6.426,5.768,10.122
1075,1.063,34.482,30.563,42.894,32.397,6.343,5.727,10.081
1076,1.076,34.734,30.559,42.923,32.408,6.508,5.81,10.204
1077,1.056,34.928,30.599,42.913,32.397,6.343,5.892,10.204
1078,1.063,35.034,30.464,42.933,32.401,6.385,5.727,10.04
1079,1.066,34.327,30.543,42.952,32.411,6.467,5.851,10.163
1080,1.05,34.56,30.543,42.913,32.411,6.426,5.768,10.163
1081,1.066,34.763,30.567,42.923,32.408,6.426,5.81,10.163
1082,1.066,34.831,30.468,42.923,32.408,6.426,5.81,10.163
1083,1.076,34.472,30.508,42.952,32.411,6.508,5.768,10.245
1084,1.069,34.695,30.602,42.923,32.404,6.343,5.687,10.163
1085,1.083,34.928,30.571,42.933,32.408,6.385,5.768,10.04
1086,1.089,34.976,30.528,42.962,32.418,6.631,5.892,10.245
1087,1.096,34.385,30.512,42.913,32.411,6.426,5.727,10.122
1088,1.109,34.695,30.567,42.942,32.404,6.385,5.768,10.122
1089,1.109,34.85,30.61,42.923,32.408,6.343,5.727,10.081
1090,1.119,35.044,30.587,42.933,32.404,6.426,5.727,10.081
1091,1.125,34.298,30.504,42.913,32.401,6.343,5.727,9.957
1092,1.142,34.589,30.547,42.971,32.408,6.426,5.727,9.957
1093,1.135,34.753,30.567,42.962,32.415,6.631,5.892,10.081
1094,1.145,34.676,30.5,42.894,32.397,6.549,5.727,9.876
1095,1.178,34.627,30.524,42.942,32.404,6.59,5.727,9.957
1096,1.178,34.86,30.524,42.933,32.408,6.672,5.727,9.876
1097,1.165,34.995,30.606,42.942,32.404,6.754,5.81,9.916
1098,1.158,34.463,30.543,42.942,32.397,6.713,5.645,9.834
1099,1.152,34.395,30.504,42.981,32.404,6.919,5.727,9.916
1100,1.158,34.637,30.535,42.952,32.408,7.042,5.768,10.081
1101,1.168,34.782,30.516,42.923,32.394,6.919,5.645,9.916
1102,1.178,34.434,30.543,42.942,32.411,7.001,5.727,9.957
1103,1.175,34.501,30.528,42.942,32.401,7.083,5.687,9.916
1104,1.168,34.744,30.547,42.971,32.401,7.124,5.768,10.04
1105,1.175,34.889,30.543,42.952,32.397,7.124,5.645,9.876
1106,1.188,34.221,30.571,42.952,32.404,7.124,5.768,9.999
1107,1.198,34.395,30.571,42.933,32.408,7.165,5.727,10.04
1108,1.207,34.637,30.468,42.942,32.408,7.124,5.481,9.752
1109,1.224,34.811,30.52,42.971,32.408,7.165,5.768,9.834
1110,1.217,34.221,30.539,42.962,32.408,7.165,5.727,9.916
1111,1.234,34.492,30.559,42.962,32.408,7.124,5.727,9.957
1112,1.234,34.695,30.551,42.962,32.404,7.083,5.604,9.876
1113,1.244,34.85,30.524,42.971,32.411,7.165,5.687,9.957
1114,1.247,34.346,30.575,42.923,32.404,7.124,5.645,9.916
1115,1.26,34.618,30.457,42.952,32.401,7.042,5.604,9.752
1116,1.276,34.879,30.52,43.0,32.415,7.124,5.727,9.834
1117,1.253,34.957,30.555,42.962,32.404,7.083,5.645,9.834
1118,1.263,34.23,30.551,42.962,32.404,7.042,5.727,9.957
1119,1.26,34.472,30.571,42.981,32.397,7.001,5.604,9.916
1120,1.26,34.695,30.524,42.971,32.404,7.042,5.727,9.916
1121,1.257,34.782,30.472,42.942,32.408,6.919,5.727,9.999
1122,1.267,34.279,30.535,42.962,32.401,6.96,5.522,9.834
1123,1.267,34.569,30.575,43.0,32.415,7.083,5.687,9.957
1124,1.25,34.724,30.528,42.981,32.408,6.919,5.687,9.916
1125,1.26,34.879,30.555,42.981,32.404,7.001,5.645,9.999
1126,1.27,34.405,30.543,42.971,32.397,6.96,5.563,9.916
1127,1.28,34.705,30.618,42.991,32.411,7.042,5.727,9.999
1128,1.283,34.889,30.559,42.962,32.397,7.001,5.645,9.957
1129,1.299,35.005,30.535,43.058,32.401,7.083,5.645,9.834
1130,1.309,34.443,30.547,43.01,32.415,7.288,5.727,10.04
1131,1.296,34.666,30.508,42.962,32.408,7.288,5.687,9.957
1132,1.329,34.908,30.551,42.981,32.408,7.288,5.727,9.834
1133,1.322,34.966,30.543,42.981,32.404,7.288,5.645,9.916
1134,1.329,34.608,30.543,42.991,32.415,7.37,5.645,9.876
1135,1.329,34.879,30.555,42.962,32.401,7.288,5.645,9.793
1136,1.345,35.073,30.599,42.991,32.404,7.452,5.645,9.752
1137,1.336,35.141,30.599,43.0,32.422,7.534,5.81,9.876
1138,1.322,34.821,30.449,42.942,32.404,7.37,5.645,9.834
1139,1.332,35.121,30.5,42.981,32.408,7.37,5.687,9.916
1140,1.316,35.305,30.535,42.971,32.411,7.37,5.604,9.876
1141,1.319,35.364,30.567,42.991,32.408,7.411,5.727,9.957
1142,1.303,35.005,30.551,42.962,32.401,7.329,5.645,9.876
1143,1.319,35.276,30.535,42.991,32.408,7.411,5.687,9.916
1144,1.309,35.441,30.575,42.991,32.415,7.494,5.81,10.04
1145,1.313,35.451,30.5,42.933,32.394,7.247,5.645,9.876
1146,1.319,35.305,30.516,42.991,32.411,7.37,5.645,9.957
1147,1.316,35.548,30.555,42.981,32.404,7.329,5.645,9.834
1148,1.332,35.702,30.583,42.991,32.411,7.288,5.687,9.957
1149,1.313,35.722,30.583,42.981,32.408,7.247,5.522,9.793
1150,1.322,35.48,30.563,43.0,32.408,7.247,5.727,9.916
1151,1.313,35.712,30.461,42.991,32.411,7.329,5.768,10.081
1152,1.303,35.867,30.524,42.981,32.401,7.165,5.645,9.957
1153,1.316,35.799,30.555,43.0,32.411,7.288,5.604,9.957
1154,1.306,35.751,30.492,43.0,32.404,7.124,5.645,9.834
1155,1.309,35.993,30.539,43.01,32.404,7.165,5.687,9.957
1156,1.293,36.148,30.532,42.981,32.401,7.124,5.604,9.876
1157,1.283,35.819,30.618,43.01,32.408,7.124,5.645,9.957
1158,1.253,35.857,30.543,43.0,32.408,7.124,5.81,10.081
1159,1.263,36.071,30.468,42.981,32.39,6.96,5.645,10.081
1160,1.25,36.245,30.528,43.01,32.404,7.042,5.687,10.081
1161,1.227,36.109,30.425,43.0,32.401,7.001,5.687,10.04
1162,1.207,36.264,30.516,43.0,32.404,6.919,5.687,10.204
1163,1.198,36.477,30.543,42.991,32.397,6.877,5.645,10.122
1164,1.184,36.632,30.449,43.01,32.411,7.001,5.768,10.204
1165,1.171,36.119,30.52,43.01,32.411,7.001,5.81,10.327
1166,1.158,36.293,30.52,42.991,32.397,6.837,5.604,10.163
1167,1.165,36.526,30.622,42.991,32.411,6.96,5.645,10.204
1168,1.155,36.642,30.532,43.01,32.404,6.919,5.645,10.163
1169,1.145,36.4,30.547,43.0,32.401,6.877,5.727,10.245
1170,1.135,36.632,30.52,43.0,32.397,6.837,5.604,10.122
1171,1.125,36.845,30.535,43.01,32.404,6.919,5.727,10.286
1172,1.109,36.952,30.563,42.991,32.408,6.877,5.727,10.368
1173,1.102,36.381,30.524,42.991,32.397,6.713,5.522,10.081
1174,1.109,36.69,30.559,43.029,32.404,6.877,5.645,10.245
1175,1.089,36.865,30.543,43.01,32.408,6.837,5.645,10.245
1176,1.079,36.952,30.579,43.01,32.408,6.795,5.645,10.286
1177,1.056,36.584,30.583,43.02,32.401,6.672,5.563,10.163
1178,1.037,36.865,30.492,43.029,32.411,6.795,5.727,10.327
1179,1.017,37.039,30.528,43.02,32.415,6.754,5.81,10.491
1180,0.994,37.175,30.496,42.981,32.397,6.672,5.563,10.368
1181,1.007,36.671,30.614,43.02,32.404,6.754,5.645,10.45
1182,0.971,36.884,30.567,43.117,32.401,6.754,5.645,10.368
1183,0.968,37.097,30.504,43.039,32.411,6.713,5.645,10.574
1184,0.951,37.165,30.61,42.991,32.401,6.631,5.604,10.491
1185,0.945,36.816,30.457,43.029,32.408,6.754,5.727,10.532
1186,0.918,37.068,30.524,43.02,32.408,6.795,5.727,10.615
1187,0.941,37.272,30.551,43.02,32.401,6.754,5.481,10.409
1188,0.938,37.368,30.595,43.039,32.408,6.837,5.687,10.491
1189,0.905,36.826,30.61,43.01,32.404,6.837,5.604,10.45
1190,0.912,37.107,30.535,43.039,32.408,6.96,5.687,10.532
1191,0.905,37.262,30.528,43.029,32.408,6.96,5.645,10.409
1192,0.905,37.349,30.559,43.049,32.404,7.042,5.645,10.574
1193,0.885,36.874,30.591,43.01,32.397,7.083,5.687,10.574
1194,0.899,37.155,30.547,43.039,32.404,7.124,5.604,10.368
1195,0.885,37.349,30.532,43.068,32.422,7.37,5.727,10.491
1196,0.866,37.359,30.555,43.039,32.404,7.247,5.604,10.45
1197,0.856,36.962,30.626,43.058,32.411,7.452,5.687,10.491
1198,0.846,37.214,30.547,43.039,32.408,7.37,5.645,10.45
1199,0.839,37.378,30.472,43.049,32.408,7.452,5.727,10.532
1200,0.816,37.407,30.461,43.039,32.401,7.452,5.687,10.532
1201,0.816,36.962,30.528,43.097,32.408,7.575,5.687,10.45
1202,0.797,37.204,30.5,43.078,32.415,7.658,5.892,10.574
1203,0.787,37.339,30.571,43.029,32.401,7.534,5.687,10.491
1204,0.787,37.456,30.547,43.088,32.408,7.617,5.727,10.491
1205,0.78,37.068,30.496,43.068,32.408,7.617,5.604,10.491
1206,0.774,37.31,30.591,43.058,32.404,7.74,5.727,10.491
1207,0.78,37.456,30.547,43.049,32.397,7.658,5.645,10.245
1208,0.78,37.223,30.508,43.049,32.408,7.822,5.687,10.245
1209,0.777,36.904,30.5,43.068,32.415,7.945,5.81,10.491
1210,0.777,37.117,30.5,43.039,32.387,7.74,5.645,10.327
1211,0.793,37.291,30.551,43.088,32.408,7.822,5.727,10.327
1212,0.784,36.971,30.504,43.126,32.408,7.822,5.645,10.204
1213,0.777,36.942,30.524,43.068,32.404,7.945,5.727,10.245
1214,0.774,37.175,30.579,43.039,32.401,7.822,5.645,10.122
1215,0.78,37.33,30.496,43.078,32.408,7.904,5.727,10.122
1216,0.761,36.807,30.539,43.088,32.411,8.027,5.768,10.245
1217,0.754,36.855,30.508,43.058,32.394,7.822,5.645,10.081
1218,0.761,37.136,30.595,43.088,32.404,7.904,5.645,10.163
1219,0.751,37.252,30.591,43.058,32.401,7.863,5.645,10.081
1220,0.741,36.768,30.512,43.088,32.408,7.904,5.727,10.204
1221,0.734,36.933,30.504,43.058,32.401,7.904,5.645,10.081
1222,0.741,37.175,30.457,43.097,32.415,7.863,5.768,10.245
1223,0.741,37.291,30.555,43.078,32.404,7.863,5.768,10.368
1224,0.734,36.555,30.496,43.068,32.394,7.781,5.604,10.204
1225,0.744,36.816,30.524,43.117,32.404,7.863,5.727,10.245
1226,0.724,37.01,30.567,43.078,32.401,7.822,5.604,10.163
1227,0.731,37.117,30.559,43.097,32.404,7.822,5.687,10.122
1228,0.738,36.419,30.571,43.068,32.397,7.699,5.604,10.122
1229,0.734,36.7,30.508,43.117,32.411,7.781,5.687,10.286
1230,0.731,36.884,30.504,43.078,32.401,7.822,5.727,10.327
1231,0.751,37.02,30.532,43.078,32.394,7.658,5.522,10.081
1232,0.754,36.477,30.528,43.117,32.401,7.781,5.727,10.245
1233,0.741,36.69,30.551,43.107,32.404,7.74,5.645,10.204
1234,0.741,36.904,30.551,43.107,32.408,7.74,5.687,10.163
1235,0.741,37.01,30.504,43.097,32.404,7.617,5.604,10.04
1236,0.754,36.361,30.595,43.117,32.404,7.699,5.727,10.245
1237,0.734,36.613,30.504,43.097,32.404,7.699,5.687,10.245
1238,0.728,36.836,30.484,43.097,32.401,7.534,5.563,10.081
1239,0.731,36.971,30.532,43.165,32.415,7.699,5.687,10.245
1240,0.718,36.284,30.543,43.126,32.404,7.575,5.645,10.245
1241,0.718,36.535,30.602,43.117,32.401,7.534,5.687,10.286
1242,0.711,36.739,30.516,43.097,32.401,7.411,5.645,10.245
1243,0.721,36.826,30.52,43.126,32.411,7.494,5.727,10.409
1244,0.711,36.187,30.587,43.117,32.404,7.37,5.687,10.368
1245,0.724,36.487,30.492,43.117,32.401,7.37,5.604,10.245
1246,0.724,36.7,30.543,43.184,32.411,7.411,5.645,10.368
1247,0.718,36.72,30.528,43.146,32.408,7.288,5.645,10.409
1248,0.731,36.1,30.591,43.126,32.408,7.288,5.687,10.368
1249,0.728,36.351,30.602,43.117,32.394,7.206,5.645,10.368
1250,0.741,36.555,30.543,43.136,32.408,7.329,5.687,10.45
1251,0.738,36.603,30.535,43.126,32.397,7.165,5.687,10.368
1252,0.741,36.022,30.496,43.136,32.408,7.206,5.563,10.245
1253,0.741,36.284,30.579,43.165,32.418,7.288,5.727,10.368
1254,0.747,36.429,30.504,43.136,32.397,7.206,5.645,10.368
1255,0.744,36.497,30.488,43.136,32.404,7.288,5.645,10.327
1256,0.754,36.129,30.547,43.117,32.401,7.206,5.563,10.286
1257,0.757,36.4,30.575,43.155,32.404,7.288,5.687,10.327
1258,0.734,36.555,30.555,43.126,32.401,7.206,5.563,10.327
1259,0.738,36.603,30.437,43.155,32.408,7.288,5.604,10.245
1260,0.724,35.983,30.488,43.175,32.422,7.411,5.687,10.327
1261,0.718,36.206,30.449,43.155,32.404,7.329,5.645,10.204
1262,0.724,36.419,30.496,43.155,32.401,7.206,5.604,10.327
1263,0.734,36.439,30.579,43.136,32.404,7.288,5.604,10.286
1264,0.731,35.828,30.472,43.204,32.408,7.288,5.687,10.327
1265,0.724,36.061,30.512,43.155,32.404,7.206,5.604,10.286
1266,0.724,36.245,30.579,43.175,32.397,7.206,5.563,10.286
1267,0.728,35.993,30.571,43.194,32.415,7.37,5.768,10.409
1268,0.731,35.799,30.524,43.126,32.397,7.165,5.645,10.286
1269,0.734,36.071,30.472,43.175,32.411,7.206,5.604,10.327
1270,0.751,36.235,30.528,43.165,32.401,7.124,5.604,10.286
1271,0.741,35.78,30.484,43.184,32.408,7.206,5.645,10.409
1272,0.754,35.761,30.524,43.146,32.39,7.042,5.563,10.327
1273,0.764,36.012,30.567,43.194,32.411,7.124,5.687,10.368
1274,0.761,36.148,30.528,43.194,32.415,7.329,5.768,10.491
1275,0.764,35.47,30.516,43.155,32.394,7.165,5.604,10.409
1276,0.777,35.606,30.555,43.165,32.408,7.247,5.645,10.409
1277,0.751,35.828,30.524,43.184,32.401,7.288,5.645,10.286
1278,0.744,35.983,30.437,43.194,32.408,7.329,5.645,10.409
1279,0.734,35.499,30.449,43.175,32.397,7.329,5.563,10.327
1280,0.738,35.712,30.535,43.204,32.408,7.452,5.727,10.327
1281,0.741,35.925,30.543,43.204,32.408,7.534,5.81,10.532
1282,0.731,36.071,30.524,43.165,32.39,7.37,5.604,10.409
1283,0.744,35.402,30.524,43.184,32.404,7.617,5.645,10.327
1284,0.721,35.596,30.567,43.194,32.408,7.617,5.687,10.409
1285,0.721,35.828,30.492,43.194,32.404,7.617,5.727,10.368
1286,0.721,35.935,30.476,43.175,32.401,7.534,5.645,10.245
1287,0.751,35.286,30.539,43.194,32.411,7.658,5.727,10.245
1288,0.744,35.518,30.543,43.194,32.408,7.658,5.851,10.45
1289,0.738,35.732,30.543,43.175,32.39,7.534,5.645,10.245
1290,0.754,35.896,30.567,43.213,32.401,7.617,5.727,10.286
1291,0.751,35.238,30.457,43.204,32.404,7.575,5.645,10.245
1292,0.761,35.509,30.535,43.204,32.397,7.534,5.768,10.327
1293,0.751,35.722,30.571,43.194,32.404,7.534,5.645,10.204
1294,0.764,35.848,30.492,43.213,32.404,7.575,5.81,10.286
1295,0.767,35.315,30.52,43.213,32.408,7.617,5.768,10.368
1296,0.77,35.586,30.567,43.175,32.394,7.37,5.645,10.122
1297,0.777,35.819,30.63,43.233,32.408,7.494,5.687,10.245
1298,0.751,35.867,30.535,43.213,32.404,7.452,5.687,10.163
1299,0.764,35.286,30.528,43.204,32.404,7.452,5.727,10.245
1300,0.754,35.557,30.535,43.204,32.401,7.329,5.645,10.204
1301,0.754,35.78,30.547,43.213,32.408,7.452,5.768,10.286
1302,0.741,35.838,30.547,43.204,32.401,7.37,5.768,10.368
1303,0.738,35.305,30.543,43.204,32.397,7.206,5.563,10.204
1304,0.741,35.615,30.539,43.271,32.415,7.411,5.768,10.286
1305,0.731,35.79,30.543,43.223,32.401,7.288,5.687,10.286
1306,0.734,35.828,30.559,43.223,32.404,7.288,5.687,10.327
1307,0.744,35.15,30.567,43.204,32.404,7.206,5.645,10.245
1308,0.754,35.431,30.437,43.223,32.408,7.288,5.768,10.245
1309,0.754,35.625,30.504,43.204,32.401,7.247,5.727,10.286
1310,0.764,35.673,30.535,43.213,32.404,7.165,5.604,10.204
1311,0.774,35.334,30.575,43.252,32.418,7.288,5.727,10.245
1312,0.747,35.557,30.567,43.233,32.408,7.247,5.768,10.286
1313,0.761,35.732,30.512,43.223,32.401,7.206,5.727,10.286
1314,0.767,35.78,30.567,43.213,32.401,7.124,5.687,10.204
1315,0.77,35.17,30.508,43.242,32.408,7.124,5.727,10.204
1316,0.761,35.431,30.504,43.223,32.397,7.083,5.645,10.327
1317,0.754,35.625,30.559,43.233,32.401,7.083,5.645,10.286
1318,0.747,35.567,30.602,43.252,32.415,7.247,5.81,10.409
1319,0.731,35.257,30.583,43.223,32.401,7.124,5.687,10.409
1320,0.734,35.548,30.543,43.233,32.404,7.124,5.687,10.491
1321,0.734,35.683,30.457,43.233,32.401,7.042,5.687,10.409
1322,0.738,35.538,30.52,43.262,32.401,7.042,5.768,10.574
1323,0.728,35.189,30.52,43.213,32.397,7.001,5.727,10.656
1324,0.734,35.451,30.504,43.252,32.401,6.919,5.604,10.491
1325,0.734,35.615,30.48,43.291,32.415,7.083,5.851,10.615
1326,0.711,35.325,30.532,43.233,32.404,7.001,5.687,10.615
1327,0.728,35.296,30.587,43.242,32.401,6.96,5.768,10.574
1328,0.741,35.538,30.528,43.233,32.397,6.96,5.687,10.491
1329,0.741,35.693,30.543,43.271,32.404,6.96,5.768,10.574
1330,0.751,35.054,30.468,43.233,32.394,6.837,5.687,10.491
1331,0.754,35.141,30.539,43.242,32.404,6.837,5.687,10.45
1332,0.747,35.354,30.575,43.271,32.415,7.042,5.851,10.615
1333,0.738,35.46,30.488,43.233,32.401,6.837,5.81,10.574
1334,0.754,34.966,30.535,43.271,32.401,6.877,5.727,10.45
1335,0.757,35.15,30.496,43.242,32.397,6.837,5.645,10.368
1336,0.751,35.354,30.551,43.252,32.401,6.877,5.81,10.45
1337,0.741,35.499,30.492,43.271,32.401,6.672,5.645,10.368
1338,0.731,34.976,30.472,43.349,32.401,6.837,5.768,10.368
1339,0.724,35.17,30.535,43.271,32.411,6.837,5.892,10.532
1340,0.728,35.373,30.488,43.233,32.394,6.59,5.768,10.45
1341,0.738,35.577,30.579,43.271,32.404,6.672,5.768,10.491
1342,0.721,34.957,30.528,43.271,32.404,6.672,5.727,10.368
1343,0.724,35.199,30.512,43.262,32.408,6.713,5.768,10.409
1344,0.708,35.393,30.555,43.252,32.404,6.672,5.687,10.368
1345,0.708,35.548,30.488,43.31,32.408,6.631,5.768,10.409
1346,0.708,34.831,30.508,43.271,32.408,6.713,5.851,10.491
1347,0.724,35.102,30.508,43.233,32.387,6.467,5.687,10.286
1348,0.744,35.344,30.618,43.291,32.401,6.631,5.727,10.327
1349,0.721,35.412,30.547,43.271,32.408,6.549,5.768,10.368
1350,0.728,34.87,30.508,43.291,32.401,6.631,5.687,10.368
1351,0.738,35.141,30.512,43.281,32.397,6.508,5.727,10.286
1352,0.741,35.364,30.496,43.31,32.408,6.631,5.81,10.491
1353,0.738,35.431,30.587,43.291,32.408,6.631,5.81,10.491
1354,0.744,34.84,30.421,43.281,32.394,6.385,5.645,10.245
1355,0.754,35.16,30.508,43.291,32.401,6.549,5.768,10.368
1356,0.747,35.325,30.583,43.3,32.404,6.549,5.81,10.327
1357,0.724,35.431,30.583,43.291,32.408,6.508,5.768,10.45
1358,0.724,34.937,30.535,43.281,32.397,6.467,5.687,10.409
1359,0.721,35.247,30.504,43.33,32.408,6.549,5.768,10.45
1360,0.708,35.412,30.504,43.291,32.411,6.59,5.81,10.615
1361,0.718,35.528,30.575,43.281,32.39,6.385,5.604,10.45
1362,0.715,35.044,30.543,43.33,32.411,6.508,5.727,10.491
1363,0.701,35.267,30.583,43.3,32.401,6.508,5.687,10.45
1364,0.695,35.48,30.492,43.32,32.411,6.549,5.81,10.656
1365,0.688,35.538,30.551,43.32,32.394,6.467,5.687,10.491
1366,0.695,34.879,30.587,43.33,32.408,6.59,5.727,10.615
1367,0.692,35.15,30.559,43.32,32.401,6.631,5.768,10.656
1368,0.698,35.334,30.468,43.31,32.397,6.508,5.645,10.45
1369,0.705,35.431,30.512,43.349,32.404,6.631,5.768,10.532
1370,0.705,35.005,30.543,43.32,32.404,6.59,5.687,10.532
1371,0.711,35.276,30.543,43.339,32.408,6.672,5.768,10.491
1372,0.711,35.451,30.551,43.31,32.397,6.549,5.645,10.45
1373,0.715,35.499,30.567,43.339,32.404,6.672,5.727,10.532
1374,0.708,35.005,30.555,43.31,32.401,6.631,5.727,10.409
1375,0.721,35.276,30.543,43.407,32.401,6.631,5.604,10.245
1376,0.731,35.48,30.5,43.368,32.411,6.631,5.687,10.327
1377,0.695,35.557,30.567,43.33,32.408,6.59,5.645,10.327
1378,0.698,35.015,30.602,43.349,32.408,6.631,5.727,10.409
1379,0.695,35.257,30.504,43.339,32.404,6.59,5.687,10.245
1380,0.685,35.441,30.535,43.359,32.411,6.631,5.727,10.327
1381,0.678,35.199,30.425,43.339,32.397,6.672,5.768,10.286
1382,0.695,35.073,30.532,43.349,32.401,6.549,5.563,10.081
1383,0.692,35.334,30.555,43.378,32.418,6.754,5.687,10.286
1384,0.672,35.441,30.464,43.349,32.401,6.508,5.687,10.204
1385,0.678,35.054,30.524,43.359,32.401,6.549,5.687,10.245
1386,0.675,35.034,30.547,43.349,32.397,6.508,5.645,10.122
1387,0.688,35.267,30.61,43.359,32.408,6.549,5.851,10.122
1388,0.685,35.422,30.461,43.349,32.401,6.508,5.687,10.081
1389,0.692,35.083,30.508,43.359,32.401,6.508,5.604,9.916
1390,0.698,35.238,30.476,43.417,32.418,6.631,5.727,10.081
1391,0.695,35.402,30.535,43.378,32.401,6.467,5.687,10.081
1392,0.711,35.596,30.512,43.378,32.408,6.467,5.687,10.04
1393,0.698,34.947,30.524,43.359,32.401,6.467,5.687,9.916
1394,0.708,35.15,30.539,43.368,32.404,6.508,5.687,9.999
1395,0.705,35.373,30.524,43.359,32.401,6.385,5.645,9.999
1396,0.711,35.499,30.606,43.378,32.401,6.385,5.604,9.916
1397,0.708,35.044,30.5,43.417,32.411,6.508,5.81,9.999
1398,0.682,35.257,30.421,43.407,32.401,6.385,5.727,9.957
1399,0.701,35.489,30.535,43.397,32.408,6.467,5.687,10.081
1400,0.678,35.615,30.496,43.378,32.397,6.343,5.645,9.999
1401,0.685,35.354,30.587,43.388,32.404,6.467,5.768,10.245
1402,0.675,35.615,30.539,43.368,32.401,6.385,5.645,10.163
1403,0.682,35.828,30.512,43.397,32.404,6.467,5.604,10.081
1404,0.682,35.945,30.606,43.436,32.415,6.631,5.768,10.245
1405,0.659,34.928,30.535,43.455,32.404,6.508,5.687,10.163
1406,0.672,35.257,30.524,43.407,32.404,6.467,5.727,10.245
1407,0.675,35.47,30.528,43.397,32.397,6.549,5.645,10.122
1408,0.688,35.548,30.63,43.407,32.408,6.631,5.768,10.163
1409,0.695,35.218,30.535,43.388,32.394,6.549,5.645,10.245
1410,0.701,35.518,30.516,43.426,32.397,6.631,5.645,10.163
1411,0.695,35.722,30.563,43.446,32.418,6.837,5.768,10.245
1412,0.692,35.761,30.512,43.407,32.404,6.631,5.687,10.163
1413,0.695,35.15,30.583,43.426,32.394,6.631,5.727,10.204
1414,0.698,35.412,30.512,43.465,32.397,6.672,5.645,10.122
1415,0.701,35.625,30.512,43.417,32.404,6.795,5.727,10.204
1416,0.698,35.664,30.575,43.407,32.401,6.631,5.604,10.081
1417,0.692,35.373,30.575,43.426,32.404,6.754,5.645,10.081
1418,0.685,35.625,30.516,43.446,32.418,6.837,5.81,10.245
1419,0.678,35.809,30.472,43.397,32.397,6.672,5.645,10.081
1420,0.675,35.916,30.555,43.426,32.404,6.713,5.687,10.122
1421,0.682,35.218,30.583,43.436,32.404,6.672,5.604,10.081
1422,0.665,35.48,30.575,43.426,32.408,6.795,5.687,10.163
1423,0.662,35.673,30.524,43.426,32.394,6.631,5.645,10.081
1424,0.669,35.77,30.496,43.455,32.401,6.672,5.645,10.081
1425,0.669,35.393,30.571,43.465,32.415,6.837,5.851,10.204
1426,0.662,35.635,30.583,43.426,32.394,6.672,5.645,10.081
1427,0.672,35.819,30.488,43.436,32.408,6.672,5.727,10.081
1428,0.682,35.857,30.52,43.523,32.404,6.631,5.645,10.081
1429,0.682,35.499,30.48,43.446,32.408,6.713,5.687,10.081
1430,0.682,35.741,30.547,43.426,32.397,6.631,5.645,10.04
1431,0.688,35.935,30.472,43.455,32.404,6.672,5.687,10.081
1432,0.695,35.925,30.543,43.484,32.418,6.795,5.81,10.204
1433,0.688,35.364,30.571,43.417,32.394,6.549,5.687,10.081
1434,0.698,35.635,30.484,43.455,32.408,6.631,5.727,10.081
1435,0.692,35.79,30.5,43.465,32.401,6.59,5.645,9.916
1436,0.692,35.77,30.52,43.446,32.401,6.631,5.81,10.081
1437,0.678,35.586,30.583,43.446,32.397,6.549,5.604,10.081
1438,0.682,35.857,30.532,43.475,32.404,6.549,5.727,10.04
1439,0.672,36.003,30.472,43.542,32.415,6.713,5.892,10.204
1440,0.662,35.625,30.508,43.446,32.394,6.467,5.687,10.081
1441,0.669,35.557,30.5,43.446,32.397,6.631,5.727,10.081
1442,0.665,35.78,30.547,43.446,32.397,6.549,5.645,10.081
1443,0.659,35.935,30.563,43.465,32.404,6.631,5.768,10.163
1444,0.646,35.47,30.508,43.484,32.397,6.549,5.645,10.081
1445,0.659,35.557,30.555,43.484,32.404,6.631,5.81,10.163
1446,0.646,35.77,30.583,43.494,32.415,6.631,5.851,10.286
1447,0.659,35.896,30.524,43.465,32.397,6.426,5.687,10.081
1448,0.678,35.412,30.464,43.494,32.401,6.508,5.687,10.122
1449,0.675,35.548,30.453,43.475,32.404,6.59,5.645,10.04
1450,0.678,35.761,30.496,43.494,32.404,6.59,5.727,10.081
1451,0.675,35.896,30.52,43.475,32.401,6.549,5.687,9.999
1452,0.688,35.46,30.535,43.513,32.404,6.59,5.727,10.04
1453,0.685,35.664,30.535,43.523,32.415,6.672,5.892,10.245
1454,0.685,35.838,30.535,43.465,32.397,6.508,5.687,9.999
1455,0.698,36.032,30.535,43.504,32.408,6.59,5.727,10.04
1456,0.685,35.325,30.488,43.484,32.401,6.549,5.727,9.957
1457,0.675,35.606,30.583,43.504,32.404,6.672,5.768,9.916
1458,0.675,35.799,30.591,43.494,32.397,6.508,5.727,9.957
1459,0.675,35.945,30.52,43.523,32.404,6.672,5.81,9.916
1460,0.669,35.451,30.524,43.523,32.415,6.754,5.892,10.122
1461,0.669,35.683,30.457,43.484,32.394,6.59,5.687,9.999
1462,0.672,35.925,30.512,43.494,32.404,6.672,5.768,9.999
1463,0.659,36.022,30.591,43.504,32.404,6.672,5.687,9.999
1464,0.646,35.412,30.484,43.533,32.397,6.754,5.81,10.122
1465,0.655,35.664,30.535,43.513,32.394,6.631,5.687,10.04
1466,0.655,35.877,30.567,43.523,32.408,6.631,5.727,9.957
1467,0.659,35.964,30.618,43.533,32.415,6.837,5.851,10.081
1468,0.662,35.305,30.524,43.484,32.397,6.59,5.768,9.916
1469,0.669,35.635,30.504,43.523,32.401,6.713,5.768,9.916
1470,0.675,35.809,30.547,43.523,32.401,6.672,5.727,9.793
1471,0.682,35.887,30.516,43.542,32.401,6.631,5.768,9.999
1472,0.685,35.422,30.579,43.513,32.397,6.508,5.687,9.876
1473,0.688,35.683,30.543,43.533,32.401,6.631,5.727,9.834
1474,0.695,35.916,30.539,43.533,32.415,6.754,5.851,10.04
1475,0.682,35.964,30.555,43.513,32.394,6.549,5.687,9.916
1476,0.698,35.383,30.575,43.523,32.397,6.631,5.768,9.916
1477,0.685,35.635,30.575,43.523,32.404,6.59,5.687,9.916
1478,0.682,35.838,30.496,43.542,32.401,6.631,5.768,9.876
1479,0.678,35.887,30.532,43.542,32.401,6.508,5.687,9.876
1480,0.678,35.47,30.567,43.552,32.411,6.549,5.768,9.957
1481,0.662,35.732,30.599,43.542,32.415,6.631,5.81,10.163
1482,0.655,35.916,30.551,43.504,32.394,6.385,5.687,9.957
1483,0.675,36.003,30.563,43.542,32.404,6.549,5.768,9.999
1484,0.655,35.451,30.583,43.562,32.401,6.631,5.727,9.999
1485,0.659,35.722,30.555,43.581,32.401,6.713,5.768,10.081
1486,0.649,35.906,30.48,43.552,32.394,6.549,5.687,9.999
1487,0.672,35.964,30.559,43.572,32.408,6.672,5.768,10.081
1488,0.665,35.402,30.61,43.562,32.411,6.754,5.768,10.245
1489,0.669,35.644,30.602,43.533,32.39,6.631,5.645,10.04
1490,0.695,35.877,30.551,43.572,32.404,6.795,5.687,10.122
1491,0.669,36.032,30.453,43.562,32.397,6.713,5.645,10.081
1492,0.678,35.48,30.528,43.581,32.401,6.713,5.768,10.163
1493,0.678,35.712,30.543,43.562,32.397,6.631,5.687,10.081
1494,0.688,35.877,30.472,43.581,32.408,6.754,5.727,10.163
1495,0.682,35.596,30.535,43.581,32.404,6.795,5.727,10.204
1496,0.695,35.364,30.535,43.552,32.387,6.672,5.604,9.957
1497,0.685,35.615,30.622,43.591,32.401,6.754,5.687,10.081
1498,0.669,35.761,30.512,43.581,32.401,6.672,5.687,9.957
1499,0.662,35.402,30.5,43.601,32.404,6.754,5.727,10.081
1500,0.646,35.402,30.52,43.572,32.394,6.713,5.727,10.081
1501,0.652,35.644,30.524,43.601,32.404,6.795,5.727,10.122
1502,0.646,35.761,30.535,43.581,32.401,6.754,5.687,10.122
1503,0.646,35.364,30.539,43.581,32.401,6.672,5.563,9.957
1504,0.649,35.509,30.547,43.63,32.415,6.837,5.81,10.122
1505,0.623,35.693,30.528,43.601,32.404,6.713,5.727,10.04
1506,0.646,35.867,30.547,43.601,32.404,6.795,5.727,10.122
1507,0.655,35.102,30.559,43.591,32.394,6.713,5.645,9.957
1508,0.659,35.267,30.429,43.62,32.404,6.877,5.727,10.081
1509,0.662,35.48,30.512,43.581,32.394,6.837,5.563,9.957
1510,0.672,35.644,30.571,43.61,32.401,6.795,5.645,9.957
1511,0.669,35.257,30.563,43.639,32.415,6.96,5.768,10.081
1512,0.659,35.48,30.543,43.581,32.401,6.754,5.645,9.957
1513,0.675,35.712,30.543,43.62,32.401,6.795,5.727,10.04
1514,0.669,35.828,30.555,43.601,32.397,6.795,5.604,9.957
1515,0.675,34.947,30.532,43.601,32.408,6.795,5.687,10.04
1516,0.675,35.209,30.508,43.61,32.397,6.713,5.645,9.999
1517,0.672,35.422,30.622,43.61,32.401,6.795,5.645,10.04
1518,0.662,35.528,30.599,43.639,32.411,6.919,5.851,10.286
1519,0.665,35.063,30.484,43.601,32.394,6.672,5.645,10.081
1520,0.662,35.393,30.539,43.639,32.401,6.754,5.604,10.204
1521,0.646,35.577,30.508,43.726,32.397,6.754,5.687,10.204
1522,0.642,35.702,30.543,43.62,32.401,6.754,5.727,10.286
1523,0.649,35.112,30.539,43.61,32.397,6.631,5.604,10.163
1524,0.646,35.412,30.532,43.659,32.411,6.754,5.727,10.327
1525,0.639,35.606,30.543,43.659,32.404,6.754,5.768,10.368
1526,0.646,35.702,30.551,43.601,32.39,6.59,5.563,10.204
1527,0.662,35.083,30.599,43.649,32.408,6.713,5.645,10.286
1528,0.649,35.305,30.464,43.639,32.397,6.631,5.687,10.286
1529,0.652,35.528,30.528,43.649,32.397,6.672,5.687,10.245
1530,0.649,35.586,30.563,43.639,32.394,6.59,5.687,10.204
1531,0.672,34.986,30.559,43.659,32.404,6.631,5.727,10.327
1532,0.669,35.257,30.551,43.649,32.394,6.631,5.768,10.286
1533,0.669,35.451,30.555,43.639,32.39,6.467,5.563,10.163
1534,0.682,35.557,30.571,43.668,32.408,6.631,5.727,10.286
1535,0.659,34.995,30.551,43.639,32.401,6.672,5.687,10.204
1536,0.675,35.257,30.555,43.668,32.404,6.754,5.687,10.245
1537,0.662,35.431,30.634,43.649,32.401,6.631,5.604,10.204
1538,0.662,35.518,30.563,43.678,32.408,6.713,5.727,10.286
1539,0.655,34.976,30.508,43.649,32.397,6.713,5.727,10.327
1540,0.649,35.257,30.543,43.659,32.397,6.672,5.645,10.122
1541,0.652,35.499,30.547,43.707,32.415,6.754,5.645,10.286
1542,0.632,35.47,30.555,43.678,32.397,6.713,5.727,10.245
1543,0.646,34.995,30.563,43.668,32.401,6.795,5.727,10.286
1544,0.636,35.238,30.539,43.668,32.397,6.713,5.645,10.204
1545,0.639,35.451,30.547,43.688,32.404,6.713,5.81,10.327
1546,0.636,35.441,30.602,43.668,32.394,6.672,5.645,10.163
1547,0.655,35.092,30.591,43.668,32.404,6.713,5.687,10.122
1548,0.655,35.354,30.464,43.707,32.408,6.877,5.892,10.245
1549,0.652,35.509,30.5,43.668,32.401,6.795,5.727,10.122
1550,0.669,35.412,30.563,43.697,32.404,6.713,5.687,10.163
1551,0.669,34.966,30.567,43.678,32.401,6.754,5.727,10.081
1552,0.682,35.218,30.567,43.697,32.411,6.713,5.768,10.245
1553,0.672,35.383,30.52,43.678,32.397,6.672,5.687,10.163
1554,0.695,35.054,30.591,43.688,32.401,6.713,5.687,9.957
1555,0.682,34.947,30.535,43.823,32.415,6.877,5.851,10.245
1556,0.669,35.16,30.547,43.678,32.401,6.713,5.687,10.163
1557,0.675,35.354,30.599,43.697,32.408,6.672,5.727,10.204
1558,0.665,34.966,30.618,43.678,32.397,6.672,5.687,10.204
1559,0.655,35.015,30.571,43.707,32.401,6.713,5.727,10.286
1560,0.646,35.247,30.484,43.707,32.394,6.549,5.604,10.204
1561,0.659,35.431,30.484,43.717,32.404,6.672,5.727,10.204
1562,0.642,34.86,30.535,43.736,32.411,6.754,5.81,10.368
1563,0.646,34.976,30.559,43.668,32.387,6.59,5.687,10.286
1564,0.655,35.267,30.492,43.736,32.397,6.59,5.727,10.245
1565,0.649,35.393,30.492,43.717,32.401,6.549,5.727,10.245
1566,0.642,34.782,30.571,43.717,32.408,6.631,5.768,10.327
1567,0.652,34.976,30.618,43.707,32.401,6.549,5.687,10.081
1568,0.655,35.238,30.539,43.736,32.401,6.631,5.768,10.245
1569,0.655,35.364,30.559,43.746,32.415,6.713,5.892,10.327
1570,0.655,34.763,30.476,43.697,32.401,6.59,5.727,10.163
1571,0.675,35.034,30.575,43.736,32.404,6.631,5.727,10.163
1572,0.682,35.247,30.567,43.717,32.397,6.59,5.687,10.163
1573,0.672,35.383,30.535,43.736,32.401,6.59,5.727,10.204
1574,0.675,34.753,30.571,43.717,32.394,6.59,5.687,9.999
1575,0.678,35.034,30.555,43.736,32.401,6.631,5.768,10.081
1576,0.678,35.228,30.61,43.736,32.411,6.713,5.892,10.245
1577,0.672,35.334,30.484,43.717,32.39,6.59,5.687,9.999
1578,0.669,34.666,30.512,43.804,32.401,6.631,5.768,10.081
1579,0.662,34.937,30.571,43.726,32.401,6.631,5.727,9.999
1580,0.652,35.15,30.575,43.746,32.401,6.713,5.851,10.204
1581,0.649,35.257,30.63,43.717,32.401,6.59,5.727,10.081
1582,0.655,34.724,30.591,43.755,32.408,6.672,5.851,10.204
1583,0.646,34.976,30.571,43.746,32.408,6.754,5.933,10.368
1584,0.632,35.16,30.626,43.707,32.394,6.549,5.768,10.204
1585,0.646,35.315,30.433,43.765,32.401,6.631,5.768,10.204
1586,0.632,34.724,30.535,43.746,32.401,6.549,5.768,10.245
1587,0.649,35.005,30.591,43.755,32.404,6.631,5.81,10.286
1588,0.652,35.199,30.626,43.736,32.401,6.508,5.687,10.245
1589,0.665,35.286,30.626,43.765,32.404,6.549,5.851,10.245
1590,0.672,34.744,30.516,43.755,32.404,6.631,5.974,10.368
1591,0.675,35.024,30.468,43.746,32.394,6.385,5.687,10.204
1592,0.688,35.276,30.583,43.794,32.404,6.59,5.81,10.245
1593,0.695,35.305,30.606,43.755,32.397,6.426,5.768,10.286
1594,0.698,34.666,30.591,43.823,32.404,6.631,5.851,10.286
1595,0.701,34.928,30.504,43.765,32.401,6.508,5.727,10.163
1596,0.711,35.141,30.622,43.775,32.404,6.631,5.892,10.368
1597,0.685,35.17,30.622,43.775,32.401,6.631,5.933,10.491
1598,0.675,34.763,30.488,43.746,32.397,6.508,5.727,10.368
1599,0.682,35.054,30.571,43.804,32.401,6.549,5.851,10.532
1600,0.669,35.189,30.543,43.765,32.401,6.59,5.81,10.532
1601,0.665,35.267,30.579,43.775,32.401,6.631,5.892,10.615
1602,0.672,34.753,30.587,43.775,32.401,6.549,5.81,10.615
1603,0.672,35.024,30.583,43.794,32.401,6.631,5.892,10.738
1604,0.659,35.17,30.559,43.784,32.408,6.631,5.892,10.738
1605,0.692,35.412,30.559,43.775,32.394,6.508,5.645,10.532
1606,0.701,34.753,30.654,43.823,32.404,6.672,5.892,10.656
1607,0.705,34.986,30.559,43.794,32.401,6.672,5.81,10.697
1608,0.734,35.16,30.437,43.794,32.408,6.631,5.892,10.697
1609,0.744,34.937,30.567,43.794,32.394,6.59,5.851,10.574
1610,0.757,34.734,30.555,43.804,32.401,6.713,5.974,10.697
1611,0.77,34.957,30.583,43.784,32.397,6.631,5.974,10.615
1612,0.797,35.16,30.547,43.814,32.397,6.59,5.81,10.532
1613,0.803,34.792,30.591,43.843,32.415,6.795,5.933,10.697
1614,0.787,34.724,30.551,43.784,32.397,6.59,5.892,10.532
1615,0.8,34.995,30.535,43.814,32.404,6.59,5.974,10.574
1616,0.803,35.15,30.583,43.814,32.397,6.631,5.892,10.532
1617,0.787,34.695,30.602,43.804,32.404,6.672,5.974,10.615
1618,0.774,34.773,30.65,43.784,32.394,6.549,5.851,10.491
1619,0.78,35.034,30.587,43.814,32.408,6.672,6.015,10.574
1620,0.761,35.189,30.563,43.843,32.411,6.713,6.056,10.738
1621,0.761,34.579,30.559,43.833,32.397,6.467,5.974,10.615
1622,0.77,34.773,30.543,43.814,32.397,6.631,6.015,10.615
1623,0.774,34.986,30.622,43.804,32.401,6.508,6.015,10.532
1624,0.774,35.16,30.492,43.891,32.401,6.549,6.056,10.656
1625,0.777,34.579,30.559,43.814,32.397,6.549,5.933,10.491
1626,0.793,34.811,30.618,43.833,32.408,6.631,5.974,10.656
1627,0.803,35.005,30.587,43.814,32.397,6.59,6.138,10.656
1628,0.82,35.141,30.547,43.784,32.394,6.385,5.933,10.532
1629,0.843,34.589,30.52,43.862,32.411,6.467,6.056,10.491
1630,0.823,34.792,30.52,43.833,32.401,6.508,6.015,10.491
1631,0.83,35.024,30.591,43.814,32.401,6.508,6.015,10.45
1632,0.833,35.141,30.563,43.823,32.394,6.426,5.974,10.368
1633,0.826,34.501,30.539,43.833,32.408,6.59,6.056,10.532
1634,0.83,34.763,30.559,43.814,32.394,6.467,6.056,10.409
1635,0.826,34.995,30.606,43.823,32.397,6.467,5.851,10.245
1636,0.83,35.131,30.677,43.862,32.404,6.508,5.974,10.327
1637,0.793,34.589,30.528,43.843,32.401,6.508,5.974,10.327
1638,0.787,34.899,30.583,43.833,32.408,6.467,5.974,10.286
1639,0.78,35.092,30.535,43.833,32.394,6.385,5.974,10.245
1640,0.764,35.189,30.567,43.852,32.408,6.508,6.015,10.368
1641,0.757,34.501,30.606,43.823,32.401,6.343,5.974,10.286
1642,0.761,34.802,30.559,43.852,32.401,6.302,5.933,10.163
1643,0.751,35.034,30.602,43.881,32.415,6.467,6.056,10.286
1644,0.718,35.063,30.63,43.852,32.404,6.385,6.015,10.245
1645,0.715,34.54,30.567,43.862,32.404,6.343,5.974,10.245
1646,0.701,34.811,30.591,43.852,32.397,6.262,5.933,10.163
1647,0.701,35.024,30.626,43.862,32.401,6.343,5.974,10.286
1648,0.698,35.063,30.662,43.843,32.39,6.302,5.933,10.204
1649,0.711,34.472,30.599,43.872,32.404,6.343,6.015,10.122
1650,0.711,34.734,30.532,43.901,32.418,6.508,6.015,10.286
1651,0.705,34.918,30.599,43.891,32.394,6.302,5.892,10.286
1652,0.721,35.005,30.535,43.881,32.397,6.426,5.974,10.368
1653,0.718,34.656,30.642,43.872,32.397,6.302,5.892,10.204
1654,0.724,34.947,30.579,43.891,32.404,6.302,5.974,10.245
1655,0.711,35.102,30.571,43.872,32.397,6.262,5.892,10.163
1656,0.721,35.17,30.654,43.872,32.408,6.302,5.892,10.163
1657,0.698,34.492,30.634,43.891,32.415,6.385,6.015,10.286
1658,0.682,34.715,30.551,43.862,32.404,6.262,5.933,10.245
1659,0.678,34.957,30.571,43.872,32.401,6.302,5.933,10.327
1660,0.665,34.966,30.567,43.872,32.394,6.22,5.892,10.327
1661,0.662,34.686,30.63,43.92,32.408,6.343,5.933,10.45
1662,0.646,34.918,30.555,43.862,32.394,6.22,5.933,10.327
1663,0.646,35.112,30.599,43.891,32.401,6.22,5.892,10.409
1664,0.639,35.054,30.551,43.93,32.411,6.426,6.015,10.574
1665,0.629,34.598,30.563,43.872,32.404,6.22,5.892,10.491
1666,0.642,34.85,30.634,43.891,32.397,6.262,5.974,10.491
1667,0.642,35.015,30.543,43.881,32.397,6.22,5.81,10.409
1668,0.649,34.686,30.48,43.901,32.408,6.22,5.933,10.491
1669,0.659,34.53,30.551,43.881,32.39,6.138,5.81,10.409
1670,0.659,34.782,30.547,43.91,32.401,6.22,5.851,10.368
1671,0.655,34.928,30.614,43.93,32.415,6.385,6.015,10.574
1672,0.649,34.618,30.535,43.891,32.394,6.179,5.892,10.409
1673,0.655,34.695,30.61,43.901,32.397,6.22,5.892,10.45
1674,0.662,34.937,30.599,43.891,32.397,6.179,5.851,10.327
1675,0.662,35.112,30.547,43.901,32.408,6.262,5.974,10.45
1676,0.652,34.405,30.591,43.891,32.394,6.138,5.892,10.327
1677,0.629,34.54,30.618,43.901,32.408,6.262,5.892,10.409
1678,0.623,34.792,30.61,43.93,32.411,6.302,6.015,10.574
1679,0.619,34.889,30.563,43.881,32.39,6.179,5.892,10.574
1680,0.619,34.434,30.539,43.91,32.401,6.302,5.892,10.574
1681,0.616,34.627,30.555,43.949,32.401,6.262,5.851,10.409
1682,0.616,34.86,30.571,43.91,32.408,6.302,5.892,10.574
1683,0.613,34.966,30.618,43.891,32.394,6.262,5.851,10.491
1684,0.606,34.472,30.61,43.949,32.401,6.385,5.892,10.574
1685,0.603,34.676,30.579,43.939,32.408,6.426,6.015,10.697
1686,0.603,34.918,30.618,43.891,32.387,6.262,5.81,10.45
1687,0.616,35.063,30.638,43.93,32.404,6.385,5.81,10.45
1688,0.606,34.414,30.504,43.91,32.39,6.385,5.81,10.409
1689,0.609,34.695,30.571,43.93,32.397,6.467,5.851,10.327
1690,0.626,34.908,30.606,43.901,32.397,6.467,5.81,10.286
1691,0.623,35.015,30.587,43.939,32.411,6.426,5.851,10.368
1692,0.629,34.463,30.634,43.93,32.401,6.467,5.974,10.368
1693,0.636,34.715,30.539,43.92,32.394,6.302,5.645,10.122
1694,0.636,34.986,30.595,43.939,32.401,6.467,5.81,10.163
1695,0.623,35.054,30.626,43.93,32.394,6.426,5.768,10.122
1696,0.636,34.395,30.638,43.93,32.401,6.467,5.81,10.163
1697,0.623,34.647,30.559,43.91,32.401,6.385,5.768,9.999
1698,0.626,34.879,30.539,43.949,32.411,6.508,5.851,10.04
1699,0.616,34.966,30.579,43.92,32.401,6.426,5.892,10.122
1700,0.613,34.482,30.599,43.949,32.401,6.302,5.727,9.957
1701,0.616,34.773,30.638,43.968,32.411,6.426,5.768,10.081
1702,0.6,34.947,30.622,43.93,32.404,6.385,5.81,10.122
1703,0.606,35.054,30.595,43.939,32.401,6.385,5.81,10.122
1704,0.603,34.395,30.634,43.93,32.394,6.302,5.768,10.081
1705,0.606,34.676,30.626,44.046,32.404,6.343,5.81,10.081
1706,0.59,34.85,30.563,43.93,32.394,6.302,5.81,10.122
1707,0.613,34.928,30.65,43.939,32.401,6.262,5.768,9.957
1708,0.616,34.56,30.65,43.978,32.411,6.426,5.974,10.081
1709,0.609,34.773,30.622,43.939,32.401,6.22,5.851,9.957
1710,0.626,34.995,30.599,43.949,32.404,6.179,5.81,9.999
1711,0.626,35.063,30.583,44.046,32.401,6.22,5.81,9.916
1712,0.629,34.54,30.61,43.959,32.401,6.302,5.892,10.04
1713,0.632,34.773,30.618,43.939,32.401,6.179,5.768,9.876
1714,0.649,34.995,30.614,43.968,32.404,6.179,5.851,9.916
1715,0.646,35.015,30.618,43.968,32.408,6.385,6.015,10.081
1716,0.649,34.443,30.606,43.92,32.397,6.097,5.851,9.916
1717,0.655,34.715,30.658,43.959,32.408,6.262,5.851,9.916
1718,0.636,34.879,30.504,43.968,32.404,6.138,5.851,9.916
1719,0.642,35.083,30.551,43.988,32.404,6.22,5.933,9.916
1720,0.623,34.627,30.555,43.93,32.401,6.056,5.81,9.834
1721,0.629,34.928,30.599,43.968,32.397,6.179,5.892,9.957
1722,0.606,35.063,30.634,43.968,32.408,6.262,5.974,10.04
1723,0.623,34.811,30.551,43.93,32.387,6.056,5.81,9.957
1724,0.616,34.579,30.614,43.978,32.404,6.138,5.851,10.04
1725,0.6,34.782,30.646,43.959,32.397,6.138,5.892,9.957
1726,0.603,34.957,30.642,43.968,32.404,6.179,5.851,9.957
1727,0.606,34.666,30.606,43.968,32.397,6.056,5.81,9.876
1728,0.626,34.666,30.488,43.988,32.404,6.138,5.892,9.916
1729,0.619,34.899,30.579,43.959,32.394,6.056,5.933,10.04
1730,0.636,35.063,30.575,43.968,32.39,6.056,5.768,9.752
1731,0.646,34.676,30.618,44.007,32.411,6.262,5.851,9.916
1732,0.629,34.744,30.606,43.968,32.397,6.179,5.851,9.876
1733,0.639,34.966,30.579,43.978,32.404,6.179,5.892,9.916
1734,0.649,35.131,30.575,43.959,32.397,6.138,5.851,9.793
1735,0.649,34.463,30.559,43.988,32.404,6.22,5.892,9.876
1736,0.646,34.618,30.591,43.939,32.394,6.262,5.851,9.834
1737,0.649,34.87,30.705,43.978,32.394,6.22,5.768,9.711
1738,0.646,35.015,30.65,44.007,32.411,6.385,5.892,9.916
1739,0.632,34.327,30.555,43.959,32.401,6.302,5.851,9.793
1740,0.632,34.569,30.591,43.978,32.408,6.343,5.892,9.916
1741,0.619,34.811,30.614,43.968,32.401,6.343,5.768,9.834
1742,0.629,34.947,30.602,43.978,32.401,6.467,5.892,9.957
1743,0.629,34.356,30.622,43.968,32.397,6.343,5.768,9.916
1744,0.636,34.627,30.614,44.007,32.401,6.467,5.768,9.957
1745,0.632,34.84,30.591,43.997,32.411,6.59,5.974,10.081
1746,0.629,34.937,30.646,43.968,32.397,6.467,5.892,9.999
1747,0.655,34.385,30.646,43.978,32.401,6.467,5.851,10.04
1748,0.655,34.637,30.539,43.988,32.394,6.508,5.892,10.04
1749,0.655,34.86,30.595,43.997,32.401,6.549,5.81,10.081
1750,0.678,34.966,30.634,43.978,32.394,6.467,5.81,9.957
1751,0.688,34.501,30.646,43.997,32.404,6.631,5.933,10.04
1752,0.705,34.753,30.693,44.017,32.411,6.754,6.015,10.163
1753,0.718,34.947,30.555,43.949,32.394,6.508,5.81,9.999
1754,0.754,35.083,30.634,43.988,32.401,6.59,5.851,10.04
1755,0.757,34.695,30.618,43.978,32.401,6.59,5.81,9.999
1756,0.78,34.976,30.654,43.978,32.408,6.713,5.892,10.04
1757,0.777,35.179,30.587,44.007,32.394,6.549,5.768,9.957
1758,0.767,35.276,30.587,44.017,32.411,6.672,5.892,10.04
1759,0.764,34.221,30.642,43.997,32.404,6.754,5.892,10.081
1760,0.77,34.521,30.634,43.978,32.387,6.59,5.768,9.957
1761,0.79,34.734,30.681,44.007,32.401,6.713,5.851,10.081
1762,0.761,34.811,30.65,43.997,32.394,6.713,5.851,9.999
1763,0.777,34.686,30.622,44.007,32.401,6.795,5.851,10.163
1764,0.784,34.918,30.673,43.988,32.401,6.754,5.727,10.081
1765,0.793,35.131,30.583,44.017,32.401,6.877,5.892,10.163
1766,0.8,35.179,30.599,43.997,32.39,6.837,5.81,10.163
1767,0.833,34.482,30.666,43.997,32.394,6.713,5.727,10.04
1768,0.885,34.773,30.689,44.017,32.404,6.877,5.851,10.04
1769,0.918,34.908,30.63,43.997,32.401,6.795,5.81,9.999
1770,1.01,34.976,30.618,44.017,32.397,6.877,5.81,10.081
1771,1.092,34.424,30.571,44.056,32.397,6.795,5.81,9.999
1772,1.175,34.695,30.63,44.007,32.404,6.877,5.892,10.163
1773,1.221,34.86,30.65,43.988,32.397,6.754,5.892,10.081
1774,1.267,34.937,30.662,44.007,32.401,6.713,5.727,9.834
1775,1.342,34.627,30.61,44.046,32.411,6.96,5.933,10.04
1776,1.391,34.811,30.685,43.997,32.408,6.795,5.81,9.916
1777,1.444,35.024,30.681,44.017,32.397,6.795,5.81,9.999
1778,1.497,35.034,30.575,43.997,32.401,6.795,5.81,9.957
1779,1.549,34.511,30.618,44.017,32.404,6.795,5.892,10.081
1780,1.598,34.744,30.622,44.007,32.401,6.713,5.851,10.122
1781,1.625,34.918,30.626,44.017,32.404,6.672,5.81,10.122
1782,1.638,34.715,30.642,44.046,32.415,6.877,5.933,10.409
1783,1.644,34.53,30.634,43.988,32.397,6.795,5.81,10.368
1784,1.635,34.802,30.638,44.017,32.404,6.713,5.851,10.491
1785,1.598,34.976,30.614,44.007,32.401,6.795,5.81,10.532
1786,1.562,34.589,30.725,44.026,32.397,6.795,5.892,10.574
1787,1.51,34.598,30.61,44.007,32.394,6.713,5.81,10.697
1788,1.444,34.85,30.571,44.026,32.408,6.837,5.81,10.697
1789,1.365,35.005,30.602,44.036,32.415,6.96,5.974,10.943
1790,1.303,34.424,30.614,43.988,32.387,6.754,5.768,10.902
1791,1.263,34.589,30.642,44.026,32.401,6.877,5.81,10.902
1792,1.161,34.811,30.65,44.007,32.401,6.877,5.81,10.861
1793,1.102,34.957,30.606,44.017,32.401,6.96,5.851,10.943
1794,1.04,34.395,30.622,44.017,32.397,6.877,5.727,10.902
1795,1.014,34.589,30.662,44.036,32.404,6.96,5.81,11.189
1796,1.02,34.792,30.677,44.017,32.401,6.96,5.974,11.518
1797,1.043,34.957,30.606,43.988,32.394,6.754,5.727,11.559
1798,1.089,34.385,30.622,44.056,32.404,6.919,5.768,11.888
1799,1.027,34.579,30.642,44.036,32.408,6.877,5.851,12.216
1800,0.971,34.802,30.622,44.036,32.408,6.877,5.851,12.463
1801,0.892,34.937,30.693,44.007,32.404,6.877,5.768,12.627
1802,0.764,34.414,30.63,44.026,32.408,6.919,5.851,12.996
1803,0.613,34.656,30.638,44.017,32.404,6.795,5.81,13.284
1804,0.501,34.889,30.705,44.026,32.397,6.795,5.687,13.325
1805,0.442,35.024,30.622,44.065,32.408,6.919,5.81,13.571
1806,0.376,34.346,30.622,44.017,32.401,6.795,5.768,13.695
1807,0.366,34.647,30.658,44.026,32.397,6.837,5.892,13.859
1808,0.373,34.831,30.705,44.036,32.394,6.754,5.727,13.818
1809,0.389,34.947,30.662,44.026,32.401,6.754,5.851,13.982
1810,0.416,34.376,30.591,43.997,32.394,6.672,5.727,13.9
1811,0.435,34.686,30.666,44.026,32.401,6.672,5.727,13.9
1812,0.458,34.899,30.626,44.065,32.408,6.795,5.933,14.023
1813,0.455,34.947,30.67,44.007,32.394,6.631,5.851,14.023
1814,0.472,34.511,30.654,44.017,32.401,6.631,5.768,14.023
1815,0.498,34.744,30.654,44.007,32.404,6.631,5.768,13.982
1816,0.544,34.966,30.725,44.036,32.408,6.631,5.851,14.023
1817,0.583,35.044,30.654,44.026,32.394,6.508,5.81,13.982
1818,0.632,34.366,30.595,44.046,32.404,6.549,5.851,13.982
1819,0.655,34.647,30.622,44.056,32.411,6.713,5.933,14.311
1820,0.685,34.811,30.701,43.997,32.394,6.508,5.727,14.311
1821,0.721,34.918,30.662,44.036,32.404,6.508,5.851,14.434
1822,0.734,34.501,30.701,44.026,32.401,6.467,5.768,14.598
1823,0.761,34.792,30.622,44.036,32.408,6.549,5.768,14.68
1824,0.754,34.957,30.646,44.017,32.404,6.426,5.687,14.763
1825,0.767,35.044,30.697,44.046,32.401,6.508,5.851,14.886
1826,0.77,34.424,30.67,44.036,32.408,6.467,5.933,15.009
1827,0.79,34.695,30.634,44.007,32.39,6.343,5.687,14.886
1828,0.816,34.908,30.614,44.056,32.404,6.385,5.768,14.968
1829,0.8,34.908,30.658,44.017,32.397,6.385,5.768,14.845
1830,0.82,34.501,30.693,44.046,32.401,6.426,5.81,14.886
1831,0.813,34.753,30.602,44.017,32.397,6.343,5.768,14.598
1832,0.826,34.957,30.666,44.046,32.401,6.343,5.81,14.763
1833,0.816,34.889,30.673,44.007,32.401,6.343,5.81,14.557
1834,0.83,34.463,30.626,44.017,32.394,6.262,5.645,14.228
1835,0.833,34.734,30.677,44.065,32.408,6.426,5.81,14.27
1836,0.823,34.879,30.689,44.026,32.401,6.467,5.81,14.188
1837,0.826,34.773,30.701,44.026,32.401,6.549,5.81,14.105
1838,0.816,34.53,30.583,44.017,32.397,6.549,5.645,13.859
1839,0.81,34.802,30.638,44.026,32.404,6.713,5.851,13.9
1840,0.8,34.957,30.63,44.026,32.394,6.713,5.727,13.736
1841,0.803,34.579,30.63,44.017,32.397,6.713,5.645,13.531
1842,0.803,34.521,30.697,44.065,32.411,6.877,5.81,13.49
1843,0.79,34.695,30.614,44.026,32.397,6.919,5.81,13.366
1844,0.803,34.908,30.654,44.046,32.404,6.837,5.81,13.325
1845,0.797,34.463,30.634,44.017,32.394,6.877,5.727,13.12
1846,0.8,34.54,30.705,44.036,32.404,7.001,5.851,13.079
1847,0.8,34.773,30.614,44.007,32.397,6.837,5.727,12.791
1848,0.82,34.937,30.606,44.017,32.401,7.001,5.687,12.627
1849,0.816,34.414,30.681,44.026,32.411,7.165,5.851,12.627
1850,0.833,34.521,30.65,44.007,32.394,7.042,5.768,12.463
1851,0.83,34.773,30.658,44.007,32.408,7.083,5.768,12.339
1852,0.836,34.928,30.618,44.026,32.397,7.042,5.81,12.216
1853,0.839,34.327,30.705,44.007,32.404,7.165,5.851,12.175
1854,0.839,34.492,30.61,43.997,32.397,7.124,5.727,12.011
1855,0.843,34.773,30.646,44.007,32.397,7.083,5.687,11.764
1856,0.859,34.879,30.697,44.046,32.418,7.288,5.892,11.97
1857,0.839,34.385,30.677,44.007,32.404,7.083,5.851,11.764
1858,0.843,34.647,30.673,44.007,32.401,7.165,5.851,11.764
1859,0.833,34.889,30.599,44.017,32.401,7.165,5.768,11.683
1860,0.82,34.995,30.618,44.026,32.401,7.165,5.892,11.723
1861,0.823,34.395,30.666,43.988,32.394,7.083,5.81,11.559
1862,0.826,34.695,30.646,44.026,32.408,7.206,5.851,11.6
1863,0.83,34.87,30.713,44.046,32.411,7.247,5.933,11.559
1864,0.813,34.986,30.658,43.988,32.397,7.042,5.892,11.436
1865,0.83,34.269,30.67,44.017,32.404,7.165,5.851,11.395
1866,0.816,34.54,30.772,44.017,32.397,7.124,5.768,11.272
1867,0.83,34.744,30.677,44.026,32.408,7.124,5.892,11.272
1868,0.839,34.86,30.571,44.026,32.394,7.001,5.81,11.149
1869,0.846,34.424,30.654,44.036,32.401,7.042,5.81,11.108
1870,0.846,34.686,30.65,44.046,32.415,7.165,5.933,11.189
1871,0.853,34.879,30.673,43.997,32.39,6.96,5.81,11.066
1872,0.872,35.015,30.713,43.997,32.397,6.96,5.851,10.943
1873,0.869,34.25,30.559,44.026,32.394,6.96,5.768,10.943
1874,0.876,34.54,30.697,44.026,32.401,6.96,5.81,10.82
1875,0.872,34.715,30.701,43.988,32.397,6.877,5.81,10.82
1876,0.882,34.831,30.713,44.026,32.401,6.96,5.892,10.861
1877,0.866,34.424,30.67,44.104,32.408,6.96,5.974,10.902
1878,0.869,34.695,30.662,43.988,32.387,6.837,5.81,10.779
1879,0.879,34.908,30.701,44.017,32.401,6.919,5.892,10.861
1880,0.866,34.966,30.685,43.997,32.401,7.001,5.727,10.82
1881,0.862,34.434,30.733,44.026,32.394,6.96,5.892,10.902
1882,0.862,34.695,30.642,44.007,32.397,6.96,5.81,10.82
1883,0.869,34.889,30.705,44.017,32.408,7.001,5.851,10.943
1884,0.856,34.928,30.689,44.007,32.397,7.042,5.974,10.943
1885,0.866,34.308,30.662,44.007,32.39,6.877,5.727,10.697
1886,0.879,34.598,30.689,44.026,32.415,6.877,5.892,10.779
1887,0.869,34.744,30.737,44.007,32.394,7.042,5.81,10.738
1888,0.879,34.782,30.752,43.997,32.401,7.042,5.892,10.738
1889,0.879,34.453,30.61,44.007,32.39,6.96,5.768,10.615
1890,0.892,34.734,30.63,44.007,32.408,7.042,5.933,10.656
1891,0.889,34.879,30.685,43.978,32.401,6.96,5.851,10.656
1892,0.895,34.957,30.666,44.007,32.397,6.96,5.727,10.491
1893,0.908,34.337,30.717,44.036,32.408,7.042,5.892,10.574
1894,0.902,34.56,30.65,43.997,32.397,6.96,5.851,10.45
1895,0.905,34.734,30.701,43.997,32.401,6.96,5.851,10.574
1896,0.912,34.589,30.725,43.978,32.394,6.96,5.768,10.409
1897,0.915,34.511,30.677,44.007,32.411,6.96,5.974,10.532
1898,0.899,34.734,30.614,43.968,32.394,6.877,5.851,10.45
1899,0.905,34.928,30.634,43.997,32.401,6.837,5.81,10.327
1900,0.899,34.414,30.725,44.026,32.408,7.083,5.933,10.409
1901,0.889,34.356,30.705,43.978,32.397,6.877,5.81,10.409
1902,0.892,34.618,30.709,43.988,32.397,6.919,5.81,10.409
1903,0.892,34.744,30.67,43.988,32.401,7.001,5.81,10.327
1904,0.892,34.376,30.654,43.997,32.401,7.042,5.974,10.491
1905,0.892,34.463,30.693,43.968,32.394,7.001,5.851,10.368
1906,0.899,34.724,30.725,43.988,32.401,7.042,5.727,10.163
1907,0.908,34.879,30.65,44.017,32.411,7.165,5.933,10.368
1908,0.899,34.192,30.662,43.968,32.401,7.124,5.851,10.286
1909,0.922,34.414,30.634,43.988,32.404,7.165,5.892,10.327
1910,0.935,34.647,30.713,43.968,32.397,7.165,5.81,10.163
1911,0.931,34.782,30.697,43.988,32.404,7.206,5.851,10.245
1912,0.935,34.211,30.654,43.968,32.394,7.247,5.768,10.163
1913,0.941,34.482,30.752,43.978,32.401,7.288,5.81,10.122
1914,0.945,34.676,30.654,44.017,32.411,7.37,5.974,10.245
1915,0.945,34.802,30.666,43.959,32.387,7.165,5.851,10.081
1916,0.958,34.25,30.705,43.978,32.401,7.247,5.81,10.122
1917,0.954,34.511,30.733,43.978,32.394,7.206,5.727,10.081
1918,0.948,34.715,30.744,43.978,32.401,7.165,5.81,10.245
1919,0.941,34.821,30.63,43.949,32.387,7.165,5.768,10.122
1920,0.945,34.133,30.709,43.978,32.39,7.247,5.851,10.286
1921,0.948,34.395,30.705,43.978,32.397,7.247,5.974,10.327
1922,0.938,34.618,30.681,43.939,32.383,7.042,5.727,10.163
1923,0.964,34.744,30.748,43.968,32.401,7.124,5.768,10.327
1924,0.938,34.23,30.67,43.968,32.404,7.083,5.81,10.286
1925,0.958,34.492,30.701,43.988,32.401,7.042,5.851,10.245
1926,0.951,34.705,30.772,43.939,32.39,6.96,5.81,10.163
1927,0.964,34.811,30.693,43.978,32.408,7.124,5.892,10.204
1928,0.974,34.133,30.697,44.056,32.394,6.96,5.81,10.245
1929,0.984,34.443,30.666,43.959,32.394,6.877,5.645,10.081
1930,1.0,34.656,30.752,43.978,32.404,6.919,5.727,10.122
1931,0.984,34.715,30.689,43.978,32.397,6.877,5.727,10.163
1932,0.994,34.25,30.681,43.968,32.397,6.837,5.81,10.204
1933,1.007,34.511,30.764,43.939,32.401,6.877,5.768,10.081
1934,1.014,34.724,30.67,44.026,32.401,6.877,5.851,10.163
1935,1.014,34.782,30.701,43.949,32.39,6.754,5.768,10.081
1936,1.02,34.153,30.729,43.949,32.397,6.754,5.687,9.916
1937,1.02,34.443,30.764,43.988,32.415,6.837,5.851,10.081
1938,1.0,34.598,30.65,43.968,32.397,6.754,5.768,10.04
1939,1.014,34.686,30.673,43.968,32.397,6.713,5.768,10.081
1940,1.017,34.53,30.705,43.959,32.397,6.631,5.768,10.081
1941,1.007,34.782,30.693,43.949,32.401,6.754,5.727,10.081
1942,1.01,34.957,30.744,43.939,32.397,6.631,5.768,10.081
1943,1.02,35.015,30.697,43.959,32.397,6.713,5.687,9.999
1944,1.017,34.143,30.67,43.978,32.411,6.877,5.892,10.122
1945,1.014,34.346,30.729,43.939,32.397,6.672,5.727,10.04
1946,1.03,34.569,30.733,43.949,32.397,6.672,5.768,10.081
1947,1.037,34.53,30.654,43.93,32.401,6.713,5.727,9.957
1948,1.046,34.298,30.689,43.959,32.408,6.754,5.768,10.122
1949,1.053,34.54,30.677,43.939,32.397,6.672,5.727,9.916
1950,1.063,34.724,30.729,43.978,32.401,6.754,5.727,9.999
1951,1.06,34.54,30.666,43.949,32.404,6.919,5.933,10.245
1952,1.063,34.143,30.681,43.92,32.387,6.754,5.768,9.999
1953,1.079,34.405,30.748,43.93,32.394,6.795,5.768,9.999
1954,1.089,34.598,30.685,43.939,32.397,6.754,5.768,9.916
1955,1.102,34.317,30.709,43.949,32.401,6.754,5.768,10.04
1956,1.096,34.221,30.709,43.93,32.39,6.713,5.687,9.916
1957,1.099,34.501,30.756,43.939,32.401,6.795,5.768,9.916
1958,1.089,34.647,30.792,43.949,32.415,6.919,5.892,10.122
1959,1.089,34.221,30.614,43.891,32.394,6.672,5.727,9.999
1960,1.096,34.356,30.67,43.949,32.404,6.795,5.768,10.04
1961,1.092,34.579,30.654,44.036,32.404,6.672,5.768,9.999
1962,1.092,34.744,30.689,43.93,32.408,6.795,5.768,10.122
1963,1.102,34.085,30.748,43.91,32.39,6.713,5.687,9.999
1964,1.096,34.288,30.705,43.949,32.404,6.754,5.81,10.04
1965,1.102,34.482,30.737,43.93,32.401,6.795,5.892,10.163
1966,1.109,34.618,30.74,43.891,32.39,6.631,5.687,9.999
1967,1.132,34.114,30.764,43.93,32.397,6.795,5.81,10.04
1968,1.122,34.327,30.662,43.93,32.404,6.631,5.727,9.999
1969,1.122,34.55,30.701,43.939,32.401,6.713,5.81,9.999
1970,1.142,34.676,30.725,43.92,32.387,6.631,5.687,9.957
1971,1.158,33.988,30.717,43.93,32.401,6.713,5.851,9.999
1972,1.148,34.211,30.756,43.92,32.404,6.837,5.933,10.122
1973,1.165,34.443,30.673,43.901,32.394,6.549,5.727,9.916
1974,1.191,34.598,30.681,43.92,32.397,6.713,5.81,10.081
1975,1.188,34.056,30.772,43.891,32.401,6.631,5.727,9.916
1976,1.191,34.327,30.725,43.93,32.401,6.631,5.81,9.999
1977,1.181,34.55,30.67,43.91,32.397,6.59,5.768,9.916
1978,1.188,34.695,30.725,43.93,32.401,6.631,5.851,9.957
1979,1.194,34.066,30.744,43.901,32.411,6.713,5.974,10.122
1980,1.175,34.298,30.764,43.881,32.39,6.549,5.768,10.04
1981,1.188,34.56,30.737,43.901,32.401,6.59,5.768,10.081
1982,1.181,34.647,30.709,43.91,32.397,6.508,5.727,9.999
1983,1.181,34.23,30.756,43.901,32.404,6.549,5.81,10.122
1984,1.171,34.492,30.709,43.901,32.394,6.426,5.727,10.04
1985,1.184,34.734,30.717,43.92,32.404,6.59,5.81,10.122
1986,1.178,34.821,30.685,43.891,32.404,6.631,5.892,10.245
1987,1.198,34.211,30.744,43.881,32.387,6.385,5.645,9.957
1988,1.221,34.521,30.811,43.91,32.397,6.467,5.81,9.999
1989,1.211,34.676,30.666,43.891,32.401,6.426,5.727,9.999
1990,1.23,34.773,30.737,43.91,32.408,6.508,5.727,10.081
1991,1.227,34.221,30.705,43.872,32.394,6.467,5.81,9.957
1992,1.237,34.492,30.76,43.91,32.401,6.508,5.768,10.081
1993,1.234,34.666,30.744,43.872,32.401,6.549,5.81,10.163
1994,1.253,34.792,30.709,43.862,32.394,6.385,5.645,9.916
1995,1.263,34.53,30.784,43.92,32.411,6.631,5.727,10.04
1996,1.247,34.744,30.796,43.862,32.401,6.59,5.727,9.999
1997,1.257,34.947,30.701,43.891,32.404,6.672,5.768,10.04
1998,1.247,34.995,30.713,43.881,32.404,6.59,5.768,9.999
1999,1.253,34.55,30.709,43.881,32.401,6.672,5.81,10.081
2000,1.234,34.792,30.8,43.852,32.387,6.59,5.768,10.122
2001,1.25,35.005,30.74,43.862,32.397,6.549,5.645,10.081
2002,1.253,35.063,30.788,43.891,32.415,6.754,5.851,10.286
2003,1.227,34.676,30.65,43.862,32.394,6.672,5.727,10.122
2004,1.237,34.966,30.689,43.881,32.394,6.631,5.768,10.245
2005,1.237,35.16,30.772,43.862,32.408,6.631,5.687,10.122
2006,1.23,35.354,30.709,43.881,32.404,6.754,5.768,10.245
2007,1.24,34.928,30.583,43.872,32.394,6.549,5.727,10.163
2008,1.257,35.17,30.693,43.872,32.401,6.631,5.768,10.081
2009,1.26,35.334,30.725,43.881,32.408,6.713,5.892,10.245
2010,1.257,35.296,30.748,43.823,32.383,6.631,5.727,10.122
2011,1.28,35.276,30.63,43.852,32.397,6.631,5.727,10.163
2012,1.267,35.499,30.725,43.852,32.401,6.631,5.727,10.163
2013,1.263,35.625,30.792,43.862,32.401,6.59,5.81,10.204
2014,1.263,35.441,30.666,43.843,32.39,6.508,5.727,10.04
2015,1.263,35.489,30.737,43.852,32.408,6.631,5.727,10.081
2016,1.257,35.722,30.733,43.852,32.397,6.631,5.851,10.245
2017,1.24,35.848,30.772,43.823,32.39,6.467,5.687,10.081
2018,1.24,35.509,30.721,43.852,32.404,6.631,5.727,10.122
2019,1.224,35.577,30.705,43.92,32.401,6.549,5.727,10.081
2020,1.214,35.819,30.701,43.843,32.401,6.549,5.768,10.204
2021,1.201,35.964,30.693,43.833,32.394,6.549,5.687,10.163
2022,1.201,35.654,30.764,43.852,32.401,6.631,5.768,10.204
2023,1.178,35.809,30.713,43.833,32.401,6.508,5.81,10.286
2024,1.171,36.061,30.685,43.833,32.397,6.508,5.687,10.04
2025,1.171,36.206,30.764,43.862,32.411,6.631,5.81,10.245
2026,1.155,36.09,30.768,43.843,32.401,6.59,5.81,10.204
2027,1.155,36.322,30.705,43.833,32.397,6.549,5.768,10.204
2028,1.161,36.565,30.725,43.843,32.397,6.508,5.727,10.04
2029,1.145,36.69,30.733,43.852,32.397,6.59,5.727,10.204
2030,1.138,35.78,30.76,43.814,32.401,6.467,5.727,10.122
2031,1.138,36.042,30.705,43.852,32.404,6.508,5.727,10.122
2032,1.132,36.245,30.737,43.862,32.408,6.672,5.933,10.245
2033,1.109,36.332,30.804,43.784,32.394,6.508,5.727,10.081
2034,1.119,36.226,30.654,43.843,32.397,6.508,5.768,10.081
2035,1.102,36.497,30.752,43.814,32.401,6.426,5.687,9.999
2036,1.092,36.69,30.78,43.823,32.404,6.508,5.81,9.999
2037,1.069,36.778,30.819,43.794,32.394,6.467,5.727,9.916
2038,1.063,36.332,30.697,43.823,32.404,6.549,5.768,9.916
2039,1.05,36.594,30.733,43.843,32.408,6.59,5.892,10.122
2040,1.033,36.768,30.737,43.784,32.387,6.385,5.645,9.999
2041,1.023,36.913,30.748,43.794,32.397,6.467,5.687,9.999
2042,1.0,36.516,30.804,43.794,32.397,6.508,5.727,10.04
2043,0.991,36.787,30.673,43.814,32.404,6.549,5.768,10.081
2044,0.977,37.0,30.733,43.794,32.397,6.467,5.687,9.999
2045,0.968,37.088,30.792,43.843,32.404,6.508,5.727,10.081
2046,0.951,36.535,30.78,43.804,32.411,6.549,5.81,10.163
2047,0.941,36.787,30.729,43.775,32.387,6.385,5.727,10.04
2048,0.958,37.029,30.764,43.814,32.401,6.467,5.727,9.999
2049,0.938,37.049,30.752,43.804,32.401,6.426,5.687,9.999
2050,0.931,36.652,30.796,43.794,32.401,6.508,5.768,10.081
2051,0.931,36.913,30.733,43.804,32.387,6.467,5.727,9.916
2052,0.925,37.107,30.74,43.814,32.401,6.508,5.81,10.081
2053,0.905,37.165,30.815,43.804,32.408,6.59,5.933,10.122
2054,0.915,36.623,30.685,43.746,32.39,6.343,5.727,9.916
2055,0.922,36.913,30.76,43.804,32.397,6.426,5.81,9.916
2056,0.908,37.078,30.748,43.794,32.397,6.385,5.727,9.834
2057,0.882,37.126,30.815,43.784,32.404,6.467,5.81,9.916
2058,0.866,36.797,30.76,43.765,32.394,6.385,5.687,9.834
2059,0.866,37.078,30.642,43.804,32.404,6.467,5.81,9.876
2060,0.846,37.214,30.721,43.804,32.404,6.508,5.933,9.999
2061,0.836,37.262,30.725,43.746,32.39,6.343,5.645,9.834
2062,0.839,36.933,30.756,43.784,32.401,6.426,5.768,9.876
2063,0.826,37.136,30.784,43.775,32.404,6.467,5.768,9.834
2064,0.81,37.32,30.725,43.784,32.404,6.426,5.851,9.876
2065,0.807,37.204,30.756,43.755,32.394,6.343,5.687,9.793
2066,0.8,36.797,30.792,43.775,32.397,6.467,5.768,9.957
2067,0.807,37.0,30.74,43.765,32.401,6.343,5.851,9.999
2068,0.803,37.175,30.681,43.755,32.387,6.302,5.604,9.834
2069,0.813,37.02,30.74,43.804,32.401,6.343,5.851,9.957
2070,0.807,36.904,30.804,43.765,32.397,6.302,5.81,9.916
2071,0.803,37.126,30.78,43.784,32.404,6.385,5.851,9.957
2072,0.81,37.281,30.776,43.765,32.397,6.343,5.768,9.834
2073,0.807,36.874,30.729,43.784,32.404,6.426,5.933,9.957
2074,0.797,36.904,30.705,43.755,32.387,6.262,5.851,9.999
2075,0.803,37.136,30.796,43.746,32.394,6.22,5.727,9.793
2076,0.816,37.31,30.764,43.794,32.404,6.262,5.851,9.916
2077,0.787,36.71,30.662,43.775,32.394,6.343,5.81,9.916
2078,0.784,36.845,30.733,43.765,32.401,6.385,5.851,9.957
2079,0.767,37.049,30.717,43.755,32.394,6.262,5.768,9.916
2080,0.777,37.223,30.839,43.755,32.401,6.385,5.892,10.081
2081,0.757,36.516,30.748,43.755,32.397,6.302,5.933,10.04
2082,0.754,36.729,30.827,43.755,32.394,6.262,5.81,9.916
2083,0.761,36.981,30.827,43.852,32.411,6.508,5.974,10.122
2084,0.734,37.059,30.717,43.746,32.394,6.385,5.892,10.163
2085,0.741,36.69,30.815,43.755,32.397,6.426,5.933,10.163
2086,0.738,36.942,30.752,43.755,32.401,6.343,5.892,10.081
2087,0.754,37.146,30.717,43.852,32.408,6.385,5.892,10.245
2088,0.751,37.262,30.721,43.755,32.397,6.302,5.81,10.122
2089,0.757,36.497,30.792,43.736,32.401,6.385,5.892,10.04
2090,0.757,36.758,30.796,43.765,32.418,6.508,6.015,10.327
2091,0.757,36.913,30.713,43.726,32.394,6.385,5.892,10.327
2092,0.764,37.068,30.768,43.765,32.397,6.426,5.933,10.368
2093,0.764,36.623,30.843,43.736,32.397,6.343,5.933,10.245
2094,0.767,36.884,30.725,43.736,32.397,6.426,5.974,10.245
2095,0.767,37.078,30.772,43.717,32.394,6.343,5.892,10.245
2096,0.777,37.194,30.776,43.755,32.401,6.343,5.974,10.286
2097,0.767,36.206,30.815,43.746,32.411,6.508,6.097,10.491
2098,0.751,36.429,30.772,43.697,32.39,6.302,6.015,10.409
2099,0.747,36.671,30.713,43.736,32.397,6.426,6.015,10.409
2100,0.744,36.778,30.748,43.717,32.397,6.302,5.892,10.368
2101,0.754,36.332,30.744,43.707,32.397,6.426,5.974,10.409
2102,0.738,36.594,30.815,43.697,32.394,6.343,5.892,10.409
2103,0.747,36.787,30.808,43.736,32.401,6.385,6.015,10.491
2104,0.734,36.874,30.756,43.746,32.411,6.508,6.179,10.574
2105,0.738,36.226,30.804,43.697,32.387,6.343,6.056,10.532
2106,0.761,36.526,30.855,43.707,32.394,6.426,6.015,10.409
2107,0.741,36.69,30.705,43.717,32.397,6.467,5.974,10.368
2108,0.757,36.768,30.764,43.717,32.401,6.549,6.015,10.409
2109,0.757,36.032,30.729,43.726,32.394,6.549,5.974,10.368
2110,0.764,36.303,30.819,43.736,32.401,6.631,6.097,10.45
2111,0.767,36.477,30.815,43.717,32.404,6.672,6.097,10.532
2112,0.767,36.545,30.815,43.688,32.387,6.426,5.892,10.286
2113,0.784,36.071,30.819,43.736,32.394,6.713,5.974,10.286
2114,0.78,36.274,30.733,43.717,32.394,6.754,5.974,10.245
2115,0.78,36.458,30.859,43.697,32.401,6.795,6.015,10.286
2116,0.777,36.506,30.733,43.707,32.397,6.795,5.974,10.081
2117,0.77,36.1,30.772,43.707,32.401,6.919,6.015,10.286
2118,0.751,36.322,30.768,43.688,32.397,6.877,6.056,10.204
2119,0.764,36.526,30.772,43.707,32.394,6.919,5.892,10.081
2120,0.761,36.652,30.804,43.736,32.411,7.001,6.056,10.204
2121,0.738,35.838,30.67,43.707,32.397,6.919,5.974,10.286
