time,ecg,bvp,gsr,rsp,skt,emg_zygo,emg_coru,emg_trap
0,1.989,34.665,26.032,32.392,24.478,4.865,5.933,13.736
1,1.996,34.781,25.822,32.411,24.481,4.865,5.974,13.736
2,1.944,34.351,25.961,32.411,24.478,4.865,5.933,13.736
3,1.872,34.462,25.775,32.421,24.478,4.865,5.974,13.695
4,1.777,34.578,25.987,32.392,24.478,4.946,5.974,13.695
5,1.649,34.684,26.001,32.411,24.481,4.866,5.974,13.776
6,1.485,34.465,25.818,32.392,24.471,4.865,5.974,13.736
7,1.327,34.607,26.0,32.411,24.474,4.906,5.933,13.776
8,1.153,34.752,25.728,32.421,24.478,4.825,5.974,13.858
9,1.012,34.849,25.921,32.411,24.478,4.824,5.933,13.981
10,0.906,34.361,26.016,32.43,24.471,4.865,5.974,14.063
11,0.821,34.5,25.775,32.44,24.481,4.865,5.933,14.024
12,0.719,34.636,25.968,32.411,24.478,4.865,5.933,14.105
13,0.611,34.704,25.775,32.411,24.481,4.906,5.933,14.39
14,0.483,34.398,25.913,32.411,24.478,4.865,5.974,14.556
15,0.381,34.548,26.005,32.411,24.474,4.906,5.974,14.76
16,0.308,34.675,25.795,32.421,24.474,4.825,5.933,14.925
17,0.21,34.714,25.929,32.43,24.478,4.865,5.933,15.049
18,0.137,34.446,25.755,32.411,24.478,4.906,5.933,15.294
19,0.091,34.568,25.96,32.411,24.474,4.865,5.933,15.54
20,0.048,34.694,25.978,32.392,24.474,4.824,5.933,15.746
21,-0.001,34.724,25.794,32.43,24.471,4.865,5.933,16.073
22,-0.008,34.379,25.968,32.421,24.474,4.865,5.892,16.361
23,0.005,34.519,25.775,32.421,24.478,4.906,5.973,16.608
24,0.024,34.636,25.87,32.43,24.481,4.825,5.933,16.895
25,0.054,34.512,26.004,32.43,24.481,4.865,5.933,16.979
26,0.087,34.482,25.744,32.43,24.478,4.824,5.933,17.183
27,0.126,34.607,25.948,32.421,24.474,4.865,5.974,17.226
28,0.166,34.733,25.97,32.44,24.478,4.865,5.974,17.349
29,0.195,34.35,25.826,32.44,24.471,4.865,5.974,17.553
30,0.212,34.471,26.023,32.44,24.474,4.824,5.974,17.799
31,0.257,34.597,25.779,32.488,24.474,4.743,5.974,18.005
32,0.294,34.675,25.941,32.441,24.471,4.823,6.015,18.291
33,0.343,34.283,26.013,32.431,24.471,4.824,5.974,18.498
34,0.415,34.442,25.869,32.421,24.474,4.865,5.974,18.581
35,0.49,34.568,25.973,32.45,24.478,4.824,5.974,18.907
36,0.563,34.665,25.744,32.44,24.478,4.783,5.974,19.114
37,0.619,34.292,25.925,32.45,24.478,4.864,6.015,19.36
38,0.671,34.471,25.973,32.44,24.485,4.865,6.096,19.484
39,0.701,34.597,25.869,32.431,24.478,4.784,6.097,19.526
40,0.727,34.665,26.008,32.43,24.478,4.824,6.016,19.486
41,0.747,34.283,25.76,32.45,24.471,4.865,6.015,19.404
42,0.764,34.442,25.921,32.44,24.471,4.824,6.056,19.281
43,0.777,34.568,26.032,32.44,24.478,4.824,6.015,19.199
44,0.777,34.617,25.814,32.45,24.474,4.865,6.056,19.117
45,0.79,34.397,25.984,32.45,24.474,4.906,6.137,18.994
46,0.787,34.558,25.81,32.45,24.481,4.825,6.098,18.748
47,0.787,34.665,25.906,32.45,24.474,4.824,6.056,18.624
48,0.79,34.724,25.997,32.45,24.474,4.905,6.137,18.501
49,0.79,34.494,25.822,32.45,24.478,4.865,6.057,18.215
50,0.793,34.626,26.007,32.469,24.481,4.865,6.137,18.009
51,0.797,34.733,25.74,32.498,24.474,4.865,6.138,17.804
52,0.8,34.743,25.874,32.45,24.474,4.824,6.179,17.598
53,0.8,34.283,26.035,32.459,24.474,4.824,6.139,17.474
54,0.803,34.422,25.818,32.46,24.478,4.824,6.26,17.351
55,0.803,34.539,26.007,32.46,24.478,4.865,6.18,17.228
56,0.807,34.358,25.736,32.469,24.478,4.906,6.22,17.023
57,0.813,34.414,25.89,32.469,24.478,4.865,6.139,16.94
58,0.816,34.568,25.977,32.46,24.478,4.906,6.219,16.736
59,0.807,34.656,25.814,32.46,24.481,4.825,6.139,16.653
60,0.82,34.254,25.992,32.46,24.478,4.905,6.138,16.611
61,0.807,34.403,25.736,32.431,24.478,4.865,6.179,16.529
62,0.813,34.558,25.929,32.459,24.481,4.906,6.261,16.406
63,0.81,34.627,26.001,32.44,24.481,4.865,6.18,16.405
64,0.81,34.234,25.791,32.459,24.478,4.784,6.22,16.283
65,0.807,34.384,25.972,32.46,24.471,4.864,6.261,16.241
66,0.81,34.519,25.869,32.469,24.474,4.824,6.18,16.2
67,0.81,34.578,25.856,32.46,24.478,4.824,6.22,15.997
68,0.807,34.253,26.0,32.479,24.478,4.824,6.261,15.954
69,0.81,34.393,25.791,32.479,24.478,4.865,6.221,15.791
70,0.813,34.52,25.968,32.469,24.485,4.865,6.22,15.627
71,0.816,34.607,25.966,32.46,24.478,4.865,6.261,15.422
72,0.826,34.244,25.806,32.479,24.478,4.824,6.221,15.298
73,0.826,34.374,26.023,32.469,24.478,4.824,6.261,15.174
74,0.83,34.5,25.771,32.469,24.478,4.865,6.262,15.092
75,0.836,34.54,25.968,32.479,24.471,4.824,6.343,15.01
76,0.833,34.262,25.794,32.469,24.471,4.865,6.384,14.846
77,0.839,34.422,25.894,32.479,24.478,4.824,6.303,14.845
78,0.839,34.539,25.778,32.479,24.478,4.824,6.302,14.641
79,0.833,34.54,25.902,32.479,24.478,4.824,6.343,14.517
80,0.839,34.32,25.965,32.479,24.474,4.783,6.303,14.475
81,0.83,34.48,25.755,32.479,24.478,4.824,6.302,14.353
82,0.843,34.588,25.937,32.488,24.471,4.824,6.343,14.352
83,0.849,34.272,26.052,32.498,24.481,4.783,6.343,14.311
84,0.843,34.25,25.834,32.498,24.474,4.824,6.303,14.27
85,0.843,34.374,25.996,32.498,24.474,4.824,6.302,14.229
86,0.846,34.51,25.806,32.498,24.478,4.824,6.302,14.228
87,0.846,34.31,25.871,32.489,24.474,4.824,6.343,14.188
88,0.836,34.442,26.0,32.508,24.481,4.783,6.303,14.065
89,0.833,34.558,25.775,32.479,24.478,4.824,6.343,14.105
90,0.833,34.646,25.995,32.488,24.485,4.743,6.343,14.065
91,0.836,34.234,25.912,32.489,24.474,4.742,6.303,13.983
92,0.836,34.365,25.821,32.489,24.474,4.823,6.302,13.982
93,0.836,34.491,25.976,32.489,24.478,4.743,6.302,13.942
94,0.852,34.549,25.751,32.517,24.478,4.823,6.262,13.941
95,0.849,34.138,25.925,32.498,24.471,4.865,6.302,13.86
96,0.849,34.306,25.997,32.508,24.474,4.865,6.302,13.859
97,0.849,34.413,25.795,32.498,24.474,4.784,6.302,13.818
98,0.856,34.51,25.98,32.489,24.471,4.824,6.302,13.696
99,0.859,34.281,25.755,32.489,24.478,4.824,6.221,13.735
100,0.866,34.432,25.956,32.508,24.467,4.865,6.18,13.655
101,0.859,34.578,25.985,32.517,24.474,4.865,6.22,13.694
102,0.856,34.617,25.873,32.518,24.481,4.824,6.302,13.735
103,0.856,34.157,26.008,32.508,24.481,4.824,6.262,13.776
104,0.853,34.306,25.74,32.508,24.474,4.865,6.262,13.777
105,0.849,34.432,25.952,32.508,24.478,4.743,6.302,13.818
106,0.856,34.472,25.989,32.537,24.474,4.864,6.221,13.818
107,0.853,34.271,25.822,32.508,24.478,4.743,6.139,13.777
108,0.853,34.403,25.957,32.527,24.471,4.823,6.219,13.858
109,0.856,34.539,25.747,32.527,24.471,4.743,6.22,13.778
110,0.849,34.416,25.956,32.508,24.478,4.783,6.261,13.696
111,0.859,34.251,25.985,32.527,24.474,4.824,6.221,13.654
112,0.859,34.384,25.833,32.527,24.478,4.783,6.22,13.613
113,0.862,34.5,26.015,32.527,24.474,4.742,6.22,13.572
114,0.866,34.204,25.756,32.527,24.478,4.864,6.22,13.612
115,0.872,34.307,25.937,32.518,24.481,4.824,6.261,13.613
116,0.866,34.423,25.962,32.518,24.478,4.824,6.18,13.572
117,0.882,34.549,25.767,32.537,24.481,4.865,6.139,13.49
118,0.892,34.099,25.964,32.537,24.481,4.784,6.179,13.449
119,0.889,34.248,25.775,32.537,24.481,4.783,6.22,13.448
120,0.899,34.365,25.89,32.527,24.478,4.824,6.22,13.408
121,0.889,34.471,25.985,32.537,24.474,4.783,6.22,13.448
122,0.885,34.194,25.865,32.537,24.478,4.824,6.139,13.448
123,0.892,34.355,26.035,32.556,24.478,4.783,6.179,13.448
124,0.882,34.471,25.775,32.537,24.474,4.824,6.179,13.489
125,0.882,34.549,25.948,32.547,24.474,4.783,6.22,13.449
126,0.879,34.224,25.958,32.556,24.478,4.783,6.22,13.448
127,0.882,34.393,25.857,32.556,24.474,4.783,6.18,13.448
128,0.872,34.52,25.981,32.556,24.474,4.864,6.22,13.53
129,0.885,34.569,25.798,32.556,24.478,4.784,6.261,13.408
130,0.876,34.176,25.949,32.556,24.474,4.864,6.139,13.407
131,0.876,34.335,25.962,32.547,24.474,4.824,6.179,13.448
132,0.879,34.442,25.818,32.556,24.474,4.824,6.139,13.326
133,0.885,34.482,26.035,32.547,24.478,4.824,6.179,13.366
134,0.889,34.194,25.795,32.556,24.471,4.824,6.139,13.285
135,0.892,34.355,25.992,32.566,24.481,4.783,6.179,13.203
136,0.895,34.471,25.994,32.566,24.474,4.783,6.098,13.324
137,0.902,34.76,25.783,32.566,24.478,4.824,6.178,13.284
138,0.905,34.111,25.976,32.585,24.478,4.824,6.098,13.243
139,0.905,34.248,25.787,32.557,24.474,4.865,6.138,13.202
140,0.908,34.374,25.921,32.566,24.471,4.784,6.138,13.161
141,0.905,34.241,25.958,32.576,24.474,4.824,6.098,13.161
142,0.905,34.326,25.845,32.595,24.474,4.824,6.178,13.242
143,0.925,34.461,26.035,32.585,24.481,4.905,6.179,13.284
144,0.912,34.559,25.744,32.585,24.478,4.825,6.139,13.325
145,0.915,34.032,25.925,32.576,24.481,4.743,6.179,13.366
146,0.918,34.152,25.806,32.556,24.474,4.823,6.179,13.488
147,0.912,34.306,25.898,32.585,24.474,4.865,6.179,13.449
148,0.905,34.404,25.981,32.585,24.478,4.824,6.22,13.448
149,0.908,34.107,25.802,32.585,24.471,4.743,6.18,13.408
150,0.908,34.248,25.972,32.585,24.474,4.783,6.139,13.407
151,0.925,34.384,25.947,32.585,24.471,4.783,6.179,13.326
152,0.925,34.462,25.868,32.595,24.478,4.783,6.22,13.325
153,0.925,34.156,26.031,32.585,24.478,4.783,6.18,13.203
154,0.922,34.316,25.795,32.595,24.478,4.864,6.179,13.202
155,0.925,34.433,25.992,32.585,24.474,4.824,6.139,13.243
156,0.935,34.491,25.849,32.605,24.474,4.824,6.138,13.202
157,0.935,34.07,25.848,32.595,24.481,4.824,6.219,13.161
158,0.948,34.238,25.973,32.595,24.474,4.824,6.22,13.12
159,0.948,34.355,25.771,32.614,24.485,4.946,6.22,13.039
160,0.941,34.404,25.909,32.605,24.478,4.866,6.18,13.16
161,0.948,34.117,25.833,32.614,24.478,4.824,6.22,13.12
162,0.948,34.258,25.832,32.605,24.474,4.865,6.18,13.201
163,0.958,34.384,26.035,32.595,24.481,4.784,6.179,13.283
164,0.951,34.414,25.775,32.595,24.474,4.824,6.22,13.284
165,0.948,34.194,25.917,32.614,24.478,4.824,6.139,13.325
166,0.948,34.326,26.005,32.624,24.474,4.783,6.179,13.447
167,0.948,34.442,25.841,32.605,24.478,4.824,6.139,13.448
168,0.961,34.252,25.992,32.624,24.478,4.865,6.138,13.367
169,0.958,34.144,25.759,32.605,24.478,4.784,6.179,13.407
170,0.958,34.297,25.94,32.633,24.478,4.824,6.22,13.367
171,0.961,34.413,25.872,32.643,24.481,4.783,6.139,13.407
172,0.971,34.021,25.844,32.624,24.471,4.783,6.219,13.326
173,0.974,34.103,25.969,32.624,24.481,4.783,6.098,13.325
174,0.977,34.248,25.822,32.624,24.481,4.824,6.138,13.244
175,0.984,34.355,25.972,32.634,24.474,4.865,6.219,13.365
176,0.987,34.059,25.74,32.643,24.478,4.824,6.098,13.285
177,0.991,34.19,25.893,32.643,24.478,4.783,6.178,13.365
178,1.0,34.335,25.731,32.634,24.471,4.783,6.139,13.285
179,1.004,34.433,25.971,32.634,24.474,4.824,6.138,13.365
180,1.007,33.954,25.954,32.634,24.481,4.783,6.179,13.366
181,1.02,34.132,25.814,32.634,24.481,4.864,6.139,13.204
182,1.02,34.258,25.988,32.643,24.474,4.824,6.179,13.365
183,1.017,34.326,25.795,32.663,24.474,4.865,6.179,13.488
184,1.014,34.011,25.917,32.644,24.474,4.784,6.098,13.49
185,1.027,34.151,25.989,32.653,24.474,4.864,6.178,13.49
186,1.03,34.287,25.763,32.644,24.481,4.824,6.098,13.571
187,1.04,34.355,25.937,32.643,24.478,4.865,6.178,13.653
188,1.05,34.136,25.72,32.653,24.481,4.824,6.139,13.694
189,1.05,34.287,25.964,32.663,24.471,4.824,6.179,13.654
190,1.056,34.413,25.962,32.653,24.474,4.824,6.139,13.694
191,1.063,34.443,25.806,32.663,24.474,4.824,6.138,13.573
192,1.063,34.05,25.984,32.653,24.481,4.783,6.138,13.653
193,1.073,34.19,25.779,32.672,24.478,4.742,6.098,13.613
194,1.076,34.307,25.909,32.672,24.478,4.783,6.097,13.694
195,1.079,34.394,25.977,32.663,24.471,4.824,6.097,13.613
196,1.089,34.222,25.849,32.672,24.478,4.865,6.138,13.653
197,1.102,34.364,25.938,32.682,24.471,4.865,6.057,13.654
198,1.106,34.471,25.712,32.663,24.485,4.784,6.056,13.572
199,1.106,34.012,25.963,32.663,24.474,4.824,6.097,13.612
200,1.102,34.065,25.939,32.653,24.478,4.824,6.138,13.572
201,1.115,34.2,25.767,32.663,24.478,4.743,6.016,13.571
202,1.122,34.307,25.98,32.682,24.485,4.783,6.137,13.531
203,1.129,34.02,25.962,32.673,24.481,4.824,6.179,13.612
204,1.138,34.161,25.9,32.692,24.478,4.783,6.098,13.694
205,1.142,34.287,25.993,32.682,24.481,4.824,6.097,13.695
206,1.145,34.384,25.744,32.663,24.478,4.824,6.138,13.735
207,1.155,33.973,25.858,32.692,24.481,4.783,6.016,13.736
208,1.158,34.122,25.938,32.692,24.474,4.742,6.015,13.695
209,1.165,34.258,25.868,32.682,24.474,4.742,6.096,13.695
210,1.168,34.346,25.903,32.673,24.478,4.823,6.056,13.695
211,1.181,34.059,25.751,32.682,24.478,4.783,6.097,13.573
212,1.184,34.19,26.007,32.682,24.474,4.783,6.056,13.612
213,1.201,34.307,25.799,32.673,24.478,4.742,6.056,13.531
214,1.204,34.365,25.953,32.701,24.474,4.823,6.137,13.612
215,1.211,34.097,25.997,32.701,24.478,4.743,6.057,13.572
216,1.217,34.238,25.822,32.701,24.474,4.823,6.056,13.571
217,1.221,34.374,25.961,32.701,24.481,4.824,6.137,13.571
218,1.23,34.404,25.74,32.673,24.481,4.783,6.098,13.571
219,1.224,34.04,25.991,32.682,24.481,4.742,6.016,13.531
220,1.24,34.18,25.88,32.711,24.478,4.823,6.056,13.531
221,1.244,34.316,25.782,32.702,24.478,4.743,6.056,13.653
222,1.253,34.423,26.023,32.692,24.478,4.783,6.056,13.735
223,1.263,34.108,25.783,32.692,24.474,4.783,6.056,13.776
224,1.267,34.267,25.933,32.692,24.474,4.783,6.056,13.818
225,1.263,34.365,25.977,32.692,24.474,4.742,6.097,13.94
226,1.267,34.117,25.763,32.701,24.474,4.742,6.056,13.982
227,1.27,34.076,25.913,32.701,24.478,4.783,6.137,13.942
228,1.28,34.248,25.72,32.721,24.481,4.783,6.016,13.941
229,1.286,34.326,25.921,32.721,24.478,4.824,6.096,13.941
230,1.283,34.164,25.958,32.721,24.478,4.783,6.016,13.941
231,1.28,34.278,25.736,32.721,24.474,4.742,6.056,13.941
232,1.299,34.422,25.936,32.711,24.481,4.742,6.097,13.982
233,1.299,34.482,26.028,32.711,24.474,4.742,6.056,13.942
234,1.306,34.223,25.889,32.721,24.481,4.783,6.015,13.9
235,1.303,34.393,25.977,32.721,24.481,4.824,6.137,13.9
236,1.319,34.5,25.744,32.721,24.478,4.783,6.057,13.9
237,1.322,34.617,25.94,32.74,24.474,4.864,6.097,13.859
238,1.335,34.119,25.685,32.74,24.478,4.784,6.097,13.778
239,1.339,34.277,25.944,32.721,24.481,4.742,6.138,13.696
240,1.339,34.422,25.915,32.74,24.474,4.661,6.179,13.695
241,1.345,34.482,25.825,32.74,24.474,4.782,6.139,13.654
242,1.345,34.444,26.004,32.74,24.471,4.783,6.138,13.654
243,1.355,34.578,25.783,32.721,24.478,4.783,6.138,13.735
244,1.349,34.723,25.91,32.73,24.474,4.783,6.179,13.776
245,1.358,34.772,25.962,32.75,24.474,4.783,6.139,13.777
246,1.362,34.427,25.822,32.731,24.478,4.742,6.138,13.818
247,1.368,34.558,25.922,32.74,24.474,4.701,6.138,13.737
248,1.365,34.703,25.856,32.74,24.481,4.701,6.179,13.695
249,1.368,34.724,25.91,32.74,24.478,4.782,6.179,13.695
250,1.372,34.772,25.985,32.74,24.474,4.742,6.139,13.613
251,1.375,34.897,25.779,32.74,24.474,4.783,6.098,13.572
252,1.382,35.023,25.984,32.731,24.481,4.742,6.138,13.409
253,1.369,34.89,25.826,32.74,24.474,4.823,6.138,13.448
254,1.381,34.735,25.887,32.74,24.474,4.783,6.179,13.489
255,1.378,34.887,25.977,32.74,24.474,4.783,6.139,13.408
256,1.369,35.004,25.787,32.769,24.474,4.824,6.179,13.489
257,1.378,34.938,25.894,32.76,24.474,4.702,6.098,13.408
258,1.385,35.052,25.704,32.76,24.481,4.782,6.138,13.285
259,1.388,35.188,25.963,32.75,24.478,4.742,6.138,13.284
260,1.385,35.275,25.935,32.74,24.478,4.701,6.138,13.365
261,1.372,35.132,25.81,32.75,24.478,4.782,6.057,13.366
262,1.368,35.275,26.015,32.759,24.478,4.702,6.137,13.407
263,1.372,35.401,25.76,32.74,24.478,4.782,6.098,13.489
264,1.355,35.489,25.855,32.74,24.474,4.742,6.138,13.449
265,1.352,35.461,26.012,32.759,24.478,4.742,6.138,13.53
266,1.339,35.623,25.748,32.76,24.478,4.742,6.138,13.531
267,1.336,35.73,25.862,32.769,24.485,4.742,6.098,13.531
268,1.319,35.808,25.981,32.76,24.485,4.783,6.138,13.571
269,1.316,35.569,25.865,32.769,24.478,4.702,6.138,13.531
270,1.316,35.72,25.93,32.779,24.478,4.742,6.138,13.531
271,1.303,35.856,25.751,32.76,24.485,4.742,6.098,13.408
272,1.299,35.877,25.937,32.769,24.478,4.742,6.097,13.448
273,1.299,35.858,26.001,32.779,24.471,4.742,6.097,13.367
274,1.29,35.973,25.834,32.769,24.478,4.783,6.097,13.407
275,1.28,36.108,25.984,32.779,24.474,4.742,6.138,13.407
276,1.27,36.148,25.72,32.779,24.478,4.742,6.098,13.367
277,1.25,35.908,25.823,32.798,24.474,4.783,6.138,13.407
278,1.253,36.021,25.957,32.77,24.474,4.783,6.138,13.285
279,1.24,36.137,25.794,32.76,24.481,4.783,6.098,13.365
280,1.234,36.464,25.906,32.779,24.474,4.783,6.138,13.204
281,1.208,36.381,25.794,32.779,24.474,4.783,6.138,13.283
282,1.194,36.515,25.89,32.779,24.474,4.824,6.138,13.203
283,1.175,36.612,26.051,32.769,24.474,4.743,6.179,13.161
284,1.165,36.134,25.787,32.769,24.474,4.742,6.098,13.161
285,1.152,36.157,25.972,32.779,24.478,4.783,6.178,13.202
286,1.148,36.292,25.978,32.789,24.478,4.742,6.139,13.243
287,1.135,36.389,25.748,32.779,24.485,4.701,6.138,13.121
288,1.119,36.333,25.956,32.789,24.474,4.701,6.138,13.16
289,1.102,36.466,25.79,32.798,24.485,4.742,6.138,13.12
290,1.089,36.583,25.867,32.808,24.478,4.823,6.138,13.039
291,1.076,36.661,25.961,32.798,24.478,4.743,6.138,13.038
292,1.066,36.355,25.822,32.789,24.474,4.742,6.138,12.997
293,1.053,36.486,26.023,32.789,24.474,4.742,6.179,12.956
294,1.047,36.602,25.744,32.789,24.478,4.783,6.139,12.956
295,1.037,36.69,25.866,32.789,24.474,4.864,6.179,13.037
296,1.024,36.451,25.992,32.808,24.478,4.743,6.22,13.038
297,1.023,36.583,25.775,32.818,24.478,4.701,6.18,12.997
298,1.004,36.709,25.945,32.808,24.474,4.742,6.139,12.915
299,0.997,36.729,25.775,32.789,24.474,4.742,6.138,12.874
300,0.991,36.614,25.933,32.856,24.474,4.742,6.179,12.873
301,0.974,36.766,25.962,32.799,24.481,4.823,6.139,12.914
302,0.955,36.883,25.829,32.808,24.481,4.824,6.179,12.955
303,0.951,36.913,26.015,32.808,24.474,4.824,6.22,13.037
304,0.938,36.693,25.705,32.818,24.481,4.783,6.18,13.038
305,0.915,36.806,25.909,32.808,24.474,4.742,6.179,13.119
306,0.912,36.941,25.981,32.837,24.474,4.823,6.22,13.12
307,0.902,36.942,25.83,32.799,24.478,4.743,6.18,13.201
308,0.889,36.751,25.98,32.837,24.474,4.742,6.22,13.202
309,0.885,36.873,25.767,32.808,24.478,4.783,6.18,13.202
310,0.876,36.98,25.874,32.827,24.485,4.824,6.179,13.121
311,0.872,36.837,25.942,32.818,24.468,4.824,6.261,13.12
312,0.869,36.788,25.853,32.818,24.474,4.824,6.262,13.12
313,0.859,36.922,25.984,32.827,24.478,4.743,6.221,13.12
314,0.853,37.019,25.712,32.827,24.478,4.701,6.22,13.242
315,0.849,36.675,25.905,32.818,24.478,4.742,6.18,13.202
316,0.84,36.796,25.985,32.837,24.481,4.742,6.22,13.243
317,0.833,36.912,25.736,32.818,24.478,4.823,6.261,13.202
318,0.833,36.99,25.96,32.818,24.478,4.783,6.262,13.121
319,0.833,36.684,25.79,32.827,24.478,4.824,6.221,13.16
320,0.833,36.834,25.878,32.837,24.471,4.743,6.139,13.161
321,0.813,36.98,25.887,32.837,24.474,4.742,6.219,13.161
322,0.813,37.048,25.864,32.827,24.478,4.783,6.261,13.242
323,0.8,36.646,26.0,32.846,24.481,4.742,6.139,13.284
324,0.803,36.767,25.748,32.828,24.478,4.783,6.179,13.365
325,0.79,36.921,25.917,32.837,24.474,4.783,6.22,13.366
326,0.8,36.98,25.977,32.837,24.474,4.783,6.139,13.366
327,0.797,36.693,25.759,32.856,24.474,4.783,6.138,13.366
328,0.797,36.834,25.991,32.847,24.474,4.702,6.138,13.447
329,0.787,36.941,25.775,32.847,24.478,4.823,6.138,13.367
330,0.784,36.99,25.87,32.828,24.478,4.743,6.138,13.407
331,0.787,36.722,25.961,32.837,24.474,4.742,6.179,13.367
332,0.777,36.854,25.81,32.837,24.478,4.742,6.139,13.285
333,0.78,36.941,26.031,32.837,24.478,4.742,6.098,13.365
334,0.784,36.981,25.744,32.875,24.474,4.783,6.178,13.407
335,0.784,36.665,25.862,32.837,24.474,4.824,6.098,13.367
336,0.771,36.786,25.981,32.847,24.474,4.743,6.056,13.407
337,0.774,36.931,25.857,32.856,24.478,4.783,6.097,13.367
338,0.771,36.875,25.945,32.847,24.471,4.864,6.138,13.325
339,0.774,36.692,25.857,32.856,24.478,4.784,6.138,13.366
340,0.767,36.834,25.973,32.885,24.478,4.742,6.138,13.366
341,0.764,36.932,25.783,32.857,24.478,4.783,6.057,13.366
342,0.757,36.559,25.898,32.866,24.478,4.742,6.056,13.529
343,0.757,36.622,25.993,32.856,24.474,4.823,6.056,13.531
344,0.761,36.747,25.705,32.856,24.474,4.824,6.056,13.734
345,0.751,36.835,25.909,32.876,24.478,4.783,6.056,13.858
346,0.738,36.577,25.985,32.866,24.485,4.824,6.137,13.9
347,0.751,36.747,25.689,32.876,24.478,4.824,6.057,13.9
348,0.748,36.844,25.967,32.876,24.474,4.865,6.056,13.941
349,0.747,36.913,25.95,32.857,24.471,4.824,6.056,14.022
350,0.738,36.415,25.814,32.895,24.478,4.783,6.056,13.942
351,0.751,36.563,25.976,32.876,24.478,4.783,6.056,13.941
352,0.748,36.68,25.767,32.866,24.474,4.824,5.975,13.941
353,0.747,36.748,25.948,32.856,24.481,4.743,6.096,13.941
354,0.751,36.432,25.899,32.876,24.478,4.783,6.016,13.941
355,0.754,36.602,25.805,32.885,24.474,4.864,6.015,13.9
356,0.757,36.69,25.972,32.876,24.481,4.784,6.056,13.9
357,0.757,36.777,25.627,32.904,24.478,4.783,6.015,13.859
358,0.767,36.394,25.877,32.876,24.474,4.824,6.015,13.778
359,0.767,36.534,25.981,32.885,24.481,4.743,6.015,13.736
360,0.77,36.66,25.798,32.885,24.474,4.783,6.015,13.776
361,0.757,36.69,25.953,32.885,24.481,4.742,6.015,13.736
362,0.757,36.47,25.763,32.895,24.474,4.783,6.015,13.695
363,0.761,36.612,25.96,32.886,24.474,4.864,5.974,13.817
364,0.754,36.728,25.97,32.885,24.471,4.743,6.015,13.859
365,0.744,37.036,25.837,32.876,24.481,4.823,6.056,13.94
366,0.744,36.368,25.976,32.876,24.474,4.824,6.056,13.9
367,0.744,36.486,25.642,32.895,24.478,4.783,6.056,13.9
368,0.747,36.612,25.912,32.886,24.474,4.783,6.015,13.941
369,0.747,36.268,26.02,32.895,24.478,4.824,6.056,13.9
370,0.744,36.245,25.767,32.895,24.474,4.743,6.137,13.859
371,0.741,36.398,25.944,32.905,24.478,4.783,6.057,13.818
372,0.751,36.496,25.743,32.895,24.478,4.824,6.056,13.737
373,0.738,36.18,25.901,32.895,24.474,4.743,6.137,13.695
374,0.751,36.321,25.977,32.905,24.481,4.864,6.138,13.776
375,0.748,36.437,25.865,32.895,24.474,4.824,6.098,13.736
376,0.751,36.525,26.0,32.914,24.471,4.824,6.138,13.695
377,0.757,36.037,25.748,32.905,24.478,4.824,6.179,13.654
378,0.757,36.176,25.925,32.895,24.478,4.824,6.139,13.572
379,0.751,36.292,25.739,32.895,24.478,4.783,6.138,13.571
380,0.757,36.389,25.878,32.895,24.474,4.824,6.138,13.571
381,0.757,36.15,25.946,32.905,24.478,4.783,6.098,13.571
382,0.754,36.301,25.853,32.895,24.485,4.742,6.178,13.694
383,0.754,36.399,25.992,32.914,24.478,4.823,6.139,13.695
384,0.751,36.486,25.736,32.914,24.471,4.743,6.179,13.613
385,0.748,35.988,25.936,32.895,24.481,4.823,6.139,13.694
386,0.751,36.137,25.946,32.905,24.478,4.824,6.138,13.735
387,0.748,36.253,25.736,32.914,24.481,4.865,6.179,13.695
388,0.747,36.322,25.948,32.905,24.474,4.824,6.179,13.695
389,0.751,36.092,25.779,32.905,24.471,4.824,6.179,13.613
390,0.754,36.224,25.843,32.924,24.478,4.824,6.179,13.613
391,0.757,36.341,25.957,32.905,24.478,4.865,6.261,13.572
392,0.757,36.361,25.786,32.914,24.474,4.824,6.262,13.49
393,0.761,35.863,26.015,32.914,24.481,4.824,6.221,13.449
394,0.761,35.992,25.74,32.914,24.478,4.865,6.22,13.448
395,0.764,36.137,25.909,32.934,24.478,4.824,6.261,13.489
396,0.761,36.004,25.969,32.924,24.474,4.824,6.262,13.449
397,0.754,35.936,25.826,33.001,24.474,4.905,6.262,13.448
398,0.757,36.06,25.957,32.915,24.478,4.865,6.302,13.367
399,0.761,36.157,25.79,32.924,24.481,4.865,6.343,13.285
400,0.767,35.832,25.894,32.982,24.478,4.865,6.262,13.203
401,0.761,35.934,25.961,32.925,24.478,4.906,6.262,13.202
402,0.757,36.06,25.779,32.915,24.474,4.865,6.302,13.202
403,0.761,36.147,25.949,32.934,24.474,4.865,6.302,13.365
404,0.757,35.784,25.876,32.915,24.474,4.865,6.384,13.407
405,0.764,35.933,25.84,32.914,24.481,4.865,6.344,13.448
406,0.767,36.05,25.992,32.934,24.474,4.824,6.303,13.448
407,0.754,36.147,25.724,32.943,24.478,4.905,6.302,13.489
408,0.761,35.697,25.893,32.934,24.467,4.865,6.343,13.408
409,0.761,35.827,26.0,32.924,24.478,4.906,6.303,13.367
410,0.754,35.982,25.822,32.982,24.474,4.825,6.302,13.366
411,0.748,36.031,25.961,32.934,24.481,4.824,6.343,13.366
412,0.764,36.137,25.755,32.943,24.478,4.865,6.303,13.285
413,0.754,36.292,25.866,32.924,24.478,4.906,6.343,13.243
414,0.748,36.408,25.969,32.934,24.478,4.906,6.384,13.243
415,0.751,36.467,25.794,32.943,24.474,4.947,6.344,13.243
416,0.751,35.461,25.968,32.943,24.478,4.947,6.343,13.121
417,0.757,35.594,25.712,32.943,24.474,4.907,6.343,13.201
418,0.751,35.73,25.893,32.924,24.485,4.906,6.303,13.121
419,0.761,35.77,26.008,32.953,24.474,4.947,6.302,13.16
420,0.764,35.626,25.783,32.915,24.478,4.988,6.302,13.12
421,0.761,35.778,25.949,32.953,24.478,4.907,6.302,13.201
422,0.761,35.885,26.017,32.934,24.474,4.987,6.302,13.283
423,0.757,36.011,25.838,32.924,24.478,4.907,6.262,13.365
424,0.751,35.744,25.941,32.953,24.474,5.028,6.262,13.447
425,0.751,35.885,25.732,32.934,24.478,4.907,6.262,13.57
426,0.744,35.992,25.901,32.924,24.474,4.906,6.343,13.612
427,0.747,35.61,25.985,32.953,24.478,4.987,6.303,13.613
428,0.747,35.663,25.791,32.953,24.471,4.948,6.302,13.613
429,0.744,35.76,25.999,32.924,24.478,4.988,6.343,13.613
430,0.747,35.876,25.732,32.934,24.471,4.988,6.221,13.572
431,0.754,35.417,25.893,32.943,24.478,4.948,6.22,13.653
432,0.748,35.546,26.012,32.953,24.471,4.947,6.261,13.654
433,0.744,35.672,25.834,32.944,24.478,4.988,6.262,13.694
434,0.76,35.76,25.996,32.943,24.474,5.029,6.221,13.573
435,0.748,35.454,25.783,32.934,24.474,4.907,6.22,13.694
436,0.757,35.614,25.968,32.943,24.474,4.947,6.261,13.654
437,0.754,35.74,25.779,32.943,24.478,4.947,6.262,13.654
438,0.757,35.818,25.863,32.934,24.481,4.988,6.262,13.532
439,0.767,35.435,26.024,32.963,24.481,4.988,6.302,13.449
440,0.764,35.585,25.768,33.03,24.478,4.907,6.262,13.367
441,0.754,35.701,25.933,32.935,24.481,4.906,6.343,13.366
442,0.754,35.76,25.763,32.943,24.478,4.947,6.343,13.407
443,0.754,35.396,25.937,32.943,24.474,4.907,6.343,13.285
444,0.754,35.527,25.946,32.953,24.481,4.987,6.343,13.406
445,0.754,35.662,25.775,32.944,24.478,5.07,6.384,13.407
446,0.754,35.702,25.96,32.943,24.471,4.948,6.385,13.448
447,0.764,35.434,25.677,32.972,24.478,5.029,6.466,13.448
448,0.767,35.594,25.905,32.944,24.485,5.03,6.467,13.489
449,0.761,35.701,26.028,32.934,24.474,5.07,6.467,13.408
450,0.757,35.702,25.705,32.972,24.471,4.989,6.548,13.489
451,0.761,35.444,25.92,32.953,24.478,5.029,6.468,13.408
452,0.757,35.594,25.958,32.963,24.474,5.03,6.426,13.448
453,0.744,35.663,25.861,32.944,24.481,5.03,6.466,13.448
454,0.754,35.462,25.988,32.953,24.471,4.989,6.467,13.53
455,0.748,35.422,25.716,32.972,24.478,5.07,6.629,13.571
456,0.754,35.585,25.882,32.973,24.478,5.03,6.55,13.531
457,0.754,35.682,25.977,32.963,24.474,4.989,6.508,13.49
458,0.751,35.175,25.775,32.944,24.471,4.988,6.508,13.449
459,0.757,35.266,25.964,32.953,24.474,5.029,6.549,13.489
460,0.748,35.449,25.697,32.972,24.474,4.989,6.508,13.408
461,0.744,35.527,25.85,32.953,24.478,4.988,6.549,13.367
462,0.744,35.24,26.035,32.953,24.478,5.029,6.549,13.447
463,0.744,35.372,25.775,32.982,24.474,4.989,6.549,13.53
464,0.744,35.517,25.937,32.953,24.478,4.988,6.508,13.571
465,0.741,35.595,25.954,32.953,24.478,4.988,6.589,13.571
466,0.738,35.164,25.821,32.963,24.478,5.029,6.549,13.694
467,0.734,35.323,25.972,32.963,24.481,5.07,6.468,13.695
468,0.734,35.469,25.708,32.972,24.474,5.03,6.548,13.776
469,0.734,35.499,25.924,32.982,24.474,5.03,6.59,13.655
470,0.734,35.154,25.962,32.963,24.481,4.989,6.549,13.694
471,0.738,35.294,25.743,32.982,24.478,5.029,6.59,13.654
472,0.734,35.43,25.987,32.973,24.478,5.03,6.59,13.532
473,0.741,35.479,25.767,32.963,24.478,4.989,6.59,13.531
474,0.741,35.307,25.87,32.972,24.478,5.029,6.631,13.612
475,0.738,35.468,25.942,32.973,24.485,5.111,6.631,13.531
476,0.731,35.585,25.79,32.963,24.478,5.071,6.55,13.571
477,0.738,35.605,25.972,32.963,24.478,5.152,6.59,13.531
478,0.728,35.749,25.701,32.963,24.485,5.071,6.549,13.408
479,0.734,35.885,25.936,32.944,24.478,4.989,6.508,13.448
480,0.731,35.992,26.009,33.02,24.478,5.11,6.549,13.489
481,0.728,35.533,25.752,32.973,24.478,5.03,6.508,13.449
482,0.728,34.991,25.999,32.963,24.474,5.07,6.549,13.57
483,0.728,35.091,25.748,32.972,24.471,5.03,6.468,13.531
484,0.728,35.236,25.827,32.973,24.478,5.07,6.629,13.571
485,0.721,35.132,25.961,32.973,24.478,5.111,6.55,13.653
486,0.724,35.256,25.763,32.973,24.478,5.071,6.549,13.694
487,0.734,35.391,25.929,32.973,24.481,5.03,6.549,13.735
488,0.721,35.508,25.708,32.982,24.474,5.151,6.549,13.695
489,0.728,35.116,25.944,32.973,24.474,5.031,6.549,13.654
490,0.721,35.256,25.876,32.992,24.485,5.151,6.549,13.654
491,0.724,35.362,25.813,32.982,24.485,5.153,6.549,13.694
492,0.734,35.45,26.011,32.973,24.478,5.112,6.63,13.695
493,0.728,35.038,25.791,32.973,24.481,5.03,6.59,13.573
494,0.738,35.178,25.902,32.982,24.474,5.03,6.631,13.612
495,0.738,35.333,25.969,32.973,24.467,5.07,6.631,13.613
496,0.734,35.402,25.822,32.982,24.474,5.111,6.59,13.653
497,0.734,35.124,25.976,32.992,24.474,5.152,6.631,13.654
498,0.741,35.284,25.755,32.973,24.478,5.112,6.631,13.572
499,0.731,35.392,25.948,32.992,24.481,5.071,6.672,13.612
500,0.738,35.479,25.954,32.982,24.478,5.03,6.631,13.572
501,0.725,35.096,25.849,32.973,24.478,5.07,6.59,13.571
502,0.734,35.236,26.019,32.982,24.478,5.111,6.671,13.571
503,0.738,35.381,25.728,32.982,24.474,5.071,6.713,13.653
504,0.728,35.412,25.866,32.973,24.478,5.152,6.672,13.694
505,0.721,35.239,25.914,32.982,24.481,5.112,6.591,13.735
506,0.718,35.372,25.833,32.992,24.474,5.152,6.631,13.776
507,0.718,35.488,25.992,32.982,24.478,5.071,6.631,13.696
508,0.711,35.825,25.767,32.982,24.478,5.152,6.631,13.735
509,0.708,35.215,25.964,33.001,24.474,5.153,6.631,13.776
510,0.708,35.352,25.751,33.04,24.474,5.112,6.631,13.614
511,0.721,35.478,25.866,32.992,24.478,5.112,6.59,13.572
512,0.715,35.221,26.024,32.992,24.478,5.112,6.59,13.49
513,0.711,35.257,25.721,32.982,24.471,5.193,6.631,13.49
514,0.721,35.391,25.928,33.021,24.478,5.153,6.59,13.53
515,0.721,35.488,25.97,33.002,24.481,5.153,6.509,13.571
516,0.724,35.163,25.9,32.982,24.471,5.112,6.549,13.531
517,0.724,35.266,25.961,32.982,24.474,5.112,6.59,13.49
518,0.721,35.41,25.786,32.963,24.478,5.152,6.509,13.408
519,0.718,35.489,25.956,33.001,24.481,5.193,6.508,13.448
520,0.711,35.125,25.704,32.992,24.478,5.153,6.508,13.367
521,0.715,35.256,25.905,32.982,24.478,5.153,6.549,13.325
522,0.711,35.391,25.993,32.992,24.474,5.153,6.508,13.406
523,0.715,35.46,25.837,32.992,24.478,5.153,6.467,13.448
524,0.711,35.269,25.976,32.992,24.478,5.153,6.548,13.489
525,0.711,35.41,25.72,32.992,24.474,5.193,6.468,13.611
526,0.705,35.585,25.874,32.982,24.478,5.194,6.467,13.613
527,0.702,35.625,25.992,32.992,24.481,5.153,6.426,13.531
528,0.701,35.261,25.767,32.992,24.474,5.153,6.466,13.693
529,0.718,35.41,25.98,33.001,24.485,5.112,6.426,13.654
530,0.705,35.546,25.869,33.069,24.474,5.152,6.466,13.532
531,0.705,35.586,25.832,33.012,24.485,5.234,6.426,13.612
532,0.715,35.395,25.984,33.002,24.478,5.194,6.466,13.572
533,0.708,35.527,25.763,33.002,24.481,5.112,6.386,13.571
534,0.715,35.662,25.921,33.002,24.485,5.071,6.385,13.49
535,0.721,35.673,25.798,32.992,24.481,5.111,6.385,13.49
536,0.711,35.357,25.847,33.011,24.474,5.112,6.425,13.53
537,0.715,35.498,25.965,32.992,24.474,5.112,6.385,13.49
538,0.715,35.595,25.712,32.992,24.481,5.071,6.385,13.367
539,0.721,35.481,25.921,33.001,24.474,5.07,6.303,13.407
540,0.721,35.441,25.778,32.992,24.481,5.111,6.343,13.407
541,0.711,35.556,25.808,33.021,24.478,5.234,6.384,13.407
542,0.708,35.682,26.0,33.011,24.474,5.032,6.344,13.489
543,0.708,35.99,25.744,33.021,24.474,5.07,6.343,13.53
544,0.702,36.156,25.878,33.011,24.478,5.152,6.384,13.612
545,0.701,36.273,25.942,33.011,24.478,5.071,6.344,13.653
546,0.705,36.379,25.821,33.002,24.474,5.07,6.221,13.735
547,0.708,35.134,26.0,33.002,24.478,5.111,6.261,13.655
548,0.698,35.256,25.728,33.002,24.478,5.071,6.262,13.694
549,0.708,35.362,25.948,33.002,24.478,5.07,6.302,13.695
550,0.705,35.479,25.985,33.011,24.474,5.07,6.221,13.654
551,0.698,35.528,25.755,33.011,24.474,5.111,6.342,13.613
552,0.701,35.662,25.948,33.002,24.478,5.112,6.343,13.531
553,0.695,35.779,25.697,33.021,24.478,5.071,6.303,13.531
554,0.695,35.857,25.885,33.021,24.478,5.07,6.262,13.531
555,0.695,35.551,25.957,33.011,24.474,5.111,6.343,13.531
556,0.705,35.711,25.743,33.021,24.481,5.071,6.262,13.531
557,0.705,35.827,25.972,33.021,24.474,5.07,6.302,13.449
558,0.711,35.896,25.779,33.021,24.481,5.03,6.262,13.367
559,0.721,35.503,25.874,33.021,24.478,5.07,6.343,13.366
560,0.711,35.643,25.977,33.021,24.478,5.03,6.303,13.325
561,0.715,35.788,25.775,33.011,24.478,5.151,6.262,13.366
562,0.711,35.799,25.995,33.011,24.478,5.112,6.262,13.285
563,0.718,35.608,25.767,33.021,24.478,5.071,6.302,13.325
564,0.708,35.759,25.851,33.031,24.478,5.07,6.262,13.325
565,0.705,35.876,25.969,32.992,24.474,5.07,6.302,13.366
566,0.702,35.934,25.728,33.011,24.478,5.111,6.262,13.325
567,0.708,35.695,25.917,32.992,24.478,5.071,6.221,13.366
568,0.711,35.817,25.969,33.021,24.478,5.03,6.261,13.366
569,0.711,35.915,25.837,33.031,24.478,5.111,6.262,13.285
570,0.708,35.628,25.996,33.069,24.478,5.071,6.302,13.243
571,0.702,35.654,25.791,33.012,24.474,5.07,6.262,13.202
572,0.705,35.779,25.972,32.992,24.474,5.193,6.262,13.202
573,0.705,35.885,25.732,33.011,24.471,5.072,6.302,13.121
574,0.708,35.541,25.886,33.021,24.474,5.07,6.221,13.079
575,0.715,35.672,25.965,33.031,24.485,5.111,6.22,13.16
576,0.711,35.808,25.759,33.031,24.478,5.112,6.261,13.08
577,0.711,35.895,25.983,33.031,24.478,5.03,6.262,13.079
578,0.715,35.561,25.732,33.011,24.478,5.111,6.262,12.957
579,0.715,35.711,25.952,33.011,24.481,5.03,6.262,12.956
580,0.718,35.837,25.857,33.011,24.478,5.111,6.221,12.996
581,0.711,35.924,25.875,33.011,24.478,5.112,6.18,12.996
582,0.708,35.599,26.02,33.03,24.471,5.112,6.261,13.078
583,0.702,35.73,25.799,33.021,24.478,5.071,6.221,13.119
584,0.695,35.866,25.941,33.011,24.481,5.07,6.302,13.201
585,0.705,35.925,25.743,33.021,24.471,5.07,6.302,13.283
586,0.705,35.686,25.933,33.011,24.474,5.111,6.18,13.284
587,0.702,35.837,25.981,33.03,24.474,5.112,6.261,13.365
588,0.705,35.953,25.771,33.021,24.471,5.071,6.302,13.407
589,0.698,35.964,26.003,33.011,24.474,5.111,6.262,13.367
590,0.701,35.628,25.806,33.059,24.478,5.112,6.262,13.366
591,0.698,35.778,25.914,33.031,24.474,5.071,6.343,13.407
592,0.714,35.895,25.727,33.011,24.474,5.07,6.303,13.326
593,0.708,35.963,25.925,33.021,24.474,5.111,6.262,13.366
594,0.708,35.743,25.954,33.011,24.478,5.071,6.262,13.407
595,0.708,35.866,25.755,33.021,24.478,5.07,6.262,13.407
596,0.705,35.963,25.96,33.011,24.471,5.152,6.302,13.448
597,0.715,35.724,25.701,33.011,24.481,5.112,6.302,13.367
598,0.711,35.712,25.838,33.011,24.481,5.071,6.384,13.325
599,0.715,35.837,25.988,33.011,24.471,5.152,6.303,13.284
600,0.718,35.944,25.783,33.011,24.474,5.112,6.302,13.365
601,0.711,35.59,25.952,33.011,24.478,5.152,6.343,13.325
602,0.715,35.721,25.755,33.011,24.481,5.112,6.303,13.366
603,0.711,35.847,25.929,33.002,24.478,5.152,6.343,13.447
604,0.715,35.934,25.946,33.021,24.474,5.153,6.303,13.53
605,0.711,35.686,25.825,33.011,24.474,5.112,6.343,13.531
606,0.708,35.827,25.968,33.011,24.478,5.152,6.262,13.531
607,0.698,35.972,25.712,33.002,24.481,5.112,6.302,13.531
608,0.698,36.05,25.885,33.021,24.478,5.071,6.343,13.531
609,0.698,35.61,25.981,33.021,24.478,5.152,6.303,13.531
610,0.698,35.759,25.732,33.011,24.474,5.071,6.384,13.449
611,0.701,35.866,25.921,32.992,24.478,5.152,6.344,13.448
612,0.705,35.925,25.77,33.001,24.478,5.071,6.262,13.367
613,0.702,35.599,25.89,33.011,24.478,5.07,6.221,13.325
614,0.701,35.749,25.907,33.002,24.478,5.07,6.302,13.284
615,0.711,35.856,25.782,33.002,24.478,5.111,6.343,13.243
616,0.705,35.905,25.976,33.011,24.478,5.193,6.384,13.284
617,0.702,35.628,25.705,33.002,24.474,5.153,6.303,13.284
618,0.711,35.769,25.854,33.011,24.478,5.112,6.343,13.162
619,0.708,35.876,26.008,33.002,24.478,5.112,6.343,13.202
620,0.718,35.896,25.728,33.011,24.478,5.152,6.384,13.202
621,0.708,35.532,25.909,33.002,24.474,5.112,6.425,13.202
622,0.711,35.662,25.899,33.002,24.478,5.071,6.426,13.243
623,0.711,35.779,25.86,32.992,24.474,5.152,6.385,13.284
624,0.708,35.703,25.945,32.992,24.471,5.071,6.385,13.325
625,0.702,35.597,25.775,32.982,24.478,5.07,6.466,13.366
626,0.708,35.73,25.952,33.001,24.474,5.152,6.386,13.407
627,0.702,35.866,25.697,32.992,24.474,5.153,6.425,13.407
628,0.705,35.589,25.893,32.992,24.474,5.153,6.344,13.367
629,0.702,35.663,26.028,33.011,24.474,5.153,6.384,13.366
630,0.698,35.798,25.732,33.059,24.474,5.153,6.385,13.366
631,0.692,35.895,25.921,32.993,24.478,4.99,6.425,13.285
632,0.692,35.465,25.747,33.001,24.481,5.151,6.426,13.203
633,0.688,35.604,25.878,32.992,24.474,5.112,6.426,13.202
634,0.695,35.73,25.922,32.982,24.481,5.152,6.507,13.202
635,0.701,35.818,25.755,33.001,24.478,5.112,6.427,13.365
636,0.701,35.464,25.952,32.992,24.474,5.152,6.466,13.285
637,0.701,35.604,25.728,33.001,24.474,5.112,6.386,13.284
638,0.705,35.74,25.921,32.992,24.478,5.071,6.425,13.203
639,0.708,35.808,25.884,32.992,24.478,5.07,6.466,13.161
640,0.698,35.435,25.832,32.992,24.474,5.152,6.426,13.202
641,0.705,35.575,25.972,32.992,24.481,5.071,6.426,13.121
642,0.708,35.701,25.779,32.992,24.478,5.152,6.466,13.12
643,0.705,35.76,25.913,32.992,24.478,5.153,6.426,13.201
644,0.705,35.444,25.907,32.982,24.478,5.153,6.426,13.08
645,0.698,35.604,25.805,32.982,24.471,5.153,6.344,13.201
646,0.701,35.73,25.957,32.992,24.478,5.193,6.384,13.283
647,0.711,35.76,25.771,32.973,24.478,5.234,6.385,13.243
648,0.702,35.761,25.952,32.982,24.474,5.153,6.425,13.284
649,0.708,35.924,25.9,32.982,24.481,5.112,6.426,13.325
650,0.698,36.021,25.844,33.011,24.471,5.152,6.466,13.284
651,0.708,36.137,25.976,32.982,24.474,5.112,6.345,13.203
652,0.708,35.333,25.779,32.982,24.474,5.152,6.384,13.202
653,0.708,35.459,25.945,32.973,24.478,5.153,6.344,13.202
654,0.705,35.566,25.712,32.982,24.474,5.193,6.384,13.121
655,0.708,35.394,25.897,32.973,24.481,5.194,6.344,13.16
656,0.705,35.479,25.95,32.973,24.478,5.153,6.343,13.08
657,0.711,35.604,25.763,32.973,24.478,5.193,6.343,13.038
658,0.715,35.702,25.941,32.992,24.478,5.153,6.343,13.038
659,0.711,35.271,25.724,32.963,24.478,5.193,6.343,12.997
660,0.718,35.41,25.858,33.011,24.478,5.194,6.262,12.875
661,0.708,35.537,25.965,32.973,24.478,5.194,6.262,12.873
662,0.711,35.615,25.798,32.963,24.481,5.153,6.302,12.873
663,0.708,35.337,26.011,32.963,24.485,5.153,6.302,12.955
664,0.708,35.469,25.736,32.963,24.478,5.153,6.302,12.996
665,0.705,35.614,25.87,32.972,24.478,5.153,6.343,12.996
666,0.705,35.702,25.965,32.973,24.474,5.112,6.343,13.119
667,0.702,35.252,25.786,32.982,24.478,5.112,6.343,13.12
668,0.698,35.41,25.956,32.973,24.474,5.152,6.343,13.16
669,0.705,35.508,25.751,32.973,24.478,5.193,6.384,13.12
670,0.702,35.576,25.886,32.973,24.481,5.153,6.344,13.079
671,0.701,35.356,25.93,32.973,24.478,5.153,6.384,13.038
672,0.698,35.498,25.813,32.953,24.478,5.153,6.303,13.038
673,0.698,35.614,25.984,32.953,24.478,5.193,6.425,13.078
674,0.701,35.663,25.736,32.963,24.481,5.194,6.426,13.038
675,0.705,35.184,25.89,32.963,24.474,5.153,6.426,13.038
676,0.718,35.323,25.969,32.953,24.478,5.193,6.507,12.956
677,0.708,35.449,25.845,32.934,24.474,5.153,6.467,13.037
678,0.705,35.47,25.98,32.953,24.478,5.153,6.426,12.956
679,0.708,35.297,25.775,32.924,24.481,5.153,6.385,12.956
680,0.715,35.449,25.937,32.953,24.474,5.193,6.507,12.996
681,0.711,35.566,25.97,32.953,24.478,5.194,6.508,13.037
682,0.715,35.26,25.865,32.944,24.478,5.194,6.467,13.038
683,0.708,35.161,25.977,32.953,24.478,5.112,6.426,13.078
684,0.705,35.294,25.755,32.944,24.471,5.152,6.426,13.119
685,0.705,35.411,25.956,32.943,24.474,5.193,6.466,13.242
686,0.708,35.163,25.74,32.943,24.478,5.153,6.467,13.243
687,0.708,35.323,25.936,33.02,24.478,5.112,6.467,13.324
688,0.702,35.449,25.751,32.935,24.485,5.152,6.507,13.325
689,0.701,35.508,25.897,32.934,24.471,5.193,6.508,13.244
690,0.705,35.106,25.872,32.963,24.474,5.153,6.386,13.284
691,0.705,35.246,25.696,32.944,24.481,5.193,6.425,13.203
692,0.711,35.362,25.948,32.934,24.478,5.234,6.385,13.202
693,0.708,35.45,25.806,32.934,24.467,5.235,6.507,13.202
694,0.708,35.211,25.843,32.934,24.471,5.235,6.427,13.121
695,0.711,35.343,25.945,32.943,24.474,5.235,6.466,13.12
696,0.715,35.488,25.755,32.915,24.478,5.275,6.467,13.16
697,0.711,35.547,25.948,32.943,24.485,5.316,6.467,13.12
698,0.711,35.126,25.868,32.915,24.478,5.317,6.426,13.039
699,0.724,35.256,25.899,32.914,24.478,5.317,6.426,13.038
700,0.715,35.391,25.954,32.924,24.478,5.317,6.466,13.038
701,0.711,35.45,25.74,32.943,24.474,5.317,6.467,13.038
702,0.711,35.096,25.964,32.924,24.485,5.358,6.467,13.16
703,0.715,35.236,25.931,32.924,24.485,5.317,6.386,13.242
704,0.715,35.362,25.778,32.924,24.478,5.317,6.466,13.365
705,0.702,35.402,25.941,32.915,24.478,5.317,6.386,13.366
706,0.711,35.172,25.782,32.914,24.485,5.358,6.466,13.447
707,0.715,35.323,25.933,32.924,24.474,5.317,6.426,13.448
708,0.711,35.44,25.778,32.924,24.471,5.317,6.466,13.57
709,0.708,35.355,25.886,32.905,24.474,5.358,6.467,13.531
710,0.705,35.095,25.989,32.924,24.478,5.317,6.386,13.531
711,0.705,35.207,25.791,32.915,24.478,5.317,6.344,13.531
712,0.715,35.324,26.019,32.914,24.478,5.317,6.384,13.49
713,0.715,35.056,25.697,32.895,24.478,5.317,6.425,13.49
714,0.724,35.14,25.881,32.905,24.478,5.236,6.344,13.49
715,0.724,35.275,25.93,32.914,24.471,5.397,6.466,13.571
716,0.724,35.391,25.77,32.924,24.474,5.318,6.426,13.49
717,0.731,34.99,25.964,32.905,24.474,5.317,6.344,13.49
718,0.731,35.12,25.775,32.886,24.478,5.317,6.466,13.367
719,0.725,35.236,25.902,32.876,24.485,5.439,6.507,13.366
720,0.734,35.333,25.958,32.904,24.478,5.359,6.467,13.366
721,0.721,34.893,25.806,32.876,24.478,5.439,6.426,13.366
722,0.734,35.033,26.011,32.914,24.478,5.399,6.385,13.285
723,0.731,35.168,25.74,32.895,24.478,5.318,6.466,13.447
724,0.734,35.247,25.909,32.895,24.478,5.317,6.467,13.367
725,0.731,35.132,25.962,32.886,24.474,5.358,6.507,13.488
726,0.741,35.265,25.736,32.876,24.481,5.358,6.508,13.49
727,0.734,35.401,25.905,32.885,24.478,5.317,6.427,13.53
728,0.738,35.46,25.961,32.895,24.478,5.358,6.426,13.449
729,0.734,34.943,25.825,32.905,24.478,5.358,6.466,13.448
730,0.747,35.081,25.961,32.905,24.481,5.317,6.467,13.367
731,0.738,35.207,25.74,32.876,24.481,5.358,6.507,13.407
732,0.738,35.247,25.995,32.885,24.478,5.399,6.508,13.326
733,0.754,34.96,25.943,32.876,24.471,5.318,6.467,13.244
734,0.761,35.11,25.806,32.876,24.478,5.358,6.386,13.284
735,0.764,35.208,25.968,32.885,24.478,5.317,6.425,13.243
736,0.78,35.525,25.697,32.876,24.481,5.358,6.466,13.202
737,0.787,35.02,25.901,32.876,24.474,5.358,6.467,13.202
738,0.777,35.168,25.961,32.876,24.481,5.358,6.426,13.161
739,0.787,35.256,25.861,32.876,24.474,5.399,6.466,13.161
740,0.793,34.998,25.961,32.866,24.485,5.318,6.507,13.202
741,0.8,35.015,25.732,32.856,24.478,5.317,6.467,13.161
742,0.8,35.168,25.991,32.876,24.481,5.317,6.507,13.202
743,0.79,35.247,25.791,32.866,24.478,5.317,6.589,13.283
744,0.777,34.864,25.906,32.866,24.474,5.398,6.549,13.365
745,0.78,34.984,25.958,32.876,24.481,5.358,6.63,13.407
746,0.764,35.12,25.794,32.857,24.485,5.358,6.59,13.448
747,0.757,35.208,25.953,32.856,24.474,5.317,6.631,13.489
748,0.757,35.007,25.7,32.856,24.478,5.358,6.55,13.53
749,0.757,35.12,25.905,32.856,24.478,5.399,6.63,13.49
750,0.748,35.275,25.961,32.933,24.481,5.399,6.55,13.49
751,0.754,35.343,25.747,32.857,24.474,5.399,6.671,13.408
752,0.748,34.845,25.983,32.866,24.478,5.399,6.631,13.407
753,0.747,34.975,25.732,32.837,24.474,5.44,6.672,13.367
754,0.754,35.12,25.882,32.866,24.474,5.399,6.672,13.325
755,0.751,35.179,25.965,32.876,24.478,5.521,6.631,13.284
756,0.754,34.834,25.833,32.857,24.481,5.482,6.712,13.284
757,0.77,34.984,25.961,32.856,24.474,5.481,6.672,13.243
758,0.777,35.091,25.697,32.828,24.478,5.562,6.631,13.121
759,0.774,35.14,25.881,32.827,24.481,5.563,6.672,13.079
760,0.784,34.901,25.969,32.846,24.478,5.482,6.631,13.079
761,0.787,35.052,25.736,32.837,24.485,5.562,6.631,13.079
762,0.793,35.159,25.948,32.856,24.481,5.604,6.631,13.079
763,0.793,35.17,25.755,32.837,24.478,5.564,6.712,13.201
764,0.79,34.93,25.835,32.847,24.478,5.563,6.672,13.243
765,0.797,35.052,25.992,32.818,24.478,5.685,6.591,13.284
766,0.787,35.197,25.744,32.837,24.474,5.687,6.631,13.325
767,0.793,34.969,25.921,32.837,24.474,5.646,6.631,13.406
768,0.797,34.832,25.966,32.856,24.478,5.767,6.631,13.407
769,0.79,34.965,25.872,32.837,24.471,5.768,6.59,13.407
770,0.79,35.062,25.949,32.847,24.474,5.728,6.631,13.448
771,0.784,34.833,25.704,32.837,24.474,5.768,6.631,13.489
772,0.78,34.946,25.932,32.818,24.474,5.809,6.55,13.449
773,0.774,35.072,25.958,32.827,24.474,5.769,6.59,13.53
774,0.777,35.169,25.861,32.846,24.478,5.809,6.549,13.531
775,0.78,34.786,25.707,32.847,24.474,5.81,6.549,13.571
776,0.777,34.926,25.889,32.837,24.474,5.85,6.549,13.571
777,0.787,35.062,25.969,32.827,24.478,5.851,6.549,13.571
778,0.777,35.14,25.775,32.837,24.478,5.891,6.549,13.49
779,0.787,34.786,25.945,32.818,24.474,5.933,6.508,13.49
780,0.79,34.965,25.853,32.818,24.478,5.892,6.508,13.49
781,0.78,35.081,25.82,32.818,24.471,5.892,6.508,13.408
782,0.78,35.159,26.015,32.818,24.474,5.892,6.589,13.407
783,0.777,34.853,25.67,32.818,24.474,5.892,6.549,13.407
784,0.767,35.013,25.869,32.818,24.478,5.892,6.549,13.489
785,0.761,35.13,25.946,32.818,24.478,5.892,6.549,13.53
786,0.764,35.198,25.771,32.827,24.478,5.933,6.59,13.449
787,0.761,34.863,25.968,32.808,24.478,5.933,6.549,13.489
788,0.754,34.994,25.763,32.808,24.474,5.892,6.59,13.49
789,0.748,35.101,25.878,32.818,24.474,5.851,6.549,13.449
790,0.741,35.169,25.985,32.818,24.481,5.932,6.508,13.367
791,0.751,34.863,25.755,32.798,24.471,5.852,6.549,13.366
792,0.741,34.984,25.964,32.808,24.474,5.851,6.508,13.285
793,0.738,35.11,25.732,32.818,24.471,5.81,6.549,13.284
794,0.731,35.236,25.882,32.818,24.478,5.85,6.549,13.284
795,0.731,34.864,25.926,32.808,24.478,5.851,6.508,13.243
796,0.728,35.004,25.751,32.798,24.478,5.851,6.508,13.202
797,0.725,35.12,25.968,32.817,24.474,5.851,6.467,13.202
798,0.724,34.814,25.712,32.798,24.478,5.891,6.507,13.202
799,0.724,34.85,25.842,32.798,24.481,5.811,6.467,13.202
800,0.721,34.994,25.984,32.798,24.478,5.81,6.467,13.202
801,0.721,35.101,25.791,32.798,24.481,5.769,6.548,13.121
802,0.715,34.814,26.066,32.798,24.478,5.809,6.508,13.201
803,0.724,34.946,25.748,32.798,24.474,5.81,6.508,13.324
804,0.721,35.11,25.89,32.808,24.478,5.81,6.549,13.366
805,0.721,35.188,25.926,32.789,24.478,5.769,6.468,13.447
806,0.711,34.758,25.798,32.808,24.474,5.768,6.507,13.57
807,0.705,34.907,25.941,32.798,24.478,5.768,6.508,13.531
808,0.702,35.043,25.681,32.798,24.478,5.728,6.467,13.531
809,0.701,35.111,25.893,32.798,24.481,5.809,6.467,13.531
810,0.698,34.795,25.977,32.798,24.478,5.728,6.467,13.531
811,0.695,34.965,25.744,32.798,24.478,5.809,6.467,13.531
812,0.695,35.072,25.968,32.798,24.474,5.688,6.467,13.531
813,0.685,35.13,25.716,32.808,24.474,5.768,6.467,13.49
814,0.695,34.757,25.889,32.798,24.474,5.728,6.467,13.53
815,0.695,34.897,25.946,32.789,24.478,5.727,6.426,13.531
816,0.698,35.033,25.782,32.789,24.478,5.727,6.426,13.449
817,0.701,35.082,25.976,32.798,24.471,5.727,6.426,13.489
818,0.695,34.852,25.732,32.798,24.478,5.727,6.426,13.449
819,0.695,34.984,25.897,32.789,24.478,5.687,6.426,13.448
820,0.695,35.12,25.942,32.798,24.478,5.646,6.385,13.326
821,0.692,35.121,25.853,32.779,24.474,5.645,6.385,13.366
822,0.688,34.853,25.98,32.789,24.478,5.645,6.425,13.407
823,0.695,34.975,25.751,32.789,24.481,5.645,6.426,13.407
824,0.685,35.091,25.929,32.789,24.471,5.645,6.344,13.448
825,0.695,34.91,25.81,32.789,24.478,5.645,6.384,13.489
826,0.688,34.927,25.953,32.779,24.474,5.605,6.385,13.53
827,0.692,35.062,25.704,32.789,24.485,5.645,6.385,13.531
828,0.688,35.169,25.893,32.798,24.471,5.605,6.344,13.531
829,0.695,34.968,25.977,32.779,24.478,5.686,6.384,13.531
830,0.695,35.11,25.759,32.789,24.474,5.605,6.385,13.408
831,0.698,35.236,25.929,32.789,24.474,5.604,6.385,13.407
832,0.711,35.324,25.759,32.769,24.478,5.604,6.466,13.285
833,0.708,34.577,25.866,32.779,24.478,5.645,6.345,13.325
834,0.715,34.703,25.934,32.779,24.478,5.605,6.384,13.325
835,0.721,34.868,25.778,32.798,24.478,5.564,6.425,13.406
836,0.718,34.927,25.96,32.779,24.478,5.563,6.385,13.326
837,0.715,34.832,25.74,32.769,24.481,5.604,6.385,13.325
838,0.728,34.994,25.944,32.769,24.478,5.564,6.425,13.284
839,0.721,35.101,25.693,32.779,24.481,5.604,6.426,13.284
840,0.721,35.179,25.85,32.769,24.474,5.564,6.385,13.243
841,0.711,34.719,25.934,32.76,24.481,5.685,6.344,13.202
842,0.708,34.849,25.884,32.76,24.478,5.564,6.384,13.202
843,0.702,34.975,25.934,32.769,24.474,5.604,6.425,13.202
844,0.714,35.034,25.79,32.779,24.481,5.604,6.385,13.243
845,0.708,34.794,25.964,32.769,24.471,5.564,6.385,13.284
846,0.705,34.955,25.732,32.779,24.478,5.523,6.385,13.365
847,0.708,35.081,25.956,32.769,24.481,5.522,6.425,13.407
848,0.711,35.092,25.927,32.788,24.474,5.563,6.426,13.326
849,0.702,34.795,25.825,32.769,24.471,5.482,6.344,13.325
850,0.708,34.945,25.961,32.769,24.485,5.562,6.466,13.366
851,0.702,35.052,25.704,32.76,24.474,5.523,6.426,13.244
852,0.711,35.015,25.928,32.76,24.481,5.563,6.426,13.284
853,0.715,34.871,25.934,32.75,24.478,5.563,6.385,13.243
854,0.715,35.004,25.782,32.759,24.471,5.523,6.466,13.284
855,0.702,35.12,25.96,32.769,24.471,5.603,6.467,13.325
856,0.708,34.824,25.72,32.75,24.474,5.564,6.426,13.366
857,0.702,34.907,25.846,32.759,24.481,5.563,6.385,13.366
858,0.708,35.043,25.98,32.75,24.478,5.563,6.507,13.285
859,0.702,35.13,25.705,32.75,24.481,5.523,6.386,13.284
860,0.708,34.738,25.909,32.74,24.474,5.482,6.385,13.284
861,0.705,34.897,25.973,32.759,24.474,5.562,6.385,13.284
862,0.711,35.014,25.837,32.75,24.474,5.563,6.425,13.365
863,0.711,35.101,25.887,32.75,24.481,5.604,6.466,13.488
864,0.721,34.738,25.719,32.759,24.481,5.604,6.386,13.571
865,0.741,34.878,25.905,32.76,24.478,5.604,6.385,13.734
866,0.747,35.013,25.723,32.75,24.478,5.645,6.344,13.736
867,0.76,35.092,25.928,32.75,24.481,5.564,6.466,13.736
868,0.783,34.728,25.685,32.74,24.471,5.523,6.426,13.776
869,0.787,34.868,25.854,32.759,24.478,5.603,6.344,13.777
870,0.806,35.013,25.969,32.76,24.478,5.523,6.425,13.777
871,0.833,35.082,25.802,32.74,24.474,5.482,6.385,13.777
872,0.862,34.872,25.988,32.74,24.481,5.522,6.385,13.777
873,0.921,35.004,25.72,32.759,24.481,5.563,6.385,13.736
874,0.951,35.13,25.831,32.75,24.481,5.563,6.385,13.736
875,0.984,35.169,25.945,32.759,24.474,5.604,6.385,13.655
876,1.017,34.69,25.696,32.76,24.474,5.564,6.385,13.654
877,1.059,34.848,25.881,32.75,24.474,5.523,6.385,13.613
878,1.112,34.975,25.961,32.759,24.474,5.563,6.425,13.613
879,1.2,35.293,25.833,32.731,24.478,5.563,6.344,13.531
880,1.282,34.883,25.961,32.74,24.478,5.563,6.343,13.531
881,1.377,35.033,25.724,32.74,24.478,5.563,6.343,13.531
882,1.45,35.14,25.975,32.74,24.474,5.645,6.425,13.49
883,1.525,34.92,25.947,32.74,24.478,5.645,6.426,13.571
884,1.614,34.966,25.81,32.74,24.478,5.564,6.385,13.612
885,1.673,35.11,25.953,32.721,24.481,5.604,6.385,13.694
886,1.765,35.208,25.712,32.74,24.478,5.645,6.385,13.695
887,1.854,34.748,25.901,32.74,24.478,5.564,6.466,13.654
888,1.89,34.849,25.973,32.74,24.478,5.604,6.386,13.654
889,1.894,34.994,25.794,32.74,24.478,5.686,6.466,13.694
890,1.94,35.082,25.949,32.74,24.478,5.687,6.345,13.613
891,1.963,34.68,25.712,32.75,24.485,5.687,6.384,13.572
892,2.005,34.839,25.936,32.74,24.474,5.687,6.466,13.612
893,2.003,34.956,25.977,32.731,24.478,5.727,6.345,13.572
894,1.993,35.043,25.802,32.731,24.478,5.727,6.343,13.612
895,2.002,34.842,25.968,32.731,24.478,5.768,6.384,13.613
896,2.016,34.965,25.716,32.75,24.478,5.809,6.385,13.653
897,1.957,35.12,25.928,32.75,24.474,5.85,6.303,13.613
898,1.869,35.179,25.716,32.75,24.481,5.81,6.343,13.613
899,1.78,34.815,25.85,32.74,24.474,5.85,6.384,13.653
900,1.649,34.974,25.941,32.721,24.474,5.891,6.344,13.816
901,1.488,35.11,25.775,32.721,24.474,5.811,6.384,13.899
902,1.334,35.14,25.984,32.74,24.485,5.81,6.425,14.144
903,1.16,34.738,25.826,32.731,24.474,5.972,6.426,14.187
904,1.025,34.907,25.82,32.731,24.471,5.893,6.344,14.269
905,0.926,35.004,25.957,32.74,24.478,5.811,6.425,14.473
906,0.821,35.053,25.728,32.711,24.478,5.891,6.426,14.678
907,0.712,34.881,25.905,32.73,24.478,5.811,6.344,14.924
908,0.578,35.013,25.969,32.721,24.478,5.932,6.343,15.13
909,0.437,35.12,25.81,32.74,24.478,5.852,6.384,15.254
910,0.325,34.93,25.937,32.721,24.481,5.891,6.466,15.337
911,0.239,34.861,25.716,32.73,24.474,5.851,6.345,15.46
912,0.154,34.984,25.921,32.721,24.478,5.891,6.343,15.542
913,0.072,35.082,25.856,32.721,24.474,5.851,6.343,15.705
914,0.038,34.766,25.723,32.721,24.485,5.851,6.384,15.748
915,-0.021,34.849,25.928,32.711,24.478,5.81,6.344,15.951
916,-0.044,34.984,25.954,32.721,24.478,5.81,6.384,15.994
917,-0.048,35.11,25.837,32.692,24.478,5.81,6.385,15.995
918,-0.022,34.757,25.988,32.701,24.478,5.81,6.425,16.076
919,0.005,34.878,25.713,32.711,24.478,5.85,6.385,16.036
920,0.037,35.052,25.944,32.711,24.474,5.81,6.425,15.995
921,0.067,35.13,25.732,32.711,24.474,5.85,6.385,15.913
922,0.1,34.853,25.921,32.721,24.478,5.81,6.425,16.034
923,0.149,35.004,25.919,32.778,24.478,5.81,6.385,16.239
924,0.185,35.139,25.79,32.712,24.474,5.81,6.425,16.688
925,0.199,35.208,25.968,32.711,24.474,5.769,6.466,17.059
926,0.235,34.758,25.747,32.711,24.474,5.768,6.386,17.428
927,0.287,34.897,25.94,32.702,24.478,5.768,6.425,17.757
928,0.33,35.023,25.696,32.711,24.478,5.687,6.385,18.005
929,0.399,35.082,25.854,32.721,24.485,5.809,6.385,18.21
930,0.481,34.852,25.965,32.711,24.471,5.728,6.344,18.537
931,0.546,34.994,25.72,32.711,24.474,5.809,6.303,18.744
932,0.609,35.101,25.944,32.711,24.474,5.728,6.343,18.868
933,0.662,35.15,25.841,32.711,24.478,5.727,6.425,18.91
934,0.688,34.844,25.809,32.702,24.478,5.687,6.385,18.992
935,0.727,35.003,25.921,32.711,24.478,5.768,6.303,19.074
936,0.744,35.101,25.704,32.702,24.478,5.728,6.343,18.79
937,0.764,35.14,25.897,32.721,24.474,5.727,6.303,18.746
938,0.78,34.824,25.985,32.692,24.474,5.727,6.302,18.543
939,0.79,34.955,25.787,32.701,24.485,5.768,6.384,18.419
940,0.79,35.081,25.937,32.682,24.481,5.687,6.344,18.336
941,0.787,34.718,25.724,32.692,24.474,5.687,6.343,18.213
942,0.8,34.81,25.948,32.701,24.474,5.727,6.303,18.009
943,0.8,34.946,25.517,32.701,24.481,5.687,6.262,17.885
944,0.8,35.014,25.821,32.701,24.478,5.727,6.262,17.762
945,0.8,34.842,25.945,32.692,24.474,5.768,6.302,17.557
946,0.794,34.975,25.736,32.701,24.481,5.728,6.343,17.392
947,0.793,35.12,25.936,32.682,24.481,5.727,6.303,17.269
948,0.8,35.198,25.798,32.711,24.478,5.687,6.343,17.146
949,0.803,34.681,25.836,32.692,24.474,5.687,6.384,17.063
950,0.803,34.839,25.941,32.711,24.481,5.727,6.303,16.737
951,0.81,34.965,25.693,32.692,24.474,5.687,6.343,16.571
952,0.81,35.034,25.909,32.701,24.478,5.727,6.343,16.407
953,0.81,34.804,25.954,32.692,24.478,5.727,6.343,16.324
954,0.807,34.955,25.81,32.692,24.478,5.687,6.303,16.12
955,0.826,35.062,25.976,32.701,24.478,5.727,6.425,15.996
956,0.826,35.14,25.705,32.692,24.478,5.687,6.344,15.913
957,0.823,34.719,25.897,32.682,24.481,5.687,6.384,15.75
958,0.826,34.858,25.973,32.682,24.481,5.727,6.385,15.585
959,0.833,34.965,25.818,32.682,24.478,5.727,6.466,15.503
960,0.836,35.034,25.953,32.682,24.478,5.727,6.345,15.339
961,0.833,34.814,25.704,32.682,24.474,5.768,6.384,15.297
962,0.83,34.946,25.956,32.673,24.481,5.728,6.385,15.215
963,0.839,35.052,25.845,32.682,24.478,5.727,6.425,15.214
964,0.826,35.121,25.848,32.701,24.478,5.687,6.385,15.133
965,0.836,34.786,25.957,32.682,24.478,5.687,6.344,15.213
966,0.833,34.936,25.759,32.673,24.478,5.809,6.343,15.052
967,0.833,35.033,25.937,32.682,24.471,5.728,6.425,15.009
968,0.836,34.833,25.712,32.682,24.474,5.727,6.385,14.928
969,0.843,34.831,25.901,32.692,24.478,5.809,6.385,14.846
970,0.839,34.994,25.868,32.682,24.478,5.81,6.385,14.763
971,0.843,35.072,25.836,32.663,24.485,5.81,6.344,14.6
972,0.846,34.661,25.992,32.672,24.474,5.81,6.343,14.558
973,0.843,34.771,25.701,32.663,24.471,5.891,6.384,14.435
974,0.849,34.926,25.885,32.682,24.478,5.892,6.385,14.434
975,0.849,35.004,25.938,32.682,24.481,5.933,6.385,14.312
976,0.853,34.756,25.767,32.682,24.474,5.892,6.344,14.27
977,0.856,34.916,25.937,32.682,24.481,5.973,6.303,14.188
978,0.853,35.043,25.712,32.682,24.481,5.974,6.384,14.065
979,0.846,35.121,25.87,32.673,24.478,6.015,6.303,14.064
980,0.846,34.68,25.805,32.663,24.481,6.096,6.343,13.942
981,0.853,34.858,25.851,32.672,24.474,6.138,6.343,13.982
982,0.853,34.965,25.996,32.653,24.471,6.26,6.343,13.901
983,0.846,35.034,25.724,32.663,24.471,6.262,6.303,13.981
984,0.84,34.746,25.889,32.644,24.474,6.221,6.302,13.942
985,0.852,34.907,25.965,32.691,24.478,6.261,6.384,13.86
986,0.853,35.004,25.771,32.673,24.474,6.262,6.263,13.778
987,0.859,35.072,25.941,32.672,24.478,6.384,6.302,13.818
988,0.859,34.795,25.685,32.663,24.485,6.344,6.302,13.777
989,0.862,34.917,25.869,32.663,24.478,6.303,6.262,13.736
990,0.872,35.043,25.961,32.672,24.474,6.384,6.343,13.695
991,0.876,35.063,25.697,32.672,24.481,6.425,6.303,13.573
992,0.876,34.67,25.967,32.663,24.478,6.344,6.302,13.612
993,0.876,34.8,25.751,32.672,24.478,6.384,6.302,13.572
994,0.872,34.926,25.925,32.672,24.471,6.385,6.343,13.571
995,0.872,34.88,25.696,32.682,24.485,6.425,6.343,13.571
996,0.872,34.764,25.881,32.682,24.478,6.426,6.303,13.571
997,0.869,34.907,25.704,32.682,24.474,6.385,6.262,13.49
998,0.872,35.014,25.901,32.673,24.471,6.425,6.262,13.449
999,0.879,34.718,25.954,32.653,24.478,6.466,6.302,13.448
1000,0.876,34.81,25.716,32.682,24.478,6.426,6.262,13.448
1001,0.882,34.965,25.948,32.663,24.478,6.426,6.302,13.448
1002,0.879,35.072,25.728,32.663,24.474,6.385,6.221,13.489
1003,0.885,34.603,25.854,32.663,24.478,6.385,6.18,13.571
1004,0.876,34.752,25.926,32.663,24.478,6.385,6.22,13.571
1005,0.876,34.888,25.747,32.663,24.481,6.344,6.22,13.653
1006,0.879,34.966,25.929,32.663,24.478,6.303,6.22,13.613
1007,0.885,34.688,25.923,32.663,24.478,6.262,6.302,13.653
1008,0.872,34.848,25.813,32.672,24.474,6.302,6.262,13.735
1009,0.885,34.965,25.945,32.682,24.478,6.302,6.221,13.614
1010,0.885,35.053,25.728,32.673,24.478,6.343,6.22,13.572
1011,0.885,34.574,25.948,32.663,24.474,6.303,6.139,13.571
1012,0.889,34.713,25.884,32.672,24.485,6.384,6.301,13.571
1013,0.895,34.849,25.77,32.653,24.478,6.303,6.221,13.449
1014,0.889,34.917,25.929,32.653,24.474,6.384,6.261,13.489
1015,0.899,34.659,25.673,32.672,24.481,6.425,6.221,13.49
1016,0.899,34.781,25.905,32.663,24.478,6.507,6.22,13.449
1017,0.905,34.926,25.946,32.663,24.474,6.427,6.22,13.489
1018,0.902,34.956,25.829,32.634,24.474,6.385,6.261,13.327
1019,0.902,34.679,25.89,32.662,24.478,6.385,6.221,13.366
1020,0.908,34.839,25.696,32.663,24.481,6.385,6.261,13.285
1021,0.905,34.956,25.959,32.634,24.474,6.466,6.18,13.365
1022,0.908,35.196,25.751,32.634,24.471,6.467,6.179,13.285
1023,0.908,34.662,25.89,32.643,24.478,6.467,6.179,13.447
1024,0.905,34.81,25.918,32.643,24.485,6.507,6.179,13.489
1025,0.905,34.907,25.837,32.653,24.478,6.467,6.22,13.53
1026,0.912,34.717,25.965,32.644,24.474,6.507,6.22,13.612
1027,0.912,34.772,25.732,32.643,24.474,6.63,6.22,13.694
1028,0.908,34.907,25.909,32.653,24.474,6.59,6.18,13.735
1029,0.918,35.004,25.903,32.644,24.478,6.671,6.22,13.695
1030,0.915,34.583,25.805,32.643,24.485,6.631,6.22,13.695
1031,0.922,34.704,25.992,32.634,24.478,6.672,6.18,13.695
1032,0.925,34.83,25.756,32.624,24.478,6.672,6.179,13.654
1033,0.922,34.936,25.878,32.653,24.478,6.713,6.22,13.572
1034,0.928,34.583,25.672,32.644,24.474,6.672,6.139,13.653
1035,0.931,34.704,25.901,32.643,24.471,6.713,6.179,13.735
1036,0.944,34.83,25.954,32.634,24.478,6.672,6.179,13.614
1037,0.945,34.927,25.798,32.643,24.474,6.753,6.139,13.653
1038,0.945,34.688,25.96,32.634,24.478,6.795,6.179,13.613
1039,0.945,34.839,25.65,32.634,24.478,6.755,6.22,13.613
1040,0.948,34.965,25.881,32.634,24.481,6.714,6.18,13.653
1041,0.945,35.043,25.719,32.624,24.471,6.713,6.179,13.694
1042,0.945,34.536,25.882,32.624,24.471,6.713,6.22,13.654
1043,0.948,34.694,25.871,32.634,24.474,6.754,6.22,13.613
1044,0.948,34.801,25.711,32.634,24.474,6.795,6.139,13.735
1045,0.948,34.878,25.897,32.624,24.478,6.755,6.179,13.736
1046,0.951,34.592,25.68,32.624,24.478,6.754,6.139,13.736
1047,0.948,34.752,25.858,32.614,24.478,6.795,6.138,13.655
1048,0.951,34.849,25.945,32.634,24.471,6.795,6.098,13.654
1049,0.941,34.869,25.833,32.624,24.478,6.836,6.138,13.613
1050,0.948,34.659,25.957,32.624,24.474,6.796,6.138,13.613
1051,0.948,34.791,25.728,32.614,24.474,6.795,6.098,13.572
1052,0.951,34.878,25.956,32.605,24.478,6.795,6.097,13.49
1053,0.958,34.668,25.939,32.624,24.474,6.836,6.097,13.449
1054,0.958,34.618,25.794,32.624,24.474,6.755,6.056,13.489
1055,0.968,34.762,25.972,32.624,24.478,6.795,6.056,13.408
1056,0.977,34.868,25.708,32.624,24.481,6.795,6.097,13.448
1057,0.981,34.486,25.897,32.605,24.471,6.714,6.056,13.367
1058,0.984,34.597,25.934,32.624,24.478,6.754,6.097,13.366
1059,0.991,34.723,25.81,32.595,24.478,6.754,6.097,13.285
1060,1.0,34.83,25.933,32.595,24.485,6.714,6.097,13.243
1061,0.997,34.534,25.751,32.605,24.478,6.713,6.056,13.324
1062,0.994,34.674,25.991,32.595,24.474,6.713,6.097,13.366
1063,1.0,34.82,25.756,32.614,24.478,6.713,6.138,13.366
1064,1.013,34.888,25.796,32.614,24.478,6.754,6.098,13.366
1065,1.01,34.563,25.968,32.605,24.474,6.754,6.097,13.366
1066,1.004,34.694,25.677,32.605,24.478,6.754,6.097,13.447
1067,1.01,34.829,25.881,32.595,24.481,6.795,6.097,13.408
1068,1.01,34.907,25.985,32.595,24.474,6.755,6.056,13.489
1069,1.014,34.438,25.81,32.595,24.478,6.754,6.056,13.408
1070,1.017,34.616,25.945,32.624,24.474,6.876,6.097,13.407
1071,1.023,34.742,25.677,32.595,24.478,6.877,6.056,13.367
1072,1.03,34.782,25.905,32.595,24.478,6.959,6.015,13.407
1073,1.027,34.543,25.915,32.614,24.478,6.96,6.096,13.326
1074,1.033,34.694,25.704,32.614,24.471,7.041,6.056,13.284
1075,1.037,34.81,25.92,32.614,24.471,7.042,6.097,13.325
1076,1.05,34.85,25.767,32.605,24.478,7.001,6.097,13.366
1077,1.05,34.553,25.816,32.595,24.478,7.041,6.138,13.325
1078,1.053,34.684,25.965,32.605,24.478,7.164,6.057,13.366
1079,1.056,34.801,25.673,32.586,24.478,7.165,6.178,13.325
1080,1.066,34.802,25.873,32.595,24.471,7.206,6.139,13.325
1081,1.079,34.6,25.961,32.585,24.471,7.125,6.179,13.284
1082,1.079,34.713,25.786,32.576,24.481,7.246,6.22,13.325
1083,1.083,34.82,25.894,32.585,24.474,7.166,6.22,13.366
1084,1.079,34.457,25.653,32.585,24.478,7.206,6.302,13.447
1085,1.089,34.53,25.865,32.585,24.478,7.287,6.302,13.53
1086,1.096,34.655,25.918,32.585,24.474,7.288,6.302,13.571
1087,1.102,34.752,25.809,32.585,24.471,7.329,6.384,13.612
1088,1.109,34.485,25.961,32.595,24.478,7.37,6.385,13.572
1089,1.102,34.588,25.716,32.585,24.478,7.33,6.344,13.531
1090,1.102,34.742,25.893,32.585,24.478,7.41,6.425,13.531
1091,1.115,34.83,25.938,32.585,24.478,7.452,6.385,13.449
1092,1.128,34.62,25.814,32.566,24.481,7.452,6.385,13.367
1093,1.132,34.742,25.918,32.576,24.478,7.534,6.425,13.447
1094,1.138,34.887,25.7,32.585,24.474,7.534,6.466,13.489
1095,1.145,34.966,25.897,32.557,24.478,7.575,6.386,13.53
1096,1.142,34.314,25.93,32.575,24.481,7.616,6.547,13.531
1097,1.155,34.461,25.743,32.585,24.478,7.617,6.549,13.531
1098,1.168,34.587,25.964,32.576,24.478,7.698,6.468,13.49
1099,1.168,34.637,25.65,32.576,24.478,7.74,6.426,13.53
1100,1.175,34.464,25.834,32.556,24.478,7.821,6.507,13.531
1101,1.188,34.626,25.976,32.547,24.478,7.781,6.508,13.571
1102,1.188,34.742,25.787,32.585,24.478,7.822,6.427,13.571
1103,1.194,34.772,25.859,32.557,24.478,7.944,6.507,13.653
1104,1.194,34.581,25.93,32.575,24.485,7.945,6.508,13.776
1105,1.204,34.704,25.735,32.566,24.474,7.945,6.549,13.736
1106,1.22,34.83,25.929,32.556,24.478,7.945,6.508,13.817
1107,1.227,35.099,25.751,32.566,24.478,7.986,6.508,13.899
1108,1.234,34.469,25.851,32.556,24.478,7.986,6.467,13.819
1109,1.24,34.587,25.965,32.566,24.474,7.986,6.386,13.777
1110,1.237,34.694,25.697,32.566,24.471,7.986,6.466,13.858
1111,1.253,34.427,25.916,32.556,24.478,7.986,6.467,13.737
1112,1.266,34.424,25.981,32.556,24.481,7.946,6.467,13.695
1113,1.273,34.558,25.806,32.556,24.478,7.905,6.386,13.654
1114,1.283,34.665,25.937,32.556,24.478,7.945,6.385,13.654
1115,1.293,34.455,25.692,32.585,24.478,7.905,6.344,13.572
1116,1.293,34.606,25.877,32.566,24.474,7.823,6.343,13.653
1117,1.309,34.752,25.903,32.556,24.478,7.822,6.303,13.532
1118,1.306,34.84,25.84,32.556,24.481,7.822,6.384,13.449
1119,1.319,34.438,25.891,32.556,24.481,7.781,6.344,13.408
1120,1.326,34.587,25.684,32.547,24.478,7.74,6.343,13.367
1121,1.326,34.713,25.905,32.556,24.485,7.74,6.343,13.447
1122,1.339,34.772,26.001,32.556,24.474,7.699,6.425,13.448
1123,1.332,34.38,25.756,32.566,24.478,7.78,6.304,13.489
1124,1.332,34.519,25.94,32.556,24.481,7.7,6.384,13.53
1125,1.329,34.636,25.704,32.547,24.471,7.618,6.344,13.449
1126,1.339,34.714,25.913,32.556,24.478,7.698,6.343,13.448
1127,1.349,34.657,25.938,32.547,24.478,7.699,6.343,13.489
1128,1.352,34.81,25.798,32.527,24.474,7.658,6.343,13.53
1129,1.349,34.907,25.949,32.546,24.478,7.658,6.384,13.49
1130,1.358,34.985,25.728,32.537,24.474,7.617,6.303,13.367
1131,1.362,34.641,25.815,32.547,24.474,7.617,6.262,13.325
1132,1.368,34.771,25.984,32.537,24.474,7.657,6.302,13.284
1133,1.375,34.897,25.767,32.527,24.474,7.617,6.302,13.203
1134,1.372,34.927,25.941,32.546,24.478,7.617,6.343,13.243
1135,1.391,34.64,25.7,32.527,24.474,7.576,6.303,13.202
1136,1.385,34.791,25.881,32.537,24.474,7.616,6.343,13.202
1137,1.391,34.898,25.754,32.547,24.478,7.739,6.303,13.202
1138,1.404,34.879,25.843,32.537,24.481,7.74,6.302,13.161
1139,1.411,34.86,25.914,32.547,24.474,7.821,6.343,13.12
1140,1.408,34.984,25.704,32.537,24.478,7.985,6.303,13.079
1141,1.405,35.091,25.928,32.537,24.478,8.027,6.221,13.038
1142,1.411,34.853,25.712,32.527,24.478,8.149,6.342,13.078
1143,1.418,34.984,25.807,32.527,24.481,8.15,6.262,13.16
1144,1.408,35.11,25.945,32.527,24.481,8.191,6.302,13.242
1145,1.411,35.208,25.696,32.537,24.474,8.232,6.302,13.243
1146,1.414,34.978,25.901,32.518,24.464,8.314,6.302,13.324
1147,1.418,35.129,25.942,32.508,24.478,8.315,6.343,13.284
1148,1.411,35.256,25.798,32.517,24.478,8.356,6.343,13.406
1149,1.411,35.343,25.937,32.527,24.478,8.397,6.303,13.367
1150,1.411,35.133,25.689,32.518,24.481,8.438,6.262,13.325
1151,1.411,35.284,25.877,32.527,24.478,8.519,6.343,13.203
1152,1.411,35.392,25.985,32.527,24.478,8.561,6.303,13.202
1153,1.414,35.46,25.775,32.527,24.471,8.602,6.302,13.202
1154,1.418,35.364,25.921,32.527,24.474,8.602,6.302,13.202
1155,1.414,35.517,25.665,32.527,24.474,8.684,6.343,13.121
1156,1.411,35.643,25.861,32.527,24.478,8.684,6.343,13.12
1157,1.408,35.712,25.938,32.527,24.474,8.766,6.303,13.12
1158,1.401,35.492,25.739,32.508,24.478,8.848,6.262,12.998
1159,1.398,35.633,25.909,32.508,24.474,8.808,6.343,12.996
1160,1.405,35.74,25.657,32.508,24.474,8.848,6.303,13.078
1161,1.398,35.78,25.897,32.517,24.478,8.808,6.302,13.079
1162,1.382,35.713,25.969,32.508,24.478,8.848,6.302,13.16
1163,1.369,35.866,25.775,32.517,24.478,8.889,6.221,13.283
1164,1.355,35.973,25.925,32.518,24.485,9.052,6.22,13.284
1165,1.336,36.194,25.681,32.518,24.481,9.176,6.22,13.325
1166,1.336,36.014,25.869,32.508,24.478,9.421,6.261,13.406
1167,1.326,36.166,25.957,32.498,24.478,9.79,6.221,13.367
1168,1.306,36.263,25.724,32.508,24.478,10.281,6.261,13.447
1169,1.293,36.015,25.964,32.508,24.481,10.611,6.18,13.448
1170,1.286,36.108,25.677,32.517,24.481,11.021,6.301,13.367
1171,1.27,36.234,25.869,32.508,24.478,11.472,6.343,13.407
1172,1.254,36.331,25.996,32.508,24.478,11.802,6.262,13.367
1173,1.247,36.102,25.717,32.498,24.478,12.131,6.262,13.366
1174,1.237,36.253,25.897,32.517,24.478,12.541,6.262,13.366
1175,1.234,36.351,25.837,32.508,24.478,12.748,6.302,13.447
1176,1.214,36.457,25.82,32.508,24.471,12.872,6.302,13.408
1177,1.201,36.372,25.941,32.508,24.478,13.117,6.262,13.326
1178,1.194,36.524,25.743,32.489,24.478,13.201,6.343,13.284
1179,1.181,36.631,25.901,32.489,24.474,13.365,6.343,13.284
1180,1.171,36.719,25.938,32.498,24.481,13.407,6.262,13.284
1181,1.152,36.461,25.794,32.498,24.485,13.407,6.302,13.243
1182,1.142,36.573,25.995,32.498,24.481,13.367,6.262,13.324
1183,1.119,36.699,25.713,32.498,24.478,13.366,6.343,13.406
1184,1.106,36.767,25.909,32.489,24.471,13.285,6.343,13.489
1185,1.089,36.701,25.837,32.469,24.481,13.203,6.343,13.53
1186,1.066,36.834,25.824,32.498,24.478,13.202,6.384,13.653
1187,1.056,36.96,25.937,32.508,24.474,12.999,6.385,13.735
1188,1.05,37.0,25.747,32.498,24.474,12.956,6.344,13.776
1189,1.033,36.761,25.936,32.498,24.478,12.793,6.384,13.777
1190,1.027,36.912,25.681,32.498,24.478,12.629,6.344,13.736
1191,1.017,37.019,25.901,32.489,24.478,12.505,6.425,13.776
1192,1.02,37.02,26.008,32.489,24.485,12.504,6.426,13.696
1193,1.01,36.742,25.752,32.508,24.481,12.423,6.385,13.695
1194,0.991,36.864,25.921,32.498,24.478,12.3,6.425,13.735
1195,0.984,36.961,25.735,32.498,24.478,12.258,6.426,13.736
1196,0.974,36.971,25.811,32.498,24.478,12.135,6.426,13.736
1197,0.964,37.019,25.945,32.498,24.478,12.093,6.507,13.776
1198,0.955,37.154,25.786,32.508,24.478,12.093,6.467,13.736
1199,0.941,37.213,25.89,32.489,24.478,12.174,6.507,13.695
1200,0.928,36.792,25.669,32.489,24.478,12.256,6.386,13.695
1201,0.922,36.874,25.92,32.498,24.474,12.339,6.507,13.695
1202,0.909,36.999,25.95,32.498,24.481,12.462,6.508,13.695
1203,0.912,37.106,25.81,32.575,24.478,12.544,6.508,13.776
1204,0.895,36.944,25.941,32.489,24.474,12.667,6.549,13.818
1205,0.886,37.077,25.693,32.508,24.478,12.709,6.549,13.859
1206,0.889,37.231,25.862,32.508,24.478,12.75,6.468,13.94
1207,0.876,37.31,25.914,32.508,24.481,12.75,6.467,13.86
1208,0.869,37.042,25.755,32.498,24.478,12.75,6.507,13.859
1209,0.859,37.193,25.855,32.527,24.485,12.669,6.549,13.859
1210,0.859,37.319,25.684,32.508,24.478,12.587,6.549,13.818
1211,0.853,37.368,25.924,32.508,24.485,12.586,6.59,13.737
1212,0.849,36.937,25.728,32.508,24.478,12.383,6.427,13.695
1213,0.84,37.086,25.862,32.508,24.478,12.34,6.548,13.735
1214,0.849,37.203,25.961,32.498,24.478,12.136,6.468,13.655
1215,0.836,37.213,25.775,32.508,24.474,12.053,6.467,13.735
1216,0.83,37.003,25.921,32.498,24.474,11.971,6.507,13.655
1217,0.823,37.125,25.716,32.508,24.474,11.807,6.508,13.613
1218,0.826,37.232,25.952,32.498,24.478,11.765,6.508,13.572
1219,0.823,37.271,25.9,32.517,24.474,11.602,6.467,13.531
1220,0.804,37.032,25.751,32.518,24.478,11.56,6.467,13.531
1221,0.81,37.164,25.96,32.508,24.474,11.478,6.507,13.49
1222,0.803,37.261,25.716,32.508,24.478,11.436,6.508,13.571
1223,0.797,37.233,25.764,32.517,24.481,11.436,6.508,13.571
1224,0.797,37.079,25.921,32.518,24.478,11.395,6.549,13.653
1225,0.794,37.222,25.743,32.508,24.474,11.558,6.468,13.654
1226,0.787,37.329,25.94,32.508,24.478,11.762,6.426,13.694
1227,0.787,36.937,25.696,32.508,24.471,11.927,6.466,13.654
1228,0.787,37.009,25.944,32.508,24.478,12.132,6.548,13.694
1229,0.79,37.144,25.681,32.508,24.471,12.256,6.508,13.573
1230,0.787,37.27,25.819,32.517,24.474,12.461,6.427,13.612
1231,0.774,36.917,25.961,32.508,24.474,12.585,6.507,13.491
1232,0.774,37.047,25.743,32.508,24.478,12.708,6.549,13.408
1233,0.774,37.174,25.851,32.517,24.478,12.912,6.468,13.407
1234,0.777,37.242,25.934,32.508,24.474,13.199,6.467,13.285
1235,0.78,36.801,25.72,32.508,24.474,13.527,6.507,13.325
1236,0.784,36.941,25.932,32.517,24.478,13.774,6.549,13.366
1237,0.774,37.057,25.696,32.527,24.474,14.021,6.508,13.285
1238,0.777,37.126,25.87,32.518,24.474,14.226,6.508,13.325
1239,0.78,36.81,25.93,32.527,24.481,14.513,6.549,13.244
1240,0.777,36.979,25.728,32.508,24.478,14.638,6.508,13.202
1241,0.774,37.096,25.948,32.527,24.478,14.721,6.508,13.202
1242,0.774,37.126,25.7,32.508,24.485,14.762,6.508,13.202
1243,0.761,36.848,25.741,32.517,24.485,14.763,6.549,13.243
1244,0.754,36.999,25.901,32.518,24.478,14.763,6.508,13.284
1245,0.767,37.115,25.727,32.518,24.474,14.681,6.589,13.365
1246,0.767,37.145,25.901,32.518,24.485,14.64,6.59,13.447
1247,0.761,36.81,25.938,32.527,24.481,14.68,6.59,13.408
1248,0.757,36.951,25.786,32.527,24.478,14.558,6.509,13.448
1249,0.754,37.048,25.917,32.518,24.474,14.516,6.589,13.448
1250,0.757,37.413,25.673,32.527,24.474,14.353,6.549,13.408
1251,0.754,36.851,25.885,32.508,24.471,14.271,6.549,13.326
1252,0.767,36.98,25.961,32.517,24.481,14.229,6.549,13.284
1253,0.761,37.077,25.775,32.518,24.481,14.147,6.63,13.284
1254,0.767,36.761,25.917,32.518,24.474,14.065,6.55,13.284
1255,0.774,36.787,25.696,32.527,24.478,14.024,6.59,13.365
1256,0.774,36.912,25.909,32.518,24.478,13.82,6.631,13.244
1257,0.774,37.0,25.926,32.527,24.474,13.696,6.631,13.243
1258,0.774,36.511,25.821,32.508,24.481,13.532,6.59,13.162
1259,0.777,36.631,25.906,32.527,24.478,13.408,6.549,13.12
1260,0.78,36.776,25.692,32.518,24.481,13.326,6.549,13.12
1261,0.764,36.874,25.92,32.527,24.474,13.162,6.549,13.16
1262,0.764,36.558,25.973,32.518,24.478,12.917,6.59,13.12
1263,0.764,36.727,25.744,32.527,24.485,12.874,6.549,13.201
1264,0.767,36.835,25.933,32.527,24.474,12.751,6.59,13.161
1265,0.761,36.903,25.7,32.518,24.474,12.709,6.59,13.242
1266,0.761,36.549,25.885,32.518,24.478,12.75,6.631,13.284
1267,0.764,36.67,25.954,32.537,24.481,12.709,6.509,13.365
1268,0.761,36.796,25.782,32.508,24.478,12.79,6.508,13.366
1269,0.761,36.855,25.937,32.537,24.471,12.873,6.549,13.285
1270,0.764,36.5,25.669,32.518,24.478,12.873,6.59,13.243
1271,0.77,36.669,25.858,32.537,24.474,12.955,6.509,13.202
1272,0.767,36.767,25.977,32.537,24.478,12.874,6.549,13.202
1273,0.77,36.806,25.681,32.518,24.478,12.833,6.59,13.161
1274,0.764,36.519,25.905,32.527,24.478,12.792,6.468,13.12
1275,0.77,36.66,25.692,32.518,24.471,12.751,6.548,13.201
1276,0.774,36.767,25.858,32.527,24.481,12.75,6.508,13.202
1277,0.78,36.806,25.942,32.527,24.471,12.628,6.549,13.08
1278,0.777,36.49,25.755,32.518,24.471,12.668,6.468,13.119
1279,0.78,36.631,25.894,32.527,24.478,12.627,6.467,12.998
1280,0.784,36.747,25.739,32.518,24.474,12.627,6.548,12.996
1281,0.777,36.48,25.823,32.518,24.474,12.668,6.468,13.037
1282,0.78,36.362,25.98,32.518,24.478,12.546,6.507,13.078
1283,0.78,36.495,25.67,32.527,24.474,12.586,6.549,13.201
1284,0.774,36.583,25.893,32.518,24.478,12.505,6.508,13.202
1285,0.767,36.335,25.934,32.518,24.481,12.585,6.549,13.324
1286,0.783,36.438,25.806,32.508,24.474,12.423,6.508,13.284
1287,0.771,36.592,25.945,32.527,24.478,12.34,6.549,13.406
1288,0.774,36.709,25.681,32.527,24.481,12.217,6.59,13.407
1289,0.764,36.259,25.877,32.527,24.478,12.135,6.509,13.407
1290,0.774,36.418,25.907,32.518,24.478,12.012,6.508,13.367
1291,0.774,36.534,25.762,32.518,24.478,11.93,6.508,13.366
1292,0.78,36.612,25.987,32.527,24.474,11.807,6.508,13.325
1293,0.784,36.038,25.732,32.508,24.478,11.684,6.508,13.325
1294,0.777,36.195,25.815,32.517,24.471,11.56,6.508,13.406
1295,0.78,36.321,25.949,32.527,24.478,11.437,6.549,13.407
1296,0.784,36.399,25.689,32.527,24.474,11.273,6.508,13.367
1297,0.787,36.208,25.881,32.518,24.478,11.19,6.549,13.407
1298,0.78,36.36,25.961,32.518,24.481,11.027,6.468,13.285
1299,0.78,36.457,25.72,32.527,24.474,10.944,6.548,13.406
1300,0.78,36.535,25.901,32.518,24.478,10.781,6.427,13.326
1301,0.78,36.104,25.84,32.518,24.474,10.657,6.548,13.406
1302,0.774,36.234,25.863,32.508,24.474,10.574,6.508,13.407
1303,0.777,36.35,25.86,32.527,24.478,10.492,6.467,13.448
1304,0.764,36.38,25.637,32.527,24.478,10.451,6.507,13.448
1305,0.774,36.189,25.85,32.527,24.478,10.328,6.467,13.53
1306,0.767,36.34,25.945,32.508,24.478,10.205,6.426,13.612
1307,0.754,36.447,25.712,32.517,24.478,10.163,6.426,13.613
1308,0.764,36.439,25.94,32.518,24.478,10.082,6.466,13.613
1309,0.761,36.103,25.689,32.537,24.481,10.04,6.467,13.572
1310,0.767,36.234,25.819,32.527,24.474,9.958,6.345,13.571
1311,0.764,36.341,25.972,32.527,24.478,9.998,6.425,13.571
1312,0.764,36.121,25.74,32.508,24.474,9.836,6.426,13.531
1313,0.764,36.234,25.827,32.546,24.471,9.794,6.426,13.571
1314,0.77,36.36,25.645,32.518,24.481,9.793,6.385,13.571
1315,0.78,36.428,25.857,32.508,24.478,9.671,6.466,13.531
1316,0.777,35.863,25.961,32.537,24.474,9.629,6.345,13.653
1317,0.774,35.963,25.743,32.527,24.478,9.629,6.303,13.613
1318,0.774,36.098,25.983,32.518,24.478,9.507,6.384,13.613
1319,0.78,36.186,25.732,32.556,24.474,9.506,6.344,13.613
1320,0.777,35.928,25.823,32.528,24.478,9.506,6.384,13.572
1321,0.777,36.04,25.992,32.508,24.471,9.425,6.466,13.571
1322,0.771,36.185,25.752,32.517,24.481,9.342,6.467,13.694
1323,0.79,36.283,25.921,32.518,24.481,9.342,6.507,13.695
1324,0.777,35.852,25.677,32.518,24.481,9.301,6.427,13.735
1325,0.774,35.992,25.889,32.518,24.481,9.382,6.507,13.736
1326,0.774,36.127,25.911,32.537,24.481,9.423,6.467,13.776
1327,0.774,36.196,25.739,32.527,24.478,9.464,6.507,13.777
1328,0.774,35.986,25.968,32.518,24.478,9.465,6.467,13.777
1329,0.774,36.127,25.662,32.537,24.478,9.546,6.548,13.696
1330,0.767,36.253,25.803,32.527,24.474,9.588,6.508,13.695
1331,0.764,36.293,25.976,32.518,24.471,9.669,6.467,13.613
1332,0.774,35.871,25.748,32.518,24.478,9.67,6.467,13.572
1333,0.767,35.992,25.831,32.508,24.478,9.711,6.467,13.571
1334,0.774,36.108,25.91,32.517,24.474,9.792,6.467,13.653
1335,0.774,36.244,25.759,32.527,24.474,9.834,6.467,13.532
1336,0.774,35.938,25.944,32.527,24.478,9.916,6.426,13.571
1337,0.777,36.069,25.654,32.518,24.478,9.957,6.507,13.531
1338,0.784,36.186,25.896,32.518,24.478,9.917,6.467,13.449
1339,0.777,35.899,25.922,32.537,24.481,9.916,6.507,13.408
1340,0.784,35.848,25.735,32.508,24.471,9.916,6.467,13.407
1341,0.774,35.992,25.975,32.517,24.478,9.957,6.426,13.367
1342,0.774,36.089,25.72,32.508,24.474,9.876,6.426,13.366
1343,0.774,35.745,25.788,32.508,24.471,9.835,6.426,13.447
1344,0.777,35.885,25.929,32.508,24.474,9.875,6.426,13.53
1345,0.764,35.992,25.712,32.517,24.478,9.835,6.426,13.531
1346,0.761,36.079,25.885,32.518,24.474,9.712,6.466,13.571
1347,0.767,35.706,25.938,32.518,24.474,9.711,6.304,13.653
1348,0.757,35.856,25.782,32.508,24.474,9.711,6.343,13.654
1349,0.757,35.982,25.89,32.527,24.478,9.711,6.343,13.654
1350,0.754,36.06,25.797,32.527,24.474,9.711,6.384,13.654
1351,0.757,35.716,25.82,32.499,24.474,9.752,6.344,13.572
1352,0.754,35.866,25.98,32.517,24.467,9.793,6.384,13.531
1353,0.764,35.982,25.638,32.518,24.478,9.915,6.385,13.571
1354,0.764,36.041,25.85,32.527,24.474,9.916,6.303,13.449
1355,0.774,35.696,25.93,32.518,24.478,9.998,6.343,13.489
1356,0.767,35.846,25.786,32.527,24.478,9.999,6.303,13.49
1357,0.774,35.972,25.941,32.508,24.478,10.08,6.302,13.408
1358,0.774,36.012,25.728,32.508,24.478,10.121,6.302,13.448
1359,0.777,35.725,25.843,32.508,24.478,10.081,6.302,13.408
1360,0.774,35.866,25.836,32.508,24.478,10.081,6.262,13.367
1361,0.767,35.973,25.82,32.517,24.478,10.081,6.262,13.325
1362,0.761,36.012,25.965,32.518,24.478,9.999,6.262,13.447
1363,0.761,35.562,25.65,32.537,24.481,10.08,6.343,13.448
1364,0.767,35.72,25.928,32.518,24.478,10.04,6.262,13.53
1365,0.761,35.827,25.774,32.527,24.478,9.999,6.343,13.571
1366,0.754,35.79,25.824,32.508,24.488,9.836,6.262,13.571
1367,0.754,35.751,25.933,32.527,24.478,9.753,6.221,13.571
1368,0.748,35.876,25.743,32.518,24.478,9.752,6.302,13.612
1369,0.754,35.992,25.866,32.508,24.478,9.671,6.302,13.613
1370,0.751,35.514,25.918,32.527,24.474,9.548,6.302,13.531
1371,0.751,35.595,25.829,32.518,24.478,9.466,6.302,13.449
1372,0.748,35.682,25.965,32.508,24.478,9.424,6.343,13.448
1373,0.744,35.808,25.646,32.508,24.474,9.424,6.303,13.367
1374,0.754,35.406,25.85,32.517,24.478,9.342,6.343,13.447
1375,0.751,35.546,25.941,32.518,24.478,9.179,6.343,13.448
1376,0.754,35.653,25.79,32.527,24.478,9.177,6.343,13.448
1377,0.748,35.769,25.929,32.508,24.474,9.177,6.303,13.489
1378,0.754,35.483,25.708,32.498,24.481,9.096,6.302,13.286
1379,0.751,35.624,25.815,32.508,24.481,9.014,6.343,13.243
1380,0.764,35.769,25.906,32.508,24.478,8.972,6.343,13.202
1381,0.761,35.809,25.778,32.508,24.478,9.013,6.303,13.202
1382,0.748,35.473,25.917,32.508,24.478,8.85,6.343,13.202
1383,0.751,35.633,25.634,32.546,24.485,8.889,6.343,13.283
1384,0.751,35.74,25.846,32.518,24.478,8.849,6.384,13.284
1385,0.744,35.789,25.93,32.527,24.478,8.808,6.344,13.325
1386,0.744,35.492,25.681,32.527,24.478,8.848,6.303,13.203
1387,0.747,35.662,25.889,32.508,24.478,8.849,6.343,13.324
1388,0.734,35.76,25.954,32.508,24.478,8.849,6.343,13.284
1389,0.731,35.799,25.7,32.508,24.478,8.889,6.343,13.284
1390,0.725,35.502,25.932,32.527,24.478,8.93,6.343,13.243
1391,0.734,35.624,25.735,32.518,24.471,9.012,6.303,13.202
1392,0.738,35.721,25.917,32.508,24.478,9.013,6.343,13.08
1393,0.738,36.077,25.845,32.517,24.474,9.054,6.343,12.997
1394,0.734,35.946,25.789,32.518,24.474,9.176,6.343,13.078
1395,0.738,36.088,25.933,32.508,24.474,9.177,6.343,13.038
1396,0.741,36.195,25.661,32.517,24.478,9.421,6.343,13.078
1397,0.734,35.362,25.865,32.518,24.478,9.586,6.343,13.16
1398,0.741,35.277,25.977,32.498,24.478,9.71,6.303,13.08
1399,0.738,35.411,25.697,32.517,24.471,9.874,6.343,13.038
1400,0.754,35.517,25.909,32.508,24.471,9.957,6.343,13.078
1401,0.754,35.576,25.883,32.517,24.478,10.039,6.343,13.119
1402,0.741,35.749,25.817,32.518,24.478,10.08,6.384,13.079
1403,0.754,35.876,25.933,32.518,24.481,10.162,6.385,13.201
1404,0.748,35.963,25.657,32.527,24.481,10.204,6.385,13.202
1405,0.747,35.312,25.869,32.508,24.481,10.163,6.385,13.365
1406,0.741,35.468,25.692,32.517,24.467,10.163,6.385,13.366
1407,0.731,35.614,25.842,32.518,24.478,10.122,6.425,13.488
1408,0.734,35.673,25.976,32.518,24.474,10.122,6.385,13.449
1409,0.751,35.616,25.681,32.527,24.478,10.163,6.385,13.489
1410,0.738,35.769,25.905,32.518,24.478,10.163,6.385,13.49
1411,0.734,35.885,25.93,32.518,24.474,10.204,6.466,13.408
1412,0.738,35.934,25.81,32.498,24.474,10.245,6.507,13.407
1413,0.734,35.484,25.933,32.584,24.478,10.245,6.386,13.407
1414,0.734,35.614,25.7,32.509,24.478,10.204,6.425,13.529
1415,0.731,35.75,25.881,32.517,24.478,10.163,6.385,13.531
1416,0.731,35.789,25.93,32.518,24.478,10.163,6.425,13.531
1417,0.728,35.569,25.829,32.508,24.474,10.163,6.426,13.449
1418,0.731,35.701,25.976,32.517,24.474,10.163,6.426,13.367
1419,0.741,35.798,25.677,32.546,24.478,10.082,6.426,13.325
1420,0.741,35.847,25.92,32.499,24.474,10.081,6.466,13.447
1421,0.725,35.57,25.751,32.508,24.478,9.999,6.426,13.408
1422,0.728,35.711,25.917,32.537,24.474,9.999,6.426,13.448
1423,0.731,35.837,25.907,32.508,24.478,10.039,6.385,13.53
1424,0.734,35.646,25.786,32.508,24.474,10.121,6.466,13.531
1425,0.728,35.616,25.952,32.517,24.474,10.284,6.345,13.571
1426,0.721,35.759,25.708,32.518,24.481,10.327,6.466,13.612
1427,0.724,35.876,25.928,32.518,24.481,10.49,6.386,13.613
1428,0.721,35.637,25.689,32.527,24.478,10.491,6.344,13.653
1429,0.721,35.74,25.807,32.537,24.474,10.654,6.425,13.613
1430,0.724,35.885,25.84,32.499,24.481,10.737,6.385,13.613
1431,0.724,35.963,25.805,32.527,24.481,10.738,6.385,13.45
1432,0.731,35.609,25.96,32.508,24.474,10.657,6.385,13.408
1433,0.725,35.74,25.63,32.517,24.478,10.778,6.385,13.367
1434,0.724,35.866,25.873,32.518,24.481,10.738,6.425,13.366
1435,0.721,35.944,25.934,32.527,24.474,10.738,6.385,13.366
1436,0.721,35.619,25.774,32.527,24.471,10.738,6.344,13.366
1437,0.721,35.759,25.937,32.518,24.478,10.657,6.384,13.244
1438,0.728,35.876,25.72,32.518,24.474,10.615,6.344,13.284
1439,0.728,35.954,25.811,32.527,24.478,10.493,6.343,13.162
1440,0.725,35.686,25.902,32.508,24.478,10.451,6.384,13.202
1441,0.728,35.856,25.813,32.517,24.478,10.41,6.385,13.08
1442,0.721,35.944,25.949,32.508,24.481,10.328,6.344,13.119
1443,0.724,36.021,25.677,32.527,24.474,10.246,6.343,13.242
1444,0.718,35.85,25.889,32.518,24.474,10.245,6.343,13.284
1445,0.718,35.982,25.68,32.527,24.481,10.164,6.343,13.325
1446,0.715,36.118,25.842,32.537,24.471,10.041,6.343,13.366
1447,0.715,36.138,25.937,32.518,24.478,10.04,6.303,13.407
1448,0.715,35.86,25.708,32.527,24.478,9.958,6.262,13.407
1449,0.711,35.973,25.846,32.527,24.478,9.835,6.302,13.367
1450,0.715,36.098,25.692,32.537,24.485,9.712,6.302,13.407
1451,0.721,36.08,25.834,32.527,24.474,9.67,6.343,13.367
1452,0.715,35.85,25.949,32.518,24.478,9.589,6.303,13.244
1453,0.708,35.972,25.634,32.518,24.478,9.507,6.262,13.365
1454,0.711,36.079,25.846,32.537,24.474,9.425,6.18,13.285
1455,0.721,35.86,25.696,32.518,24.478,9.342,6.261,13.325
1456,0.721,35.934,25.905,32.537,24.467,9.219,6.343,13.284
1457,0.728,36.079,25.727,32.537,24.471,9.096,6.303,13.243
1458,0.721,36.176,25.913,32.508,24.478,9.014,6.302,13.121
1459,0.721,35.813,25.891,32.517,24.478,9.054,6.302,13.079
1460,0.721,35.934,25.786,32.527,24.478,8.932,6.302,13.16
1461,0.721,36.05,25.96,32.527,24.478,8.931,6.262,13.202
1462,0.715,36.147,25.751,32.527,24.474,8.809,6.302,13.283
1463,0.718,35.899,25.921,32.537,24.474,8.848,6.302,13.284
1464,0.721,36.03,25.688,32.527,24.478,8.849,6.262,13.365
1465,0.715,36.176,25.905,32.537,24.474,8.849,6.262,13.407
1466,0.721,36.244,25.938,32.508,24.474,9.011,6.302,13.407
1467,0.724,35.9,25.79,32.517,24.481,9.094,6.221,13.448
1468,0.721,36.03,25.956,32.518,24.474,9.095,6.261,13.448
1469,0.724,36.166,25.724,32.537,24.474,9.176,6.262,13.489
1470,0.724,36.215,25.909,32.537,24.478,9.177,6.302,13.367
1471,0.721,35.89,25.852,32.527,24.478,9.177,6.262,13.366
1472,0.721,36.03,25.867,32.527,24.471,9.137,6.302,13.366
1473,0.721,36.137,25.871,32.527,24.481,9.136,6.302,13.244
1474,0.715,36.186,25.676,32.527,24.474,9.136,6.262,13.324
1475,0.728,35.937,25.905,32.518,24.478,9.095,6.262,13.366
1476,0.728,36.079,25.645,32.518,24.481,9.095,6.302,13.325
1477,0.721,36.176,25.834,32.527,24.478,9.014,6.302,13.284
1478,0.728,36.503,25.965,32.518,24.478,8.972,6.302,13.243
1479,0.725,35.845,25.697,32.537,24.478,9.013,6.221,13.284
1480,0.718,35.982,25.897,32.537,24.478,8.932,6.342,13.203
1481,0.721,36.079,25.751,32.518,24.481,8.972,6.262,13.161
1482,0.721,35.956,25.925,32.518,24.481,9.013,6.221,13.161
1483,0.718,36.021,25.712,32.527,24.474,8.972,6.302,13.202
1484,0.715,36.147,25.815,32.527,24.478,9.013,6.302,13.243
1485,0.711,36.244,25.961,32.527,24.478,9.013,6.343,13.365
1486,0.711,35.871,25.747,32.518,24.471,8.972,6.303,13.366
1487,0.711,36.011,25.936,32.537,24.471,9.013,6.343,13.285
1488,0.708,36.128,25.681,32.527,24.478,9.054,6.303,13.365
1489,0.711,36.225,25.869,32.546,24.481,9.013,6.302,13.407
1490,0.708,35.804,25.922,32.537,24.478,8.932,6.343,13.245
1491,0.715,35.953,25.774,32.527,24.478,8.89,6.303,13.284
1492,0.718,36.06,25.984,32.527,24.478,8.93,6.302,13.284
1493,0.708,36.138,25.642,32.546,24.478,8.931,6.343,13.243
1494,0.705,35.784,25.861,32.527,24.481,8.972,6.343,13.284
1495,0.711,35.924,25.906,32.527,24.471,9.216,6.343,13.325
1496,0.724,36.05,25.798,32.518,24.474,9.747,6.343,13.366
1497,0.715,36.118,25.949,32.527,24.485,10.281,6.303,13.366
1498,0.728,35.937,25.685,32.527,24.471,10.774,6.343,13.285
1499,0.731,36.06,25.803,32.518,24.478,11.267,6.221,13.325
1500,0.721,36.205,25.933,32.527,24.471,11.841,6.261,13.366
1501,0.724,36.225,25.708,32.537,24.474,12.131,6.302,13.366
1502,0.718,35.9,25.917,32.527,24.478,12.541,6.343,13.407
1503,0.728,36.04,25.603,32.527,24.478,12.789,6.303,13.448
1504,0.721,36.166,25.802,32.527,24.478,12.873,6.262,13.489
1505,0.721,36.177,25.957,32.518,24.474,12.995,6.302,13.53
1506,0.702,35.947,25.712,32.527,24.471,13.2,6.302,13.612
1507,0.705,36.079,25.909,32.537,24.471,13.202,6.343,13.613
1508,0.708,36.186,25.911,32.537,24.474,13.202,6.303,13.653
1509,0.708,36.033,25.7,32.547,24.478,13.243,6.262,13.572
1510,0.705,35.917,25.905,32.527,24.478,13.284,6.302,13.531
1511,0.711,36.05,25.727,32.537,24.478,13.243,6.343,13.531
1512,0.705,36.147,25.897,32.518,24.478,13.202,6.262,13.49
1513,0.711,35.822,25.918,32.585,24.478,13.121,6.384,13.449
1514,0.708,35.934,25.747,32.547,24.471,13.039,6.385,13.448
1515,0.715,36.06,25.944,32.547,24.481,12.997,6.507,13.408
1516,0.721,36.147,25.759,32.527,24.478,12.834,6.467,13.367
1517,0.718,35.717,25.937,32.537,24.481,12.792,6.548,13.325
1518,0.724,35.837,25.72,32.518,24.478,12.629,6.59,13.244
1519,0.724,35.982,25.874,32.518,24.471,12.464,6.631,13.243
1520,0.731,36.06,25.727,32.518,24.481,12.422,6.712,13.202
1521,0.725,36.186,25.874,32.527,24.481,12.178,6.713,13.202
1522,0.718,36.302,25.899,32.537,24.474,12.053,6.794,13.243
1523,0.711,36.447,25.735,32.518,24.478,11.889,6.917,13.324
1524,0.711,36.515,25.932,32.527,24.471,11.806,6.837,13.366
1525,0.715,35.596,25.692,32.537,24.474,11.643,6.877,13.447
1526,0.711,35.749,25.87,32.508,24.481,11.479,6.959,13.448
1527,0.708,35.876,25.93,32.527,24.471,11.396,6.919,13.448
1528,0.702,35.944,25.731,32.527,24.478,11.232,6.959,13.53
1529,0.708,35.83,25.886,32.518,24.474,11.149,7.041,13.571
1530,0.705,35.982,25.758,32.527,24.474,11.026,7.001,13.531
1531,0.715,36.089,25.808,32.527,24.478,10.903,7.082,13.531
1532,0.711,36.119,25.921,32.537,24.478,10.739,7.002,13.531
1533,0.708,35.668,25.688,32.537,24.481,10.616,7.082,13.571
1534,0.711,35.798,25.885,32.527,24.471,10.493,7.123,13.612
1535,0.715,35.914,25.669,32.527,24.474,10.451,7.124,13.572
1536,0.711,36.136,25.822,32.527,24.478,10.328,7.124,13.612
1537,0.718,35.947,25.949,32.527,24.478,10.165,7.165,13.572
1538,0.724,36.069,25.739,32.518,24.478,10.163,7.206,13.612
1539,0.721,36.166,25.843,32.527,24.481,10.163,7.165,13.531
1540,0.721,35.707,25.656,32.518,24.485,10.122,7.165,13.531
1541,0.718,35.741,25.916,32.518,24.481,10.081,7.124,13.571
1542,0.721,35.875,25.7,32.537,24.481,10.203,7.124,13.571
1543,0.695,35.973,25.807,32.547,24.474,10.123,7.165,13.653
1544,0.711,35.724,25.882,32.518,24.474,10.203,7.124,13.694
1545,0.721,35.856,25.723,32.527,24.478,10.163,7.165,13.817
1546,0.728,35.992,25.936,32.527,24.474,10.163,7.165,13.859
1547,0.721,36.108,25.661,32.527,24.474,10.122,7.165,13.778
1548,0.715,35.639,25.912,32.518,24.478,10.081,7.084,13.858
1549,0.721,35.788,25.876,32.527,24.471,10.121,7.123,13.818
1550,0.715,35.924,25.719,32.527,24.478,10.122,7.124,13.777
1551,0.724,36.002,25.94,32.518,24.474,10.081,7.246,13.736
1552,0.724,35.61,25.763,32.527,24.471,10.081,7.166,13.695
1553,0.695,35.759,25.792,32.546,24.478,10.162,7.206,13.695
1554,0.721,35.885,25.882,32.527,24.478,10.082,7.165,13.654
1555,0.721,35.944,25.751,32.537,24.481,10.04,7.165,13.694
1556,0.728,35.609,25.929,32.527,24.478,10.08,7.165,13.695
1557,0.725,35.769,25.689,32.527,24.471,9.999,7.206,13.735
1558,0.728,35.866,25.893,32.527,24.478,9.999,7.287,13.614
1559,0.715,35.915,25.926,32.546,24.478,10.039,7.207,13.653
1560,0.728,35.637,25.696,32.527,24.481,9.999,7.247,13.694
1561,0.721,35.779,25.971,32.537,24.471,9.917,7.247,13.613
1562,0.715,35.895,25.673,32.518,24.478,9.957,7.288,13.572
1563,0.708,35.915,25.826,32.527,24.481,9.876,7.166,13.653
1564,0.711,35.685,25.902,32.527,24.478,9.753,7.206,13.694
1565,0.708,35.817,25.801,32.527,24.474,9.793,7.247,13.695
1566,0.708,35.934,25.914,32.527,24.478,9.753,7.247,13.776
1567,0.705,35.657,25.681,32.527,24.485,9.833,7.206,13.777
1568,0.708,35.616,25.885,32.546,24.478,9.753,7.287,13.818
1569,0.705,35.75,25.895,32.566,24.474,9.752,7.207,13.737
1570,0.711,35.856,25.7,32.547,24.474,9.712,7.287,13.695
1571,0.718,35.579,25.944,32.527,24.478,9.711,7.288,13.695
1572,0.721,35.682,25.716,32.527,24.481,9.63,7.247,13.613
1573,0.705,35.827,25.85,32.556,24.478,9.588,7.288,13.613
1574,0.718,35.905,25.906,32.528,24.474,9.629,7.288,13.613
1575,0.731,35.436,25.751,32.508,24.481,9.588,7.329,13.613
1576,0.731,35.575,25.921,32.537,24.471,9.466,7.289,13.653
1577,0.741,35.73,25.712,32.527,24.478,9.424,7.329,13.572
1578,0.747,35.799,25.862,32.527,24.474,9.464,7.289,13.531
1579,0.751,35.425,25.945,32.546,24.478,9.546,7.369,13.449
1580,0.751,35.585,25.673,32.547,24.474,9.628,7.33,13.489
1581,0.764,35.711,25.908,32.518,24.478,9.71,7.329,13.53
1582,0.751,35.779,25.895,32.537,24.478,9.711,7.289,13.449
1583,0.761,35.454,25.77,32.537,24.478,9.874,7.369,13.489
1584,0.757,35.604,25.913,32.527,24.478,9.916,7.33,13.571
1585,0.754,35.721,25.716,32.527,24.474,9.998,7.289,13.653
1586,0.767,35.77,25.885,32.518,24.474,9.999,7.288,13.694
1587,0.764,35.502,25.688,32.527,24.478,10.039,7.369,13.735
1588,0.77,35.633,25.885,32.537,24.478,10.08,7.33,13.736
1589,0.783,35.759,25.895,32.547,24.474,10.121,7.329,13.614
1590,0.8,35.799,25.68,32.527,24.474,10.284,7.329,13.572
1591,0.797,35.445,25.932,32.537,24.478,10.245,7.329,13.531
1592,0.803,35.594,25.751,32.527,24.478,10.326,7.289,13.449
1593,0.803,35.711,25.788,32.575,24.474,10.286,7.369,13.367
1594,0.813,35.635,25.91,32.537,24.474,10.367,7.248,13.447
1595,0.8,35.472,25.743,32.518,24.478,10.328,7.247,13.448
1596,0.803,35.585,25.913,32.527,24.478,10.327,7.247,13.448
1597,0.813,35.701,25.645,32.546,24.474,10.286,7.206,13.489
1598,0.823,35.338,25.865,32.547,24.481,10.286,7.165,13.367
1599,0.81,35.44,25.914,32.537,24.474,10.286,7.165,13.366
1600,0.813,35.575,25.723,32.527,24.478,10.205,7.165,13.366
1601,0.813,35.663,25.979,32.537,24.478,10.163,7.124,13.285
1602,0.81,35.338,25.697,32.537,24.474,10.041,7.165,13.284
1603,0.813,35.478,25.76,32.547,24.478,10.08,7.124,13.325
1604,0.816,35.614,25.933,32.527,24.478,9.918,7.083,13.447
1605,0.794,35.692,25.685,32.546,24.474,9.957,7.042,13.408
1606,0.79,35.223,25.866,32.537,24.478,9.835,7.123,13.448
1607,0.8,35.391,25.922,32.537,24.474,9.753,7.043,13.489
1608,0.79,35.517,25.786,32.537,24.474,9.712,7.082,13.53
1609,0.784,35.595,25.921,32.604,24.478,9.589,7.002,13.571
1610,0.761,35.395,25.708,32.538,24.478,9.507,7.041,13.531
1611,0.761,35.527,25.885,32.537,24.474,9.425,7.001,13.49
1612,0.748,35.643,25.903,32.527,24.478,9.424,7.041,13.49
1613,0.747,35.712,25.665,32.537,24.471,9.261,6.96,13.408
1614,0.741,35.242,25.854,32.537,24.478,9.178,7.041,13.407
1615,0.741,35.391,25.906,32.527,24.474,9.096,6.96,13.489
1616,0.738,35.498,25.735,32.537,24.474,9.095,6.96,13.53
1617,0.738,35.557,25.929,32.537,24.474,8.973,6.96,13.571
1618,0.757,35.289,25.728,32.537,24.471,8.931,6.96,13.49
1619,0.757,35.43,25.796,32.547,24.481,8.89,7.041,13.449
1620,0.764,35.546,25.886,32.537,24.474,8.809,6.92,13.53
1621,0.77,35.893,25.801,32.547,24.471,8.808,6.878,13.449
1622,0.767,35.35,25.941,32.547,24.478,8.726,6.918,13.53
1623,0.764,35.488,25.618,32.547,24.481,8.726,6.878,13.571
1624,0.783,35.595,25.849,32.537,24.474,8.644,6.877,13.571
1625,0.787,35.289,25.902,32.537,24.474,8.603,6.877,13.653
1626,0.797,35.315,25.774,32.537,24.481,8.562,6.837,13.694
1627,0.794,35.469,25.913,32.537,24.478,8.602,6.877,13.613
1628,0.79,35.556,25.7,32.537,24.464,8.48,6.796,13.694
1629,0.787,35.241,25.811,32.547,24.478,8.52,6.836,13.695
1630,0.78,35.381,25.91,32.547,24.478,8.439,6.796,13.695
1631,0.787,35.508,25.755,32.547,24.478,8.438,6.755,13.532
1632,0.79,35.585,25.94,32.537,24.481,8.438,6.795,13.571
1633,0.78,35.155,25.786,32.556,24.474,8.316,6.795,13.571
1634,0.78,35.304,25.769,32.556,24.471,8.356,6.836,13.571
1635,0.78,35.42,25.894,32.537,24.478,8.356,6.755,13.571
1636,0.774,35.489,25.669,32.547,24.474,8.356,6.754,13.531
1637,0.767,35.183,25.889,32.537,24.478,8.315,6.795,13.571
1638,0.774,35.333,25.93,32.537,24.481,8.356,6.795,13.49
1639,0.774,35.449,25.724,32.527,24.478,8.356,6.673,13.367
1640,0.784,35.527,25.905,32.527,24.478,8.275,6.794,13.488
1641,0.777,35.221,25.751,32.546,24.478,8.274,6.714,13.449
1642,0.79,35.372,25.944,32.547,24.478,8.314,6.754,13.489
1643,0.774,35.488,25.817,32.556,24.478,8.315,6.714,13.49
1644,0.767,35.547,25.765,32.537,24.478,8.274,6.754,13.611
1645,0.767,35.145,25.929,32.537,24.474,8.233,6.673,13.653
1646,0.757,35.285,25.7,32.547,24.478,8.314,6.672,13.735
1647,0.761,35.42,25.877,32.547,24.474,8.274,6.753,13.573
1648,0.751,35.431,25.891,32.556,24.478,8.274,6.714,13.653
1649,0.751,35.278,25.786,32.556,24.474,8.233,6.713,13.654
1650,0.751,35.411,25.91,32.556,24.478,8.273,6.713,13.572
1651,0.757,35.527,25.681,32.547,24.474,8.274,6.713,13.571
1652,0.764,35.308,25.932,32.537,24.474,8.314,6.672,13.449
1653,0.764,35.219,25.86,32.566,24.474,8.193,6.753,13.448
1654,0.757,35.352,25.785,32.547,24.474,8.232,6.673,13.408
1655,0.748,35.469,25.925,32.566,24.478,8.233,6.672,13.489
1656,0.751,35.067,25.661,32.566,24.474,8.273,6.713,13.408
1657,0.751,35.178,25.811,32.547,24.481,8.274,6.713,13.367
1658,0.757,35.304,25.953,32.556,24.474,8.193,6.632,13.244
1659,0.751,35.411,25.638,32.547,24.478,8.192,6.672,13.284
1660,0.738,35.067,25.869,32.537,24.478,8.273,6.631,13.243
1661,0.728,35.217,25.704,32.556,24.478,8.193,6.631,13.284
1662,0.718,35.362,25.862,32.547,24.474,8.192,6.631,13.365
1663,0.724,35.45,25.852,32.566,24.478,8.232,6.631,13.407
1664,0.718,35.096,25.789,32.556,24.474,8.111,6.631,13.407
1665,0.711,35.246,25.953,32.547,24.471,8.109,6.631,13.489
1666,0.711,35.362,25.704,32.547,24.474,8.191,6.631,13.611
1667,0.708,35.45,25.913,32.547,24.474,8.192,6.631,13.653
1668,0.702,35.211,25.884,32.547,24.474,8.273,6.631,13.694
1669,0.718,35.362,25.747,32.547,24.478,8.314,6.59,13.573
1670,0.721,35.507,25.905,32.556,24.474,8.356,6.631,13.571
1671,0.708,35.547,25.708,32.547,24.474,8.437,6.59,13.531
1672,0.695,35.145,25.874,32.537,24.471,8.397,6.549,13.531
1673,0.692,35.275,25.875,32.556,24.474,8.356,6.63,13.571
1674,0.695,35.391,25.688,32.556,24.478,8.315,6.55,13.49
1675,0.695,35.431,25.909,32.575,24.474,8.396,6.549,13.49
1676,0.695,35.115,25.681,32.547,24.471,8.438,6.63,13.53
1677,0.688,35.246,25.858,32.556,24.478,8.397,6.631,13.531
1678,0.695,35.353,25.867,32.547,24.478,8.438,6.631,13.449
1679,0.695,35.421,25.743,32.537,24.474,8.357,6.631,13.367
1680,0.698,35.201,25.901,32.547,24.478,8.397,6.509,13.325
1681,0.688,35.333,25.712,32.556,24.478,8.438,6.63,13.325
1682,0.695,35.449,25.905,32.556,24.481,8.357,6.631,13.366
1683,0.695,35.096,25.805,32.575,24.474,8.315,6.631,13.366
1684,0.695,35.179,25.765,32.576,24.478,8.315,6.55,13.488
1685,0.688,35.275,25.925,32.547,24.474,8.396,6.549,13.571
1686,0.695,35.391,25.653,32.556,24.478,8.316,6.59,13.612
1687,0.692,35.009,25.822,32.575,24.474,8.315,6.631,13.613
1688,0.688,35.13,25.949,32.566,24.485,8.356,6.631,13.653
1689,0.685,35.294,25.767,32.537,24.471,8.275,6.712,13.654
1690,0.688,35.363,25.917,32.566,24.474,8.314,6.591,13.613
1691,0.685,35.038,25.677,32.556,24.474,8.274,6.549,13.613
1692,0.688,35.168,25.873,32.556,24.474,8.274,6.549,13.613
1693,0.698,35.323,25.914,32.556,24.478,8.274,6.549,13.653
1694,0.698,35.401,25.681,32.556,24.478,8.274,6.63,13.613
1695,0.701,35.028,25.901,32.556,24.474,8.193,6.55,13.613
1696,0.708,35.197,25.813,32.566,24.478,8.151,6.59,13.694
1697,0.711,35.314,25.761,32.566,24.474,8.15,6.631,13.654
1698,0.711,35.353,25.964,32.566,24.478,8.11,6.672,13.572
1699,0.721,35.018,25.673,32.585,24.474,8.069,6.672,13.612
1700,0.715,35.149,25.893,32.566,24.474,7.987,6.672,13.613
1701,0.718,35.285,25.93,32.556,24.478,7.946,6.591,13.572
1702,0.718,35.315,25.806,32.575,24.474,7.986,6.671,13.531
1703,0.705,35.066,25.847,32.585,24.478,7.905,6.591,13.693
1704,0.708,35.197,25.664,32.576,24.481,7.863,6.59,13.613
1705,0.702,35.324,25.83,32.566,24.478,7.944,6.59,13.694
1706,0.705,35.401,25.937,32.566,24.481,7.864,6.549,13.654
1707,0.695,35.095,25.72,32.566,24.478,7.863,6.63,13.735
1708,0.705,35.236,25.964,32.566,24.471,7.904,6.59,13.817
1709,0.685,35.353,25.638,32.576,24.474,7.945,6.59,13.777
1710,0.685,35.181,25.885,32.585,24.478,7.864,6.549,13.736
1711,0.688,35.199,25.719,32.557,24.471,7.822,6.549,13.736
1712,0.695,35.333,25.803,32.556,24.471,7.863,6.63,13.655
1713,0.692,35.449,25.882,32.604,24.478,7.782,6.468,13.694
1714,0.708,35.038,25.653,32.566,24.485,7.781,6.507,13.695
1715,0.708,35.159,25.877,32.556,24.474,7.822,6.549,13.695
1716,0.705,35.294,25.676,32.556,24.474,7.741,6.468,13.695
1717,0.705,35.392,25.815,32.575,24.474,7.821,6.548,13.613
1718,0.708,35.047,25.949,32.576,24.474,7.7,6.549,13.531
1719,0.711,35.197,25.677,32.566,24.474,7.78,6.508,13.571
1720,0.731,35.324,25.846,32.566,24.485,7.618,6.508,13.49
1721,0.744,35.401,25.945,32.566,24.474,7.617,6.549,13.449
1722,0.757,34.971,25.755,32.556,24.474,7.617,6.549,13.53
1723,0.787,35.129,25.894,32.566,24.481,7.535,6.508,13.571
1724,0.797,35.275,25.708,32.566,24.478,7.453,6.589,13.531
1725,0.813,35.334,25.928,32.566,24.478,7.493,6.549,13.612
1726,0.836,35.037,25.689,32.556,24.485,7.453,6.549,13.572
1727,0.859,35.188,25.803,32.556,24.478,7.371,6.59,13.531
1728,0.892,35.333,25.957,32.566,24.471,7.37,6.59,13.571
1729,0.938,35.373,25.697,32.576,24.481,7.33,6.59,13.449
1730,0.964,35.047,25.889,32.566,24.474,7.289,6.549,13.448
1731,1.01,35.197,25.7,32.576,24.478,7.247,6.508,13.408
1732,1.066,35.285,25.835,32.576,24.471,7.206,6.589,13.367
1733,1.115,35.334,25.922,32.633,24.471,7.165,6.549,13.325
1734,1.181,35.287,25.688,32.557,24.478,7.206,6.468,13.284
1735,1.246,35.42,25.901,32.575,24.474,7.165,6.589,13.284
1736,1.335,35.527,25.833,32.585,24.478,7.084,6.468,13.365
1737,1.417,35.298,25.789,32.566,24.471,7.083,6.548,13.325
1738,1.509,35.046,25.953,32.566,24.478,7.083,6.59,13.366
1739,1.581,35.159,25.681,32.566,24.478,6.961,6.509,13.285
1740,1.644,35.285,25.889,32.585,24.478,7.0,6.549,13.284
1741,1.7,35.046,25.723,32.566,24.481,6.96,6.468,13.203
1742,1.746,35.159,25.874,32.576,24.474,7.041,6.426,13.202
1743,1.785,35.304,25.907,32.643,24.474,6.96,6.507,13.202
1744,1.834,35.411,25.72,32.576,24.478,6.919,6.508,13.243
1745,1.854,35.038,25.932,32.566,24.478,6.878,6.467,13.324
1746,1.877,35.168,25.798,32.566,24.474,6.877,6.548,13.284
1747,1.904,35.333,25.8,32.566,24.481,6.796,6.508,13.325
1748,1.933,35.392,25.96,32.566,24.474,6.836,6.549,13.366
1749,1.963,34.971,25.654,32.576,24.478,6.796,6.508,13.244
1750,1.983,35.12,25.857,32.566,24.478,6.755,6.467,13.284
1751,2.022,35.236,25.914,32.566,24.481,6.754,6.467,13.203
1752,2.003,35.305,25.817,32.576,24.478,6.836,6.467,13.202
1753,1.95,35.037,25.91,32.633,24.478,6.714,6.386,13.283
1754,1.859,35.178,25.813,32.586,24.478,6.672,6.466,13.284
1755,1.78,35.285,25.918,32.585,24.478,6.672,6.467,13.447
1756,1.62,35.353,25.696,32.605,24.474,6.631,6.426,13.367
1757,1.4,35.143,25.85,32.586,24.478,6.631,6.426,13.366
1758,1.213,35.285,25.945,32.566,24.478,6.55,6.426,13.529
1759,1.042,35.401,25.732,32.576,24.481,6.549,6.466,13.571
1760,0.916,35.46,25.905,32.576,24.478,6.59,6.426,13.775
1761,0.804,35.019,25.692,32.585,24.474,6.509,6.385,14.021
1762,0.683,35.159,25.795,32.576,24.481,6.467,6.344,14.308
1763,0.558,35.294,25.89,32.585,24.471,6.467,6.506,14.636
1764,0.453,35.545,25.743,32.585,24.481,6.386,6.386,14.843
1765,0.331,35.145,25.921,32.576,24.478,6.425,6.425,14.967
1766,0.229,35.285,25.649,32.585,24.474,6.426,6.385,15.293
1767,0.137,35.392,25.818,32.595,24.474,6.426,6.303,15.378
1768,0.055,35.086,25.953,32.585,24.471,6.344,6.302,15.582
1769,0.005,35.121,25.728,32.633,24.481,6.343,6.302,15.747
1770,-0.06,35.256,25.87,32.595,24.478,6.343,6.384,15.87
1771,-0.097,35.353,25.875,32.585,24.478,6.262,6.385,15.912
1772,-0.113,35.009,25.762,32.576,24.474,6.262,6.303,15.953
1773,-0.126,35.159,25.89,32.595,24.471,6.302,6.384,15.913
1774,-0.113,35.275,25.653,32.585,24.478,6.18,6.385,15.912
1775,-0.068,35.372,25.869,32.585,24.478,6.22,6.303,15.831
1776,-0.019,35.028,25.907,32.595,24.474,6.22,6.343,16.033
1777,0.041,35.168,25.739,32.595,24.481,6.22,6.384,15.995
1778,0.083,35.304,25.972,32.585,24.481,6.139,6.303,16.117
1779,0.142,35.373,25.689,32.576,24.478,6.138,6.302,16.158
1780,0.195,35.038,25.87,32.595,24.478,6.098,6.302,16.24
1781,0.251,35.178,25.949,32.576,24.478,6.138,6.343,16.241
1782,0.313,35.304,25.728,32.595,24.481,6.016,6.343,16.363
1783,0.382,35.382,25.905,32.585,24.474,6.015,6.221,16.649
1784,0.458,35.086,25.692,32.595,24.478,6.056,6.302,17.018
1785,0.527,35.236,25.873,32.605,24.478,6.056,6.302,17.346
1786,0.57,35.372,25.918,32.605,24.478,6.015,6.221,17.553
1787,0.622,35.402,25.688,32.595,24.478,5.974,6.302,17.799
1788,0.662,35.086,25.936,32.605,24.478,5.974,6.302,18.168
1789,0.688,35.236,25.638,32.595,24.478,5.974,6.262,18.293
1790,0.714,35.353,25.779,32.595,24.471,5.933,6.262,18.498
1791,0.747,35.363,25.96,32.595,24.474,5.974,6.302,18.622
1792,0.76,35.105,25.743,32.595,24.478,5.974,6.302,18.623
1793,0.774,35.255,25.815,32.605,24.474,5.974,6.302,18.745
1794,0.78,35.362,25.886,32.605,24.478,5.852,6.302,18.746
1795,0.787,35.181,25.79,32.595,24.478,5.932,6.221,18.665
1796,0.797,35.17,25.91,32.605,24.481,5.811,6.22,18.542
1797,0.81,35.314,25.696,32.595,24.478,5.891,6.261,18.459
1798,0.816,35.411,25.924,32.585,24.478,5.811,6.302,18.174
1799,0.816,35.0,25.833,32.595,24.474,5.81,6.262,18.049
1800,0.807,35.101,25.754,32.605,24.474,5.891,6.18,17.885
1801,0.813,35.236,25.948,32.595,24.478,5.811,6.261,17.802
1802,0.807,35.324,25.657,32.624,24.481,5.81,6.221,17.72
1803,0.81,35.047,25.834,32.605,24.481,5.769,6.261,17.638
1804,0.81,35.188,25.894,32.614,24.485,5.768,6.221,17.434
1805,0.813,35.314,25.704,32.605,24.471,5.728,6.22,17.31
1806,0.813,35.411,25.881,32.614,24.481,5.85,6.22,17.187
1807,0.813,35.105,25.719,32.586,24.478,5.729,6.22,17.104
1808,0.82,35.246,25.839,32.595,24.485,5.809,6.139,17.063
1809,0.82,35.391,25.922,32.614,24.478,5.85,6.179,16.859
1810,0.826,35.441,25.657,32.614,24.478,5.729,6.139,16.694
1811,0.817,35.096,25.908,32.595,24.478,5.687,6.098,16.489
1812,0.82,35.227,25.665,32.605,24.474,5.687,6.097,16.365
1813,0.813,35.353,25.815,32.605,24.478,5.646,6.138,16.161
1814,0.82,35.421,25.933,32.605,24.478,5.645,6.179,15.996
1815,0.826,35.028,25.712,32.595,24.474,5.727,6.139,15.954
1816,0.83,35.178,25.905,32.624,24.478,5.605,6.179,15.831
1817,0.817,35.314,25.641,32.614,24.478,5.686,6.22,15.668
1818,0.839,35.325,25.873,32.605,24.481,5.687,6.139,15.503
1819,0.836,35.095,25.91,32.614,24.478,5.727,6.138,15.38
1820,0.833,35.207,25.743,32.595,24.485,5.605,6.219,15.256
1821,0.836,35.333,25.968,32.605,24.478,5.645,6.18,15.174
1822,0.836,35.373,25.623,32.605,24.478,5.605,6.22,15.011
1823,0.839,35.201,25.865,32.605,24.474,5.686,6.18,14.968
1824,0.843,35.333,25.641,32.605,24.478,5.687,6.179,14.968
1825,0.839,35.478,25.818,32.605,24.474,5.646,6.22,14.887
1826,0.836,35.029,25.91,32.605,24.481,5.645,6.18,14.804
1827,0.836,35.072,25.704,32.605,24.478,5.727,6.179,14.681
1828,0.83,35.236,25.893,32.605,24.474,5.646,6.22,14.68
1829,0.83,35.295,25.93,32.653,24.474,5.645,6.18,14.558
1830,0.836,35.037,25.743,32.605,24.478,5.645,6.22,14.435
1831,0.836,35.159,25.972,32.605,24.478,5.605,6.22,14.312
1832,0.849,35.304,25.63,32.586,24.478,5.564,6.261,14.229
1833,0.846,35.392,25.791,32.614,24.481,5.563,6.18,14.269
1834,0.849,34.932,25.894,32.614,24.474,5.563,6.22,14.188
1835,0.859,35.091,25.712,32.624,24.478,5.563,6.22,14.228
1836,0.859,35.227,25.928,32.614,24.471,5.563,6.18,14.107
1837,0.872,35.295,25.673,32.614,24.474,5.563,6.139,14.187
1838,0.872,35.075,25.838,32.605,24.478,5.563,6.26,13.984
1839,0.872,35.207,25.91,32.624,24.474,5.563,6.18,14.063
1840,0.866,35.343,25.673,32.614,24.481,5.523,6.22,14.064
1841,0.856,35.392,25.877,32.614,24.474,5.522,6.18,13.983
1842,0.862,34.951,25.805,32.614,24.474,5.603,6.179,14.023
1843,0.869,35.11,25.715,32.614,24.478,5.564,6.22,14.105
1844,0.869,35.236,25.901,32.614,24.471,5.523,6.261,14.024
1845,0.872,35.266,25.645,32.605,24.478,5.603,6.139,14.145
1846,0.866,35.094,25.807,32.614,24.478,5.523,6.219,14.106
1847,0.866,35.255,25.918,32.624,24.481,5.563,6.18,14.105
1848,0.872,35.353,25.739,32.634,24.471,5.563,6.179,14.024
1849,0.859,35.68,25.897,32.634,24.481,5.482,6.22,14.105
1850,0.856,35.127,25.825,32.624,24.481,5.603,6.18,14.024
1851,0.862,35.246,25.836,32.614,24.481,5.564,6.139,13.983
1852,0.869,35.353,25.894,32.614,24.474,5.604,6.179,13.901
1853,0.872,35.066,25.641,32.624,24.474,5.645,6.179,13.9
1854,0.863,35.063,25.838,32.624,24.474,5.645,6.22,13.859
1855,0.879,35.197,25.918,32.634,24.478,5.686,6.261,13.859
1856,0.872,35.304,25.708,32.634,24.478,5.646,6.221,13.778
1857,0.882,35.037,25.889,32.634,24.474,5.727,6.139,13.858
1858,0.885,35.159,25.731,32.634,24.478,5.727,6.138,13.696
1859,0.885,35.313,25.893,32.615,24.474,5.809,6.179,13.613
1860,0.879,35.392,25.657,32.634,24.474,5.769,6.179,13.613
1861,0.879,35.469,25.873,32.634,24.474,5.809,6.139,13.613
1862,0.885,35.623,25.848,32.624,24.474,5.85,6.138,13.572
1863,0.879,35.769,25.684,32.634,24.474,5.891,6.179,13.612
1864,0.889,35.828,25.897,32.634,24.474,5.851,6.139,13.653
1865,0.885,34.783,25.661,32.624,24.478,5.851,6.138,13.776
1866,0.885,34.955,25.826,32.624,24.481,5.851,6.138,13.696
1867,0.885,35.081,25.902,32.624,24.481,5.851,6.098,13.817
1868,0.882,35.14,25.813,32.634,24.481,5.891,6.097,13.777
1869,0.882,35.093,25.914,32.634,24.478,5.892,6.138,13.777
1870,0.885,35.265,25.692,32.624,24.481,5.851,6.098,13.736
1871,0.882,35.363,25.92,32.643,24.481,5.891,6.097,13.614
1872,0.895,35.421,25.774,32.624,24.474,5.892,6.097,13.653
1873,0.889,34.885,25.835,32.614,24.478,5.973,6.097,13.613
1874,0.895,35.013,25.898,32.643,24.474,5.974,6.138,13.613
1875,0.895,35.13,25.712,32.634,24.481,5.893,6.098,13.653
1876,0.905,35.169,25.878,32.624,24.478,5.933,6.097,13.654
1877,0.908,35.074,25.665,32.634,24.478,5.933,6.056,13.654
1878,0.918,35.198,25.865,32.624,24.481,5.892,6.015,13.572
1879,0.915,35.314,25.949,32.634,24.478,5.933,6.015,13.571
1880,0.925,35.104,25.669,32.624,24.481,5.974,6.056,13.612
1881,0.922,34.958,25.912,32.614,24.481,5.974,6.056,13.572
1882,0.925,35.091,25.88,32.624,24.481,5.893,5.934,13.612
1883,0.915,35.217,25.727,32.634,24.474,5.933,6.055,13.694
1884,0.918,34.931,25.909,32.624,24.478,6.014,6.056,13.735
1885,0.912,35.052,25.712,32.614,24.474,5.934,6.015,13.858
1886,0.912,35.188,25.87,32.614,24.481,5.974,6.015,13.94
1887,0.915,35.285,25.91,32.624,24.478,5.933,6.056,13.982
1888,0.912,34.893,25.766,32.624,24.478,5.974,6.056,14.023
1889,0.905,35.042,25.921,32.701,24.474,5.974,6.097,13.983
1890,0.908,35.169,25.638,32.634,24.481,6.055,5.975,14.023
1891,0.912,35.256,25.865,32.634,24.478,5.934,6.015,13.983
1892,0.931,34.873,25.891,32.634,24.478,5.974,6.056,13.982
1893,0.931,35.052,25.715,32.634,24.471,5.974,6.056,13.86
1894,0.938,35.159,25.866,32.634,24.478,5.974,6.056,13.94
1895,0.945,35.227,25.664,32.615,24.478,5.974,6.056,13.86
1896,0.938,34.864,25.865,32.624,24.471,5.974,6.097,13.859
1897,0.948,35.023,25.895,32.634,24.474,5.974,6.056,13.818
1898,0.958,35.12,25.719,32.605,24.474,6.015,6.056,13.696
1899,0.958,35.188,25.893,32.633,24.478,6.015,6.137,13.695
1900,0.951,34.882,25.673,32.605,24.471,5.974,6.057,13.654
1901,0.951,35.013,25.885,32.614,24.478,5.974,6.097,13.694
1902,0.951,35.159,25.836,32.624,24.474,5.974,6.138,13.654
1903,0.961,35.189,25.75,32.624,24.478,6.015,6.098,13.694
1904,0.961,34.902,25.937,32.624,24.485,5.934,6.097,13.735
1905,0.958,35.033,25.681,32.614,24.474,5.892,6.178,13.776
1906,0.954,35.159,25.819,32.624,24.478,5.973,6.017,13.818
1907,0.954,35.304,25.922,32.624,24.478,5.974,6.096,13.899
1908,0.964,34.96,25.716,32.614,24.478,5.893,6.138,13.859
1909,0.971,35.101,25.893,32.643,24.478,5.973,6.179,13.94
1910,0.961,35.227,25.645,32.624,24.478,5.933,6.098,13.86
1911,0.964,34.892,25.896,32.624,24.478,5.933,6.138,13.859
1912,0.974,34.918,25.844,32.634,24.474,5.892,6.098,13.859
1913,0.974,35.062,25.793,32.634,24.471,5.973,6.097,13.737
1914,0.984,35.159,25.906,32.615,24.478,5.893,6.138,13.736
1915,0.984,34.825,25.712,32.624,24.474,5.892,6.179,13.695
1916,0.987,34.955,25.885,32.643,24.478,5.892,6.179,13.654
1917,0.997,35.101,25.809,32.634,24.478,5.973,6.139,13.613
1918,1.01,35.188,25.828,32.624,24.478,6.055,6.138,13.613
1919,1.017,34.738,25.914,32.614,24.478,5.975,6.179,13.531
1920,1.014,34.897,25.774,32.634,24.478,5.974,6.139,13.531
1921,1.02,35.033,25.968,32.624,24.478,5.974,6.179,13.612
1922,1.02,35.111,25.681,32.634,24.474,6.015,6.22,13.613
1923,1.02,34.862,25.873,32.634,24.474,6.015,6.22,13.653
1924,1.027,34.994,25.641,32.615,24.485,5.934,6.18,13.735
1925,1.03,35.12,25.807,32.624,24.474,6.055,6.22,13.858
1926,1.027,35.198,25.925,32.624,24.474,6.056,6.22,13.778
1927,1.027,34.719,25.743,32.624,24.478,6.056,6.22,13.736
1928,1.043,34.868,25.948,32.634,24.474,6.056,6.22,13.858
1929,1.033,34.994,25.806,32.634,24.478,5.975,6.22,13.859
1930,1.037,35.053,25.754,32.634,24.478,6.015,6.261,13.778
1931,1.05,34.9,25.968,32.643,24.481,6.096,6.302,13.696
1932,1.05,35.042,25.599,32.634,24.474,6.056,6.262,13.695
1933,1.05,35.159,25.865,32.634,24.478,5.975,6.343,13.695
1934,1.069,35.17,25.661,32.615,24.481,6.055,6.303,13.654
1935,1.069,34.825,25.799,32.614,24.478,6.056,6.262,13.613
1936,1.082,34.965,25.914,32.624,24.478,6.015,6.221,13.613
1937,1.083,35.101,25.692,32.624,24.478,6.015,6.22,13.572
1938,1.086,34.881,25.928,32.624,24.478,5.974,6.261,13.449
1939,1.096,34.87,25.642,32.624,24.478,6.055,6.343,13.448
1940,1.102,35.013,25.826,32.624,24.474,6.015,6.262,13.367
1941,1.106,35.111,25.937,32.624,24.481,6.015,6.221,13.325
1942,1.109,34.671,25.665,32.624,24.485,6.056,6.383,13.244
1943,1.125,34.791,25.858,32.624,24.485,6.097,6.303,13.324
1944,1.129,34.926,25.93,32.634,24.474,6.138,6.221,13.325
1945,1.125,35.014,25.767,32.624,24.471,6.138,6.261,13.366
1946,1.129,34.775,25.913,32.614,24.478,6.138,6.221,13.447
1947,1.135,34.945,25.669,32.634,24.471,6.138,6.22,13.489
1948,1.145,35.052,25.865,32.624,24.481,6.179,6.261,13.571
1949,1.135,35.159,25.91,32.634,24.474,6.179,6.302,13.571
1950,1.148,34.748,25.712,32.624,24.474,6.179,6.302,13.571
1951,1.161,34.878,25.948,32.614,24.471,6.179,6.302,13.531
1952,1.158,35.004,25.665,32.614,24.478,6.22,6.262,13.449
1953,1.171,35.111,25.807,32.605,24.474,6.18,6.221,13.448
1954,1.171,34.709,25.902,32.624,24.474,6.22,6.302,13.408
1955,1.188,34.858,25.719,32.605,24.481,6.261,6.302,13.448
1956,1.194,34.984,25.885,32.614,24.474,6.221,6.262,13.489
1957,1.207,35.043,25.696,32.614,24.478,6.22,6.221,13.449
1958,1.214,34.833,25.784,32.614,24.478,6.22,6.22,13.448
1959,1.227,34.984,25.917,32.605,24.481,6.22,6.302,13.408
1960,1.23,35.11,25.677,32.595,24.481,6.22,6.221,13.367
1961,1.234,35.112,25.889,32.585,24.481,6.22,6.22,13.285
1962,1.24,34.738,25.829,32.605,24.481,6.18,6.22,13.325
1963,1.25,34.868,25.789,32.605,24.474,6.179,6.18,13.325
1964,1.257,34.985,25.941,32.595,24.478,6.139,6.22,13.325
1965,1.25,34.957,25.802,32.595,24.481,6.26,6.18,13.447
1966,1.266,34.822,25.921,32.595,24.478,6.221,6.179,13.448
1967,1.273,34.965,25.665,32.585,24.478,6.18,6.139,13.367
1968,1.27,35.053,25.912,32.585,24.478,6.22,6.179,13.366
1969,1.273,34.737,25.727,32.585,24.474,6.139,6.22,13.325
1970,1.286,34.811,25.788,32.585,24.474,6.098,6.22,13.284
1971,1.299,34.955,25.925,32.585,24.471,6.138,6.22,13.243
1972,1.299,35.053,25.61,32.566,24.474,6.138,6.22,13.202
1973,1.306,34.775,25.841,32.576,24.478,6.138,6.22,13.202
1974,1.309,34.907,25.793,32.585,24.478,6.098,6.22,13.243
1975,1.316,35.043,25.789,32.585,24.478,6.138,6.18,13.243
1976,1.326,35.14,25.913,32.547,24.474,6.138,6.22,13.243
1977,1.332,34.805,25.673,32.547,24.471,6.138,6.22,13.202
1978,1.349,34.955,25.865,32.547,24.474,6.179,6.22,13.121
1979,1.349,35.091,25.903,32.556,24.478,6.179,6.18,13.12
1980,1.355,35.169,25.743,32.556,24.478,6.139,6.179,13.201
1981,1.359,34.834,25.901,32.556,24.474,6.179,6.179,13.121
1982,1.355,34.984,25.677,32.566,24.478,6.179,6.22,13.201
1983,1.359,35.13,25.869,32.556,24.481,6.179,6.18,13.121
1984,1.365,35.189,25.704,32.537,24.474,6.139,6.22,13.201
1985,1.372,35.017,25.889,32.527,24.478,6.219,6.22,13.202
1986,1.385,35.168,25.907,32.546,24.478,6.22,6.18,13.202
1987,1.385,35.285,25.7,32.527,24.474,6.18,6.179,13.202
1988,1.388,35.315,25.901,32.527,24.474,6.22,6.22,13.283
1989,1.398,35.008,25.626,32.546,24.474,6.139,6.18,13.284
1990,1.405,35.139,25.803,32.547,24.478,6.138,6.22,13.203
1991,1.408,35.237,25.949,32.537,24.478,6.179,6.22,13.161
1992,1.418,35.602,25.704,32.527,24.481,6.139,6.18,13.12
1993,1.414,35.299,25.874,32.527,24.474,6.138,6.179,13.201
1994,1.424,35.42,25.778,32.527,24.478,6.138,6.179,13.121
1995,1.421,35.517,25.777,32.537,24.474,6.138,6.179,13.12
1996,1.427,35.221,25.913,32.537,24.478,6.179,6.139,13.039
1997,1.418,35.257,25.649,32.518,24.474,6.179,6.26,13.038
1998,1.427,35.41,25.865,32.518,24.478,6.179,6.221,12.997
1999,1.431,35.489,25.633,32.518,24.474,6.22,6.098,13.078
2000,1.424,35.441,25.838,32.518,24.478,6.139,6.178,12.916
2001,1.434,35.575,25.93,32.518,24.481,6.179,6.139,13.037
2002,1.424,35.74,25.556,32.537,24.481,6.179,6.179,13.078
2003,1.421,35.789,25.825,32.537,24.478,6.139,6.179,13.119
2004,1.414,35.646,25.941,32.508,24.478,6.179,6.139,13.201
2005,1.421,35.798,25.735,32.517,24.478,6.139,6.179,13.324
2006,1.421,35.914,25.882,32.508,24.471,6.138,6.22,13.366
2007,1.418,35.983,25.719,32.498,24.478,6.098,6.22,13.325
2008,1.411,35.763,25.796,32.527,24.471,6.138,6.22,13.366
2009,1.418,35.933,25.906,32.518,24.478,6.098,6.18,13.366
2010,1.405,36.04,25.704,32.518,24.478,6.138,6.179,13.366
2011,1.405,36.089,25.905,32.498,24.481,6.138,6.179,13.325
2012,1.398,35.984,25.61,32.517,24.478,6.057,6.22,13.244
2013,1.385,36.127,25.783,32.498,24.485,6.178,6.18,13.284
2014,1.385,36.225,25.894,32.498,24.478,6.057,6.179,13.243
2015,1.385,36.274,25.727,32.508,24.478,6.056,6.139,13.284
2016,1.369,36.226,25.886,32.508,24.478,6.056,6.219,13.325
2017,1.355,36.379,25.723,32.479,24.478,6.056,6.22,13.325
2018,1.352,36.476,25.792,32.479,24.474,5.975,6.18,13.284
2019,1.352,36.497,25.917,32.488,24.478,6.015,6.179,13.284
2020,1.339,36.363,25.704,32.489,24.478,5.974,6.22,13.203
2021,1.323,36.486,25.92,32.479,24.478,6.015,6.22,13.121
2022,1.306,36.593,25.536,32.498,24.481,5.974,6.22,13.16
2023,1.303,36.574,25.786,32.489,24.478,5.933,6.18,13.242
2024,1.283,36.574,25.917,32.469,24.474,5.974,6.22,13.324
2025,1.28,36.689,25.716,32.469,24.481,5.933,6.22,13.325
2026,1.263,36.815,25.917,32.469,24.478,5.974,6.22,13.366
2027,1.257,36.663,25.634,32.479,24.481,5.933,6.22,13.529
2028,1.24,36.748,25.842,32.46,24.481,5.892,6.22,13.531
2029,1.224,36.912,25.906,32.498,24.478,5.851,6.22,13.49
2030,1.201,36.98,25.673,32.479,24.481,5.891,6.22,13.449
2031,1.194,37.019,25.877,32.469,24.478,5.892,6.261,13.448
2032,1.178,37.154,25.817,32.469,24.478,5.851,6.262,13.367
2033,1.165,37.27,25.73,32.45,24.478,5.891,6.302,13.366
2034,1.145,37.329,25.921,32.469,24.478,5.933,6.221,13.447
2035,1.142,36.754,25.692,32.469,24.478,5.811,6.261,13.448
2036,1.122,36.892,25.831,32.469,24.478,5.932,6.18,13.448
2037,1.119,37.028,25.89,32.46,24.474,5.892,6.261,13.367
2038,1.106,37.077,25.712,32.46,24.478,5.811,6.18,13.325
2039,1.093,37.059,25.885,32.45,24.485,5.85,6.261,13.284
2040,1.076,37.174,25.708,32.459,24.481,5.932,6.262,13.284
2041,1.053,37.271,25.803,32.45,24.474,5.852,6.262,13.284
2042,1.047,37.339,25.882,32.459,24.485,5.851,6.221,13.284
2043,1.033,37.148,25.719,32.45,24.485,5.81,6.22,13.365
2044,1.02,37.28,25.952,32.44,24.478,5.85,6.261,13.407
2045,1.01,37.396,25.681,32.45,24.478,5.851,6.18,13.407
2046,0.997,37.417,25.799,32.44,24.478,5.81,6.179,13.529
2047,0.981,37.187,25.898,32.44,24.474,5.891,6.261,13.49
2048,0.968,37.338,25.696,32.431,24.478,5.851,6.221,13.571
2049,0.951,37.454,25.858,32.44,24.478,5.81,6.302,13.531
2050,0.941,37.532,25.692,32.45,24.478,5.81,6.302,13.571
2051,0.928,37.37,25.858,32.431,24.478,5.891,6.262,13.49
2052,0.915,37.503,25.852,32.44,24.478,5.851,6.262,13.53
2053,0.905,37.6,25.711,32.431,24.474,5.81,6.221,13.408
2054,0.899,37.217,25.921,32.43,24.474,5.769,6.302,13.489
2055,0.899,37.252,25.657,32.45,24.478,5.809,6.343,13.449
2056,0.886,37.406,25.818,32.431,24.478,5.85,6.303,13.408
2057,0.882,37.494,25.902,32.421,24.474,5.81,6.425,13.448
2058,0.872,37.408,25.766,32.43,24.478,5.932,6.426,13.367
2059,0.856,37.551,25.882,32.411,24.474,5.852,6.385,13.285
2060,0.849,37.658,25.622,32.43,24.474,5.81,6.466,13.447
2061,0.843,37.726,25.83,32.421,24.471,5.81,6.467,13.326
2062,0.826,37.267,25.816,32.411,24.481,5.891,6.507,13.325
2063,0.833,37.425,25.726,32.43,24.478,5.851,6.386,13.488
2064,0.82,37.532,25.901,32.411,24.485,5.891,6.466,13.49
2065,0.817,37.61,25.669,32.402,24.478,5.933,6.426,13.571
2066,0.803,37.371,25.815,32.43,24.474,5.892,6.507,13.612
2067,0.8,37.503,25.922,32.421,24.474,5.892,6.549,13.653
2068,0.8,37.619,25.821,32.43,24.474,6.014,6.508,13.694
2069,0.79,37.668,25.922,32.43,24.478,5.974,6.508,13.573
2070,0.793,37.343,25.63,32.402,24.478,5.852,6.467,13.653
2071,0.8,37.474,25.853,32.411,24.474,5.891,6.467,13.532
2072,0.8,37.59,25.848,32.411,24.474,5.933,6.467,13.612
2073,0.784,37.639,25.688,32.402,24.478,5.892,6.467,13.45
2074,0.787,37.362,25.862,32.411,24.478,5.933,6.467,13.53
2075,0.79,37.522,25.625,32.411,24.471,5.974,6.507,13.531
2076,0.784,37.629,25.845,32.411,24.471,5.974,6.508,13.531
2077,0.774,37.735,25.707,32.421,24.471,5.974,6.508,13.49
2078,0.771,37.324,25.799,32.411,24.478,5.974,6.467,13.449
2079,0.774,37.464,25.878,32.402,24.478,5.974,6.467,13.408
2080,0.771,37.552,25.766,32.401,24.474,5.933,6.467,13.367
2081,0.757,37.409,25.921,32.392,24.478,5.933,6.507,13.325
2082,0.757,37.465,25.677,32.459,24.474,5.892,6.508,13.366
2083,0.757,37.58,25.838,32.402,24.478,5.933,6.508,13.407
2084,0.748,37.687,25.894,32.411,24.467,5.933,6.427,13.489
2085,0.751,37.285,25.77,32.402,24.474,5.892,6.426,13.611
2086,0.751,37.406,25.905,32.392,24.481,5.933,6.466,13.694
2087,0.744,37.541,25.653,32.401,24.478,6.014,6.467,13.695
2088,0.741,37.629,25.85,32.392,24.478,5.934,6.426,13.735
2089,0.738,37.246,25.91,32.392,24.474,5.933,6.466,13.817
2090,0.738,37.367,25.688,32.401,24.478,5.892,6.467,13.655
2091,0.734,37.484,25.948,32.411,24.471,5.892,6.426,13.694
2092,0.734,37.581,25.587,32.392,24.478,5.892,6.426,13.654
2093,0.738,37.14,25.822,32.392,24.478,6.014,6.466,13.613
2094,0.738,37.27,25.926,32.373,24.478,5.934,6.467,13.653
2095,0.741,37.396,25.688,32.401,24.478,5.933,6.548,13.613
2096,0.738,37.465,25.885,32.382,24.471,5.892,6.468,13.613
2097,0.741,37.235,25.637,32.411,24.478,5.973,6.426,13.572
2098,0.734,37.367,25.787,32.382,24.474,5.933,6.507,13.531
2099,0.734,37.493,25.898,32.382,24.478,5.892,6.427,13.531
2100,0.734,37.533,25.723,32.392,24.478,5.933,6.426,13.531
2101,0.738,37.121,25.909,32.373,24.474,5.892,6.385,13.531
2102,0.721,37.26,25.817,32.392,24.474,5.892,6.507,13.49
2103,0.731,37.377,25.75,32.392,24.478,5.892,6.427,13.611
2104,0.725,37.378,25.921,32.382,24.478,5.933,6.385,13.653
2105,0.718,37.119,25.669,32.392,24.478,5.892,6.425,13.654
2106,0.718,37.26,25.834,32.373,24.478,5.892,6.385,13.654
