time,ecg,bvp,gsr,rsp,skt,emg_zygo,emg_coru,emg_trap
0,0.754,37.803,18.566,33.311,31.703,5.317,6.138,6.467
1,0.764,37.929,18.523,33.359,31.721,5.48,6.382,6.589
2,0.748,37.988,18.538,33.331,31.707,5.237,6.181,6.427
3,0.744,37.739,18.612,33.331,31.714,5.316,6.22,6.466
4,0.734,37.861,18.566,33.312,31.707,5.317,6.261,6.507
5,0.712,37.968,18.457,33.33,31.7,5.317,6.099,6.467
6,0.728,38.055,18.541,33.34,31.703,5.398,6.178,6.507
7,0.738,37.701,18.562,33.321,31.707,5.358,6.22,6.467
8,0.751,37.822,18.574,33.302,31.693,5.236,6.058,6.345
9,0.751,37.929,18.558,33.378,31.707,5.316,6.178,6.384
10,0.748,37.921,18.531,33.322,31.696,5.317,6.22,6.507
11,0.751,37.806,18.581,33.321,31.703,5.398,6.18,6.467
12,0.757,37.948,18.57,33.34,31.714,5.44,6.301,6.426
13,0.748,37.988,18.535,33.292,31.7,5.237,6.18,6.385
14,0.764,37.682,18.589,33.302,31.696,5.316,6.057,6.303
15,0.777,37.64,18.566,33.35,31.714,5.398,6.341,6.465
16,0.764,37.755,18.519,33.34,31.707,5.358,6.181,6.304
17,0.751,37.871,18.542,33.35,31.707,5.399,6.179,6.262
18,0.744,37.69,18.519,33.34,31.703,5.318,6.139,6.302
19,0.751,37.813,18.565,33.312,31.7,5.276,6.138,6.262
20,0.761,37.987,18.581,33.359,31.714,5.398,6.179,6.302
21,0.748,38.036,18.55,33.331,31.703,5.358,6.22,6.384
22,0.738,37.567,18.593,33.331,31.696,5.317,6.058,6.181
23,0.734,37.677,18.504,33.34,31.7,5.317,6.178,6.301
24,0.721,37.793,18.511,33.321,31.7,5.317,6.139,6.302
25,0.737,37.891,18.573,33.34,31.707,5.398,6.138,6.343
26,0.731,37.623,18.597,33.36,31.707,5.48,6.179,6.343
27,0.738,37.726,18.57,33.302,31.7,5.318,6.057,6.221
28,0.754,37.871,18.496,33.33,31.693,5.398,6.097,6.22
29,0.754,37.911,18.522,33.359,31.71,5.48,6.219,6.383
30,0.761,37.604,18.565,33.341,31.707,5.481,6.18,6.303
31,0.777,37.754,18.554,33.35,31.707,5.44,6.22,6.343
32,0.754,37.813,18.534,33.34,31.7,5.481,6.18,6.303
33,0.757,37.833,18.593,33.331,31.703,5.359,6.098,6.221
34,0.757,37.527,18.535,33.369,31.717,5.602,6.219,6.302
35,0.748,37.639,18.554,33.35,31.71,5.523,6.18,6.302
36,0.751,37.755,18.542,33.36,31.703,5.522,6.098,6.14
37,0.751,37.756,18.585,33.341,31.7,5.522,6.138,6.219
38,0.738,37.583,18.605,33.321,31.7,5.441,6.138,6.22
39,0.747,37.735,18.531,33.34,31.707,5.521,6.179,6.302
40,0.728,37.842,18.542,33.35,31.714,5.522,6.22,6.343
41,0.731,37.527,18.542,33.312,31.693,5.482,6.058,6.221
42,0.738,37.639,18.546,33.34,31.703,5.44,6.137,6.18
43,0.731,37.736,18.523,33.36,31.707,5.603,6.179,6.383
44,0.731,37.842,18.6,33.331,31.707,5.482,6.179,6.263
45,0.721,37.335,18.558,33.35,31.71,5.603,6.179,6.343
46,0.721,37.445,18.41,33.35,31.703,5.523,6.139,6.221
47,0.737,37.551,18.521,33.34,31.696,5.441,6.057,6.22
48,0.754,37.658,18.573,33.398,31.714,5.603,6.259,6.302
49,0.751,37.333,18.593,33.341,31.703,5.564,6.18,6.302
50,0.767,37.512,18.558,33.36,31.707,5.482,6.057,6.221
51,0.751,37.6,18.577,33.36,31.707,5.44,6.097,6.22
52,0.744,37.611,18.566,33.35,31.7,5.44,6.138,6.22
53,0.754,37.323,18.574,33.35,31.707,5.481,6.098,6.22
54,0.757,37.445,18.535,33.369,31.707,5.562,6.097,6.261
55,0.748,37.513,18.569,33.321,31.7,5.401,6.178,6.221
56,0.76,37.581,18.578,33.359,31.693,5.399,6.139,6.098
57,0.774,37.294,18.523,33.379,31.72,5.643,6.219,6.3
58,0.774,37.416,18.526,33.437,31.703,5.483,6.098,6.221
59,0.761,37.532,18.534,33.37,31.703,5.522,6.138,6.261
60,0.741,37.639,18.573,33.341,31.707,5.441,6.057,6.18
61,0.731,37.16,18.55,33.331,31.7,5.359,6.015,6.139
62,0.721,37.328,18.558,33.369,31.714,5.48,6.137,6.179
63,0.698,37.406,18.566,33.36,31.707,5.522,6.219,6.22
64,0.701,37.196,18.535,33.35,31.7,5.319,6.017,6.098
65,0.698,37.252,18.519,33.36,31.7,5.52,6.137,6.138
66,0.701,37.339,18.558,33.341,31.71,5.482,6.179,6.301
67,0.721,37.435,18.616,33.369,31.703,5.481,6.179,6.18
68,0.724,37.005,18.656,33.369,31.707,5.522,6.179,6.261
69,0.728,37.125,18.547,33.331,31.7,5.441,6.098,6.139
70,0.741,37.251,18.581,33.35,31.693,5.399,6.138,6.138
71,0.747,37.358,18.543,33.388,31.717,5.602,6.219,6.341
72,0.751,36.927,18.55,33.36,31.71,5.482,6.22,6.181
73,0.764,37.057,18.585,33.36,31.71,5.562,6.261,6.179
74,0.767,37.154,18.57,33.341,31.703,5.482,6.139,6.139
75,0.761,37.242,18.546,33.34,31.7,5.44,6.016,6.138
76,0.783,36.869,18.534,33.388,31.714,5.481,6.137,6.219
77,0.758,36.989,18.558,33.379,31.707,5.522,6.219,6.22
78,0.757,37.077,18.585,33.341,31.693,5.4,6.058,6.139
79,0.741,37.135,18.582,33.398,31.707,5.399,6.137,6.219
80,0.738,36.781,18.546,33.36,31.707,5.521,6.219,6.261
81,0.738,36.921,18.605,33.36,31.707,5.441,6.098,6.262
82,0.741,37.048,18.57,33.369,31.703,5.481,6.178,6.262
83,0.738,37.049,18.523,33.341,31.696,5.481,6.139,6.221
84,0.747,36.819,18.577,33.35,31.696,5.4,6.057,6.18
85,0.738,36.941,18.57,33.398,31.714,5.643,6.3,6.342
86,0.741,37.057,18.488,33.37,31.707,5.483,6.18,6.303
87,0.747,36.915,18.518,33.369,31.71,5.522,6.139,6.302
88,0.725,36.721,18.503,33.369,31.707,5.482,6.138,6.262
89,0.724,36.863,18.6,33.341,31.7,5.4,6.057,6.262
90,0.737,36.989,18.586,33.388,31.717,5.562,6.137,6.302
91,0.738,36.607,18.558,33.37,31.71,5.482,6.098,6.343
92,0.744,36.69,18.597,33.369,31.696,5.4,6.016,6.181
93,0.76,36.815,18.554,33.36,31.7,5.48,6.056,6.301
94,0.757,36.893,18.531,33.36,31.7,5.44,6.097,6.302
95,0.774,36.539,18.581,33.36,31.707,5.44,6.056,6.384
96,0.764,36.699,18.605,33.379,31.714,5.521,6.137,6.385
97,0.764,36.767,18.547,33.369,31.7,5.4,6.057,6.344
98,0.754,36.873,18.441,33.379,31.703,5.44,5.975,6.262
99,0.751,36.539,18.498,33.389,31.717,5.603,6.259,6.465
100,0.738,36.66,18.542,33.37,31.71,5.442,6.017,6.304
101,0.734,36.805,18.569,33.379,31.707,5.481,6.096,6.343
102,0.734,36.845,18.546,33.369,31.703,5.481,6.097,6.262
103,0.718,36.376,18.616,33.36,31.696,5.359,5.975,6.302
104,0.728,36.572,18.539,33.398,31.714,5.48,6.096,6.302
105,0.721,36.661,18.566,33.389,31.707,5.481,6.097,6.384
106,0.721,36.671,18.538,33.36,31.689,5.318,5.975,6.263
107,0.724,36.412,18.589,33.36,31.703,5.398,6.055,6.343
108,0.741,36.534,18.601,33.369,31.703,5.399,6.137,6.425
109,0.751,36.641,18.539,33.36,31.707,5.48,6.057,6.304
110,0.767,37.006,18.53,33.388,31.714,5.481,6.137,6.425
111,0.744,36.329,18.526,33.341,31.7,5.44,5.976,6.344
112,0.747,36.466,18.534,33.36,31.696,5.44,5.974,6.262
113,0.754,36.592,18.558,33.398,31.714,5.562,6.177,6.424
114,0.741,36.306,18.593,33.37,31.703,5.482,6.057,6.304
115,0.76,36.38,18.547,33.398,31.703,5.481,6.056,6.343
116,0.738,36.496,18.546,33.379,31.7,5.481,6.097,6.303
117,0.741,36.583,18.527,33.369,31.693,5.481,5.975,6.302
118,0.754,36.172,18.577,33.427,31.707,5.481,6.055,6.302
119,0.748,36.254,18.57,33.389,31.707,5.522,6.097,6.262
120,0.747,36.398,18.558,33.36,31.693,5.4,5.894,6.058
121,0.734,36.477,18.55,33.379,31.703,5.44,5.973,6.259
122,0.731,36.161,18.558,33.369,31.703,5.44,6.055,6.343
123,0.721,36.33,18.535,33.379,31.7,5.481,6.015,6.343
124,0.715,36.438,18.546,33.389,31.714,5.562,6.056,6.343
125,0.715,36.487,18.581,33.331,31.7,5.441,5.975,6.181
126,0.724,36.104,18.597,33.369,31.707,5.44,6.015,6.261
127,0.734,36.243,18.535,33.398,31.714,5.562,6.137,6.384
128,0.741,36.36,18.53,33.398,31.71,5.482,6.016,6.303
129,0.764,36.438,18.523,33.408,31.714,5.562,6.015,6.262
130,0.767,36.065,18.534,33.389,31.703,5.523,5.974,6.221
131,0.761,36.243,18.542,33.389,31.7,5.4,5.933,6.139
132,0.764,36.37,18.573,33.427,31.714,5.562,6.014,6.26
133,0.767,36.342,18.581,33.38,31.71,5.523,6.015,6.262
134,0.777,36.025,18.554,33.427,31.7,5.482,5.893,6.058
135,0.764,36.147,18.527,33.399,31.71,5.481,5.933,6.137
136,0.748,36.234,18.546,33.389,31.696,5.4,6.014,6.219
137,0.754,36.13,18.605,33.398,31.707,5.521,6.056,6.18
138,0.744,36.1,18.605,33.408,31.707,5.482,5.975,6.22
139,0.731,36.224,18.535,33.36,31.696,5.4,5.933,6.139
140,0.738,36.302,18.585,33.398,31.7,5.399,5.852,6.138
141,0.731,35.9,18.531,33.418,31.717,5.562,6.054,6.301
142,0.734,36.04,18.55,33.418,31.707,5.523,6.015,6.221
143,0.731,36.157,18.597,33.418,31.71,5.563,6.015,6.22
144,0.721,36.215,18.586,33.408,31.707,5.441,5.974,6.18
145,0.724,35.947,18.507,33.399,31.696,5.359,5.852,6.098
146,0.741,36.156,18.553,33.437,31.714,5.602,6.013,6.219
147,0.738,36.225,18.531,33.418,31.7,5.442,5.974,6.22
148,0.741,36.293,18.589,33.418,31.703,5.44,5.893,6.098
149,0.741,35.824,18.426,33.418,31.7,5.399,5.892,6.178
150,0.728,35.943,18.549,33.399,31.703,5.44,5.933,6.179
151,0.751,36.069,18.577,33.408,31.707,5.562,5.974,6.179
152,0.751,36.147,18.566,33.427,31.714,5.482,6.055,6.261
153,0.741,35.745,18.507,33.38,31.696,5.359,5.934,6.139
154,0.751,35.875,18.573,33.389,31.7,5.48,5.852,6.098
155,0.77,36.011,18.574,33.418,31.714,5.603,6.095,6.3
156,0.767,36.032,18.515,33.408,31.703,5.564,5.975,6.18
157,0.774,35.888,18.55,33.418,31.71,5.523,6.015,6.179
158,0.767,35.982,18.527,33.408,31.7,5.482,5.974,6.179
159,0.754,36.089,18.577,33.399,31.703,5.359,5.852,6.098
160,0.77,36.224,18.585,33.456,31.714,5.439,5.973,6.219
161,0.748,35.746,18.558,33.428,31.703,5.481,6.055,6.18
162,0.741,35.856,18.589,33.418,31.7,5.359,5.812,6.098
163,0.731,35.982,18.539,33.437,31.703,5.439,5.972,6.138
164,0.731,35.629,18.519,33.399,31.7,5.399,5.933,6.179
165,0.747,35.73,18.565,33.427,31.703,5.48,5.933,6.179
166,0.757,35.856,18.605,33.427,31.707,5.481,6.014,6.22
167,0.748,35.905,18.578,33.408,31.7,5.44,5.893,6.139
168,0.767,35.714,18.523,33.408,31.707,5.44,5.892,6.179
169,0.754,35.866,18.546,33.446,31.71,5.603,6.136,6.383
170,0.761,35.992,18.581,33.428,31.707,5.564,5.935,6.222
171,0.79,36.079,18.554,33.447,31.71,5.441,6.014,6.22
172,0.8,35.495,18.534,33.428,31.703,5.481,5.974,6.18
173,0.826,35.624,18.565,33.399,31.696,5.4,5.893,6.139
174,0.852,35.778,18.535,33.446,31.721,5.48,5.973,6.219
175,0.853,35.828,18.519,33.428,31.707,5.481,5.974,6.302
176,0.859,35.637,18.534,33.427,31.703,5.4,5.852,6.14
177,0.859,35.788,18.565,33.427,31.7,5.44,5.891,6.26
178,0.869,35.876,18.597,33.418,31.696,5.318,5.933,6.18
179,0.879,35.944,18.543,33.437,31.7,5.439,5.933,6.261
180,0.869,35.705,18.55,33.418,31.71,5.481,5.974,6.302
181,0.859,35.779,18.554,33.399,31.693,5.318,5.893,6.221
182,0.866,35.943,18.534,33.418,31.703,5.358,5.892,6.22
183,0.846,35.935,18.554,33.447,31.714,5.521,6.014,6.424
184,0.856,35.59,18.585,33.447,31.707,5.4,5.934,6.344
185,0.866,35.721,18.566,33.437,31.71,5.521,5.974,6.343
186,0.872,35.799,18.417,33.456,31.703,5.36,5.893,6.221
187,0.889,35.627,18.494,33.418,31.7,5.317,5.811,6.18
188,0.905,35.625,18.526,33.485,31.717,5.52,6.054,6.342
189,0.886,35.73,18.487,33.457,31.707,5.36,5.893,6.343
190,0.882,35.827,18.503,33.447,31.707,5.399,5.892,6.262
191,0.895,35.483,18.581,33.437,31.707,5.358,5.892,6.302
192,0.892,35.604,18.48,33.428,31.7,5.317,5.851,6.221
193,0.925,35.778,18.557,33.456,31.707,5.358,5.891,6.261
194,0.909,35.818,18.57,33.447,31.71,5.399,5.933,6.262
195,0.931,35.464,18.601,33.418,31.696,5.318,5.811,6.139
196,0.935,35.614,18.554,33.447,31.7,5.317,5.85,6.219
197,0.909,35.73,18.476,33.447,31.707,5.398,5.932,6.342
198,0.905,35.818,18.534,33.456,31.707,5.358,5.892,6.303
199,0.905,35.474,18.534,33.447,31.714,5.399,5.892,6.302
200,0.892,35.576,18.417,33.437,31.7,5.277,5.933,6.221
201,0.892,35.74,18.51,33.437,31.7,5.235,5.811,6.22
202,0.905,35.808,18.616,33.485,31.721,5.397,6.054,6.383
203,0.895,35.454,18.519,33.457,31.71,5.318,5.975,6.344
204,0.908,35.594,18.565,33.476,31.707,5.358,5.974,6.262
205,0.905,35.692,18.566,33.457,31.703,5.317,5.893,6.221
206,0.902,35.722,18.593,33.466,31.7,5.236,5.892,6.22
207,0.921,35.434,18.629,33.466,31.707,5.316,5.892,6.302
208,0.935,35.546,18.539,33.447,31.71,5.358,5.973,6.302
209,0.925,35.653,18.55,33.447,31.696,5.195,5.852,6.18
210,0.935,35.645,18.581,33.437,31.7,5.316,5.851,6.179
211,0.925,35.462,18.55,33.437,31.707,5.317,5.973,6.423
212,0.938,35.595,18.534,33.475,31.71,5.317,5.893,6.385
213,0.951,35.711,18.62,33.466,31.714,5.317,6.014,6.263
214,0.954,35.281,18.516,33.437,31.7,5.276,5.852,6.18
215,0.954,35.382,18.55,33.447,31.696,5.235,5.769,6.139
216,0.958,35.536,18.554,33.485,31.717,5.397,6.013,6.341
217,0.954,35.624,18.593,33.466,31.707,5.318,5.893,6.303
218,0.964,35.366,18.613,33.476,31.707,5.317,5.892,6.221
219,0.955,35.526,18.586,33.466,31.707,5.276,5.933,6.302
220,0.945,35.624,18.554,33.457,31.696,5.195,5.892,6.221
221,0.932,35.74,18.554,33.466,31.707,5.316,5.973,6.302
222,0.925,35.281,18.546,33.476,31.703,5.317,6.015,6.343
223,0.899,35.382,18.569,33.466,31.696,5.154,5.852,6.181
224,0.895,35.517,18.617,33.466,31.703,5.275,6.013,6.261
225,0.886,35.566,18.523,33.457,31.7,5.316,6.056,6.343
226,0.895,35.337,18.534,33.457,31.71,5.317,6.056,6.303
227,0.905,35.469,18.511,33.495,31.71,5.398,6.056,6.302
228,0.895,35.556,18.542,33.457,31.703,5.236,6.097,6.221
229,0.892,35.605,18.523,33.457,31.703,5.316,6.016,6.261
230,0.892,35.193,18.55,33.504,31.714,5.48,6.259,6.343
231,0.895,35.314,18.585,33.476,31.707,5.359,6.139,6.303
232,0.892,35.43,18.554,33.476,31.71,5.358,6.179,6.262
233,0.873,35.47,18.538,33.476,31.7,5.317,6.179,6.221
234,0.856,35.365,18.542,33.457,31.7,5.317,6.139,6.18
235,0.869,35.517,18.597,33.485,31.71,5.358,6.179,6.261
236,0.85,35.605,18.551,33.476,31.707,5.358,6.261,6.302
237,0.836,35.28,18.503,33.466,31.696,5.236,6.058,6.18
238,0.82,35.286,18.518,33.485,31.703,5.357,6.219,6.179
239,0.797,35.401,18.53,33.466,31.707,5.358,6.261,6.261
240,0.794,35.517,18.507,33.485,31.707,5.358,6.221,6.262
241,0.8,35.125,18.534,33.495,31.71,5.439,6.261,6.262
242,0.8,35.208,18.562,33.457,31.703,5.277,6.18,6.221
243,0.8,35.343,18.566,33.495,31.696,5.357,6.261,6.22
244,0.81,35.469,18.535,33.514,31.717,5.521,6.465,6.383
245,0.826,35.25,18.542,33.505,31.707,5.441,6.304,6.303
246,0.826,35.391,18.546,33.505,31.714,5.44,6.302,6.221
247,0.83,35.498,18.605,33.486,31.703,5.359,6.302,6.18
248,0.826,35.566,18.558,33.466,31.7,5.317,6.18,6.22
249,0.836,35.183,18.574,33.514,31.71,5.398,6.342,6.261
250,0.83,35.304,18.562,33.505,31.707,5.44,6.303,6.343
251,0.839,35.411,18.468,33.514,31.696,5.359,6.18,6.14
252,0.82,35.469,18.549,33.505,31.707,5.358,6.301,6.26
253,0.817,35.134,18.589,33.476,31.707,5.439,6.343,6.465
254,0.803,35.304,18.566,33.505,31.707,5.44,6.303,6.304
255,0.803,35.42,18.531,33.572,31.71,5.521,6.384,6.343
256,0.781,35.431,18.511,33.486,31.71,5.4,6.344,6.303
257,0.771,35.192,18.542,33.495,31.7,5.358,6.343,6.343
258,0.757,35.352,18.597,33.562,31.721,5.602,6.506,6.425
259,0.738,35.44,18.566,33.534,31.7,5.564,6.305,6.466
260,0.744,35.336,18.535,33.544,31.714,5.563,6.384,6.304
261,0.718,35.143,18.562,33.524,31.71,5.563,6.385,6.465
262,0.718,35.275,18.523,33.524,31.7,5.523,6.303,6.589
263,0.702,35.372,18.546,33.515,31.7,5.522,6.384,6.59
264,0.705,35.124,18.593,33.524,31.71,5.603,6.466,6.631
265,0.675,35.236,18.535,33.496,31.693,5.482,6.304,6.672
266,0.675,35.372,18.413,33.543,31.7,5.562,6.302,6.631
267,0.675,35.46,18.549,33.544,31.714,5.645,6.506,6.875
268,0.688,34.981,18.558,33.515,31.707,5.645,6.386,6.796
269,0.701,35.12,18.542,33.543,31.707,5.645,6.425,6.795
270,0.698,35.246,18.53,33.534,31.703,5.564,6.385,6.877
271,0.705,35.314,18.604,33.515,31.703,5.482,6.303,6.796
272,0.734,35.037,18.492,33.591,31.71,5.644,6.302,6.877
273,0.731,35.178,18.522,33.544,31.717,5.645,6.384,6.877
274,0.725,35.266,18.55,33.534,31.696,5.523,6.303,6.715
275,0.734,35.334,18.577,33.544,31.707,5.563,6.302,6.957
276,0.721,35.076,18.542,33.534,31.703,5.604,6.425,6.919
277,0.724,35.236,18.484,33.553,31.707,5.564,6.385,7.0
278,0.708,35.362,18.522,33.553,31.717,5.604,6.385,7.041
279,0.682,35.364,18.522,33.525,31.703,5.604,6.344,7.042
280,0.692,35.018,18.464,33.515,31.707,5.523,6.303,6.96
281,0.682,35.197,18.518,33.572,31.721,5.725,6.425,7.163
282,0.682,35.256,18.585,33.544,31.714,5.565,6.426,7.124
283,0.669,35.65,18.535,33.572,31.707,5.523,6.385,7.165
284,0.665,35.06,18.53,33.563,31.707,5.522,6.344,7.165
285,0.656,35.169,18.534,33.525,31.7,5.482,6.262,7.124
286,0.675,35.333,18.601,33.572,31.71,5.562,6.302,7.165
287,0.675,34.951,18.605,33.544,31.707,5.604,6.302,7.206
288,0.675,34.985,18.558,33.553,31.7,5.482,6.221,7.084
289,0.695,35.13,18.535,33.572,31.707,5.562,6.342,7.205
290,0.685,35.189,18.558,33.563,31.696,5.563,6.343,7.247
291,0.692,34.969,18.527,33.544,31.707,5.482,6.343,7.166
292,0.695,35.11,18.526,33.582,31.714,5.562,6.343,7.287
293,0.692,35.198,18.577,33.544,31.703,5.482,6.303,7.125
294,0.698,35.285,18.515,33.553,31.703,5.522,6.302,7.083
295,0.695,34.893,18.534,33.582,31.71,5.725,6.425,7.286
296,0.695,35.042,18.538,33.563,31.707,5.605,6.304,7.207
297,0.688,35.159,18.612,33.582,31.71,5.604,6.343,7.165
298,0.698,35.218,18.633,33.573,31.7,5.564,6.343,7.124
299,0.682,34.921,18.578,33.573,31.696,5.482,6.221,7.002
300,0.692,35.129,18.55,33.582,31.714,5.603,6.342,7.082
301,0.688,35.189,18.57,33.573,31.707,5.645,6.343,7.123
302,0.685,35.247,18.535,33.573,31.7,5.483,6.262,6.921
303,0.675,34.883,18.558,33.573,31.707,5.562,6.343,7.041
304,0.669,35.013,18.577,33.563,31.7,5.726,6.384,7.123
305,0.662,35.139,18.546,33.592,31.71,5.605,6.344,7.043
306,0.662,35.217,18.534,33.63,31.714,5.645,6.384,7.042
307,0.659,34.95,18.503,33.573,31.707,5.605,6.344,7.042
308,0.672,35.11,18.542,33.573,31.703,5.564,6.343,6.92
309,0.691,35.236,18.562,33.63,31.721,5.807,6.425,7.0
310,0.692,35.065,18.546,33.602,31.71,5.688,6.344,6.96
311,0.692,34.987,18.569,33.611,31.7,5.646,6.384,6.878
312,0.695,35.101,18.542,33.592,31.703,5.605,6.344,6.918
313,0.695,35.179,18.511,33.573,31.7,5.523,6.303,6.837
314,0.731,34.796,18.561,33.611,31.703,5.603,6.384,6.918
315,0.721,34.85,18.574,33.583,31.71,5.645,6.303,6.837
316,0.708,34.975,18.542,33.573,31.696,5.564,6.221,6.674
317,0.692,35.082,18.495,33.592,31.7,5.563,6.383,6.753
318,0.698,34.67,18.53,33.592,31.707,5.563,6.385,6.876
319,0.727,34.829,18.558,33.592,31.707,5.604,6.425,6.715
320,0.744,34.965,18.542,33.602,31.714,5.686,6.426,6.754
321,0.77,35.014,18.534,33.573,31.703,5.564,6.385,6.795
322,0.81,34.775,18.562,33.582,31.703,5.523,6.303,6.633
323,0.839,34.907,18.574,33.64,31.724,5.766,6.547,6.875
324,0.856,35.043,18.539,33.602,31.707,5.647,6.386,6.755
325,0.905,35.101,18.526,33.63,31.707,5.645,6.385,6.714
326,0.947,34.747,18.558,33.602,31.703,5.605,6.385,6.713
327,1.0,34.878,18.577,33.611,31.7,5.564,6.303,6.713
328,1.095,35.013,18.582,33.631,31.707,5.645,6.343,6.713
329,1.164,35.034,18.543,33.621,31.707,5.686,6.384,6.713
330,1.207,34.833,18.581,33.592,31.7,5.483,6.303,6.551
331,1.243,34.965,18.488,33.63,31.703,5.644,6.343,6.59
332,1.289,35.081,18.526,33.621,31.707,5.727,6.466,6.753
333,1.335,35.265,18.569,33.631,31.71,5.687,6.386,6.632
334,1.349,34.73,18.562,33.64,31.71,5.687,6.425,6.712
335,1.362,34.82,18.55,33.621,31.703,5.687,6.385,6.551
336,1.401,34.965,18.534,33.621,31.7,5.646,6.344,6.468
337,1.418,34.775,18.534,33.65,31.717,5.727,6.547,6.711
338,1.401,34.821,18.581,33.641,31.71,5.646,6.386,6.632
339,1.392,34.955,18.531,33.65,31.707,5.564,6.425,6.509
340,1.411,35.053,18.538,33.631,31.707,5.604,6.385,6.549
341,1.427,34.603,18.589,33.631,31.7,5.564,6.385,6.468
342,1.447,34.809,18.562,33.679,31.703,5.645,6.507,6.548
343,1.421,34.907,18.523,33.65,31.714,5.645,6.508,6.63
344,1.424,34.985,18.573,33.612,31.696,5.483,6.386,6.468
345,1.447,34.641,18.597,33.631,31.703,5.562,6.466,6.507
346,1.46,34.771,18.504,33.631,31.707,5.563,6.548,6.63
347,1.522,34.945,18.518,33.679,31.714,5.645,6.549,6.55
348,1.536,34.985,18.503,33.65,31.717,5.645,6.508,6.549
349,1.533,34.554,18.569,33.631,31.707,5.564,6.508,6.63
350,1.523,34.713,18.55,33.64,31.703,5.563,6.508,6.468
351,1.523,34.868,18.581,33.698,31.714,5.645,6.67,6.629
352,1.51,34.898,18.574,33.67,31.71,5.605,6.794,6.631
353,1.487,34.64,18.55,33.641,31.703,5.482,6.633,6.55
354,1.431,34.752,18.507,33.65,31.707,5.522,6.753,6.549
355,1.356,34.859,18.573,33.65,31.7,5.563,6.876,6.63
356,1.31,34.898,18.605,33.66,31.71,5.604,6.918,6.672
357,1.225,34.726,18.562,33.669,31.707,5.686,6.959,6.713
358,1.091,34.82,18.562,33.727,31.703,5.564,6.919,6.754
359,0.985,34.955,18.519,33.67,31.703,5.482,6.959,6.632
360,0.873,34.679,18.542,33.679,31.714,5.725,7.204,6.875
361,0.745,34.618,18.542,33.689,31.71,5.646,7.084,6.796
362,0.617,34.742,18.566,33.679,31.71,5.564,7.083,6.714
363,0.476,34.839,18.574,33.67,31.7,5.523,7.002,6.794
364,0.345,34.505,18.48,33.66,31.703,5.522,7.001,6.836
365,0.259,34.655,18.518,33.688,31.71,5.603,7.082,6.877
366,0.157,34.771,18.558,33.689,31.71,5.604,7.123,7.0
367,0.045,34.849,18.589,33.65,31.7,5.482,6.921,7.001
368,-0.034,34.447,18.625,33.66,31.7,5.522,7.081,7.204
369,-0.116,34.616,18.566,33.688,31.707,5.603,7.123,7.572
370,-0.165,34.723,18.57,33.689,31.707,5.604,7.083,7.779
371,-0.211,34.82,18.535,33.698,31.71,5.523,7.123,8.106
372,-0.244,34.466,18.523,33.679,31.703,5.603,7.083,8.313
373,-0.225,34.626,18.585,33.67,31.7,5.442,6.961,8.559
374,-0.212,34.771,18.589,33.717,31.714,5.684,7.122,9.09
375,-0.209,34.83,18.492,33.68,31.714,5.564,7.043,9.298
376,-0.205,34.524,18.534,33.698,31.703,5.563,6.96,9.544
377,-0.212,34.655,18.55,33.698,31.707,5.563,7.041,9.994
378,-0.196,34.752,18.562,33.689,31.703,5.482,6.92,10.039
379,-0.121,34.83,18.476,33.718,31.703,5.481,7.0,10.406
380,-0.052,34.457,18.53,33.699,31.71,5.562,7.041,10.491
381,0.03,34.578,18.604,33.679,31.696,5.482,6.839,10.491
382,0.135,34.713,18.48,33.717,31.7,5.522,6.958,10.695
383,0.214,34.772,18.538,33.689,31.707,5.644,7.082,10.941
384,0.3,34.533,18.558,33.708,31.7,5.523,7.083,10.943
385,0.362,34.674,18.589,33.727,31.71,5.644,7.123,11.106
386,0.418,34.743,18.535,33.699,31.703,5.564,7.043,11.189
387,0.494,34.418,18.448,33.708,31.696,5.482,7.001,11.312
388,0.55,34.501,18.545,33.747,31.717,5.725,7.163,11.597
389,0.576,34.597,18.573,33.718,31.707,5.605,7.043,11.763
390,0.616,34.713,18.562,33.747,31.707,5.564,7.001,11.927
391,0.649,34.398,18.535,33.709,31.707,5.523,7.041,12.173
392,0.681,34.51,18.569,33.718,31.7,5.522,6.96,12.297
393,0.734,34.684,18.55,33.814,31.707,5.603,7.082,12.542
394,0.754,34.743,18.519,33.728,31.707,5.645,7.042,12.707
395,0.774,34.379,18.554,33.718,31.703,5.483,6.879,12.628
396,0.777,34.539,18.589,33.737,31.71,5.522,7.0,12.749
397,0.777,34.646,18.55,33.737,31.703,5.603,7.123,12.953
398,0.8,34.743,18.488,33.756,31.71,5.564,7.124,12.996
399,0.8,34.341,18.534,33.747,31.71,5.645,7.083,13.159
400,0.787,34.452,18.554,33.728,31.696,5.483,7.042,12.998
401,0.784,34.606,18.558,33.737,31.7,5.562,6.92,12.875
402,0.793,34.656,18.531,33.756,31.724,5.726,7.122,12.995
403,0.787,34.311,18.593,33.747,31.71,5.565,7.002,12.793
404,0.803,34.461,18.5,33.756,31.71,5.645,7.001,12.669
405,0.794,34.578,18.522,33.757,31.714,5.523,7.001,12.587
406,0.81,34.55,18.53,33.718,31.7,5.522,6.838,12.423
407,0.823,34.387,18.577,33.785,31.714,5.603,6.999,12.3
408,0.813,34.462,18.589,33.757,31.714,5.523,7.001,12.217
409,0.813,34.597,18.593,33.728,31.7,5.522,6.838,11.891
410,0.826,34.359,18.574,33.747,31.7,5.603,6.918,11.888
411,0.826,34.337,18.507,33.747,31.707,5.523,6.878,11.806
412,0.849,34.49,18.534,33.756,31.714,5.563,7.0,11.684
413,0.866,34.578,18.55,33.747,31.703,5.604,6.96,11.52
414,0.84,34.167,18.589,33.737,31.7,5.564,6.838,11.315
415,0.862,34.306,18.523,33.747,31.703,5.523,6.918,11.11
416,0.853,34.461,18.53,33.785,31.714,5.603,7.081,11.23
417,0.853,34.549,18.503,33.786,31.71,5.604,6.961,10.987
418,0.869,34.214,18.522,33.776,31.714,5.564,7.041,10.903
419,0.859,34.326,18.499,33.766,31.714,5.604,7.042,10.658
420,0.866,34.461,18.534,33.766,31.7,5.482,7.001,10.493
421,0.879,34.578,18.616,33.805,31.714,5.644,7.123,10.41
422,0.866,34.186,18.516,33.786,31.707,5.605,7.083,10.369
423,0.853,34.326,18.515,33.776,31.7,5.442,7.083,10.206
424,0.849,34.442,18.577,33.776,31.703,5.481,7.164,10.082
425,0.836,34.482,18.593,33.776,31.71,5.481,7.246,9.999
426,0.865,34.223,18.535,33.786,31.71,5.562,7.288,9.958
427,0.856,34.364,18.468,33.786,31.714,5.563,7.329,9.795
428,0.853,34.443,18.487,33.766,31.693,5.441,7.207,9.631
429,0.872,34.501,18.565,33.776,31.703,5.481,7.206,9.548
430,0.882,34.156,18.433,33.824,31.707,5.562,7.369,9.588
431,0.902,34.325,18.549,33.805,31.703,5.523,7.289,9.425
432,0.905,34.423,18.577,33.824,31.714,5.482,7.329,9.424
433,0.918,34.462,18.503,33.805,31.703,5.522,7.248,9.261
434,0.905,34.367,18.522,33.786,31.7,5.4,7.247,9.056
435,0.925,34.538,18.565,33.833,31.717,5.643,7.288,9.054
436,0.915,34.617,18.585,33.815,31.71,5.523,7.288,9.013
437,0.925,34.033,18.597,33.815,31.707,5.441,7.207,8.81
438,0.922,34.094,18.543,33.805,31.707,5.44,7.206,8.848
439,0.902,34.219,18.538,33.786,31.703,5.44,7.206,8.686
440,0.908,34.336,18.577,33.833,31.707,5.481,7.287,8.684
441,0.908,34.174,18.57,33.844,31.71,5.481,7.329,8.725
442,0.899,34.278,18.531,33.796,31.7,5.359,7.167,8.603
443,0.886,34.422,18.608,33.834,31.703,5.439,7.246,8.48
444,0.892,34.491,18.555,33.824,31.721,5.521,7.369,8.601
445,0.879,33.945,18.534,33.834,31.707,5.563,7.289,8.44
446,0.895,34.103,18.565,33.853,31.703,5.482,7.288,8.357
447,0.899,34.21,18.562,33.825,31.71,5.44,7.247,8.275
448,0.915,34.259,18.566,33.824,31.7,5.359,7.166,8.111
449,0.925,34.048,18.57,33.872,31.717,5.521,7.287,8.15
450,0.931,34.18,18.55,33.844,31.71,5.482,7.247,8.11
451,0.938,34.287,18.542,33.825,31.696,5.4,7.125,7.987
452,0.954,34.346,18.542,33.844,31.71,5.399,7.165,7.946
453,0.958,34.116,18.538,33.825,31.7,5.44,7.287,8.026
454,0.971,34.248,18.577,33.834,31.71,5.481,7.166,7.987
455,0.984,34.384,18.542,33.844,31.714,5.481,7.206,7.905
456,0.965,34.529,18.519,33.892,31.707,5.44,7.247,7.823
457,0.951,33.974,18.55,33.835,31.696,5.359,7.125,7.781
458,0.954,34.132,18.546,33.882,31.721,5.561,7.287,7.944
459,0.948,34.22,18.573,33.854,31.71,5.482,7.207,7.783
460,0.961,34.01,18.539,33.853,31.71,5.4,7.084,7.578
461,0.942,34.036,18.589,33.844,31.696,5.399,7.083,7.657
462,0.941,34.152,18.496,33.844,31.7,5.358,7.083,7.617
463,0.964,34.287,18.538,33.844,31.707,5.439,7.164,7.617
464,0.958,33.914,18.558,33.853,31.707,5.481,7.124,7.576
465,0.961,34.026,18.585,33.834,31.7,5.318,7.002,7.494
466,0.974,34.18,18.574,33.844,31.703,5.398,7.082,7.453
467,0.981,34.259,18.511,33.863,31.714,5.48,7.245,7.615
468,0.994,33.837,18.526,33.853,31.71,5.318,7.125,7.413
469,0.997,33.987,18.55,33.863,31.714,5.48,7.205,7.411
470,0.984,34.074,18.48,33.853,31.7,5.318,7.084,7.33
471,0.991,34.162,18.502,33.853,31.7,5.276,7.083,7.329
472,0.994,33.932,18.581,33.892,31.724,5.438,7.205,7.451
473,0.997,34.055,18.55,33.863,31.707,5.359,7.125,7.29
474,1.007,34.2,18.554,33.863,31.71,5.358,7.165,7.207
475,1.01,34.24,18.523,33.873,31.707,5.317,7.084,7.247
476,1.007,33.808,18.565,33.854,31.696,5.317,7.083,7.247
477,1.02,33.986,18.589,33.882,31.707,5.317,7.042,7.247
478,1.004,34.074,18.574,33.882,31.714,5.358,7.082,7.328
479,0.994,34.123,18.519,33.854,31.696,5.277,7.002,7.167
480,1.0,33.884,18.581,33.853,31.707,5.316,7.082,7.206
481,0.997,34.045,18.511,33.882,31.71,5.358,7.083,7.287
482,1.007,34.171,18.538,33.882,31.707,5.358,7.083,7.207
483,1.004,34.048,18.589,33.902,31.71,5.399,7.042,7.287
484,0.997,33.883,18.574,33.883,31.71,5.318,7.123,7.166
485,1.013,34.025,18.519,33.854,31.7,5.236,6.961,7.206
486,1.04,34.171,18.542,33.911,31.721,5.397,7.082,7.206
487,1.033,33.76,18.527,33.873,31.71,5.318,7.042,7.125
488,1.03,33.871,18.565,33.863,31.7,5.317,6.96,7.043
489,1.04,34.006,18.519,33.873,31.71,5.358,7.0,7.123
490,1.04,34.075,18.522,33.863,31.707,5.317,6.919,7.124
491,1.063,33.864,18.593,33.882,31.714,5.358,7.0,7.083
492,1.069,34.035,18.535,33.94,31.714,5.358,7.041,7.123
493,1.063,34.132,18.507,33.864,31.703,5.236,6.96,6.961
494,1.073,34.22,18.553,33.873,31.707,5.235,6.96,7.0
495,1.086,33.521,18.589,33.882,31.721,5.397,7.122,7.163
496,1.083,33.657,18.519,33.892,31.71,5.277,7.043,7.124
497,1.092,33.822,18.417,33.921,31.71,5.357,7.042,7.083
498,1.092,33.862,18.521,33.902,31.714,5.317,7.001,7.083
499,1.086,33.776,18.561,33.883,31.703,5.317,6.879,7.042
500,1.105,33.986,18.57,33.93,31.714,5.398,6.918,7.082
501,1.096,34.074,18.523,33.873,31.707,5.358,6.959,7.042
502,1.102,34.104,18.604,33.873,31.703,5.195,6.797,6.879
503,1.08,33.644,18.504,33.882,31.707,5.234,6.877,7.0
504,1.079,33.793,18.546,33.882,31.707,5.275,6.959,7.082
505,1.079,33.9,18.55,33.902,31.707,5.357,6.878,7.042
506,1.089,34.275,18.585,33.911,31.71,5.399,6.918,7.123
507,1.096,33.655,18.558,33.873,31.7,5.318,6.919,7.002
508,1.109,33.812,18.495,33.882,31.703,5.317,6.756,6.919
509,1.122,33.938,18.518,33.921,31.724,5.439,6.957,7.122
510,1.129,33.681,18.565,33.902,31.703,5.359,6.797,7.002
511,1.145,33.736,18.558,33.911,31.703,5.399,6.795,6.96
512,1.158,33.871,18.538,33.902,31.71,5.358,6.795,6.96
513,1.178,33.939,18.573,33.883,31.703,5.195,6.714,6.919
514,1.207,33.594,18.519,33.921,31.707,5.275,6.835,6.959
515,1.211,33.725,18.542,33.911,31.71,5.357,6.918,6.96
516,1.188,33.832,18.527,33.902,31.703,5.236,6.756,6.878
517,1.194,33.929,18.585,33.911,31.707,5.275,6.754,6.918
518,1.191,33.566,18.582,33.902,31.7,5.357,6.957,7.041
519,1.181,33.754,18.57,33.911,31.714,5.277,6.919,7.001
520,1.188,33.89,18.55,33.94,31.71,5.357,7.0,7.041
521,1.181,33.901,18.554,33.902,31.703,5.277,6.96,6.879
522,1.188,33.469,18.538,33.911,31.707,5.276,6.878,6.918
523,1.181,33.638,18.542,33.95,31.717,5.479,7.081,7.041
524,1.175,33.755,18.608,33.931,31.714,5.4,7.042,6.96
525,1.194,33.804,18.551,33.931,31.707,5.358,6.96,6.838
526,1.185,33.497,18.48,33.921,31.707,5.317,7.0,6.837
527,1.197,33.619,18.51,33.902,31.7,5.195,6.879,6.918
528,1.211,33.754,18.538,33.93,31.707,5.316,7.0,6.919
529,1.22,33.765,18.573,33.931,31.714,5.317,7.082,6.919
530,1.237,33.526,18.539,33.931,31.696,5.154,6.961,6.715
531,1.237,33.667,18.558,33.931,31.707,5.397,7.041,6.835
532,1.247,33.784,18.535,33.931,31.71,5.318,7.123,6.837
533,1.257,33.612,18.526,33.94,31.71,5.276,7.043,6.796
534,1.26,33.543,18.542,33.94,31.714,5.316,7.204,6.836
535,1.26,33.638,18.573,33.902,31.707,5.276,7.043,6.796
536,1.276,33.764,18.585,33.94,31.703,5.316,7.001,6.714
537,1.273,33.487,18.558,33.969,31.717,5.439,7.163,6.835
538,1.286,33.609,18.55,33.95,31.71,5.237,7.124,6.755
539,1.283,33.745,18.546,33.96,31.707,5.316,7.083,6.714
540,1.286,33.832,18.558,33.95,31.707,5.317,7.083,6.713
541,1.283,33.402,18.538,33.921,31.696,5.236,7.083,6.632
542,1.303,33.599,18.554,33.979,31.707,5.275,7.123,6.794
543,1.286,33.677,18.601,33.96,31.714,5.276,7.124,6.795
544,1.283,33.745,18.469,33.95,31.696,5.195,6.961,6.673
545,1.283,33.391,18.514,33.96,31.707,5.275,7.041,6.631
546,1.29,33.512,18.53,33.96,31.71,5.276,7.164,6.834
547,1.316,33.657,18.581,33.969,31.707,5.276,7.084,6.714
548,1.319,33.726,18.605,33.969,31.707,5.316,7.205,6.713
549,1.319,33.439,18.566,33.96,31.707,5.236,7.043,6.672
550,1.335,33.609,18.566,33.96,31.703,5.153,7.042,6.631
551,1.352,33.754,18.535,34.017,31.721,5.356,7.286,6.631
552,1.352,33.784,18.538,33.98,31.717,5.277,7.166,6.712
553,1.362,33.392,18.538,33.96,31.707,5.154,7.002,6.551
554,1.362,33.531,18.577,33.96,31.71,5.234,7.041,6.63
555,1.368,33.629,18.515,33.96,31.707,5.194,7.123,6.631
556,1.372,33.889,18.526,33.979,31.714,5.275,7.124,6.631
557,1.365,33.594,18.519,33.979,31.714,5.316,7.205,6.672
558,1.342,33.706,18.554,33.96,31.703,5.195,7.084,6.591
559,1.349,33.813,18.519,33.969,31.707,5.234,7.002,6.509
560,1.355,33.497,18.542,34.017,31.721,5.316,7.285,6.63
561,1.346,33.523,18.577,33.98,31.714,5.236,7.125,6.59
562,1.332,33.696,18.511,33.998,31.703,5.235,7.165,6.631
563,1.323,33.774,18.507,33.999,31.703,5.235,7.165,6.55
564,1.326,33.459,18.542,33.979,31.703,5.194,7.002,6.549
565,1.329,33.628,18.585,34.008,31.707,5.234,7.082,6.59
566,1.336,33.735,18.554,34.027,31.71,5.275,7.083,6.631
567,1.352,33.823,18.503,33.961,31.703,5.073,6.92,6.428
568,1.362,33.536,18.514,33.998,31.703,5.152,7.041,6.426
569,1.362,33.677,18.55,33.979,31.714,5.315,7.123,6.629
570,1.352,33.812,18.511,34.008,31.71,5.236,7.043,6.509
571,1.346,33.89,18.538,34.008,31.71,5.235,7.042,6.589
572,1.345,33.671,18.566,33.989,31.707,5.194,7.082,6.509
573,1.365,33.86,18.503,33.989,31.707,5.153,7.002,6.427
574,1.365,33.996,18.542,34.037,31.721,5.315,7.163,6.588
575,1.372,34.027,18.527,34.009,31.71,5.195,7.084,6.468
576,1.352,33.873,18.597,34.008,31.71,5.234,7.164,6.426
577,1.336,34.006,18.597,34.018,31.703,5.153,7.246,6.385
578,1.326,34.084,18.551,33.999,31.707,5.153,7.288,6.425
579,1.335,34.19,18.546,34.027,31.71,5.153,7.451,6.426
580,1.323,34.038,18.573,34.018,31.717,5.234,7.493,6.466
581,1.322,34.161,18.492,33.999,31.696,5.113,7.371,6.304
582,1.319,34.278,18.526,34.018,31.714,5.234,7.573,6.302
583,1.316,34.212,18.569,34.018,31.703,5.235,7.657,6.547
584,1.319,34.23,18.578,34.027,31.707,5.235,7.698,6.468
585,1.316,34.393,18.507,34.056,31.714,5.235,7.74,6.507
586,1.287,34.462,18.522,34.018,31.707,5.235,7.699,6.345
587,1.299,34.386,18.538,33.999,31.707,5.153,7.699,6.343
588,1.299,34.548,18.601,34.046,31.724,5.356,7.821,6.466
589,1.29,34.665,18.558,34.028,31.71,5.277,7.822,6.426
590,1.299,34.752,18.538,34.056,31.707,5.316,7.781,6.304
591,1.277,34.801,18.581,34.037,31.707,5.236,7.781,6.343
592,1.26,34.936,18.55,34.018,31.703,5.153,7.74,6.343
593,1.283,35.12,18.554,34.066,31.717,5.234,7.781,6.384
594,1.273,35.131,18.581,34.047,31.71,5.275,7.862,6.344
595,1.28,34.853,18.593,34.018,31.703,5.195,7.66,6.221
596,1.26,35.004,18.476,34.047,31.707,5.234,7.82,6.342
597,1.234,35.111,18.518,34.104,31.707,5.153,7.741,6.303
598,1.227,35.169,18.499,34.057,31.714,5.234,7.781,6.384
599,1.224,35.448,18.573,34.057,31.71,5.316,7.781,6.425
600,1.195,35.575,18.546,34.028,31.703,5.195,7.659,6.344
601,1.207,35.682,18.55,34.037,31.7,5.234,7.617,6.303
602,1.181,35.712,18.589,34.076,31.721,5.357,7.82,6.506
603,1.184,35.683,18.566,34.105,31.71,5.236,7.619,6.427
604,1.175,35.817,18.554,34.076,31.717,5.235,7.657,6.385
605,1.145,35.905,18.57,34.066,31.71,5.275,7.536,6.385
606,1.139,36.059,18.589,34.038,31.707,5.195,7.412,6.344
607,1.148,36.07,18.586,34.085,31.717,5.316,7.574,6.343
608,1.129,36.157,18.55,34.086,31.714,5.236,7.494,6.466
609,1.125,36.273,18.519,34.067,31.7,5.194,7.371,6.304
610,1.116,36.255,18.569,34.066,31.71,5.234,7.492,6.343
611,1.093,36.398,18.496,34.057,31.707,5.235,7.494,6.303
612,1.099,36.505,18.557,34.085,31.714,5.235,7.412,6.384
613,1.096,36.593,18.57,34.067,31.721,5.235,7.493,6.425
614,1.089,36.555,18.511,34.057,31.7,5.153,7.371,6.263
615,1.099,36.718,18.522,34.076,31.707,5.275,7.33,6.18
616,1.073,36.835,18.534,34.105,31.717,5.316,7.451,6.383
617,1.056,36.903,18.605,34.076,31.707,5.195,7.412,6.303
618,1.05,36.923,18.605,34.095,31.717,5.194,7.33,6.384
619,1.014,37.028,18.597,34.076,31.707,5.194,7.248,6.263
620,1.007,37.135,18.57,34.076,31.707,5.072,7.247,6.262
621,1.01,37.222,18.566,34.114,31.714,5.233,7.288,6.262
622,0.984,37.329,18.519,34.096,31.707,5.235,7.288,6.343
623,0.971,37.474,18.565,34.095,31.7,5.072,7.085,6.221
624,0.961,37.552,18.593,34.095,31.707,5.111,7.245,6.342
625,0.955,37.581,18.5,34.076,31.707,5.152,7.125,6.384
626,0.961,37.668,18.53,34.095,31.707,5.234,7.124,6.385
627,0.955,37.813,18.534,34.105,31.707,5.235,7.246,6.425
628,0.932,37.852,18.562,34.057,31.7,5.153,7.125,6.263
629,0.948,37.882,18.503,34.095,31.703,5.193,7.124,6.302
630,0.938,38.035,18.53,34.134,31.721,5.234,7.287,6.506
631,0.938,38.142,18.612,34.105,31.71,5.194,7.166,6.345
632,0.932,38.258,18.48,34.134,31.714,5.234,7.124,6.343
633,0.922,38.154,18.514,34.105,31.703,5.153,7.124,6.343
634,0.915,38.201,18.55,34.095,31.703,5.153,7.002,6.303
635,0.938,38.355,18.585,34.143,31.728,5.356,7.123,6.425
636,0.915,38.404,18.535,34.125,31.714,5.195,7.124,6.385
637,0.902,38.366,18.464,34.134,31.71,5.194,7.083,6.263
638,0.892,38.5,18.537,34.115,31.714,5.234,7.042,6.343
639,0.866,38.578,18.569,34.096,31.71,5.153,7.001,6.343
640,0.862,38.694,18.589,34.114,31.714,5.193,7.001,6.343
641,0.843,38.676,18.539,34.124,31.707,5.234,7.082,6.384
642,0.862,38.801,18.569,34.115,31.7,5.032,6.961,6.222
643,0.853,38.917,18.503,34.124,31.707,5.151,6.96,6.302
644,0.836,38.937,18.511,34.144,31.707,5.193,7.0,6.506
645,0.833,38.957,18.565,34.134,31.707,5.234,7.001,6.386
646,0.826,39.11,18.581,34.134,31.714,5.275,7.041,6.466
647,0.81,39.15,18.589,34.124,31.707,5.154,6.92,6.345
648,0.823,39.218,18.519,34.134,31.703,5.153,6.959,6.303
649,0.826,39.084,18.534,34.144,31.721,5.315,7.082,6.506
650,0.836,39.198,18.581,34.134,31.717,5.195,6.961,6.386
651,0.843,39.305,18.574,34.163,31.714,5.316,6.878,6.263
652,0.833,39.315,18.55,34.144,31.714,5.195,6.918,6.343
653,0.833,39.382,18.589,34.115,31.707,5.194,6.837,6.221
654,0.846,39.517,18.554,34.163,31.71,5.275,6.918,6.22
655,0.82,39.595,18.527,34.211,31.714,5.276,6.878,6.342
656,0.823,39.587,18.519,34.125,31.703,5.073,6.674,6.221
657,0.8,39.481,18.546,34.134,31.707,5.193,6.835,6.22
658,0.813,39.557,18.589,34.124,31.71,5.275,6.918,6.383
659,0.797,39.663,18.55,34.23,31.721,5.316,6.878,6.222
660,0.777,39.654,18.534,34.154,31.721,5.276,6.877,6.342
661,0.761,39.721,18.573,34.125,31.707,5.154,6.837,6.221
662,0.757,39.866,18.566,34.201,31.707,5.193,6.837,6.22
663,0.764,39.982,18.527,34.192,31.721,5.438,7.121,6.383
664,0.774,39.667,18.593,34.163,31.717,5.277,7.043,6.303
665,0.777,39.808,18.601,34.173,31.703,5.235,6.96,6.221
666,0.78,39.905,18.523,34.173,31.707,5.153,7.082,6.22
667,0.767,39.945,18.538,34.173,31.707,5.234,7.042,6.261
668,0.787,39.724,18.499,34.173,31.707,5.235,7.123,6.262
669,0.774,39.847,18.577,34.173,31.71,5.235,7.165,6.343
670,0.79,39.915,18.546,34.154,31.7,5.113,7.002,6.181
671,0.79,39.983,18.573,34.173,31.707,5.193,7.123,6.261
672,0.784,39.907,18.566,34.154,31.71,5.316,7.165,6.343
673,0.806,40.06,18.57,34.173,31.707,5.276,7.165,6.262
674,0.807,40.157,18.554,34.182,31.714,5.316,7.246,6.262
675,0.777,40.148,18.581,34.135,31.703,5.276,7.044,6.262
676,0.784,39.841,18.613,34.153,31.707,5.154,7.042,6.18
677,0.78,39.982,18.574,34.211,31.724,5.397,7.245,6.383
678,0.774,40.089,18.496,34.192,31.71,5.358,7.206,6.303
679,0.767,40.464,18.542,34.183,31.714,5.317,7.125,6.221
680,0.744,40.027,18.538,34.192,31.703,5.317,7.124,6.261
681,0.741,40.147,18.562,34.154,31.703,5.236,7.124,6.262
682,0.757,40.273,18.554,34.201,31.714,5.275,7.205,6.343
683,0.741,39.996,18.585,34.192,31.714,5.316,7.206,6.343
684,0.741,40.013,18.507,34.183,31.703,5.195,7.084,6.221
685,0.744,40.147,18.522,34.182,31.71,5.316,7.123,6.342
686,0.738,40.215,18.55,34.173,31.707,5.317,7.124,6.343
687,0.757,39.833,18.577,34.192,31.707,5.317,7.165,6.425
688,0.767,39.973,18.624,34.211,31.71,5.358,7.287,6.385
689,0.774,40.041,18.551,34.173,31.7,5.317,7.125,6.425
690,0.787,40.147,18.573,34.192,31.703,5.276,7.083,6.385
691,0.8,39.841,18.55,34.211,31.71,5.398,7.327,6.507
692,0.797,39.992,18.554,34.202,31.714,5.318,7.167,6.467
693,0.784,40.089,18.534,34.202,31.717,5.317,7.206,6.507
694,0.764,40.119,18.573,34.192,31.714,5.317,7.206,6.427
695,0.777,39.793,18.527,34.173,31.71,5.236,7.206,6.385
696,0.784,40.02,18.522,34.249,31.717,5.438,7.287,6.466
697,0.787,40.061,18.554,34.212,31.717,5.399,7.288,6.507
698,0.793,40.099,18.558,34.192,31.71,5.318,7.247,6.386
699,0.767,39.841,18.554,34.192,31.71,5.398,7.369,6.425
700,0.751,39.992,18.542,34.192,31.707,5.318,7.411,6.466
701,0.751,40.089,18.581,34.211,31.717,5.358,7.452,6.548
702,0.741,40.1,18.539,34.211,31.71,5.399,7.534,6.549
703,0.731,39.774,18.542,34.173,31.696,5.277,7.372,6.508
704,0.738,39.886,18.55,34.182,31.707,5.316,7.452,6.549
705,0.747,40.002,18.605,34.211,31.714,5.398,7.615,6.793
706,0.744,39.888,18.578,34.211,31.714,5.358,7.495,6.633
707,0.754,39.848,18.539,34.221,31.714,5.358,7.534,6.672
708,0.761,39.963,18.511,34.212,31.71,5.399,7.453,6.631
709,0.78,40.012,18.542,34.202,31.696,5.318,7.412,6.712
710,0.787,39.696,18.55,34.25,31.71,5.439,7.493,6.713
711,0.777,39.779,18.55,34.241,31.707,5.399,7.494,6.794
712,0.774,39.886,18.558,34.212,31.707,5.236,7.331,6.673
713,0.784,39.944,18.562,34.221,31.714,5.316,7.451,6.672
714,0.777,39.408,18.538,34.259,31.71,5.317,7.615,6.794
715,0.78,39.566,18.511,34.222,31.714,5.317,7.535,6.673
716,0.787,39.692,18.581,34.25,31.71,5.439,7.575,6.753
717,0.78,39.703,18.57,34.202,31.71,5.196,7.494,6.714
718,0.78,39.53,18.578,34.202,31.707,5.316,7.412,6.632
719,0.777,39.691,18.574,34.259,31.728,5.48,7.615,6.875
720,0.761,39.789,18.57,34.231,31.717,5.359,7.495,6.715
721,0.764,39.847,18.527,34.221,31.714,5.358,7.453,6.672
722,0.754,39.455,18.534,34.212,31.707,5.358,7.412,6.672
723,0.735,39.556,18.542,34.202,31.7,5.317,7.371,6.713
724,0.757,39.692,18.589,34.202,31.717,5.358,7.33,6.794
725,0.764,39.703,18.523,34.221,31.71,5.399,7.492,6.714
726,0.751,39.329,18.507,34.24,31.703,5.196,7.29,6.632
727,0.757,39.459,18.522,34.212,31.696,5.356,7.329,6.672
728,0.764,39.557,18.534,34.211,31.71,5.399,7.41,6.753
729,0.777,39.721,18.511,34.211,31.714,5.399,7.33,6.714
730,0.8,39.329,18.534,34.231,31.714,5.44,7.329,6.672
731,0.787,39.392,18.581,34.212,31.714,5.318,7.37,6.631
732,0.797,39.517,18.5,34.221,31.703,5.317,7.248,6.59
733,0.826,39.116,18.538,34.24,31.721,5.601,7.45,6.753
734,0.8,39.141,18.558,34.212,31.714,5.36,7.29,6.632
735,0.826,39.256,18.593,34.221,31.71,5.399,7.288,6.631
736,0.81,39.315,18.543,34.231,31.71,5.44,7.207,6.55
737,0.777,38.999,18.484,34.212,31.703,5.318,7.165,6.549
738,0.784,39.188,18.526,34.231,31.714,5.358,7.287,6.59
739,0.767,39.285,18.565,34.231,31.714,5.48,7.288,6.631
740,0.757,39.325,18.515,34.212,31.707,5.318,7.125,6.428
741,0.748,39.018,18.515,34.221,31.703,5.317,7.165,6.548
742,0.734,39.14,18.604,34.202,31.707,5.358,7.206,6.671
743,0.728,39.285,18.551,34.231,31.71,5.399,7.165,6.713
744,0.741,39.334,18.57,34.231,31.71,5.44,7.206,6.672
745,0.721,38.874,18.535,34.173,31.707,5.359,7.165,6.631
746,0.75,39.033,18.573,34.202,31.707,5.358,7.124,6.59
747,0.767,39.14,18.617,34.231,31.721,5.521,7.287,6.793
748,0.774,39.16,18.551,34.221,31.714,5.4,7.125,6.673
749,0.793,38.94,18.531,34.231,31.71,5.399,7.205,6.713
750,0.79,39.043,18.554,34.212,31.717,5.358,7.206,6.713
751,0.774,39.13,18.472,34.231,31.703,5.317,7.125,6.754
752,0.787,39.198,18.549,34.221,31.707,5.398,7.327,6.754
753,0.793,38.796,18.562,34.231,31.717,5.399,7.41,6.714
754,0.787,38.917,18.566,34.192,31.7,5.236,7.167,6.551
755,0.803,39.024,18.515,34.221,31.707,5.316,7.328,6.63
756,0.797,38.804,18.534,34.221,31.71,5.439,7.37,6.794
757,0.784,38.812,18.554,34.221,31.714,5.318,7.289,6.795
758,0.79,38.927,18.597,34.24,31.707,5.358,7.369,6.755
759,0.774,38.985,18.437,34.25,31.714,5.317,7.37,6.673
760,0.774,38.612,18.498,34.231,31.707,5.317,7.289,6.631
761,0.78,38.752,18.612,34.269,31.724,5.52,7.451,6.712
762,0.751,38.869,18.527,34.25,31.721,5.36,7.33,6.713
763,0.761,38.956,18.534,34.241,31.714,5.277,7.329,6.632
764,0.754,38.573,18.569,34.221,31.714,5.276,7.289,6.672
765,0.754,38.694,18.581,34.231,31.703,5.235,7.288,6.672
766,0.78,38.811,18.546,34.231,31.71,5.235,7.247,6.672
767,0.774,38.879,18.464,34.26,31.71,5.357,7.288,6.672
768,0.767,38.553,18.526,34.222,31.703,5.236,7.207,6.631
769,0.787,38.694,18.558,34.221,31.703,5.275,7.247,6.55
770,0.777,38.82,18.57,34.25,31.714,5.398,7.328,6.834
771,0.79,38.879,18.539,34.26,31.703,5.358,7.289,6.674
772,0.806,38.525,18.546,34.25,31.714,5.358,7.288,6.713
773,0.816,38.627,18.527,34.241,31.707,5.317,7.247,6.672
774,0.816,38.743,18.526,34.231,31.707,5.236,7.125,6.55
775,0.813,38.801,18.562,34.269,31.724,5.438,7.327,6.712
776,0.803,38.399,18.593,34.25,31.71,5.318,7.167,6.632
777,0.8,38.549,18.554,34.25,31.707,5.317,7.124,6.631
778,0.794,38.665,18.542,34.327,31.714,5.317,7.083,6.631
779,0.771,38.628,18.546,34.241,31.703,5.236,7.002,6.55
780,0.78,38.407,18.558,34.269,31.721,5.316,7.123,6.63
781,0.777,38.539,18.538,34.26,31.71,5.317,7.205,6.55
782,0.764,38.598,18.546,34.241,31.703,5.195,7.043,6.508
783,0.748,38.368,18.605,34.25,31.707,5.234,7.082,6.549
784,0.747,38.472,18.476,34.269,31.717,5.316,7.164,6.712
785,0.767,38.597,18.541,34.26,31.707,5.317,7.165,6.591
786,0.77,38.675,18.538,34.279,31.721,5.317,7.206,6.631
787,0.757,38.12,18.593,34.26,31.703,5.236,7.165,6.55
788,0.764,38.258,18.597,34.241,31.703,5.153,7.043,6.468
789,0.783,38.413,18.586,34.308,31.731,5.397,7.082,6.629
790,0.78,38.462,18.57,34.27,31.71,5.318,7.123,6.631
791,0.787,38.041,18.519,34.27,31.703,5.195,7.002,6.468
792,0.78,38.171,18.542,34.26,31.707,5.194,7.082,6.548
793,0.793,38.259,18.538,34.25,31.703,5.153,7.002,6.468
794,0.803,38.355,18.601,34.26,31.71,5.315,7.041,6.589
795,0.8,38.088,18.472,34.289,31.714,5.276,7.042,6.549
796,0.787,38.21,18.495,34.241,31.696,5.154,6.92,6.427
797,0.79,38.317,18.487,34.269,31.707,5.275,7.0,6.426
798,0.784,38.356,18.569,34.27,31.714,5.195,7.163,6.548
799,0.787,37.973,18.507,34.279,31.717,5.316,6.962,6.549
800,0.774,38.122,18.542,34.289,31.717,5.276,7.0,6.508
801,0.735,38.191,18.569,34.27,31.71,5.195,6.879,6.467
802,0.773,38.24,18.499,34.279,31.707,5.153,6.918,6.386
803,0.761,38.039,18.557,34.318,31.721,5.356,7.041,6.547
804,0.77,38.123,18.585,34.299,31.707,5.195,6.92,6.508
805,0.767,38.22,18.586,34.289,31.714,5.275,6.878,6.427
806,0.777,37.952,18.55,34.279,31.707,5.154,6.837,6.466
807,0.754,37.94,18.456,34.279,31.703,5.153,6.796,6.426
808,0.777,38.084,18.506,34.289,31.714,5.234,6.836,6.507
809,0.78,38.152,18.577,34.298,31.721,5.316,6.958,6.63
810,0.777,37.693,18.539,34.27,31.696,5.154,6.716,6.509
811,0.784,37.822,18.538,34.289,31.71,5.193,6.876,6.467
812,0.787,37.92,18.569,34.298,31.714,5.275,6.959,6.629
813,0.803,38.026,18.476,34.299,31.703,5.195,6.919,6.468
814,0.8,37.644,18.522,34.299,31.721,5.275,6.796,6.548
815,0.797,37.755,18.558,34.289,31.707,5.235,6.755,6.468
816,0.79,37.871,18.585,34.289,31.703,5.153,6.714,6.467
817,0.803,37.978,18.613,34.318,31.721,5.356,6.835,6.548
818,0.771,37.614,18.512,34.289,31.714,5.236,6.837,6.59
819,0.774,37.764,18.542,34.298,31.71,5.235,6.796,6.427
820,0.771,37.842,18.581,34.299,31.707,5.194,6.755,6.426
821,0.77,37.881,18.558,34.27,31.703,5.153,6.714,6.385
822,0.774,37.728,18.558,34.308,31.707,5.275,6.754,6.466
823,0.761,37.823,18.593,34.327,31.714,5.276,6.836,6.507
824,0.757,37.891,18.523,34.289,31.703,5.154,6.674,6.427
825,0.754,37.949,18.519,34.308,31.717,5.193,6.713,6.426
826,0.764,37.758,18.518,34.327,31.724,5.275,6.794,6.548
827,0.777,37.881,18.55,34.299,31.71,5.316,6.795,6.549
828,0.78,37.978,18.581,34.327,31.714,5.317,6.795,6.468
829,0.777,37.653,18.55,34.308,31.71,5.276,6.673,6.386
830,0.79,37.352,18.531,34.289,31.703,5.195,6.672,6.385
831,0.797,37.522,18.558,34.337,31.724,5.356,6.753,6.425
832,0.79,37.6,18.566,34.328,31.71,5.277,6.754,6.385
833,0.793,37.352,18.542,34.328,31.71,5.235,6.632,6.303
834,0.78,37.455,18.577,34.308,31.707,5.275,6.672,6.343
835,0.774,37.58,18.589,34.299,31.707,5.195,6.631,6.384
836,0.8,37.677,18.504,34.318,31.707,5.234,6.712,6.466
837,0.774,37.314,18.546,34.328,31.714,5.235,6.713,6.467
838,0.761,37.445,18.515,34.308,31.696,5.153,6.632,6.304
839,0.757,37.561,18.573,34.318,31.71,5.193,6.672,6.302
840,0.751,37.639,18.531,34.356,31.717,5.234,6.794,6.547
841,0.754,37.41,18.569,34.328,31.714,5.235,6.673,6.346
842,0.754,37.561,18.558,34.328,31.717,5.316,6.713,6.384
843,0.735,37.639,18.558,34.347,31.71,5.195,6.672,6.385
844,0.731,37.688,18.55,34.309,31.703,5.234,6.55,6.303
845,0.757,37.314,18.597,34.366,31.721,5.316,6.671,6.343
846,0.764,37.406,18.625,34.338,31.717,5.236,6.672,6.343
847,0.767,37.503,18.559,34.328,31.703,5.113,6.591,6.221
848,0.78,37.523,18.558,34.337,31.707,5.234,6.59,6.302
849,0.767,37.332,18.574,34.318,31.707,5.153,6.631,6.343
850,0.774,37.474,18.531,34.337,31.714,5.234,6.631,6.343
851,0.787,37.6,18.546,34.347,31.721,5.316,6.672,6.384
852,0.774,37.908,18.566,34.328,31.71,5.236,6.631,6.303
853,0.784,37.259,18.535,34.299,31.714,5.235,6.631,6.302
854,0.79,37.415,18.546,34.366,31.721,5.357,6.712,6.465
855,0.784,37.494,18.538,34.347,31.721,5.317,6.713,6.386
856,0.764,37.351,18.566,34.347,31.71,5.276,6.672,6.303
857,0.77,37.397,18.605,34.337,31.71,5.316,6.794,6.343
858,0.754,37.493,18.59,34.337,31.703,5.195,6.714,6.303
859,0.751,37.619,18.574,34.366,31.714,5.275,6.835,6.384
860,0.731,37.323,18.57,34.357,31.707,5.316,6.877,6.385
861,0.731,37.406,18.488,34.318,31.703,5.276,6.877,6.344
862,0.744,37.551,18.534,34.337,31.707,5.235,6.837,6.343
863,0.744,37.639,18.581,34.385,31.721,5.397,7.121,6.588
864,0.744,37.304,18.562,34.357,31.714,5.358,7.043,6.427
865,0.741,37.435,18.515,34.366,31.714,5.317,7.001,6.344
866,0.741,37.542,18.522,34.366,31.707,5.236,7.041,6.343
867,0.744,37.6,18.519,34.347,31.707,5.235,7.082,6.303
868,0.773,37.438,18.565,34.385,31.721,5.438,7.205,6.343
869,0.761,37.542,18.581,34.443,31.717,5.359,7.206,6.384
870,0.761,37.658,18.566,34.338,31.7,5.236,7.084,6.303
871,0.751,37.678,18.597,34.356,31.717,5.316,7.164,6.384
872,0.741,37.352,18.551,34.357,31.707,5.358,7.368,6.344
873,0.77,37.503,18.523,34.357,31.707,5.317,7.411,6.343
874,0.767,37.61,18.581,34.376,31.717,5.439,7.33,6.425
875,0.751,37.601,18.55,34.338,31.703,5.359,7.37,6.344
876,0.751,37.323,18.48,34.366,31.707,5.317,7.37,6.343
877,0.761,37.464,18.522,34.472,31.728,5.52,7.614,6.506
878,0.754,37.552,18.507,34.377,31.71,5.319,7.535,6.386
879,0.744,37.533,18.596,34.376,31.714,5.317,7.453,6.344
880,0.747,37.543,18.574,34.386,31.714,5.358,7.493,6.303
881,0.738,37.639,18.542,34.347,31.707,5.195,7.412,6.343
882,0.757,37.774,18.566,34.404,31.721,5.397,7.533,6.384
883,0.722,37.353,18.535,34.386,31.714,5.358,7.575,6.425
884,0.715,37.464,18.546,34.367,31.707,5.277,7.413,6.182
885,0.715,37.561,18.581,34.366,31.714,5.276,7.452,6.301
886,0.731,37.62,18.582,34.366,31.707,5.276,7.534,6.343
887,0.728,37.39,18.554,34.376,31.71,5.316,7.494,6.262
888,0.725,37.57,18.538,34.405,31.721,5.358,7.534,6.302
889,0.724,37.629,18.534,34.357,31.7,5.317,7.494,6.302
890,0.741,37.716,18.526,34.376,31.707,5.276,7.371,6.221
891,0.747,37.382,18.558,34.395,31.721,5.479,7.695,6.464
892,0.767,37.512,18.562,34.395,31.717,5.318,7.577,6.345
893,0.751,37.638,18.585,34.395,31.717,5.358,7.535,6.262
894,0.754,37.707,18.535,34.424,31.717,5.358,7.453,6.302
895,0.757,37.516,18.523,34.348,31.707,5.195,7.452,6.343
896,0.767,37.696,18.573,34.404,31.717,5.275,7.534,6.303
897,0.735,37.765,18.589,34.395,31.707,5.316,7.494,6.425
898,0.728,37.785,18.586,34.386,31.7,5.236,7.371,6.263
899,0.721,37.44,18.543,34.367,31.707,5.235,7.37,6.262
900,0.718,37.561,18.562,34.376,31.71,5.275,7.411,6.343
901,0.728,37.687,18.488,34.405,31.707,5.316,7.371,6.384
902,0.725,37.928,18.553,34.405,31.714,5.317,7.533,6.507
903,0.705,37.652,18.55,34.367,31.703,5.276,7.453,6.386
904,0.715,37.803,18.581,34.386,31.707,5.195,7.33,6.303
905,0.715,37.939,18.507,34.424,31.721,5.438,7.492,6.506
906,0.724,37.604,18.518,34.405,31.71,5.237,7.453,6.427
907,0.728,37.678,18.534,34.415,31.71,5.275,7.371,6.385
908,0.731,37.765,18.565,34.396,31.71,5.235,7.33,6.425
909,0.734,37.861,18.562,34.386,31.71,5.153,7.289,6.344
910,0.747,37.632,18.562,34.434,31.717,5.234,7.41,6.466
911,0.751,37.735,18.566,34.405,31.714,5.275,7.371,6.467
912,0.761,37.852,18.546,34.405,31.707,5.154,7.208,6.345
913,0.77,37.92,18.519,34.405,31.707,5.234,7.287,6.425
914,0.751,37.575,18.577,34.395,31.707,5.235,7.247,6.466
915,0.754,37.744,18.597,34.424,31.71,5.153,7.369,6.548
916,0.741,37.852,18.519,34.434,31.717,5.234,7.37,6.59
917,0.728,37.882,18.538,34.415,31.707,5.153,7.289,6.59
918,0.734,37.623,18.519,34.386,31.707,5.193,7.207,6.549
919,0.741,37.755,18.616,34.424,31.717,5.356,7.409,6.712
920,0.728,37.89,18.547,34.415,31.714,5.236,7.371,6.672
921,0.728,37.911,18.562,34.396,31.71,5.316,7.37,6.631
922,0.728,37.604,18.519,34.405,31.707,5.236,7.289,6.631
923,0.718,37.745,18.546,34.405,31.71,5.194,7.207,6.59
924,0.724,37.871,18.534,34.424,31.714,5.234,7.287,6.631
925,0.724,37.872,18.593,34.424,31.71,5.235,7.329,6.631
926,0.728,37.604,18.601,34.415,31.7,5.072,7.126,6.468
927,0.725,37.745,18.562,34.415,31.707,5.111,7.205,6.629
928,0.731,37.804,18.538,34.443,31.717,5.274,7.369,6.712
929,0.747,37.728,18.55,34.434,31.707,5.276,7.33,6.672
930,0.744,37.756,18.519,34.463,31.714,5.316,7.329,6.753
931,0.734,37.833,18.515,34.415,31.707,5.276,7.248,6.673
932,0.751,37.92,18.585,34.415,31.71,5.235,7.206,6.631
933,0.761,37.547,18.511,34.463,31.721,5.397,7.328,6.794
934,0.761,37.658,18.514,34.425,31.71,5.358,7.289,6.633
935,0.748,37.774,18.534,34.444,31.71,5.317,7.207,6.55
936,0.721,37.852,18.593,34.425,31.714,5.358,7.125,6.63
937,0.705,38.764,18.601,34.405,31.71,5.277,7.165,6.55
938,0.728,38.955,18.57,34.443,31.71,5.316,7.206,6.549
939,0.728,39.043,18.546,34.444,31.717,5.398,7.206,6.63
940,0.721,39.073,18.597,34.405,31.696,5.236,7.043,6.509
941,0.718,36.935,18.539,34.501,31.714,5.316,7.082,6.467
942,0.708,37.067,18.511,34.444,31.71,5.48,7.205,6.67
943,0.698,37.202,18.573,34.444,31.717,5.481,7.084,6.631
944,0.711,37.252,18.554,34.453,31.717,5.44,7.123,6.59
945,0.695,37.818,18.534,34.482,31.714,5.44,7.043,6.59
946,0.714,37.958,18.495,34.425,31.71,5.359,6.96,6.468
947,0.734,38.103,18.569,34.482,31.721,5.521,7.041,6.507
948,0.725,38.085,18.609,34.454,31.707,5.482,7.001,6.508
949,0.731,37.366,18.601,34.463,31.707,5.318,6.96,6.427
950,0.728,37.483,18.554,34.454,31.71,5.398,6.919,6.466
951,0.725,37.561,18.558,34.444,31.71,5.358,6.959,6.507
952,0.75,37.648,18.562,34.463,31.71,5.48,6.878,6.508
953,0.77,37.467,18.546,34.463,31.721,5.4,7.04,6.508
954,0.754,37.532,18.573,34.415,31.703,5.277,6.839,6.427
955,0.757,37.658,18.566,34.453,31.707,5.316,6.755,6.304
956,0.757,37.515,18.503,34.473,31.714,5.48,6.998,6.628
957,0.754,37.619,18.514,34.454,31.714,5.4,6.838,6.428
958,0.748,37.745,18.538,34.482,31.71,5.399,6.877,6.426
959,0.728,37.804,18.519,34.463,31.714,5.399,6.837,6.385
960,0.721,37.248,18.538,34.463,31.714,5.358,6.796,6.344
961,0.731,37.415,18.577,34.473,31.714,5.399,6.877,6.425
962,0.728,37.522,18.515,34.482,31.714,5.399,6.877,6.507
963,0.721,37.581,18.526,34.454,31.707,5.236,6.715,6.264
964,0.708,37.351,18.554,34.463,31.71,5.316,6.713,6.343
965,0.702,37.474,18.585,34.463,31.707,5.398,6.835,6.466
966,0.698,37.6,18.566,34.463,31.714,5.399,6.877,6.345
967,0.711,37.658,18.499,34.482,31.717,5.399,6.837,6.343
968,0.708,37.266,18.499,34.454,31.71,5.277,6.796,6.303
969,0.731,37.396,18.573,34.453,31.707,5.316,6.836,6.302
970,0.741,37.551,18.55,34.501,31.721,5.48,6.958,6.465
971,0.738,37.562,18.546,34.483,31.717,5.4,6.878,6.304
972,0.734,37.275,18.566,34.473,31.717,5.358,6.837,6.262
973,0.734,37.406,18.546,34.549,31.714,5.399,6.918,6.262
974,0.741,37.484,18.527,34.464,31.703,5.318,6.837,6.262
975,0.757,37.561,18.562,34.501,31.71,5.358,6.958,6.302
976,0.735,37.227,18.597,34.492,31.714,5.439,6.919,6.343
977,0.718,37.31,18.562,34.454,31.7,5.237,6.756,6.262
978,0.724,37.425,18.554,34.492,31.714,5.357,6.836,6.221
979,0.718,37.053,18.523,34.483,31.721,5.358,6.918,6.424
980,0.718,37.049,18.526,34.483,31.707,5.399,6.878,6.385
981,0.708,37.183,18.565,34.502,31.714,5.358,6.959,6.303
982,0.698,37.242,18.566,34.492,31.71,5.358,6.96,6.343
983,0.701,37.597,18.578,34.483,31.71,5.236,6.878,6.343
984,0.711,37.774,18.5,34.53,31.724,5.519,7.04,6.425
985,0.705,37.881,18.534,34.493,31.71,5.319,7.001,6.385
986,0.718,37.968,18.554,34.502,31.717,5.398,6.919,6.303
987,0.711,36.655,18.601,34.502,31.71,5.399,6.919,6.302
988,0.715,36.757,18.601,34.492,31.703,5.196,7.0,6.302
989,0.731,36.921,18.539,34.502,31.714,5.316,6.919,6.465
990,0.725,36.98,18.577,34.511,31.714,5.358,7.041,6.467
991,0.721,36.914,18.535,34.483,31.7,5.277,6.96,6.345
992,0.724,37.076,18.526,34.483,31.71,5.316,6.96,6.343
993,0.721,37.183,18.565,34.492,31.707,5.358,7.082,6.466
994,0.744,37.242,18.57,34.502,31.71,5.317,6.88,6.345
995,0.741,36.792,18.488,34.521,31.714,5.358,7.04,6.384
996,0.728,36.883,18.503,34.483,31.717,5.317,6.96,6.385
997,0.734,37.028,18.534,34.492,31.707,5.276,6.919,6.303
998,0.734,37.077,18.605,34.559,31.728,5.479,7.041,6.465
999,0.725,36.761,18.582,34.531,31.714,5.359,6.96,6.386
1000,0.715,36.921,18.535,34.521,31.71,5.317,6.919,6.263
1001,0.715,36.99,18.585,34.502,31.717,5.195,6.919,6.302
1002,0.711,36.904,18.531,34.502,31.7,5.234,6.878,6.384
1003,0.724,36.798,18.542,34.521,31.714,5.316,6.959,6.466
1004,0.731,36.883,18.589,34.521,31.714,5.317,6.96,6.426
1005,0.721,36.961,18.566,34.502,31.7,5.154,6.797,6.263
1006,0.724,36.636,18.527,34.511,31.71,5.153,6.917,6.343
1007,0.721,36.738,18.515,34.607,31.714,5.234,6.959,6.425
1008,0.711,36.873,18.526,34.532,31.714,5.275,7.041,6.344
1009,0.721,36.942,18.546,34.54,31.714,5.276,6.96,6.425
1010,0.728,36.453,18.523,34.493,31.714,5.316,6.878,6.385
1011,0.741,36.611,18.585,34.511,31.717,5.195,6.837,6.344
1012,0.751,36.738,18.554,34.559,31.724,5.438,6.918,6.384
1013,0.751,36.825,18.527,34.522,31.714,5.318,6.878,6.425
1014,0.741,36.471,18.546,34.521,31.71,5.317,6.796,6.304
1015,0.734,36.602,18.573,34.531,31.707,5.195,6.795,6.343
1016,0.728,36.709,18.585,34.512,31.703,5.234,6.755,6.303
1017,0.744,36.796,18.531,34.54,31.714,5.316,6.876,6.384
1018,0.734,36.452,18.562,34.541,31.717,5.276,6.877,6.385
1019,0.721,36.573,18.577,34.512,31.7,5.154,6.715,6.263
1020,0.718,36.708,18.57,34.531,31.707,5.275,6.794,6.302
1021,0.702,36.748,18.55,34.54,31.717,5.398,6.877,6.425
1022,0.698,36.49,18.601,34.55,31.714,5.277,6.918,6.426
1023,0.695,36.64,18.515,34.56,31.71,5.316,6.959,6.385
1024,0.698,36.728,18.515,34.531,31.71,5.276,6.919,6.303
1025,0.688,37.074,18.554,34.521,31.703,5.235,6.796,6.221
1026,0.711,36.416,18.566,34.56,31.728,5.397,7.039,6.464
1027,0.715,36.525,18.585,34.531,31.714,5.318,6.96,6.304
1028,0.721,36.641,18.55,34.55,31.714,5.236,6.838,6.262
1029,0.721,36.287,18.523,34.541,31.707,5.275,6.877,6.262
1030,0.721,36.303,18.507,34.541,31.703,5.154,6.837,6.221
1031,0.747,36.466,18.557,34.56,31.707,5.315,6.877,6.302
1032,0.751,36.535,18.542,34.56,31.714,5.276,6.959,6.343
1033,0.748,36.133,18.573,34.522,31.707,5.154,6.838,6.14
1034,0.741,36.311,18.418,34.579,31.71,5.234,6.877,6.219
1035,0.725,36.389,18.517,34.541,31.717,5.316,6.959,6.302
1036,0.721,36.515,18.565,34.569,31.703,5.276,6.96,6.262
1037,0.734,36.171,18.601,34.56,31.717,5.316,7.0,6.343
1038,0.721,36.273,18.601,34.55,31.71,5.276,6.96,6.221
1039,0.721,36.418,18.578,34.56,31.707,5.195,6.96,6.139
1040,0.724,36.515,18.617,34.579,31.728,5.397,7.122,6.341
1041,0.731,36.094,18.527,34.57,31.714,5.318,7.124,6.262
1042,0.734,36.253,18.558,34.579,31.71,5.236,7.124,6.221
1043,0.712,36.37,18.577,34.57,31.721,5.275,7.083,6.18
1044,0.724,36.4,18.585,34.55,31.714,5.195,7.002,6.179
1045,0.754,36.122,18.504,34.589,31.714,5.275,7.123,6.22
1046,0.731,36.244,18.511,34.599,31.714,5.276,7.165,6.302
1047,0.734,36.322,18.507,34.551,31.707,5.113,6.962,6.058
1048,0.734,36.351,18.553,34.569,31.707,5.234,7.041,6.097
1049,0.725,36.131,18.55,34.55,31.717,5.316,7.123,6.219
1050,0.734,36.253,18.519,34.589,31.717,5.276,7.124,6.22
1051,0.734,36.351,18.6,34.599,31.71,5.316,7.165,6.22
1052,0.738,36.064,18.558,34.579,31.714,5.236,7.124,6.18
1053,0.754,35.869,18.515,34.551,31.71,5.113,7.002,6.057
1054,0.767,36.04,18.593,34.608,31.724,5.315,7.163,6.137
1055,0.774,36.109,18.593,34.589,31.714,5.276,7.084,6.179
1056,0.774,35.994,18.48,34.599,31.71,5.154,6.961,6.098
1057,0.777,36.108,18.522,34.589,31.71,5.234,6.96,6.138
1058,0.78,36.205,18.515,34.56,31.71,5.194,7.041,6.179
1059,0.79,36.321,18.522,34.57,31.714,5.234,7.001,6.179
1060,0.787,35.766,18.538,34.589,31.714,5.275,7.082,6.22
1061,0.8,35.885,18.577,34.56,31.707,5.195,6.961,6.18
1062,0.797,36.03,18.519,34.579,31.707,5.194,6.919,6.139
1063,0.797,36.099,18.542,34.608,31.724,5.356,7.081,6.301
1064,0.803,35.86,18.566,34.599,31.707,5.236,6.92,6.14
1065,0.823,36.02,18.581,34.599,31.717,5.316,7.0,6.219
1066,0.813,36.108,18.558,34.599,31.71,5.276,6.919,6.098
1067,0.807,36.167,18.488,34.57,31.707,5.154,6.878,6.097
1068,0.813,35.793,18.549,34.627,31.724,5.315,6.959,6.219
1069,0.826,35.886,18.534,34.599,31.714,5.236,7.0,6.098
1070,0.839,36.011,18.554,34.579,31.707,5.153,6.879,6.016
1071,0.839,36.032,18.558,34.598,31.707,5.153,7.0,6.096
1072,0.846,35.792,18.538,34.57,31.7,5.193,7.001,6.097
1073,0.872,35.943,18.55,34.598,31.707,5.234,7.123,6.178
1074,0.859,36.05,18.511,34.618,31.721,5.316,7.124,6.261
1075,0.853,36.224,18.561,34.57,31.7,5.154,7.043,6.18
1076,0.866,35.784,18.597,34.598,31.707,5.153,7.082,6.057
1077,0.869,35.924,18.551,34.618,31.717,5.275,7.327,6.341
1078,0.866,36.031,18.527,34.599,31.721,5.276,7.167,6.181
1079,0.866,35.639,18.569,34.608,31.714,5.276,7.287,6.22
1080,0.853,35.683,18.539,34.608,31.71,5.316,7.207,6.261
1081,0.84,35.798,18.55,34.58,31.71,5.154,7.165,6.18
1082,0.852,35.914,18.601,34.637,31.724,5.315,7.206,6.301
1083,0.823,35.657,18.515,34.599,31.721,5.236,7.287,6.302
1084,0.826,35.817,18.526,34.618,31.707,5.194,7.125,6.18
1085,0.839,35.915,18.562,34.608,31.707,5.234,7.205,6.139
1086,0.846,35.983,18.585,34.599,31.707,5.235,7.287,6.219
1087,0.856,35.59,18.621,34.599,31.714,5.235,7.288,6.18
1088,0.875,35.721,18.535,34.618,31.717,5.316,7.329,6.301
1089,0.882,35.818,18.534,34.589,31.703,5.154,7.207,6.262
1090,0.895,35.895,18.565,34.599,31.714,5.193,7.206,6.221
1091,0.892,35.609,18.535,34.618,31.714,5.275,7.328,6.383
1092,0.902,35.74,18.55,34.608,31.714,5.235,7.329,6.303
1093,0.908,35.856,18.589,34.637,31.717,5.275,7.37,6.262
1094,0.899,35.877,18.507,34.609,31.71,5.235,7.289,6.221
1095,0.915,35.589,18.518,34.599,31.703,5.194,7.288,6.18
1096,0.925,35.768,18.569,34.647,31.724,5.397,7.369,6.301
1097,0.925,35.837,18.585,34.637,31.71,5.318,7.37,6.302
1098,0.918,35.867,18.613,34.628,31.71,5.195,7.248,6.221
1099,0.915,35.608,18.562,34.628,31.707,5.194,7.247,6.302
1100,0.892,35.74,18.57,34.609,31.714,5.234,7.288,6.221
1101,0.915,35.837,18.535,34.637,31.714,5.235,7.329,6.302
1102,0.892,35.685,18.534,34.637,31.717,5.275,7.289,6.384
1103,0.879,35.626,18.519,34.599,31.7,5.113,7.166,6.222
1104,0.879,35.769,18.581,34.637,31.707,5.193,7.368,6.261
1105,0.866,35.857,18.519,34.657,31.714,5.234,7.452,6.384
1106,0.889,35.397,18.53,34.685,31.71,5.194,7.29,6.303
1107,0.889,35.508,18.546,34.657,31.721,5.275,7.369,6.343
1108,0.879,35.605,18.538,34.628,31.714,5.276,7.289,6.181
1109,0.869,35.702,18.526,34.609,31.714,5.154,7.329,6.139
1110,0.879,35.472,18.534,34.666,31.721,5.315,7.492,6.26
1111,0.869,35.566,18.62,34.647,31.714,5.195,7.494,6.262
1112,0.876,35.701,18.562,34.637,31.707,5.194,7.371,6.099
1113,0.898,35.77,18.531,34.628,31.714,5.153,7.411,6.178
1114,0.889,35.454,18.562,34.618,31.71,5.112,7.411,6.139
1115,0.905,35.614,18.597,34.647,31.714,5.193,7.452,6.219
1116,0.869,35.74,18.543,34.647,31.721,5.194,7.534,6.261
1117,0.85,35.77,18.425,34.628,31.703,5.072,7.412,6.18
1118,0.827,35.348,18.518,34.637,31.703,5.193,7.493,6.179
1119,0.839,35.469,18.573,34.628,31.714,5.153,7.656,6.342
1120,0.817,35.604,18.558,34.637,31.714,5.275,7.576,6.303
1121,0.813,35.644,18.57,34.657,31.717,5.235,7.657,6.302
1122,0.781,35.395,18.562,34.638,31.714,5.153,7.576,6.221
1123,0.758,35.546,18.531,34.628,31.71,5.071,7.494,6.18
1124,0.764,35.701,18.558,34.676,31.731,5.233,7.697,6.301
1125,0.764,35.693,18.574,34.657,31.714,5.235,7.618,6.302
1126,0.777,35.424,18.617,34.657,31.714,5.194,7.617,6.18
1127,0.777,35.556,18.566,34.647,31.703,5.153,7.617,6.22
1128,0.78,35.653,18.535,34.628,31.707,5.153,7.617,6.18
1129,0.784,35.338,18.601,34.656,31.714,5.153,7.698,6.22
1130,0.774,35.421,18.551,34.666,31.714,5.153,7.699,6.302
1131,0.777,35.546,18.527,34.638,31.707,5.071,7.577,6.18
1132,0.797,35.624,18.585,34.657,31.71,5.193,7.698,6.139
1133,0.797,35.261,18.496,34.647,31.71,5.194,7.821,6.301
1134,0.807,35.41,18.522,34.666,31.71,5.234,7.781,6.221
1135,0.794,35.556,18.55,34.676,31.721,5.235,7.822,6.261
1136,0.777,35.596,18.573,34.647,31.714,5.153,7.741,6.262
1137,0.748,35.318,18.597,34.637,31.707,5.112,7.781,6.221
1138,0.744,35.478,18.519,34.704,31.724,5.315,7.903,6.302
1139,0.725,35.595,18.565,34.676,31.721,5.195,7.863,6.262
1140,0.731,35.644,18.57,34.667,31.714,5.234,7.822,6.221
1141,0.721,35.338,18.566,34.657,31.71,5.235,7.822,6.139
1142,0.698,35.478,18.554,34.657,31.703,5.113,7.944,6.179
1143,0.692,35.643,18.597,34.695,31.721,5.193,7.945,6.22
1144,0.675,35.654,18.519,34.695,31.717,5.194,7.986,6.261
1145,0.662,35.347,18.522,34.667,31.707,5.072,7.824,6.058
1146,0.675,35.478,18.538,34.676,31.714,5.152,7.944,6.097
1147,0.672,35.547,18.546,34.667,31.717,5.234,7.945,6.26
1148,0.678,35.586,18.581,34.676,31.707,5.194,7.905,6.18
1149,0.682,35.289,18.554,34.686,31.717,5.234,8.026,6.179
1150,0.662,35.372,18.55,34.676,31.71,5.235,7.946,6.179
1151,0.672,35.498,18.523,34.667,31.71,5.194,7.864,6.139
1152,0.691,35.384,18.558,34.714,31.728,5.316,8.026,6.26
1153,0.679,35.364,18.558,34.676,31.721,5.276,7.865,6.18
1154,0.688,35.507,18.613,34.695,31.717,5.195,7.863,6.139
1155,0.692,35.585,18.512,34.676,31.71,5.275,7.822,6.138
1156,0.662,35.145,18.518,34.657,31.707,5.195,7.822,6.098
1157,0.675,35.294,18.55,34.685,31.717,5.234,7.903,6.219
1158,0.672,35.42,18.562,34.695,31.714,5.316,7.945,6.22
1159,0.649,35.47,18.531,34.686,31.707,5.154,7.864,6.139
1160,0.652,35.221,18.53,34.686,31.707,5.234,7.782,6.138
1161,0.639,35.352,18.593,34.705,31.721,5.357,8.066,6.301
1162,0.626,35.469,18.472,34.715,31.717,5.277,7.865,6.221
1163,0.629,35.566,18.538,34.705,31.717,5.235,7.822,6.18
1164,0.616,35.289,18.566,34.696,31.71,5.194,7.822,6.179
1165,0.616,35.411,18.574,34.695,31.707,5.153,7.741,6.179
1166,0.639,35.575,18.558,34.734,31.717,5.315,7.821,6.139
1167,0.629,35.596,18.488,34.725,31.717,5.236,7.822,6.179
1168,0.636,35.155,18.51,34.686,31.707,5.153,7.619,6.017
1169,0.649,35.275,18.596,34.705,31.714,5.193,7.698,6.178
1170,0.642,35.411,18.527,34.715,31.714,5.234,7.78,6.22
1171,0.639,35.441,18.542,34.715,31.71,5.235,7.74,6.22
1172,0.659,35.23,18.558,34.724,31.717,5.235,7.74,6.139
1173,0.659,35.324,18.531,34.696,31.707,5.235,7.699,6.179
1174,0.669,35.449,18.523,34.705,31.71,5.153,7.658,6.098
1175,0.678,35.432,18.577,34.743,31.731,5.315,7.861,6.138
1176,0.669,35.268,18.624,34.706,31.717,5.236,7.782,6.219
1177,0.659,35.391,18.605,34.743,31.71,5.235,7.659,6.098
1178,0.646,35.498,18.574,34.706,31.71,5.194,7.698,6.097
1179,0.642,35.154,18.546,34.696,31.703,5.194,7.536,6.016
1180,0.655,35.304,18.562,34.734,31.714,5.234,7.616,6.137
1181,0.642,35.42,18.531,34.744,31.714,5.316,7.739,6.179
1182,0.633,35.489,18.55,34.715,31.707,5.154,7.496,6.017
1183,0.642,35.115,18.566,34.724,31.71,5.193,7.534,6.137
1184,0.623,35.246,18.429,34.724,31.714,5.316,7.697,6.219
1185,0.626,35.381,18.498,34.715,31.714,5.154,7.658,6.139
1186,0.642,35.46,18.526,34.744,31.714,5.275,7.658,6.179
1187,0.642,35.086,18.573,34.686,31.714,5.235,7.658,6.139
1188,0.652,35.236,18.57,34.715,31.707,5.153,7.495,6.016
1189,0.685,35.401,18.581,34.763,31.721,5.315,7.656,6.259
1190,0.682,35.45,18.585,34.744,31.717,5.195,7.617,6.18
1191,0.666,35.125,18.519,34.753,31.714,5.194,7.617,6.098
1192,0.685,35.256,18.526,34.734,31.71,5.194,7.576,6.097
1193,0.682,35.372,18.546,34.696,31.703,5.153,7.494,6.016
1194,0.711,35.44,18.569,34.753,31.721,5.234,7.616,6.096
1195,0.689,35.134,18.503,34.754,31.71,5.275,7.535,6.138
1196,0.669,35.265,18.518,34.715,31.707,5.073,7.412,6.016
1197,0.678,35.363,18.546,34.744,31.707,5.152,7.493,6.056
1198,0.662,35.661,18.566,34.715,31.71,5.193,7.494,6.137
1199,0.662,35.156,18.578,34.83,31.714,5.194,7.534,6.138
1200,0.652,35.285,18.55,34.754,31.714,5.234,7.534,6.138
1201,0.629,35.334,18.546,34.715,31.714,5.153,7.494,6.138
1202,0.636,35.133,18.554,34.744,31.707,5.234,7.371,6.138
1203,0.639,35.179,18.511,34.773,31.721,5.316,7.533,6.301
1204,0.668,35.314,18.589,34.763,31.71,5.154,7.372,6.18
1205,0.704,35.401,18.593,34.763,31.721,5.193,7.411,6.139
1206,0.737,35.038,18.531,34.754,31.717,5.153,7.371,6.138
1207,0.767,35.159,18.417,34.744,31.71,5.071,7.248,6.138
1208,0.809,35.333,18.521,34.792,31.724,5.193,7.288,6.138
1209,0.833,35.392,18.519,34.754,31.714,5.234,7.329,6.219
1210,0.891,35.009,18.538,34.754,31.71,5.113,7.126,6.098
1211,0.931,35.12,18.562,34.754,31.707,5.152,7.205,6.097
1212,1.01,35.236,18.519,34.754,31.707,5.153,7.165,6.178
1213,1.082,35.343,18.542,34.754,31.714,5.193,7.206,6.22
1214,1.135,35.085,18.558,34.754,31.728,5.234,7.287,6.302
1215,1.161,35.198,18.589,34.734,31.7,5.113,7.125,6.18
1216,1.2,35.324,18.578,34.763,31.707,5.152,7.124,6.301
1217,1.214,35.392,18.507,34.782,31.724,5.275,7.327,6.425
1218,1.237,34.98,18.503,34.754,31.714,5.195,7.167,6.304
1219,1.247,35.129,18.577,34.782,31.714,5.194,7.206,6.302
1220,1.25,35.237,18.546,34.783,31.71,5.153,7.165,6.262
1221,1.279,35.276,18.534,34.754,31.707,5.153,7.043,6.221
1222,1.309,35.065,18.585,34.811,31.721,5.315,7.204,6.302
1223,1.309,35.188,18.539,34.831,31.714,5.195,7.165,6.384
1224,1.313,35.275,18.519,34.773,31.707,5.031,7.002,6.222
1225,1.316,35.104,18.577,34.773,31.714,5.192,7.123,6.302
1226,1.352,34.958,18.582,34.763,31.714,5.194,7.083,6.343
1227,1.349,35.091,18.585,34.782,31.714,5.153,7.164,6.384
1228,1.378,35.217,18.562,34.802,31.717,5.193,7.165,6.425
1229,1.388,34.873,18.57,34.744,31.707,5.153,7.043,6.385
1230,1.404,34.994,18.566,34.792,31.707,5.153,7.082,6.385
1231,1.473,35.158,18.511,34.821,31.728,5.315,7.205,6.629
1232,1.509,35.227,18.589,34.773,31.717,5.195,7.043,6.509
1233,1.532,34.931,18.527,34.782,31.717,5.194,7.042,6.508
1234,1.516,35.062,18.546,34.783,31.714,5.153,6.96,6.549
1235,1.51,35.169,18.538,34.773,31.707,5.071,6.96,6.508
1236,1.49,35.294,18.593,34.811,31.721,5.193,7.082,6.63
1237,1.444,34.855,18.605,34.792,31.707,5.275,7.002,6.753
1238,1.415,34.994,18.512,34.792,31.714,5.113,6.919,6.47
1239,1.353,35.13,18.53,34.773,31.71,5.234,7.0,6.629
1240,1.28,35.16,18.565,34.782,31.717,5.194,6.96,6.753
1241,1.211,34.901,18.535,34.792,31.714,5.234,7.082,6.795
1242,1.146,35.042,18.526,34.821,31.714,5.194,7.123,6.836
1243,1.031,35.14,18.562,34.783,31.707,5.153,7.043,6.796
1244,0.939,35.169,18.542,34.792,31.714,5.112,7.123,6.755
1245,0.837,34.92,18.573,34.879,31.717,5.315,7.327,6.957
1246,0.729,35.071,18.519,34.812,31.717,5.154,7.207,6.96
1247,0.63,35.188,18.573,34.812,31.714,5.193,7.206,6.96
1248,0.509,35.448,18.601,34.783,31.717,5.194,7.287,7.122
1249,0.368,34.923,18.57,34.792,31.7,5.112,7.247,7.205
1250,0.295,35.081,18.562,34.811,31.714,5.193,7.328,7.45
1251,0.21,35.179,18.574,34.831,31.721,5.275,7.492,7.778
1252,0.108,34.901,18.542,34.773,31.703,5.032,7.331,7.822
1253,-0.014,35.004,18.542,34.792,31.71,5.07,7.451,8.188
1254,-0.125,35.111,18.593,34.821,31.721,5.233,7.656,8.639
1255,-0.208,35.208,18.566,34.812,31.71,5.153,7.617,8.847
1256,-0.244,34.844,18.488,34.831,31.717,5.234,7.779,9.215
1257,-0.245,34.936,18.522,34.802,31.71,5.153,7.781,9.503
1258,-0.225,35.091,18.538,34.792,31.71,5.112,7.781,9.668
1259,-0.219,35.188,18.558,34.85,31.721,5.274,8.025,9.995
1260,-0.212,34.834,18.538,34.831,31.721,5.195,7.987,10.08
1261,-0.186,34.984,18.573,34.812,31.714,4.99,7.986,10.121
1262,-0.186,35.082,18.531,34.831,31.71,5.151,8.108,10.366
1263,-0.14,35.131,18.538,34.802,31.707,5.153,8.109,10.49
1264,-0.091,34.93,18.53,34.831,31.714,5.112,8.15,10.532
1265,-0.035,35.081,18.604,34.841,31.721,5.193,8.191,10.655
1266,0.021,35.15,18.574,34.793,31.707,5.072,8.151,10.615
1267,0.096,35.208,18.503,34.811,31.71,5.111,8.15,10.533
1268,0.175,34.796,18.538,34.86,31.724,5.274,8.395,10.817
1269,0.244,34.926,18.538,34.822,31.717,5.154,8.275,10.779
1270,0.32,35.052,18.562,34.84,31.714,5.193,8.193,10.982
1271,0.359,35.044,18.562,34.831,31.714,5.072,8.192,11.066
1272,0.409,34.785,18.519,34.812,31.71,5.03,8.11,11.229
1273,0.481,34.984,18.554,34.831,31.714,5.111,8.109,11.393
1274,0.517,35.043,18.519,34.841,31.721,5.234,8.15,11.72
1275,0.55,34.9,18.577,34.812,31.71,4.95,8.028,11.805
1276,0.576,34.889,18.55,34.831,31.714,5.15,8.027,12.131
1277,0.596,35.004,18.519,34.831,31.714,5.071,8.068,12.459
1278,0.629,35.12,18.542,34.85,31.714,5.152,8.028,12.707
1279,0.655,34.652,18.593,34.869,31.728,5.153,8.027,12.953
1280,0.659,34.771,18.566,34.812,31.714,5.031,8.027,13.037
1281,0.688,34.888,18.55,34.831,31.707,5.03,7.905,13.16
1282,0.698,34.994,18.605,34.879,31.731,5.192,8.067,13.364
1283,0.721,34.746,18.551,34.899,31.714,5.072,7.946,13.366
1284,0.731,34.907,18.531,34.87,31.721,5.111,7.945,13.366
1285,0.725,35.004,18.546,34.851,31.714,5.152,7.945,13.407
1286,0.728,35.072,18.569,34.831,31.703,5.031,7.905,13.245
1287,0.751,34.747,18.574,34.86,31.721,5.111,7.985,13.243
1288,0.748,34.878,18.554,34.87,31.717,5.152,8.027,13.202
1289,0.754,34.985,18.538,34.851,31.714,5.031,7.905,12.999
1290,0.754,35.053,18.503,34.879,31.717,5.03,7.823,12.915
1291,0.767,34.718,18.526,34.841,31.707,5.07,7.863,12.874
1292,0.8,34.868,18.569,34.86,31.714,5.152,7.863,12.751
1293,0.794,34.975,18.531,34.86,31.714,5.153,7.944,12.669
1294,0.774,35.005,18.523,34.831,31.71,5.031,7.864,12.546
1295,0.774,35.408,18.519,34.841,31.714,5.07,7.822,12.301
1296,0.761,35.527,18.558,34.879,31.724,5.233,8.107,12.421
1297,0.777,35.624,18.601,34.87,31.71,5.032,7.987,12.137
1298,0.797,35.376,18.535,34.879,31.721,5.111,7.986,12.053
1299,0.79,34.481,18.538,34.87,31.717,5.112,7.986,11.971
1300,0.771,34.578,18.589,34.87,31.714,5.071,7.946,11.726
1301,0.77,34.732,18.574,34.908,31.717,5.152,8.067,11.683
1302,0.767,34.743,18.515,34.88,31.717,5.071,8.069,11.56
1303,0.777,34.849,18.573,34.87,31.71,4.989,7.946,11.234
1304,0.78,34.965,18.585,34.879,31.71,5.11,7.986,11.149
1305,0.777,35.043,18.504,34.879,31.71,5.071,8.068,11.026
1306,0.8,34.593,18.542,34.889,31.71,5.111,8.028,10.985
1307,0.807,34.752,18.511,34.908,31.721,5.112,8.109,10.903
1308,0.8,34.84,18.542,34.87,31.71,5.071,8.069,10.699
1309,0.816,34.936,18.534,34.879,31.707,5.03,7.946,10.494
1310,0.836,34.563,18.538,34.899,31.724,5.273,8.067,10.573
1311,0.843,34.694,18.573,34.87,31.721,5.113,7.987,10.37
1312,0.859,34.849,18.57,34.937,31.717,5.193,7.946,10.246
1313,0.849,34.898,18.531,34.899,31.714,5.112,7.823,10.082
1314,0.856,34.582,18.55,34.86,31.71,5.112,7.903,9.918
1315,0.859,34.771,18.581,34.908,31.714,5.152,7.863,9.916
1316,0.846,34.859,18.546,34.889,31.717,5.234,7.863,9.754
1317,0.859,34.927,18.456,34.87,31.703,5.072,7.741,9.508
1318,0.866,34.669,18.51,34.898,31.71,5.152,7.821,9.506
1319,0.833,34.772,18.565,34.88,31.71,5.193,7.903,9.465
1320,0.846,34.897,18.538,34.918,31.714,5.153,7.904,9.343
1321,0.849,34.937,18.566,34.909,31.714,5.234,7.863,9.342
1322,0.814,34.525,18.566,34.87,31.717,5.153,7.822,9.179
1323,0.829,34.703,18.566,34.966,31.714,5.193,7.781,9.055
1324,0.839,34.83,18.554,34.928,31.728,5.397,7.944,9.135
1325,0.833,34.591,18.581,34.899,31.714,5.196,7.823,8.974
1326,0.859,34.617,18.597,34.899,31.714,5.234,7.741,8.809
1327,0.859,34.733,18.582,34.889,31.707,5.153,7.781,8.726
1328,0.859,34.811,18.535,34.889,31.71,5.193,7.7,8.603
1329,0.882,34.457,18.632,34.927,31.717,5.275,7.821,8.602
1330,0.866,34.568,18.453,34.918,31.721,5.316,7.781,8.602
1331,0.872,34.675,18.526,34.88,31.703,5.154,7.7,8.399
1332,0.892,34.772,18.573,34.908,31.71,5.234,7.861,8.356
1333,0.905,34.37,18.511,34.87,31.717,5.316,7.863,8.478
1334,0.912,34.51,18.53,34.908,31.714,5.236,7.782,8.316
1335,0.925,34.665,18.515,34.908,31.717,5.316,7.781,8.315
1336,0.905,34.685,18.597,34.87,31.71,5.276,7.781,8.274
1337,0.921,34.359,18.586,34.889,31.714,5.316,7.7,8.193
1338,0.915,34.538,18.5,34.927,31.724,5.48,7.902,8.354
1339,0.905,34.655,18.53,34.909,31.714,5.278,7.823,8.112
1340,0.889,34.704,18.589,34.918,31.721,5.316,7.741,8.069
1341,0.885,34.331,18.543,34.918,31.714,5.276,7.74,8.028
1342,0.882,34.461,18.53,34.909,31.71,5.276,7.618,7.946
1343,0.885,34.626,18.565,34.937,31.721,5.357,7.657,7.986
1344,0.866,34.627,18.546,34.928,31.721,5.317,7.739,7.986
1345,0.866,34.503,18.558,34.966,31.71,5.195,7.537,7.702
1346,0.876,34.636,18.527,34.919,31.71,5.275,7.616,7.78
1347,0.892,34.743,18.507,34.928,31.707,5.276,7.698,7.781
1348,0.905,34.609,18.577,34.928,31.714,5.316,7.618,7.74
1349,0.925,34.282,18.578,34.928,31.717,5.358,7.617,7.781
1350,0.918,34.384,18.535,34.928,31.707,5.236,7.617,7.74
1351,0.918,34.51,18.573,34.909,31.71,5.275,7.576,7.537
1352,0.954,34.31,18.566,34.947,31.728,5.398,7.82,7.779
1353,0.961,34.423,18.554,34.918,31.717,5.358,7.659,7.659
1354,0.977,34.539,18.593,34.928,31.721,5.317,7.576,7.536
1355,0.951,34.627,18.582,34.909,31.721,5.236,7.616,7.616
1356,0.941,34.177,18.492,34.908,31.707,5.194,7.617,7.535
1357,0.951,34.364,18.546,34.928,31.714,5.275,7.576,7.575
1358,0.951,34.491,18.53,34.928,31.717,5.316,7.575,7.616
1359,0.935,34.54,18.554,34.909,31.707,5.114,7.535,7.413
1360,0.935,34.31,18.558,34.947,31.717,5.234,7.575,7.411
1361,0.922,34.432,18.554,34.918,31.714,5.275,7.575,7.574
1362,0.915,34.578,18.55,34.928,31.71,5.276,7.494,7.575
1363,0.918,34.656,18.531,34.966,31.717,5.316,7.575,7.454
1364,0.918,34.177,18.534,34.909,31.717,5.154,7.535,7.493
1365,0.935,34.345,18.565,34.928,31.707,5.275,7.412,7.371
1366,0.964,34.5,18.617,34.985,31.734,5.438,7.493,7.533
1367,0.977,34.521,18.558,34.948,31.714,5.277,7.412,7.453
1368,0.994,34.137,18.562,34.938,31.71,5.235,7.411,7.33
1369,0.991,34.248,18.585,34.947,31.714,5.194,7.371,7.37
1370,0.987,34.336,18.554,34.918,31.714,5.153,7.248,7.33
1371,1.0,34.471,18.55,34.937,31.717,5.315,7.288,7.329
1372,1.01,34.213,18.597,34.937,31.717,5.317,7.247,7.37
1373,0.997,34.336,18.496,34.909,31.703,5.154,7.166,7.289
1374,1.01,34.49,18.538,34.928,31.71,5.275,7.165,7.369
1375,1.01,34.079,18.519,34.928,31.721,5.398,7.328,7.533
1376,0.997,34.075,18.569,34.947,31.71,5.277,7.248,7.534
1377,1.004,34.21,18.589,34.938,31.721,5.276,7.206,7.494
1378,0.987,34.278,18.449,34.937,31.71,5.276,7.125,7.534
1379,1.0,34.116,18.526,34.928,31.707,5.195,7.083,7.412
1380,1.004,34.287,18.569,34.976,31.728,5.397,7.164,7.574
1381,1.01,34.413,18.57,34.928,31.721,5.236,7.165,7.535
1382,0.997,34.51,18.55,34.937,31.721,5.275,7.124,7.616
1383,1.007,34.223,18.581,34.957,31.714,5.235,7.124,7.576
1384,1.01,34.355,18.531,34.918,31.71,5.153,7.124,7.575
1385,1.036,34.519,18.55,34.976,31.721,5.234,7.124,7.575
1386,1.037,34.559,18.558,34.967,31.714,5.316,7.165,7.575
1387,1.03,33.888,18.538,34.919,31.707,5.154,7.043,7.494
1388,1.05,34.054,18.597,34.947,31.714,5.234,7.123,7.575
1389,1.046,34.152,18.566,34.928,31.714,5.235,7.205,7.616
1390,1.046,34.229,18.535,34.937,31.714,5.316,7.287,7.617
1391,1.056,33.885,18.55,34.947,31.721,5.236,7.166,7.657
1392,1.063,34.025,18.538,34.928,31.707,5.235,7.206,7.495
1393,1.082,34.132,18.53,34.928,31.714,5.153,7.084,7.453
1394,1.086,34.201,18.616,34.985,31.724,5.356,7.367,7.615
1395,1.079,33.961,18.578,34.948,31.721,5.236,7.248,7.576
1396,1.086,34.112,18.5,34.957,31.717,5.316,7.247,7.535
1397,1.092,34.21,18.53,34.947,31.71,5.276,7.166,7.494
1398,1.083,34.096,18.519,34.918,31.717,5.195,7.165,7.453
1399,1.109,34.018,18.546,34.976,31.721,5.234,7.206,7.452
1400,1.096,34.142,18.542,34.967,31.714,5.275,7.247,7.493
1401,1.096,34.22,18.55,34.928,31.71,5.195,7.044,7.29
1402,1.092,33.904,18.534,34.957,31.71,5.234,7.123,7.41
1403,1.089,34.016,18.53,34.957,31.707,5.235,7.205,7.411
1404,1.089,34.161,18.523,34.966,31.714,5.316,7.043,7.411
1405,1.096,34.258,18.597,34.966,31.717,5.317,7.164,7.452
1406,1.092,33.694,18.582,34.938,31.71,5.317,7.124,7.29
1407,1.115,33.87,18.558,34.957,31.707,5.276,7.165,7.166
1408,1.132,34.016,18.531,34.995,31.721,5.398,7.206,7.368
1409,1.135,34.084,18.593,34.976,31.71,5.277,7.125,7.248
1410,1.145,33.769,18.554,34.976,31.721,5.276,7.083,7.206
1411,1.155,33.9,18.531,34.976,31.717,5.276,7.042,7.287
1412,1.174,34.006,18.589,34.947,31.707,5.195,6.96,7.125
1413,1.197,34.132,18.519,34.985,31.721,5.234,7.082,7.165
1414,1.181,33.836,18.538,34.986,31.717,5.316,7.042,7.287
1415,1.188,33.967,18.499,34.948,31.703,5.236,6.92,7.004
1416,1.178,34.084,18.581,34.947,31.717,5.275,7.041,7.123
1417,1.188,34.104,18.585,34.966,31.71,5.235,7.123,7.205
1418,1.181,33.807,18.574,34.957,31.714,5.316,7.043,7.125
1419,1.171,33.967,18.566,34.976,31.721,5.358,7.123,7.165
1420,1.175,34.045,18.55,34.957,31.71,5.317,7.043,7.165
1421,1.204,34.43,18.538,34.966,31.707,5.236,7.042,7.124
1422,1.201,33.849,18.562,35.005,31.728,5.438,7.326,7.287
1423,1.181,33.968,18.597,34.996,31.717,5.359,7.207,7.166
1424,1.181,34.103,18.508,34.986,31.724,5.358,7.206,7.165
1425,1.178,33.75,18.503,34.986,31.717,5.399,7.247,7.124
1426,1.204,33.765,18.518,34.967,31.707,5.318,7.125,7.043
1427,1.22,33.957,18.55,34.976,31.714,5.439,7.287,7.164
1428,1.214,34.017,18.589,34.976,31.717,5.44,7.329,7.124
1429,1.217,33.758,18.57,34.957,31.703,5.359,7.207,7.043
1430,1.221,33.89,18.562,34.957,31.717,5.399,7.287,7.042
1431,1.24,34.016,18.558,34.986,31.714,5.44,7.369,7.204
1432,1.263,34.103,18.523,34.986,31.717,5.399,7.289,7.084
1433,1.276,33.548,18.534,34.995,31.721,5.48,7.288,7.164
1434,1.257,33.658,18.573,34.948,31.71,5.4,7.329,7.002
1435,1.26,33.822,18.535,34.966,31.707,5.44,7.289,7.041
1436,1.257,33.91,18.456,34.995,31.721,5.643,7.41,7.164
1437,1.25,33.728,18.51,34.976,31.714,5.564,7.33,7.043
1438,1.263,33.88,18.522,34.967,31.721,5.523,7.329,7.001
1439,1.247,33.977,18.519,34.966,31.714,5.522,7.289,6.96
1440,1.257,34.055,18.534,34.957,31.707,5.441,7.247,6.878
1441,1.276,33.672,18.605,35.005,31.721,5.562,7.288,7.0
1442,1.247,33.784,18.535,34.967,31.714,5.523,7.288,6.96
1443,1.247,33.919,18.538,34.986,31.714,5.482,7.207,6.838
1444,1.244,33.93,18.554,34.967,31.71,5.481,7.328,6.877
1445,1.237,33.729,18.585,34.957,31.71,5.44,7.248,6.959
1446,1.273,33.88,18.601,34.947,31.717,5.521,7.288,6.96
1447,1.28,33.997,18.519,34.985,31.714,5.563,7.41,6.96
1448,1.267,33.825,18.554,34.948,31.707,5.482,7.33,6.878
1449,1.263,33.785,18.581,34.947,31.707,5.562,7.248,6.796
1450,1.257,33.929,18.558,35.005,31.724,5.645,7.491,6.958
1451,1.27,34.016,18.542,34.957,31.721,5.605,7.412,6.919
1452,1.286,33.71,18.601,34.966,31.721,5.564,7.411,6.837
1453,1.283,33.861,18.551,34.966,31.717,5.441,7.452,6.837
1454,1.273,33.929,18.507,34.947,31.71,5.44,7.371,6.633
1455,1.293,34.083,18.565,34.957,31.721,5.521,7.533,6.875
1456,1.267,33.682,18.578,34.976,31.714,5.482,7.575,6.755
1457,1.263,33.822,18.574,34.938,31.707,5.4,7.413,6.673
1458,1.25,33.948,18.554,34.957,31.717,5.48,7.371,6.753
1459,1.25,34.016,18.573,34.957,31.717,5.481,7.533,6.836
1460,1.25,33.892,18.527,34.976,31.714,5.481,7.494,6.796
1461,1.25,34.054,18.538,34.957,31.724,5.481,7.534,6.795
1462,1.221,34.152,18.573,34.966,31.707,5.481,7.453,6.755
1463,1.224,34.201,18.589,34.957,31.71,5.4,7.371,6.632
1464,1.224,33.981,18.562,35.014,31.717,5.562,7.573,6.794
1465,1.214,34.093,18.531,34.977,31.721,5.401,7.575,6.714
1466,1.227,34.21,18.542,34.967,31.714,5.399,7.454,6.632
1467,1.221,34.23,18.581,34.966,31.714,5.358,7.493,6.631
1468,1.224,34.0,18.55,34.938,31.71,5.399,7.534,6.712
1469,1.24,34.161,18.55,34.947,31.721,5.44,7.494,6.632
1470,1.244,34.278,18.581,34.966,31.721,5.481,7.616,6.712
1471,1.234,34.538,18.488,34.938,31.703,5.278,7.413,6.672
1472,1.247,34.406,18.538,34.957,31.71,5.438,7.411,6.55
1473,1.224,34.52,18.542,34.966,31.717,5.521,7.574,6.712
1474,1.224,34.617,18.585,34.947,31.71,5.4,7.454,6.632
1475,1.211,34.272,18.511,34.957,31.714,5.521,7.493,6.672
1476,1.188,34.317,18.554,34.957,31.717,5.4,7.534,6.55
1477,1.175,34.433,18.507,34.957,31.707,5.358,7.331,6.549
1478,1.188,34.578,18.569,34.976,31.721,5.399,7.492,6.63
1479,1.158,34.675,18.496,34.957,31.721,5.44,7.453,6.631
1480,1.145,34.8,18.507,34.938,31.71,5.237,7.29,6.509
1481,1.132,34.926,18.581,34.928,31.714,5.316,7.369,6.589
1482,1.112,35.004,18.507,34.947,31.714,5.317,7.452,6.671
1483,1.115,34.698,18.522,34.957,31.717,5.358,7.493,6.591
1484,1.115,34.839,18.558,34.957,31.721,5.439,7.453,6.631
1485,1.096,34.927,18.585,34.938,31.71,5.399,7.412,6.59
1486,1.109,35.004,18.586,34.937,31.71,5.358,7.33,6.509
1487,1.099,35.063,18.523,34.976,31.728,5.561,7.532,6.711
1488,1.086,35.207,18.534,34.967,31.714,5.401,7.412,6.632
1489,1.083,35.333,18.585,34.966,31.721,5.44,7.371,6.55
1490,1.076,35.363,18.55,34.957,31.721,5.359,7.452,6.59
1491,1.079,35.479,18.542,34.928,31.714,5.317,7.29,6.468
1492,1.092,35.643,18.62,34.966,31.728,5.358,7.288,6.548
1493,1.076,35.731,18.508,34.957,31.724,5.358,7.41,6.549
1494,1.06,35.732,18.495,34.938,31.703,5.277,7.289,6.386
1495,1.053,35.53,18.53,34.947,31.714,5.316,7.288,6.425
1496,1.027,35.634,18.562,34.938,31.714,5.358,7.329,6.548
1497,1.027,35.74,18.609,34.957,31.717,5.277,7.329,6.468
1498,1.027,35.991,18.59,34.966,31.721,5.398,7.37,6.548
1499,1.01,36.089,18.543,34.928,31.714,5.318,7.208,6.427
1500,1.001,36.215,18.569,34.937,31.71,5.317,7.206,6.385
1501,0.997,36.321,18.542,34.995,31.731,5.48,7.45,6.547
1502,0.984,36.179,18.546,34.957,31.717,5.359,7.29,6.549
1503,0.958,36.292,18.566,34.957,31.721,5.358,7.288,6.508
1504,0.938,36.399,18.511,34.957,31.721,5.317,7.247,6.427
1505,0.919,36.477,18.522,34.947,31.707,5.236,7.206,6.426
1506,0.918,36.612,18.522,34.947,31.721,5.357,7.165,6.426
1507,0.918,36.718,18.565,34.966,31.721,5.317,7.165,6.426
1508,0.928,36.825,18.589,34.928,31.707,5.236,7.043,6.344
1509,0.918,36.884,18.566,34.947,31.714,5.316,7.082,6.384
1510,0.918,36.74,18.55,34.938,31.721,5.317,7.083,6.466
1511,0.912,36.902,18.55,34.947,31.721,5.276,7.123,6.507
1512,0.918,37.028,18.546,34.947,31.717,5.357,7.083,6.427
1513,0.909,37.02,18.542,34.947,31.71,5.358,7.083,6.344
1514,0.915,37.202,18.589,34.938,31.717,5.317,6.961,6.303
1515,0.915,37.348,18.57,34.976,31.728,5.48,7.285,6.465
1516,0.896,37.435,18.468,34.957,31.721,5.359,7.125,6.345
1517,0.886,37.484,18.518,34.966,31.721,5.358,7.124,6.343
1518,0.863,37.494,18.511,34.966,31.717,5.358,7.043,6.343
1519,0.853,37.6,18.522,34.928,31.714,5.317,7.001,6.262
1520,0.862,37.745,18.55,34.966,31.721,5.276,7.123,6.302
1521,0.853,37.852,18.577,34.947,31.714,5.316,7.165,6.343
1522,0.83,37.747,18.519,34.938,31.707,5.276,6.962,6.262
1523,0.81,37.88,18.534,34.947,31.707,5.357,7.041,6.302
1524,0.8,37.949,18.526,34.947,31.714,5.399,7.082,6.384
1525,0.794,37.911,18.577,34.947,31.71,5.399,7.083,6.425
1526,0.797,38.007,18.597,34.966,31.721,5.521,7.123,6.344
1527,0.787,38.065,18.519,34.938,31.707,5.319,7.002,6.384
1528,0.803,38.21,18.538,34.928,31.714,5.398,7.001,6.303
1529,0.816,38.24,18.597,34.966,31.728,5.562,7.204,6.465
1530,0.816,38.346,18.457,34.966,31.721,5.36,7.084,6.345
1531,0.816,38.471,18.522,34.966,31.721,5.439,7.002,6.303
1532,0.813,38.521,18.581,34.947,31.714,5.399,7.041,6.262
1533,0.807,38.396,18.523,34.928,31.71,5.358,6.839,6.262
1534,0.826,38.568,18.55,34.966,31.721,5.521,6.958,6.384
1535,0.8,38.656,18.531,34.947,31.717,5.482,7.0,6.344
1536,0.794,38.695,18.573,34.938,31.707,5.359,6.879,6.181
1537,0.79,38.667,18.593,34.947,31.71,5.439,6.959,6.261
1538,0.777,38.772,18.539,34.947,31.707,5.44,7.0,6.302
1539,0.78,38.926,18.542,34.947,31.717,5.481,6.96,6.262
1540,0.764,38.928,18.585,34.957,31.721,5.481,7.041,6.302
1541,0.757,38.755,18.55,34.947,31.71,5.359,6.96,6.343
1542,0.744,38.907,18.527,34.947,31.714,5.358,7.0,6.181
1543,0.741,38.995,18.593,34.957,31.721,5.561,7.041,6.464
1544,0.741,38.996,18.558,34.947,31.721,5.482,7.001,6.345
1545,0.747,39.092,18.511,34.957,31.724,5.481,7.041,6.303
1546,0.731,39.169,18.518,34.957,31.717,5.4,7.001,6.262
1547,0.741,39.266,18.518,34.938,31.71,5.358,6.919,6.221
1548,0.76,39.113,18.581,34.976,31.731,5.521,7.041,6.302
1549,0.761,39.112,18.429,34.976,31.717,5.4,7.001,6.343
1550,0.754,39.246,18.514,34.947,31.717,5.358,6.96,6.181
1551,0.748,39.295,18.593,34.957,31.71,5.399,7.0,6.22
1552,0.751,39.21,18.543,34.938,31.71,5.358,6.96,6.22
1553,0.767,39.343,18.534,34.947,31.714,5.439,7.0,6.302
1554,0.767,39.459,18.558,34.957,31.721,5.44,7.001,6.262
1555,0.761,39.499,18.577,34.909,31.707,5.44,6.96,6.221
1556,0.761,39.403,18.554,34.928,31.721,5.359,6.96,6.139
1557,0.744,39.527,18.468,34.966,31.728,5.521,7.122,6.341
1558,0.744,39.643,18.518,34.947,31.717,5.441,7.002,6.221
1559,0.747,39.693,18.558,34.947,31.721,5.44,7.001,6.22
1560,0.734,39.367,18.566,34.957,31.717,5.44,6.96,6.18
1561,0.721,39.488,18.527,34.918,31.707,5.44,6.96,6.139
1562,0.75,39.643,18.604,34.976,31.728,5.481,7.041,6.179
1563,0.721,39.635,18.496,34.967,31.724,5.44,7.001,6.22
1564,0.741,39.462,18.522,34.938,31.714,5.399,6.879,6.098
1565,0.741,39.595,18.558,34.928,31.71,5.399,7.0,6.138
1566,0.731,39.683,18.585,34.928,31.717,5.399,7.041,6.219
1567,0.741,39.674,18.621,34.947,31.714,5.48,7.001,6.098
1568,0.741,39.482,18.551,34.957,31.721,5.562,7.041,6.219
1569,0.725,39.566,18.577,34.928,31.71,5.441,7.042,6.18
1570,0.724,39.673,18.496,34.937,31.714,5.399,6.96,5.976
1571,0.75,39.693,18.542,34.985,31.731,5.562,7.122,6.259
1572,0.748,39.588,18.566,34.928,31.724,5.482,7.043,6.139
1573,0.76,39.692,18.55,34.947,31.717,5.481,6.96,6.057
1574,0.757,39.77,18.519,34.985,31.714,5.4,6.96,6.097
1575,0.744,39.492,18.518,34.919,31.714,5.44,7.0,5.975
1576,0.757,39.634,18.569,34.956,31.721,5.44,6.96,6.096
1577,0.757,39.712,18.613,34.957,31.721,5.521,6.96,6.097
1578,0.754,39.76,18.586,34.928,31.707,5.319,6.878,6.016
1579,0.735,39.464,18.55,34.928,31.714,5.398,6.959,6.015
1580,0.731,39.576,18.577,34.918,31.717,5.399,7.082,6.137
1581,0.744,39.682,18.523,34.947,31.71,5.44,7.123,6.138
1582,0.725,39.779,18.55,34.947,31.724,5.481,7.083,6.219
1583,0.708,39.454,18.542,34.928,31.714,5.4,7.042,6.098
1584,0.698,39.604,18.581,34.947,31.703,5.399,7.123,6.056
1585,0.701,39.731,18.523,34.966,31.731,5.562,7.287,6.178
1586,0.718,39.751,18.476,34.947,31.721,5.401,7.207,6.057
1587,0.737,39.435,18.522,34.947,31.721,5.399,7.206,6.015
1588,0.751,39.547,18.55,34.938,31.717,5.399,7.247,6.056
1589,0.748,39.615,18.495,34.928,31.71,5.318,7.166,6.097
1590,0.76,39.702,18.542,34.957,31.717,5.398,7.328,6.138
1591,0.744,39.444,18.577,34.938,31.724,5.44,7.37,6.219
1592,0.747,39.528,18.503,34.909,31.707,5.318,7.208,5.976
1593,0.751,39.643,18.538,34.928,31.714,5.358,7.287,6.096
1594,0.751,39.99,18.562,34.918,31.714,5.358,7.369,6.178
1595,0.754,39.399,18.57,34.928,31.714,5.439,7.33,6.139
1596,0.748,39.517,18.589,34.947,31.724,5.44,7.289,6.138
1597,0.731,39.567,18.535,34.928,31.714,5.399,7.247,6.138
1598,0.738,39.279,18.511,34.937,31.714,5.358,7.206,6.057
1599,0.734,39.325,18.604,34.976,31.728,5.602,7.369,6.219
1600,0.738,39.43,18.554,34.986,31.717,5.401,7.33,6.139
1601,0.744,39.518,18.554,34.948,31.721,5.399,7.289,6.057
1602,0.725,39.135,18.597,34.928,31.721,5.318,7.247,6.097
1603,0.721,39.266,18.539,34.937,31.71,5.317,7.206,6.138
1604,0.734,39.42,18.55,34.947,31.717,5.358,7.287,6.138
1605,0.734,39.489,18.523,34.947,31.728,5.439,7.329,6.179
1606,0.738,39.106,18.558,34.88,31.703,5.318,7.207,6.098
1607,0.741,39.256,18.585,34.927,31.717,5.358,7.287,6.097
1608,0.747,39.372,18.539,34.957,31.721,5.399,7.451,6.219
1609,0.757,39.431,18.515,34.947,31.721,5.399,7.29,6.22
1610,0.757,38.962,18.577,34.947,31.721,5.44,7.288,6.18
1611,0.735,39.091,18.542,34.918,31.721,5.318,7.247,6.22
1612,0.747,39.188,18.53,34.918,31.714,5.317,7.247,6.139
1613,0.777,39.266,18.601,34.956,31.728,5.439,7.41,6.219
1614,0.774,38.97,18.558,34.938,31.721,5.359,7.33,6.22
1615,0.761,39.11,18.531,34.966,31.717,5.277,7.289,6.18
1616,0.77,39.189,18.515,34.928,31.721,5.276,7.369,6.139
1617,0.764,39.199,18.526,34.909,31.71,5.316,7.37,6.219
1618,0.757,38.854,18.569,34.918,31.721,5.276,7.411,6.139
1619,0.754,38.994,18.554,34.928,31.724,5.316,7.411,6.179
1620,0.738,39.053,18.527,34.88,31.71,5.276,7.411,6.139
1621,0.741,38.891,18.604,34.899,31.714,5.276,7.371,6.138
1622,0.738,38.851,18.554,35.042,31.728,5.438,7.573,6.341
1623,0.731,38.927,18.523,34.929,31.714,5.359,7.494,6.181
1624,0.747,39.024,18.55,34.947,31.721,5.317,7.453,6.098
1625,0.751,38.728,18.585,34.918,31.714,5.236,7.412,6.178
1626,0.761,38.82,18.527,34.909,31.707,5.235,7.371,6.179
1627,0.754,38.975,18.499,34.947,31.721,5.397,7.411,6.22
1628,0.748,39.043,18.499,34.918,31.721,5.318,7.493,6.261
1629,0.741,38.507,18.538,34.889,31.71,5.154,7.371,6.058
1630,0.741,38.636,18.53,34.927,31.721,5.234,7.411,6.219
1631,0.741,38.733,18.573,34.909,31.714,5.397,7.411,6.302
1632,0.767,38.801,18.593,34.918,31.717,5.277,7.452,6.221
1633,0.79,38.39,18.535,34.928,31.721,5.398,7.412,6.261
1634,0.767,38.491,18.526,34.889,31.721,5.277,7.371,6.221
1635,0.77,38.607,18.565,34.899,31.721,5.195,7.33,6.139
1636,0.774,38.714,18.601,34.947,31.728,5.397,7.532,6.301
1637,0.767,38.379,18.574,34.928,31.717,5.277,7.372,6.262
1638,0.77,38.51,18.558,34.918,31.717,5.316,7.37,6.221
1639,0.744,38.588,18.562,34.88,31.721,5.317,7.411,6.261
1640,0.747,38.608,18.488,34.879,31.71,5.236,7.289,6.302
1641,0.757,38.378,18.534,34.908,31.724,5.235,7.41,6.262
1642,0.735,38.481,18.585,34.908,31.717,5.316,7.411,6.262
1643,0.728,38.559,18.55,34.88,31.707,5.154,7.289,6.221
1644,0.731,38.732,18.534,34.966,31.721,5.234,7.369,6.22
1645,0.738,38.236,18.499,34.88,31.721,5.316,7.492,6.383
1646,0.741,38.355,18.553,34.889,31.721,5.317,7.331,6.263
1647,0.747,38.462,18.593,34.899,31.721,5.317,7.451,6.384
1648,0.738,38.195,18.543,34.889,31.714,5.236,7.371,6.303
1649,0.751,38.278,18.546,34.87,31.714,5.275,7.208,6.221
1650,0.777,38.432,18.569,34.908,31.731,5.357,7.328,6.342
1651,0.777,38.491,18.519,34.899,31.721,5.317,7.289,6.384
1652,0.787,37.955,18.503,34.88,31.714,5.195,7.125,6.222
1653,0.784,38.084,18.585,34.879,31.721,5.275,7.165,6.261
1654,0.78,38.181,18.562,34.86,31.721,5.316,7.206,6.302
1655,0.774,38.259,18.511,34.87,31.721,5.317,7.206,6.302
1656,0.771,37.876,18.522,34.889,31.724,5.358,7.287,6.384
1657,0.764,37.987,18.519,34.87,31.71,5.277,7.207,6.263
1658,0.767,38.103,18.581,34.87,31.714,5.154,7.125,6.262
1659,0.757,38.181,18.523,34.918,31.724,5.356,7.287,6.343
1660,0.754,37.875,18.526,34.88,31.724,5.277,7.288,6.303
1661,0.757,38.016,18.569,34.889,31.728,5.316,7.247,6.302
1662,0.751,38.133,18.511,34.86,31.717,5.317,7.247,6.302
1663,0.748,38.153,18.511,34.87,31.71,5.154,7.125,6.221
1664,0.757,37.798,18.561,34.889,31.721,5.234,7.205,6.342
1665,0.751,37.9,18.609,34.87,31.721,5.275,7.206,6.303
1666,0.774,38.007,18.574,34.86,31.714,5.154,7.043,6.221
1667,0.761,38.008,18.523,34.86,31.717,5.275,7.123,6.342
1668,0.77,37.749,18.522,34.86,31.714,5.276,7.165,6.384
1669,0.767,37.89,18.577,34.87,31.717,5.316,7.124,6.303
1670,0.774,37.997,18.57,34.889,31.721,5.236,7.124,6.384
1671,0.774,37.682,18.527,34.841,31.714,5.235,7.124,6.344
1672,0.797,37.621,18.573,34.841,31.714,5.153,7.083,6.221
1673,0.803,37.774,18.511,34.889,31.738,5.356,7.164,6.424
1674,0.797,37.852,18.534,34.87,31.724,5.236,7.124,6.304
1675,0.787,37.479,18.55,34.87,31.724,5.235,7.165,6.343
1676,0.774,37.58,18.597,34.851,31.714,5.194,7.043,6.384
1677,0.774,37.677,18.582,34.841,31.717,5.112,7.082,6.344
1678,0.774,37.822,18.558,34.879,31.724,5.315,7.123,6.466
1679,0.761,37.335,18.55,34.87,31.714,5.317,7.165,6.467
1680,0.764,37.474,18.503,34.841,31.714,5.073,6.962,6.345
1681,0.767,37.58,18.546,34.85,31.717,5.152,7.041,6.588
1682,0.748,37.658,18.55,34.86,31.714,5.234,7.123,6.671
1683,0.754,37.352,18.581,34.86,31.714,5.275,7.165,6.591
1684,0.751,37.512,18.503,34.87,31.724,5.316,7.206,6.753
1685,0.751,37.581,18.514,34.841,31.714,5.154,7.125,6.632
1686,0.757,37.63,18.522,34.831,31.714,5.153,7.124,6.55
1687,0.754,37.16,18.581,34.869,31.728,5.315,7.287,6.793
1688,0.754,37.28,18.593,34.86,31.721,5.276,7.207,6.633
1689,0.764,37.406,18.562,34.87,31.724,5.316,7.206,6.712
1690,0.77,37.388,18.605,34.851,31.721,5.236,7.287,6.632
1691,0.777,37.234,18.496,34.831,31.721,5.153,7.207,6.59
1692,0.806,37.425,18.569,34.86,31.721,5.234,7.206,6.631
1693,0.803,37.484,18.57,34.841,31.724,5.275,7.328,6.712
1694,0.803,37.36,18.609,34.831,31.707,5.154,7.207,6.51
1695,0.787,36.994,18.527,34.831,31.71,5.193,7.287,6.589
1696,0.784,37.154,18.499,34.86,31.71,5.153,7.288,6.671
1697,0.777,37.222,18.51,34.85,31.721,5.193,7.329,6.713
1698,0.78,37.022,18.542,34.841,31.721,5.275,7.41,6.754
1699,0.758,37.087,18.491,34.802,31.707,5.154,7.33,6.795
1700,0.735,37.241,18.549,34.821,31.714,5.193,7.41,6.673
1701,0.718,37.329,18.593,34.85,31.731,5.316,7.615,6.916
1702,0.718,36.831,18.504,34.841,31.717,5.236,7.535,6.878
1703,0.721,37.008,18.518,34.86,31.721,5.275,7.616,6.837
1704,0.721,37.096,18.526,34.831,31.717,5.235,7.495,6.837
1705,0.731,37.155,18.585,34.812,31.71,5.153,7.494,6.837
1706,0.757,36.82,18.578,34.869,31.724,5.275,7.656,6.877
1707,0.754,36.922,18.542,34.841,31.721,5.235,7.658,6.837
1708,0.764,37.076,18.53,34.831,31.71,5.113,7.536,6.755
1709,0.774,37.097,18.581,34.831,31.721,5.152,7.657,6.795
1710,0.767,36.79,18.535,34.821,31.71,5.193,7.698,6.958
1711,0.77,36.922,18.562,34.821,31.714,5.194,7.699,6.919
1712,0.764,37.038,18.585,34.84,31.724,5.234,7.74,7.041
1713,0.767,37.058,18.519,34.812,31.714,5.235,7.659,6.879
1714,0.764,36.732,18.55,34.821,31.721,5.113,7.658,6.877
1715,0.764,36.902,18.57,34.831,31.728,5.315,7.942,6.959
1716,0.757,36.999,18.597,34.831,31.717,5.236,7.945,6.96
1717,0.757,37.029,18.601,34.85,31.721,5.194,7.945,6.878
1718,0.761,36.799,18.562,34.831,31.714,5.194,7.986,6.877
1719,0.751,36.922,18.511,34.812,31.714,5.153,7.946,6.837
1720,0.754,37.048,18.569,34.831,31.721,5.234,8.108,6.877
1721,0.744,36.809,18.523,34.812,31.724,5.275,8.15,6.918
1722,0.731,36.788,18.519,34.812,31.703,5.073,8.11,6.837
1723,0.708,36.941,18.597,34.821,31.717,5.07,8.232,6.877
1724,0.708,37.019,18.492,34.812,31.721,5.274,8.355,6.959
1725,0.724,36.636,18.518,34.821,31.721,5.195,8.234,6.838
1726,0.741,36.776,18.526,34.821,31.717,5.234,8.436,6.918
1727,0.725,36.864,18.55,34.793,31.717,5.153,8.357,6.796
1728,0.731,36.942,18.612,34.802,31.721,5.112,8.315,6.714
1729,0.744,36.703,18.582,34.859,31.728,5.315,8.396,6.876
1730,0.738,36.834,18.574,34.831,31.721,5.154,8.438,6.877
1731,0.734,36.951,18.539,34.812,31.717,5.071,8.275,6.715
1732,0.747,37.0,18.538,34.812,31.714,5.07,8.314,6.713
1733,0.757,36.751,18.53,34.792,31.721,5.152,8.315,6.794
1734,0.764,36.892,18.577,34.792,31.717,5.193,8.315,6.755
1735,0.761,37.019,18.57,34.811,31.714,5.194,8.356,6.876
1736,0.744,37.029,18.476,34.773,31.714,5.153,8.193,6.755
1737,0.754,36.588,18.518,34.811,31.721,5.112,8.232,6.632
1738,0.748,36.728,18.526,34.831,31.724,5.234,8.355,6.916
1739,0.747,36.835,18.546,34.812,31.717,5.153,8.275,6.796
1740,0.728,36.893,18.542,34.821,31.721,5.234,8.233,6.755
1741,0.721,36.827,18.55,34.783,31.721,5.153,8.192,6.632
1742,0.721,36.941,18.534,34.792,31.714,5.031,8.273,6.631
1743,0.728,37.115,18.511,34.831,31.735,5.151,8.233,6.672
1744,0.715,36.915,18.522,34.812,31.714,5.153,8.273,6.753
1745,0.721,36.721,18.558,34.792,31.71,5.031,8.152,6.51
1746,0.724,36.854,18.585,34.792,31.714,5.151,8.273,6.63
1747,0.724,36.922,18.539,34.792,31.717,5.153,8.233,6.712
1748,0.747,36.798,18.566,34.802,31.714,5.112,8.395,6.632
1749,0.757,36.922,18.574,34.802,31.717,5.152,8.316,6.672
1750,0.751,37.019,18.55,34.792,31.71,5.153,8.274,6.631
1751,0.741,37.125,18.527,34.773,31.71,5.031,8.274,6.55
1752,0.751,36.695,18.612,34.811,31.731,5.314,8.355,6.671
1753,0.757,36.796,18.512,34.802,31.721,5.114,8.234,6.55
1754,0.761,36.922,18.542,34.792,31.714,5.112,8.192,6.508
1755,0.748,36.98,18.53,34.792,31.717,5.112,8.232,6.467
1756,0.741,36.904,18.565,34.773,31.714,5.071,8.111,6.548
1757,0.741,37.067,18.613,34.792,31.721,5.111,8.191,6.63
1758,0.731,37.202,18.508,34.802,31.728,5.193,8.192,6.55
1759,0.708,37.213,18.538,34.764,31.71,5.031,8.07,6.468
1760,0.702,36.83,18.558,34.782,31.71,5.111,7.987,6.467
1761,0.705,36.989,18.55,34.811,31.731,5.234,8.19,6.67
1762,0.708,37.115,18.519,34.792,31.721,5.153,8.029,6.55
1763,0.708,37.126,18.573,34.783,31.728,5.153,8.027,6.63
1764,0.705,36.944,18.542,34.783,31.717,5.112,7.987,6.59
1765,0.718,37.077,18.487,34.783,31.71,5.152,7.824,6.509
1766,0.734,37.203,18.549,34.802,31.724,5.153,7.903,6.63
1767,0.731,37.53,18.546,34.783,31.717,5.153,7.904,6.631
1768,0.734,36.958,18.597,34.754,31.714,5.071,7.701,6.468
1769,0.734,37.105,18.535,34.792,31.717,5.193,7.74,6.548
1770,0.731,37.174,18.538,34.773,31.721,5.194,7.821,6.63
1771,0.731,37.012,18.566,34.763,31.71,5.112,7.781,6.631
1772,0.728,37.077,18.562,34.782,31.721,5.193,7.74,6.672
1773,0.718,37.183,18.538,34.763,31.714,5.072,7.659,6.55
1774,0.724,37.271,18.569,34.773,31.71,5.07,7.576,6.468
1775,0.734,37.3,18.589,34.802,31.724,5.233,7.779,6.67
1776,0.728,37.406,18.523,34.783,31.717,5.275,7.659,6.631
1777,0.744,37.541,18.522,34.869,31.721,5.195,7.617,6.509
1778,0.738,37.591,18.515,34.774,31.724,5.153,7.617,6.549
1779,0.715,36.805,18.522,34.773,31.714,5.071,7.617,6.59
1780,0.741,36.998,18.546,34.763,31.721,5.233,7.617,6.59
1781,0.731,37.087,18.546,34.773,31.728,5.153,7.698,6.631
1782,0.725,37.145,18.562,34.754,31.71,5.071,7.618,6.509
1783,0.711,37.155,18.538,34.849,31.721,5.07,7.617,6.549
1784,0.689,37.29,18.511,34.783,31.721,5.152,7.942,6.712
1785,0.705,37.406,18.569,34.783,31.721,5.193,7.905,6.551
1786,0.708,37.465,18.62,34.773,31.724,5.153,7.945,6.59
1787,0.702,37.111,18.605,34.763,31.71,5.112,7.864,6.59
1788,0.714,37.251,18.539,34.763,31.714,5.071,7.863,6.468
1789,0.728,37.415,18.585,34.811,31.731,5.193,8.026,6.629
1790,0.725,37.388,18.5,34.792,31.717,5.194,8.027,6.672
1791,0.728,37.148,18.53,34.773,31.717,5.112,7.987,6.591
1792,0.731,37.251,18.589,34.763,31.717,5.112,7.986,6.59
1793,0.728,37.339,18.554,34.754,31.714,5.071,8.027,6.468
1794,0.734,37.301,18.55,34.782,31.721,5.111,8.068,6.548
1795,0.725,37.224,18.523,34.783,31.724,5.193,8.069,6.63
1796,0.718,37.329,18.538,34.744,31.71,4.99,8.028,6.509
1797,0.734,37.435,18.577,34.773,31.714,4.988,7.905,6.549
1798,0.715,37.187,18.554,34.792,31.728,5.192,8.107,6.671
1799,0.705,37.328,18.523,34.754,31.721,5.194,8.069,6.591
1800,0.718,37.454,18.585,34.782,31.724,5.194,8.069,6.509
1801,0.702,37.494,18.492,34.773,31.717,5.072,7.906,6.549
1802,0.701,37.168,18.518,34.754,31.714,5.03,7.863,6.427
1803,0.701,37.328,18.55,34.801,31.728,5.192,7.944,6.629
1804,0.692,37.426,18.589,34.764,31.721,5.153,8.026,6.631
1805,0.692,37.494,18.531,34.792,31.714,5.031,7.865,6.428
1806,0.718,37.159,18.519,34.811,31.721,5.07,7.863,6.466
1807,0.721,37.29,18.53,34.754,31.714,5.07,7.863,6.548
1808,0.724,37.425,18.562,34.763,31.728,5.111,7.822,6.59
1809,0.721,37.475,18.499,34.773,31.724,5.112,7.944,6.59
1810,0.715,37.235,18.51,34.735,31.71,4.989,7.823,6.59
1811,0.728,37.386,18.585,34.753,31.714,5.029,7.741,6.509
1812,0.738,37.474,18.504,34.773,31.728,5.192,7.903,6.63
1813,0.747,37.533,18.503,34.773,31.721,5.153,7.823,6.55
1814,0.744,37.313,18.53,34.782,31.724,5.112,7.741,6.63
1815,0.725,37.435,18.562,34.754,31.724,5.03,7.781,6.631
1816,0.724,37.523,18.554,34.773,31.714,5.07,7.618,6.468
1817,0.734,37.792,18.542,34.802,31.731,5.193,7.657,6.629
1818,0.721,37.296,18.519,34.783,31.724,5.112,7.739,6.55
1819,0.724,37.406,18.604,34.763,31.721,4.989,7.618,6.468
1820,0.715,37.503,18.566,34.763,31.714,4.988,7.576,6.548
1821,0.715,37.293,18.519,34.763,31.717,5.029,7.616,6.549
1822,0.711,37.368,18.585,34.773,31.717,5.03,7.576,6.63
1823,0.705,37.493,18.484,34.782,31.728,5.07,7.616,6.672
1824,0.702,37.552,18.503,34.754,31.707,4.989,7.535,6.55
1825,0.701,37.111,18.499,34.744,31.714,4.948,7.494,6.508
1826,0.701,37.251,18.577,34.782,31.728,5.11,7.656,6.67
1827,0.711,37.367,18.605,34.773,31.717,5.071,7.617,6.591
1828,0.718,37.455,18.582,34.773,31.724,5.07,7.617,6.631
1829,0.708,37.178,18.585,34.754,31.721,4.989,7.495,6.55
1830,0.718,37.328,18.539,34.734,31.714,4.988,7.453,6.549
1831,0.731,37.474,18.562,34.792,31.724,5.029,7.534,6.508
1832,0.731,37.494,18.574,34.773,31.721,5.03,7.534,6.549
1833,0.731,37.178,18.578,34.744,31.714,4.907,7.412,6.386
1834,0.725,37.328,18.476,34.763,31.717,5.028,7.411,6.547
1835,0.721,37.426,18.506,34.734,31.714,5.03,7.493,6.549
1836,0.721,37.465,18.53,34.763,31.724,5.07,7.453,6.549
1837,0.724,37.111,18.565,34.763,31.724,5.07,7.452,6.63
1838,0.721,37.212,18.558,34.744,31.71,4.948,7.412,6.59
1839,0.724,37.348,18.546,34.753,31.714,5.029,7.371,6.549
1840,0.744,37.368,18.573,34.782,31.728,5.192,7.452,6.752
1841,0.731,37.1,18.531,34.754,31.721,4.99,7.371,6.673
1842,0.738,37.251,18.526,34.773,31.721,5.11,7.411,6.672
1843,0.718,37.329,18.55,34.754,31.721,5.03,7.371,6.631
1844,0.711,37.1,18.554,34.734,31.714,4.907,7.289,6.631
1845,0.715,37.097,18.57,34.782,31.728,5.028,7.288,6.672
1846,0.689,37.203,18.449,34.754,31.724,4.989,7.369,6.753
1847,0.688,37.3,18.506,34.754,31.707,4.907,7.208,6.551
1848,0.679,37.023,18.514,34.754,31.714,4.987,7.247,6.671
1849,0.688,37.116,18.495,34.754,31.707,5.029,7.328,6.672
1850,0.701,37.251,18.549,34.754,31.721,5.03,7.289,6.753
1851,0.721,37.348,18.585,34.754,31.728,5.151,7.288,6.795
1852,0.737,36.889,18.554,34.754,31.721,5.112,7.288,6.673
1853,0.744,37.038,18.511,34.734,31.71,5.03,7.166,6.713
1854,0.754,37.183,18.565,34.792,31.728,5.233,7.409,6.835
1855,0.748,37.242,18.585,34.735,31.721,5.194,7.249,6.755
1856,0.741,36.888,18.601,34.753,31.721,5.153,7.206,6.795
1857,0.725,36.999,18.539,34.754,31.717,5.193,7.247,6.795
1858,0.715,37.125,18.507,34.725,31.714,5.153,7.166,6.755
1859,0.731,37.193,18.569,34.744,31.724,5.234,7.287,6.836
1860,0.708,36.887,18.468,34.792,31.724,5.275,7.288,6.837
1861,0.702,36.999,18.526,34.716,31.707,5.113,7.125,6.755
1862,0.688,37.144,18.585,34.753,31.721,5.193,7.287,6.754
1863,0.675,37.155,18.539,34.754,31.728,5.356,7.451,6.957
1864,0.688,36.81,18.519,34.754,31.717,5.317,7.249,6.797
1865,0.711,36.951,18.534,34.763,31.721,5.358,7.369,6.795
1866,0.708,37.038,18.558,34.754,31.721,5.277,7.289,6.714
1867,0.692,37.049,18.616,34.734,31.717,5.235,7.166,6.672
1868,0.724,36.819,18.566,34.782,31.731,5.357,7.287,6.794
1869,0.721,36.922,18.558,34.763,31.724,5.358,7.247,6.755
1870,0.724,37.009,18.55,34.744,31.71,5.236,7.206,6.632
1871,0.728,36.694,18.558,34.744,31.714,5.357,7.328,6.712
1872,0.721,36.767,18.542,34.734,31.714,5.277,7.207,6.794
1873,0.721,36.902,18.605,34.725,31.721,5.316,7.247,6.633
1874,0.734,36.98,18.551,34.744,31.724,5.398,7.369,6.794
1875,0.738,36.521,18.527,34.801,31.714,5.358,7.248,6.714
1876,0.734,36.679,18.522,34.735,31.714,5.317,7.125,6.632
1877,0.741,36.805,18.538,34.782,31.735,5.48,7.368,6.794
1878,0.741,36.874,18.593,34.754,31.717,5.4,7.289,6.714
1879,0.751,36.52,18.562,34.754,31.724,5.358,7.288,6.632
1880,0.748,36.66,18.538,34.734,31.721,5.358,7.166,6.712
1881,0.734,36.767,18.562,34.715,31.707,5.236,7.124,6.672
1882,0.751,36.893,18.55,34.772,31.721,5.275,7.205,6.672
1883,0.735,36.539,18.523,34.735,31.721,5.398,7.247,6.753
1884,0.751,36.651,18.569,34.734,31.714,5.277,7.166,6.592
1885,0.761,36.767,18.574,34.734,31.71,5.316,7.124,6.631
1886,0.783,36.797,18.546,34.725,31.721,5.317,7.165,6.672
1887,0.8,36.413,18.476,34.744,31.724,5.317,7.206,6.713
1888,0.813,36.544,18.522,34.753,31.721,5.398,7.206,6.632
1889,0.823,36.603,18.554,34.725,31.721,5.358,7.165,6.672
1890,0.849,36.661,18.55,34.744,31.714,5.317,7.084,6.591
1891,0.862,36.46,18.558,34.763,31.728,5.439,7.327,6.753
1892,0.866,36.573,18.57,34.725,31.717,5.277,7.207,6.632
1893,0.876,36.689,18.503,34.753,31.721,5.316,7.165,6.631
1894,0.866,36.393,18.518,34.734,31.714,5.276,7.084,6.631
1895,0.869,36.352,18.542,34.715,31.717,5.235,7.042,6.509
1896,0.869,36.534,18.581,34.744,31.724,5.397,7.164,6.549
1897,0.872,36.583,18.582,34.734,31.721,5.358,7.246,6.712
1898,0.879,36.172,18.543,34.725,31.721,5.236,7.125,6.591
1899,0.879,36.263,18.554,34.724,31.717,5.275,7.165,6.631
1900,0.872,36.36,18.531,34.724,31.714,5.316,7.206,6.712
1901,0.876,36.495,18.55,34.734,31.721,5.276,7.287,6.713
1902,0.872,36.142,18.573,34.744,31.724,5.316,7.288,6.672
1903,0.856,36.253,18.55,34.715,31.717,5.317,7.207,6.672
1904,0.853,36.379,18.46,34.715,31.717,5.276,7.206,6.631
1905,0.859,36.496,18.526,34.763,31.731,5.438,7.369,6.794
1906,0.859,36.056,18.526,34.754,31.721,5.277,7.248,6.673
1907,0.866,36.176,18.565,34.754,31.721,5.276,7.247,6.672
1908,0.872,36.283,18.578,34.725,31.717,5.235,7.166,6.591
1909,0.876,36.341,18.531,34.724,31.71,5.235,7.165,6.468
1910,0.905,36.016,18.616,34.744,31.724,5.275,7.246,6.629
1911,0.902,36.137,18.504,34.753,31.724,5.316,7.369,6.631
1912,0.915,36.225,18.534,34.725,31.707,5.114,7.126,6.387
1913,0.902,36.245,18.565,34.724,31.714,5.274,7.287,6.547
1914,0.918,36.053,18.578,34.724,31.721,5.316,7.41,6.549
1915,0.905,36.176,18.503,34.734,31.721,5.236,7.249,6.59
1916,0.902,36.292,18.499,34.782,31.724,5.275,7.41,6.631
1917,0.902,36.207,18.507,34.706,31.714,5.235,7.411,6.55
1918,0.915,36.043,18.542,34.724,31.71,5.235,7.371,6.468
1919,0.915,36.214,18.519,34.753,31.731,5.397,7.533,6.589
1920,0.909,36.293,18.534,34.754,31.721,5.277,7.453,6.549
1921,0.889,35.852,18.597,34.725,31.724,5.235,7.534,6.468
1922,0.869,35.934,18.504,34.724,31.721,5.235,7.534,6.548
1923,0.869,36.031,18.53,34.715,31.71,5.235,7.412,6.468
1924,0.889,36.166,18.534,34.724,31.721,5.275,7.533,6.507
1925,0.892,35.832,18.585,34.744,31.721,5.195,7.534,6.549
1926,0.902,35.963,18.546,34.696,31.707,5.072,7.372,6.386
1927,0.908,36.108,18.495,34.724,31.717,5.233,7.492,6.466
1928,0.908,36.186,18.495,34.734,31.724,5.194,7.616,6.629
1929,0.915,35.707,18.542,34.734,31.721,5.153,7.535,6.509
1930,0.909,35.837,18.542,34.744,31.721,5.315,7.616,6.467
1931,0.899,35.963,18.534,34.715,31.717,5.236,7.535,6.426
1932,0.905,36.012,18.585,34.705,31.714,5.153,7.412,6.385
1933,0.925,35.801,18.496,34.763,31.731,5.234,7.655,6.425
1934,0.915,35.924,18.546,34.734,31.717,5.194,7.576,6.426
1935,0.912,36.031,18.546,34.734,31.724,5.194,7.494,6.304
1936,0.905,36.07,18.597,34.734,31.724,5.153,7.534,6.343
1937,0.899,35.62,18.59,34.686,31.717,5.153,7.534,6.384
1938,0.905,35.788,18.558,34.724,31.728,5.234,7.616,6.385
1939,0.886,35.895,18.507,34.724,31.717,5.235,7.617,6.385
1940,0.872,36.165,18.518,34.705,31.71,5.113,7.535,6.303
1941,0.863,35.755,18.534,34.705,31.714,5.193,7.697,6.302
1942,0.843,35.885,18.542,34.724,31.724,5.316,7.821,6.506
1943,0.843,35.982,18.597,34.715,31.714,5.154,7.822,6.345
1944,0.83,35.638,18.527,34.734,31.721,5.193,7.822,6.384
1945,0.81,35.644,18.515,34.725,31.717,5.153,7.781,6.303
1946,0.807,35.75,18.518,34.715,31.717,5.112,7.781,6.262
1947,0.826,35.895,18.534,34.763,31.735,5.315,7.984,6.343
1948,0.826,35.474,18.605,34.715,31.717,5.195,7.946,6.303
1949,0.826,35.633,18.566,34.724,31.714,5.112,7.864,6.221
1950,0.817,35.75,18.558,34.724,31.717,5.152,7.944,6.261
1951,0.807,35.808,18.554,34.715,31.721,5.112,7.986,6.262
1952,0.813,35.512,18.523,34.715,31.721,5.193,8.027,6.262
1953,0.813,35.653,18.546,34.724,31.724,5.153,8.068,6.343
1954,0.803,35.769,18.577,34.686,31.71,5.031,8.028,6.181
1955,0.8,35.837,18.582,34.715,31.71,5.111,7.946,6.22
1956,0.794,35.435,18.496,34.724,31.724,5.112,8.189,6.383
1957,0.797,35.566,18.518,34.715,31.721,5.193,8.029,6.303
1958,0.803,35.711,18.554,34.724,31.724,5.194,8.109,6.262
1959,0.8,35.731,18.515,34.724,31.724,5.153,8.028,6.18
1960,0.784,35.501,18.526,34.705,31.71,5.112,7.946,6.179
1961,0.79,35.662,18.55,34.753,31.728,5.274,8.108,6.301
1962,0.78,35.731,18.566,34.725,31.717,5.154,7.987,6.302
1963,0.777,35.78,18.531,34.734,31.717,5.071,7.946,6.18
1964,0.771,36.106,18.515,34.725,31.721,5.07,7.986,6.22
1965,0.751,36.205,18.554,34.705,31.714,5.07,7.946,6.302
1966,0.751,36.331,18.616,34.705,31.717,5.152,8.026,6.262
1967,0.731,35.603,18.59,34.715,31.724,5.153,7.987,6.302
1968,0.731,35.088,18.547,34.696,31.717,5.071,7.864,6.221
1969,0.738,35.246,18.577,34.715,31.714,5.07,7.863,6.22
1970,0.731,35.353,18.464,34.715,31.728,5.152,8.026,6.464
1971,0.731,35.363,18.522,34.734,31.721,5.153,7.865,6.345
1972,0.741,35.507,18.604,34.715,31.721,5.153,7.944,6.262
1973,0.725,35.595,18.539,34.696,31.717,5.153,7.864,6.262
1974,0.728,35.721,18.511,34.705,31.714,5.112,7.741,6.221
1975,0.712,35.271,18.53,34.763,31.731,5.315,7.821,6.342
1976,0.698,35.382,18.534,34.706,31.724,5.154,7.822,6.262
1977,0.701,35.517,18.608,34.715,31.717,5.153,7.781,6.302
1978,0.682,35.595,18.504,34.715,31.714,5.153,7.7,6.302
1979,0.669,35.26,18.53,34.696,31.71,5.153,7.618,6.18
1980,0.675,35.458,18.565,34.724,31.717,5.193,7.698,6.261
1981,0.675,35.547,18.433,34.724,31.721,5.234,7.658,6.343
1982,0.662,35.595,18.522,34.696,31.71,5.072,7.536,6.181
1983,0.656,35.241,18.565,34.705,31.721,5.111,7.575,6.261
1984,0.642,35.391,18.57,34.705,31.717,5.193,7.657,6.343
1985,0.659,35.527,18.488,34.696,31.717,5.194,7.536,6.262
1986,0.659,35.557,18.538,34.715,31.721,5.275,7.575,6.302
1987,0.669,35.327,18.487,34.686,31.71,5.195,7.535,6.302
1988,0.669,35.488,18.577,34.686,31.714,5.194,7.494,6.18
1989,0.678,35.624,18.554,34.791,31.731,5.316,7.697,6.423
1990,0.672,35.894,18.538,34.706,31.721,5.195,7.618,6.263
1991,0.675,35.206,18.589,34.715,31.728,5.234,7.657,6.262
1992,0.682,35.333,18.496,34.705,31.721,5.113,7.658,6.221
1993,0.679,35.411,18.518,34.676,31.707,5.193,7.617,6.22
1994,0.698,35.249,18.569,34.705,31.724,5.275,7.779,6.22
1995,0.672,35.276,18.585,34.715,31.721,5.195,7.822,6.342
1996,0.675,35.391,18.55,34.686,31.714,5.153,7.659,6.1
1997,0.682,35.479,18.491,34.695,31.717,5.193,7.78,6.138
1998,0.669,35.135,18.503,34.676,31.714,5.194,7.822,6.26
1999,0.669,35.275,18.573,34.676,31.721,5.234,7.781,6.18
2000,0.678,35.42,18.566,34.705,31.724,5.316,7.862,6.301
2001,0.649,35.47,18.538,34.667,31.714,5.154,7.904,6.262
2002,0.649,35.154,18.585,34.657,31.714,5.153,7.782,6.139
2003,0.642,35.323,18.5,34.695,31.728,5.234,7.944,6.423
2004,0.646,35.44,18.507,34.695,31.728,5.235,7.783,6.222
2005,0.665,35.518,18.542,34.695,31.731,5.275,7.781,6.302
2006,0.669,35.125,18.577,34.676,31.721,5.154,7.7,6.302
2007,0.665,35.275,18.621,34.667,31.71,5.153,7.658,6.18
2008,0.678,35.43,18.551,34.714,31.721,5.153,7.698,6.301
2009,0.678,35.45,18.554,34.686,31.724,5.275,7.78,6.262
2010,0.669,35.153,18.503,34.676,31.71,4.991,7.618,6.139
2011,0.665,35.285,18.553,34.686,31.721,5.11,7.617,6.179
2012,0.672,35.392,18.562,34.667,31.717,5.193,7.657,6.22
2013,0.685,35.431,18.566,34.666,31.724,5.153,7.617,6.22
2014,0.695,35.182,18.437,34.695,31.724,5.193,7.657,6.18
2015,0.669,35.285,18.494,34.667,31.714,5.112,7.536,6.139
2016,0.669,35.411,18.526,34.676,31.714,5.152,7.494,6.138
2017,0.675,35.239,18.562,34.714,31.731,5.315,7.697,6.301
2018,0.652,35.161,18.55,34.667,31.721,5.195,7.577,6.18
2019,0.655,35.294,18.527,34.686,31.717,5.194,7.575,6.098
2020,0.633,35.392,18.562,34.657,31.721,5.194,7.575,6.219
2021,0.642,35.095,18.472,34.647,31.714,5.153,7.575,6.139
2022,0.665,35.255,18.51,34.676,31.721,5.193,7.657,6.179
2023,0.649,35.353,18.573,34.667,31.721,5.153,7.739,6.22
2024,0.629,35.431,18.57,34.657,31.707,5.031,7.537,6.098
2025,0.636,35.038,18.511,34.647,31.714,5.151,7.657,6.097
2026,0.636,35.188,18.53,34.685,31.721,5.193,7.739,6.26
2027,0.659,35.295,18.523,34.676,31.728,5.153,7.699,6.18
2028,0.672,35.372,18.542,34.667,31.721,5.153,7.861,6.22
2029,0.678,35.076,18.491,34.666,31.717,5.071,7.741,6.22
2030,0.695,35.226,18.51,34.657,31.71,5.07,7.74,6.098
2031,0.714,35.333,18.596,34.685,31.728,5.314,7.821,6.3
2032,0.75,35.402,18.488,34.657,31.721,5.154,7.741,6.14
2033,0.79,35.028,18.534,34.666,31.721,5.153,7.699,6.098
2034,0.832,35.159,18.554,34.657,31.721,5.153,7.658,6.178
2035,0.843,35.266,18.616,34.638,31.71,5.031,7.617,6.179
2036,0.885,35.343,18.578,34.666,31.714,5.151,7.779,6.179
2037,0.911,35.124,18.5,34.657,31.721,5.234,7.618,6.261
2038,0.938,35.265,18.503,34.628,31.714,4.991,7.495,6.099
2039,0.984,35.363,18.577,34.637,31.714,5.151,7.575,6.138
2040,1.023,35.459,18.55,34.637,31.721,5.112,7.616,6.301
2041,1.089,35.201,18.534,34.647,31.724,5.112,7.576,6.221
2042,1.115,35.343,18.612,34.657,31.721,5.152,7.657,6.342
2043,1.141,35.411,18.496,34.638,31.721,5.031,7.536,6.303
2044,1.187,35.019,18.518,34.637,31.714,5.07,7.453,6.302
2045,1.23,35.111,18.526,34.676,31.738,5.274,7.656,6.465
2046,1.24,35.188,18.581,34.667,31.717,5.073,7.536,6.345
2047,1.273,35.304,18.617,34.638,31.721,5.111,7.494,6.343
2048,1.322,34.989,18.594,34.647,31.717,5.112,7.494,6.343
2049,1.374,35.12,18.535,34.609,31.71,5.112,7.494,6.384
2050,1.427,35.275,18.538,34.647,31.728,5.152,7.494,6.425
2051,1.431,35.353,18.542,34.666,31.721,5.193,7.616,6.507
2052,1.424,34.961,18.538,34.599,31.707,5.031,7.495,6.427
2053,1.463,35.129,18.566,34.618,31.714,5.07,7.453,6.426
2054,1.49,35.265,18.519,34.637,31.731,5.233,7.615,6.588
2055,1.464,35.315,18.511,34.628,31.721,5.113,7.535,6.509
2056,1.467,34.932,18.511,34.647,31.728,5.152,7.575,6.467
2057,1.457,35.062,18.538,34.637,31.721,5.153,7.413,6.507
2058,1.473,35.169,18.569,34.609,31.71,4.99,7.452,6.386
2059,1.516,35.256,18.581,34.675,31.728,5.151,7.534,6.466
2060,1.549,35.036,18.558,34.628,31.728,5.153,7.534,6.589
2061,1.556,35.14,18.566,34.637,31.717,5.112,7.453,6.427
2062,1.52,35.275,18.527,34.628,31.724,5.112,7.493,6.548
2063,1.484,35.276,18.53,34.609,31.717,5.071,7.534,6.468
2064,1.47,35.085,18.562,34.637,31.721,5.152,7.494,6.467
2065,1.464,35.217,18.574,34.637,31.728,5.153,7.575,6.548
2066,1.399,35.295,18.507,34.589,31.71,5.112,7.454,6.468
2067,1.333,35.008,18.518,34.618,31.721,5.03,7.493,6.386
2068,1.28,35.005,18.558,34.637,31.731,5.273,7.616,6.588
2069,1.185,35.101,18.542,34.618,31.724,5.073,7.495,6.549
2070,1.084,35.236,18.554,34.628,31.721,5.03,7.494,6.508
2071,0.979,34.873,18.558,34.628,31.721,5.111,7.494,6.467
2072,0.893,34.985,18.546,34.58,31.714,5.071,7.453,6.426
2073,0.794,35.158,18.538,34.637,31.724,5.111,7.574,6.426
2074,0.663,35.227,18.507,34.628,31.724,5.112,7.575,6.507
2075,0.564,34.883,18.55,34.609,31.71,5.03,7.535,6.427
2076,0.411,35.052,18.585,34.618,31.728,5.151,7.616,6.466
2077,0.282,35.14,18.554,34.599,31.724,5.112,7.779,6.589
2078,0.206,35.246,18.515,34.618,31.724,5.071,7.822,6.712
2079,0.085,34.94,18.557,34.608,31.724,5.193,7.903,6.916
2080,-0.04,35.024,18.511,34.599,31.717,5.194,7.863,7.041
2081,-0.161,35.197,18.534,34.599,31.721,5.072,7.782,7.204
2082,-0.237,35.266,18.569,34.656,31.735,5.274,7.944,7.694
2083,-0.313,34.931,18.589,34.609,31.724,5.154,7.864,7.821
2084,-0.336,35.081,18.488,34.618,31.721,5.153,7.822,8.025
2085,-0.333,35.188,18.534,34.608,31.721,5.071,7.903,8.231
2086,-0.317,35.199,18.526,34.58,31.721,5.07,7.863,8.477
2087,-0.301,35.007,18.569,34.618,31.721,5.07,7.863,8.723
2088,-0.284,35.12,18.546,34.599,31.721,5.233,7.944,8.97
2089,-0.268,35.217,18.534,34.579,31.703,4.991,7.783,9.013
2090,-0.209,35.17,18.565,34.598,31.717,5.07,7.781,9.176
2091,-0.173,34.92,18.499,34.618,31.721,5.152,7.944,9.421
2092,-0.107,35.081,18.538,34.608,31.724,5.153,7.864,9.424
2093,-0.019,35.198,18.558,34.618,31.724,5.193,7.863,9.464
2094,0.05,34.911,18.616,34.599,31.724,5.112,7.822,9.587
2095,0.132,35.023,18.519,34.589,31.714,4.989,7.741,9.629
2096,0.208,35.207,18.456,34.646,31.731,5.232,7.943,9.71
2097,0.274,35.247,18.518,34.609,31.721,5.113,7.864,9.792
2098,0.356,34.883,18.53,34.589,31.721,5.071,7.741,9.875
2099,0.425,35.013,18.515,34.599,31.724,5.111,7.74,10.079
2100,0.452,35.13,18.538,34.589,31.714,5.112,7.821,10.243
2101,0.507,35.237,18.577,34.599,31.721,5.112,7.822,10.53
2102,0.537,34.912,18.531,34.618,31.724,5.112,7.903,10.858
2103,0.544,35.052,18.483,34.58,31.707,5.03,7.742,11.024
2104,0.576,35.178,18.538,34.598,31.721,5.151,7.821,11.269
2105,0.603,35.237,18.577,34.608,31.731,5.275,7.944,11.638
2106,0.648,34.825,18.582,34.58,31.728,5.154,7.864,11.763
2107,0.688,34.975,18.527,34.598,31.724,5.153,7.822,12.009
2108,0.701,35.082,18.495,34.599,31.714,5.153,7.822,12.092
2109,0.727,35.111,18.561,34.579,31.714,5.071,7.781,12.134
2110,0.773,34.872,18.535,34.646,31.728,5.193,7.944,12.297
2111,0.777,34.994,18.526,34.599,31.721,5.194,8.026,12.38
2112,0.793,35.12,18.577,34.56,31.721,5.072,7.865,12.258
2113,0.8,35.169,18.511,34.579,31.721,5.152,8.026,12.257
2114,0.803,34.92,18.511,34.57,31.721,5.153,8.068,12.379
2115,0.807,35.062,18.522,34.579,31.728,5.193,8.109,12.258
2116,0.803,35.169,18.554,34.598,31.728,5.234,8.15,12.298
2117,0.784,34.892,18.585,34.57,31.721,5.194,8.11,12.217
2118,0.774,34.937,18.593,34.579,31.724,5.112,8.15,12.013
2119,0.774,35.091,18.543,34.598,31.742,5.315,8.232,12.092
2120,0.767,35.159,18.581,34.579,31.731,5.236,8.151,11.971
2121,0.787,34.757,18.562,34.598,31.724,5.194,8.191,11.889
2122,0.784,34.907,18.55,34.579,31.728,5.234,8.11,11.725
2123,0.774,35.014,18.597,34.56,31.714,5.113,8.069,11.561
2124,0.793,35.12,18.566,34.589,31.731,5.193,8.15,11.519
2125,0.8,34.738,18.519,34.589,31.728,5.275,8.11,11.396
2126,0.826,34.897,18.542,34.56,31.717,5.073,7.987,11.192
2127,0.807,35.014,18.546,34.56,31.717,5.152,8.027,11.108
2128,0.81,35.053,18.562,34.56,31.721,5.193,8.109,11.148
2129,0.826,34.785,18.542,34.579,31.721,5.194,8.109,10.945
2130,0.836,34.907,18.527,34.579,31.721,5.275,8.069,10.902
2131,0.839,35.004,18.538,34.57,31.721,5.276,7.946,10.739
2132,0.856,35.063,18.523,34.589,31.714,5.154,7.864,10.494
2133,0.853,34.814,18.526,34.599,31.728,5.397,8.107,10.654
2134,0.856,34.955,18.562,34.57,31.721,5.196,7.947,10.452
2135,0.846,35.091,18.593,34.57,31.717,5.194,7.864,10.369
2136,0.836,35.092,18.543,34.55,31.721,5.194,7.985,10.328
2137,0.833,34.795,18.503,34.55,31.71,5.153,7.864,10.205
2138,0.849,34.965,18.479,34.569,31.721,5.193,7.782,10.163
2139,0.843,35.053,18.584,34.541,31.724,5.316,7.903,10.122
2140,0.849,34.938,18.535,34.541,31.714,5.073,7.742,9.919
2141,0.853,34.784,18.542,34.56,31.717,5.111,7.781,9.835
2142,0.846,34.897,18.581,34.56,31.728,5.234,7.944,9.997
2143,0.853,35.023,18.527,34.579,31.724,5.153,7.823,9.795
2144,0.853,34.689,18.522,34.57,31.724,5.275,7.903,9.712
2145,0.859,34.772,18.538,34.55,31.717,5.235,7.782,9.589
2146,0.872,34.897,18.562,34.541,31.714,5.153,7.7,9.466
2147,0.892,35.004,18.644,34.579,31.731,5.356,7.902,9.587
2148,0.882,34.67,18.57,34.579,31.721,5.236,7.701,9.466
2149,0.889,34.829,18.558,34.551,31.721,5.153,7.699,9.343
2150,0.879,34.936,18.542,34.541,31.71,5.193,7.74,9.26
2151,0.882,35.014,18.503,34.541,31.717,5.194,7.699,9.259
2152,0.902,34.698,18.561,34.55,31.724,5.234,7.699,9.137
2153,0.908,34.829,18.577,34.56,31.728,5.194,7.74,9.177
2154,0.908,34.927,18.488,34.512,31.721,5.112,7.699,8.974
2155,0.912,35.014,18.487,34.531,31.71,5.193,7.658,8.931
2156,0.912,34.641,18.506,34.56,31.728,5.275,7.78,9.093
2157,0.908,34.762,18.522,34.541,31.717,5.154,7.74,8.892
2158,0.895,34.907,18.538,34.55,31.728,5.193,7.781,8.687
