time,ecg,bvp,gsr,rsp,skt,emg_zygo,emg_coru,emg_trap
0,0.974,34.733,27.52,37.832,34.094,5.071,5.809,6.385
1,0.974,34.446,27.562,37.803,34.07,5.03,5.688,6.263
2,0.987,34.472,27.571,37.822,34.09,5.111,5.727,6.384
3,0.991,34.587,27.59,37.803,34.077,4.989,5.768,6.303
4,1.007,34.704,27.598,37.831,34.097,5.232,5.891,6.425
5,1.001,34.321,27.544,37.832,34.091,5.072,5.811,6.304
6,1.023,34.471,27.594,37.822,34.098,5.111,5.81,6.343
7,1.027,34.597,27.559,37.822,34.091,5.071,5.81,6.303
8,1.02,34.656,27.617,37.793,34.084,5.03,5.769,6.343
9,1.027,34.244,27.536,37.812,34.087,4.989,5.768,6.303
10,1.043,34.384,27.527,37.803,34.084,4.988,5.687,6.221
11,1.05,34.548,27.562,37.841,34.104,5.151,5.89,6.342
12,1.043,34.598,27.559,37.813,34.091,5.112,5.811,6.221
13,1.033,34.359,27.582,37.822,34.091,5.112,5.81,6.302
14,1.053,34.51,27.559,37.822,34.087,4.989,5.688,6.14
15,1.043,34.607,27.617,37.822,34.091,4.988,5.727,6.219
16,1.043,34.675,27.559,37.793,34.084,4.988,5.727,6.139
17,1.037,34.244,27.535,37.783,34.08,4.988,5.727,6.179
18,1.053,34.441,27.574,37.841,34.104,5.232,5.809,6.261
19,1.043,34.52,27.598,37.803,34.091,5.072,5.769,6.139
20,1.053,34.559,27.579,37.822,34.098,5.111,5.768,6.179
21,1.053,34.32,27.504,37.803,34.084,5.03,5.647,6.139
22,1.053,34.423,27.554,37.86,34.091,4.989,5.727,6.179
23,1.082,34.549,27.5,37.784,34.087,4.988,5.687,6.098
24,1.079,34.368,27.535,37.783,34.084,5.029,5.727,6.178
25,1.109,34.241,27.57,37.831,34.104,5.151,5.727,6.098
26,1.119,34.336,27.598,37.803,34.091,5.071,5.727,6.138
27,1.115,34.461,27.528,37.803,34.087,5.07,5.809,6.219
28,1.132,34.309,27.535,37.783,34.087,5.03,5.647,6.098
29,1.155,34.413,27.555,37.783,34.094,5.07,5.686,6.138
30,1.158,34.52,27.59,37.774,34.087,4.908,5.564,6.016
31,1.152,34.626,27.618,37.774,34.084,5.028,5.645,6.137
32,1.161,34.129,27.54,37.821,34.098,5.151,5.849,6.138
33,1.155,34.22,27.527,37.803,34.094,5.031,5.729,6.138
34,1.155,34.384,27.465,37.822,34.094,5.111,5.768,6.138
35,1.165,34.462,27.495,37.784,34.087,5.03,5.647,6.016
36,1.148,34.089,27.523,37.793,34.087,5.07,5.767,6.096
37,1.152,34.219,27.566,37.774,34.084,4.989,5.687,6.097
38,1.165,34.364,27.524,37.783,34.084,4.988,5.727,6.138
39,1.187,34.471,27.523,37.831,34.091,5.029,5.768,6.138
40,1.178,34.233,27.555,37.793,34.094,4.989,5.768,6.138
41,1.194,34.393,27.602,37.793,34.087,5.07,5.809,6.219
42,1.194,34.5,27.629,37.774,34.077,4.948,5.566,5.976
43,1.22,34.54,27.606,37.793,34.087,4.988,5.766,6.137
44,1.221,34.061,27.579,37.774,34.077,4.988,5.647,5.976
45,1.221,34.19,27.497,37.783,34.091,5.029,5.727,6.137
46,1.256,34.364,27.539,37.812,34.094,5.03,5.727,6.057
47,1.253,34.586,27.555,37.784,34.094,5.07,5.768,6.137
48,1.26,34.253,27.574,37.793,34.087,5.07,5.809,6.098
49,1.267,34.346,27.539,37.755,34.08,4.908,5.647,6.016
50,1.283,34.471,27.527,37.773,34.084,4.987,5.686,6.015
51,1.286,34.089,27.555,37.745,34.08,4.988,5.687,6.015
52,1.286,34.133,27.59,37.773,34.094,4.988,5.768,6.178
53,1.29,34.306,27.602,37.783,34.084,4.988,5.768,6.057
54,1.286,34.384,27.602,37.783,34.087,5.029,5.728,6.137
55,1.293,34.193,27.626,37.774,34.098,5.03,5.768,6.098
56,1.273,34.316,27.544,37.745,34.077,4.948,5.647,5.935
57,1.289,34.48,27.512,37.745,34.094,4.988,5.645,6.014
58,1.286,34.559,27.558,37.745,34.087,4.907,5.727,5.934
59,1.29,34.234,27.574,37.773,34.091,4.987,5.768,6.177
60,1.309,34.412,27.547,37.783,34.087,4.988,5.647,5.976
61,1.319,34.549,27.438,37.783,34.094,5.029,5.767,6.055
62,1.329,34.617,27.511,37.774,34.094,5.03,5.809,5.975
63,1.329,34.205,27.508,37.716,34.08,4.867,5.647,5.893
64,1.342,34.355,27.586,37.763,34.087,4.987,5.767,5.973
65,1.345,34.462,27.579,37.735,34.084,4.907,5.647,5.893
66,1.349,34.539,27.598,37.773,34.101,5.069,5.808,6.136
67,1.358,34.425,27.489,37.754,34.087,4.989,5.769,6.016
68,1.365,34.568,27.531,37.773,34.094,4.948,5.809,6.015
69,1.368,34.675,27.574,37.764,34.091,5.029,5.769,5.974
70,1.359,34.676,27.586,37.716,34.077,4.907,5.728,5.933
71,1.355,34.484,27.579,37.744,34.091,4.947,5.646,5.892
72,1.352,34.616,27.473,37.725,34.084,4.947,5.645,5.851
73,1.359,34.762,27.456,37.763,34.091,5.15,5.808,6.135
74,1.355,34.686,27.515,37.745,34.087,4.99,5.688,6.016
75,1.346,34.695,27.476,37.735,34.094,4.948,5.768,5.974
76,1.355,34.849,27.574,37.764,34.091,5.029,5.728,5.933
77,1.333,34.908,27.578,37.706,34.084,4.907,5.687,5.852
78,1.339,34.889,27.59,37.811,34.087,4.906,5.687,5.891
79,1.326,35.004,27.528,37.736,34.08,4.865,5.646,5.892
80,1.345,35.159,27.562,37.754,34.104,5.109,5.889,6.054
81,1.345,35.246,27.574,37.735,34.091,4.949,5.77,5.975
82,1.342,35.055,27.606,37.744,34.084,4.988,5.85,5.974
83,1.355,35.188,27.555,37.745,34.091,4.948,5.851,5.933
84,1.333,35.314,27.531,37.716,34.08,4.866,5.769,5.974
85,1.339,35.373,27.516,37.735,34.08,4.865,5.728,5.893
86,1.339,35.392,27.504,37.706,34.08,4.824,5.687,5.892
87,1.332,35.565,27.605,37.754,34.097,5.068,5.931,6.054
88,1.332,35.644,27.587,37.735,34.091,4.948,5.77,5.975
89,1.345,35.721,27.579,37.735,34.091,4.947,5.809,5.974
90,1.319,35.674,27.532,37.725,34.087,4.947,5.769,5.893
91,1.293,35.769,27.551,37.716,34.087,4.907,5.85,5.933
92,1.283,35.876,27.617,37.725,34.084,4.906,5.729,5.852
93,1.267,35.925,27.559,37.706,34.084,4.865,5.727,5.932
94,1.263,36.05,27.586,37.754,34.104,5.068,5.972,6.014
95,1.237,36.166,27.567,37.716,34.091,4.908,5.811,5.893
96,1.214,36.273,27.563,37.725,34.094,4.947,5.769,5.973
97,1.208,36.341,27.524,37.716,34.087,4.947,5.687,5.852
98,1.185,36.265,27.609,37.706,34.087,4.947,5.727,5.891
99,1.175,36.427,27.552,37.715,34.091,4.907,5.687,5.933
100,1.145,36.525,27.508,37.696,34.08,4.865,5.768,5.811
101,1.158,36.583,27.547,37.744,34.094,5.068,5.85,5.972
102,1.139,36.689,27.488,37.706,34.091,4.948,5.851,5.933
103,1.125,36.796,27.574,37.715,34.094,5.029,5.81,5.974
104,1.099,36.883,27.547,37.706,34.077,4.907,5.688,5.811
105,1.083,36.846,27.613,37.706,34.091,4.947,5.809,5.891
106,1.076,36.97,27.552,37.687,34.08,4.907,5.728,5.77
107,1.06,37.106,27.539,37.686,34.087,4.947,5.809,5.85
108,1.06,37.203,27.59,37.725,34.094,4.988,5.769,5.851
109,1.043,37.041,27.586,37.706,34.094,4.948,5.728,5.891
110,1.027,37.173,27.594,37.715,34.087,4.947,5.85,5.892
111,1.007,37.29,27.512,37.668,34.084,4.744,5.648,5.729
112,0.994,37.349,27.562,37.734,34.091,4.905,5.727,5.85
113,0.961,37.34,27.508,37.677,34.087,4.865,5.768,5.851
114,0.942,37.483,27.484,37.677,34.087,4.987,5.809,5.973
115,0.948,37.619,27.499,37.696,34.094,4.988,5.769,5.893
116,0.912,37.611,27.589,37.706,34.087,4.988,5.768,5.973
117,0.899,37.611,27.543,37.696,34.094,4.988,5.85,5.933
118,0.886,37.735,27.52,37.667,34.077,4.826,5.769,5.811
119,0.859,37.852,27.543,37.696,34.087,4.987,5.809,5.891
120,0.859,38.16,27.57,37.677,34.084,4.907,5.688,5.851
121,0.849,37.961,27.633,37.696,34.101,5.028,5.89,6.095
122,0.849,38.094,27.614,37.696,34.094,4.948,5.811,5.935
123,0.84,38.181,27.548,37.696,34.087,4.947,5.769,5.974
124,0.833,37.914,27.539,37.696,34.091,4.988,5.85,5.893
125,0.82,37.949,27.523,37.658,34.08,4.866,5.769,5.973
126,0.83,38.103,27.531,37.657,34.084,4.865,5.728,5.852
127,0.81,38.162,27.562,37.667,34.08,4.865,5.768,5.851
128,0.8,38.038,27.539,37.696,34.097,5.028,5.891,6.054
129,0.807,38.171,27.531,37.667,34.094,4.907,5.77,5.975
130,0.807,38.307,27.516,37.686,34.094,4.987,5.809,5.974
131,0.8,38.366,27.574,37.677,34.094,4.988,5.85,5.974
132,0.768,38.289,27.575,37.648,34.087,4.948,5.729,5.893
133,0.761,38.452,27.641,37.667,34.087,4.947,5.768,5.973
134,0.754,38.549,27.599,37.667,34.084,4.866,5.728,5.893
135,0.751,38.646,27.583,37.686,34.108,5.15,5.89,6.054
136,0.731,38.407,27.571,37.658,34.091,4.949,5.77,6.015
137,0.728,38.501,27.555,37.677,34.094,5.029,5.728,6.015
138,0.712,38.626,27.57,37.667,34.087,5.03,5.809,5.934
139,0.698,38.628,27.504,37.648,34.091,5.03,5.81,6.014
140,0.701,38.532,27.539,37.657,34.087,5.03,5.728,5.974
141,0.695,38.665,27.539,37.657,34.077,4.989,5.727,5.933
142,0.705,38.801,27.57,37.696,34.097,5.192,5.85,6.096
143,0.711,38.792,27.571,37.658,34.094,5.072,5.769,5.975
144,0.718,38.601,27.586,37.677,34.098,5.07,5.768,6.015
145,0.718,38.714,27.637,37.667,34.087,5.03,5.768,5.974
146,0.705,38.782,27.564,37.657,34.084,5.03,5.809,5.974
147,0.711,38.648,27.551,37.657,34.087,4.948,5.769,5.933
148,0.702,38.628,27.516,37.657,34.091,4.988,5.728,5.974
149,0.741,38.752,27.586,37.686,34.105,5.151,5.931,6.015
150,0.721,38.821,27.586,37.658,34.091,5.071,5.77,5.974
151,0.718,38.582,27.512,37.667,34.094,5.193,5.809,5.933
152,0.715,38.694,27.539,37.677,34.094,5.072,5.688,5.892
153,0.685,38.811,27.512,37.648,34.084,5.07,5.727,5.933
154,0.685,38.898,27.515,37.638,34.084,5.07,5.687,5.892
155,0.682,38.621,27.527,37.638,34.08,5.03,5.687,5.892
156,0.682,38.791,27.613,37.676,34.104,5.192,5.809,5.973
157,0.688,38.888,27.548,37.629,34.091,5.153,5.85,6.015
158,0.685,38.966,27.547,37.667,34.091,5.112,5.891,5.934
159,0.682,38.698,27.543,37.648,34.087,5.03,5.811,5.892
160,0.669,38.811,27.59,37.648,34.087,5.07,5.891,5.933
161,0.675,38.927,27.602,37.638,34.08,5.07,5.811,5.933
162,0.662,38.957,27.571,37.648,34.084,5.07,5.769,5.933
163,0.685,38.746,27.547,37.676,34.098,5.111,5.891,5.892
164,0.675,38.849,27.508,37.658,34.087,5.112,5.851,5.892
165,0.685,38.956,27.5,37.657,34.091,5.234,5.932,5.973
166,0.688,38.967,27.562,37.619,34.087,5.032,5.73,5.852
167,0.685,38.583,27.598,37.638,34.087,5.111,5.809,5.932
168,0.688,38.713,27.524,37.638,34.084,5.112,5.728,5.933
169,0.688,38.82,27.516,37.609,34.08,5.071,5.768,6.014
170,0.711,38.869,27.562,37.647,34.094,5.193,5.809,5.974
171,0.698,38.764,27.578,37.629,34.084,5.194,5.891,5.974
172,0.692,38.897,27.61,37.638,34.094,5.072,5.933,6.015
173,0.679,38.985,27.594,37.619,34.073,5.03,5.73,5.893
174,0.678,38.545,27.594,37.628,34.09,5.151,5.85,5.973
175,0.675,38.627,27.52,37.638,34.084,5.031,5.769,5.893
176,0.656,38.743,27.504,37.609,34.087,5.151,5.728,5.973
177,0.681,38.869,27.562,37.638,34.084,5.193,5.768,5.933
178,0.672,38.62,27.59,37.619,34.091,5.112,5.768,5.974
179,0.649,38.771,27.536,37.638,34.091,5.193,5.809,5.974
180,0.665,38.888,27.445,37.619,34.077,4.99,5.728,5.811
181,0.669,38.956,27.53,37.628,34.087,5.07,5.809,5.972
182,0.669,38.468,27.547,37.609,34.084,5.07,5.728,5.893
183,0.678,38.626,27.535,37.609,34.087,5.152,5.85,6.014
184,0.698,38.752,27.594,37.638,34.087,5.193,5.729,5.893
185,0.685,38.782,27.598,37.628,34.091,5.153,5.809,5.973
186,0.695,38.409,27.551,37.628,34.094,5.153,5.85,6.015
187,0.698,38.52,27.527,37.6,34.073,4.949,5.688,5.852
188,0.695,38.665,27.578,37.618,34.087,5.069,5.727,5.891
189,0.698,38.666,27.602,37.59,34.084,4.989,5.687,5.77
190,0.695,38.398,27.555,37.609,34.091,5.151,5.849,6.013
191,0.711,38.549,27.516,37.599,34.091,5.112,5.688,5.852
192,0.685,38.656,27.554,37.599,34.091,5.112,5.809,5.973
193,0.685,38.944,27.531,37.628,34.098,5.193,5.85,5.974
194,0.688,38.372,27.512,37.561,34.077,4.99,5.607,5.811
195,0.682,38.52,27.562,37.609,34.084,5.07,5.767,5.85
196,0.682,38.598,27.61,37.58,34.08,5.03,5.728,5.769
197,0.675,38.215,27.54,37.59,34.094,5.151,5.89,5.972
198,0.695,38.297,27.574,37.609,34.087,5.071,5.77,5.893
199,0.688,38.385,27.555,37.628,34.087,5.111,5.768,5.973
200,0.685,38.481,27.586,37.628,34.094,5.112,5.85,5.933
201,0.675,38.319,27.586,37.561,34.084,4.989,5.648,5.892
202,0.688,38.462,27.579,37.589,34.087,5.11,5.727,5.892
203,0.685,38.568,27.512,37.59,34.084,4.989,5.646,5.811
204,0.688,38.665,27.523,37.628,34.098,5.273,5.849,6.013
205,0.682,37.976,27.512,37.59,34.087,5.032,5.688,5.893
206,0.701,38.103,27.554,37.618,34.094,5.192,5.768,5.851
207,0.708,38.21,27.625,37.609,34.091,5.112,5.728,5.851
208,0.705,38.259,27.517,37.561,34.077,5.071,5.687,5.851
209,0.721,37.962,27.574,37.57,34.084,5.03,5.687,5.81
210,0.708,38.084,27.543,37.561,34.08,5.07,5.687,5.769
211,0.718,38.21,27.609,37.599,34.101,5.233,5.809,5.931
212,0.721,38.249,27.61,37.58,34.091,5.153,5.769,5.811
213,0.689,37.972,27.637,37.59,34.091,5.112,5.728,5.891
214,0.695,38.094,27.583,37.58,34.091,5.112,5.687,5.811
215,0.692,38.191,27.528,37.561,34.094,5.071,5.727,5.81
216,0.685,38.24,27.555,37.561,34.084,5.03,5.687,5.81
217,0.685,37.914,27.539,37.561,34.091,5.07,5.727,5.81
218,0.701,38.055,27.633,37.589,34.101,5.193,5.809,5.932
219,0.688,38.133,27.536,37.561,34.087,5.112,5.769,5.933
220,0.685,37.817,27.555,37.647,34.091,5.112,5.809,5.974
221,0.695,37.766,27.528,37.561,34.087,4.989,5.647,5.852
222,0.698,37.89,27.578,37.551,34.091,5.029,5.727,5.851
223,0.708,37.978,27.575,37.551,34.084,5.03,5.646,5.81
224,0.702,37.662,27.618,37.522,34.084,5.03,5.727,5.891
225,0.721,37.832,27.653,37.56,34.094,5.07,5.768,5.851
226,0.715,37.91,27.568,37.57,34.091,5.07,5.687,5.891
227,0.721,38.007,27.571,37.561,34.094,5.152,5.768,5.933
228,0.715,37.528,27.555,37.541,34.077,4.99,5.606,5.689
229,0.715,37.677,27.613,37.541,34.084,5.07,5.686,5.849
230,0.705,37.793,27.54,37.522,34.087,4.989,5.687,5.769
231,0.708,37.843,27.508,37.541,34.087,4.988,5.809,5.891
232,0.731,37.527,27.547,37.56,34.101,5.11,5.81,5.851
233,0.708,37.639,27.551,37.532,34.091,5.071,5.728,5.851
234,0.702,37.755,27.567,37.551,34.091,5.07,5.727,5.851
235,0.701,37.813,27.559,37.541,34.08,5.03,5.646,5.688
236,0.692,37.43,27.672,37.522,34.091,5.03,5.767,5.849
237,0.705,37.542,27.56,37.512,34.08,5.03,5.687,5.769
238,0.689,37.677,27.547,37.512,34.087,4.989,5.768,5.85
239,0.688,37.736,27.574,37.57,34.094,5.192,5.809,5.891
240,0.688,37.506,27.559,37.532,34.091,5.112,5.769,5.811
241,0.701,37.638,27.61,37.551,34.091,5.03,5.809,5.891
242,0.708,37.755,27.516,37.522,34.084,4.948,5.688,5.729
243,0.705,37.622,27.543,37.512,34.087,5.029,5.768,5.85
244,0.711,37.381,27.492,37.483,34.084,4.989,5.728,5.688
245,0.708,37.493,27.539,37.502,34.084,5.029,5.809,5.89
246,0.737,37.648,27.563,37.541,34.091,5.07,5.81,5.851
247,0.715,37.18,27.602,37.503,34.087,5.03,5.81,5.851
248,0.715,37.328,27.555,37.522,34.091,5.07,5.81,5.891
249,0.718,37.416,27.52,37.493,34.084,4.867,5.647,5.689
250,0.721,37.522,27.531,37.502,34.084,5.028,5.767,5.768
251,0.724,37.226,27.57,37.493,34.087,5.03,5.728,5.768
252,0.711,37.348,27.598,37.493,34.084,4.989,5.85,5.768
253,0.721,37.522,27.653,37.531,34.094,5.11,5.729,5.809
254,0.711,37.543,27.603,37.503,34.098,5.071,5.809,5.85
255,0.708,37.131,27.567,37.512,34.098,5.111,5.81,5.851
256,0.702,37.299,27.532,37.493,34.08,4.989,5.688,5.729
257,0.701,37.397,27.547,37.502,34.084,5.07,5.768,5.727
258,0.695,37.455,27.633,37.483,34.094,5.03,5.728,5.687
259,0.685,37.024,27.571,37.483,34.084,4.989,5.809,5.849
260,0.711,37.221,27.547,37.521,34.094,5.07,5.769,5.81
261,0.698,37.31,27.543,37.493,34.091,5.111,5.809,5.81
262,0.705,37.349,27.582,37.502,34.091,5.071,5.81,5.891
263,0.721,36.918,27.516,37.464,34.08,4.908,5.647,5.689
264,0.711,37.038,27.558,37.464,34.084,4.987,5.767,5.768
265,0.708,37.164,27.586,37.473,34.08,4.988,5.687,5.809
266,0.721,37.462,27.586,37.483,34.084,5.029,5.809,5.891
267,0.731,37.015,27.582,37.493,34.084,5.07,5.81,5.77
268,0.721,37.135,27.543,37.483,34.087,5.07,5.769,5.85
269,0.741,37.242,27.621,37.474,34.091,5.07,5.85,5.81
270,0.731,36.83,27.591,37.426,34.077,4.908,5.607,5.688
271,0.725,36.855,27.555,37.473,34.087,4.987,5.726,5.768
272,0.728,36.989,27.52,37.464,34.08,4.988,5.646,5.606
273,0.712,37.067,27.574,37.521,34.094,5.07,5.767,5.808
274,0.724,36.723,27.547,37.474,34.091,5.03,5.728,5.81
275,0.721,36.844,27.504,37.483,34.087,5.07,5.809,5.85
276,0.708,36.961,27.613,37.483,34.087,5.111,5.85,5.769
277,0.705,37.038,27.54,37.435,34.08,4.908,5.648,5.647
278,0.708,36.55,27.594,37.454,34.091,5.069,5.767,5.727
279,0.692,36.679,27.544,37.445,34.08,4.989,5.687,5.687
280,0.688,36.805,27.602,37.454,34.097,5.07,5.809,5.931
281,0.711,36.883,27.626,37.483,34.084,5.07,5.728,5.811
282,0.702,36.644,27.626,37.445,34.091,5.07,5.768,5.81
283,0.718,36.786,27.583,37.464,34.094,5.111,5.728,5.81
284,0.702,36.864,27.555,37.416,34.077,4.867,5.687,5.728
285,0.708,36.961,27.504,37.473,34.087,4.987,5.687,5.687
286,0.702,36.444,27.527,37.445,34.084,5.029,5.646,5.727
287,0.714,36.573,27.609,37.444,34.094,5.111,5.93,5.972
288,0.728,36.699,27.563,37.464,34.087,5.071,5.77,5.73
289,0.731,36.729,27.574,37.445,34.087,4.989,5.809,5.768
290,0.721,37.055,27.555,37.464,34.091,5.07,5.891,5.768
291,0.721,37.154,27.598,37.406,34.077,4.908,5.689,5.728
292,0.718,37.28,27.633,37.434,34.087,5.028,5.849,5.768
293,0.702,36.39,27.626,37.435,34.084,4.907,5.729,5.687
294,0.711,36.093,27.665,37.454,34.094,5.109,5.89,5.931
295,0.711,36.205,27.603,37.445,34.091,5.071,5.811,5.811
296,0.698,36.321,27.462,37.473,34.087,5.03,5.81,5.728
297,0.701,36.342,27.562,37.464,34.094,5.03,5.81,5.727
298,0.685,36.438,27.586,37.406,34.08,4.989,5.81,5.727
299,0.679,36.573,27.598,37.425,34.08,4.988,5.728,5.809
300,0.678,36.661,27.516,37.435,34.084,4.988,5.687,5.647
301,0.691,36.192,27.57,37.464,34.101,5.151,5.971,5.889
302,0.701,36.331,27.516,37.445,34.087,5.031,5.811,5.77
303,0.705,36.457,27.582,37.454,34.094,5.03,5.81,5.809
304,0.715,36.525,27.575,37.425,34.084,4.907,5.728,5.688
305,0.695,36.238,27.645,37.425,34.094,4.987,5.809,5.768
306,0.708,36.379,27.634,37.406,34.08,4.988,5.769,5.687
307,0.702,36.515,27.602,37.415,34.084,4.988,5.728,5.727
308,0.724,36.622,27.571,37.454,34.098,5.07,5.809,5.768
309,0.718,36.095,27.617,37.416,34.087,5.07,5.85,5.85
310,0.724,36.243,27.641,37.425,34.094,5.07,5.81,5.81
311,0.715,36.341,27.56,37.415,34.08,4.908,5.81,5.647
312,0.705,36.39,27.469,37.415,34.084,4.987,5.81,5.727
313,0.689,36.266,27.515,37.454,34.08,4.907,5.769,5.727
314,0.695,36.399,27.551,37.397,34.091,4.987,5.85,5.85
315,0.705,36.534,27.563,37.434,34.091,5.029,5.851,5.81
316,0.685,36.382,27.625,37.416,34.091,4.989,5.932,5.728
317,0.692,36.112,27.614,37.415,34.091,5.029,5.933,5.768
318,0.685,36.224,27.587,37.406,34.077,4.907,5.689,5.606
319,0.682,36.35,27.582,37.415,34.091,5.028,5.89,5.767
320,0.682,36.198,27.579,37.406,34.084,4.907,5.811,5.728
321,0.679,36.321,27.633,37.415,34.091,4.987,5.85,5.85
322,0.691,36.466,27.606,37.425,34.094,4.988,5.81,5.81
323,0.688,36.516,27.594,37.406,34.091,4.988,5.85,5.81
324,0.698,36.113,27.586,37.396,34.094,5.029,5.891,5.769
325,0.701,36.234,27.563,37.396,34.077,4.907,5.648,5.687
326,0.708,36.35,27.571,37.396,34.087,4.947,5.808,5.809
327,0.702,36.419,27.633,37.386,34.08,4.988,5.81,5.688
328,0.698,36.141,27.634,37.415,34.091,5.07,5.972,5.89
329,0.721,36.321,27.563,37.406,34.084,5.03,5.771,5.77
330,0.718,36.437,27.567,37.406,34.094,4.989,5.85,5.809
331,0.711,36.515,27.543,37.406,34.091,5.029,5.891,5.81
332,0.689,36.181,27.594,37.358,34.084,4.989,5.811,5.769
333,0.698,36.34,27.618,37.376,34.084,4.988,5.769,5.728
334,0.695,36.447,27.68,37.386,34.084,4.948,5.809,5.727
335,0.688,36.506,27.681,37.425,34.098,5.11,6.013,5.931
336,0.675,36.219,27.626,37.415,34.091,5.03,5.812,5.852
337,0.688,36.369,27.556,37.387,34.091,5.07,5.85,5.81
338,0.685,36.486,27.617,37.406,34.094,5.03,5.851,5.81
339,0.666,36.756,27.63,37.358,34.084,5.03,5.81,5.769
340,0.672,36.356,27.524,37.405,34.084,4.989,5.81,5.768
341,0.678,36.476,27.555,37.367,34.077,4.948,5.81,5.728
342,0.682,36.612,27.547,37.415,34.094,5.15,6.013,5.972
343,0.695,36.287,27.559,37.377,34.091,4.99,5.893,5.771
344,0.692,36.332,27.571,37.386,34.098,5.029,5.892,5.809
345,0.701,36.457,27.614,37.396,34.098,5.03,5.811,5.728
346,0.685,36.516,27.665,37.377,34.087,4.989,5.85,5.768
347,0.698,36.238,27.607,37.367,34.08,4.988,5.769,5.728
348,0.695,36.35,27.575,37.367,34.084,4.948,5.768,5.768
349,0.701,36.495,27.618,37.396,34.098,5.11,5.972,5.85
350,0.695,36.583,27.657,37.377,34.084,4.989,5.771,5.81
351,0.711,36.296,27.571,37.367,34.091,4.988,5.85,5.769
352,0.708,36.447,27.532,37.386,34.091,5.029,5.81,5.809
353,0.676,36.554,27.496,37.386,34.087,4.989,5.81,5.85
354,0.685,36.651,27.57,37.367,34.084,4.988,5.81,5.851
355,0.679,36.23,27.524,37.357,34.08,4.988,5.728,5.729
356,0.685,36.417,27.594,37.396,34.104,5.192,5.89,5.931
357,0.685,36.486,27.618,37.358,34.087,4.95,5.892,5.811
358,0.679,36.564,27.602,37.376,34.094,5.029,5.892,5.891
359,0.665,36.526,27.59,37.358,34.084,4.989,5.811,5.892
360,0.662,36.65,27.614,37.357,34.087,4.988,5.85,5.851
361,0.669,36.776,27.696,37.338,34.084,4.907,5.81,5.769
362,0.672,36.758,27.638,37.328,34.08,4.947,5.728,5.85
363,0.685,36.317,27.634,37.395,34.097,5.11,5.85,5.851
364,0.675,36.428,27.571,37.348,34.084,5.03,5.851,5.851
365,0.688,36.534,27.524,37.376,34.094,4.989,5.891,5.891
366,0.698,36.497,27.578,37.367,34.087,4.907,5.77,5.811
367,0.685,36.487,27.606,37.357,34.087,4.987,5.85,5.81
368,0.688,36.602,27.626,37.348,34.084,4.948,5.729,5.891
369,0.685,36.728,27.556,37.348,34.084,4.947,5.809,5.892
370,0.711,36.413,27.594,37.367,34.094,5.069,5.85,5.811
371,0.692,36.496,27.61,37.357,34.087,4.989,5.851,5.81
372,0.688,36.612,27.672,37.348,34.094,4.988,5.81,5.972
373,0.688,36.69,27.65,37.319,34.08,4.866,5.728,5.73
374,0.685,36.623,27.692,37.347,34.091,4.987,5.768,5.89
375,0.685,36.747,27.638,37.338,34.084,4.948,5.728,5.729
376,0.669,36.883,27.614,37.376,34.087,5.11,5.89,5.972
377,0.685,36.999,27.61,37.358,34.091,4.949,5.811,5.852
378,0.669,36.444,27.618,37.348,34.091,4.947,5.81,5.932
379,0.669,36.582,27.649,37.357,34.094,5.029,5.85,5.933
380,0.665,36.709,27.548,37.319,34.077,4.907,5.729,5.852
381,0.669,36.758,27.609,37.328,34.094,4.987,5.809,5.851
382,0.662,36.538,27.591,37.328,34.084,4.866,5.728,5.851
383,0.678,36.651,27.641,37.338,34.091,4.987,5.809,5.932
384,0.685,36.805,27.622,37.328,34.084,5.029,5.81,5.892
385,0.675,36.826,27.649,37.347,34.087,5.03,5.81,5.892
386,0.691,36.519,27.673,37.338,34.091,5.07,5.85,5.892
387,0.688,36.631,27.615,37.29,34.08,4.826,5.688,5.811
388,0.698,36.747,27.602,37.337,34.084,4.987,5.727,5.85
389,0.711,36.729,27.618,37.309,34.087,4.988,5.727,5.769
390,0.695,36.585,27.688,37.328,34.094,5.029,5.89,6.013
391,0.701,36.718,27.587,37.309,34.087,5.03,5.729,5.852
392,0.688,36.825,27.555,37.347,34.094,5.03,5.768,5.891
393,0.698,36.49,27.563,37.328,34.094,5.07,5.809,5.851
394,0.679,36.545,27.586,37.28,34.08,4.948,5.647,5.851
395,0.678,36.689,27.59,37.328,34.084,4.907,5.686,5.81
396,0.665,36.767,27.637,37.309,34.084,4.947,5.646,5.81
397,0.672,36.634,27.614,37.338,34.098,5.029,5.93,5.932
398,0.682,36.786,27.598,37.328,34.087,5.03,5.811,5.852
399,0.672,36.883,27.606,37.347,34.087,4.989,5.81,5.891
400,0.672,36.98,27.618,37.338,34.098,5.07,5.81,5.811
401,0.659,36.482,27.657,37.309,34.077,4.989,5.769,5.891
402,0.672,36.65,27.603,37.328,34.084,4.948,5.809,5.811
403,0.682,36.728,27.606,37.309,34.091,4.988,5.769,5.81
404,0.692,36.863,27.567,37.347,34.091,5.029,5.891,5.85
405,0.688,36.577,27.59,37.338,34.084,4.989,5.851,5.851
406,0.692,36.728,27.606,37.338,34.094,5.07,5.851,5.851
407,0.685,36.835,27.653,37.309,34.084,4.908,5.729,5.769
408,0.688,36.865,27.618,37.319,34.084,4.947,5.809,5.809
409,0.688,36.654,27.61,37.299,34.087,4.947,5.728,5.728
410,0.688,36.776,27.606,37.309,34.094,4.988,5.809,5.809
411,0.705,36.921,27.633,37.338,34.098,4.948,5.85,5.85
412,0.685,37.163,27.645,37.319,34.091,4.988,5.81,5.851
413,0.672,36.542,27.688,37.319,34.091,5.029,5.81,5.891
414,0.665,36.651,27.65,37.29,34.077,4.826,5.728,5.689
415,0.669,36.767,27.638,37.318,34.084,4.905,5.809,5.809
416,0.662,36.605,27.591,37.29,34.084,4.825,5.728,5.769
417,0.662,36.651,27.61,37.299,34.094,5.027,5.85,5.931
418,0.665,36.815,27.665,37.309,34.087,4.948,5.769,5.811
419,0.646,36.874,27.661,37.319,34.094,4.988,5.809,5.85
420,0.662,36.481,27.591,37.338,34.091,5.029,5.81,5.851
421,0.669,36.583,27.571,37.28,34.077,4.826,5.647,5.769
422,0.678,36.728,27.614,37.309,34.084,4.865,5.767,5.728
423,0.695,36.806,27.63,37.299,34.08,4.865,5.728,5.727
424,0.695,36.605,27.681,37.299,34.091,4.987,5.89,5.89
425,0.708,36.738,27.701,37.299,34.084,4.907,5.851,5.729
426,0.711,36.864,27.697,37.309,34.091,4.987,5.851,5.85
427,0.711,36.961,27.662,37.309,34.098,4.988,5.769,5.769
428,0.695,36.444,27.638,37.261,34.077,4.826,5.687,5.728
429,0.714,36.592,27.665,37.289,34.091,4.905,5.727,5.687
430,0.728,36.699,27.673,37.27,34.08,4.865,5.768,5.727
431,0.728,36.758,27.587,37.299,34.101,5.068,5.85,5.89
432,0.731,36.403,27.547,37.309,34.084,4.989,5.81,5.729
433,0.728,36.534,27.586,37.309,34.091,4.948,5.769,5.809
434,0.738,36.66,27.614,37.309,34.087,4.907,5.728,5.728
435,0.725,36.661,27.622,37.271,34.077,4.906,5.646,5.768
436,0.744,36.479,27.649,37.299,34.087,4.865,5.727,5.728
437,0.741,36.602,27.622,37.28,34.08,4.824,5.646,5.646
438,0.747,36.738,27.637,37.328,34.097,5.027,5.849,5.889
439,0.754,36.509,27.634,37.29,34.08,4.948,5.688,5.811
440,0.748,36.449,27.638,37.299,34.091,4.988,5.727,5.891
441,0.754,36.563,27.688,37.28,34.091,4.907,5.687,5.689
442,0.744,36.651,27.658,37.289,34.084,4.906,5.687,5.768
443,0.767,36.316,27.603,37.261,34.08,4.947,5.646,5.647
444,0.757,36.418,27.587,37.27,34.08,4.907,5.767,5.767
445,0.78,36.601,27.602,37.309,34.111,4.987,5.85,5.85
446,0.78,36.661,27.645,37.28,34.084,4.988,5.769,5.769
447,0.784,36.7,27.681,37.28,34.087,4.988,5.809,5.85
448,0.797,36.825,27.599,37.28,34.084,4.988,5.647,5.648
449,0.803,36.941,27.653,37.27,34.094,4.907,5.767,5.767
450,0.787,36.99,27.63,37.261,34.087,4.906,5.687,5.687
451,0.774,36.329,27.688,37.27,34.084,4.906,5.727,5.687
452,0.79,36.533,27.763,37.318,34.091,5.069,5.809,5.809
453,0.767,36.631,27.713,37.261,34.087,4.948,5.769,5.688
454,0.757,36.68,27.697,37.27,34.084,5.029,5.809,5.809
455,0.77,36.105,27.611,37.261,34.087,4.867,5.728,5.688
456,0.748,36.243,27.633,37.27,34.091,4.946,5.727,5.727
457,0.747,36.35,27.626,37.261,34.08,4.947,5.687,5.727
458,0.747,36.371,27.673,37.251,34.084,5.029,5.809,5.768
459,0.757,36.237,27.634,37.289,34.094,5.03,5.891,5.768
460,0.761,36.331,27.645,37.27,34.091,4.989,5.811,5.809
461,0.783,36.447,27.661,37.28,34.094,5.07,5.85,5.81
462,0.79,36.458,27.689,37.251,34.077,4.908,5.729,5.688
463,0.813,36.218,27.736,37.26,34.084,4.987,5.89,5.768
464,0.813,36.321,27.732,37.241,34.08,4.988,5.811,5.728
465,0.82,36.418,27.752,37.251,34.087,4.988,5.972,5.809
466,0.839,36.017,27.643,37.28,34.087,5.07,5.852,5.769
467,0.82,36.07,27.645,37.27,34.087,5.07,5.973,5.768
468,0.833,36.195,27.677,37.28,34.091,5.152,5.852,5.768
469,0.833,36.273,27.693,37.232,34.077,4.868,5.769,5.647
470,0.839,36.015,27.65,37.26,34.091,5.028,5.85,5.727
471,0.852,36.128,27.548,37.261,34.084,4.948,5.851,5.727
472,0.849,36.282,27.656,37.27,34.091,5.11,5.891,5.931
473,0.856,36.351,27.708,37.241,34.094,5.03,5.933,5.77
474,0.846,35.939,27.681,37.251,34.084,5.03,5.852,5.809
475,0.84,36.069,27.724,37.251,34.091,5.07,5.891,5.769
476,0.82,36.166,27.705,37.213,34.08,4.908,5.851,5.647
477,0.817,36.235,27.631,37.241,34.084,4.987,5.851,5.686
478,0.8,35.861,27.649,37.241,34.08,5.029,5.81,5.687
479,0.777,35.982,27.665,37.26,34.097,5.111,5.972,5.931
480,0.806,36.118,27.72,37.261,34.084,4.908,5.893,5.811
481,0.813,36.167,27.705,37.241,34.087,5.028,5.892,5.891
482,0.82,35.957,27.658,37.27,34.087,5.07,5.892,5.811
483,0.83,36.06,27.634,37.203,34.077,4.948,5.77,5.728
484,0.833,36.214,27.626,37.25,34.084,4.988,5.891,5.768
485,0.836,36.293,27.653,37.232,34.08,4.988,5.811,5.728
486,0.843,35.852,27.708,37.241,34.097,5.151,5.972,5.972
487,0.836,35.972,27.728,37.241,34.084,5.031,5.852,5.811
488,0.836,36.098,27.627,37.27,34.091,5.03,5.851,5.891
489,0.839,35.706,27.669,37.27,34.091,5.03,5.891,5.811
490,0.826,35.655,27.65,37.213,34.08,5.03,5.811,5.81
491,0.82,35.788,27.728,37.231,34.087,4.989,5.81,5.728
492,0.813,35.905,27.709,37.212,34.084,4.948,5.85,5.768
493,0.79,35.829,27.74,37.26,34.098,5.272,5.891,5.972
494,0.79,35.943,27.728,37.232,34.087,5.032,5.811,5.852
495,0.78,36.069,27.681,37.241,34.091,5.151,5.891,5.973
496,0.774,36.166,27.701,37.222,34.084,5.071,5.811,5.771
497,0.751,35.554,27.697,37.231,34.091,4.948,5.85,5.809
498,0.741,35.701,27.748,37.203,34.087,5.029,5.851,5.81
499,0.754,35.808,27.674,37.212,34.084,4.989,5.851,5.85
500,0.754,35.934,27.716,37.27,34.098,5.11,5.932,5.932
501,0.731,35.619,27.705,37.232,34.084,5.03,5.892,5.892
502,0.731,35.759,27.673,37.241,34.091,5.03,5.892,5.892
503,0.728,35.876,27.7,37.203,34.08,4.948,5.77,5.729
504,0.725,35.915,27.732,37.222,34.084,5.029,5.891,5.809
505,0.708,35.494,27.732,37.193,34.077,4.989,5.811,5.769
506,0.702,35.633,27.685,37.231,34.087,5.07,6.013,5.972
507,0.705,35.798,27.673,37.231,34.087,5.07,5.934,5.811
508,0.698,35.799,27.736,37.231,34.091,5.111,5.892,5.891
509,0.708,35.56,27.752,37.231,34.087,5.112,5.933,5.851
510,0.682,35.663,27.717,37.193,34.077,4.908,5.852,5.81
511,0.679,35.798,27.646,37.222,34.084,4.987,5.851,5.85
512,0.659,35.579,27.692,37.212,34.077,4.948,5.769,5.729
513,0.649,35.509,27.654,37.25,34.101,5.191,6.013,6.012
514,0.652,35.624,27.681,37.222,34.091,5.072,5.852,5.812
515,0.655,35.759,27.665,37.222,34.087,5.07,5.891,5.85
516,0.652,35.367,27.751,37.231,34.091,5.111,5.851,5.851
517,0.636,35.45,27.666,37.193,34.077,4.989,5.851,5.769
518,0.646,35.594,27.708,37.222,34.084,5.029,5.729,5.728
519,0.646,35.701,27.72,37.183,34.084,4.907,5.809,5.809
520,0.649,35.396,27.767,37.231,34.101,5.191,6.013,5.972
521,0.652,35.517,27.783,37.231,34.087,4.99,5.893,5.933
522,0.649,35.643,27.733,37.212,34.094,5.07,5.892,5.852
523,0.659,35.721,27.689,37.222,34.084,5.07,5.811,5.729
524,0.643,35.281,27.638,37.203,34.087,5.07,5.85,5.85
525,0.646,35.439,27.63,37.193,34.087,4.989,5.769,5.81
526,0.649,35.566,27.688,37.193,34.08,4.948,5.768,5.81
527,0.662,35.653,27.759,37.241,34.097,5.191,5.972,5.932
528,0.656,35.338,27.721,37.203,34.084,5.072,5.73,5.892
529,0.649,35.507,27.705,37.222,34.084,5.111,5.85,5.892
530,0.662,35.614,27.709,37.203,34.087,4.989,5.729,5.811
531,0.656,35.625,27.759,37.193,34.091,4.988,5.809,5.932
532,0.662,35.309,27.764,37.183,34.077,4.948,5.728,5.73
533,0.643,35.43,27.807,37.173,34.077,4.988,5.768,5.809
534,0.652,35.575,27.768,37.24,34.101,5.07,5.891,5.85
535,0.649,35.586,27.737,37.193,34.094,5.03,5.851,5.891
536,0.636,35.279,27.748,37.202,34.087,5.111,5.851,5.892
537,0.636,35.401,27.721,37.193,34.084,4.908,5.688,5.729
538,0.633,35.517,27.799,37.193,34.084,5.028,5.768,5.809
539,0.619,35.212,27.749,37.202,34.08,4.907,5.809,5.769
540,0.626,35.314,27.678,37.193,34.084,4.987,5.81,5.931
541,0.645,35.469,27.712,37.202,34.08,5.029,5.85,5.892
542,0.633,35.547,27.716,37.212,34.091,5.03,5.81,5.892
543,0.645,35.126,27.732,37.203,34.091,5.03,5.85,5.892
544,0.639,35.227,27.767,37.164,34.084,4.867,5.729,5.729
545,0.642,35.381,27.764,37.192,34.087,4.946,5.768,5.85
546,0.652,35.469,27.76,37.193,34.084,4.866,5.687,5.769
547,0.639,35.125,27.756,37.174,34.087,5.068,5.849,5.931
548,0.662,35.294,27.721,37.193,34.077,4.948,5.851,5.892
549,0.665,35.411,27.779,37.193,34.091,5.069,5.81,5.851
550,0.665,35.479,27.772,37.202,34.087,5.03,5.81,5.891
551,0.656,35.135,27.713,37.135,34.077,4.867,5.647,5.77
552,0.655,35.284,27.713,37.192,34.091,4.987,5.808,5.85
553,0.642,35.43,27.728,37.193,34.084,4.988,5.728,5.81
554,0.646,35.47,27.744,37.202,34.087,5.151,5.89,6.013
555,0.649,35.086,27.775,37.183,34.091,5.031,5.811,5.893
556,0.636,35.188,27.842,37.183,34.094,4.989,5.85,5.892
557,0.636,35.343,27.769,37.173,34.091,4.948,5.81,5.851
558,0.626,35.335,27.729,37.154,34.08,4.907,5.85,5.81
559,0.623,35.162,27.713,37.173,34.084,4.987,5.769,5.891
560,0.619,35.275,27.763,37.164,34.077,4.948,5.768,5.811
561,0.629,35.401,27.772,37.202,34.097,5.069,5.85,5.972
562,0.629,35.028,27.783,37.183,34.087,4.989,5.81,5.893
563,0.636,35.024,27.791,37.183,34.084,5.029,5.891,5.892
564,0.633,35.159,27.776,37.173,34.091,4.989,5.77,5.851
565,0.619,35.256,27.717,37.154,34.091,4.948,5.809,5.851
566,0.623,34.969,27.74,37.154,34.084,4.907,5.728,5.729
567,0.61,35.072,27.783,37.154,34.08,4.906,5.768,5.768
568,0.619,35.246,27.772,37.202,34.097,5.109,5.809,5.891
569,0.623,35.314,27.74,37.183,34.087,4.989,5.81,5.892
570,0.629,34.884,27.717,37.173,34.091,5.07,5.85,5.851
571,0.632,35.033,27.744,37.164,34.084,4.908,5.688,5.648
572,0.623,35.14,27.771,37.145,34.087,4.906,5.809,5.808
573,0.616,35.208,27.807,37.144,34.087,4.987,5.728,5.688
574,0.623,34.988,27.874,37.135,34.084,4.988,5.809,5.89
575,0.639,35.187,27.878,37.183,34.091,4.988,5.81,5.851
576,0.633,35.275,27.765,37.173,34.087,4.988,5.85,5.851
577,0.655,35.334,27.752,37.173,34.091,4.948,5.891,5.891
578,0.668,34.913,27.779,37.145,34.07,4.866,5.648,5.689
579,0.672,35.033,27.819,37.154,34.087,4.987,5.808,5.809
580,0.714,35.149,27.757,37.154,34.08,4.866,5.81,5.81
581,0.754,35.189,27.729,37.173,34.091,4.906,5.85,5.891
582,0.809,35.055,27.752,37.164,34.087,4.987,5.851,5.811
583,0.816,35.178,27.791,37.154,34.091,4.988,5.891,5.85
584,0.849,35.266,27.776,37.173,34.087,4.948,5.851,5.851
585,0.905,35.084,27.803,37.125,34.077,4.866,5.769,5.729
586,0.983,34.968,27.823,37.154,34.087,4.906,5.85,5.809
587,1.036,35.091,27.796,37.154,34.084,4.987,5.729,5.769
588,1.121,35.227,27.795,37.164,34.084,5.029,5.972,5.891
589,1.213,34.873,27.811,37.135,34.087,4.948,5.852,5.811
590,1.279,34.975,27.854,37.163,34.094,4.988,5.851,5.81
591,1.329,35.129,27.812,37.164,34.091,5.029,5.932,5.891
592,1.362,35.16,27.753,37.116,34.08,4.907,5.852,5.77
593,1.391,34.844,27.732,37.154,34.08,4.906,5.851,5.85
594,1.437,34.984,27.787,37.202,34.073,4.906,5.729,5.769
595,1.47,35.12,27.787,37.174,34.094,5.069,5.972,5.972
596,1.522,35.198,27.791,37.145,34.087,4.908,5.852,5.933
597,1.585,34.882,27.846,37.154,34.091,4.947,5.81,5.852
598,1.631,35.033,27.831,37.173,34.084,4.988,5.81,5.81
599,1.661,35.159,27.796,37.125,34.077,4.948,5.85,5.85
600,1.716,35.218,27.834,37.135,34.08,4.866,5.81,5.81
601,1.72,34.854,27.854,37.135,34.08,4.906,5.769,5.81
602,1.73,35.042,27.886,37.173,34.097,5.15,6.013,6.013
603,1.71,35.14,27.827,37.154,34.084,4.949,5.893,5.934
604,1.697,35.16,27.807,37.144,34.087,4.988,5.892,6.014
605,1.739,34.987,27.733,37.144,34.08,4.948,5.77,5.893
606,1.762,35.13,27.806,37.135,34.084,4.947,5.891,6.014
607,1.727,35.198,27.827,37.135,34.08,4.907,5.77,6.096
608,1.642,35.247,27.854,37.106,34.08,4.906,5.768,6.219
609,1.56,34.902,27.753,37.154,34.091,4.987,5.85,6.261
610,1.452,34.994,27.807,37.135,34.091,4.907,5.891,6.343
611,1.291,35.111,27.823,37.135,34.091,4.947,5.892,6.425
612,1.182,34.814,27.854,37.106,34.077,4.785,5.729,6.426
613,1.123,34.888,27.886,37.134,34.084,4.946,5.809,6.629
614,1.073,35.033,27.878,37.125,34.08,4.907,5.769,6.631
615,1.027,35.13,27.874,37.135,34.094,4.906,5.931,6.794
616,0.988,34.863,27.788,37.125,34.094,4.906,5.892,6.877
617,0.89,34.994,27.834,37.135,34.091,4.947,5.892,7.0
618,0.791,35.13,27.862,37.144,34.087,4.947,5.933,7.041
619,0.712,35.179,27.878,37.106,34.073,4.825,5.852,7.082
620,0.663,34.834,27.839,37.115,34.073,4.946,5.891,7.164
621,0.643,34.946,27.796,37.115,34.084,4.866,5.892,7.206
622,0.607,35.12,27.827,37.144,34.091,4.987,6.014,7.369
623,0.613,35.169,27.823,37.125,34.084,4.866,5.974,7.37
624,0.583,34.853,27.854,37.115,34.087,4.906,5.974,7.411
625,0.544,34.984,27.847,37.125,34.098,5.028,5.974,7.452
626,0.518,35.082,27.905,37.087,34.084,4.826,5.933,7.534
627,0.511,35.14,27.789,37.134,34.084,4.905,5.933,7.575
628,0.543,34.824,27.85,37.087,34.077,4.906,5.974,7.738
629,0.599,34.984,27.897,37.125,34.094,5.069,6.137,7.943
630,0.645,35.11,27.894,37.106,34.091,4.908,5.976,7.945
631,0.688,35.121,27.863,37.115,34.087,4.906,6.015,8.108
632,0.727,34.882,27.808,37.125,34.091,4.987,6.056,8.313
633,0.731,34.975,27.768,37.087,34.084,4.988,6.015,8.477
634,0.757,35.12,27.819,37.163,34.087,4.948,5.974,8.601
635,0.787,34.872,27.835,37.106,34.08,4.866,5.974,8.806
636,0.793,34.889,27.897,37.134,34.097,5.068,6.177,9.133
637,0.816,35.014,27.906,37.096,34.087,4.989,6.017,9.258
638,0.816,35.12,27.855,37.134,34.087,4.988,6.015,9.422
639,0.842,34.843,27.843,37.125,34.091,4.988,6.056,9.546
640,0.833,34.936,27.87,37.096,34.077,4.866,6.015,9.669
641,0.865,35.091,27.898,37.125,34.084,4.906,6.015,9.629
642,0.859,35.169,27.906,37.096,34.08,4.947,5.893,9.67
643,0.866,34.853,27.929,37.134,34.097,5.029,6.136,10.036
644,0.862,34.975,27.89,37.096,34.084,4.989,6.057,9.877
645,0.866,35.12,27.851,37.115,34.091,4.948,6.015,9.957
646,0.872,35.198,27.87,37.115,34.087,5.029,6.096,9.957
647,0.856,34.739,27.901,37.087,34.077,4.907,5.975,9.957
648,0.866,34.897,27.925,37.086,34.084,4.865,5.974,9.876
649,0.856,35.014,27.84,37.067,34.077,4.865,5.933,9.835
650,0.872,35.111,27.874,37.124,34.104,5.068,6.096,9.997
651,0.863,34.795,27.855,37.096,34.084,4.989,6.016,9.958
652,0.859,34.945,27.925,37.096,34.087,5.029,6.015,9.998
653,0.846,35.052,27.91,37.115,34.087,4.948,6.015,9.836
654,0.846,35.063,28.011,37.087,34.091,4.988,5.974,9.997
655,0.843,34.881,27.95,37.086,34.08,4.907,5.893,9.917
656,0.833,34.994,27.918,37.086,34.084,4.906,5.933,9.998
657,0.846,35.168,27.929,37.115,34.098,4.947,6.014,9.958
658,0.82,35.026,27.933,37.096,34.087,5.029,5.934,9.957
659,0.817,34.938,27.945,37.096,34.091,5.03,6.014,9.957
660,0.816,35.052,27.844,37.096,34.084,4.867,5.852,9.876
661,0.816,35.149,27.886,37.125,34.084,4.946,5.973,9.876
662,0.816,34.796,27.859,37.077,34.084,4.825,5.974,9.835
663,0.826,34.888,27.882,37.086,34.087,4.905,6.015,9.794
664,0.849,35.071,27.909,37.105,34.091,4.947,5.974,9.753
665,0.84,35.14,27.925,37.096,34.091,4.947,5.974,9.712
666,0.843,34.824,28.035,37.106,34.087,4.907,6.055,9.752
667,0.836,34.955,27.903,37.077,34.073,4.825,5.934,9.549
668,0.83,35.101,27.91,37.086,34.084,4.946,5.974,9.547
669,0.846,35.16,27.921,37.077,34.084,4.907,5.974,9.344
670,0.853,34.719,27.949,37.067,34.084,4.947,6.055,9.423
671,0.853,34.897,27.937,37.077,34.084,4.988,6.097,9.383
672,0.836,35.004,27.887,37.096,34.094,4.988,6.056,9.261
673,0.836,35.072,27.824,37.106,34.098,4.948,6.056,9.259
674,0.826,34.804,27.901,37.058,34.073,4.825,5.893,9.056
675,0.836,34.965,27.937,37.086,34.084,4.905,6.054,9.095
676,0.82,35.081,27.914,37.077,34.08,4.906,5.975,8.932
677,0.83,35.121,27.988,37.086,34.091,4.947,6.137,9.053
678,0.836,34.738,27.864,37.096,34.087,4.947,6.057,8.932
679,0.823,34.878,27.917,37.096,34.087,4.947,6.097,8.89
680,0.823,34.994,27.921,37.106,34.091,4.866,6.056,8.768
681,0.817,35.149,27.972,37.077,34.08,4.865,5.975,8.726
682,0.829,34.863,27.996,37.077,34.087,4.906,6.015,8.685
683,0.839,34.984,27.989,37.057,34.084,4.825,5.974,8.603
684,0.843,35.12,27.977,37.096,34.101,5.068,6.299,8.684
685,0.849,34.776,27.879,37.086,34.087,4.908,6.058,8.562
686,0.853,34.859,27.917,37.096,34.091,4.947,6.015,8.521
687,0.856,35.004,27.914,37.096,34.094,4.907,6.015,8.439
688,0.846,35.072,28.007,37.058,34.087,4.865,6.096,8.316
689,0.866,34.641,27.907,37.057,34.08,4.865,5.935,8.274
690,0.859,34.791,27.941,37.048,34.084,4.946,6.014,8.152
691,0.856,34.945,27.965,37.095,34.098,4.988,6.137,8.273
692,0.856,35.005,28.004,37.077,34.087,4.907,6.057,8.193
693,0.853,34.842,27.997,37.086,34.091,4.947,5.975,8.151
694,0.846,35.013,28.0,37.077,34.077,4.866,6.015,8.028
695,0.843,35.12,27.993,37.077,34.08,4.906,6.015,8.027
696,0.843,35.198,27.922,37.057,34.091,4.865,6.015,7.905
697,0.83,34.662,27.964,37.048,34.08,4.824,5.974,7.863
698,0.862,34.867,27.981,37.105,34.097,4.987,6.015,7.863
699,0.836,34.946,28.031,37.058,34.091,4.907,6.015,7.904
700,0.846,35.014,27.993,37.076,34.094,4.947,6.096,7.945
701,0.853,34.775,27.938,37.048,34.077,4.825,5.935,7.661
702,0.859,34.936,27.961,37.076,34.084,4.905,5.974,7.698
703,0.862,35.043,27.961,37.048,34.077,4.906,5.933,7.618
704,0.859,35.053,27.988,37.076,34.091,4.947,6.136,7.779
705,0.869,34.747,27.926,37.067,34.08,4.947,6.016,7.618
706,0.866,34.887,28.039,37.067,34.084,4.907,6.056,7.657
707,0.869,35.014,27.946,37.067,34.084,4.987,6.015,7.536
708,0.879,34.727,27.949,37.038,34.08,4.907,6.015,7.453
709,0.876,34.753,27.98,37.038,34.084,4.906,5.974,7.371
710,0.879,34.878,28.027,37.028,34.077,4.825,5.974,7.289
711,0.892,35.004,28.067,37.086,34.101,4.987,6.137,7.532
712,0.889,34.708,28.005,37.058,34.08,4.907,6.016,7.372
713,0.872,34.83,27.985,37.057,34.091,4.947,6.056,7.37
714,0.879,34.975,27.914,37.057,34.08,4.866,5.934,7.208
715,0.869,35.034,27.96,37.057,34.084,4.906,6.014,7.206
716,0.872,34.593,27.957,37.038,34.084,4.865,5.934,7.165
717,0.872,34.742,28.027,37.028,34.077,4.865,5.974,7.124
718,0.882,34.926,28.005,37.076,34.091,4.906,5.974,7.205
719,0.876,34.956,27.997,37.048,34.087,4.906,5.974,7.165
720,0.882,34.736,28.008,37.067,34.091,4.865,6.015,7.165
721,0.882,34.887,27.985,37.029,34.08,4.784,5.852,6.962
722,0.879,35.004,28.067,37.038,34.091,4.905,5.973,7.082
723,0.892,35.034,28.044,37.019,34.077,4.906,5.933,7.002
724,0.892,34.699,28.04,37.028,34.084,4.906,6.014,7.123
725,0.902,34.877,28.001,37.038,34.084,4.947,5.974,7.002
726,0.905,34.966,27.993,37.038,34.087,5.029,6.015,6.96
727,0.908,35.024,28.012,37.038,34.087,4.989,6.056,7.041
728,0.918,34.583,28.047,36.99,34.08,4.907,5.853,6.798
729,0.922,34.723,28.048,37.018,34.091,4.947,6.013,6.917
730,0.925,34.859,28.013,37.038,34.084,4.866,5.852,6.837
731,0.925,34.764,28.012,37.038,34.091,4.987,6.095,6.999
732,0.931,34.648,28.0,37.019,34.08,4.948,6.097,6.879
733,0.922,34.771,28.028,37.019,34.091,4.988,6.097,6.918
734,0.925,34.916,28.087,37.028,34.091,4.948,6.097,6.919
735,0.912,34.554,28.083,36.999,34.077,4.866,5.975,6.837
736,0.912,34.684,28.06,36.999,34.084,4.946,5.974,6.796
737,0.905,34.829,28.083,36.999,34.084,4.907,5.974,6.714
738,0.912,34.917,28.029,37.018,34.094,5.028,6.096,6.916
739,0.922,34.621,28.102,37.009,34.091,4.989,6.056,6.796
740,0.912,34.752,28.06,37.018,34.087,4.948,6.056,6.795
741,0.922,34.888,27.997,37.028,34.084,4.907,5.975,6.755
742,0.925,34.927,28.02,37.047,34.077,4.906,5.974,6.714
743,0.938,34.64,27.985,36.98,34.084,4.906,5.974,6.713
744,0.941,34.771,28.008,36.989,34.073,4.865,6.015,6.672
745,0.951,34.897,27.993,36.999,34.104,5.15,6.096,6.794
746,0.954,34.956,28.117,36.98,34.087,4.949,6.056,6.714
747,0.958,34.496,28.072,36.999,34.087,5.029,6.056,6.713
748,0.964,34.645,28.036,36.999,34.084,4.989,5.975,6.551
749,0.968,34.752,28.063,36.97,34.084,4.948,5.974,6.671
750,0.971,34.801,28.067,36.98,34.084,4.866,5.933,6.591
751,0.971,34.466,28.099,36.97,34.077,4.865,5.933,6.631
752,0.987,34.664,28.111,37.018,34.097,5.068,6.096,6.712
753,0.965,34.752,28.009,36.99,34.091,4.948,5.975,6.632
754,0.971,35.012,28.043,36.999,34.084,4.947,6.015,6.631
755,0.981,34.641,28.032,36.99,34.087,4.866,5.893,6.468
756,0.958,34.762,28.11,36.961,34.084,4.946,5.973,6.548
757,0.958,34.849,28.169,36.96,34.08,4.866,5.933,6.508
758,0.971,34.419,28.076,36.96,34.084,4.946,5.974,6.589
759,0.987,34.51,28.099,36.989,34.094,4.866,6.015,6.549
760,0.968,34.645,28.052,36.989,34.087,4.987,6.015,6.549
761,0.981,34.743,28.122,36.989,34.091,5.029,6.056,6.549
762,0.987,34.446,28.111,36.97,34.077,4.826,5.853,6.468
763,1.0,34.606,28.111,36.989,34.077,4.987,5.973,6.467
764,1.004,34.723,28.115,36.961,34.08,4.826,5.893,6.426
765,1.007,34.82,28.072,36.989,34.091,4.987,6.014,6.507
766,1.023,34.38,28.106,36.97,34.091,4.988,5.974,6.467
767,1.036,34.519,28.064,36.97,34.087,4.907,5.974,6.426
768,1.046,34.665,28.149,36.999,34.091,4.987,5.893,6.466
769,1.03,34.695,28.049,36.942,34.077,4.866,5.892,6.386
770,1.043,34.417,28.091,36.951,34.077,4.906,5.892,6.344
771,1.05,34.558,28.091,36.951,34.08,4.906,5.851,6.262
772,1.05,34.694,28.111,36.999,34.097,5.069,6.095,6.505
773,1.05,34.734,28.165,36.99,34.087,5.03,5.975,6.305
774,1.046,34.36,28.158,36.989,34.091,4.907,5.893,6.425
775,1.056,34.5,28.17,36.98,34.091,4.947,5.892,6.344
776,1.034,34.569,28.123,36.961,34.084,4.907,5.892,6.343
777,1.056,34.627,28.13,36.951,34.08,4.906,5.851,6.303
778,1.053,34.464,28.115,36.96,34.077,4.825,5.81,6.221
779,1.066,34.635,28.169,36.999,34.101,5.068,6.013,6.464
780,1.066,34.723,28.162,36.98,34.087,4.989,5.893,6.304
781,1.076,34.398,28.088,36.989,34.091,5.029,5.851,6.262
782,1.086,34.376,28.134,37.047,34.084,4.948,5.851,6.221
783,1.096,34.462,28.099,36.961,34.094,4.907,5.932,6.139
784,1.109,34.578,28.13,36.951,34.084,4.947,5.933,6.179
785,1.109,34.263,28.08,36.941,34.077,4.866,5.892,6.261
786,1.138,34.422,28.189,36.999,34.097,5.028,5.973,6.221
787,1.129,34.52,28.076,36.98,34.091,4.867,5.893,6.22
788,1.142,34.636,28.114,36.989,34.094,4.946,5.933,6.261
789,1.165,34.158,28.126,36.942,34.091,4.907,5.77,6.139
790,1.158,34.306,28.193,36.951,34.094,4.987,5.891,6.219
791,1.158,34.423,28.213,36.932,34.087,4.907,5.851,6.098
792,1.155,34.501,28.166,36.941,34.087,4.906,5.851,6.219
793,1.168,34.233,28.143,36.979,34.094,4.987,5.891,6.18
794,1.162,34.374,28.084,36.961,34.084,4.988,5.933,6.139
795,1.171,34.51,28.142,36.97,34.091,4.988,5.974,6.26
796,1.181,34.54,28.107,36.951,34.077,4.826,5.771,6.099
797,1.181,34.396,28.185,36.951,34.084,4.946,5.809,6.138
798,1.181,34.51,28.131,36.951,34.08,4.907,5.81,6.098
799,1.201,34.655,28.166,36.98,34.091,5.028,6.013,6.3
800,1.207,34.704,28.143,36.961,34.084,5.03,5.934,6.14
801,1.214,34.283,28.17,36.97,34.094,5.03,5.933,6.179
802,1.221,34.413,28.236,36.97,34.087,5.07,5.974,6.179
803,1.224,34.501,28.241,36.932,34.08,4.908,5.811,6.098
804,1.24,34.492,28.241,36.941,34.087,4.947,5.891,6.138
805,1.257,34.367,28.159,36.941,34.077,4.825,5.811,6.138
806,1.263,34.529,28.17,36.979,34.104,5.149,6.013,6.26
807,1.267,34.636,28.127,36.97,34.091,4.949,5.974,6.139
808,1.289,34.177,28.201,36.961,34.091,5.029,5.974,6.138
809,1.312,34.278,28.186,36.951,34.084,4.989,5.852,6.057
810,1.293,34.394,28.178,36.96,34.084,5.029,5.891,6.056
811,1.309,34.51,28.131,36.941,34.087,4.948,5.851,6.056
812,1.306,34.233,28.177,36.932,34.087,4.947,5.932,6.137
813,1.332,34.422,28.248,36.989,34.094,5.029,5.892,6.138
814,1.316,34.52,28.214,36.951,34.084,5.03,5.973,6.179
815,1.329,34.617,28.299,36.96,34.091,5.03,6.015,6.261
816,1.313,34.34,28.238,36.922,34.073,4.907,5.812,6.017
817,1.326,34.5,28.221,36.941,34.08,4.947,5.891,6.137
818,1.332,34.636,28.174,36.941,34.077,4.907,5.811,6.098
819,1.336,34.685,28.24,36.941,34.094,5.069,5.972,6.219
820,1.342,34.407,28.264,36.941,34.091,5.07,5.893,6.139
821,1.345,34.568,28.163,36.932,34.084,5.03,5.892,6.219
822,1.355,34.713,28.174,36.96,34.094,5.07,5.892,6.261
823,1.362,34.715,28.178,36.913,34.073,4.989,5.892,6.099
824,1.375,34.647,28.178,36.941,34.084,4.988,5.851,6.138
825,1.382,34.781,28.147,36.932,34.077,4.866,5.81,6.057
826,1.388,34.888,28.263,36.951,34.097,5.15,5.972,6.341
827,1.401,35.157,28.214,36.96,34.091,4.99,5.852,6.221
828,1.405,34.575,28.217,36.932,34.091,4.988,5.932,6.22
829,1.414,34.694,28.233,36.941,34.091,4.988,5.933,6.139
830,1.398,34.762,28.253,36.884,34.084,4.948,5.892,6.138
831,1.431,34.821,28.311,36.921,34.08,4.988,5.811,6.098
832,1.431,34.936,28.218,36.922,34.077,4.907,5.81,6.138
833,1.415,35.1,28.264,36.97,34.104,5.15,6.054,6.301
834,1.414,35.188,28.194,36.941,34.087,4.99,5.893,6.221
835,1.408,34.94,28.264,36.951,34.08,5.029,5.851,6.261
836,1.411,35.091,28.222,36.922,34.091,5.03,5.891,6.139
837,1.408,35.188,28.26,36.912,34.084,4.989,5.811,6.098
838,1.411,35.256,28.272,36.922,34.08,4.948,5.85,6.178
839,1.408,35.257,28.237,36.912,34.077,4.988,5.851,6.139
840,1.421,35.468,28.249,36.97,34.097,5.11,5.932,6.301
841,1.408,35.556,28.229,36.922,34.087,4.908,5.852,6.221
842,1.405,35.605,28.311,36.941,34.084,5.069,5.891,6.261
843,1.418,35.586,28.273,36.922,34.084,4.948,5.77,6.099
844,1.411,35.701,28.288,36.922,34.091,4.988,5.85,6.178
845,1.418,35.818,28.257,36.922,34.08,4.907,5.81,6.179
846,1.411,35.857,28.264,36.922,34.087,4.987,5.81,6.179
847,1.418,35.944,28.257,36.96,34.104,5.151,5.972,6.22
848,1.405,36.05,28.311,36.922,34.091,4.99,5.852,6.22
849,1.421,36.157,28.3,36.922,34.094,5.029,5.891,6.139
850,1.408,36.187,28.257,36.922,34.08,4.907,5.77,6.098
851,1.388,36.187,28.272,36.912,34.087,4.987,5.809,6.138
852,1.369,36.321,28.226,36.922,34.08,4.907,5.769,6.138
853,1.355,36.409,28.288,36.893,34.08,4.987,5.891,6.179
854,1.359,36.496,28.296,36.931,34.091,5.029,5.811,6.139
855,1.339,36.516,28.351,36.922,34.08,4.989,5.81,6.138
856,1.313,36.65,28.359,36.912,34.091,5.11,5.85,6.138
857,1.293,36.748,28.285,36.893,34.077,4.827,5.688,6.016
858,1.283,36.672,28.269,36.912,34.087,5.027,5.727,6.056
859,1.273,36.786,28.315,36.893,34.084,4.989,5.727,6.015
860,1.254,36.902,28.355,36.921,34.087,5.029,5.89,6.259
861,1.257,36.999,28.273,36.922,34.08,5.03,5.811,6.139
862,1.231,37.01,28.226,36.922,34.087,4.989,5.81,6.179
863,1.227,37.144,28.256,36.931,34.091,5.11,5.81,6.179
864,1.208,37.222,28.245,36.883,34.07,4.908,5.769,6.057
865,1.194,37.338,28.245,36.902,34.09,4.987,5.768,6.056
866,1.168,37.464,28.311,36.893,34.084,4.907,5.728,6.015
867,1.152,37.59,28.339,36.921,34.091,5.15,5.972,6.178
868,1.142,37.716,28.308,36.922,34.084,4.99,5.811,6.057
869,1.129,37.765,28.331,36.903,34.094,4.988,5.81,6.097
870,1.122,37.43,28.347,36.922,34.094,5.029,5.85,6.056
871,1.083,37.522,28.363,36.883,34.077,4.948,5.81,6.097
872,1.076,37.648,28.347,36.921,34.087,4.988,5.769,5.975
873,1.053,37.678,28.324,36.893,34.08,4.907,5.687,5.974
874,1.03,37.803,28.316,36.931,34.101,5.15,5.931,6.218
875,1.014,37.919,28.296,36.903,34.091,4.99,5.852,6.058
876,0.994,38.016,28.316,36.922,34.091,5.029,5.769,6.097
877,0.984,38.075,28.363,36.912,34.084,4.989,5.728,5.975
878,0.952,37.97,28.336,36.893,34.084,4.988,5.809,6.015
879,0.948,38.122,28.328,36.893,34.084,4.988,5.728,5.974
880,0.919,38.22,28.351,36.893,34.08,4.907,5.727,6.055
881,0.922,38.115,28.363,36.941,34.097,5.109,5.809,6.137
882,0.909,38.181,28.375,36.922,34.091,4.989,5.728,6.057
883,0.915,38.336,28.445,36.931,34.091,5.029,5.85,6.137
884,0.902,38.395,28.438,36.893,34.08,4.907,5.688,5.976
885,0.879,38.242,28.36,36.893,34.084,4.987,5.727,6.015
886,0.879,38.384,28.355,36.902,34.08,4.948,5.687,5.934
887,0.869,38.481,28.336,36.883,34.084,4.947,5.687,6.014
888,0.869,38.597,28.406,36.931,34.098,5.029,5.768,6.056
889,0.846,38.34,28.36,36.874,34.084,4.989,5.768,5.975
890,0.856,38.51,28.347,36.969,34.091,4.988,5.728,6.055
891,0.843,38.607,28.336,36.874,34.08,4.907,5.646,5.975
892,0.823,38.647,28.378,36.893,34.084,4.987,5.727,5.974
893,0.804,38.522,28.433,36.883,34.08,4.907,5.687,6.015
894,0.797,38.627,28.477,36.893,34.087,4.987,5.768,6.096
895,0.807,38.781,28.462,36.902,34.091,4.988,5.809,6.056
896,0.777,38.792,28.399,36.902,34.087,4.988,5.728,6.056
897,0.777,38.648,28.375,36.922,34.091,5.029,5.809,6.056
898,0.754,38.752,28.355,36.855,34.077,4.867,5.606,5.893
899,0.764,38.849,28.445,36.902,34.084,4.946,5.686,6.054
900,0.748,39.148,28.403,36.893,34.08,4.947,5.687,5.934
901,0.744,38.805,28.375,36.912,34.094,5.029,5.809,6.136
902,0.747,38.927,28.359,36.883,34.091,4.989,5.769,5.976
903,0.751,39.033,28.398,36.893,34.091,5.07,5.809,6.015
904,0.751,38.747,28.383,36.883,34.087,4.948,5.769,5.974
905,0.738,38.744,28.414,36.883,34.077,4.866,5.728,5.933
906,0.751,38.888,28.426,36.883,34.08,4.906,5.727,5.974
907,0.741,38.975,28.407,36.873,34.084,4.825,5.646,5.933
908,0.747,38.852,28.395,36.921,34.098,5.068,5.849,6.096
909,0.754,38.956,28.414,36.883,34.087,4.989,5.729,5.975
910,0.761,39.062,28.438,36.893,34.091,4.988,5.727,5.974
911,0.741,39.15,28.442,36.874,34.084,4.988,5.646,5.893
912,0.728,38.71,28.403,36.883,34.091,4.948,5.686,5.892
913,0.721,38.83,28.324,36.873,34.08,4.907,5.646,5.851
914,0.708,38.937,28.359,36.873,34.08,4.947,5.727,5.973
915,0.731,39.053,28.422,36.912,34.094,4.988,5.646,5.974
916,0.715,38.785,28.43,36.883,34.087,4.988,5.727,6.015
917,0.702,38.926,28.485,36.883,34.084,5.029,5.768,5.934
918,0.701,39.024,28.392,36.854,34.077,4.867,5.565,5.811
919,0.698,39.063,28.445,36.883,34.084,4.906,5.726,5.932
920,0.695,38.622,28.43,36.873,34.08,4.865,5.646,5.892
921,0.688,38.743,28.481,36.873,34.084,5.028,5.727,6.014
922,0.708,38.888,28.501,36.883,34.084,4.948,5.768,5.974
923,0.708,38.88,28.509,36.902,34.08,4.947,5.768,5.974
924,0.708,38.86,28.415,36.874,34.094,4.947,5.768,5.933
925,0.705,38.946,28.387,36.845,34.07,4.825,5.606,5.852
926,0.711,39.072,28.406,36.873,34.087,4.905,5.686,5.932
927,0.708,38.833,28.445,36.864,34.08,4.825,5.646,5.811
928,0.711,38.774,28.524,36.873,34.091,4.987,5.808,6.094
929,0.721,38.898,28.427,36.864,34.08,4.988,5.769,5.813
930,0.721,38.976,28.477,36.873,34.087,5.029,5.728,5.891
931,0.708,38.756,28.458,36.864,34.094,4.989,5.727,5.933
932,0.695,38.84,28.473,36.835,34.08,4.866,5.687,5.852
933,0.692,38.965,28.485,36.854,34.091,4.987,5.687,5.81
934,0.692,39.043,28.532,36.844,34.08,4.907,5.687,5.85
935,0.688,38.862,28.466,36.873,34.091,5.109,5.89,6.013
936,0.675,38.994,28.458,36.873,34.084,4.989,5.729,5.893
937,0.685,39.12,28.462,36.873,34.084,4.988,5.768,5.973
938,0.692,39.179,28.489,36.883,34.087,4.948,5.687,5.852
939,0.675,38.508,28.54,36.845,34.08,4.947,5.727,5.932
940,0.669,38.674,28.49,36.873,34.084,4.866,5.646,5.852
941,0.682,38.791,28.47,36.845,34.084,4.906,5.645,5.891
942,0.692,38.84,28.481,36.892,34.098,5.109,5.767,6.014
943,0.692,38.591,28.497,36.864,34.084,4.949,5.728,5.893
944,0.695,38.742,28.478,36.883,34.087,4.988,5.727,5.933
945,0.705,38.83,28.493,36.854,34.084,4.988,5.646,5.892
946,0.702,38.85,28.54,36.864,34.087,4.907,5.727,5.973
947,0.708,38.572,28.478,36.854,34.087,4.906,5.646,5.852
948,0.695,38.685,28.497,36.854,34.08,4.906,5.727,5.932
949,0.705,38.82,28.509,36.892,34.094,4.947,5.727,5.892
950,0.715,38.706,28.579,36.854,34.087,4.947,5.646,5.973
951,0.711,38.494,28.545,36.864,34.091,4.988,5.767,5.933
952,0.705,38.607,28.533,36.864,34.08,4.866,5.606,5.811
953,0.698,38.704,28.497,36.854,34.084,4.946,5.726,5.85
954,0.692,38.379,28.462,36.835,34.087,4.866,5.646,5.851
955,0.688,38.462,28.493,36.854,34.087,4.946,5.686,5.973
956,0.701,38.636,28.528,36.873,34.094,4.947,5.727,5.974
957,0.688,38.695,28.572,36.864,34.084,5.069,5.646,5.933
958,0.692,38.293,28.541,36.864,34.094,5.07,5.727,5.892
959,0.685,38.432,28.544,36.864,34.073,4.867,5.565,5.851
960,0.688,38.539,28.517,36.864,34.08,4.906,5.685,5.973
961,0.682,38.608,28.532,36.854,34.08,4.947,5.727,5.811
962,0.675,38.282,28.579,36.844,34.08,5.069,5.768,5.972
963,0.714,38.442,28.623,36.883,34.094,5.03,5.768,5.974
964,0.705,38.53,28.627,36.864,34.077,5.03,5.768,5.974
965,0.708,38.588,28.557,36.864,34.094,5.03,5.768,5.974
966,0.702,38.119,28.439,36.864,34.07,4.867,5.687,5.893
967,0.708,38.268,28.543,36.864,34.083,5.028,5.687,5.892
968,0.711,38.384,28.587,36.844,34.08,4.948,5.646,5.851
969,0.715,38.405,28.572,36.854,34.084,4.988,5.767,5.973
970,0.737,38.108,28.549,36.864,34.087,5.07,5.768,5.933
971,0.715,38.229,28.517,36.844,34.091,5.03,5.768,5.892
972,0.721,38.336,28.548,36.873,34.094,5.07,5.728,5.892
973,0.698,38.606,28.533,36.825,34.073,4.989,5.646,5.811
974,0.708,38.033,28.595,36.844,34.08,5.029,5.767,5.891
975,0.698,38.152,28.646,36.835,34.08,5.03,5.606,5.811
976,0.701,38.268,28.651,36.854,34.097,5.192,5.848,6.054
977,0.688,38.01,28.612,36.854,34.087,5.112,5.688,5.975
978,0.695,38.056,28.557,36.844,34.091,5.071,5.687,5.933
979,0.705,38.181,28.634,36.854,34.091,5.03,5.768,5.933
980,0.685,38.23,28.608,36.825,34.084,4.989,5.687,5.933
981,0.695,37.847,28.58,36.854,34.087,5.029,5.687,5.811
982,0.698,37.958,28.475,36.825,34.084,4.989,5.646,5.81
983,0.714,38.122,28.552,36.873,34.104,5.151,5.849,6.054
984,0.702,38.181,28.607,36.845,34.091,4.99,5.729,5.934
985,0.711,37.789,28.584,36.835,34.08,5.07,5.768,5.974
986,0.718,37.91,28.619,36.844,34.091,5.03,5.647,5.893
987,0.715,37.978,28.631,36.816,34.087,5.03,5.686,5.933
988,0.721,38.084,28.612,36.854,34.084,4.989,5.646,5.892
989,0.711,37.893,28.576,36.825,34.077,4.948,5.686,5.851
990,0.734,38.064,28.635,36.854,34.097,5.191,5.768,5.973
991,0.728,38.162,28.643,36.825,34.094,5.031,5.728,5.893
992,0.728,38.211,28.655,36.844,34.091,4.989,5.727,5.892
993,0.712,37.626,28.608,36.835,34.08,5.029,5.565,5.811
994,0.708,37.774,28.604,36.815,34.091,4.948,5.726,5.891
995,0.718,37.881,28.58,36.815,34.08,4.988,5.605,5.811
996,0.702,37.901,28.611,36.806,34.077,4.988,5.726,5.932
997,0.718,37.767,28.654,36.844,34.094,5.11,5.727,5.933
998,0.702,37.842,28.647,36.825,34.087,5.071,5.727,5.852
999,0.698,37.977,28.604,36.825,34.094,5.07,5.768,5.973
1000,0.685,37.729,28.607,36.825,34.08,4.989,5.565,5.811
1001,0.698,37.66,28.647,36.844,34.084,4.988,5.726,5.85
1002,0.698,37.765,28.643,36.825,34.077,5.029,5.687,5.851
1003,0.711,37.871,28.705,36.825,34.087,5.03,5.768,5.932
1004,0.721,37.642,28.722,36.815,34.087,5.03,5.687,5.974
1005,0.705,37.755,28.695,36.815,34.094,5.03,5.687,5.974
1006,0.721,37.871,28.64,36.844,34.094,5.07,5.687,5.893
1007,0.721,37.93,28.635,36.787,34.073,4.908,5.605,5.811
1008,0.731,37.441,28.69,36.815,34.087,4.987,5.645,5.891
1009,0.708,37.551,28.655,36.787,34.084,4.988,5.645,5.77
1010,0.731,37.706,28.655,36.844,34.098,5.151,5.808,5.972
1011,0.728,37.784,28.585,36.835,34.084,5.071,5.606,5.852
1012,0.728,37.43,28.646,36.815,34.087,5.03,5.686,5.932
1013,0.718,37.58,28.647,36.815,34.091,5.03,5.687,5.852
1014,0.698,37.649,28.631,36.777,34.084,4.989,5.646,5.891
1015,0.708,37.726,28.698,36.805,34.087,4.907,5.605,5.851
1016,0.705,37.43,28.733,36.777,34.08,4.987,5.686,5.81
1017,0.718,37.599,28.652,36.844,34.094,5.192,5.809,5.972
1018,0.698,37.706,28.667,36.816,34.087,5.031,5.81,5.852
1019,0.705,37.727,28.674,36.815,34.084,5.03,5.728,5.973
1020,0.705,37.497,28.729,36.806,34.087,4.989,5.605,5.852
1021,0.711,37.6,28.73,36.806,34.084,4.988,5.686,5.81
1022,0.718,37.706,28.659,36.806,34.084,4.948,5.646,5.769
1023,0.715,37.621,28.647,36.806,34.077,4.988,5.564,5.809
1024,0.724,37.409,28.612,36.844,34.094,5.07,5.685,5.81
1025,0.731,37.513,28.643,36.825,34.091,5.03,5.687,5.891
1026,0.734,37.6,28.659,36.815,34.084,5.07,5.687,5.933
1027,0.734,37.275,28.713,36.796,34.08,4.908,5.564,5.77
1028,0.731,37.358,28.659,36.805,34.091,4.947,5.645,5.809
1029,0.738,37.474,28.725,36.796,34.077,4.825,5.564,5.81
1030,0.731,37.552,28.73,36.786,34.08,4.905,5.604,5.891
1031,0.741,37.15,28.765,36.825,34.094,5.028,5.686,5.851
1032,0.731,37.232,28.808,36.806,34.087,4.989,5.687,5.851
1033,0.721,37.377,28.766,36.806,34.087,4.988,5.646,5.891
1034,0.715,37.445,28.754,36.796,34.084,4.907,5.483,5.729
1035,0.715,37.168,28.687,36.805,34.084,4.987,5.562,5.809
1036,0.708,37.318,28.733,36.786,34.084,4.988,5.563,5.81
1037,0.708,37.454,28.714,36.777,34.087,5.029,5.645,5.85
1038,0.718,37.542,28.761,36.796,34.084,4.948,5.645,5.81
1039,0.711,37.025,28.726,36.805,34.094,5.029,5.686,5.81
1040,0.708,37.192,28.738,36.806,34.087,5.111,5.646,5.972
1041,0.711,37.29,28.722,36.777,34.066,4.908,5.483,5.73
1042,0.711,37.32,28.722,36.805,34.087,4.987,5.603,5.768
1043,0.718,36.994,28.78,36.767,34.077,4.948,5.564,5.85
1044,0.715,37.125,28.828,36.796,34.091,5.069,5.685,5.891
1045,0.737,37.251,28.785,36.786,34.087,4.989,5.646,5.811
1046,0.728,37.53,28.734,36.786,34.091,4.988,5.645,5.85
1047,0.738,36.967,28.738,36.815,34.084,5.029,5.727,5.851
1048,0.731,37.048,28.753,36.767,34.073,4.948,5.484,5.729
1049,0.731,37.154,28.792,36.767,34.084,4.988,5.603,5.727
1050,0.731,36.877,28.758,36.767,34.077,4.948,5.523,5.727
1051,0.728,36.97,28.726,36.815,34.091,5.11,5.685,5.931
1052,0.734,37.086,28.745,36.767,34.08,4.989,5.605,5.77
1053,0.715,37.193,28.761,36.786,34.08,5.029,5.645,5.809
1054,0.718,36.715,28.73,36.805,34.091,5.111,5.645,5.81
1055,0.711,36.787,28.761,36.758,34.077,4.908,5.523,5.85
1056,0.702,36.941,28.804,36.776,34.08,4.947,5.563,5.81
1057,0.708,37.019,28.727,36.767,34.077,4.988,5.604,5.769
1058,0.708,36.713,28.769,36.805,34.091,5.151,5.767,5.891
1059,0.711,36.825,28.8,36.786,34.084,4.99,5.647,5.811
1060,0.689,36.951,28.824,36.805,34.091,5.029,5.686,5.85
1061,0.708,37.029,28.797,36.796,34.087,4.989,5.687,5.769
1062,0.692,36.608,28.758,36.767,34.08,4.948,5.605,5.809
1063,0.708,36.776,28.726,36.776,34.077,5.029,5.645,5.728
1064,0.705,36.864,28.702,36.777,34.073,4.907,5.645,5.687
1065,0.715,36.951,28.769,36.824,34.094,5.109,5.767,5.971
1066,0.724,36.597,28.824,36.777,34.084,5.03,5.687,5.852
1067,0.724,36.728,28.848,36.777,34.087,4.948,5.687,5.81
1068,0.731,36.863,28.789,36.805,34.084,4.947,5.687,5.769
1069,0.708,36.865,28.801,36.767,34.08,4.907,5.687,5.687
1070,0.728,36.615,28.801,36.767,34.08,4.987,5.605,5.687
1071,0.715,36.738,28.851,36.748,34.084,4.866,5.564,5.646
1072,0.728,36.873,28.871,36.795,34.094,5.15,5.807,5.849
1073,0.705,36.635,28.864,36.777,34.084,4.99,5.728,5.769
1074,0.711,36.575,28.84,36.786,34.084,5.029,5.687,5.809
1075,0.711,36.708,28.793,36.786,34.084,4.989,5.687,5.688
1076,0.695,36.787,28.816,36.767,34.087,5.029,5.687,5.687
1077,0.711,36.528,28.832,36.757,34.08,4.989,5.605,5.687
1078,0.685,36.631,28.852,36.757,34.077,4.948,5.645,5.687
1079,0.708,36.815,28.805,36.815,34.101,5.069,5.767,5.809
1080,0.698,36.874,28.82,36.787,34.084,5.07,5.647,5.769
1081,0.698,36.577,28.781,36.777,34.087,5.07,5.727,5.809
1082,0.695,36.747,28.797,36.786,34.087,5.03,5.565,5.688
1083,0.711,36.835,28.836,36.757,34.084,4.989,5.685,5.727
1084,0.711,36.903,28.879,36.767,34.091,4.988,5.646,5.687
1085,0.698,36.443,28.919,36.748,34.077,4.988,5.645,5.768
1086,0.727,36.64,28.849,36.805,34.091,5.07,5.686,5.728
1087,0.721,36.719,28.832,36.777,34.087,4.989,5.687,5.727
1088,0.715,36.787,28.867,36.777,34.091,5.11,5.727,5.809
1089,0.721,36.519,28.883,36.767,34.077,4.949,5.646,5.606
1090,0.728,36.66,28.813,36.767,34.087,5.029,5.686,5.686
1091,0.715,36.776,28.828,36.776,34.084,5.03,5.687,5.687
1092,0.715,36.806,28.805,36.757,34.091,5.07,5.727,5.809
1093,0.721,36.567,28.855,36.776,34.084,5.03,5.768,5.688
1094,0.708,36.68,28.872,36.767,34.084,4.989,5.687,5.687
1095,0.711,36.796,28.903,36.776,34.091,5.07,5.768,5.727
1096,0.689,36.807,28.884,36.729,34.077,4.908,5.565,5.646
1097,0.688,36.653,28.766,36.766,34.087,4.987,5.685,5.727
1098,0.692,36.796,28.867,36.757,34.08,4.948,5.646,5.687
1099,0.692,36.883,28.895,36.767,34.091,5.11,5.727,5.931
1100,0.695,36.558,28.958,36.767,34.084,5.03,5.727,5.77
1101,0.685,36.612,28.904,36.767,34.084,5.07,5.768,5.809
1102,0.698,36.776,28.86,36.767,34.087,5.07,5.728,5.81
1103,0.695,36.835,28.844,36.748,34.073,4.948,5.727,5.769
1104,0.701,36.529,28.844,36.824,34.084,5.029,5.646,5.647
1105,0.708,36.65,28.821,36.758,34.077,4.907,5.645,5.767
1106,0.715,36.805,28.871,36.786,34.094,5.15,5.849,5.85
1107,0.708,36.855,28.926,36.767,34.08,4.99,5.729,5.769
1108,0.718,36.539,28.876,36.796,34.087,5.029,5.809,5.809
1109,0.721,36.631,28.887,36.767,34.087,4.948,5.688,5.688
1110,0.708,36.738,28.895,36.748,34.08,5.029,5.727,5.809
1111,0.708,36.796,28.942,36.728,34.084,5.03,5.605,5.688
1112,0.708,36.529,28.978,36.728,34.077,4.948,5.686,5.809
1113,0.711,36.708,28.963,36.786,34.101,5.11,5.768,5.769
1114,0.705,36.796,28.9,36.757,34.08,5.071,5.728,5.809
1115,0.705,36.845,28.802,36.767,34.084,5.03,5.768,5.85
1116,0.682,36.692,28.894,36.729,34.08,4.948,5.647,5.688
1117,0.685,36.834,28.895,36.747,34.087,5.029,5.727,5.768
1118,0.685,36.941,28.97,36.738,34.08,4.907,5.646,5.687
1119,0.688,37.192,28.834,36.738,34.084,4.987,5.727,5.809
1120,0.692,36.763,28.93,36.767,34.094,5.07,5.727,5.85
1121,0.682,36.835,28.931,36.767,34.084,5.03,5.727,5.891
1122,0.695,36.96,28.95,36.767,34.087,5.111,5.809,5.892
1123,0.695,36.664,28.982,36.719,34.073,4.867,5.606,5.689
1124,0.701,36.719,28.998,36.747,34.084,5.028,5.645,5.809
1125,0.695,36.825,28.986,36.728,34.08,4.989,5.564,5.769
1126,0.705,36.922,28.908,36.766,34.084,4.988,5.685,5.85
1127,0.715,36.712,28.942,36.767,34.08,4.988,5.646,5.81
1128,0.705,36.787,28.986,36.748,34.091,5.07,5.645,5.85
1129,0.708,36.922,28.97,36.767,34.091,5.03,5.767,5.851
1130,0.715,37.0,28.923,36.719,34.077,4.867,5.484,5.81
1131,0.708,36.617,28.931,36.738,34.084,5.028,5.603,5.81
1132,0.698,36.747,28.95,36.709,34.08,4.948,5.686,5.688
1133,0.695,36.883,28.986,36.747,34.094,5.11,5.89,6.012
1134,0.688,36.951,28.966,36.728,34.087,4.989,5.689,5.812
1135,0.688,37.096,28.974,36.728,34.084,5.029,5.727,5.85
1136,0.695,37.251,29.005,36.738,34.084,5.111,5.687,5.932
1137,0.682,37.31,28.935,36.757,34.077,4.908,5.605,5.811
1138,0.682,37.387,28.927,36.738,34.087,4.947,5.686,5.81
1139,0.672,36.486,28.989,36.709,34.077,4.907,5.646,5.81
1140,0.691,36.65,29.037,36.776,34.094,5.15,5.849,6.013
1141,0.679,36.757,28.994,36.729,34.087,4.99,5.688,5.73
1142,0.688,36.806,28.92,36.747,34.084,5.029,5.768,5.85
1143,0.705,36.797,28.899,36.767,34.094,5.03,5.768,5.81
1144,0.689,36.912,28.95,36.738,34.084,4.948,5.687,5.85
1145,0.705,37.0,28.974,36.747,34.08,4.988,5.605,5.769
1146,0.702,36.789,28.97,36.719,34.08,4.907,5.645,5.768
1147,0.708,36.759,29.025,36.766,34.094,5.069,5.849,5.972
1148,0.705,36.883,28.975,36.748,34.091,5.03,5.688,5.893
1149,0.715,36.999,28.966,36.738,34.087,4.948,5.687,5.811
1150,0.724,36.655,29.033,36.738,34.08,4.988,5.646,5.688
1151,0.695,36.738,29.026,36.738,34.084,4.988,5.645,5.809
1152,0.701,36.883,29.049,36.719,34.084,4.907,5.645,5.81
1153,0.698,36.961,28.991,36.728,34.08,4.906,5.645,5.769
1154,0.705,36.77,28.998,36.776,34.091,5.069,5.727,5.809
1155,0.702,36.864,28.885,36.748,34.091,5.03,5.687,5.85
1156,0.688,36.999,28.989,36.738,34.091,4.989,5.687,5.769
1157,0.682,37.058,29.045,36.728,34.077,4.907,5.524,5.647
1158,0.685,36.704,29.065,36.738,34.087,4.987,5.644,5.767
1159,0.682,36.863,29.002,36.719,34.077,4.907,5.605,5.728
1160,0.669,36.961,29.01,36.738,34.084,4.906,5.686,5.768
1161,0.691,37.077,29.021,36.757,34.091,4.987,5.687,5.809
1162,0.688,36.79,29.037,36.728,34.087,5.029,5.687,5.769
1163,0.695,36.922,29.096,36.747,34.091,5.03,5.646,5.85
1164,0.698,37.028,29.069,36.7,34.07,4.867,5.483,5.648
1165,0.695,37.068,29.077,36.718,34.087,4.906,5.684,5.686
1166,0.692,36.704,29.003,36.738,34.084,4.906,5.605,5.646
1167,0.688,36.815,28.982,36.738,34.084,5.028,5.726,5.849
1168,0.714,36.941,29.076,36.747,34.091,4.989,5.646,5.81
1169,0.698,36.942,29.073,36.728,34.084,5.029,5.686,5.728
1170,0.705,36.722,29.01,36.747,34.087,5.03,5.646,5.85
1171,0.698,36.815,29.033,36.709,34.066,4.867,5.523,5.648
1172,0.695,36.931,28.998,36.728,34.08,4.987,5.644,5.686
1173,0.679,36.693,29.033,36.709,34.077,4.907,5.605,5.687
1174,0.675,36.777,29.053,36.738,34.091,5.069,5.726,5.89
1175,0.688,36.941,29.073,36.719,34.084,5.03,5.687,5.729
1176,0.682,37.009,29.112,36.718,34.087,5.03,5.768,5.809
1177,0.695,36.655,29.139,36.814,34.084,5.07,5.687,5.769
1178,0.685,36.767,29.05,36.71,34.08,4.948,5.687,5.768
1179,0.692,36.902,29.076,36.728,34.084,4.947,5.605,5.728
1180,0.685,36.98,29.124,36.719,34.08,4.866,5.645,5.646
1181,0.695,36.559,29.077,36.766,34.097,5.15,5.808,5.849
1182,0.705,36.689,29.026,36.729,34.077,4.909,5.647,5.769
1183,0.708,36.806,28.982,36.738,34.087,4.987,5.767,5.809
1184,0.721,36.864,29.064,36.728,34.08,5.029,5.647,5.688
1185,0.721,36.663,29.018,36.719,34.084,4.989,5.727,5.727
1186,0.744,36.815,29.103,36.718,34.08,4.907,5.646,5.727
1187,0.747,36.941,29.151,36.718,34.077,4.906,5.727,5.727
1188,0.773,37.0,29.081,36.805,34.091,5.069,5.809,5.768
1189,0.761,36.598,29.104,36.729,34.087,4.948,5.769,5.728
1190,0.777,36.747,29.085,36.738,34.091,5.029,5.768,5.687
1191,0.777,36.854,29.147,36.719,34.077,4.826,5.687,5.605
1192,0.767,36.932,29.14,36.728,34.087,4.946,5.768,5.686
1193,0.757,36.539,29.105,36.709,34.084,4.907,5.606,5.687
1194,0.757,36.67,29.116,36.718,34.08,4.947,5.808,5.849
1195,0.774,36.825,29.073,36.757,34.091,4.947,5.769,5.729
1196,0.761,36.567,29.065,36.738,34.084,4.988,5.768,5.727
1197,0.764,36.622,29.108,36.738,34.091,5.029,5.809,5.727
1198,0.754,36.728,29.147,36.719,34.077,4.826,5.647,5.646
1199,0.767,36.844,29.05,36.718,34.087,4.987,5.727,5.727
1200,0.767,36.491,29.1,36.728,34.084,4.907,5.727,5.687
1201,0.764,36.602,29.104,36.738,34.084,5.028,5.89,5.809
1202,0.787,36.757,29.163,36.728,34.084,4.989,5.851,5.769
1203,0.793,36.825,29.183,36.728,34.084,4.988,5.769,5.809
1204,0.8,36.51,29.171,36.747,34.08,4.948,5.768,5.769
1205,0.774,36.602,29.191,36.68,34.077,4.907,5.768,5.768
1206,0.787,36.738,29.105,36.728,34.073,4.906,5.728,5.647
1207,0.78,36.816,29.1,36.699,34.087,4.825,5.646,5.645
1208,0.78,36.452,29.12,36.766,34.091,5.149,5.971,5.889
1209,0.78,36.583,29.171,36.719,34.091,4.949,5.811,5.77
1210,0.793,36.709,29.14,36.728,34.091,5.029,5.85,5.728
1211,0.79,36.739,29.015,36.747,34.084,4.867,5.81,5.646
1212,0.777,36.384,29.146,36.738,34.087,4.906,5.81,5.686
1213,0.777,36.534,29.136,36.719,34.08,4.906,5.769,5.564
1214,0.771,36.641,29.171,36.709,34.08,4.906,5.728,5.726
1215,0.81,36.7,29.156,36.757,34.101,5.028,5.89,5.646
1216,0.794,36.326,29.202,36.728,34.08,4.948,5.729,5.727
1217,0.823,36.466,29.137,36.747,34.084,5.029,5.85,5.809
1218,0.839,36.573,29.14,36.709,34.08,4.867,5.648,5.688
1219,0.843,36.45,29.159,36.718,34.077,4.865,5.808,5.727
1220,0.82,36.391,29.183,36.718,34.08,4.824,5.769,5.605
1221,0.81,36.515,29.203,36.709,34.08,4.905,5.809,5.726
1222,0.833,36.65,29.148,36.728,34.08,4.987,5.85,5.727
1223,0.852,36.22,29.167,36.728,34.084,4.907,5.851,5.687
1224,0.846,36.321,29.113,36.728,34.091,4.987,5.891,5.727
1225,0.859,36.457,29.159,36.709,34.077,4.826,5.648,5.646
1226,0.872,36.516,29.159,36.728,34.08,4.905,5.808,5.686
1227,0.869,36.19,29.171,36.709,34.077,4.906,5.769,5.646
1228,0.859,36.331,29.132,36.718,34.084,4.947,5.85,5.849
1229,0.882,36.495,29.132,36.728,34.091,4.907,5.769,5.688
1230,0.863,36.545,29.179,36.719,34.091,4.906,5.809,5.727
1231,0.856,36.382,29.23,36.728,34.084,4.947,5.85,5.727
1232,0.849,36.496,29.238,36.68,34.077,4.825,5.729,5.646
1233,0.827,36.631,29.242,36.718,34.084,4.905,5.768,5.645
1234,0.82,36.661,29.184,36.709,34.077,4.865,5.728,5.645
1235,0.833,35.961,29.144,36.709,34.091,5.028,5.972,5.767
1236,0.833,36.108,29.171,36.718,34.087,4.867,5.811,5.647
1237,0.843,36.253,29.191,36.709,34.084,4.946,5.81,5.686
1238,0.843,36.274,29.257,36.728,34.087,4.988,5.81,5.727
1239,0.82,35.996,29.149,36.68,34.077,4.785,5.728,5.687
1240,0.823,36.166,29.187,36.718,34.084,4.824,5.809,5.646
1241,0.82,36.263,29.175,36.718,34.084,4.783,5.728,5.645
1242,0.833,36.36,29.234,36.718,34.094,4.986,5.931,5.767
1243,0.833,36.064,29.289,36.728,34.087,4.907,5.852,5.647
1244,0.833,36.195,29.282,36.728,34.091,4.947,5.769,5.727
1245,0.833,36.321,29.329,36.719,34.084,4.947,5.85,5.687
1246,0.826,35.91,29.192,36.718,34.084,4.907,5.81,5.727
1247,0.823,36.021,29.23,36.718,34.08,4.825,5.769,5.646
1248,0.81,36.128,29.23,36.68,34.073,4.824,5.728,5.686
1249,0.823,36.253,29.281,36.747,34.104,5.068,5.89,5.768
1250,0.817,35.823,29.266,36.719,34.087,4.948,5.77,5.687
1251,0.803,35.963,29.192,36.718,34.087,4.947,5.85,5.727
1252,0.807,36.117,29.218,36.728,34.091,4.907,5.769,5.646
1253,0.777,36.167,29.195,36.728,34.08,4.947,5.809,5.686
1254,0.777,35.88,29.203,36.709,34.073,4.947,5.769,5.605
1255,0.774,36.011,29.199,36.709,34.08,4.866,5.728,5.604
1256,0.758,36.175,29.289,36.738,34.091,5.068,5.85,5.726
1257,0.738,36.206,29.204,36.719,34.087,4.989,5.851,5.768
1258,0.721,35.756,29.215,36.718,34.094,4.988,5.81,5.768
1259,0.711,35.904,29.246,36.718,34.087,4.907,5.688,5.565
1260,0.702,36.002,29.293,36.709,34.087,4.906,5.809,5.685
1261,0.692,36.041,29.29,36.709,34.084,4.865,5.728,5.605
1262,0.669,35.802,29.212,36.709,34.08,4.865,5.727,5.645
1263,0.698,36.03,29.207,36.757,34.097,5.028,5.768,5.767
1264,0.679,36.08,29.144,36.728,34.091,4.948,5.809,5.768
1265,0.672,36.109,29.233,36.719,34.087,4.988,5.769,5.809
1266,0.682,35.764,29.231,36.69,34.073,4.826,5.687,5.647
1267,0.672,35.895,29.289,36.718,34.087,4.987,5.768,5.767
1268,0.672,35.983,29.231,36.699,34.08,4.907,5.687,5.687
1269,0.675,35.629,29.223,36.709,34.08,4.906,5.768,5.809
1270,0.698,35.644,29.285,36.738,34.091,4.906,5.728,5.769
1271,0.682,35.779,29.286,36.709,34.087,4.987,5.768,5.85
1272,0.688,35.866,29.36,36.728,34.094,4.948,5.768,5.81
1273,0.682,35.608,29.329,36.699,34.084,4.825,5.647,5.647
1274,0.682,35.749,29.325,36.718,34.084,4.905,5.727,5.808
1275,0.675,35.856,29.29,36.69,34.077,4.865,5.687,5.81
1276,0.662,35.934,29.251,36.718,34.084,4.987,5.849,5.85
1277,0.669,35.532,29.274,36.699,34.091,5.029,5.729,5.851
1278,0.649,35.634,29.317,36.709,34.08,4.948,5.809,5.769
1279,0.655,35.788,29.305,36.728,34.091,5.029,5.81,5.85
1280,0.646,35.866,29.278,36.738,34.077,4.907,5.606,5.729
1281,0.649,35.532,29.274,36.699,34.084,4.987,5.726,5.809
1282,0.646,35.653,29.297,36.709,34.084,4.907,5.687,5.81
1283,0.659,35.779,29.297,36.699,34.08,5.028,5.809,5.932
1284,0.672,35.876,29.317,36.718,34.08,4.948,5.81,5.811
1285,0.669,35.532,29.325,36.718,34.087,5.029,5.85,5.891
1286,0.669,35.682,29.341,36.728,34.087,4.989,5.851,5.892
1287,0.659,35.779,29.286,36.69,34.073,4.826,5.648,5.811
1288,0.672,35.828,29.305,36.709,34.084,4.946,5.767,5.85
1289,0.672,35.378,29.337,36.699,34.08,4.947,5.647,5.769
1290,0.662,35.498,29.353,36.709,34.094,5.069,5.889,5.972
1291,0.678,35.633,29.275,36.709,34.084,4.948,5.811,5.852
1292,0.665,35.577,29.293,36.699,34.087,4.947,5.81,5.891
1293,0.662,35.557,29.325,36.709,34.087,5.069,5.81,5.933
1294,0.643,35.634,29.282,36.69,34.077,4.826,5.688,5.811
1295,0.636,35.74,29.309,36.709,34.084,4.946,5.768,5.85
1296,0.636,35.386,29.352,36.699,34.077,4.947,5.687,5.81
1297,0.662,35.508,29.318,36.728,34.094,5.029,5.971,5.972
1298,0.643,35.633,29.298,36.719,34.087,4.989,5.771,5.893
1299,0.639,35.721,29.329,36.728,34.087,4.988,5.85,5.892
1300,0.646,35.415,29.364,36.719,34.091,4.948,5.769,5.933
1301,0.639,35.517,29.357,36.709,34.08,4.907,5.809,5.892
1302,0.646,35.672,29.325,36.709,34.08,4.947,5.81,5.811
1303,0.659,35.741,29.278,36.699,34.077,4.907,5.769,5.85
1304,0.675,35.329,29.313,36.737,34.097,5.028,5.891,5.973
1305,0.669,35.449,29.305,36.719,34.087,4.948,5.729,5.893
1306,0.669,35.585,29.356,36.709,34.094,5.029,5.85,5.892
1307,0.675,35.634,29.4,36.709,34.08,4.948,5.648,5.811
1308,0.659,35.357,29.338,36.709,34.08,5.029,5.767,5.891
1309,0.662,35.507,29.376,36.699,34.077,4.867,5.728,5.811
1310,0.675,35.595,29.322,36.69,34.087,4.946,5.768,5.85
1311,0.675,35.682,29.384,36.718,34.084,4.907,5.768,5.851
1312,0.665,35.252,29.384,36.699,34.077,4.987,5.768,5.932
1313,0.665,35.41,29.412,36.709,34.087,4.988,5.768,5.974
1314,0.656,35.498,29.408,36.69,34.066,4.866,5.687,5.771
1315,0.649,35.566,29.381,36.699,34.087,4.987,5.809,5.809
1316,0.636,35.212,29.388,36.747,34.077,4.866,5.688,5.81
1317,0.626,35.362,29.353,36.709,34.091,5.028,5.849,5.932
1318,0.632,35.488,29.415,36.699,34.087,4.948,5.769,5.892
1319,0.629,35.231,29.369,36.709,34.087,4.988,5.768,5.973
1320,0.629,35.343,29.286,36.709,34.091,4.988,5.85,5.974
1321,0.61,35.44,29.313,36.68,34.073,4.866,5.688,5.811
1322,0.6,35.546,29.352,36.689,34.084,4.946,5.727,5.891
1323,0.616,35.116,29.368,36.689,34.077,4.825,5.687,5.811
1324,0.623,35.275,29.411,36.699,34.087,5.068,5.849,5.932
1325,0.629,35.391,29.431,36.699,34.087,4.908,5.769,5.852
1326,0.639,35.469,29.463,36.709,34.08,4.947,5.809,5.851
1327,0.642,35.125,29.436,36.738,34.084,4.988,5.81,5.891
1328,0.639,35.236,29.322,36.68,34.077,4.866,5.688,5.851
1329,0.652,35.372,29.403,36.689,34.084,4.865,5.727,5.81
1330,0.659,35.421,29.427,36.689,34.08,4.865,5.646,5.81
1331,0.669,35.163,29.4,36.728,34.091,5.109,5.93,5.972
1332,0.685,35.304,29.318,36.699,34.091,4.949,5.77,5.811
1333,0.705,35.449,29.309,36.728,34.087,4.988,5.809,5.932
1334,0.731,35.489,29.407,36.738,34.087,4.907,5.81,5.852
1335,0.754,35.106,29.334,36.699,34.08,4.906,5.728,5.769
1336,0.783,35.246,29.438,36.718,34.084,4.947,5.768,5.687
1337,0.797,35.362,29.408,36.69,34.08,4.825,5.687,5.809
1338,0.82,35.411,29.439,36.776,34.091,5.027,5.89,5.932
1339,0.869,35.172,29.381,36.719,34.084,5.03,5.851,5.77
1340,0.921,35.323,29.404,36.709,34.084,4.948,5.81,5.85
1341,1.009,35.421,29.478,36.728,34.087,4.988,5.81,5.81
1342,1.072,35.163,29.428,36.699,34.077,4.866,5.769,5.85
1343,1.164,35.198,29.439,36.699,34.077,4.906,5.728,5.81
1344,1.233,35.314,29.404,36.709,34.08,4.865,5.687,5.769
1345,1.286,35.449,29.361,36.728,34.087,5.028,5.849,6.053
1346,1.345,34.99,29.396,36.699,34.087,4.907,5.81,5.853
1347,1.378,35.101,29.427,36.709,34.091,4.987,5.81,5.973
1348,1.424,35.246,29.471,36.728,34.094,4.988,5.769,5.893
1349,1.457,35.305,29.354,36.709,34.077,4.907,5.687,5.851
1350,1.519,35.114,29.439,36.69,34.08,4.906,5.768,5.851
1351,1.568,35.236,29.416,36.699,34.08,4.906,5.687,5.769
1352,1.64,35.401,29.455,36.728,34.097,5.069,5.849,6.053
1353,1.687,35.469,29.482,36.728,34.084,4.989,5.729,5.975
1354,1.713,34.943,29.471,36.728,34.087,4.988,5.768,5.974
1355,1.73,35.081,29.451,36.709,34.084,4.907,5.768,5.933
1356,1.697,35.188,29.424,36.709,34.084,4.947,5.687,5.974
1357,1.697,35.266,29.428,36.699,34.08,4.947,5.687,5.893
1358,1.677,35.123,29.412,36.699,34.08,4.907,5.687,5.892
1359,1.72,35.284,29.513,36.747,34.094,5.028,5.849,6.136
1360,1.739,35.392,29.464,36.728,34.084,4.989,5.729,6.179
1361,1.727,35.431,29.424,36.738,34.084,4.948,5.727,6.22
1362,1.668,35.019,29.447,36.738,34.084,4.825,5.687,6.261
1363,1.544,35.12,29.416,36.728,34.084,4.905,5.727,6.343
1364,1.448,35.236,29.424,36.699,34.091,4.906,5.646,6.384
1365,1.324,35.142,29.416,36.699,34.08,4.906,5.686,6.466
1366,1.238,35.112,29.529,36.757,34.094,5.069,5.768,6.67
1367,1.159,35.236,29.452,36.719,34.08,4.989,5.728,6.753
1368,1.113,35.353,29.463,36.728,34.087,4.988,5.687,6.876
1369,1.063,34.961,29.451,36.699,34.084,4.866,5.564,6.796
1370,1.017,35.033,29.518,36.709,34.08,4.865,5.645,7.039
1371,0.932,35.159,29.507,36.699,34.08,4.865,5.686,7.245
1372,0.801,35.227,29.436,36.709,34.084,4.906,5.687,7.369
1373,0.719,34.95,29.416,36.757,34.091,5.028,5.687,7.492
1374,0.659,35.062,29.365,36.719,34.091,4.907,5.727,7.575
1375,0.639,35.188,29.431,36.728,34.091,4.987,5.809,7.698
1376,0.616,35.275,29.42,36.719,34.073,4.866,5.647,7.658
1377,0.593,35.008,29.537,36.728,34.08,4.946,5.727,7.861
1378,0.557,35.159,29.44,36.709,34.08,4.866,5.646,7.822
1379,0.508,35.285,29.482,36.709,34.084,4.906,5.686,8.066
1380,0.498,35.401,29.494,36.757,34.091,4.947,5.727,8.069
1381,0.485,34.999,29.499,36.728,34.087,4.907,5.687,8.15
1382,0.527,35.149,29.545,36.738,34.094,4.987,5.768,8.273
1383,0.596,35.265,29.515,36.738,34.08,4.866,5.565,8.274
1384,0.635,35.295,29.553,36.699,34.077,4.946,5.685,8.477
1385,0.675,35.056,29.472,36.728,34.08,4.825,5.687,8.52
1386,0.721,35.159,29.49,36.709,34.08,4.987,5.646,8.845
1387,0.76,35.333,29.483,36.766,34.091,4.988,5.727,8.971
1388,0.783,35.382,29.534,36.757,34.08,4.907,5.727,9.216
1389,0.813,34.999,29.495,36.738,34.091,4.987,5.768,9.462
1390,0.829,35.13,29.495,36.728,34.077,4.866,5.565,9.424
1391,0.836,35.227,29.483,36.728,34.084,4.946,5.685,9.708
1392,0.839,34.969,29.483,36.728,34.08,4.907,5.727,9.792
1393,0.846,35.034,29.569,36.728,34.073,4.987,5.646,10.037
1394,0.869,35.226,29.519,36.766,34.09,4.988,5.767,10.162
1395,0.859,35.276,29.569,36.748,34.087,4.988,5.768,10.244
1396,0.853,34.845,29.495,36.728,34.084,5.029,5.728,10.286
1397,0.853,34.984,29.51,36.738,34.08,4.867,5.605,10.245
1398,0.853,35.11,29.518,36.728,34.084,4.946,5.726,10.326
1399,0.84,35.198,29.53,36.719,34.084,4.947,5.646,10.286
1400,0.826,34.997,29.499,36.728,34.077,4.947,5.767,10.367
1401,0.859,35.187,29.444,36.776,34.087,4.988,5.768,10.328
1402,0.846,35.304,29.463,36.748,34.087,4.988,5.85,10.327
1403,0.856,35.363,29.533,36.767,34.077,4.988,5.851,10.327
1404,0.846,34.913,29.511,36.709,34.077,4.826,5.688,10.246
1405,0.846,35.062,29.557,36.747,34.087,4.987,5.768,10.367
1406,0.849,35.15,29.605,36.719,34.073,4.907,5.647,10.206
1407,0.84,35.208,29.527,36.757,34.09,4.987,5.808,10.367
1408,0.859,34.998,29.53,36.748,34.087,5.07,5.769,10.287
1409,0.853,35.158,29.526,36.767,34.087,4.989,5.85,10.286
1410,0.859,35.246,29.577,36.757,34.084,5.029,5.729,10.205
1411,0.833,35.209,29.527,36.719,34.08,4.907,5.727,10.204
1412,0.846,34.873,29.491,36.728,34.08,4.987,5.768,10.082
1413,0.833,35.013,29.444,36.728,34.077,4.948,5.728,10.081
1414,0.833,35.139,29.482,36.766,34.094,5.069,5.89,10.203
1415,0.826,34.987,29.549,36.729,34.087,4.989,5.77,10.001
1416,0.83,35.005,29.562,36.766,34.087,4.988,5.768,9.999
1417,0.833,35.159,29.608,36.767,34.084,4.988,5.809,9.917
1418,0.81,35.218,29.492,36.757,34.077,4.907,5.81,9.876
1419,0.813,34.892,29.541,36.748,34.08,4.947,5.81,9.713
1420,0.81,34.994,29.499,36.747,34.077,4.907,5.728,9.67
1421,0.829,35.168,29.577,36.805,34.094,5.109,5.85,9.711
1422,0.813,35.237,29.581,36.777,34.087,4.989,5.81,9.589
1423,0.826,34.892,29.62,36.767,34.087,5.029,5.85,9.507
1424,0.83,35.061,29.601,36.757,34.08,4.948,5.729,9.262
1425,0.833,35.159,29.597,36.767,34.08,4.907,5.809,9.219
1426,0.849,35.237,29.55,36.767,34.077,4.947,5.728,9.178
1427,0.833,34.902,29.522,36.748,34.084,5.029,5.727,9.137
1428,0.856,35.081,29.561,36.805,34.087,4.989,5.85,9.055
1429,0.846,35.169,29.534,36.767,34.084,4.988,5.729,9.013
1430,0.859,35.237,29.557,36.767,34.087,4.988,5.768,8.972
1431,0.853,34.921,29.53,36.767,34.077,4.826,5.728,8.687
1432,0.843,35.052,29.542,36.767,34.077,4.987,5.809,8.766
1433,0.826,35.159,29.554,36.757,34.077,4.907,5.688,8.563
1434,0.83,35.218,29.64,36.776,34.084,4.987,5.809,8.602
1435,0.843,34.931,29.656,36.796,34.084,4.988,5.81,8.602
1436,0.839,35.043,29.59,36.777,34.087,5.029,5.769,8.521
1437,0.83,35.159,29.574,36.777,34.091,5.111,5.891,8.439
1438,0.817,35.045,29.558,36.748,34.077,4.827,5.729,8.275
1439,0.826,34.986,29.62,36.786,34.084,4.987,5.809,8.314
1440,0.823,35.101,29.593,36.767,34.077,4.907,5.728,8.234
1441,0.823,35.198,29.535,36.805,34.094,5.15,5.89,8.355
1442,0.836,34.854,29.561,36.853,34.084,4.99,5.851,8.234
1443,0.839,34.936,29.585,36.787,34.084,4.988,5.891,8.151
1444,0.846,35.1,29.542,36.805,34.084,5.029,5.892,8.028
1445,0.83,35.15,29.522,36.758,34.077,4.948,5.811,7.987
1446,0.846,34.786,29.6,36.776,34.084,4.988,5.769,7.946
1447,0.846,34.945,29.55,36.777,34.077,4.907,5.687,7.783
1448,0.853,35.091,29.601,36.824,34.094,5.15,6.012,7.984
1449,0.862,35.14,29.558,36.787,34.08,4.99,5.893,7.783
1450,0.859,35.016,29.651,36.796,34.084,4.988,5.892,7.74
1451,0.856,35.159,29.652,36.796,34.091,4.948,5.729,7.659
1452,0.846,35.256,29.621,36.786,34.087,4.988,5.809,7.658
1453,0.853,35.324,29.574,36.786,34.084,4.907,5.769,7.536
1454,0.833,34.692,29.546,36.777,34.08,4.947,5.809,7.494
1455,0.856,34.896,29.62,36.844,34.097,5.069,5.85,7.534
1456,0.833,34.975,29.562,36.796,34.091,5.03,5.769,7.534
1457,0.839,34.995,29.605,36.815,34.087,5.03,5.85,7.412
1458,0.849,34.861,29.57,36.806,34.08,4.948,5.769,7.289
1459,0.846,34.994,29.612,36.806,34.087,4.907,5.768,7.369
1460,0.84,35.13,29.543,36.806,34.08,4.987,5.809,7.33
1461,0.826,35.294,29.608,36.806,34.08,5.029,5.769,7.329
1462,0.856,34.864,29.652,36.844,34.094,5.07,5.768,7.329
1463,0.856,34.956,29.691,36.825,34.084,5.03,5.809,7.329
1464,0.866,35.072,29.696,36.806,34.087,5.111,5.891,7.207
1465,0.862,34.747,29.633,36.786,34.08,4.827,5.648,7.084
1466,0.872,34.811,29.516,36.805,34.08,4.946,5.727,7.123
1467,0.876,34.936,29.557,36.806,34.08,4.947,5.646,7.002
1468,0.869,35.014,29.624,36.825,34.08,5.029,5.808,7.163
1469,0.892,34.67,29.636,36.825,34.08,4.989,5.769,7.002
1470,0.879,34.791,29.582,36.825,34.087,4.988,5.809,7.041
1471,0.885,34.926,29.605,36.835,34.087,4.988,5.81,7.042
1472,0.892,34.995,29.578,36.796,34.07,4.826,5.769,6.96
1473,0.869,34.679,29.636,36.825,34.077,4.946,5.728,6.919
1474,0.872,34.81,29.652,36.796,34.08,4.907,5.768,6.919
1475,0.869,34.907,29.68,36.805,34.087,4.987,5.85,7.081
1476,0.879,34.995,29.656,36.806,34.084,4.948,5.81,6.839
1477,0.879,34.679,29.641,36.806,34.08,5.029,5.81,6.918
1478,0.876,34.82,29.605,36.815,34.091,5.03,5.85,6.919
1479,0.863,34.917,29.648,36.806,34.077,4.826,5.729,6.796
1480,0.869,34.985,29.683,36.806,34.08,4.987,5.727,6.795
1481,0.879,34.708,29.594,36.806,34.077,4.826,5.727,6.755
1482,0.872,34.858,29.55,36.825,34.084,5.068,5.89,6.917
1483,0.895,34.994,29.565,36.854,34.084,4.989,5.811,6.796
1484,0.902,35.005,29.605,36.835,34.087,4.948,5.85,6.795
1485,0.892,34.765,29.605,36.844,34.087,4.988,5.851,6.755
1486,0.902,34.859,29.621,36.787,34.084,4.907,5.769,6.714
1487,0.918,34.984,29.64,36.825,34.08,4.865,5.728,6.672
1488,0.899,34.727,29.629,36.796,34.077,4.906,5.687,6.631
1489,0.918,34.705,29.633,36.844,34.094,5.109,5.849,6.794
1490,0.935,34.839,29.64,36.816,34.084,4.908,5.769,6.633
1491,0.928,34.936,29.707,36.825,34.098,4.947,5.85,6.712
1492,0.928,34.717,29.672,36.815,34.091,4.907,5.769,6.591
1493,0.909,34.83,29.633,36.806,34.087,4.865,5.809,6.631
1494,0.918,34.975,29.617,36.815,34.084,4.906,5.728,6.55
1495,0.905,35.062,29.625,36.815,34.077,4.865,5.809,6.549
1496,0.925,34.497,29.629,36.844,34.094,4.987,5.769,6.63
1497,0.899,34.616,29.676,36.835,34.084,4.988,5.768,6.59
1498,0.912,34.752,29.656,36.844,34.087,5.029,5.809,6.631
1499,0.915,34.84,29.606,36.816,34.08,4.867,5.647,6.468
1500,0.912,34.63,29.605,36.825,34.077,4.865,5.767,6.507
1501,0.912,34.752,29.617,36.825,34.077,4.906,5.768,6.467
1502,0.922,34.888,29.664,36.844,34.087,5.028,5.809,6.589
1503,0.948,34.985,29.668,36.835,34.087,4.989,5.81,6.509
1504,0.932,34.621,29.703,36.825,34.084,4.988,5.81,6.549
1505,0.944,34.733,29.692,36.844,34.091,4.948,5.81,6.549
1506,0.945,34.83,29.657,36.806,34.073,4.907,5.769,6.468
1507,0.954,34.898,29.664,36.815,34.084,4.947,5.768,6.467
1508,0.964,34.496,29.703,36.825,34.073,4.907,5.687,6.426
1509,0.984,34.626,29.7,36.863,34.097,5.109,5.931,6.588
1510,0.984,34.771,29.661,36.825,34.084,5.03,5.73,6.468
1511,0.987,34.715,29.574,36.863,34.087,4.948,5.85,6.467
1512,0.987,34.561,29.644,36.844,34.08,4.988,5.729,6.386
1513,0.971,34.694,29.609,36.825,34.084,4.907,5.687,6.425
1514,0.977,34.801,29.636,36.844,34.084,4.906,5.727,6.304
1515,0.971,34.466,29.672,36.825,34.077,4.906,5.727,6.384
1516,0.977,34.616,29.727,36.863,34.094,5.069,5.809,6.385
1517,0.984,34.723,29.676,36.844,34.084,4.989,5.688,6.344
1518,0.984,34.849,29.645,36.863,34.091,5.029,5.809,6.425
1519,0.984,34.361,29.68,36.844,34.077,4.907,5.688,6.222
1520,0.968,34.49,29.688,36.844,34.084,4.947,5.727,6.383
1521,0.99,34.607,29.703,36.844,34.08,4.947,5.727,6.222
1522,0.984,34.694,29.676,36.844,34.077,4.988,5.768,6.464
1523,1.03,34.398,29.66,36.883,34.091,5.029,5.768,6.304
1524,1.011,34.529,29.567,36.864,34.087,5.03,5.728,6.302
1525,1.017,34.665,29.636,36.883,34.091,5.07,5.768,6.343
1526,1.023,34.695,29.625,36.826,34.077,4.908,5.606,6.262
1527,1.03,34.417,29.715,36.844,34.08,5.028,5.726,6.221
1528,1.04,34.549,29.661,36.854,34.077,4.989,5.687,6.22
1529,1.033,34.684,29.699,36.864,34.084,5.029,5.809,6.261
1530,1.053,34.743,29.676,36.873,34.087,4.989,5.728,6.221
1531,1.053,34.446,29.719,36.883,34.084,5.029,5.809,6.261
1532,1.053,34.578,29.758,36.893,34.087,5.07,5.728,6.221
1533,1.04,34.704,29.743,36.845,34.08,4.908,5.646,6.139
1534,1.056,34.945,29.688,36.873,34.077,4.987,5.767,6.219
1535,1.056,34.372,29.668,36.864,34.08,4.948,5.728,6.139
1536,1.056,34.538,29.703,36.873,34.084,5.069,5.85,6.341
1537,1.063,34.646,29.653,36.893,34.084,5.03,5.729,6.181
1538,1.06,34.349,29.726,36.883,34.084,5.07,5.809,6.22
1539,1.069,34.423,29.684,36.893,34.091,5.03,5.81,6.22
1540,1.069,34.52,29.59,36.883,34.077,4.907,5.647,6.22
1541,1.079,34.674,29.663,36.883,34.084,4.947,5.767,6.098
1542,1.076,34.283,29.707,36.883,34.077,4.907,5.647,6.138
1543,1.096,34.451,29.719,36.893,34.091,5.069,5.889,6.301
1544,1.119,34.578,29.735,36.893,34.08,4.989,5.811,6.14
1545,1.129,34.656,29.782,36.893,34.084,5.029,5.769,6.179
1546,1.132,34.33,29.736,36.921,34.091,5.03,5.809,6.139
1547,1.125,34.442,29.708,36.903,34.077,4.948,5.688,6.098
1548,1.142,34.606,29.68,36.912,34.08,4.988,5.646,6.056
1549,1.145,34.656,29.738,36.893,34.084,4.907,5.686,6.056
1550,1.171,34.302,29.739,36.931,34.091,5.069,5.849,6.137
1551,1.162,34.423,29.716,36.893,34.087,4.989,5.769,6.057
1552,1.168,34.549,29.614,36.931,34.084,4.988,5.768,6.097
1553,1.171,34.627,29.707,36.922,34.084,4.948,5.728,6.016
1554,1.158,34.292,29.723,36.912,34.084,4.988,5.687,6.056
1555,1.165,34.432,29.712,36.902,34.077,4.948,5.687,5.934
1556,1.178,34.549,29.754,36.902,34.084,4.988,5.687,5.974
1557,1.188,34.607,29.759,36.95,34.094,5.151,5.768,6.137
1558,1.191,34.311,29.716,36.951,34.084,5.031,5.728,6.098
1559,1.211,34.432,29.68,36.912,34.087,4.989,5.768,6.056
1560,1.214,34.539,29.723,36.931,34.084,4.866,5.687,5.975
1561,1.204,34.387,29.755,36.941,34.08,4.946,5.727,6.015
1562,1.214,34.395,29.755,36.922,34.08,4.947,5.646,6.015
1563,1.23,34.529,29.767,36.922,34.084,4.947,5.686,6.056
1564,1.263,34.684,29.774,36.95,34.094,5.11,5.768,6.056
1565,1.26,34.244,29.708,36.932,34.08,4.949,5.768,6.097
1566,1.276,34.384,29.727,36.96,34.084,4.988,5.728,6.097
1567,1.276,34.481,29.727,36.913,34.073,4.907,5.524,5.813
1568,1.289,34.578,29.751,36.941,34.077,4.947,5.725,6.013
1569,1.286,34.32,29.716,36.941,34.077,4.907,5.605,5.974
1570,1.299,34.452,29.727,36.922,34.077,4.987,5.767,6.015
1571,1.316,34.626,29.708,36.95,34.087,4.988,5.687,6.015
1572,1.309,34.675,29.747,36.951,34.087,4.988,5.727,5.974
1573,1.313,34.561,29.763,36.97,34.091,5.029,5.768,6.055
1574,1.303,34.684,29.778,36.932,34.066,4.826,5.525,5.934
1575,1.312,34.82,29.778,36.96,34.08,4.905,5.725,5.933
1576,1.303,34.869,29.704,36.941,34.08,4.906,5.565,5.892
1577,1.306,34.428,29.739,36.96,34.091,4.987,5.726,6.054
1578,1.326,34.597,29.747,36.941,34.091,4.988,5.687,5.975
1579,1.332,34.704,29.809,36.97,34.091,5.029,5.768,5.974
1580,1.329,34.743,29.744,36.98,34.091,5.03,5.809,5.933
1581,1.319,34.59,29.63,36.941,34.077,4.867,5.525,6.014
1582,1.339,34.742,29.683,36.979,34.084,4.946,5.685,5.934
1583,1.342,34.859,29.707,36.961,34.07,4.907,5.646,5.852
1584,1.345,34.812,29.719,36.98,34.09,5.109,5.889,6.054
1585,1.358,34.687,29.731,36.98,34.084,4.949,5.689,5.975
1586,1.368,34.801,29.809,36.97,34.084,5.029,5.687,6.015
1587,1.375,34.936,29.744,36.989,34.087,4.948,5.727,6.015
1588,1.369,34.822,29.747,36.942,34.077,4.907,5.646,5.934
1589,1.378,34.975,29.751,36.96,34.077,4.906,5.645,5.892
1590,1.369,35.082,29.802,36.97,34.077,4.865,5.564,5.851
1591,1.381,35.217,29.787,37.008,34.097,5.15,5.848,6.013
1592,1.382,34.911,29.712,36.961,34.084,4.949,5.729,5.893
1593,1.375,35.062,29.649,36.989,34.094,5.029,5.646,6.014
1594,1.369,35.207,29.715,37.009,34.087,5.03,5.686,5.934
1595,1.359,35.247,29.715,36.971,34.077,4.989,5.687,5.974
1596,1.359,35.199,29.723,36.98,34.084,4.988,5.646,5.933
1597,1.355,35.343,29.805,36.951,34.077,4.907,5.645,5.974
1598,1.362,35.488,29.728,37.027,34.094,5.069,5.808,5.974
1599,1.355,35.537,29.766,36.999,34.087,4.989,5.688,5.974
1600,1.352,35.547,29.747,36.999,34.091,4.988,5.768,6.055
1601,1.355,35.701,29.798,36.99,34.084,4.907,5.606,5.893
1602,1.346,35.798,29.829,36.999,34.084,5.028,5.726,5.933
1603,1.339,35.828,29.818,36.99,34.084,4.907,5.646,5.852
1604,1.332,35.665,29.822,36.999,34.084,4.947,5.727,6.013
1605,1.329,35.846,29.763,36.999,34.08,4.947,5.687,5.934
1606,1.319,35.934,29.794,37.028,34.084,4.988,5.727,6.055
1607,1.326,36.29,29.755,37.009,34.087,5.029,5.727,6.015
1608,1.306,36.121,29.825,36.99,34.077,4.989,5.565,5.893
1609,1.293,36.244,29.783,37.009,34.084,4.988,5.685,5.973
1610,1.293,36.36,29.782,37.076,34.08,4.866,5.687,5.852
1611,1.27,36.256,29.775,37.019,34.087,5.068,5.809,6.135
1612,1.257,36.331,29.79,37.009,34.091,4.989,5.688,5.976
1613,1.234,36.447,29.794,37.028,34.087,5.029,5.727,6.055
1614,1.224,36.554,29.798,37.028,34.084,5.03,5.768,5.975
1615,1.201,36.488,29.814,37.009,34.077,4.907,5.647,5.893
1616,1.181,36.65,29.81,37.009,34.08,4.987,5.686,5.933
1617,1.152,36.757,29.794,37.009,34.077,4.866,5.687,5.852
1618,1.126,36.864,29.783,37.057,34.097,5.068,5.849,6.095
1619,1.119,36.999,29.837,37.009,34.087,4.948,5.688,5.935
1620,1.115,37.154,29.806,37.047,34.087,5.029,5.727,6.014
1621,1.093,37.261,29.748,37.048,34.084,4.989,5.727,5.974
1622,1.07,37.31,29.704,37.105,34.073,4.948,5.646,5.933
1623,1.069,36.956,29.766,37.039,34.084,4.907,5.645,5.933
1624,1.043,37.077,29.759,37.038,34.07,4.906,5.727,5.892
1625,1.037,37.222,29.778,37.076,34.101,5.15,5.85,6.095
1626,1.027,37.233,29.81,37.038,34.087,4.949,5.688,5.975
1627,1.01,37.262,29.755,37.067,34.091,4.988,5.809,6.055
1628,1.004,37.377,29.79,37.067,34.084,4.948,5.688,5.975
1629,0.984,37.464,29.732,37.057,34.087,4.988,5.727,5.933
1630,0.978,37.485,29.825,37.028,34.08,4.948,5.646,5.933
1631,0.955,37.446,29.834,37.047,34.077,4.907,5.645,5.892
1632,0.951,37.599,29.826,37.086,34.091,5.109,5.727,5.973
1633,0.919,37.678,29.783,37.077,34.087,4.989,5.727,5.893
1634,0.905,37.63,29.72,37.077,34.091,4.988,5.768,6.014
1635,0.892,37.64,29.801,37.057,34.084,4.907,5.647,5.771
1636,0.873,37.755,29.755,37.076,34.077,4.987,5.645,5.891
1637,0.85,37.833,29.849,37.067,34.077,5.029,5.645,5.933
1638,0.843,37.709,29.791,37.057,34.077,4.989,5.686,5.974
1639,0.849,37.89,29.806,37.086,34.091,5.07,5.727,5.974
1640,0.823,37.959,29.759,37.086,34.077,4.989,5.768,6.015
1641,0.817,38.055,29.774,37.096,34.097,5.07,5.768,6.015
1642,0.807,37.922,29.853,37.077,34.073,4.948,5.647,5.852
1643,0.797,38.045,29.853,37.096,34.08,4.988,5.727,5.932
1644,0.8,38.152,29.877,37.058,34.077,5.029,5.687,5.974
1645,0.794,38.23,29.834,37.067,34.073,4.989,5.768,5.974
1646,0.806,37.943,29.818,37.163,34.087,5.07,5.687,5.974
1647,0.784,38.026,29.755,37.087,34.087,5.03,5.727,5.974
1648,0.79,38.152,29.833,37.105,34.091,5.03,5.727,5.974
1649,0.777,38.163,29.822,37.077,34.07,4.989,5.605,5.852
1650,0.771,38.038,29.736,37.096,34.08,5.07,5.686,5.891
1651,0.754,38.161,29.782,37.086,34.087,5.03,5.646,5.892
1652,0.754,38.268,29.759,37.096,34.084,5.07,5.727,6.014
1653,0.748,38.336,29.825,37.106,34.087,4.989,5.727,6.015
1654,0.734,38.184,29.861,37.106,34.091,5.07,5.768,5.974
1655,0.721,38.326,29.881,37.106,34.091,4.989,5.768,5.974
1656,0.702,38.385,29.893,37.067,34.073,4.948,5.647,5.933
1657,0.705,38.405,29.842,37.096,34.08,5.069,5.645,5.933
1658,0.695,38.242,29.791,37.077,34.084,4.989,5.686,5.892
1659,0.698,38.374,29.822,37.115,34.094,5.151,5.809,6.095
1660,0.698,38.481,29.865,37.115,34.087,5.112,5.728,5.975
1661,0.698,38.214,29.764,37.115,34.091,5.071,5.727,6.055
1662,0.695,38.307,29.696,37.134,34.084,5.111,5.727,5.893
1663,0.688,38.413,29.785,37.116,34.077,5.071,5.687,5.933
1664,0.705,38.482,29.771,37.106,34.08,5.07,5.646,5.974
1665,0.695,38.166,29.786,37.115,34.077,5.03,5.645,5.933
1666,0.708,38.297,29.814,37.134,34.094,5.192,5.889,6.014
1667,0.715,38.404,29.83,37.144,34.08,5.072,5.689,5.934
1668,0.702,38.491,29.826,37.192,34.084,5.03,5.727,5.974
1669,0.695,38.319,29.802,37.145,34.091,5.03,5.727,5.893
1670,0.695,38.404,29.829,37.096,34.087,4.989,5.727,5.811
1671,0.695,38.53,29.818,37.134,34.084,4.988,5.687,5.891
1672,0.682,38.588,29.857,37.106,34.077,4.988,5.605,5.811
1673,0.682,38.282,29.803,37.154,34.094,5.151,5.889,6.054
1674,0.675,38.394,29.783,37.144,34.084,5.071,5.689,5.853
1675,0.672,38.529,29.7,37.154,34.087,5.111,5.768,5.973
1676,0.672,38.569,29.77,37.135,34.08,4.989,5.687,5.852
1677,0.656,38.32,29.817,37.135,34.077,5.07,5.727,5.851
1678,0.659,38.462,29.834,37.125,34.084,5.03,5.646,5.81
1679,0.656,38.568,29.728,37.135,34.077,4.907,5.645,5.81
1680,0.662,38.905,29.801,37.173,34.094,5.15,5.808,6.054
1681,0.652,38.228,29.822,37.164,34.08,5.031,5.728,5.975
1682,0.652,38.345,29.841,37.164,34.087,5.07,5.687,5.893
1683,0.668,38.443,29.881,37.173,34.084,4.989,5.687,5.892
1684,0.656,38.309,29.842,37.135,34.077,4.988,5.727,5.933
1685,0.665,38.404,29.853,37.144,34.08,4.907,5.605,5.892
1686,0.659,38.53,29.803,37.144,34.077,4.906,5.686,5.851
1687,0.672,38.655,29.794,37.192,34.094,5.191,5.89,5.973
1688,0.675,38.081,29.861,37.164,34.084,5.031,5.689,5.974
1689,0.678,38.229,29.846,37.154,34.08,4.989,5.849,5.933
1690,0.672,38.336,29.787,37.154,34.084,4.907,5.648,5.811
1691,0.665,38.404,29.825,37.183,34.084,4.987,5.686,5.81
1692,0.675,38.127,29.795,37.154,34.08,4.948,5.687,5.769
1693,0.652,38.258,29.833,37.173,34.08,4.988,5.687,5.891
1694,0.659,38.423,29.838,37.212,34.094,5.07,5.727,5.933
1695,0.656,38.453,29.865,37.183,34.084,4.948,5.646,5.892
1696,0.649,38.108,29.896,37.183,34.094,4.988,5.727,5.973
1697,0.642,38.277,29.78,37.183,34.08,4.948,5.605,5.689
1698,0.636,38.356,29.806,37.173,34.084,4.988,5.686,5.849
1699,0.642,38.395,29.845,37.164,34.08,4.907,5.646,5.81
1700,0.633,38.031,29.877,37.183,34.077,4.865,5.727,5.972
1701,0.662,38.2,29.842,37.202,34.091,5.028,5.727,5.893
1702,0.649,38.288,29.806,37.212,34.087,4.989,5.809,5.851
1703,0.665,38.308,29.767,37.203,34.091,4.988,5.769,5.932
1704,0.656,38.04,29.739,37.183,34.07,4.826,5.606,5.77
1705,0.668,38.161,29.79,37.193,34.073,4.987,5.645,5.85
1706,0.675,38.249,29.806,37.183,34.077,4.826,5.645,5.729
1707,0.675,38.001,29.884,37.202,34.084,4.987,5.849,5.972
1708,0.675,37.95,29.811,37.202,34.084,4.948,5.729,5.893
1709,0.675,38.093,29.833,37.222,34.091,5.029,5.768,5.973
1710,0.672,38.191,29.83,37.212,34.091,4.948,5.768,5.811
1711,0.672,37.827,29.869,37.183,34.08,4.947,5.728,5.81
1712,0.685,37.968,29.877,37.193,34.084,4.947,5.687,5.81
1713,0.659,38.084,29.846,37.193,34.08,4.907,5.687,5.769
1714,0.662,38.2,29.838,37.231,34.094,5.069,5.768,5.891
1715,0.662,37.827,29.822,37.203,34.084,4.908,5.728,5.892
1716,0.656,37.996,29.83,37.212,34.087,4.947,5.768,5.892
1717,0.655,38.113,29.849,37.222,34.084,4.907,5.647,5.77
1718,0.646,38.162,29.865,37.203,34.087,4.906,5.767,5.809
1719,0.642,37.75,29.83,37.212,34.073,4.987,5.647,5.769
1720,0.642,37.89,29.806,37.212,34.084,4.866,5.808,5.85
1721,0.665,38.035,29.857,37.26,34.091,4.946,5.769,5.932
1722,0.649,38.056,29.85,37.232,34.08,4.988,5.768,5.852
1723,0.662,37.692,29.924,37.241,34.087,4.907,5.85,5.932
1724,0.669,37.803,29.92,37.222,34.077,4.825,5.607,5.73
1725,0.669,37.91,29.913,37.222,34.08,4.946,5.726,5.809
1726,0.675,37.94,29.858,37.231,34.077,4.866,5.687,5.769
1727,0.672,37.614,29.85,37.231,34.08,4.906,5.809,5.891
1728,0.685,37.783,29.857,37.251,34.084,4.906,5.769,5.933
1729,0.682,37.852,29.889,37.232,34.084,4.865,5.85,5.892
1730,0.682,37.814,29.854,37.251,34.08,4.946,5.81,5.892
1731,0.669,37.603,29.779,37.232,34.063,4.785,5.647,5.77
1732,0.675,37.754,29.81,37.241,34.083,4.905,5.727,5.768
1733,0.672,37.842,29.818,37.241,34.077,4.865,5.646,5.809
1734,0.662,37.584,29.861,37.251,34.08,5.028,5.808,5.932
1735,0.675,37.706,29.889,37.251,34.084,4.907,5.728,5.811
1736,0.665,37.813,29.924,37.251,34.091,4.906,5.768,5.85
1737,0.669,37.929,29.827,37.241,34.087,4.906,5.809,5.891
1738,0.659,37.412,29.806,37.222,34.073,4.784,5.606,5.729
1739,0.665,37.551,29.818,37.26,34.084,4.864,5.767,5.809
1740,0.656,37.658,29.857,37.251,34.077,4.824,5.728,5.81
1741,0.662,37.765,29.861,37.27,34.097,5.027,5.89,5.932
1742,0.675,37.43,29.818,37.261,34.084,4.907,5.811,5.852
1743,0.688,37.57,29.81,37.261,34.08,4.947,5.81,5.851
1744,0.692,37.716,29.748,37.27,34.087,4.907,5.81,5.851
1745,0.675,37.727,29.86,37.232,34.07,4.825,5.728,5.729
1746,0.685,37.382,29.904,37.231,34.077,4.865,5.768,5.809
1747,0.688,37.512,29.893,37.241,34.08,4.865,5.647,5.769
1748,0.695,37.638,29.862,37.289,34.097,5.028,5.889,5.931
1749,0.695,37.659,29.861,37.261,34.084,4.867,5.729,5.811
1750,0.695,37.41,29.838,37.261,34.087,4.946,5.89,5.85
1751,0.695,37.541,29.892,37.28,34.087,4.907,5.811,5.769
1752,0.682,37.62,29.893,37.242,34.073,4.865,5.769,5.809
1753,0.688,37.918,29.889,37.251,34.087,4.906,5.809,5.688
1754,0.662,37.221,29.877,37.251,34.077,4.865,5.81,5.768
1755,0.682,37.367,29.885,37.28,34.097,5.068,5.932,5.972
1756,0.672,37.484,29.862,37.28,34.091,4.948,5.77,5.811
1757,0.669,37.235,29.853,37.251,34.084,5.029,5.809,5.85
1758,0.682,37.29,29.892,37.27,34.084,4.989,5.728,5.729
1759,0.659,37.368,29.877,37.27,34.084,4.988,5.768,5.809
1760,0.665,37.493,29.779,37.27,34.077,4.907,5.768,5.769
1761,0.669,37.111,29.825,37.261,34.077,4.865,5.728,5.768
1762,0.685,37.289,29.857,37.308,34.097,5.068,5.89,5.85
1763,0.672,37.368,29.853,37.271,34.084,4.948,5.811,5.851
1764,0.682,37.445,29.865,37.299,34.087,4.988,5.81,5.851
1765,0.688,37.12,29.889,37.261,34.08,4.866,5.688,5.729
1766,0.685,37.232,29.92,37.28,34.084,4.946,5.687,5.768
1767,0.688,37.348,29.866,37.28,34.077,4.866,5.646,5.768
1768,0.688,37.435,29.854,37.27,34.08,4.946,5.727,5.809
1769,0.708,37.072,29.885,37.328,34.091,5.029,5.809,5.728
1770,0.692,37.174,29.916,37.309,34.084,4.907,5.81,5.768
1771,0.698,37.29,29.87,37.319,34.087,5.028,5.769,5.809
1772,0.692,37.329,29.834,37.29,34.077,4.826,5.687,5.688
1773,0.685,37.013,29.869,37.337,34.087,4.946,5.727,5.768
1774,0.675,37.135,29.811,37.3,34.084,4.825,5.727,5.728
1775,0.669,37.232,29.833,37.29,34.08,4.946,5.768,5.89
1776,0.695,37.3,29.881,37.318,34.084,4.947,5.809,5.811
1777,0.675,37.003,29.893,37.309,34.087,4.947,5.81,5.85
1778,0.669,37.154,29.846,37.347,34.087,4.988,5.81,5.851
1779,0.669,37.242,29.834,37.29,34.066,4.785,5.647,5.648
1780,0.672,37.032,29.865,37.299,34.09,4.905,5.767,5.849
1781,0.675,36.953,29.928,37.299,34.073,4.906,5.728,5.769
1782,0.669,37.077,29.932,37.29,34.084,4.947,5.768,5.809
1783,0.691,37.212,29.881,37.318,34.084,4.947,5.809,5.769
1784,0.685,36.849,29.854,37.319,34.087,4.988,5.81,5.809
1785,0.692,36.961,29.748,37.328,34.087,4.988,5.769,5.85
1786,0.698,37.077,29.841,37.3,34.073,4.907,5.647,5.729
1787,0.698,37.164,29.857,37.309,34.077,4.906,5.767,5.809
1788,0.698,36.676,29.892,37.309,34.077,4.947,5.687,5.728
1789,0.695,36.815,29.807,37.328,34.084,4.947,5.849,5.89
1790,0.714,36.979,29.849,37.319,34.08,4.907,5.769,5.811
1791,0.695,37.029,29.861,37.319,34.084,4.947,5.85,5.769
1792,0.698,36.655,29.881,37.319,34.087,5.029,5.769,5.768
1793,0.685,36.786,29.908,37.29,34.077,4.826,5.687,5.647
1794,0.692,36.922,29.932,37.328,34.084,4.905,5.809,5.727
1795,0.688,36.961,29.897,37.328,34.077,4.865,5.647,5.687
1796,0.682,36.674,29.873,37.328,34.08,5.028,5.889,5.809
1797,0.685,36.834,29.861,37.338,34.087,4.989,5.77,5.728
1798,0.685,36.941,29.857,37.328,34.084,4.988,5.687,5.809
1799,0.692,36.961,29.924,37.347,34.091,4.948,5.849,5.81
1800,0.672,36.636,29.862,37.309,34.07,4.907,5.729,5.728
1801,0.675,36.786,29.795,37.347,34.08,4.987,5.768,5.727
1802,0.675,36.902,29.822,37.338,34.077,4.907,5.728,5.768
1803,0.682,36.827,29.853,37.386,34.097,5.069,5.85,5.891
1804,0.685,36.519,29.834,37.348,34.084,4.948,5.81,5.811
1805,0.688,36.66,29.857,37.357,34.084,4.907,5.769,5.81
1806,0.698,36.748,29.908,37.357,34.08,4.987,5.687,5.688
1807,0.685,36.346,29.858,37.357,34.08,4.907,5.768,5.727
1808,0.688,36.447,29.857,37.348,34.08,4.906,5.687,5.687
1809,0.701,36.554,29.857,37.348,34.077,4.906,5.727,5.687
1810,0.708,36.689,29.916,37.386,34.091,5.028,5.85,5.727
1811,0.705,36.345,29.905,37.358,34.084,4.948,5.81,5.727
1812,0.698,36.505,29.846,37.386,34.08,4.988,5.85,5.768
1813,0.695,36.631,29.81,37.358,34.077,4.826,5.648,5.606
1814,0.682,36.709,29.783,37.348,34.084,4.946,5.686,5.686
1815,0.675,36.269,29.864,37.348,34.077,4.866,5.687,5.687
1816,0.659,36.408,29.857,37.357,34.08,4.906,5.768,5.687
1817,0.685,36.563,29.928,37.405,34.091,4.987,5.809,5.687
1818,0.675,36.574,29.862,37.367,34.08,4.907,5.728,5.768
1819,0.675,36.315,29.877,37.396,34.087,4.987,5.768,5.768
1820,0.659,36.457,29.861,37.377,34.077,4.826,5.647,5.647
1821,0.675,36.564,29.857,37.367,34.077,4.905,5.767,5.727
1822,0.669,36.612,29.912,37.377,34.084,4.865,5.647,5.727
1823,0.672,36.172,29.948,37.367,34.087,4.946,5.727,5.809
1824,0.695,36.359,29.921,37.415,34.087,4.947,5.727,5.647
1825,0.685,36.438,29.913,37.377,34.084,4.947,5.727,5.767
1826,0.695,36.736,29.889,37.396,34.08,4.947,5.809,5.809
1827,0.692,36.346,29.85,37.386,34.077,4.785,5.647,5.647
1828,0.695,36.476,29.924,37.386,34.077,4.946,5.727,5.767
1829,0.692,36.573,29.893,37.386,34.073,4.866,5.687,5.687
1830,0.695,36.181,29.791,37.386,34.08,4.906,5.809,5.687
1831,0.714,36.263,29.857,37.415,34.091,4.865,5.728,5.727
1832,0.698,36.351,29.818,37.377,34.084,4.906,5.727,5.727
1833,0.682,36.457,29.896,37.396,34.087,4.987,5.89,5.727
1834,0.685,36.161,29.928,37.377,34.08,4.866,5.648,5.565
1835,0.679,36.263,29.944,37.405,34.077,4.906,5.767,5.645
1836,0.669,36.399,29.96,37.396,34.077,4.865,5.687,5.645
1837,0.662,36.477,29.913,37.386,34.08,4.946,5.727,5.727
1838,0.678,36.142,29.905,37.415,34.087,4.988,5.809,5.646
1839,0.669,36.263,29.866,37.406,34.08,4.948,5.81,5.727
1840,0.669,36.408,29.904,37.434,34.091,4.947,5.769,5.768
1841,0.672,36.448,29.83,37.387,34.073,4.744,5.687,5.565
1842,0.675,36.209,29.814,37.406,34.08,4.945,5.768,5.685
1843,0.675,36.36,29.833,37.425,34.077,4.825,5.728,5.605
1844,0.688,36.447,29.841,37.406,34.08,4.865,5.768,5.767
1845,0.685,36.525,29.865,37.406,34.077,4.906,5.809,5.728
1846,0.688,36.267,29.912,37.415,34.077,4.987,5.81,5.768
1847,0.695,36.408,29.94,37.425,34.087,4.988,5.728,5.768
1848,0.695,36.515,29.878,37.396,34.073,4.826,5.605,5.565
1849,0.695,36.554,29.858,37.415,34.08,4.905,5.686,5.685
1850,0.711,36.325,29.892,37.406,34.077,4.825,5.727,5.605
1851,0.692,36.437,29.932,37.406,34.084,4.946,5.768,5.726
1852,0.688,36.582,29.928,37.415,34.084,4.866,5.768,5.646
1853,0.685,36.306,29.87,37.435,34.08,5.028,5.768,5.727
1854,0.682,36.207,29.822,37.454,34.087,5.03,5.85,5.809
1855,0.682,36.321,29.759,37.416,34.07,4.867,5.729,5.566
1856,0.675,36.428,29.872,37.425,34.087,4.906,5.687,5.685
1857,0.662,36.199,29.842,37.406,34.077,4.865,5.646,5.646
1858,0.656,36.321,29.935,37.444,34.091,4.987,5.767,5.808
1859,0.675,36.476,29.796,37.435,34.084,4.907,5.768,5.647
1860,0.662,36.554,29.868,37.444,34.087,4.987,5.768,5.727
1861,0.665,36.267,29.893,37.454,34.087,4.907,5.728,5.687
1862,0.646,36.37,29.936,37.406,34.07,4.825,5.809,5.727
1863,0.665,36.505,29.94,37.425,34.077,4.905,5.769,5.646
1864,0.669,36.574,29.936,37.425,34.077,4.825,5.728,5.645
1865,0.669,36.296,29.917,37.463,34.091,5.109,5.89,5.849
1866,0.682,36.418,29.85,37.445,34.084,4.867,5.811,5.688
1867,0.679,36.573,29.873,37.454,34.087,4.946,5.81,5.687
1868,0.682,36.632,29.912,37.473,34.084,4.907,5.81,5.687
1869,0.672,36.239,29.897,37.416,34.073,4.865,5.728,5.727
1870,0.682,36.398,29.862,37.435,34.084,4.906,5.727,5.646
1871,0.666,36.515,29.885,37.502,34.066,4.865,5.727,5.605
1872,0.682,36.574,29.916,37.483,34.101,5.068,5.89,5.848
1873,0.669,36.267,29.874,37.445,34.087,4.867,5.811,5.729
1874,0.665,36.418,29.885,37.473,34.087,4.906,5.85,5.809
1875,0.665,36.515,29.94,37.454,34.087,4.987,5.769,5.728
1876,0.649,36.554,29.917,37.445,34.08,4.948,5.768,5.687
1877,0.655,36.488,29.835,37.464,34.08,4.947,5.768,5.605
1878,0.649,36.612,29.845,37.435,34.08,4.825,5.687,5.604
1879,0.655,36.738,29.916,37.492,34.097,5.068,5.89,5.808
1880,0.642,36.279,29.944,37.483,34.08,4.908,5.811,5.769
1881,0.655,36.37,29.925,37.483,34.087,4.987,5.81,5.728
1882,0.659,36.496,29.893,37.483,34.091,4.948,5.728,5.727
1883,0.659,36.554,29.838,37.474,34.08,4.866,5.809,5.727
1884,0.665,36.373,29.92,37.55,34.084,4.784,5.728,5.646
1885,0.659,36.515,29.835,37.465,34.087,4.824,5.727,5.686
1886,0.672,36.67,29.92,37.502,34.098,4.987,5.931,5.768
1887,0.669,36.7,29.913,37.455,34.08,4.948,5.811,5.768
1888,0.678,36.259,29.885,37.502,34.087,4.907,5.81,5.728
1889,0.662,36.427,29.889,37.483,34.077,4.947,5.688,5.646
1890,0.672,36.525,29.893,37.474,34.084,4.866,5.809,5.686
1891,0.682,36.574,29.947,37.473,34.08,4.784,5.769,5.687
1892,0.662,36.392,29.952,37.454,34.077,4.783,5.687,5.687
1893,0.669,36.601,29.956,37.512,34.091,5.027,5.89,5.768
1894,0.669,36.68,29.886,37.493,34.08,4.948,5.811,5.687
1895,0.662,36.729,29.834,37.502,34.087,4.988,5.85,5.809
1896,0.656,36.442,29.853,37.503,34.084,4.826,5.81,5.688
1897,0.652,36.544,29.873,37.493,34.08,4.905,5.85,5.768
1898,0.646,36.66,29.912,37.474,34.07,4.825,5.81,5.687
1899,0.649,36.882,29.838,37.483,34.077,4.824,5.769,5.687
1900,0.655,36.539,29.923,37.55,34.097,5.027,5.972,5.849
1901,0.655,36.631,29.838,37.503,34.087,4.867,5.771,5.729
1902,0.652,36.757,29.904,37.531,34.087,4.906,5.972,5.85
1903,0.659,36.442,29.912,37.503,34.084,4.865,5.73,5.648
1904,0.665,36.477,29.924,37.503,34.084,4.906,5.85,5.686
1905,0.675,36.573,29.963,37.512,34.077,4.865,5.81,5.646
1906,0.675,36.67,29.87,37.493,34.084,4.824,5.769,5.686
1907,0.695,36.403,29.9,37.541,34.091,4.987,5.809,5.727
1908,0.692,36.496,29.909,37.522,34.084,4.866,5.81,5.809
1909,0.701,36.631,29.944,37.541,34.091,4.946,5.891,5.81
1910,0.705,36.661,29.846,37.503,34.07,4.744,5.689,5.566
1911,0.698,36.403,29.892,37.589,34.083,4.864,5.727,5.645
1912,0.685,36.544,29.83,37.503,34.077,4.824,5.687,5.686
1913,0.682,36.679,29.853,37.531,34.084,4.905,5.89,5.809
1914,0.711,36.757,29.877,37.532,34.084,4.865,5.892,5.769
1915,0.702,36.48,29.897,37.541,34.087,4.906,5.77,5.768
1916,0.708,36.631,29.951,37.551,34.091,4.987,5.85,5.768
1917,0.708,36.728,29.866,37.503,34.077,4.826,5.729,5.647
1918,0.721,36.796,29.896,37.541,34.073,4.824,5.809,5.727
1919,0.724,36.366,29.905,37.503,34.073,4.783,5.769,5.687
1920,0.721,36.515,29.955,37.541,34.094,4.986,5.931,5.931
1921,0.731,36.631,29.948,37.541,34.084,4.948,5.852,5.73
1922,0.725,36.652,29.866,37.541,34.084,4.947,5.851,5.809
1923,0.744,36.565,29.826,37.57,34.084,4.907,5.81,5.728
1924,0.734,36.641,29.806,37.522,34.073,4.825,5.769,5.768
1925,0.747,36.795,29.908,37.541,34.077,4.824,5.809,5.728
1926,0.754,36.538,29.862,37.541,34.077,4.824,5.769,5.687
1927,0.754,36.468,29.939,37.589,34.094,5.027,5.891,5.89
1928,0.754,36.592,29.858,37.561,34.08,4.907,5.851,5.77
1929,0.761,36.699,29.92,37.561,34.084,4.947,5.851,5.85
1930,0.777,36.345,29.87,37.561,34.08,4.907,5.769,5.769
1931,0.761,36.39,29.908,37.541,34.073,4.825,5.768,5.809
1932,0.774,36.544,29.936,37.551,34.077,4.865,5.809,5.688
1933,0.754,36.612,29.94,37.541,34.077,4.784,5.728,5.687
1934,0.744,36.344,29.944,37.56,34.094,4.986,5.931,5.971
1935,0.741,36.476,29.913,37.57,34.08,4.948,5.811,5.689
1936,0.731,36.592,29.916,37.58,34.084,4.907,5.891,5.849
1937,0.741,36.689,29.877,37.59,34.091,4.906,5.851,5.769
1938,0.718,36.23,29.936,37.542,34.084,4.865,5.729,5.768
1939,0.731,36.417,29.87,37.56,34.084,4.865,5.768,5.768
1940,0.721,36.506,29.869,37.637,34.08,4.824,5.687,5.728
1941,0.728,36.583,29.889,37.59,34.094,5.027,5.971,6.012
1942,0.728,36.335,29.869,37.57,34.08,4.907,5.811,5.812
1943,0.734,36.476,29.92,37.599,34.077,4.947,5.769,5.891
1944,0.757,36.602,29.92,37.59,34.087,4.988,5.809,5.851
1945,0.757,36.575,29.924,37.57,34.077,4.907,5.85,5.891
1946,0.787,36.335,29.885,37.589,34.08,4.865,5.729,5.77
1947,0.803,36.466,29.897,37.58,34.073,4.784,5.727,5.728
1948,0.826,36.612,29.905,37.618,34.101,5.027,5.972,5.89
1949,0.81,36.594,29.948,37.609,34.087,4.867,5.811,5.811
1950,0.816,36.296,29.928,37.599,34.087,4.906,5.81,5.81
1951,0.833,36.418,29.846,37.609,34.084,4.947,5.769,5.688
1952,0.804,36.525,29.861,37.657,34.084,4.866,5.768,5.849
1953,0.8,36.2,29.861,37.6,34.08,4.865,5.768,5.729
1954,0.807,36.244,29.865,37.59,34.07,4.865,5.768,5.809
1955,0.82,36.437,29.885,37.647,34.09,4.987,5.931,5.891
1956,0.813,36.496,29.912,37.6,34.077,4.826,5.811,5.811
1957,0.81,36.209,29.901,37.618,34.084,4.946,5.891,5.85
1958,0.807,36.379,29.905,37.619,34.08,4.907,5.811,5.729
1959,0.81,36.476,29.866,37.609,34.08,4.906,5.81,5.809
1960,0.813,36.564,29.928,37.599,34.077,4.825,5.769,5.81
1961,0.807,36.133,29.913,37.599,34.077,4.783,5.85,5.81
1962,0.794,36.32,29.94,37.657,34.094,4.986,5.891,5.891
1963,0.79,36.399,29.882,37.619,34.084,4.907,5.811,5.77
1964,0.813,36.457,29.881,37.638,34.077,4.947,5.85,5.931
1965,0.81,36.103,29.893,37.609,34.077,4.825,5.729,5.689
1966,0.816,36.224,29.858,37.638,34.08,4.905,5.809,5.809
1967,0.823,36.35,29.881,37.609,34.084,4.865,5.728,5.81
1968,0.826,36.361,29.865,37.609,34.07,4.865,5.768,5.81
1969,0.839,36.121,29.92,37.676,34.087,4.987,5.891,5.891
1970,0.833,36.253,29.858,37.619,34.08,4.907,5.811,5.811
1971,0.833,36.37,29.92,37.638,34.087,4.947,5.85,5.81
1972,0.83,36.476,29.917,37.619,34.07,4.825,5.769,5.728
1973,0.813,36.094,29.971,37.638,34.077,4.987,5.768,5.809
1974,0.81,36.234,29.96,37.638,34.077,4.866,5.728,5.728
1975,0.807,36.322,29.893,37.628,34.077,4.946,5.89,5.85
1976,0.803,36.025,29.908,37.753,34.091,4.947,5.811,5.769
1977,0.774,35.993,29.834,37.639,34.091,4.947,5.85,5.85
1978,0.771,36.147,29.935,37.657,34.084,5.029,5.891,5.891
1979,0.767,36.225,29.905,37.638,34.077,4.785,5.729,5.648
1980,0.761,35.986,29.834,37.648,34.084,4.986,5.85,5.889
1981,0.751,36.118,29.849,37.657,34.077,4.907,5.769,5.77
1982,0.761,36.244,29.873,37.667,34.08,4.906,5.809,5.85
1983,0.78,36.37,29.924,37.657,34.084,4.947,5.81,5.851
1984,0.761,35.882,29.92,37.648,34.077,4.907,5.85,5.891
1985,0.751,36.04,29.967,37.676,34.084,4.987,5.891,5.851
1986,0.748,36.137,29.933,37.638,34.066,4.785,5.77,5.81
1987,0.738,36.225,29.921,37.676,34.077,4.905,5.809,5.85
1988,0.725,35.842,29.877,37.648,34.077,4.865,5.769,5.81
1989,0.718,35.982,29.947,37.657,34.08,4.906,5.891,5.891
1990,0.721,36.127,29.94,37.667,34.084,4.906,5.851,5.892
1991,0.702,36.167,29.882,37.667,34.084,4.906,5.851,5.851
1992,0.695,35.803,29.815,37.657,34.084,4.987,5.891,5.851
1993,0.666,35.914,29.873,37.715,34.07,4.866,5.77,5.851
1994,0.659,36.059,29.877,37.677,34.07,4.946,5.809,5.81
1995,0.639,36.07,29.9,37.658,34.073,4.866,5.81,5.81
1996,0.646,35.821,29.916,37.667,34.087,5.028,5.972,6.013
1997,0.646,35.953,29.913,37.677,34.08,4.907,5.811,5.852
1998,0.639,36.069,29.795,37.696,34.087,4.947,5.891,5.891
1999,0.646,35.85,29.849,37.696,34.084,5.029,5.892,5.973
2000,0.626,35.704,29.9,37.648,34.077,4.867,5.77,5.852
2001,0.655,35.856,29.912,37.676,34.077,4.987,5.728,5.891
2002,0.642,35.944,29.936,37.677,34.077,4.907,5.727,5.892
2003,0.668,35.935,29.901,37.715,34.094,5.069,5.972,6.054
2004,0.669,36.04,29.85,37.696,34.08,4.908,5.811,5.934
2005,0.669,36.185,29.826,37.725,34.08,4.947,5.85,5.974
2006,0.669,36.283,29.857,37.706,34.08,4.988,5.729,5.852
2007,0.652,35.411,29.869,37.696,34.08,4.907,5.809,5.932
2008,0.655,35.556,29.936,37.677,34.08,4.906,5.81,5.933
2009,0.649,35.701,29.835,37.686,34.077,4.865,5.769,5.933
2010,0.675,35.827,29.923,37.725,34.087,4.987,5.85,6.014
2011,0.659,35.56,29.866,37.696,34.084,4.948,5.81,6.015
2012,0.656,35.73,29.912,37.715,34.084,5.029,5.81,6.056
2013,0.646,35.856,29.897,37.696,34.08,4.826,5.688,5.934
2014,0.636,35.886,29.908,37.715,34.084,4.946,5.809,5.974
2015,0.633,35.551,29.94,37.696,34.08,4.907,5.769,5.893
2016,0.616,35.682,29.889,37.687,34.073,4.906,5.85,6.014
2017,0.642,35.865,29.92,37.744,34.087,4.987,5.769,6.015
2018,0.623,35.867,29.881,37.706,34.077,4.907,5.768,6.056
2019,0.632,35.532,29.947,37.715,34.084,4.987,5.891,6.056
2020,0.619,35.672,29.87,37.706,34.07,4.866,5.689,5.853
2021,0.623,35.798,29.799,37.715,34.077,4.946,5.768,5.973
2022,0.616,35.78,29.853,37.715,34.077,4.825,5.85,5.974
2023,0.616,35.368,29.846,37.715,34.077,4.905,5.851,6.137
2024,0.642,35.517,29.912,37.715,34.084,4.947,5.81,6.098
2025,0.642,35.605,29.881,37.725,34.087,4.947,5.81,6.056
2026,0.652,35.5,29.936,37.744,34.084,5.029,5.85,6.056
2027,0.646,35.566,29.815,37.697,34.07,4.826,5.769,6.015
2028,0.639,35.711,29.884,37.725,34.077,4.987,5.85,5.974
2029,0.649,35.808,29.897,37.716,34.073,4.866,5.769,5.974
2030,0.662,35.282,29.94,37.725,34.087,4.987,5.891,6.096
2031,0.659,35.43,29.936,37.716,34.077,4.948,5.851,6.016
2032,0.652,35.566,29.831,37.744,34.087,4.947,5.81,5.974
2033,0.649,35.663,29.795,37.745,34.094,4.988,5.891,6.096
2034,0.633,35.347,29.786,37.716,34.066,4.866,5.689,5.935
2035,0.642,35.526,29.849,37.725,34.08,4.987,5.768,5.974
2036,0.626,35.643,29.849,37.744,34.073,4.948,5.768,5.893
2037,0.619,35.702,29.935,37.745,34.087,4.988,5.809,6.095
2038,0.632,35.492,29.87,37.735,34.08,4.907,5.769,5.975
2039,0.632,35.633,29.896,37.744,34.087,4.947,5.768,6.055
2040,0.623,35.759,29.889,37.754,34.091,4.947,5.891,6.015
2041,0.603,35.77,29.912,37.725,34.07,4.825,5.77,5.934
2042,0.626,35.262,29.936,37.744,34.08,4.946,5.728,5.974
2043,0.636,35.372,29.944,37.745,34.077,4.907,5.646,5.933
2044,0.626,35.498,29.964,37.745,34.084,5.028,5.849,6.055
2045,0.632,35.509,29.894,37.745,34.077,5.03,5.81,5.934
2046,0.629,35.317,29.905,37.773,34.091,4.989,5.81,5.974
2047,0.626,35.469,29.858,37.783,34.091,5.029,5.81,6.015
2048,0.629,35.518,29.904,37.716,34.073,4.907,5.728,5.852
2049,0.632,35.26,29.893,37.763,34.077,4.906,5.768,5.932
2050,0.619,35.276,29.885,37.793,34.077,4.906,5.647,5.852
2051,0.613,35.42,29.893,37.764,34.087,5.028,5.971,6.095
2052,0.61,35.517,29.881,37.773,34.077,4.948,5.771,5.894
2053,0.596,35.049,29.943,37.764,34.084,4.988,5.85,5.973
2054,0.6,35.169,29.944,37.773,34.084,4.988,5.769,6.015
2055,0.596,35.266,29.971,37.745,34.077,4.866,5.809,5.974
2056,0.59,35.372,29.925,37.764,34.077,4.906,5.688,5.974
2057,0.593,35.258,29.897,37.764,34.073,4.825,5.727,5.933
2058,0.609,35.42,29.862,37.793,34.094,5.068,5.972,6.096
2059,0.609,35.537,29.885,37.774,34.084,4.908,5.893,6.056
2060,0.622,35.624,29.92,37.783,34.091,4.987,5.933,6.056
2061,0.642,35.098,29.823,37.783,34.077,4.907,5.77,5.975
2062,0.629,35.227,29.861,37.802,34.084,4.987,5.85,5.974
2063,0.671,35.353,29.869,37.764,34.08,4.866,5.851,5.933
2064,0.704,35.411,29.889,37.773,34.07,4.906,5.769,5.892
2065,0.747,35.095,29.904,37.802,34.097,5.109,5.931,6.054
2066,0.787,35.227,29.912,37.812,34.08,4.908,5.892,6.056
2067,0.806,35.314,29.889,37.793,34.084,5.028,5.933,6.056
2068,0.816,35.363,29.854,37.802,34.08,4.989,5.892,5.934
2069,0.859,35.133,29.846,37.793,34.084,4.948,5.892,6.055
2070,0.931,35.275,29.877,37.783,34.077,4.907,5.892,5.893
2071,0.99,35.382,29.904,37.774,34.077,4.865,5.851,5.933
2072,1.056,35.239,29.905,37.841,34.091,5.068,5.932,6.014
2073,1.108,35.065,29.858,37.803,34.087,4.989,5.974,6.015
2074,1.19,35.236,29.787,37.822,34.084,5.07,5.974,6.096
2075,1.253,35.353,29.825,37.841,34.084,4.908,5.811,5.894
2076,1.315,35.028,29.884,37.813,34.087,5.028,5.891,6.014
2077,1.374,35.14,29.885,37.803,34.077,4.785,5.811,5.974
2078,1.414,35.265,29.908,37.783,34.08,4.946,5.972,6.015
2079,1.466,35.391,29.745,37.85,34.094,5.069,5.974,6.056
2080,1.513,34.904,29.821,37.822,34.091,4.989,5.893,6.056
2081,1.591,35.042,29.837,37.832,34.084,5.11,6.014,6.097
2082,1.647,35.169,29.888,37.812,34.077,4.949,5.852,5.975
2083,1.713,35.256,29.951,37.812,34.08,4.907,5.932,6.015
2084,1.72,35.008,29.932,37.812,34.077,4.987,5.811,5.974
2085,1.746,35.12,29.913,37.793,34.08,4.948,5.891,6.096
2086,1.782,35.294,29.823,37.85,34.084,5.029,5.892,6.056
2087,1.773,35.344,29.869,37.851,34.077,4.989,5.973,6.056
2088,1.76,34.989,29.873,37.822,34.084,5.07,5.974,6.178
2089,1.756,35.13,29.881,37.812,34.073,4.867,5.771,6.017
2090,1.746,35.237,29.795,37.831,34.09,5.028,5.891,6.218
2091,1.723,35.276,29.853,37.812,34.08,4.907,5.851,6.18
2092,1.691,35.075,29.846,37.822,34.08,4.987,6.013,6.261
2093,1.612,35.255,29.877,37.86,34.087,5.029,5.934,6.302
2094,1.504,35.324,29.881,37.851,34.091,5.03,5.974,6.343
2095,1.393,35.354,29.881,37.841,34.084,5.03,6.015,6.466
2096,1.235,34.826,29.912,37.813,34.063,4.907,5.812,6.304
2097,1.172,34.955,29.831,37.841,34.087,4.987,5.932,6.628
2098,1.123,35.081,29.861,37.832,34.07,5.029,5.892,6.631
2099,1.063,35.015,29.865,37.86,34.08,5.03,5.973,6.875
2100,1.03,35.168,29.928,37.832,34.08,5.07,5.974,7.04
2101,1.017,35.266,29.905,37.851,34.084,5.07,5.933,7.123
2102,0.991,35.391,29.815,37.889,34.091,5.07,5.974,7.327
2103,0.945,34.817,29.837,37.832,34.07,4.908,5.852,7.41
2104,0.912,34.994,29.849,37.937,34.08,4.987,5.932,7.533
2105,0.863,35.101,29.853,37.823,34.08,4.948,5.811,7.616
2106,0.814,35.179,29.865,37.86,34.087,5.029,5.972,7.942
2107,0.777,34.873,29.881,37.861,34.08,4.989,5.974,7.945
2108,0.748,35.042,29.838,37.889,34.084,5.11,5.974,7.945
2109,0.721,35.178,29.873,37.88,34.084,4.989,5.893,8.108
2110,0.676,35.199,29.865,37.861,34.077,4.907,5.933,8.109
2111,0.646,34.873,29.924,37.851,34.077,4.987,5.811,8.191
2112,0.603,34.985,29.936,37.832,34.084,4.948,5.81,8.273
2113,0.58,35.158,29.921,37.908,34.094,5.15,6.013,8.477
2114,0.547,35.179,29.917,37.89,34.08,5.031,5.934,8.601
2115,0.583,34.882,29.776,37.88,34.087,5.03,5.974,8.806
2116,0.596,35.033,29.872,37.88,34.08,5.03,5.811,8.889
2117,0.616,35.12,29.865,37.87,34.077,4.989,5.932,9.134
2118,0.649,35.15,29.904,37.861,34.08,4.948,5.852,9.217
2119,0.665,34.939,29.87,37.851,34.073,4.947,5.81,9.422
2120,0.695,35.129,29.869,37.908,34.094,5.15,6.013,9.749
2121,0.721,35.217,29.865,37.899,34.084,5.031,5.893,9.874
2122,0.737,34.94,29.873,37.89,34.087,4.948,5.892,10.038
2123,0.76,34.947,29.904,37.89,34.08,4.947,5.892,10.08
2124,0.774,35.062,29.924,37.89,34.084,4.988,5.892,10.243
2125,0.8,35.15,29.905,37.89,34.077,4.907,5.892,10.245
2126,0.816,34.815,29.862,37.861,34.08,4.906,5.811,10.326
2127,0.839,34.994,29.857,37.928,34.097,5.109,6.013,10.408
2128,0.836,35.111,29.889,37.88,34.08,4.989,5.934,10.491
2129,0.826,35.198,29.924,37.909,34.091,5.07,5.974,10.491
2130,0.83,34.873,29.854,37.88,34.077,4.989,5.771,10.329
2131,0.82,35.023,29.861,37.899,34.084,4.988,5.891,10.368
2132,0.83,35.13,29.803,37.88,34.073,4.948,5.851,10.328
2133,0.81,35.217,29.833,37.909,34.084,4.988,5.973,10.53
2134,0.82,34.902,29.826,37.909,34.077,5.029,5.933,10.41
2135,0.81,35.052,29.884,37.899,34.084,4.989,5.974,10.409
2136,0.803,35.207,29.904,37.919,34.087,5.07,5.933,10.45
2137,0.787,35.199,29.834,37.89,34.07,4.826,5.811,10.328
2138,0.787,34.844,29.841,37.928,34.08,4.987,5.85,10.286
2139,0.797,34.984,29.857,37.89,34.073,4.866,5.851,10.205
2140,0.784,35.11,29.885,37.928,34.087,5.068,6.013,10.407
2141,0.797,35.14,29.854,37.938,34.084,5.03,5.893,10.287
2142,0.787,34.891,29.846,37.929,34.08,4.989,5.892,10.205
2143,0.797,35.023,29.76,37.928,34.087,5.07,5.973,10.204
2144,0.787,35.12,29.747,37.89,34.073,4.948,5.811,10.163
2145,0.787,34.949,29.856,37.918,34.08,4.988,5.891,10.041
2146,0.793,34.813,29.81,37.909,34.073,4.988,5.811,9.918
2147,0.8,34.965,29.884,37.928,34.09,5.11,6.013,10.039
2148,0.797,35.053,29.803,37.919,34.084,4.989,5.893,9.877
2149,0.807,34.785,29.833,37.928,34.091,5.029,5.973,9.835
2150,0.81,34.897,29.826,37.948,34.087,5.07,5.893,9.672
2151,0.787,35.004,29.861,37.9,34.07,4.989,5.851,9.589
2152,0.797,35.101,29.885,37.928,34.083,5.029,5.851,9.547
2153,0.784,35.323,29.908,37.919,34.073,4.948,5.81,9.466
2154,0.78,35.497,29.897,37.967,34.097,5.15,6.013,9.505
2155,0.777,35.624,29.854,37.948,34.077,5.071,5.934,9.303
2156,0.784,35.711,29.889,37.938,34.084,4.989,5.933,9.301
2157,0.78,34.6,29.819,37.957,34.08,5.07,5.852,9.178
