time,ecg,bvp,gsr,rsp,skt,emg_zygo,emg_coru,emg_trap
0,0.698,35.702,36.887,30.92,22.483,5.727,7.452,10.82
1,0.705,35.857,36.919,30.901,22.483,5.727,7.411,10.738
2,0.721,35.906,36.926,30.911,22.483,5.768,7.411,10.697
3,0.724,35.712,36.907,30.891,22.476,5.727,7.37,10.738
4,0.721,35.867,36.922,30.901,22.48,5.687,7.329,10.697
5,0.705,35.993,36.942,30.92,22.483,5.727,7.329,10.738
6,0.692,36.09,36.989,30.93,22.49,5.851,7.37,10.738
7,0.685,35.79,36.942,30.94,22.487,5.892,7.37,10.82
8,0.662,35.906,36.946,30.911,22.48,5.81,7.288,10.861
9,0.662,36.022,36.922,30.901,22.469,5.81,7.206,10.697
10,0.652,36.061,36.915,30.891,22.469,5.687,7.083,10.615
11,0.655,35.741,36.938,30.891,22.469,5.768,7.124,10.615
12,0.662,35.857,36.938,30.891,22.469,5.768,7.083,10.738
13,0.698,35.964,36.938,30.891,22.476,5.687,7.124,10.82
14,0.738,36.012,36.934,30.911,22.473,5.727,7.042,10.902
15,0.803,36.071,36.919,30.891,22.48,5.727,7.124,10.902
16,0.862,36.216,36.97,30.891,22.476,5.727,7.124,10.943
17,0.905,36.293,36.907,30.901,22.473,5.727,7.124,10.984
18,0.931,36.061,36.926,30.901,22.48,5.687,7.124,10.943
19,0.977,35.615,36.907,30.882,22.469,5.645,7.042,10.779
20,1.037,35.78,36.911,30.891,22.473,5.645,7.042,10.902
21,1.096,35.896,36.926,30.911,22.48,5.727,7.206,10.943
22,1.178,35.673,36.926,30.911,22.487,5.727,7.206,10.943
23,1.24,35.741,36.938,30.92,22.48,5.81,7.288,10.984
24,1.29,35.887,36.899,30.92,22.476,5.768,7.329,10.984
25,1.336,35.983,36.907,30.92,22.48,5.727,7.288,11.025
26,1.405,35.673,36.946,30.911,22.476,5.768,7.206,11.025
27,1.451,35.799,36.993,30.911,22.473,5.687,7.247,11.066
28,1.513,35.925,36.958,30.911,22.476,5.768,7.247,11.066
29,1.598,36.012,36.934,30.911,22.48,5.687,7.206,11.108
30,1.671,35.644,36.915,30.911,22.476,5.727,7.247,11.025
31,1.743,35.809,36.958,30.94,22.49,5.81,7.288,11.025
32,1.786,35.906,36.962,30.95,22.487,5.851,7.37,11.149
33,1.828,35.945,36.946,30.92,22.48,5.768,7.329,10.984
34,1.888,35.664,36.946,30.95,22.473,5.687,7.288,10.902
35,1.96,35.819,36.915,30.882,22.473,5.645,7.165,10.82
36,2.029,35.935,36.946,30.891,22.469,5.687,7.165,10.738
37,2.114,35.983,36.954,30.901,22.473,5.645,7.165,10.697
38,2.183,35.732,36.915,30.901,22.473,5.604,7.124,10.656
39,2.229,35.877,36.922,30.901,22.469,5.645,7.165,10.697
40,2.285,35.974,36.891,30.911,22.476,5.687,7.165,10.615
41,2.318,36.022,36.919,30.92,22.48,5.727,7.124,10.656
42,2.325,35.78,36.934,30.891,22.476,5.687,7.165,10.574
43,2.295,35.906,36.93,30.891,22.473,5.645,7.124,10.574
44,2.275,36.022,36.915,30.93,22.473,5.522,7.042,10.532
45,2.16,36.39,36.883,30.891,22.473,5.563,7.001,10.491
46,2.022,35.664,36.97,30.92,22.473,5.687,7.124,10.615
47,1.911,35.809,36.97,30.901,22.483,5.687,7.206,10.656
48,1.74,35.916,36.938,30.911,22.49,5.727,7.165,10.861
49,1.52,35.683,36.93,30.901,22.487,5.645,7.083,10.82
50,1.276,35.741,36.883,30.92,22.483,5.645,7.083,10.943
51,1.076,35.887,36.915,30.911,22.48,5.687,7.206,10.984
52,0.951,35.964,36.97,30.911,22.48,5.687,7.165,11.189
53,0.849,35.615,36.863,30.92,22.476,5.604,7.124,11.189
54,0.757,35.751,36.926,30.911,22.469,5.563,7.083,11.272
55,0.701,35.857,36.942,30.901,22.476,5.645,7.083,11.313
56,0.675,35.964,36.946,30.92,22.48,5.604,7.206,11.436
57,0.636,35.644,36.922,30.94,22.49,5.727,7.288,11.559
58,0.609,35.79,36.915,30.92,22.487,5.727,7.329,11.683
59,0.619,35.887,36.946,30.891,22.48,5.645,7.288,11.683
60,0.616,35.954,36.867,30.901,22.469,5.522,7.206,11.723
61,0.626,35.606,36.915,30.882,22.466,5.481,7.206,11.764
62,0.632,35.722,36.938,30.882,22.473,5.563,7.206,11.888
63,0.629,35.857,36.899,30.882,22.469,5.563,7.329,12.052
64,0.649,35.945,36.903,30.891,22.473,5.522,7.288,12.216
65,0.662,35.819,36.93,30.901,22.473,5.522,7.329,12.298
66,0.685,35.974,36.966,30.901,22.473,5.563,7.452,12.381
67,0.685,36.09,36.926,30.92,22.473,5.563,7.37,12.422
68,0.701,36.119,36.938,30.901,22.476,5.563,7.411,12.463
69,0.734,35.518,36.919,30.891,22.476,5.44,7.37,12.422
70,0.754,35.664,36.875,30.872,22.473,5.399,7.288,12.339
71,0.78,35.79,36.938,30.891,22.473,5.399,7.288,12.257
72,0.797,35.819,36.958,30.891,22.48,5.522,7.411,12.298
73,0.793,35.751,36.899,30.92,22.476,5.563,7.452,12.298
74,0.803,35.906,36.926,30.911,22.48,5.522,7.534,12.216
75,0.836,35.993,36.919,30.911,22.48,5.604,7.411,12.052
76,0.833,35.751,36.958,30.891,22.473,5.522,7.411,11.929
77,0.826,35.664,36.875,30.92,22.476,5.481,7.411,11.929
78,0.82,35.809,36.93,30.93,22.469,5.522,7.37,12.052
79,0.816,35.896,36.922,30.911,22.48,5.481,7.452,12.298
80,0.82,35.548,36.863,30.911,22.476,5.399,7.37,12.586
81,0.843,35.664,36.911,30.911,22.473,5.481,7.37,12.873
82,0.839,35.819,36.95,30.92,22.483,5.481,7.411,13.202
83,0.839,35.916,36.891,30.94,22.487,5.645,7.534,13.695
84,0.836,35.683,36.915,30.94,22.483,5.563,7.534,13.982
85,0.82,35.799,36.966,30.901,22.483,5.522,7.452,14.228
86,0.8,35.916,37.001,30.891,22.473,5.481,7.37,14.311
87,0.79,35.993,36.93,30.882,22.473,5.399,7.37,14.393
88,0.79,35.635,36.93,30.882,22.466,5.358,7.288,14.393
89,0.787,35.751,36.938,30.891,22.469,5.399,7.329,14.516
90,0.767,35.867,36.895,30.882,22.473,5.399,7.288,14.475
91,0.767,35.945,36.946,30.911,22.473,5.44,7.37,14.516
92,0.77,35.644,36.946,30.891,22.473,5.481,7.329,14.475
93,0.767,35.761,36.891,30.92,22.473,5.399,7.452,14.352
94,0.757,35.896,36.879,30.901,22.476,5.44,7.534,14.228
95,0.767,35.916,36.915,30.872,22.469,5.399,7.534,13.982
96,0.784,35.596,36.989,30.862,22.466,5.276,7.494,13.736
97,0.79,35.761,36.934,30.891,22.48,5.399,7.617,13.654
98,0.797,35.877,36.938,30.901,22.48,5.44,7.699,13.613
99,0.803,35.906,36.93,30.92,22.48,5.44,7.781,13.448
100,0.82,35.615,36.93,30.891,22.487,5.481,7.781,13.243
101,0.826,35.741,36.922,30.901,22.48,5.399,7.863,13.038
102,0.843,35.857,36.93,30.882,22.48,5.481,7.781,12.915
103,0.833,35.828,36.915,30.882,22.476,5.44,7.863,12.709
104,0.82,35.702,36.895,30.891,22.476,5.44,7.863,12.545
105,0.797,35.819,36.899,30.891,22.473,5.481,7.945,12.422
106,0.79,35.916,36.97,30.901,22.48,5.44,7.863,12.257
107,0.793,35.625,36.95,30.911,22.476,5.481,7.863,12.175
108,0.787,35.741,36.974,30.92,22.487,5.522,7.945,12.134
109,0.777,35.877,36.958,30.901,22.494,5.563,8.027,12.011
110,0.754,35.925,36.938,30.891,22.48,5.399,7.986,11.929
111,0.751,35.606,36.915,30.862,22.473,5.399,7.986,11.683
112,0.738,35.741,36.919,30.862,22.466,5.317,7.945,11.518
113,0.738,35.867,36.938,30.872,22.469,5.358,7.863,11.436
114,0.734,35.945,36.895,30.872,22.473,5.317,7.904,11.272
115,0.757,35.528,36.919,30.872,22.473,5.44,7.945,11.149
116,0.764,35.673,36.946,30.862,22.473,5.399,7.986,11.108
117,0.764,35.79,36.958,30.891,22.48,5.399,8.069,10.943
118,0.764,35.887,36.915,30.891,22.473,5.399,7.986,10.861
119,0.761,35.644,36.922,30.882,22.48,5.481,7.986,10.656
120,0.754,35.761,36.895,30.862,22.469,5.358,7.986,10.574
121,0.777,35.916,36.879,30.853,22.462,5.317,7.822,10.286
122,0.79,35.974,36.922,30.882,22.473,5.44,7.945,10.245
123,0.793,35.518,36.911,30.891,22.48,5.481,7.945,10.245
124,0.8,35.712,36.899,30.882,22.487,5.481,7.945,10.122
125,0.78,35.799,36.926,30.882,22.476,5.522,7.945,10.04
126,0.777,35.857,36.95,30.891,22.48,5.44,8.027,10.04
127,0.774,35.654,36.93,30.882,22.476,5.522,7.986,9.957
128,0.77,35.77,36.93,30.882,22.48,5.44,7.945,9.793
129,0.77,35.896,36.93,30.872,22.476,5.44,7.904,9.711
130,0.761,36.216,36.954,30.872,22.473,5.522,7.904,9.547
131,0.761,35.567,36.907,30.872,22.473,5.481,7.945,9.588
132,0.757,35.702,36.95,30.901,22.483,5.563,7.904,9.506
133,0.757,35.809,36.958,30.911,22.487,5.645,7.945,9.588
134,0.751,35.606,36.855,30.901,22.487,5.563,7.986,9.588
135,0.77,35.635,36.907,30.853,22.476,5.481,7.945,9.465
136,0.774,35.741,36.891,30.843,22.473,5.44,7.822,9.382
137,0.777,35.867,36.934,30.843,22.476,5.481,7.74,9.382
138,0.793,35.431,36.899,30.853,22.48,5.399,7.658,9.342
139,0.793,35.567,36.915,30.862,22.469,5.399,7.658,9.382
140,0.816,35.693,36.895,30.862,22.476,5.481,7.658,9.382
141,0.813,35.819,36.887,30.853,22.476,5.522,7.617,9.382
142,0.833,35.528,36.926,30.862,22.473,5.522,7.575,9.424
143,0.83,35.664,36.891,30.853,22.48,5.563,7.575,9.424
144,0.82,35.79,36.911,30.853,22.476,5.481,7.699,9.382
145,0.8,35.848,36.879,30.833,22.462,5.399,7.534,9.301
146,0.8,35.586,36.942,30.862,22.476,5.399,7.534,9.136
147,0.813,35.751,36.919,30.872,22.476,5.481,7.74,9.218
148,0.803,35.867,36.907,30.882,22.476,5.563,7.699,9.259
149,0.803,35.954,36.938,30.882,22.483,5.604,7.74,9.177
150,0.797,35.364,36.859,30.872,22.48,5.604,7.699,9.136
151,0.8,35.509,36.899,30.882,22.48,5.645,7.781,9.136
152,0.793,35.644,36.958,30.882,22.483,5.563,7.74,9.054
153,0.8,35.673,36.911,30.882,22.473,5.563,7.699,9.054
154,0.793,35.528,36.946,30.872,22.476,5.563,7.658,9.013
155,0.813,35.673,36.887,30.882,22.473,5.604,7.658,8.89
156,0.83,35.78,36.97,30.872,22.469,5.604,7.699,8.849
157,0.833,35.819,36.922,30.882,22.48,5.687,7.658,8.849
158,0.846,35.644,36.946,30.911,22.48,5.645,7.658,8.931
159,0.846,35.77,36.938,30.901,22.487,5.727,7.781,8.931
160,0.846,35.838,36.879,30.891,22.49,5.851,7.699,8.931
161,0.836,35.635,36.899,30.872,22.48,5.645,7.699,8.767
162,0.849,35.577,36.942,30.843,22.469,5.687,7.534,8.767
163,0.853,35.712,36.879,30.843,22.469,5.645,7.452,8.644
164,0.839,35.799,36.926,30.853,22.469,5.645,7.411,8.602
165,0.839,35.373,36.911,30.824,22.469,5.645,7.37,8.684
166,0.839,35.48,36.954,30.853,22.476,5.687,7.452,8.479
167,0.849,35.606,36.907,30.853,22.476,5.645,7.411,8.602
168,0.833,35.712,36.915,30.853,22.48,5.768,7.452,8.479
169,0.833,35.431,36.93,30.853,22.476,5.727,7.37,8.479
170,0.833,35.596,36.907,30.862,22.476,5.645,7.37,8.479
171,0.81,35.712,36.93,30.853,22.483,5.687,7.37,8.438
172,0.813,35.78,36.907,30.824,22.466,5.645,7.288,8.438
173,0.823,35.451,36.911,30.843,22.469,5.645,7.247,8.315
174,0.83,35.625,36.922,30.853,22.473,5.727,7.288,8.274
175,0.856,35.751,36.911,30.882,22.48,5.768,7.329,8.356
176,0.846,35.799,36.954,30.872,22.476,5.81,7.452,8.356
177,0.836,35.422,36.926,30.862,22.476,5.81,7.37,8.438
178,0.843,35.557,36.911,30.862,22.473,5.81,7.288,8.397
179,0.856,35.664,36.915,30.862,22.48,5.768,7.288,8.438
180,0.859,35.722,36.911,30.872,22.48,5.727,7.247,8.438
181,0.885,35.422,36.907,30.853,22.48,5.768,7.206,8.397
182,0.895,35.548,36.922,30.872,22.473,5.81,7.206,8.479
183,0.908,35.644,36.915,30.853,22.476,5.768,7.124,8.602
184,0.912,35.702,36.934,30.872,22.473,5.81,7.206,8.684
185,0.912,35.983,36.922,30.901,22.483,5.81,7.165,8.767
186,0.889,36.1,36.95,30.901,22.487,5.974,7.288,8.931
187,0.879,36.196,36.926,30.891,22.483,5.974,7.288,8.972
188,0.882,35.741,36.958,30.862,22.473,5.81,7.206,8.972
189,0.879,35.141,36.919,30.853,22.473,5.768,7.083,9.013
190,0.872,35.286,36.938,30.853,22.473,5.727,7.124,9.177
191,0.869,35.393,36.907,30.853,22.469,5.727,7.042,9.301
192,0.879,35.383,36.922,30.853,22.469,5.727,7.042,9.465
193,0.879,35.518,36.915,30.853,22.476,5.727,7.042,9.547
194,0.879,35.664,36.915,30.891,22.473,5.81,7.042,9.67
195,0.895,35.751,36.915,30.862,22.473,5.768,7.042,9.834
196,0.902,35.296,36.926,30.862,22.473,5.81,7.124,9.916
197,0.899,35.431,36.942,30.862,22.476,5.851,7.042,9.999
198,0.899,35.538,36.903,30.853,22.476,5.768,7.042,10.122
199,0.905,35.635,36.915,30.853,22.466,5.645,6.96,10.163
200,0.922,35.334,36.915,30.853,22.466,5.687,6.96,10.286
201,0.941,35.499,36.922,30.882,22.48,5.81,7.042,10.615
202,0.938,35.635,36.958,30.882,22.483,5.768,7.042,11.189
203,0.941,35.693,36.934,30.882,22.48,5.851,7.124,11.847
204,0.935,35.141,36.907,30.882,22.473,5.851,7.083,12.381
205,0.931,35.286,36.887,30.882,22.48,5.81,7.042,12.873
206,0.925,35.431,36.907,30.862,22.476,5.81,7.083,13.366
207,0.915,35.47,36.907,30.882,22.473,5.81,7.001,13.736
208,0.915,35.354,36.915,30.882,22.483,5.768,6.96,14.064
209,0.915,35.489,36.911,30.862,22.476,5.727,7.042,14.393
210,0.915,35.615,36.919,30.872,22.48,5.768,6.96,14.763
211,0.928,35.673,36.93,30.901,22.483,5.727,7.001,15.091
212,0.925,35.373,36.95,30.901,22.494,5.933,7.042,15.42
213,0.928,35.489,36.926,30.911,22.49,5.892,7.124,15.625
214,0.931,35.586,36.93,30.891,22.473,5.81,7.001,15.666
215,0.935,35.916,36.867,30.872,22.473,5.727,6.96,15.666
216,0.941,35.276,36.93,30.853,22.466,5.768,6.96,15.666
217,0.945,35.373,36.887,30.862,22.469,5.687,6.96,15.789
218,0.948,35.499,36.899,30.872,22.466,5.645,6.877,15.707
219,0.958,35.373,36.922,30.882,22.48,5.687,6.96,15.83
220,0.961,35.431,36.891,30.853,22.473,5.81,6.919,15.953
221,0.964,35.567,36.919,30.853,22.48,5.768,6.877,15.912
222,0.987,35.664,36.934,30.872,22.473,5.851,6.919,15.953
223,0.994,35.247,36.919,30.882,22.476,5.81,7.001,15.871
224,0.984,35.364,36.899,30.862,22.469,5.768,6.919,15.83
225,0.977,35.499,36.887,30.882,22.462,5.768,6.795,15.625
226,0.991,35.615,36.915,30.882,22.466,5.81,6.919,15.625
227,0.997,35.325,36.938,30.901,22.483,5.851,6.96,15.625
228,0.984,35.47,36.915,30.901,22.48,5.933,7.083,15.543
229,0.977,35.596,36.93,30.882,22.48,5.892,7.124,15.461
230,0.977,35.664,36.926,30.891,22.48,5.851,7.083,15.42
231,0.971,35.276,36.934,30.92,22.48,5.892,7.124,15.502
232,0.971,35.422,36.942,30.901,22.48,5.851,7.083,15.42
233,0.977,35.538,36.922,30.901,22.48,5.974,7.206,15.378
234,0.977,35.615,36.938,30.901,22.48,5.933,7.165,15.214
235,0.991,35.267,36.899,30.891,22.476,5.974,7.206,15.091
236,1.014,35.412,36.926,30.911,22.476,5.933,7.124,15.05
237,1.017,35.548,36.926,30.92,22.49,6.015,7.247,15.009
238,1.033,35.557,36.926,30.92,22.483,5.974,7.288,14.968
239,1.027,35.238,36.911,30.882,22.48,5.892,7.247,14.722
240,1.033,35.373,36.919,30.891,22.473,5.768,7.206,14.516
241,1.046,35.499,36.907,30.862,22.473,5.81,7.124,14.27
242,1.063,35.518,36.922,30.882,22.469,5.851,7.124,14.146
243,1.069,35.276,36.907,30.882,22.473,5.851,7.124,13.982
244,1.069,35.431,36.911,30.93,22.476,5.851,7.083,13.9
245,1.06,35.538,36.903,30.882,22.476,5.851,7.206,13.695
246,1.05,35.364,36.95,30.891,22.48,5.851,7.165,13.613
247,1.063,35.296,36.93,30.901,22.469,5.892,7.165,13.571
248,1.05,35.412,36.93,30.882,22.473,5.974,7.165,13.325
249,1.046,35.499,36.926,30.853,22.466,5.727,7.083,13.202
250,1.04,35.315,36.895,30.872,22.469,5.727,7.083,12.956
251,1.04,35.451,36.903,30.901,22.48,5.81,7.083,12.873
252,1.063,35.577,36.926,30.901,22.48,5.851,7.165,12.709
253,1.076,35.664,36.954,30.911,22.48,5.892,7.165,12.586
254,1.079,35.315,36.871,30.92,22.483,5.851,7.165,12.463
255,1.092,35.46,36.915,30.911,22.48,5.851,7.165,12.298
256,1.096,35.586,36.938,30.911,22.483,5.851,7.206,12.134
257,1.096,35.654,36.938,30.92,22.476,5.851,7.124,12.052
258,1.122,35.509,36.919,30.901,22.487,5.81,7.124,11.888
259,1.132,35.644,36.942,30.911,22.48,5.81,7.124,11.764
260,1.138,35.77,36.919,30.891,22.476,5.81,7.042,11.6
261,1.142,35.857,36.93,30.901,22.48,5.81,7.083,11.518
262,1.145,35.451,36.93,30.92,22.476,5.768,7.083,11.477
263,1.161,35.606,36.922,30.95,22.487,5.892,7.042,11.477
264,1.161,35.732,36.938,30.94,22.494,5.892,7.206,11.436
265,1.145,35.751,36.919,30.901,22.48,5.892,7.042,11.518
266,1.145,35.441,36.946,30.891,22.473,5.768,7.083,11.313
267,1.148,35.586,36.891,30.901,22.473,5.727,7.042,11.272
268,1.145,35.702,36.93,30.882,22.473,5.687,6.96,11.108
269,1.148,35.732,36.907,30.891,22.476,5.687,7.001,10.943
270,1.148,35.683,36.922,30.882,22.469,5.727,7.001,10.984
271,1.135,35.809,36.911,30.901,22.48,5.727,7.083,11.025
272,1.145,35.925,36.891,30.93,22.469,5.727,7.124,10.943
273,1.152,35.848,36.922,30.911,22.483,5.727,7.083,10.902
274,1.168,35.625,36.828,30.92,22.483,5.727,7.042,10.943
275,1.184,35.751,36.899,30.901,22.473,5.727,7.083,10.943
276,1.191,35.848,36.922,30.901,22.466,5.563,6.96,10.779
277,1.211,35.799,36.922,30.901,22.466,5.687,7.001,10.82
278,1.234,35.925,36.926,30.911,22.48,5.727,7.042,10.902
279,1.237,36.051,36.915,30.92,22.48,5.727,7.165,10.861
280,1.234,36.138,36.946,30.93,22.48,5.768,7.165,10.902
281,1.25,35.722,36.926,30.92,22.483,5.727,7.165,10.82
282,1.267,35.857,36.911,30.93,22.476,5.727,7.206,10.738
283,1.286,35.974,36.958,30.92,22.476,5.727,7.124,10.656
284,1.293,36.061,36.824,30.92,22.48,5.727,7.083,10.615
285,1.267,35.935,36.919,30.93,22.476,5.687,7.165,10.656
286,1.247,36.051,36.93,30.92,22.48,5.687,7.206,10.615
287,1.253,36.167,36.911,30.92,22.476,5.687,7.206,10.532
288,1.263,36.284,36.962,30.93,22.48,5.687,7.124,10.45
289,1.267,36.226,36.934,30.93,22.494,5.81,7.247,10.45
290,1.257,36.351,36.962,30.93,22.483,5.727,7.329,10.491
291,1.247,36.458,36.919,30.94,22.473,5.645,7.37,10.491
292,1.253,36.487,36.871,30.92,22.473,5.645,7.206,10.491
293,1.267,36.245,36.934,30.911,22.48,5.604,7.247,10.45
294,1.28,36.381,36.867,30.911,22.473,5.604,7.206,10.491
295,1.296,36.516,36.899,30.92,22.469,5.687,7.206,10.491
296,1.303,36.526,36.887,30.93,22.469,5.604,7.247,10.615
297,1.309,36.322,36.879,30.93,22.48,5.645,7.206,10.491
298,1.303,36.468,36.922,30.93,22.473,5.645,7.288,10.615
299,1.299,36.574,36.895,30.92,22.473,5.604,7.206,10.574
300,1.313,36.933,36.919,30.94,22.476,5.645,7.206,10.574
301,1.326,36.555,36.879,30.959,22.473,5.645,7.165,10.491
302,1.336,36.69,36.883,30.891,22.462,5.522,7.083,10.368
303,1.352,36.807,36.974,30.92,22.466,5.522,7.124,10.327
304,1.342,36.749,36.907,30.94,22.476,5.563,7.165,10.327
305,1.336,36.836,36.926,30.95,22.483,5.645,7.206,10.368
306,1.313,36.981,36.899,30.93,22.476,5.687,7.206,10.327
307,1.313,37.059,36.95,30.959,22.48,5.645,7.247,10.409
308,1.299,36.778,36.926,30.93,22.476,5.645,7.247,10.491
309,1.273,36.923,36.907,30.95,22.473,5.645,7.165,10.615
310,1.257,37.02,36.922,30.93,22.473,5.563,7.124,10.738
311,1.237,37.126,36.915,30.93,22.48,5.687,7.124,10.861
312,1.227,36.904,36.934,30.95,22.48,5.563,7.124,10.984
313,1.227,37.02,36.938,30.94,22.476,5.604,7.124,11.066
314,1.224,37.175,36.848,30.969,22.483,5.604,7.083,11.189
315,1.224,37.243,36.926,30.969,22.483,5.687,7.083,11.189
316,1.227,37.088,36.938,30.979,22.49,5.768,7.247,11.313
317,1.207,37.204,36.915,30.959,22.487,5.687,7.206,11.395
318,1.204,37.32,36.938,30.94,22.476,5.604,7.124,11.231
319,1.198,37.378,36.891,30.94,22.469,5.563,7.083,11.272
320,1.194,37.126,36.934,30.95,22.476,5.604,7.001,11.313
321,1.217,37.272,36.895,30.94,22.473,5.522,7.083,11.559
322,1.198,37.388,36.911,30.94,22.473,5.563,7.042,12.093
323,1.194,37.417,36.934,30.94,22.466,5.604,7.083,12.504
324,1.181,37.223,36.859,30.95,22.473,5.604,7.083,12.956
325,1.155,37.359,36.911,30.95,22.48,5.604,7.124,13.448
326,1.142,37.456,36.922,30.959,22.48,5.604,7.083,13.859
327,1.119,37.456,36.93,30.959,22.476,5.645,7.124,14.228
328,1.102,37.417,36.922,30.93,22.466,5.563,7.083,14.516
329,1.083,37.562,36.907,30.92,22.466,5.522,7.001,14.639
330,1.083,37.669,36.95,30.95,22.473,5.645,7.083,14.803
331,1.066,37.543,36.926,30.95,22.48,5.645,7.165,14.968
332,1.063,37.514,36.891,30.969,22.483,5.727,7.288,15.009
333,1.05,37.64,36.986,30.969,22.483,5.727,7.329,15.05
334,1.043,37.698,36.859,30.979,22.48,5.604,7.206,14.927
335,1.043,37.417,36.887,30.969,22.48,5.687,7.206,14.927
336,1.04,37.543,36.891,30.969,22.473,5.645,7.247,14.763
337,1.03,37.659,36.938,30.959,22.48,5.645,7.206,14.68
338,1.03,37.737,36.93,30.969,22.483,5.727,7.247,14.598
339,1.03,37.446,36.942,30.979,22.48,5.687,7.206,14.434
340,1.037,37.591,36.938,30.979,22.473,5.645,7.165,14.434
341,1.033,37.737,36.938,30.979,22.483,5.645,7.206,14.188
342,1.01,37.814,36.942,31.008,22.487,5.768,7.288,14.188
343,0.994,37.485,36.946,30.988,22.49,5.81,7.329,14.064
344,0.987,37.64,36.836,30.979,22.473,5.645,7.206,13.9
345,0.954,37.727,36.855,30.95,22.469,5.604,7.083,13.695
346,0.948,37.804,36.895,30.95,22.473,5.522,7.083,13.448
347,0.925,37.553,36.891,30.95,22.473,5.563,7.083,13.284
348,0.905,37.698,36.926,30.959,22.476,5.563,7.083,13.12
349,0.895,37.804,36.93,30.969,22.473,5.563,7.124,12.915
350,0.882,37.843,36.922,30.959,22.469,5.604,7.083,12.873
351,0.872,37.678,36.922,30.959,22.476,5.645,7.083,12.75
352,0.869,37.824,36.93,30.959,22.48,5.687,7.206,12.668
353,0.859,37.921,36.919,30.969,22.476,5.645,7.124,12.586
354,0.853,37.911,36.899,30.95,22.466,5.604,7.042,12.709
355,0.866,38.201,36.887,30.95,22.462,5.522,7.001,12.668
356,0.872,38.337,36.93,30.959,22.473,5.563,6.96,12.627
357,0.862,38.444,36.907,30.988,22.48,5.604,7.083,12.75
358,0.872,37.988,36.911,31.008,22.48,5.645,7.083,12.873
359,0.869,37.368,36.938,31.008,22.487,5.687,7.083,12.873
360,0.866,37.523,36.922,30.988,22.483,5.645,7.124,12.873
361,0.876,37.611,36.938,30.988,22.48,5.687,7.124,12.873
362,0.862,37.582,36.93,30.998,22.483,5.687,7.042,12.791
363,0.856,37.707,36.926,30.988,22.48,5.687,7.124,12.75
364,0.839,37.833,36.875,31.017,22.473,5.645,6.96,12.709
365,0.826,37.911,36.859,30.988,22.48,5.645,7.083,12.627
366,0.81,37.553,36.922,30.979,22.48,5.687,7.042,12.545
367,0.82,37.727,36.934,30.998,22.483,5.645,7.001,12.339
368,0.82,37.853,36.919,31.017,22.497,5.768,7.124,12.381
369,0.813,37.882,36.919,31.008,22.487,5.727,7.165,12.257
370,0.8,37.698,36.93,30.979,22.48,5.604,7.042,12.134
371,0.797,37.853,36.859,31.008,22.476,5.645,7.001,11.888
372,0.8,37.969,36.899,30.979,22.469,5.522,6.96,11.806
373,0.8,38.008,36.938,30.988,22.469,5.563,6.96,11.723
374,0.8,37.465,36.907,30.988,22.473,5.604,6.919,11.559
375,0.816,37.63,36.883,30.988,22.476,5.604,7.001,11.436
376,0.826,37.746,36.899,30.988,22.473,5.645,7.001,11.354
377,0.82,37.775,36.922,30.988,22.476,5.604,7.042,11.313
378,0.83,37.523,36.903,30.998,22.48,5.604,7.042,11.189
379,0.833,37.63,36.915,30.988,22.48,5.645,7.042,11.066
380,0.833,37.737,36.915,30.988,22.476,5.687,7.083,11.025
381,0.826,37.766,36.875,30.979,22.466,5.563,7.001,10.82
382,0.813,37.678,36.907,30.998,22.476,5.687,7.083,10.82
383,0.8,37.804,36.934,31.017,22.48,5.727,7.206,10.861
384,0.8,37.911,36.938,31.037,22.476,5.81,7.206,10.82
385,0.777,38.221,36.895,31.008,22.483,5.81,7.247,10.82
386,0.78,37.698,36.887,31.008,22.473,5.768,7.206,10.82
387,0.784,37.833,36.93,31.008,22.48,5.81,7.288,10.656
388,0.751,37.921,36.911,31.017,22.487,5.727,7.288,10.656
389,0.751,37.562,36.915,31.017,22.48,5.727,7.288,10.574
390,0.754,37.582,36.922,31.027,22.476,5.81,7.247,10.491
391,0.731,37.698,36.895,31.037,22.48,5.851,7.288,10.491
392,0.731,37.804,36.867,31.017,22.48,5.768,7.288,10.491
393,0.731,37.562,36.942,31.017,22.48,5.81,7.206,10.45
394,0.734,37.688,36.938,31.046,22.494,5.851,7.329,10.45
395,0.744,37.804,36.883,31.085,22.487,5.974,7.329,10.574
396,0.744,37.853,36.907,31.027,22.473,5.768,7.288,10.491
397,0.747,37.301,36.911,31.017,22.476,5.687,7.165,10.409
398,0.767,37.446,36.899,31.017,22.469,5.727,7.165,10.327
399,0.767,37.562,36.911,30.998,22.469,5.687,7.124,10.245
400,0.78,37.649,36.891,31.017,22.473,5.727,7.165,10.368
401,0.787,37.504,36.867,30.998,22.473,5.768,7.165,10.245
402,0.797,37.64,36.915,31.008,22.476,5.81,7.206,10.327
403,0.784,37.756,36.922,31.017,22.473,5.81,7.165,10.286
404,0.774,37.804,36.958,31.008,22.48,5.81,7.165,10.245
405,0.754,37.446,36.879,31.037,22.476,5.81,7.206,10.245
406,0.754,37.601,36.891,31.008,22.473,5.768,7.124,10.122
407,0.761,37.698,36.903,31.037,22.466,5.645,7.042,9.999
408,0.757,37.775,36.907,31.037,22.476,5.768,7.083,9.957
409,0.754,37.33,36.922,31.046,22.483,5.851,7.206,10.04
410,0.747,37.465,36.93,31.056,22.476,5.892,7.165,10.04
411,0.728,37.562,36.859,31.056,22.48,5.851,7.165,10.081
412,0.744,37.572,36.907,31.056,22.483,5.892,7.124,10.04
413,0.744,37.514,36.922,31.075,22.48,5.81,7.124,9.957
414,0.741,37.64,36.93,31.046,22.48,5.81,7.124,9.999
415,0.757,37.737,36.828,31.056,22.48,5.892,7.083,9.957
416,0.764,37.485,36.891,31.046,22.476,5.892,7.124,9.999
417,0.761,37.427,36.954,31.056,22.476,5.81,7.083,9.999
418,0.79,37.572,36.919,31.056,22.476,5.892,7.165,9.957
419,0.797,37.688,36.922,31.095,22.487,5.933,7.206,9.916
420,0.79,37.204,36.954,31.066,22.483,5.892,7.329,10.04
421,0.793,37.31,36.871,31.066,22.487,5.974,7.37,10.04
422,0.793,37.407,36.875,31.037,22.473,5.768,7.329,10.163
423,0.777,37.475,36.93,31.017,22.473,5.81,7.288,10.245
424,0.78,37.378,36.926,31.027,22.469,5.768,7.37,10.409
425,0.761,37.514,36.824,31.056,22.469,5.768,7.452,10.615
426,0.761,37.64,36.907,31.046,22.473,5.81,7.411,10.861
427,0.764,37.717,36.903,31.046,22.473,5.851,7.452,11.231
428,0.754,37.272,36.938,31.056,22.473,5.81,7.494,11.436
429,0.764,37.407,36.919,31.056,22.476,5.851,7.534,11.723
430,0.754,37.514,36.946,31.046,22.469,5.851,7.575,11.888
431,0.731,37.572,36.848,31.046,22.476,5.81,7.494,12.175
432,0.744,37.117,36.879,31.046,22.473,5.768,7.452,12.134
433,0.744,37.272,36.938,31.046,22.466,5.768,7.452,12.216
434,0.751,37.388,36.93,31.066,22.48,5.81,7.494,12.463
435,0.767,37.436,36.863,31.095,22.48,5.851,7.534,12.504
436,0.79,37.417,36.867,31.095,22.483,5.851,7.575,12.504
437,0.8,37.543,36.871,31.095,22.476,5.892,7.534,12.381
438,0.793,37.63,36.879,31.095,22.48,5.892,7.534,12.422
439,0.787,37.64,36.895,31.085,22.483,5.851,7.494,12.381
440,0.787,37.155,36.93,31.085,22.473,5.81,7.534,12.381
441,0.784,37.272,36.907,31.085,22.48,5.81,7.452,12.627
442,0.8,37.388,36.875,31.075,22.48,5.81,7.411,12.956
443,0.797,37.368,36.962,31.085,22.48,5.851,7.452,13.284
444,0.8,37.272,36.907,31.085,22.487,5.81,7.452,13.695
445,0.78,37.436,36.911,31.153,22.487,5.933,7.411,14.064
446,0.777,37.485,36.907,31.095,22.487,5.974,7.575,14.516
447,0.793,37.194,36.911,31.104,22.476,5.892,7.452,14.722
448,0.79,37.272,36.891,31.085,22.469,5.81,7.37,14.927
449,0.777,37.398,36.903,31.066,22.469,5.81,7.329,15.091
450,0.774,37.485,36.934,31.085,22.466,5.768,7.288,15.255
451,0.761,37.029,36.859,31.085,22.473,5.81,7.329,15.461
452,0.754,37.175,36.903,31.104,22.473,5.851,7.288,15.502
453,0.744,37.291,36.954,31.085,22.476,5.851,7.247,15.707
454,0.741,37.359,36.938,31.085,22.473,5.81,7.247,15.748
455,0.774,37.146,36.781,31.104,22.476,5.851,7.288,15.748
456,0.793,37.281,36.875,31.085,22.473,5.933,7.206,15.666
457,0.823,37.407,36.871,31.104,22.48,5.892,7.288,15.666
458,0.813,37.446,36.879,31.085,22.476,5.851,7.288,15.625
459,0.826,37.175,36.875,31.075,22.466,5.81,7.206,15.42
460,0.839,37.32,36.899,31.095,22.469,5.851,7.206,15.338
461,0.856,37.446,36.899,31.104,22.483,5.851,7.288,15.255
462,0.853,37.523,36.907,31.104,22.48,5.933,7.37,15.091
463,0.836,37.117,36.934,31.095,22.48,5.933,7.37,14.968
464,0.826,37.243,36.93,31.124,22.476,5.851,7.37,14.803
465,0.8,37.359,36.899,31.095,22.48,5.892,7.329,14.598
466,0.803,37.407,36.895,31.133,22.483,5.851,7.37,14.311
467,0.787,37.097,36.887,31.124,22.48,5.81,7.329,14.146
468,0.77,37.223,36.911,31.114,22.487,5.892,7.411,13.941
469,0.79,37.33,36.907,31.095,22.476,5.851,7.288,13.777
470,0.787,37.601,36.95,31.095,22.48,5.81,7.37,13.448
471,0.784,37.223,36.903,31.153,22.483,5.851,7.411,13.325
472,0.774,37.359,36.891,31.133,22.487,6.015,7.534,13.202
473,0.77,37.436,36.962,31.133,22.48,5.933,7.411,12.996
474,0.744,37.155,36.891,31.095,22.476,5.851,7.37,12.75
475,0.738,37.194,36.844,31.104,22.473,5.81,7.288,12.463
476,0.767,37.32,36.907,31.104,22.473,5.768,7.288,12.339
477,0.774,37.407,36.891,31.095,22.469,5.81,7.206,12.216
478,0.787,37.049,36.915,31.104,22.48,5.851,7.206,12.216
479,0.79,37.204,36.903,31.114,22.476,5.851,7.288,12.216
480,0.813,37.301,36.934,31.114,22.476,5.933,7.247,12.216
481,0.82,37.378,36.891,31.095,22.473,5.974,7.288,12.134
482,0.813,36.942,36.895,31.104,22.476,5.974,7.247,12.134
483,0.8,37.088,36.883,31.085,22.473,5.933,7.247,12.134
484,0.797,37.184,36.926,31.095,22.466,5.974,7.206,12.175
485,0.79,37.252,36.867,31.095,22.473,5.892,7.124,11.97
486,0.79,37.049,36.867,31.104,22.473,5.974,7.083,11.806
487,0.8,37.204,36.891,31.124,22.476,6.097,7.247,11.888
488,0.793,37.349,36.903,31.124,22.48,6.056,7.288,11.764
489,0.78,37.398,36.911,31.143,22.48,6.097,7.288,11.723
490,0.79,37.407,36.934,31.133,22.483,6.056,7.288,11.641
491,0.79,37.533,36.859,31.133,22.48,6.138,7.288,11.559
492,0.78,37.649,36.891,31.133,22.487,6.056,7.37,11.395
493,0.777,37.688,36.911,31.133,22.483,6.056,7.165,11.354
494,0.784,36.962,36.922,31.133,22.473,6.179,7.247,11.272
495,0.79,37.088,36.879,31.124,22.476,6.097,7.247,11.272
496,0.807,37.214,36.887,31.133,22.476,6.138,7.206,11.272
497,0.839,37.272,36.915,31.153,22.48,6.22,7.206,11.189
498,0.839,37.107,36.907,31.162,22.487,6.343,7.288,11.395
499,0.833,37.214,36.922,31.153,22.487,6.262,7.288,11.477
500,0.823,37.31,36.899,31.143,22.476,6.179,7.165,11.395
501,0.826,37.184,36.903,31.124,22.469,6.262,7.083,11.272
502,0.83,37.214,36.899,31.114,22.473,6.097,7.042,11.231
503,0.836,37.339,36.895,31.133,22.469,6.262,7.083,11.272
504,0.826,37.436,36.942,31.133,22.473,6.179,7.042,11.313
505,0.813,36.836,36.883,31.143,22.469,6.302,7.001,11.354
506,0.813,36.952,36.761,31.162,22.473,6.262,7.042,11.354
507,0.807,37.068,36.859,31.133,22.476,6.302,7.124,11.395
508,0.787,37.155,36.899,31.133,22.48,6.343,7.165,11.436
509,0.78,36.991,36.899,31.114,22.476,6.302,7.206,11.395
510,0.787,37.146,36.891,31.124,22.469,6.22,7.206,11.272
511,0.78,37.281,36.899,31.143,22.469,6.343,7.288,11.354
512,0.79,37.368,36.903,31.162,22.48,6.385,7.452,11.354
513,0.793,36.991,36.863,31.162,22.483,6.467,7.494,11.395
514,0.793,37.117,36.938,31.172,22.483,6.426,7.575,11.313
515,0.807,37.233,36.922,31.182,22.483,6.426,7.617,11.354
516,0.807,37.291,36.8,31.153,22.476,6.549,7.74,11.272
517,0.81,37.02,36.887,31.162,22.48,6.467,7.699,11.313
518,0.816,37.155,36.859,31.162,22.476,6.508,7.74,11.149
519,0.81,37.272,36.907,31.172,22.48,6.467,7.699,11.066
520,0.803,37.31,36.915,31.162,22.48,6.508,7.699,10.984
521,0.82,36.962,36.919,31.153,22.483,6.467,7.781,10.943
522,0.849,37.146,36.922,31.172,22.48,6.385,7.822,10.861
523,0.859,37.272,36.911,31.182,22.494,6.631,7.781,10.902
524,0.839,37.262,36.962,31.192,22.494,6.672,7.986,11.066
525,0.823,36.981,36.934,31.182,22.483,6.508,7.904,11.108
526,0.813,37.078,36.82,31.172,22.473,6.343,7.781,11.025
527,0.803,37.184,36.891,31.153,22.469,6.426,7.781,10.943
528,0.793,37.146,36.859,31.162,22.473,6.343,7.699,11.025
529,0.787,37.088,36.879,31.153,22.469,6.343,7.781,10.984
530,0.8,37.204,36.911,31.162,22.476,6.385,7.74,11.025
531,0.807,37.301,36.887,31.153,22.469,6.385,7.699,10.984
532,0.803,36.942,36.887,31.182,22.473,6.426,7.699,10.984
533,0.793,37.029,36.891,31.182,22.476,6.426,7.74,10.902
534,0.807,37.146,36.97,31.182,22.48,6.385,7.74,10.943
535,0.816,37.214,36.903,31.172,22.476,6.385,7.699,10.861
536,0.826,36.816,36.899,31.153,22.462,6.385,7.658,10.779
537,0.839,36.971,36.875,31.153,22.466,6.262,7.575,10.615
538,0.836,37.107,36.887,31.182,22.476,6.385,7.617,10.697
539,0.833,37.184,36.895,31.201,22.48,6.467,7.74,10.738
540,0.833,36.942,36.887,31.192,22.487,6.467,7.74,10.82
541,0.833,37.059,36.867,31.192,22.487,6.467,7.74,10.902
542,0.833,37.175,36.887,31.192,22.483,6.426,7.658,10.861
543,0.833,37.252,36.93,31.192,22.48,6.467,7.617,10.902
544,0.813,36.778,36.954,31.201,22.48,6.508,7.617,10.861
545,0.803,36.904,36.887,31.201,22.48,6.426,7.575,10.861
546,0.803,37.039,36.883,31.201,22.476,6.426,7.575,10.82
547,0.787,37.088,36.899,31.201,22.48,6.426,7.534,10.82
548,0.784,36.923,36.899,31.201,22.483,6.426,7.534,10.861
549,0.793,37.088,36.926,31.23,22.483,6.508,7.575,10.779
550,0.787,37.175,36.919,31.23,22.494,6.549,7.658,10.861
551,0.787,37.184,36.891,31.221,22.48,6.549,7.617,10.82
552,0.777,36.778,36.855,31.221,22.48,6.467,7.658,10.779
553,0.774,36.913,36.899,31.182,22.476,6.385,7.534,10.574
554,0.78,37.0,36.934,31.192,22.469,6.343,7.575,10.45
555,0.803,37.204,36.875,31.192,22.473,6.302,7.617,10.327
556,0.793,36.884,36.922,31.192,22.473,6.302,7.617,10.409
557,0.8,37.02,36.891,31.192,22.48,6.262,7.617,10.245
558,0.797,37.117,36.907,31.192,22.476,6.343,7.74,10.245
559,0.803,36.778,36.891,31.201,22.48,6.343,7.699,10.204
560,0.81,36.807,36.919,31.201,22.469,6.343,7.822,10.286
561,0.82,36.913,36.895,31.201,22.48,6.302,7.699,10.368
562,0.813,37.02,36.899,31.192,22.476,6.343,7.781,10.491
563,0.82,36.72,36.911,31.192,22.473,6.262,7.74,10.779
564,0.81,36.884,36.899,31.182,22.469,6.262,7.617,11.066
565,0.8,37.01,36.879,31.221,22.473,6.302,7.699,11.559
566,0.807,37.117,36.891,31.221,22.48,6.302,7.863,11.806
567,0.8,36.729,36.875,31.23,22.483,6.343,7.863,12.216
568,0.793,36.865,36.93,31.23,22.48,6.302,7.781,12.463
569,0.8,37.0,36.891,31.23,22.483,6.302,7.863,12.668
570,0.797,37.078,36.895,31.23,22.48,6.262,7.781,12.873
571,0.78,36.816,36.899,31.211,22.483,6.302,7.822,12.956
572,0.78,36.962,36.895,31.221,22.476,6.262,7.822,13.079
573,0.787,37.088,36.93,31.211,22.476,6.262,7.781,13.038
574,0.8,37.126,36.891,31.23,22.48,6.302,7.781,13.202
575,0.813,36.652,36.891,31.221,22.476,6.302,7.781,13.12
576,0.82,36.845,36.8,31.25,22.48,6.302,7.699,13.202
577,0.82,36.952,36.907,31.269,22.487,6.385,7.863,13.284
578,0.816,36.971,36.907,31.259,22.49,6.385,7.822,13.284
579,0.81,36.807,36.891,31.24,22.483,6.22,7.781,13.325
580,0.807,36.923,36.891,31.211,22.469,6.22,7.658,13.243
581,0.813,37.01,36.922,31.192,22.466,6.138,7.658,13.202
582,0.813,37.059,36.903,31.221,22.469,6.138,7.699,13.202
583,0.82,36.797,36.855,31.23,22.476,6.22,7.658,13.243
584,0.82,36.923,36.922,31.211,22.469,6.179,7.74,13.243
585,0.807,37.029,36.911,31.24,22.476,6.22,7.822,13.325
586,0.803,36.836,36.808,31.23,22.48,6.179,7.781,13.407
587,0.787,36.807,36.855,31.24,22.476,6.138,7.863,13.366
588,0.787,36.952,36.875,31.23,22.48,6.22,7.945,13.448
589,0.774,37.02,36.903,31.288,22.48,6.138,7.863,13.49
590,0.767,36.71,36.879,31.221,22.473,6.138,7.904,13.448
591,0.754,36.855,36.899,31.221,22.466,6.015,7.822,13.366
592,0.754,36.991,36.863,31.25,22.473,6.056,7.822,13.243
593,0.757,37.088,36.863,31.24,22.476,6.179,7.904,13.366
594,0.787,36.7,36.938,31.259,22.48,6.22,7.945,13.49
595,0.79,36.836,36.926,31.25,22.476,6.179,7.945,13.571
596,0.78,36.952,36.859,31.269,22.48,6.179,7.945,13.613
597,0.787,37.039,36.895,31.25,22.483,6.138,7.945,13.736
598,0.79,36.816,36.895,31.259,22.48,6.097,8.027,13.777
599,0.79,36.991,36.891,31.298,22.48,6.138,8.15,13.9
600,0.8,37.078,36.899,31.25,22.476,6.015,8.15,13.859
601,0.8,37.117,36.95,31.25,22.476,6.097,8.192,13.859
602,0.803,36.7,36.824,31.259,22.476,6.056,8.233,13.777
603,0.823,36.855,36.883,31.24,22.476,6.056,8.192,13.777
604,0.82,36.991,36.922,31.279,22.476,6.138,8.233,13.736
605,0.807,37.039,36.958,31.288,22.49,6.22,8.397,13.736
606,0.793,36.807,36.879,31.259,22.48,6.179,8.397,13.654
607,0.777,36.942,36.895,31.259,22.483,6.097,8.356,13.49
608,0.764,37.029,36.871,31.24,22.473,6.015,8.274,13.284
609,0.747,37.059,36.84,31.25,22.473,5.974,8.274,13.161
610,0.757,36.845,36.875,31.23,22.473,6.015,8.233,12.956
611,0.747,36.981,36.934,31.269,22.469,5.974,8.274,12.956
612,0.764,37.088,36.851,31.269,22.473,6.015,8.274,12.832
613,0.764,36.942,36.859,31.279,22.473,6.056,8.274,12.709
614,0.787,36.807,36.919,31.269,22.473,5.974,8.274,12.545
615,0.807,36.923,36.93,31.288,22.476,5.974,8.192,12.463
616,0.807,37.02,36.907,31.269,22.473,6.015,8.274,12.463
617,0.807,36.671,36.875,31.269,22.476,5.974,8.274,12.422
618,0.797,36.768,36.891,31.259,22.466,5.892,8.192,12.381
619,0.784,36.884,36.871,31.279,22.466,5.974,8.109,12.422
620,0.816,37.0,36.907,31.279,22.48,5.974,8.233,12.545
621,0.82,36.661,36.95,31.269,22.483,6.015,8.192,12.545
622,0.807,36.826,36.848,31.288,22.476,5.974,8.274,12.668
623,0.81,36.923,36.907,31.288,22.487,5.974,8.233,12.627
624,0.803,37.01,36.915,31.288,22.483,6.015,8.274,12.709
625,0.8,36.642,36.938,31.288,22.483,5.933,8.233,12.709
626,0.8,36.768,36.915,31.288,22.48,5.892,8.192,12.668
627,0.784,36.904,36.875,31.269,22.483,5.974,8.15,12.586
628,0.774,36.962,36.895,31.288,22.476,5.933,8.109,12.586
629,0.77,36.71,36.883,31.288,22.476,5.933,8.109,12.463
630,0.79,36.874,36.875,31.288,22.48,5.974,8.027,12.422
631,0.787,36.981,36.95,31.317,22.483,6.056,8.109,12.463
632,0.78,37.029,36.832,31.337,22.49,6.097,8.069,12.463
633,0.764,36.758,36.899,31.308,22.487,6.097,8.027,12.422
634,0.761,36.874,36.891,31.308,22.483,6.015,7.945,12.298
635,0.774,36.991,36.954,31.288,22.473,6.015,7.945,12.134
636,0.777,37.0,36.891,31.279,22.469,5.933,7.863,12.093
637,0.774,36.836,36.899,31.288,22.473,5.892,7.863,11.97
638,0.78,36.971,36.922,31.279,22.469,5.974,7.822,12.093
639,0.8,37.068,36.891,31.288,22.48,6.015,7.781,12.134
640,0.81,37.136,36.891,31.288,22.473,6.056,7.822,12.093
641,0.8,36.671,36.887,31.288,22.473,6.056,7.863,12.093
642,0.82,36.836,36.895,31.288,22.476,6.138,7.904,12.093
643,0.816,36.913,36.879,31.298,22.473,6.179,7.945,12.093
644,0.8,36.71,36.907,31.288,22.466,6.138,7.781,11.929
645,0.793,36.807,36.883,31.288,22.469,6.056,7.699,11.888
646,0.78,36.942,36.848,31.327,22.473,6.179,7.699,11.764
647,0.78,37.049,36.891,31.317,22.487,6.262,7.822,11.888
648,0.78,36.603,36.946,31.327,22.476,6.302,7.822,11.929
649,0.793,36.739,36.903,31.317,22.483,6.385,7.781,11.929
650,0.777,36.865,36.895,31.327,22.483,6.385,7.822,11.929
651,0.764,36.923,36.93,31.337,22.476,6.385,7.822,12.093
652,0.77,36.787,36.879,31.317,22.487,6.426,7.74,12.298
653,0.764,36.923,36.895,31.327,22.476,6.426,7.74,12.381
654,0.764,37.039,36.899,31.327,22.48,6.343,7.699,12.422
655,0.78,37.097,36.919,31.317,22.476,6.343,7.658,12.545
656,0.797,36.594,36.867,31.346,22.48,6.385,7.575,12.668
657,0.81,36.778,36.887,31.346,22.469,6.385,7.617,12.709
658,0.81,36.904,36.922,31.366,22.494,6.426,7.575,12.75
659,0.81,36.971,36.938,31.366,22.487,6.59,7.699,12.832
660,0.816,36.816,36.891,31.327,22.48,6.426,7.575,12.709
661,0.807,36.952,36.859,31.308,22.473,6.426,7.494,12.586
662,0.823,37.068,36.879,31.317,22.48,6.343,7.452,12.422
663,0.826,37.097,36.895,31.308,22.473,6.302,7.411,12.339
664,0.807,36.613,36.907,31.317,22.469,6.302,7.37,12.298
665,0.8,36.739,36.871,31.308,22.473,6.343,7.37,12.298
666,0.793,36.874,36.895,31.327,22.469,6.302,7.329,12.134
667,0.797,36.952,36.895,31.346,22.476,6.302,7.329,12.093
668,0.797,36.807,36.907,31.327,22.476,6.385,7.329,12.052
669,0.79,36.923,36.875,31.346,22.473,6.385,7.329,12.011
670,0.774,37.01,36.883,31.327,22.476,6.343,7.288,11.847
671,0.761,36.69,36.879,31.298,22.469,6.262,7.206,11.764
672,0.767,36.681,36.883,31.337,22.466,6.22,7.206,11.477
673,0.77,36.826,36.903,31.346,22.476,6.262,7.206,11.559
674,0.774,36.942,36.915,31.346,22.483,6.302,7.329,11.477
675,0.777,36.778,36.915,31.375,22.483,6.385,7.37,11.436
676,0.774,36.904,36.836,31.356,22.487,6.343,7.37,11.518
677,0.787,37.02,36.855,31.366,22.48,6.343,7.411,11.6
678,0.793,37.097,36.875,31.356,22.48,6.385,7.37,11.806
679,0.797,36.613,36.867,31.346,22.476,6.302,7.37,12.011
680,0.807,36.739,36.891,31.375,22.476,6.302,7.411,12.175
681,0.816,36.845,36.958,31.346,22.476,6.262,7.329,12.298
682,0.833,36.913,36.891,31.414,22.476,6.262,7.37,12.545
683,0.826,36.661,36.899,31.356,22.476,6.22,7.411,12.668
684,0.82,36.807,36.907,31.366,22.483,6.302,7.37,12.956
685,0.816,36.933,36.97,31.395,22.483,6.343,7.37,13.284
686,0.807,36.991,36.867,31.395,22.49,6.385,7.494,13.531
687,0.787,36.526,36.895,31.385,22.487,6.426,7.534,13.695
688,0.774,36.642,36.895,31.375,22.48,6.22,7.411,13.9
689,0.78,36.749,36.859,31.366,22.476,6.138,7.37,13.982
690,0.774,36.797,36.879,31.346,22.473,6.22,7.329,13.982
691,0.767,36.778,36.926,31.346,22.476,6.138,7.329,14.188
692,0.761,36.913,36.875,31.356,22.476,6.138,7.329,14.27
693,0.751,37.029,36.875,31.366,22.473,6.138,7.288,14.352
694,0.747,37.059,36.934,31.366,22.476,6.22,7.37,14.352
695,0.767,36.594,36.93,31.366,22.469,6.179,7.37,14.311
696,0.757,36.729,36.824,31.366,22.473,6.138,7.37,14.311
697,0.774,36.826,36.887,31.366,22.473,6.179,7.37,14.352
698,0.774,36.787,36.891,31.385,22.473,6.138,7.411,14.27
699,0.774,36.729,36.844,31.346,22.473,6.015,7.288,14.105
700,0.787,36.894,36.875,31.366,22.473,6.056,7.247,13.982
701,0.793,36.981,36.911,31.375,22.48,6.138,7.37,13.859
702,0.803,36.555,36.891,31.404,22.483,6.097,7.37,13.859
703,0.81,36.652,36.875,31.395,22.48,6.138,7.494,13.654
704,0.807,36.758,36.922,31.395,22.487,6.138,7.37,13.571
705,0.793,36.855,36.954,31.395,22.487,6.138,7.452,13.407
706,0.79,36.574,36.851,31.385,22.48,6.097,7.37,13.325
707,0.78,36.71,36.879,31.385,22.476,6.097,7.411,13.12
708,0.764,36.826,36.895,31.395,22.476,6.056,7.37,13.079
709,0.754,36.894,36.844,31.395,22.48,6.097,7.37,12.956
710,0.761,36.477,36.879,31.404,22.476,6.015,7.411,12.873
711,0.764,36.642,36.922,31.414,22.473,6.097,7.452,12.791
712,0.757,36.787,36.875,31.404,22.487,6.138,7.452,12.75
713,0.751,36.845,36.895,31.424,22.494,6.262,7.534,12.668
714,0.754,36.555,36.891,31.414,22.48,6.138,7.411,12.545
715,0.767,36.681,36.93,31.385,22.473,6.056,7.411,12.339
716,0.767,36.778,36.879,31.366,22.466,6.015,7.37,12.216
717,0.78,36.816,36.899,31.404,22.476,5.974,7.329,12.093
718,0.784,36.506,36.879,31.375,22.469,5.974,7.288,11.97
719,0.793,36.642,36.907,31.443,22.469,6.056,7.329,11.847
720,0.8,36.768,36.895,31.395,22.473,6.015,7.247,11.806
721,0.813,36.807,36.922,31.395,22.476,6.015,7.288,11.806
722,0.823,36.487,36.899,31.443,22.48,5.974,7.37,11.847
723,0.833,36.632,36.891,31.395,22.473,5.974,7.288,11.723
724,0.807,36.739,36.911,31.395,22.476,6.015,7.329,11.683
725,0.79,36.768,36.895,31.375,22.466,5.974,7.206,11.723
726,0.793,36.439,36.848,31.385,22.466,5.851,7.165,11.6
727,0.784,36.594,36.871,31.404,22.473,5.933,7.165,11.518
728,0.777,36.71,36.911,31.414,22.483,6.056,7.206,11.559
729,0.774,36.487,36.911,31.404,22.476,6.097,7.288,11.518
730,0.784,36.555,36.907,31.424,22.473,6.097,7.165,11.477
731,0.774,36.661,36.938,31.434,22.48,6.138,7.288,11.436
732,0.777,36.758,36.875,31.472,22.473,6.056,7.206,11.313
733,0.777,36.381,36.879,31.404,22.483,6.097,7.329,11.231
734,0.784,36.487,36.875,31.404,22.483,6.056,7.206,11.066
735,0.8,36.613,36.891,31.424,22.48,6.138,7.206,11.025
736,0.793,36.7,36.788,31.424,22.48,6.056,7.288,11.025
737,0.81,36.332,36.844,31.424,22.48,6.097,7.288,10.861
738,0.816,36.477,36.883,31.463,22.487,6.097,7.206,10.82
739,0.803,36.613,36.926,31.463,22.487,6.262,7.37,10.943
740,0.797,36.652,36.891,31.453,22.487,6.179,7.329,11.066
741,0.8,36.381,36.895,31.434,22.473,6.097,7.288,11.066
742,0.803,36.526,36.887,31.404,22.476,6.056,7.206,11.066
743,0.793,36.652,36.879,31.424,22.476,6.056,7.165,11.149
744,0.787,36.69,36.926,31.424,22.469,6.056,7.206,11.231
745,0.787,36.255,36.871,31.424,22.473,6.056,7.165,11.189
746,0.797,36.429,36.879,31.424,22.476,6.015,7.165,11.272
747,0.761,36.545,36.875,31.434,22.473,6.015,7.247,11.313
748,0.797,36.574,36.875,31.443,22.473,6.097,7.206,11.313
749,0.813,36.4,36.895,31.434,22.48,6.138,7.165,11.313
750,0.8,36.516,36.871,31.443,22.48,6.138,7.206,11.231
751,0.807,36.623,36.911,31.434,22.483,6.179,7.206,11.231
752,0.807,36.865,36.911,31.424,22.476,6.056,7.165,11.231
753,0.813,36.245,36.855,31.424,22.469,6.015,7.083,11.025
754,0.846,36.39,36.942,31.434,22.473,6.097,7.083,10.943
755,0.853,36.487,36.899,31.453,22.48,6.097,7.083,10.984
756,0.885,36.342,36.859,31.443,22.483,6.179,7.206,10.943
757,0.885,36.371,36.879,31.453,22.48,6.22,7.206,11.025
758,0.895,36.497,36.895,31.443,22.48,6.179,7.206,10.943
759,0.905,36.584,36.911,31.463,22.48,6.22,7.165,10.902
760,0.912,36.1,36.883,31.443,22.473,6.22,7.124,10.82
761,0.902,36.177,36.919,31.463,22.476,6.22,7.083,10.779
762,0.908,36.322,36.891,31.521,22.469,6.22,7.083,10.697
763,0.912,36.439,36.879,31.463,22.483,6.22,7.124,10.697
764,0.895,36.226,36.919,31.434,22.476,6.262,7.124,10.574
765,0.899,36.39,36.946,31.472,22.476,6.262,7.083,10.532
766,0.902,36.506,36.879,31.501,22.494,6.426,7.206,10.574
767,0.882,36.565,36.907,31.472,22.487,6.385,7.206,10.656
768,0.882,36.071,36.875,31.434,22.476,6.343,7.083,10.615
769,0.856,36.196,36.867,31.434,22.476,6.22,7.001,10.574
770,0.862,36.322,36.867,31.453,22.473,6.302,6.919,10.697
771,0.866,36.381,36.938,31.453,22.473,6.22,6.96,10.779
772,0.872,36.196,36.82,31.443,22.466,6.262,7.001,10.82
773,0.879,36.322,36.863,31.453,22.48,6.22,6.96,10.861
774,0.905,36.439,36.899,31.443,22.476,6.343,6.96,10.902
775,0.912,36.477,36.926,31.443,22.473,6.262,6.96,10.984
776,0.922,36.177,36.867,31.453,22.483,6.302,6.96,11.025
777,0.922,36.332,36.859,31.453,22.469,6.302,6.96,11.025
778,0.935,36.419,36.891,31.453,22.476,6.302,6.96,11.025
779,0.945,36.439,36.871,31.492,22.466,6.22,6.837,10.902
780,0.971,36.613,36.883,31.443,22.473,6.262,6.919,10.82
781,0.984,36.749,36.934,31.443,22.48,6.343,6.96,10.82
782,1.004,36.865,36.84,31.511,22.483,6.343,7.001,10.861
783,0.997,36.245,36.855,31.482,22.476,6.385,7.042,10.861
784,0.997,35.857,36.922,31.472,22.483,6.343,7.042,10.82
785,1.0,35.983,36.954,31.492,22.476,6.343,7.001,10.861
786,1.014,36.09,36.883,31.482,22.483,6.343,6.96,10.738
787,0.981,36.042,36.836,31.482,22.483,6.343,7.042,10.697
788,0.991,36.177,36.887,31.482,22.48,6.262,6.96,10.615
789,1.004,36.293,36.903,31.511,22.476,6.22,6.96,10.615
790,0.991,36.4,36.863,31.482,22.48,6.22,7.001,10.574
791,0.981,36.071,36.95,31.482,22.473,6.262,7.042,10.574
792,0.971,36.284,36.848,31.53,22.48,6.302,7.001,10.532
793,0.977,36.361,36.891,31.501,22.483,6.343,7.165,10.574
794,0.968,36.429,36.911,31.501,22.49,6.385,7.165,10.532
795,0.968,35.896,36.926,31.472,22.48,6.302,7.042,10.327
796,0.964,36.032,36.836,31.472,22.476,6.22,7.124,10.245
797,0.958,36.148,36.867,31.482,22.473,6.179,7.042,10.204
798,0.954,36.235,36.891,31.472,22.469,6.138,7.042,10.122
799,0.974,35.954,36.879,31.54,22.466,6.22,7.165,10.04
800,0.971,36.1,36.871,31.492,22.476,6.179,7.165,10.04
801,0.974,36.206,36.919,31.482,22.476,6.138,7.247,9.916
802,0.961,36.264,36.883,31.511,22.476,6.179,7.288,9.916
803,0.958,35.925,36.844,31.501,22.469,6.179,7.288,9.876
804,0.928,36.042,36.891,31.501,22.48,6.22,7.329,9.834
805,0.899,36.148,36.903,31.482,22.473,6.22,7.37,9.752
806,0.902,36.177,36.855,31.472,22.466,6.138,7.288,9.67
807,0.899,36.042,36.867,31.472,22.466,6.097,7.288,9.67
808,0.908,36.187,36.911,31.511,22.48,6.22,7.411,9.629
809,0.902,36.322,36.832,31.521,22.48,6.262,7.452,9.752
810,0.895,36.381,36.895,31.521,22.483,6.262,7.494,9.916
811,0.879,36.042,36.903,31.521,22.483,6.262,7.494,10.245
812,0.862,36.177,36.875,31.521,22.48,6.302,7.494,10.409
813,0.866,36.284,36.891,31.521,22.48,6.262,7.534,10.82
814,0.869,35.974,36.891,31.521,22.476,6.262,7.37,11.189
815,0.892,36.042,36.954,31.521,22.476,6.179,7.494,11.518
816,0.882,36.167,36.883,31.53,22.469,6.262,7.411,11.929
817,0.882,36.255,36.875,31.511,22.483,6.22,7.411,12.257
818,0.892,35.925,36.883,31.53,22.48,6.262,7.37,12.504
819,0.885,36.061,36.899,31.588,22.487,6.343,7.534,12.791
820,0.876,36.187,36.883,31.55,22.483,6.302,7.534,13.038
821,0.856,36.235,36.915,31.521,22.483,6.385,7.494,13.12
822,0.849,36.003,36.875,31.501,22.476,6.138,7.329,13.079
823,0.859,36.177,36.875,31.501,22.469,6.179,7.288,13.12
824,0.853,36.255,36.883,31.472,22.473,6.138,7.288,13.079
825,0.836,36.351,36.93,31.492,22.466,6.138,7.329,13.079
826,0.826,35.809,36.851,31.501,22.466,6.138,7.288,13.12
827,0.807,35.945,36.887,31.53,22.48,6.22,7.288,13.202
828,0.813,36.1,36.867,31.521,22.473,6.138,7.288,13.161
829,0.807,36.129,36.824,31.521,22.483,6.138,7.288,13.243
830,0.797,36.022,36.883,31.521,22.48,6.138,7.288,13.366
831,0.77,36.138,36.907,31.53,22.48,6.138,7.288,13.531
832,0.767,36.245,36.875,31.521,22.476,6.138,7.288,13.654
833,0.761,36.284,36.879,31.511,22.473,6.015,7.165,13.654
834,0.784,35.906,36.887,31.521,22.473,6.056,7.124,13.736
835,0.797,36.061,36.942,31.53,22.473,6.138,7.247,13.859
836,0.79,36.167,36.911,31.55,22.476,6.179,7.288,13.941
837,0.8,36.439,36.895,31.55,22.476,6.179,7.37,13.982
838,0.803,36.051,36.899,31.54,22.487,6.138,7.206,13.982
839,0.793,36.167,36.812,31.54,22.483,6.138,7.288,13.941
840,0.797,36.274,36.899,31.54,22.487,6.179,7.247,13.859
841,0.797,35.867,36.938,31.54,22.476,6.179,7.329,13.777
842,0.8,35.838,36.875,31.53,22.48,6.138,7.329,13.613
843,0.8,35.964,36.891,31.54,22.487,6.138,7.247,13.49
844,0.797,36.061,36.915,31.53,22.48,6.22,7.37,13.407
845,0.787,35.945,36.938,31.53,22.48,6.22,7.329,13.202
846,0.784,36.09,36.875,31.559,22.494,6.22,7.329,13.202
847,0.764,36.226,36.883,31.559,22.487,6.22,7.37,13.079
848,0.754,36.303,36.851,31.55,22.483,6.22,7.494,12.915
849,0.754,35.925,36.812,31.54,22.48,6.097,7.37,12.709
850,0.764,36.1,36.883,31.521,22.469,6.056,7.37,12.545
851,0.747,36.187,36.922,31.53,22.473,6.015,7.288,12.381
852,0.728,36.274,36.781,31.53,22.473,6.015,7.288,12.298
853,0.744,35.819,36.84,31.521,22.473,6.056,7.37,12.052
854,0.747,35.964,36.926,31.53,22.466,5.974,7.329,12.011
855,0.747,36.09,36.958,31.53,22.473,5.974,7.288,12.011
856,0.757,36.129,36.82,31.54,22.473,5.974,7.329,12.052
857,0.777,35.916,36.879,31.559,22.469,6.015,7.37,12.134
858,0.78,36.051,36.891,31.55,22.476,6.015,7.37,12.257
859,0.774,36.167,36.883,31.55,22.473,6.056,7.329,12.504
860,0.78,36.167,36.875,31.521,22.469,6.015,7.247,12.463
861,0.79,35.77,36.891,31.54,22.466,5.933,7.206,12.504
862,0.787,35.954,36.919,31.559,22.473,5.974,7.206,12.545
863,0.79,36.09,36.859,31.579,22.48,6.056,7.329,12.627
864,0.774,36.1,36.915,31.569,22.476,6.138,7.329,12.668
865,0.761,35.945,36.915,31.569,22.476,6.097,7.329,12.668
866,0.747,36.08,36.781,31.608,22.473,6.056,7.206,12.545
867,0.734,36.196,36.863,31.588,22.476,6.015,7.247,12.422
868,0.747,36.051,36.879,31.559,22.476,6.097,7.247,12.381
869,0.724,35.964,36.863,31.579,22.48,6.056,7.247,12.216
870,0.724,36.119,36.891,31.55,22.473,6.056,7.165,12.093
871,0.734,36.187,36.934,31.559,22.476,5.974,7.206,12.052
872,0.718,35.896,36.859,31.569,22.476,6.056,7.165,11.929
873,0.741,36.042,36.863,31.617,22.48,6.138,7.165,11.806
874,0.751,36.158,36.895,31.608,22.487,6.138,7.329,11.764
875,0.747,36.206,36.915,31.569,22.483,6.097,7.206,11.641
876,0.754,35.809,36.832,31.55,22.476,6.056,7.042,11.518
877,0.77,35.935,36.875,31.569,22.473,6.015,7.042,11.354
878,0.774,36.08,36.875,31.559,22.473,5.974,7.042,11.313
879,0.78,36.158,36.875,31.608,22.473,5.974,7.001,11.313
880,0.774,35.828,36.867,31.569,22.476,6.056,7.001,11.354
881,0.793,35.964,36.93,31.559,22.476,6.015,7.042,11.354
882,0.784,36.071,36.863,31.569,22.476,6.056,7.042,11.395
883,0.793,36.158,36.848,31.579,22.473,6.056,7.083,11.436
884,0.784,35.954,36.871,31.559,22.48,6.056,7.042,11.477
885,0.774,36.071,36.903,31.579,22.476,6.097,7.083,11.559
886,0.764,36.167,36.832,31.569,22.476,6.056,7.083,11.6
887,0.754,36.226,36.836,31.55,22.469,5.974,6.96,11.723
888,0.761,35.712,36.895,31.559,22.473,6.015,7.001,11.641
889,0.774,35.877,36.828,31.579,22.476,6.056,6.96,11.888
890,0.787,36.012,36.879,31.579,22.483,6.138,7.083,11.929
891,0.78,36.032,36.934,31.588,22.48,6.097,7.165,12.093
892,0.777,35.925,36.816,31.588,22.48,6.138,7.165,12.134
893,0.747,36.051,36.883,31.579,22.476,6.179,7.206,12.175
894,0.77,36.148,36.883,31.598,22.48,6.097,7.247,12.134
895,0.78,36.167,36.919,31.579,22.476,6.138,7.206,12.216
896,0.774,35.896,36.844,31.579,22.476,6.179,7.288,12.134
897,0.77,36.042,36.879,31.588,22.483,6.138,7.411,12.093
898,0.757,36.158,36.907,31.588,22.48,6.097,7.329,12.011
899,0.777,35.857,36.875,31.598,22.48,6.138,7.411,11.97
900,0.79,35.945,36.899,31.608,22.49,6.22,7.452,11.888
901,0.82,36.061,36.942,31.608,22.487,6.179,7.617,11.888
902,0.853,36.138,36.867,31.608,22.487,6.22,7.699,11.888
903,0.908,35.712,36.875,31.588,22.48,6.138,7.575,11.847
904,0.941,35.819,36.867,31.569,22.469,6.097,7.575,11.723
905,0.991,35.945,36.934,31.559,22.469,6.097,7.494,11.641
906,1.023,36.042,36.824,31.579,22.469,6.056,7.452,11.641
907,1.066,35.78,36.867,31.569,22.476,6.097,7.494,11.518
908,1.102,35.906,36.851,31.579,22.469,6.097,7.534,11.436
909,1.165,36.022,36.859,31.579,22.473,6.097,7.575,11.436
910,1.227,36.129,36.915,31.588,22.473,6.097,7.617,11.477
911,1.276,36.196,36.907,31.588,22.476,6.138,7.617,11.313
912,1.349,36.332,36.875,31.588,22.473,6.138,7.575,11.354
913,1.405,36.439,36.851,31.598,22.476,6.138,7.658,11.231
914,1.47,36.477,36.887,31.579,22.469,6.138,7.617,11.231
915,1.569,35.567,36.863,31.569,22.473,6.097,7.534,11.066
916,1.621,35.712,36.907,31.588,22.473,6.097,7.494,10.902
917,1.697,35.828,36.883,31.598,22.476,6.138,7.575,10.984
918,1.776,35.896,36.883,31.608,22.48,6.138,7.699,10.984
919,1.874,35.983,36.84,31.637,22.487,6.262,7.74,11.108
920,1.943,36.119,36.848,31.608,22.48,6.138,7.617,11.066
921,1.993,36.216,36.899,31.588,22.483,6.138,7.617,11.231
922,2.042,36.526,36.836,31.608,22.476,6.179,7.534,11.436
923,2.095,35.761,36.871,31.598,22.48,6.138,7.617,11.97
924,2.18,35.887,36.891,31.598,22.48,6.179,7.534,12.545
925,2.216,36.012,36.911,31.598,22.48,6.22,7.534,13.161
926,2.229,35.906,36.93,31.598,22.483,6.22,7.452,13.695
927,2.239,35.974,36.899,31.588,22.48,6.138,7.452,14.188
928,2.262,36.109,36.895,31.627,22.48,6.22,7.534,14.598
929,2.275,36.226,36.887,31.646,22.483,6.343,7.575,15.255
930,2.262,35.625,36.891,31.627,22.487,6.343,7.575,15.748
931,2.236,35.741,36.911,31.608,22.48,6.22,7.494,16.077
932,2.242,35.838,36.879,31.608,22.476,6.097,7.411,16.282
933,2.167,35.935,36.883,31.598,22.473,6.097,7.411,16.446
934,2.062,35.732,36.883,31.598,22.476,6.097,7.288,16.652
935,1.953,35.887,36.911,31.588,22.473,6.056,7.37,16.734
936,1.799,36.012,36.915,31.598,22.469,6.138,7.288,16.816
937,1.605,36.09,36.879,31.617,22.473,6.097,7.329,16.898
938,1.421,35.877,36.891,31.608,22.473,6.138,7.37,16.816
939,1.244,36.032,36.82,31.598,22.473,6.179,7.37,16.857
940,1.145,36.148,36.859,31.608,22.473,6.179,7.37,16.734
941,1.063,36.177,36.907,31.617,22.476,6.138,7.37,16.61
942,0.984,35.625,36.804,31.569,22.473,6.138,7.37,16.487
943,0.954,35.79,36.863,31.579,22.466,6.056,7.288,16.241
944,0.895,35.916,36.883,31.588,22.469,6.097,7.288,16.159
945,0.826,35.974,36.942,31.608,22.476,6.179,7.37,15.912
946,0.79,35.838,36.895,31.617,22.48,6.179,7.452,15.83
947,0.751,35.954,36.867,31.627,22.48,6.22,7.452,15.625
948,0.724,36.08,36.903,31.588,22.483,6.262,7.452,15.42
949,0.711,36.109,36.863,31.627,22.48,6.179,7.534,15.297
950,0.731,35.877,36.859,31.608,22.476,6.138,7.411,15.009
951,0.731,35.993,36.922,31.608,22.483,6.138,7.411,14.886
952,0.741,36.109,36.82,31.617,22.48,6.138,7.329,14.763
953,0.741,35.983,36.879,31.608,22.48,6.138,7.37,14.557
954,0.761,35.896,36.891,31.608,22.473,6.138,7.288,14.557
955,0.761,36.012,36.926,31.627,22.476,6.179,7.288,14.516
956,0.793,36.129,36.911,31.627,22.476,6.056,7.329,14.475
957,0.833,35.732,36.891,31.646,22.483,6.138,7.37,14.557
958,0.843,35.819,36.903,31.637,22.487,6.179,7.411,14.598
959,0.869,35.906,36.84,31.617,22.48,6.056,7.37,14.475
960,0.905,36.012,36.84,31.608,22.469,6.097,7.288,14.352
961,0.938,35.799,36.919,31.588,22.473,6.056,7.206,14.228
962,0.945,35.925,36.82,31.598,22.473,6.056,7.165,14.105
963,0.948,36.071,36.887,31.598,22.469,6.056,7.165,13.941
964,0.941,36.148,36.879,31.598,22.473,6.097,7.124,13.859
965,0.931,35.945,36.915,31.608,22.483,6.138,7.083,13.695
966,0.905,36.09,36.899,31.598,22.476,6.097,7.124,13.613
967,0.885,36.216,36.875,31.617,22.473,6.097,7.206,13.49
968,0.879,36.284,36.895,31.617,22.48,6.138,7.165,13.284
969,0.833,35.489,36.796,31.598,22.476,6.138,7.206,13.243
970,0.83,35.625,36.883,31.579,22.469,6.056,7.083,12.956
971,0.839,35.78,36.907,31.579,22.469,6.056,7.042,12.75
972,0.826,35.838,36.832,31.617,22.476,6.097,7.042,12.668
973,0.833,35.974,36.883,31.617,22.48,6.138,7.083,12.709
974,0.833,36.09,36.883,31.627,22.48,6.22,7.083,12.545
975,0.849,36.196,36.946,31.627,22.48,6.138,7.124,12.504
976,0.849,36.245,36.863,31.627,22.48,6.179,7.124,12.422
977,0.839,35.683,36.848,31.637,22.48,6.179,7.124,12.339
978,0.856,35.838,36.855,31.608,22.48,6.097,7.165,12.216
979,0.862,35.925,36.863,31.617,22.473,6.097,7.165,12.093
980,0.859,36.051,36.883,31.627,22.476,6.097,7.165,12.093
981,0.879,35.838,36.919,31.608,22.473,6.097,7.165,11.97
982,0.869,35.983,36.887,31.617,22.48,6.097,7.288,11.888
983,0.879,36.109,36.911,31.627,22.487,6.22,7.329,11.764
984,0.862,35.712,36.891,31.646,22.494,6.262,7.411,11.806
985,0.846,35.761,36.911,31.637,22.49,6.302,7.411,11.806
986,0.826,35.857,36.895,31.608,22.476,6.179,7.37,11.764
987,0.826,35.945,36.875,31.608,22.473,6.179,7.288,11.6
988,0.833,35.819,36.875,31.598,22.466,6.015,7.247,11.518
989,0.823,35.954,36.82,31.598,22.469,6.097,7.206,11.395
990,0.823,36.1,36.887,31.598,22.466,6.056,7.206,11.395
991,0.833,36.177,36.895,31.598,22.469,6.097,7.206,11.518
992,0.833,35.635,36.84,31.608,22.48,6.179,7.165,11.6
993,0.839,35.809,36.859,31.608,22.473,6.097,7.206,11.683
994,0.853,35.925,36.907,31.617,22.476,6.179,7.247,11.888
995,0.856,35.983,36.942,31.608,22.48,6.179,7.247,11.97
996,0.856,35.722,36.855,31.598,22.48,6.262,7.247,12.134
997,0.866,35.848,36.84,31.588,22.466,6.179,7.247,12.216
998,0.872,35.983,36.863,31.588,22.469,6.097,7.124,12.134
999,0.879,36.071,36.836,31.598,22.473,6.097,7.124,12.216
1000,0.885,35.673,36.895,31.617,22.473,6.179,7.124,12.381
1001,0.912,35.819,36.907,31.608,22.476,6.22,7.247,12.422
1002,0.915,35.916,36.855,31.627,22.49,6.22,7.288,12.545
1003,0.908,35.974,36.871,31.617,22.48,6.302,7.288,12.545
1004,0.899,35.857,36.915,31.617,22.476,6.22,7.247,12.75
1005,0.905,36.003,36.934,31.608,22.476,6.179,7.206,12.915
1006,0.885,36.1,36.895,31.608,22.483,6.138,7.165,13.12
1007,0.869,36.371,36.883,31.627,22.476,6.138,7.206,13.325
1008,0.856,35.732,36.867,31.608,22.473,6.262,7.124,13.49
1009,0.846,35.867,36.844,31.598,22.476,6.097,7.124,13.613
1010,0.849,35.974,36.836,31.617,22.48,6.097,7.165,13.777
1011,0.843,35.741,36.962,31.627,22.49,6.22,7.206,13.9
1012,0.833,35.78,36.851,31.617,22.487,6.302,7.206,13.982
1013,0.83,35.877,36.859,31.617,22.48,6.179,7.206,14.023
1014,0.836,35.983,36.891,31.598,22.476,6.179,7.165,13.9
1015,0.846,35.664,36.895,31.588,22.473,6.056,7.042,13.9
1016,0.843,35.79,36.891,31.579,22.473,6.138,7.001,13.818
1017,0.869,35.925,36.907,31.608,22.469,6.097,7.042,13.736
1018,0.862,36.022,36.895,31.598,22.473,6.056,7.083,13.613
1019,0.882,35.596,36.879,31.598,22.48,6.138,7.083,13.49
1020,0.879,35.751,36.867,31.608,22.469,6.056,7.042,13.448
1021,0.899,35.857,36.899,31.598,22.473,6.179,7.124,13.366
1022,0.892,35.935,36.875,31.598,22.476,6.138,7.124,13.284
1023,0.885,35.693,36.848,31.588,22.473,6.179,7.206,13.202
1024,0.879,35.838,36.844,31.588,22.473,6.056,7.042,13.079
1025,0.869,35.964,36.887,31.588,22.469,6.138,7.124,12.956
1026,0.866,36.051,36.946,31.608,22.48,6.138,7.247,13.038
1027,0.856,35.712,36.899,31.627,22.473,6.22,7.329,12.956
1028,0.859,35.857,36.911,31.617,22.483,6.179,7.452,12.873
1029,0.856,35.964,36.855,31.608,22.483,6.22,7.411,12.791
1030,0.853,35.983,36.855,31.617,22.483,6.179,7.411,12.668
1031,0.853,35.702,36.934,31.608,22.48,6.22,7.411,12.586
1032,0.846,35.848,36.844,31.608,22.48,6.179,7.37,12.422
1033,0.856,35.954,36.879,31.617,22.476,6.097,7.37,12.298
1034,0.885,35.983,36.851,31.598,22.48,6.22,7.411,12.175
1035,0.872,35.693,36.907,31.608,22.473,6.22,7.37,12.093
1036,0.879,35.857,36.891,31.608,22.48,6.22,7.494,11.929
1037,0.892,35.993,36.887,31.646,22.483,6.302,7.452,12.011
1038,0.892,35.78,36.891,31.627,22.494,6.302,7.494,12.093
1039,0.912,35.673,36.844,31.617,22.48,6.22,7.534,12.134
1040,0.918,35.77,36.867,31.588,22.476,6.179,7.37,12.052
1041,0.925,35.848,36.915,31.588,22.466,6.138,7.37,12.011
1042,0.922,35.732,36.796,31.598,22.469,6.138,7.37,12.134
1043,0.931,35.857,36.848,31.598,22.466,6.138,7.329,12.381
1044,0.915,35.993,36.859,31.588,22.469,6.22,7.329,12.627
1045,0.899,36.071,36.926,31.588,22.476,6.179,7.329,12.956
1046,0.895,35.548,36.907,31.598,22.473,6.179,7.329,13.243
1047,0.899,35.702,36.879,31.598,22.476,6.179,7.37,13.448
1048,0.899,35.819,36.895,31.579,22.473,6.22,7.288,13.695
1049,0.895,35.887,36.844,31.588,22.476,6.302,7.247,13.941
1050,0.885,35.528,36.875,31.559,22.469,6.138,7.329,14.188
1051,0.882,35.702,36.867,31.579,22.466,6.179,7.288,14.311
1052,0.885,35.838,36.863,31.588,22.473,6.179,7.247,14.557
1053,0.892,35.916,36.875,31.608,22.473,6.22,7.288,14.722
1054,0.912,35.635,36.879,31.608,22.48,6.22,7.329,15.091
1055,0.922,35.79,36.891,31.627,22.48,6.262,7.411,15.42
1056,0.931,35.896,36.859,31.617,22.483,6.302,7.329,15.748
1057,0.928,35.945,36.871,31.617,22.476,6.302,7.329,16.035
1058,0.931,35.702,36.848,31.608,22.476,6.343,7.329,16.323
1059,0.935,35.828,36.796,31.617,22.476,6.302,7.288,16.528
1060,0.938,35.945,36.875,31.598,22.48,6.302,7.329,16.652
1061,0.941,35.964,36.911,31.588,22.469,6.302,7.37,16.734
1062,0.931,35.586,36.784,31.598,22.476,6.262,7.452,16.734
1063,0.948,35.741,36.863,31.598,22.473,6.262,7.452,16.734
1064,0.935,35.857,36.907,31.608,22.48,6.343,7.575,16.734
1065,0.931,35.954,36.954,31.627,22.487,6.385,7.781,16.734
1066,0.922,35.79,36.879,31.627,22.487,6.426,7.945,16.775
1067,0.912,35.896,36.859,31.608,22.48,6.302,7.945,16.528
1068,0.908,36.012,36.844,31.569,22.473,6.22,7.863,16.323
1069,0.895,35.567,36.899,31.569,22.469,6.262,7.904,16.2
1070,0.915,35.625,36.875,31.559,22.469,6.22,7.945,16.118
1071,0.908,35.751,36.875,31.598,22.469,6.22,8.069,15.953
1072,0.912,35.838,36.895,31.579,22.473,6.179,8.069,15.789
1073,0.925,35.664,36.863,31.598,22.469,6.262,8.109,15.707
1074,0.922,35.819,36.887,31.598,22.476,6.262,8.109,15.543
1075,0.951,35.925,36.911,31.579,22.48,6.262,8.15,15.42
1076,0.945,35.974,36.922,31.588,22.483,6.302,8.15,15.338
1077,0.941,35.47,36.863,31.569,22.473,6.302,8.069,15.132
1078,0.951,35.664,36.851,31.569,22.469,6.22,8.027,14.968
1079,0.961,35.799,36.808,31.608,22.476,6.343,8.069,14.803
1080,0.968,35.867,36.875,31.608,22.48,6.343,8.15,14.722
1081,0.984,35.577,36.903,31.598,22.483,6.385,8.15,14.639
1082,0.984,35.722,36.832,31.608,22.483,6.467,8.109,14.475
1083,1.0,35.857,36.863,31.598,22.483,6.426,8.109,14.311
1084,0.997,35.916,36.915,31.608,22.476,6.385,8.069,14.188
1085,0.981,35.548,36.895,31.598,22.48,6.426,8.027,14.064
1086,0.974,35.673,36.875,31.588,22.483,6.385,8.027,14.023
1087,0.958,35.799,36.875,31.598,22.48,6.385,7.945,13.859
1088,0.974,35.848,36.855,31.588,22.48,6.343,8.027,13.736
1089,0.971,35.615,36.84,31.588,22.48,6.426,7.904,13.571
1090,0.968,35.78,36.844,31.637,22.483,6.467,7.863,13.448
1091,0.968,35.867,36.911,31.617,22.494,6.508,8.027,13.49
1092,0.958,36.226,36.848,31.627,22.483,6.467,7.945,13.325
1093,0.964,35.625,36.851,31.598,22.48,6.343,7.863,13.038
1094,0.987,35.751,36.867,31.588,22.473,6.343,7.822,12.791
1095,1.004,35.838,36.915,31.559,22.473,6.302,7.699,12.627
1096,1.0,35.577,36.899,31.579,22.473,6.302,7.617,12.504
1097,1.01,35.567,36.911,31.579,22.473,6.302,7.575,12.339
1098,0.997,35.702,36.875,31.579,22.476,6.343,7.534,12.175
1099,0.997,35.799,36.911,31.569,22.476,6.385,7.617,12.052
1100,0.997,35.441,36.863,31.579,22.473,6.302,7.534,11.929
1101,1.017,35.567,36.867,31.588,22.473,6.302,7.575,11.764
1102,1.007,35.702,36.911,31.579,22.476,6.262,7.534,11.641
1103,0.991,35.761,36.796,31.579,22.476,6.302,7.494,11.559
1104,1.0,35.422,36.84,31.569,22.469,6.22,7.494,11.395
1105,1.01,35.586,36.863,31.559,22.473,6.22,7.411,11.313
1106,1.0,35.732,36.934,31.569,22.476,6.302,7.575,11.313
1107,0.991,35.809,36.879,31.588,22.48,6.302,7.658,11.395
1108,0.991,35.567,36.895,31.598,22.483,6.385,7.617,11.477
1109,0.984,35.712,36.879,31.579,22.48,6.343,7.699,11.6
1110,0.997,35.857,36.875,31.579,22.483,6.302,7.699,11.683
1111,0.997,35.887,36.903,31.608,22.483,6.302,7.617,11.764
1112,0.994,35.499,36.867,31.598,22.48,6.22,7.699,11.723
1113,1.004,35.654,36.871,31.646,22.473,6.22,7.699,11.806
1114,1.023,35.761,36.871,31.588,22.48,6.262,7.74,11.806
1115,1.03,35.799,36.895,31.598,22.48,6.262,7.74,11.764
1116,1.05,35.548,36.922,31.598,22.483,6.302,7.699,11.806
1117,1.056,35.712,36.899,31.627,22.49,6.302,7.822,11.847
1118,1.043,35.809,36.895,31.598,22.48,6.385,7.945,11.806
1119,1.037,35.78,36.883,31.598,22.48,6.262,7.822,11.764
1120,1.04,35.48,36.859,31.559,22.48,6.179,7.822,11.683
1121,1.05,35.606,36.907,31.55,22.469,6.056,7.74,11.518
1122,1.053,35.722,36.875,31.54,22.473,6.138,7.74,11.477
1123,1.056,35.586,36.891,31.559,22.473,6.138,7.74,11.436
1124,1.056,35.528,36.844,31.569,22.473,6.138,7.781,11.354
1125,1.056,35.644,36.883,31.569,22.476,6.179,7.822,11.354
1126,1.066,35.741,36.899,31.569,22.476,6.179,7.822,11.313
1127,1.056,35.451,36.871,31.569,22.473,6.097,7.863,11.272
1128,1.046,35.557,36.887,31.569,22.48,6.22,7.781,11.272
1129,1.046,35.644,36.859,31.55,22.469,6.097,7.74,11.272
1130,1.046,35.78,36.879,31.55,22.469,6.015,7.699,11.108
1131,1.05,35.431,36.863,31.579,22.473,6.097,7.699,11.231
1132,1.043,35.586,36.891,31.588,22.476,6.179,7.781,11.313
1133,1.05,35.741,36.84,31.598,22.483,6.22,7.822,11.354
1134,1.079,35.799,36.875,31.579,22.48,6.179,7.74,11.395
1135,1.102,35.451,36.895,31.569,22.48,6.179,7.781,11.395
1136,1.096,35.596,36.891,31.579,22.476,6.179,7.74,11.436
1137,1.092,35.702,36.867,31.569,22.48,6.179,7.699,11.477
1138,1.102,35.799,36.887,31.588,22.48,6.097,7.699,11.395
1139,1.115,35.422,36.879,31.559,22.487,6.097,7.699,11.354
1140,1.129,35.567,36.879,31.569,22.48,6.097,7.658,11.395
1141,1.135,35.712,36.887,31.579,22.48,6.097,7.617,11.313
1142,1.158,35.77,36.895,31.598,22.487,6.138,7.534,11.272
1143,1.155,35.46,36.879,31.598,22.494,6.179,7.658,11.313
1144,1.142,35.586,36.848,31.588,22.483,6.22,7.658,11.354
1145,1.125,35.693,36.903,31.559,22.476,6.138,7.534,11.272
1146,1.122,35.702,36.903,31.53,22.476,6.015,7.452,11.149
1147,1.132,35.412,36.891,31.53,22.473,6.056,7.329,11.025
1148,1.138,35.577,36.851,31.53,22.473,6.015,7.37,11.066
1149,1.129,35.683,36.879,31.54,22.469,5.974,7.37,10.984
1150,1.142,35.751,36.887,31.559,22.473,5.974,7.411,10.943
1151,1.142,35.577,36.899,31.559,22.483,6.056,7.411,10.943
1152,1.142,35.693,36.883,31.559,22.48,6.015,7.37,10.902
1153,1.148,35.809,36.871,31.559,22.483,5.974,7.37,10.82
1154,1.178,35.509,36.867,31.559,22.473,5.974,7.411,10.697
1155,1.181,35.548,36.907,31.55,22.473,6.015,7.37,10.697
1156,1.181,35.664,36.875,31.521,22.462,5.892,7.288,10.574
1157,1.207,35.78,36.867,31.55,22.469,6.015,7.411,10.574
1158,1.221,35.606,36.863,31.559,22.48,5.974,7.452,10.615
1159,1.211,35.751,36.824,31.579,22.48,5.974,7.617,10.574
1160,1.211,35.877,36.883,31.579,22.48,6.015,7.699,10.615
1161,1.221,35.935,36.891,31.55,22.494,6.097,7.699,10.574
1162,1.211,35.596,36.848,31.55,22.483,6.015,7.699,10.409
1163,1.214,35.751,36.859,31.559,22.476,6.015,7.74,10.409
1164,1.204,35.887,36.883,31.55,22.48,6.056,7.74,10.327
1165,1.198,35.954,36.922,31.55,22.476,6.015,7.781,10.327
1166,1.207,35.48,36.883,31.559,22.48,6.097,7.822,10.327
1167,1.211,35.625,36.895,31.559,22.473,6.056,7.822,10.45
1168,1.221,35.799,36.883,31.579,22.483,6.097,7.781,10.574
1169,1.221,35.857,36.93,31.579,22.487,6.138,7.904,10.943
1170,1.221,35.79,36.887,31.559,22.494,6.056,7.986,11.477
1171,1.204,35.916,36.875,31.54,22.48,6.015,7.822,12.257
1172,1.221,35.983,36.883,31.54,22.469,5.933,7.74,12.915
1173,1.224,36.051,36.812,31.559,22.473,5.974,7.781,13.695
1174,1.247,35.761,36.836,31.521,22.473,5.974,7.699,14.311
1175,1.257,35.906,36.903,31.53,22.473,5.974,7.781,14.886
1176,1.276,35.993,36.907,31.53,22.473,6.015,7.699,15.378
1177,1.303,36.41,36.903,31.53,22.473,6.056,7.658,15.707
1178,1.309,35.916,36.879,31.54,22.473,5.974,7.699,15.912
1179,1.303,36.051,36.844,31.54,22.483,6.056,7.658,16.118
1180,1.293,36.148,36.863,31.54,22.473,6.015,7.658,16.159
1181,1.309,35.945,36.883,31.511,22.466,6.015,7.494,16.077
1182,1.309,35.993,36.84,31.53,22.473,5.974,7.494,15.995
1183,1.309,36.167,36.836,31.55,22.473,6.097,7.534,15.912
1184,1.306,36.255,36.867,31.559,22.48,6.097,7.617,15.912
1185,1.293,36.129,36.907,31.55,22.483,6.015,7.617,15.83
1186,1.286,36.274,36.859,31.55,22.48,6.097,7.617,15.83
1187,1.283,36.41,36.891,31.54,22.48,6.056,7.617,15.83
1188,1.283,36.477,36.899,31.54,22.48,6.097,7.534,15.871
1189,1.283,36.962,36.899,31.53,22.476,6.056,7.452,15.912
1190,1.28,37.097,36.867,31.54,22.483,6.056,7.575,15.912
1191,1.27,37.223,36.844,31.55,22.48,6.015,7.452,15.83
1192,1.267,37.281,36.911,31.54,22.476,6.056,7.494,15.666
1193,1.276,35.993,36.832,31.53,22.476,6.056,7.411,15.584
1194,1.29,36.158,36.863,31.53,22.48,6.015,7.452,15.502
1195,1.303,36.293,36.895,31.54,22.487,6.015,7.452,15.502
1196,1.319,36.351,36.899,31.559,22.494,6.138,7.575,15.338
1197,1.326,36.7,36.875,31.559,22.49,6.179,7.534,15.255
1198,1.316,36.845,36.855,31.55,22.48,6.097,7.534,15.132
1199,1.303,36.933,36.867,31.511,22.476,5.974,7.452,14.927
1200,1.29,36.991,36.875,31.521,22.473,5.974,7.329,14.763
1201,1.286,36.594,36.879,31.511,22.473,5.974,7.452,14.598
1202,1.29,36.729,36.899,31.53,22.466,6.015,7.494,14.639
1203,1.276,36.855,36.859,31.569,22.473,5.974,7.411,14.557
1204,1.253,36.874,36.844,31.501,22.469,6.015,7.494,14.475
1205,1.244,36.816,36.899,31.521,22.476,6.056,7.37,14.434
1206,1.224,36.913,36.891,31.53,22.476,6.056,7.494,14.311
1207,1.234,37.059,36.887,31.521,22.473,6.097,7.452,14.311
1208,1.211,36.962,36.859,31.501,22.476,6.097,7.452,14.188
1209,1.198,36.942,36.851,31.511,22.469,6.056,7.494,13.982
1210,1.194,37.068,36.867,31.492,22.462,6.056,7.37,13.859
1211,1.178,37.184,36.851,31.521,22.476,6.056,7.411,13.695
1212,1.168,37.02,36.922,31.521,22.483,6.179,7.494,13.613
1213,1.158,37.126,36.867,31.54,22.483,6.262,7.534,13.654
1214,1.168,37.252,36.875,31.53,22.48,6.22,7.452,13.448
1215,1.165,37.339,36.871,31.55,22.483,6.138,7.494,13.284
1216,1.168,37.088,36.93,31.521,22.483,6.22,7.534,13.161
1217,1.142,37.223,36.863,31.521,22.48,6.302,7.452,12.996
1218,1.145,37.33,36.863,31.53,22.476,6.343,7.452,12.956
1219,1.132,37.417,36.883,31.521,22.48,6.262,7.452,12.873
1220,1.125,37.165,36.871,31.511,22.483,6.302,7.37,12.873
1221,1.129,37.301,36.907,31.511,22.476,6.22,7.411,12.873
1222,1.115,37.436,36.879,31.511,22.483,6.343,7.411,12.791
1223,1.106,37.504,36.891,31.54,22.487,6.426,7.452,12.956
1224,1.069,37.33,36.871,31.53,22.487,6.385,7.534,13.038
1225,1.027,37.446,36.899,31.501,22.48,6.343,7.37,13.079
1226,1.02,37.553,36.887,31.501,22.473,6.302,7.288,13.038
1227,1.014,37.601,36.867,31.492,22.476,6.343,7.288,12.956
1228,1.01,37.33,36.84,31.482,22.466,6.343,7.329,12.996
1229,1.004,37.475,36.867,31.482,22.476,6.302,7.329,12.996
1230,0.984,37.572,36.855,31.492,22.473,6.385,7.288,12.996
1231,0.961,37.601,36.879,31.511,22.469,6.508,7.288,12.996
1232,0.961,37.562,36.907,31.501,22.48,6.467,7.288,13.038
1233,0.945,37.698,36.82,31.511,22.48,6.508,7.411,12.956
1234,0.941,37.766,36.84,31.501,22.476,6.549,7.37,12.915
1235,0.945,37.727,36.875,31.501,22.466,6.508,7.452,12.996
1236,0.951,37.427,36.903,31.463,22.466,6.426,7.452,12.956
1237,0.958,37.562,36.887,31.501,22.473,6.508,7.575,13.079
1238,0.958,37.669,36.907,31.501,22.476,6.549,7.658,13.366
1239,0.951,37.611,36.871,31.501,22.483,6.631,7.781,13.571
1240,0.954,37.717,36.903,31.501,22.487,6.631,7.904,13.654
1241,0.954,37.833,36.867,31.501,22.483,6.631,7.945,13.695
1242,0.948,37.901,36.875,31.492,22.48,6.631,7.863,13.736
1243,0.945,37.378,36.796,31.501,22.483,6.631,7.986,13.777
1244,0.918,37.504,36.871,31.501,22.48,6.549,7.945,13.736
1245,0.902,37.63,36.895,31.501,22.48,6.549,7.945,13.695
1246,0.895,37.698,36.922,31.492,22.476,6.59,7.945,13.654
1247,0.899,37.562,36.887,31.501,22.476,6.59,7.986,13.531
1248,0.892,37.737,36.891,31.521,22.487,6.631,8.027,13.49
1249,0.866,37.814,36.907,31.501,22.483,6.672,8.109,13.49
1250,0.862,37.862,36.887,31.482,22.48,6.672,8.027,13.325
1251,0.843,37.523,36.875,31.482,22.476,6.631,7.986,13.12
1252,0.843,37.659,36.903,31.482,22.473,6.549,7.945,12.956
1253,0.836,37.766,36.816,31.463,22.473,6.467,7.904,12.709
1254,0.849,37.804,36.832,31.463,22.469,6.426,7.863,12.586
1255,0.849,37.64,36.867,31.472,22.476,6.508,7.863,12.422
1256,0.853,37.766,36.887,31.463,22.473,6.467,7.781,12.298
1257,0.859,37.882,36.867,31.472,22.476,6.467,7.863,12.175
1258,0.866,37.911,36.875,31.472,22.476,6.467,7.781,11.929
1259,0.869,37.485,36.863,31.472,22.48,6.426,7.822,11.847
1260,0.866,37.62,36.867,31.472,22.48,6.467,7.822,11.683
1261,0.862,37.698,36.82,31.463,22.466,6.343,7.74,11.477
1262,0.876,38.105,36.899,31.453,22.473,6.343,7.617,11.354
1263,0.866,37.649,36.749,31.482,22.48,6.426,7.74,11.313
1264,0.853,37.766,36.848,31.482,22.487,6.467,7.822,11.231
1265,0.826,37.862,36.875,31.482,22.483,6.467,7.781,11.231
1266,0.816,37.62,36.934,31.482,22.48,6.426,7.74,11.108
1267,0.81,37.649,36.883,31.472,22.48,6.385,7.699,10.984
1268,0.797,37.785,36.875,31.463,22.483,6.385,7.658,10.902
1269,0.797,37.853,36.911,31.472,22.48,6.385,7.617,10.82
1270,0.8,37.63,36.919,31.472,22.483,6.385,7.617,10.738
1271,0.777,37.737,36.883,31.472,22.476,6.302,7.658,10.697
1272,0.79,37.853,36.93,31.463,22.473,6.343,7.575,10.656
1273,0.793,37.94,36.844,31.482,22.473,6.262,7.534,10.574
1274,0.813,37.485,36.879,31.511,22.487,6.385,7.575,10.574
1275,0.83,37.601,36.879,31.501,22.49,6.343,7.617,10.656
1276,0.813,37.688,36.891,31.472,22.483,6.302,7.534,10.697
1277,0.807,37.756,36.891,31.443,22.48,6.262,7.452,10.697
1278,0.813,37.427,36.863,31.443,22.469,6.179,7.37,10.491
1279,0.826,37.562,36.891,31.424,22.466,6.179,7.37,10.615
1280,0.82,37.688,36.859,31.453,22.469,6.138,7.329,10.615
1281,0.83,37.756,36.871,31.434,22.473,6.097,7.288,10.656
1282,0.83,37.388,36.899,31.443,22.476,6.22,7.247,10.738
1283,0.83,37.553,36.82,31.443,22.483,6.22,7.206,11.025
1284,0.813,37.659,36.859,31.443,22.473,6.179,7.247,11.272
1285,0.8,37.688,36.851,31.472,22.476,6.22,7.206,11.518
1286,0.793,37.494,36.907,31.443,22.476,6.179,7.165,11.764
1287,0.787,37.62,36.855,31.443,22.469,6.138,7.165,11.97
1288,0.787,37.737,36.855,31.424,22.469,6.056,7.124,12.093
1289,0.793,37.766,36.911,31.443,22.476,6.22,7.124,12.257
1290,0.79,37.398,36.887,31.453,22.48,6.22,7.288,12.463
1291,0.784,37.504,36.867,31.463,22.487,6.22,7.247,12.627
1292,0.777,37.611,36.926,31.463,22.48,6.22,7.37,12.627
1293,0.784,37.95,36.836,31.453,22.483,6.262,7.37,12.668
1294,0.79,38.095,36.879,31.453,22.476,6.302,7.329,12.75
1295,0.787,38.192,36.832,31.443,22.483,6.262,7.329,12.627
1296,0.79,38.279,36.883,31.443,22.48,6.22,7.37,12.627
1297,0.8,37.01,36.863,31.443,22.476,6.22,7.329,12.586
1298,0.813,37.059,36.867,31.434,22.48,6.179,7.329,12.545
1299,0.839,37.175,36.907,31.434,22.483,6.138,7.329,12.422
1300,0.846,37.291,36.887,31.463,22.487,6.22,7.37,12.381
1301,0.859,37.359,36.871,31.472,22.49,6.343,7.452,12.339
1302,0.853,37.475,36.899,31.443,22.494,6.343,7.534,12.298
1303,0.853,37.572,36.82,31.434,22.483,6.262,7.494,12.175
1304,0.83,37.64,36.867,31.424,22.476,6.22,7.288,11.97
1305,0.833,37.175,36.887,31.404,22.48,6.179,7.288,11.847
1306,0.823,37.31,36.922,31.414,22.469,6.22,7.288,11.641
1307,0.803,37.446,36.907,31.434,22.473,6.138,7.288,11.559
1308,0.8,37.504,36.871,31.424,22.469,6.138,7.288,11.477
1309,0.793,37.272,36.926,31.414,22.473,6.22,7.329,11.272
1310,0.787,37.417,36.859,31.414,22.476,6.22,7.288,11.231
1311,0.787,37.543,36.883,31.414,22.476,6.302,7.329,11.066
1312,0.784,37.572,36.891,31.424,22.487,6.262,7.288,10.984
1313,0.793,37.175,36.812,31.424,22.476,6.262,7.288,10.861
1314,0.797,37.301,36.855,31.385,22.473,6.097,7.165,10.656
1315,0.803,37.427,36.851,31.404,22.469,6.138,7.206,10.532
1316,0.81,37.465,36.922,31.424,22.469,6.179,7.165,10.409
1317,0.807,37.214,36.899,31.434,22.483,6.262,7.288,10.409
1318,0.816,37.339,36.887,31.424,22.476,6.262,7.247,10.368
1319,0.813,37.436,36.911,31.434,22.483,6.22,7.288,10.204
1320,0.8,37.436,36.859,31.434,22.48,6.22,7.247,10.122
1321,0.81,37.243,36.848,31.424,22.476,6.262,7.206,10.122
1322,0.807,37.349,36.919,31.414,22.48,6.179,7.165,10.163
1323,0.8,37.456,36.82,31.404,22.473,6.22,7.247,10.286
1324,0.787,37.194,36.887,31.414,22.476,6.179,7.206,10.409
1325,0.79,37.272,36.887,31.404,22.476,6.262,7.288,10.532
1326,0.79,37.407,36.954,31.443,22.483,6.22,7.329,10.656
1327,0.784,37.504,36.891,31.443,22.494,6.302,7.452,10.902
1328,0.777,37.146,36.907,31.414,22.49,6.262,7.411,11.149
1329,0.784,37.252,36.907,31.414,22.48,6.138,7.452,11.272
1330,0.79,37.359,36.84,31.395,22.48,6.015,7.37,11.354
1331,0.787,37.436,36.848,31.385,22.473,6.056,7.329,11.477
1332,0.797,37.775,36.867,31.385,22.476,6.056,7.411,11.559
1333,0.8,37.901,36.844,31.404,22.473,6.056,7.37,11.764
1334,0.81,38.027,36.832,31.385,22.476,6.097,7.411,11.97
1335,0.807,38.085,36.863,31.395,22.476,6.138,7.494,12.175
1336,0.82,36.729,36.911,31.385,22.473,6.138,7.452,12.298
1337,0.807,36.884,36.903,31.404,22.48,6.138,7.534,12.504
1338,0.787,37.01,36.879,31.395,22.476,6.138,7.658,12.586
1339,0.79,37.029,36.879,31.375,22.466,6.056,7.699,12.627
1340,0.813,37.107,36.863,31.385,22.469,6.097,7.699,12.504
1341,0.823,37.252,36.855,31.395,22.476,6.138,7.74,12.627
1342,0.82,37.378,36.899,31.395,22.48,6.138,7.863,12.586
1343,0.826,37.388,36.832,31.414,22.483,6.179,7.986,12.627
1344,0.813,37.059,36.875,31.385,22.48,6.097,8.069,12.627
1345,0.813,37.184,36.855,31.414,22.483,6.138,8.027,12.586
1346,0.793,37.262,36.871,31.404,22.48,6.138,7.986,12.627
1347,0.793,37.649,36.891,31.404,22.476,6.138,7.945,12.791
1348,0.784,37.107,36.887,31.385,22.48,6.097,8.027,12.956
1349,0.774,37.214,36.887,31.375,22.476,6.138,7.945,13.284
1350,0.797,37.32,36.875,31.385,22.483,6.097,8.109,13.571
1351,0.797,37.068,36.836,31.404,22.48,6.138,7.986,14.023
1352,0.807,37.107,36.903,31.404,22.483,6.179,7.986,14.188
1353,0.813,37.233,36.84,31.404,22.487,6.22,8.027,14.393
1354,0.83,37.32,36.875,31.404,22.494,6.262,8.027,14.557
1355,0.82,36.913,36.879,31.395,22.476,6.22,8.027,14.68
1356,0.813,37.039,36.915,31.366,22.476,6.179,7.945,14.557
1357,0.816,37.146,36.883,31.366,22.466,6.056,7.822,14.557
1358,0.816,37.243,36.851,31.337,22.466,6.097,7.781,14.475
1359,0.816,37.049,36.887,31.346,22.473,6.097,7.74,14.393
1360,0.823,37.214,36.851,31.366,22.473,6.138,7.74,14.27
1361,0.826,37.339,36.887,31.346,22.473,6.138,7.74,14.105
1362,0.826,37.398,36.911,31.356,22.476,6.179,7.74,13.982
1363,0.833,36.884,36.749,31.366,22.469,6.22,7.74,13.859
1364,0.82,37.029,36.848,31.356,22.48,6.262,7.74,13.695
1365,0.813,37.155,36.883,31.366,22.476,6.22,7.74,13.448
1366,0.813,37.194,36.863,31.346,22.476,6.179,7.658,13.407
1367,0.81,36.952,36.848,31.337,22.469,6.138,7.617,13.161
1368,0.8,37.146,36.836,31.356,22.473,6.179,7.575,12.956
1369,0.803,37.262,36.915,31.346,22.476,6.22,7.658,12.832
1370,0.81,37.301,36.879,31.366,22.487,6.302,7.699,12.791
1371,0.8,37.572,36.848,31.375,22.48,6.302,7.74,12.668
1372,0.787,37.678,36.911,31.366,22.48,6.343,7.699,12.545
1373,0.784,37.756,36.804,31.356,22.476,6.302,7.74,12.422
1374,0.807,37.775,36.887,31.346,22.476,6.302,7.699,12.216
1375,0.813,36.72,36.867,31.346,22.48,6.262,7.699,12.093
1376,0.813,36.845,36.903,31.356,22.48,6.22,7.699,11.97
1377,0.826,36.962,36.883,31.356,22.483,6.262,7.74,11.806
1378,0.839,37.01,36.863,31.356,22.476,6.343,7.699,11.764
1379,0.853,37.088,36.891,31.356,22.48,6.262,7.74,11.641
1380,0.856,37.214,36.879,31.366,22.487,6.302,7.781,11.559
1381,0.866,37.291,36.883,31.366,22.487,6.467,7.822,11.518
1382,0.853,36.845,36.911,31.337,22.487,6.385,7.822,11.395
1383,0.836,36.942,36.8,31.308,22.476,6.262,7.781,11.272
1384,0.816,37.088,36.844,31.317,22.466,6.22,7.658,11.066
1385,0.816,37.155,36.867,31.308,22.473,6.22,7.658,11.025
1386,0.813,36.962,36.887,31.317,22.476,6.22,7.658,10.82
1387,0.8,37.117,36.883,31.327,22.473,6.262,7.617,10.738
1388,0.807,37.223,36.871,31.308,22.48,6.262,7.575,10.615
1389,0.797,37.31,36.911,31.317,22.48,6.262,7.575,10.574
1390,0.793,36.787,36.863,31.317,22.476,6.22,7.575,10.532
1391,0.787,36.923,36.859,31.327,22.487,6.302,7.617,10.45
1392,0.793,37.029,36.891,31.337,22.473,6.22,7.575,10.327
1393,0.79,37.068,36.808,31.298,22.473,6.179,7.494,10.245
1394,0.816,36.952,36.832,31.308,22.462,6.097,7.37,10.163
1395,0.836,37.078,36.883,31.337,22.48,6.22,7.452,9.999
1396,0.823,37.194,36.919,31.337,22.48,6.302,7.452,10.04
1397,0.833,37.262,36.883,31.337,22.48,6.302,7.534,10.04
1398,0.826,36.787,36.875,31.337,22.476,6.302,7.534,9.957
1399,0.83,36.913,36.899,31.327,22.483,6.302,7.494,9.957
1400,0.83,37.039,36.867,31.327,22.476,6.343,7.452,9.793
1401,0.843,37.059,36.875,31.317,22.473,6.302,7.452,9.793
1402,0.846,36.933,36.895,31.317,22.48,6.302,7.452,9.793
1403,0.833,37.078,36.796,31.308,22.473,6.343,7.494,9.752
1404,0.839,37.194,36.859,31.337,22.476,6.302,7.452,9.711
1405,0.836,37.184,36.879,31.337,22.48,6.302,7.411,9.711
1406,0.83,36.904,36.938,31.337,22.487,6.467,7.494,9.916
1407,0.813,37.01,36.879,31.346,22.487,6.343,7.452,9.834
1408,0.813,37.088,36.907,31.298,22.476,6.343,7.411,9.711
1409,0.803,36.894,36.883,31.298,22.473,6.22,7.329,9.588
1410,0.803,36.981,36.859,31.288,22.466,6.22,7.329,9.629
1411,0.803,37.097,36.851,31.308,22.473,6.22,7.329,9.588
1412,0.813,37.194,36.867,31.308,22.469,6.262,7.288,9.711
1413,0.81,36.739,36.824,31.308,22.48,6.22,7.247,9.711
1414,0.826,36.874,36.828,31.298,22.473,6.179,7.37,9.752
1415,0.826,36.991,36.879,31.288,22.476,6.179,7.329,9.793
1416,0.816,37.059,36.907,31.308,22.483,6.179,7.411,9.916
1417,0.816,36.787,36.883,31.288,22.473,6.179,7.494,9.957
1418,0.833,36.923,36.863,31.298,22.466,6.056,7.452,9.957
1419,0.83,37.039,36.899,31.288,22.469,6.097,7.494,9.999
1420,0.83,37.126,36.867,31.308,22.476,6.138,7.658,10.081
1421,0.849,36.807,36.859,31.298,22.48,6.262,7.781,10.245
1422,0.846,36.942,36.911,31.308,22.48,6.262,7.822,10.327
1423,0.849,37.059,36.836,31.298,22.483,6.262,7.863,10.368
1424,0.83,37.097,36.82,31.298,22.48,6.179,7.945,10.327
1425,0.8,36.71,36.832,31.298,22.476,6.179,7.986,10.409
1426,0.793,36.826,36.887,31.288,22.473,6.138,7.945,10.45
1427,0.8,36.942,36.875,31.298,22.469,6.179,7.945,10.615
1428,0.793,36.991,36.895,31.288,22.483,6.179,7.986,10.984
1429,0.81,36.836,36.899,31.288,22.48,6.179,7.945,11.723
1430,0.803,36.981,36.891,31.317,22.49,6.22,8.109,12.545
1431,0.793,37.078,36.859,31.317,22.483,6.262,8.109,13.448
1432,0.79,37.417,36.911,31.298,22.48,6.179,8.109,14.188
1433,0.797,36.69,36.84,31.279,22.473,6.138,8.027,14.68
1434,0.81,36.816,36.863,31.259,22.469,6.097,7.904,15.132
1435,0.82,36.923,36.855,31.259,22.466,6.097,7.945,15.584
1436,0.813,36.816,36.859,31.279,22.473,6.097,7.945,15.748
1437,0.813,36.874,36.828,31.279,22.473,6.179,7.904,15.912
1438,0.813,37.02,36.855,31.288,22.473,6.097,7.945,16.077
1439,0.807,37.107,36.903,31.269,22.476,6.179,7.945,16.077
1440,0.816,36.613,36.812,31.288,22.473,6.22,7.863,16.118
1441,0.826,36.739,36.875,31.279,22.48,6.138,7.904,15.995
1442,0.813,36.816,36.879,31.25,22.473,6.138,7.822,15.912
1443,0.813,36.923,36.859,31.259,22.466,6.138,7.781,15.748
1444,0.81,36.632,36.836,31.288,22.473,6.097,7.781,15.543
1445,0.8,36.787,36.851,31.288,22.476,6.138,7.781,15.502
1446,0.803,36.904,36.899,31.279,22.48,6.22,7.822,15.297
1447,0.797,36.981,36.895,31.288,22.48,6.22,7.822,15.214
1448,0.79,36.671,36.871,31.288,22.48,6.179,7.781,15.009
1449,0.777,36.807,36.915,31.288,22.48,6.179,7.781,14.927
1450,0.78,36.923,36.875,31.279,22.48,6.138,7.822,14.845
1451,0.784,37.0,36.851,31.279,22.483,6.22,7.781,14.722
1452,0.777,36.652,36.883,31.269,22.48,6.138,7.822,14.763
1453,0.78,36.778,36.844,31.279,22.48,6.179,7.822,14.803
1454,0.787,36.923,36.859,31.259,22.476,6.097,7.863,15.009
1455,0.793,36.952,36.879,31.259,22.48,6.138,7.781,15.173
1456,0.81,36.749,36.93,31.279,22.483,6.138,7.863,15.378
1457,0.823,36.894,36.887,31.298,22.49,6.22,7.986,15.543
1458,0.826,36.962,36.867,31.279,22.483,6.22,7.986,15.543
1459,0.826,36.962,36.855,31.23,22.483,6.097,7.904,15.502
1460,0.83,36.681,36.867,31.25,22.473,6.015,7.863,15.461
1461,0.843,36.816,36.851,31.24,22.469,6.056,7.863,15.461
1462,0.833,36.884,36.887,31.24,22.473,6.056,7.822,15.42
1463,0.813,36.816,36.816,31.259,22.476,6.097,7.822,15.42
1464,0.816,36.807,36.832,31.25,22.476,6.056,7.904,15.42
1465,0.807,36.962,36.863,31.259,22.469,6.056,7.904,15.42
1466,0.803,37.039,36.859,31.259,22.473,6.097,7.863,15.338
1467,0.79,36.642,36.863,31.23,22.473,6.015,7.863,15.214
1468,0.784,36.72,36.875,31.23,22.473,5.974,7.945,15.05
1469,0.787,36.845,36.883,31.221,22.466,5.974,7.822,14.845
1470,0.777,36.942,36.816,31.269,22.473,5.892,7.863,14.68
1471,0.793,36.661,36.844,31.259,22.476,6.056,7.945,14.557
1472,0.78,36.797,36.883,31.259,22.487,6.056,7.986,14.516
1473,0.77,36.913,36.883,31.259,22.473,6.056,8.027,14.352
1474,0.787,37.0,36.867,31.308,22.48,6.138,7.986,14.228
1475,0.793,36.623,36.879,31.269,22.483,6.097,7.945,14.023
1476,0.793,36.768,36.907,31.269,22.483,6.138,7.986,13.859
1477,0.803,36.855,36.887,31.259,22.473,6.138,7.945,13.654
1478,0.8,36.933,36.875,31.259,22.476,6.138,7.945,13.531
1479,0.8,36.739,36.871,31.24,22.473,6.097,7.863,13.366
1480,0.8,36.874,36.883,31.24,22.483,6.138,7.863,13.038
1481,0.813,37.02,36.887,31.24,22.476,6.138,7.863,12.915
1482,0.826,37.068,36.926,31.269,22.483,6.302,7.904,12.791
1483,0.803,36.69,36.828,31.279,22.487,6.302,8.027,12.668
1484,0.777,36.807,36.859,31.23,22.487,6.262,7.904,12.504
1485,0.774,36.913,36.844,31.221,22.476,6.138,7.781,12.257
1486,0.79,36.942,36.848,31.221,22.473,6.097,7.74,12.052
1487,0.77,36.855,36.879,31.221,22.476,6.179,7.781,11.97
1488,0.761,36.991,36.875,31.221,22.476,6.179,7.699,11.847
1489,0.761,37.097,36.859,31.221,22.48,6.22,7.74,11.641
1490,0.757,37.039,36.82,31.23,22.469,6.22,7.822,11.518
1491,0.751,36.826,36.836,31.23,22.48,6.262,7.781,11.477
1492,0.751,36.952,36.875,31.25,22.48,6.262,7.781,11.395
1493,0.751,37.029,36.922,31.221,22.48,6.302,7.781,11.231
1494,0.761,36.729,36.792,31.211,22.466,6.262,7.822,11.066
1495,0.777,36.816,36.848,31.221,22.466,6.262,7.699,10.984
1496,0.777,36.962,36.875,31.221,22.469,6.22,7.658,10.779
1497,0.79,37.059,36.871,31.25,22.473,6.343,7.822,10.82
1498,0.79,36.671,36.871,31.24,22.48,6.385,7.781,10.738
1499,0.8,36.826,36.899,31.24,22.487,6.467,7.904,10.738
1500,0.797,36.923,36.82,31.23,22.48,6.426,7.822,10.615
1501,0.81,37.01,36.871,31.23,22.476,6.385,7.863,10.45
1502,0.81,36.749,36.915,31.23,22.48,6.508,7.781,10.45
1503,0.813,36.884,36.875,31.23,22.48,6.467,7.822,10.286
1504,0.803,37.01,36.828,31.269,22.476,6.467,7.863,10.327
1505,0.8,37.097,36.844,31.23,22.476,6.467,7.863,10.327
1506,0.79,36.797,36.855,31.23,22.476,6.426,7.822,10.163
1507,0.784,36.952,36.883,31.24,22.483,6.426,7.822,10.081
1508,0.784,37.078,36.887,31.23,22.48,6.385,7.822,10.04
1509,0.787,37.146,36.895,31.259,22.487,6.549,7.904,9.916
1510,0.757,36.836,36.844,31.259,22.49,6.59,7.986,10.081
1511,0.751,36.962,36.855,31.23,22.483,6.467,7.904,9.916
1512,0.754,37.059,36.911,31.221,22.48,6.426,7.822,9.916
1513,0.757,37.059,36.903,31.211,22.473,6.343,7.699,9.793
1514,0.78,36.787,36.792,31.201,22.469,6.343,7.617,9.793
1515,0.787,36.923,36.84,31.211,22.473,6.343,7.617,9.793
1516,0.784,37.049,36.848,31.201,22.476,6.343,7.575,9.834
1517,0.797,37.407,36.848,31.201,22.476,6.302,7.658,9.876
1518,0.787,36.807,36.879,31.211,22.473,6.343,7.575,9.916
1519,0.803,36.952,36.887,31.221,22.48,6.343,7.575,10.04
1520,0.816,37.049,36.828,31.211,22.473,6.302,7.575,10.04
1521,0.81,36.865,36.871,31.192,22.476,6.385,7.575,10.122
1522,0.8,36.894,36.887,31.192,22.476,6.302,7.534,10.204
1523,0.793,37.02,36.903,31.182,22.466,6.22,7.37,10.163
1524,0.774,37.136,36.804,31.211,22.476,6.22,7.411,10.245
1525,0.78,36.816,36.879,31.221,22.48,6.302,7.494,10.368
1526,0.787,36.933,36.867,31.23,22.476,6.302,7.575,10.368
1527,0.777,37.039,36.867,31.211,22.48,6.302,7.575,10.491
1528,0.767,37.136,36.855,31.211,22.48,6.343,7.617,10.491
1529,0.757,36.816,36.887,31.221,22.48,6.262,7.494,10.45
1530,0.754,36.942,36.832,31.23,22.48,6.22,7.534,10.409
1531,0.751,37.097,36.859,31.23,22.48,6.22,7.658,10.368
1532,0.751,37.146,36.891,31.211,22.483,6.262,7.658,10.45
1533,0.754,36.816,36.919,31.211,22.48,6.179,7.617,10.368
1534,0.761,36.991,36.828,31.211,22.476,6.22,7.617,10.45
1535,0.774,37.107,36.863,31.23,22.487,6.343,7.781,10.532
1536,0.774,37.155,36.875,31.24,22.487,6.385,7.863,10.656
1537,0.784,36.836,36.867,31.211,22.48,6.179,7.781,10.615
1538,0.784,36.942,36.867,31.201,22.473,6.22,7.74,10.574
1539,0.784,37.088,36.859,31.201,22.473,6.097,7.781,10.491
1540,0.79,37.126,36.832,31.172,22.469,6.097,7.781,10.409
1541,0.79,36.758,36.828,31.201,22.473,6.138,7.863,10.409
1542,0.797,36.894,36.883,31.192,22.473,6.097,7.904,10.409
1543,0.79,37.02,36.895,31.192,22.469,6.138,7.904,10.45
1544,0.767,37.029,36.82,31.201,22.476,6.262,7.986,10.368
1545,0.764,36.913,36.887,31.192,22.476,6.179,8.027,10.368
1546,0.761,37.039,36.863,31.201,22.476,6.22,8.069,10.368
1547,0.738,37.126,36.879,31.162,22.476,6.097,8.027,10.368
1548,0.751,36.826,36.859,31.172,22.466,6.097,7.863,10.286
1549,0.751,36.729,36.871,31.182,22.473,6.138,7.945,10.245
1550,0.744,36.874,36.844,31.201,22.48,6.179,8.069,10.409
1551,0.738,36.981,36.859,31.201,22.476,6.22,8.027,10.574
1552,0.744,36.816,36.875,31.211,22.48,6.262,8.069,10.615
1553,0.734,36.942,36.883,31.221,22.48,6.302,8.027,10.656
1554,0.744,37.059,36.753,31.211,22.48,6.22,7.986,10.82
1555,0.741,37.155,36.844,31.192,22.487,6.138,8.027,10.902
1556,0.757,36.632,36.867,31.201,22.476,6.179,8.027,11.025
1557,0.767,36.758,36.887,31.192,22.48,6.22,7.904,11.025
1558,0.78,36.923,36.887,31.192,22.483,6.179,7.945,11.149
1559,0.78,36.971,36.875,31.192,22.48,6.179,7.986,11.231
1560,0.784,36.768,36.844,31.182,22.483,6.138,7.863,11.149
1561,0.784,36.942,36.875,31.192,22.487,6.138,7.863,11.231
1562,0.787,37.049,36.899,31.221,22.483,6.302,7.863,11.313
1563,0.78,37.097,36.883,31.211,22.494,6.426,8.027,11.436
1564,0.754,36.671,36.808,31.192,22.483,6.262,7.822,11.395
1565,0.751,36.836,36.875,31.182,22.469,6.138,7.74,11.436
1566,0.751,36.933,36.859,31.182,22.469,6.138,7.658,11.354
1567,0.751,37.02,36.883,31.172,22.469,6.056,7.658,11.436
1568,0.744,36.739,36.887,31.162,22.473,6.138,7.658,11.559
1569,0.738,36.894,36.867,31.172,22.473,6.179,7.658,11.806
1570,0.738,36.991,36.875,31.182,22.473,6.179,7.658,12.175
1571,0.738,37.029,36.851,31.192,22.473,6.179,7.658,12.545
1572,0.747,36.778,36.863,31.201,22.48,6.138,7.658,12.873
1573,0.754,36.913,36.895,31.162,22.48,6.22,7.575,13.407
1574,0.754,36.991,36.812,31.153,22.473,6.22,7.575,13.9
1575,0.77,36.952,36.828,31.124,22.466,6.056,7.494,14.188
1576,0.784,36.778,36.82,31.162,22.473,6.138,7.452,14.516
1577,0.777,36.913,36.879,31.182,22.476,6.22,7.494,14.886
1578,0.774,37.02,36.851,31.192,22.48,6.179,7.699,15.132
1579,0.787,36.632,36.895,31.201,22.48,6.22,7.699,15.297
1580,0.793,36.69,36.828,31.182,22.476,6.262,7.74,15.297
1581,0.793,36.836,36.844,31.182,22.48,6.179,7.74,15.338
1582,0.797,36.904,36.891,31.182,22.476,6.22,7.781,15.173
1583,0.803,36.778,36.875,31.172,22.476,6.262,7.74,15.05
1584,0.8,36.913,36.792,31.172,22.48,6.22,7.781,14.927
1585,0.807,37.039,36.848,31.162,22.476,6.22,7.74,14.803
1586,0.826,37.136,36.875,31.162,22.473,6.22,7.781,14.722
1587,0.83,36.613,36.903,31.182,22.48,6.22,7.74,14.557
1588,0.833,36.758,36.863,31.201,22.487,6.302,7.863,14.475
1589,0.826,36.865,36.895,31.192,22.494,6.385,7.986,14.393
1590,0.813,36.913,36.804,31.172,22.48,6.262,7.863,14.188
1591,0.82,36.623,36.836,31.172,22.483,6.22,7.74,13.982
1592,0.82,36.787,36.891,31.143,22.476,6.138,7.74,13.736
1593,0.83,36.884,36.895,31.143,22.473,6.138,7.658,13.613
1594,0.856,36.913,36.82,31.153,22.476,6.138,7.658,13.531
1595,0.862,36.671,36.844,31.153,22.473,6.22,7.658,13.571
1596,0.879,36.787,36.855,31.153,22.476,6.179,7.617,13.49
1597,0.895,36.894,36.859,31.153,22.473,6.22,7.658,13.531
1598,0.902,36.942,36.863,31.162,22.48,6.22,7.699,13.407
1599,0.905,36.574,36.883,31.162,22.483,6.262,7.617,13.407
1600,0.915,36.681,36.796,31.162,22.48,6.22,7.617,13.243
1601,0.922,36.787,36.848,31.114,22.469,6.097,7.494,13.12
1602,0.935,37.126,36.887,31.153,22.473,6.138,7.494,12.996
1603,0.899,36.71,36.879,31.153,22.476,6.262,7.534,12.996
1604,0.895,36.884,36.844,31.182,22.48,6.22,7.575,12.873
1605,0.899,36.952,36.844,31.162,22.48,6.262,7.494,12.832
1606,0.892,36.574,36.871,31.153,22.48,6.138,7.575,12.668
1607,0.892,36.584,36.863,31.162,22.48,6.262,7.575,12.627
1608,0.899,36.729,36.851,31.153,22.476,6.22,7.534,12.463
1609,0.902,36.816,36.891,31.153,22.48,6.22,7.658,12.339
1610,0.882,36.526,36.812,31.153,22.48,6.262,7.617,12.298
1611,0.892,36.671,36.844,31.153,22.48,6.179,7.617,12.134
1612,0.905,36.787,36.863,31.143,22.473,6.302,7.617,12.175
1613,0.928,36.874,36.911,31.153,22.48,6.22,7.617,11.97
1614,0.954,36.477,36.871,31.182,22.483,6.343,7.658,11.929
1615,0.954,36.632,36.879,31.192,22.494,6.302,7.74,11.806
1616,0.954,36.71,36.891,31.172,22.48,6.262,7.699,11.723
1617,0.958,36.758,36.851,31.153,22.476,6.262,7.575,11.641
1618,0.987,36.419,36.859,31.124,22.473,6.22,7.452,11.436
1619,0.984,36.555,36.859,31.124,22.473,6.179,7.534,11.354
1620,0.994,36.69,36.792,31.133,22.473,6.179,7.452,11.189
1621,0.997,36.739,36.851,31.124,22.473,6.138,7.411,11.231
1622,0.994,36.516,36.871,31.124,22.466,6.22,7.494,11.066
1623,0.974,36.652,36.883,31.133,22.476,6.22,7.37,11.025
1624,0.961,36.768,36.832,31.143,22.469,6.22,7.452,10.82
1625,0.941,36.816,36.851,31.143,22.483,6.262,7.452,10.779
1626,0.945,43.577,36.883,31.124,22.476,6.262,7.452,10.738
1627,0.922,43.596,36.851,31.104,22.469,6.179,7.37,10.615
1628,0.905,43.655,36.867,31.114,22.469,6.179,7.247,10.409
1629,0.899,43.606,36.883,31.143,22.473,6.262,7.288,10.368
1630,0.892,33.271,36.824,31.162,22.473,6.262,7.288,10.368
1631,0.882,33.523,36.863,31.153,22.483,6.262,7.288,10.286
1632,0.872,33.649,36.859,31.153,22.48,6.343,7.288,10.327
1633,0.876,36.342,36.919,31.133,22.476,6.262,7.288,10.204
1634,0.892,37.611,36.804,31.143,22.48,6.262,7.288,10.163
1635,0.889,37.727,36.851,31.153,22.48,6.302,7.206,10.081
1636,0.889,37.795,36.867,31.133,22.48,6.302,7.288,10.04
1637,0.895,35.877,36.863,31.124,22.476,6.262,7.247,9.957
1638,0.889,35.887,36.863,31.133,22.48,6.302,7.165,9.957
1639,0.899,36.032,36.855,31.143,22.476,6.302,7.165,9.916
1640,0.892,36.167,36.859,31.172,22.487,6.343,7.288,9.916
1641,0.885,36.526,36.863,31.153,22.49,6.385,7.288,9.999
1642,0.885,36.652,36.875,31.143,22.48,6.343,7.288,9.916
1643,0.885,36.749,36.875,31.124,22.476,6.343,7.247,9.916
1644,0.866,36.826,36.792,31.114,22.476,6.262,7.165,9.957
1645,0.859,36.1,36.824,31.124,22.473,6.22,7.083,9.957
1646,0.843,36.255,36.828,31.104,22.473,6.22,7.124,10.04
1647,0.839,36.381,36.875,31.114,22.473,6.22,7.124,10.04
1648,0.826,36.477,36.879,31.124,22.473,6.179,7.165,10.163
1649,0.826,36.429,36.867,31.114,22.473,6.138,7.206,10.368
1650,0.803,36.574,36.816,31.124,22.476,6.179,7.247,10.532
1651,0.797,36.7,36.828,31.133,22.476,6.262,7.288,10.656
1652,0.8,36.729,36.871,31.133,22.483,6.22,7.247,10.861
1653,0.79,36.119,36.871,31.095,22.469,6.179,7.247,10.902
1654,0.787,36.264,36.781,31.095,22.469,6.056,7.165,11.025
1655,0.797,36.419,36.84,31.114,22.466,6.097,7.165,11.066
1656,0.8,36.419,36.824,31.124,22.48,6.22,7.247,11.313
1657,0.8,36.255,36.855,31.133,22.48,6.179,7.329,11.436
1658,0.797,36.381,36.848,31.143,22.487,6.22,7.288,11.518
1659,0.79,36.487,36.887,31.124,22.48,6.262,7.124,11.559
1660,0.8,36.477,36.848,31.124,22.476,6.179,7.165,11.641
1661,0.807,36.322,36.855,31.104,22.473,6.22,7.124,11.641
1662,0.81,36.448,36.891,31.124,22.48,6.179,7.165,11.683
1663,0.78,36.545,36.895,31.114,22.473,6.179,7.124,11.806
1664,0.757,36.158,36.796,31.133,22.483,6.097,7.165,11.888
1665,0.751,36.255,36.848,31.114,22.483,6.138,7.124,11.97
1666,0.751,36.41,36.859,31.133,22.48,6.138,7.042,12.093
1667,0.744,36.497,36.891,31.143,22.49,6.22,7.206,12.175
1668,0.738,36.1,36.855,31.124,22.483,6.22,7.288,12.298
1669,0.734,36.226,36.879,31.104,22.473,6.179,7.083,12.257
1670,0.715,36.322,36.804,31.114,22.473,6.097,7.042,12.175
1671,0.718,36.419,36.828,31.104,22.466,6.056,7.042,12.134
1672,0.715,36.119,36.875,31.095,22.469,6.056,6.96,12.134
1673,0.724,36.264,36.887,31.114,22.473,6.056,7.042,12.134
1674,0.715,36.4,36.784,31.114,22.476,6.138,7.001,12.052
1675,0.715,36.477,36.828,31.114,22.476,6.097,7.042,12.011
1676,0.721,36.109,36.855,31.114,22.48,6.138,7.042,11.97
1677,0.718,36.255,36.867,31.114,22.473,6.097,7.206,11.888
1678,0.711,36.371,36.879,31.133,22.473,6.138,7.288,11.723
1679,0.721,36.41,36.883,31.085,22.473,6.056,7.37,11.683
1680,0.711,36.119,36.824,31.085,22.466,5.974,7.288,11.477
1681,0.728,36.274,36.836,31.085,22.469,6.056,7.206,11.354
1682,0.751,36.4,36.907,31.104,22.48,6.097,7.411,11.313
1683,0.734,36.439,36.883,31.114,22.48,6.138,7.534,11.272
1684,0.724,36.1,36.792,31.114,22.483,6.097,7.575,11.272
1685,0.715,36.226,36.859,31.133,22.48,6.138,7.575,11.272
1686,0.705,36.342,36.863,31.114,22.487,6.22,7.617,11.066
1687,0.688,36.69,36.895,31.104,22.483,6.138,7.617,11.066
1688,0.685,36.187,36.867,31.104,22.48,6.097,7.575,11.066
1689,0.672,36.303,36.903,31.114,22.48,6.056,7.617,11.149
1690,0.675,36.419,36.8,31.114,22.473,6.097,7.575,11.108
1691,0.678,36.177,36.836,31.104,22.48,6.097,7.658,11.108
1692,0.695,36.206,36.887,31.095,22.476,6.056,7.699,11.108
1693,0.698,36.371,36.871,31.143,22.48,6.138,7.699,11.149
1694,0.705,36.448,36.824,31.143,22.494,6.138,7.863,11.189
1695,0.698,36.051,36.832,31.124,22.48,6.097,7.74,11.231
1696,0.701,36.138,36.883,31.095,22.469,6.138,7.699,11.149
1697,0.698,36.255,36.848,31.085,22.469,6.097,7.658,11.066
1698,0.688,36.351,36.855,31.085,22.48,6.015,7.617,11.025
1699,0.695,35.945,36.883,31.085,22.469,6.097,7.617,10.984
1700,0.705,36.09,36.836,31.075,22.469,6.056,7.575,10.943
1701,0.705,36.206,36.84,31.075,22.469,6.138,7.617,10.984
1702,0.701,36.284,36.871,31.095,22.476,6.138,7.617,10.943
1703,0.701,36.032,36.855,31.085,22.473,6.138,7.575,10.902
1704,0.701,36.196,36.8,31.104,22.476,6.179,7.617,10.943
1705,0.685,36.313,36.832,31.095,22.473,6.179,7.658,10.984
1706,0.665,36.332,36.844,31.095,22.466,6.097,7.575,10.943
1707,0.669,36.061,36.867,31.075,22.466,6.097,7.534,10.902
1708,0.678,36.235,36.851,31.095,22.469,6.179,7.658,10.902
1709,0.678,36.342,36.863,31.104,22.473,6.22,7.699,10.984
1710,0.669,36.39,36.836,31.095,22.48,6.302,7.74,11.025
1711,0.669,35.993,36.848,31.104,22.483,6.302,7.699,11.066
1712,0.665,36.138,36.859,31.114,22.483,6.302,7.781,11.066
1713,0.695,36.235,36.883,31.085,22.476,6.302,7.74,11.108
1714,0.698,36.245,36.875,31.104,22.48,6.262,7.74,11.066
1715,0.698,36.148,36.765,31.114,22.473,6.343,7.699,11.066
1716,0.698,36.284,36.859,31.085,22.476,6.262,7.781,11.066
1717,0.701,36.39,36.891,31.085,22.48,6.262,7.74,11.149
1718,0.708,36.109,36.848,31.095,22.48,6.262,7.658,11.272
1719,0.715,36.051,36.879,31.095,22.473,6.302,7.658,11.313
1720,0.724,36.167,36.883,31.124,22.49,6.385,7.74,11.6
1721,0.721,36.284,36.848,31.133,22.483,6.385,7.822,12.052
1722,0.718,35.867,36.844,31.066,22.48,6.385,7.699,12.216
1723,0.724,35.983,36.848,31.104,22.473,6.262,7.74,12.504
1724,0.711,36.09,36.863,31.066,22.473,6.22,7.617,12.668
1725,0.721,36.187,36.765,31.075,22.473,6.138,7.617,12.873
1726,0.711,35.935,36.832,31.075,22.469,6.22,7.534,13.079
1727,0.698,36.09,36.851,31.075,22.476,6.22,7.617,13.161
1728,0.685,36.206,36.848,31.114,22.476,6.262,7.617,13.243
1729,0.682,36.284,36.84,31.075,22.473,6.302,7.658,13.325
1730,0.662,35.993,36.867,31.066,22.476,6.302,7.658,13.366
1731,0.646,36.129,36.855,31.114,22.48,6.302,7.699,13.325
1732,0.646,36.245,36.844,31.046,22.466,6.22,7.658,13.243
1733,0.659,36.313,36.84,31.046,22.466,6.179,7.575,13.161
1734,0.678,36.032,36.863,31.056,22.476,6.302,7.658,13.079
1735,0.698,36.167,36.8,31.095,22.476,6.302,7.699,13.038
1736,0.744,36.284,36.812,31.095,22.476,6.385,7.74,13.038
1737,0.793,36.322,36.848,31.085,22.483,6.385,7.74,12.873
1738,0.862,36.071,36.832,31.066,22.476,6.467,7.781,12.791
1739,0.905,36.206,36.859,31.085,22.483,6.385,7.822,12.586
1740,0.964,36.322,36.891,31.066,22.483,6.302,7.822,12.422
1741,1.007,36.361,36.859,31.085,22.48,6.385,7.863,12.298
1742,1.046,36.1,36.859,31.075,22.473,6.385,7.822,12.175
1743,1.096,36.235,36.899,31.075,22.48,6.302,7.822,11.97
1744,1.155,36.351,36.895,31.075,22.48,6.343,7.781,11.806
1745,1.237,36.642,36.816,31.085,22.483,6.426,7.863,11.683
1746,1.28,36.797,36.832,31.104,22.494,6.467,7.863,11.641
1747,1.339,36.884,36.863,31.075,22.483,6.508,7.945,11.477
1748,1.398,36.981,36.828,31.075,22.476,6.426,7.822,11.354
1749,1.47,35.712,36.863,31.056,22.466,6.302,7.74,11.025
1750,1.503,35.683,36.859,31.056,22.469,6.343,7.699,10.984
1751,1.569,35.857,36.84,31.066,22.469,6.302,7.74,10.984
1752,1.644,35.925,36.867,31.056,22.473,6.385,7.617,10.902
1753,1.73,36.071,36.903,31.066,22.473,6.385,7.658,10.902
1754,1.796,36.226,36.891,31.066,22.473,6.385,7.658,10.82
1755,1.855,36.361,36.773,31.066,22.476,6.426,7.781,10.738
1756,1.904,36.429,36.84,31.066,22.48,6.426,7.781,10.656
1757,1.957,35.993,36.851,31.046,22.476,6.385,7.74,10.738
1758,2.029,36.119,36.804,31.066,22.476,6.467,7.74,10.491
1759,2.088,36.245,36.84,31.037,22.466,6.302,7.658,10.45
1760,2.15,36.322,36.859,31.037,22.473,6.302,7.658,10.368
1761,2.196,35.925,36.851,31.066,22.473,6.467,7.74,10.409
1762,2.213,36.071,36.867,31.095,22.487,6.385,7.699,10.368
1763,2.229,36.148,36.922,31.066,22.483,6.508,7.74,10.45
1764,2.249,36.226,36.879,31.095,22.483,6.426,7.699,10.368
1765,2.229,36.051,36.867,31.095,22.48,6.467,7.658,10.327
1766,2.216,36.196,36.828,31.075,22.476,6.467,7.699,10.286
1767,2.167,36.303,36.851,31.046,22.48,6.426,7.658,10.204
1768,2.052,36.322,36.824,31.066,22.483,6.467,7.658,10.245
1769,1.914,36.303,36.851,31.056,22.48,6.385,7.617,10.122
1770,1.796,36.448,36.867,31.075,22.473,6.426,7.699,10.122
1771,1.635,36.574,36.883,31.104,22.487,6.467,7.74,10.163
1772,1.411,36.787,36.855,31.095,22.487,6.631,7.781,10.286
1773,1.198,35.896,36.887,31.075,22.476,6.426,7.781,10.245
1774,1.037,36.003,36.887,31.046,22.476,6.343,7.699,10.286
1775,0.931,36.109,36.777,31.037,22.466,6.262,7.658,10.327
1776,0.839,35.954,36.859,31.056,22.466,6.302,7.699,10.532
1777,0.761,36.032,36.855,31.037,22.462,6.302,7.658,10.697
1778,0.708,36.177,36.848,31.056,22.476,6.262,7.617,10.902
1779,0.665,36.255,36.844,31.037,22.476,6.302,7.699,11.025
1780,0.646,36.206,36.875,31.046,22.473,6.302,7.658,11.149
1781,0.616,36.342,36.844,31.037,22.483,6.343,7.699,11.313
1782,0.619,36.458,36.836,31.046,22.473,6.385,7.74,11.395
1783,0.6,36.516,36.863,31.037,22.473,6.385,7.781,11.436
1784,0.593,35.635,36.867,31.017,22.469,6.22,7.617,11.518
1785,0.603,35.819,36.812,31.037,22.466,6.343,7.617,11.477
1786,0.623,35.954,36.859,31.046,22.48,6.343,7.699,11.518
1787,0.626,36.032,36.855,31.046,22.476,6.385,7.781,11.559
1788,0.636,35.983,36.859,31.046,22.48,6.426,7.699,11.641
1789,0.655,36.109,36.848,31.046,22.48,6.467,7.658,11.683
1790,0.659,36.216,36.855,31.037,22.487,6.508,7.658,11.929
1791,0.688,36.293,36.851,31.037,22.487,6.467,7.658,12.134
1792,0.718,35.993,36.832,31.037,22.48,6.467,7.658,12.381
1793,0.757,36.109,36.887,31.037,22.48,6.426,7.658,12.586
1794,0.797,36.235,36.832,31.037,22.469,6.426,7.658,12.873
1795,0.807,36.264,36.788,31.056,22.473,6.385,7.617,13.161
1796,0.826,35.993,36.836,31.046,22.476,6.426,7.617,13.366
1797,0.846,36.167,36.863,31.056,22.483,6.426,7.534,13.531
1798,0.846,36.274,36.863,31.075,22.49,6.59,7.658,13.859
1799,0.843,36.264,36.871,31.056,22.487,6.549,7.699,13.982
1800,0.833,35.935,36.84,31.037,22.476,6.426,7.534,13.859
1801,0.83,36.09,36.84,31.027,22.469,6.385,7.452,13.777
1802,0.83,36.177,36.828,31.017,22.466,6.302,7.452,13.777
1803,0.82,36.042,36.875,31.027,22.469,6.343,7.452,13.695
1804,0.807,36.032,36.808,31.008,22.476,6.343,7.411,13.736
1805,0.793,36.177,36.804,31.085,22.476,6.343,7.452,13.613
1806,0.787,36.274,36.824,31.027,22.469,6.343,7.452,13.531
1807,0.784,35.964,36.851,31.027,22.48,6.302,7.452,13.407
1808,0.77,36.1,36.851,31.046,22.476,6.343,7.452,13.284
1809,0.761,36.206,36.824,31.046,22.476,6.302,7.575,13.202
1810,0.747,36.274,36.891,31.027,22.473,6.343,7.534,13.079
1811,0.751,35.848,36.757,31.017,22.462,6.262,7.534,12.915
1812,0.761,36.032,36.844,31.008,22.469,6.262,7.534,12.832
1813,0.78,36.158,36.887,31.037,22.48,6.302,7.617,12.832
1814,0.787,36.255,36.859,31.046,22.48,6.302,7.699,12.873
1815,0.774,35.857,36.8,31.037,22.48,6.343,7.658,12.915
1816,0.767,35.983,36.832,31.046,22.48,6.302,7.74,12.915
1817,0.767,36.109,36.875,31.037,22.476,6.302,7.781,12.915
1818,0.787,36.187,36.871,31.085,22.483,6.385,7.781,12.873
1819,0.79,35.983,36.859,31.037,22.483,6.343,7.781,12.791
1820,0.807,36.119,36.883,31.027,22.476,6.22,7.74,12.709
1821,0.793,36.226,36.792,31.037,22.476,6.302,7.74,12.586
1822,0.813,36.274,36.836,31.037,22.48,6.262,7.74,12.545
1823,0.807,35.935,36.859,31.017,22.476,6.262,7.74,12.422
1824,0.79,36.1,36.907,31.046,22.494,6.426,7.863,12.381
1825,0.774,36.187,36.859,31.037,22.487,6.385,7.945,12.381
1826,0.764,36.206,36.832,31.037,22.483,6.302,7.781,12.216
1827,0.754,36.022,36.859,31.008,22.476,6.262,7.658,12.052
1828,0.757,36.167,36.836,31.056,22.466,6.179,7.699,11.847
1829,0.751,36.264,36.82,30.998,22.476,6.22,7.658,11.723
1830,0.728,36.148,36.859,30.998,22.473,6.22,7.617,11.641
1831,0.744,35.954,36.844,31.066,22.473,6.22,7.617,11.559
1832,0.734,36.1,36.851,31.008,22.476,6.138,7.658,11.436
1833,0.741,36.196,36.891,31.017,22.469,6.22,7.617,11.354
1834,0.754,35.925,36.899,31.017,22.473,6.179,7.658,11.272
1835,0.757,36.012,36.796,31.017,22.476,6.262,7.575,11.149
1836,0.747,36.129,36.844,30.998,22.469,6.179,7.534,11.108
1837,0.757,36.216,36.855,30.998,22.469,6.097,7.494,10.902
1838,0.78,35.867,36.848,31.008,22.476,6.179,7.452,10.902
1839,0.793,36.032,36.851,31.037,22.483,6.262,7.494,10.943
1840,0.79,36.129,36.859,31.017,22.48,6.262,7.575,10.943
1841,0.79,36.226,36.859,31.017,22.48,6.302,7.617,10.943
1842,0.793,35.906,36.848,31.017,22.476,6.262,7.575,10.943
1843,0.79,36.051,36.891,31.037,22.48,6.22,7.534,10.902
1844,0.78,36.158,36.899,31.037,22.473,6.262,7.452,10.984
1845,0.767,36.235,36.836,31.017,22.483,6.262,7.452,10.984
1846,0.761,35.857,36.867,31.017,22.476,6.302,7.452,10.943
1847,0.764,36.012,36.879,30.998,22.483,6.302,7.37,10.861
1848,0.761,36.138,36.863,31.066,22.469,6.22,7.411,10.902
1849,0.761,36.206,36.84,31.037,22.48,6.262,7.411,10.902
1850,0.761,36.032,36.871,31.037,22.487,6.426,7.452,11.025
1851,0.744,36.187,36.844,31.066,22.494,6.385,7.452,11.108
1852,0.751,36.284,36.82,31.037,22.483,6.302,7.411,11.272
1853,0.751,36.274,36.879,30.998,22.469,6.302,7.288,11.272
1854,0.774,35.848,36.879,30.969,22.469,6.22,7.206,11.6
1855,0.77,35.993,36.796,30.979,22.469,6.179,7.124,11.847
1856,0.764,36.109,36.828,30.979,22.469,6.097,7.124,12.339
1857,0.78,36.419,36.84,30.979,22.473,6.138,7.124,12.75
1858,0.807,36.012,36.875,30.988,22.469,6.179,7.124,13.161
1859,0.826,36.129,36.836,30.988,22.469,6.179,7.165,13.531
1860,0.826,36.226,36.851,30.988,22.476,6.179,7.083,13.982
1861,0.81,35.916,36.82,30.998,22.476,6.138,7.083,14.311
1862,0.8,35.935,36.808,30.969,22.469,6.138,7.124,14.722
1863,0.787,36.071,36.871,30.959,22.466,6.138,6.96,14.845
1864,0.8,36.187,36.867,30.988,22.476,6.138,6.96,15.05
1865,0.784,35.848,36.769,30.998,22.469,6.179,7.083,15.255
1866,0.774,35.993,36.828,31.008,22.48,6.179,7.042,15.338
1867,0.764,36.129,36.848,30.988,22.48,6.179,7.042,15.338
1868,0.774,36.206,36.879,30.979,22.48,6.22,7.042,15.255
1869,0.784,35.877,36.836,30.998,22.476,6.179,7.083,15.255
1870,0.764,36.003,36.863,30.998,22.473,6.22,6.96,15.173
1871,0.774,36.129,36.844,31.037,22.48,6.302,6.96,14.968
1872,0.764,36.196,36.828,31.008,22.473,6.179,7.001,14.722
1873,0.77,35.906,36.863,30.988,22.48,6.138,6.96,14.639
1874,0.784,36.042,36.903,30.988,22.473,6.22,6.837,14.434
1875,0.807,36.196,36.82,31.017,22.487,6.179,6.919,14.311
1876,0.803,36.245,36.855,31.037,22.487,6.343,6.96,14.228
1877,0.82,35.857,36.863,31.008,22.483,6.22,6.96,14.064
1878,0.807,36.012,36.816,30.988,22.476,6.22,6.877,13.777
1879,0.816,36.119,36.824,30.969,22.469,6.138,6.754,13.654
1880,0.82,36.148,36.863,30.969,22.469,6.138,6.754,13.366
1881,0.83,35.906,36.844,31.037,22.473,6.056,6.754,13.202
1882,0.836,36.012,36.859,30.959,22.473,6.138,6.713,13.161
1883,0.836,36.129,36.863,30.969,22.469,6.138,6.713,13.202
1884,0.83,36.158,36.879,30.969,22.476,6.179,6.713,13.325
1885,0.826,35.925,36.792,30.969,22.48,6.138,6.713,13.407
1886,0.826,36.061,36.84,30.959,22.476,6.179,6.754,13.531
1887,0.816,36.167,36.836,30.988,22.476,6.179,6.754,13.777
1888,0.797,35.954,36.828,30.979,22.473,6.179,6.713,13.859
1889,0.793,35.925,36.808,30.95,22.469,6.138,6.713,14.023
1890,0.8,36.061,36.867,30.959,22.466,6.138,6.631,14.146
1891,0.816,36.167,36.808,31.017,22.473,6.138,6.713,14.393
1892,0.813,35.838,36.855,30.998,22.473,6.179,6.877,14.557
1893,0.81,35.974,36.863,30.959,22.476,6.22,6.837,14.598
1894,0.833,36.09,36.899,30.979,22.487,6.179,6.837,14.639
1895,0.836,36.167,36.796,30.988,22.483,6.22,6.754,14.68
1896,0.846,35.751,36.82,30.988,22.48,6.179,6.795,14.557
1897,0.853,35.896,36.848,30.988,22.476,6.179,6.795,14.434
1898,0.859,36.012,36.832,30.969,22.476,6.138,6.795,14.393
1899,0.859,36.09,36.867,30.969,22.473,6.138,6.877,14.27
1900,0.862,35.819,36.824,30.959,22.473,6.056,6.877,14.023
1901,0.872,35.993,36.848,30.979,22.469,6.097,6.795,13.941
1902,0.872,36.138,36.875,31.027,22.49,6.22,6.919,13.859
1903,0.856,36.167,36.922,30.998,22.487,6.262,7.001,13.859
1904,0.843,35.867,36.855,30.979,22.48,6.179,6.96,13.736
1905,0.839,36.022,36.784,30.988,22.466,6.097,6.837,13.571
1906,0.839,36.119,36.812,30.95,22.469,6.097,6.877,13.531
1907,0.839,36.148,36.848,30.969,22.473,6.056,6.754,13.613
1908,0.826,35.828,36.749,30.959,22.466,6.138,6.837,13.695
1909,0.839,35.974,36.844,30.95,22.469,6.097,6.837,13.736
1910,0.839,36.09,36.871,30.969,22.469,6.097,6.837,13.859
1911,0.839,36.109,36.808,30.969,22.48,6.138,6.877,13.941
1912,0.839,35.877,36.832,30.969,22.476,6.179,6.877,14.023
1913,0.843,36.022,36.844,30.969,22.476,6.138,6.837,13.982
1914,0.843,36.08,36.899,30.959,22.476,6.179,6.877,14.023
1915,0.869,36.032,36.792,30.94,22.466,6.056,6.795,13.941
1916,0.872,35.935,36.832,30.94,22.466,5.974,6.713,13.818
1917,0.892,36.08,36.824,30.969,22.473,6.056,6.754,13.777
1918,0.918,36.196,36.761,30.998,22.48,6.097,6.919,13.777
1919,0.928,35.654,36.844,30.979,22.483,6.138,6.919,13.695
1920,0.925,35.712,36.879,30.969,22.476,6.138,6.877,13.531
1921,0.922,35.838,36.773,30.979,22.483,6.138,6.919,13.407
1922,0.925,35.945,36.832,30.969,22.483,6.138,6.837,13.284
1923,0.915,35.761,36.891,30.959,22.48,6.056,6.837,13.161
1924,0.908,35.916,36.899,30.979,22.48,6.097,6.877,12.996
1925,0.912,36.012,36.82,30.969,22.476,6.056,6.713,12.873
1926,0.902,36.119,36.84,30.969,22.473,6.056,6.795,12.709
1927,0.892,35.761,36.828,30.969,22.476,6.056,6.795,12.586
1928,0.899,35.916,36.82,30.979,22.48,6.056,6.837,12.381
1929,0.895,36.051,36.855,30.988,22.49,6.138,6.96,12.339
1930,0.882,36.09,36.883,30.959,22.483,6.056,6.877,12.216
1931,0.866,35.683,36.82,30.979,22.476,6.015,6.795,12.011
1932,0.866,35.819,36.816,30.95,22.473,5.974,6.713,11.888
1933,0.872,35.935,36.859,30.959,22.466,5.933,6.754,11.559
1934,0.889,35.974,36.875,30.94,22.473,5.933,6.713,11.477
1935,0.892,35.77,36.828,30.93,22.48,6.015,6.754,11.354
1936,0.912,35.916,36.844,30.95,22.473,5.933,6.754,11.272
1937,0.915,36.022,36.848,30.969,22.476,5.933,6.713,11.189
1938,0.918,36.061,36.851,30.959,22.476,5.933,6.795,11.066
1939,0.935,36.778,36.82,30.969,22.473,5.974,6.837,11.025
1940,0.951,36.874,36.867,30.95,22.48,5.974,6.713,10.861
1941,0.951,36.962,36.824,30.94,22.469,5.892,6.713,10.779
1942,0.954,36.845,36.84,30.94,22.466,5.892,6.672,10.615
1943,0.954,35.383,36.859,30.95,22.473,5.892,6.754,10.491
1944,0.938,35.528,36.867,30.979,22.483,6.015,6.795,10.491
1945,0.951,35.673,36.757,30.988,22.483,6.056,6.795,10.45
1946,0.948,35.848,36.84,30.969,22.48,5.974,6.795,10.368
1947,0.945,36.012,36.851,30.979,22.483,5.974,6.795,10.245
1948,0.935,36.129,36.784,30.969,22.48,5.974,6.795,10.245
1949,0.945,36.216,36.84,30.979,22.483,5.974,6.754,10.122
1950,0.935,35.635,36.899,30.969,22.476,5.974,6.877,10.04
1951,0.958,35.751,36.765,30.979,22.476,5.974,6.837,9.999
1952,0.961,35.887,36.848,30.969,22.476,5.933,6.837,9.916
1953,0.984,35.974,36.855,30.95,22.48,5.892,6.919,9.957
1954,0.997,36.72,36.891,30.969,22.48,5.892,7.042,9.834
1955,1.0,36.855,36.84,30.988,22.487,5.974,7.042,9.793
1956,1.014,36.952,36.836,30.979,22.49,6.015,7.247,9.916
1957,1.0,37.01,36.863,30.969,22.476,5.892,7.165,9.711
1958,0.994,35.238,36.765,30.979,22.476,5.892,7.124,9.752
1959,1.004,35.393,36.851,30.959,22.469,5.81,7.124,9.711
1960,1.01,35.528,36.879,30.94,22.473,5.768,7.206,9.793
1961,1.014,35.577,36.859,30.959,22.466,5.768,7.247,9.834
1962,1.043,35.877,36.844,30.95,22.476,5.81,7.206,10.04
1963,1.037,36.022,36.848,30.95,22.48,5.768,7.329,10.245
1964,1.014,36.129,36.883,30.94,22.476,5.81,7.411,10.409
1965,1.02,36.177,36.773,30.95,22.483,5.851,7.37,10.615
1966,1.007,35.712,36.824,30.95,22.473,5.81,7.452,10.738
1967,1.0,35.828,36.812,30.93,22.476,5.727,7.37,10.82
1968,1.0,35.935,36.781,30.95,22.469,5.727,7.288,10.902
1969,1.03,36.003,36.832,30.94,22.473,5.727,7.329,10.902
1970,1.004,35.857,36.883,30.959,22.473,5.727,7.411,11.108
1971,0.987,35.974,36.851,30.979,22.48,5.933,7.452,11.231
1972,1.017,36.08,36.84,30.959,22.48,5.851,7.494,11.272
1973,1.027,35.857,36.871,30.959,22.48,5.851,7.452,11.395
1974,1.063,35.828,36.883,30.969,22.48,5.892,7.452,11.354
1975,1.066,35.954,36.769,30.959,22.483,5.892,7.452,11.354
1976,1.076,36.051,36.836,30.95,22.476,5.81,7.411,11.395
1977,1.092,35.654,36.84,30.95,22.473,5.768,7.411,11.395
1978,1.099,35.78,36.855,31.037,22.476,5.851,7.452,11.436
1979,1.092,35.906,36.812,30.95,22.473,5.851,7.37,11.354
1980,1.112,36.022,36.883,30.94,22.476,5.851,7.37,11.313
1981,1.119,35.809,36.836,30.998,22.483,5.892,7.534,11.395
1982,1.109,35.916,36.848,30.959,22.483,5.933,7.494,11.395
1983,1.106,36.022,36.891,30.959,22.483,5.851,7.452,11.313
1984,1.106,36.1,36.871,30.93,22.476,5.768,7.329,11.231
1985,1.092,35.751,36.836,30.92,22.473,5.768,7.288,11.108
1986,1.102,35.906,36.784,30.94,22.473,5.727,7.165,11.025
1987,1.106,36.032,36.84,30.92,22.476,5.727,7.247,11.025
1988,1.109,36.08,36.761,30.93,22.476,5.687,7.247,10.984
1989,1.106,35.838,36.812,30.94,22.476,5.687,7.206,10.943
1990,1.109,35.974,36.867,30.94,22.476,5.768,7.206,10.984
1991,1.099,36.09,36.788,30.959,22.476,5.727,7.206,10.861
1992,1.122,36.148,36.828,30.94,22.476,5.727,7.206,10.984
1993,1.129,35.887,36.836,30.93,22.469,5.645,7.165,10.984
1994,1.138,36.012,36.879,30.911,22.473,5.727,7.124,11.066
1995,1.142,36.148,36.844,30.92,22.466,5.645,7.124,11.149
1996,1.148,36.196,36.824,30.93,22.476,5.645,7.124,11.313
1997,1.171,36.09,36.836,30.95,22.476,5.687,7.165,11.6
1998,1.175,36.226,36.848,30.95,22.48,5.81,7.165,11.847
1999,1.194,36.322,36.832,30.959,22.48,5.81,7.206,12.175
2000,1.198,36.148,36.871,30.93,22.487,5.81,7.165,12.216
2001,1.217,35.964,36.82,30.94,22.48,5.768,7.165,12.463
2002,1.201,36.09,36.848,30.93,22.487,5.81,7.124,12.668
2003,1.198,36.196,36.863,30.93,22.48,5.768,7.124,12.791
2004,1.194,36.206,36.911,30.94,22.48,5.81,7.083,12.915
2005,1.181,36.332,36.792,30.94,22.473,5.81,7.083,12.956
2006,1.198,36.458,36.848,30.93,22.476,5.727,7.083,12.956
2007,1.204,36.555,36.851,30.94,22.473,5.727,7.042,13.038
2008,1.204,36.196,36.82,30.959,22.487,5.851,7.083,12.996
2009,1.194,36.322,36.855,30.969,22.49,5.892,7.206,13.079
2010,1.188,36.439,36.875,30.93,22.487,5.851,7.165,13.079
2011,1.191,36.487,36.82,30.911,22.473,5.768,7.042,12.956
2012,1.207,36.284,36.828,30.901,22.469,5.768,6.96,12.832
2013,1.214,36.419,36.828,30.901,22.469,5.768,6.919,12.75
2014,1.214,36.526,36.879,30.891,22.476,5.727,7.001,12.668
2015,1.227,36.594,36.867,30.92,22.473,5.727,7.001,12.668
2016,1.247,36.41,36.848,30.92,22.476,5.768,7.042,12.75
2017,1.25,36.565,36.863,30.92,22.473,5.81,7.124,12.873
2018,1.247,36.671,36.828,30.94,22.48,5.851,7.247,12.996
2019,1.247,36.729,36.848,30.93,22.476,5.851,7.206,13.079
2020,1.24,36.574,36.848,30.901,22.473,5.81,7.329,13.12
2021,1.257,36.71,36.824,30.891,22.466,5.768,7.247,13.079
2022,1.25,36.845,36.844,30.911,22.469,5.727,7.206,13.079
2023,1.257,36.894,36.828,30.93,22.48,5.851,7.37,13.12
2024,1.247,36.72,36.891,30.95,22.476,5.892,7.452,13.284
2025,1.247,36.845,36.883,30.959,22.48,5.892,7.452,13.202
2026,1.23,36.952,36.851,30.93,22.483,5.933,7.494,13.202
2027,1.234,37.184,36.828,30.94,22.48,5.974,7.534,13.12
2028,1.221,36.904,36.816,30.94,22.469,5.974,7.452,13.12
2029,1.217,37.029,36.844,30.94,22.48,5.974,7.494,12.956
2030,1.201,37.126,36.848,30.94,22.476,5.974,7.494,12.956
2031,1.191,37.175,36.824,30.92,22.48,5.974,7.534,12.873
2032,1.184,37.291,36.844,30.93,22.48,5.892,7.494,12.791
2033,1.204,37.407,36.828,30.93,22.48,5.851,7.452,12.709
2034,1.207,37.523,36.855,30.95,22.487,6.015,7.534,12.709
2035,1.211,37.029,36.883,30.979,22.49,6.056,7.617,12.75
2036,1.198,37.136,36.855,30.94,22.487,6.056,7.534,12.709
2037,1.181,37.233,36.851,30.93,22.483,6.056,7.411,12.668
2038,1.178,37.31,36.769,30.93,22.469,5.933,7.411,12.586
2039,1.171,37.068,36.832,30.901,22.473,5.974,7.329,12.422
2040,1.175,37.194,36.863,30.92,22.473,5.974,7.329,12.422
2041,1.178,37.33,36.792,30.92,22.473,5.974,7.288,12.504
2042,1.148,37.407,36.84,30.911,22.469,6.015,7.288,12.586
2043,1.129,37.214,36.836,30.93,22.476,5.892,7.37,12.75
2044,1.115,37.349,36.883,30.92,22.48,5.974,7.288,12.791
2045,1.096,37.465,36.84,30.92,22.48,6.015,7.329,12.915
2046,1.063,37.485,36.8,30.901,22.473,5.851,7.288,13.038
2047,1.056,37.436,36.82,30.911,22.469,5.892,7.288,13.12
2048,1.046,37.601,36.769,30.92,22.466,5.974,7.124,13.366
2049,1.023,37.678,36.82,30.93,22.48,6.015,7.329,13.736
2050,1.007,37.727,36.879,30.92,22.476,6.056,7.329,14.064
2051,0.997,37.388,36.781,30.94,22.48,6.056,7.37,14.352
2052,0.987,37.533,36.848,30.93,22.48,6.056,7.329,14.516
2053,0.987,37.611,36.875,30.95,22.48,6.015,7.329,14.722
2054,0.991,37.64,36.911,30.93,22.48,6.015,7.288,14.722
2055,0.977,37.533,36.828,30.93,22.48,6.056,7.288,14.803
2056,0.987,37.659,36.824,30.93,22.483,6.097,7.165,14.803
2057,0.974,37.756,36.804,30.95,22.473,6.056,7.288,14.722
2058,0.977,37.64,36.855,30.998,22.476,5.974,7.165,14.557
2059,0.974,37.688,36.816,30.94,22.473,5.974,7.124,14.557
2060,0.984,37.814,36.891,30.959,22.487,6.097,7.206,14.434
2061,0.958,37.911,36.824,30.969,22.483,6.22,7.288,14.393
2062,0.954,37.543,36.824,30.94,22.476,6.179,7.206,14.188
2063,0.935,37.64,36.895,30.901,22.469,6.097,7.124,14.023
2064,0.912,37.756,36.883,30.92,22.473,6.015,7.042,13.777
2065,0.902,37.853,36.812,30.901,22.473,6.015,7.042,13.571
2066,0.879,37.64,36.8,30.911,22.469,6.097,7.042,13.366
2067,0.869,37.795,36.832,30.92,22.473,6.015,7.042,13.202
2068,0.859,37.901,36.777,30.901,22.473,6.056,7.001,12.956
2069,0.859,37.998,36.844,30.93,22.476,6.138,7.001,12.873
2070,0.846,37.979,36.863,30.93,22.48,6.138,6.96,12.791
2071,0.833,38.114,36.8,30.93,22.469,6.138,7.042,12.75
2072,0.826,38.221,36.8,30.92,22.476,6.179,6.96,12.627
2073,0.82,38.24,36.844,30.901,22.469,6.056,6.877,12.545
2074,0.82,37.572,36.875,30.901,22.466,6.015,6.877,12.463
2075,0.826,37.717,36.867,30.92,22.469,6.056,6.96,12.422
2076,0.833,37.824,36.844,30.95,22.48,6.179,7.001,12.463
2077,0.82,37.882,36.867,30.95,22.487,6.22,7.001,12.463
2078,0.826,37.824,36.804,30.95,22.48,6.179,7.001,12.422
2079,0.82,37.95,36.824,30.93,22.48,6.22,6.96,12.381
2080,0.816,38.066,36.883,30.93,22.476,6.22,7.001,12.339
2081,0.813,38.085,36.765,30.93,22.48,6.179,6.96,12.216
2082,0.803,37.688,36.824,30.911,22.48,6.179,6.96,12.134
2083,0.787,37.814,36.844,30.95,22.48,6.179,7.001,12.134
2084,0.774,37.921,36.895,30.93,22.48,6.179,7.001,11.97
2085,0.77,37.93,36.844,30.94,22.48,6.262,6.96,11.929
2086,0.751,37.93,36.848,30.95,22.483,6.22,7.001,11.888
2087,0.757,38.046,36.867,30.959,22.483,6.343,7.124,11.764
2088,0.741,38.114,36.82,30.93,22.48,6.302,7.042,11.764
2089,0.721,37.717,36.848,30.92,22.469,6.262,6.877,11.559
2090,0.711,37.795,36.844,30.901,22.473,6.22,6.877,11.477
2091,0.721,37.911,36.812,30.891,22.473,6.22,6.877,11.477
2092,0.728,38.008,36.784,30.92,22.469,6.138,6.919,11.395
2093,0.724,37.62,36.812,30.901,22.469,6.262,6.96,11.395
2094,0.721,37.766,36.879,30.911,22.469,6.22,6.919,11.395
2095,0.721,37.862,36.875,30.911,22.473,6.262,6.877,11.436
2096,0.747,37.95,36.84,30.93,22.473,6.22,6.877,11.477
2097,0.747,37.737,36.851,30.93,22.476,6.302,6.919,11.395
2098,0.741,37.843,36.796,30.911,22.483,6.302,6.919,11.436
2099,0.744,37.959,36.836,30.901,22.469,6.302,6.96,11.354
2100,0.751,38.017,36.863,30.891,22.466,6.138,6.795,11.313
2101,0.751,37.64,36.812,30.911,22.469,6.22,6.837,11.395
2102,0.744,37.785,36.82,30.92,22.48,6.262,6.919,11.518
2103,0.744,37.892,36.84,30.93,22.48,6.343,7.042,11.6
2104,0.728,37.95,36.887,30.92,22.48,6.343,7.001,11.764
2105,0.721,37.737,36.82,30.94,22.48,6.302,6.96,11.888
2106,0.715,37.862,36.828,30.93,22.476,6.262,7.042,11.929
2107,0.715,37.988,36.816,30.93,22.48,6.262,7.001,12.011
2108,0.711,37.988,36.812,30.93,22.476,6.262,7.042,12.093
2109,0.705,37.785,36.824,30.93,22.48,6.22,7.042,12.134
2110,0.688,37.911,36.875,30.93,22.476,6.179,7.042,12.175
2111,0.695,38.046,36.792,30.94,22.487,6.22,7.083,12.093
2112,0.685,38.134,36.832,30.95,22.48,6.343,7.165,12.216
2113,0.688,37.727,36.848,30.94,22.476,6.343,7.206,12.216
2114,0.698,37.824,36.875,30.901,22.48,6.22,7.165,12.134
2115,0.705,37.921,36.832,30.882,22.473,6.138,7.083,11.97
2116,0.698,37.717,36.828,30.901,22.469,6.056,7.001,11.97
2117,0.701,37.804,36.844,30.911,22.473,6.015,7.042,11.723
2118,0.701,37.921,36.741,30.911,22.473,6.056,7.042,11.683
2119,0.698,38.008,36.844,30.901,22.476,6.056,7.001,11.6
2120,0.715,37.62,36.851,30.911,22.476,6.138,7.042,11.641
2121,0.705,37.775,36.796,30.92,22.473,6.097,7.083,11.559
2122,0.715,37.882,36.832,30.911,22.48,6.056,7.083,11.559
2123,0.701,37.959,36.859,30.911,22.476,6.138,7.124,11.6
2124,0.695,37.572,36.859,30.891,22.469,6.056,7.124,11.723
2125,0.682,37.737,36.784,30.901,22.469,6.015,7.001,11.764
2126,0.695,37.872,36.82,30.901,22.476,6.097,7.001,11.929
2127,0.692,37.95,36.836,30.92,22.473,6.138,7.165,12.298
2128,0.698,37.63,36.804,30.92,22.48,6.22,7.124,12.75
2129,0.692,37.766,36.828,30.93,22.48,6.22,7.165,13.325
2130,0.678,37.872,36.863,30.93,22.476,6.22,7.247,13.736
