time,ecg,bvp,gsr,rsp,skt,emg_zygo,emg_coru,emg_trap
0,0.813,37.604,51.16,46.253,28.131,4.865,7.985,5.523
1,0.807,37.726,51.206,46.234,28.138,4.946,7.986,5.644
2,0.816,37.89,51.164,46.272,28.152,4.988,8.149,5.686
3,0.82,37.987,51.253,46.301,28.159,5.07,8.11,5.687
4,0.82,37.442,51.223,46.272,28.142,4.948,8.069,5.646
5,0.803,37.599,51.179,46.272,28.148,4.907,8.109,5.645
6,0.81,37.687,51.253,46.272,28.141,4.947,8.15,5.605
7,0.813,37.726,51.211,46.282,28.141,4.988,8.191,5.645
8,0.82,37.526,51.242,46.272,28.141,4.988,8.232,5.686
9,0.817,37.677,51.148,46.272,28.148,4.948,8.273,5.646
10,0.826,37.803,51.171,46.282,28.145,4.947,8.355,5.605
11,0.817,37.776,51.156,46.253,28.134,4.825,8.275,5.523
12,0.816,37.401,51.132,46.224,28.131,4.865,8.558,5.563
13,0.82,37.541,51.233,46.233,28.138,4.946,8.643,5.563
14,0.807,37.677,51.117,46.281,28.138,4.907,8.684,5.563
15,0.82,37.372,51.206,46.243,28.145,4.865,8.725,5.523
16,0.826,37.416,51.234,46.233,28.145,4.946,8.766,5.563
17,0.817,37.551,51.18,46.233,28.138,4.907,8.807,5.563
18,0.82,37.648,51.159,46.253,28.148,4.906,8.808,5.604
19,0.81,37.381,51.159,46.281,28.145,4.987,9.011,5.726
20,0.82,37.551,51.191,46.301,28.155,5.029,9.094,5.687
21,0.823,37.687,51.089,46.263,28.145,4.948,8.973,5.564
22,0.82,37.784,51.198,46.243,28.141,4.947,8.972,5.645
23,0.81,38.638,51.296,46.253,28.145,4.907,8.972,5.605
24,0.81,38.8,51.2,46.291,28.145,4.947,8.972,5.686
25,0.82,38.917,51.234,46.253,28.145,5.029,9.013,5.687
26,0.823,38.976,51.219,46.262,28.152,4.948,9.054,5.646
27,0.833,36.627,51.257,46.243,28.141,4.988,9.013,5.645
28,0.826,36.776,51.121,46.253,28.141,4.907,8.85,5.523
29,0.817,36.893,51.171,46.253,28.131,4.825,8.767,5.441
30,0.82,36.961,51.23,46.234,28.138,4.824,8.889,5.603
31,0.83,37.585,51.18,46.253,28.145,4.905,8.809,5.564
32,0.83,37.745,51.222,46.243,28.145,4.825,8.808,5.523
33,0.826,37.861,51.179,46.253,28.141,4.865,8.726,5.563
34,0.826,37.882,51.218,46.234,28.138,4.906,8.726,5.523
35,0.82,37.124,51.191,46.224,28.138,4.825,8.726,5.482
36,0.826,37.26,51.214,46.233,28.134,4.865,8.685,5.603
37,0.817,37.396,51.242,46.253,28.145,4.906,8.725,5.645
38,0.823,37.656,51.121,46.262,28.159,4.987,8.848,5.645
39,0.833,37.333,51.194,46.368,28.152,4.907,8.646,5.564
40,0.82,37.426,51.136,46.254,28.141,4.865,8.603,5.523
41,0.817,37.551,51.151,46.253,28.148,4.946,8.562,5.603
42,0.82,37.246,51.249,46.253,28.148,4.866,8.602,5.604
43,0.817,37.233,51.199,46.253,28.148,4.987,8.562,5.604
44,0.82,37.358,51.171,46.281,28.145,4.907,8.48,5.604
45,0.83,37.493,51.128,46.263,28.148,4.987,8.438,5.564
46,0.826,37.082,51.206,46.262,28.148,4.948,8.397,5.604
47,0.826,37.155,51.261,46.224,28.138,4.825,8.194,5.482
48,0.817,37.28,51.16,46.224,28.138,4.865,8.273,5.562
49,0.82,37.396,51.151,46.252,28.141,4.824,8.233,5.523
50,0.826,36.966,51.171,46.234,28.145,4.946,8.273,5.522
51,0.82,37.106,51.195,46.253,28.141,4.866,8.111,5.482
52,0.826,37.232,51.152,46.243,28.138,4.824,8.069,5.522
53,0.813,37.31,51.241,46.233,28.138,4.865,8.028,5.522
54,0.813,36.975,51.156,46.262,28.134,4.906,8.068,5.482
55,0.82,37.134,51.144,46.243,28.145,4.947,8.028,5.603
56,0.83,37.289,51.257,46.281,28.159,5.029,8.068,5.645
57,0.836,37.387,51.133,46.282,28.155,4.989,7.987,5.523
58,0.82,36.88,51.155,46.263,28.145,4.907,7.864,5.522
59,0.813,37.028,51.116,46.253,28.145,4.947,7.863,5.563
60,0.823,37.173,51.182,46.262,28.145,4.947,7.822,5.523
61,0.82,37.213,51.175,46.253,28.148,4.988,7.781,5.563
62,0.817,36.926,51.124,46.253,28.145,4.988,7.822,5.523
63,0.816,37.067,51.245,46.253,28.148,5.07,7.781,5.522
64,0.816,37.202,51.066,46.272,28.152,4.989,7.781,5.482
65,0.813,37.213,51.178,46.253,28.145,4.907,7.659,5.359
66,0.813,36.916,51.226,46.234,28.131,4.906,7.658,5.439
67,0.816,37.047,51.176,46.253,28.145,5.028,7.78,5.481
68,0.816,37.193,51.21,46.262,28.145,4.948,7.862,5.522
69,0.829,37.022,51.07,46.243,28.138,4.988,7.822,5.482
70,0.81,36.914,51.166,46.253,28.141,4.988,7.944,5.4
71,0.82,37.047,51.062,46.253,28.141,4.907,8.026,5.44
72,0.817,37.145,51.193,46.243,28.138,4.947,7.987,5.481
73,0.829,36.685,51.261,46.243,28.134,5.029,8.23,5.481
74,0.82,36.757,51.184,46.31,28.159,5.192,8.314,5.644
75,0.833,36.931,51.238,46.301,28.159,5.153,8.274,5.483
76,0.826,37.009,51.184,46.253,28.145,5.112,8.355,5.522
77,0.807,36.751,51.226,46.243,28.141,5.152,8.275,5.441
78,0.816,36.873,51.121,46.272,28.141,5.031,8.355,5.562
79,0.807,37.038,51.112,46.291,28.145,5.07,8.315,5.482
80,0.813,37.106,51.21,46.253,28.145,5.111,8.274,5.522
81,0.81,36.637,51.082,46.281,28.152,5.112,8.355,5.522
82,0.803,36.786,51.19,46.253,28.141,5.071,8.315,5.441
83,0.807,36.912,51.156,46.234,28.138,4.989,8.152,5.359
84,0.8,36.971,51.136,46.243,28.131,4.988,8.191,5.48
85,0.8,36.588,51.163,46.262,28.145,5.07,8.273,5.562
86,0.797,36.757,51.187,46.243,28.138,5.07,8.233,5.441
87,0.81,36.883,51.238,46.253,28.138,5.03,8.233,5.481
88,0.8,36.932,51.121,46.224,28.148,5.07,8.192,5.481
89,0.8,36.539,51.089,46.233,28.141,5.03,8.151,5.4
90,0.8,36.689,51.202,46.243,28.145,4.989,8.15,5.44
91,0.8,36.806,51.089,46.262,28.152,5.029,8.191,5.481
92,0.807,36.883,51.213,46.282,28.152,5.151,8.314,5.644
93,0.813,36.577,51.214,46.272,28.148,5.071,8.152,5.483
94,0.807,36.728,51.109,46.291,28.145,5.03,8.069,5.44
95,0.813,36.835,51.206,46.272,28.152,5.03,8.15,5.399
96,0.813,36.845,51.203,46.263,28.141,5.03,8.069,5.44
97,0.803,36.491,51.257,46.272,28.138,5.03,8.109,5.399
98,0.81,36.621,51.133,46.243,28.145,5.03,8.109,5.521
99,0.803,36.766,51.151,46.281,28.152,5.03,8.069,5.522
100,0.8,36.586,51.179,46.272,28.138,4.989,7.946,5.4
101,0.79,36.632,51.117,46.243,28.138,4.907,7.783,5.399
102,0.793,36.767,51.186,46.243,28.138,5.028,7.944,5.44
103,0.784,36.902,51.156,46.262,28.138,5.03,7.864,5.481
104,0.787,36.424,51.14,46.272,28.138,5.03,7.863,5.44
105,0.79,36.553,51.124,46.253,28.138,5.03,7.822,5.399
106,0.777,36.699,51.194,46.253,28.138,4.989,7.822,5.44
107,0.784,36.786,51.234,46.224,28.131,4.988,7.822,5.399
108,0.79,36.308,51.18,46.252,28.138,5.029,7.944,5.48
109,0.787,36.476,51.144,46.291,28.159,5.07,8.026,5.644
110,0.8,36.64,51.151,46.301,28.152,5.193,7.987,5.483
111,0.81,36.7,51.14,46.272,28.145,5.112,7.946,5.481
112,0.797,36.326,51.136,46.282,28.145,4.989,8.026,5.44
113,0.8,36.485,51.179,46.263,28.145,4.988,8.068,5.481
114,0.81,36.631,51.148,46.262,28.145,5.07,8.069,5.481
115,0.807,36.7,51.171,46.272,28.145,5.111,8.069,5.522
116,0.81,36.46,51.226,46.263,28.148,5.03,8.069,5.522
117,0.81,36.602,51.195,46.253,28.145,4.989,7.946,5.4
118,0.794,36.728,51.191,46.224,28.138,4.948,7.986,5.318
119,0.787,36.787,51.066,46.252,28.141,5.029,8.068,5.48
120,0.787,36.461,51.154,46.253,28.148,5.03,8.109,5.481
121,0.78,36.602,51.226,46.253,28.145,4.907,8.028,5.44
122,0.78,36.738,51.176,46.253,28.138,4.947,8.068,5.399
123,0.774,36.998,51.234,46.243,28.141,4.947,8.028,5.399
124,0.78,36.329,51.027,46.253,28.134,4.947,8.027,5.399
125,0.764,36.457,51.181,46.262,28.141,4.988,8.109,5.521
126,0.77,36.631,51.171,46.272,28.148,5.11,8.15,5.563
127,0.78,36.46,51.218,46.291,28.162,5.152,8.191,5.563
128,0.787,36.458,51.09,46.282,28.145,5.031,8.11,5.523
129,0.78,36.592,51.1,46.272,28.141,5.03,8.15,5.482
130,0.787,36.699,51.17,46.272,28.141,4.989,8.11,5.522
131,0.79,36.46,51.163,46.263,28.141,5.029,8.028,5.522
132,0.79,36.564,51.222,46.272,28.145,5.07,7.987,5.563
133,0.787,36.708,51.156,46.263,28.145,5.07,8.068,5.482
134,0.78,36.825,51.198,46.282,28.148,5.07,8.069,5.481
135,0.787,36.299,51.113,46.272,28.145,4.948,7.865,5.4
136,0.784,36.418,51.167,46.243,28.134,4.947,7.904,5.44
137,0.771,36.553,51.206,46.243,28.141,4.988,8.026,5.481
138,0.77,36.66,51.086,46.262,28.138,4.988,8.19,5.44
139,0.767,36.383,51.162,46.31,28.138,4.988,8.151,5.44
140,0.77,36.515,51.12,46.263,28.138,4.948,8.191,5.44
141,0.761,36.631,51.151,46.262,28.134,4.988,8.192,5.399
142,0.774,36.738,51.144,46.272,28.138,4.866,8.232,5.358
143,0.774,36.413,51.222,46.253,28.145,4.987,8.314,5.48
144,0.771,36.611,51.148,46.31,28.152,5.07,8.559,5.603
145,0.777,36.757,51.171,46.311,28.152,5.152,8.48,5.523
146,0.784,36.787,51.253,46.292,28.141,5.031,8.438,5.563
147,0.774,36.394,51.184,46.282,28.145,5.03,8.56,5.563
148,0.784,36.553,51.148,46.291,28.145,5.03,8.521,5.604
149,0.777,36.699,51.081,46.282,28.148,4.989,8.683,5.564
150,0.777,36.7,51.1,46.282,28.145,5.029,8.725,5.523
151,0.777,36.47,51.042,46.301,28.145,5.111,8.848,5.522
152,0.784,36.612,51.072,46.292,28.148,4.989,8.889,5.563
153,0.777,36.718,51.17,46.263,28.134,4.866,8.849,5.36
154,0.767,36.585,51.163,46.291,28.134,4.865,8.93,5.521
155,0.77,36.459,51.14,46.282,28.138,4.906,9.053,5.563
156,0.787,36.659,51.218,46.282,28.141,4.906,8.973,5.523
157,0.771,36.748,51.164,46.272,28.145,4.906,9.053,5.603
158,0.767,36.413,51.148,46.282,28.138,4.947,8.973,5.523
159,0.757,36.515,51.167,46.282,28.138,4.907,8.972,5.482
160,0.774,36.66,51.171,46.263,28.134,4.865,9.013,5.522
161,0.777,36.748,51.156,46.291,28.145,4.946,9.054,5.685
162,0.767,36.413,51.159,46.291,28.148,4.988,9.135,5.727
163,0.774,36.563,51.23,46.301,28.159,5.07,9.055,5.565
164,0.761,36.708,51.078,46.311,28.142,4.908,8.891,5.482
165,0.764,36.787,51.17,46.301,28.138,4.987,8.89,5.644
166,0.767,36.375,51.241,46.292,28.145,4.948,8.93,5.645
167,0.764,36.505,51.203,46.301,28.145,5.029,8.85,5.645
168,0.774,36.65,51.214,46.301,28.145,4.989,8.808,5.605
169,0.767,36.728,51.054,46.311,28.145,4.988,8.848,5.645
170,0.777,36.49,51.189,46.311,28.145,4.948,8.727,5.605
171,0.774,36.631,51.074,46.292,28.134,4.825,8.644,5.482
172,0.767,36.738,51.17,46.282,28.131,4.824,8.684,5.562
173,0.757,36.825,51.23,46.301,28.145,4.905,8.684,5.604
174,0.774,36.529,51.043,46.292,28.138,4.825,8.725,5.604
175,0.777,36.679,51.17,46.291,28.138,4.865,8.685,5.564
176,0.774,36.796,51.128,46.301,28.134,4.824,8.644,5.482
177,0.758,36.845,51.171,46.282,28.138,4.865,8.562,5.562
178,0.757,36.5,51.109,46.301,28.134,4.906,8.602,5.482
179,0.764,36.65,51.026,46.301,28.141,4.947,8.643,5.725
180,0.777,36.834,51.142,46.33,28.152,5.069,8.725,5.727
181,0.771,36.884,51.085,46.311,28.145,4.948,8.603,5.605
182,0.764,36.635,51.17,46.301,28.145,4.907,8.602,5.604
183,0.761,36.786,51.187,46.292,28.148,4.906,8.521,5.604
184,0.754,36.883,51.132,46.32,28.145,4.906,8.52,5.645
185,0.748,36.606,51.159,46.301,28.152,4.987,8.561,5.645
186,0.754,36.642,51.151,46.32,28.141,4.988,8.521,5.645
187,0.767,36.786,51.233,46.292,28.145,4.907,8.479,5.645
188,0.761,36.874,51.109,46.311,28.141,4.825,8.479,5.523
189,0.754,36.414,51.104,46.272,28.131,4.783,8.357,5.482
190,0.748,36.515,51.147,46.301,28.138,4.946,8.437,5.644
191,0.76,36.679,51.066,46.33,28.141,4.866,8.397,5.605
192,0.764,36.786,51.178,46.321,28.138,4.824,8.316,5.564
193,0.754,36.624,51.152,46.32,28.145,4.905,8.274,5.563
194,0.754,36.766,51.105,46.301,28.138,4.744,8.274,5.563
195,0.761,36.902,51.069,46.301,28.138,4.864,8.233,5.523
196,0.757,36.98,51.178,46.311,28.138,4.865,8.273,5.644
197,0.764,36.511,51.234,46.32,28.152,4.987,8.355,5.686
198,0.774,36.689,51.121,46.368,28.155,5.029,8.234,5.605
199,0.774,36.786,51.12,46.321,28.148,4.907,8.192,5.645
200,0.764,36.864,51.1,46.32,28.145,4.906,8.151,5.645
201,0.757,36.539,51.081,46.32,28.145,4.947,8.191,5.645
202,0.77,36.699,51.174,46.32,28.148,4.907,8.11,5.645
203,0.767,36.825,51.124,46.32,28.141,4.987,8.15,5.686
204,0.757,36.874,51.151,46.34,28.148,4.948,8.069,5.564
205,0.754,36.577,51.069,46.321,28.138,4.825,7.987,5.523
206,0.757,36.708,51.178,46.311,28.134,4.783,7.946,5.603
207,0.757,36.834,51.195,46.311,28.141,4.946,7.986,5.604
208,0.764,37.114,51.175,46.33,28.141,4.907,7.986,5.564
209,0.761,36.484,51.163,46.33,28.141,4.906,7.946,5.523
210,0.761,36.602,51.14,46.321,28.138,4.825,7.905,5.522
211,0.764,36.718,51.167,46.311,28.138,4.865,7.904,5.522
212,0.761,36.537,51.124,46.32,28.134,4.865,7.863,5.563
213,0.757,36.555,51.217,46.33,28.148,4.946,7.944,5.645
214,0.777,36.727,51.129,46.359,28.155,5.11,8.026,5.727
215,0.784,36.854,51.089,46.34,28.148,4.989,7.946,5.605
216,0.767,36.395,51.186,46.311,28.141,4.988,7.945,5.604
217,0.754,36.496,51.085,46.311,28.145,4.988,7.945,5.645
218,0.761,36.641,51.127,46.349,28.145,4.988,7.986,5.564
219,0.767,36.738,51.026,46.34,28.145,4.988,8.027,5.604
220,0.757,36.384,51.138,46.369,28.145,5.029,7.987,5.604
221,0.757,36.515,51.136,46.359,28.148,5.03,8.027,5.523
222,0.764,36.67,51.14,46.34,28.145,4.948,7.946,5.482
223,0.761,36.729,51.171,46.302,28.134,4.825,7.905,5.522
224,0.757,36.48,51.046,46.339,28.138,4.987,8.026,5.603
225,0.767,36.65,51.162,46.33,28.138,5.029,8.068,5.523
226,0.761,36.776,51.124,46.349,28.138,4.907,8.069,5.563
227,0.761,36.845,51.171,46.35,28.145,4.947,8.028,5.482
228,0.761,36.27,51.128,46.321,28.141,4.947,8.068,5.44
229,0.754,36.408,51.061,46.33,28.134,4.907,8.109,5.521
230,0.761,36.553,51.131,46.33,28.145,4.906,8.313,5.563
231,0.774,36.612,51.108,46.349,28.152,5.109,8.437,5.645
232,0.774,36.44,51.182,46.378,28.159,5.071,8.519,5.645
233,0.774,36.563,51.187,46.34,28.145,4.989,8.439,5.523
234,0.761,36.68,51.132,46.34,28.141,4.988,8.601,5.563
235,0.774,36.71,51.171,46.349,28.152,5.029,8.724,5.563
236,0.774,36.374,51.163,46.35,28.145,5.03,8.766,5.563
237,0.754,36.515,51.222,46.369,28.152,5.03,8.929,5.563
238,0.757,36.65,51.133,46.369,28.148,5.03,9.012,5.604
239,0.767,36.652,51.081,46.369,28.141,5.03,8.972,5.523
240,0.761,36.671,51.135,46.35,28.134,4.948,8.891,5.482
241,0.754,36.777,51.069,46.33,28.134,4.988,9.012,5.562
242,0.751,36.921,51.151,46.369,28.141,4.988,9.054,5.523
243,0.764,36.041,51.085,46.35,28.141,4.988,9.054,5.522
244,0.757,36.08,51.1,46.378,28.141,5.029,9.013,5.522
245,0.748,36.224,51.17,46.359,28.134,5.03,8.972,5.563
246,0.747,36.331,51.116,46.359,28.134,5.03,9.013,5.563
247,0.751,36.179,51.217,46.35,28.138,5.07,9.054,5.482
248,0.764,36.34,51.16,46.369,28.148,5.152,9.176,5.644
249,0.767,36.486,51.183,46.407,28.152,5.193,9.259,5.686
250,0.78,36.573,51.085,46.398,28.145,4.99,9.097,5.564
251,0.764,36.133,51.174,46.369,28.141,5.029,9.054,5.645
252,0.767,36.301,51.081,46.369,28.145,5.07,9.013,5.605
253,0.77,36.418,51.201,46.369,28.141,5.03,9.135,5.564
254,0.761,36.506,51.07,46.388,28.148,5.07,9.055,5.604
255,0.777,36.123,51.139,46.379,28.148,5.03,9.054,5.564
256,0.771,36.292,51.21,46.388,28.145,5.03,9.054,5.563
257,0.767,36.428,51.136,46.35,28.138,4.907,8.81,5.441
258,0.751,36.439,51.21,46.35,28.138,4.906,8.97,5.481
259,0.751,36.113,51.09,46.369,28.141,4.987,8.972,5.522
260,0.754,36.301,51.174,46.388,28.138,4.948,8.931,5.522
261,0.754,36.399,51.132,46.379,28.138,5.029,8.85,5.482
262,0.751,36.457,51.112,46.359,28.141,4.989,8.889,5.562
263,0.751,36.007,51.206,46.359,28.131,4.948,8.849,5.482
264,0.741,36.137,51.074,46.369,28.138,4.907,8.93,5.644
265,0.747,36.321,51.135,46.378,28.145,5.028,9.053,5.686
266,0.764,36.361,51.163,46.417,28.159,5.111,9.054,5.646
267,0.77,36.121,51.136,46.408,28.145,5.03,8.932,5.564
268,0.761,36.244,51.151,46.388,28.145,5.03,8.931,5.563
269,0.757,36.36,51.069,46.388,28.141,4.948,8.89,5.563
270,0.754,35.92,51.143,46.407,28.145,4.988,8.93,5.563
271,0.767,35.944,51.038,46.408,28.145,5.029,8.931,5.645
272,0.77,36.079,51.115,46.398,28.145,4.989,8.972,5.564
273,0.774,36.224,51.202,46.398,28.152,5.07,8.931,5.482
274,0.761,35.832,51.105,46.388,28.138,4.948,8.89,5.359
275,0.754,35.972,51.155,46.369,28.134,4.907,8.93,5.521
276,0.767,36.098,51.124,46.388,28.145,4.987,9.093,5.522
277,0.761,36.215,51.178,46.388,28.145,4.948,9.054,5.482
278,0.757,35.842,51.12,46.388,28.145,4.988,9.095,5.522
279,0.761,35.972,51.139,46.379,28.131,4.907,9.095,5.482
280,0.754,36.108,51.14,46.388,28.138,4.947,9.176,5.481
281,0.748,36.186,51.085,46.379,28.138,4.988,9.096,5.522
282,0.741,35.784,51.135,46.398,28.152,5.029,9.258,5.644
283,0.764,35.972,51.128,46.427,28.152,5.03,9.3,5.686
284,0.757,36.127,51.163,46.446,28.148,5.07,9.178,5.524
285,0.748,36.196,51.058,46.408,28.145,5.03,9.137,5.522
286,0.741,35.765,51.154,46.417,28.138,4.989,9.217,5.563
287,0.747,35.933,51.109,46.398,28.141,4.948,9.178,5.482
288,0.751,36.06,51.182,46.417,28.145,4.988,9.137,5.562
289,0.754,36.099,51.163,46.417,28.148,5.07,9.136,5.685
290,0.757,35.735,51.101,46.417,28.141,5.07,9.177,5.564
291,0.757,35.875,51.143,46.408,28.145,4.948,9.096,5.563
292,0.761,35.982,51.058,46.398,28.134,4.907,8.973,5.441
293,0.761,36.281,51.111,46.388,28.138,4.906,8.972,5.481
294,0.764,35.699,51.147,46.388,28.141,4.987,9.013,5.522
295,0.77,35.865,51.101,46.407,28.134,4.948,9.013,5.482
296,0.777,35.982,51.131,46.398,28.141,4.988,8.932,5.481
297,0.761,35.753,51.124,46.379,28.134,4.988,8.768,5.44
298,0.748,35.751,51.175,46.388,28.131,4.988,8.767,5.481
299,0.754,35.904,51.171,46.407,28.141,4.988,8.848,5.562
300,0.754,36.04,51.144,46.427,28.145,5.07,8.849,5.604
301,0.757,35.6,51.218,46.446,28.148,5.152,8.808,5.604
302,0.767,35.721,51.152,46.427,28.141,5.112,8.726,5.564
303,0.751,35.837,51.206,46.408,28.148,5.03,8.726,5.523
304,0.744,35.944,51.14,46.427,28.148,5.111,8.603,5.644
305,0.76,35.667,51.054,46.456,28.141,5.071,8.643,5.605
306,0.754,35.846,51.068,46.427,28.145,5.03,8.684,5.482
307,0.748,35.982,51.139,46.427,28.148,4.989,8.725,5.644
308,0.76,36.041,51.163,46.446,28.148,5.07,8.726,5.523
309,0.754,35.543,51.112,46.408,28.134,4.948,8.685,5.4
310,0.751,35.701,51.155,46.408,28.134,4.988,8.807,5.48
311,0.757,35.846,51.151,46.427,28.138,5.029,8.97,5.522
312,0.754,35.915,51.136,46.427,28.145,5.03,9.053,5.522
313,0.751,35.532,51.097,46.417,28.134,4.989,9.095,5.441
314,0.757,35.682,51.163,46.408,28.141,4.988,9.095,5.44
315,0.761,35.837,51.101,46.427,28.138,4.907,9.014,5.44
316,0.757,35.886,51.108,46.437,28.141,4.987,9.176,5.481
317,0.751,35.35,51.155,46.456,28.152,5.07,9.34,5.603
318,0.764,35.517,51.14,46.456,28.155,5.152,9.301,5.523
319,0.761,35.634,51.19,46.456,28.152,5.071,9.26,5.522
320,0.757,35.663,51.062,46.427,28.145,4.989,9.3,5.441
321,0.748,35.462,51.162,46.456,28.145,5.07,9.382,5.521
322,0.757,35.623,51.077,46.437,28.148,4.989,9.464,5.482
323,0.78,35.74,51.155,46.446,28.152,5.07,9.424,5.522
324,0.767,35.569,51.202,46.466,28.145,5.03,9.505,5.563
325,0.78,35.452,51.082,46.466,28.148,5.07,9.425,5.482
326,0.78,35.623,51.178,46.456,28.138,4.948,9.302,5.359
327,0.774,35.721,51.093,46.418,28.134,4.947,9.341,5.399
328,0.78,35.386,51.217,46.446,28.138,5.029,9.382,5.44
329,0.8,35.488,51.136,46.446,28.141,5.03,9.464,5.44
330,0.807,35.624,51.175,46.446,28.141,4.948,9.383,5.44
331,0.813,35.721,51.089,46.446,28.138,4.947,9.382,5.399
332,0.816,35.319,51.112,46.456,28.134,4.947,9.342,5.399
333,0.823,35.469,51.077,46.446,28.138,4.947,9.301,5.44
334,0.82,35.585,51.116,46.437,28.138,4.988,9.341,5.521
335,0.839,35.73,51.147,46.485,28.152,5.11,9.382,5.644
336,0.852,35.262,51.073,46.495,28.155,5.071,9.342,5.442
337,0.84,35.391,51.205,46.456,28.145,5.07,9.179,5.481
338,0.843,35.517,51.101,46.466,28.141,5.03,9.177,5.481
339,0.853,35.605,51.143,46.456,28.145,4.989,9.218,5.481
340,0.853,35.241,51.151,46.485,28.145,4.988,9.178,5.522
341,0.859,35.391,51.128,46.466,28.148,4.988,9.177,5.482
342,0.853,35.546,51.167,46.485,28.148,5.029,9.137,5.562
343,0.856,35.605,51.093,46.466,28.141,4.948,8.974,5.523
344,0.846,35.28,51.159,46.447,28.138,4.825,8.85,5.482
345,0.843,35.43,51.109,46.475,28.134,4.946,8.93,5.562
346,0.859,35.585,51.081,46.466,28.141,4.947,8.89,5.563
347,0.862,35.615,51.225,46.475,28.138,4.947,8.93,5.523
348,0.869,35.184,51.137,46.466,28.141,5.029,8.89,5.482
349,0.872,35.342,51.194,46.475,28.134,4.948,8.849,5.481
350,0.879,35.45,51.152,46.466,28.138,4.947,8.849,5.522
351,0.885,35.432,51.151,46.456,28.145,4.907,8.849,5.522
352,0.905,35.172,51.151,46.494,28.145,4.947,8.889,5.685
353,0.915,35.362,51.151,46.523,28.152,5.069,8.971,5.687
354,0.931,35.469,51.183,46.505,28.152,4.948,8.809,5.524
355,0.938,35.182,51.074,46.562,28.141,4.988,8.808,5.563
356,0.938,35.237,51.127,46.505,28.145,4.988,8.767,5.563
357,0.938,35.391,51.167,46.495,28.145,4.948,8.848,5.645
358,0.945,35.508,51.155,46.485,28.145,5.029,8.889,5.645
359,0.958,35.432,51.155,46.504,28.145,4.989,8.849,5.645
360,0.951,35.594,51.069,46.514,28.145,4.988,8.849,5.564
361,0.941,35.74,51.19,46.485,28.145,4.907,8.767,5.523
362,0.935,35.799,51.058,46.485,28.131,4.865,8.645,5.482
363,0.931,34.773,51.104,46.485,28.145,4.946,8.725,5.562
364,0.938,34.926,51.198,46.495,28.141,4.907,8.726,5.645
365,0.932,35.091,51.07,46.504,28.134,4.906,8.726,5.605
366,0.931,35.179,51.151,46.504,28.145,4.865,8.685,5.564
367,0.938,35.112,51.136,46.476,28.134,4.824,8.684,5.563
368,0.932,35.236,51.19,46.495,28.138,4.865,8.684,5.563
369,0.925,35.401,51.117,46.495,28.138,4.906,8.807,5.685
370,0.925,35.498,51.163,46.523,28.152,5.069,8.97,5.768
371,0.931,35.0,51.128,46.533,28.155,5.03,9.094,5.687
372,0.922,35.149,51.139,46.533,28.138,4.948,9.217,5.687
373,0.912,35.275,51.179,46.514,28.141,4.907,9.34,5.687
374,0.912,35.315,51.124,46.495,28.138,4.947,9.423,5.687
375,0.902,34.989,51.038,46.533,28.145,4.947,9.586,5.646
376,0.902,35.158,51.068,46.505,28.138,4.988,9.669,5.686
377,0.892,35.266,51.182,46.533,28.148,4.907,9.751,5.687
378,0.905,35.593,51.222,46.533,28.152,4.947,9.752,5.687
379,0.899,34.992,51.117,46.495,28.141,4.947,9.671,5.524
380,0.886,35.11,51.151,46.485,28.134,4.825,9.67,5.482
381,0.872,35.246,51.081,46.504,28.145,4.946,9.751,5.644
382,0.879,35.084,51.119,46.533,28.141,4.947,9.793,5.686
383,0.869,35.102,51.077,46.505,28.138,4.866,9.671,5.646
384,0.866,35.255,51.155,46.524,28.141,4.906,9.67,5.645
385,0.84,35.362,51.066,46.524,28.138,4.865,9.67,5.686
386,0.836,34.865,51.061,46.495,28.131,4.824,9.589,5.605
387,0.82,34.975,51.193,46.533,28.145,4.905,9.629,5.686
388,0.83,35.149,51.144,46.533,28.152,5.028,9.71,5.809
389,0.826,35.285,51.249,46.562,28.155,4.948,9.589,5.688
390,0.807,35.008,51.113,46.534,28.138,4.907,9.507,5.727
391,0.8,35.149,51.186,46.524,28.145,4.825,9.425,5.768
392,0.79,35.294,51.163,46.553,28.145,4.905,9.383,5.768
393,0.787,35.382,51.109,46.543,28.148,4.947,9.423,5.768
394,0.777,34.76,51.202,46.524,28.148,4.947,9.383,5.809
395,0.78,34.926,51.054,46.562,28.148,4.907,9.423,5.769
396,0.78,35.091,51.162,46.534,28.138,4.906,9.261,5.647
397,0.764,35.121,51.07,46.514,28.131,4.825,9.259,5.605
398,0.754,34.843,51.162,46.524,28.138,4.865,9.341,5.808
399,0.757,35.023,51.101,46.553,28.141,4.865,9.545,5.769
400,0.751,35.168,51.112,46.543,28.138,4.906,9.588,5.768
401,0.751,35.218,51.163,46.524,28.138,4.865,9.71,5.768
402,0.748,34.94,51.081,46.524,28.141,4.784,9.792,5.728
403,0.738,35.081,51.158,46.533,28.134,4.905,9.875,5.727
404,0.741,35.207,51.097,46.553,28.141,4.906,10.119,5.931
405,0.738,35.256,51.1,46.582,28.155,4.987,10.244,5.974
406,0.741,35.008,51.053,46.601,28.155,4.988,10.123,5.811
407,0.734,35.139,51.147,46.572,28.138,4.948,10.081,5.728
408,0.731,35.256,51.066,46.563,28.145,4.947,10.081,5.809
409,0.731,34.941,51.162,46.543,28.145,4.988,10.121,5.81
410,0.731,34.784,51.058,46.581,28.145,4.866,10.163,5.932
411,0.738,34.917,51.135,46.572,28.145,4.946,10.163,5.892
412,0.728,35.043,51.143,46.572,28.145,4.866,10.0,5.811
413,0.728,34.756,51.077,46.563,28.134,4.824,9.877,5.728
414,0.712,34.811,51.186,46.524,28.134,4.783,9.916,5.809
415,0.721,34.984,51.023,46.562,28.141,4.824,9.835,5.728
416,0.715,35.101,51.154,46.562,28.145,4.905,9.834,5.768
417,0.705,34.853,51.109,46.553,28.141,4.865,9.672,5.768
418,0.695,34.984,51.159,46.572,28.134,4.824,9.629,5.728
419,0.688,35.149,51.179,46.563,28.134,4.865,9.507,5.727
420,0.688,35.237,51.085,46.562,28.141,4.824,9.506,5.89
421,0.695,34.825,51.182,46.572,28.152,4.865,9.587,5.973
422,0.698,35.003,51.07,46.658,28.152,4.987,9.507,5.811
423,0.718,35.13,51.115,46.583,28.141,4.866,9.425,5.81
424,0.702,35.189,51.089,46.572,28.141,4.865,9.302,5.769
425,0.698,34.758,51.057,46.572,28.134,4.824,9.26,5.768
426,0.695,34.926,51.135,46.582,28.138,4.824,9.259,5.809
427,0.701,35.062,51.093,46.611,28.141,4.865,9.178,5.85
428,0.705,35.121,51.151,46.582,28.145,4.865,9.177,5.769
429,0.702,34.68,51.132,46.591,28.145,4.906,9.096,5.768
430,0.695,34.858,51.093,46.572,28.138,4.825,8.932,5.687
431,0.688,34.946,51.143,46.543,28.131,4.702,8.89,5.646
432,0.698,35.005,51.077,46.572,28.138,4.863,8.971,5.767
433,0.705,34.698,51.162,46.582,28.141,4.784,8.891,5.768
434,0.708,34.858,51.12,46.563,28.141,4.783,8.809,5.768
435,0.708,34.975,51.089,46.601,28.141,4.742,8.848,5.728
436,0.705,35.005,51.096,46.572,28.138,4.823,8.808,5.646
437,0.695,34.756,51.12,46.572,28.131,4.824,8.848,5.686
438,0.692,34.897,51.167,46.572,28.131,4.824,8.849,5.687
439,0.698,35.023,51.124,46.591,28.152,4.865,9.011,5.809
440,0.708,34.67,51.167,46.63,28.152,4.946,8.932,5.728
441,0.708,34.714,51.089,46.601,28.138,4.785,8.809,5.727
442,0.695,34.849,51.065,46.601,28.138,4.824,8.767,5.727
443,0.695,34.965,51.131,46.592,28.145,4.905,8.685,5.768
444,0.698,34.746,51.175,46.601,28.145,4.906,8.725,5.85
445,0.698,34.887,51.132,46.592,28.145,4.865,8.726,5.81
446,0.698,35.052,51.065,46.678,28.152,4.865,8.726,5.769
447,0.708,35.121,51.084,46.602,28.141,4.865,8.644,5.809
448,0.711,34.594,51.151,46.582,28.138,4.784,8.399,5.566
449,0.695,34.742,51.101,46.563,28.134,4.702,8.478,5.685
450,0.695,34.897,51.127,46.591,28.138,4.863,8.52,5.727
451,0.701,34.985,51.093,46.601,28.138,4.784,8.439,5.727
452,0.708,34.689,51.077,46.601,28.145,4.824,8.438,5.727
453,0.695,34.848,51.041,46.592,28.138,4.783,8.397,5.687
454,0.701,34.994,51.135,46.592,28.134,4.824,8.356,5.605
455,0.708,35.034,51.167,46.572,28.138,4.865,8.275,5.686
456,0.708,34.622,50.999,46.591,28.138,4.865,8.355,5.768
457,0.705,34.781,51.123,46.611,28.152,4.987,8.397,5.809
458,0.711,34.936,51.108,46.64,28.152,4.948,8.316,5.769
459,0.711,34.976,51.155,46.621,28.141,4.866,8.234,5.687
460,0.698,34.736,51.163,46.592,28.138,4.906,8.273,5.727
461,0.695,34.897,51.109,46.611,28.138,4.906,8.233,5.727
462,0.698,35.023,51.206,46.63,28.152,4.947,8.233,5.809
463,0.701,35.351,51.035,46.601,28.141,4.947,8.192,5.85
464,0.695,34.692,51.146,46.63,28.141,4.988,8.192,5.81
465,0.698,34.829,51.128,46.621,28.145,4.907,8.11,5.647
466,0.692,34.936,51.116,46.601,28.131,4.784,7.947,5.645
467,0.695,35.167,51.03,46.601,28.138,4.824,8.108,5.808
468,0.695,35.323,51.088,46.63,28.145,4.865,8.232,5.728
469,0.701,35.469,51.155,46.621,28.141,4.906,8.273,5.727
470,0.701,35.576,51.097,46.611,28.141,4.865,8.436,5.768
471,0.692,34.167,51.147,46.611,28.134,4.865,8.479,5.687
472,0.682,34.201,51.073,46.601,28.134,4.865,8.52,5.687
473,0.675,34.383,51.143,46.601,28.138,4.946,8.642,5.768
474,0.695,34.51,51.058,46.697,28.148,4.988,8.806,5.85
475,0.708,34.626,51.147,46.64,28.159,5.029,8.848,5.851
476,0.711,34.79,51.167,46.621,28.145,4.907,8.849,5.769
477,0.705,34.926,51.093,46.63,28.145,4.906,8.93,5.728
478,0.718,34.995,51.104,46.64,28.145,4.865,8.972,5.768
479,0.734,34.554,51.007,46.65,28.141,4.865,9.013,5.809
480,0.747,34.723,51.115,46.64,28.145,4.865,9.013,5.85
481,0.747,34.849,51.12,46.64,28.145,4.946,8.932,5.81
482,0.767,34.936,51.12,46.63,28.148,4.907,9.012,5.728
483,0.78,34.439,51.178,46.63,28.138,4.825,8.85,5.605
484,0.787,34.587,51.081,46.601,28.134,4.824,8.93,5.726
485,0.813,34.752,51.143,46.64,28.145,4.905,8.931,5.768
486,0.849,34.82,51.089,46.63,28.141,4.865,8.931,5.768
487,0.872,34.658,51.159,46.64,28.138,4.865,8.89,5.728
488,0.902,34.8,51.163,46.621,28.138,4.865,8.849,5.646
489,0.925,34.917,51.081,46.621,28.134,4.824,8.767,5.727
490,0.97,34.966,51.123,46.63,28.134,4.905,8.726,5.727
491,1.003,34.583,51.089,46.64,28.138,4.906,8.848,5.972
492,1.046,34.78,51.135,46.678,28.155,5.109,8.808,5.974
493,1.105,34.926,51.085,46.65,28.145,4.949,8.645,5.893
494,1.141,34.707,51.112,46.659,28.145,4.907,8.644,5.811
495,1.168,34.619,51.131,46.65,28.145,4.865,8.603,5.932
496,1.194,34.752,51.089,46.659,28.138,4.946,8.602,5.974
497,1.198,34.897,51.127,46.65,28.155,4.988,8.602,6.055
498,1.194,34.467,51.073,46.669,28.145,4.907,8.521,6.056
499,1.185,34.568,51.131,46.669,28.148,4.947,8.479,6.015
500,1.181,34.713,51.136,46.659,28.138,4.907,8.316,5.974
501,1.184,34.782,51.124,46.64,28.134,4.784,8.274,6.055
502,1.214,34.552,51.143,46.669,28.145,4.905,8.314,6.097
503,1.263,34.694,51.069,46.679,28.141,4.906,8.315,6.138
504,1.26,34.858,51.162,46.659,28.141,4.825,8.274,6.179
505,1.24,34.946,51.07,46.659,28.138,4.865,8.274,6.098
506,1.156,34.448,51.073,46.659,28.131,4.784,8.314,6.219
507,1.126,34.587,51.182,46.65,28.138,4.824,8.396,6.261
508,1.112,34.732,51.132,46.688,28.148,4.987,8.519,6.465
509,1.096,34.859,51.194,46.707,28.159,5.029,8.561,6.507
510,1.073,34.467,51.093,46.689,28.145,4.907,8.48,6.508
511,0.952,34.607,51.17,46.679,28.148,4.906,8.52,6.63
512,0.831,34.771,51.14,46.698,28.145,4.906,8.479,6.712
513,0.739,34.821,51.101,46.688,28.145,4.865,8.52,6.794
514,0.663,34.553,51.163,46.679,28.138,4.946,8.561,6.917
515,0.577,34.732,50.968,46.698,28.152,4.907,8.48,6.959
516,0.499,34.868,51.114,46.688,28.145,4.906,8.479,6.919
517,0.413,34.879,51.135,46.66,28.134,4.662,8.316,7.081
518,0.321,34.381,51.116,46.669,28.134,4.822,8.396,7.205
519,0.281,34.548,51.143,46.679,28.134,4.783,8.397,7.328
520,0.235,34.694,51.046,46.688,28.138,4.824,8.316,7.37
521,0.209,34.743,51.17,46.688,28.141,4.905,8.315,7.452
522,0.186,34.494,51.046,46.679,28.131,4.744,8.274,7.493
523,0.166,34.655,51.115,46.688,28.134,4.742,8.233,7.575
524,0.156,34.762,51.069,46.669,28.145,4.823,8.273,7.657
525,0.15,34.533,51.069,46.707,28.162,4.905,8.355,7.82
526,0.146,34.617,51.131,46.727,28.149,4.906,8.193,7.781
527,0.107,34.742,51.132,46.708,28.141,4.784,8.192,7.822
528,0.091,34.849,51.186,46.717,28.145,4.824,8.151,7.863
529,0.064,34.332,51.124,46.698,28.141,4.783,8.191,7.944
530,0.035,34.471,51.116,46.717,28.141,4.824,8.192,8.026
531,0.022,34.616,51.112,46.717,28.145,4.824,8.232,8.149
532,0.028,34.723,51.108,46.737,28.148,4.865,8.273,8.191
533,0.054,34.302,51.163,46.698,28.141,4.743,8.193,8.151
534,0.093,34.432,51.109,46.688,28.131,4.661,8.07,8.191
535,0.113,34.578,51.077,46.698,28.134,4.822,8.272,8.354
536,0.156,34.713,51.1,46.717,28.145,4.743,8.193,8.437
537,0.176,34.436,51.147,46.708,28.138,4.823,8.192,8.438
538,0.192,34.606,51.155,46.708,28.145,4.783,8.232,8.601
539,0.222,34.733,51.163,46.698,28.134,4.783,8.273,8.602
540,0.225,34.782,51.062,46.717,28.138,4.742,8.274,8.643
541,0.235,34.332,51.131,46.717,28.138,4.783,8.314,8.765
542,0.248,34.509,51.018,46.756,28.145,4.905,8.437,8.929
543,0.268,34.684,51.052,46.756,28.155,4.906,8.438,8.89
544,0.284,34.733,51.143,46.727,28.145,4.825,8.316,8.93
545,0.284,34.341,51.03,46.737,28.141,4.824,8.274,8.972
546,0.294,34.509,51.096,46.737,28.138,4.824,8.355,8.931
547,0.314,34.626,51.077,46.756,28.141,4.865,8.356,8.931
548,0.333,34.896,51.166,46.737,28.145,4.824,8.437,8.85
549,0.356,34.419,51.179,46.746,28.148,4.865,8.357,8.889
550,0.386,34.587,51.124,46.756,28.145,4.784,8.275,8.849
551,0.406,34.685,51.178,46.718,28.138,4.702,8.193,8.686
552,0.432,34.34,51.066,46.765,28.131,4.742,8.151,8.725
553,0.448,34.298,51.131,46.756,28.138,4.742,8.232,8.726
554,0.478,34.442,51.1,46.727,28.141,4.783,8.151,8.685
555,0.501,34.539,51.065,46.727,28.141,4.742,8.191,8.603
556,0.517,34.272,51.112,46.727,28.138,4.742,8.11,8.48
557,0.544,34.394,51.1,46.727,28.138,4.742,8.15,8.52
558,0.557,34.52,51.163,46.737,28.134,4.742,8.11,8.52
559,0.583,34.636,51.124,46.756,28.141,4.864,8.15,8.52
560,0.599,34.282,51.147,46.775,28.152,4.906,8.273,8.52
561,0.626,34.432,51.105,46.756,28.148,4.865,8.03,8.398
562,0.632,34.53,51.069,46.756,28.138,4.743,8.109,8.356
563,0.652,34.646,51.123,46.766,28.148,4.823,8.069,8.275
564,0.662,34.359,51.132,46.756,28.141,4.783,7.987,8.355
565,0.669,34.529,51.1,46.775,28.148,4.864,8.068,8.275
566,0.688,34.674,51.065,46.852,28.148,4.784,8.15,8.193
567,0.695,34.753,51.115,46.786,28.145,4.824,8.069,8.192
568,0.708,34.207,51.057,46.756,28.134,4.702,8.028,7.988
569,0.695,34.335,51.123,46.727,28.127,4.823,8.19,7.946
570,0.721,34.49,51.073,46.775,28.141,4.824,8.476,7.945
571,0.734,34.559,51.115,46.766,28.145,4.702,8.601,7.945
572,0.731,34.243,51.038,46.775,28.141,4.782,8.846,7.905
573,0.734,34.384,51.088,46.766,28.134,4.783,8.93,7.782
574,0.747,34.51,51.17,46.747,28.138,4.742,9.134,7.7
575,0.76,34.559,51.046,46.746,28.134,4.783,9.177,7.699
576,0.761,34.243,51.115,46.766,28.138,4.905,9.462,7.78
577,0.751,34.432,51.171,46.795,28.152,4.987,9.587,7.822
578,0.764,34.568,51.128,46.795,28.148,4.866,9.547,7.619
579,0.754,34.33,51.175,46.776,28.145,4.906,9.547,7.617
580,0.757,34.212,51.058,46.766,28.141,4.825,9.547,7.698
581,0.761,34.355,51.092,46.785,28.141,4.946,9.628,7.536
582,0.77,34.471,51.116,46.776,28.148,4.785,9.548,7.616
583,0.767,34.156,51.073,46.795,28.152,4.946,9.588,7.617
584,0.767,34.239,51.194,46.814,28.145,4.866,9.507,7.495
585,0.761,34.374,51.089,46.785,28.138,4.824,9.384,7.371
586,0.754,34.491,51.084,46.766,28.134,4.783,9.423,7.452
587,0.764,34.137,51.045,46.804,28.141,4.783,9.424,7.33
588,0.777,34.316,51.135,46.776,28.145,4.824,9.383,7.289
589,0.777,34.442,51.132,46.785,28.138,4.783,9.261,7.329
590,0.774,34.539,51.061,46.795,28.138,4.824,9.341,7.167
591,0.78,34.128,51.154,46.766,28.141,4.783,9.301,7.206
592,0.777,34.287,51.019,46.775,28.127,4.824,9.26,7.206
593,0.78,34.442,51.115,46.785,28.145,4.824,9.341,7.328
594,0.793,34.558,51.1,46.823,28.152,4.946,9.423,7.289
595,0.8,34.138,51.127,46.805,28.148,4.866,9.302,7.085
596,0.8,34.268,51.022,46.833,28.141,4.865,9.26,7.123
597,0.784,34.413,51.092,46.795,28.141,4.865,9.341,7.165
598,0.787,34.481,51.163,46.814,28.145,4.906,9.342,7.084
599,0.8,34.166,51.12,46.805,28.148,4.825,9.301,7.083
600,0.794,34.345,51.1,46.814,28.145,4.905,9.382,7.002
601,0.806,34.471,51.061,46.814,28.141,4.906,9.382,7.041
602,0.8,34.52,51.162,46.814,28.138,4.825,9.261,6.839
603,0.8,34.099,51.073,46.776,28.134,4.783,9.259,6.918
604,0.803,34.267,51.127,46.804,28.145,4.864,9.259,6.959
605,0.81,34.413,51.21,46.795,28.145,4.824,9.219,6.919
606,0.79,34.443,51.039,46.795,28.138,4.824,9.259,6.878
607,0.806,34.136,51.041,46.814,28.134,4.783,9.178,6.796
608,0.81,34.296,51.018,46.795,28.138,4.824,9.259,6.795
609,0.803,34.413,51.099,46.795,28.138,4.865,9.097,6.836
610,0.807,34.04,51.112,46.804,28.145,4.865,9.217,6.918
611,0.807,34.113,51.128,46.843,28.152,4.987,9.178,6.919
612,0.826,34.287,51.171,46.824,28.141,4.826,9.055,6.878
613,0.82,34.355,51.05,46.805,28.145,4.905,8.973,6.877
614,0.81,34.011,51.146,46.804,28.141,4.865,8.972,6.755
615,0.82,34.151,51.069,46.795,28.145,4.865,8.972,6.714
616,0.826,34.306,51.151,46.814,28.145,4.906,8.931,6.794
617,0.826,34.394,51.112,46.824,28.145,4.865,8.85,6.795
618,0.817,33.944,51.085,46.814,28.138,4.865,8.727,6.714
619,0.82,34.084,51.12,46.805,28.131,4.743,8.603,6.551
620,0.807,34.219,51.077,46.776,28.131,4.823,8.684,6.671
621,0.813,34.326,51.073,46.814,28.141,4.824,8.725,6.631
622,0.816,34.039,51.03,46.814,28.138,4.946,8.726,6.55
623,0.816,34.19,51.17,46.795,28.134,4.825,8.685,6.63
624,0.813,34.326,51.066,46.814,28.131,4.865,8.644,6.55
625,0.807,34.404,51.072,46.805,28.134,4.784,8.725,6.59
626,0.807,34.711,51.158,46.804,28.145,4.905,8.807,6.631
627,0.813,34.887,51.105,46.843,28.152,4.987,8.889,6.712
628,0.833,35.014,51.178,46.862,28.152,4.948,8.768,6.551
629,0.826,35.034,51.038,46.815,28.145,4.907,8.767,6.508
630,0.823,33.682,51.139,46.814,28.138,4.825,8.807,6.508
631,0.823,33.822,51.058,46.833,28.141,4.946,8.808,6.589
632,0.823,33.958,51.088,46.824,28.138,4.866,8.93,6.509
633,0.839,34.218,51.151,46.824,28.138,4.865,8.809,6.467
634,0.833,33.981,50.995,46.833,28.145,4.906,8.93,6.507
635,0.839,34.161,51.123,46.805,28.145,4.906,8.809,6.386
636,0.852,34.249,51.05,46.795,28.131,4.784,8.726,6.344
637,0.827,33.952,51.111,46.776,28.141,4.824,8.848,6.425
638,0.836,33.978,51.042,46.814,28.145,4.905,8.889,6.466
639,0.839,34.122,51.084,46.824,28.134,4.906,8.849,6.467
640,0.839,34.239,51.151,46.814,28.138,4.906,8.808,6.345
641,0.839,33.923,51.12,46.805,28.131,4.825,8.808,6.384
642,0.833,34.064,51.132,46.814,28.138,4.865,8.767,6.303
643,0.833,34.19,51.089,46.824,28.145,4.865,8.767,6.343
644,0.843,34.316,51.147,46.843,28.141,4.987,8.889,6.547
645,0.846,33.924,50.968,46.891,28.159,4.988,8.849,6.386
646,0.859,34.055,51.099,46.844,28.138,4.907,8.767,6.385
647,0.843,34.181,51.143,46.843,28.145,4.865,8.767,6.425
648,0.856,34.278,51.132,46.834,28.138,4.865,8.645,6.344
649,0.849,33.77,51.14,46.834,28.145,4.946,8.684,6.303
650,0.856,33.948,51.081,46.853,28.145,4.988,8.603,6.384
651,0.862,34.084,51.194,46.843,28.138,5.029,8.643,6.344
652,0.856,34.171,51.101,46.853,28.148,4.907,8.603,6.262
653,0.859,33.942,51.139,46.834,28.131,4.784,8.44,6.18
654,0.853,34.074,51.062,46.805,28.131,4.824,8.357,6.139
655,0.846,34.229,50.998,46.824,28.138,4.905,8.478,6.26
656,0.856,34.307,51.095,46.843,28.141,4.825,8.438,6.221
657,0.853,33.847,51.085,46.834,28.134,4.905,8.357,6.22
658,0.853,33.968,51.131,46.834,28.134,4.784,8.315,6.22
659,0.853,34.113,51.069,46.834,28.131,4.824,8.315,6.18
660,0.849,34.143,51.088,46.843,28.131,4.824,8.274,6.179
661,0.853,33.903,51.127,46.843,28.134,4.865,8.314,6.301
662,0.866,34.093,51.089,46.872,28.155,5.068,8.396,6.262
663,0.859,34.219,51.135,46.882,28.145,4.908,8.234,6.18
664,0.849,33.962,51.104,46.863,28.134,4.906,8.273,6.139
665,0.853,33.844,51.1,46.872,28.141,4.947,8.193,6.219
666,0.859,34.006,51.073,46.872,28.148,4.866,8.273,6.22
667,0.859,34.123,51.139,46.863,28.145,4.946,8.233,6.18
668,0.869,33.769,51.21,46.872,28.134,4.947,8.233,6.179
669,0.876,33.861,51.105,46.872,28.145,4.947,8.273,6.139
670,0.872,34.006,51.124,46.863,28.131,4.825,8.03,6.016
671,0.866,34.075,51.011,46.834,28.131,4.824,8.109,6.096
672,0.866,33.807,51.091,46.872,28.134,4.865,8.109,6.097
673,0.879,33.938,51.151,46.872,28.141,4.906,8.069,6.178
674,0.876,34.074,51.05,46.863,28.138,4.865,8.028,6.098
675,0.876,34.171,51.107,46.853,28.138,4.865,8.068,6.097
676,0.879,33.75,51.046,46.872,28.134,4.824,7.987,6.016
677,0.866,33.88,51.135,46.882,28.138,4.824,8.027,6.015
678,0.856,34.045,51.163,46.872,28.141,4.987,8.109,6.137
679,0.879,34.161,51.066,46.901,28.152,4.988,8.109,6.26
680,0.885,33.75,51.112,46.92,28.145,4.907,8.028,6.058
681,0.882,33.88,51.034,46.882,28.145,4.947,7.987,6.137
682,0.892,34.035,51.088,46.882,28.138,4.947,7.905,6.098
683,0.895,34.104,51.139,46.892,28.145,4.866,7.945,6.097
684,0.882,33.769,51.081,46.901,28.141,4.946,7.864,6.138
685,0.879,33.938,51.119,46.997,28.145,4.866,7.944,6.179
686,0.885,34.074,51.054,46.912,28.145,4.906,7.742,6.139
687,0.889,34.094,51.139,46.882,28.134,4.825,7.699,5.935
688,0.899,33.74,51.097,46.863,28.127,4.824,7.658,6.014
689,0.886,33.88,51.131,46.872,28.141,4.865,7.739,6.015
690,0.902,34.064,51.108,46.911,28.141,4.865,7.699,5.974
691,0.905,34.075,51.104,46.892,28.141,4.865,7.618,5.974
692,0.915,33.749,51.124,46.892,28.138,4.824,7.576,5.974
693,0.915,33.909,51.089,46.892,28.138,4.824,7.575,5.933
694,0.912,34.007,51.123,46.872,28.134,4.824,7.575,5.974
695,0.908,33.71,51.159,46.891,28.138,4.865,7.657,6.055
696,0.925,33.803,51.112,46.939,28.152,4.946,7.82,6.056
697,0.922,33.977,51.171,46.94,28.145,4.907,7.741,5.975
698,0.915,34.084,51.124,46.911,28.145,4.906,7.74,5.933
699,0.905,34.459,51.12,46.911,28.141,4.906,7.862,5.974
700,0.908,34.626,51.03,46.93,28.141,4.906,7.904,5.933
701,0.908,34.752,51.131,46.93,28.152,4.906,7.985,6.014
702,0.902,34.868,51.026,46.921,28.141,4.906,7.986,5.974
703,0.915,33.153,51.088,46.93,28.145,4.906,8.027,5.974
704,0.912,33.28,51.166,46.911,28.138,4.947,8.027,5.893
705,0.918,33.434,51.015,46.901,28.141,4.785,7.905,5.851
706,0.909,33.513,51.115,46.901,28.138,4.864,8.067,5.973
707,0.925,33.82,51.085,46.93,28.138,4.865,7.987,5.893
708,0.931,33.977,51.166,46.93,28.141,4.865,7.986,5.973
709,0.925,34.113,51.105,46.93,28.141,4.865,8.027,5.893
710,0.925,34.2,51.061,46.911,28.145,4.865,7.987,5.851
711,0.922,33.511,51.158,46.901,28.134,4.784,8.027,5.891
712,0.925,33.686,51.042,46.93,28.138,4.905,8.109,5.973
713,0.944,33.851,51.131,46.959,28.159,4.987,8.272,6.015
714,0.951,33.929,51.116,46.95,28.148,4.907,8.193,5.893
715,0.954,33.757,51.057,46.94,28.141,4.825,8.029,5.973
716,0.954,33.919,51.143,46.921,28.148,4.783,8.149,5.893
717,0.951,34.055,51.104,46.921,28.145,4.824,8.11,5.892
718,0.951,34.181,51.19,46.94,28.141,4.905,8.15,5.973
719,0.954,33.875,51.121,46.94,28.145,4.906,8.15,5.974
720,0.961,34.025,51.163,46.959,28.138,4.906,8.11,5.893
721,0.961,34.142,51.089,46.931,28.145,4.703,8.028,5.77
722,0.938,33.961,51.045,46.921,28.131,4.742,7.987,5.768
723,0.945,34.017,51.01,46.93,28.138,4.783,8.108,5.809
724,0.964,34.171,51.134,46.94,28.138,4.864,8.109,5.81
725,0.964,34.297,51.108,46.94,28.138,4.824,8.069,5.81
726,0.964,33.962,51.05,46.93,28.145,4.783,8.109,5.769
727,0.968,34.065,51.092,46.93,28.134,4.742,8.069,5.809
728,0.964,34.229,51.057,46.93,28.138,4.823,8.15,5.81
729,0.971,34.317,51.17,46.94,28.145,4.865,8.15,5.85
730,0.981,34.116,51.089,46.95,28.152,4.865,8.354,5.973
731,0.997,34.287,51.155,46.978,28.152,4.906,8.397,5.974
732,1.004,34.432,51.073,46.969,28.138,4.906,8.234,5.852
733,0.997,34.52,51.073,46.94,28.134,4.825,8.233,5.891
734,0.997,34.291,51.182,46.959,28.148,4.865,8.273,5.851
735,1.004,34.432,51.027,46.95,28.145,4.824,8.314,5.81
736,1.007,34.616,51.111,46.95,28.145,4.865,8.274,5.81
737,1.01,34.685,51.135,46.969,28.145,4.906,8.274,5.891
738,1.01,34.58,51.112,46.959,28.141,4.947,8.233,5.933
739,0.997,34.723,51.178,46.959,28.141,4.785,8.192,5.648
740,1.01,34.849,51.038,46.931,28.131,4.783,8.11,5.767
741,1.004,34.917,51.154,46.94,28.134,4.864,8.272,5.85
742,1.02,34.745,51.101,46.94,28.141,4.906,8.193,5.81
743,1.014,34.926,51.112,46.969,28.145,4.825,8.232,5.728
744,1.02,35.052,51.186,46.95,28.141,4.783,8.151,5.809
745,1.014,35.073,51.101,46.95,28.138,4.864,8.11,5.769
746,1.03,35.044,51.03,46.95,28.138,4.743,8.109,5.768
747,1.024,35.197,51.057,46.969,28.138,4.823,8.15,5.809
748,1.036,35.343,51.068,46.998,28.148,4.987,8.313,5.972
749,1.05,35.335,51.135,46.998,28.152,4.948,8.112,5.852
750,1.04,35.277,51.101,46.969,28.145,4.907,8.069,5.81
751,1.05,35.43,51.151,46.969,28.138,4.906,8.028,5.85
752,1.05,35.546,50.991,46.979,28.141,4.947,8.068,5.891
753,1.053,35.538,51.115,46.96,28.141,4.947,8.069,5.851
754,1.069,35.653,51.093,46.969,28.145,4.825,8.109,5.81
755,1.069,35.807,51.124,46.969,28.148,4.987,7.987,5.85
756,1.063,35.934,51.042,46.998,28.145,4.948,7.986,5.769
757,1.053,35.686,51.103,46.96,28.134,4.825,7.864,5.687
758,1.05,35.808,51.147,46.94,28.134,4.865,7.944,5.809
759,1.063,35.962,51.14,46.969,28.138,4.946,7.986,5.85
760,1.06,36.06,51.14,46.979,28.134,4.866,8.027,5.729
761,1.063,35.955,51.104,46.979,28.141,4.906,8.109,5.768
762,1.056,36.098,51.112,46.969,28.138,4.825,8.232,5.728
763,1.063,36.253,51.112,46.969,28.141,4.865,8.273,5.727
764,1.05,36.312,51.128,46.969,28.131,4.865,8.477,5.809
765,1.063,36.341,51.136,46.988,28.148,5.068,8.723,5.891
766,1.069,36.514,51.019,47.036,28.148,5.03,8.766,5.892
767,1.073,36.631,51.123,46.998,28.148,4.826,8.726,5.77
768,1.076,36.671,51.085,46.988,28.141,4.987,8.807,5.768
769,1.079,36.499,51.19,46.998,28.138,4.907,8.93,5.809
770,1.089,36.66,51.144,47.008,28.141,4.906,9.012,5.769
771,1.086,36.786,51.124,46.998,28.141,4.987,9.054,5.768
772,1.089,36.797,51.104,47.017,28.145,4.988,8.973,5.85
773,1.096,36.692,51.046,47.008,28.145,4.948,9.053,5.81
774,1.096,36.815,51.143,46.969,28.138,4.785,8.932,5.647
775,1.089,36.922,51.058,46.959,28.134,4.905,8.972,5.808
776,1.089,37.172,51.045,46.998,28.138,4.906,8.931,5.81
777,1.083,37.146,51.076,46.998,28.145,4.906,8.89,5.769
778,1.089,37.29,51.092,46.988,28.134,4.825,8.849,5.728
779,1.096,37.396,51.17,46.998,28.138,4.783,8.808,5.768
780,1.096,36.928,51.077,46.988,28.138,4.824,8.686,5.728
781,1.092,36.971,51.147,46.988,28.134,4.865,8.684,5.727
782,1.092,37.125,51.124,46.998,28.145,4.906,8.766,5.85
783,1.092,37.251,51.077,47.036,28.152,5.028,8.726,5.891
784,1.089,37.204,51.131,47.027,28.145,4.907,8.603,5.77
785,1.092,37.29,51.093,47.027,28.148,4.906,8.602,5.809
786,1.096,37.435,51.155,47.008,28.145,4.865,8.48,5.728
787,1.102,37.523,51.046,47.008,28.141,4.906,8.56,5.89
788,1.102,37.226,51.049,47.017,28.141,4.906,8.521,5.811
789,1.089,37.377,51.135,47.027,28.141,4.947,8.398,5.81
790,1.092,37.512,51.104,47.027,28.145,4.866,8.397,5.81
791,1.089,37.581,51.135,47.008,28.134,4.784,8.153,5.688
792,1.076,37.447,51.061,46.979,28.131,4.783,8.191,5.727
793,1.092,37.599,51.143,47.017,28.145,4.864,8.273,5.727
794,1.079,37.754,50.983,47.037,28.141,4.865,8.355,5.768
795,1.096,37.813,51.103,47.008,28.141,4.865,8.356,5.728
796,1.092,37.574,51.108,46.998,28.138,4.824,8.315,5.727
797,1.083,37.735,51.143,46.998,28.138,4.865,8.274,5.687
798,1.076,37.861,51.124,47.008,28.131,4.865,8.355,5.727
799,1.076,37.91,51.007,47.027,28.145,4.987,8.519,5.931
800,1.086,37.7,51.142,47.065,28.152,4.948,8.601,5.811
801,1.073,37.842,51.077,47.027,28.145,4.988,8.521,5.688
802,1.06,37.958,51.108,47.027,28.138,4.988,8.52,5.768
803,1.056,38.065,51.089,47.027,28.141,4.988,8.561,5.85
804,1.056,37.73,51.081,47.046,28.141,5.07,8.602,5.851
805,1.063,37.899,51.131,47.027,28.145,5.03,8.643,5.851
806,1.047,38.007,51.085,47.037,28.145,4.989,8.644,5.81
807,1.056,37.883,51.178,47.027,28.145,4.988,8.603,5.769
808,1.04,37.882,51.187,47.008,28.131,4.826,8.521,5.647
809,1.04,37.987,51.097,46.989,28.134,4.824,8.561,5.767
810,1.037,38.132,51.174,47.027,28.145,4.987,8.521,5.809
811,1.04,37.875,51.117,47.027,28.141,4.988,8.561,5.728
812,1.03,37.997,51.151,47.018,28.138,4.948,8.48,5.727
813,1.024,38.123,51.101,47.017,28.138,4.947,8.438,5.687
814,1.014,38.201,51.135,47.008,28.131,4.988,8.438,5.727
815,1.014,37.712,51.026,47.017,28.138,5.029,8.519,5.768
816,1.02,37.851,51.135,47.046,28.148,5.151,8.601,5.972
817,1.014,38.016,51.081,47.066,28.145,5.071,8.521,5.811
818,1.001,38.075,51.155,47.047,28.141,5.07,8.52,5.769
819,0.984,37.845,51.124,47.046,28.141,5.03,8.52,5.768
820,0.978,38.006,51.069,47.037,28.145,4.989,8.479,5.809
821,0.977,38.152,51.154,47.018,28.148,5.07,8.56,5.81
822,0.974,38.201,51.066,47.046,28.148,5.07,8.521,5.81
823,0.977,37.847,51.131,47.056,28.141,5.111,8.52,5.85
824,0.971,37.977,51.171,47.027,28.141,5.071,8.479,5.81
825,0.951,38.113,51.031,47.018,28.138,4.948,8.357,5.647
826,0.938,38.124,51.115,47.008,28.131,4.988,8.437,5.849
827,0.945,37.99,51.093,47.037,28.141,4.948,8.479,5.729
828,0.938,38.123,51.17,47.046,28.141,4.988,8.56,5.768
829,0.938,38.268,51.195,47.037,28.138,4.948,8.48,5.809
830,0.932,38.279,51.097,47.027,28.138,4.988,8.479,5.728
831,0.915,37.723,51.147,47.037,28.131,4.948,8.56,5.809
832,0.918,37.871,51.066,47.027,28.138,4.947,8.643,5.81
833,0.909,38.006,51.143,47.065,28.148,5.15,8.725,5.891
834,0.905,37.941,51.116,47.075,28.152,5.112,8.685,5.811
835,0.912,37.815,51.073,47.066,28.145,5.03,8.644,5.769
836,0.892,37.967,51.147,47.056,28.145,5.03,8.562,5.728
837,0.886,38.065,51.116,47.037,28.138,4.989,8.521,5.768
838,0.889,37.778,51.147,47.046,28.145,5.029,8.561,5.687
839,0.892,37.862,51.073,47.056,28.145,5.07,8.521,5.768
840,0.882,38.006,51.104,47.066,28.141,5.111,8.561,5.768
841,0.879,38.123,51.135,47.056,28.148,4.989,8.521,5.809
842,0.866,37.769,50.995,47.047,28.138,4.988,8.439,5.688
843,0.853,37.871,51.103,47.027,28.138,4.907,8.357,5.646
844,0.833,38.006,51.085,47.046,28.145,4.987,8.397,5.808
845,0.849,38.113,51.127,47.056,28.138,4.948,8.438,5.728
846,0.84,37.664,51.007,47.104,28.145,4.988,8.316,5.768
847,0.856,37.803,51.138,47.047,28.141,5.07,8.274,5.687
848,0.843,37.939,51.179,47.037,28.134,5.03,8.233,5.687
849,0.846,38.017,51.117,47.046,28.134,4.948,8.233,5.687
850,0.846,37.643,51.147,47.056,28.134,4.988,8.233,5.727
851,0.846,37.831,51.093,47.075,28.148,5.151,8.395,5.89
852,0.856,37.977,51.124,47.104,28.152,5.153,8.234,5.811
853,0.849,38.017,51.061,47.066,28.145,5.031,8.07,5.647
854,0.836,37.663,51.17,47.056,28.141,5.03,8.069,5.686
855,0.839,37.803,51.163,47.075,28.148,4.989,8.028,5.768
856,0.83,37.929,51.089,47.066,28.145,4.988,8.149,5.728
857,0.83,37.988,51.143,47.075,28.152,5.07,8.15,5.727
858,0.817,37.672,51.108,47.095,28.148,5.07,8.191,5.768
859,0.823,37.813,51.159,47.076,28.152,4.989,8.07,5.728
860,0.81,37.948,51.155,47.047,28.135,4.866,8.028,5.605
861,0.8,37.959,51.077,47.037,28.131,4.906,8.027,5.726
862,0.794,37.489,51.1,47.066,28.141,4.987,8.109,5.727
863,0.813,37.648,51.034,47.075,28.145,4.988,8.069,5.727
864,0.794,37.764,51.146,47.056,28.131,4.988,8.069,5.727
865,0.8,37.555,51.151,47.066,28.141,4.907,8.028,5.727
866,0.8,37.591,51.003,47.066,28.138,4.906,8.027,5.687
867,0.8,37.745,51.111,47.056,28.134,4.987,8.068,5.687
868,0.79,37.842,51.069,47.075,28.141,5.029,8.15,5.849
869,0.806,37.392,51.154,47.104,28.152,5.07,8.11,5.851
870,0.813,37.512,51.05,47.114,28.148,5.07,8.028,5.769
871,0.803,37.629,51.15,47.076,28.138,4.989,8.027,5.809
872,0.79,37.716,51.108,47.095,28.145,5.029,7.905,5.81
873,0.803,37.382,51.147,47.076,28.145,5.03,7.904,5.81
874,0.816,37.522,51.186,47.104,28.138,4.989,7.945,5.85
875,0.813,37.639,51.124,47.076,28.148,4.988,7.823,5.81
876,0.816,37.755,51.116,47.114,28.145,5.07,7.863,5.769
877,0.803,37.238,51.1,47.085,28.138,4.948,7.782,5.687
878,0.8,37.367,51.163,47.047,28.134,4.866,7.7,5.646
879,0.8,37.493,51.175,47.056,28.138,4.987,7.699,5.767
880,0.8,37.581,51.105,47.085,28.145,5.029,7.74,5.728
881,0.803,37.361,51.147,47.066,28.138,4.907,7.699,5.727
882,0.797,37.522,51.046,47.056,28.134,4.987,7.618,5.768
883,0.797,37.658,51.111,47.075,28.131,4.907,7.535,5.728
884,0.797,37.688,51.104,47.066,28.134,4.947,7.616,5.809
885,0.79,37.161,51.139,47.075,28.138,4.988,7.576,5.891
886,0.8,37.338,51.034,47.104,28.148,5.07,7.738,5.973
887,0.816,37.464,51.107,47.114,28.152,5.07,7.618,5.811
888,0.816,37.504,51.143,47.085,28.138,4.989,7.576,5.85
889,0.807,37.293,51.116,47.085,28.138,4.988,7.575,5.769
890,0.81,37.435,51.135,47.085,28.145,4.948,7.535,5.891
891,0.816,37.571,51.101,47.085,28.141,4.988,7.657,5.933
892,0.81,37.303,51.096,47.085,28.145,4.948,7.658,5.974
893,0.816,37.272,51.143,47.095,28.152,4.988,7.78,5.893
894,0.826,37.425,51.112,47.085,28.145,4.907,7.74,5.77
895,0.8,37.513,51.167,47.056,28.134,4.825,7.74,5.728
896,0.797,37.034,50.964,47.066,28.134,4.905,7.943,5.89
897,0.794,37.164,51.153,47.075,28.141,4.906,7.945,5.811
898,0.79,37.299,51.077,47.066,28.145,4.947,7.986,5.85
899,0.793,37.406,51.178,47.066,28.138,4.907,8.068,5.973
900,0.787,37.004,51.183,47.171,28.134,4.906,8.069,5.811
901,0.8,37.135,51.121,47.067,28.138,4.906,8.109,5.81
902,0.79,37.28,51.206,47.056,28.138,4.906,8.272,5.891
903,0.806,37.387,51.047,47.066,28.152,5.028,8.518,6.014
904,0.813,36.985,51.17,47.114,28.155,5.03,8.52,5.893
905,0.813,37.115,51.218,47.066,28.145,4.907,8.561,5.933
906,0.797,37.222,51.078,47.095,28.148,4.906,8.48,5.892
907,0.807,37.3,51.073,47.076,28.141,4.987,8.601,5.933
908,0.807,36.975,51.084,47.095,28.141,5.029,8.643,5.852
909,0.81,37.115,51.143,47.095,28.145,4.989,8.725,5.891
910,0.816,37.241,51.108,47.104,28.148,5.029,8.766,5.933
911,0.82,37.3,51.128,47.076,28.148,4.948,8.767,5.811
912,0.817,36.927,51.085,47.066,28.134,4.866,8.685,5.688
913,0.82,37.028,51.096,47.075,28.131,4.824,8.684,5.849
914,0.817,37.192,51.135,47.076,28.141,4.946,8.766,5.81
915,0.826,37.223,51.151,47.066,28.138,4.866,8.726,5.769
916,0.82,36.974,51.202,47.066,28.138,4.865,8.766,5.728
917,0.8,37.134,51.058,47.075,28.138,4.784,8.726,5.768
918,0.81,37.251,51.096,47.056,28.131,4.905,8.685,5.768
919,0.807,37.06,51.116,47.066,28.134,4.865,8.644,5.809
920,0.803,36.915,51.151,47.075,28.138,4.906,8.765,5.81
921,0.81,37.076,51.108,47.104,28.155,4.987,8.929,5.932
922,0.81,37.222,51.131,47.133,28.148,4.948,8.809,5.811
923,0.813,36.792,51.233,47.086,28.141,4.907,8.808,5.85
924,0.81,36.854,51.027,47.095,28.141,4.865,8.686,5.769
925,0.813,36.989,51.138,47.085,28.138,4.865,8.684,5.85
926,0.81,37.096,51.159,47.085,28.141,4.946,8.684,5.81
927,0.813,36.8,51.171,47.095,28.138,4.988,8.684,5.81
928,0.829,36.941,51.175,47.095,28.145,4.907,8.684,5.81
929,0.83,37.067,51.07,47.104,28.148,4.947,8.522,5.769
930,0.826,37.154,51.076,47.076,28.138,4.825,8.439,5.647
931,0.82,36.686,51.053,47.047,28.134,4.702,8.397,5.727
932,0.817,36.853,51.068,47.094,28.141,4.945,8.478,5.768
933,0.82,37.009,51.19,47.076,28.145,4.907,8.438,5.728
934,0.82,37.068,51.078,47.076,28.138,4.865,8.316,5.727
935,0.807,36.637,51.104,47.085,28.138,4.906,8.356,5.687
936,0.826,36.786,51.081,47.095,28.138,4.865,8.275,5.646
937,0.81,36.902,51.162,47.085,28.134,4.946,8.274,5.727
938,0.81,36.99,51.105,47.104,28.148,4.988,8.396,5.809
939,0.826,36.713,51.139,47.133,28.159,5.07,8.438,5.891
940,0.82,36.882,51.179,47.114,28.148,4.989,8.357,5.77
941,0.817,36.99,51.148,47.105,28.138,4.866,8.275,5.728
942,0.82,37.02,51.151,47.105,28.145,4.906,8.274,5.768
943,0.823,37.355,51.124,47.105,28.145,4.947,8.274,5.728
944,0.83,37.493,51.21,47.105,28.145,4.947,8.233,5.85
945,0.82,37.59,51.136,47.114,28.148,4.988,8.273,5.81
946,0.82,37.371,51.132,47.124,28.148,5.029,8.193,5.81
947,0.83,36.227,51.21,47.095,28.141,4.989,8.151,5.688
948,0.807,36.34,51.148,47.066,28.124,4.907,8.191,5.646
949,0.79,36.476,51.253,47.085,28.138,4.906,8.436,5.686
950,0.81,36.477,51.059,47.104,28.138,4.947,8.519,5.727
951,0.816,36.583,51.182,47.105,28.141,4.907,8.683,5.687
952,0.8,36.728,51.117,47.105,28.138,4.906,8.888,5.646
953,0.813,36.835,51.132,47.114,28.141,4.906,8.971,5.686
954,0.813,36.347,51.202,47.085,28.138,4.906,9.135,5.646
955,0.816,36.438,51.058,47.114,28.141,4.987,9.38,5.767
956,0.82,36.64,51.178,47.143,28.155,5.151,9.586,5.85
957,0.823,36.738,51.113,47.153,28.145,4.949,9.547,5.729
958,0.8,36.346,51.202,47.115,28.138,4.947,9.628,5.727
959,0.8,36.486,51.168,47.133,28.138,5.029,9.71,5.727
960,0.8,36.631,51.179,47.114,28.141,4.907,9.752,5.768
961,0.8,36.7,51.183,47.114,28.145,5.069,9.752,5.728
962,0.803,36.24,51.054,47.133,28.141,4.989,9.793,5.85
963,0.813,36.389,51.15,47.124,28.148,4.988,9.793,5.81
964,0.807,36.524,51.144,47.143,28.138,4.948,9.712,5.688
965,0.797,36.574,51.202,47.095,28.127,4.907,9.589,5.687
966,0.79,36.152,51.023,47.095,28.131,4.987,9.629,5.727
967,0.8,36.34,51.181,47.104,28.138,4.948,9.588,5.727
968,0.807,36.466,51.234,47.114,28.145,4.947,9.507,5.646
969,0.797,36.535,51.183,47.124,28.141,4.947,9.425,5.686
970,0.81,36.277,51.214,47.124,28.138,4.907,9.342,5.646
971,0.807,36.418,51.117,47.095,28.131,4.947,9.26,5.645
972,0.803,36.525,51.135,47.104,28.131,4.907,9.259,5.645
973,0.807,36.574,51.069,47.133,28.148,4.987,9.3,5.767
974,0.816,36.277,51.182,47.124,28.148,5.07,9.382,5.809
975,0.826,36.437,51.183,47.143,28.152,4.948,9.139,5.728
976,0.8,36.525,51.031,47.115,28.138,4.947,9.177,5.687
977,0.8,36.219,51.15,47.143,28.145,4.907,9.096,5.768
978,0.8,36.168,51.128,47.134,28.134,4.987,9.054,5.809
979,0.8,36.34,51.194,47.143,28.141,4.948,8.973,5.728
980,0.787,36.428,51.109,47.124,28.141,4.988,8.972,5.727
981,0.797,36.093,51.163,47.143,28.148,5.029,8.972,5.727
982,0.797,36.205,51.21,47.124,28.141,4.989,8.85,5.646
983,0.79,36.331,51.047,47.114,28.134,4.826,8.727,5.564
984,0.78,36.428,51.162,47.114,28.134,4.987,8.766,5.766
985,0.793,35.978,51.21,47.133,28.141,4.988,8.848,5.647
986,0.797,36.127,51.156,47.124,28.138,4.948,8.849,5.645
987,0.79,36.244,51.148,47.114,28.141,4.866,8.808,5.645
988,0.787,36.35,51.046,47.124,28.141,4.906,8.848,5.645
989,0.787,36.035,51.185,47.105,28.138,4.865,8.93,5.645
990,0.78,36.185,51.21,47.143,28.145,4.906,9.012,5.727
991,0.784,36.359,51.152,47.191,28.145,5.028,9.135,5.809
992,0.81,36.438,51.206,47.173,28.152,5.111,9.136,5.728
993,0.807,35.998,51.164,47.144,28.138,4.949,9.136,5.687
994,0.797,36.127,51.152,47.143,28.145,4.988,9.136,5.687
995,0.797,36.273,51.093,47.143,28.141,4.988,9.177,5.646
996,0.8,36.322,51.233,47.115,28.141,5.029,9.177,5.686
997,0.787,36.025,51.199,47.143,28.148,5.03,9.218,5.768
998,0.79,36.185,51.144,47.143,28.152,5.03,9.137,5.728
999,0.79,36.331,51.12,47.143,28.145,4.948,9.136,5.687
1000,0.764,36.342,51.007,47.124,28.131,4.907,8.974,5.605
1001,0.761,35.929,51.154,47.114,28.134,4.987,9.053,5.686
1002,0.777,36.117,51.085,47.124,28.138,4.988,9.054,5.727
1003,0.777,36.244,51.166,47.133,28.138,4.988,8.973,5.687
1004,0.777,36.149,51.206,47.134,28.138,4.948,8.972,5.687
1005,0.774,36.062,51.058,47.134,28.138,4.907,8.85,5.646
1006,0.774,36.214,51.162,47.124,28.127,4.906,8.889,5.645
1007,0.774,36.331,51.12,47.133,28.138,4.947,8.809,5.686
1008,0.78,35.949,51.202,47.134,28.148,5.029,8.93,5.809
1009,0.806,36.05,51.152,47.172,28.152,5.111,8.809,5.688
1010,0.79,36.195,51.155,47.163,28.138,4.989,8.767,5.727
1011,0.777,36.283,51.237,47.143,28.141,4.988,8.767,5.727
1012,0.78,36.006,51.144,47.153,28.141,5.029,8.726,5.687
1013,0.78,36.156,51.194,47.153,28.141,5.03,8.807,5.727
1014,0.79,36.292,51.218,47.124,28.145,4.989,8.686,5.727
1015,0.78,36.389,51.14,47.153,28.148,5.029,8.725,5.687
1016,0.78,35.872,51.202,47.143,28.141,4.948,8.603,5.646
1017,0.774,36.001,51.171,47.124,28.131,4.785,8.48,5.645
1018,0.767,36.127,51.234,47.114,28.138,4.905,8.56,5.645
1019,0.774,36.225,51.211,47.143,28.138,4.906,8.561,5.686
1020,0.767,35.976,51.207,47.143,28.138,4.987,8.521,5.646
1021,0.761,36.137,51.14,47.134,28.141,4.907,8.642,5.686
1022,0.764,36.263,51.065,47.134,28.138,4.947,8.603,5.646
1023,0.764,36.331,51.158,47.134,28.131,4.907,8.724,5.645
1024,0.761,36.14,51.206,47.134,28.138,4.865,8.848,5.849
1025,0.77,36.301,51.191,47.162,28.145,4.987,8.93,5.891
1026,0.777,36.456,51.003,47.201,28.152,5.11,8.972,5.811
1027,0.784,36.477,51.197,47.163,28.145,4.908,8.931,5.81
1028,0.777,36.113,51.152,47.143,28.134,4.865,8.931,5.85
1029,0.78,36.244,51.171,47.153,28.145,4.946,8.931,5.729
1030,0.79,36.36,51.132,47.162,28.148,4.947,8.972,5.809
1031,0.78,36.476,51.21,47.153,28.138,4.947,8.85,5.81
1032,0.78,36.142,51.14,47.162,28.145,4.907,8.971,5.891
1033,0.777,36.311,51.159,47.163,28.138,4.906,8.891,5.77
1034,0.78,36.38,51.272,47.124,28.134,4.906,8.727,5.728
1035,0.761,36.294,51.102,47.114,28.134,4.825,8.807,5.768
1036,0.774,36.399,51.221,47.258,28.141,4.905,8.808,5.809
1037,0.761,36.563,51.137,47.164,28.141,4.906,8.767,5.769
1038,0.751,36.651,51.21,47.163,28.141,4.865,8.726,5.768
1039,0.77,35.961,51.289,47.153,28.134,4.906,8.685,5.728
1040,0.77,36.069,51.098,47.162,28.141,4.784,8.603,5.727
1041,0.764,36.195,51.209,47.124,28.141,4.824,8.643,5.809
1042,0.761,36.283,51.105,47.143,28.141,4.905,8.603,5.891
1043,0.764,36.121,51.213,47.191,28.152,5.069,8.765,5.892
1044,0.774,36.253,51.183,47.182,28.148,4.989,8.563,5.851
1045,0.764,36.379,51.218,47.153,28.138,4.988,8.48,5.891
1046,0.767,36.467,51.148,47.172,28.145,4.907,8.438,5.77
1047,0.767,36.18,51.132,47.163,28.138,4.987,8.438,5.809
1048,0.78,36.331,51.214,47.172,28.138,4.948,8.438,5.81
1049,0.774,36.457,51.144,47.172,28.145,4.907,8.316,5.85
1050,0.774,36.516,51.225,47.191,28.148,4.947,8.356,5.851
1051,0.771,37.13,51.199,47.182,28.141,4.907,8.275,5.769
1052,0.77,37.261,51.148,47.144,28.131,4.825,8.111,5.687
1053,0.761,37.406,51.124,47.153,28.131,4.905,8.191,5.768
1054,0.764,37.446,51.214,47.162,28.138,4.947,8.232,5.768
1055,0.761,35.653,51.234,47.153,28.141,4.907,8.151,5.728
1056,0.774,35.817,51.105,47.162,28.138,4.906,8.273,5.687
1057,0.761,35.934,51.225,47.163,28.138,4.906,8.193,5.687
1058,0.761,35.954,51.172,47.153,28.138,4.865,8.314,5.727
1059,0.764,36.357,51.265,47.162,28.134,4.906,8.356,5.768
1060,0.761,36.515,51.211,47.163,28.148,4.987,8.519,5.768
1061,0.774,36.67,51.253,47.201,28.148,5.029,8.642,5.85
1062,0.774,36.374,51.281,47.182,28.148,4.989,8.644,5.769
1063,0.774,36.275,51.133,47.172,28.145,4.907,8.644,5.768
1064,0.754,36.437,51.218,47.182,28.141,4.947,8.725,5.728
1065,0.767,36.535,51.125,47.182,28.145,4.907,8.766,5.727
1066,0.764,36.238,51.167,47.192,28.145,4.906,8.848,5.809
1067,0.774,36.341,51.14,47.201,28.145,4.906,8.889,5.81
1068,0.767,36.486,51.151,47.182,28.148,4.987,8.849,5.81
1069,0.764,36.583,51.249,47.163,28.131,4.907,8.767,5.647
1070,0.77,36.239,51.129,47.172,28.12,4.744,8.767,5.686
1071,0.757,36.369,51.221,47.172,28.141,4.905,8.929,5.809
1072,0.767,36.534,51.23,47.182,28.141,4.865,8.85,5.688
1073,0.767,36.612,51.168,47.201,28.141,4.906,8.808,5.727
1074,0.77,36.354,51.23,47.163,28.141,4.865,8.808,5.687
1075,0.777,36.505,51.168,47.153,28.138,4.865,8.808,5.687
1076,0.777,36.641,51.132,47.153,28.134,4.784,8.726,5.646
1077,0.764,36.719,51.171,47.182,28.141,4.946,8.888,5.727
1078,0.764,36.413,51.144,47.201,28.152,4.947,9.012,5.89
1079,0.787,36.573,51.241,47.23,28.152,4.988,9.013,5.729
1080,0.767,36.689,51.168,47.192,28.141,4.907,8.932,5.768
1081,0.764,36.738,51.249,47.192,28.141,4.865,9.134,5.809
1082,0.761,36.375,51.289,47.182,28.141,4.987,9.177,5.728
1083,0.767,36.524,51.207,47.201,28.145,4.907,9.259,5.768
1084,0.761,36.67,51.273,47.211,28.141,4.906,9.341,5.85
1085,0.764,36.69,51.239,47.192,28.145,4.906,9.382,5.81
1086,0.751,36.441,51.226,47.192,28.145,4.947,9.382,5.728
1087,0.754,36.554,51.086,47.182,28.131,4.785,9.301,5.646
1088,0.751,36.67,51.201,47.182,28.127,4.905,9.382,5.686
1089,0.754,36.527,51.175,47.182,28.138,4.865,9.464,5.727
1090,0.761,36.382,51.21,47.316,28.141,4.824,9.465,5.727
1091,0.761,36.515,51.211,47.202,28.141,4.905,9.424,5.727
1092,0.757,36.631,51.183,47.182,28.134,4.865,9.424,5.646
1093,0.757,36.364,51.21,47.182,28.131,4.865,9.424,5.686
1094,0.767,36.457,51.148,47.201,28.134,4.865,9.505,5.768
1095,0.767,36.602,51.265,47.182,28.152,4.906,9.628,5.809
1096,0.777,36.709,51.176,47.23,28.159,4.987,9.71,5.85
1097,0.767,36.403,51.152,47.221,28.148,4.948,9.67,5.769
1098,0.764,36.515,51.226,47.202,28.145,4.907,9.67,5.809
1099,0.757,36.66,51.195,47.211,28.138,4.906,9.589,5.81
1100,0.77,36.748,51.265,47.211,28.145,4.947,9.669,5.769
1101,0.757,36.336,51.164,47.201,28.141,4.907,9.589,5.85
1102,0.764,36.476,51.245,47.22,28.145,4.987,9.629,5.851
1103,0.764,36.592,51.254,47.211,28.145,4.988,9.507,5.851
1104,0.751,36.67,51.188,47.201,28.134,4.826,9.506,5.729
1105,0.751,36.259,51.242,47.182,28.131,4.905,9.425,5.768
1106,0.741,36.408,51.242,47.211,28.138,4.865,9.383,5.809
1107,0.751,36.544,51.266,47.211,28.134,4.906,9.382,5.81
1108,0.764,36.603,51.238,47.201,28.138,4.906,9.382,5.769
1109,0.757,36.268,51.195,47.24,28.141,4.947,9.261,5.809
1110,0.754,36.379,51.261,47.192,28.134,4.907,9.219,5.728
1111,0.757,36.505,51.16,47.201,28.138,4.947,9.3,5.85
1112,0.761,36.574,51.284,47.24,28.148,5.029,9.301,5.973
1113,0.777,36.354,51.235,47.25,28.152,5.111,9.26,5.974
1114,0.774,36.486,51.195,47.211,28.145,4.908,9.137,5.852
1115,0.771,36.612,51.23,47.221,28.141,4.987,9.136,5.851
1116,0.774,36.709,51.191,47.221,28.141,4.907,9.055,5.932
1117,0.758,36.24,51.308,47.23,28.134,4.947,9.095,5.852
1118,0.764,36.389,51.188,47.221,28.145,5.069,9.054,5.851
1119,0.764,36.496,51.238,47.221,28.141,4.989,8.932,5.851
1120,0.761,36.219,51.168,47.23,28.148,4.948,8.931,5.729
1121,0.761,36.264,51.249,47.192,28.134,4.907,8.809,5.727
1122,0.741,36.399,51.242,47.192,28.134,4.906,8.889,5.768
1123,0.744,36.515,51.234,47.22,28.138,4.906,8.849,5.768
1124,0.741,36.19,51.308,47.211,28.138,4.906,8.889,5.809
1125,0.741,36.321,51.13,47.23,28.138,4.987,8.849,5.81
1126,0.747,36.447,51.253,47.221,28.138,4.866,8.767,5.81
1127,0.751,36.554,51.211,47.202,28.134,4.865,8.767,5.728
1128,0.748,36.018,51.281,47.211,28.134,4.946,8.767,5.809
1129,0.767,36.185,51.305,47.23,28.141,5.069,8.848,5.932
1130,0.774,36.359,51.227,47.25,28.152,5.07,8.889,5.892
1131,0.764,36.447,51.297,47.221,28.141,4.948,8.687,5.851
1132,0.761,36.065,51.211,47.221,28.138,4.907,8.807,5.851
1133,0.754,36.224,51.293,47.23,28.131,5.028,8.686,5.851
1134,0.764,36.36,51.227,47.23,28.141,4.989,8.766,5.81
1135,0.764,36.438,51.23,47.23,28.145,5.07,8.767,5.85
1136,0.761,36.093,51.219,47.25,28.141,5.03,8.767,5.891
1137,0.757,36.263,51.289,47.231,28.148,4.989,8.767,5.851
1138,0.761,36.379,51.321,47.24,28.138,4.907,8.645,5.769
1139,0.764,36.419,51.2,47.192,28.131,4.906,8.725,5.687
1140,0.744,36.007,51.21,47.201,28.134,4.947,8.726,5.809
1141,0.757,36.156,51.281,47.22,28.145,5.029,8.766,5.728
1142,0.757,36.321,51.164,47.23,28.145,4.989,8.807,5.85
1143,0.754,36.322,51.234,47.211,28.138,4.988,8.767,5.729
1144,0.748,35.977,51.238,47.211,28.131,4.948,8.767,5.727
1145,0.757,36.118,51.211,47.221,28.138,4.988,8.848,5.768
1146,0.744,36.272,51.172,47.259,28.138,5.029,8.889,5.85
1147,0.764,35.958,51.296,47.221,28.148,5.151,8.971,5.932
1148,0.767,35.954,51.313,47.259,28.159,5.193,8.972,5.811
1149,0.767,36.089,51.333,47.24,28.138,5.031,8.85,5.769
1150,0.751,36.176,51.309,47.24,28.141,5.03,8.971,5.768
1151,0.757,35.851,51.27,47.202,28.145,5.07,8.891,5.768
1152,0.767,35.972,51.18,47.278,28.141,5.07,8.89,5.768
1153,0.764,36.137,51.234,47.25,28.145,5.111,8.89,5.85
1154,0.757,36.225,51.328,47.221,28.138,5.152,8.849,5.81
1155,0.767,35.832,51.231,47.23,28.141,5.071,8.849,5.85
1156,0.764,35.982,51.234,47.23,28.134,5.07,8.767,5.688
1157,0.751,36.108,51.265,47.202,28.131,4.989,8.685,5.727
1158,0.754,36.205,51.235,47.22,28.138,5.029,8.684,5.809
1159,0.757,35.756,51.308,47.221,28.134,5.07,8.684,5.81
1160,0.754,35.885,51.235,47.23,28.134,5.07,8.644,5.769
1161,0.757,36.04,51.297,47.23,28.138,5.03,8.603,5.647
1162,0.751,36.099,51.262,47.221,28.134,5.07,8.602,5.686
1163,0.741,35.697,51.192,47.221,28.138,5.03,8.602,5.687
1164,0.738,35.865,51.32,47.24,28.134,5.111,8.643,5.768
1165,0.747,36.011,51.204,47.25,28.155,5.193,8.765,5.891
1166,0.754,36.108,51.21,47.298,28.155,5.234,8.645,5.77
1167,0.777,35.735,51.257,47.241,28.138,5.113,8.644,5.728
1168,0.754,35.866,51.246,47.23,28.138,5.112,8.684,5.727
1169,0.761,35.992,51.336,47.259,28.141,5.152,8.603,5.768
1170,0.767,36.012,51.22,47.25,28.141,5.153,8.643,5.768
1171,0.761,35.552,51.308,47.25,28.145,5.071,8.644,5.809
1172,0.764,35.711,51.176,47.259,28.145,5.193,8.603,5.728
1173,0.77,35.856,51.304,47.269,28.141,5.153,8.643,5.727
1174,0.777,35.762,51.333,47.221,28.134,5.031,8.44,5.565
1175,0.758,35.646,51.274,47.23,28.131,5.03,8.519,5.685
1176,0.767,35.817,51.25,47.259,28.138,5.07,8.52,5.646
1177,0.774,35.943,51.238,47.231,28.138,5.07,8.439,5.645
1178,0.777,35.561,51.308,47.24,28.134,5.03,8.479,5.645
1179,0.78,35.644,51.305,47.23,28.138,5.03,8.398,5.645
1180,0.78,35.779,51.239,47.24,28.134,5.03,8.316,5.645
1181,0.8,35.895,51.265,47.23,28.131,5.03,8.356,5.645
1182,0.803,35.455,51.242,47.24,28.145,5.192,8.437,5.727
1183,0.82,35.614,51.293,47.278,28.152,5.194,8.479,5.768
1184,0.813,35.759,51.321,47.269,28.141,5.031,8.316,5.728
1185,0.807,35.818,51.29,47.26,28.141,5.03,8.274,5.646
1186,0.803,35.483,51.336,47.259,28.145,5.07,8.355,5.767
1187,0.823,35.643,51.157,47.259,28.148,5.111,8.315,5.728
1188,0.82,35.769,51.296,47.25,28.141,5.071,8.315,5.809
1189,0.839,35.876,51.254,47.259,28.145,5.152,8.315,5.728
1190,0.849,35.388,51.273,47.269,28.141,5.112,8.315,5.687
1191,0.853,35.527,51.227,47.25,28.134,5.071,8.193,5.646
1192,0.84,35.624,51.265,47.221,28.131,5.03,8.232,5.686
1193,0.843,35.711,51.316,47.249,28.141,5.151,8.233,5.727
1194,0.856,35.53,51.274,47.24,28.145,5.071,8.192,5.605
1195,0.853,35.662,51.324,47.24,28.138,5.03,8.192,5.686
1196,0.853,35.808,51.196,47.25,28.138,5.03,8.11,5.605
1197,0.859,35.847,51.296,47.25,28.138,4.989,8.15,5.604
1198,0.853,35.426,51.325,47.231,28.131,5.07,8.069,5.564
1199,0.856,35.565,51.305,47.25,28.131,5.07,8.15,5.685
1200,0.869,35.72,51.36,47.259,28.155,5.193,8.232,5.849
1201,0.882,35.866,51.317,47.298,28.152,5.194,8.192,5.688
1202,0.885,35.436,51.352,47.25,28.138,5.072,8.11,5.687
1203,0.882,35.604,51.278,47.259,28.145,5.07,8.15,5.646
1204,0.895,35.711,51.332,47.259,28.141,5.07,8.15,5.727
1205,0.902,35.396,51.263,47.259,28.141,5.07,8.191,5.727
1206,0.908,35.412,51.27,47.259,28.145,5.193,8.192,5.687
1207,0.921,35.585,51.235,47.279,28.148,5.194,8.192,5.687
1208,0.944,35.692,51.281,47.25,28.138,5.031,8.11,5.564
1209,0.935,35.204,51.336,47.231,28.131,4.948,8.028,5.563
1210,0.938,35.324,51.235,47.259,28.145,5.11,8.149,5.685
1211,0.954,35.507,51.324,47.259,28.145,5.03,8.069,5.646
1212,0.948,35.595,51.223,47.24,28.138,5.03,8.15,5.645
1213,0.941,35.232,51.3,47.259,28.138,4.948,8.15,5.645
1214,0.951,35.391,51.356,47.24,28.134,4.988,8.069,5.645
1215,0.938,35.517,51.294,47.23,28.131,5.029,8.109,5.645
1216,0.932,35.605,51.282,47.25,28.141,5.07,8.15,5.645
1217,0.931,35.212,51.266,47.279,28.152,5.233,8.273,5.727
1218,0.944,35.372,51.379,47.298,28.145,5.032,8.152,5.646
1219,0.945,35.479,51.298,47.26,28.138,5.07,8.15,5.686
1220,0.935,35.547,51.293,47.269,28.141,5.03,8.11,5.646
1221,0.935,35.289,51.368,47.25,28.138,5.03,8.191,5.645
1222,0.931,35.43,51.259,47.269,28.138,5.07,8.232,5.727
1223,0.922,35.594,51.336,47.26,28.141,5.07,8.355,5.727
1224,0.918,35.634,51.29,47.269,28.145,5.07,8.275,5.687
1225,0.909,35.107,51.34,47.26,28.145,4.948,8.233,5.564
1226,0.899,35.217,51.282,47.24,28.131,4.988,8.314,5.523
1227,0.902,35.362,51.285,47.374,28.141,5.029,8.356,5.603
1228,0.908,35.421,51.364,47.251,28.134,5.03,8.397,5.564
1229,0.895,35.239,51.314,47.269,28.145,5.03,8.478,5.645
1230,0.899,35.381,51.329,47.279,28.134,5.07,8.438,5.564
1231,0.899,35.517,51.298,47.25,28.131,4.948,8.479,5.645
1232,0.902,35.288,51.282,47.24,28.138,4.947,8.438,5.645
1233,0.899,35.296,51.313,47.25,28.145,5.069,8.601,5.727
1234,0.895,35.478,51.317,47.298,28.152,5.193,8.684,5.768
1235,0.899,35.576,51.364,47.298,28.148,5.153,8.522,5.728
1236,0.879,35.049,51.181,47.269,28.138,5.031,8.642,5.727
1237,0.853,35.159,51.312,47.269,28.141,5.03,8.521,5.646
1238,0.84,35.294,51.391,47.269,28.138,5.111,8.561,5.686
1239,0.846,35.392,51.392,47.26,28.145,5.112,8.602,5.646
1240,0.836,35.143,51.4,47.259,28.141,5.112,8.44,5.645
1241,0.833,35.285,51.306,47.269,28.145,5.071,8.519,5.645
1242,0.813,35.439,51.36,47.269,28.138,5.03,8.398,5.564
1243,0.8,35.518,51.286,47.24,28.127,4.989,8.356,5.482
1244,0.79,35.01,51.336,47.259,28.134,5.07,8.315,5.644
1245,0.78,35.168,51.387,47.259,28.138,5.07,8.356,5.605
1246,0.777,35.314,51.267,47.269,28.138,4.989,8.356,5.564
1247,0.777,35.382,51.313,47.384,28.134,5.029,8.275,5.523
1248,0.771,35.114,51.239,47.261,28.141,4.989,8.314,5.482
1249,0.767,35.265,51.351,47.25,28.134,5.029,8.234,5.481
1250,0.761,35.41,51.36,47.259,28.138,5.03,8.273,5.603
1251,0.757,35.469,51.333,47.279,28.148,5.07,8.355,5.686
1252,0.764,35.01,51.36,47.317,28.159,5.152,8.519,5.646
1253,0.767,35.159,51.306,47.298,28.138,5.071,8.358,5.645
1254,0.757,35.285,51.379,47.279,28.141,5.03,8.437,5.564
1255,0.751,35.324,51.294,47.25,28.141,5.151,8.519,5.604
1256,0.748,35.018,51.258,47.279,28.145,5.071,8.52,5.645
1257,0.734,35.178,51.336,47.298,28.145,5.07,8.601,5.605
1258,0.738,35.323,51.305,47.279,28.145,5.111,8.724,5.686
1259,0.734,35.133,51.379,47.279,28.141,5.112,8.766,5.564
1260,0.744,34.958,51.255,47.269,28.141,5.071,8.645,5.441
1261,0.725,35.072,51.332,47.25,28.131,4.948,8.644,5.521
1262,0.715,35.188,51.247,47.25,28.138,5.029,8.806,5.482
1263,0.734,34.997,51.328,47.259,28.141,4.989,8.767,5.522
1264,0.718,35.091,51.415,47.259,28.138,5.07,8.767,5.563
1265,0.715,35.236,51.365,47.259,28.134,4.989,8.807,5.604
1266,0.698,35.353,51.325,47.279,28.134,4.988,8.808,5.564
1267,0.724,34.855,51.282,47.26,28.134,5.029,8.808,5.523
1268,0.708,34.984,51.352,47.269,28.141,5.111,8.889,5.644
1269,0.711,35.139,51.329,47.317,28.155,5.152,9.052,5.686
1270,0.721,35.256,51.36,47.318,28.152,5.112,8.932,5.524
1271,0.705,34.825,51.415,47.26,28.145,4.989,8.931,5.563
1272,0.708,34.984,51.248,47.279,28.141,5.029,8.972,5.645
1273,0.705,35.149,51.367,47.279,28.138,5.07,8.931,5.564
1274,0.711,35.208,51.337,47.269,28.148,5.07,8.931,5.563
1275,0.711,34.806,51.352,47.288,28.145,5.07,8.89,5.604
1276,0.711,34.993,51.282,47.308,28.145,5.111,8.849,5.645
1277,0.708,35.13,51.336,47.279,28.138,5.03,8.686,5.564
1278,0.698,35.169,51.403,47.25,28.131,4.867,8.644,5.441
1279,0.679,34.757,51.33,47.25,28.127,4.987,8.644,5.562
1280,0.688,34.964,51.337,47.269,28.141,5.029,8.684,5.523
1281,0.688,35.101,51.313,47.269,28.138,4.989,8.603,5.563
1282,0.688,35.131,51.282,47.25,28.141,4.948,8.643,5.482
1283,0.692,34.958,51.363,47.259,28.131,4.947,8.644,5.562
1284,0.692,35.091,51.384,47.25,28.134,4.988,8.521,5.523
1285,0.695,35.227,51.38,47.259,28.138,5.029,8.561,5.563
1286,0.701,39.342,51.236,47.298,28.138,5.07,8.683,5.685
1287,0.698,45.942,51.383,47.317,28.152,5.152,8.684,5.687
1288,0.708,46.027,51.435,47.308,28.141,4.99,8.562,5.605
1289,0.695,46.008,51.385,47.279,28.141,4.988,8.48,5.645
1290,0.698,32.708,51.404,47.288,28.138,5.029,8.479,5.645
1291,0.692,29.995,51.341,47.288,28.134,5.03,8.357,5.564
1292,0.705,30.237,51.36,47.308,28.145,4.989,8.478,5.604
1293,0.708,30.451,51.399,47.289,28.141,4.988,8.316,5.645
1294,0.708,36.225,51.431,47.26,28.155,5.07,8.356,5.523
1295,0.708,36.629,51.357,47.259,28.141,4.948,8.315,5.441
1296,0.695,36.747,51.368,47.259,28.131,4.866,8.152,5.399
1297,0.688,36.816,51.345,47.259,28.138,5.028,8.273,5.48
1298,0.695,33.834,51.368,47.269,28.141,4.989,8.233,5.522
1299,0.688,33.967,51.442,47.269,28.141,5.029,8.273,5.522
1300,0.688,34.132,51.295,47.279,28.138,4.948,8.274,5.482
1301,0.695,34.239,51.383,47.25,28.134,4.947,8.152,5.44
1302,0.688,34.969,51.314,47.25,28.134,4.866,8.15,5.44
1303,0.695,35.129,51.34,47.259,28.141,5.068,8.313,5.643
1304,0.701,35.275,51.446,47.307,28.155,5.152,8.396,5.727
1305,0.714,35.363,51.439,47.289,28.145,5.071,8.194,5.565
1306,0.702,34.587,51.361,47.336,28.148,4.989,8.192,5.645
1307,0.705,34.742,51.415,47.27,28.134,4.988,8.192,5.564
1308,0.702,34.878,51.361,47.26,28.141,4.988,8.192,5.563
1309,0.708,34.946,51.458,47.279,28.145,5.029,8.151,5.604
1310,0.705,34.698,51.35,47.279,28.148,4.989,8.11,5.604
1311,0.715,34.829,51.458,47.279,28.138,4.988,8.028,5.482
1312,0.708,34.975,51.393,47.279,28.134,4.866,7.905,5.44
1313,0.695,34.966,51.376,47.25,28.134,4.987,7.985,5.562
1314,0.708,34.64,51.45,47.259,28.141,4.988,7.986,5.523
1315,0.705,34.791,51.322,47.259,28.138,4.948,7.905,5.522
1316,0.708,34.936,51.407,47.259,28.131,4.907,7.863,5.441
1317,0.705,34.726,51.298,47.25,28.131,4.987,7.863,5.481
1318,0.702,34.686,51.45,47.231,28.131,4.866,7.822,5.44
1319,0.698,34.829,51.478,47.24,28.131,4.865,7.822,5.481
1320,0.698,34.955,51.405,47.259,28.141,5.028,7.903,5.603
1321,0.695,34.64,51.482,47.279,28.148,5.111,8.067,5.645
1322,0.698,34.771,51.354,47.288,28.145,5.03,7.865,5.483
1323,0.692,34.888,51.399,47.25,28.138,5.03,7.863,5.522
1324,0.688,34.975,51.384,47.25,28.141,4.989,7.904,5.563
1325,0.688,34.573,51.365,47.259,28.145,5.029,7.863,5.563
1326,0.675,34.713,51.329,47.259,28.138,5.07,7.944,5.563
1327,0.685,34.858,51.383,47.259,28.141,5.03,7.864,5.604
1328,0.679,34.965,51.446,47.24,28.138,5.03,7.904,5.482
1329,0.678,34.65,51.451,47.24,28.138,4.948,7.782,5.44
1330,0.691,34.781,51.451,47.221,28.131,4.866,7.781,5.359
1331,0.698,34.907,51.393,47.221,28.131,4.946,7.862,5.439
1332,0.727,35.023,51.454,47.23,28.141,4.988,7.985,5.481
1333,0.734,34.583,51.396,47.24,28.138,4.948,7.986,5.522
1334,0.751,34.732,51.466,47.23,28.138,4.988,8.027,5.482
1335,0.767,34.878,51.279,47.23,28.138,4.948,8.109,5.481
1336,0.793,34.956,51.41,47.211,28.131,4.947,8.109,5.359
1337,0.816,34.592,51.451,47.201,28.138,4.947,8.15,5.521
1338,0.846,34.742,51.432,47.22,28.138,5.029,8.273,5.644
1339,0.879,34.916,51.494,47.269,28.148,5.151,8.355,5.645
1340,0.895,34.975,51.37,47.269,28.148,5.031,8.315,5.564
1341,0.912,34.612,51.47,47.212,28.141,4.989,8.193,5.482
1342,0.935,34.752,51.354,47.23,28.148,5.029,8.192,5.522
1343,0.967,34.888,51.431,47.23,28.138,5.03,8.192,5.522
1344,1.0,34.783,51.455,47.25,28.145,4.989,8.192,5.563
1345,1.062,34.619,51.389,47.25,28.148,4.988,8.273,5.563
1346,1.108,34.8,51.411,47.221,28.145,5.07,8.193,5.563
1347,1.151,34.917,51.377,47.23,28.141,4.989,8.029,5.523
1348,1.158,34.592,51.446,47.202,28.131,4.907,7.946,5.482
1349,1.165,34.675,51.4,47.211,28.134,4.987,8.108,5.603
1350,1.174,34.829,51.408,47.221,28.141,4.948,8.069,5.645
1351,1.178,34.946,51.474,47.211,28.134,4.907,8.028,5.645
1352,1.165,34.516,51.365,47.221,28.138,4.947,8.027,5.645
1353,1.168,34.665,51.431,47.192,28.138,4.988,7.987,5.686
1354,1.194,34.791,51.384,47.211,28.134,4.907,7.986,5.646
1355,1.22,34.888,51.423,47.192,28.141,4.947,8.027,5.767
1356,1.263,34.563,51.357,47.22,28.148,5.029,8.19,5.891
1357,1.263,34.732,51.501,47.249,28.148,5.111,8.151,5.77
1358,1.221,34.839,51.522,47.211,28.141,4.949,8.11,5.768
1359,1.149,34.908,51.471,47.201,28.138,5.029,8.15,5.891
1360,1.109,34.515,51.479,47.211,28.145,5.03,8.273,5.973
1361,1.089,34.655,51.408,47.201,28.145,4.948,8.274,6.015
1362,1.066,34.81,51.462,47.22,28.138,4.988,8.396,6.096
1363,0.985,34.888,51.385,47.211,28.145,4.988,8.397,6.178
1364,0.854,34.659,51.478,47.221,28.141,5.029,8.356,6.179
1365,0.781,34.8,51.373,47.192,28.131,4.907,8.315,6.179
1366,0.679,34.936,51.376,47.201,28.131,4.865,8.396,6.383
1367,0.617,34.985,51.462,47.201,28.134,4.946,8.519,6.507
1368,0.545,34.593,51.393,47.182,28.145,4.988,8.52,6.63
1369,0.472,34.732,51.493,47.182,28.141,4.988,8.479,6.794
1370,0.393,34.859,51.44,47.182,28.141,4.907,8.479,6.836
1371,0.354,35.023,51.447,47.172,28.138,4.906,8.479,6.999
1372,0.327,34.526,51.439,47.182,28.134,4.987,8.479,7.082
1373,0.294,34.684,51.412,47.182,28.141,5.029,8.601,7.327
1374,0.265,34.801,51.509,47.192,28.152,5.111,8.684,7.37
1375,0.258,34.667,51.37,47.22,28.141,5.071,8.644,7.33
1376,0.248,34.714,51.462,47.163,28.138,4.989,8.603,7.451
1377,0.225,34.849,51.428,47.163,28.134,5.029,8.643,7.452
1378,0.215,34.965,51.482,47.182,28.138,4.989,8.603,7.574
1379,0.199,34.544,51.486,47.182,28.138,5.029,8.562,7.657
1380,0.157,34.674,51.416,47.163,28.145,5.07,8.602,7.739
1381,0.127,34.81,51.509,47.153,28.145,5.03,8.602,7.821
1382,0.094,34.927,51.417,47.182,28.145,5.03,8.602,7.822
1383,0.09,34.448,51.435,47.163,28.131,4.907,8.399,7.822
1384,0.071,34.578,51.548,47.124,28.131,4.906,8.438,8.025
1385,0.071,34.742,51.444,47.162,28.138,4.987,8.519,8.109
1386,0.106,34.83,51.396,47.191,28.145,4.988,8.479,8.232
1387,0.149,34.466,51.435,47.144,28.138,4.948,8.479,8.273
1388,0.182,34.616,51.478,47.143,28.131,4.947,8.438,8.436
1389,0.212,34.762,51.494,47.153,28.134,4.825,8.438,8.519
1390,0.225,34.83,51.455,47.143,28.134,4.865,8.479,8.601
1391,0.235,34.438,51.51,47.134,28.141,4.987,8.642,8.887
1392,0.264,34.616,51.354,47.181,28.155,5.029,8.806,9.012
1393,0.287,34.781,51.485,47.182,28.145,4.989,8.808,9.013
1394,0.288,34.802,51.455,47.144,28.138,4.988,8.889,9.094
1395,0.288,34.524,51.478,47.134,28.138,4.948,8.93,9.217
1396,0.294,34.741,51.393,47.162,28.138,4.988,9.012,9.3
1397,0.291,34.82,51.513,47.143,28.141,4.948,9.054,9.26
1398,0.281,34.84,51.456,47.143,28.145,4.988,9.135,9.3
1399,0.304,34.572,51.537,47.162,28.145,4.948,9.095,9.341
1400,0.327,34.713,51.51,47.124,28.141,4.907,9.095,9.26
1401,0.333,34.82,51.487,47.095,28.131,4.825,9.014,9.178
1402,0.33,34.639,51.451,47.143,28.138,4.987,9.176,9.259
1403,0.353,34.637,51.435,47.134,28.145,5.029,9.177,9.219
1404,0.389,34.781,51.56,47.124,28.138,4.907,9.137,9.259
1405,0.402,34.907,51.362,47.124,28.134,4.865,9.177,9.097
1406,0.425,34.362,51.493,47.229,28.134,4.865,9.137,9.136
1407,0.448,34.442,51.463,47.125,28.127,4.865,9.217,9.095
1408,0.471,34.606,51.525,47.124,28.138,4.946,9.3,9.136
1409,0.498,34.723,51.549,47.153,28.152,5.069,9.382,9.177
1410,0.534,34.542,51.468,47.115,28.138,4.989,9.261,8.974
1411,0.544,34.655,51.557,47.124,28.138,4.866,9.178,8.931
1412,0.567,34.8,51.425,47.143,28.141,4.946,9.259,8.931
1413,0.583,34.898,51.513,47.134,28.141,4.866,9.259,8.89
1414,0.609,34.371,51.467,47.114,28.141,4.987,9.259,8.809
1415,0.632,34.529,51.42,47.153,28.145,4.988,9.178,8.808
1416,0.649,34.694,51.513,47.124,28.138,4.866,9.218,8.564
1417,0.646,34.753,51.491,47.105,28.134,4.784,9.015,8.521
1418,0.652,34.379,51.522,47.085,28.131,4.864,9.054,8.52
1419,0.662,34.548,51.463,47.114,28.138,4.906,9.135,8.52
1420,0.682,34.703,51.471,47.095,28.134,4.987,9.055,8.439
1421,0.688,34.772,51.549,47.085,28.134,4.826,9.135,8.397
1422,0.692,34.456,51.483,47.076,28.134,4.905,9.095,8.275
1423,0.695,34.597,51.526,47.095,28.141,4.784,9.095,8.274
1424,0.708,34.713,51.495,47.104,28.138,4.905,9.095,8.193
1425,0.724,34.772,51.459,47.105,28.141,4.987,9.258,8.314
1426,0.724,34.447,51.463,47.114,28.155,4.988,9.219,8.274
1427,0.747,34.635,51.549,47.105,28.145,4.907,9.137,8.111
1428,0.734,34.714,51.495,47.085,28.138,4.947,9.136,8.069
1429,0.741,34.571,51.522,47.085,28.138,4.907,9.136,8.028
1430,0.751,34.425,51.522,47.104,28.138,4.987,9.055,8.068
1431,0.748,34.558,51.452,47.085,28.141,4.948,9.054,7.987
1432,0.751,34.703,51.502,47.095,28.145,4.988,9.013,7.986
1433,0.748,34.369,51.53,47.085,28.141,4.907,8.932,7.864
1434,0.751,34.443,51.487,47.066,28.134,4.906,8.768,7.66
1435,0.741,34.587,51.545,47.056,28.127,4.825,8.726,7.739
1436,0.751,34.694,51.464,47.075,28.138,4.905,8.888,7.74
1437,0.764,34.427,51.592,47.076,28.141,4.906,8.89,7.699
1438,0.767,34.577,51.464,47.066,28.141,4.906,8.93,7.74
1439,0.77,34.723,51.49,47.066,28.134,4.865,8.89,7.659
1440,0.761,34.811,51.51,47.047,28.131,4.824,8.971,7.617
1441,0.761,34.313,51.456,47.027,28.134,4.905,8.931,7.617
1442,0.761,34.48,51.514,47.056,28.138,4.987,9.093,7.657
1443,0.774,34.645,51.467,47.075,28.152,5.029,9.176,7.698
1444,0.787,34.743,51.553,47.085,28.145,4.989,9.055,7.618
1445,0.774,34.245,51.491,47.076,28.141,4.948,8.932,7.576
1446,0.777,34.422,51.494,47.056,28.141,4.866,8.972,7.535
1447,0.787,34.539,51.604,47.066,28.141,5.028,8.931,7.494
1448,0.784,34.617,51.515,47.056,28.141,4.948,8.931,7.453
1449,0.79,34.483,51.561,47.066,28.141,4.988,8.931,7.412
1450,0.79,34.645,51.479,47.066,28.138,5.029,8.85,7.371
1451,0.79,34.771,51.6,47.066,28.141,4.948,8.808,7.289
1452,0.797,34.811,51.546,47.027,28.131,4.825,8.726,7.166
1453,0.787,34.227,51.534,47.027,28.134,4.905,8.685,7.287
1454,0.79,34.393,51.6,47.046,28.141,4.947,8.684,7.207
1455,0.793,34.529,51.414,47.037,28.145,4.988,8.684,7.084
1456,0.79,34.78,51.54,47.008,28.141,4.907,8.644,7.164
1457,0.79,34.485,51.487,47.027,28.134,4.947,8.603,7.124
1458,0.787,34.626,51.553,46.998,28.138,4.947,8.602,7.083
1459,0.793,34.762,51.565,47.008,28.138,4.907,8.602,7.002
1460,0.78,34.36,51.48,47.017,28.145,4.987,8.684,7.204
1461,0.797,34.385,51.576,47.046,28.152,5.11,8.684,7.125
1462,0.803,34.548,51.46,47.056,28.141,4.989,8.522,7.043
1463,0.8,34.646,51.533,47.027,28.141,4.988,8.479,7.001
1464,0.797,34.273,51.6,47.008,28.145,5.07,8.438,7.041
1465,0.803,34.413,51.433,47.046,28.141,4.989,8.438,7.001
1466,0.807,34.558,51.545,47.027,28.138,5.07,8.397,7.001
1467,0.807,34.655,51.522,47.018,28.152,5.07,8.316,6.96
1468,0.816,34.167,51.588,47.008,28.135,4.989,8.356,6.96
1469,0.813,34.287,51.55,46.998,28.134,4.866,8.193,6.838
1470,0.81,34.423,51.542,46.988,28.127,4.865,8.151,6.796
1471,0.803,34.51,51.542,46.988,28.138,4.906,8.15,6.836
1472,0.816,34.195,51.503,46.998,28.138,4.987,8.11,6.837
1473,0.813,34.335,51.592,46.979,28.141,4.907,8.109,6.796
1474,0.823,34.49,51.499,46.969,28.138,4.947,8.069,6.714
1475,0.781,34.549,51.498,47.007,28.138,4.866,8.069,6.672
1476,0.813,34.166,51.6,46.969,28.127,4.906,8.109,6.672
1477,0.81,34.335,51.589,46.95,28.138,4.906,8.232,6.713
1478,0.81,34.481,51.616,46.978,28.141,4.987,8.355,6.835
1479,0.823,34.559,51.578,47.017,28.152,5.151,8.478,6.796
1480,0.83,34.272,51.554,46.989,28.141,4.99,8.438,6.755
1481,0.817,34.403,51.522,46.96,28.141,4.907,8.56,6.714
1482,0.807,34.548,51.542,46.969,28.138,4.906,8.643,6.672
1483,0.816,34.559,51.585,46.979,28.138,4.906,8.684,6.672
1484,0.816,34.329,51.542,46.979,28.141,4.906,8.807,6.672
1485,0.82,34.481,51.487,46.969,28.138,4.947,8.808,6.631
1486,0.82,34.616,51.483,46.988,28.145,5.029,8.808,6.55
1487,0.823,34.311,51.58,46.96,28.134,4.907,8.726,6.468
1488,0.82,34.241,51.534,46.931,28.131,4.784,8.685,6.426
1489,0.813,34.345,51.604,46.921,28.138,4.824,8.766,6.548
1490,0.823,34.51,51.636,46.959,28.145,4.824,8.807,6.468
1491,0.826,34.386,51.535,46.95,28.141,4.865,8.726,6.507
1492,0.83,34.5,51.596,46.94,28.134,4.906,8.848,6.345
1493,0.823,34.636,51.519,46.93,28.138,4.825,8.849,6.466
1494,0.833,34.714,51.584,46.921,28.127,4.824,8.767,6.467
1495,0.823,34.043,51.569,47.016,28.134,4.905,8.767,6.467
1496,0.833,34.18,51.519,46.95,28.148,4.906,8.848,6.507
1497,0.833,34.374,51.635,46.959,28.159,5.069,8.93,6.508
1498,0.849,34.471,51.562,46.969,28.148,4.908,8.809,6.427
1499,0.846,34.127,51.589,46.931,28.138,4.906,8.767,6.385
1500,0.843,34.287,51.558,46.949,28.138,4.987,8.848,6.344
1501,0.833,34.432,51.628,46.921,28.138,4.907,8.849,6.384
1502,0.833,34.53,51.523,46.93,28.141,4.947,8.767,6.344
1503,0.833,34.157,51.596,46.94,28.145,4.907,8.726,6.425
1504,0.83,34.316,51.577,46.959,28.145,4.906,8.766,6.344
1505,0.836,34.461,51.452,46.969,28.134,4.865,8.604,6.221
1506,0.826,34.52,51.576,46.902,28.131,4.784,8.562,6.22
1507,0.83,34.118,51.503,46.93,28.141,4.905,8.643,6.302
1508,0.843,34.277,51.608,46.921,28.138,4.906,8.562,6.221
1509,0.849,34.403,51.468,46.921,28.141,4.906,8.521,6.302
1510,0.849,34.443,51.561,46.911,28.141,4.825,8.479,6.221
1511,0.843,34.117,51.519,46.892,28.131,4.783,8.479,6.22
1512,0.843,34.267,51.557,46.92,28.138,4.824,8.479,6.261
1513,0.859,34.432,51.651,46.93,28.141,4.987,8.601,6.384
1514,0.866,34.309,51.566,46.949,28.152,4.988,8.602,6.263
1515,0.872,34.116,51.62,46.931,28.135,4.866,8.48,6.221
1516,0.85,34.258,51.539,46.911,28.138,4.824,8.52,6.22
1517,0.856,34.374,51.659,46.911,28.141,4.905,8.52,6.18
1518,0.866,34.059,51.559,46.93,28.141,4.865,8.52,6.139
1519,0.859,34.142,51.628,46.911,28.145,4.824,8.439,6.219
1520,0.866,34.306,51.621,46.921,28.141,4.865,8.438,6.18
1521,0.866,34.404,51.589,46.921,28.145,4.987,8.438,6.179
1522,0.862,34.098,51.62,46.911,28.141,4.866,8.357,6.098
1523,0.856,34.21,51.543,46.882,28.134,4.784,8.315,6.016
1524,0.853,34.345,51.596,46.882,28.127,4.864,8.356,6.137
1525,0.853,34.481,51.499,46.92,28.141,4.824,8.356,6.098
1526,0.853,33.935,51.576,46.892,28.141,4.824,8.234,6.056
1527,0.856,34.074,51.647,46.892,28.138,4.824,8.233,6.015
1528,0.866,34.21,51.621,46.892,28.127,4.824,8.111,5.974
1529,0.872,34.268,51.605,46.892,28.134,4.824,8.109,6.055
1530,0.866,33.981,51.488,46.911,28.138,4.865,8.191,6.056
1531,0.862,34.151,51.557,46.911,28.145,4.987,8.232,6.259
1532,0.879,34.325,51.612,46.94,28.152,4.988,8.192,6.139
1533,0.885,34.385,51.578,46.902,28.141,4.866,8.11,6.138
1534,0.879,33.935,51.628,46.892,28.145,4.824,8.109,6.098
1535,0.869,34.083,51.468,46.911,28.145,4.987,7.987,6.056
1536,0.882,34.248,51.596,46.911,28.141,5.029,7.986,6.097
1537,0.879,34.288,51.589,46.892,28.138,4.907,7.946,6.097
1538,0.879,34.049,51.667,46.92,28.148,4.906,7.986,6.016
1539,0.889,34.209,51.672,46.911,28.145,4.947,7.986,5.974
1540,0.882,34.345,51.613,46.873,28.138,4.825,7.824,5.893
1541,0.869,34.51,51.636,46.853,28.131,4.824,7.781,5.973
1542,0.879,34.003,51.578,46.872,28.141,4.987,7.944,5.933
1543,0.882,34.142,51.632,46.891,28.138,4.907,7.823,5.974
1544,0.879,34.258,51.566,46.872,28.138,4.906,7.863,5.974
1545,0.885,33.981,51.503,46.882,28.138,4.865,7.782,6.015
1546,0.882,34.026,51.612,46.882,28.134,4.865,7.822,5.934
1547,0.885,34.161,51.605,46.863,28.131,4.824,7.781,5.974
1548,0.885,34.287,51.671,46.891,28.138,4.987,7.862,6.055
1549,0.905,34.001,51.57,46.911,28.152,5.07,7.904,6.097
1550,0.915,34.142,51.643,46.921,28.145,4.989,7.742,5.935
1551,0.899,34.239,51.558,46.873,28.138,4.907,7.699,5.974
1552,0.895,34.374,51.612,46.882,28.138,4.906,7.699,6.015
1553,0.902,33.867,51.644,46.863,28.138,4.947,7.78,6.015
1554,0.908,34.035,51.613,46.872,28.138,4.947,7.822,5.974
1555,0.902,34.171,51.566,46.92,28.145,4.907,7.822,5.974
1556,0.918,34.287,51.593,46.901,28.141,4.987,7.863,6.015
1557,0.912,33.924,51.679,46.873,28.138,4.866,7.782,5.812
1558,0.905,34.074,51.602,46.843,28.131,4.824,7.7,5.81
1559,0.905,34.2,51.628,46.853,28.134,4.824,7.821,5.891
1560,0.908,34.307,51.621,46.872,28.138,4.905,7.781,5.973
1561,0.912,33.857,51.585,46.872,28.138,4.906,7.781,5.893
1562,0.912,34.016,51.632,46.872,28.138,4.825,7.781,5.851
1563,0.915,34.151,51.617,46.863,28.131,4.865,7.862,5.891
1564,0.905,34.201,51.679,46.853,28.138,4.865,7.782,5.811
1565,0.908,33.914,51.547,46.862,28.138,4.906,7.903,5.932
1566,0.918,34.102,51.69,46.882,28.145,4.987,8.026,6.055
1567,0.938,34.258,51.692,46.892,28.148,5.07,8.027,5.893
1568,0.938,34.25,51.676,46.863,28.138,4.867,7.987,5.851
1569,0.928,34.0,51.695,46.853,28.138,4.946,8.027,5.81
1570,0.938,34.17,51.59,46.853,28.134,4.907,8.068,5.932
1571,0.938,34.306,51.64,46.862,28.134,4.947,8.272,5.892
1572,0.945,34.078,51.554,46.872,28.138,4.988,8.355,5.973
1573,0.941,34.027,51.628,46.872,28.145,4.988,8.437,5.933
1574,0.951,34.161,51.644,46.853,28.138,4.907,8.397,5.811
1575,0.948,34.268,51.574,46.834,28.131,4.784,8.438,5.81
1576,0.932,33.981,51.628,46.834,28.134,4.905,8.601,5.891
1577,0.941,34.113,51.609,46.853,28.138,4.987,8.684,5.851
1578,0.945,34.258,51.687,46.853,28.138,4.907,8.847,5.851
1579,0.954,34.365,51.641,46.862,28.134,4.865,8.849,5.769
1580,0.941,34.184,51.613,46.843,28.134,4.784,8.93,5.85
1581,0.948,34.316,51.644,46.814,28.134,4.824,9.012,5.769
1582,0.948,34.471,51.613,46.824,28.134,4.865,9.135,5.809
1583,0.954,34.568,51.663,46.843,28.141,4.946,9.543,6.013
1584,0.971,34.186,51.637,46.872,28.152,5.069,9.791,5.974
1585,0.977,34.354,51.66,46.882,28.145,4.908,9.915,5.893
1586,0.964,34.49,51.574,46.853,28.138,4.906,10.039,5.892
1587,0.971,34.559,51.675,46.834,28.141,4.865,10.243,5.933
1588,0.974,34.454,51.711,46.834,28.138,4.946,10.367,5.892
1589,0.974,34.626,51.653,46.853,28.145,4.988,10.49,5.933
1590,0.987,34.752,51.668,46.853,28.148,5.029,10.573,5.892
1591,0.994,34.83,51.644,46.853,28.141,5.03,10.614,5.851
1592,0.997,34.534,51.668,46.834,28.131,4.867,10.574,5.81
1593,0.987,34.684,51.641,46.805,28.127,4.784,10.574,5.769
1594,0.984,34.791,51.648,46.833,28.138,4.864,10.655,5.768
1595,0.984,34.859,51.57,46.834,28.138,4.865,10.615,5.809
1596,1.01,35.042,51.585,46.824,28.138,4.824,10.574,5.769
1597,0.994,35.197,51.671,46.824,28.138,4.865,10.492,5.768
1598,0.997,35.314,51.617,46.814,28.131,4.824,10.41,5.728
1599,1.007,35.152,51.628,46.833,28.134,4.865,10.328,5.768
1600,0.997,34.968,51.636,46.834,28.138,4.865,10.368,5.809
1601,1.007,35.139,51.66,46.853,28.152,5.028,10.287,5.891
1602,1.017,35.294,51.672,46.853,28.148,4.989,10.205,5.77
1603,1.004,35.248,51.625,46.815,28.148,4.866,10.123,5.728
1604,0.997,35.343,51.691,46.843,28.138,4.906,10.0,5.768
1605,1.01,35.488,51.551,46.834,28.141,4.987,9.917,5.768
1606,1.014,35.605,51.659,46.824,28.148,4.948,9.835,5.809
1607,1.03,35.481,51.715,46.843,28.145,4.866,9.834,5.81
1608,1.017,35.643,51.692,46.834,28.148,4.946,9.753,5.769
1609,1.017,35.759,51.723,46.814,28.134,4.866,9.671,5.687
1610,1.017,35.828,51.606,46.814,28.127,4.743,9.589,5.687
1611,1.02,35.761,51.691,46.776,28.134,4.823,9.71,5.768
1612,1.033,35.914,51.711,46.795,28.138,4.783,9.792,5.768
1613,1.027,36.059,51.649,46.824,28.141,4.824,9.996,5.687
1614,1.033,36.138,51.722,46.805,28.145,4.824,10.039,5.687
1615,1.03,35.803,51.512,46.795,28.134,4.824,10.162,5.646
1616,1.037,35.953,51.678,46.785,28.134,4.865,10.326,5.605
1617,1.027,36.079,51.723,46.795,28.141,4.784,10.408,5.726
1618,1.03,36.147,51.672,46.824,28.141,4.905,10.613,5.89
1619,1.05,36.349,51.738,46.853,28.152,5.028,10.737,5.77
1620,1.05,36.534,51.594,46.824,28.141,4.907,10.616,5.687
1621,1.046,36.593,51.659,46.805,28.138,4.865,10.737,5.687
1622,1.037,36.642,51.695,46.814,28.145,4.906,10.616,5.646
1623,1.05,36.345,51.621,46.814,28.141,4.906,10.737,5.686
1624,1.04,36.476,51.722,46.814,28.145,4.825,10.616,5.727
1625,1.05,36.612,51.532,46.833,28.145,4.905,10.615,5.768
1626,1.05,36.92,51.682,46.805,28.148,4.906,10.533,5.728
1627,1.053,36.674,51.633,46.804,28.138,4.825,10.41,5.524
1628,1.053,36.805,51.707,46.776,28.127,4.743,10.287,5.603
1629,1.04,36.903,51.684,46.775,28.138,4.823,10.367,5.686
1630,1.053,36.808,51.688,46.795,28.141,4.865,10.287,5.646
1631,1.053,36.845,51.738,46.814,28.138,4.906,10.205,5.645
1632,1.06,36.999,51.653,46.795,28.134,4.825,10.204,5.645
1633,1.066,37.096,51.75,46.785,28.131,4.743,10.123,5.645
1634,1.063,37.203,51.641,46.785,28.131,4.742,9.959,5.564
1635,1.06,37.338,51.586,46.804,28.138,4.905,10.12,5.645
1636,1.056,37.493,51.616,46.814,28.152,4.947,10.122,5.767
1637,1.056,37.619,51.753,46.833,28.159,4.866,10.0,5.728
1638,1.063,36.959,51.735,46.786,28.145,4.824,9.958,5.646
1639,1.05,37.077,51.672,46.785,28.141,4.865,9.957,5.645
1640,1.043,37.222,51.707,46.795,28.141,4.946,9.917,5.605
1641,1.05,37.3,51.676,46.785,28.134,4.907,9.876,5.645
1642,1.056,37.291,51.707,46.804,28.148,4.825,9.794,5.686
1643,1.056,37.435,51.618,46.814,28.145,4.905,9.712,5.687
1644,1.05,37.561,51.714,46.805,28.141,4.906,9.711,5.646
1645,1.05,37.629,51.543,46.776,28.131,4.784,9.427,5.564
1646,1.046,37.323,51.651,46.766,28.127,4.783,9.505,5.604
1647,1.05,37.464,51.711,46.795,28.138,4.864,9.506,5.645
1648,1.05,37.6,51.719,46.766,28.138,4.865,9.425,5.605
1649,1.043,37.639,51.743,46.766,28.141,4.824,9.302,5.645
1650,1.04,37.41,51.614,46.785,28.138,4.865,9.301,5.605
1651,1.037,37.57,51.726,46.776,28.138,4.824,9.219,5.564
1652,1.037,37.687,51.7,46.775,28.141,4.824,9.178,5.604
1653,1.043,37.707,51.676,46.785,28.141,4.824,9.177,5.686
1654,1.046,37.64,51.75,46.785,28.155,4.987,9.218,5.768
1655,1.04,37.803,51.626,46.804,28.148,4.907,9.096,5.687
1656,1.043,37.91,51.706,46.776,28.138,4.865,9.054,5.605
1657,1.017,37.767,51.649,46.766,28.141,4.906,8.973,5.645
1658,1.023,37.766,51.769,46.766,28.141,4.906,8.891,5.686
1659,1.004,37.89,51.763,46.766,28.145,4.865,8.89,5.687
1660,1.004,38.026,51.696,46.785,28.138,4.865,8.849,5.727
1661,0.997,37.701,51.774,46.766,28.148,4.946,8.849,5.646
1662,0.997,37.813,51.685,46.766,28.148,4.825,8.767,5.605
1663,0.991,37.929,51.691,46.756,28.134,4.743,8.604,5.482
1664,0.978,37.988,51.633,46.766,28.131,4.823,8.724,5.644
1665,0.984,37.768,51.632,46.766,28.148,4.905,8.644,5.645
1666,0.974,37.919,51.714,46.775,28.138,4.825,8.765,5.645
1667,0.977,38.055,51.672,46.756,28.138,4.824,8.604,5.523
1668,0.964,38.133,51.746,46.756,28.134,4.824,8.602,5.522
1669,0.961,38.613,51.712,46.727,28.138,4.743,8.643,5.603
1670,0.955,38.743,51.692,46.765,28.131,4.783,8.603,5.604
1671,0.958,38.869,51.746,46.747,28.141,4.824,8.765,5.686
1672,0.961,38.966,51.708,46.804,28.152,4.987,8.848,5.849
1673,0.968,37.384,51.762,46.785,28.148,4.907,8.767,5.729
1674,0.961,37.493,51.704,46.756,28.141,4.865,8.726,5.646
1675,0.942,37.6,51.66,46.756,28.138,4.824,8.726,5.645
1676,0.941,37.678,51.629,46.756,28.138,4.865,8.726,5.686
1677,0.922,37.928,51.742,46.746,28.138,4.906,8.726,5.727
1678,0.928,38.065,51.797,46.756,28.141,4.947,8.766,5.687
1679,0.915,38.171,51.743,46.766,28.145,4.988,8.726,5.727
1680,0.918,38.211,51.766,46.756,28.134,4.866,8.685,5.605
1681,0.899,37.837,51.704,46.737,28.138,4.824,8.522,5.482
1682,0.889,37.977,51.723,46.727,28.127,4.783,8.683,5.481
1683,0.895,38.094,51.676,46.737,28.138,4.864,8.725,5.684
1684,0.895,37.989,51.762,46.756,28.138,4.784,8.644,5.646
1685,0.886,37.797,51.716,46.737,28.141,4.824,8.725,5.645
1686,0.889,37.938,51.7,46.737,28.138,4.824,8.766,5.605
1687,0.892,38.045,51.746,46.727,28.134,4.824,8.807,5.564
1688,0.876,37.778,51.661,46.737,28.138,4.824,8.808,5.563
1689,0.879,37.852,51.711,46.737,28.138,4.905,8.848,5.726
1690,0.892,38.016,51.657,46.756,28.155,4.987,9.133,5.768
1691,0.882,38.123,51.742,46.775,28.145,4.948,9.014,5.687
1692,0.872,37.808,51.747,46.756,28.134,4.907,9.013,5.646
1693,0.859,37.929,51.665,46.756,28.138,4.906,9.013,5.564
1694,0.856,38.045,51.746,46.737,28.138,4.865,9.054,5.604
1695,0.859,38.133,51.618,46.746,28.141,4.946,9.013,5.645
1696,0.862,37.654,51.722,46.756,28.145,4.907,9.094,5.605
1697,0.853,37.793,51.782,46.756,28.148,4.947,9.095,5.686
1698,0.859,37.929,51.739,46.737,28.145,4.947,9.054,5.605
1699,0.856,37.988,51.762,46.727,28.141,4.825,8.973,5.482
1700,0.827,37.72,51.649,46.698,28.131,4.824,8.85,5.522
1701,0.82,37.871,51.75,46.727,28.138,4.865,8.889,5.522
1702,0.82,38.054,51.762,46.765,28.148,4.865,8.93,5.603
1703,0.823,38.075,51.723,46.737,28.131,4.784,8.89,5.564
1704,0.81,37.692,51.789,46.718,28.134,4.864,8.89,5.563
1705,0.81,37.832,51.681,46.698,28.138,4.865,8.768,5.563
1706,0.803,37.958,51.746,46.717,28.134,4.824,8.848,5.604
1707,0.813,38.007,51.762,46.746,28.134,4.946,8.93,5.645
1708,0.813,37.73,51.774,46.766,28.152,5.029,9.012,5.686
1709,0.813,37.871,51.774,46.727,28.138,4.867,8.81,5.605
1710,0.8,37.949,51.7,46.727,28.141,4.946,8.767,5.645
1711,0.807,38.199,51.727,46.727,28.141,4.866,8.807,5.686
1712,0.803,37.655,51.715,46.737,28.141,4.946,8.808,5.605
1713,0.81,37.803,51.739,46.727,28.138,4.947,8.767,5.564
1714,0.816,37.919,51.739,46.717,28.141,4.907,8.767,5.563
1715,0.803,37.547,51.688,46.737,28.145,4.947,8.726,5.563
1716,0.813,37.543,51.641,46.718,28.138,4.907,8.685,5.482
1717,0.807,37.648,51.75,46.689,28.127,4.784,8.766,5.481
1718,0.8,37.784,51.798,46.717,28.134,4.905,8.848,5.562
1719,0.8,37.449,51.72,46.708,28.131,4.947,8.849,5.523
1720,0.787,37.571,51.707,46.717,28.134,4.866,8.889,5.482
1721,0.79,37.697,51.719,46.698,28.131,4.865,8.93,5.562
1722,0.787,37.803,51.746,46.775,28.131,4.784,8.972,5.482
1723,0.784,37.411,51.766,46.718,28.134,4.824,8.972,5.522
1724,0.777,37.551,51.755,46.698,28.145,4.905,9.053,5.563
1725,0.787,37.696,51.751,46.736,28.145,4.987,9.176,5.766
1726,0.797,37.813,51.669,46.737,28.155,5.029,9.259,5.687
1727,0.8,37.335,51.762,46.756,28.141,4.907,9.137,5.564
1728,0.79,37.445,51.829,46.718,28.141,4.906,9.136,5.563
1729,0.787,37.59,51.775,46.708,28.145,4.906,9.136,5.604
1730,0.8,37.649,51.782,46.717,28.138,4.906,9.177,5.604
1731,0.79,37.362,51.728,46.708,28.145,4.906,9.299,5.564
1732,0.793,37.531,51.758,46.717,28.145,4.947,9.382,5.563
1733,0.797,37.667,51.704,46.717,28.148,4.988,9.423,5.604
1734,0.8,37.698,51.793,46.698,28.141,4.948,9.302,5.523
1735,0.79,37.218,51.638,46.679,28.134,4.785,9.26,5.4
1736,0.787,37.348,51.703,46.659,28.131,4.905,9.341,5.602
1737,0.784,37.503,51.82,46.707,28.138,4.906,9.382,5.604
1738,0.793,37.514,51.748,46.679,28.134,4.865,9.342,5.523
1739,0.777,37.293,51.797,46.679,28.141,4.906,9.301,5.603
1740,0.787,37.435,51.693,46.679,28.131,4.865,9.301,5.482
1741,0.793,37.542,51.781,46.679,28.131,4.865,9.219,5.562
1742,0.777,37.37,51.778,46.679,28.134,4.865,9.178,5.563
1743,0.787,37.321,51.72,46.679,28.138,4.946,9.299,5.685
1744,0.78,37.493,51.848,46.688,28.152,5.069,9.341,5.727
1745,0.793,37.629,51.654,46.727,28.145,4.989,9.138,5.646
1746,0.79,37.083,51.761,46.679,28.134,4.907,9.014,5.645
1747,0.784,37.145,51.708,46.669,28.141,4.906,9.013,5.645
1748,0.793,37.28,51.817,46.688,28.145,4.947,8.972,5.605
1749,0.793,37.377,51.779,46.679,28.141,4.907,9.013,5.604
1750,0.793,37.09,51.763,46.688,28.145,5.028,8.891,5.604
1751,0.793,37.251,51.856,46.679,28.141,5.03,8.849,5.604
1752,0.797,37.386,51.744,46.688,28.141,4.948,8.808,5.523
1753,0.79,37.465,51.801,46.65,28.138,4.825,8.604,5.482
1754,0.787,37.005,51.736,46.621,28.127,4.824,8.643,5.562
1755,0.784,37.163,51.727,46.668,28.138,4.905,8.644,5.482
1756,0.79,37.338,51.766,46.64,28.141,4.947,8.562,5.562
1757,0.784,37.407,51.724,46.669,28.134,4.866,8.48,5.563
1758,0.787,37.148,51.786,46.65,28.141,4.906,8.438,5.523
1759,0.78,37.28,51.728,46.64,28.138,4.906,8.397,5.522
1760,0.777,37.396,51.739,46.65,28.131,4.906,8.356,5.522
1761,0.784,37.465,51.778,46.65,28.145,4.906,8.478,5.644
1762,0.79,37.024,51.774,46.669,28.155,5.109,8.52,5.767
1763,0.8,37.202,51.798,46.669,28.152,5.03,8.398,5.687
1764,0.79,37.328,51.771,46.659,28.141,4.989,8.356,5.564
1765,0.784,37.32,51.731,46.659,28.138,4.907,8.315,5.645
1766,0.793,37.013,51.711,46.64,28.138,4.947,8.315,5.645
1767,0.803,37.144,51.778,46.64,28.138,4.988,8.356,5.605
1768,0.794,37.29,51.856,46.669,28.145,4.988,8.437,5.604
1769,0.8,37.186,51.803,46.64,28.138,4.948,8.357,5.645
1770,0.803,37.041,51.786,46.669,28.138,4.907,8.275,5.564
1771,0.797,37.173,51.759,46.65,28.138,4.906,8.193,5.482
1772,0.797,37.271,51.786,46.611,28.124,4.784,8.232,5.562
1773,0.797,36.831,51.743,46.611,28.138,4.946,8.314,5.604
1774,0.803,36.893,51.805,46.62,28.141,4.947,8.356,5.523
1775,0.8,37.038,51.775,46.63,28.134,4.907,8.356,5.563
1776,0.794,37.145,51.728,46.621,28.138,4.906,8.356,5.523
1777,0.79,36.82,51.821,46.621,28.138,4.865,8.315,5.482
1778,0.803,36.922,51.755,46.611,28.138,4.865,8.234,5.481
1779,0.797,37.057,51.813,46.62,28.134,4.987,8.355,5.522
1780,0.79,37.183,51.786,46.63,28.148,5.029,8.478,5.685
1781,0.797,36.791,51.767,46.649,28.152,5.03,8.479,5.646
1782,0.8,36.97,51.716,46.678,28.141,4.948,8.438,5.523
1783,0.79,37.067,51.684,46.631,28.138,4.988,8.316,5.563
1784,0.79,37.154,51.805,46.63,28.141,4.948,8.437,5.523
1785,0.797,36.647,51.74,46.63,28.145,4.947,8.316,5.603
1786,0.797,36.863,51.704,46.659,28.145,4.988,8.356,5.604
1787,0.813,36.961,51.77,46.64,28.141,5.029,8.315,5.645
1788,0.803,37.029,51.731,46.64,28.145,5.03,8.356,5.483
1789,0.803,36.675,51.86,46.611,28.141,4.948,8.275,5.481
1790,0.807,36.805,51.803,46.601,28.131,4.866,8.152,5.44
1791,0.794,36.903,51.782,46.592,28.131,4.906,8.273,5.562
1792,0.81,36.99,51.81,46.63,28.141,4.987,8.314,5.523
1793,0.807,36.799,51.755,46.63,28.131,4.988,8.315,5.441
1794,0.807,36.931,51.844,46.601,28.141,4.948,8.315,5.44
1795,0.803,37.048,51.771,46.601,28.134,4.947,8.356,5.44
1796,0.807,37.231,51.774,46.611,28.134,4.907,8.356,5.44
1797,0.797,36.523,51.817,46.582,28.131,4.947,8.397,5.481
1798,0.8,36.67,51.81,46.601,28.138,4.988,8.519,5.603
1799,0.797,36.796,51.818,46.62,28.148,5.192,8.723,5.645
1800,0.807,36.576,51.759,46.64,28.152,5.112,8.726,5.645
1801,0.807,36.574,51.817,46.611,28.138,5.071,8.685,5.564
1802,0.79,36.718,51.802,46.63,28.134,5.07,8.684,5.563
1803,0.793,36.844,51.751,46.63,28.138,5.111,8.766,5.645
1804,0.797,36.51,51.837,46.592,28.145,4.989,8.807,5.605
1805,0.8,36.612,51.709,46.62,28.145,5.07,8.848,5.604
1806,0.8,36.766,51.793,46.63,28.141,4.989,8.889,5.604
1807,0.81,36.864,51.767,46.611,28.138,4.988,8.809,5.482
1808,0.797,36.318,51.786,46.601,28.134,4.907,8.726,5.4
1809,0.794,36.428,51.833,46.572,28.127,4.947,8.848,5.562
1810,0.803,36.592,51.755,46.611,28.141,4.947,8.849,5.523
1811,0.8,36.689,51.844,46.592,28.141,4.988,8.808,5.522
1812,0.8,36.326,51.685,46.592,28.134,4.948,8.848,5.522
1813,0.803,36.476,51.809,46.601,28.138,4.947,8.808,5.441
1814,0.8,36.592,51.767,46.572,28.131,4.947,8.767,5.399
1815,0.797,36.651,51.774,46.591,28.141,4.947,8.848,5.521
1816,0.797,36.297,51.829,46.62,28.141,5.069,8.93,5.644
1817,0.8,36.476,51.822,46.64,28.148,5.111,8.972,5.645
1818,0.807,36.621,51.892,46.621,28.141,5.03,8.809,5.564
1819,0.794,36.623,51.799,46.601,28.138,4.948,8.808,5.523
1820,0.784,36.143,51.872,46.592,28.141,4.988,8.808,5.522
1821,0.79,36.292,51.779,46.582,28.141,4.988,8.889,5.603
1822,0.793,36.428,51.81,46.697,28.145,5.029,9.012,5.482
1823,0.784,36.458,51.833,46.612,28.145,4.989,9.094,5.562
1824,0.78,36.266,51.787,46.611,28.145,5.11,9.176,5.523
1825,0.784,36.418,51.782,46.611,28.138,4.949,9.177,5.482
1826,0.78,36.534,51.743,46.592,28.127,4.866,9.259,5.4
1827,0.777,36.219,51.794,46.592,28.138,4.906,9.463,5.48
1828,0.78,36.139,51.864,46.592,28.134,4.947,9.587,5.562
1829,0.774,36.292,51.846,46.582,28.138,4.947,9.588,5.523
1830,0.784,36.408,51.822,46.591,28.138,4.907,9.629,5.482
1831,0.787,36.055,51.779,46.582,28.131,4.947,9.71,5.481
1832,0.784,36.147,51.798,46.572,28.131,4.907,9.63,5.522
1833,0.777,36.273,51.732,46.563,28.134,4.947,9.67,5.482
1834,0.793,36.399,51.836,46.562,28.141,5.029,9.792,5.644
1835,0.797,36.036,51.783,46.61,28.148,5.192,9.793,5.605
1836,0.794,36.185,51.767,46.611,28.145,5.072,9.631,5.564
1837,0.787,36.283,51.821,46.592,28.145,5.07,9.629,5.523
1838,0.777,36.389,51.798,46.582,28.138,4.989,9.548,5.563
1839,0.78,35.978,51.86,46.591,28.141,5.029,9.506,5.604
1840,0.774,36.146,51.845,46.592,28.134,5.03,9.425,5.523
1841,0.777,36.292,51.845,46.582,28.145,5.07,9.424,5.603
1842,0.78,36.37,51.861,46.582,28.145,5.152,9.342,5.564
1843,0.777,35.949,51.787,46.591,28.141,5.031,9.219,5.523
1844,0.777,36.079,51.872,46.563,28.131,4.907,9.096,5.441
1845,0.761,36.195,51.795,46.543,28.127,5.028,9.136,5.521
1846,0.761,36.283,51.778,46.562,28.134,5.111,9.095,5.603
1847,0.767,36.034,51.821,46.562,28.138,4.989,9.095,5.564
1848,0.77,36.185,51.775,46.562,28.134,4.988,9.095,5.523
1849,0.774,36.321,51.833,46.553,28.134,4.988,9.095,5.522
1850,0.774,36.342,51.806,46.562,28.134,4.988,9.054,5.522
1851,0.777,36.016,51.798,46.562,28.131,4.988,9.095,5.522
1852,0.777,36.185,51.829,46.582,28.141,5.07,9.136,5.603
1853,0.774,36.34,51.767,46.582,28.145,5.111,9.339,5.767
1854,0.79,36.236,51.887,46.582,28.152,5.152,9.301,5.565
1855,0.797,36.063,51.733,46.582,28.141,4.99,9.341,5.523
1856,0.774,36.195,51.844,46.563,28.141,5.07,9.423,5.522
1857,0.758,36.321,51.806,46.562,28.145,5.111,9.586,5.563
1858,0.77,36.083,51.849,46.572,28.138,5.03,9.629,5.563
1859,0.774,36.167,51.884,46.591,28.145,5.07,9.792,5.645
1860,0.761,36.33,51.768,46.592,28.141,5.07,9.915,5.605
1861,0.764,36.438,51.872,46.582,28.141,5.03,9.957,5.604
1862,0.757,36.151,51.744,46.668,28.138,5.03,9.917,5.401
1863,0.757,36.263,51.833,46.535,28.131,4.907,9.957,5.48
1864,0.748,36.399,51.865,46.553,28.138,5.028,10.12,5.562
1865,0.751,36.496,51.795,46.562,28.138,4.989,10.122,5.523
1866,0.761,35.941,51.837,46.62,28.131,5.029,10.163,5.563
1867,0.767,36.098,51.818,46.563,28.134,4.948,10.082,5.482
1868,0.761,36.224,51.884,46.543,28.131,5.029,10.081,5.481
1869,0.761,36.293,51.822,46.553,28.131,4.989,10.04,5.44
1870,0.764,36.169,51.861,46.543,28.134,4.948,10.121,5.562
1871,0.774,36.321,51.736,46.562,28.145,5.11,10.244,5.685
1872,0.777,36.495,51.825,46.591,28.148,5.234,10.082,5.564
1873,0.777,36.554,51.829,46.572,28.141,5.113,9.959,5.523
1874,0.771,36.171,51.841,46.543,28.138,5.071,9.917,5.563
1875,0.767,36.34,51.802,46.562,28.145,5.07,9.916,5.563
1876,0.761,36.457,51.755,46.572,28.141,5.111,9.794,5.523
1877,0.761,36.525,51.817,46.563,28.141,5.152,9.753,5.563
1878,0.767,36.056,51.744,46.582,28.145,5.031,9.793,5.563
1879,0.77,36.214,51.872,46.582,28.141,5.07,9.712,5.482
1880,0.761,36.35,51.869,46.544,28.131,5.03,9.63,5.481
1881,0.757,36.562,51.834,46.534,28.131,4.948,9.751,5.44
1882,0.748,36.21,51.853,46.562,28.141,5.11,9.874,5.44
1883,0.747,36.398,51.775,46.543,28.141,5.112,9.957,5.521
1884,0.747,36.505,51.88,46.553,28.131,4.989,9.998,5.441
1885,0.747,36.219,51.873,46.562,28.134,5.029,9.999,5.481
1886,0.747,36.245,51.721,46.562,28.134,5.03,10.039,5.481
1887,0.751,36.389,51.864,46.534,28.134,4.989,10.121,5.4
1888,0.751,36.486,51.795,46.543,28.134,4.948,10.284,5.562
1889,0.764,36.219,51.876,46.562,28.141,5.15,10.327,5.604
1890,0.767,36.35,51.795,46.582,28.145,5.193,10.449,5.645
1891,0.777,36.514,51.864,46.563,28.145,5.031,10.369,5.523
1892,0.754,36.574,51.826,46.543,28.145,5.07,10.287,5.563
1893,0.764,36.191,51.798,46.543,28.141,5.07,10.245,5.563
1894,0.764,36.34,51.899,46.534,28.141,4.989,10.245,5.482
1895,0.767,36.486,51.787,46.543,28.138,5.07,10.204,5.562
1896,0.757,36.564,51.79,46.562,28.152,5.03,10.245,5.604
1897,0.761,36.277,51.872,46.543,28.145,5.07,10.123,5.523
1898,0.761,36.427,51.814,46.543,28.138,5.03,9.959,5.441
1899,0.748,36.544,51.9,46.524,28.127,4.907,9.917,5.481
1900,0.738,36.593,51.737,46.524,28.134,4.987,9.916,5.562
1901,0.754,36.373,51.844,46.524,28.138,4.988,9.876,5.482
1902,0.757,36.496,51.802,46.524,28.134,4.907,9.794,5.481
1903,0.748,36.65,51.794,46.543,28.134,5.028,9.631,5.481
1904,0.741,36.69,51.864,46.534,28.138,4.989,9.629,5.481
1905,0.744,36.211,51.818,46.524,28.134,4.988,9.507,5.522
1906,0.751,36.35,51.818,46.543,28.141,5.07,9.587,5.644
1907,0.767,36.505,51.806,46.572,28.155,5.152,9.629,5.727
1908,0.774,36.545,51.919,46.582,28.145,5.031,9.385,5.524
1909,0.758,36.516,51.924,46.553,28.134,5.07,9.301,5.482
1910,0.754,36.67,51.866,46.553,28.138,5.07,9.301,5.562
1911,0.764,36.777,51.904,46.543,28.134,5.03,9.178,5.563
1912,0.757,36.49,51.78,46.562,28.141,5.03,9.177,5.604
1913,0.767,36.42,51.829,46.562,28.145,5.07,9.218,5.482
1914,0.77,36.563,51.806,46.553,28.148,4.989,9.137,5.562
1915,0.761,36.66,51.829,46.534,28.138,4.988,9.095,5.401
1916,0.754,36.335,51.779,46.524,28.127,4.907,9.176,5.48
1917,0.735,36.447,51.81,46.533,28.141,4.947,9.218,5.562
1918,0.757,36.602,51.864,46.543,28.138,4.988,9.178,5.523
1919,0.751,36.69,51.869,46.543,28.145,4.988,9.177,5.482
1920,0.744,36.47,51.881,46.524,28.131,4.988,9.218,5.522
1921,0.747,36.592,51.853,46.524,28.131,4.988,9.259,5.482
1922,0.747,36.757,51.724,46.533,28.134,4.866,9.259,5.522
1923,0.754,36.816,51.848,46.524,28.138,4.946,9.341,5.685
1924,0.751,36.394,51.802,46.553,28.148,5.029,9.423,5.687
1925,0.754,36.563,51.872,46.572,28.145,4.989,9.302,5.605
1926,0.754,36.68,51.771,46.534,28.134,4.948,9.26,5.604
1927,0.764,36.748,51.825,46.543,28.145,4.988,9.259,5.604
1928,0.754,36.49,51.865,46.534,28.138,4.948,9.178,5.564
1929,0.761,36.64,51.892,46.533,28.138,5.029,9.218,5.563
1930,0.761,36.767,51.897,46.562,28.145,4.989,9.218,5.685
1931,0.774,36.816,51.861,46.543,28.141,4.948,9.218,5.646
1932,0.764,36.481,51.912,46.553,28.138,4.988,9.178,5.605
1933,0.764,36.621,51.807,46.524,28.134,4.907,9.015,5.482
1934,0.761,36.728,51.88,46.495,28.131,4.825,9.013,5.481
1935,0.754,36.748,51.857,46.523,28.138,4.946,9.094,5.522
1936,0.767,36.509,51.814,46.514,28.134,5.029,9.054,5.603
1937,0.751,36.669,51.868,46.514,28.141,4.948,8.973,5.604
1938,0.757,36.796,51.783,46.514,28.134,4.947,8.931,5.523
1939,0.757,36.615,51.864,46.524,28.138,4.907,8.89,5.522
1940,0.751,36.44,51.846,46.514,28.134,4.906,8.93,5.522
1941,0.748,36.573,51.841,46.505,28.134,4.906,8.85,5.603
1942,0.747,36.699,51.783,46.552,28.141,5.028,8.971,5.726
1943,0.76,36.518,51.798,46.572,28.152,5.151,8.931,5.646
1944,0.764,36.612,51.888,46.553,28.145,5.071,8.768,5.645
1945,0.751,36.718,51.772,46.543,28.141,4.989,8.726,5.605
1946,0.741,36.825,51.786,46.572,28.141,5.11,8.726,5.564
1947,0.754,36.481,51.856,46.534,28.138,5.03,8.603,5.645
1948,0.754,36.612,51.853,46.543,28.145,5.111,8.521,5.645
1949,0.761,36.766,51.912,46.534,28.138,5.112,8.683,5.605
1950,0.77,36.854,51.823,46.524,28.141,5.152,8.684,5.604
1951,0.761,36.472,51.868,46.495,28.131,5.031,8.603,5.482
1952,0.754,36.592,51.76,46.514,28.127,4.989,8.602,5.562
1953,0.754,36.757,51.833,46.505,28.138,5.07,8.846,5.441
1954,0.761,36.816,51.919,46.524,28.138,5.07,8.93,5.481
1955,0.767,36.366,51.827,46.505,28.131,5.111,9.093,5.481
1956,0.754,36.534,51.787,46.533,28.138,5.112,9.217,5.481
1957,0.748,36.67,51.829,46.505,28.134,5.112,9.259,5.522
1958,0.751,36.7,51.872,46.504,28.131,5.071,9.503,5.482
1959,0.754,36.412,51.947,46.504,28.134,5.152,9.546,5.684
1960,0.751,36.592,51.854,46.543,28.152,5.234,9.791,5.687
1961,0.761,36.747,51.939,46.543,28.152,5.235,9.793,5.605
1962,0.748,36.758,51.764,46.514,28.141,5.153,9.753,5.482
1963,0.747,36.461,51.817,46.524,28.131,5.234,9.833,5.603
1964,0.741,36.583,51.81,46.524,28.138,5.194,9.875,5.604
1965,0.751,36.709,51.833,46.533,28.141,5.234,9.876,5.604
1966,0.748,37.026,51.818,46.543,28.141,5.235,9.835,5.564
1967,0.757,36.771,51.833,46.524,28.145,5.194,9.834,5.604
1968,0.754,36.921,51.908,46.524,28.145,5.112,9.834,5.523
1969,0.754,37.028,51.85,46.505,28.131,5.112,9.712,5.441
1970,0.754,36.339,51.849,46.485,28.124,5.112,9.63,5.481
1971,0.751,36.294,51.849,46.514,28.134,5.152,9.67,5.481
1972,0.754,36.476,51.799,46.533,28.138,5.112,9.629,5.562
1973,0.767,36.583,51.821,46.495,28.141,5.152,9.548,5.482
1974,0.761,36.277,51.888,46.495,28.138,5.071,9.506,5.481
1975,0.767,36.389,51.857,46.495,28.138,5.07,9.384,5.4
1976,0.754,36.505,51.752,46.523,28.131,5.152,9.423,5.48
1977,0.748,36.669,51.887,46.524,28.134,5.234,9.505,5.603
1978,0.754,36.278,51.865,46.524,28.145,5.316,9.546,5.686
1979,0.767,36.447,51.92,46.553,28.148,5.276,9.669,5.564
1980,0.751,36.563,51.897,46.514,28.138,5.235,9.589,5.441
1981,0.748,36.632,51.873,46.524,28.141,5.235,9.71,5.562
1982,0.747,36.23,51.873,46.524,28.141,5.316,9.833,5.523
1983,0.754,36.398,51.818,46.524,28.138,5.236,9.875,5.563
1984,0.744,36.534,51.939,46.514,28.138,5.316,9.876,5.523
1985,0.754,36.593,51.799,46.514,28.145,5.317,9.916,5.563
1986,0.754,36.181,51.829,46.533,28.141,5.195,9.916,5.563
1987,0.754,36.321,51.888,46.505,28.134,5.153,9.754,5.36
1988,0.754,36.437,51.795,46.485,28.131,5.112,9.833,5.48
1989,0.757,36.496,51.892,46.495,28.138,5.152,9.834,5.44
1990,0.748,36.19,51.799,46.514,28.131,5.153,9.712,5.481
1991,0.747,36.34,51.899,46.524,28.141,5.193,9.792,5.44
1992,0.757,36.457,51.705,46.505,28.131,5.112,9.712,5.521
1993,0.751,36.477,51.82,46.504,28.127,5.152,9.63,5.482
1994,0.754,36.113,51.923,46.476,28.138,5.153,9.588,5.562
1995,0.757,36.263,51.819,46.523,28.138,5.234,9.669,5.645
1996,0.754,36.427,51.849,46.524,28.148,5.316,9.589,5.686
1997,0.757,36.266,51.849,46.543,28.134,5.236,9.547,5.564
1998,0.748,36.207,51.939,46.505,28.141,5.235,9.425,5.563
1999,0.744,36.36,51.913,46.495,28.134,5.194,9.342,5.645
2000,0.751,36.486,51.881,46.523,28.145,5.234,9.301,5.564
2001,0.751,36.065,51.939,46.524,28.145,5.235,9.26,5.604
2002,0.744,36.166,51.811,46.524,28.141,5.316,9.219,5.645
2003,0.754,36.321,51.904,46.533,28.141,5.276,9.137,5.645
2004,0.738,36.409,51.85,46.495,28.134,5.113,8.974,5.564
2005,0.725,35.873,51.88,46.476,28.127,5.112,9.053,5.604
2006,0.728,36.04,51.732,46.533,28.134,5.274,9.054,5.604
2007,0.744,36.195,51.864,46.524,28.138,5.195,9.013,5.604
2008,0.747,36.264,51.904,46.505,28.134,5.194,9.054,5.564
2009,0.751,35.996,51.924,46.485,28.138,5.234,9.054,5.604
2010,0.741,36.147,51.901,46.504,28.131,5.153,9.176,5.564
2011,0.751,36.273,51.819,46.485,28.138,5.153,9.421,5.563
2012,0.744,36.36,51.826,46.514,28.141,5.275,9.586,5.685
2013,0.764,35.891,51.872,46.552,28.148,5.316,9.791,5.646
2014,0.774,36.04,51.877,46.514,28.141,5.236,9.834,5.564
2015,0.764,36.157,51.885,46.505,28.138,5.153,9.997,5.645
2016,0.757,36.225,51.733,46.514,28.138,5.234,10.121,5.686
2017,0.754,35.871,51.825,46.514,28.138,5.235,10.244,5.646
2018,0.754,36.04,51.826,46.524,28.141,5.275,10.367,5.645
2019,0.761,36.185,51.861,46.514,28.145,5.235,10.409,5.686
2020,0.754,36.206,51.904,46.524,28.145,5.235,10.328,5.524
2021,0.751,35.899,51.889,46.495,28.131,5.113,10.327,5.482
2022,0.735,36.011,51.877,46.476,28.127,5.112,10.368,5.522
2023,0.738,36.166,51.889,46.514,28.141,5.234,10.409,5.644
2024,0.734,35.976,51.896,46.524,28.134,5.235,10.369,5.564
2025,0.754,35.763,51.951,46.495,28.138,5.235,10.328,5.523
2026,0.744,35.914,51.819,46.504,28.134,5.153,10.246,5.563
2027,0.751,36.011,51.868,46.495,28.131,5.193,10.204,5.523
2028,0.748,35.734,51.807,46.476,28.134,5.072,10.163,5.563
2029,0.747,35.827,51.884,46.504,28.138,5.193,10.285,5.645
2030,0.76,35.991,51.807,46.543,28.152,5.275,10.327,5.767
2031,0.767,36.108,51.907,46.524,28.145,5.235,10.205,5.687
2032,0.757,35.735,51.854,46.495,28.134,5.235,10.163,5.646
2033,0.754,35.866,51.861,46.504,28.138,5.275,10.082,5.564
2034,0.751,36.011,51.924,46.495,28.141,5.235,9.999,5.645
2035,0.764,36.089,51.842,46.514,28.138,5.235,9.999,5.605
2036,0.761,35.668,51.771,46.514,28.141,5.194,9.877,5.564
2037,0.774,35.836,51.809,46.514,28.145,5.234,9.876,5.645
2038,0.774,35.963,51.88,46.524,28.141,5.275,9.753,5.523
2039,0.787,36.05,51.932,46.505,28.134,5.032,9.59,5.482
2040,0.767,35.658,51.854,46.476,28.124,5.07,9.629,5.522
2041,0.777,35.807,51.881,46.495,28.138,5.152,9.548,5.563
2042,0.793,35.953,51.775,46.514,28.134,5.193,9.506,5.563
2043,0.79,36.021,51.872,46.505,28.138,5.072,9.465,5.523
2044,0.8,35.677,51.834,46.476,28.138,5.111,9.465,5.522
2045,0.8,35.827,51.892,46.495,28.138,5.112,9.343,5.522
2046,0.807,35.963,51.857,46.504,28.131,5.112,9.26,5.522
2047,0.81,36.002,51.884,46.504,28.131,5.193,9.259,5.563
2048,0.816,35.543,51.92,46.514,28.145,5.275,9.381,5.645
2049,0.826,35.701,51.928,46.543,28.148,5.235,9.301,5.645
2050,0.836,35.818,51.909,46.524,28.138,5.153,9.178,5.564
2051,0.833,36.03,51.897,46.505,28.141,5.234,9.137,5.563
2052,0.839,35.629,51.889,46.504,28.145,5.153,9.095,5.604
2053,0.865,35.788,51.924,46.524,28.141,5.153,9.054,5.523
2054,0.862,35.895,51.87,46.495,28.134,5.153,8.932,5.563
2055,0.862,35.541,51.888,46.514,28.134,5.193,8.931,5.604
2056,0.869,35.557,51.694,46.524,28.145,5.234,8.85,5.523
2057,0.859,35.711,51.855,46.485,28.134,5.113,8.686,5.4
2058,0.862,35.818,51.892,46.475,28.124,5.03,8.644,5.521
2059,0.853,35.426,51.861,46.485,28.141,5.111,8.684,5.482
2060,0.862,35.565,51.916,46.504,28.134,5.152,8.644,5.481
2061,0.869,35.72,51.858,46.476,28.145,5.071,8.603,5.522
2062,0.872,35.799,51.838,46.495,28.134,5.07,8.44,5.441
2063,0.869,35.397,51.826,46.495,28.134,5.07,8.438,5.481
2064,0.879,35.517,51.951,46.485,28.131,5.111,8.397,5.481
2065,0.898,35.653,51.835,46.504,28.141,5.112,8.438,5.603
2066,0.908,35.769,51.802,46.504,28.141,5.234,8.479,5.645
2067,0.925,35.531,51.896,46.543,28.148,5.194,8.438,5.645
2068,0.931,35.672,51.842,46.505,28.138,5.072,8.316,5.605
2069,0.925,35.798,51.943,46.485,28.138,5.07,8.356,5.523
2070,0.944,35.866,51.858,46.495,28.141,5.111,8.315,5.563
2071,0.958,35.397,51.943,46.504,28.141,5.112,8.396,5.523
2072,0.961,35.556,51.799,46.524,28.141,5.112,8.397,5.563
2073,0.968,35.701,51.876,46.505,28.141,5.112,8.438,5.563
2074,0.958,35.75,51.951,46.504,28.148,5.071,8.397,5.523
2075,0.964,35.358,51.858,46.485,28.134,5.111,8.316,5.4
2076,0.955,35.507,51.818,46.475,28.131,4.989,8.274,5.358
2077,0.938,35.633,51.81,46.475,28.134,5.07,8.355,5.48
2078,0.935,35.663,51.935,46.495,28.138,5.111,8.356,5.481
2079,0.938,35.453,51.85,46.504,28.138,5.071,8.315,5.481
2080,0.941,35.633,51.877,46.485,28.141,5.07,8.315,5.481
2081,0.928,35.759,51.912,46.495,28.138,5.03,8.274,5.44
2082,0.925,35.444,51.823,46.466,28.134,5.03,8.233,5.44
2083,0.922,35.393,51.865,46.494,28.131,5.07,8.314,5.44
2084,0.918,35.565,51.822,46.495,28.152,5.111,8.477,5.603
2085,0.905,35.692,51.915,46.533,28.155,5.234,8.479,5.564
2086,0.915,35.319,51.854,46.524,28.152,5.113,8.438,5.482
2087,0.922,35.373,51.736,46.514,28.135,5.112,8.438,5.44
2088,0.918,35.546,51.907,46.485,28.138,5.112,8.438,5.481
2089,0.899,35.615,51.854,46.504,28.134,5.152,8.479,5.522
2090,0.912,35.193,51.951,46.495,28.138,5.071,8.52,5.482
2091,0.902,35.343,51.893,46.504,28.145,5.07,8.601,5.522
2092,0.905,35.488,51.904,46.524,28.141,5.111,8.602,5.563
2093,0.902,35.595,51.873,46.524,28.141,5.071,8.602,5.482
2094,0.905,35.28,51.912,46.466,28.131,4.989,8.48,5.359
2095,0.889,35.411,51.932,46.447,28.131,5.07,8.438,5.521
2096,0.885,35.575,51.792,46.494,28.141,5.07,8.479,5.522
2097,0.859,35.673,51.899,46.61,28.138,5.07,8.52,5.482
2098,0.856,35.136,51.85,46.505,28.134,5.07,8.439,5.522
2099,0.849,35.284,51.935,46.485,28.134,5.03,8.397,5.4
2100,0.836,35.43,51.87,46.485,28.138,5.03,8.397,5.48
2101,0.823,35.489,51.853,46.485,28.131,4.989,8.438,5.44
2102,0.807,35.288,51.904,46.475,28.141,5.029,8.479,5.521
2103,0.803,35.478,51.858,46.533,28.155,5.233,8.642,5.644
2104,0.807,35.624,51.947,46.524,28.141,5.072,8.44,5.523
2105,0.794,35.625,51.846,46.495,28.138,5.07,8.397,5.522
2106,0.787,35.213,51.83,46.485,28.141,5.111,8.356,5.482
2107,0.784,35.372,51.787,46.523,28.145,5.112,8.437,5.481
2108,0.774,35.517,51.872,46.505,28.138,5.071,8.479,5.522
2109,0.78,35.355,51.904,46.524,28.134,5.07,8.438,5.522
2110,0.771,35.152,51.862,46.495,28.141,5.07,8.397,5.522
2111,0.78,35.304,51.931,46.504,28.141,5.03,8.316,5.4
2112,0.758,35.392,51.85,46.476,28.124,4.989,8.356,5.44
2113,0.757,35.162,51.892,46.475,28.138,5.07,8.356,5.399
2114,0.764,35.266,51.947,46.485,28.134,4.989,8.356,5.44
2115,0.761,35.42,51.897,46.495,28.138,4.988,8.397,5.44
2116,0.754,35.527,51.865,46.485,28.141,5.029,8.316,5.359
2117,0.751,34.972,51.857,46.504,28.127,4.948,8.315,5.399
2118,0.741,35.072,51.873,46.476,28.131,4.947,8.274,5.399
2119,0.734,35.236,51.947,46.466,28.141,5.029,8.355,5.48
2120,0.731,35.343,51.897,46.523,28.148,5.192,8.437,5.644
2121,0.741,35.229,51.928,46.514,28.148,5.153,8.316,5.483
2122,0.725,35.372,51.831,46.495,28.138,5.031,8.274,5.481
2123,0.715,35.488,51.892,46.504,28.141,5.07,8.193,5.481
2124,0.708,35.576,51.834,46.495,28.134,5.07,8.151,5.481
2125,0.724,35.011,51.935,46.504,28.148,5.07,8.191,5.522
2126,0.715,35.168,51.909,46.504,28.145,5.07,8.11,5.441
2127,0.711,35.323,51.838,46.524,28.138,5.03,8.109,5.521
2128,0.708,35.392,51.892,46.495,28.138,4.948,8.028,5.482
2129,0.702,35.22,51.857,46.456,28.131,4.988,7.946,5.318
2130,0.698,35.372,51.888,46.466,28.134,4.988,8.026,5.52
2131,0.701,35.527,51.861,46.485,28.134,4.988,8.109,5.522
2132,0.705,35.586,51.845,46.495,28.134,4.948,8.069,5.482
2133,0.705,34.992,51.873,46.485,28.134,4.947,8.109,5.481
2134,0.708,35.139,51.912,46.475,28.138,4.947,8.232,5.44
2135,0.702,35.265,51.94,46.475,28.131,4.907,8.233,5.359
2136,0.682,35.506,51.811,46.475,28.131,4.906,8.477,5.521
2137,0.692,35.135,51.919,46.6,28.141,5.028,8.52,5.603
2138,0.698,35.313,51.869,46.525,28.148,5.111,8.683,5.645
2139,0.711,35.44,51.939,46.533,28.141,5.112,8.562,5.523
2140,0.705,35.172,51.858,46.486,28.141,4.989,8.683,5.563
2141,0.695,35.218,51.912,46.485,28.134,5.029,8.766,5.482
2142,0.688,35.352,51.92,46.475,28.141,5.03,8.807,5.562
2143,0.695,35.488,51.893,46.514,28.141,5.07,8.848,5.563
2144,0.692,34.905,51.951,46.495,28.148,5.03,9.011,5.604
2145,0.698,35.023,51.901,46.504,28.145,5.07,9.013,5.564
2146,0.701,35.168,51.873,46.495,28.138,4.989,9.135,5.482
2147,0.701,35.304,51.896,46.495,28.127,4.866,9.136,5.318
2148,0.685,34.941,51.858,46.476,28.127,4.946,9.177,5.48
2149,0.688,35.129,51.853,46.485,28.141,5.029,9.34,5.522
2150,0.701,35.265,51.877,46.475,28.134,4.989,9.342,5.482
2151,0.695,35.353,51.834,46.504,28.134,5.029,9.342,5.481
2152,0.695,34.961,51.841,46.495,28.138,4.948,9.342,5.481
2153,0.698,35.129,51.88,46.456,28.138,4.947,9.342,5.481
