time,ecg,bvp,gsr,rsp,skt,emg_zygo,emg_coru,emg_trap
0,0.787,37.832,20.4,33.728,31.924,7.986,7.0,7.945
1,0.79,37.977,20.415,33.775,31.945,8.149,7.204,8.067
2,0.806,38.065,20.434,33.766,31.935,8.028,7.084,7.946
3,0.794,37.634,20.435,33.728,31.931,8.027,7.164,7.905
4,0.793,37.783,20.419,33.747,31.935,8.027,7.165,7.823
5,0.8,37.89,20.473,33.728,31.938,8.109,7.124,7.863
6,0.81,37.939,20.423,33.737,31.935,8.069,7.124,7.7
7,0.807,37.662,20.403,33.708,31.917,7.824,7.002,7.577
8,0.794,37.784,20.477,33.708,31.938,7.944,7.204,7.616
9,0.8,37.91,20.505,33.727,31.935,7.945,7.206,7.617
10,0.784,37.94,20.392,33.718,31.938,7.864,7.206,7.617
11,0.774,37.7,20.434,33.708,31.924,7.822,7.125,7.576
12,0.774,37.822,20.419,33.727,31.931,7.741,7.287,7.616
13,0.78,37.968,20.458,33.756,31.945,7.862,7.369,7.576
14,0.777,37.605,20.427,33.728,31.931,7.7,7.289,7.494
15,0.771,37.572,20.47,33.728,31.935,7.658,7.288,7.453
16,0.767,37.697,20.439,33.756,31.938,7.658,7.288,7.534
17,0.777,37.794,20.415,33.747,31.935,7.698,7.329,7.494
18,0.784,37.545,20.442,33.737,31.935,7.618,7.248,7.453
19,0.771,37.629,20.485,33.699,31.931,7.535,7.247,7.656
20,0.796,37.755,20.404,33.727,31.935,7.534,7.288,7.739
21,0.79,37.842,20.434,33.718,31.924,7.534,7.288,7.984
22,0.797,37.507,20.45,33.708,31.924,7.494,7.247,8.149
23,0.79,37.638,20.423,33.718,31.924,7.453,7.166,8.313
24,0.797,37.774,20.423,33.747,31.938,7.493,7.328,8.721
25,0.81,37.862,20.481,33.756,31.945,7.534,7.329,8.929
26,0.813,37.431,20.419,33.728,31.935,7.412,7.207,9.093
27,0.807,37.57,20.403,33.737,31.935,7.452,7.247,9.339
28,0.81,37.687,20.462,33.718,31.942,7.452,7.247,9.586
29,0.8,37.726,20.458,33.747,31.935,7.412,7.288,9.791
30,0.79,37.516,20.365,33.718,31.938,7.289,7.125,9.915
31,0.787,37.6,20.403,33.699,31.921,7.288,7.083,10.161
32,0.777,37.754,20.426,33.718,31.931,7.247,7.042,10.244
33,0.787,37.756,20.427,33.718,31.935,7.288,7.082,10.367
34,0.774,37.516,20.466,33.708,31.928,7.247,7.042,10.368
35,0.787,37.619,20.431,33.708,31.935,7.206,7.042,10.368
36,0.784,37.735,20.47,33.718,31.945,7.369,7.204,10.531
37,0.793,37.737,20.47,33.747,31.945,7.33,7.165,10.492
38,0.784,37.554,20.474,33.718,31.942,7.248,7.206,10.41
39,0.793,37.658,20.478,33.727,31.938,7.166,7.125,10.328
40,0.803,37.755,20.474,33.728,31.945,7.246,7.205,10.327
41,0.797,37.401,20.478,33.728,31.935,7.288,7.165,10.327
42,0.807,37.493,20.458,33.699,31.924,7.085,7.084,10.124
43,0.803,37.609,20.458,33.698,31.931,7.164,7.123,10.203
44,0.803,37.716,20.513,33.708,31.928,7.206,7.165,10.082
45,0.813,37.391,20.474,33.689,31.931,7.206,7.206,9.999
46,0.807,37.512,20.49,33.689,31.931,7.084,7.043,9.917
47,0.807,37.638,20.439,33.698,31.931,7.123,7.123,9.998
48,0.816,37.745,20.466,33.737,31.945,7.327,7.287,10.039
49,0.813,37.401,20.509,33.718,31.935,7.167,7.125,9.836
50,0.803,37.513,20.431,33.699,31.931,7.124,7.165,9.794
51,0.81,37.638,20.411,33.708,31.935,7.124,7.165,9.712
52,0.803,37.697,20.415,33.708,31.935,7.165,7.124,9.752
53,0.797,37.42,20.454,33.718,31.942,7.206,7.165,9.63
54,0.787,37.522,20.431,33.699,31.924,7.125,7.002,9.466
55,0.787,37.639,20.435,33.698,31.934,7.246,7.082,9.465
56,0.79,37.688,20.497,33.698,31.931,7.288,7.123,9.383
57,0.79,37.333,20.388,33.708,31.928,7.288,7.002,9.342
58,0.787,37.464,20.407,33.699,31.928,7.288,7.041,9.26
59,0.793,37.58,20.485,33.708,31.935,7.369,7.204,9.3
60,0.816,37.927,20.486,33.747,31.942,7.452,7.165,9.219
61,0.81,37.297,20.412,33.689,31.935,7.412,7.124,9.056
62,0.803,37.444,20.419,33.698,31.931,7.371,7.124,9.054
63,0.807,37.542,20.431,33.698,31.935,7.492,7.165,9.013
64,0.807,37.303,20.415,33.698,31.945,7.412,7.124,8.932
65,0.813,37.368,20.423,33.708,31.938,7.33,7.043,8.728
66,0.82,37.484,20.473,33.67,31.924,7.248,6.96,8.726
67,0.817,37.561,20.419,33.698,31.931,7.328,7.041,8.685
68,0.82,37.198,20.403,33.689,31.928,7.329,7.082,8.603
69,0.803,37.319,20.442,33.689,31.935,7.289,7.042,8.521
70,0.784,37.435,20.45,33.67,31.931,7.288,6.96,8.479
71,0.79,37.523,20.443,33.689,31.935,7.369,7.0,8.601
72,0.8,37.236,20.427,33.718,31.945,7.411,7.082,8.44
73,0.794,37.338,20.442,33.689,31.931,7.371,6.961,8.397
74,0.787,37.464,20.423,33.689,31.945,7.37,6.96,8.356
75,0.79,37.552,20.434,33.698,31.931,7.33,6.96,8.315
76,0.793,37.553,20.493,33.708,31.935,7.492,6.96,8.315
77,0.793,37.687,20.412,33.708,31.935,7.412,6.919,8.152
78,0.787,37.774,20.411,33.66,31.924,7.411,6.837,8.191
79,0.793,37.823,20.446,33.688,31.931,7.411,6.877,8.11
80,0.793,36.884,20.47,33.679,31.931,7.533,6.959,8.15
81,0.797,37.018,20.427,33.66,31.928,7.412,6.878,7.988
82,0.803,37.125,20.427,33.679,31.931,7.452,6.837,7.946
83,0.8,37.155,20.427,33.689,31.935,7.534,6.958,8.026
84,0.816,37.27,20.427,33.708,31.948,7.697,7.082,7.987
85,0.807,37.377,20.411,33.689,31.928,7.577,6.92,7.946
86,0.813,37.474,20.485,33.679,31.938,7.535,7.0,7.864
87,0.81,37.293,20.396,33.67,31.931,7.616,7.001,7.822
88,0.816,37.147,20.446,33.689,31.935,7.617,7.001,7.863
89,0.807,37.29,20.474,33.689,31.931,7.454,6.96,7.7
90,0.794,37.339,20.505,33.66,31.924,7.452,6.919,7.78
91,0.793,37.004,20.451,33.679,31.928,7.534,6.878,7.7
92,0.787,37.106,20.427,33.679,31.938,7.534,6.877,7.699
93,0.78,37.212,20.442,33.67,31.931,7.453,6.877,7.699
94,0.774,37.309,20.372,33.669,31.924,7.412,6.877,7.658
95,0.787,36.908,20.45,33.698,31.938,7.533,7.121,7.78
96,0.8,37.076,20.497,33.708,31.942,7.534,7.002,7.7
97,0.784,37.155,20.396,33.689,31.938,7.412,7.001,7.577
98,0.78,37.251,20.454,33.679,31.931,7.452,6.919,7.738
99,0.79,36.984,20.458,33.67,31.928,7.574,7.0,7.537
100,0.797,37.125,20.509,33.679,31.935,7.494,7.001,7.575
101,0.807,37.222,20.49,33.679,31.924,7.412,6.919,7.454
102,0.79,37.252,20.408,33.689,31.931,7.493,6.959,7.493
103,0.797,36.984,20.458,33.679,31.931,7.412,6.878,7.412
104,0.794,37.115,20.431,33.67,31.931,7.371,6.959,7.411
105,0.793,37.232,20.435,33.65,31.921,7.289,6.878,7.33
106,0.8,37.271,20.47,33.669,31.931,7.329,6.877,7.37
107,0.807,36.917,20.415,33.708,31.942,7.532,7.0,7.573
108,0.81,37.076,20.47,33.679,31.931,7.331,6.919,7.454
109,0.797,37.164,20.474,33.689,31.931,7.329,6.959,7.493
110,0.784,37.501,20.513,33.67,31.942,7.451,6.919,7.656
111,0.787,37.073,20.521,33.669,31.935,7.452,7.0,7.78
112,0.777,37.212,20.49,33.698,31.931,7.371,7.001,7.903
113,0.774,37.29,20.447,33.641,31.917,7.289,6.879,8.107
114,0.774,37.147,20.442,33.679,31.927,7.41,7.0,8.557
115,0.774,37.232,20.419,33.67,31.928,7.371,6.96,8.846
116,0.767,37.348,20.442,33.669,31.931,7.33,7.0,9.133
117,0.77,37.445,20.411,33.65,31.931,7.329,6.96,9.421
118,0.764,36.784,20.43,33.669,31.935,7.37,7.163,9.83
119,0.787,36.95,20.427,33.708,31.935,7.452,7.124,9.916
120,0.787,37.019,20.477,33.67,31.931,7.29,7.083,10.079
121,0.793,37.097,20.517,33.66,31.935,7.329,7.083,10.203
122,0.787,36.886,20.412,33.669,31.938,7.329,7.164,10.326
123,0.793,37.057,20.458,33.679,31.938,7.37,7.165,10.368
124,0.787,37.174,20.431,33.65,31.924,7.126,6.921,10.328
125,0.771,37.204,20.399,33.669,31.931,7.287,7.081,10.408
126,0.787,36.945,20.473,33.641,31.938,7.125,7.083,10.369
127,0.78,37.067,20.353,33.65,31.935,7.165,7.002,10.449
128,0.78,37.183,20.41,33.631,31.921,7.084,7.041,10.41
129,0.78,37.223,20.423,33.65,31.928,7.205,7.082,10.572
130,0.774,36.926,20.473,33.688,31.945,7.328,7.286,10.614
131,0.79,37.067,20.388,33.679,31.928,7.289,7.125,10.574
132,0.774,37.164,20.364,33.66,31.931,7.247,7.083,10.614
133,0.767,37.165,20.426,33.669,31.935,7.288,7.042,10.696
134,0.774,36.945,20.38,33.679,31.938,7.247,7.042,10.697
135,0.771,37.077,20.399,33.66,31.935,7.247,7.001,10.656
136,0.764,37.164,20.477,33.641,31.921,7.125,6.919,10.574
137,0.761,37.012,20.396,33.66,31.928,7.246,7.041,10.736
138,0.764,36.962,20.442,33.641,31.931,7.206,6.96,10.657
139,0.77,37.086,20.442,33.64,31.935,7.247,6.96,10.574
140,0.774,37.174,20.478,33.631,31.924,7.166,6.919,10.574
141,0.777,36.83,20.415,33.65,31.934,7.328,7.122,10.574
142,0.793,36.979,20.399,33.708,31.942,7.37,7.124,10.574
143,0.78,37.086,20.426,33.651,31.935,7.248,7.083,10.411
144,0.784,37.164,20.407,33.65,31.928,7.288,6.961,10.369
145,0.78,36.829,20.403,33.669,31.928,7.288,7.082,10.287
146,0.79,36.96,20.508,33.65,31.941,7.288,7.083,10.245
147,0.793,37.077,20.381,33.66,31.931,7.288,7.042,10.082
148,0.777,37.145,20.442,33.612,31.928,7.207,6.96,10.04
149,0.787,36.925,20.493,33.64,31.935,7.287,7.122,10.04
150,0.771,37.067,20.455,33.64,31.935,7.288,7.002,9.958
151,0.767,37.164,20.411,33.631,31.924,7.329,7.041,9.795
152,0.754,37.232,20.376,33.64,31.924,7.451,7.001,9.753
153,0.757,36.984,20.43,33.64,31.934,7.534,7.163,9.833
154,0.764,37.173,20.446,33.698,31.945,7.738,7.084,9.712
155,0.757,37.232,20.462,33.641,31.938,7.659,7.123,9.63
156,0.757,37.262,20.501,33.64,31.935,7.739,7.124,9.548
157,0.754,36.802,20.447,33.688,31.935,7.943,7.083,9.466
158,0.748,36.941,20.442,33.66,31.935,7.864,7.083,9.424
159,0.764,37.038,20.497,33.65,31.928,7.904,7.002,9.261
160,0.767,37.221,20.459,33.593,31.924,7.823,7.001,9.178
161,0.754,37.079,20.407,33.63,31.938,7.944,7.041,9.096
162,0.757,37.203,20.434,33.65,31.935,7.945,6.96,9.014
163,0.761,37.3,20.466,33.641,31.931,7.986,7.0,8.932
164,0.761,36.85,20.427,33.631,31.931,8.027,6.96,8.89
165,0.767,36.922,20.477,33.669,31.938,8.231,7.082,8.971
166,0.79,37.057,20.509,33.66,31.938,8.151,6.961,8.769
167,0.774,37.145,20.443,33.641,31.931,8.069,7.0,8.726
168,0.777,36.944,20.474,33.65,31.931,8.069,6.96,8.726
169,0.774,37.096,20.49,33.631,31.942,8.109,7.0,8.644
170,0.767,37.212,20.47,33.64,31.938,8.109,7.001,8.644
171,0.767,37.29,20.322,33.65,31.924,8.028,6.96,8.521
172,0.731,36.898,20.418,33.612,31.924,7.987,7.082,8.52
173,0.754,37.066,20.462,33.621,31.934,8.068,6.961,8.52
174,0.751,37.202,20.462,33.631,31.928,7.987,7.0,8.439
175,0.741,37.261,20.462,33.621,31.931,7.946,6.96,8.357
176,0.741,36.917,20.489,33.631,31.935,7.945,7.163,8.437
177,0.757,37.076,20.451,33.669,31.945,8.108,7.206,8.479
178,0.751,37.203,20.458,33.641,31.931,7.947,7.125,8.316
179,0.754,37.242,20.478,33.64,31.935,7.945,7.124,8.315
180,0.767,37.041,20.431,33.631,31.931,7.945,7.165,8.315
181,0.764,37.183,20.458,33.631,31.938,7.945,7.206,8.234
182,0.764,37.29,20.454,33.631,31.935,7.905,7.084,8.111
183,0.774,37.291,20.458,33.612,31.928,7.823,7.002,7.987
184,0.764,37.042,20.45,33.631,31.928,7.822,7.041,8.149
185,0.774,37.193,20.458,33.621,31.931,7.863,7.082,7.988
186,0.771,37.28,20.466,33.602,31.928,7.741,7.042,7.946
187,0.777,37.089,20.431,33.602,31.924,7.699,7.082,7.864
188,0.767,37.078,20.446,33.621,31.934,7.821,7.205,8.026
189,0.774,37.26,20.478,33.659,31.945,7.903,7.165,7.946
190,0.751,37.3,20.443,33.621,31.938,7.782,7.084,7.864
191,0.744,36.955,20.45,33.621,31.931,7.944,7.083,7.985
192,0.754,37.057,20.384,33.631,31.945,7.823,7.123,8.027
193,0.748,37.193,20.454,33.64,31.935,7.822,7.083,8.068
194,0.747,37.28,20.439,33.602,31.931,7.822,6.961,8.028
195,0.741,36.994,20.45,33.592,31.931,7.781,7.041,8.312
196,0.741,37.144,20.4,33.63,31.931,7.781,7.001,8.356
197,0.747,37.27,20.407,33.631,31.924,7.822,6.96,8.519
198,0.734,37.348,20.403,33.612,31.924,7.741,7.0,8.52
199,0.747,37.042,20.458,33.611,31.931,7.781,7.001,8.886
200,0.777,37.212,20.443,33.64,31.945,7.903,7.082,9.093
201,0.771,37.338,20.442,33.621,31.931,7.742,6.961,9.095
202,0.767,37.387,20.442,33.611,31.928,7.74,7.0,9.298
203,0.767,37.023,20.403,33.611,31.938,7.781,7.082,9.423
204,0.774,37.173,20.45,33.688,31.938,7.659,7.002,9.505
205,0.761,37.28,20.423,33.622,31.928,7.576,6.879,9.343
206,0.757,37.262,20.419,33.583,31.924,7.494,6.918,9.545
207,0.767,36.955,20.438,33.63,31.931,7.575,6.919,9.547
208,0.761,37.096,20.411,33.592,31.931,7.494,6.959,9.506
209,0.761,37.193,20.45,33.592,31.924,7.453,6.878,9.546
210,0.751,37.242,20.474,33.573,31.924,7.412,6.918,9.588
211,0.748,37.108,20.373,33.621,31.938,7.574,7.122,9.669
212,0.764,37.27,20.403,33.631,31.931,7.413,7.002,9.548
213,0.741,37.329,20.434,33.631,31.938,7.411,7.001,9.588
214,0.747,37.004,20.47,33.631,31.928,7.411,7.001,9.547
215,0.747,37.096,20.478,33.621,31.938,7.411,7.041,9.506
216,0.754,37.212,20.49,33.592,31.935,7.371,7.082,9.465
217,0.748,37.3,20.443,33.592,31.924,7.167,6.92,9.343
218,0.757,36.908,20.458,33.611,31.931,7.328,7.081,9.382
219,0.78,37.057,20.458,33.611,31.931,7.248,7.002,9.342
220,0.777,37.145,20.458,33.611,31.924,7.288,7.001,9.26
221,0.784,37.232,20.419,33.573,31.924,7.288,7.001,9.3
222,0.787,37.003,20.473,33.611,31.938,7.329,7.163,9.504
223,0.813,37.211,20.49,33.631,31.945,7.37,7.084,9.384
224,0.8,37.281,20.33,33.612,31.935,7.33,7.083,9.382
225,0.833,37.339,20.433,33.602,31.942,7.248,7.083,9.382
226,0.846,36.956,20.497,33.602,31.931,7.247,7.123,9.342
227,0.84,37.105,20.42,33.621,31.938,7.288,7.246,9.342
228,0.846,37.222,20.45,33.602,31.935,7.207,7.125,9.138
229,0.827,37.233,20.474,33.573,31.928,7.165,7.205,9.177
230,0.846,36.993,20.525,33.592,31.938,7.246,7.247,9.177
231,0.843,37.144,20.4,33.592,31.931,7.206,7.125,9.096
232,0.846,37.213,20.419,33.573,31.928,7.084,7.124,8.973
233,0.843,37.261,20.407,33.573,31.924,7.123,7.165,9.013
234,0.866,37.089,20.45,33.592,31.938,7.287,7.328,9.176
235,0.872,37.222,20.478,33.602,31.931,7.166,7.207,9.015
236,0.866,37.271,20.509,33.611,31.931,7.165,7.247,8.932
237,0.862,37.061,20.478,33.592,31.935,7.206,7.247,8.85
238,0.856,37.087,20.451,33.611,31.945,7.125,7.288,8.889
239,0.866,37.203,20.497,33.592,31.942,7.083,7.247,8.727
240,0.876,37.29,20.474,33.573,31.928,7.002,7.125,8.563
241,0.866,36.888,20.443,33.563,31.931,7.082,7.205,8.602
242,0.879,37.047,20.431,33.592,31.928,7.042,7.125,8.602
243,0.879,37.145,20.407,33.592,31.931,7.001,7.165,8.521
244,0.879,37.242,20.364,33.582,31.924,6.96,7.124,8.439
245,0.885,36.821,20.434,33.582,31.938,6.96,7.246,8.56
246,0.908,36.999,20.493,33.611,31.945,7.122,7.328,8.399
247,0.899,37.096,20.412,33.583,31.924,7.002,7.126,8.316
248,0.895,37.174,20.399,33.582,31.938,7.082,7.205,8.315
249,0.879,36.973,20.489,33.582,31.938,7.042,7.206,8.274
250,0.872,37.115,20.509,33.592,31.938,7.123,7.206,8.274
251,0.866,37.213,20.408,33.592,31.942,7.083,7.084,8.111
252,0.853,37.252,20.372,33.535,31.921,6.961,7.083,8.109
253,0.859,36.917,20.411,33.591,31.928,7.082,7.083,8.069
254,0.846,37.057,20.352,33.592,31.924,7.083,7.002,8.069
255,0.866,37.174,20.426,33.573,31.928,7.002,7.001,7.987
256,0.853,37.165,20.458,33.563,31.931,7.001,7.041,8.027
257,0.846,36.925,20.423,33.601,31.938,7.123,7.123,8.149
258,0.872,37.115,20.45,33.611,31.945,7.205,7.124,8.15
259,0.879,37.184,20.454,33.583,31.938,7.125,7.002,7.988
260,0.895,37.117,20.489,33.573,31.931,7.165,7.041,7.986
261,0.892,36.992,20.369,33.563,31.938,7.084,7.082,7.946
262,0.902,37.115,20.403,33.582,31.938,7.042,7.042,7.986
263,0.899,37.222,20.423,33.592,31.931,7.001,6.92,7.824
264,0.902,36.677,20.423,33.544,31.924,6.96,6.919,7.863
265,0.905,36.786,20.458,33.582,31.928,7.082,6.919,7.863
266,0.912,36.902,20.447,33.554,31.931,7.083,6.959,7.782
267,0.902,36.99,20.423,33.563,31.928,7.083,6.878,7.7
268,0.895,36.799,20.423,33.553,31.931,7.083,6.918,7.699
269,0.879,36.941,20.419,33.572,31.942,7.286,7.041,7.861
270,0.885,37.096,20.45,33.592,31.938,7.369,6.92,7.741
271,0.892,37.126,20.443,33.573,31.938,7.33,6.919,7.659
272,0.879,36.8,20.411,33.563,31.938,7.37,6.919,7.617
273,0.892,36.96,20.434,33.563,31.931,7.533,6.959,7.657
274,0.882,37.086,20.407,33.573,31.945,7.616,6.96,7.617
275,0.869,37.155,20.434,33.563,31.931,7.454,6.797,7.454
276,0.85,36.743,20.474,33.525,31.921,7.534,6.836,7.615
277,0.866,36.912,20.412,33.563,31.931,7.575,6.837,7.617
278,0.859,37.019,20.434,33.573,31.924,7.575,6.877,7.617
279,0.856,37.058,20.415,33.544,31.924,7.616,6.796,7.698
280,0.843,36.8,20.485,33.544,31.924,7.698,6.877,7.861
281,0.846,36.97,20.447,33.582,31.948,7.78,7.0,8.107
282,0.859,37.067,20.439,33.563,31.931,7.659,6.879,8.109
283,0.849,37.423,20.474,33.553,31.931,7.658,6.918,8.354
284,0.83,36.88,20.443,33.572,31.931,7.658,6.837,8.6
285,0.843,37.038,20.485,33.563,31.928,7.739,6.958,8.887
286,0.846,37.116,20.498,33.544,31.935,7.618,6.838,8.93
287,0.833,36.8,20.435,33.524,31.928,7.495,6.837,9.175
288,0.83,36.835,20.466,33.534,31.935,7.616,6.837,9.34
289,0.817,36.96,20.505,33.534,31.928,7.454,6.837,9.545
290,0.8,37.048,20.467,33.534,31.931,7.452,6.796,9.588
291,0.79,36.704,20.435,33.515,31.924,7.452,6.836,9.751
292,0.78,36.834,20.489,33.553,31.934,7.615,6.958,9.996
293,0.8,36.999,20.517,33.572,31.942,7.495,6.838,9.958
294,0.781,37.058,20.424,33.573,31.935,7.453,6.796,9.957
295,0.761,36.694,20.462,33.534,31.938,7.371,6.877,9.998
296,0.767,36.825,20.501,33.544,31.938,7.452,6.877,10.121
297,0.767,36.96,20.404,33.572,31.931,7.412,6.918,10.0
298,0.764,37.029,20.423,33.553,31.931,7.33,6.756,9.958
299,0.754,36.819,20.442,33.525,31.921,7.289,6.836,9.957
300,0.761,36.97,20.481,33.543,31.931,7.41,6.837,9.998
301,0.754,37.086,20.435,33.544,31.931,7.33,6.837,9.836
302,0.754,37.126,20.431,33.524,31.928,7.289,6.714,9.834
303,0.748,36.724,20.462,33.534,31.931,7.329,6.876,9.916
304,0.757,36.892,20.411,33.582,31.945,7.41,7.0,9.876
305,0.774,37.019,20.446,33.544,31.935,7.249,6.96,9.794
306,0.758,37.029,20.478,33.534,31.928,7.206,6.838,9.793
307,0.751,36.55,20.306,33.572,31.931,7.287,6.837,9.834
308,0.751,36.708,20.433,33.553,31.928,7.288,6.918,9.712
309,0.741,36.815,20.489,33.553,31.938,7.207,6.878,9.711
310,0.728,36.73,20.423,33.525,31.921,7.125,6.674,9.548
311,0.721,36.7,20.431,33.524,31.924,7.205,6.835,9.71
312,0.711,36.825,20.411,33.524,31.928,7.125,6.796,9.548
313,0.708,36.922,20.43,33.534,31.931,7.124,6.795,9.466
314,0.695,36.635,20.364,33.534,31.924,7.002,6.714,9.424
315,0.695,36.728,20.422,33.534,31.931,7.123,6.835,9.505
316,0.705,36.892,20.52,33.582,31.938,7.165,6.877,9.425
317,0.685,36.99,20.381,33.554,31.935,7.043,6.755,9.342
318,0.695,36.655,20.434,33.544,31.924,7.001,6.836,9.26
319,0.698,36.786,20.474,33.544,31.934,7.041,6.837,9.259
320,0.692,36.902,20.49,33.544,31.935,7.042,6.837,9.137
321,0.692,36.971,20.4,33.524,31.924,6.92,6.633,8.974
322,0.682,36.521,20.395,33.496,31.924,6.959,6.712,8.972
323,0.692,36.689,20.403,33.524,31.931,7.041,6.754,8.891
324,0.701,36.796,20.395,33.534,31.928,7.082,6.795,8.849
325,0.695,36.874,20.411,33.524,31.924,7.042,6.755,8.808
326,0.688,36.548,20.442,33.515,31.928,7.164,6.795,8.767
327,0.688,36.718,20.372,33.553,31.948,7.368,6.958,8.767
328,0.701,36.873,20.473,33.515,31.935,7.208,6.838,8.645
329,0.692,36.865,20.521,33.534,31.928,7.206,6.837,8.603
330,0.682,36.654,20.482,33.524,31.931,7.206,6.837,8.562
331,0.685,36.776,20.447,33.543,31.931,7.328,6.837,8.521
332,0.675,36.893,20.435,33.524,31.935,7.289,6.837,8.439
333,0.669,37.153,20.419,33.496,31.924,7.125,6.714,8.275
334,0.649,36.551,20.38,33.524,31.934,7.287,6.794,8.233
335,0.675,36.708,20.438,33.505,31.928,7.207,6.714,8.273
336,0.675,36.777,20.462,33.524,31.935,7.287,6.754,8.193
337,0.672,36.5,20.38,33.534,31.928,7.207,6.714,8.192
338,0.662,36.554,20.457,33.515,31.928,7.328,6.754,8.273
339,0.682,36.708,20.528,33.534,31.945,7.492,6.876,8.274
340,0.692,36.767,20.498,33.505,31.931,7.29,6.755,8.152
341,0.679,36.538,20.494,33.524,31.942,7.288,6.876,8.11
342,0.688,36.679,20.427,33.534,31.931,7.451,6.877,8.109
343,0.688,36.805,20.462,33.534,31.935,7.452,6.837,8.109
344,0.692,36.883,20.45,33.524,31.935,7.452,6.796,7.906
345,0.682,36.52,20.4,33.496,31.917,7.412,6.755,7.945
346,0.692,36.67,20.469,33.505,31.934,7.493,6.836,7.864
347,0.692,36.796,20.404,33.524,31.928,7.534,6.837,7.904
348,0.695,36.845,20.454,33.515,31.931,7.534,6.755,7.742
349,0.682,36.481,20.462,33.495,31.921,7.453,6.754,7.74
350,0.682,36.612,20.501,33.514,31.934,7.574,6.917,7.862
351,0.685,36.757,20.494,33.524,31.938,7.657,6.878,7.782
352,0.666,36.806,20.423,33.515,31.931,7.617,6.877,7.7
353,0.665,36.548,20.477,33.505,31.931,7.576,6.877,7.74
354,0.672,36.679,20.341,33.534,31.935,7.616,6.877,7.74
355,0.682,36.815,20.461,33.496,31.938,7.657,6.877,7.699
356,0.692,36.816,20.509,33.495,31.931,7.536,6.755,7.577
357,0.688,36.433,20.349,33.505,31.917,7.412,6.795,7.575
358,0.711,36.602,20.457,33.505,31.927,7.533,6.795,7.657
359,0.76,36.709,20.47,33.505,31.924,7.494,6.795,7.536
360,0.8,36.643,20.509,33.505,31.928,7.412,6.795,7.494
361,0.839,36.661,20.412,33.495,31.917,7.371,6.795,7.616
362,0.875,36.786,20.395,33.524,31.941,7.614,6.917,7.901
363,0.934,36.922,20.465,33.543,31.938,7.495,6.796,7.823
364,0.958,36.376,20.404,33.505,31.935,7.453,6.795,7.985
365,1.003,36.457,20.407,33.514,31.935,7.412,6.917,8.068
366,1.043,36.583,20.466,33.486,31.938,7.411,6.878,8.15
367,1.072,36.689,20.408,33.505,31.938,7.33,6.877,8.313
368,1.073,36.412,20.434,33.486,31.928,7.289,6.755,8.315
369,1.069,36.505,20.458,33.476,31.924,7.125,6.754,8.64
370,1.108,36.65,20.497,33.495,31.938,7.205,6.795,8.806
371,1.154,36.728,20.404,33.505,31.931,7.206,6.795,8.889
372,1.204,36.374,20.43,33.476,31.928,7.125,6.714,8.93
373,1.25,36.476,20.474,33.476,31.924,7.124,6.794,9.134
374,1.305,36.65,20.439,33.581,31.941,7.287,6.877,9.38
375,1.361,36.738,20.466,33.534,31.942,7.247,6.837,9.423
376,1.388,36.451,20.497,33.486,31.935,7.125,6.755,9.464
377,1.43,36.602,20.431,33.543,31.931,7.205,6.795,9.546
378,1.47,36.728,20.466,33.505,31.931,7.125,6.836,9.588
379,1.5,36.758,20.47,33.495,31.931,7.205,6.796,9.629
380,1.545,36.528,20.431,33.486,31.924,7.043,6.673,9.466
381,1.595,36.65,20.403,33.457,31.928,6.96,6.713,9.627
382,1.611,36.757,20.415,33.485,31.924,6.96,6.754,9.548
383,1.628,36.797,20.454,33.486,31.924,6.878,6.836,9.588
384,1.641,36.404,20.419,33.543,31.917,6.837,6.755,9.547
385,1.602,36.534,20.431,33.467,31.924,6.918,6.795,9.547
386,1.559,36.631,20.516,33.476,31.934,6.959,6.917,9.588
387,1.546,36.412,20.459,33.533,31.948,7.0,6.959,9.588
388,1.504,36.458,20.47,33.476,31.935,6.879,6.919,9.507
389,1.458,36.583,20.513,33.495,31.935,6.877,6.959,9.546
390,1.405,36.67,20.506,33.486,31.938,6.918,7.0,9.547
391,1.343,36.364,20.47,33.486,31.935,6.919,7.001,9.506
392,1.228,36.495,20.474,33.505,31.931,6.837,6.96,9.384
393,1.104,36.602,20.47,33.447,31.921,6.755,6.878,9.464
394,0.979,36.709,20.412,33.476,31.928,6.876,7.04,9.546
395,0.818,36.182,20.489,33.457,31.928,6.796,7.042,9.547
396,0.706,36.321,20.537,33.476,31.931,6.714,7.042,9.71
397,0.607,36.447,20.459,33.466,31.928,6.754,7.001,9.955
398,0.541,36.515,20.447,33.466,31.938,6.917,7.163,10.364
399,0.482,36.976,20.482,33.505,31.945,6.959,7.246,10.775
400,0.423,37.077,20.474,33.476,31.931,6.797,7.166,11.104
401,0.341,37.193,20.443,33.485,31.938,6.836,7.165,11.595
402,0.308,37.204,20.462,33.495,31.931,6.877,7.124,11.966
403,0.268,36.091,20.478,33.486,31.935,6.877,7.205,12.458
404,0.229,36.195,20.334,33.514,31.924,6.796,7.003,12.585
405,0.176,36.292,20.418,33.467,31.928,6.795,7.082,12.952
406,0.147,36.322,20.427,33.476,31.931,6.714,7.042,13.2
407,0.104,36.409,20.458,33.466,31.924,6.794,7.001,13.365
408,0.084,36.544,20.462,33.447,31.931,6.755,7.082,13.447
409,0.077,36.641,20.493,33.456,31.928,6.754,7.002,13.733
410,0.074,36.402,20.517,33.485,31.948,6.998,7.163,13.898
411,0.084,36.39,20.486,33.476,31.931,6.96,7.043,13.859
412,0.064,36.496,20.478,33.476,31.931,6.96,7.123,13.859
413,0.077,36.593,20.462,33.466,31.931,7.041,7.165,13.859
414,0.084,36.248,20.396,33.466,31.938,7.042,7.165,13.859
415,0.103,36.379,20.454,33.485,31.938,7.123,7.124,13.94
416,0.11,36.496,20.509,33.447,31.928,7.124,7.043,13.86
417,0.104,36.573,20.377,33.456,31.935,7.287,7.082,14.062
418,0.117,36.267,20.426,33.466,31.935,7.247,7.042,14.064
419,0.139,36.399,20.434,33.466,31.928,7.288,7.042,14.146
420,0.146,36.496,20.497,33.428,31.924,7.247,7.001,14.228
421,0.162,36.593,20.463,33.456,31.938,7.369,7.082,14.391
422,0.195,36.335,20.447,33.485,31.945,7.452,7.123,14.556
423,0.209,36.486,20.439,33.466,31.931,7.29,7.002,14.476
424,0.215,36.564,20.38,33.476,31.931,7.41,7.082,14.516
425,0.248,36.632,20.418,33.476,31.935,7.493,7.042,14.516
426,0.277,36.297,20.438,33.447,31.938,7.534,7.042,14.516
427,0.313,36.418,20.349,33.456,31.935,7.453,6.96,14.353
428,0.327,36.525,20.402,33.428,31.924,7.371,6.919,14.311
429,0.366,36.555,20.501,33.447,31.928,7.533,6.959,14.189
430,0.409,36.267,20.548,33.428,31.931,7.575,6.96,14.106
431,0.432,36.389,20.502,33.456,31.931,7.413,6.96,13.943
432,0.481,36.505,20.474,33.437,31.928,7.452,6.878,13.738
433,0.524,36.506,20.478,33.447,31.935,7.493,7.04,13.736
434,0.573,36.286,20.451,33.476,31.945,7.656,7.082,13.533
435,0.583,36.418,20.415,33.457,31.935,7.576,6.961,13.327
436,0.609,36.544,20.481,33.437,31.928,7.616,7.041,13.203
437,0.632,36.325,20.431,33.466,31.938,7.576,7.082,12.958
438,0.658,36.437,20.442,33.457,31.935,7.575,7.083,12.793
439,0.685,36.582,20.423,33.447,31.935,7.535,7.042,12.425
440,0.698,36.622,20.509,33.399,31.924,7.453,7.001,12.3
441,0.718,36.22,20.428,33.446,31.931,7.615,7.041,12.095
442,0.724,36.36,20.474,33.437,31.935,7.535,7.082,11.93
443,0.731,36.495,20.486,33.437,31.924,7.534,7.042,11.726
444,0.721,36.573,20.369,33.437,31.931,7.494,7.001,11.601
445,0.728,36.229,20.418,33.437,31.935,7.656,7.163,11.6
446,0.754,36.408,20.497,33.466,31.945,7.658,7.165,11.397
447,0.738,36.505,20.459,33.447,31.931,7.576,7.165,11.192
448,0.738,36.564,20.443,33.447,31.931,7.535,7.043,11.068
449,0.725,36.68,20.513,33.428,31.928,7.534,7.082,10.985
450,0.724,36.815,20.529,33.466,31.938,7.534,7.123,10.903
451,0.731,36.931,20.451,33.437,31.938,7.534,7.043,10.739
452,0.728,36.933,20.485,33.399,31.921,7.453,7.001,10.779
453,0.734,36.07,20.482,33.418,31.928,7.534,7.041,10.698
454,0.731,36.205,20.447,33.408,31.931,7.494,7.001,10.859
455,0.734,36.321,20.45,33.418,31.924,7.412,6.96,10.983
456,0.731,36.332,20.47,33.418,31.924,7.33,6.96,11.228
457,0.734,36.351,20.451,33.437,31.938,7.573,7.122,11.597
458,0.751,36.534,20.435,33.456,31.942,7.535,7.083,11.682
459,0.748,36.574,20.442,33.428,31.931,7.494,7.042,11.845
460,0.744,36.306,20.497,33.427,31.931,7.371,7.042,11.969
461,0.764,36.322,20.447,33.437,31.938,7.411,7.123,12.051
462,0.767,36.457,20.454,33.437,31.942,7.493,7.083,12.215
463,0.767,36.525,20.419,33.428,31.924,7.412,6.88,12.094
464,0.754,36.2,20.403,33.408,31.921,7.33,6.959,12.215
465,0.787,36.379,20.477,33.437,31.934,7.41,7.041,12.094
466,0.777,36.476,20.505,33.408,31.924,7.452,6.96,12.093
467,0.777,36.564,20.385,33.418,31.928,7.33,6.96,11.971
468,0.771,36.095,20.45,33.418,31.924,7.37,6.919,11.889
469,0.77,36.243,20.521,33.437,31.945,7.533,7.163,12.01
470,0.787,36.398,20.517,33.447,31.938,7.412,7.043,11.767
471,0.764,36.438,20.463,33.437,31.924,7.411,7.001,11.724
472,0.754,36.391,20.486,33.437,31.928,7.371,7.001,11.601
473,0.777,36.563,20.435,33.447,31.935,7.452,7.001,11.56
474,0.758,36.67,20.474,33.437,31.938,7.371,7.041,11.478
475,0.764,36.719,20.474,33.408,31.924,7.248,6.839,11.355
476,0.751,36.25,20.47,33.418,31.928,7.328,6.918,11.395
477,0.774,36.398,20.447,33.427,31.931,7.289,6.919,11.395
478,0.771,36.515,20.45,33.418,31.931,7.288,6.837,11.395
479,0.78,36.545,20.446,33.418,31.928,7.288,6.877,11.273
480,0.8,36.277,20.458,33.418,31.931,7.207,6.796,11.312
481,0.81,36.437,20.466,33.427,31.942,7.328,6.999,11.272
482,0.82,36.563,20.431,33.427,31.928,7.248,6.879,11.069
483,0.803,36.43,20.411,33.418,31.928,7.288,6.918,11.026
484,0.797,36.285,20.45,33.418,31.931,7.329,6.796,10.985
485,0.8,36.418,20.466,33.447,31.938,7.329,6.877,10.944
486,0.803,36.515,20.501,33.428,31.938,7.289,6.796,10.821
487,0.787,36.113,20.486,33.437,31.924,7.166,6.633,10.617
488,0.8,36.186,20.474,33.418,31.931,7.287,6.794,10.574
489,0.803,36.331,20.517,33.399,31.935,7.166,6.755,10.614
490,0.79,36.418,20.513,33.418,31.928,7.206,6.714,10.411
491,0.79,36.17,20.463,33.399,31.931,7.206,6.672,10.369
492,0.787,36.321,20.478,33.389,31.931,7.287,6.713,10.368
493,0.81,36.485,20.478,33.437,31.948,7.288,6.876,10.409
494,0.787,36.554,20.455,33.399,31.938,7.207,6.674,10.165
495,0.8,36.104,20.474,33.398,31.935,7.287,6.672,10.163
496,0.794,36.243,20.529,33.418,31.938,7.247,6.713,10.041
497,0.806,36.37,20.475,33.418,31.938,7.206,6.672,9.958
498,0.803,36.448,20.443,33.408,31.935,7.165,6.631,9.835
499,0.81,36.276,20.439,33.379,31.921,7.002,6.55,9.672
500,0.813,36.418,20.485,33.379,31.931,7.163,6.63,9.67
501,0.82,36.573,20.49,33.389,31.935,7.084,6.631,9.548
502,0.826,36.574,20.451,33.408,31.924,7.083,6.55,9.506
503,0.833,36.124,20.45,33.379,31.921,7.042,6.59,9.465
504,0.826,36.272,20.454,33.417,31.934,7.204,6.712,9.505
505,0.843,36.418,20.486,33.427,31.931,7.206,6.632,9.425
506,0.83,36.717,20.498,33.38,31.931,7.206,6.59,9.22
507,0.839,36.24,20.435,33.389,31.931,7.165,6.712,9.178
508,0.849,36.369,20.462,33.398,31.931,7.368,6.713,9.137
509,0.836,36.467,20.489,33.389,31.938,7.37,6.754,9.136
510,0.836,36.238,20.564,33.37,31.924,7.37,6.673,8.933
511,0.833,36.274,20.518,33.369,31.924,7.533,6.835,8.931
512,0.826,36.427,20.494,33.379,31.931,7.657,6.877,8.85
513,0.82,36.515,20.509,33.369,31.928,7.617,7.04,8.767
514,0.826,36.094,20.447,33.36,31.928,7.739,7.001,8.645
515,0.826,36.243,20.411,33.379,31.931,7.821,7.123,8.725
516,0.833,36.379,20.493,33.408,31.948,7.944,7.327,8.807
517,0.839,36.457,20.466,33.379,31.935,7.945,7.248,8.604
518,0.833,36.113,20.4,33.379,31.935,8.026,7.328,8.521
519,0.843,36.263,20.426,33.369,31.931,7.946,7.289,8.479
520,0.859,36.389,20.52,33.389,31.935,7.986,7.41,8.479
521,0.859,36.438,20.502,33.37,31.931,7.986,7.452,8.276
522,0.859,36.026,20.451,33.36,31.928,7.864,7.29,8.193
523,0.856,36.166,20.45,33.36,31.931,7.985,7.369,8.151
524,0.862,36.302,20.45,33.36,31.931,7.986,7.33,8.15
525,0.875,36.351,20.411,33.35,31.928,7.946,7.37,8.069
526,0.866,36.198,20.485,33.331,31.924,7.945,7.289,7.987
527,0.862,36.35,20.392,33.359,31.931,8.067,7.329,8.027
528,0.885,36.514,20.422,33.408,31.948,8.15,7.492,8.068
529,0.866,36.516,20.489,33.351,31.935,8.028,7.412,7.865
530,0.866,36.142,20.537,33.35,31.935,8.027,7.33,7.863
531,0.859,36.273,20.506,33.369,31.935,8.068,7.41,7.904
532,0.866,36.399,20.506,33.36,31.928,8.109,7.33,7.823
533,0.872,36.237,20.478,33.35,31.931,8.028,7.289,7.7
534,0.856,36.111,20.392,33.312,31.921,7.946,7.207,7.74
535,0.862,36.282,20.403,33.33,31.931,8.026,7.328,7.618
536,0.869,36.38,20.512,33.321,31.935,8.027,7.329,7.698
537,0.882,36.122,20.424,33.34,31.928,7.946,7.248,7.618
538,0.872,36.263,20.431,33.331,31.931,7.945,7.206,7.698
539,0.892,36.379,20.446,33.359,31.938,8.067,7.409,7.943
540,0.912,36.505,20.505,33.369,31.938,7.946,7.289,7.986
541,0.912,36.075,20.486,33.331,31.924,7.905,7.288,8.027
542,0.912,36.243,20.505,33.331,31.934,7.945,7.207,8.109
543,0.918,36.379,20.513,33.34,31.935,7.986,7.287,8.354
544,0.925,36.438,20.455,33.36,31.938,7.986,7.166,8.478
545,0.928,36.055,20.466,33.312,31.924,7.824,7.002,8.56
546,0.918,36.157,20.513,33.311,31.928,7.781,7.163,8.846
547,0.941,36.311,20.435,33.34,31.935,7.862,7.084,9.052
548,0.935,36.399,20.462,33.321,31.931,7.863,7.042,9.257
549,0.931,36.112,20.497,33.321,31.924,7.782,6.96,9.381
550,0.922,36.253,20.47,33.311,31.924,7.822,7.082,9.627
551,0.922,36.379,20.478,33.35,31.938,7.903,7.123,9.873
552,0.931,36.457,20.482,33.34,31.938,7.782,7.002,9.876
553,0.925,36.103,20.478,33.34,31.931,7.781,7.001,9.916
554,0.935,36.243,20.451,33.312,31.938,7.862,7.001,9.998
555,0.938,36.36,20.462,33.34,31.935,7.822,7.041,10.08
556,0.941,36.639,20.509,33.34,31.931,7.822,7.001,10.081
557,0.945,36.076,20.459,33.331,31.924,7.741,6.879,9.959
558,0.941,36.205,20.466,33.312,31.928,7.74,6.959,10.08
559,0.967,36.331,20.482,33.33,31.931,7.699,6.96,10.04
560,0.971,36.064,20.505,33.312,31.928,7.78,6.838,10.04
561,0.964,36.138,20.502,33.321,31.928,7.781,6.837,9.958
562,0.971,36.263,20.459,33.321,31.931,7.781,6.918,9.998
563,0.987,36.379,20.439,33.359,31.938,7.862,7.041,10.121
564,1.007,37.349,20.501,33.341,31.938,7.782,6.92,10.0
565,0.994,37.483,20.482,33.312,31.931,7.74,6.959,9.917
566,1.01,37.6,20.505,33.311,31.938,7.74,6.96,9.916
567,1.001,37.649,20.545,33.321,31.938,7.781,6.919,9.916
568,1.01,35.53,20.486,33.359,31.935,7.781,6.878,9.794
569,0.997,35.633,20.455,33.321,31.921,7.618,6.796,9.671
570,0.984,35.731,20.443,33.302,31.931,7.657,6.917,9.792
571,0.997,35.837,20.513,33.321,31.931,7.617,6.919,9.712
572,0.997,36.289,20.404,33.302,31.928,7.617,6.878,9.67
573,1.007,36.418,20.419,33.311,31.924,7.535,6.918,9.589
574,0.997,36.534,20.423,33.292,31.934,7.616,6.959,9.588
575,1.023,36.622,20.434,33.349,31.942,7.698,7.163,9.71
576,1.036,36.172,20.505,33.34,31.938,7.577,7.043,9.589
577,1.017,36.283,20.427,33.321,31.931,7.616,7.001,9.547
578,1.027,36.418,20.45,33.321,31.931,7.617,7.082,9.547
579,1.046,36.438,20.478,33.321,31.928,7.657,7.123,9.425
580,1.05,36.161,20.536,33.321,31.935,7.658,7.124,9.383
581,1.053,36.282,20.482,33.302,31.921,7.617,7.002,9.22
582,1.043,36.36,20.482,33.321,31.928,7.739,7.123,9.259
583,1.069,36.332,20.416,33.292,31.928,7.699,7.083,9.219
584,1.063,36.332,20.466,33.302,31.931,7.699,7.042,9.096
585,1.069,36.476,20.439,33.302,31.924,7.74,7.123,8.973
586,1.076,36.573,20.509,33.282,31.931,7.74,7.165,9.094
587,1.083,36.21,20.498,33.321,31.945,7.984,7.368,9.095
588,1.092,36.292,20.466,33.302,31.931,7.824,7.248,8.851
589,1.079,36.408,20.474,33.302,31.938,7.781,7.206,8.93
590,1.083,36.505,20.533,33.311,31.935,7.781,7.206,8.809
591,1.076,36.248,20.475,33.33,31.931,7.862,7.206,8.767
592,1.083,36.398,20.486,33.321,31.938,7.782,7.125,8.685
593,1.076,36.486,20.466,33.283,31.921,7.781,7.124,8.522
594,1.079,36.593,20.474,33.292,31.931,7.903,7.124,8.642
595,1.073,36.344,20.474,33.302,31.924,7.945,7.165,8.44
596,1.076,36.476,20.521,33.292,31.924,7.986,7.124,8.397
597,1.089,36.573,20.49,33.273,31.917,8.027,7.165,8.438
598,1.089,36.661,20.443,33.311,31.934,8.19,7.328,8.519
599,1.112,36.489,20.513,33.33,31.938,8.151,7.289,8.439
600,1.119,36.593,20.521,33.302,31.935,8.11,7.207,8.316
601,1.125,36.689,20.486,33.311,31.931,8.15,7.287,8.315
602,1.112,36.758,20.498,33.302,31.938,8.313,7.369,8.274
603,1.125,36.643,20.517,33.311,31.928,8.274,7.289,8.152
604,1.119,36.709,20.482,33.263,31.928,8.071,7.166,7.947
605,1.112,36.834,20.497,33.301,31.928,8.231,7.246,8.108
606,1.132,36.951,20.529,33.282,31.931,8.192,7.288,7.987
607,1.122,36.616,20.49,33.282,31.935,8.151,7.207,7.824
608,1.132,36.747,20.443,33.273,31.921,8.11,7.165,7.822
609,1.119,36.864,20.497,33.273,31.931,8.191,7.287,7.944
610,1.122,36.817,20.544,33.321,31.945,8.314,7.41,7.905
611,1.132,36.874,20.483,33.292,31.928,8.274,7.289,7.782
612,1.116,37.018,20.521,33.292,31.935,8.274,7.288,7.781
613,1.112,37.106,20.494,33.292,31.931,8.274,7.329,7.781
614,1.125,36.906,20.451,33.292,31.945,8.314,7.289,7.781
615,1.116,37.038,20.485,33.282,31.931,8.396,7.207,7.618
616,1.093,37.125,20.501,33.244,31.917,8.275,7.206,7.617
617,1.115,37.222,20.439,33.291,31.927,8.436,7.206,7.617
618,1.112,37.108,20.47,33.273,31.928,8.397,7.206,7.495
619,1.128,37.222,20.482,33.263,31.931,8.397,7.125,7.494
620,1.132,37.338,20.525,33.263,31.928,8.356,7.083,7.494
621,1.135,37.416,20.482,33.301,31.945,8.6,7.286,7.575
622,1.148,37.235,20.509,33.292,31.935,8.521,7.166,7.372
623,1.135,37.329,20.455,33.282,31.931,8.52,7.124,7.411
624,1.135,37.464,20.486,33.273,31.935,8.479,7.083,7.371
625,1.145,37.504,20.474,33.282,31.935,8.52,7.205,7.452
626,1.148,37.322,20.474,33.292,31.931,8.52,7.206,7.412
627,1.139,37.426,20.474,33.244,31.921,8.439,6.921,7.33
628,1.142,37.561,20.431,33.263,31.931,8.479,7.041,7.532
629,1.125,37.562,20.438,33.272,31.928,8.479,7.001,7.616
630,1.116,37.591,20.458,33.282,31.921,8.479,6.919,7.739
631,1.115,37.687,20.505,33.244,31.928,8.438,6.919,7.862
632,1.106,37.784,20.467,33.272,31.935,8.601,7.0,8.27
633,1.115,37.737,20.451,33.311,31.942,8.643,7.041,8.518
634,1.102,37.737,20.489,33.273,31.938,8.481,7.001,8.805
635,1.115,37.871,20.462,33.263,31.928,8.52,7.001,9.133
636,1.112,37.949,20.513,33.263,31.931,8.52,6.96,9.421
637,1.102,37.758,20.521,33.282,31.938,8.601,6.96,9.668
638,1.102,37.871,20.486,33.273,31.928,8.521,6.878,9.67
639,1.086,37.949,20.451,33.244,31.928,8.398,6.837,9.955
640,1.102,38.065,20.505,33.263,31.928,8.519,6.918,10.08
641,1.102,37.817,20.498,33.244,31.924,8.398,6.878,10.121
642,1.099,37.939,20.498,33.244,31.931,8.438,6.796,10.244
643,1.093,38.065,20.463,33.244,31.931,8.357,6.877,10.286
644,1.086,38.123,20.564,33.263,31.945,8.519,7.04,10.367
645,1.102,38.028,20.537,33.282,31.931,8.398,6.96,10.287
646,1.089,38.123,20.494,33.263,31.935,8.356,6.919,10.245
647,1.066,38.249,20.568,33.244,31.935,8.397,6.919,10.326
648,1.069,38.298,20.436,33.272,31.938,8.356,7.0,10.327
649,1.056,38.222,20.505,33.263,31.938,8.275,6.96,10.327
650,1.05,38.345,20.509,33.244,31.924,8.111,6.797,10.124
651,1.027,38.433,20.521,33.224,31.928,8.109,6.999,10.244
652,1.027,38.472,20.498,33.234,31.935,8.15,7.001,10.245
653,1.023,38.271,20.447,33.243,31.931,8.069,6.96,10.286
654,1.01,38.365,20.521,33.234,31.924,8.069,6.919,10.286
655,0.997,38.472,20.49,33.224,31.928,7.946,7.0,10.327
656,0.987,38.511,20.474,33.263,31.941,8.189,7.123,10.53
657,1.01,38.339,20.548,33.263,31.945,7.988,7.043,10.41
658,0.978,38.443,20.514,33.263,31.931,8.027,7.001,10.409
659,0.997,38.559,20.486,33.253,31.935,7.987,7.041,10.45
660,0.978,38.387,20.56,33.263,31.942,8.027,7.001,10.45
661,0.981,38.472,20.576,33.244,31.931,8.027,7.123,10.369
662,0.971,38.597,20.522,33.244,31.921,7.905,6.961,10.287
663,0.955,38.647,20.471,33.215,31.928,7.985,7.041,10.327
664,0.954,38.417,20.49,33.243,31.928,8.108,6.96,10.246
665,0.951,38.539,20.462,33.234,31.928,8.069,7.0,10.164
666,0.945,38.646,20.486,33.205,31.931,8.15,6.96,10.041
667,0.928,38.705,20.478,33.224,31.931,8.191,7.041,10.08
668,0.931,38.523,20.435,33.253,31.945,8.354,7.204,10.203
669,0.928,38.675,20.481,33.244,31.938,8.397,6.962,9.96
670,0.909,38.743,20.572,33.244,31.928,8.397,7.0,9.957
671,0.908,38.782,20.432,33.244,31.935,8.519,7.001,9.876
672,0.899,38.62,20.481,33.234,31.935,8.52,7.041,9.876
673,0.886,38.752,20.505,33.253,31.935,8.601,7.001,9.672
674,0.872,38.84,20.482,33.215,31.921,8.399,6.919,9.467
675,0.869,38.86,20.451,33.224,31.931,8.478,7.0,9.424
676,0.863,38.659,20.509,33.234,31.928,8.479,7.001,9.424
677,0.862,38.743,20.513,33.215,31.931,8.479,6.919,9.342
678,0.859,38.859,20.443,33.215,31.924,8.479,6.919,9.179
679,0.853,38.946,20.505,33.234,31.928,8.479,6.959,9.259
680,0.853,38.784,20.556,33.263,31.948,8.601,7.122,9.259
681,0.866,38.907,20.51,33.225,31.935,8.48,6.961,9.097
682,0.859,38.995,20.509,33.234,31.924,8.438,6.96,8.973
683,0.853,38.67,20.509,33.224,31.934,8.479,6.96,9.013
684,0.856,38.657,20.517,33.243,31.938,8.479,7.0,8.932
685,0.856,38.801,20.486,33.244,31.924,8.398,6.879,8.768
686,0.833,38.85,20.509,33.186,31.917,8.275,6.877,8.726
687,0.833,39.32,20.521,33.224,31.934,8.314,6.959,8.685
688,0.826,39.478,20.502,33.291,31.928,8.315,6.878,8.522
689,0.81,39.585,20.513,33.206,31.924,8.234,6.877,8.479
690,0.803,39.634,20.525,33.214,31.924,8.151,6.959,8.56
691,0.8,38.273,20.514,33.243,31.934,8.313,7.082,8.683
692,0.807,38.413,20.537,33.253,31.938,8.234,6.961,8.481
693,0.79,38.52,20.498,33.224,31.935,8.151,6.96,8.438
694,0.787,38.588,20.459,33.215,31.938,8.15,6.96,8.357
695,0.793,38.829,20.462,33.224,31.938,8.15,7.0,8.356
696,0.793,38.965,20.517,33.234,31.938,8.11,7.001,8.275
697,0.787,39.043,20.443,33.205,31.924,7.987,6.838,8.152
698,0.78,39.083,20.458,33.214,31.931,8.068,6.918,8.191
699,0.787,38.786,20.505,33.224,31.928,8.109,6.919,8.192
700,0.79,38.898,20.47,33.234,31.928,8.028,6.919,8.192
701,0.793,39.014,20.447,33.205,31.931,7.946,6.837,8.192
702,0.793,39.025,20.474,33.214,31.938,8.026,6.999,8.476
703,0.8,38.756,20.462,33.262,31.945,8.027,7.001,8.438
704,0.797,38.84,20.489,33.234,31.931,7.905,6.919,8.56
705,0.8,38.956,20.494,33.234,31.931,7.904,6.959,8.683
706,0.797,38.871,20.494,33.234,31.938,7.863,6.96,8.766
707,0.784,38.707,20.517,33.224,31.935,7.863,6.919,8.929
708,0.787,38.849,20.369,33.224,31.931,7.741,6.796,9.012
709,0.758,38.908,20.489,33.205,31.935,7.699,6.836,9.257
710,0.77,38.63,20.49,33.205,31.935,7.658,6.837,9.3
711,0.764,38.724,20.521,33.205,31.928,7.658,6.796,9.423
712,0.761,38.849,20.474,33.205,31.928,7.495,6.795,9.464
713,0.761,38.927,20.513,33.214,31.931,7.616,6.836,9.627
714,0.757,38.602,20.537,33.234,31.945,7.698,6.958,9.832
715,0.79,38.762,20.482,33.224,31.931,7.577,6.878,9.753
716,0.748,38.859,20.513,33.224,31.931,7.535,6.877,9.793
717,0.764,38.918,20.521,33.215,31.928,7.534,6.877,9.875
718,0.767,38.707,20.467,33.234,31.938,7.494,6.877,9.916
719,0.774,38.849,20.509,33.234,31.938,7.412,6.918,9.794
720,0.758,38.918,20.552,33.176,31.921,7.289,6.715,9.712
721,0.774,38.976,20.553,33.214,31.924,7.369,6.835,9.792
722,0.764,38.669,20.522,33.215,31.931,7.37,6.796,9.793
723,0.767,38.801,20.498,33.215,31.924,7.33,6.714,9.671
724,0.774,38.888,20.556,33.186,31.924,7.289,6.754,9.67
725,0.774,38.937,20.529,33.243,31.938,7.491,6.836,9.751
726,0.784,38.938,20.537,33.224,31.942,7.453,6.796,9.63
727,0.767,39.024,20.525,33.215,31.935,7.452,6.836,9.67
728,0.767,39.14,20.49,33.215,31.935,7.452,6.877,9.589
729,0.767,39.467,20.462,33.215,31.935,7.534,6.877,9.588
730,0.761,38.55,20.532,33.224,31.935,7.534,6.877,9.588
731,0.757,38.646,20.564,33.215,31.924,7.412,6.796,9.425
732,0.748,38.714,20.514,33.205,31.924,7.615,6.917,9.424
733,0.76,38.696,20.537,33.214,31.931,7.657,6.878,9.383
734,0.748,38.772,20.545,33.195,31.928,7.576,6.796,9.261
735,0.757,38.878,20.467,33.195,31.924,7.454,6.877,9.259
736,0.751,38.975,20.482,33.214,31.931,7.656,6.918,9.3
737,0.751,38.564,20.529,33.243,31.942,7.698,7.122,9.301
738,0.767,38.665,20.408,33.234,31.931,7.577,6.961,9.26
739,0.767,38.791,20.497,33.215,31.935,7.575,6.919,9.178
740,0.777,38.859,20.517,33.224,31.935,7.575,7.081,9.259
741,0.777,38.477,20.521,33.215,31.938,7.616,7.123,9.137
742,0.777,38.607,20.474,33.224,31.928,7.576,7.043,9.014
743,0.771,38.704,20.486,33.195,31.917,7.413,7.042,8.932
744,0.777,38.782,20.556,33.195,31.934,7.615,7.123,8.931
745,0.774,38.6,20.49,33.205,31.931,7.454,7.083,8.89
746,0.784,38.714,20.501,33.205,31.928,7.493,7.123,8.768
747,0.774,38.801,20.525,33.214,31.924,7.616,7.083,8.807
748,0.79,38.888,20.396,33.215,31.945,7.698,7.327,8.93
749,0.78,38.592,20.493,33.243,31.938,7.821,7.289,8.768
750,0.751,38.685,20.498,33.205,31.931,7.781,7.288,8.726
751,0.757,38.801,20.548,33.205,31.935,7.822,7.288,8.603
752,0.757,38.831,20.49,33.224,31.931,7.944,7.369,8.602
753,0.761,38.572,20.482,33.215,31.935,7.986,7.37,8.48
754,0.754,38.656,20.517,33.186,31.921,7.824,7.289,8.235
755,0.754,38.743,20.463,33.205,31.928,7.985,7.41,8.355
756,0.757,38.6,20.509,33.205,31.928,7.986,7.411,8.397
757,0.757,38.503,20.498,33.205,31.931,7.946,7.452,8.275
758,0.748,38.617,20.412,33.195,31.931,7.945,7.452,8.193
759,0.767,38.704,20.512,33.205,31.928,8.067,7.534,8.273
760,0.774,38.437,20.599,33.234,31.945,8.15,7.657,8.274
761,0.764,38.511,20.522,33.205,31.931,7.988,7.536,8.152
762,0.777,38.626,20.541,33.224,31.935,8.068,7.534,8.15
763,0.774,38.714,20.553,33.205,31.942,8.028,7.534,8.069
764,0.784,38.398,20.572,33.205,31.935,8.027,7.494,8.069
765,0.784,38.558,20.518,33.214,31.935,7.946,7.494,7.946
766,0.78,38.637,20.498,33.176,31.921,7.823,7.412,7.945
767,0.787,38.704,20.509,33.185,31.931,7.944,7.493,7.864
768,0.777,38.494,20.463,33.185,31.931,7.864,7.412,7.944
769,0.761,38.626,20.493,33.195,31.928,7.822,7.452,7.823
770,0.761,38.724,20.517,33.195,31.924,7.781,7.452,7.903
771,0.777,38.782,20.58,33.205,31.945,7.944,7.534,7.985
772,0.78,38.466,20.534,33.224,31.938,7.945,7.534,7.824
773,0.767,38.568,20.51,33.195,31.935,7.742,7.494,7.781
774,0.774,38.665,20.506,33.205,31.938,7.821,7.453,7.822
775,0.767,38.724,20.517,33.205,31.938,7.741,7.452,7.863
776,0.767,38.494,20.533,33.214,31.935,7.781,7.412,7.863
777,0.774,38.607,20.518,33.195,31.928,7.578,7.33,7.619
778,0.751,38.675,20.389,33.195,31.928,7.657,7.37,7.739
779,0.777,38.868,20.504,33.205,31.931,7.576,7.33,7.659
780,0.78,38.304,20.548,33.176,31.928,7.494,7.37,7.617
781,0.784,38.404,20.553,33.166,31.917,7.453,7.33,7.657
782,0.784,38.53,20.498,33.176,31.931,7.452,7.329,7.617
783,0.784,38.406,20.509,33.224,31.942,7.574,7.492,7.739
784,0.8,38.501,20.498,33.205,31.928,7.413,7.371,7.577
785,0.787,38.598,20.486,33.195,31.935,7.371,7.37,7.535
786,0.793,38.694,20.513,33.176,31.935,7.37,7.452,7.616
787,0.787,38.254,20.525,33.195,31.938,7.411,7.452,7.576
788,0.777,38.413,20.506,33.205,31.938,7.411,7.371,7.657
789,0.771,38.51,20.467,33.176,31.921,7.289,7.208,7.536
790,0.764,38.559,20.54,33.166,31.924,7.329,7.287,7.697
791,0.764,38.272,20.525,33.176,31.934,7.289,7.288,7.74
792,0.77,38.423,20.478,33.176,31.924,7.207,7.288,7.862
793,0.774,38.511,20.49,33.176,31.924,7.287,7.166,7.944
794,0.761,38.579,20.537,33.166,31.924,7.329,7.328,8.189
795,0.757,38.32,20.525,33.195,31.945,7.451,7.41,8.558
796,0.761,38.481,20.525,33.205,31.935,7.33,7.289,8.561
797,0.77,38.549,20.572,33.205,31.928,7.329,7.247,8.764
798,0.761,38.598,20.428,33.205,31.941,7.329,7.247,8.97
799,0.77,38.263,20.485,33.186,31.931,7.207,7.206,9.135
800,0.79,38.375,20.548,33.185,31.935,7.287,7.206,9.136
801,0.774,38.472,20.514,33.157,31.921,7.247,7.084,9.095
802,0.767,38.482,20.494,33.176,31.931,7.288,7.123,9.339
803,0.774,38.252,20.49,33.166,31.924,7.247,7.124,9.382
804,0.774,38.365,20.529,33.166,31.931,7.206,7.083,9.342
805,0.771,38.472,20.486,33.147,31.931,7.206,7.002,9.342
806,0.77,38.262,20.533,33.176,31.935,7.328,7.163,9.504
807,0.793,38.26,20.588,33.214,31.945,7.329,7.124,9.506
808,0.784,38.375,20.522,33.167,31.935,7.329,7.083,9.465
809,0.774,38.462,20.51,33.176,31.935,7.289,7.123,9.383
810,0.764,38.07,20.545,33.166,31.935,7.247,7.043,9.464
811,0.77,38.162,20.518,33.185,31.938,7.288,7.001,9.505
812,0.774,38.297,20.541,33.195,31.931,7.288,6.96,9.343
813,0.754,38.346,20.49,33.147,31.921,7.125,6.919,9.342
814,0.767,38.117,20.591,33.166,31.934,7.205,6.959,9.342
815,0.767,38.268,20.542,33.166,31.928,7.206,7.0,9.342
816,0.751,38.375,20.506,33.166,31.928,7.206,6.919,9.342
817,0.761,38.433,20.541,33.157,31.924,7.125,6.919,9.382
818,0.767,38.022,20.475,33.185,31.934,7.205,7.0,9.505
819,0.79,38.18,20.482,33.176,31.938,7.165,7.001,9.343
820,0.78,38.259,20.509,33.176,31.938,7.206,7.041,9.464
821,0.777,38.308,20.533,33.157,31.931,7.125,6.96,9.343
822,0.774,38.049,20.51,33.185,31.931,7.124,6.919,9.423
823,0.777,38.162,20.506,33.185,31.935,7.165,6.959,9.342
824,0.771,38.259,20.494,33.147,31.917,7.002,6.838,9.179
825,0.761,38.288,20.474,33.166,31.931,7.082,6.958,9.218
826,0.78,38.001,20.525,33.157,31.931,7.002,7.0,9.218
827,0.764,38.132,20.529,33.147,31.928,6.96,6.919,9.178
828,0.761,38.239,20.478,33.166,31.928,6.96,6.878,9.096
829,0.761,38.326,20.501,33.166,31.931,7.041,6.918,9.176
830,0.774,38.116,20.545,33.204,31.942,7.164,7.081,9.218
831,0.761,38.249,20.51,33.176,31.928,6.962,6.92,9.096
832,0.748,38.327,20.525,33.157,31.935,6.96,6.959,9.014
833,0.76,37.886,20.568,33.176,31.931,6.919,6.96,9.013
834,0.761,37.949,20.549,33.176,31.931,7.0,7.0,9.013
835,0.751,38.065,20.486,33.185,31.931,6.797,6.797,8.85
836,0.741,38.143,20.509,33.138,31.924,6.836,6.795,8.889
837,0.744,37.99,20.517,33.166,31.931,6.837,6.836,8.809
838,0.747,38.113,20.463,33.147,31.931,6.837,6.877,8.767
839,0.754,38.22,20.54,33.166,31.928,6.755,6.837,8.604
840,0.748,38.307,20.506,33.157,31.921,6.754,6.755,8.643
841,0.754,37.953,20.56,33.166,31.941,6.876,6.957,8.725
842,0.774,38.093,20.572,33.195,31.938,6.796,6.878,8.603
843,0.767,38.181,20.561,33.176,31.935,6.795,6.796,8.602
844,0.767,38.249,20.545,33.157,31.938,6.795,6.755,8.521
845,0.77,37.838,20.502,33.166,31.938,6.755,6.795,8.439
846,0.777,37.996,20.537,33.166,31.938,6.754,6.917,8.438
847,0.777,38.075,20.506,33.147,31.921,6.714,6.715,8.275
848,0.758,38.104,20.506,33.176,31.928,6.713,6.672,8.396
849,0.761,37.827,20.533,33.166,31.931,6.713,6.713,8.397
850,0.748,37.958,20.545,33.147,31.931,6.713,6.754,8.316
851,0.76,38.055,20.564,33.156,31.928,6.672,6.754,8.274
852,0.744,38.066,20.569,33.156,31.924,6.631,6.795,8.355
853,0.747,38.008,20.526,33.176,31.945,6.794,6.999,8.478
854,0.757,38.132,20.564,33.166,31.935,6.714,6.838,8.316
855,0.757,38.22,20.514,33.233,31.931,6.672,6.796,8.356
856,0.735,37.914,20.47,33.157,31.931,6.713,6.917,8.356
857,0.741,37.901,20.54,33.156,31.935,6.713,6.959,8.315
858,0.751,38.026,20.463,33.166,31.935,6.713,7.0,8.234
859,0.744,38.104,20.489,33.137,31.924,6.591,6.838,8.029
860,0.744,37.779,20.486,33.147,31.931,6.631,6.918,8.068
861,0.747,37.919,20.552,33.176,31.928,6.712,6.919,8.069
862,0.76,38.026,20.549,33.137,31.928,6.672,6.959,8.028
863,0.757,38.104,20.537,33.137,31.924,6.672,6.878,7.946
864,0.761,38.028,20.553,33.127,31.931,6.631,7.0,7.945
865,0.77,38.2,20.506,33.175,31.945,6.794,7.163,8.026
866,0.79,38.317,20.506,33.166,31.931,6.755,7.002,7.824
867,0.767,38.356,20.576,33.128,31.931,6.795,7.041,7.863
868,0.757,37.714,20.448,33.156,31.928,6.755,7.042,7.863
869,0.751,37.851,20.478,33.156,31.931,6.836,7.042,7.944
870,0.757,37.958,20.47,33.166,31.931,6.714,6.96,7.945
871,0.748,37.988,20.552,33.128,31.921,6.672,6.96,7.823
872,0.728,37.806,20.498,33.137,31.938,6.753,7.0,8.066
873,0.734,37.958,20.498,33.147,31.928,6.714,6.96,8.15
874,0.738,38.055,20.529,33.137,31.924,6.672,6.96,8.273
875,0.741,38.104,20.49,33.137,31.921,6.713,6.96,8.477
876,0.721,37.894,20.525,33.147,31.928,6.794,7.0,8.682
877,0.737,38.045,20.568,33.185,31.938,6.958,7.123,9.05
878,0.741,38.162,20.432,33.176,31.931,6.919,6.961,9.176
879,0.751,38.096,20.544,33.157,31.931,6.959,7.0,9.38
880,0.748,37.922,20.549,33.156,31.928,6.96,7.001,9.545
881,0.757,38.045,20.545,33.156,31.938,7.041,7.082,9.75
882,0.761,38.162,20.525,33.147,31.924,7.042,7.002,9.874
883,0.748,37.837,20.514,33.128,31.921,6.92,6.838,9.916
884,0.741,37.929,20.568,33.156,31.934,7.081,6.958,10.12
885,0.757,38.084,20.51,33.128,31.928,7.002,6.878,10.163
886,0.757,38.162,20.482,33.137,31.928,7.001,6.877,10.163
887,0.754,38.518,20.556,33.127,31.928,7.001,6.918,10.204
888,0.748,38.665,20.514,33.137,31.931,7.123,7.0,10.326
889,0.757,38.829,20.533,33.185,31.938,7.287,7.001,10.327
890,0.735,38.841,20.557,33.147,31.931,7.044,6.879,10.246
891,0.734,37.537,20.549,33.156,31.931,7.123,6.877,10.204
892,0.728,37.677,20.506,33.156,31.938,7.124,6.837,10.204
893,0.734,37.803,20.502,33.137,31.938,7.083,6.918,10.163
894,0.731,37.871,20.568,33.137,31.931,7.042,6.796,10.041
895,0.725,37.958,20.502,33.127,31.921,6.92,6.714,9.958
896,0.721,38.103,20.509,33.147,31.931,7.0,6.794,9.998
897,0.724,38.22,20.56,33.137,31.938,6.96,6.836,9.958
898,0.741,38.24,20.471,33.147,31.924,6.919,6.714,9.795
899,0.741,37.924,20.497,33.118,31.924,6.919,6.713,9.834
900,0.741,38.074,20.525,33.127,31.938,7.0,6.876,9.956
901,0.754,38.219,20.529,33.185,31.945,7.123,6.918,9.917
902,0.748,38.403,20.514,33.147,31.935,7.002,6.878,9.754
903,0.747,37.897,20.498,33.137,31.931,7.001,6.877,9.712
904,0.747,38.016,20.564,33.147,31.931,6.96,6.837,9.67
905,0.77,38.113,20.475,33.156,31.935,6.96,6.918,9.629
906,0.761,37.932,20.529,33.128,31.928,6.797,6.796,9.426
907,0.744,37.921,20.557,33.099,31.921,6.836,6.836,9.505
908,0.747,38.055,20.506,33.137,31.931,6.877,6.877,9.465
909,0.734,38.181,20.529,33.127,31.928,6.877,6.918,9.424
910,0.731,37.923,20.553,33.108,31.931,6.918,6.878,9.342
911,0.728,38.036,20.518,33.127,31.924,6.959,6.918,9.382
912,0.734,38.171,20.588,33.147,31.945,7.122,7.122,9.545
913,0.734,38.278,20.553,33.166,31.938,7.124,6.961,9.344
914,0.738,37.876,20.58,33.137,31.931,7.124,6.96,9.342
915,0.728,38.045,20.522,33.214,31.935,7.124,6.96,9.342
916,0.728,38.181,20.553,33.157,31.931,7.327,6.96,9.423
917,0.738,38.24,20.588,33.156,31.935,7.329,6.919,9.261
918,0.738,37.895,20.506,33.109,31.924,7.207,6.837,9.137
919,0.731,38.026,20.556,33.127,31.931,7.369,6.999,9.258
920,0.741,38.152,20.526,33.127,31.935,7.452,6.919,9.097
921,0.744,38.211,20.51,33.137,31.928,7.452,6.878,9.054
922,0.734,37.885,20.521,33.118,31.924,7.412,6.877,9.013
923,0.738,38.035,20.521,33.127,31.938,7.493,7.0,9.094
924,0.754,38.181,20.595,33.166,31.938,7.575,7.001,9.054
925,0.751,38.201,20.522,33.128,31.931,7.454,6.879,8.973
926,0.744,41.826,20.517,33.137,31.935,7.493,6.918,8.891
927,0.747,41.939,20.545,33.137,31.931,7.534,6.919,8.809
928,0.741,41.979,20.506,33.147,31.938,7.534,6.919,8.808
929,0.741,38.632,20.525,33.147,31.938,7.494,6.878,8.686
930,0.731,36.24,20.486,33.118,31.924,7.331,6.715,8.603
931,0.721,36.36,20.544,33.127,31.921,7.41,6.835,8.684
932,0.721,36.505,20.502,33.137,31.931,7.411,6.877,8.562
933,0.715,38.357,20.525,33.118,31.931,7.411,6.837,8.439
934,0.715,38.635,20.541,33.108,31.924,7.33,6.837,8.397
935,0.708,38.772,20.502,33.127,31.931,7.37,6.918,8.478
936,0.728,38.859,20.545,33.175,31.945,7.452,7.081,8.56
937,0.731,37.652,20.533,33.137,31.924,7.29,6.92,8.358
938,0.725,37.736,20.447,33.147,31.928,7.288,6.878,8.356
939,0.737,37.871,20.458,33.147,31.938,7.329,6.877,8.275
940,0.734,37.968,20.509,33.147,31.938,7.289,6.959,8.233
941,0.741,37.931,20.549,33.137,31.931,7.247,6.919,8.111
942,0.738,38.045,20.498,33.108,31.921,7.206,6.796,8.028
943,0.744,38.19,20.525,33.137,31.938,7.247,6.877,7.946
944,0.754,38.221,20.584,33.127,31.935,7.369,6.796,7.986
945,0.757,37.866,20.553,33.194,31.928,7.33,6.755,7.946
946,0.748,37.987,20.529,33.109,31.924,7.451,6.836,7.945
947,0.757,38.103,20.576,33.127,31.938,7.656,6.958,7.986
948,0.754,38.172,20.518,33.137,31.938,7.617,6.838,7.864
949,0.728,37.952,20.49,33.127,31.931,7.617,6.837,7.904
950,0.747,38.065,20.521,33.137,31.935,7.698,6.877,7.863
951,0.734,38.162,20.588,33.147,31.935,7.699,6.796,7.863
952,0.731,38.527,20.545,33.147,31.931,7.78,6.836,7.782
953,0.728,37.936,20.537,33.108,31.924,7.659,6.714,7.659
954,0.715,38.045,20.553,33.098,31.928,7.739,6.794,7.942
955,0.715,38.181,20.545,33.137,31.928,7.781,6.795,8.067
956,0.721,37.818,20.533,33.118,31.928,7.74,6.836,8.109
957,0.721,37.852,20.576,33.118,31.924,7.699,6.714,8.191
958,0.708,37.958,20.53,33.118,31.921,7.699,6.754,8.558
959,0.731,38.094,20.478,33.146,31.938,7.861,6.836,8.805
960,0.751,37.846,20.552,33.147,31.931,7.782,6.796,8.97
961,0.738,37.929,20.584,33.137,31.938,7.74,6.714,9.135
962,0.741,38.065,20.553,33.137,31.935,7.74,6.713,9.299
963,0.734,38.143,20.588,33.127,31.935,7.781,6.794,9.544
964,0.741,37.894,20.6,33.147,31.938,7.74,6.755,9.669
965,0.751,38.064,20.538,33.147,31.924,7.659,6.592,9.589
966,0.735,38.114,20.486,33.108,31.924,7.617,6.671,9.751
967,0.734,38.191,20.552,33.127,31.924,7.617,6.672,9.752
968,0.744,37.741,20.494,33.127,31.931,7.657,6.672,9.833
969,0.721,37.871,20.478,33.118,31.924,7.576,6.672,9.834
970,0.721,37.987,20.494,33.118,31.924,7.575,6.753,9.834
971,0.724,38.056,20.525,33.146,31.945,7.738,6.876,10.038
972,0.741,37.845,20.486,33.137,31.924,7.577,6.796,9.918
973,0.725,37.958,20.525,33.137,31.931,7.616,6.795,9.876
974,0.728,38.055,20.56,33.137,31.935,7.617,6.795,9.876
975,0.731,38.085,20.471,33.137,31.935,7.657,6.877,9.916
976,0.738,37.903,20.544,33.147,31.935,7.698,6.796,9.835
977,0.734,38.016,20.6,33.089,31.921,7.618,6.714,9.672
978,0.734,38.094,20.565,33.108,31.931,7.739,6.794,9.751
979,0.76,37.874,20.545,33.194,31.935,7.699,6.836,9.671
980,0.767,37.747,20.553,33.128,31.931,7.699,6.755,9.67
981,0.777,37.842,20.545,33.108,31.928,7.658,6.754,9.629
982,0.797,37.949,20.545,33.118,31.938,7.78,6.836,9.792
983,0.807,37.739,20.553,33.146,31.945,7.903,6.918,9.915
984,0.823,37.842,20.518,33.128,31.931,7.782,6.878,9.754
985,0.817,37.968,20.541,33.147,31.935,7.781,6.918,9.793
986,0.826,38.046,20.557,33.128,31.931,7.781,6.837,9.753
987,0.83,37.74,20.572,33.137,31.938,7.781,6.918,9.793
988,0.836,37.89,20.51,33.137,31.935,7.781,6.878,9.671
989,0.817,37.987,20.533,33.108,31.917,7.618,6.796,9.589
990,0.826,38.056,20.576,33.127,31.927,7.698,6.836,9.669
991,0.826,37.634,20.545,33.137,31.924,7.699,6.837,9.629
992,0.826,37.774,20.553,33.118,31.921,7.618,6.837,9.548
993,0.833,37.871,20.561,33.099,31.917,7.617,6.755,9.506
994,0.83,37.93,20.545,33.127,31.934,7.779,6.917,9.628
995,0.83,37.681,20.557,33.185,31.938,7.74,7.041,9.588
996,0.826,37.774,20.522,33.128,31.931,7.699,6.879,9.425
997,0.826,37.91,20.529,33.137,31.931,7.618,6.918,9.424
998,0.843,37.94,20.475,33.147,31.935,7.698,6.878,9.342
999,0.862,37.719,20.505,33.128,31.935,7.658,6.796,9.342
1000,0.859,37.823,20.521,33.118,31.924,7.576,6.755,9.138
1001,0.853,37.9,20.525,33.108,31.928,7.535,6.754,9.177
1002,0.856,38.103,20.545,33.118,31.931,7.575,6.836,9.015
1003,0.859,37.731,20.529,33.108,31.928,7.535,6.755,9.054
1004,0.862,37.832,20.525,33.108,31.924,7.453,6.754,8.932
1005,0.859,37.939,20.514,33.098,31.928,7.534,6.876,9.012
1006,0.859,37.585,20.545,33.146,31.941,7.657,6.959,8.932
1007,0.856,37.62,20.596,33.118,31.928,7.576,6.838,8.768
1008,0.843,37.726,20.542,33.127,31.935,7.454,6.837,8.767
1009,0.839,37.823,20.533,33.127,31.935,7.534,6.837,8.726
1010,0.836,37.622,20.525,33.137,31.931,7.494,6.877,8.726
1011,0.839,37.755,20.541,33.147,31.935,7.575,6.837,8.603
1012,0.83,37.852,20.545,33.099,31.924,7.454,6.674,8.44
1013,0.833,37.929,20.549,33.127,31.928,7.615,6.835,8.438
1014,0.836,37.575,20.565,33.127,31.924,7.495,6.796,8.357
1015,0.833,37.706,20.522,33.127,31.924,7.494,6.795,8.315
1016,0.839,37.813,20.517,33.127,31.924,7.453,6.795,8.274
1017,0.856,37.9,20.553,33.127,31.928,7.656,6.877,8.314
1018,0.869,37.642,20.6,33.137,31.941,7.739,6.877,8.234
1019,0.876,37.745,20.467,33.127,31.931,7.537,6.796,8.233
1020,0.872,37.871,20.509,33.118,31.931,7.616,6.836,8.151
1021,0.879,37.891,20.591,33.127,31.935,7.576,6.796,8.15
1022,0.885,37.633,20.561,33.118,31.938,7.616,6.877,8.11
1023,0.879,37.774,20.549,33.127,31.928,7.617,6.755,7.865
1024,0.866,37.833,20.588,33.089,31.921,7.576,6.795,7.944
1025,0.872,37.881,20.561,33.117,31.931,7.616,6.795,7.864
1026,0.869,37.498,20.569,33.108,31.928,7.535,6.755,7.863
1027,0.859,37.6,20.588,33.089,31.924,7.534,6.714,7.741
1028,0.869,37.726,20.499,33.098,31.928,7.494,6.713,7.781
1029,0.863,37.621,20.49,33.127,31.952,7.656,6.998,7.903
1030,0.872,37.659,20.509,33.137,31.931,7.536,6.838,7.701
1031,0.856,37.745,20.529,33.127,31.931,7.534,6.877,7.699
1032,0.84,37.861,20.482,33.137,31.931,7.453,6.877,7.699
1033,0.839,37.412,20.525,33.127,31.935,7.534,7.04,7.618
1034,0.833,37.551,20.576,33.127,31.938,7.494,6.96,7.535
1035,0.826,37.648,20.463,33.127,31.924,7.331,6.878,7.412
1036,0.804,37.726,20.513,33.127,31.931,7.451,7.0,7.533
1037,0.807,37.478,20.58,33.118,31.928,7.33,7.001,7.575
1038,0.807,37.619,20.584,33.118,31.928,7.37,7.001,7.616
1039,0.81,37.735,20.432,33.108,31.921,7.289,7.001,7.576
1040,0.807,37.794,20.54,33.108,31.931,7.369,7.123,7.86
1041,0.813,37.44,20.525,33.156,31.948,7.452,7.205,7.944
1042,0.803,37.551,20.533,33.118,31.924,7.371,7.165,8.108
1043,0.81,37.668,20.553,33.127,31.934,7.37,7.165,8.394
1044,0.81,37.717,20.619,33.127,31.938,7.452,7.165,8.763
1045,0.803,37.353,20.518,33.127,31.938,7.452,7.165,9.092
1046,0.8,37.503,20.529,33.127,31.935,7.371,7.084,9.258
1047,0.781,37.571,20.592,33.099,31.924,7.37,7.123,9.625
1048,0.784,37.649,20.534,33.118,31.928,7.452,7.124,9.873
1049,0.774,37.486,20.533,33.166,31.928,7.452,7.124,10.038
1050,0.764,37.59,20.537,33.089,31.924,7.493,7.043,10.202
1051,0.748,37.697,20.58,33.098,31.921,7.494,7.001,10.326
1052,0.738,37.755,20.561,33.137,31.938,7.616,7.123,10.571
1053,0.747,37.593,20.545,33.137,31.938,7.617,7.124,10.533
1054,0.738,37.678,20.596,33.108,31.935,7.617,7.124,10.614
1055,0.728,37.813,20.592,33.175,31.928,7.617,7.043,10.696
1056,0.725,37.354,20.53,33.128,31.935,7.617,7.082,10.737
1057,0.724,37.416,20.619,33.137,31.935,7.617,7.083,10.657
1058,0.715,37.522,20.557,33.108,31.928,7.413,6.961,10.493
1059,0.711,37.591,20.514,33.118,31.924,7.533,6.96,10.573
1060,0.721,37.361,20.47,33.118,31.934,7.453,7.0,10.574
1061,0.724,37.493,20.493,33.108,31.935,7.534,7.001,10.451
1062,0.721,37.609,20.505,33.108,31.924,7.453,6.96,10.41
1063,0.721,37.678,20.521,33.108,31.931,7.452,6.96,10.45
1064,0.728,37.314,20.564,33.146,31.938,7.656,7.163,10.613
1065,0.738,37.483,20.491,33.128,31.931,7.414,7.002,10.371
1066,0.728,37.59,20.521,33.127,31.935,7.452,6.96,10.449
1067,0.721,37.649,20.572,33.137,31.935,7.412,6.96,10.45
1068,0.711,37.199,20.506,33.127,31.938,7.371,7.041,10.572
1069,0.698,37.348,20.525,33.156,31.935,7.411,7.042,10.492
1070,0.685,37.445,20.533,33.089,31.917,7.208,6.879,10.41
1071,0.666,37.465,20.51,33.108,31.931,7.328,7.0,10.45
1072,0.678,37.312,20.588,33.118,31.928,7.289,6.96,10.41
1073,0.665,37.454,20.569,33.099,31.928,7.247,7.0,10.328
1074,0.659,37.542,20.557,33.089,31.931,7.166,6.96,10.246
1075,0.652,37.572,20.51,33.108,31.931,7.246,7.082,10.326
1076,0.662,37.284,20.549,33.156,31.945,7.288,7.164,10.246
1077,0.659,37.377,20.568,33.128,31.935,7.207,7.124,10.204
1078,0.646,37.474,20.588,33.118,31.931,7.165,7.205,10.082
1079,0.668,37.35,20.534,33.127,31.935,7.165,7.247,10.04
1080,0.669,37.397,20.58,33.147,31.935,7.165,7.206,9.999
1081,0.678,37.513,20.573,33.147,31.931,7.124,7.206,9.836
1082,0.662,37.59,20.592,33.099,31.921,7.083,7.125,9.672
1083,0.669,37.131,20.549,33.108,31.931,7.164,7.246,9.629
1084,0.675,37.232,20.604,33.118,31.931,7.287,7.247,9.588
1085,0.669,37.358,20.561,33.108,31.931,7.369,7.206,9.425
1086,0.672,37.426,20.514,33.098,31.924,7.37,7.247,9.342
1087,0.675,37.685,20.572,33.108,31.931,7.573,7.288,9.423
1088,0.672,37.851,20.545,33.137,31.942,7.82,7.369,9.424
1089,0.669,37.977,20.545,33.118,31.928,7.741,7.33,9.302
1090,0.652,38.036,20.6,33.127,31.931,7.781,7.37,9.178
1091,0.652,36.963,20.604,33.118,31.935,7.862,7.289,9.096
1092,0.659,37.105,20.592,33.137,31.942,7.944,7.369,9.136
1093,0.656,37.222,20.53,33.137,31.935,7.864,7.289,8.974
1094,0.646,37.262,20.533,33.099,31.921,7.822,7.166,8.85
1095,0.636,37.252,20.521,33.175,31.924,7.903,7.287,8.93
1096,0.642,37.386,20.471,33.109,31.924,7.863,7.207,8.89
1097,0.649,37.484,20.544,33.108,31.931,7.863,7.125,8.809
1098,0.652,37.513,20.49,33.108,31.931,7.782,7.124,8.726
1099,0.662,37.217,20.478,33.118,31.938,7.944,7.287,8.807
1100,0.678,37.367,20.54,33.166,31.945,7.945,7.207,8.767
1101,0.675,37.445,20.557,33.118,31.931,7.945,7.125,8.685
1102,0.685,37.341,20.584,33.127,31.931,7.905,7.165,8.684
1103,0.682,37.157,20.545,33.127,31.935,7.945,7.084,8.603
1104,0.682,37.29,20.607,33.137,31.938,7.945,7.164,8.48
1105,0.679,37.368,20.444,33.108,31.921,7.823,6.962,8.316
1106,0.675,37.081,20.517,33.079,31.928,7.863,7.082,8.396
1107,0.678,37.203,20.595,33.108,31.928,7.863,7.083,8.397
1108,0.662,37.328,20.522,33.098,31.931,7.822,7.083,8.275
1109,0.652,37.397,20.498,33.098,31.924,7.781,7.083,8.274
1110,0.646,37.129,20.56,33.098,31.924,7.781,7.245,8.314
1111,0.642,37.309,20.541,33.137,31.941,7.984,7.45,8.315
1112,0.655,37.425,20.529,33.137,31.938,7.864,7.33,8.234
1113,0.655,37.484,20.564,33.118,31.938,7.904,7.329,8.192
1114,0.675,37.063,20.612,33.118,31.938,7.863,7.41,8.273
1115,0.688,37.202,20.553,33.146,31.945,7.863,7.493,8.274
1116,0.724,37.338,20.553,33.137,31.938,7.944,7.534,8.274
1117,0.757,37.387,20.6,33.127,31.924,7.783,7.453,8.152
1118,0.796,37.1,20.577,33.108,31.928,7.903,7.534,8.354
1119,0.849,37.299,20.522,33.118,31.924,7.863,7.534,8.437
1120,0.882,37.387,20.549,33.108,31.931,7.822,7.534,8.479
1121,0.921,37.417,20.533,33.089,31.931,7.822,7.534,8.642
1122,0.964,37.091,20.545,33.117,31.931,7.781,7.657,8.887
1123,1.013,37.26,20.545,33.146,31.942,7.984,7.698,9.134
1124,1.043,37.367,20.537,33.108,31.935,7.824,7.618,9.217
1125,1.059,37.666,20.463,33.127,31.935,7.741,7.657,9.3
1126,1.082,37.285,20.529,33.118,31.935,7.74,7.617,9.504
1127,1.096,37.425,20.576,33.127,31.935,7.74,7.657,9.628
1128,1.125,37.522,20.541,33.127,31.931,7.699,7.576,9.67
1129,1.161,37.025,20.498,33.127,31.924,7.577,7.332,9.67
1130,1.204,37.02,20.541,33.108,31.931,7.616,7.573,9.833
1131,1.253,37.144,20.522,33.118,31.931,7.576,7.494,9.916
1132,1.305,37.251,20.514,33.099,31.935,7.575,7.412,9.998
1133,1.342,37.041,20.521,33.089,31.928,7.454,7.371,9.917
1134,1.384,37.202,20.595,33.098,31.938,7.615,7.614,10.242
1135,1.44,37.367,20.553,33.146,31.945,7.657,7.535,10.204
1136,1.47,37.416,20.565,33.128,31.935,7.617,7.494,10.163
1137,1.529,36.985,20.588,33.127,31.935,7.576,7.494,10.244
1138,1.568,37.106,20.549,33.108,31.938,7.616,7.453,10.204
1139,1.601,37.251,20.498,33.118,31.945,7.617,7.412,10.326
1140,1.615,37.329,20.541,33.118,31.935,7.617,7.289,10.246
1141,1.612,37.052,20.514,33.099,31.917,7.495,7.329,10.408
1142,1.605,37.212,20.584,33.118,31.931,7.575,7.289,10.409
1143,1.55,37.348,20.561,33.108,31.924,7.616,7.329,10.369
1144,1.536,37.368,20.611,33.098,31.924,7.535,7.329,10.449
1145,1.477,37.004,20.53,33.098,31.931,7.534,7.329,10.45
1146,1.457,37.173,20.568,33.127,31.942,7.697,7.451,10.654
1147,1.438,37.299,20.643,33.127,31.935,7.618,7.412,10.615
1148,1.359,37.282,20.55,33.127,31.938,7.617,7.493,10.533
1149,1.245,36.994,20.584,33.147,31.931,7.657,7.412,10.655
1150,1.12,37.125,20.569,33.118,31.935,7.78,7.493,10.818
1151,1.002,37.232,20.612,33.127,31.942,7.984,7.453,10.942
1152,0.835,37.175,20.6,33.118,31.924,8.068,7.33,10.943
1153,0.706,37.098,20.561,33.089,31.924,8.191,7.451,11.39
1154,0.63,37.27,20.596,33.117,31.934,8.436,7.452,11.72
1155,0.532,37.358,20.483,33.118,31.931,8.519,7.493,12.13
1156,0.462,36.879,20.501,33.108,31.928,8.723,7.453,12.541
1157,0.397,36.951,20.58,33.098,31.935,8.848,7.452,12.911
1158,0.344,37.105,20.553,33.127,31.945,9.133,7.656,13.402
1159,0.308,37.212,20.49,33.137,31.938,9.177,7.495,13.651
1160,0.252,36.849,20.513,33.108,31.931,9.177,7.534,13.938
1161,0.235,36.999,20.545,33.118,31.931,9.299,7.534,14.185
1162,0.196,37.125,20.553,33.118,31.938,9.341,7.575,14.391
1163,0.15,37.213,20.537,33.127,31.938,9.342,7.494,14.393
1164,0.127,36.974,20.615,33.089,31.924,9.26,7.371,14.352
1165,0.091,37.106,20.546,33.098,31.928,9.341,7.452,14.514
1166,0.087,37.251,20.557,33.108,31.928,9.301,7.371,14.475
1167,0.077,37.281,20.576,33.089,31.928,9.341,7.533,14.312
1168,0.058,36.898,20.518,33.098,31.928,9.26,7.453,14.27
1169,0.051,37.019,20.521,33.098,31.924,9.178,7.452,14.229
1170,0.074,37.164,20.533,33.137,31.945,9.462,7.615,14.31
1171,0.09,37.213,20.596,33.127,31.935,9.302,7.454,14.148
1172,0.09,36.955,20.588,33.099,31.935,9.26,7.452,14.106
1173,0.094,37.105,20.541,33.108,31.935,9.178,7.493,14.187
1174,0.103,37.232,20.607,33.108,31.931,9.218,7.412,14.31
1175,0.091,37.54,20.546,33.118,31.942,9.178,7.452,14.351
1176,0.107,36.977,20.529,33.108,31.928,9.055,7.29,14.352
1177,0.11,37.077,20.572,33.089,31.928,8.973,7.451,14.514
1178,0.156,37.183,20.545,33.108,31.931,9.013,7.29,14.638
1179,0.163,37.012,20.564,33.089,31.928,8.972,7.329,14.599
1180,0.182,37.077,20.588,33.089,31.928,8.972,7.289,14.639
1181,0.202,37.193,20.635,33.089,31.931,8.972,7.329,14.802
1182,0.222,37.319,20.636,33.127,31.948,9.094,7.532,14.926
1183,0.264,36.908,20.608,33.108,31.935,8.892,7.372,14.764
1184,0.274,37.028,20.565,33.118,31.935,8.971,7.33,14.763
1185,0.31,37.164,20.53,33.108,31.931,8.931,7.289,14.722
1186,0.353,37.242,20.549,33.118,31.935,9.012,7.288,14.599
1187,0.386,36.907,20.576,33.118,31.938,8.891,7.329,14.395
1188,0.409,37.019,20.459,33.108,31.924,8.727,7.167,14.108
1189,0.451,37.154,20.513,33.118,31.931,8.848,7.287,14.146
1190,0.504,37.222,20.525,33.099,31.931,8.849,7.207,13.902
1191,0.543,36.916,20.537,33.108,31.924,8.727,7.247,13.697
1192,0.563,37.067,20.537,33.108,31.921,8.685,7.206,13.492
1193,0.573,37.164,20.56,33.108,31.934,8.684,7.328,13.408
1194,0.612,37.242,20.6,33.127,31.955,8.766,7.451,13.204
1195,0.632,36.907,20.518,33.108,31.931,8.604,7.208,12.958
1196,0.642,37.028,20.541,33.108,31.935,8.562,7.287,12.752
1197,0.662,37.154,20.576,33.118,31.931,8.48,7.247,12.588
1198,0.685,37.175,20.448,33.118,31.938,8.479,7.288,12.383
1199,0.705,37.021,20.556,33.118,31.931,8.357,7.166,12.096
1200,0.685,37.144,20.58,33.079,31.921,8.275,7.084,11.971
1201,0.698,37.261,20.522,33.108,31.934,8.274,7.164,11.726
1202,0.714,37.032,20.525,33.098,31.931,8.193,7.124,11.642
1203,0.711,36.895,20.553,33.098,31.924,8.07,7.083,11.397
1204,0.715,37.028,20.623,33.079,31.924,8.109,7.205,11.354
1205,0.721,37.164,20.55,33.137,31.941,8.191,7.287,11.354
1206,0.734,36.887,20.6,33.099,31.935,8.029,7.166,11.151
1207,0.744,36.961,20.647,33.098,31.935,7.987,7.124,11.067
1208,0.725,37.096,20.53,33.098,31.938,7.864,7.124,11.066
1209,0.721,37.212,20.588,33.108,31.931,7.822,7.165,11.27
1210,0.734,36.811,20.588,33.118,31.938,7.822,7.165,11.475
1211,0.725,36.931,20.577,33.089,31.931,7.659,6.962,11.518
1212,0.721,37.057,20.569,33.089,31.931,7.698,7.163,11.925
1213,0.731,37.154,20.6,33.089,31.928,7.577,7.043,12.132
1214,0.725,36.791,20.6,33.079,31.924,7.575,7.082,12.337
1215,0.721,36.941,20.569,33.175,31.928,7.494,7.083,12.543
1216,0.715,37.077,20.537,33.109,31.931,7.453,7.205,12.707
1217,0.741,37.155,20.627,33.137,31.938,7.656,7.369,12.872
1218,0.76,36.81,20.534,33.099,31.928,7.495,7.248,12.873
1219,0.748,36.941,20.545,33.127,31.931,7.494,7.206,12.873
1220,0.751,37.048,20.549,33.108,31.931,7.494,7.206,12.792
1221,0.757,37.097,20.529,33.118,31.938,7.575,7.247,12.791
1222,0.751,36.79,20.529,33.108,31.931,7.454,7.044,12.629
1223,0.751,36.883,20.537,33.079,31.924,7.534,7.245,12.546
1224,0.777,37.028,20.615,33.089,31.938,7.534,7.206,12.423
1225,0.764,37.192,20.557,33.117,31.935,7.575,7.165,12.3
1226,0.774,36.935,20.569,33.089,31.924,7.575,7.124,12.136
1227,0.771,37.067,20.608,33.089,31.924,7.575,7.165,12.134
1228,0.767,37.193,20.581,33.117,31.941,7.779,7.368,12.175
1229,0.767,36.83,20.58,33.118,31.935,7.659,7.208,12.013
1230,0.757,36.864,20.553,33.108,31.935,7.658,7.287,11.97
1231,0.757,36.989,20.576,33.089,31.928,7.658,7.288,11.889
1232,0.754,37.106,20.576,33.108,31.935,7.698,7.288,11.847
1233,0.761,36.8,20.569,33.098,31.931,7.699,7.329,11.765
1234,0.767,36.922,20.615,33.089,31.928,7.658,7.207,11.561
1235,0.751,37.038,20.507,33.089,31.931,7.658,7.287,11.64
1236,0.754,37.154,20.564,33.108,31.928,7.739,7.207,11.56
1237,0.761,36.714,20.619,33.118,31.931,7.699,7.165,11.397
1238,0.767,36.834,20.6,33.099,31.924,7.699,7.206,11.273
1239,0.761,36.951,20.526,33.089,31.928,7.821,7.206,11.353
1240,0.787,37.057,20.568,33.127,31.941,8.025,7.409,11.313
1241,0.784,36.713,20.592,33.108,31.935,8.027,7.208,11.11
1242,0.79,36.825,20.592,33.108,31.931,8.027,7.206,10.985
1243,0.797,36.941,20.592,33.108,31.935,8.149,7.206,10.781
1244,0.8,37.019,20.573,33.108,31.931,8.232,7.206,10.779
1245,0.803,36.818,20.495,33.108,31.931,8.151,7.165,10.616
1246,0.797,36.96,20.502,33.079,31.921,8.069,7.002,10.411
1247,0.787,37.048,20.58,33.089,31.928,8.191,7.123,10.409
1248,0.784,37.106,20.561,33.089,31.931,8.192,7.124,10.328
1249,0.78,36.656,20.475,33.079,31.931,8.192,7.002,10.165
1250,0.774,36.796,20.521,33.069,31.924,8.11,7.001,10.204
1251,0.78,36.902,20.537,33.088,31.934,8.232,7.041,10.204
1252,0.787,36.817,20.56,33.117,31.945,8.314,7.123,10.082
1253,0.78,36.836,20.553,33.089,31.931,8.193,6.921,9.959
1254,0.787,36.941,20.608,33.089,31.935,8.192,6.959,9.835
1255,0.774,37.057,20.592,33.117,31.931,8.192,7.041,9.753
1256,0.784,36.675,20.569,33.108,31.935,8.273,7.001,9.752
1257,0.787,36.757,20.604,33.089,31.931,8.071,6.919,9.549
1258,0.787,36.864,20.588,33.07,31.928,8.028,6.919,9.466
1259,0.8,36.951,20.499,33.088,31.928,8.068,6.837,9.424
1260,0.8,36.607,20.556,33.089,31.928,8.028,6.877,9.261
1261,0.807,36.718,20.565,33.079,31.921,7.987,6.755,9.178
1262,0.8,36.844,20.557,33.06,31.924,7.946,6.836,9.218
1263,0.813,36.951,20.588,33.108,31.938,8.108,6.918,9.3
1264,0.826,36.77,20.616,33.127,31.938,8.028,6.796,9.097
1265,0.813,36.873,20.561,33.156,31.931,7.946,6.795,9.014
1266,0.82,36.999,20.549,33.089,31.935,7.864,6.877,8.932
1267,0.826,37.039,20.615,33.089,31.935,7.822,6.877,8.931
1268,0.826,36.55,20.553,33.089,31.942,7.822,6.796,8.809
1269,0.817,36.699,20.522,33.079,31.924,7.619,6.673,8.645
1270,0.81,36.767,20.603,33.069,31.934,7.698,6.794,8.725
1271,0.816,36.825,20.577,33.079,31.935,7.658,6.795,8.644
1272,0.807,36.816,20.592,33.069,31.935,7.576,6.795,8.603
1273,0.813,36.951,20.596,33.06,31.928,7.616,6.755,8.562
1274,0.807,37.048,20.592,33.05,31.921,7.576,6.836,8.602
1275,0.826,37.039,20.526,33.117,31.934,7.698,6.999,8.602
1276,0.826,36.771,20.529,33.089,31.935,7.618,6.838,8.521
1277,0.817,36.902,20.568,33.06,31.938,7.617,6.918,8.398
1278,0.839,36.98,20.522,33.088,31.935,7.535,6.837,8.397
1279,0.836,36.626,20.498,33.108,31.935,7.534,6.877,8.356
1280,0.849,36.719,20.533,33.089,31.938,7.534,6.877,8.275
1281,0.846,36.806,20.521,33.041,31.921,7.412,6.715,8.193
1282,0.843,36.912,20.56,33.069,31.928,7.452,6.835,8.192
1283,0.856,36.587,20.6,33.06,31.931,7.371,6.837,8.151
1284,0.853,36.709,20.612,33.05,31.924,7.411,6.837,8.028
1285,0.849,36.825,20.604,33.04,31.928,7.289,6.796,8.068
1286,0.859,36.922,20.581,33.079,31.941,7.491,6.999,8.191
1287,0.872,36.635,20.616,33.079,31.945,7.453,6.879,8.151
1288,0.863,36.757,20.538,33.06,31.935,7.371,6.877,8.069
1289,0.862,36.883,20.568,33.06,31.931,7.37,6.877,8.069
1290,0.866,36.942,20.569,33.069,31.935,7.289,6.796,8.069
1291,0.866,36.751,20.545,33.06,31.938,7.41,6.836,8.191
1292,0.862,36.892,20.576,33.06,31.935,7.33,6.755,8.151
1293,0.859,36.98,20.588,33.031,31.928,7.37,6.795,8.313
1294,0.879,37.039,20.62,33.05,31.938,7.492,6.836,8.518
1295,0.876,36.493,20.577,33.127,31.931,7.494,6.796,8.601
1296,0.882,36.631,20.576,33.051,31.931,7.534,6.755,8.724
1297,0.872,36.709,20.592,33.031,31.931,7.494,6.795,9.01
1298,0.882,36.777,20.542,33.079,31.938,7.778,6.958,9.42
1299,0.905,36.643,20.588,33.089,31.935,7.659,6.838,9.424
1300,0.889,36.757,20.573,33.05,31.935,7.698,6.796,9.668
1301,0.899,36.845,20.553,33.069,31.928,7.658,6.917,9.955
1302,0.908,36.673,20.576,33.088,31.938,7.78,6.878,10.161
1303,0.908,36.709,20.545,33.089,31.938,7.781,6.837,10.163
1304,0.912,36.806,20.557,33.05,31.924,7.659,6.714,10.204
1305,0.918,36.922,20.549,33.06,31.931,7.698,6.794,10.326
1306,0.922,36.434,20.518,33.05,31.931,7.658,6.836,10.408
1307,0.931,36.563,20.592,33.05,31.931,7.617,6.796,10.328
1308,0.922,36.67,20.506,33.031,31.928,7.535,6.714,10.408
1309,0.918,36.767,20.541,33.059,31.931,7.657,6.835,10.572
1310,0.931,36.557,20.568,33.088,31.942,7.658,6.958,10.533
1311,0.922,36.641,20.522,33.07,31.931,7.536,6.797,10.451
1312,0.925,36.786,20.56,33.06,31.938,7.534,6.795,10.41
1313,0.931,36.864,20.553,33.05,31.938,7.534,6.795,10.491
1314,0.928,36.52,20.615,33.06,31.935,7.534,6.877,10.451
1315,0.925,36.66,20.573,33.079,31.931,7.412,6.796,10.288
1316,0.925,36.757,20.545,33.041,31.921,7.289,6.714,10.164
1317,0.925,36.806,20.615,33.069,31.934,7.41,6.835,10.285
1318,0.944,36.586,20.553,33.05,31.931,7.33,6.796,10.164
1319,0.945,36.709,20.568,33.05,31.924,7.329,6.795,10.082
1320,0.961,36.815,20.588,33.031,31.921,7.37,6.836,10.081
1321,0.968,36.836,20.612,33.069,31.934,7.33,6.958,10.203
1322,0.99,36.596,20.589,33.088,31.945,7.451,6.96,10.204
1323,0.984,36.709,20.565,33.06,31.931,7.33,6.797,10.041
1324,0.991,36.787,20.612,33.06,31.935,7.207,6.877,9.999
1325,0.994,36.691,20.581,33.069,31.938,7.287,6.877,9.958
1326,1.0,36.537,20.577,33.069,31.935,7.288,6.877,9.835
1327,1.004,36.641,20.623,33.06,31.931,7.288,6.796,9.794
1328,0.991,36.738,20.526,33.031,31.921,7.125,6.673,9.59
1329,0.987,36.576,20.568,33.05,31.934,7.205,6.835,9.669
1330,0.994,36.68,20.6,33.06,31.931,7.165,6.837,9.589
1331,0.991,36.805,20.62,33.05,31.928,7.165,6.796,9.547
1332,0.978,36.883,20.569,33.04,31.931,7.084,6.795,9.466
1333,0.99,36.577,20.553,33.05,31.935,7.205,6.917,9.587
1334,1.01,36.747,20.588,33.088,31.948,7.328,6.919,9.507
1335,1.004,36.854,20.549,33.06,31.935,7.167,6.837,9.384
1336,1.02,36.922,20.51,33.069,31.931,7.206,6.755,9.261
1337,1.017,36.616,20.623,33.06,31.938,7.247,6.836,9.259
1338,1.036,36.776,20.507,33.079,31.938,7.328,6.877,9.178
1339,1.053,36.893,20.541,33.079,31.935,7.289,6.796,9.096
1340,1.037,36.932,20.553,33.012,31.928,7.166,6.714,9.014
1341,1.056,36.674,20.545,33.059,31.931,7.368,6.794,8.891
1342,1.056,36.805,20.576,33.06,31.931,7.289,6.714,8.89
1343,1.063,36.912,20.561,33.04,31.931,7.369,6.713,8.768
1344,1.066,36.952,20.615,33.031,31.924,7.289,6.713,8.685
1345,1.069,36.693,20.589,33.117,31.931,7.532,6.754,8.807
1346,1.086,36.882,20.577,33.089,31.945,7.494,6.754,8.645
1347,1.083,36.951,20.608,33.05,31.935,7.494,6.714,8.603
1348,1.079,37.297,20.53,33.05,31.931,7.412,6.754,8.521
1349,1.07,36.831,20.549,33.05,31.931,7.493,6.836,8.479
1350,1.079,36.941,20.588,33.06,31.938,7.494,6.796,8.479
1351,1.079,37.048,20.553,33.05,31.931,7.412,6.673,8.316
1352,1.07,36.8,20.553,33.012,31.924,7.411,6.591,8.234
1353,1.066,36.845,20.6,33.059,31.934,7.452,6.631,8.233
1354,1.069,36.97,20.612,33.04,31.931,7.412,6.631,8.192
1355,1.069,37.077,20.565,33.05,31.931,7.493,6.631,8.151
1356,1.069,37.02,20.569,33.012,31.931,7.453,6.55,7.988
1357,1.066,37.164,20.623,33.069,31.935,7.656,6.793,8.149
1358,1.102,37.318,20.577,33.098,31.942,7.658,6.633,8.11
1359,1.093,37.368,20.502,33.05,31.931,7.617,6.672,7.947
1360,1.089,36.956,20.584,33.06,31.931,7.617,6.631,7.864
1361,1.105,37.077,20.491,33.069,31.938,7.698,6.631,7.944
1362,1.106,37.231,20.548,33.05,31.935,7.78,6.631,7.823
1363,1.102,37.29,20.561,33.06,31.931,7.7,6.509,7.7
1364,1.102,37.118,20.537,33.021,31.921,7.658,6.549,7.821
1365,1.102,37.26,20.564,33.031,31.928,7.739,6.549,7.822
1366,1.102,37.377,20.545,33.031,31.931,7.781,6.508,7.903
1367,1.112,37.426,20.592,33.021,31.924,7.7,6.549,7.945
1368,1.109,37.264,20.506,33.031,31.921,7.618,6.549,8.148
1369,1.109,37.425,20.502,33.126,31.941,7.779,6.671,8.476
1370,1.122,37.561,20.529,33.07,31.949,7.781,6.672,8.642
1371,1.116,37.543,20.584,33.041,31.931,7.7,6.631,8.887
1372,1.102,37.61,20.616,33.031,31.931,7.699,6.672,9.256
1373,1.112,37.754,20.593,33.05,31.942,7.699,6.713,9.707
1374,1.115,37.861,20.616,33.05,31.935,7.658,6.672,9.955
1375,1.112,37.709,20.557,33.05,31.931,7.576,6.672,10.242
1376,1.096,37.573,20.553,33.021,31.917,7.575,6.631,10.57
1377,1.112,37.706,20.635,33.04,31.931,7.575,6.672,10.777
1378,1.115,37.803,20.569,33.031,31.928,7.535,6.753,10.942
1379,1.125,37.804,20.526,33.031,31.928,7.575,6.754,10.943
1380,1.103,37.919,20.521,33.021,31.928,7.494,6.754,11.106
1381,1.119,38.045,20.572,33.059,31.935,7.697,6.876,11.311
1382,1.132,38.171,20.596,33.069,31.945,7.699,6.918,11.272
1383,1.116,37.798,20.585,33.031,31.931,7.699,6.796,11.231
1384,1.119,37.929,20.627,33.031,31.931,7.658,6.877,11.231
1385,1.119,38.055,20.597,33.031,31.935,7.658,6.959,11.271
1386,1.119,38.142,20.585,33.05,31.935,7.658,6.96,11.231
1387,1.132,38.105,20.616,33.021,31.935,7.617,6.838,10.987
1388,1.103,38.191,20.538,33.011,31.924,7.617,6.877,11.025
1389,1.109,38.345,20.6,33.03,31.934,7.617,6.918,11.025
1390,1.106,38.376,20.542,33.021,31.935,7.657,6.837,10.985
1391,1.099,38.155,20.564,33.031,31.924,7.576,6.877,10.903
1392,1.086,38.278,20.569,33.031,31.928,7.575,6.877,10.943
1393,1.096,38.404,20.545,33.04,31.945,7.698,6.959,11.065
1394,1.102,38.482,20.611,33.069,31.942,7.658,6.96,10.944
1395,1.099,38.281,20.421,33.06,31.924,7.536,6.96,10.984
1396,1.076,38.413,20.559,33.05,31.931,7.534,6.878,11.025
1397,1.086,38.51,20.584,33.05,31.938,7.494,6.918,11.066
1398,1.073,38.828,20.553,33.05,31.938,7.494,6.919,10.944
1399,1.089,38.543,20.615,33.107,31.935,7.412,6.796,10.821
1400,1.086,38.617,20.589,33.022,31.917,7.371,6.755,10.82
1401,1.086,38.733,20.631,33.031,31.931,7.37,6.836,10.779
1402,1.076,38.6,20.612,33.031,31.928,7.33,6.837,10.738
1403,1.07,38.675,20.557,33.021,31.928,7.289,6.796,10.697
1404,1.056,38.762,20.647,33.021,31.924,7.247,6.795,10.616
1405,1.056,38.888,20.612,33.031,31.934,7.328,6.958,10.777
1406,1.073,38.611,20.592,33.069,31.942,7.289,6.838,10.657
1407,1.056,38.685,20.639,33.041,31.928,7.207,6.877,10.615
1408,1.037,38.81,20.581,33.031,31.938,7.206,6.837,10.696
1409,1.037,38.917,20.577,33.05,31.935,7.328,6.877,10.575
1410,1.017,38.765,20.604,33.05,31.931,7.289,6.877,10.614
1411,1.014,38.897,20.569,33.06,31.921,7.207,6.715,10.452
1412,0.984,38.966,20.573,33.012,31.924,7.125,6.713,10.45
1413,1.0,39.063,20.58,33.04,31.931,7.165,6.754,10.369
1414,0.987,38.968,20.604,33.012,31.928,7.165,6.754,10.287
1415,0.952,39.091,20.518,33.03,31.921,7.084,6.673,10.164
1416,0.971,39.198,20.537,33.011,31.931,7.002,6.713,10.163
1417,0.971,39.237,20.611,33.04,31.938,7.163,6.876,10.326
1418,0.981,39.046,20.511,33.059,31.945,7.084,6.837,10.043
1419,0.981,39.15,20.513,33.108,31.942,7.042,6.837,10.04
1420,0.971,39.266,20.56,33.051,31.931,7.042,6.837,9.918
1421,0.974,39.248,20.553,33.031,31.931,7.082,6.877,9.916
1422,0.964,39.065,20.576,33.05,31.935,7.123,6.877,9.916
1423,0.951,39.198,20.576,33.031,31.928,7.002,6.755,9.713
1424,0.928,39.247,20.58,33.011,31.917,6.96,6.795,9.67
1425,0.928,39.209,20.545,33.03,31.934,6.96,6.755,9.629
1426,0.925,39.209,20.568,33.021,31.931,6.96,6.795,9.466
1427,0.918,39.324,20.596,33.031,31.924,6.96,6.795,9.302
1428,0.902,39.373,20.471,33.021,31.931,6.96,6.836,9.301
1429,0.892,39.134,20.575,33.031,31.931,7.0,6.918,9.341
1430,0.892,39.275,20.623,33.098,31.945,7.041,6.959,9.301
1431,0.869,39.363,20.585,33.05,31.935,6.879,6.878,9.178
1432,0.866,39.45,20.616,33.031,31.938,6.877,6.877,9.096
1433,0.869,39.192,20.643,33.05,31.935,6.918,6.837,9.095
1434,0.859,39.352,20.632,33.05,31.938,6.878,6.918,9.014
1435,0.856,39.431,20.534,33.06,31.938,6.796,6.756,8.85
1436,0.846,39.48,20.557,33.021,31.921,6.755,6.836,8.849
1437,0.849,39.269,20.6,33.04,31.934,6.836,6.877,8.808
1438,0.849,39.401,20.585,33.05,31.931,6.674,6.796,8.645
1439,0.856,39.508,20.456,33.031,31.931,6.713,6.673,8.603
1440,0.84,39.547,20.548,33.04,31.931,6.713,6.916,8.643
1441,0.856,39.279,20.522,33.059,31.942,6.794,6.959,8.644
1442,0.859,39.43,20.517,33.05,31.931,6.714,6.797,8.521
1443,0.84,39.489,20.564,33.05,31.924,6.672,6.877,8.398
1444,0.836,39.518,20.584,33.05,31.931,6.794,6.796,8.478
1445,0.839,39.298,20.514,33.05,31.938,6.836,6.795,8.357
1446,0.843,39.43,20.549,33.04,31.938,6.837,6.755,8.275
1447,0.836,39.489,20.592,33.002,31.917,6.755,6.673,8.111
1448,0.807,39.528,20.553,33.011,31.931,6.836,6.794,8.191
1449,0.803,39.27,20.475,33.05,31.931,6.877,6.755,8.07
1450,0.8,39.382,20.529,33.04,31.931,6.877,6.714,8.069
1451,0.784,39.46,20.482,33.021,31.928,6.918,6.632,7.987
1452,0.787,39.365,20.544,33.04,31.924,7.081,6.794,7.986
1453,0.793,39.498,20.596,33.079,31.941,7.367,6.917,8.068
1454,0.793,39.605,20.596,33.05,31.931,7.33,6.756,7.946
1455,0.774,39.673,20.6,33.05,31.931,7.41,6.754,7.945
1456,0.787,39.233,20.608,33.05,31.935,7.493,6.754,7.864
1457,0.79,39.353,20.635,33.06,31.931,7.616,6.795,7.822
1458,0.79,39.46,20.655,33.05,31.931,7.657,6.755,7.781
1459,0.78,39.518,20.573,33.012,31.921,7.658,6.551,7.618
1460,0.774,39.221,20.561,33.03,31.931,7.902,6.712,7.739
1461,0.787,39.362,20.623,33.05,31.928,7.945,6.713,7.862
1462,0.787,39.469,20.62,33.031,31.931,7.986,6.672,7.944
1463,0.787,39.528,20.585,33.021,31.924,7.986,6.591,7.945
1464,0.787,39.96,20.631,33.059,31.934,8.068,6.712,8.23
1465,0.797,40.127,20.558,33.06,31.948,8.231,6.754,8.314
1466,0.8,40.206,20.569,33.04,31.938,8.07,6.632,8.437
1467,0.794,40.206,20.596,33.05,31.938,8.109,6.631,8.601
1468,0.787,38.941,20.592,33.05,31.935,8.15,6.672,8.806
1469,0.774,39.072,20.534,33.06,31.931,8.15,6.672,8.93
1470,0.777,39.198,20.537,33.05,31.931,8.15,6.591,9.093
1471,0.758,39.161,20.572,33.021,31.917,7.988,6.549,9.176
1472,0.767,39.4,20.569,33.031,31.927,8.108,6.63,9.34
1473,0.764,39.518,20.557,33.04,31.928,8.109,6.631,9.423
1474,0.761,39.624,20.588,33.031,31.931,8.069,6.631,9.464
1475,0.748,39.433,20.581,33.031,31.924,8.028,6.631,9.587
1476,0.76,39.48,20.541,33.069,31.941,8.231,6.834,9.71
1477,0.777,39.624,20.611,33.079,31.945,8.111,6.674,9.67
1478,0.761,39.664,20.581,33.05,31.935,8.15,6.713,9.67
1479,0.78,39.06,20.498,33.06,31.928,8.15,6.713,9.711
1480,0.777,39.159,20.505,33.06,31.935,8.191,6.754,9.63
1481,0.774,39.275,20.541,33.079,31.938,8.273,6.795,9.67
1482,0.774,39.363,20.6,33.05,31.924,8.071,6.633,9.589
1483,0.764,39.124,20.585,33.021,31.924,8.15,6.712,9.588
1484,0.77,39.275,20.639,33.05,31.934,8.232,6.632,9.507
1485,0.777,39.382,20.538,33.06,31.931,8.233,6.631,9.384
1486,0.774,39.45,20.557,33.021,31.924,8.151,6.55,9.261
1487,0.774,39.24,20.588,33.031,31.924,8.15,6.59,9.422
1488,0.764,39.382,20.635,33.069,31.941,8.354,6.793,9.505
1489,0.77,39.546,20.554,33.079,31.935,8.275,6.673,9.343
1490,0.761,39.548,20.58,33.05,31.924,8.233,6.672,9.382
1491,0.757,39.135,20.616,33.06,31.934,8.192,6.672,9.261
1492,0.748,39.275,20.553,33.079,31.935,8.192,6.672,9.381
1493,0.754,39.382,20.568,33.05,31.938,8.151,6.672,9.261
1494,0.751,39.383,20.573,33.012,31.924,7.947,6.469,9.056
1495,0.748,39.211,20.506,33.069,31.931,8.026,6.589,9.135
1496,0.754,39.362,20.548,33.06,31.935,8.027,6.549,9.095
1497,0.757,39.44,20.565,33.06,31.921,7.946,6.468,9.054
1498,0.761,39.365,20.576,33.05,31.928,7.864,6.467,9.013
1499,0.764,39.182,20.522,33.04,31.924,7.944,6.589,9.013
1500,0.783,39.333,20.584,33.107,31.941,8.108,6.631,9.013
1501,0.771,39.402,20.62,33.07,31.931,7.947,6.55,8.972
1502,0.774,39.048,20.596,33.06,31.931,7.864,6.63,8.891
1503,0.774,39.14,20.616,33.05,31.928,7.863,6.631,8.89
1504,0.771,39.256,20.581,33.069,31.938,7.782,6.631,8.849
1505,0.78,39.315,20.565,33.069,31.924,7.659,6.55,8.646
1506,0.767,39.037,20.541,33.041,31.914,7.536,6.59,8.806
1507,0.774,39.188,20.584,33.059,31.927,7.697,6.671,8.645
1508,0.767,39.304,20.573,33.04,31.924,7.618,6.631,8.644
1509,0.757,39.373,20.51,33.059,31.928,7.495,6.672,8.521
1510,0.754,39.019,20.619,33.05,31.917,7.453,6.631,8.642
1511,0.751,39.188,20.608,33.06,31.938,7.574,6.753,8.684
1512,0.77,39.333,20.631,33.088,31.942,7.575,6.795,8.522
1513,0.764,39.354,20.632,33.06,31.931,7.454,6.714,8.52
1514,0.754,39.114,20.597,33.069,31.931,7.452,6.713,8.439
1515,0.757,39.246,20.608,33.079,31.935,7.412,6.713,8.438
1516,0.767,39.391,20.585,33.079,31.931,7.371,6.754,8.397
1517,0.751,39.422,20.608,33.069,31.928,7.208,6.632,8.194
1518,0.764,39.058,20.573,33.041,31.921,7.247,6.712,8.273
1519,0.761,39.198,20.553,33.069,31.931,7.328,6.713,8.193
1520,0.777,39.314,20.537,33.05,31.931,7.207,6.672,8.151
1521,0.78,39.44,20.529,33.069,31.921,7.206,6.631,8.11
1522,0.774,39.048,20.557,33.031,31.924,7.206,6.631,8.109
1523,0.78,39.207,20.569,33.079,31.934,7.287,6.875,8.272
1524,0.787,39.333,20.569,33.079,31.938,7.207,6.755,8.071
1525,0.777,39.066,20.553,33.06,31.931,7.206,6.714,8.109
1526,0.78,39.121,20.561,33.069,31.931,7.125,6.713,8.028
1527,0.784,39.237,20.596,33.079,31.935,7.124,6.835,8.027
1528,0.774,39.334,20.596,33.069,31.935,7.124,6.755,7.946
1529,0.761,38.855,20.565,33.05,31.924,6.961,6.632,7.742
1530,0.751,38.946,20.545,33.06,31.928,7.041,6.794,7.903
1531,0.757,39.091,20.572,33.069,31.928,7.123,6.755,7.863
1532,0.761,39.169,20.604,33.06,31.924,7.043,6.714,7.782
1533,0.751,38.95,20.604,33.05,31.928,7.001,6.713,7.74
1534,0.751,39.082,20.585,33.05,31.931,7.082,6.794,7.699
1535,0.764,39.198,20.6,33.098,31.938,7.205,6.999,7.902
1536,0.777,39.305,20.588,33.089,31.935,7.165,6.879,7.782
1537,0.761,38.845,20.584,33.06,31.935,7.165,6.877,7.7
1538,0.774,38.985,20.627,33.088,31.928,7.165,6.837,7.699
1539,0.777,39.091,20.6,33.079,31.935,7.206,6.877,7.699
1540,0.777,39.169,20.569,33.089,31.931,7.247,6.918,7.618
1541,0.777,38.863,20.576,33.031,31.921,7.125,6.796,7.495
1542,0.784,39.004,20.588,33.079,31.931,7.205,6.917,7.494
1543,0.78,39.12,20.557,33.089,31.931,7.247,6.878,7.494
1544,0.787,39.141,20.604,33.07,31.931,7.166,6.877,7.453
1545,0.787,38.863,20.569,33.05,31.921,7.124,6.837,7.412
1546,0.774,38.985,20.569,33.05,31.931,7.124,6.918,7.452
1547,0.797,39.111,20.576,33.088,31.945,7.327,7.0,7.574
1548,0.787,39.026,20.612,33.079,31.931,7.207,6.919,7.413
1549,0.767,38.9,20.503,33.079,31.931,7.287,6.919,7.411
1550,0.764,39.023,20.548,33.089,31.931,7.329,6.919,7.371
1551,0.774,39.13,20.529,33.089,31.942,7.289,6.919,7.33
1552,0.764,38.767,20.537,33.07,31.935,7.369,6.837,7.207
1553,0.754,38.802,20.541,33.05,31.917,7.208,6.755,7.247
1554,0.761,38.946,20.561,33.079,31.927,7.328,6.876,7.288
1555,0.764,39.024,20.561,33.079,31.935,7.289,6.796,7.125
1556,0.761,38.756,20.553,33.069,31.928,7.288,6.755,7.165
1557,0.764,38.888,20.588,33.069,31.928,7.288,6.836,7.206
1558,0.777,39.014,20.655,33.069,31.931,7.532,6.877,7.369
1559,0.787,39.101,20.593,33.098,31.942,7.453,6.837,7.37
1560,0.777,38.68,20.557,33.089,31.935,7.452,6.837,7.492
1561,0.774,38.82,20.619,33.079,31.928,7.493,6.877,7.575
1562,0.784,38.936,20.596,33.098,31.935,7.534,6.918,7.738
1563,0.79,39.005,20.604,33.108,31.938,7.657,6.919,7.821
1564,0.78,38.708,20.596,33.079,31.924,7.536,6.796,7.822
1565,0.774,38.82,20.518,33.06,31.917,7.616,6.877,8.188
1566,0.777,38.946,20.584,33.079,31.927,7.617,6.837,8.354
1567,0.767,38.966,20.604,33.069,31.924,7.576,6.877,8.519
1568,0.77,38.497,20.6,33.069,31.928,7.575,6.796,8.723
1569,0.761,38.626,20.53,33.069,31.931,7.616,6.877,8.888
1570,0.774,38.771,20.592,33.117,31.942,7.739,7.0,9.174
1571,0.774,39.166,20.581,33.089,31.938,7.618,6.919,9.137
1572,0.758,38.786,20.569,33.089,31.928,7.739,6.837,9.258
1573,0.764,38.917,20.6,33.079,31.938,7.74,6.877,9.341
1574,0.764,39.024,20.62,33.098,31.931,7.862,6.918,9.423
1575,0.764,38.622,20.593,33.098,31.931,7.863,6.878,9.424
1576,0.751,38.618,20.577,33.089,31.924,7.7,6.755,9.302
1577,0.748,38.743,20.565,33.089,31.931,7.821,6.836,9.382
1578,0.76,38.849,20.608,33.089,31.928,7.944,6.796,9.342
1579,0.77,38.467,20.514,33.089,31.924,7.945,6.714,9.342
1580,0.764,38.597,20.541,33.089,31.924,7.905,6.754,9.382
1581,0.78,38.704,20.545,33.079,31.928,8.067,6.795,9.423
1582,0.784,38.82,20.568,33.127,31.941,8.109,6.917,9.424
1583,0.78,38.543,20.619,33.118,31.931,8.028,6.796,9.383
1584,0.784,38.656,20.612,33.099,31.931,8.027,6.795,9.342
1585,0.793,38.762,20.577,33.108,31.931,8.027,6.795,9.26
1586,0.78,38.83,20.565,33.108,31.938,8.109,6.877,9.3
1587,0.79,38.534,20.608,33.089,31.935,8.109,6.796,9.26
1588,0.767,38.655,20.647,33.079,31.924,7.947,6.714,9.178
1589,0.761,38.772,20.558,33.079,31.934,8.067,6.794,9.259
1590,0.774,38.821,20.572,33.089,31.928,8.028,6.755,9.259
1591,0.767,38.409,20.557,33.079,31.924,7.987,6.673,9.219
1592,0.751,38.539,20.592,33.079,31.924,7.905,6.672,9.178
1593,0.748,38.656,20.565,33.098,31.931,7.985,6.794,9.421
1594,0.767,38.695,20.576,33.165,31.942,8.108,6.877,9.383
1595,0.764,38.523,20.573,33.099,31.928,7.987,6.796,9.382
1596,0.761,38.655,20.553,33.108,31.928,7.986,6.714,9.423
1597,0.767,38.743,20.592,33.118,31.931,7.946,6.754,9.424
1598,0.774,38.562,20.6,33.118,31.935,7.945,6.754,9.464
1599,0.777,38.464,20.577,33.127,31.931,7.986,6.714,9.383
1600,0.764,38.568,20.557,33.079,31.924,7.864,6.591,9.342
1601,0.767,38.675,20.549,33.098,31.924,8.026,6.753,9.423
1602,0.777,38.331,20.6,33.108,31.928,8.149,6.632,9.505
1603,0.764,38.433,20.577,33.098,31.928,8.15,6.672,9.384
1604,0.77,38.539,20.565,33.089,31.924,8.15,6.753,9.423
1605,0.774,38.627,20.592,33.127,31.938,8.395,6.795,9.464
1606,0.793,38.311,20.569,33.137,31.942,8.356,6.714,9.383
1607,0.774,38.423,20.549,33.108,31.931,8.275,6.632,9.301
1608,0.764,38.549,20.615,33.108,31.931,8.274,6.753,9.26
1609,0.754,38.608,20.522,33.118,31.935,8.396,6.714,9.259
1610,0.757,38.311,20.549,33.118,31.942,8.356,6.754,9.219
1611,0.754,38.442,20.611,33.108,31.924,8.315,6.592,9.015
1612,0.748,38.53,20.592,33.098,31.928,8.274,6.671,9.054
1613,0.757,38.607,20.596,33.118,31.931,8.233,6.631,9.054
1614,0.754,38.359,20.592,33.108,31.928,8.233,6.631,8.932
1615,0.748,38.462,20.624,33.108,31.924,8.233,6.55,8.89
1616,0.747,38.588,20.561,33.127,31.924,8.192,6.63,8.93
1617,0.754,38.627,20.6,33.127,31.945,8.314,6.753,8.931
1618,0.77,38.426,20.651,33.137,31.942,8.193,6.632,8.728
1619,0.767,38.511,20.511,33.118,31.938,8.192,6.59,8.726
1620,0.757,38.617,20.521,33.127,31.931,8.192,6.631,8.685
1621,0.761,38.771,20.517,33.127,31.938,8.151,6.631,8.644
1622,0.767,38.389,20.541,33.127,31.935,8.11,6.59,8.603
1623,0.767,38.491,20.553,33.099,31.928,7.947,6.468,8.358
1624,0.754,38.569,20.588,33.089,31.924,8.026,6.629,8.437
1625,0.774,38.464,20.573,33.127,31.931,7.987,6.55,8.357
1626,0.751,38.568,20.569,33.118,31.928,7.946,6.468,8.275
1627,0.754,38.675,20.6,33.108,31.924,7.945,6.507,8.193
1628,0.748,38.762,20.627,33.118,31.934,7.986,6.63,8.232
1629,0.741,38.178,20.581,33.146,31.945,7.946,6.672,8.273
1630,0.744,38.278,20.565,33.128,31.935,7.864,6.591,8.071
1631,0.744,38.384,20.557,33.137,31.935,7.822,6.631,8.069
1632,0.744,38.462,20.584,33.127,31.935,7.863,6.631,7.987
1633,0.734,38.329,20.565,33.137,31.935,7.782,6.712,8.027
1634,0.747,38.462,20.584,33.127,31.928,7.7,6.551,7.946
1635,0.734,38.53,20.58,33.118,31.921,7.536,6.63,7.864
1636,0.738,38.636,20.569,33.137,31.934,7.657,6.672,7.822
1637,0.738,38.321,20.608,33.127,31.924,7.576,6.631,7.781
1638,0.747,38.433,20.655,33.118,31.924,7.494,6.59,7.74
1639,0.744,38.52,20.597,33.118,31.924,7.494,6.631,7.618
1640,0.757,38.617,20.612,33.146,31.934,7.656,6.916,7.861
1641,0.77,38.378,20.647,33.137,31.938,7.455,6.715,7.7
1642,0.761,38.5,20.605,33.137,31.931,7.452,6.754,7.618
1643,0.764,38.607,20.6,33.127,31.928,7.452,6.754,7.617
1644,0.767,38.627,20.6,33.147,31.935,7.493,6.795,7.657
1645,0.777,38.263,20.608,33.137,31.931,7.453,6.714,7.536
1646,0.761,38.403,20.592,33.108,31.917,7.29,6.551,7.331
1647,0.744,38.472,20.561,33.127,31.921,7.369,6.63,7.41
1648,0.738,38.367,20.604,33.118,31.938,7.33,6.672,7.411
1649,0.741,38.366,20.577,33.127,31.931,7.289,6.591,7.452
1650,0.741,38.51,20.6,33.118,31.924,7.288,6.631,7.452
1651,0.728,38.588,20.592,33.127,31.924,7.288,6.672,7.615
1652,0.734,38.272,20.545,33.156,31.945,7.491,6.794,7.779
1653,0.725,38.365,20.607,33.166,31.931,7.29,6.714,7.7
1654,0.737,38.5,20.542,33.147,31.928,7.288,6.672,7.861
1655,0.731,38.569,20.631,33.156,31.938,7.247,6.753,8.107
1656,0.734,38.407,20.538,33.176,31.935,7.328,6.795,8.272
1657,0.728,38.51,20.553,33.157,31.931,7.248,6.755,8.355
1658,0.741,38.607,20.572,33.109,31.931,7.247,6.714,8.681
1659,0.754,38.685,20.588,33.137,31.931,7.206,6.794,8.807
1660,0.738,38.235,20.557,33.127,31.931,7.165,6.795,8.848
1661,0.744,38.346,20.561,33.127,31.924,7.084,6.795,8.93
1662,0.741,38.452,20.572,33.127,31.934,7.164,6.795,9.093
1663,0.754,38.549,20.569,33.166,31.938,7.287,7.039,9.38
1664,0.761,38.473,20.537,33.166,31.935,7.125,6.839,9.301
1665,0.757,38.569,20.623,33.137,31.931,7.124,6.837,9.26
1666,0.744,38.704,20.604,33.214,31.931,7.124,6.755,9.381
1667,0.747,38.734,20.561,33.157,31.931,7.165,6.876,9.382
1668,0.747,38.283,20.631,33.147,31.935,7.124,6.837,9.423
1669,0.738,38.413,20.632,33.137,31.924,6.961,6.714,9.22
1670,0.731,38.491,20.597,33.137,31.924,7.0,6.794,9.34
1671,0.728,38.559,20.6,33.156,31.931,6.96,6.795,9.219
1672,0.725,38.406,20.577,33.147,31.921,6.96,6.714,9.218
1673,0.721,38.53,20.545,33.128,31.921,6.96,6.713,9.178
1674,0.731,38.607,20.525,33.147,31.924,6.919,6.794,9.218
1675,0.728,38.301,20.603,33.176,31.941,7.122,6.917,9.422
1676,0.744,38.423,20.581,33.185,31.931,6.961,6.756,9.261
1677,0.728,38.52,20.569,33.166,31.931,6.919,6.714,9.341
1678,0.728,38.598,20.58,33.147,31.935,6.959,6.794,9.301
1679,0.744,38.196,20.565,33.166,31.938,6.96,6.755,9.423
1680,0.744,38.326,20.53,33.166,31.938,6.96,6.714,9.383
1681,0.738,38.414,20.537,33.157,31.917,6.716,6.551,9.301
1682,0.738,38.491,20.584,33.156,31.931,6.835,6.63,9.423
1683,0.751,38.31,20.6,33.156,31.931,6.837,6.712,9.383
1684,0.744,38.452,20.577,33.156,31.924,6.837,6.632,9.382
1685,0.754,38.54,20.6,33.128,31.921,6.837,6.631,9.342
1686,0.744,38.617,20.588,33.166,31.931,6.918,6.712,9.504
1687,0.757,38.273,20.592,33.176,31.945,6.959,6.794,9.506
1688,0.757,38.404,20.655,33.166,31.931,6.797,6.673,9.425
1689,0.735,38.491,20.558,33.176,31.931,6.877,6.672,9.464
1690,0.734,38.54,20.526,33.185,31.931,6.837,6.672,9.505
1691,0.731,38.387,20.603,33.157,31.938,6.837,6.713,9.506
1692,0.731,38.51,20.573,33.176,31.924,6.837,6.713,9.465
1693,0.725,38.598,20.576,33.157,31.921,6.674,6.591,9.262
1694,0.728,38.637,20.584,33.166,31.931,6.794,6.671,9.3
1695,0.725,38.302,20.6,33.166,31.931,6.714,6.672,9.341
1696,0.734,38.442,20.592,33.157,31.924,6.754,6.55,9.26
1697,0.725,38.539,20.577,33.166,31.931,6.836,6.63,9.259
1698,0.737,38.253,20.635,33.176,31.935,6.918,6.712,9.3
1699,0.754,38.279,20.577,33.205,31.942,6.959,6.713,9.301
1700,0.744,38.394,20.526,33.176,31.931,6.797,6.632,9.178
1701,0.747,38.491,20.541,33.185,31.935,6.958,6.59,9.137
1702,0.747,38.214,20.564,33.185,31.935,6.96,6.631,9.055
1703,0.744,38.336,20.557,33.205,31.938,6.878,6.672,9.013
1704,0.751,38.452,20.553,33.176,31.917,6.877,6.509,8.85
1705,0.748,38.511,20.584,33.147,31.921,6.877,6.589,8.889
1706,0.751,38.185,20.549,33.176,31.924,6.877,6.549,8.768
1707,0.751,38.297,20.553,33.166,31.924,6.918,6.549,8.726
1708,0.741,38.404,20.666,33.176,31.928,6.878,6.549,8.644
1709,0.741,38.472,20.566,33.166,31.921,6.918,6.59,8.644
1710,0.738,38.185,20.572,33.204,31.941,7.041,6.712,8.887
1711,0.738,38.355,20.615,33.214,31.938,7.042,6.591,8.605
1712,0.721,38.433,20.577,33.186,31.935,7.001,6.631,8.562
1713,0.728,38.472,20.592,33.176,31.931,7.001,6.753,8.521
1714,0.734,38.348,20.561,33.185,31.931,7.001,6.754,8.439
1715,0.728,38.491,20.639,33.205,31.928,7.082,6.714,8.519
1716,0.731,38.607,20.608,33.262,31.931,7.042,6.672,8.276
1717,0.721,38.589,20.573,33.167,31.928,7.001,6.713,8.314
1718,0.737,38.244,20.639,33.204,31.921,7.082,6.713,8.315
1719,0.734,38.355,20.604,33.195,31.928,7.123,6.794,8.152
1720,0.728,38.462,20.608,33.176,31.928,7.165,6.673,8.11
1721,0.734,38.377,20.553,33.157,31.921,7.165,6.794,8.109
1722,0.738,38.213,20.584,33.214,31.938,7.368,6.958,8.232
1723,0.751,38.374,20.577,33.234,31.935,7.289,6.838,8.111
1724,0.741,38.443,20.58,33.224,31.931,7.369,6.877,8.028
1725,0.747,38.185,20.592,33.176,31.931,7.411,6.918,7.946
1726,0.751,38.297,20.491,33.214,31.938,7.452,6.837,7.945
1727,0.754,38.433,20.537,33.205,31.938,7.412,6.918,7.742
1728,0.735,38.491,20.623,33.176,31.924,7.33,6.674,7.699
1729,0.721,38.156,20.612,33.176,31.931,7.41,6.794,7.74
1730,0.734,38.335,20.557,33.185,31.924,7.411,6.836,7.74
1731,0.728,38.423,20.557,33.185,31.931,7.371,6.755,7.699
1732,0.725,38.511,20.565,33.185,31.924,7.37,6.714,7.74
1733,0.724,37.974,20.506,33.205,31.931,7.411,6.835,7.821
1734,0.731,38.151,20.545,33.224,31.945,7.574,6.958,7.944
1735,0.731,38.278,20.607,33.215,31.931,7.413,6.756,7.864
1736,0.731,38.317,20.542,33.224,31.928,7.411,6.754,7.822
1737,0.725,38.183,20.584,33.215,31.931,7.371,6.836,7.822
1738,0.737,38.307,20.643,33.234,31.931,7.411,6.877,7.822
1739,0.734,38.404,20.663,33.224,31.931,7.371,6.796,7.781
1740,0.734,38.443,20.585,33.186,31.924,7.248,6.633,7.618
1741,0.728,38.07,20.604,33.214,31.931,7.247,6.794,7.739
1742,0.741,38.238,20.6,33.205,31.928,7.206,6.795,7.781
1743,0.731,38.346,20.616,33.205,31.924,7.165,6.714,7.7
1744,0.734,38.644,20.557,33.205,31.921,7.124,6.672,7.618
1745,0.741,38.1,20.561,33.176,31.921,7.124,6.713,7.657
1746,0.738,38.258,20.561,33.233,31.938,7.205,6.835,7.78
1747,0.747,38.375,20.537,33.224,31.938,7.165,6.674,7.659
1748,0.721,38.031,20.615,33.205,31.931,7.124,6.753,7.658
1749,0.724,38.037,20.589,33.214,31.931,7.124,6.754,7.617
1750,0.721,38.181,20.588,33.224,31.931,7.165,6.795,7.657
1751,0.731,38.268,20.608,33.234,31.935,7.165,6.795,7.617
1752,0.728,38.01,20.589,33.224,31.935,7.124,6.755,7.535
1753,0.715,38.104,20.545,33.224,31.921,7.002,6.795,7.453
1754,0.721,38.258,20.568,33.224,31.934,7.041,6.755,7.534
1755,0.708,38.317,20.6,33.215,31.931,7.123,6.795,7.494
1756,0.724,37.963,20.569,33.243,31.924,7.124,6.755,7.412
1757,0.718,38.103,20.514,33.224,31.924,7.002,6.754,7.411
1758,0.728,38.21,20.588,33.205,31.924,7.163,6.917,7.574
1759,0.744,38.317,20.581,33.243,31.938,7.287,6.959,7.535
1760,0.741,37.944,20.541,33.215,31.928,7.044,6.797,7.534
1761,0.754,38.074,20.584,33.215,31.924,7.001,6.877,7.657
1762,0.751,38.191,20.608,33.234,31.931,7.041,6.877,7.658
1763,0.748,38.259,20.596,33.224,31.931,7.001,6.877,7.861
1764,0.751,37.991,20.6,33.243,31.938,7.001,6.755,7.985
1765,0.738,38.084,20.62,33.205,31.921,6.797,6.795,8.027
1766,0.741,38.21,20.585,33.234,31.924,6.999,6.917,8.312
1767,0.747,38.249,20.561,33.215,31.928,6.919,6.837,8.64
1768,0.728,37.924,20.647,33.205,31.931,6.878,6.918,8.969
1769,0.721,38.055,20.601,33.214,31.924,6.837,6.919,9.216
1770,0.724,38.162,20.53,33.243,31.934,6.918,7.081,9.747
1771,0.734,38.086,20.564,33.253,31.942,7.041,7.123,10.037
1772,0.731,37.989,20.533,33.224,31.931,6.839,7.002,10.243
1773,0.728,38.123,20.518,33.234,31.935,6.918,7.082,10.448
1774,0.725,38.22,20.537,33.243,31.935,6.919,7.123,10.572
1775,0.724,37.761,20.596,33.234,31.931,6.959,7.083,10.818
1776,0.734,37.842,20.581,33.234,31.931,6.96,7.002,10.82
1777,0.741,37.958,20.549,33.224,31.917,6.838,7.001,10.82
1778,0.744,38.046,20.654,33.243,31.931,6.918,7.001,10.901
1779,0.754,37.73,20.601,33.234,31.924,6.919,6.96,10.983
1780,0.757,37.89,20.557,33.234,31.921,6.959,7.0,10.944
1781,0.767,38.007,20.584,33.243,31.928,6.96,6.919,10.862
1782,0.783,38.084,20.573,33.253,31.938,7.122,7.122,10.983
1783,0.81,37.836,20.561,33.282,31.942,7.246,7.083,10.903
1784,0.79,37.929,20.576,33.234,31.924,7.288,7.042,10.861
1785,0.803,38.045,20.619,33.234,31.934,7.41,7.082,10.861
1786,0.816,38.104,20.565,33.243,31.924,7.533,6.961,10.861
1787,0.82,37.692,20.576,33.253,31.934,7.616,7.041,10.902
1788,0.81,37.842,20.647,33.253,31.928,7.617,6.879,10.861
1789,0.807,37.891,20.569,33.234,31.917,7.617,6.959,10.942
1790,0.813,37.968,20.58,33.263,31.931,7.698,7.0,11.024
1791,0.816,37.777,20.573,33.263,31.928,7.74,7.082,11.025
1792,0.816,37.881,20.549,33.234,31.924,7.781,6.961,10.985
1793,0.813,37.997,20.576,33.224,31.921,7.781,6.96,11.066
1794,0.82,38.305,20.588,33.243,31.934,7.944,7.163,11.27
1795,0.83,37.905,20.612,33.282,31.942,7.986,7.084,11.069
1796,0.826,37.997,20.553,33.263,31.924,7.905,7.083,11.066
1797,0.817,38.113,20.557,33.263,31.928,7.904,7.083,11.026
1798,0.826,37.644,20.596,33.263,31.935,7.863,7.123,11.025
1799,0.839,37.678,20.565,33.263,31.931,7.944,7.205,10.944
1800,0.843,37.803,20.561,33.244,31.924,7.823,7.043,10.699
1801,0.843,37.862,20.514,33.244,31.928,7.822,7.001,10.737
1802,0.856,37.536,20.556,33.253,31.928,7.863,7.041,10.697
1803,0.853,37.648,20.569,33.253,31.928,7.822,7.042,10.616
1804,0.859,37.774,20.561,33.224,31.921,7.741,7.001,10.452
1805,0.869,37.842,20.604,33.253,31.924,7.781,7.123,10.491
1806,0.876,37.623,20.592,33.282,31.945,7.862,7.124,10.41
1807,0.879,37.735,20.561,33.254,31.928,7.782,7.083,10.247
1808,0.863,37.852,20.631,33.253,31.935,7.74,7.083,10.204
1809,0.846,37.929,20.573,33.253,31.928,7.781,7.083,10.082
1810,0.853,37.604,20.557,33.282,31.938,7.74,7.042,9.999
1811,0.846,37.774,20.549,33.263,31.928,7.659,6.96,9.836
1812,0.836,37.833,20.568,33.225,31.924,7.658,6.96,9.794
1813,0.843,37.91,20.557,33.282,31.928,7.658,6.96,9.712
1814,0.843,37.594,20.557,33.263,31.928,7.576,7.0,9.548
1815,0.839,37.697,20.592,33.263,31.924,7.535,6.919,9.425
1816,0.849,37.822,20.506,33.253,31.924,7.534,6.919,9.424
1817,0.84,37.862,20.591,33.292,31.931,7.575,7.041,9.464
1818,0.862,37.594,20.6,33.311,31.945,7.657,7.042,9.343
1819,0.866,37.687,20.647,33.263,31.921,7.495,6.92,9.138
1820,0.866,37.794,20.628,33.272,31.924,7.453,6.959,9.136
1821,0.866,37.622,20.6,33.273,31.931,7.452,6.919,9.136
1822,0.869,37.601,20.604,33.292,31.938,7.493,7.0,8.974
1823,0.876,37.726,20.573,33.292,31.938,7.371,6.879,8.931
1824,0.859,37.804,20.514,33.244,31.917,7.33,6.837,8.768
1825,0.872,37.517,20.603,33.272,31.921,7.37,6.918,8.726
1826,0.866,37.629,20.549,33.273,31.931,7.37,6.919,8.644
1827,0.866,37.726,20.518,33.263,31.931,7.289,6.837,8.603
1828,0.856,37.823,20.58,33.253,31.928,7.288,6.877,8.602
1829,0.866,37.488,20.604,33.292,31.935,7.369,7.0,8.684
1830,0.879,37.638,20.553,33.321,31.938,7.289,6.919,8.522
1831,0.863,37.736,20.615,33.283,31.928,7.288,6.919,8.479
1832,0.869,37.804,20.616,33.282,31.935,7.207,7.0,8.398
1833,0.85,37.382,20.589,33.311,31.935,7.247,6.96,8.438
1834,0.872,37.522,20.561,33.283,31.942,7.206,6.919,8.438
1835,0.846,37.629,20.631,33.282,31.924,7.084,6.796,8.153
1836,0.836,37.649,20.479,33.273,31.921,7.205,6.917,8.191
1837,0.839,37.486,20.513,33.292,31.931,7.165,6.878,8.11
1838,0.839,37.609,20.591,33.282,31.924,7.084,6.837,8.109
1839,0.823,37.687,20.616,33.282,31.924,7.042,6.796,8.028
1840,0.823,37.717,20.534,33.301,31.931,7.042,6.877,8.109
1841,0.823,37.439,20.607,33.321,31.945,7.123,6.959,8.15
1842,0.833,37.571,20.589,33.302,31.931,7.083,6.878,7.988
1843,0.817,37.639,20.635,33.311,31.935,7.002,6.877,7.986
1844,0.826,37.736,20.558,33.302,31.931,7.041,6.877,7.946
1845,0.826,37.42,20.588,33.302,31.938,7.001,6.877,7.945
1846,0.8,37.57,20.577,33.321,31.935,7.041,6.918,7.864
1847,0.82,37.649,20.537,33.273,31.921,6.879,6.715,7.7
1848,0.787,37.285,20.635,33.263,31.924,7.0,6.835,7.78
1849,0.784,37.387,20.546,33.301,31.931,7.041,6.796,7.781
1850,0.777,37.503,20.506,33.292,31.928,6.96,6.755,7.659
1851,0.764,37.6,20.533,33.273,31.924,6.96,6.754,7.576
1852,0.757,37.313,20.56,33.282,31.924,7.041,6.836,7.657
1853,0.754,37.493,20.49,33.311,31.938,7.286,6.918,7.78
1854,0.764,37.619,20.552,33.321,31.924,7.207,6.837,7.578
1855,0.748,37.668,20.6,33.311,31.928,7.125,6.877,7.657
1856,0.747,37.256,20.506,33.321,31.935,7.205,6.877,7.617
1857,0.741,37.415,20.576,33.321,31.928,7.247,6.959,7.657
1858,0.747,37.532,20.662,33.321,31.928,7.369,6.919,7.536
1859,0.741,37.571,20.613,33.292,31.924,7.208,6.756,7.534
1860,0.741,37.38,20.577,33.292,31.928,7.369,6.917,7.657
1861,0.734,37.541,20.584,33.302,31.924,7.33,6.837,7.739
1862,0.731,37.667,20.573,33.302,31.928,7.37,6.796,7.781
1863,0.725,37.678,20.561,33.378,31.928,7.37,6.795,7.822
1864,0.737,37.247,20.584,33.293,31.924,7.452,6.836,8.066
1865,0.747,37.415,20.631,33.33,31.938,7.574,6.958,8.394
1866,0.751,37.532,20.468,33.331,31.928,7.413,6.878,8.478
1867,0.735,37.543,20.583,33.312,31.931,7.533,6.837,8.764
1868,0.734,37.351,20.612,33.321,31.931,7.534,6.877,9.011
1869,0.718,37.464,20.6,33.311,31.938,7.534,6.877,9.257
1870,0.711,37.59,20.588,33.321,31.938,7.534,6.796,9.3
1871,0.702,37.342,20.553,33.302,31.917,7.372,6.714,9.504
1872,0.685,37.339,20.561,33.33,31.931,7.492,6.835,9.75
1873,0.692,37.483,20.51,33.312,31.935,7.534,6.796,9.833
1874,0.695,37.571,20.521,33.311,31.928,7.494,6.795,9.956
1875,0.675,37.169,20.607,33.292,31.921,7.453,6.714,10.039
1876,0.682,37.299,20.468,33.34,31.934,7.534,6.794,10.243
1877,0.695,37.464,20.571,33.36,31.945,7.616,6.795,10.286
1878,0.688,37.523,20.565,33.341,31.931,7.454,6.755,10.164
1879,0.692,37.236,20.572,33.321,31.931,7.534,6.795,10.204
1880,0.692,37.386,20.565,33.34,31.938,7.494,6.755,10.204
1881,0.695,37.512,20.576,33.34,31.931,7.371,6.754,10.123
1882,0.695,37.6,20.561,33.331,31.931,7.33,6.673,10.0
1883,0.679,36.997,20.584,33.292,31.924,7.289,6.631,10.039
1884,0.678,37.144,20.588,33.349,31.931,7.369,6.59,9.999
1885,0.691,37.261,20.612,33.312,31.928,7.289,6.631,9.917
1886,0.682,37.329,20.573,33.311,31.921,7.329,6.631,9.835
1887,0.675,37.311,20.592,33.33,31.924,7.248,6.631,9.834
1888,0.678,37.454,20.639,33.34,31.941,7.369,6.794,9.956
1889,0.682,37.609,20.64,33.36,31.938,7.289,6.673,9.835
1890,0.669,37.611,20.612,33.341,31.931,7.207,6.672,9.794
1891,0.652,37.16,20.585,33.36,31.928,7.165,6.713,9.793
1892,0.662,37.309,20.569,33.331,31.928,7.206,6.713,9.753
1893,0.669,37.425,20.537,33.359,31.935,7.165,6.672,9.712
1894,0.659,37.407,20.525,33.331,31.921,7.124,6.509,9.508
1895,0.656,37.081,20.568,33.321,31.924,7.165,6.63,9.587
1896,0.662,37.26,20.569,33.388,31.924,7.084,6.55,9.507
1897,0.665,37.358,20.561,33.35,31.928,7.123,6.671,9.465
1898,0.659,37.1,20.6,33.331,31.928,7.083,6.509,9.465
1899,0.662,37.174,20.592,33.321,31.921,7.042,6.549,9.343
1900,0.682,37.347,20.584,33.369,31.938,7.245,6.671,9.504
1901,0.685,37.455,20.577,33.369,31.931,7.166,6.591,9.425
1902,0.675,36.986,20.6,33.36,31.938,7.165,6.59,9.342
1903,0.682,37.125,20.561,33.36,31.931,7.206,6.631,9.26
1904,0.682,37.251,20.58,33.36,31.931,7.165,6.59,9.178
1905,0.688,37.319,20.655,33.35,31.928,7.206,6.631,9.096
1906,0.685,37.013,20.558,33.321,31.917,7.043,6.468,8.932
1907,0.682,37.164,20.553,33.34,31.924,7.204,6.629,9.012
1908,0.682,37.271,20.588,33.36,31.934,7.206,6.631,8.85
1909,0.675,37.329,20.584,33.341,31.921,7.165,6.672,8.808
1910,0.675,37.08,20.545,33.34,31.924,7.084,6.631,8.767
1911,0.662,37.231,20.572,33.36,31.934,7.245,6.753,8.929
1912,0.678,37.405,20.615,33.398,31.938,7.247,6.754,8.728
1913,0.669,37.407,20.479,33.351,31.928,7.125,6.714,8.644
1914,0.675,37.1,20.544,33.35,31.931,7.165,6.713,8.603
1915,0.682,37.232,20.643,33.379,31.931,7.124,6.713,8.643
1916,0.692,37.367,20.538,33.389,31.938,7.165,6.794,8.644
1917,0.708,37.359,20.576,33.37,31.931,7.043,6.714,8.44
1918,0.734,37.138,20.545,33.331,31.917,7.001,6.672,8.438
1919,0.78,37.27,20.576,33.35,31.931,7.082,6.753,8.397
1920,0.826,37.377,20.541,33.35,31.931,7.042,6.754,8.356
1921,0.859,37.119,20.557,33.36,31.924,7.001,6.795,8.315
1922,0.901,37.088,20.572,33.341,31.928,7.001,6.714,8.437
1923,0.934,37.251,20.483,33.388,31.931,7.123,6.916,8.438
1924,1.0,37.396,20.568,33.398,31.945,7.083,6.878,8.275
1925,1.01,36.995,20.596,33.36,31.935,7.042,6.796,8.314
1926,1.036,37.115,20.495,33.379,31.931,7.042,6.877,8.234
1927,1.043,37.251,20.564,33.379,31.945,7.042,6.918,8.273
1928,1.063,37.319,20.576,33.389,31.931,7.164,6.878,8.193
1929,1.082,37.023,20.588,33.35,31.924,7.043,6.796,8.151
1930,1.102,37.154,20.569,33.34,31.928,7.123,6.795,8.273
1931,1.151,37.29,20.619,33.379,31.928,7.165,6.836,8.193
1932,1.194,37.358,20.608,33.379,31.924,7.206,6.796,8.192
1933,1.253,36.86,20.522,33.35,31.921,7.206,6.755,8.151
1934,1.302,37.018,20.568,33.36,31.931,7.206,6.876,8.313
1935,1.352,37.164,20.631,33.388,31.942,7.369,7.0,8.477
1936,1.404,37.223,20.577,33.389,31.931,7.289,6.879,8.398
1937,1.45,37.051,20.588,33.389,31.931,7.369,6.837,8.356
1938,1.483,37.212,20.557,33.379,31.931,7.452,6.877,8.478
1939,1.539,37.309,20.572,33.389,31.935,7.452,6.918,8.479
1940,1.588,37.349,20.569,33.398,31.938,7.493,6.919,8.479
1941,1.621,36.946,20.569,33.379,31.924,7.453,6.715,8.316
1942,1.612,37.057,20.549,33.379,31.924,7.493,6.794,8.437
1943,1.641,37.202,20.502,33.369,31.931,7.575,6.755,8.519
1944,1.622,37.165,20.521,33.369,31.924,7.575,6.714,8.439
1945,1.569,37.021,20.576,33.369,31.921,7.535,6.794,8.397
1946,1.546,37.116,20.498,33.369,31.928,7.616,6.795,8.438
1947,1.51,37.27,20.544,33.389,31.938,7.739,6.958,8.601
1948,1.48,36.907,20.541,33.389,31.931,7.618,6.756,8.44
1949,1.428,37.009,20.549,33.398,31.931,7.617,6.754,8.357
1950,1.369,37.135,20.533,33.398,31.935,7.657,6.754,8.478
1951,1.277,37.222,20.525,33.398,31.931,7.617,6.714,8.52
1952,1.15,36.983,20.596,33.398,31.935,7.617,6.672,8.439
1953,1.031,37.048,20.549,33.36,31.917,7.413,6.631,8.56
1954,0.89,37.212,20.607,33.398,31.931,7.574,6.672,8.764
1955,0.768,37.271,20.62,33.37,31.931,7.454,6.631,8.889
1956,0.676,36.85,20.577,33.379,31.928,7.412,6.59,8.971
1957,0.594,36.989,20.592,33.369,31.917,7.371,6.631,9.257
1958,0.538,37.135,20.569,33.417,31.938,7.492,6.753,9.503
1959,0.488,37.232,20.647,33.427,31.938,7.412,6.714,9.668
1960,0.413,36.868,20.601,33.399,31.931,7.33,6.672,9.995
1961,0.364,37.018,20.565,33.408,31.935,7.37,6.672,10.202
1962,0.311,37.135,20.549,33.408,31.935,7.37,6.631,10.448
1963,0.262,37.174,20.51,33.418,31.931,7.33,6.672,10.735
1964,0.238,36.887,20.545,33.389,31.924,7.126,6.509,10.779
1965,0.193,36.97,20.58,33.37,31.921,7.205,6.589,11.064
1966,0.15,37.096,20.518,33.398,31.931,7.287,6.631,11.229
1967,0.127,37.423,20.553,33.398,31.931,7.207,6.55,11.475
1968,0.11,36.995,20.537,33.389,31.924,7.247,6.508,11.396
1969,0.091,37.115,20.635,33.389,31.924,7.206,6.549,11.558
1970,0.094,37.26,20.554,33.418,31.938,7.328,6.712,11.803
1971,0.107,36.869,20.58,33.427,31.938,7.329,6.632,11.887
1972,0.1,36.817,20.569,33.408,31.935,7.289,6.672,12.132
1973,0.11,36.951,20.514,33.399,31.935,7.288,6.672,12.419
1974,0.126,37.038,20.51,33.418,31.935,7.329,6.672,12.706
1975,0.136,36.905,20.584,33.427,31.931,7.329,6.753,12.872
1976,0.143,37.019,20.51,33.418,31.928,7.167,6.51,12.995
1977,0.127,37.125,20.498,33.379,31.921,7.206,6.63,13.241
1978,0.156,37.232,20.58,33.417,31.931,7.247,6.672,13.284
1979,0.163,36.763,20.655,33.389,31.924,7.166,6.631,13.284
1980,0.169,36.931,20.593,33.408,31.924,7.206,6.672,13.406
1981,0.195,37.048,20.62,33.399,31.924,7.084,6.672,13.407
1982,0.209,37.126,20.616,33.418,31.941,7.286,6.875,13.61
1983,0.228,36.915,20.561,33.466,31.931,7.125,6.674,13.531
1984,0.235,36.99,20.576,33.418,31.928,7.165,6.753,13.449
1985,0.274,37.096,20.623,33.408,31.931,7.124,6.714,13.57
1986,0.284,37.155,20.577,33.446,31.935,7.083,6.754,13.612
1987,0.314,36.801,20.518,33.428,31.928,7.123,6.795,13.531
1988,0.34,36.922,20.588,33.399,31.921,6.961,6.633,13.368
1989,0.376,37.019,20.581,33.418,31.931,7.082,6.672,13.407
1990,0.425,37.049,20.522,33.408,31.924,7.002,6.753,13.326
1991,0.452,36.819,20.533,33.408,31.921,7.041,6.673,13.203
1992,0.488,36.931,20.568,33.408,31.924,7.001,6.631,13.08
1993,0.52,37.057,20.475,33.418,31.931,7.041,6.753,12.997
1994,0.563,37.001,20.548,33.466,31.945,7.204,6.876,13.037
1995,0.583,36.905,20.604,33.428,31.924,7.084,6.837,12.794
1996,0.622,37.019,20.53,33.437,31.928,7.205,6.877,12.791
1997,0.645,37.135,20.557,33.437,31.931,7.125,6.918,12.669
1998,0.681,36.733,20.588,33.418,31.935,7.124,6.878,12.546
1999,0.695,36.816,20.612,33.418,31.931,7.043,6.877,12.26
2000,0.698,36.931,20.522,33.408,31.914,6.96,6.837,12.095
2001,0.721,37.038,20.568,33.437,31.938,7.0,6.918,12.052
2002,0.724,36.771,20.557,33.447,31.935,7.082,6.959,11.93
2003,0.728,36.893,20.518,33.437,31.921,6.92,6.878,11.807
2004,0.728,37.028,20.576,33.428,31.921,6.959,6.959,11.562
2005,0.734,37.097,20.608,33.418,31.934,7.082,7.082,11.64
2006,0.738,36.733,20.479,33.456,31.942,7.083,7.042,11.519
2007,0.731,36.835,20.56,33.428,31.931,6.961,7.082,11.396
2008,0.725,36.951,20.631,33.427,31.931,7.041,7.042,11.395
2009,0.731,37.01,20.651,33.447,31.931,7.042,7.082,11.354
2010,0.728,36.732,20.569,33.437,31.931,7.123,7.083,11.354
2011,0.721,36.854,20.569,33.447,31.928,6.921,7.002,11.273
2012,0.711,36.941,20.522,33.408,31.921,6.919,7.001,11.312
2013,0.718,37.019,20.447,33.427,31.931,6.959,7.001,11.313
2014,0.728,36.828,20.54,33.437,31.928,6.919,7.001,11.353
2015,0.721,36.951,20.564,33.437,31.921,6.878,6.96,11.232
2016,0.724,37.048,20.494,33.428,31.924,6.877,6.919,11.312
2017,0.734,37.375,20.529,33.447,31.945,7.04,7.122,11.313
2018,0.754,36.812,20.572,33.466,31.931,6.96,7.002,11.191
2019,0.741,36.903,20.561,33.437,31.935,6.838,7.041,11.149
2020,0.757,37.028,20.541,33.447,31.935,6.877,6.96,11.067
2021,0.764,36.684,20.572,33.447,31.931,6.837,6.96,10.985
2022,0.77,36.748,20.53,33.476,31.938,6.877,7.0,10.862
2023,0.767,36.864,20.494,33.447,31.924,6.755,6.879,10.658
2024,0.757,36.951,20.587,33.428,31.924,6.836,6.959,10.574
2025,0.787,36.597,20.584,33.447,31.938,6.714,6.96,10.492
2026,0.774,36.728,20.495,33.437,31.924,6.794,6.919,10.41
2027,0.767,36.863,20.541,33.437,31.928,6.673,6.878,10.247
2028,0.767,36.942,20.576,33.437,31.931,6.753,6.918,10.286
2029,0.783,37.259,20.596,33.504,31.935,6.876,7.081,10.245
2030,0.774,37.377,20.592,33.467,31.928,6.715,6.961,10.042
2031,0.767,37.474,20.588,33.447,31.931,6.754,6.96,9.958
2032,0.767,37.542,20.549,33.466,31.931,6.714,6.96,9.835
2033,0.767,36.421,20.592,33.476,31.931,6.713,6.96,9.753
2034,0.774,36.573,20.592,33.466,31.938,6.672,6.96,9.59
2035,0.767,36.651,20.581,33.457,31.921,6.509,6.797,9.507
2036,0.77,36.719,20.588,33.457,31.928,6.67,6.877,9.628
2037,0.77,36.787,20.569,33.466,31.931,6.55,6.837,9.629
2038,0.783,36.922,20.561,33.457,31.924,6.508,6.837,9.71
2039,0.787,37.019,20.58,33.447,31.924,6.589,6.796,9.752
2040,0.79,37.039,20.553,33.456,31.928,6.631,6.877,10.037
2041,0.806,36.675,20.537,33.514,31.941,6.712,6.877,10.08
2042,0.807,36.786,20.518,33.467,31.928,6.591,6.796,10.284
2043,0.794,36.864,20.498,33.476,31.938,6.59,6.877,10.489
2044,0.8,36.673,20.517,33.476,31.935,6.59,6.877,10.695
2045,0.813,36.594,20.572,33.476,31.935,6.549,6.877,10.819
2046,0.807,36.737,20.526,33.466,31.931,6.508,6.837,10.942
2047,0.79,36.816,20.514,33.447,31.921,6.386,6.714,11.024
2048,0.793,36.519,20.591,33.466,31.931,6.507,6.835,11.188
2049,0.8,36.631,20.592,33.476,31.924,6.467,6.796,11.271
2050,0.79,36.747,20.581,33.466,31.928,6.345,6.795,11.231
2051,0.787,36.854,20.584,33.457,31.928,6.466,6.795,11.312
2052,0.79,36.558,20.569,33.476,31.924,6.507,6.917,11.394
2053,0.793,36.708,20.592,33.514,31.945,6.589,6.959,11.354
2054,0.797,36.825,20.545,33.495,31.931,6.549,6.838,11.273
2055,0.803,36.884,20.584,33.495,31.931,6.508,6.837,11.231
2056,0.8,36.501,20.538,33.495,31.931,6.508,6.877,11.271
2057,0.803,36.65,20.549,33.495,31.935,6.508,6.877,11.15
2058,0.826,36.786,20.58,33.476,31.931,6.508,6.837,11.026
2059,0.82,36.807,20.631,33.447,31.921,6.305,6.755,10.863
2060,0.803,36.557,20.616,33.476,31.931,6.384,6.836,10.902
2061,0.826,36.689,20.596,33.466,31.928,6.425,6.877,10.902
2062,0.826,36.806,20.588,33.476,31.924,6.466,6.837,10.78
2063,0.826,36.826,20.518,33.457,31.924,6.386,6.877,10.738
2064,0.83,36.519,20.541,33.476,31.934,6.466,6.959,10.941
2065,0.862,36.689,20.611,33.495,31.945,6.507,6.96,10.821
2066,0.833,36.777,20.495,33.476,31.931,6.427,6.838,10.739
2067,0.83,36.902,20.455,33.485,31.935,6.466,6.918,10.819
2068,0.83,36.549,20.56,33.476,31.931,6.426,6.959,10.82
2069,0.833,36.689,20.58,33.476,31.928,6.548,6.96,10.739
2070,0.826,36.786,20.553,33.485,31.928,6.508,6.797,10.616
2071,0.813,36.509,20.541,33.438,31.924,6.508,6.836,10.655
2072,0.823,36.621,20.553,33.466,31.931,6.63,6.837,10.574
2073,0.82,36.738,20.561,33.476,31.924,6.672,6.837,10.411
2074,0.82,36.825,20.569,33.466,31.924,6.713,6.796,10.45
2075,0.826,36.385,20.615,33.457,31.924,6.713,6.795,10.369
2076,0.833,36.534,20.53,33.495,31.938,6.916,6.958,10.49
2077,0.846,36.718,20.521,33.505,31.935,6.878,6.878,10.288
2078,0.853,36.787,20.584,33.476,31.931,6.877,6.837,10.164
2079,0.84,36.538,20.616,33.476,31.938,6.877,6.958,10.122
2080,0.852,36.689,20.604,33.485,31.938,6.877,6.96,10.041
2081,0.862,36.825,20.616,33.476,31.931,6.918,6.96,9.958
2082,0.862,36.864,20.553,33.457,31.924,6.796,6.797,9.795
2083,0.856,36.385,20.498,33.447,31.924,6.755,6.877,9.671
2084,0.869,36.563,20.533,33.476,31.928,6.836,6.837,9.589
2085,0.869,36.67,20.568,33.447,31.931,6.796,6.918,9.466
2086,0.869,36.709,20.475,33.476,31.928,6.795,6.837,9.343
2087,0.876,36.403,20.513,33.447,31.924,6.714,6.918,9.342
2088,0.859,36.572,20.584,33.495,31.931,6.916,7.041,9.464
2089,0.875,36.708,20.596,33.476,31.935,6.837,6.879,9.221
2090,0.869,36.7,20.522,33.476,31.928,6.796,6.918,9.178
2091,0.879,36.556,20.541,33.476,31.931,6.673,6.919,9.096
2092,0.876,36.708,20.525,33.466,31.938,6.672,6.919,9.095
2093,0.872,36.796,20.451,33.485,31.938,6.713,6.878,9.014
2094,0.872,36.509,20.505,33.466,31.921,6.591,6.796,8.85
2095,0.859,36.401,20.541,33.476,31.924,6.631,6.836,8.808
2096,0.879,36.534,20.498,33.495,31.928,6.631,6.837,8.848
2097,0.885,36.651,20.541,33.476,31.928,6.631,6.837,8.808
2098,0.889,36.297,20.576,33.466,31.931,6.59,6.755,8.686
2099,0.902,36.437,20.6,33.447,31.924,6.549,6.836,8.644
2100,0.899,36.573,20.592,33.485,31.938,6.712,6.958,8.765
2101,0.912,36.68,20.588,33.476,31.938,6.632,6.878,8.645
2102,0.905,36.364,20.557,33.495,31.938,6.631,6.877,8.603
2103,0.918,36.524,20.541,33.476,31.931,6.59,7.0,8.521
2104,0.928,36.65,20.561,33.485,31.935,6.631,6.879,8.561
2105,0.938,36.709,20.588,33.486,31.935,6.55,6.959,8.399
2106,0.922,36.211,20.53,33.466,31.917,6.468,6.716,8.275
2107,0.912,36.36,20.545,33.476,31.927,6.507,6.876,8.314
2108,0.915,36.486,20.545,33.466,31.924,6.427,6.877,8.315
2109,0.918,36.545,20.564,33.466,31.928,6.466,6.877,8.234
2110,0.918,36.325,20.537,33.466,31.924,6.345,6.877,8.151
2111,0.918,36.437,20.549,33.466,31.924,6.466,6.877,8.191
2112,0.931,36.611,20.49,33.514,31.945,6.589,7.04,8.354
2113,0.941,36.651,20.544,33.476,31.924,6.427,6.92,8.153
2114,0.932,36.412,20.518,33.495,31.928,6.466,6.959,8.15
2115,0.938,36.553,20.553,33.514,31.931,6.386,6.919,8.15
2116,0.941,36.651,20.549,33.505,31.931,6.425,6.959,8.15
2117,0.958,36.642,20.525,33.495,31.938,6.385,6.96,8.15
2118,0.971,36.364,20.545,33.466,31.928,6.263,6.756,7.825
2119,0.964,36.438,20.572,33.466,31.921,6.384,6.876,7.944
2120,0.971,36.592,20.518,33.495,31.928,6.303,6.837,7.864
2121,0.974,36.239,20.537,33.486,31.924,6.343,6.755,7.863
2122,0.977,36.322,20.529,33.476,31.921,6.303,6.754,7.782
2123,0.984,36.447,20.498,33.485,31.924,6.343,6.836,7.862
2124,1.004,36.573,20.544,33.514,31.938,6.506,6.958,7.985
2125,1.007,36.267,20.607,33.515,31.931,6.549,6.838,7.783
2126,0.988,36.37,20.53,33.486,31.928,6.549,6.796,7.822
2127,0.991,36.515,20.545,33.495,31.931,6.59,6.836,7.822
2128,0.987,36.602,20.607,33.514,31.931,6.549,6.796,7.863
2129,0.994,36.364,20.6,33.524,31.938,6.712,6.836,7.782
2130,0.991,36.476,20.585,33.496,31.921,6.551,6.714,7.781
2131,0.991,36.583,20.584,33.495,31.931,6.712,6.835,7.781
2132,0.994,36.68,20.573,33.495,31.928,6.713,6.796,7.822
2133,0.991,36.192,20.526,33.486,31.931,6.672,6.755,7.741
2134,0.997,36.34,20.514,33.486,31.921,6.672,6.714,7.781
2135,0.991,36.447,20.545,33.505,31.928,6.753,6.876,7.822
2136,1.007,36.506,20.58,33.543,31.948,6.876,7.0,7.863
2137,1.02,36.401,20.495,33.534,31.928,6.755,6.797,7.741
2138,1.033,36.477,20.533,33.515,31.931,6.795,6.836,7.74
2139,1.043,36.602,20.576,33.515,31.935,6.795,6.837,7.74
2140,1.059,36.632,20.526,33.524,31.931,6.836,6.837,7.74
2141,1.076,36.421,20.584,33.534,31.938,6.877,6.837,7.781
2142,1.057,36.544,20.561,33.505,31.921,6.755,6.755,7.659
2143,1.05,36.603,20.604,33.505,31.928,6.754,6.876,7.861
