time,ecg,bvp,gsr,rsp,skt,emg_zygo,emg_coru,emg_trap
0,0.895,36.012,39.493,46.737,26.504,6.138,5.933,18.871
1,0.892,35.495,39.423,46.737,26.504,6.057,6.014,18.747
2,0.889,35.652,39.442,46.737,26.501,6.137,5.974,18.543
3,0.872,35.74,39.43,46.708,26.504,6.016,5.974,18.338
4,0.882,35.818,39.446,46.746,26.501,6.056,5.893,17.929
5,0.885,35.589,39.415,46.737,26.504,6.137,6.054,17.843
6,0.892,35.749,39.43,46.746,26.504,6.219,6.015,17.517
7,0.895,35.856,39.418,46.746,26.504,6.098,6.015,17.27
8,0.886,35.886,39.492,46.727,26.504,6.097,5.974,17.064
9,0.866,35.532,39.419,46.727,26.508,6.056,5.933,16.9
10,0.876,35.662,39.434,46.727,26.504,6.056,6.014,16.939
11,0.895,35.808,39.395,46.746,26.515,6.137,5.974,17.02
12,0.856,35.627,39.418,46.737,26.511,6.138,5.974,17.387
13,0.833,35.548,39.43,46.698,26.504,6.057,5.974,17.838
14,0.839,35.711,39.278,46.727,26.497,5.975,5.893,18.493
15,0.849,35.808,39.421,46.717,26.501,5.974,5.851,19.353
16,0.862,35.512,39.414,46.708,26.501,5.974,5.81,20.094
17,0.872,35.633,39.492,46.717,26.504,5.974,5.891,20.752
18,0.869,35.769,39.384,46.727,26.504,6.015,5.892,21.165
19,0.895,35.828,39.383,46.679,26.49,5.893,5.851,21.454
20,0.899,35.454,39.324,46.727,26.497,5.892,5.851,21.579
21,0.918,35.623,39.409,46.727,26.511,6.054,6.013,21.702
22,0.925,35.74,39.465,46.717,26.511,6.015,5.974,21.622
23,0.912,35.808,39.376,46.717,26.508,5.974,5.933,21.499
24,0.912,35.425,39.433,46.717,26.508,5.893,5.892,21.172
25,0.925,35.565,39.418,46.698,26.504,5.933,5.892,20.803
26,0.938,35.663,39.492,46.698,26.508,5.974,5.811,20.474
27,0.938,35.798,39.419,46.727,26.518,6.055,6.013,20.186
28,0.928,35.445,39.414,46.717,26.508,6.056,6.015,19.899
29,0.935,35.585,39.383,46.689,26.497,5.853,5.934,19.327
30,0.922,35.692,39.422,46.679,26.497,5.851,5.811,18.914
31,0.925,35.779,39.406,46.679,26.494,5.932,5.769,18.544
32,0.925,35.454,39.461,46.688,26.504,5.892,5.85,18.134
33,0.951,35.642,39.407,46.698,26.501,5.973,5.81,17.886
34,0.964,35.731,39.414,46.679,26.501,5.974,5.932,17.559
35,0.977,35.76,39.477,46.679,26.497,5.811,5.77,17.271
36,0.997,35.454,39.407,46.698,26.504,5.972,5.891,17.227
37,1.007,35.623,39.399,46.736,26.504,5.974,5.892,17.186
38,1.017,35.721,39.391,46.698,26.504,5.974,5.892,17.145
39,1.004,35.789,39.406,46.679,26.511,5.974,5.933,17.063
40,1.004,35.473,39.391,46.698,26.511,6.015,5.933,16.94
41,1.017,35.604,39.441,46.679,26.504,6.015,5.933,16.858
42,1.043,35.73,39.375,46.707,26.504,6.056,5.892,16.694
43,1.027,35.396,39.402,46.717,26.518,6.178,6.014,16.733
44,1.02,35.402,39.461,46.689,26.504,6.057,5.893,16.449
45,1.004,35.546,39.403,46.65,26.504,6.056,5.892,16.121
46,1.004,35.653,39.391,46.707,26.501,6.015,5.811,15.955
47,1.014,35.405,39.379,46.66,26.501,6.096,5.891,15.669
48,1.01,35.537,39.441,46.678,26.501,6.178,5.851,15.503
49,0.997,35.672,39.493,46.659,26.501,6.261,5.851,15.38
50,0.987,35.741,39.431,46.64,26.504,6.221,5.973,15.134
51,1.0,35.291,39.43,46.64,26.501,6.098,5.73,14.766
52,1.01,35.449,39.379,46.65,26.504,6.341,5.972,14.64
53,1.007,35.604,39.406,46.678,26.504,6.343,5.974,14.558
54,1.004,35.663,39.445,46.65,26.511,6.343,5.974,14.313
55,1.004,35.386,39.391,46.678,26.504,6.384,5.933,14.067
56,1.0,35.536,39.43,46.679,26.508,6.385,5.974,13.902
57,1.01,35.662,39.43,46.65,26.501,6.344,5.974,13.697
58,1.023,35.76,39.512,46.678,26.521,6.466,6.137,13.776
59,1.001,35.32,39.482,46.679,26.501,6.467,6.098,14.183
60,0.994,35.44,39.47,46.64,26.497,6.345,5.975,14.757
61,0.961,35.566,39.313,46.64,26.501,6.343,5.893,15.576
62,0.961,35.624,39.405,46.64,26.494,6.384,5.933,16.641
63,0.951,35.318,39.449,46.63,26.504,6.385,5.933,18.197
64,0.932,35.449,39.391,46.649,26.501,6.425,6.014,19.839
65,0.918,35.575,39.422,46.63,26.504,6.426,5.934,21.319
66,0.905,35.586,39.399,46.611,26.49,6.385,5.811,22.594
67,0.918,35.308,39.488,46.64,26.501,6.466,5.932,23.623
68,0.918,35.449,39.415,46.64,26.508,6.589,6.014,24.406
69,0.902,35.556,39.414,46.64,26.511,6.509,6.015,24.861
70,0.886,35.461,39.332,46.65,26.511,6.508,5.974,25.068
71,0.905,35.374,39.413,46.63,26.508,6.467,5.974,25.07
72,0.902,35.488,39.442,46.63,26.497,6.467,5.974,24.908
73,0.925,35.633,39.438,46.64,26.508,6.548,5.974,24.744
74,0.915,35.203,39.43,46.64,26.511,6.549,6.055,24.417
75,0.896,35.266,39.379,46.611,26.494,6.386,5.893,23.844
76,0.892,35.41,39.468,46.611,26.501,6.425,5.851,23.31
77,0.908,35.517,39.38,46.62,26.497,6.385,5.851,22.736
78,0.928,35.183,39.379,46.621,26.497,6.425,5.891,22.283
79,0.935,35.333,39.262,46.621,26.504,6.426,5.892,21.627
80,0.941,35.44,39.385,46.611,26.494,6.385,5.892,21.092
81,0.938,35.566,39.387,46.601,26.497,6.303,5.811,20.437
82,0.928,35.663,39.469,46.611,26.508,6.384,5.891,20.023
83,0.902,35.817,39.411,46.64,26.508,6.466,5.933,19.775
84,0.918,35.943,39.379,46.621,26.504,6.467,5.974,19.448
85,0.912,35.993,39.484,46.601,26.508,6.426,5.974,19.444
86,0.902,34.871,39.431,46.601,26.515,6.385,5.852,19.688
87,0.876,35.042,39.403,46.601,26.508,6.425,5.973,20.219
88,0.882,35.236,39.313,46.64,26.508,6.466,5.933,20.753
89,0.879,35.266,39.413,46.63,26.515,6.589,6.055,21.49
90,0.869,35.247,39.426,46.601,26.504,6.468,5.893,22.067
91,0.856,35.372,39.449,46.563,26.497,6.386,5.892,22.804
92,0.856,35.498,39.497,46.582,26.501,6.425,5.851,23.503
93,0.843,35.547,39.392,46.572,26.504,6.507,5.932,24.201
94,0.843,35.097,39.441,46.601,26.504,6.549,5.892,24.737
95,0.856,35.265,39.414,46.601,26.501,6.549,5.892,25.067
96,0.814,35.334,39.391,46.563,26.497,6.508,5.811,25.193
97,0.807,35.555,39.336,46.601,26.497,6.467,5.769,24.991
98,0.826,35.212,39.382,46.601,26.508,6.507,5.931,24.866
99,0.836,35.352,39.433,46.611,26.504,6.549,5.974,24.54
100,0.826,35.44,39.426,46.601,26.511,6.63,5.852,24.212
101,0.839,35.144,39.477,46.601,26.504,6.55,5.973,23.761
102,0.856,35.198,39.341,46.601,26.511,6.508,5.974,23.146
103,0.866,35.324,39.413,46.592,26.501,6.508,6.015,22.734
104,0.869,35.478,39.43,46.572,26.504,6.467,5.974,22.16
105,0.846,35.058,39.426,46.601,26.515,6.629,6.096,21.626
106,0.836,35.149,39.395,46.582,26.504,6.509,5.975,20.97
107,0.813,35.275,39.383,46.544,26.494,6.345,5.893,20.313
108,0.813,35.372,39.422,46.562,26.497,6.384,6.014,19.778
109,0.813,35.066,39.414,46.553,26.497,6.425,5.974,19.285
110,0.803,35.207,39.465,46.572,26.504,6.466,5.974,18.873
111,0.797,35.333,39.38,46.563,26.504,6.467,5.933,18.503
112,0.784,35.411,39.406,46.562,26.504,6.345,5.974,18.093
113,0.8,35.115,39.414,46.524,26.494,6.303,5.893,17.642
114,0.81,35.284,39.438,46.562,26.504,6.465,5.973,17.434
115,0.8,35.401,39.465,46.668,26.508,6.507,6.015,17.188
116,0.81,35.469,39.399,46.583,26.508,6.508,6.056,17.023
117,0.829,35.7,39.492,46.553,26.497,6.508,6.015,16.737
118,0.839,35.866,39.446,46.553,26.504,6.549,6.015,16.531
119,0.846,35.953,39.493,46.553,26.504,6.508,6.015,16.406
120,0.856,36.041,39.485,46.572,26.518,6.589,5.974,16.365
121,0.849,34.833,39.403,46.687,26.515,6.631,6.137,16.486
122,0.853,34.955,39.434,46.535,26.501,6.55,5.976,16.325
123,0.849,35.062,39.418,46.524,26.501,6.508,5.893,16.242
124,0.843,35.121,39.399,46.553,26.497,6.508,5.892,16.2
125,0.846,35.121,39.344,46.524,26.501,6.508,5.892,16.119
126,0.853,35.275,39.433,46.533,26.497,6.589,5.933,16.036
127,0.836,35.372,39.473,46.533,26.508,6.712,5.892,16.035
128,0.826,35.095,39.426,46.505,26.49,6.551,5.811,15.751
129,0.836,34.987,39.399,46.524,26.501,6.549,5.932,15.545
130,0.852,35.158,39.293,46.562,26.508,6.712,6.014,15.502
131,0.856,35.275,39.409,46.534,26.504,6.713,5.974,15.299
132,0.846,34.941,39.418,46.524,26.501,6.713,5.974,15.052
133,0.84,35.052,39.383,46.543,26.504,6.713,5.974,14.847
134,0.836,35.217,39.383,46.524,26.504,6.713,5.974,14.682
135,0.826,35.314,39.422,46.533,26.504,6.713,5.974,14.436
136,0.823,35.047,39.485,46.553,26.518,6.835,6.096,14.312
137,0.833,35.169,39.403,46.553,26.511,6.755,6.056,14.148
138,0.852,35.294,39.359,46.505,26.494,6.673,5.893,13.78
139,0.905,35.392,39.367,46.495,26.501,6.631,5.892,13.574
140,0.964,34.875,39.406,46.485,26.501,6.59,5.892,13.409
141,1.02,35.023,39.379,46.495,26.501,6.631,5.892,13.448
142,1.079,35.149,39.476,46.504,26.497,6.631,5.933,14.058
143,1.135,35.227,39.384,46.495,26.501,6.631,5.933,14.878
144,1.168,35.065,39.429,46.466,26.494,6.55,5.852,15.821
145,1.188,35.236,39.461,46.504,26.504,6.63,5.973,17.172
146,1.158,35.372,39.422,46.504,26.508,6.631,5.974,18.812
147,1.191,35.421,39.449,46.572,26.508,6.631,6.015,20.658
148,1.194,34.942,39.418,46.505,26.511,6.59,6.056,22.384
149,1.191,35.1,39.477,46.485,26.504,6.549,5.975,23.824
150,1.201,35.207,39.423,46.485,26.504,6.549,5.974,24.896
151,1.237,35.285,39.492,46.514,26.515,6.59,6.015,25.679
152,1.309,34.998,39.38,46.495,26.515,6.509,6.096,26.296
153,1.394,35.12,39.39,46.485,26.501,6.427,5.935,26.343
154,1.496,35.246,39.437,46.466,26.501,6.385,5.892,26.14
155,1.604,35.381,39.387,46.475,26.497,6.385,5.892,25.894
156,1.69,34.971,39.383,46.514,26.497,6.385,5.973,25.648
157,1.785,35.12,39.351,46.485,26.504,6.385,5.974,25.198
158,1.867,35.217,39.429,46.475,26.497,6.385,5.974,24.665
159,1.907,34.911,39.399,46.447,26.49,6.263,5.852,24.05
160,1.982,34.995,39.476,46.466,26.501,6.302,5.891,23.393
161,2.028,35.12,39.469,46.475,26.504,6.343,6.054,22.94
162,2.065,35.217,39.407,46.475,26.501,6.303,6.015,22.325
163,2.065,34.796,39.445,46.475,26.504,6.343,5.974,21.669
164,2.019,34.945,39.415,46.466,26.508,6.262,5.974,21.093
165,1.977,35.081,39.344,46.485,26.504,6.302,6.015,20.518
166,1.914,35.207,39.382,46.475,26.504,6.262,5.974,19.984
167,1.842,34.796,39.445,46.485,26.511,6.465,6.096,19.694
168,1.783,34.936,39.407,46.447,26.508,6.345,5.975,19.162
169,1.76,35.052,39.453,46.427,26.497,6.262,5.811,18.669
170,1.701,35.14,39.473,46.417,26.497,6.262,5.891,18.339
171,1.599,34.93,39.356,46.465,26.504,6.343,5.892,18.254
172,1.485,35.081,39.453,46.437,26.501,6.303,5.973,18.578
173,1.295,35.207,39.43,46.437,26.504,6.343,5.893,18.866
174,1.186,35.256,39.399,46.417,26.497,6.303,5.892,19.357
175,1.028,34.864,39.379,46.446,26.501,6.302,5.933,20.053
176,0.874,35.032,39.433,46.446,26.508,6.343,6.055,21.321
177,0.742,35.159,39.434,46.446,26.511,6.425,6.015,22.391
178,0.604,35.189,39.461,46.446,26.504,6.385,6.015,23.417
179,0.434,34.854,39.411,46.427,26.508,6.425,6.056,24.404
180,0.279,35.004,39.352,46.446,26.501,6.304,5.975,25.023
181,0.138,35.13,39.39,46.437,26.504,6.384,5.974,25.477
182,0.039,35.169,39.398,46.446,26.518,6.507,6.015,25.888
183,-0.053,34.873,39.43,46.437,26.504,6.386,6.056,26.014
184,-0.093,35.004,39.375,46.417,26.497,6.303,5.893,25.812
185,-0.116,35.13,39.394,46.389,26.501,6.302,5.892,25.525
186,-0.126,34.939,39.441,46.379,26.494,6.302,5.933,25.156
187,-0.159,34.88,39.418,46.388,26.504,6.262,5.933,24.787
188,-0.13,35.023,39.379,46.398,26.501,6.262,5.933,24.377
189,-0.091,35.12,39.324,46.398,26.508,6.302,6.014,23.884
190,-0.038,34.776,39.39,46.388,26.487,6.18,5.812,23.229
191,0.011,34.907,39.387,46.398,26.501,6.301,5.972,22.735
192,0.054,35.062,39.433,46.408,26.504,6.302,5.974,22.405
193,0.064,35.15,39.414,46.417,26.508,6.302,5.974,21.995
194,0.097,34.671,39.383,46.398,26.508,6.384,5.974,21.584
195,0.116,34.81,39.429,46.417,26.504,6.344,5.974,21.092
196,0.143,34.946,39.43,46.408,26.504,6.262,5.933,20.802
197,0.185,35.062,39.395,46.398,26.504,6.302,5.892,20.515
198,0.225,34.862,39.402,46.484,26.515,6.302,6.136,20.309
199,0.248,34.965,39.367,46.399,26.508,6.221,5.976,20.144
200,0.274,35.101,39.429,46.388,26.501,6.139,5.893,19.817
201,0.3,35.169,39.43,46.379,26.494,6.098,5.892,19.529
202,0.33,34.662,39.449,46.388,26.501,6.097,5.892,19.404
203,0.34,34.829,39.387,46.407,26.501,6.178,5.933,19.159
204,0.376,34.975,39.43,46.379,26.501,6.179,5.892,19.035
205,0.412,34.986,39.469,46.379,26.501,6.139,5.973,18.83
206,0.461,34.756,39.372,46.359,26.487,6.098,5.811,18.544
207,0.497,34.935,39.418,46.445,26.501,6.178,5.932,18.378
208,0.54,35.052,39.391,46.389,26.504,6.179,6.014,18.214
209,0.589,35.101,39.41,46.407,26.511,6.301,6.015,17.968
210,0.616,34.814,39.422,46.388,26.508,6.302,5.974,17.681
211,0.642,34.946,39.461,46.379,26.511,6.221,5.974,17.475
212,0.636,35.081,39.352,46.388,26.504,6.302,5.933,17.107
213,0.668,35.188,39.402,46.388,26.501,6.221,5.974,16.819
214,0.698,34.806,39.461,46.388,26.515,6.383,6.055,16.531
215,0.692,34.898,39.395,46.388,26.508,6.263,5.975,16.244
216,0.714,35.004,39.324,46.379,26.49,6.262,5.852,15.875
217,0.75,34.794,39.39,46.359,26.494,6.221,5.851,15.546
218,0.777,34.869,39.426,46.359,26.494,6.261,5.932,15.218
219,0.793,35.004,39.43,46.369,26.497,6.302,5.892,14.889
220,0.803,35.101,39.461,46.359,26.501,6.262,5.973,14.682
221,0.81,34.872,39.399,46.33,26.49,6.18,5.893,14.436
222,0.862,35.023,39.43,46.359,26.497,6.179,5.892,14.149
223,0.882,35.168,39.391,46.388,26.504,6.261,5.973,14.024
224,0.885,35.275,39.461,46.369,26.504,6.343,5.974,13.779
225,0.872,34.596,39.329,46.369,26.504,6.221,6.015,13.533
226,0.866,34.742,39.394,46.369,26.508,6.261,5.974,13.368
227,0.889,34.878,39.445,46.35,26.508,6.302,5.974,13.244
228,0.869,34.956,39.477,46.34,26.504,6.18,5.974,13.04
229,0.889,34.717,39.505,46.378,26.518,6.342,5.974,12.875
230,0.892,34.83,39.439,46.369,26.511,6.303,6.055,12.833
231,0.908,34.946,39.407,46.311,26.504,6.099,5.975,12.588
232,0.908,35.024,39.367,46.32,26.497,6.178,5.852,12.342
233,0.918,34.708,39.476,46.311,26.501,6.057,5.891,12.299
234,0.912,34.877,39.356,46.33,26.504,6.097,5.973,12.217
235,0.915,35.023,39.394,46.33,26.501,6.138,5.893,12.908
236,0.896,35.024,39.418,46.311,26.501,6.098,5.933,13.89
237,0.895,34.631,39.418,46.292,26.49,5.975,5.811,14.998
238,0.915,34.781,39.484,46.311,26.501,6.015,5.932,16.229
239,0.938,34.926,39.415,46.33,26.508,6.137,5.933,17.542
240,0.935,34.937,39.406,46.33,26.511,6.138,5.974,18.612
241,0.931,34.774,39.359,46.321,26.504,6.098,5.893,19.517
242,0.944,34.907,39.429,46.32,26.504,6.138,5.892,20.38
243,0.935,35.023,39.395,46.311,26.504,6.057,5.973,21.121
244,0.931,34.842,39.398,46.33,26.511,6.056,5.852,21.9
245,0.935,34.773,39.449,46.33,26.515,6.178,6.013,22.518
246,0.905,34.869,39.403,46.301,26.504,6.057,6.015,22.85
247,0.908,34.985,39.422,46.292,26.497,5.975,5.852,22.934
248,0.921,34.641,39.305,46.291,26.497,5.893,5.81,22.976
249,0.935,34.743,39.308,46.311,26.501,5.973,5.85,22.935
250,0.958,34.887,39.39,46.292,26.508,5.974,5.891,22.854
251,0.935,34.994,39.398,46.291,26.501,6.015,5.973,22.568
252,0.925,34.621,39.465,46.253,26.49,5.852,5.811,22.281
253,0.935,34.79,39.356,46.291,26.504,5.851,5.85,21.831
254,0.931,34.945,39.445,46.291,26.511,6.013,5.891,21.664
255,0.922,35.014,39.434,46.291,26.504,5.974,6.014,21.296
256,0.918,34.593,39.485,46.282,26.504,5.974,5.974,20.845
257,0.925,34.761,39.356,46.311,26.508,5.974,5.974,20.434
258,0.925,34.878,39.421,46.282,26.511,5.933,5.974,19.942
259,0.951,34.966,39.375,46.272,26.501,5.933,5.852,19.531
260,0.951,34.65,39.429,46.291,26.515,6.096,5.973,19.282
261,0.932,34.771,39.43,46.263,26.508,6.097,6.015,18.995
262,0.935,34.869,39.391,46.234,26.497,5.894,5.893,18.627
263,0.958,34.946,39.391,46.253,26.497,5.892,5.851,18.46
264,0.951,34.64,39.406,46.253,26.501,5.933,5.769,18.418
265,0.971,34.781,39.465,46.262,26.504,5.892,5.85,18.458
266,0.968,34.926,39.352,46.243,26.497,5.892,5.851,18.418
267,0.961,34.947,39.398,46.224,26.497,5.892,5.769,18.336
268,0.958,34.736,39.355,46.214,26.497,5.933,5.728,18.173
269,0.954,34.897,39.421,46.252,26.508,6.014,5.768,18.09
270,0.945,35.033,39.418,46.253,26.504,5.974,5.85,17.967
271,0.958,35.101,39.414,46.253,26.508,5.974,5.851,17.763
272,0.938,34.766,39.379,46.301,26.501,5.974,5.891,17.638
273,0.941,34.888,39.398,46.253,26.504,5.933,5.851,17.515
274,0.951,35.014,39.453,46.234,26.504,5.974,5.81,17.392
275,0.958,38.016,39.407,46.272,26.522,6.096,5.972,17.35
276,0.951,38.536,39.43,46.243,26.508,6.016,5.933,17.269
277,0.958,38.627,39.348,46.224,26.497,5.974,5.811,16.942
278,0.977,38.666,39.417,46.224,26.497,5.933,5.81,16.736
279,1.013,33.22,39.418,46.224,26.497,5.892,5.85,16.571
280,1.004,33.146,39.453,46.224,26.504,5.933,5.851,16.325
281,0.994,33.299,39.434,46.214,26.504,5.933,5.851,16.12
282,0.991,33.425,39.414,46.204,26.49,5.933,5.891,15.955
283,0.981,35.296,39.434,46.214,26.497,5.811,5.811,15.547
284,0.987,35.497,39.453,46.233,26.501,5.972,5.891,15.38
285,0.991,35.614,39.434,46.339,26.504,6.015,5.973,15.175
286,0.971,35.692,39.41,46.225,26.508,5.974,5.974,14.929
287,0.977,34.408,39.465,46.233,26.501,5.893,6.015,14.642
288,0.977,34.558,39.438,46.224,26.504,5.933,5.974,14.355
289,0.964,34.703,39.469,46.205,26.501,5.892,5.933,14.027
290,0.961,34.82,39.415,46.252,26.511,6.014,6.014,13.861
291,0.942,34.764,39.387,46.262,26.508,6.015,6.015,13.696
292,0.951,34.897,39.39,46.195,26.501,5.934,5.974,13.37
293,0.941,35.023,39.41,46.195,26.497,5.852,5.974,13.122
294,0.961,35.101,39.371,46.204,26.494,5.81,5.893,12.876
295,0.958,34.699,39.347,46.214,26.504,5.85,5.933,12.711
296,0.981,34.849,39.421,46.214,26.504,5.891,6.014,12.546
297,0.991,34.984,39.43,46.214,26.504,5.851,5.974,12.301
298,0.994,35.005,39.434,46.176,26.497,5.891,5.933,12.136
299,1.017,34.698,39.403,46.185,26.487,5.77,5.852,11.972
300,1.014,34.887,39.328,46.195,26.504,5.891,5.973,12.011
301,1.03,35.004,39.413,46.223,26.508,5.973,6.055,11.97
302,1.037,34.756,39.402,46.214,26.504,5.974,6.056,12.011
303,1.033,34.677,39.445,46.195,26.508,5.974,6.056,11.93
304,1.033,34.81,39.387,46.204,26.497,6.015,6.056,11.848
305,1.024,34.927,39.418,46.204,26.497,5.974,6.097,11.765
306,1.027,34.745,39.481,46.204,26.504,5.974,6.056,11.805
307,1.004,34.849,39.419,46.214,26.515,6.137,6.219,11.887
308,1.0,34.965,39.395,46.195,26.501,5.976,6.098,11.725
309,0.997,35.081,39.289,46.185,26.497,5.933,5.975,11.561
310,0.994,34.536,39.425,46.185,26.494,5.974,5.974,11.478
311,0.971,34.674,39.41,46.175,26.497,5.974,6.055,11.396
312,0.958,34.81,39.465,46.166,26.501,6.055,6.015,11.354
313,0.971,34.917,39.391,46.194,26.504,6.056,6.096,11.273
314,0.971,34.621,39.375,46.175,26.501,6.097,6.016,11.231
315,0.974,34.79,39.433,46.156,26.494,6.097,5.934,11.027
316,0.987,34.936,39.438,46.194,26.504,6.097,6.055,11.025
317,1.004,35.014,39.368,46.204,26.511,6.178,6.178,10.985
318,1.01,34.631,39.343,46.185,26.504,6.139,6.139,11.106
319,1.033,34.781,39.39,46.214,26.504,6.179,6.138,12.043
320,1.03,34.926,39.414,46.195,26.501,6.179,6.057,13.922
321,1.037,34.947,39.449,46.195,26.501,6.22,6.097,15.974
322,1.043,34.736,39.434,46.195,26.508,6.261,6.097,18.353
323,1.033,34.887,39.379,46.214,26.515,6.384,6.26,21.385
324,1.014,34.975,39.429,46.185,26.508,6.344,6.18,24.709
325,1.014,35.014,39.407,46.147,26.494,6.262,6.057,27.873
326,1.023,34.641,39.359,46.156,26.501,6.302,6.015,30.71
327,1.023,34.791,39.402,46.175,26.501,6.302,6.096,32.812
328,1.023,34.926,39.391,46.175,26.504,6.384,6.138,34.255
329,1.017,35.004,39.472,46.175,26.497,6.344,6.057,35.164
330,1.001,34.65,39.43,46.156,26.497,6.303,5.975,35.498
331,1.017,34.819,39.477,46.137,26.497,6.302,6.015,35.339
332,1.001,34.965,39.407,46.175,26.508,6.506,6.137,35.134
333,1.004,34.621,39.434,46.166,26.511,6.467,6.179,34.482
334,1.023,34.646,39.407,46.156,26.508,6.426,6.139,33.743
335,1.007,34.81,39.399,46.166,26.515,6.385,6.098,32.72
336,1.023,34.907,39.41,46.156,26.504,6.425,6.056,31.774
337,1.043,34.63,39.414,46.156,26.504,6.344,6.097,30.708
338,1.046,34.771,39.492,46.175,26.515,6.506,6.26,29.681
339,1.05,34.869,39.47,46.166,26.508,6.427,6.18,28.613
340,1.05,34.946,39.469,46.146,26.501,6.304,5.976,27.464
341,1.06,34.544,39.325,46.137,26.504,6.18,6.015,26.436
342,1.066,34.694,39.417,46.127,26.494,6.261,5.974,25.531
343,1.056,34.829,39.399,46.127,26.501,6.221,6.055,24.628
344,1.06,34.936,39.402,46.146,26.511,6.302,6.097,23.968
345,1.076,34.544,39.398,46.118,26.508,6.221,6.097,23.433
346,1.089,34.674,39.375,46.108,26.494,6.139,5.935,22.94
347,1.109,34.839,39.461,46.136,26.501,6.26,5.974,22.65
348,1.106,34.908,39.43,46.156,26.508,6.262,6.096,22.404
349,1.096,34.649,39.422,46.146,26.504,6.302,6.056,22.157
350,1.099,34.819,39.301,46.146,26.508,6.18,6.097,21.748
351,1.089,34.946,39.386,46.137,26.504,6.261,6.056,21.622
352,1.073,34.985,39.355,46.137,26.508,6.221,6.056,21.174
353,1.099,34.583,39.449,46.108,26.504,6.139,6.097,20.925
354,1.096,34.771,39.422,46.165,26.522,6.301,6.219,20.719
355,1.073,34.849,39.406,46.137,26.504,6.262,6.18,20.433
356,1.079,34.869,39.484,46.127,26.501,6.18,6.017,20.023
357,1.07,34.754,39.419,46.098,26.49,6.098,6.015,19.613
358,1.095,34.897,39.442,46.107,26.49,6.138,6.015,19.283
359,1.122,35.023,39.332,46.117,26.501,6.098,6.056,18.873
360,1.116,34.842,39.402,46.194,26.501,6.056,5.975,18.544
361,1.083,34.783,39.398,46.118,26.504,6.097,6.055,18.134
362,1.092,34.917,39.387,46.088,26.49,5.935,5.853,17.683
363,1.102,35.023,39.387,46.127,26.501,6.096,6.013,17.353
364,1.109,34.785,39.375,46.136,26.508,6.138,6.056,17.025
365,1.112,34.888,39.453,46.127,26.508,6.138,6.056,16.615
366,1.128,35.033,39.45,46.117,26.508,6.138,6.015,16.285
367,1.109,35.12,39.411,46.117,26.504,6.098,6.056,15.916
368,1.106,34.862,39.363,46.127,26.501,6.097,6.015,15.628
369,1.112,34.994,39.406,46.127,26.504,6.056,6.015,15.259
370,1.109,35.111,39.434,46.136,26.522,6.178,6.096,15.093
371,1.112,35.16,39.368,46.089,26.497,5.976,6.016,14.766
372,1.115,34.997,39.414,46.079,26.504,5.974,5.893,14.397
373,1.122,35.149,39.344,46.088,26.497,5.893,5.933,14.149
374,1.148,35.294,39.402,46.098,26.501,5.973,5.974,14.024
375,1.142,35.372,39.422,46.088,26.504,6.015,6.015,13.861
376,1.135,35.105,39.387,46.088,26.504,5.974,5.974,13.656
377,1.129,35.255,39.367,46.098,26.487,5.974,5.893,13.41
378,1.135,35.391,39.379,46.088,26.504,5.974,6.014,13.285
379,1.161,35.45,39.449,46.088,26.508,5.974,6.096,13.121
380,1.171,35.221,39.438,46.088,26.501,6.015,6.056,12.957
381,1.168,35.391,39.496,46.088,26.511,6.015,6.097,12.793
382,1.168,35.508,39.353,46.088,26.508,6.015,6.056,12.588
383,1.165,35.547,39.417,46.079,26.497,5.934,6.056,12.464
384,1.161,35.442,39.469,46.107,26.504,6.014,6.015,12.3
385,1.168,35.537,39.442,46.098,26.518,6.178,6.096,12.258
386,1.142,35.643,39.45,46.136,26.497,5.976,6.016,12.176
387,1.142,35.721,39.399,46.05,26.497,5.974,5.974,12.216
388,1.158,35.444,39.434,46.059,26.494,6.015,5.933,12.541
389,1.132,35.594,39.43,46.059,26.504,6.015,5.974,12.911
390,1.132,35.692,39.485,46.05,26.501,6.056,6.055,13.524
391,1.122,35.645,39.395,46.049,26.497,6.097,6.097,14.262
392,1.112,35.731,39.406,46.03,26.504,5.975,6.016,15.083
393,1.135,35.923,39.426,46.049,26.501,6.015,6.096,15.823
394,1.132,36.012,39.446,46.059,26.508,6.096,6.178,16.603
395,1.122,35.658,39.372,46.078,26.504,6.138,6.179,17.22
396,1.125,35.779,39.359,46.059,26.511,6.179,6.22,17.755
397,1.142,35.914,39.406,46.069,26.504,6.179,6.18,17.964
398,1.151,36.011,39.383,46.05,26.501,6.22,6.179,18.088
399,1.161,35.83,39.461,46.03,26.501,6.261,6.179,18.089
400,1.148,35.972,39.411,46.078,26.511,6.343,6.301,18.17
401,1.152,36.07,39.344,46.05,26.504,6.303,6.302,18.09
402,1.168,36.147,39.406,46.03,26.501,6.221,6.221,17.804
403,1.142,35.928,39.414,46.021,26.497,6.261,6.22,17.639
404,1.125,36.088,39.375,46.02,26.497,6.221,6.18,17.312
405,1.138,36.215,39.359,46.02,26.497,6.18,6.261,17.146
406,1.119,36.283,39.421,46.02,26.504,6.179,6.221,16.982
407,1.132,36.044,39.465,46.011,26.504,6.22,6.261,17.224
408,1.106,36.166,39.411,45.992,26.494,6.139,6.18,18.08
409,1.102,36.33,39.434,46.02,26.501,6.098,6.139,19.105
410,1.115,36.38,39.356,46.04,26.508,6.26,6.26,20.417
411,1.115,36.189,39.449,46.021,26.511,6.302,6.262,21.528
412,1.115,36.321,39.43,46.02,26.504,6.18,6.221,22.555
413,1.096,36.447,39.477,46.02,26.508,6.22,6.22,23.501
414,1.106,36.487,39.384,46.001,26.504,6.261,6.261,24.242
415,1.106,36.477,39.398,46.001,26.504,6.099,6.302,24.818
416,1.106,36.64,39.465,46.039,26.511,6.3,6.302,25.109
417,1.106,36.709,39.43,46.021,26.518,6.221,6.384,25.274
418,1.109,36.499,39.364,46.001,26.497,6.139,6.303,25.032
419,1.102,36.468,39.293,46.001,26.497,6.057,6.18,24.867
420,1.112,36.631,39.397,45.963,26.501,6.015,6.179,24.418
421,1.109,36.719,39.375,45.991,26.501,6.096,6.261,24.088
422,1.102,36.518,39.492,45.991,26.508,6.138,6.262,23.638
423,1.067,36.631,39.349,46.001,26.504,6.138,6.262,23.145
424,1.063,36.757,39.378,45.963,26.497,5.976,6.221,22.652
425,1.089,36.854,39.437,45.962,26.504,6.096,6.18,22.078
426,1.07,36.404,39.407,45.991,26.504,6.178,6.301,21.666
427,1.069,36.553,39.379,45.972,26.508,6.139,6.302,21.174
428,1.056,36.67,39.344,45.982,26.504,6.138,6.302,20.681
429,1.053,36.757,39.413,45.982,26.504,6.098,6.302,20.229
430,1.03,36.768,39.375,45.963,26.497,6.097,6.302,19.777
431,1.043,36.931,39.457,45.962,26.504,6.056,6.302,19.488
432,1.046,37.067,39.422,46.001,26.515,6.178,6.384,19.282
433,1.043,37.097,39.379,45.972,26.504,6.179,6.344,19.117
434,1.037,36.79,39.457,45.943,26.497,6.017,6.181,18.831
435,1.043,36.912,39.415,45.943,26.497,5.974,6.179,18.666
436,1.063,37.067,39.387,45.953,26.501,6.055,6.22,18.461
437,1.076,37.116,39.375,45.943,26.497,6.056,6.261,18.296
438,1.066,36.867,39.429,45.943,26.504,6.015,6.221,18.172
439,1.06,36.961,39.461,45.924,26.497,6.015,6.18,17.927
440,1.056,37.096,39.458,45.933,26.497,6.015,6.179,17.64
441,1.063,37.136,39.465,45.943,26.508,6.096,6.22,17.475
442,1.043,36.868,39.38,45.943,26.508,6.138,6.342,17.31
443,1.017,37.018,39.398,45.943,26.508,6.179,6.303,17.065
444,0.991,37.106,39.391,45.924,26.501,6.179,6.221,16.737
445,0.991,37.174,39.391,45.924,26.508,6.179,6.302,16.409
446,0.984,36.983,39.359,45.933,26.504,6.139,6.221,16.161
447,0.984,37.144,39.433,45.943,26.515,6.301,6.302,15.874
448,0.961,37.213,39.446,45.914,26.511,6.343,6.384,15.831
449,0.951,37.041,39.446,45.895,26.497,6.221,6.181,15.342
450,0.961,37.125,39.438,45.895,26.494,6.342,6.098,15.134
451,0.948,37.261,39.332,45.904,26.49,6.384,6.138,14.929
452,0.951,37.348,39.382,45.904,26.504,6.507,6.138,14.683
453,0.951,37.033,39.418,45.904,26.504,6.508,6.179,14.599
454,0.977,37.154,39.371,45.904,26.497,6.63,6.22,14.354
455,0.951,37.261,39.402,45.885,26.49,6.55,6.139,14.108
456,0.964,37.387,39.375,45.914,26.508,6.671,6.26,13.902
457,0.958,37.119,39.453,45.904,26.501,6.753,6.262,13.941
458,0.951,37.251,39.438,45.923,26.504,6.795,6.262,13.778
459,0.932,37.386,39.457,45.904,26.497,6.714,6.262,13.574
460,0.957,37.436,39.395,45.904,26.508,6.794,6.262,13.409
461,0.915,37.053,39.387,45.904,26.504,6.795,6.221,13.245
462,0.918,37.212,39.43,45.904,26.504,6.836,6.22,13.08
463,0.931,37.319,39.434,45.923,26.511,6.958,6.383,13.079
464,0.918,37.349,39.434,45.904,26.504,6.797,6.263,12.794
465,0.925,37.186,39.387,45.866,26.494,6.755,6.139,12.588
466,0.918,37.347,39.422,45.846,26.497,6.795,6.138,12.383
467,0.915,37.445,39.465,45.875,26.497,6.836,6.219,12.258
468,0.918,37.494,39.399,45.866,26.501,6.918,6.139,12.298
469,0.896,37.178,39.379,45.885,26.501,6.959,6.179,12.176
470,0.899,37.29,39.387,45.866,26.494,6.878,6.139,12.094
471,0.912,37.435,39.394,45.875,26.501,7.04,6.138,12.012
472,0.879,37.455,39.406,45.875,26.504,7.123,6.219,12.133
473,0.876,37.178,39.383,45.866,26.508,7.165,6.302,12.012
474,0.859,37.319,39.324,45.866,26.508,7.287,6.221,12.011
475,0.84,37.426,39.402,45.866,26.501,7.207,6.22,12.011
476,0.846,37.292,39.445,45.837,26.504,7.165,6.139,12.052
477,0.859,37.31,39.418,45.875,26.511,7.287,6.138,12.337
478,0.843,37.435,39.391,45.885,26.515,7.41,6.26,12.868
479,0.843,37.513,39.359,45.866,26.504,7.208,6.18,13.239
480,0.839,37.053,39.429,45.827,26.494,7.125,6.098,13.853
481,0.83,37.174,39.368,45.827,26.497,7.165,6.056,14.875
482,0.836,37.29,39.445,45.836,26.497,7.206,6.097,16.065
483,0.826,37.396,39.411,45.846,26.508,7.206,6.097,17.134
484,0.813,37.167,39.375,45.846,26.497,7.247,6.138,18.039
485,0.833,37.299,39.445,45.789,26.49,7.166,6.016,18.739
486,0.856,37.425,39.391,45.817,26.497,7.165,6.056,19.153
487,0.866,37.542,39.437,45.884,26.508,7.328,6.137,19.563
488,0.866,37.092,39.36,45.837,26.508,7.41,6.138,19.852
489,0.846,37.251,39.441,45.817,26.504,7.289,6.179,19.855
490,0.84,37.377,39.422,45.827,26.501,7.288,6.179,19.855
491,0.826,37.436,39.461,45.817,26.504,7.207,6.179,20.058
492,0.836,37.225,39.372,45.808,26.501,7.287,6.139,20.548
493,0.836,37.405,39.441,45.846,26.518,7.369,6.219,21.326
494,0.807,37.484,39.442,45.817,26.508,7.248,6.302,22.106
495,0.774,37.523,39.399,45.808,26.501,7.084,6.14,23.008
496,0.771,37.13,39.328,45.807,26.501,7.083,6.057,24.156
497,0.796,37.27,39.363,45.807,26.497,7.164,6.097,25.387
498,0.807,37.396,39.398,45.807,26.504,7.124,6.056,26.253
499,0.826,37.407,39.387,45.798,26.501,7.083,6.097,27.156
500,0.813,37.177,39.402,45.779,26.501,7.042,6.056,27.409
501,0.833,37.338,39.391,45.788,26.501,6.96,6.015,27.615
502,0.849,37.483,39.406,45.817,26.504,7.041,6.178,27.698
503,0.853,37.475,39.445,45.808,26.504,7.082,6.179,27.536
504,0.846,37.207,39.438,45.807,26.508,6.961,6.179,27.25
505,0.833,37.328,39.375,45.798,26.511,6.919,6.179,26.759
506,0.82,37.464,39.386,45.807,26.508,6.959,6.179,26.226
507,0.79,37.13,39.41,45.788,26.504,6.878,6.139,25.651
508,0.78,37.222,39.406,45.807,26.508,6.877,6.138,25.036
509,0.78,37.357,39.465,45.807,26.522,7.0,6.26,24.582
510,0.774,37.416,39.454,45.769,26.504,6.757,6.139,23.886
511,0.767,37.043,39.344,45.75,26.494,6.714,6.057,23.026
512,0.751,37.164,39.406,45.759,26.501,6.672,6.097,22.367
513,0.741,37.299,39.426,45.749,26.497,6.672,6.097,21.71
514,0.76,37.387,39.426,45.749,26.497,6.713,6.138,21.174
515,0.767,37.091,39.383,45.769,26.504,6.713,6.219,20.519
516,0.764,37.193,39.394,45.75,26.497,6.672,6.18,19.984
517,0.77,37.376,39.465,45.749,26.49,6.55,6.179,19.328
518,0.78,37.426,39.446,45.788,26.504,6.63,6.342,18.874
519,0.81,37.091,39.43,45.759,26.504,6.712,6.425,18.503
520,0.81,37.26,39.356,45.749,26.504,6.672,6.385,18.134
521,0.813,37.358,39.39,45.749,26.501,6.631,6.385,17.683
522,0.82,37.416,39.359,45.759,26.511,6.631,6.466,17.394
523,0.83,37.1,39.433,45.749,26.504,6.672,6.507,17.025
524,0.83,37.289,39.383,45.778,26.511,6.753,6.508,16.696
525,0.823,37.377,39.375,45.75,26.511,6.754,6.63,16.408
526,0.82,37.407,39.457,45.711,26.504,6.673,6.509,16.121
527,0.817,37.043,39.399,45.701,26.501,6.55,6.467,15.711
528,0.807,37.193,39.367,45.73,26.497,6.671,6.426,15.422
529,0.803,37.309,39.32,45.711,26.501,6.672,6.426,15.176
530,0.787,37.33,39.366,45.73,26.501,6.753,6.507,14.889
531,0.79,37.042,39.433,45.72,26.501,6.754,6.549,14.601
532,0.78,37.193,39.434,45.682,26.487,6.673,6.508,14.273
533,0.793,37.328,39.391,45.73,26.497,6.794,6.549,14.026
534,0.8,37.176,39.367,45.72,26.508,6.958,6.752,13.983
535,0.794,37.184,39.453,45.711,26.511,6.96,6.673,13.82
536,0.797,37.29,39.418,45.711,26.504,7.0,6.591,13.533
537,0.816,37.406,39.375,45.72,26.501,7.001,6.631,13.327
538,0.797,37.024,39.371,45.711,26.497,7.001,6.672,13.162
539,0.803,37.164,39.41,45.711,26.504,7.001,6.591,12.958
540,0.8,37.271,39.422,45.73,26.515,7.123,6.712,12.833
541,0.8,37.339,39.426,45.701,26.497,7.124,6.591,12.588
542,0.816,37.013,39.434,45.672,26.49,7.002,6.549,12.383
543,0.803,37.173,39.387,45.672,26.49,7.041,6.508,12.137
544,0.823,37.29,39.41,45.682,26.501,7.042,6.508,12.053
545,0.82,37.377,39.434,45.662,26.497,6.96,6.549,11.889
546,0.813,36.841,39.368,45.691,26.504,7.082,6.59,11.685
547,0.8,36.951,39.386,45.653,26.494,7.002,6.509,11.56
548,0.797,37.125,39.379,45.672,26.501,6.919,6.467,11.478
549,0.774,37.222,39.449,45.682,26.504,7.041,6.548,11.843
550,0.79,37.156,39.43,45.662,26.504,7.082,6.59,12.416
551,0.797,37.29,39.465,45.672,26.511,7.042,6.59,13.113
552,0.807,37.406,39.262,45.71,26.504,7.042,6.509,13.933
553,0.826,37.455,39.385,45.672,26.504,7.001,6.549,14.957
554,0.846,36.957,39.402,45.672,26.494,6.96,6.468,16.147
555,0.833,37.125,39.391,45.682,26.514,7.122,6.67,17.419
556,0.836,37.213,39.418,45.682,26.501,7.043,6.55,18.489
557,0.836,37.233,39.371,45.634,26.497,6.879,6.508,19.191
558,0.865,37.06,39.445,45.624,26.494,6.918,6.427,19.767
559,0.879,37.193,39.422,45.643,26.501,6.919,6.304,20.179
560,0.869,37.309,39.469,45.653,26.504,6.878,6.384,20.428
561,0.853,37.262,39.356,45.633,26.504,7.0,6.385,20.511
562,0.849,36.984,39.406,45.633,26.504,6.919,6.466,20.593
563,0.862,37.115,39.418,45.624,26.49,6.878,6.304,20.35
564,0.827,37.251,39.403,45.624,26.497,6.959,6.425,20.266
565,0.83,36.926,39.414,45.643,26.511,6.96,6.426,20.144
566,0.836,37.0,39.375,45.633,26.508,7.0,6.466,19.858
567,0.826,37.135,39.445,45.614,26.504,6.96,6.386,19.57
568,0.81,37.222,39.411,45.643,26.504,6.919,6.385,19.242
569,0.807,36.849,39.43,45.614,26.501,6.919,6.385,18.954
570,0.826,37.028,39.375,45.614,26.508,6.796,6.344,18.545
571,0.826,37.125,39.398,45.652,26.508,6.999,6.425,18.297
572,0.826,37.193,39.41,45.605,26.497,6.797,6.385,17.847
573,0.833,36.926,39.418,45.575,26.494,6.836,6.222,17.395
574,0.833,37.067,39.313,45.604,26.494,6.755,6.302,17.066
575,0.836,37.202,39.347,45.595,26.497,6.714,6.302,16.9
576,0.843,37.281,39.433,45.595,26.501,6.835,6.343,16.573
577,0.856,36.84,39.399,45.595,26.504,6.796,6.262,16.325
578,0.856,36.941,39.379,45.585,26.497,6.795,6.262,16.486
579,0.859,37.096,39.305,45.566,26.494,6.673,6.139,17.056
580,0.853,37.184,39.296,45.604,26.504,6.713,6.219,18.079
581,0.856,36.82,39.417,45.604,26.508,6.835,6.22,19.146
582,0.856,36.951,39.43,45.604,26.508,6.837,6.302,20.295
583,0.853,37.077,39.418,45.604,26.501,6.755,6.302,21.526
584,0.856,37.126,39.336,45.585,26.508,6.754,6.221,23.043
585,0.866,36.915,39.429,45.575,26.504,6.673,6.261,24.441
586,0.876,37.076,39.446,45.614,26.515,6.835,6.302,25.593
587,0.843,37.164,39.379,45.595,26.508,6.837,6.343,26.458
588,0.843,37.165,39.332,45.575,26.501,6.674,6.221,26.833
589,0.83,36.791,39.37,45.556,26.501,6.55,6.139,26.877
590,0.83,36.912,39.379,45.556,26.501,6.671,6.179,26.918
591,0.826,37.019,39.371,45.556,26.501,6.631,6.139,26.756
592,0.836,36.847,39.461,45.575,26.497,6.712,6.179,26.388
593,0.839,36.845,39.372,45.566,26.508,6.754,6.22,25.938
594,0.839,36.98,39.414,45.537,26.49,6.673,6.098,25.283
595,0.833,37.096,39.414,45.565,26.508,6.794,6.178,24.747
596,0.839,36.685,39.426,45.556,26.504,6.836,6.22,24.214
597,0.849,36.757,39.364,45.594,26.508,6.796,6.261,23.598
598,0.859,36.902,39.382,45.556,26.501,6.877,6.221,22.901
599,0.882,37.009,39.414,45.575,26.501,6.877,6.139,22.203
600,0.882,36.636,39.356,45.546,26.504,6.837,6.219,21.505
601,0.889,36.805,39.449,45.565,26.504,6.877,6.261,20.888
602,0.892,36.941,39.352,45.575,26.518,7.0,6.302,20.475
603,0.879,36.99,39.398,45.546,26.508,6.838,6.14,19.861
604,0.869,36.626,39.395,45.527,26.494,6.837,6.138,19.367
605,0.869,36.766,39.394,45.517,26.497,6.837,6.057,18.793
606,0.863,36.941,39.32,45.536,26.494,6.877,6.015,18.462
607,0.866,36.99,39.374,45.536,26.504,6.877,6.056,18.133
608,0.846,36.674,39.441,45.536,26.501,6.959,6.137,17.886
609,0.804,36.777,39.414,45.517,26.497,6.96,6.098,17.599
610,0.829,36.912,39.445,45.498,26.49,6.878,6.016,17.23
611,0.859,36.971,39.399,45.526,26.508,7.04,6.096,16.901
612,0.84,36.617,39.402,45.546,26.504,7.164,6.178,16.695
613,0.839,36.757,39.441,45.537,26.508,7.084,6.098,16.368
614,0.846,36.873,39.442,45.517,26.497,7.164,6.178,16.08
615,0.817,36.884,39.383,45.527,26.504,7.124,6.139,15.833
616,0.82,36.644,39.34,45.517,26.504,7.205,6.179,15.505
617,0.839,36.815,39.437,45.517,26.504,7.165,6.139,15.217
618,0.849,36.922,39.43,45.536,26.515,7.328,6.26,15.011
619,0.846,36.817,39.449,45.517,26.504,7.167,6.18,14.765
620,0.846,36.51,39.434,45.488,26.501,7.084,6.098,14.437
621,0.836,36.631,39.332,45.488,26.497,7.123,6.016,14.231
622,0.826,36.767,39.394,45.488,26.501,7.124,6.015,14.147
623,0.843,36.557,39.375,45.478,26.497,7.124,6.056,14.065
624,0.859,36.632,39.422,45.478,26.504,7.083,6.097,14.268
625,0.843,36.757,39.344,45.469,26.494,7.042,6.097,14.676
626,0.862,36.873,39.398,45.469,26.497,7.001,5.975,15.29
627,0.862,36.366,39.437,45.469,26.504,7.082,6.096,16.028
628,0.862,36.495,39.442,45.488,26.504,7.083,6.178,16.849
629,0.859,36.621,39.438,45.478,26.504,7.002,6.139,17.792
630,0.862,36.709,39.371,45.488,26.508,7.001,6.138,18.737
631,0.885,36.413,39.39,45.536,26.504,7.001,6.138,19.519
632,0.866,36.563,39.375,45.479,26.504,7.001,6.098,20.096
633,0.866,36.708,39.5,45.507,26.515,7.082,6.219,20.63
634,0.849,36.758,39.345,45.479,26.501,7.002,6.261,21.001
635,0.827,36.451,39.398,45.45,26.501,6.879,6.139,21.086
636,0.82,36.621,39.402,45.459,26.494,6.796,6.098,21.087
637,0.823,36.728,39.441,45.459,26.494,6.795,6.178,20.924
638,0.823,36.796,39.438,45.478,26.497,6.795,6.139,20.801
639,0.843,36.423,39.352,45.469,26.504,6.795,6.179,20.515
640,0.826,36.573,39.347,45.459,26.501,6.795,6.179,20.309
641,0.836,36.689,39.351,45.421,26.501,6.673,6.017,19.86
642,0.843,36.748,39.429,45.449,26.501,6.753,6.137,19.53
643,0.843,36.442,39.36,45.478,26.504,6.836,6.179,19.282
644,0.836,36.592,39.398,45.469,26.504,6.796,6.22,18.873
645,0.833,36.709,39.398,45.45,26.508,6.755,6.22,18.422
646,0.839,36.71,39.414,45.44,26.508,6.714,6.098,18.052
647,0.82,36.345,39.414,45.44,26.497,6.713,6.219,17.641
648,0.82,36.514,39.332,45.468,26.501,6.672,6.098,17.149
649,0.82,36.641,39.386,45.584,26.511,6.794,6.219,16.9
650,0.82,36.489,39.383,45.441,26.508,6.714,6.139,16.573
651,0.826,36.497,39.41,45.42,26.501,6.632,6.016,16.244
652,0.82,36.612,39.469,45.43,26.497,6.631,6.015,15.956
653,0.82,36.718,39.294,45.449,26.501,6.59,6.056,15.669
654,0.846,36.269,39.39,45.421,26.504,6.509,6.056,15.625
655,0.836,36.379,39.406,45.439,26.501,6.63,6.056,16.031
656,0.833,36.476,39.402,45.411,26.501,6.631,6.137,16.686
657,0.839,36.631,39.281,45.42,26.494,6.468,5.894,17.303
658,0.833,36.383,39.374,45.439,26.504,6.629,6.136,18.284
659,0.846,36.544,39.402,45.43,26.504,6.672,6.098,19.717
660,0.862,36.66,39.43,45.44,26.504,6.591,6.138,21.195
661,0.862,36.729,39.457,45.411,26.497,6.59,6.138,22.755
662,0.849,36.221,39.399,45.411,26.504,6.509,6.098,24.153
663,0.853,36.369,39.414,45.42,26.501,6.549,6.056,25.224
664,0.846,36.524,39.399,45.449,26.515,6.671,6.259,26.007
665,0.836,36.564,39.461,45.411,26.504,6.672,6.18,26.34
666,0.833,36.191,39.325,45.391,26.501,6.469,6.098,26.344
667,0.83,36.34,39.386,45.391,26.501,6.507,6.056,26.303
668,0.81,36.486,39.344,45.401,26.497,6.508,6.137,26.059
669,0.803,36.525,39.421,45.391,26.501,6.467,6.138,25.69
670,0.803,36.267,39.438,45.401,26.504,6.507,6.179,25.199
671,0.784,36.389,39.422,45.391,26.501,6.508,6.139,24.747
672,0.787,36.496,39.364,45.382,26.487,6.386,6.057,24.051
673,0.816,36.564,39.324,45.391,26.507,6.466,6.137,23.475
674,0.816,36.373,39.437,45.41,26.508,6.467,6.219,22.859
675,0.8,36.505,39.336,45.411,26.504,6.467,6.261,22.284
676,0.794,36.65,39.39,45.401,26.508,6.426,6.262,21.546
677,0.797,36.479,39.406,45.391,26.504,6.466,6.139,21.01
678,0.82,36.19,39.399,45.391,26.497,6.426,6.138,20.436
679,0.843,36.369,39.476,45.41,26.511,6.385,6.179,19.942
680,0.839,36.448,39.411,45.411,26.518,6.547,6.301,19.693
681,0.826,36.209,39.41,45.372,26.494,6.346,6.14,19.203
682,0.849,36.292,39.399,45.353,26.497,6.303,6.098,18.71
683,0.84,36.437,39.367,45.372,26.497,6.384,6.138,18.502
684,0.836,36.544,39.445,45.372,26.504,6.344,6.138,18.215
685,0.813,36.094,39.356,45.401,26.497,6.384,6.138,17.887
686,0.826,36.224,39.402,45.372,26.508,6.385,6.098,17.721
687,0.797,36.35,39.391,45.343,26.49,6.385,6.138,17.353
688,0.8,36.467,39.48,45.372,26.497,6.344,6.057,17.065
689,0.784,36.228,39.466,45.391,26.508,6.506,6.219,16.818
690,0.78,36.379,39.399,45.391,26.508,6.427,6.261,16.491
691,0.793,36.476,39.336,45.391,26.508,6.385,6.221,16.203
692,0.784,36.564,39.351,45.372,26.504,6.466,6.261,15.997
693,0.793,36.248,39.398,45.381,26.501,6.467,6.262,15.669
694,0.8,36.379,39.348,45.372,26.504,6.386,6.221,15.381
695,0.784,36.544,39.394,45.391,26.515,6.466,6.342,15.175
696,0.777,36.593,39.352,45.382,26.511,6.507,6.466,15.051
697,0.787,36.181,39.429,45.353,26.497,6.345,6.223,14.806
698,0.78,36.331,39.422,45.324,26.494,6.262,6.22,14.722
699,0.797,36.457,39.403,45.343,26.497,6.302,6.22,14.965
700,0.813,36.487,39.348,45.352,26.504,6.384,6.18,15.496
701,0.826,36.228,39.371,45.362,26.504,6.385,6.301,15.949
702,0.833,36.36,39.383,45.362,26.494,6.344,6.302,16.563
703,0.839,36.476,39.375,45.343,26.49,6.343,6.221,17.22
704,0.823,36.535,39.32,45.381,26.501,6.466,6.139,17.958
705,0.826,36.516,39.386,45.362,26.508,6.507,6.26,18.779
706,0.833,36.622,39.414,45.353,26.508,6.508,6.262,19.275
707,0.839,36.766,39.445,45.372,26.504,6.549,6.221,19.646
708,0.813,36.212,39.36,45.353,26.504,6.549,6.261,19.853
709,0.8,36.12,39.343,45.343,26.504,6.59,6.302,20.018
710,0.781,36.263,39.351,45.448,26.504,6.509,6.221,19.979
711,0.78,36.389,39.394,45.382,26.511,6.711,6.342,19.937
712,0.774,36.083,39.445,45.362,26.511,6.672,6.262,19.856
713,0.767,36.205,39.317,45.324,26.501,6.55,6.139,19.53
714,0.764,36.331,39.39,45.314,26.497,6.508,6.138,19.12
715,0.761,36.418,39.375,45.333,26.494,6.589,6.057,18.953
716,0.757,36.16,39.422,45.333,26.497,6.59,6.137,18.707
717,0.754,36.302,39.406,45.333,26.504,6.631,6.179,18.38
718,0.774,36.437,39.332,45.333,26.504,6.672,6.139,18.173
719,0.79,36.487,39.359,45.304,26.501,6.591,6.098,17.805
720,0.8,36.094,39.347,45.314,26.497,6.631,6.016,17.395
721,0.797,36.253,39.406,45.343,26.508,6.672,6.137,17.106
722,0.794,36.37,39.414,45.343,26.508,6.713,6.26,16.819
723,0.793,36.448,39.422,45.324,26.504,6.754,6.18,16.572
724,0.803,36.141,39.36,45.304,26.504,6.673,6.22,16.447
725,0.787,36.282,39.429,45.323,26.504,6.713,6.22,16.202
726,0.81,36.389,39.383,45.314,26.501,6.672,6.22,15.997
727,0.823,36.524,39.344,45.371,26.515,6.753,6.22,15.832
728,0.797,36.113,39.402,45.334,26.508,6.795,6.261,15.83
729,0.761,36.234,39.359,45.324,26.494,6.673,6.262,15.546
730,0.774,36.341,39.418,45.304,26.494,6.591,6.099,15.218
731,0.774,36.39,39.414,45.295,26.497,6.631,6.138,15.011
732,0.78,36.15,39.422,45.294,26.501,6.55,6.057,14.846
733,0.777,36.311,39.391,45.294,26.504,6.63,6.178,14.641
734,0.777,36.418,39.41,45.294,26.497,6.631,6.179,14.517
735,0.777,36.352,39.41,45.285,26.49,6.509,6.098,14.475
736,0.803,36.217,39.27,45.323,26.497,6.467,6.138,14.922
737,0.82,36.36,39.385,45.323,26.511,6.67,6.219,16.228
738,0.807,36.447,39.359,45.323,26.508,6.631,6.261,17.501
739,0.803,36.094,39.406,45.304,26.504,6.55,6.099,18.815
740,0.807,36.128,39.371,45.304,26.504,6.549,6.178,20.495
741,0.79,36.244,39.437,45.304,26.504,6.549,6.261,22.301
742,0.806,36.389,39.407,45.304,26.508,6.508,6.221,24.027
743,0.81,36.064,39.391,45.352,26.518,6.589,6.302,25.548
744,0.807,36.166,39.449,45.314,26.508,6.549,6.302,26.458
745,0.813,36.292,39.313,45.276,26.497,6.468,6.14,26.995
746,0.81,36.389,39.378,45.275,26.494,6.467,6.098,27.204
747,0.807,36.083,39.336,45.256,26.504,6.467,6.097,27.247
748,0.79,36.234,39.394,45.284,26.504,6.507,6.178,27.166
749,0.787,36.35,39.434,45.275,26.497,6.467,6.179,26.921
750,0.78,36.419,39.368,45.266,26.501,6.467,6.179,26.431
751,0.787,36.045,39.351,45.265,26.494,6.467,6.017,25.735
752,0.767,36.214,39.382,45.285,26.508,6.467,6.178,25.24
753,0.77,36.34,39.449,45.285,26.501,6.629,6.179,24.666
754,0.774,36.399,39.368,45.285,26.508,6.509,6.179,24.05
755,0.774,36.112,39.41,45.266,26.501,6.508,6.179,23.393
756,0.767,36.244,39.367,45.285,26.508,6.549,6.179,22.696
757,0.79,36.37,39.433,45.275,26.501,6.468,6.22,22.038
758,0.787,36.428,39.469,45.294,26.515,6.629,6.261,21.584
759,0.806,36.208,39.399,45.275,26.504,6.509,6.18,21.011
760,0.8,36.331,39.371,45.246,26.49,6.386,6.139,20.354
761,0.79,36.476,39.347,45.265,26.501,6.303,6.138,19.941
762,0.787,36.602,39.367,45.256,26.497,6.384,6.179,19.652
763,0.767,36.057,39.367,45.246,26.504,6.344,6.057,19.487
764,0.761,36.195,39.32,45.284,26.504,6.384,6.137,19.282
765,0.774,36.292,39.37,45.237,26.497,6.425,6.138,19.158
766,0.774,36.063,39.394,45.217,26.49,6.263,6.016,18.913
767,0.78,36.09,39.441,45.255,26.501,6.424,6.259,19.154
768,0.767,36.234,39.36,45.256,26.504,6.426,6.262,19.604
769,0.774,36.322,39.343,45.256,26.504,6.385,6.221,19.934
770,0.78,36.035,39.265,45.284,26.501,6.385,6.18,20.506
771,0.79,36.147,39.393,45.256,26.504,6.303,6.261,21.284
772,0.79,36.301,39.387,45.227,26.504,6.302,6.221,22.309
773,0.78,36.408,39.383,45.284,26.511,6.465,6.261,23.457
774,0.767,36.045,39.39,45.266,26.511,6.426,6.262,24.607
775,0.767,36.176,39.367,45.237,26.501,6.263,6.221,25.391
776,0.77,36.292,39.41,45.227,26.497,6.302,6.139,25.765
777,0.77,36.38,39.356,45.236,26.501,6.221,6.138,26.094
778,0.783,35.901,39.343,45.236,26.497,6.22,6.179,26.219
779,0.784,36.04,39.371,45.227,26.497,6.22,6.139,26.017
780,0.8,36.157,39.402,45.227,26.501,6.22,6.138,25.771
781,0.787,36.206,39.387,45.217,26.49,6.139,6.138,25.362
782,0.797,35.976,39.433,45.227,26.49,6.138,6.057,24.87
783,0.803,36.146,39.368,45.313,26.508,6.26,6.178,24.377
784,0.807,36.263,39.351,45.237,26.511,6.262,6.179,23.803
785,0.797,36.293,39.429,45.236,26.504,6.221,6.139,23.269
786,0.803,35.919,39.348,45.227,26.504,6.22,6.219,22.613
787,0.803,36.069,39.312,45.246,26.508,6.18,6.098,22.037
788,0.794,36.195,39.339,45.246,26.504,6.179,6.138,21.462
789,0.771,36.244,39.406,45.265,26.511,6.342,6.219,21.172
790,0.735,35.9,39.43,45.246,26.508,6.221,6.22,20.6
791,0.731,36.03,39.407,45.217,26.497,6.098,6.058,20.188
792,0.721,36.137,39.402,45.217,26.494,6.138,6.015,19.777
793,0.741,36.167,39.344,45.227,26.504,6.138,6.015,19.407
794,0.747,36.052,39.382,45.217,26.501,6.179,6.015,19.159
795,0.754,36.214,39.39,45.217,26.501,6.261,6.096,18.791
796,0.741,36.283,39.328,45.207,26.497,6.139,6.097,18.503
797,0.757,35.967,39.374,45.188,26.49,6.098,5.975,18.012
798,0.767,36.07,39.375,45.245,26.501,6.178,6.096,17.844
799,0.787,36.186,39.414,45.227,26.501,6.179,6.178,17.639
800,0.79,36.311,39.43,45.227,26.511,6.179,6.139,17.312
801,0.793,35.843,39.449,45.246,26.504,6.179,6.138,16.984
802,0.787,35.953,39.313,45.246,26.504,6.139,6.138,16.696
803,0.79,36.117,39.398,45.227,26.501,6.138,6.098,16.327
804,0.8,36.215,39.43,45.246,26.508,6.138,6.138,16.16
805,0.787,35.938,39.379,45.236,26.518,6.301,6.219,15.996
806,0.793,36.04,39.402,45.227,26.497,6.18,6.139,15.669
807,0.777,36.166,39.359,45.208,26.501,6.139,6.098,15.259
808,0.761,36.244,39.406,45.207,26.497,6.138,5.975,15.052
809,0.764,35.833,39.422,45.207,26.504,6.219,6.015,14.725
810,0.761,35.963,39.438,45.207,26.497,6.22,5.974,14.599
811,0.751,36.098,39.43,45.207,26.508,6.18,6.015,14.273
812,0.731,36.176,39.356,45.207,26.501,6.301,6.096,14.107
813,0.751,35.918,39.363,45.179,26.49,6.18,5.975,13.902
814,0.774,36.088,39.39,45.217,26.501,6.261,5.974,13.575
815,0.784,36.215,39.309,45.227,26.504,6.424,6.137,13.49
816,0.8,36.273,39.331,45.217,26.504,6.426,6.138,13.327
817,0.797,35.929,39.402,45.217,26.501,6.426,6.057,13.081
818,0.807,36.079,39.406,45.198,26.501,6.507,6.097,12.916
819,0.8,36.195,39.383,45.207,26.504,6.508,6.016,12.792
820,0.816,36.475,39.418,45.246,26.504,6.63,6.096,12.913
821,0.816,35.749,39.328,45.236,26.511,6.753,6.178,13.524
822,0.833,35.875,39.374,45.208,26.494,6.673,6.057,14.059
823,0.833,35.982,39.398,45.198,26.49,6.631,6.015,14.959
824,0.826,36.012,39.352,45.188,26.494,6.631,6.015,16.147
825,0.817,36.118,39.355,45.217,26.497,6.712,6.015,17.744
826,0.826,36.253,39.382,45.207,26.504,6.672,6.096,19.468
827,0.817,36.322,39.422,45.207,26.497,6.672,6.056,21.071
828,0.846,35.594,39.387,45.179,26.49,6.631,5.934,22.388
829,0.843,35.701,39.348,45.217,26.508,6.712,6.055,23.499
830,0.853,35.837,39.304,45.227,26.504,6.794,6.097,24.242
831,0.859,35.944,39.39,45.217,26.504,6.795,6.056,24.778
832,0.849,35.762,39.359,45.217,26.504,6.836,6.056,24.946
833,0.859,35.885,39.449,45.217,26.501,6.755,6.056,24.947
834,0.866,36.03,39.368,45.207,26.504,6.836,6.015,24.744
835,0.895,36.156,39.418,45.246,26.504,6.755,6.096,24.457
836,0.902,35.726,39.406,45.246,26.515,6.917,6.178,24.251
837,0.905,35.856,39.406,45.227,26.497,6.756,5.976,23.639
838,0.908,35.992,39.344,45.208,26.497,6.592,6.055,23.064
839,0.921,36.041,39.253,45.207,26.494,6.631,5.975,22.448
840,0.909,35.552,39.342,45.207,26.501,6.672,5.933,21.832
841,0.912,35.701,39.328,45.217,26.497,6.713,6.014,21.298
842,0.912,35.846,39.398,45.217,26.504,6.672,5.974,20.682
843,0.895,35.877,39.27,45.188,26.49,6.509,5.933,20.229
844,0.905,35.743,39.354,45.226,26.501,6.549,5.933,19.696
845,0.905,35.904,39.41,45.246,26.511,6.712,6.014,19.406
846,0.918,36.011,39.406,45.217,26.504,6.713,6.015,19.037
847,0.909,36.032,39.371,45.236,26.501,6.632,5.974,18.708
848,0.905,35.754,39.332,45.275,26.497,6.631,6.015,18.38
849,0.882,35.895,39.378,45.218,26.504,6.631,6.015,18.092
850,0.892,36.05,39.328,45.227,26.508,6.631,5.974,17.886
851,0.882,35.888,39.433,45.246,26.511,6.834,6.055,17.802
852,0.856,35.589,39.383,45.227,26.504,6.714,6.015,17.476
853,0.846,35.74,39.402,45.208,26.501,6.551,5.934,17.188
854,0.83,35.837,39.387,45.207,26.501,6.549,5.811,16.901
855,0.797,35.646,39.387,45.198,26.494,6.59,5.85,16.857
856,0.797,35.769,39.367,45.236,26.497,6.59,5.973,16.816
857,0.777,35.914,39.285,45.275,26.497,6.631,5.974,17.019
858,0.767,35.983,39.354,45.208,26.49,6.509,5.893,17.184
859,0.774,35.629,39.355,45.227,26.497,6.508,5.851,17.795
860,0.754,35.759,39.414,45.246,26.504,6.63,6.013,19.062
861,0.748,35.895,39.43,45.236,26.504,6.55,6.015,20.213
862,0.777,35.963,39.356,45.246,26.508,6.549,5.974,21.363
863,0.754,35.542,39.363,45.246,26.501,6.63,5.893,22.188
864,0.767,35.662,39.355,45.227,26.501,6.55,5.933,22.806
865,0.777,35.827,39.406,45.246,26.508,6.63,5.974,23.259
866,0.777,35.905,39.277,45.265,26.511,6.672,6.055,23.711
867,0.78,35.589,39.346,45.237,26.501,6.631,5.975,23.553
868,0.777,35.74,39.328,45.227,26.497,6.468,5.893,23.47
869,0.774,35.875,39.406,45.227,26.497,6.467,5.892,23.225
870,0.748,35.944,39.426,45.236,26.501,6.507,5.933,23.1
871,0.728,35.552,39.414,45.246,26.501,6.508,5.974,22.815
872,0.754,35.73,39.383,45.275,26.494,6.549,5.974,22.527
873,0.735,35.818,39.344,45.227,26.497,6.549,5.852,22.118
874,0.741,35.876,39.433,45.236,26.497,6.549,5.851,21.667
875,0.76,35.551,39.356,45.284,26.504,6.63,5.973,21.459
876,0.757,35.73,39.375,45.275,26.504,6.631,6.015,21.091
877,0.748,35.827,39.324,45.285,26.504,6.631,6.015,20.721
878,0.728,36.154,39.398,45.285,26.501,6.672,5.974,20.351
879,0.744,35.554,39.437,45.285,26.504,6.631,5.974,19.86
880,0.744,35.691,39.414,45.285,26.504,6.59,5.933,19.611
881,0.747,35.827,39.395,45.294,26.508,6.631,5.974,19.202
882,0.754,35.656,39.344,45.294,26.511,6.672,6.096,18.995
883,0.751,35.645,39.39,45.256,26.501,6.591,6.016,18.464
884,0.754,35.769,39.363,45.284,26.494,6.509,5.934,18.133
885,0.754,35.885,39.375,45.371,26.494,6.549,5.852,17.724
886,0.754,35.34,39.359,45.267,26.497,6.508,5.891,17.353
887,0.735,35.44,39.386,45.285,26.497,6.508,5.933,17.025
888,0.728,35.585,39.437,45.266,26.504,6.467,5.933,16.696
889,0.692,35.673,39.379,45.246,26.494,6.304,5.77,16.286
890,0.685,35.53,39.394,45.284,26.497,6.425,5.891,15.916
891,0.679,35.691,39.293,45.314,26.508,6.548,5.973,15.628
892,0.665,35.808,39.37,45.295,26.504,6.508,5.974,15.34
893,0.652,35.895,39.433,45.285,26.504,6.508,5.893,15.053
894,0.636,35.436,39.352,45.304,26.504,6.467,5.973,14.725
895,0.642,35.585,39.351,45.285,26.497,6.507,5.893,14.396
896,0.649,35.749,39.386,45.323,26.511,6.63,5.973,14.149
897,0.646,35.799,39.441,45.304,26.511,6.631,6.055,13.984
898,0.652,35.512,39.372,45.266,26.494,6.428,5.853,13.657
899,0.662,35.643,39.383,45.294,26.497,6.385,5.81,13.247
900,0.646,35.788,39.305,45.294,26.497,6.507,5.85,12.999
901,0.659,35.838,39.39,45.294,26.501,6.467,5.891,12.793
902,0.656,35.445,39.355,45.304,26.501,6.507,5.933,12.629
903,0.655,35.566,39.429,45.304,26.501,6.589,5.892,12.424
904,0.652,35.682,39.395,45.285,26.494,6.468,5.851,12.137
905,0.662,35.741,39.328,45.323,26.497,6.507,5.81,11.931
906,0.669,35.463,39.406,45.323,26.504,6.63,5.932,11.807
907,0.665,35.575,39.383,45.323,26.508,6.631,5.974,11.643
908,0.659,35.711,39.383,45.333,26.501,6.631,5.933,11.519
909,0.665,35.655,39.195,45.333,26.508,6.59,5.892,11.234
910,0.688,35.539,39.346,45.343,26.504,6.671,5.973,11.312
911,0.688,35.701,39.304,45.314,26.504,6.631,5.893,10.988
912,0.682,35.827,39.39,45.352,26.508,6.753,5.933,10.903
913,0.679,35.397,39.375,45.343,26.511,6.754,5.974,10.902
914,0.669,35.46,39.351,45.333,26.501,6.592,5.893,10.658
915,0.652,35.614,39.402,45.333,26.49,6.59,5.851,10.371
916,0.649,35.673,39.367,45.324,26.494,6.671,5.851,10.287
917,0.649,35.415,39.367,45.323,26.494,6.55,5.851,10.245
918,0.649,35.556,39.301,45.352,26.501,6.63,5.81,10.164
919,0.662,35.672,39.335,45.362,26.497,6.59,5.85,10.082
920,0.656,35.75,39.328,45.314,26.494,6.427,5.851,9.878
921,0.659,35.271,39.331,45.343,26.497,6.548,5.81,9.835
922,0.662,35.41,39.445,45.372,26.504,6.59,5.932,9.834
923,0.649,35.556,39.36,45.372,26.504,6.631,5.974,9.834
924,0.646,35.644,39.39,45.372,26.501,6.55,5.933,10.119
925,0.659,35.376,39.383,45.362,26.504,6.427,5.892,11.016
926,0.669,35.507,39.41,45.343,26.497,6.466,5.973,12.204
927,0.646,35.681,39.395,45.4,26.508,6.507,5.893,13.599
928,0.655,35.75,39.391,45.401,26.515,6.63,6.054,15.28
929,0.639,35.406,39.398,45.382,26.504,6.509,5.975,17.045
930,0.652,35.527,39.355,45.334,26.497,6.386,5.852,18.811
931,0.675,35.662,39.382,45.362,26.497,6.385,5.81,20.333
932,0.675,35.702,39.289,45.372,26.501,6.466,5.972,21.649
933,0.727,35.338,39.335,45.381,26.497,6.386,5.893,22.638
934,0.76,35.488,39.382,45.401,26.504,6.385,5.933,23.298
935,0.819,35.585,39.383,45.382,26.494,6.385,6.014,23.711
936,0.872,35.989,39.344,45.372,26.49,6.263,5.812,23.797
937,0.947,35.629,39.347,45.401,26.504,6.343,5.972,23.879
938,0.98,35.769,39.406,45.411,26.504,6.466,6.096,23.798
939,1.01,35.876,39.383,45.411,26.508,6.426,6.056,23.431
940,1.004,35.311,39.406,45.401,26.504,6.385,6.015,23.021
941,1.03,35.238,39.399,45.391,26.501,6.303,5.974,22.651
942,1.076,35.401,39.32,45.439,26.504,6.343,6.015,22.119
943,1.076,35.527,39.374,45.44,26.508,6.343,6.056,21.626
944,1.076,35.269,39.429,45.44,26.511,6.425,6.056,21.214
945,1.115,35.363,39.348,45.411,26.494,6.304,5.975,20.478
946,1.197,35.488,39.332,45.401,26.494,6.221,5.852,19.861
947,1.298,35.605,39.39,45.42,26.494,6.302,5.851,19.408
948,1.377,35.184,39.379,45.392,26.501,6.343,5.932,18.834
949,1.463,35.333,39.422,45.43,26.504,6.425,5.974,18.462
950,1.529,35.459,39.422,45.42,26.497,6.466,5.974,18.052
951,1.607,35.527,39.328,45.411,26.497,6.345,5.893,17.682
952,1.667,35.221,39.386,45.449,26.501,6.506,5.973,17.556
953,1.71,35.391,39.371,45.459,26.504,6.63,6.055,17.474
954,1.782,35.508,39.422,45.449,26.508,6.672,6.056,17.31
955,1.834,35.585,39.328,45.468,26.501,6.631,5.934,17.187
956,1.835,35.27,39.351,45.44,26.501,6.712,6.014,16.901
957,1.812,35.43,39.39,45.449,26.504,6.713,5.974,17.02
958,1.805,35.556,39.387,45.459,26.504,6.672,6.015,17.265
959,1.776,35.605,39.406,45.488,26.511,6.753,6.137,17.918
960,1.695,35.203,39.317,45.45,26.497,6.754,5.976,18.413
961,1.664,35.314,39.331,45.459,26.497,6.673,5.974,19.353
962,1.654,35.459,39.308,45.44,26.504,6.591,5.974,20.623
963,1.638,35.48,39.386,45.468,26.497,6.753,6.015,22.221
964,1.586,35.259,39.34,45.469,26.504,6.714,6.015,23.457
965,1.449,35.382,39.355,45.469,26.508,6.794,6.015,24.648
966,1.32,35.488,39.363,45.44,26.49,6.714,5.974,25.27
967,1.189,35.326,39.386,45.468,26.497,6.713,5.893,25.764
968,1.074,35.133,39.39,45.497,26.508,6.835,6.054,26.094
969,0.894,35.275,39.324,45.507,26.504,6.837,6.015,26.097
970,0.729,35.391,39.347,45.507,26.497,6.877,6.056,25.853
971,0.601,35.201,39.339,45.488,26.497,6.837,6.056,25.485
972,0.427,35.256,39.39,45.498,26.501,6.837,6.015,25.075
973,0.25,35.439,39.406,45.488,26.508,6.837,6.015,24.623
974,0.076,35.556,39.391,45.536,26.515,6.999,6.096,24.212
975,-0.072,35.087,39.379,45.498,26.501,6.919,6.056,23.639
976,-0.201,35.207,39.355,45.488,26.494,6.715,5.934,23.186
977,-0.274,35.343,39.41,45.498,26.501,6.754,5.974,22.694
978,-0.274,35.45,39.285,45.498,26.501,6.714,5.933,22.242
979,-0.278,35.086,39.35,45.565,26.494,6.794,5.974,21.749
980,-0.317,35.236,39.367,45.518,26.501,6.877,5.974,21.256
981,-0.35,35.333,39.347,45.508,26.501,6.755,5.974,20.804
982,-0.334,35.421,39.429,45.498,26.497,6.754,5.893,20.19
983,-0.278,35.144,39.282,45.536,26.501,6.917,6.014,19.899
984,-0.265,35.285,39.354,45.546,26.501,6.837,6.015,19.652
985,-0.222,35.411,39.378,45.546,26.504,6.837,5.974,19.243
986,-0.179,35.498,39.387,45.537,26.504,6.755,5.933,18.995
987,-0.137,35.116,39.316,45.536,26.501,6.795,5.974,18.748
988,-0.084,35.265,39.335,45.546,26.504,6.755,5.893,18.665
989,-0.061,35.439,39.41,45.575,26.515,6.836,6.054,18.664
990,-0.048,35.422,39.379,45.556,26.504,6.796,6.056,18.461
991,-0.015,35.124,39.422,45.537,26.494,6.714,5.934,18.174
992,0.011,35.275,39.391,45.527,26.494,6.632,5.933,18.009
993,0.051,35.411,39.375,45.546,26.497,6.631,5.933,17.804
994,0.09,35.776,39.359,45.565,26.501,6.712,5.933,17.558
995,0.116,35.157,39.414,45.556,26.497,6.632,5.974,17.311
996,0.139,35.265,39.332,45.575,26.501,6.59,6.015,17.146
997,0.195,35.401,39.335,45.566,26.494,6.631,5.893,16.9
998,0.212,35.172,39.367,45.585,26.504,6.631,5.973,16.979
999,0.28,35.199,39.367,45.594,26.504,6.712,6.015,16.939
1000,0.307,35.314,39.398,45.595,26.504,6.632,5.974,16.858
1001,0.33,35.43,39.43,45.604,26.501,6.631,6.015,16.735
1002,0.389,35.086,39.282,45.595,26.501,6.672,6.015,16.693
1003,0.435,35.198,39.335,45.595,26.501,6.631,6.015,16.53
1004,0.478,35.352,39.378,45.614,26.497,6.631,6.056,16.325
1005,0.511,35.459,39.394,45.643,26.515,6.672,6.097,16.201
1006,0.543,34.962,39.328,45.595,26.504,6.55,6.016,15.997
1007,0.56,35.091,39.374,45.595,26.49,6.427,5.934,15.669
1008,0.567,35.236,39.402,45.604,26.494,6.344,5.892,15.463
1009,0.564,35.324,39.375,45.604,26.49,6.425,5.892,15.257
1010,0.577,34.999,39.379,45.595,26.497,6.507,5.973,14.971
1011,0.609,35.149,39.316,45.614,26.497,6.386,5.974,14.765
1012,0.629,35.294,39.339,45.614,26.501,6.466,5.893,14.559
1013,0.642,35.344,39.285,45.595,26.49,6.223,5.811,14.232
1014,0.685,35.037,39.397,45.614,26.501,6.383,5.972,14.066
1015,0.711,35.197,39.285,45.652,26.504,6.466,6.015,13.942
1016,0.715,35.324,39.354,45.643,26.508,6.467,5.974,13.697
1017,0.734,35.401,39.421,45.653,26.504,6.426,5.974,13.451
1018,0.734,35.047,39.43,45.643,26.497,6.426,5.933,13.286
1019,0.754,35.197,39.426,45.633,26.501,6.466,5.933,13.04
1020,0.751,35.352,39.367,45.652,26.501,6.426,5.974,12.834
1021,0.757,35.373,39.304,45.681,26.515,6.629,6.096,12.751
1022,0.748,35.076,39.304,45.653,26.504,6.509,6.056,12.669
1023,0.738,35.188,39.351,45.653,26.49,6.386,5.853,12.302
1024,0.741,35.323,39.324,45.653,26.49,6.466,5.891,12.136
1025,0.751,35.152,39.343,45.681,26.494,6.467,5.892,12.053
1026,0.751,34.978,39.367,45.672,26.494,6.467,5.933,11.808
1027,0.738,35.129,39.382,45.662,26.501,6.548,5.892,11.684
1028,0.734,35.217,39.379,45.643,26.501,6.508,5.973,11.56
1029,0.747,34.921,39.277,45.643,26.487,6.345,5.893,11.397
1030,0.76,35.043,39.315,45.681,26.501,6.466,5.892,11.68
1031,0.744,35.188,39.378,45.691,26.511,6.548,5.973,12.74
1032,0.76,35.285,39.347,45.691,26.497,6.549,6.015,13.929
1033,0.77,35.046,39.398,45.682,26.497,6.549,5.974,15.202
1034,0.77,35.188,39.328,45.701,26.497,6.468,6.015,16.8
1035,0.774,35.333,39.366,45.691,26.501,6.507,5.974,18.605
1036,0.784,35.43,39.394,45.701,26.508,6.467,5.933,20.575
1037,0.784,34.961,39.387,45.72,26.511,6.589,6.136,22.505
1038,0.764,35.062,39.32,45.701,26.508,6.387,6.016,23.907
1039,0.783,35.197,39.277,45.711,26.494,6.344,5.893,25.1
1040,0.787,35.295,39.382,45.672,26.501,6.262,5.892,26.169
1041,0.793,34.931,39.348,45.672,26.504,6.302,5.851,27.155
1042,0.797,35.081,39.417,45.691,26.494,6.343,5.932,27.937
1043,0.813,35.207,39.324,45.71,26.497,6.343,5.852,28.514
1044,0.81,35.256,39.351,45.682,26.49,6.303,5.973,28.967
1045,0.813,34.931,39.394,45.682,26.494,6.302,5.852,29.419
1046,0.826,35.081,39.406,45.71,26.504,6.302,5.973,29.708
1047,0.817,35.236,39.309,45.72,26.508,6.343,6.015,29.833
1048,0.813,35.257,39.327,45.72,26.494,6.343,5.974,29.672
1049,0.797,34.969,39.366,45.711,26.504,6.303,5.974,29.426
1050,0.8,35.12,39.347,45.72,26.497,6.302,5.933,28.977
1051,0.8,35.246,39.433,45.72,26.504,6.302,5.974,28.484
1052,0.8,35.612,39.352,45.749,26.515,6.425,6.015,27.991
1053,0.8,35.03,39.375,45.73,26.504,6.344,6.096,27.377
1054,0.797,35.14,39.308,45.72,26.497,6.181,5.894,26.557
1055,0.807,35.275,39.374,45.692,26.49,6.22,5.892,25.858
1056,0.816,34.845,39.293,45.739,26.494,6.22,5.811,25.363
1057,0.826,34.831,39.327,45.74,26.501,6.302,5.891,24.83
1058,0.826,34.955,39.351,45.721,26.501,6.302,5.892,24.377
1059,0.817,35.072,39.367,45.72,26.497,6.302,5.892,23.803
1060,0.82,34.948,39.386,45.711,26.487,6.262,5.811,23.228
1061,0.826,35.091,39.367,45.73,26.497,6.302,5.81,22.735
1062,0.823,35.255,39.39,45.835,26.504,6.425,5.972,22.283
1063,0.83,35.334,39.312,45.741,26.504,6.385,5.933,21.749
1064,0.839,34.903,39.413,45.749,26.501,6.344,5.974,21.256
1065,0.83,35.052,39.301,45.769,26.501,6.384,5.933,20.682
1066,0.836,35.169,39.358,45.74,26.504,6.385,5.892,20.107
1067,0.843,35.275,39.375,45.759,26.497,6.385,5.892,19.654
1068,0.839,34.941,39.386,45.778,26.515,6.507,5.973,19.202
1069,0.836,35.052,39.437,45.769,26.508,6.549,6.015,18.791
1070,0.81,35.197,39.336,45.759,26.508,6.305,5.893,18.177
1071,0.826,35.247,39.32,45.749,26.49,6.262,5.811,17.643
1072,0.836,34.797,39.359,45.769,26.494,6.384,5.81,17.149
1073,0.817,34.965,39.363,45.759,26.501,6.303,5.85,16.819
1074,0.826,35.081,39.371,45.759,26.494,6.302,5.891,16.45
1075,0.82,35.131,39.328,45.759,26.497,6.302,5.851,16.08
1076,0.823,34.949,39.335,45.769,26.497,6.221,5.81,15.589
1077,0.836,35.129,39.386,45.778,26.497,6.302,5.85,15.34
1078,0.839,35.237,39.406,45.798,26.504,6.343,5.891,14.931
1079,0.852,35.266,39.324,45.807,26.504,6.425,5.933,14.724
1080,0.846,34.864,39.324,45.788,26.501,6.344,5.974,14.315
1081,0.846,35.023,39.312,45.865,26.501,6.303,5.893,14.108
1082,0.862,35.13,39.347,45.808,26.497,6.425,5.892,13.902
1083,0.872,35.026,39.429,45.817,26.501,6.426,5.851,13.615
1084,0.866,34.929,39.262,45.865,26.515,6.548,5.973,13.531
1085,0.849,35.043,39.354,45.837,26.504,6.427,5.933,13.368
1086,0.843,35.13,39.359,45.808,26.497,6.344,5.852,12.96
1087,0.849,34.815,39.414,45.788,26.49,6.384,5.81,12.711
1088,0.856,34.927,39.324,45.807,26.497,6.466,5.769,12.546
1089,0.856,35.081,39.292,45.827,26.501,6.507,5.768,12.464
1090,0.853,35.188,39.319,45.961,26.501,6.467,5.768,12.3
1091,0.843,34.777,39.339,45.838,26.497,6.507,5.85,12.176
1092,0.869,34.897,39.39,45.808,26.49,6.427,5.688,11.931
1093,0.866,35.062,39.359,45.846,26.504,6.548,5.727,11.848
1094,0.879,35.159,39.367,45.885,26.511,6.63,5.809,11.725
1095,0.876,34.93,39.328,45.894,26.504,6.672,5.769,11.683
1096,0.859,35.081,39.437,45.866,26.497,6.672,5.85,11.56
1097,0.862,35.207,39.329,45.866,26.494,6.753,5.769,11.437
1098,0.859,35.276,39.273,45.894,26.501,6.714,5.809,11.314
1099,0.895,34.854,39.303,45.895,26.504,6.835,5.85,11.232
1100,0.895,35.004,39.331,45.923,26.511,6.918,5.932,11.353
1101,0.892,35.082,39.37,45.876,26.501,6.715,5.811,11.232
1102,0.905,35.14,39.336,45.866,26.497,6.672,5.769,11.353
1103,0.899,34.719,39.378,45.961,26.497,6.631,5.647,11.476
1104,0.925,34.878,39.269,45.886,26.497,6.672,5.767,11.64
1105,0.938,35.004,39.374,45.904,26.497,6.713,5.687,11.885
1106,0.941,35.024,39.367,45.895,26.497,6.672,5.768,12.05
1107,0.909,34.881,39.265,45.933,26.504,6.672,5.728,12.337
1108,0.905,35.013,39.378,45.866,26.487,6.672,5.687,12.421
1109,0.892,35.168,39.347,45.913,26.494,6.631,5.727,12.706
1110,0.892,35.477,39.414,45.943,26.504,6.712,5.809,12.953
1111,0.892,34.789,39.406,45.933,26.508,6.754,5.85,13.118
1112,0.882,34.926,39.352,45.924,26.501,6.714,5.851,13.201
1113,0.889,35.033,39.382,45.933,26.504,6.754,5.851,13.243
1114,0.892,34.785,39.355,45.924,26.494,6.632,5.851,13.202
1115,0.892,34.821,39.402,45.943,26.497,6.631,5.81,13.202
1116,0.895,35.003,39.297,45.991,26.508,6.712,5.85,13.202
1117,0.905,35.082,39.351,45.982,26.504,6.754,5.973,13.243
1118,0.912,34.699,39.316,45.963,26.497,6.592,5.771,12.999
1119,0.935,34.81,39.421,45.934,26.49,6.549,5.809,12.834
1120,0.931,34.965,39.434,45.952,26.497,6.508,5.769,12.751
1121,0.918,35.062,39.387,45.953,26.497,6.508,5.768,12.628
1122,0.909,34.699,39.367,45.962,26.494,6.589,5.768,12.627
1123,0.931,34.829,39.32,45.962,26.494,6.549,5.85,12.546
1124,0.925,34.936,39.359,45.943,26.487,6.468,5.688,12.342
1125,0.928,35.081,39.242,45.981,26.497,6.548,5.727,12.136
1126,0.957,34.737,39.323,45.982,26.508,6.59,5.85,12.134
1127,0.951,34.878,39.304,45.982,26.504,6.59,5.81,12.053
1128,0.948,35.023,39.37,45.991,26.504,6.468,5.81,11.93
1129,0.935,35.082,39.39,45.991,26.504,6.467,5.85,11.807
1130,0.948,34.651,39.344,46.001,26.501,6.467,5.81,12.416
1131,0.974,34.819,39.308,46.001,26.497,6.507,5.932,13.357
1132,0.968,34.984,39.351,46.039,26.511,6.589,5.933,14.708
1133,0.951,34.995,39.386,46.011,26.508,6.468,5.892,16.104
1134,0.971,34.775,39.355,45.982,26.494,6.386,5.729,17.622
1135,0.961,34.916,39.343,46.001,26.497,6.344,5.809,19.467
1136,0.977,35.043,39.343,46.001,26.494,6.466,5.769,21.234
1137,0.984,35.082,39.371,46.02,26.497,6.467,5.809,22.715
1138,0.994,34.814,39.398,46.02,26.497,6.467,5.81,23.99
1139,0.994,34.936,39.359,46.02,26.497,6.507,5.81,24.816
1140,0.994,35.062,39.293,46.001,26.483,6.467,5.728,25.149
1141,1.01,34.9,39.366,46.039,26.5,6.548,5.809,25.437
1142,1.023,34.783,39.332,46.059,26.504,6.63,5.85,25.521
1143,1.007,34.917,39.417,46.04,26.501,6.672,5.932,25.36
1144,1.014,35.023,39.336,46.04,26.497,6.55,5.852,25.033
1145,1.001,34.766,39.359,46.049,26.508,6.549,5.851,24.623
1146,1.013,34.849,39.343,46.04,26.504,6.59,5.81,24.05
1147,1.036,35.023,39.378,46.059,26.504,6.549,5.85,23.515
1148,1.027,35.111,39.324,46.097,26.515,6.671,5.973,23.185
1149,1.017,34.901,39.281,46.079,26.504,6.631,5.852,22.572
1150,1.007,35.004,39.327,46.059,26.494,6.509,5.769,21.956
1151,1.02,35.149,39.316,46.05,26.49,6.427,5.768,21.665
1152,1.023,35.256,39.39,46.059,26.501,6.507,5.809,21.743
1153,1.027,34.845,39.293,46.059,26.504,6.589,5.81,22.069
1154,1.03,35.023,39.327,46.078,26.508,6.549,5.769,22.439
1155,1.037,35.12,39.32,46.059,26.494,6.549,5.768,22.767
1156,1.043,35.198,39.382,46.059,26.494,6.427,5.728,23.055
1157,1.063,34.873,39.273,46.097,26.504,6.548,5.85,23.465
1158,1.076,35.033,39.354,46.098,26.504,6.59,5.851,23.591
1159,1.096,35.159,39.351,46.088,26.501,6.549,5.932,23.633
1160,1.096,35.218,39.355,46.107,26.504,6.549,5.852,23.471
1161,1.102,35.074,39.414,46.088,26.504,6.468,5.851,23.347
1162,1.109,35.198,39.402,46.098,26.504,6.507,5.81,23.061
1163,1.099,35.391,39.383,46.117,26.504,6.467,5.81,22.692
1164,1.083,35.402,39.348,46.117,26.508,6.548,5.932,22.485
1165,1.073,35.143,39.414,46.098,26.494,6.427,5.811,21.914
1166,1.053,35.285,39.262,46.079,26.494,6.385,5.81,21.42
1167,1.056,35.411,39.338,46.088,26.494,6.385,5.81,21.05
1168,1.063,35.709,39.296,46.117,26.497,6.385,5.769,20.68
1169,1.037,35.204,39.366,46.108,26.504,6.425,5.768,20.473
1170,1.046,35.314,39.386,46.108,26.501,6.426,5.809,20.105
1171,1.056,35.421,39.371,46.088,26.487,6.263,5.728,19.613
1172,1.053,35.93,39.304,46.136,26.501,6.302,5.727,19.324
1173,1.043,36.146,39.304,46.137,26.504,6.384,5.768,18.955
1174,1.056,36.273,39.401,46.137,26.504,6.425,5.809,18.667
1175,1.069,36.37,39.336,46.137,26.501,6.385,5.81,18.339
1176,1.076,35.095,39.367,46.137,26.501,6.385,5.81,18.051
1177,1.102,35.159,39.301,46.146,26.508,6.425,5.769,17.723
1178,1.109,35.323,39.397,46.165,26.511,6.426,5.809,17.475
1179,1.122,35.411,39.43,46.175,26.508,6.507,5.891,17.392
1180,1.109,35.604,39.375,46.156,26.497,6.467,5.729,17.106
1181,1.086,35.74,39.371,46.137,26.497,6.223,5.687,16.778
1182,1.102,35.885,39.308,46.156,26.497,6.342,5.687,16.49
1183,1.102,35.963,39.358,46.156,26.501,6.425,5.687,16.243
1184,1.106,35.542,39.375,46.146,26.504,6.344,5.727,16.038
1185,1.093,35.682,39.316,46.175,26.501,6.384,5.768,15.873
1186,1.092,35.798,39.304,46.127,26.494,6.303,5.687,15.465
1187,1.092,35.905,39.355,46.165,26.494,6.302,5.646,15.095
1188,1.102,35.82,39.382,46.175,26.501,6.465,5.808,14.969
1189,1.089,35.953,39.394,46.185,26.508,6.467,5.769,14.846
1190,1.105,36.089,39.402,46.195,26.497,6.507,5.809,14.641
1191,1.112,36.128,39.238,46.185,26.501,6.508,5.81,14.314
1192,1.093,36.042,39.327,46.175,26.497,6.549,5.769,14.108
1193,1.092,36.176,39.339,46.185,26.504,6.508,5.809,13.902
1194,1.096,36.311,39.363,46.223,26.508,6.63,5.85,13.697
1195,1.083,36.332,39.304,46.233,26.508,6.672,5.891,13.613
1196,1.07,36.112,39.331,46.185,26.497,6.55,5.811,13.409
1197,1.066,36.244,39.382,46.175,26.494,6.508,5.728,13.123
1198,1.073,36.37,39.34,46.185,26.497,6.508,5.727,13.12
1199,1.083,36.304,39.347,46.214,26.497,6.467,5.687,13.079
1200,1.118,36.274,39.296,46.214,26.504,6.507,5.768,13.038
1201,1.089,36.418,39.339,46.204,26.504,6.589,5.768,13.038
1202,1.079,36.496,39.304,46.195,26.494,6.468,5.728,13.078
1203,1.083,36.247,39.409,46.185,26.494,6.548,5.727,12.876
1204,1.079,36.35,39.328,46.223,26.501,6.549,5.727,12.995
1205,1.083,36.495,39.347,46.233,26.508,6.671,5.809,12.996
1206,1.089,36.602,39.386,46.224,26.508,6.55,5.85,12.956
1207,1.083,36.546,39.359,46.224,26.504,6.63,5.81,12.874
1208,1.076,36.67,39.371,46.214,26.504,6.59,5.769,12.833
1209,1.07,36.815,39.265,46.233,26.504,6.468,5.809,12.71
1210,1.073,36.922,39.366,46.253,26.501,6.548,5.769,12.546
1211,1.066,36.405,39.32,46.262,26.515,6.63,5.809,12.586
1212,1.05,36.525,39.374,46.243,26.497,6.468,5.769,12.383
1213,1.037,36.622,39.363,46.224,26.497,6.426,5.687,12.177
1214,1.053,36.709,39.324,46.233,26.494,6.344,5.687,12.135
1215,1.066,36.633,39.363,46.224,26.494,6.384,5.687,12.012
1216,1.053,36.786,39.343,46.252,26.497,6.344,5.687,12.052
1217,1.069,36.902,39.335,46.262,26.501,6.384,5.727,11.93
1218,1.05,36.942,39.249,46.253,26.501,6.344,5.727,11.848
1219,1.076,36.77,39.315,46.243,26.49,6.303,5.646,11.684
1220,1.086,36.921,39.347,46.262,26.508,6.425,5.767,11.723
1221,1.076,37.038,39.335,46.272,26.504,6.426,5.809,11.683
1222,1.07,37.058,39.437,46.272,26.501,6.385,5.728,11.601
1223,1.056,36.838,39.329,46.263,26.504,6.425,5.687,11.438
1224,1.053,36.951,39.351,46.291,26.508,6.385,5.687,11.314
1225,1.076,37.067,39.351,46.272,26.497,6.385,5.727,11.232
1226,1.092,37.346,39.382,46.301,26.508,6.547,5.768,11.149
1227,1.06,36.86,39.32,46.368,26.504,6.468,5.809,11.189
1228,1.05,36.961,39.323,46.263,26.497,6.345,5.647,10.864
1229,1.017,37.067,39.374,46.262,26.494,6.384,5.645,10.739
1230,1.01,37.02,39.367,46.262,26.494,6.466,5.645,10.657
1231,1.007,37.097,39.437,46.282,26.501,6.507,5.645,10.574
1232,0.981,37.222,39.321,46.291,26.497,6.67,5.686,10.533
1233,0.974,37.319,39.312,46.291,26.494,6.713,5.727,10.41
1234,1.0,36.965,39.343,46.272,26.487,6.551,5.524,10.328
1235,0.981,37.077,39.359,46.301,26.501,6.671,5.685,10.327
1236,0.971,37.222,39.359,46.445,26.504,6.835,5.727,10.286
1237,0.99,37.329,39.351,46.322,26.508,6.796,5.727,10.286
1238,0.968,37.176,39.394,46.32,26.504,6.877,5.687,10.164
1239,0.977,37.309,39.394,46.311,26.501,6.877,5.687,10.122
1240,0.99,37.425,39.387,46.301,26.497,6.837,5.687,10.041
1241,1.007,37.522,39.359,46.349,26.515,6.918,5.646,10.08
1242,0.997,37.073,39.328,46.35,26.508,6.959,5.767,10.853
1243,0.974,37.183,39.292,46.311,26.501,6.838,5.687,11.999
1244,0.981,37.299,39.37,46.292,26.494,6.755,5.564,13.393
1245,0.958,37.387,39.277,46.359,26.49,6.836,5.604,14.912
1246,0.968,37.215,39.343,46.321,26.494,6.837,5.686,16.878
1247,0.964,37.367,39.335,46.32,26.504,6.796,5.646,19.053
1248,0.958,37.484,39.378,46.33,26.497,6.836,5.645,21.189
1249,0.925,37.513,39.347,46.301,26.494,6.796,5.645,23.04
1250,0.915,37.197,39.308,46.33,26.497,6.795,5.564,24.441
1251,0.912,37.376,39.261,46.378,26.501,6.877,5.685,25.552
1252,0.928,37.493,39.284,46.359,26.504,6.837,5.727,26.255
1253,0.922,37.494,39.389,46.369,26.501,6.837,5.727,26.546
1254,0.902,37.274,39.305,46.369,26.504,6.796,5.646,26.752
1255,0.912,37.435,39.355,46.359,26.501,6.795,5.727,27.039
1256,0.915,37.523,39.39,46.359,26.501,6.795,5.727,27.367
1257,0.935,37.475,39.375,46.388,26.511,6.836,5.687,27.655
1258,0.918,37.398,39.39,46.398,26.508,6.796,5.849,27.983
1259,0.915,37.493,39.273,46.36,26.497,6.755,5.729,28.393
1260,0.905,37.609,39.288,46.34,26.497,6.632,5.565,28.804
1261,0.921,37.227,39.284,46.369,26.501,6.59,5.645,29.214
1262,0.902,37.338,39.319,46.359,26.497,6.671,5.645,29.544
1263,0.895,37.454,39.382,46.369,26.504,6.631,5.686,29.628
1264,0.866,37.552,39.344,46.388,26.504,6.631,5.646,29.629
1265,0.866,37.294,39.339,46.35,26.49,6.59,5.645,29.466
1266,0.862,37.454,39.367,46.369,26.494,6.59,5.605,29.18
1267,0.846,37.58,39.371,46.378,26.501,6.671,5.686,28.974
1268,0.843,37.658,39.258,46.407,26.504,6.631,5.768,28.687
1269,0.826,37.285,39.338,46.408,26.504,6.753,5.768,28.319
1270,0.817,37.416,39.335,46.398,26.504,6.754,5.647,27.827
1271,0.813,37.542,39.312,46.408,26.504,6.632,5.645,27.172
1272,0.813,37.62,39.366,46.408,26.504,6.55,5.686,26.515
1273,0.829,37.39,39.304,46.446,26.511,6.671,5.768,25.776
1274,0.81,37.512,39.351,46.437,26.511,6.713,5.809,25.24
1275,0.81,37.61,39.347,46.398,26.497,6.469,5.688,24.381
1276,0.8,37.639,39.402,46.388,26.497,6.507,5.646,23.559
1277,0.81,37.371,39.242,46.398,26.494,6.467,5.564,22.86
1278,0.803,37.512,39.33,46.408,26.501,6.507,5.645,22.162
1279,0.803,37.629,39.355,46.417,26.501,6.508,5.727,21.504
1280,0.803,37.668,39.355,46.427,26.497,6.508,5.687,20.888
1281,0.803,37.41,39.394,46.389,26.494,6.427,5.646,20.231
1282,0.807,37.58,39.367,46.427,26.497,6.426,5.564,19.655
1283,0.81,37.725,39.386,46.437,26.508,6.548,5.766,19.243
1284,0.813,37.89,39.312,46.456,26.494,6.59,5.768,18.67
1285,0.794,37.46,39.386,46.437,26.501,6.59,5.728,18.217
1286,0.803,37.571,39.316,46.437,26.497,6.59,5.727,17.643
1287,0.8,37.716,39.304,46.446,26.501,6.631,5.768,17.149
1288,0.8,37.449,39.331,46.437,26.501,6.631,5.647,16.697
1289,0.787,37.503,39.343,46.485,26.508,6.672,5.808,16.368
1290,0.784,37.6,39.406,46.466,26.508,6.672,5.81,16.039
1291,0.754,37.697,39.363,46.427,26.497,6.55,5.688,15.588
1292,0.761,37.314,39.343,46.437,26.497,6.549,5.646,15.218
1293,0.761,37.464,39.292,46.446,26.497,6.468,5.645,15.011
1294,0.764,37.571,39.366,46.437,26.497,6.629,5.686,14.765
1295,0.767,37.668,39.371,46.456,26.504,6.672,5.687,14.6
1296,0.757,37.41,39.242,46.475,26.497,6.713,5.687,14.314
1297,0.767,37.541,39.311,46.437,26.49,6.51,5.646,14.108
1298,0.78,37.696,39.288,46.485,26.497,6.67,5.686,13.943
1299,0.806,37.775,39.374,46.485,26.501,6.713,5.768,13.9
1300,0.82,37.296,39.367,46.475,26.508,6.713,5.809,13.656
1301,0.81,37.416,39.422,46.485,26.504,6.713,5.688,13.491
1302,0.82,37.551,39.348,46.475,26.504,6.794,5.809,13.286
1303,0.817,37.61,39.343,46.475,26.494,6.714,5.769,13.162
1304,0.839,37.371,39.417,46.475,26.501,6.754,5.809,12.958
1305,0.81,37.512,39.336,46.514,26.518,6.957,5.85,12.915
1306,0.813,37.6,39.359,46.485,26.501,6.797,5.769,12.63
1307,0.8,37.63,39.293,46.475,26.494,6.673,5.728,12.424
1308,0.79,37.409,39.382,46.475,26.494,6.672,5.646,12.137
1309,0.79,37.551,39.344,46.485,26.497,6.672,5.767,12.012
1310,0.787,37.677,39.371,46.475,26.497,6.753,5.728,11.97
1311,0.774,37.698,39.328,46.495,26.504,6.754,5.809,11.807
1312,0.751,37.353,39.288,46.495,26.497,6.754,5.769,11.684
1313,0.751,37.503,39.35,46.466,26.49,6.632,5.647,11.438
1314,0.761,37.619,39.339,46.504,26.504,6.753,5.767,11.517
1315,0.777,37.448,39.269,46.524,26.497,6.754,5.809,11.477
1316,0.784,37.379,39.303,46.495,26.504,6.795,5.85,11.355
1317,0.777,37.493,39.358,46.514,26.501,6.714,5.769,11.313
1318,0.78,37.6,39.414,46.524,26.504,6.632,5.768,11.232
1319,0.79,37.361,39.352,46.524,26.501,6.712,5.768,11.271
1320,0.806,37.483,39.363,46.533,26.511,6.713,5.728,11.272
1321,0.797,37.6,39.269,46.553,26.511,6.754,5.89,11.353
1322,0.81,37.658,39.346,46.486,26.494,6.632,5.689,11.191
1323,0.787,37.199,39.347,46.495,26.494,6.59,5.687,11.108
1324,0.787,37.338,39.304,46.485,26.494,6.549,5.768,11.067
1325,0.8,37.483,39.292,46.514,26.497,6.549,5.728,11.107
1326,0.803,37.571,39.358,46.505,26.497,6.63,5.727,10.985
1327,0.803,37.802,39.394,46.485,26.501,6.55,5.768,11.025
1328,0.81,37.987,39.363,46.485,26.49,6.468,5.687,10.822
1329,0.82,38.123,39.332,46.543,26.501,6.629,5.768,10.901
1330,0.817,38.201,39.257,46.534,26.501,6.631,5.85,10.943
1331,0.807,36.926,39.338,46.533,26.501,6.631,5.729,10.821
1332,0.807,37.047,39.292,46.533,26.504,6.631,5.768,10.739
1333,0.8,37.174,39.386,46.524,26.497,6.631,5.809,10.657
1334,0.816,37.251,39.293,46.524,26.504,6.59,5.81,10.574
1335,0.813,37.473,39.343,46.553,26.511,6.671,5.85,10.574
1336,0.797,37.561,39.371,46.562,26.511,6.713,5.891,10.655
1337,0.813,37.648,39.375,46.534,26.494,6.551,5.689,10.412
1338,0.8,37.669,39.324,46.524,26.49,6.508,5.646,10.247
1339,0.826,37.113,39.253,46.533,26.497,6.508,5.686,10.204
1340,0.826,37.26,39.315,46.553,26.501,6.467,5.687,10.123
1341,0.81,37.358,39.257,46.543,26.494,6.426,5.687,10.041
1342,0.82,37.56,39.346,46.534,26.501,6.466,5.727,9.999
1343,0.82,37.275,39.316,46.524,26.49,6.386,5.646,9.917
1344,0.852,37.444,39.339,46.562,26.504,6.425,5.767,9.876
1345,0.846,37.561,39.374,46.562,26.497,6.548,5.809,9.916
1346,0.846,37.179,39.363,46.562,26.504,6.508,5.81,9.672
1347,0.846,37.223,39.332,46.553,26.501,6.467,5.81,9.67
1348,0.836,37.367,39.23,46.582,26.497,6.426,5.81,9.629
1349,0.817,37.436,39.346,46.563,26.504,6.385,5.728,9.629
1350,0.82,37.206,39.339,46.562,26.494,6.344,5.768,9.548
1351,0.836,37.338,39.39,46.582,26.514,6.466,5.85,9.547
1352,0.81,37.435,39.379,46.582,26.504,6.426,5.851,9.506
1353,0.807,37.503,39.34,46.563,26.494,6.263,5.729,9.343
1354,0.807,37.226,39.339,46.534,26.501,6.262,5.646,9.219
1355,0.8,37.357,39.339,46.562,26.501,6.262,5.645,9.178
1356,0.813,37.483,39.382,46.582,26.497,6.302,5.727,9.259
1357,0.829,37.571,39.269,46.591,26.494,6.302,5.727,9.259
1358,0.833,37.112,39.346,46.592,26.497,6.343,5.809,9.544
1359,0.839,37.26,39.328,46.563,26.49,6.221,5.647,10.197
1360,0.833,37.406,39.351,46.572,26.497,6.424,5.686,11.383
1361,0.82,37.484,39.39,46.591,26.504,6.385,5.809,12.615
1362,0.83,37.255,39.289,46.592,26.504,6.344,5.769,13.806
1363,0.839,37.415,39.311,46.582,26.504,6.425,5.768,14.794
1364,0.836,37.542,39.316,46.611,26.501,6.385,5.728,15.82
1365,0.82,37.562,39.37,46.601,26.501,6.344,5.687,17.05
1366,0.849,37.15,39.273,46.63,26.511,6.506,5.809,18.567
1367,0.833,37.261,39.339,46.611,26.504,6.386,5.85,20.249
1368,0.82,37.367,39.371,46.582,26.501,6.385,5.688,21.567
1369,0.8,37.397,39.351,46.582,26.497,6.344,5.687,22.759
1370,0.813,37.148,39.406,46.601,26.494,6.303,5.727,23.706
1371,0.836,37.27,39.356,46.592,26.504,6.384,5.727,24.407
1372,0.836,37.387,39.304,46.611,26.504,6.385,5.727,24.82
1373,0.839,37.244,39.304,46.62,26.497,6.466,5.727,24.946
1374,0.83,37.195,39.366,46.601,26.49,6.304,5.646,24.866
1375,0.849,37.357,39.363,46.64,26.504,6.465,5.727,24.703
1376,0.849,37.464,39.347,46.64,26.504,6.507,5.809,24.416
1377,0.843,37.043,39.335,46.64,26.508,6.508,5.769,24.047
1378,0.843,37.135,39.304,46.65,26.508,6.549,5.809,23.475
1379,0.866,37.27,39.401,46.63,26.504,6.427,5.769,23.062
1380,0.866,37.358,39.356,46.63,26.501,6.466,5.768,22.448
1381,0.869,37.033,39.371,46.63,26.501,6.548,5.728,21.832
1382,0.889,37.164,39.332,46.678,26.511,6.63,5.931,21.42
1383,0.869,37.251,39.331,46.64,26.501,6.59,5.852,20.968
1384,0.866,37.319,39.402,46.64,26.497,6.468,5.688,20.598
1385,0.869,37.052,39.242,46.659,26.497,6.507,5.687,20.35
1386,0.882,37.193,39.33,46.631,26.494,6.549,5.727,20.104
1387,0.876,37.328,39.308,46.64,26.504,6.549,5.727,20.02
1388,0.889,37.387,39.378,46.65,26.497,6.508,5.727,19.775
1389,0.856,37.081,39.312,46.63,26.497,6.467,5.727,19.488
1390,0.843,37.212,39.308,46.621,26.49,6.386,5.646,19.201
1391,0.836,37.357,39.284,46.688,26.504,6.547,5.808,19.076
1392,0.846,37.435,39.319,46.679,26.504,6.549,5.81,18.953
1393,0.849,37.034,39.398,46.669,26.508,6.549,5.85,18.748
1394,0.856,37.173,39.348,46.679,26.504,6.508,5.81,18.543
1395,0.862,37.29,39.355,46.679,26.497,6.549,5.769,18.256
1396,0.849,37.32,39.324,46.688,26.501,6.427,5.768,18.091
1397,0.882,36.975,39.394,46.727,26.504,6.548,5.891,18.008
1398,0.866,37.077,39.394,46.698,26.504,6.549,5.851,17.966
1399,0.869,37.164,39.336,46.679,26.49,6.386,5.81,17.681
1400,0.879,37.299,39.316,46.669,26.497,6.303,5.688,17.556
1401,0.879,37.042,39.257,46.726,26.501,6.343,5.727,17.433
1402,0.879,37.154,39.331,46.689,26.497,6.384,5.727,17.269
1403,0.892,37.261,39.343,46.688,26.504,6.466,5.768,17.146
1404,0.879,36.869,39.308,46.698,26.501,6.386,5.768,16.982
1405,0.866,36.884,39.273,46.679,26.494,6.263,5.728,16.614
1406,0.898,37.057,39.319,46.679,26.49,6.262,5.646,16.326
1407,0.873,37.154,39.421,46.707,26.508,6.384,5.767,16.242
1408,0.866,36.829,39.317,46.717,26.504,6.466,5.85,15.956
1409,0.866,36.96,39.288,46.708,26.497,6.386,5.81,15.75
1410,0.859,37.086,39.202,46.698,26.504,6.385,5.769,15.585
1411,0.875,37.183,39.303,46.708,26.501,6.344,5.809,15.34
1412,0.866,36.724,39.323,46.698,26.504,6.343,5.728,15.175
1413,0.889,36.883,39.335,46.727,26.501,6.343,5.768,15.092
1414,0.879,37.018,39.367,46.737,26.511,6.425,5.931,15.05
1415,0.879,37.077,39.301,46.718,26.497,6.304,5.77,14.847
1416,0.859,37.135,39.37,46.708,26.49,6.221,5.728,14.601
1417,0.869,37.299,39.316,46.698,26.49,6.261,5.727,14.436
1418,0.872,37.406,39.312,46.727,26.49,6.343,5.727,14.312
1419,0.882,37.494,39.28,46.746,26.497,6.303,5.727,14.229
1420,0.869,36.536,39.339,46.727,26.501,6.343,5.768,14.228
1421,0.859,36.65,39.351,46.689,26.49,6.181,5.768,14.228
1422,0.859,36.805,39.32,46.707,26.49,6.22,5.728,14.066
1423,0.879,36.845,39.323,46.727,26.497,6.302,5.809,14.227
1424,0.892,36.797,39.339,46.727,26.508,6.302,5.81,14.269
1425,0.873,36.931,39.355,46.727,26.504,6.302,5.85,14.27
1426,0.879,37.048,39.371,46.737,26.497,6.262,5.81,14.148
1427,0.876,37.068,39.277,46.727,26.508,6.262,5.81,14.065
1428,0.889,36.704,39.327,46.823,26.497,6.262,5.85,14.024
1429,0.869,36.863,39.296,46.757,26.508,6.302,5.891,14.064
1430,0.866,36.932,39.339,46.746,26.504,6.302,5.892,13.942
1431,0.866,36.722,39.292,46.746,26.494,6.221,5.811,13.738
1432,0.866,36.633,39.358,46.727,26.497,6.139,5.647,13.533
1433,0.84,36.786,39.297,46.756,26.497,6.179,5.645,13.408
1434,0.865,36.902,39.296,46.746,26.497,6.179,5.767,13.285
1435,0.859,36.587,39.37,46.727,26.501,6.098,5.687,13.162
1436,0.849,36.67,39.297,46.737,26.501,6.138,5.727,13.039
1437,0.849,36.815,39.265,46.765,26.494,6.057,5.687,12.753
1438,0.885,36.941,39.311,46.766,26.501,6.178,5.768,12.709
1439,0.882,36.635,39.37,46.756,26.501,6.22,5.85,12.628
1440,0.895,36.757,39.332,46.766,26.501,6.22,5.851,12.505
1441,0.895,36.883,39.406,46.747,26.501,6.18,5.81,12.382
1442,0.889,36.951,39.371,46.756,26.501,6.139,5.769,12.258
1443,0.889,36.511,39.336,46.775,26.497,6.098,5.768,12.095
1444,0.889,36.679,39.37,46.795,26.501,6.178,5.768,11.93
1445,0.869,36.786,39.336,46.776,26.508,6.261,5.85,11.888
1446,0.876,36.854,39.277,46.766,26.497,6.139,5.688,11.644
1447,0.856,36.577,39.272,46.756,26.49,6.138,5.646,11.438
1448,0.875,36.728,39.35,46.737,26.497,6.057,5.645,11.355
1449,0.85,36.854,39.355,46.756,26.494,6.056,5.767,11.232
1450,0.827,36.903,39.429,46.775,26.497,6.097,5.728,11.149
1451,0.833,36.52,39.379,46.775,26.497,6.178,5.727,11.067
1452,0.833,36.66,39.246,46.756,26.497,6.017,5.687,10.944
1453,0.852,36.805,39.303,46.775,26.497,6.178,5.646,10.821
1454,0.827,36.826,39.339,46.795,26.501,6.301,5.808,10.901
1455,0.833,36.481,39.304,46.804,26.504,6.343,5.85,10.78
1456,0.833,36.631,39.319,46.804,26.497,6.384,5.81,10.779
1457,0.856,36.719,39.308,46.785,26.494,6.344,5.769,10.657
1458,0.843,36.844,39.366,46.804,26.501,6.425,5.728,10.574
1459,0.869,36.635,39.351,46.795,26.497,6.385,5.768,10.37
1460,0.856,36.786,39.402,46.824,26.511,6.588,5.85,10.409
1461,0.849,36.845,39.34,46.814,26.504,6.59,5.851,10.287
1462,0.84,36.481,39.324,46.776,26.497,6.549,5.729,10.245
1463,0.843,36.506,39.347,46.795,26.497,6.549,5.687,10.082
1464,0.846,36.65,39.343,46.785,26.494,6.63,5.646,9.999
1465,0.856,36.757,39.304,46.823,26.497,6.631,5.686,9.958
1466,0.866,36.423,39.273,46.805,26.497,6.631,5.727,9.835
1467,0.853,36.506,39.35,46.785,26.497,6.712,5.687,9.997
1468,0.836,36.66,39.363,46.795,26.49,6.672,5.687,10.121
1469,0.839,36.767,39.351,46.824,26.504,6.794,5.727,11.22
1470,0.852,36.499,39.328,46.833,26.504,6.836,5.85,12.857
1471,0.846,36.631,39.238,46.834,26.501,6.877,5.81,14.418
1472,0.843,36.767,39.342,46.814,26.497,6.877,5.81,16.467
1473,0.843,36.835,39.355,46.814,26.497,6.877,5.85,19.089
1474,0.843,36.414,39.347,46.824,26.508,6.918,5.81,22.043
1475,0.836,36.611,39.339,46.862,26.511,7.041,5.81,25.0
1476,0.846,36.718,39.328,46.853,26.511,7.164,5.972,27.713
1477,0.83,36.739,39.386,46.843,26.501,7.043,5.852,29.61
1478,0.826,36.461,39.332,46.834,26.497,6.96,5.769,30.727
1479,0.826,36.611,39.304,46.843,26.494,7.0,5.728,31.673
1480,0.839,36.747,39.226,46.814,26.497,7.041,5.768,32.049
1481,0.836,36.806,39.303,46.833,26.508,7.082,5.809,32.052
1482,0.82,36.404,39.253,46.843,26.504,7.083,5.769,31.889
1483,0.833,36.534,39.358,46.824,26.494,7.002,5.728,31.319
1484,0.852,36.67,39.273,46.853,26.497,7.123,5.687,30.703
1485,0.846,36.7,39.354,46.862,26.504,7.083,5.89,30.087
1486,0.84,36.499,39.378,46.872,26.504,7.123,5.811,29.186
1487,0.865,36.641,39.383,46.872,26.504,6.961,5.769,28.324
1488,0.843,36.738,39.34,46.853,26.504,7.041,5.809,27.461
1489,0.82,36.518,39.285,46.853,26.497,6.96,5.891,26.558
1490,0.833,36.526,39.315,46.91,26.504,7.041,5.811,25.614
1491,0.833,36.622,39.312,46.901,26.515,7.123,5.85,24.954
1492,0.833,36.69,39.323,46.873,26.497,7.002,5.851,24.094
1493,0.839,36.364,39.335,46.853,26.497,6.879,5.729,23.231
1494,0.839,36.486,39.347,46.872,26.49,6.796,5.687,22.45
1495,0.846,36.64,39.296,46.882,26.49,6.877,5.727,21.995
1496,0.849,36.728,39.397,46.882,26.501,6.877,5.809,21.665
1497,0.849,36.432,39.375,46.863,26.504,6.877,5.769,21.459
1498,0.84,36.544,39.258,46.863,26.494,6.796,5.768,21.375
1499,0.859,36.679,39.323,46.872,26.49,6.755,5.687,21.13
1500,0.882,36.767,39.312,46.911,26.504,6.836,5.849,21.128
1501,0.876,36.356,39.343,46.892,26.501,6.796,5.769,21.087
1502,0.866,36.514,39.328,46.911,26.504,6.795,5.85,20.843
1503,0.862,36.612,39.292,46.93,26.504,6.795,5.891,20.556
1504,0.862,36.68,39.292,46.911,26.504,6.755,5.811,20.187
1505,0.856,36.604,39.343,46.901,26.494,6.714,5.81,19.817
1506,0.862,36.776,39.374,46.911,26.508,6.713,5.769,19.529
1507,0.853,36.893,39.285,46.93,26.508,6.794,5.891,19.445
1508,0.843,36.932,39.296,46.921,26.504,6.673,5.933,19.16
1509,0.83,36.271,39.304,46.901,26.497,6.631,5.811,18.913
1510,0.817,36.399,39.378,46.892,26.494,6.672,5.81,18.626
1511,0.807,36.534,39.363,46.892,26.501,6.672,5.769,18.379
1512,0.82,36.555,39.359,46.911,26.504,6.631,5.768,18.295
1513,0.843,36.449,39.343,46.94,26.497,6.631,5.85,18.091
1514,0.846,36.602,39.343,46.94,26.497,6.631,5.81,17.764
1515,0.83,36.69,39.367,46.902,26.49,6.55,5.81,17.435
1516,0.833,36.748,39.324,46.92,26.494,6.59,5.891,17.147
1517,0.836,36.432,39.316,46.959,26.508,6.631,5.892,16.941
1518,0.83,36.573,39.296,46.94,26.501,6.631,5.973,16.736
1519,0.836,36.661,39.351,46.93,26.504,6.59,5.933,16.327
1520,0.852,36.335,39.355,46.94,26.501,6.631,5.974,16.16
1521,0.846,36.37,39.394,46.95,26.501,6.509,5.893,15.793
1522,0.856,36.505,39.262,46.95,26.501,6.508,5.892,15.545
1523,0.866,36.65,39.338,46.988,26.515,6.63,6.014,15.34
1524,0.846,36.22,39.374,46.931,26.511,6.509,5.974,15.053
1525,0.84,36.321,39.324,46.93,26.49,6.427,5.893,14.643
1526,0.852,36.476,39.331,46.94,26.494,6.385,5.811,14.314
1527,0.859,36.573,39.265,46.95,26.501,6.385,5.85,14.189
1528,0.875,36.344,39.35,46.94,26.504,6.344,5.891,13.862
1529,0.863,36.476,39.32,46.959,26.497,6.466,5.892,13.737
1530,0.84,36.602,39.355,46.95,26.494,6.467,5.933,13.573
1531,0.846,36.67,39.328,46.95,26.497,6.345,5.811,13.206
1532,0.849,36.307,39.343,46.978,26.504,6.466,5.85,13.121
1533,0.846,36.476,39.328,46.979,26.508,6.589,5.973,13.079
1534,0.833,36.573,39.355,46.969,26.504,6.549,5.974,12.997
1535,0.839,36.632,39.285,46.979,26.497,6.508,5.893,12.956
1536,0.846,36.268,39.304,46.988,26.501,6.549,5.892,12.752
1537,0.846,36.418,39.355,46.988,26.494,6.508,5.973,12.709
1538,0.849,36.563,39.382,46.988,26.504,6.63,5.852,12.628
1539,0.84,36.603,39.383,46.998,26.518,6.672,6.013,12.749
1540,0.849,36.392,39.379,46.979,26.501,6.55,5.974,12.588
1541,0.846,36.524,39.262,46.96,26.487,6.468,5.811,12.423
1542,0.859,36.66,39.331,46.969,26.497,6.467,5.81,12.422
1543,0.843,36.661,39.288,46.959,26.494,6.467,5.932,12.381
1544,0.849,36.259,39.331,46.979,26.501,6.589,5.852,12.462
1545,0.849,36.398,39.265,46.998,26.501,6.549,5.891,12.341
1546,0.83,36.486,39.3,46.96,26.49,6.468,5.811,12.177
1547,0.852,36.382,39.362,46.979,26.497,6.426,5.81,12.094
1548,0.849,36.381,39.351,46.988,26.501,6.507,5.932,12.134
1549,0.827,36.515,39.3,47.008,26.504,6.589,5.974,12.215
1550,0.817,36.631,39.253,47.008,26.504,6.468,5.974,12.094
1551,0.816,36.345,39.335,47.008,26.501,6.548,5.893,12.052
1552,0.81,36.457,39.257,46.998,26.501,6.508,5.933,11.971
1553,0.813,36.583,39.401,47.017,26.501,6.427,5.852,11.848
1554,0.833,36.699,39.324,47.027,26.508,6.548,5.973,11.806
1555,0.833,36.144,39.288,47.018,26.508,6.59,6.055,11.765
1556,0.804,36.253,39.354,46.989,26.494,6.468,5.893,11.521
1557,0.81,36.398,39.347,46.998,26.494,6.386,5.892,11.437
1558,0.81,36.496,39.332,46.998,26.49,6.425,5.892,11.355
1559,0.826,36.343,39.199,47.027,26.494,6.344,5.851,11.232
1560,0.839,36.505,39.268,47.056,26.501,6.384,5.851,11.231
1561,0.836,36.612,39.339,47.018,26.497,6.385,5.851,11.149
1562,0.852,36.661,39.277,46.979,26.487,6.303,5.81,11.026
1563,0.833,36.22,39.382,47.027,26.497,6.384,5.728,10.985
1564,0.849,36.379,39.312,47.037,26.504,6.466,5.89,10.984
1565,0.862,36.505,39.362,47.027,26.501,6.386,5.933,10.903
1566,0.846,36.554,39.367,47.027,26.501,6.344,5.852,10.821
1567,0.843,36.325,39.332,47.008,26.501,6.343,5.891,10.657
1568,0.843,36.466,39.249,47.037,26.497,6.384,5.892,10.615
1569,0.849,36.602,39.28,47.008,26.501,6.344,5.892,10.655
1570,0.846,36.632,39.323,47.065,26.511,6.466,5.973,10.656
1571,0.84,36.153,39.273,47.027,26.494,6.345,5.933,10.534
1572,0.846,36.263,39.327,46.998,26.49,6.262,5.892,10.41
1573,0.859,36.379,39.234,47.017,26.494,6.262,5.811,10.287
1574,0.866,36.496,39.291,47.027,26.494,6.221,5.769,10.245
1575,0.885,36.343,39.358,47.027,26.501,6.22,5.809,10.408
1576,0.885,36.495,39.367,47.037,26.497,6.22,5.85,10.816
1577,0.882,36.573,39.308,47.018,26.49,6.139,5.81,11.267
1578,0.895,36.181,39.296,47.046,26.494,6.179,5.769,11.76
1579,0.908,36.254,39.335,47.056,26.504,6.261,5.85,12.781
1580,0.915,36.37,39.312,47.037,26.508,6.262,5.891,13.93
1581,0.905,36.476,39.335,47.046,26.508,6.262,5.851,14.957
1582,0.905,36.171,39.406,47.056,26.501,6.302,5.81,16.025
1583,0.925,36.311,39.32,47.056,26.501,6.302,5.85,16.849
1584,0.951,36.447,39.355,47.047,26.501,6.302,5.891,17.629
1585,0.938,36.544,39.355,47.075,26.515,6.465,5.973,18.206
1586,0.948,36.056,39.332,47.037,26.508,6.426,5.893,18.619
1587,0.961,36.214,39.285,47.037,26.497,6.344,5.811,18.704
1588,0.968,36.331,39.335,47.037,26.487,6.384,5.769,18.746
1589,0.958,36.418,39.394,47.037,26.497,6.425,5.768,18.787
1590,0.961,36.208,39.363,47.066,26.497,6.466,5.768,18.665
1591,0.932,36.36,39.414,47.056,26.494,6.507,5.809,18.583
1592,0.931,36.467,39.289,47.037,26.494,6.467,5.81,18.379
1593,0.941,36.544,39.304,47.066,26.494,6.467,5.688,18.011
1594,0.935,36.152,39.312,47.066,26.504,6.548,5.809,17.844
1595,0.967,36.301,39.339,47.085,26.504,6.671,5.891,17.558
1596,0.968,36.38,39.195,47.095,26.501,6.713,5.851,17.23
1597,0.955,36.457,39.299,47.076,26.497,6.591,5.851,16.901
1598,0.951,36.084,39.351,47.076,26.501,6.59,5.81,16.613
1599,0.967,36.224,39.351,47.066,26.497,6.631,5.81,16.326
1600,0.971,36.369,39.414,47.095,26.511,6.794,5.972,16.16
1601,0.971,36.342,39.336,47.066,26.504,6.633,5.852,15.752
1602,0.994,36.112,39.374,47.162,26.49,6.59,5.769,15.464
1603,0.997,36.253,39.297,47.057,26.497,6.509,5.768,15.095
1604,0.987,36.341,39.382,47.085,26.494,6.63,5.687,14.928
1605,0.984,36.179,39.316,47.085,26.494,6.59,5.768,14.683
1606,1.0,36.196,39.288,47.076,26.504,6.712,5.687,15.006
1607,0.997,36.321,39.347,47.076,26.49,6.672,5.768,15.659
1608,0.978,36.399,39.324,47.056,26.483,6.591,5.728,16.479
1609,0.961,35.997,39.37,47.075,26.497,6.59,5.687,17.463
1610,0.964,36.127,39.312,47.095,26.511,6.712,5.809,18.774
1611,0.971,36.244,39.296,47.104,26.504,6.794,5.85,20.495
1612,0.948,36.341,39.296,47.105,26.497,6.714,5.851,22.057
1613,0.928,35.997,39.312,47.085,26.511,6.672,5.769,23.496
1614,0.905,36.099,39.355,47.095,26.501,6.672,5.85,24.608
1615,0.879,36.263,39.312,47.095,26.501,6.631,5.729,25.432
1616,0.859,36.379,39.351,47.124,26.508,6.672,5.727,26.05
1617,0.866,35.987,39.332,47.124,26.508,6.794,5.972,26.422
1618,0.862,36.089,39.339,47.086,26.497,6.592,5.811,26.263
1619,0.866,36.215,39.339,47.095,26.494,6.549,5.688,26.018
1620,0.869,36.293,39.273,47.095,26.501,6.549,5.727,25.731
1621,0.879,35.986,39.346,47.172,26.494,6.59,5.727,25.281
1622,0.902,36.137,39.269,47.124,26.501,6.631,5.727,24.829
1623,0.899,36.244,39.366,47.095,26.494,6.59,5.727,24.296
1624,0.899,36.274,39.222,47.104,26.497,6.549,5.687,23.762
1625,0.895,35.938,39.303,47.105,26.494,6.549,5.564,23.025
1626,0.912,36.098,39.331,47.124,26.504,6.59,5.807,22.489
1627,0.918,36.205,39.378,47.124,26.504,6.671,5.728,21.914
1628,0.925,36.245,39.332,47.143,26.501,6.631,5.768,21.217
1629,0.902,35.996,39.253,47.134,26.501,6.631,5.809,20.6
1630,0.895,36.137,39.335,47.124,26.501,6.509,5.688,20.106
1631,0.886,36.273,39.304,47.124,26.494,6.549,5.727,19.491
1632,0.876,36.264,39.397,47.162,26.511,6.63,5.809,19.119
1633,0.876,35.977,39.336,47.134,26.504,6.55,5.85,18.75
1634,0.869,36.108,39.308,47.105,26.494,6.468,5.688,18.218
1635,0.863,36.234,39.335,47.114,26.494,6.507,5.646,17.806
1636,0.846,35.948,39.335,47.105,26.494,6.508,5.686,17.517
1637,0.856,36.031,39.343,47.114,26.497,6.508,5.768,17.189
1638,0.843,36.166,39.234,47.133,26.504,6.549,5.768,16.86
1639,0.836,36.225,39.295,47.124,26.497,6.508,5.687,16.613
1640,0.83,35.756,39.3,47.124,26.487,6.508,5.646,16.245
1641,0.833,35.914,39.351,47.153,26.497,6.549,5.686,15.997
1642,0.839,36.04,39.375,47.162,26.508,6.63,5.768,15.791
1643,0.849,36.128,39.277,47.153,26.497,6.55,5.728,15.505
1644,0.846,35.803,39.323,47.162,26.504,6.549,5.768,15.299
1645,0.84,35.953,39.335,47.153,26.494,6.508,5.768,14.89
1646,0.839,36.069,39.335,47.143,26.501,6.549,5.728,14.561
1647,0.846,36.186,39.218,47.182,26.497,6.508,5.768,14.354
1648,0.849,35.803,39.315,47.182,26.508,6.63,5.809,14.189
1649,0.81,35.934,39.284,47.144,26.501,6.468,5.81,14.025
1650,0.81,36.06,39.339,47.143,26.494,6.426,5.647,13.617
1651,0.807,36.128,39.39,47.143,26.497,6.385,5.605,13.287
1652,0.797,35.822,39.359,47.162,26.504,6.425,5.686,13.121
1653,0.833,35.982,39.351,47.143,26.497,6.385,5.727,12.957
1654,0.836,36.127,39.324,47.172,26.501,6.385,5.687,12.711
1655,0.823,36.129,39.386,47.153,26.501,6.344,5.768,12.587
1656,0.826,35.822,39.281,47.153,26.49,6.262,5.565,12.22
1657,0.82,36.001,39.358,47.182,26.497,6.424,5.726,12.054
1658,0.813,36.118,39.347,47.182,26.501,6.466,5.687,12.011
1659,0.81,36.129,39.355,47.182,26.504,6.467,5.768,11.808
1660,0.829,35.889,39.386,47.182,26.497,6.304,5.768,11.602
1661,0.817,36.03,39.348,47.163,26.501,6.343,5.728,11.519
1662,0.807,36.137,39.281,47.182,26.497,6.343,5.727,11.396
1663,0.826,35.927,39.276,47.192,26.497,6.343,5.687,11.354
1664,0.849,35.868,39.358,47.22,26.511,6.466,5.849,11.354
1665,0.817,35.963,39.289,47.163,26.504,6.386,5.769,11.151
1666,0.807,36.07,39.319,47.153,26.497,6.303,5.687,10.945
1667,0.816,35.725,39.265,47.153,26.494,6.302,5.605,10.821
1668,0.823,35.827,39.37,47.172,26.501,6.343,5.686,10.779
1669,0.81,35.963,39.386,47.182,26.494,6.425,5.727,10.657
1670,0.803,36.06,39.39,47.163,26.501,6.466,5.646,10.696
1671,0.797,35.61,39.332,47.153,26.487,6.304,5.605,10.494
1672,0.797,35.788,39.269,47.182,26.501,6.425,5.645,10.41
1673,0.807,35.934,39.311,47.192,26.494,6.507,5.727,10.45
1674,0.813,35.993,39.308,47.201,26.501,6.549,5.768,10.45
1675,0.794,35.753,39.296,47.211,26.504,6.549,5.768,10.288
1676,0.79,35.895,39.366,47.201,26.504,6.549,5.647,10.245
1677,0.803,36.03,39.347,47.192,26.497,6.508,5.767,10.245
1678,0.813,36.089,39.41,47.182,26.501,6.63,5.728,10.123
1679,0.816,35.783,39.402,47.22,26.515,6.712,5.809,10.163
1680,0.82,35.885,39.371,47.221,26.501,6.632,5.81,10.204
1681,0.83,36.002,39.25,47.192,26.497,6.59,5.647,10.041
1682,0.836,36.051,39.331,47.192,26.497,6.671,5.645,9.958
1683,0.82,35.61,39.351,47.192,26.497,6.591,5.645,9.957
1684,0.839,35.759,39.312,47.192,26.49,6.793,5.686,10.039
1685,0.836,35.885,39.327,47.201,26.494,6.714,5.727,10.08
1686,0.813,35.877,39.281,47.192,26.494,6.794,5.687,9.999
1687,0.82,35.695,39.366,47.182,26.494,6.755,5.605,9.917
1688,0.826,35.856,39.324,47.201,26.501,6.836,5.726,9.957
1689,0.807,35.963,39.296,47.22,26.508,6.837,5.768,9.998
1690,0.8,36.079,39.257,47.221,26.504,6.877,5.728,9.917
1691,0.829,35.994,39.288,47.221,26.497,6.837,5.727,10.079
1692,0.852,36.137,39.335,47.221,26.501,6.796,5.687,10.406
1693,0.898,36.244,39.331,47.23,26.497,6.836,5.727,10.897
1694,0.957,35.574,39.281,47.25,26.504,6.918,5.727,11.512
1695,1.013,35.557,39.28,47.24,26.504,6.837,5.85,12.291
1696,1.062,35.682,39.354,47.211,26.497,6.837,5.729,13.112
1697,1.108,35.769,39.332,47.201,26.494,6.714,5.646,13.974
1698,1.132,35.655,39.292,47.211,26.494,6.754,5.645,14.795
1699,1.174,35.798,39.265,47.23,26.497,6.673,5.605,15.617
1700,1.204,35.953,39.339,47.297,26.497,6.713,5.726,16.194
1701,1.22,36.021,39.339,47.212,26.497,6.713,5.687,16.688
1702,1.217,35.533,39.351,47.201,26.49,6.551,5.605,17.14
1703,1.234,35.682,39.398,47.23,26.497,6.671,5.686,17.429
1704,1.25,35.856,39.328,47.259,26.504,6.753,5.687,17.798
1705,1.266,35.905,39.355,47.24,26.501,6.673,5.768,18.005
1706,1.325,35.561,39.347,47.25,26.504,6.631,5.768,18.088
1707,1.388,35.682,39.308,47.24,26.497,6.672,5.768,18.048
1708,1.489,35.846,39.245,47.25,26.504,6.631,5.687,18.048
1709,1.568,35.905,39.303,47.259,26.501,6.672,5.768,18.089
1710,1.644,35.628,39.335,47.279,26.515,6.672,5.891,18.455
1711,1.719,35.759,39.347,47.25,26.504,6.672,5.811,19.353
1712,1.782,35.857,39.382,47.24,26.497,6.509,5.728,20.175
1713,1.808,35.886,39.258,47.23,26.494,6.386,5.605,21.159
1714,1.867,35.589,39.338,47.221,26.497,6.466,5.686,22.307
1715,1.913,35.711,39.32,47.24,26.494,6.507,5.646,23.579
1716,1.943,35.837,39.366,47.259,26.497,6.549,5.727,24.893
1717,1.95,35.867,39.261,47.259,26.501,6.508,5.605,25.801
1718,1.94,35.704,39.303,47.221,26.49,6.386,5.686,26.46
1719,1.908,35.875,39.339,47.259,26.497,6.385,5.687,26.914
1720,1.826,35.973,39.363,47.269,26.504,6.507,5.768,27.203
1721,1.763,35.533,39.398,47.269,26.501,6.467,5.768,27.165
1722,1.733,35.451,39.379,47.269,26.508,6.507,5.728,26.921
1723,1.733,35.594,39.344,47.26,26.504,6.467,5.809,26.634
1724,1.662,35.701,39.328,47.279,26.494,6.386,5.728,26.062
1725,1.576,35.559,39.402,47.279,26.504,6.466,5.687,25.65
1726,1.416,35.663,39.266,47.298,26.511,6.548,5.809,25.158
1727,1.255,35.779,39.319,47.25,26.497,6.386,5.688,24.624
1728,1.11,35.857,39.327,47.25,26.497,6.303,5.646,24.09
1729,0.969,35.455,39.359,47.24,26.49,6.302,5.686,23.76
1730,0.834,35.585,39.41,47.25,26.497,6.302,5.727,23.35
1731,0.687,35.73,39.356,47.259,26.501,6.302,5.687,22.98
1732,0.516,35.818,39.339,47.259,26.497,6.384,5.768,22.61
1733,0.358,35.416,39.285,47.231,26.487,6.181,5.687,22.078
1734,0.23,35.585,39.374,47.25,26.501,6.342,5.727,21.625
1735,0.105,35.701,39.277,47.279,26.497,6.343,5.768,21.296
1736,-0.001,35.789,39.304,47.288,26.504,6.343,5.85,20.967
1737,-0.041,35.483,39.245,47.288,26.501,6.303,5.81,20.598
1738,-0.051,35.624,39.327,47.269,26.501,6.302,5.81,20.269
1739,-0.09,35.75,39.402,47.269,26.504,6.343,5.769,19.94
1740,-0.097,35.828,39.328,47.298,26.504,6.384,5.809,19.693
1741,-0.1,35.397,39.347,47.308,26.504,6.466,5.932,19.528
1742,-0.087,35.498,39.293,47.289,26.487,6.304,5.77,19.16
1743,-0.032,35.624,39.335,47.26,26.49,6.18,5.728,18.791
1744,-0.002,35.663,39.343,47.259,26.497,6.261,5.768,18.421
1745,0.037,35.52,39.359,47.355,26.494,6.221,5.728,18.052
1746,0.08,35.653,39.328,47.27,26.497,6.302,5.809,17.723
1747,0.097,35.75,39.355,47.279,26.504,6.262,5.769,17.394
1748,0.11,35.645,39.386,47.25,26.49,6.18,5.728,16.984
1749,0.133,35.443,39.305,47.259,26.497,6.22,5.687,16.655
1750,0.153,35.604,39.319,47.307,26.504,6.22,5.849,16.408
1751,0.195,35.702,39.222,47.308,26.501,6.261,5.851,16.039
1752,0.209,35.482,39.307,47.298,26.501,6.221,5.769,15.832
1753,0.251,35.566,39.304,47.279,26.501,6.18,5.85,15.505
1754,0.284,35.692,39.335,47.298,26.49,6.22,5.769,15.177
1755,0.323,35.817,39.324,47.289,26.497,6.261,5.728,14.848
1756,0.369,35.378,39.316,47.346,26.501,6.384,5.85,14.763
1757,0.405,35.45,39.398,47.308,26.504,6.385,5.851,14.559
1758,0.429,35.566,39.313,47.279,26.497,6.303,5.729,14.232
1759,0.442,35.663,39.3,47.279,26.487,6.302,5.727,13.944
1760,0.468,35.309,39.214,47.307,26.494,6.343,5.727,13.778
1761,0.481,35.459,39.311,47.279,26.501,6.506,5.727,13.614
1762,0.524,35.604,39.323,47.298,26.497,6.508,5.768,13.45
1763,0.537,35.654,39.351,47.298,26.494,6.508,5.768,13.367
1764,0.563,35.453,39.308,47.317,26.494,6.508,5.647,13.041
1765,0.606,35.604,39.28,47.327,26.49,6.63,5.767,12.875
1766,0.626,35.74,39.382,47.308,26.504,6.753,5.809,12.833
1767,0.645,35.808,39.336,47.317,26.497,6.754,5.81,12.629
1768,0.662,35.301,39.304,47.318,26.501,6.754,5.81,12.546
1769,0.675,35.459,39.202,47.356,26.501,6.714,5.81,12.382
1770,0.678,35.595,39.354,47.318,26.501,6.794,5.728,12.218
1771,0.734,35.653,39.324,47.327,26.504,6.795,5.768,12.094
1772,0.741,35.386,39.402,47.337,26.511,6.836,5.931,12.093
1773,0.76,35.488,39.313,47.299,26.49,6.755,5.73,11.89
1774,0.787,35.633,39.316,47.308,26.487,6.714,5.687,11.725
1775,0.816,35.692,39.335,47.298,26.504,6.672,5.646,11.683
1776,0.852,35.3,39.355,47.317,26.497,6.794,5.645,11.683
1777,0.869,35.44,39.32,47.327,26.494,6.795,5.767,11.683
1778,0.885,35.566,39.202,47.337,26.497,6.836,5.687,11.683
1779,0.898,35.394,39.303,47.27,26.483,6.714,5.646,11.56
1780,0.912,35.45,39.319,47.317,26.494,6.754,5.686,11.478
1781,0.902,35.585,39.366,47.337,26.504,6.917,5.809,11.599
1782,0.908,35.682,39.406,47.318,26.504,6.919,5.81,11.478
1783,0.918,35.261,39.254,47.337,26.497,6.878,5.688,11.436
1784,0.912,35.362,39.323,47.318,26.497,6.837,5.727,11.355
1785,0.912,35.479,39.324,47.327,26.497,6.877,5.727,11.232
1786,0.938,35.604,39.366,47.318,26.501,6.877,5.727,11.109
1787,0.922,35.193,39.183,47.337,26.508,7.0,5.89,11.189
1788,0.915,35.314,39.283,47.308,26.494,6.838,5.77,11.068
1789,0.886,35.449,39.288,47.298,26.497,6.714,5.687,10.944
1790,0.892,35.547,39.331,47.308,26.494,6.754,5.646,10.902
1791,0.899,35.298,39.374,47.298,26.494,6.836,5.686,11.146
1792,0.899,35.468,39.363,47.308,26.497,6.796,5.727,11.677
1793,0.895,35.604,39.359,47.327,26.497,6.836,5.687,12.374
1794,0.879,35.663,39.304,47.279,26.494,6.714,5.687,13.112
1795,0.918,35.213,39.378,47.307,26.49,6.713,5.646,13.974
1796,0.912,35.362,39.273,47.337,26.504,6.794,5.767,15.161
1797,0.918,35.498,39.343,47.346,26.504,6.836,5.728,16.068
1798,0.909,35.547,39.343,47.327,26.504,6.755,5.768,17.012
1799,0.899,35.298,39.343,47.327,26.504,6.754,5.768,17.55
1800,0.918,35.44,39.374,47.308,26.504,6.673,5.768,18.165
1801,0.964,35.566,39.355,47.346,26.504,6.631,5.728,18.415
1802,0.961,35.596,39.312,47.366,26.508,6.712,5.85,18.784
1803,0.958,35.28,39.257,47.337,26.508,6.754,5.891,18.868
1804,0.945,35.411,39.37,47.308,26.497,6.592,5.729,18.747
1805,0.945,35.508,39.285,47.298,26.497,6.631,5.687,18.624
1806,0.958,35.47,39.311,47.317,26.494,6.631,5.727,18.42
1807,0.964,35.25,39.316,47.308,26.497,6.672,5.768,18.255
1808,0.968,35.391,39.347,47.308,26.504,6.631,5.809,18.091
1809,0.961,35.479,39.371,47.308,26.497,6.631,5.81,17.926
1810,0.961,35.163,39.34,47.289,26.494,6.509,5.688,17.559
1811,0.984,35.275,39.331,47.327,26.501,6.63,5.809,17.392
1812,0.974,35.42,39.288,47.327,26.504,6.712,5.81,17.228
1813,0.961,35.517,39.354,47.337,26.508,6.672,5.85,16.983
1814,0.951,35.145,39.336,47.327,26.504,6.631,5.81,16.736
1815,0.958,35.285,39.296,47.327,26.497,6.672,5.769,16.49
1816,0.971,35.42,39.331,47.346,26.497,6.591,5.809,16.406
1817,0.977,35.527,39.347,47.356,26.504,6.631,5.728,16.283
1818,0.964,35.308,39.414,47.347,26.515,6.753,5.89,16.282
1819,0.971,35.411,39.332,47.318,26.501,6.551,5.77,16.079
1820,0.984,35.565,39.331,47.298,26.494,6.549,5.687,15.955
1821,0.997,35.634,39.23,47.327,26.49,6.508,5.646,15.791
1822,0.984,34.973,39.334,47.318,26.501,6.508,5.645,15.789
1823,0.978,35.11,39.363,47.327,26.497,6.63,5.727,15.667
1824,0.951,35.236,39.312,47.327,26.497,6.55,5.727,15.585
1825,0.954,35.305,39.355,47.318,26.49,6.427,5.727,15.381
1826,0.977,35.229,39.277,47.318,26.497,6.466,5.727,15.134
1827,0.971,35.391,39.374,47.337,26.504,6.589,5.768,15.173
1828,0.981,35.498,39.316,47.337,26.504,6.59,5.768,15.051
1829,0.948,35.547,39.277,47.346,26.508,6.549,5.768,14.887
1830,0.932,35.068,39.19,47.366,26.497,6.508,5.768,14.764
1831,0.948,35.197,39.307,47.347,26.49,6.467,5.728,14.559
1832,0.958,35.352,39.335,47.356,26.504,6.467,5.768,14.395
1833,0.954,35.498,39.343,47.366,26.511,6.548,5.85,14.352
1834,0.951,35.192,39.371,47.433,26.501,6.508,5.851,14.149
1835,0.961,35.333,39.289,47.338,26.497,6.345,5.688,13.821
1836,0.981,35.449,39.378,47.327,26.49,6.384,5.727,13.696
1837,0.991,35.192,39.316,47.346,26.501,6.425,5.809,13.532
1838,1.013,35.199,39.281,47.356,26.49,6.385,5.81,13.449
1839,1.014,35.333,39.257,47.395,26.504,6.507,5.769,13.773
1840,1.023,35.421,39.288,47.337,26.483,6.427,5.647,14.59
1841,1.03,35.124,39.343,47.366,26.494,6.426,5.727,15.859
1842,1.017,35.236,39.324,47.385,26.504,6.548,5.768,17.132
1843,1.023,35.372,39.331,47.366,26.504,6.63,5.809,18.445
1844,1.007,35.469,39.288,47.395,26.497,6.631,5.769,19.922
1845,1.004,35.029,39.362,47.385,26.504,6.631,5.728,21.441
1846,0.994,35.188,39.359,47.395,26.504,6.55,5.727,22.88
1847,1.007,35.352,39.281,47.414,26.501,6.549,5.768,23.951
1848,0.991,35.44,39.335,47.424,26.518,6.712,5.972,24.937
1849,0.974,35.009,39.281,47.386,26.501,6.632,5.771,25.435
1850,0.971,35.149,39.374,47.385,26.497,6.59,5.728,25.603
1851,0.974,35.285,39.328,47.395,26.49,6.549,5.727,25.645
1852,0.984,35.363,39.366,47.385,26.497,6.59,5.768,25.564
1853,0.984,35.028,39.351,47.414,26.494,6.59,5.687,25.36
1854,0.997,35.178,39.3,47.395,26.497,6.631,5.768,24.951
1855,1.007,35.285,39.374,47.376,26.487,6.55,5.768,24.5
1856,1.007,35.382,39.269,47.414,26.497,6.59,5.687,24.048
1857,1.014,35.105,39.307,47.414,26.504,6.753,5.809,23.637
1858,1.043,35.217,39.241,47.395,26.501,6.673,5.81,22.983
1859,1.04,35.343,39.385,47.404,26.501,6.713,5.769,22.407
1860,1.05,35.382,39.394,47.395,26.501,6.672,5.809,21.751
1861,1.043,35.124,39.398,47.385,26.497,6.631,5.728,21.175
1862,1.05,35.294,39.375,47.404,26.501,6.672,5.809,20.641
1863,1.043,35.411,39.32,47.424,26.515,6.794,5.85,20.147
1864,1.053,35.249,39.374,47.395,26.497,6.673,5.851,19.533
1865,1.063,35.027,39.308,47.404,26.487,6.631,5.729,18.957
1866,1.066,35.178,39.327,47.405,26.49,6.59,5.687,18.463
1867,1.05,35.304,39.312,47.395,26.49,6.671,5.687,18.174
1868,1.03,35.085,39.335,47.385,26.497,6.672,5.727,17.887
1869,1.017,35.169,39.402,47.395,26.501,6.753,5.687,17.68
1870,1.001,35.285,39.352,47.376,26.487,6.592,5.605,17.516
1871,1.01,35.411,39.363,47.395,26.49,6.631,5.645,17.311
1872,1.01,34.961,39.304,47.414,26.497,6.794,5.767,17.146
1873,1.017,35.062,39.351,47.424,26.508,6.714,5.809,16.982
1874,1.02,35.178,39.347,47.424,26.508,6.754,5.769,16.818
1875,1.017,35.275,39.293,47.424,26.504,6.754,5.768,16.572
1876,1.01,35.085,39.296,47.405,26.501,6.714,5.809,16.488
1877,1.043,35.217,39.335,47.424,26.497,6.672,5.728,16.203
1878,1.027,35.372,39.378,47.443,26.511,6.794,5.89,16.159
1879,1.037,35.412,39.332,47.415,26.497,6.714,5.77,15.956
1880,1.04,34.923,39.288,47.395,26.497,6.551,5.728,15.587
1881,1.063,35.081,39.214,47.404,26.494,6.59,5.687,15.34
1882,1.076,35.226,39.307,47.405,26.497,6.59,5.646,15.053
1883,1.073,35.276,39.296,47.405,26.494,6.631,5.645,14.887
1884,1.083,35.046,39.319,47.405,26.494,6.631,5.686,14.682
1885,1.076,35.169,39.312,47.395,26.49,6.59,5.646,14.355
1886,1.102,35.333,39.327,47.404,26.49,6.549,5.605,14.108
1887,1.096,35.373,39.409,47.433,26.501,6.63,5.726,14.065
1888,1.092,34.942,39.309,47.424,26.504,6.712,5.727,13.902
1889,1.07,35.1,39.284,47.434,26.497,6.672,5.809,13.819
1890,1.053,35.217,39.296,47.453,26.501,6.713,5.728,13.615
1891,1.05,35.477,39.296,47.434,26.497,6.713,5.727,13.531
1892,1.063,34.972,39.335,47.414,26.501,6.632,5.646,13.408
1893,1.06,35.101,39.343,47.453,26.511,6.834,5.849,13.367
1894,1.05,35.207,39.371,47.424,26.497,6.674,5.769,13.285
1895,1.063,35.046,39.269,47.405,26.497,6.591,5.647,12.999
1896,1.079,35.101,39.37,47.414,26.494,6.631,5.605,12.875
1897,1.07,35.227,39.312,47.414,26.49,6.712,5.645,12.873
1898,1.082,35.362,39.292,47.424,26.494,6.713,5.727,12.751
1899,1.066,34.932,39.296,47.414,26.494,6.754,5.727,12.628
1900,1.066,35.004,39.284,47.414,26.483,6.673,5.565,12.79
1901,1.089,35.178,39.323,47.405,26.483,6.753,5.645,13.076
1902,1.086,35.275,39.3,47.452,26.504,6.876,5.727,13.648
1903,1.105,34.874,39.339,47.453,26.497,6.918,5.768,14.264
1904,1.115,35.023,39.273,47.443,26.504,6.959,5.687,15.042
1905,1.115,35.13,39.354,47.443,26.497,6.96,5.687,15.944
1906,1.115,35.217,39.332,47.443,26.504,6.96,5.687,16.848
1907,1.125,34.959,39.296,47.424,26.501,6.96,5.687,17.629
1908,1.138,35.158,39.323,47.453,26.504,7.041,5.809,18.329
1909,1.125,35.256,39.316,47.463,26.511,7.123,5.81,18.945
1910,1.116,35.305,39.37,47.434,26.501,7.083,5.647,19.195
1911,1.128,35.027,39.34,47.424,26.49,6.961,5.564,19.32
1912,1.119,35.178,39.374,47.414,26.49,7.0,5.645,19.443
1913,1.129,35.333,39.285,47.529,26.497,7.041,5.645,19.363
1914,1.129,35.392,39.343,47.425,26.501,7.082,5.605,19.281
1915,1.125,35.019,39.39,47.453,26.504,7.002,5.645,19.199
1916,1.122,35.12,39.324,47.405,26.49,6.919,5.686,19.035
1917,1.116,35.294,39.335,47.433,26.494,6.919,5.564,18.627
1918,1.145,35.344,39.288,47.462,26.497,6.959,5.726,18.46
1919,1.161,35.2,39.354,47.453,26.504,7.041,5.687,18.174
1920,1.174,35.333,39.316,47.453,26.504,7.042,5.727,17.805
1921,1.175,35.459,39.39,47.453,26.497,7.001,5.727,17.354
1922,1.191,35.355,39.32,47.453,26.497,6.919,5.687,16.984
1923,1.188,35.181,39.304,47.453,26.497,6.919,5.687,16.655
1924,1.197,35.362,39.347,47.501,26.508,6.919,5.646,16.326
1925,1.201,35.459,39.335,47.453,26.504,7.041,5.849,16.12
1926,1.191,35.211,39.347,47.539,26.49,6.798,5.648,15.63
1927,1.194,35.314,39.281,47.435,26.49,6.714,5.605,15.178
1928,1.168,35.469,39.335,47.434,26.494,6.794,5.645,14.929
1929,1.178,35.547,39.398,47.443,26.494,6.836,5.727,14.724
1930,1.152,35.269,39.34,47.462,26.497,6.877,5.768,14.518
1931,1.139,35.401,39.343,47.443,26.501,6.837,5.687,14.394
1932,1.119,35.527,39.242,47.472,26.49,6.796,5.605,14.19
1933,1.132,35.643,39.327,47.444,26.494,6.836,5.686,14.065
1934,1.155,36.162,39.351,47.462,26.501,6.958,5.768,14.105
1935,1.171,36.321,39.304,47.482,26.504,6.96,5.809,13.983
1936,1.142,36.437,39.331,47.472,26.508,6.96,5.85,13.982
1937,1.151,36.515,39.351,47.453,26.497,6.96,5.851,13.738
1938,1.155,35.222,39.382,47.463,26.494,6.96,5.688,13.776
1939,1.161,35.391,39.355,47.472,26.504,7.041,5.809,13.533
1940,1.178,35.527,39.363,47.492,26.511,7.082,5.972,13.612
1941,1.171,35.567,39.265,47.492,26.504,7.042,5.893,13.531
1942,1.158,35.749,39.327,47.453,26.497,6.92,5.77,13.246
1943,1.168,35.904,39.296,47.453,26.487,6.919,5.728,13.121
1944,1.191,36.021,39.308,47.453,26.494,6.959,5.768,13.039
1945,1.191,36.089,39.3,47.463,26.501,6.96,5.809,13.078
1946,1.188,35.706,39.304,47.453,26.494,6.919,5.81,12.876
1947,1.181,35.837,39.351,47.463,26.497,7.0,5.81,12.751
1948,1.181,35.944,39.285,47.434,26.487,6.838,5.688,12.547
1949,1.175,36.299,39.284,47.462,26.497,6.918,5.768,12.586
1950,1.181,36.035,39.206,47.491,26.501,7.0,5.891,12.586
1951,1.175,36.185,39.342,47.482,26.504,6.96,5.892,12.505
1952,1.188,36.263,39.316,47.463,26.504,6.96,5.811,12.382
1953,1.178,36.034,39.382,47.472,26.497,6.96,5.85,12.299
1954,1.175,36.051,39.203,47.492,26.497,6.838,5.851,12.136
1955,1.175,36.233,39.346,47.482,26.497,6.837,5.891,12.053
1956,1.181,36.322,39.398,47.501,26.511,6.999,5.973,12.052
1957,1.181,36.14,39.348,47.473,26.497,6.838,5.893,11.93
1958,1.168,36.253,39.293,47.463,26.497,6.755,5.729,11.685
1959,1.178,36.37,39.226,47.472,26.494,6.795,5.768,11.479
1960,1.194,36.476,39.334,47.463,26.497,6.755,5.85,11.355
1961,1.201,36.171,39.304,47.472,26.494,6.795,5.81,11.232
1962,1.201,36.302,39.39,47.492,26.494,6.755,5.85,11.19
1963,1.198,36.399,39.309,47.473,26.494,6.754,5.891,10.986
1964,1.198,36.525,39.343,47.453,26.487,6.632,5.77,10.781
1965,1.181,36.334,39.304,47.501,26.501,6.753,5.891,10.82
1966,1.214,36.466,39.386,47.492,26.508,6.836,5.892,10.779
1967,1.211,36.573,39.316,47.473,26.504,6.837,5.851,10.657
1968,1.207,36.67,39.273,47.492,26.504,6.755,5.851,10.737
1969,1.185,36.451,39.311,47.473,26.501,6.795,5.891,10.616
1970,1.175,36.602,39.288,47.492,26.497,6.755,5.892,10.493
1971,1.184,36.747,39.358,47.511,26.515,6.836,5.973,10.451
1972,1.162,36.758,39.347,47.492,26.508,6.755,5.974,10.491
1973,1.129,36.634,39.246,47.482,26.497,6.673,5.933,10.288
1974,1.129,36.767,39.311,47.453,26.497,6.55,5.77,10.164
1975,1.125,36.883,39.312,47.472,26.494,6.63,5.809,10.122
1976,1.116,36.923,39.359,47.482,26.494,6.712,5.81,10.203
1977,1.119,36.645,39.261,47.549,26.497,6.632,5.85,10.611
1978,1.112,36.738,39.338,47.473,26.497,6.672,5.851,11.55
1979,1.132,36.883,39.285,47.453,26.494,6.631,5.729,12.698
1980,1.132,36.903,39.37,47.482,26.504,6.712,5.931,14.173
1981,1.135,36.836,39.371,47.511,26.497,6.794,5.974,15.773
1982,1.129,36.951,39.359,47.492,26.501,6.714,5.974,17.375
1983,1.135,37.067,39.343,47.492,26.501,6.754,5.811,18.976
1984,1.151,36.915,39.308,47.482,26.504,6.673,5.81,20.416
1985,1.139,37.019,39.39,47.492,26.504,6.713,5.891,21.609
1986,1.135,37.164,39.254,47.54,26.504,6.754,5.933,22.556
1987,1.116,37.223,39.331,47.492,26.508,6.795,5.933,23.257
1988,1.112,36.878,39.304,47.463,26.494,6.673,5.811,23.548
1989,1.106,36.99,39.386,47.472,26.497,6.672,5.769,23.592
1990,1.096,37.135,39.41,47.472,26.497,6.753,5.891,23.592
1991,1.089,37.213,39.328,47.482,26.494,6.754,5.77,23.47
1992,1.079,36.983,39.257,47.492,26.497,6.754,5.809,23.184
1993,1.076,37.125,39.245,47.501,26.494,6.795,5.85,23.059
1994,1.076,37.251,39.354,47.463,26.49,6.673,5.688,22.814
1995,1.083,37.329,39.261,47.511,26.501,6.794,5.768,22.893
1996,1.079,37.119,39.331,47.492,26.504,6.795,5.85,23.057
1997,1.079,37.26,39.316,47.501,26.504,6.836,5.81,23.343
1998,1.089,37.367,39.37,47.492,26.501,6.877,5.85,23.956
1999,1.096,37.426,39.398,47.511,26.497,6.796,5.81,24.49
2000,1.092,37.196,39.352,47.501,26.504,6.755,5.81,24.943
2001,1.083,37.367,39.359,47.53,26.504,6.876,5.85,25.313
2002,1.076,37.474,39.308,47.521,26.515,6.918,5.973,25.764
2003,1.089,37.485,39.319,47.492,26.504,6.796,5.893,25.931
2004,1.06,37.264,39.335,47.482,26.497,6.714,5.811,26.055
2005,1.047,37.425,39.355,47.559,26.494,6.591,5.728,26.178
2006,1.03,37.522,39.293,47.473,26.494,6.712,5.809,26.22
2007,1.03,37.878,39.362,47.492,26.501,6.754,5.81,26.18
2008,1.04,37.22,39.41,47.501,26.501,6.795,5.81,26.057
2009,1.014,37.329,39.32,47.463,26.49,6.714,5.688,25.772
2010,1.001,37.464,39.308,47.482,26.494,6.754,5.687,25.281
2011,0.997,37.35,39.234,47.52,26.501,6.917,5.809,24.869
2012,0.994,37.387,39.323,47.521,26.497,6.919,5.81,24.459
2013,0.984,37.532,39.327,47.492,26.504,6.959,5.85,23.845
2014,0.981,37.6,39.288,47.492,26.497,6.919,5.851,23.188
2015,0.977,37.313,39.35,47.511,26.497,6.878,5.769,22.653
2016,0.987,37.416,39.296,47.492,26.501,6.918,5.85,22.078
2017,1.004,37.57,39.401,47.53,26.508,6.959,5.851,21.463
2018,0.984,37.658,39.32,47.54,26.511,7.082,5.851,21.009
2019,0.981,37.314,39.292,47.511,26.494,6.961,5.81,20.314
2020,0.977,37.454,39.218,47.482,26.494,6.919,5.688,19.656
2021,0.984,37.571,39.307,47.472,26.494,6.878,5.727,19.121
2022,0.984,37.668,39.296,47.501,26.494,6.877,5.768,18.587
2023,0.984,37.391,39.347,47.492,26.497,6.918,5.809,18.135
2024,0.984,37.522,39.23,47.52,26.497,7.0,5.769,17.724
2025,0.965,37.629,39.272,47.492,26.487,6.838,5.728,17.191
2026,0.971,37.726,39.389,47.492,26.497,6.877,5.687,16.698
2027,0.981,37.372,39.348,47.501,26.504,6.877,5.809,16.368
2028,0.964,37.503,39.324,47.511,26.508,6.877,5.769,16.039
2029,0.958,37.638,39.277,47.607,26.504,6.918,5.768,15.629
2030,0.915,37.688,39.327,47.512,26.501,6.878,5.768,15.3
2031,0.918,37.544,39.366,47.492,26.497,6.877,5.768,15.012
2032,0.912,37.706,39.375,47.511,26.497,6.877,5.728,14.846
2033,0.899,37.823,39.426,47.54,26.515,6.959,5.931,14.56
2034,0.908,37.805,39.289,47.511,26.501,6.878,5.811,14.232
2035,0.912,37.392,39.35,47.492,26.49,6.796,5.688,13.985
2036,0.915,37.541,39.332,47.482,26.494,6.795,5.646,13.698
2037,0.915,37.658,39.296,47.501,26.49,6.836,5.686,13.532
2038,0.922,37.64,39.284,47.54,26.501,6.877,5.727,13.246
2039,0.931,37.563,39.257,47.531,26.497,6.918,5.809,13.202
2040,0.931,37.668,39.331,47.473,26.494,6.837,5.728,12.917
2041,0.918,37.784,39.316,47.501,26.494,6.796,5.646,12.67
2042,0.918,37.44,39.386,47.501,26.501,6.917,5.767,12.587
2043,0.918,37.503,39.297,47.521,26.494,6.959,5.768,12.423
2044,0.918,37.638,39.319,47.521,26.497,6.878,5.809,12.422
2045,0.912,37.716,39.374,47.502,26.501,6.918,5.728,12.218
2046,0.905,37.343,39.328,47.492,26.501,6.878,5.727,12.135
2047,0.892,37.474,39.324,47.53,26.497,6.796,5.768,12.012
2048,0.912,37.638,39.277,47.521,26.515,6.877,5.85,12.011
2049,0.889,37.688,39.327,47.502,26.497,6.796,5.851,11.97
2050,0.895,37.343,39.378,47.482,26.49,6.714,5.729,11.685
2051,0.889,37.502,39.367,47.482,26.497,6.632,5.687,11.601
2052,0.902,37.61,39.379,47.482,26.49,6.672,5.727,11.438
2053,0.895,37.697,39.305,47.492,26.497,6.794,5.727,11.477
2054,0.902,37.401,39.347,47.492,26.504,6.714,5.768,11.477
2055,0.908,37.503,39.343,47.463,26.494,6.672,5.728,11.436
2056,0.908,37.667,39.304,47.491,26.494,6.591,5.727,11.355
2057,0.915,37.736,39.358,47.511,26.504,6.793,5.727,11.354
2058,0.905,37.526,39.316,47.521,26.508,6.714,5.809,11.395
2059,0.902,37.658,39.382,47.511,26.504,6.713,5.85,11.395
2060,0.908,37.765,39.336,47.501,26.504,6.794,5.81,11.273
2061,0.908,37.794,39.382,47.482,26.494,6.633,5.728,11.19
2062,0.902,37.382,39.266,47.501,26.497,6.712,5.768,11.189
2063,0.908,37.541,39.303,47.53,26.508,6.835,5.931,11.312
2064,0.879,37.62,39.351,47.492,26.511,6.633,5.811,11.191
2065,0.882,37.946,39.277,47.463,26.49,6.631,5.688,11.027
2066,0.879,37.48,39.307,47.472,26.49,6.509,5.646,10.903
2067,0.882,37.628,39.288,47.472,26.494,6.63,5.727,10.902
2068,0.876,37.726,39.354,47.482,26.494,6.631,5.687,10.821
2069,0.869,37.334,39.398,47.482,26.497,6.59,5.727,10.861
2070,0.85,37.301,39.336,47.453,26.497,6.631,5.727,10.861
2071,0.859,37.454,39.359,47.463,26.487,6.55,5.687,10.658
2072,0.866,37.59,39.25,47.549,26.497,6.671,5.727,10.778
2073,0.862,37.39,39.358,47.483,26.504,6.713,5.727,10.82
2074,0.866,37.503,39.336,47.492,26.501,6.672,5.768,10.779
2075,0.859,37.61,39.285,47.482,26.504,6.713,5.728,10.779
2076,0.853,37.726,39.308,47.501,26.497,6.754,5.727,10.738
2077,0.879,37.286,39.343,47.473,26.497,6.673,5.727,10.616
2078,0.905,37.454,39.374,47.511,26.504,6.753,5.809,10.574
2079,0.899,37.561,39.375,47.501,26.504,6.795,5.85,10.696
2080,0.899,37.61,39.336,47.473,26.49,6.633,5.648,10.575
2081,0.921,37.275,39.242,47.463,26.487,6.509,5.686,10.533
2082,0.909,37.406,39.323,47.463,26.494,6.63,5.646,10.492
2083,0.912,37.551,39.296,47.463,26.497,6.631,5.645,10.614
2084,0.931,37.6,39.308,47.463,26.497,6.672,5.727,10.574
2085,0.918,37.313,39.316,47.482,26.497,6.591,5.687,10.696
2086,0.899,37.445,39.288,47.444,26.494,6.509,5.564,10.616
2087,0.912,37.58,39.374,47.482,26.494,6.549,5.685,10.615
2088,0.922,37.63,39.332,47.472,26.497,6.671,5.687,10.737
2089,0.915,37.314,39.327,47.482,26.508,6.631,5.809,10.779
2090,0.905,37.464,39.257,47.472,26.497,6.631,5.728,10.779
2091,0.905,37.552,39.338,47.482,26.504,6.59,5.727,10.779
2092,0.882,37.591,39.269,47.472,26.501,6.509,5.687,10.82
2093,0.902,37.371,39.397,47.472,26.504,6.589,5.727,10.901
2094,0.892,37.493,39.328,47.492,26.511,6.671,5.809,11.065
2095,0.889,37.6,39.312,47.463,26.497,6.55,5.769,11.026
2096,0.885,37.457,39.347,47.463,26.494,6.468,5.647,11.107
2097,0.889,37.36,39.328,47.463,26.49,6.426,5.564,11.514
2098,0.892,37.493,39.335,47.463,26.49,6.466,5.685,12.128
2099,0.905,37.6,39.253,47.482,26.494,6.467,5.605,12.785
2100,0.902,37.304,39.338,47.472,26.497,6.467,5.686,13.523
2101,0.908,37.377,39.331,47.444,26.49,6.345,5.687,14.018
2102,0.934,37.532,39.339,47.482,26.49,6.425,5.646,14.511
2103,0.931,37.648,39.41,47.472,26.501,6.385,5.767,15.167
2104,0.931,37.237,39.305,47.472,26.501,6.425,5.728,15.946
2105,0.928,37.367,39.347,47.453,26.501,6.385,5.727,16.889
2106,0.941,37.484,39.312,47.472,26.497,6.385,5.809,17.914
2107,0.945,37.561,39.355,47.453,26.501,6.344,5.728,18.9
2108,0.945,37.15,39.222,47.463,26.501,6.343,5.687,19.927
2109,0.925,37.338,39.291,47.472,26.504,6.343,5.768,20.75
2110,0.905,37.445,39.351,47.492,26.508,6.466,5.85,21.45
2111,0.912,37.484,39.312,47.463,26.494,6.304,5.729,21.782
2112,0.912,37.312,39.37,47.424,26.494,6.262,5.687,21.907
2113,0.908,37.445,39.277,47.453,26.497,6.221,5.687,21.908
2114,0.925,37.58,39.339,47.453,26.494,6.18,5.727,21.868
2115,0.918,37.63,39.3,47.453,26.497,6.22,5.768,21.786
