time,ecg,bvp,gsr,rsp,skt,emg_zygo,emg_coru,emg_trap
0,0.708,35.17,40.577,43.01,25.891,5.645,9.013,8.931
1,0.705,34.85,40.739,42.981,25.898,5.604,9.013,8.972
2,0.685,34.957,40.644,42.991,25.887,5.563,9.177,8.972
3,0.685,35.073,40.707,42.981,25.884,5.563,9.259,8.849
4,0.701,35.141,40.676,43.02,25.898,5.645,9.465,8.972
5,0.711,34.811,40.715,43.029,25.908,5.727,9.547,9.095
6,0.692,34.928,40.763,42.991,25.891,5.563,9.506,8.849
7,0.688,35.024,40.668,43.0,25.894,5.481,9.588,8.89
8,0.678,35.063,40.794,42.981,25.891,5.604,9.711,8.931
9,0.672,34.782,40.668,42.981,25.891,5.604,9.711,8.931
10,0.685,34.908,40.703,43.0,25.891,5.563,9.793,8.808
11,0.692,35.044,40.597,43.0,25.894,5.687,9.834,8.972
12,0.695,34.627,40.743,43.0,25.891,5.563,9.834,8.89
13,0.675,34.666,40.625,42.971,25.887,5.563,9.793,8.89
14,0.659,34.802,40.747,42.971,25.887,5.563,9.876,8.89
15,0.675,34.947,40.763,43.0,25.901,5.687,9.876,8.849
16,0.675,34.637,40.629,43.029,25.915,5.768,10.081,8.972
17,0.665,34.744,40.676,42.991,25.891,5.645,9.916,8.931
18,0.662,34.899,40.597,43.0,25.891,5.604,9.916,8.89
19,0.675,34.976,40.79,43.0,25.891,5.645,10.04,8.931
20,0.669,34.695,40.668,42.981,25.887,5.604,9.999,8.89
21,0.652,34.879,40.747,42.981,25.898,5.687,10.04,8.808
22,0.665,35.005,40.613,43.0,25.891,5.687,10.122,9.013
23,0.655,35.063,40.723,43.01,25.894,5.645,10.122,8.972
24,0.655,34.53,40.755,42.981,25.884,5.563,10.081,8.89
25,0.642,34.656,40.739,42.971,25.884,5.522,10.081,8.808
26,0.649,34.811,40.786,43.0,25.905,5.645,10.245,8.931
27,0.642,34.87,40.759,43.01,25.901,5.81,10.368,9.054
28,0.642,34.521,40.774,42.981,25.887,5.604,10.163,8.89
29,0.655,34.686,40.573,43.039,25.901,5.727,10.204,8.931
30,0.655,34.802,40.786,43.0,25.894,5.687,10.286,8.89
31,0.646,34.821,40.652,42.971,25.887,5.645,10.163,8.849
32,0.639,34.569,40.782,43.0,25.901,5.563,10.163,8.89
33,0.629,34.734,40.534,43.0,25.901,5.687,10.245,8.972
34,0.629,34.87,40.743,43.02,25.894,5.687,10.204,8.849
35,0.616,34.753,40.684,42.991,25.898,5.645,10.081,8.808
36,0.623,34.569,40.668,42.962,25.891,5.481,9.999,8.767
37,0.642,34.724,40.79,43.01,25.894,5.563,10.122,8.972
38,0.655,34.811,40.66,43.02,25.901,5.727,10.122,8.972
39,0.662,34.434,40.83,42.981,25.894,5.604,9.957,8.931
40,0.659,34.598,40.644,43.049,25.894,5.727,9.999,8.931
41,0.623,34.676,40.747,43.01,25.894,5.645,9.999,8.972
42,0.616,34.782,40.617,42.981,25.887,5.563,9.876,8.931
43,0.616,34.463,40.822,43.0,25.891,5.645,9.834,8.972
44,0.629,34.618,40.794,43.0,25.898,5.645,9.834,9.095
45,0.649,34.763,40.684,43.02,25.898,5.563,9.752,8.931
46,0.636,34.811,40.676,42.981,25.884,5.563,9.67,8.972
47,0.629,34.414,40.522,42.981,25.884,5.604,9.629,8.849
48,0.626,34.608,40.755,43.0,25.894,5.687,9.67,9.013
49,0.626,34.715,40.621,43.039,25.905,5.727,9.793,9.054
50,0.623,34.773,40.822,42.991,25.894,5.604,9.629,8.931
51,0.623,34.366,40.597,43.02,25.891,5.604,9.67,8.972
52,0.623,34.521,40.739,43.0,25.891,5.604,9.67,8.931
53,0.616,34.608,40.617,42.991,25.884,5.522,9.588,8.808
54,0.619,34.676,40.774,42.991,25.894,5.645,9.547,8.849
55,0.632,34.463,40.77,42.991,25.901,5.645,9.506,9.013
56,0.639,34.608,40.767,43.0,25.898,5.563,9.465,8.931
57,0.626,34.686,40.802,42.981,25.887,5.522,9.342,8.931
58,0.623,34.695,40.664,42.962,25.887,5.522,9.301,8.89
59,0.646,34.346,40.81,43.0,25.898,5.604,9.382,9.013
60,0.636,34.501,40.629,43.02,25.905,5.768,9.547,9.177
61,0.619,34.579,40.81,42.971,25.891,5.522,9.342,9.054
62,0.632,34.56,40.636,42.981,25.898,5.563,9.342,9.136
63,0.632,34.53,40.743,43.0,25.891,5.604,9.382,9.136
64,0.629,34.627,40.573,42.981,25.884,5.522,9.301,9.136
65,0.636,34.753,40.739,43.0,25.891,5.563,9.301,9.177
66,0.639,34.317,40.668,42.981,25.894,5.645,9.342,9.259
67,0.655,34.424,40.782,42.991,25.894,5.563,9.301,9.259
68,0.646,34.511,40.656,42.981,25.891,5.522,9.259,9.177
69,0.642,34.569,40.818,42.962,25.884,5.563,9.259,9.259
70,0.636,34.269,40.786,43.078,25.898,5.645,9.301,9.465
71,0.642,34.434,40.692,43.039,25.908,5.768,9.424,9.465
72,0.632,34.521,40.794,42.971,25.891,5.522,9.218,9.301
73,0.642,34.608,40.751,42.971,25.894,5.604,9.259,9.382
74,0.639,34.114,40.786,42.981,25.887,5.604,9.259,9.424
75,0.642,34.25,40.648,42.981,25.887,5.604,9.177,9.301
76,0.652,34.405,40.707,43.0,25.891,5.645,9.177,9.342
77,0.639,34.492,40.629,43.01,25.901,5.687,9.177,9.382
78,0.642,34.337,40.774,42.991,25.894,5.604,9.136,9.382
79,0.626,34.472,40.699,42.971,25.891,5.645,9.054,9.342
80,0.616,34.569,40.826,42.942,25.884,5.563,8.972,9.218
81,0.629,34.656,40.644,43.0,25.887,5.645,9.013,9.301
82,0.626,34.24,40.798,43.0,25.908,5.768,9.054,9.382
83,0.603,34.356,40.617,42.991,25.894,5.727,8.931,9.259
84,0.613,34.482,40.794,43.01,25.901,5.687,8.89,9.301
85,0.58,34.501,40.648,42.981,25.894,5.687,8.89,9.218
86,0.586,34.346,40.806,42.981,25.891,5.645,8.726,9.013
87,0.613,34.482,40.806,43.0,25.894,5.727,8.808,9.095
88,0.632,34.598,40.727,43.0,25.901,5.727,8.726,9.218
89,0.646,34.308,40.786,43.0,25.887,5.687,8.684,9.095
90,0.675,34.153,40.648,42.971,25.887,5.645,8.602,9.095
91,0.711,34.25,40.822,42.952,25.877,5.563,8.561,8.972
92,0.77,34.385,40.684,42.991,25.901,5.768,8.602,9.054
93,0.839,34.143,40.731,43.02,25.905,5.81,8.602,9.136
94,0.895,34.259,40.585,42.971,25.894,5.687,8.479,9.013
95,0.945,34.395,40.774,42.991,25.898,5.727,8.561,9.013
96,0.984,34.492,40.731,42.991,25.891,5.768,8.397,8.972
97,1.027,34.143,40.747,42.971,25.887,5.727,8.356,8.89
98,1.096,34.298,40.798,42.981,25.894,5.727,8.356,8.931
99,1.155,34.434,40.759,42.981,25.894,5.727,8.397,8.931
100,1.253,34.54,40.834,43.02,25.894,5.81,8.438,8.931
101,1.342,34.095,40.629,42.971,25.887,5.604,8.397,8.808
102,1.447,34.24,40.786,42.971,25.88,5.522,8.356,8.89
103,1.569,34.366,40.699,43.0,25.905,5.768,8.397,8.931
104,1.654,34.453,40.786,43.01,25.898,5.81,8.602,9.095
105,1.756,34.056,40.558,42.981,25.894,5.687,8.438,9.013
106,1.842,34.201,40.696,43.0,25.898,5.727,8.602,8.972
107,1.924,34.308,40.759,43.078,25.898,5.727,8.561,9.136
108,2.006,34.356,40.692,42.971,25.887,5.645,8.52,9.013
109,2.111,34.153,40.81,42.991,25.894,5.604,8.602,9.136
110,2.18,34.298,40.743,43.01,25.898,5.768,8.684,9.259
111,2.285,34.434,40.826,43.029,25.901,5.727,8.602,9.301
112,2.328,34.414,40.715,42.971,25.887,5.645,8.52,9.177
113,2.351,33.998,40.778,42.952,25.887,5.645,8.561,9.218
114,2.39,34.172,40.727,43.0,25.894,5.727,8.684,9.424
115,2.443,34.288,40.857,43.0,25.905,5.851,8.767,9.465
116,2.43,34.133,40.684,42.962,25.898,5.727,8.602,9.424
117,2.403,34.153,40.834,42.991,25.894,5.768,8.644,9.465
118,2.384,34.269,40.601,43.0,25.894,5.727,8.602,9.465
119,2.367,34.366,40.763,42.981,25.884,5.687,8.52,9.382
120,2.305,33.969,40.715,42.981,25.894,5.768,8.52,9.382
121,2.272,34.095,40.794,42.991,25.894,5.727,8.602,9.547
122,2.269,34.23,40.79,43.01,25.898,5.851,8.602,9.629
123,2.226,34.298,40.723,42.962,25.884,5.687,8.644,9.711
124,2.144,34.027,40.778,42.971,25.884,5.645,8.767,9.957
125,2.029,34.162,40.707,42.991,25.891,5.851,9.177,10.286
126,1.878,34.288,40.802,42.991,25.894,5.81,9.424,10.738
127,1.753,34.346,40.696,42.991,25.898,5.727,9.629,11.231
128,1.592,34.463,40.814,42.991,25.898,5.81,9.916,11.764
129,1.431,34.569,40.664,42.981,25.891,5.768,10.081,12.298
130,1.253,34.715,40.778,42.981,25.887,5.645,10.163,12.75
131,1.079,34.773,40.621,43.0,25.894,5.768,10.286,13.202
132,0.895,33.688,40.802,43.0,25.894,5.81,10.409,13.736
133,0.741,33.852,40.837,43.01,25.905,5.81,10.491,14.105
134,0.59,33.93,40.676,42.962,25.891,5.645,10.491,14.434
135,0.504,33.998,40.77,42.971,25.887,5.645,10.409,14.68
136,0.445,34.056,40.644,42.981,25.894,5.768,10.615,15.132
137,0.38,34.211,40.763,42.981,25.894,5.727,10.656,15.338
138,0.34,34.317,40.581,43.0,25.894,5.687,10.491,15.338
139,0.304,34.366,40.782,42.991,25.901,5.81,10.574,15.502
140,0.271,33.998,40.739,42.991,25.891,5.768,10.491,15.461
141,0.258,34.124,40.723,42.952,25.891,5.645,10.409,15.42
142,0.258,34.259,40.703,42.962,25.894,5.727,10.368,15.42
143,0.268,33.959,40.759,42.971,25.898,5.768,10.491,15.543
144,0.304,33.978,40.881,42.981,25.901,5.645,10.286,15.502
145,0.314,34.075,40.739,42.971,25.887,5.645,10.245,15.461
146,0.353,34.153,40.818,42.942,25.88,5.563,10.204,15.502
147,0.412,33.949,40.676,42.981,25.894,5.687,10.245,15.707
148,0.445,34.095,40.723,42.981,25.898,5.727,10.204,15.995
149,0.462,34.23,40.589,42.971,25.887,5.645,10.081,16.035
150,0.495,34.308,40.778,42.971,25.898,5.645,9.957,16.323
151,0.511,33.794,40.644,42.971,25.894,5.727,9.916,16.446
152,0.531,33.959,40.731,42.942,25.887,5.645,9.752,16.57
153,0.557,34.095,40.617,42.952,25.894,5.687,9.752,16.734
154,0.58,34.192,40.77,42.971,25.894,5.727,9.793,16.898
155,0.596,33.872,40.747,42.971,25.898,5.81,9.629,16.939
156,0.593,34.008,40.778,42.942,25.887,5.645,9.629,16.898
157,0.6,34.085,40.861,42.942,25.891,5.563,9.588,16.857
158,0.629,34.201,40.79,42.962,25.887,5.727,9.752,17.021
159,0.623,33.911,40.786,42.981,25.901,5.81,9.793,17.062
160,0.626,34.046,40.648,42.962,25.898,5.687,9.752,16.693
161,0.632,34.192,40.814,42.981,25.894,5.727,9.834,16.652
162,0.623,34.211,40.739,42.971,25.891,5.727,9.834,16.528
163,0.623,33.891,40.798,42.962,25.891,5.645,9.834,16.241
164,0.629,34.046,40.565,42.981,25.898,5.768,9.834,15.995
165,0.649,34.162,40.786,43.0,25.898,5.768,10.04,15.871
166,0.642,34.492,40.676,42.971,25.905,5.727,9.957,15.502
167,0.659,33.93,40.715,42.952,25.88,5.687,9.916,15.214
168,0.675,34.056,40.759,42.952,25.891,5.645,9.957,14.968
169,0.688,34.192,40.806,42.971,25.894,5.81,10.204,14.845
170,0.675,33.911,40.794,42.991,25.908,5.892,10.286,14.68
171,0.675,33.911,40.64,42.971,25.887,5.687,10.204,14.27
172,0.669,34.056,40.798,42.981,25.891,5.727,10.286,14.023
173,0.672,34.143,40.696,42.981,25.901,5.687,10.409,13.777
174,0.665,33.765,40.814,42.942,25.887,5.727,10.368,13.654
175,0.669,33.93,40.68,42.962,25.887,5.687,10.45,13.407
176,0.652,34.075,40.739,43.0,25.894,5.727,10.45,13.202
177,0.662,34.162,40.735,42.962,25.894,5.687,10.409,12.956
178,0.669,33.678,40.692,42.971,25.884,5.645,10.368,12.709
179,0.655,33.814,40.774,42.923,25.884,5.645,10.327,12.545
180,0.669,33.978,40.699,42.962,25.894,5.768,10.368,12.545
181,0.685,34.075,40.798,43.0,25.905,5.851,10.409,12.463
182,0.662,33.794,40.64,42.952,25.891,5.645,10.245,12.134
183,0.682,33.969,40.747,42.981,25.894,5.687,10.204,12.052
184,0.662,34.085,40.798,42.971,25.891,5.687,10.122,11.929
185,0.659,34.114,40.759,42.952,25.884,5.604,10.04,11.723
186,0.649,33.814,40.869,42.942,25.891,5.645,9.999,11.683
187,0.662,33.94,40.707,42.971,25.898,5.645,9.916,11.518
188,0.675,34.075,40.845,42.962,25.894,5.687,9.876,11.477
189,0.665,34.085,40.629,42.981,25.894,5.563,9.793,11.272
190,0.672,33.717,40.77,42.923,25.88,5.522,9.629,11.108
191,0.672,33.901,40.672,42.962,25.894,5.687,9.752,11.149
192,0.669,34.027,40.81,42.981,25.901,5.727,9.752,11.066
193,0.672,34.201,40.739,42.952,25.891,5.563,9.588,10.861
194,0.669,33.833,40.747,42.971,25.898,5.645,9.67,10.943
195,0.662,33.959,40.786,42.971,25.891,5.687,9.588,10.697
196,0.642,34.037,40.703,42.933,25.877,5.563,9.506,10.574
197,0.652,33.736,40.798,42.962,25.887,5.687,9.506,10.491
198,0.655,33.804,40.77,42.981,25.901,5.727,9.588,10.45
199,0.669,33.94,40.849,42.971,25.898,5.727,9.547,10.368
200,0.652,34.027,40.621,42.971,25.894,5.687,9.424,10.204
201,0.662,33.688,40.79,42.933,25.88,5.604,9.382,10.081
202,0.692,33.862,40.715,42.981,25.894,5.727,9.588,10.204
203,0.695,34.008,40.893,43.0,25.901,5.727,9.629,10.204
204,0.701,34.075,40.703,42.952,25.887,5.687,9.465,9.957
205,0.701,33.543,40.798,42.971,25.894,5.727,9.424,9.999
206,0.701,33.688,40.597,42.962,25.894,5.727,9.424,9.957
207,0.688,33.823,40.692,42.971,25.891,5.645,9.382,9.752
208,0.692,33.901,40.755,42.962,25.894,5.645,9.382,9.752
209,0.711,33.727,40.672,42.981,25.898,5.727,9.424,9.793
210,0.724,33.882,40.873,42.991,25.901,5.81,9.342,9.711
211,0.695,33.988,40.589,42.971,25.887,5.645,9.259,9.629
212,0.711,34.037,40.794,42.942,25.88,5.522,9.218,9.506
213,0.708,33.572,40.621,42.962,25.898,5.727,9.382,9.629
214,0.698,33.727,40.834,42.981,25.901,5.768,9.465,9.629
215,0.695,33.814,40.692,42.971,25.887,5.604,9.424,9.465
216,0.698,33.872,40.79,42.981,25.905,5.768,9.588,9.465
217,0.688,33.659,40.822,42.952,25.898,5.687,9.67,9.465
218,0.672,33.785,40.692,42.962,25.884,5.645,9.711,9.342
219,0.669,33.92,40.79,42.971,25.894,5.687,9.916,9.259
220,0.682,33.978,40.692,42.971,25.894,5.687,10.122,9.424
221,0.705,33.717,40.904,42.991,25.901,5.81,10.286,9.342
222,0.698,33.814,40.699,42.942,25.887,5.563,10.286,9.218
223,0.685,33.949,40.798,42.991,25.884,5.563,10.286,9.136
224,0.695,33.688,40.64,42.981,25.898,5.645,10.491,9.259
225,0.705,33.765,40.802,42.981,25.894,5.727,10.532,9.218
226,0.715,33.92,40.66,42.971,25.887,5.727,10.574,9.177
227,0.711,33.998,40.837,42.971,25.894,5.727,10.574,9.259
228,0.715,33.562,40.652,42.962,25.894,5.645,10.574,9.136
229,0.708,33.698,40.77,42.942,25.88,5.563,10.45,9.095
230,0.721,33.823,40.79,42.971,25.898,5.563,10.574,9.095
231,0.721,33.93,40.735,42.962,25.894,5.81,10.574,9.177
232,0.728,33.668,40.865,42.981,25.905,5.727,10.615,9.177
233,0.708,33.775,40.715,42.952,25.891,5.604,10.409,9.095
234,0.705,33.911,40.802,42.942,25.887,5.563,10.368,9.095
235,0.721,33.978,40.55,42.971,25.901,5.687,10.45,9.095
236,0.705,33.504,40.786,42.971,25.891,5.768,10.532,9.218
237,0.701,33.659,40.64,42.971,25.894,5.645,10.286,9.095
238,0.715,33.804,40.774,42.971,25.894,5.687,10.286,9.177
239,0.724,33.843,40.652,42.971,25.901,5.687,10.286,9.218
240,0.718,33.63,40.786,42.942,25.887,5.645,10.245,9.177
241,0.708,33.785,40.849,43.02,25.898,5.687,10.286,9.218
242,0.718,33.92,40.703,42.971,25.894,5.768,10.286,9.301
243,0.718,33.94,40.834,42.962,25.894,5.645,10.286,9.259
244,0.711,33.494,40.715,42.962,25.88,5.604,10.245,9.218
245,0.708,33.61,40.853,42.923,25.887,5.563,10.204,9.218
246,0.724,33.775,40.77,42.952,25.898,5.645,10.204,9.259
247,0.728,33.794,40.873,42.981,25.905,5.768,10.368,9.382
248,0.724,33.639,40.636,42.962,25.891,5.645,10.204,9.259
249,0.741,33.785,40.794,42.971,25.894,5.645,10.245,9.259
250,0.728,33.882,40.664,42.962,25.891,5.687,10.204,9.342
251,0.731,33.533,40.814,42.933,25.891,5.604,10.122,9.382
252,0.754,33.639,40.719,42.962,25.887,5.563,10.081,9.259
253,0.754,33.785,40.755,42.971,25.905,5.727,9.999,9.301
254,0.744,33.882,40.79,42.981,25.898,5.687,10.081,9.301
255,0.731,33.378,40.715,42.923,25.887,5.522,9.793,9.177
256,0.718,33.533,40.841,42.923,25.887,5.481,9.752,9.259
257,0.751,33.668,40.696,42.971,25.898,5.645,9.752,9.382
258,0.744,33.775,40.865,42.981,25.905,5.727,9.793,9.465
259,0.718,33.514,40.727,42.942,25.887,5.522,9.588,9.382
260,0.715,33.688,40.727,42.971,25.894,5.563,9.629,9.382
261,0.734,33.823,40.782,42.962,25.898,5.522,9.629,9.342
262,0.741,33.843,40.755,42.942,25.887,5.481,9.67,9.382
263,0.731,33.407,40.853,42.962,25.894,5.563,9.834,9.382
264,0.728,33.552,40.601,42.962,25.894,5.645,9.957,9.424
265,0.741,33.688,40.692,42.971,25.891,5.563,10.081,9.424
266,0.721,33.707,40.605,43.0,25.887,5.481,10.163,9.259
267,0.715,33.533,40.735,42.923,25.887,5.399,10.204,9.218
268,0.721,33.688,40.699,42.942,25.891,5.522,10.45,9.259
269,0.744,33.814,40.778,42.971,25.894,5.645,10.615,9.342
270,0.744,33.823,40.806,42.952,25.887,5.44,10.491,9.218
271,0.751,33.465,40.711,42.952,25.887,5.563,10.656,9.259
272,0.77,33.601,40.806,42.942,25.894,5.522,10.656,9.177
273,0.774,33.688,40.703,42.933,25.891,5.481,10.574,9.177
274,0.787,33.533,40.865,42.942,25.891,5.522,10.656,9.218
275,0.797,33.359,40.711,42.962,25.898,5.522,10.697,9.259
276,0.797,33.523,40.857,42.962,25.898,5.563,10.656,9.136
277,0.784,33.591,40.676,42.933,25.884,5.481,10.656,9.136
278,0.757,33.32,40.68,42.942,25.887,5.358,10.532,9.054
279,0.767,33.494,40.617,42.962,25.884,5.522,10.615,9.177
280,0.764,33.61,40.794,42.971,25.898,5.645,10.656,9.301
281,0.761,33.707,40.739,42.942,25.891,5.563,10.615,9.054
282,0.774,33.417,40.715,42.971,25.898,5.645,10.656,9.177
283,0.757,33.552,40.806,42.962,25.891,5.687,10.574,9.136
284,0.761,33.668,40.719,42.923,25.887,5.563,10.532,9.054
285,0.767,33.756,40.849,42.933,25.891,5.604,10.615,9.136
286,0.784,33.281,40.739,42.952,25.891,5.604,10.532,9.218
287,0.787,33.465,40.916,42.962,25.898,5.851,10.615,9.136
288,0.777,33.543,40.735,42.933,25.891,5.645,10.327,9.054
289,0.79,33.62,40.802,42.942,25.887,5.645,10.204,9.054
290,0.797,33.388,40.632,42.923,25.894,5.727,10.286,9.136
291,0.797,33.504,40.794,42.923,25.891,5.645,10.245,9.136
292,0.807,33.63,40.869,42.933,25.898,5.645,10.081,9.095
293,0.81,33.698,40.739,42.952,25.898,5.687,10.122,9.136
294,0.807,33.349,40.798,42.962,25.891,5.687,10.04,9.136
295,0.803,33.455,40.656,42.913,25.887,5.645,9.957,8.972
296,0.79,33.572,40.786,42.894,25.884,5.563,9.916,9.013
297,0.803,33.62,40.719,42.942,25.894,5.727,9.876,9.095
298,0.813,33.446,40.865,42.962,25.905,5.851,9.834,9.218
299,0.8,33.543,40.723,42.933,25.891,5.645,9.629,9.013
300,0.81,33.678,40.786,42.933,25.898,5.645,9.629,9.095
301,0.813,33.494,40.632,42.923,25.901,5.687,9.588,9.013
302,0.81,33.397,40.798,42.923,25.887,5.687,9.424,8.972
303,0.823,33.533,40.861,42.942,25.898,5.687,9.342,9.054
304,0.83,33.649,40.786,42.933,25.898,5.727,9.342,9.095
305,0.83,33.33,40.782,42.923,25.894,5.645,9.218,8.972
306,0.826,33.426,40.688,42.923,25.887,5.604,9.054,8.89
307,0.813,33.543,40.727,42.913,25.884,5.522,8.972,8.931
308,0.826,33.678,40.68,42.942,25.894,5.645,8.972,9.013
309,0.833,33.359,40.822,42.962,25.908,5.81,9.095,9.177
310,0.833,33.484,40.699,42.933,25.891,5.604,8.849,8.89
311,0.83,33.62,40.782,42.923,25.891,5.645,8.808,8.931
312,0.823,33.707,40.692,42.942,25.898,5.645,8.767,8.931
313,0.83,33.3,40.751,42.923,25.887,5.563,8.726,8.89
314,0.839,33.455,40.837,42.933,25.894,5.522,8.726,8.972
315,0.846,33.581,40.822,42.933,25.905,5.604,8.767,9.013
316,0.849,33.678,40.857,42.962,25.898,5.563,8.767,8.972
317,0.839,33.368,40.79,42.913,25.891,5.522,8.684,8.931
318,0.83,33.514,40.83,42.904,25.88,5.481,8.684,8.849
319,0.859,33.678,40.731,42.923,25.898,5.563,8.849,8.972
320,0.859,33.736,40.849,42.962,25.905,5.727,8.931,9.136
321,0.859,33.552,40.743,42.923,25.894,5.563,8.89,8.931
322,0.866,33.717,40.853,42.942,25.894,5.604,8.931,9.095
323,0.859,33.843,40.589,42.942,25.891,5.563,8.972,8.972
324,0.859,33.843,40.786,42.942,25.887,5.522,8.931,8.931
325,0.889,33.601,40.621,42.933,25.887,5.645,8.972,8.89
326,0.902,33.746,40.83,42.933,25.894,5.645,9.095,8.972
327,0.912,33.852,40.696,42.942,25.894,5.687,8.972,9.013
328,0.892,33.698,40.802,42.913,25.891,5.604,8.931,8.89
329,0.905,33.698,40.834,42.894,25.877,5.481,8.89,8.849
330,0.922,33.862,40.814,42.962,25.898,5.687,9.095,9.054
331,0.928,33.969,40.814,42.933,25.901,5.768,9.013,9.095
332,0.931,33.639,40.755,42.913,25.891,5.645,8.972,8.931
333,0.925,33.765,40.897,42.923,25.891,5.727,8.972,9.013
334,0.922,33.872,40.755,42.913,25.894,5.727,8.931,8.931
335,0.915,33.959,40.759,42.904,25.887,5.604,8.808,8.89
336,0.922,33.775,40.621,42.933,25.894,5.727,8.767,8.849
337,0.945,33.949,40.822,43.029,25.898,5.727,8.808,9.013
338,0.954,34.085,40.696,42.942,25.901,5.768,8.849,8.931
339,0.948,34.143,40.853,42.904,25.887,5.645,8.644,8.89
340,0.948,34.182,40.755,42.884,25.887,5.604,8.684,8.931
341,0.968,34.395,40.774,42.942,25.894,5.768,8.767,9.054
342,0.994,34.521,40.692,42.952,25.901,5.851,8.931,9.136
343,0.971,34.55,40.841,42.923,25.898,5.727,8.931,8.931
344,0.974,34.308,40.707,42.942,25.894,5.727,9.095,9.013
345,0.974,34.424,40.857,42.933,25.901,5.768,9.301,9.095
346,0.961,34.54,40.715,42.904,25.887,5.645,9.465,8.972
347,0.984,34.589,40.841,42.913,25.887,5.727,9.588,9.013
348,0.971,34.482,40.676,42.933,25.901,5.851,9.916,8.972
349,0.987,34.637,40.763,42.923,25.894,5.727,9.999,9.013
350,1.007,34.724,40.798,42.913,25.887,5.687,9.999,8.89
351,1.023,34.705,40.763,42.913,25.88,5.687,10.081,8.89
352,1.04,34.811,40.834,42.923,25.898,5.727,10.204,8.931
353,1.056,34.947,40.668,42.991,25.898,5.81,10.409,9.095
354,1.063,35.034,40.818,42.904,25.887,5.645,10.286,8.89
355,1.066,34.908,40.692,42.923,25.901,5.768,10.409,8.931
356,1.066,34.928,40.853,42.923,25.887,5.687,10.409,8.931
357,1.066,35.063,40.743,42.913,25.891,5.645,10.327,8.972
358,1.056,35.17,40.865,42.904,25.894,5.727,10.491,8.931
359,1.073,35.199,40.739,42.942,25.905,5.727,10.532,9.013
360,1.096,35.354,40.818,42.923,25.894,5.645,10.574,9.013
361,1.099,35.451,40.743,42.904,25.891,5.687,10.574,8.849
362,1.086,35.509,40.802,42.894,25.88,5.604,10.615,8.89
363,1.109,35.46,40.893,42.923,25.901,5.604,10.697,8.972
364,1.115,35.606,40.688,42.962,25.898,5.727,10.82,9.054
365,1.119,35.712,40.774,42.904,25.887,5.563,10.738,8.849
366,1.142,35.799,40.68,42.962,25.898,5.687,10.779,8.849
367,1.142,35.625,40.814,42.913,25.894,5.645,10.738,8.89
368,1.142,35.741,40.644,42.884,25.891,5.563,10.574,8.767
369,1.168,35.857,40.834,42.913,25.891,5.645,10.656,8.849
370,1.168,35.916,40.692,42.942,25.894,5.604,10.656,8.849
371,1.178,35.983,40.798,43.01,25.898,5.687,10.656,8.849
372,1.181,36.061,40.818,42.904,25.891,5.645,10.574,8.726
373,1.178,36.167,40.735,42.894,25.887,5.563,10.409,8.602
374,1.188,36.196,40.916,42.913,25.894,5.604,10.491,8.767
375,1.201,36.158,40.81,42.952,25.894,5.768,10.45,8.849
376,1.191,36.303,40.869,42.933,25.891,5.645,10.286,8.767
377,1.217,36.419,40.747,42.923,25.894,5.81,10.286,8.684
378,1.214,36.739,40.798,42.923,25.898,5.727,10.204,8.767
379,1.221,36.419,40.656,42.904,25.891,5.645,10.122,8.684
380,1.24,36.545,40.822,42.913,25.894,5.727,10.04,8.644
381,1.25,36.652,40.723,42.904,25.901,5.768,10.081,8.808
382,1.26,36.671,40.786,42.923,25.887,5.687,10.04,8.767
383,1.247,36.739,40.652,42.913,25.891,5.687,9.999,8.644
384,1.26,36.845,40.699,42.894,25.887,5.687,9.916,8.684
385,1.28,36.952,40.857,42.923,25.898,5.81,9.957,8.684
386,1.276,36.836,40.747,42.942,25.905,5.933,10.081,8.808
387,1.28,36.952,40.873,42.933,25.887,5.768,9.957,8.644
388,1.293,37.097,40.735,42.933,25.894,5.81,10.081,8.767
389,1.299,37.117,40.857,42.933,25.894,5.81,9.999,8.808
390,1.303,36.962,40.83,42.904,25.891,5.727,9.834,8.644
391,1.326,37.126,40.755,42.923,25.887,5.768,9.957,8.726
392,1.336,37.223,40.885,42.933,25.901,5.768,9.999,8.808
393,1.345,37.32,40.774,42.942,25.901,5.81,9.957,8.726
394,1.326,37.214,40.806,42.913,25.887,5.687,9.834,8.684
395,1.345,37.349,40.558,42.894,25.884,5.687,9.752,8.561
396,1.368,37.475,40.798,42.923,25.891,5.768,9.876,8.767
397,1.349,37.533,40.692,42.923,25.901,5.81,9.793,8.726
398,1.359,37.504,40.806,42.923,25.894,5.687,9.752,8.684
399,1.365,37.649,40.699,42.933,25.894,5.851,9.876,8.726
400,1.352,37.746,40.853,42.923,25.891,5.727,9.752,8.684
401,1.352,37.756,40.684,42.904,25.884,5.727,9.67,8.602
402,1.362,37.853,40.802,42.923,25.894,5.81,9.834,8.684
403,1.359,37.998,40.703,42.933,25.901,5.851,9.916,8.684
404,1.378,38.085,40.912,42.923,25.887,5.81,9.916,8.684
405,1.368,38.279,40.739,42.904,25.894,5.768,9.916,8.561
406,1.372,37.853,40.83,42.894,25.884,5.687,9.916,8.479
407,1.401,37.988,40.873,42.923,25.894,5.81,10.163,8.602
408,1.408,38.105,40.727,42.942,25.901,5.933,10.245,8.726
409,1.398,38.037,40.841,42.923,25.891,5.768,10.122,8.561
410,1.405,38.153,40.822,42.933,25.891,5.81,10.204,8.767
411,1.401,38.231,40.881,42.923,25.891,5.81,10.204,8.602
412,1.405,38.318,40.723,42.923,25.887,5.81,10.122,8.52
413,1.405,38.027,40.83,42.923,25.894,5.768,10.163,8.602
414,1.405,38.172,40.723,42.933,25.898,5.892,10.163,8.644
415,1.405,38.308,40.869,42.923,25.898,5.851,10.163,8.644
416,1.388,38.337,40.778,42.913,25.891,5.81,9.999,8.644
417,1.405,38.279,40.897,42.884,25.887,5.687,9.916,8.52
418,1.411,38.434,40.747,42.933,25.894,5.768,9.957,8.644
419,1.405,38.55,40.798,42.933,25.901,5.892,9.999,8.767
420,1.398,38.618,40.826,42.913,25.894,5.727,9.834,8.684
421,1.388,38.415,40.782,42.923,25.894,5.81,9.876,8.726
422,1.372,38.531,40.932,42.923,25.891,5.81,9.793,8.726
423,1.355,38.628,40.707,42.913,25.88,5.687,9.67,8.684
424,1.352,38.686,40.774,42.923,25.891,5.768,9.67,8.684
425,1.359,38.608,40.688,42.942,25.894,5.768,9.629,8.767
426,1.365,38.754,40.826,42.962,25.908,5.892,9.67,8.767
427,1.339,38.812,40.66,42.933,25.884,5.687,9.506,8.767
428,1.339,38.821,40.841,42.913,25.891,5.645,9.465,8.726
429,1.336,38.608,40.755,42.913,25.891,5.727,9.588,8.849
430,1.326,38.734,40.818,42.923,25.894,5.727,9.67,8.849
431,1.316,38.841,40.707,42.923,25.894,5.727,9.629,8.972
432,1.316,38.918,40.849,42.942,25.894,5.727,9.67,9.013
433,1.299,38.686,40.711,42.913,25.891,5.768,9.711,9.013
434,1.276,38.783,40.877,42.894,25.887,5.727,9.588,8.972
435,1.253,38.86,40.873,42.904,25.887,5.687,9.752,9.095
436,1.253,38.763,40.743,42.933,25.891,5.81,9.793,9.218
437,1.247,38.899,40.845,42.962,25.908,5.851,9.999,9.218
438,1.224,38.957,40.55,42.942,25.891,5.727,9.916,9.136
439,1.204,39.044,40.79,42.913,25.884,5.687,9.999,9.095
440,1.178,38.831,40.727,42.923,25.891,5.727,10.163,9.259
441,1.175,38.938,40.834,42.913,25.894,5.768,10.204,9.301
442,1.155,39.073,40.597,42.942,25.901,5.81,10.245,9.301
443,1.145,39.151,40.837,42.933,25.898,5.81,10.327,9.342
444,1.135,38.85,40.865,42.923,25.891,5.851,10.286,9.301
445,1.115,38.996,40.822,42.923,25.884,5.768,10.204,9.259
446,1.096,39.073,40.912,42.894,25.894,5.81,10.245,9.259
447,1.083,39.151,40.822,42.942,25.894,5.851,10.286,9.382
448,1.089,38.947,40.897,42.962,25.901,5.974,10.409,9.424
449,1.063,39.054,40.68,42.913,25.891,5.768,10.286,9.301
450,1.056,39.17,40.845,42.913,25.891,5.81,10.368,9.301
451,1.033,39.218,40.735,42.923,25.898,5.81,10.491,9.301
452,1.014,38.909,40.885,42.913,25.884,5.768,10.45,9.259
453,1.023,39.054,40.68,42.913,25.891,5.768,10.491,9.136
454,1.02,39.189,40.786,42.971,25.898,5.851,10.574,9.259
455,1.033,39.209,40.869,42.923,25.898,5.851,10.574,9.218
456,0.994,38.996,40.767,42.913,25.891,5.687,10.615,9.177
457,0.971,39.093,40.877,42.894,25.884,5.645,10.491,9.095
458,0.964,39.238,40.794,42.923,25.898,5.81,10.656,9.218
459,0.945,39.189,40.968,42.923,25.898,5.851,10.779,9.301
460,0.931,39.054,40.632,42.923,25.894,5.727,10.697,9.136
461,0.918,39.18,40.818,42.923,25.898,5.81,10.779,9.177
462,0.912,39.277,40.707,42.913,25.898,5.81,10.738,9.218
463,0.899,39.063,40.893,42.904,25.887,5.687,10.738,9.095
464,0.885,39.189,40.885,42.913,25.894,5.768,10.738,9.095
465,0.866,39.296,40.79,42.913,25.894,5.81,10.738,9.177
466,0.872,39.403,40.818,42.962,25.898,5.768,10.738,9.136
467,0.859,39.034,40.696,42.913,25.891,5.727,10.574,8.931
468,0.839,39.17,40.845,42.894,25.88,5.687,10.45,8.89
469,0.839,39.296,40.731,42.904,25.901,5.851,10.491,9.013
470,0.833,39.354,40.908,42.933,25.898,5.727,10.615,9.054
471,0.83,39.034,40.711,42.904,25.891,5.768,10.409,8.931
472,0.83,39.189,40.861,42.962,25.898,5.727,10.409,8.931
473,0.807,39.277,40.707,42.913,25.894,5.768,10.245,8.931
474,0.8,39.315,40.857,42.904,25.891,5.727,10.081,8.849
475,0.816,39.112,40.755,42.923,25.894,5.727,10.204,8.849
476,0.813,39.257,40.865,42.913,25.901,5.768,10.204,8.89
477,0.813,39.364,40.936,42.952,25.901,5.768,10.163,8.972
478,0.787,39.364,40.794,42.913,25.884,5.687,9.999,8.849
479,0.774,39.093,40.869,42.923,25.88,5.645,9.999,8.684
480,0.78,39.248,40.723,42.923,25.901,5.768,10.122,8.808
481,0.77,39.354,40.912,42.923,25.901,5.851,10.163,8.931
482,0.767,39.344,40.723,42.913,25.894,5.687,10.04,8.808
483,0.764,39.209,40.798,42.933,25.898,5.768,10.081,8.849
484,0.734,39.325,40.699,42.923,25.894,5.81,10.081,8.767
485,0.734,39.412,40.794,42.904,25.887,5.727,9.916,8.726
486,0.741,39.248,40.834,42.923,25.891,5.727,9.999,8.726
487,0.738,39.141,40.77,42.923,25.901,5.727,9.999,8.808
488,0.731,39.267,40.92,42.923,25.894,5.727,9.957,8.767
489,0.718,39.315,40.798,42.923,25.891,5.687,9.834,8.644
490,0.724,39.083,40.873,42.991,25.887,5.522,9.752,8.602
491,0.728,39.228,40.739,42.933,25.894,5.768,9.793,8.684
492,0.721,39.306,40.904,42.933,25.894,5.768,9.834,8.767
493,0.744,39.383,40.755,42.923,25.894,5.645,9.752,8.644
494,0.741,39.073,40.873,42.942,25.898,5.727,9.711,8.684
495,0.731,39.189,40.625,42.923,25.898,5.645,9.629,8.726
496,0.718,39.286,40.731,42.913,25.887,5.645,9.506,8.644
497,0.721,39.373,40.668,43.01,25.894,5.768,9.547,8.602
498,0.724,39.005,40.818,42.923,25.894,5.727,9.506,8.684
499,0.738,39.17,40.743,42.942,25.898,5.768,9.424,8.644
500,0.734,39.228,40.873,42.904,25.891,5.645,9.218,8.52
501,0.738,39.286,40.83,42.904,25.887,5.563,9.136,8.52
502,0.738,39.189,40.767,42.904,25.901,5.645,9.259,8.684
503,0.738,39.344,40.893,42.962,25.901,5.727,9.342,8.684
504,0.711,39.422,40.778,42.933,25.894,5.563,9.136,8.52
505,0.715,39.432,40.928,42.962,25.894,5.604,9.054,8.602
506,0.705,39.044,40.774,42.913,25.898,5.604,9.054,8.644
507,0.688,39.151,40.889,42.884,25.884,5.522,8.89,8.52
508,0.688,39.248,40.707,42.923,25.894,5.604,8.89,8.602
509,0.718,39.296,40.822,42.942,25.898,5.645,8.931,8.602
510,0.721,39.189,40.77,42.933,25.894,5.645,8.808,8.602
511,0.701,39.277,40.841,42.923,25.894,5.522,8.808,8.602
512,0.695,39.344,40.834,42.904,25.884,5.481,8.644,8.52
513,0.708,39.248,40.798,42.942,25.894,5.563,8.767,8.684
514,0.701,39.228,40.865,42.971,25.905,5.687,8.89,8.808
515,0.711,39.306,40.751,42.923,25.894,5.481,8.684,8.602
516,0.708,39.393,40.881,42.933,25.894,5.604,8.684,8.684
517,0.701,39.083,40.767,42.923,25.887,5.645,8.684,8.767
518,0.711,39.151,40.901,42.894,25.894,5.522,8.684,8.684
519,0.711,39.277,40.751,42.923,25.887,5.604,8.684,8.767
520,0.711,39.393,40.873,42.952,25.901,5.727,8.726,8.767
521,0.708,39.151,40.684,42.933,25.898,5.645,8.726,8.767
522,0.705,39.296,40.841,42.923,25.887,5.563,8.726,8.767
523,0.685,39.393,40.782,42.913,25.891,5.604,8.684,8.767
524,0.701,39.47,40.834,42.942,25.894,5.687,8.726,8.849
525,0.734,39.151,40.81,42.962,25.905,5.81,8.767,8.89
526,0.718,39.267,40.699,42.913,25.887,5.522,8.602,8.849
527,0.715,39.354,40.798,42.933,25.887,5.563,8.602,8.684
528,0.711,39.422,40.759,42.933,25.898,5.604,8.644,8.849
529,0.718,39.112,40.857,42.933,25.901,5.604,8.644,8.931
530,0.721,39.209,40.759,42.923,25.894,5.645,8.602,8.849
531,0.728,39.344,40.826,42.952,25.901,5.687,8.644,8.931
532,0.708,39.364,40.719,42.913,25.901,5.645,8.684,8.808
533,0.715,39.151,40.853,42.904,25.887,5.522,8.479,8.767
534,0.728,39.306,40.735,42.913,25.894,5.604,8.684,8.849
535,0.728,39.422,40.912,42.933,25.894,5.645,8.602,8.931
536,0.741,39.432,40.837,42.942,25.894,5.645,8.602,8.89
537,0.724,39.189,40.865,42.913,25.891,5.563,8.602,8.767
538,0.724,39.277,40.841,42.904,25.887,5.481,8.52,8.767
539,0.721,39.432,40.83,42.933,25.901,5.645,8.644,8.931
540,0.728,39.248,40.861,42.942,25.905,5.645,8.808,9.013
541,0.711,39.228,40.834,42.904,25.891,5.645,8.684,8.767
542,0.721,39.354,40.904,42.904,25.894,5.604,8.767,8.849
543,0.711,39.461,40.763,42.942,25.901,5.645,8.89,8.931
544,0.708,39.112,40.857,42.913,25.891,5.563,8.849,8.767
545,0.718,39.257,40.692,42.923,25.894,5.687,8.931,8.849
546,0.731,39.373,40.912,42.923,25.898,5.687,9.054,8.931
547,0.724,39.422,40.739,42.923,25.894,5.604,8.972,8.808
548,0.724,39.151,40.889,42.904,25.894,5.522,8.972,8.726
549,0.711,39.277,40.747,42.894,25.894,5.481,8.931,8.767
550,0.728,39.432,40.822,42.971,25.898,5.563,9.095,8.808
551,0.731,39.499,40.834,42.933,25.905,5.687,9.218,8.931
552,0.721,39.005,40.798,42.904,25.887,5.522,9.054,8.726
553,0.731,39.151,40.912,42.913,25.891,5.645,9.177,8.726
554,0.741,39.277,40.77,42.913,25.894,5.604,9.259,8.726
555,0.741,39.277,40.83,42.913,25.891,5.563,9.177,8.644
556,0.751,39.131,40.715,42.923,25.898,5.604,9.301,8.684
557,0.754,39.277,40.794,42.933,25.898,5.687,9.424,8.767
558,0.757,39.403,40.767,42.923,25.898,5.645,9.424,8.684
559,0.741,39.393,40.893,42.894,25.887,5.563,9.465,8.561
560,0.734,39.151,40.751,42.894,25.887,5.481,9.342,8.52
561,0.741,39.315,40.826,42.933,25.905,5.645,9.547,8.644
562,0.741,39.422,40.826,42.942,25.901,5.727,9.67,8.808
563,0.728,39.693,40.826,42.904,25.891,5.604,9.506,8.561
564,0.741,39.102,40.881,42.923,25.898,5.645,9.588,8.52
565,0.741,39.209,40.782,42.923,25.898,5.645,9.506,8.561
566,0.747,39.277,40.916,42.923,25.891,5.645,9.424,8.52
567,0.747,39.073,40.759,42.923,25.894,5.645,9.547,8.561
568,0.747,39.141,40.893,42.923,25.901,5.727,9.629,8.52
569,0.747,39.257,40.743,42.942,25.898,5.687,9.711,8.561
570,0.744,39.306,40.822,42.894,25.887,5.687,9.711,8.479
571,0.757,39.005,40.893,42.894,25.88,5.645,9.752,8.397
572,0.78,39.141,40.818,42.933,25.901,5.768,9.999,8.479
573,0.767,39.267,40.845,42.933,25.901,5.768,10.163,8.561
574,0.757,39.325,40.731,42.933,25.894,5.687,10.245,8.438
575,0.764,39.005,40.865,42.923,25.901,5.768,10.409,8.479
576,0.764,39.141,40.703,42.933,25.891,5.727,10.45,8.438
577,0.754,39.238,40.861,42.923,25.887,5.687,10.409,8.438
578,0.751,39.286,40.743,42.923,25.891,5.687,10.574,8.479
579,0.744,39.034,40.948,42.923,25.898,5.851,10.615,8.479
580,0.751,39.189,40.652,42.962,25.908,5.892,10.697,8.561
581,0.747,39.277,40.849,42.923,25.894,5.687,10.656,8.479
582,0.757,39.306,40.735,42.933,25.898,5.645,10.491,8.356
583,0.747,38.976,40.881,42.933,25.901,5.768,10.656,8.52
584,0.764,39.131,40.92,42.923,25.891,5.727,10.574,8.561
585,0.774,39.218,40.77,42.923,25.894,5.727,10.491,8.52
586,0.774,39.286,40.79,42.952,25.898,5.727,10.574,8.602
587,0.764,38.909,40.66,42.923,25.891,5.727,10.491,8.602
588,0.761,39.015,40.834,42.923,25.894,5.645,10.327,8.479
589,0.764,39.083,40.727,42.923,25.891,5.645,10.45,8.602
590,0.774,39.325,40.944,42.942,25.901,5.687,10.45,8.684
591,0.8,38.928,40.715,42.971,25.908,5.851,10.491,8.808
592,0.787,39.034,40.861,42.942,25.891,5.727,10.368,8.602
593,0.79,39.112,40.668,42.923,25.887,5.645,10.245,8.561
594,0.774,38.812,40.893,42.933,25.894,5.727,10.245,8.684
595,0.77,38.841,40.778,42.913,25.894,5.687,10.245,8.644
596,0.767,38.976,40.94,42.942,25.894,5.645,10.245,8.726
597,0.784,39.063,40.794,42.923,25.898,5.727,10.204,8.767
598,0.777,38.599,40.873,42.933,25.891,5.604,10.204,8.767
599,0.764,38.725,40.849,42.923,25.887,5.563,10.04,8.767
600,0.741,38.841,40.735,42.904,25.887,5.563,10.122,8.808
601,0.747,38.938,40.932,42.933,25.901,5.727,10.204,8.931
602,0.761,38.647,40.794,42.962,25.912,5.727,10.368,8.972
603,0.744,38.773,40.853,42.942,25.898,5.563,10.245,8.849
604,0.738,38.87,40.731,42.913,25.887,5.44,10.163,8.808
605,0.734,38.938,40.818,42.962,25.901,5.563,10.368,8.931
606,0.738,38.57,40.893,42.942,25.894,5.645,10.368,8.89
607,0.754,38.715,40.818,42.923,25.894,5.563,10.327,8.808
608,0.757,38.831,40.956,42.952,25.898,5.645,10.409,8.89
609,0.761,38.86,40.77,42.942,25.894,5.563,10.409,8.808
610,0.744,38.415,40.849,42.952,25.894,5.522,10.327,8.684
611,0.751,38.531,40.696,42.923,25.887,5.481,10.368,8.808
612,0.761,38.676,40.853,42.933,25.898,5.563,10.409,8.89
613,0.79,38.705,40.936,42.962,25.905,5.687,10.45,8.972
614,0.787,38.463,40.81,42.933,25.894,5.563,10.245,8.767
615,0.787,38.608,40.849,42.942,25.901,5.604,10.245,8.767
616,0.774,38.676,40.676,42.933,25.894,5.563,10.163,8.89
617,0.764,38.695,40.818,42.923,25.891,5.522,10.04,8.849
618,0.78,38.415,40.703,42.952,25.894,5.604,10.04,8.931
619,0.774,38.57,40.861,42.962,25.894,5.687,10.04,8.931
620,0.777,38.647,40.774,42.952,25.894,5.645,9.916,8.808
621,0.751,38.221,40.822,42.923,25.891,5.522,9.752,8.767
622,0.744,38.279,40.707,42.913,25.887,5.522,9.67,8.726
623,0.747,38.453,40.869,42.942,25.894,5.645,9.752,8.972
624,0.751,38.511,40.735,42.971,25.908,5.768,9.752,9.054
625,0.744,38.182,40.908,42.933,25.891,5.645,9.547,8.89
626,0.761,38.337,40.932,42.962,25.901,5.687,9.588,8.931
627,0.747,38.434,40.916,42.942,25.898,5.604,9.424,8.931
628,0.744,38.482,40.885,42.933,25.891,5.522,9.342,8.849
629,0.744,38.037,40.818,42.952,25.891,5.604,9.301,8.931
630,0.744,38.192,40.904,42.962,25.891,5.687,9.382,8.972
631,0.741,38.308,40.822,42.933,25.894,5.604,9.218,8.89
632,0.741,38.356,40.932,42.933,25.891,5.522,9.177,8.808
633,0.757,37.998,40.731,42.913,25.88,5.522,9.054,8.767
634,0.777,38.163,40.885,42.942,25.891,5.645,9.218,8.808
635,0.777,38.279,40.711,42.971,25.898,5.81,9.259,8.972
636,0.761,38.298,40.893,42.952,25.887,5.604,9.054,8.767
637,0.751,38.085,40.739,42.962,25.901,5.645,9.013,8.808
638,0.741,38.211,40.877,42.933,25.891,5.604,9.013,8.89
639,0.731,38.308,40.782,42.923,25.887,5.563,8.972,8.808
640,0.738,38.356,40.802,42.952,25.891,5.645,8.972,8.849
641,0.734,37.94,40.885,42.952,25.901,5.687,9.054,8.931
642,0.744,38.066,40.857,42.971,25.901,5.687,9.013,8.89
643,0.734,38.143,40.964,42.933,25.887,5.604,8.972,8.849
644,0.741,38.037,40.786,42.904,25.88,5.563,8.849,8.849
645,0.751,37.872,40.841,42.971,25.898,5.604,9.013,8.931
646,0.757,37.998,40.684,42.971,25.905,5.727,9.095,8.972
647,0.747,38.095,40.774,42.942,25.884,5.563,8.89,8.808
648,0.744,37.756,40.723,42.952,25.901,5.563,8.972,8.89
649,0.744,37.824,40.81,42.962,25.898,5.645,9.013,8.931
650,0.741,37.94,40.912,42.933,25.887,5.522,8.931,8.849
651,0.741,38.037,40.826,42.942,25.894,5.604,8.931,8.849
652,0.738,37.659,40.897,42.971,25.901,5.687,9.013,8.808
653,0.751,37.814,40.77,42.971,25.894,5.645,9.013,8.808
654,0.741,37.892,40.901,42.933,25.887,5.563,9.013,8.808
655,0.734,37.93,40.802,42.923,25.88,5.522,8.89,8.726
656,0.744,37.64,40.96,42.962,25.894,5.563,9.054,8.89
657,0.738,37.775,40.774,42.962,25.905,5.604,9.054,8.972
658,0.731,37.872,40.881,42.942,25.891,5.522,8.972,8.808
659,0.724,37.998,40.715,43.01,25.898,5.604,9.013,8.89
660,0.724,37.63,40.826,42.962,25.898,5.563,9.095,8.89
661,0.724,37.775,40.908,42.923,25.887,5.522,9.013,8.767
662,0.718,37.882,40.857,42.952,25.894,5.563,9.054,8.849
663,0.711,37.95,40.818,42.981,25.887,5.645,9.095,8.931
664,0.724,37.698,40.77,42.981,25.901,5.645,9.095,8.89
665,0.721,37.795,40.881,42.962,25.887,5.522,9.013,8.808
666,0.705,37.882,40.711,42.933,25.88,5.44,8.931,8.767
667,0.708,37.901,40.885,42.962,25.894,5.687,8.972,8.931
668,0.708,37.601,40.696,42.962,25.901,5.604,9.095,8.89
669,0.731,37.707,40.924,42.952,25.894,5.645,8.89,8.89
670,0.744,37.833,40.692,42.971,25.898,5.687,9.013,8.972
671,0.734,37.698,40.841,42.952,25.901,5.727,8.931,8.849
672,0.731,37.591,40.743,42.923,25.884,5.645,8.808,8.808
673,0.728,37.698,40.881,42.942,25.884,5.687,8.89,8.808
674,0.747,37.804,40.763,42.971,25.905,5.727,8.931,8.849
675,0.741,37.514,40.849,43.0,25.908,5.851,8.972,8.972
676,0.724,37.601,40.826,42.971,25.891,5.687,8.808,8.767
677,0.734,37.737,40.699,42.962,25.891,5.727,8.726,8.767
678,0.734,37.814,40.869,42.942,25.901,5.727,8.767,8.808
679,0.728,37.272,40.743,42.933,25.891,5.687,8.644,8.808
680,0.731,37.446,40.94,42.962,25.891,5.727,8.684,8.89
681,0.724,37.562,40.707,42.981,25.898,5.768,8.849,8.89
682,0.734,37.659,40.893,42.971,25.901,5.81,8.726,8.808
683,0.715,37.485,40.707,42.952,25.884,5.768,8.726,8.767
684,0.708,37.611,40.865,42.942,25.884,5.645,8.726,8.726
685,0.708,37.766,40.944,42.971,25.905,5.81,8.931,8.849
686,0.711,37.824,40.869,42.981,25.901,5.892,9.095,8.931
687,0.721,37.339,40.964,42.962,25.894,5.727,9.095,8.767
688,0.721,37.504,40.802,42.981,25.894,5.851,9.095,8.808
689,0.721,37.611,40.877,43.0,25.894,5.81,9.177,8.808
690,0.705,37.62,40.755,42.962,25.887,5.727,9.136,8.684
691,0.705,37.427,40.924,42.962,25.894,5.768,9.177,8.767
692,0.705,37.562,40.763,42.991,25.898,5.81,9.301,8.808
693,0.738,37.707,40.861,42.991,25.901,5.768,9.259,8.726
694,0.738,37.669,40.692,42.971,25.898,5.727,9.136,8.644
695,0.728,37.165,40.853,42.942,25.887,5.645,9.054,8.684
696,0.701,37.339,40.719,42.991,25.901,5.727,9.259,8.767
697,0.705,37.436,40.889,42.971,25.905,5.81,9.177,8.767
698,0.701,37.427,40.893,42.971,25.887,5.727,9.054,8.644
699,0.711,37.465,40.869,42.971,25.898,5.81,9.136,8.767
700,0.715,37.582,40.857,42.971,25.898,5.727,9.095,8.726
701,0.711,37.649,40.727,42.952,25.891,5.687,8.972,8.644
702,0.708,37.349,40.881,42.971,25.891,5.727,9.013,8.808
703,0.698,37.465,40.763,43.0,25.901,5.81,9.136,8.849
704,0.701,37.63,40.885,43.0,25.901,5.81,9.054,8.767
705,0.688,37.678,40.881,42.962,25.891,5.687,8.972,8.684
706,0.692,37.155,40.68,42.942,25.884,5.604,8.931,8.644
707,0.698,37.31,40.81,42.991,25.891,5.768,9.054,8.767
708,0.698,37.446,40.739,42.991,25.894,5.81,9.095,8.849
709,0.695,37.494,40.881,42.981,25.891,5.727,8.931,8.726
710,0.715,37.252,40.794,42.981,25.894,5.768,9.095,8.767
711,0.721,37.378,40.853,42.971,25.894,5.727,9.013,8.767
712,0.711,37.485,40.707,42.971,25.887,5.645,8.89,8.684
713,0.728,37.543,40.861,42.981,25.894,5.727,9.013,8.726
714,0.738,37.272,40.735,42.991,25.898,5.727,9.054,8.767
715,0.734,37.407,40.897,43.01,25.898,5.851,9.177,8.767
716,0.708,37.514,40.901,42.971,25.891,5.645,9.095,8.602
717,0.708,37.543,40.889,42.962,25.884,5.604,9.259,8.602
718,0.708,37.223,40.881,43.0,25.898,5.687,9.506,8.684
719,0.698,37.359,40.802,43.058,25.901,5.687,9.752,8.767
720,0.698,37.485,40.889,42.981,25.891,5.604,9.793,8.644
721,0.688,37.485,40.83,42.991,25.894,5.687,9.957,8.684
722,0.695,37.33,40.92,43.0,25.891,5.727,10.081,8.767
723,0.672,37.427,40.699,42.991,25.891,5.563,10.122,8.644
724,0.678,37.523,40.873,43.0,25.887,5.645,10.327,8.684
725,0.682,37.33,40.739,43.01,25.894,5.645,10.409,8.726
726,0.695,37.349,40.881,43.02,25.908,5.81,10.45,8.726
727,0.678,37.427,40.759,42.991,25.887,5.645,10.409,8.644
728,0.682,37.514,40.885,42.981,25.891,5.645,10.45,8.602
729,0.695,37.146,40.948,43.01,25.891,5.645,10.532,8.726
730,0.695,37.272,40.751,43.039,25.891,5.645,10.574,8.684
731,0.701,37.417,40.861,42.991,25.894,5.687,10.574,8.684
732,0.711,37.494,40.755,43.02,25.898,5.645,10.656,8.684
733,0.708,37.126,40.932,42.991,25.894,5.604,10.656,8.602
734,0.685,37.252,40.837,42.991,25.887,5.481,10.45,8.644
735,0.695,37.339,40.786,43.0,25.891,5.481,10.574,8.644
736,0.698,37.465,40.814,43.02,25.894,5.604,10.574,8.726
737,0.705,37.233,40.774,43.058,25.905,5.687,10.574,8.808
738,0.692,37.339,40.881,43.02,25.891,5.522,10.368,8.602
739,0.698,37.436,40.755,42.981,25.887,5.481,10.368,8.602
740,0.695,37.494,40.952,43.0,25.891,5.604,10.368,8.684
741,0.695,37.097,40.66,43.0,25.894,5.522,10.327,8.726
742,0.715,37.252,40.849,43.0,25.894,5.481,10.327,8.684
743,0.708,37.378,40.782,43.01,25.898,5.604,10.327,8.767
744,0.692,37.378,40.889,43.01,25.894,5.563,10.327,8.767
745,0.695,37.194,40.924,42.991,25.887,5.399,10.204,8.644
746,0.692,37.281,40.841,42.991,25.887,5.481,10.327,8.684
747,0.708,37.436,40.944,43.0,25.898,5.563,10.409,8.726
748,0.711,37.727,40.774,43.049,25.908,5.645,10.615,8.808
749,0.705,37.02,40.889,43.02,25.891,5.481,10.491,8.644
750,0.701,37.165,40.723,43.02,25.891,5.44,10.738,8.684
751,0.701,37.243,40.928,43.02,25.894,5.563,11.066,8.767
752,0.701,37.204,40.763,43.02,25.894,5.481,11.149,8.726
753,0.715,37.301,40.806,43.049,25.901,5.44,11.354,8.684
754,0.711,37.407,40.889,43.039,25.898,5.522,11.559,8.767
755,0.715,37.494,40.841,43.01,25.898,5.522,11.641,8.644
756,0.718,36.894,40.916,43.01,25.887,5.358,11.683,8.602
757,0.705,37.01,40.83,42.991,25.887,5.44,11.847,8.644
758,0.701,37.155,40.968,43.02,25.894,5.522,11.888,8.808
759,0.698,37.262,40.857,43.049,25.912,5.604,12.011,8.849
760,0.688,36.991,40.908,43.02,25.891,5.399,11.888,8.644
761,0.708,37.155,40.794,43.02,25.894,5.481,11.806,8.602
762,0.688,37.272,40.979,43.029,25.894,5.522,11.847,8.808
763,0.685,37.32,40.826,43.029,25.891,5.481,11.723,8.726
764,0.678,36.971,40.893,43.029,25.894,5.44,11.6,8.644
765,0.688,37.126,40.692,43.049,25.901,5.522,11.6,8.767
766,0.695,37.233,40.897,43.126,25.894,5.481,11.477,8.767
767,0.685,37.262,40.715,43.01,25.891,5.481,11.354,8.684
768,0.662,37.059,40.857,43.01,25.88,5.358,11.231,8.644
769,0.669,37.223,40.908,43.049,25.898,5.481,11.149,8.684
770,0.711,37.33,40.904,43.049,25.898,5.563,11.149,8.89
771,0.695,37.33,40.92,43.136,25.887,5.399,10.82,8.726
772,0.698,37.02,40.767,43.049,25.901,5.522,10.943,8.726
773,0.688,37.126,40.924,43.039,25.894,5.44,10.82,8.726
774,0.695,37.204,40.778,43.01,25.887,5.317,10.738,8.684
775,0.701,37.456,40.94,43.01,25.894,5.44,10.779,8.767
776,0.711,36.923,40.936,43.049,25.891,5.481,10.861,8.808
777,0.721,37.059,40.857,43.039,25.898,5.44,10.902,8.767
778,0.692,37.136,40.873,43.01,25.891,5.44,10.902,8.726
779,0.685,36.913,40.798,43.02,25.887,5.358,10.902,8.644
780,0.692,36.991,40.932,43.058,25.894,5.44,11.025,8.808
781,0.688,37.117,40.83,43.049,25.905,5.563,11.108,8.931
782,0.688,37.223,40.873,43.029,25.891,5.399,11.025,8.808
783,0.695,36.855,40.711,43.058,25.898,5.481,11.066,8.89
784,0.678,36.991,40.853,43.049,25.898,5.44,10.984,8.849
785,0.672,37.088,40.897,43.049,25.891,5.399,10.82,8.89
786,0.705,37.175,40.822,43.068,25.894,5.44,10.861,8.849
787,0.698,36.681,40.968,43.058,25.898,5.522,10.861,8.931
788,0.701,36.845,40.826,43.068,25.901,5.44,10.738,8.849
789,0.701,36.923,40.916,43.039,25.887,5.399,10.656,8.89
790,0.698,36.971,40.755,43.01,25.88,5.358,10.491,8.849
791,0.698,36.778,40.873,43.049,25.891,5.399,10.574,8.972
792,0.701,36.933,40.897,43.078,25.898,5.44,10.574,9.054
793,0.711,37.01,40.849,43.049,25.894,5.399,10.409,8.767
794,0.711,37.097,40.845,43.068,25.901,5.44,10.327,8.849
795,0.708,36.7,40.652,43.068,25.898,5.44,10.45,8.849
796,0.692,36.826,40.853,43.039,25.887,5.358,10.327,8.849
797,0.692,36.971,40.755,43.068,25.891,5.399,10.368,8.849
798,0.695,36.991,40.901,43.088,25.898,5.481,10.409,8.972
799,0.688,36.71,40.814,43.078,25.898,5.44,10.409,8.89
800,0.685,36.816,40.885,43.058,25.887,5.399,10.368,8.808
801,0.678,36.913,40.901,43.039,25.887,5.358,10.286,8.767
802,0.701,37.039,40.869,43.068,25.905,5.522,10.409,8.931
803,0.695,36.787,40.96,43.097,25.901,5.563,10.491,9.095
804,0.695,36.894,40.904,43.058,25.891,5.358,10.409,8.89
805,0.705,36.981,40.92,43.088,25.887,5.44,10.368,8.972
806,0.701,36.545,40.853,43.058,25.894,5.44,10.327,8.931
807,0.688,36.584,40.912,43.058,25.894,5.358,10.327,8.849
808,0.685,36.749,40.703,43.088,25.891,5.44,10.286,8.931
809,0.685,36.845,40.908,43.117,25.894,5.481,10.491,8.931
810,0.695,36.623,40.763,43.078,25.891,5.481,10.45,8.972
811,0.688,36.749,40.928,43.058,25.894,5.358,10.327,8.931
812,0.685,36.845,40.668,43.058,25.887,5.358,10.491,8.808
813,0.715,36.933,40.873,43.088,25.894,5.44,10.574,8.931
814,0.724,36.448,40.897,43.097,25.901,5.522,10.779,9.054
815,0.711,36.574,40.849,43.068,25.891,5.399,10.656,8.931
816,0.715,36.72,40.972,43.078,25.898,5.44,10.779,8.931
817,0.711,36.768,40.885,43.097,25.898,5.563,10.902,8.931
818,0.698,36.497,40.972,43.058,25.891,5.399,10.902,8.849
819,0.708,36.652,40.747,43.078,25.891,5.481,10.984,8.89
820,0.705,36.807,40.916,43.088,25.894,5.522,11.066,9.054
821,0.708,36.826,40.763,43.097,25.891,5.44,11.108,8.89
822,0.698,36.39,40.944,43.058,25.891,5.399,11.025,8.849
823,0.705,36.516,40.952,43.068,25.88,5.44,10.984,8.89
824,0.695,36.661,40.841,43.097,25.894,5.563,10.984,8.972
825,0.701,36.739,40.928,43.136,25.901,5.604,11.066,9.013
826,0.692,36.545,40.802,43.068,25.891,5.563,10.943,8.89
827,0.698,36.7,40.912,43.107,25.901,5.563,10.861,9.013
828,0.685,36.778,40.759,43.078,25.894,5.563,10.82,9.013
829,0.692,36.632,40.964,43.068,25.891,5.481,10.82,8.89
830,0.692,36.361,40.77,43.097,25.891,5.645,10.861,8.972
831,0.692,36.506,40.924,43.107,25.898,5.645,10.943,9.054
832,0.698,36.603,40.782,43.117,25.894,5.645,10.943,8.972
833,0.685,36.303,40.936,43.078,25.891,5.563,10.984,8.89
834,0.695,36.39,40.916,43.058,25.884,5.481,11.066,8.808
835,0.715,36.535,40.885,43.097,25.898,5.687,11.272,8.89
836,0.711,36.613,40.944,43.088,25.894,5.727,11.272,8.972
837,0.715,36.196,40.767,43.088,25.891,5.687,11.231,8.808
838,0.715,36.39,40.885,43.146,25.891,5.768,11.354,8.89
839,0.721,36.477,40.806,43.117,25.894,5.727,11.313,8.89
840,0.721,36.555,40.936,43.078,25.887,5.727,11.231,8.849
841,0.715,36.216,40.794,43.107,25.894,5.81,11.313,8.89
842,0.692,36.381,40.849,43.117,25.898,5.974,11.354,8.931
843,0.692,36.526,40.774,43.136,25.894,5.933,11.272,8.972
844,0.701,36.535,40.853,43.088,25.891,5.892,11.149,8.89
845,0.698,36.322,40.916,43.088,25.88,5.81,11.108,8.808
846,0.695,36.458,40.912,43.117,25.894,6.015,11.231,8.931
847,0.682,36.594,40.987,43.126,25.905,6.097,11.231,8.972
848,0.688,36.623,40.897,43.107,25.887,6.015,11.231,8.849
849,0.705,36.042,40.924,43.117,25.891,6.097,11.231,8.89
850,0.708,36.187,40.77,43.117,25.901,6.056,11.231,8.89
851,0.688,36.284,40.92,43.097,25.887,5.974,11.189,8.808
852,0.695,36.293,40.818,43.097,25.901,6.097,11.149,8.89
853,0.711,36.206,40.92,43.117,25.901,6.179,11.149,8.931
854,0.721,36.342,40.711,43.146,25.894,6.179,11.189,8.849
855,0.711,36.419,40.904,43.117,25.891,6.097,11.025,8.849
856,0.705,36.226,40.865,43.117,25.88,5.974,10.861,8.767
857,0.695,36.061,40.865,43.136,25.898,6.138,10.943,8.849
858,0.692,36.177,40.743,43.117,25.901,6.138,10.943,8.931
859,0.692,36.284,40.96,43.107,25.894,6.056,10.656,8.808
860,0.692,36.022,40.81,43.136,25.894,6.138,10.82,8.849
861,0.688,36.1,40.865,43.126,25.898,6.097,10.82,8.849
862,0.682,36.226,40.897,43.107,25.884,6.015,10.738,8.726
863,0.688,36.322,40.818,43.136,25.898,6.056,10.779,8.767
864,0.688,36.381,40.96,43.126,25.894,6.138,10.902,8.931
865,0.711,36.555,40.806,43.136,25.898,6.138,10.943,8.849
866,0.695,36.632,40.897,43.117,25.891,5.974,10.738,8.849
867,0.688,36.69,40.751,43.097,25.887,5.974,10.779,8.767
868,0.682,35.606,40.881,43.165,25.901,6.097,10.943,8.89
869,0.688,35.732,40.924,43.126,25.894,6.097,10.943,8.972
870,0.692,35.838,40.889,43.117,25.887,6.015,10.82,8.849
871,0.721,35.916,40.972,43.136,25.901,6.056,10.861,8.931
872,0.708,35.887,40.881,43.194,25.887,6.015,10.82,8.931
873,0.728,35.993,40.912,43.117,25.887,5.851,10.697,8.808
874,0.718,36.119,40.814,43.136,25.894,5.974,10.779,8.849
875,0.718,36.187,40.979,43.146,25.894,6.015,10.82,8.931
876,0.711,35.751,40.826,43.165,25.901,6.097,10.902,8.931
877,0.688,35.857,40.972,43.117,25.894,5.933,10.738,8.849
878,0.695,35.945,40.885,43.107,25.887,5.81,10.574,8.808
879,0.692,36.012,40.885,43.146,25.894,5.974,10.615,8.931
880,0.715,35.838,40.936,43.155,25.898,5.892,10.697,8.931
881,0.731,35.974,40.897,43.146,25.891,5.892,10.491,8.89
882,0.715,36.071,40.995,43.155,25.891,5.974,10.574,8.931
883,0.695,35.935,40.79,43.155,25.891,5.974,10.491,8.931
884,0.692,35.857,40.952,43.126,25.884,5.974,10.286,8.808
885,0.698,35.983,40.81,43.126,25.891,5.974,10.245,8.89
886,0.688,36.09,40.912,43.155,25.901,6.015,10.245,8.89
887,0.688,35.567,40.865,43.175,25.905,6.138,10.204,8.89
888,0.692,35.615,40.968,43.146,25.891,6.015,10.081,8.808
889,0.708,35.741,40.857,43.146,25.887,6.056,9.916,8.849
890,0.701,35.828,40.857,43.165,25.894,6.138,9.957,8.849
891,0.695,35.625,40.901,43.155,25.887,6.179,9.916,8.931
892,0.701,35.78,40.889,43.146,25.891,6.179,9.916,8.849
893,0.711,35.906,40.987,43.155,25.894,6.262,10.081,8.89
894,0.701,35.954,40.897,43.136,25.887,6.302,10.04,8.849
895,0.698,35.46,40.897,43.126,25.891,6.179,9.999,8.684
896,0.685,35.596,40.794,43.136,25.884,6.262,10.245,8.808
897,0.695,35.761,40.818,43.165,25.901,6.385,10.45,8.849
898,0.718,35.838,40.814,43.184,25.912,6.467,10.615,8.972
899,0.705,35.615,40.912,43.136,25.887,6.22,10.491,8.808
900,0.695,35.741,40.865,43.136,25.887,6.302,10.615,8.767
901,0.708,35.857,40.944,43.175,25.898,6.302,10.656,8.89
902,0.708,35.896,40.83,43.146,25.887,6.302,10.697,8.849
903,0.701,35.577,40.956,43.165,25.891,6.343,10.697,8.849
904,0.705,35.722,40.853,43.184,25.898,6.385,10.861,8.89
905,0.688,35.809,40.987,43.165,25.894,6.302,10.779,8.808
906,0.678,35.809,40.841,43.136,25.891,6.262,10.615,8.767
907,0.698,35.46,40.968,43.165,25.891,6.262,10.779,8.89
908,0.695,35.606,40.778,43.175,25.898,6.302,10.656,8.849
909,0.721,35.761,40.94,43.194,25.905,6.343,10.738,8.89
910,0.711,35.538,40.774,43.155,25.891,6.22,10.615,8.767
911,0.711,35.489,40.975,43.146,25.88,6.138,10.738,8.684
912,0.718,35.635,40.767,43.194,25.891,6.22,10.779,8.89
913,0.728,35.741,40.908,43.204,25.901,6.262,10.82,8.89
914,0.721,35.257,40.77,43.155,25.891,6.138,10.779,8.767
915,0.711,35.383,40.873,43.175,25.898,6.138,10.861,8.808
916,0.695,35.499,40.802,43.175,25.891,6.138,10.861,8.808
917,0.692,35.557,40.924,43.146,25.887,6.056,10.861,8.767
918,0.698,35.402,40.983,43.165,25.887,6.097,10.984,8.808
919,0.708,35.548,40.865,43.184,25.901,6.138,11.108,8.849
920,0.705,35.702,40.952,43.204,25.898,6.22,11.149,8.89
921,0.678,35.741,40.798,43.165,25.887,5.974,11.108,8.808
922,0.698,35.518,40.952,43.175,25.887,6.056,11.108,8.767
923,0.698,35.664,40.822,43.165,25.894,6.097,11.231,8.849
924,0.708,35.78,40.897,43.175,25.891,5.974,11.313,8.849
925,0.705,35.828,40.703,43.194,25.894,6.015,11.395,8.808
926,0.701,35.199,40.869,43.194,25.898,6.097,11.518,8.849
927,0.701,35.325,40.932,43.175,25.894,5.933,11.559,8.808
928,0.685,35.412,40.83,43.165,25.891,5.892,11.559,8.684
929,0.688,35.46,40.952,43.184,25.891,5.892,11.764,8.767
930,0.711,35.247,40.893,43.194,25.901,6.015,11.806,8.767
931,0.715,35.412,40.968,43.223,25.901,6.138,12.011,8.89
932,0.701,35.489,40.861,43.175,25.891,5.974,11.888,8.602
933,0.708,35.489,40.964,43.155,25.894,5.974,11.929,8.602
934,0.698,35.228,40.901,43.204,25.894,6.056,12.093,8.684
935,0.698,35.373,41.007,43.165,25.898,6.056,12.093,8.644
936,0.695,35.46,40.834,43.175,25.894,6.056,12.052,8.684
937,0.708,35.257,40.936,43.213,25.898,6.056,12.052,8.767
938,0.695,35.257,40.747,43.194,25.891,6.056,12.011,8.767
939,0.675,35.373,40.964,43.175,25.891,5.974,11.806,8.726
940,0.675,35.46,40.837,43.175,25.891,6.056,11.764,8.767
941,0.692,35.141,41.003,43.194,25.894,6.097,11.806,8.808
942,0.721,35.296,40.727,43.223,25.901,6.097,11.723,8.849
943,0.705,35.402,40.916,43.194,25.891,5.974,11.6,8.89
944,0.711,35.46,40.853,43.165,25.88,5.933,11.395,8.767
945,0.711,35.005,40.92,43.184,25.894,6.056,11.436,8.849
946,0.715,35.179,41.023,43.213,25.908,6.056,11.436,8.972
947,0.715,35.276,40.924,43.184,25.891,5.974,11.231,8.849
948,0.738,35.364,41.054,43.204,25.898,6.056,11.149,8.931
949,0.751,34.986,40.778,43.204,25.887,6.056,11.108,8.89
950,0.754,35.141,40.928,43.204,25.887,5.933,10.902,8.89
951,0.744,35.247,40.802,43.204,25.887,5.974,10.943,8.89
952,0.754,35.315,41.007,43.213,25.894,5.974,10.943,8.931
953,0.764,34.889,40.778,43.213,25.894,5.974,10.82,8.849
954,0.751,35.034,40.889,43.194,25.887,5.933,10.656,8.849
955,0.747,35.15,40.759,43.175,25.887,5.892,10.615,8.808
956,0.764,35.238,40.904,43.213,25.894,5.974,10.615,8.89
957,0.767,35.092,40.944,43.233,25.908,6.056,10.697,9.054
958,0.754,35.209,40.861,43.194,25.887,5.851,10.45,8.849
959,0.77,35.334,41.007,43.204,25.891,5.81,10.409,8.849
960,0.774,35.606,40.715,43.204,25.891,5.851,10.368,8.849
961,0.774,35.015,40.92,43.204,25.894,5.768,10.409,8.931
962,0.8,35.179,40.79,43.213,25.898,5.851,10.409,8.89
963,0.82,35.267,40.968,43.233,25.898,5.851,10.491,9.013
964,0.813,34.966,40.92,43.213,25.891,5.851,10.491,8.89
965,0.8,34.986,40.893,43.194,25.887,5.727,10.532,8.849
966,0.8,35.083,40.885,43.194,25.887,5.81,10.574,8.931
967,0.813,35.238,40.77,43.213,25.894,5.81,10.82,8.931
968,0.816,34.889,40.936,43.242,25.905,5.974,10.902,9.013
969,0.8,34.995,40.739,43.213,25.894,5.727,10.82,8.89
970,0.816,35.121,40.944,43.204,25.887,5.645,10.902,8.931
971,0.83,35.199,40.778,43.213,25.898,5.768,10.984,8.972
972,0.839,34.773,40.912,43.213,25.894,5.687,10.943,8.931
973,0.846,34.928,40.798,43.213,25.894,5.727,10.902,8.972
974,0.843,35.054,40.912,43.233,25.898,5.727,10.984,8.972
975,0.833,35.131,40.983,43.213,25.898,5.727,10.984,8.972
976,0.843,34.85,40.897,43.175,25.887,5.687,10.82,8.849
977,0.859,34.986,41.007,43.194,25.884,5.645,10.902,8.89
978,0.879,35.121,40.841,43.233,25.898,5.727,10.943,9.095
979,0.885,35.238,40.853,43.281,25.905,5.851,11.025,9.136
980,0.866,34.792,40.731,43.204,25.894,5.604,10.738,8.972
981,0.856,34.928,40.936,43.223,25.887,5.604,10.779,8.972
982,0.856,35.063,40.924,43.233,25.891,5.687,10.697,9.054
983,0.839,35.083,40.849,43.233,25.887,5.563,10.615,9.095
984,0.843,34.831,40.956,43.252,25.894,5.645,10.574,9.136
985,0.836,35.005,40.818,43.252,25.898,5.645,10.574,9.218
986,0.83,35.083,40.968,43.223,25.891,5.563,10.45,9.136
987,0.807,35.305,40.845,43.223,25.891,5.563,10.368,9.054
988,0.803,34.695,40.948,43.194,25.88,5.522,10.368,9.013
989,0.797,34.85,40.881,43.242,25.894,5.687,10.491,9.136
990,0.816,34.986,40.897,43.281,25.901,5.727,10.656,9.259
991,0.807,34.734,40.81,43.233,25.887,5.563,10.45,9.136
992,0.8,34.821,40.975,43.252,25.894,5.604,10.574,9.095
993,0.793,34.947,40.826,43.233,25.901,5.645,10.574,9.136
994,0.787,35.005,40.944,43.204,25.891,5.522,10.532,9.095
995,0.777,34.56,40.96,43.233,25.884,5.645,10.615,9.177
996,0.764,34.715,40.798,43.242,25.894,5.645,10.656,9.259
997,0.764,34.85,40.912,43.262,25.891,5.604,10.615,9.218
998,0.741,34.908,40.822,43.204,25.891,5.522,10.532,9.218
999,0.741,34.589,40.956,43.213,25.877,5.481,10.45,9.054
1000,0.741,34.753,40.889,43.242,25.898,5.563,10.491,9.259
1001,0.744,34.899,40.944,43.271,25.898,5.687,10.656,9.301
1002,0.731,34.947,40.778,43.223,25.894,5.645,10.574,9.177
1003,0.721,34.637,40.944,43.252,25.891,5.563,10.615,9.218
1004,0.731,34.782,40.983,43.252,25.891,5.687,10.779,9.259
1005,0.728,34.889,40.924,43.242,25.894,5.563,10.82,9.136
1006,0.744,34.947,41.039,43.252,25.891,5.604,10.943,9.095
1007,0.751,34.618,40.881,43.242,25.894,5.604,11.066,9.177
1008,0.754,34.773,40.948,43.252,25.898,5.563,11.231,9.095
1009,0.747,34.87,40.806,43.233,25.891,5.522,11.189,8.972
1010,0.731,34.889,40.952,43.233,25.884,5.522,11.231,9.054
1011,0.734,34.54,40.865,43.252,25.891,5.645,11.313,9.054
1012,0.747,34.705,40.956,43.291,25.898,5.768,11.477,9.095
1013,0.741,34.773,40.806,43.252,25.891,5.522,11.231,8.931
1014,0.734,34.899,40.928,43.252,25.894,5.522,11.231,8.849
1015,0.721,34.637,40.849,43.262,25.891,5.604,11.231,8.972
1016,0.724,34.773,40.952,43.223,25.891,5.604,11.149,8.849
1017,0.721,34.889,40.995,43.271,25.898,5.522,11.149,8.89
1018,0.724,34.521,40.952,43.252,25.901,5.645,11.066,8.931
1019,0.715,34.589,40.972,43.242,25.891,5.645,10.984,8.808
1020,0.708,34.715,40.865,43.233,25.898,5.563,10.902,8.808
1021,0.688,34.802,40.952,43.223,25.891,5.604,10.82,8.808
1022,0.708,34.424,40.861,43.252,25.894,5.645,10.779,8.849
1023,0.701,34.618,41.003,43.3,25.912,5.81,10.861,9.013
1024,0.688,34.695,40.841,43.262,25.894,5.687,10.615,8.726
1025,0.669,34.811,40.873,43.349,25.894,5.645,10.656,8.726
1026,0.695,34.453,40.928,43.271,25.898,5.645,10.574,8.726
1027,0.682,34.608,40.786,43.252,25.891,5.645,10.532,8.767
1028,0.698,34.734,40.944,43.271,25.898,5.687,10.532,8.684
1029,0.685,34.802,40.877,43.281,25.891,5.687,10.574,8.726
1030,0.675,34.405,40.96,43.281,25.901,5.727,10.45,8.767
1031,0.655,34.56,40.778,43.252,25.884,5.645,10.327,8.644
1032,0.669,34.656,40.904,43.242,25.884,5.522,10.286,8.684
1033,0.678,34.744,40.806,43.271,25.894,5.727,10.45,8.726
1034,0.678,34.337,40.975,43.291,25.905,5.81,10.491,8.849
1035,0.669,34.472,40.975,43.281,25.891,5.727,10.532,8.726
1036,0.672,34.598,40.881,43.291,25.901,5.687,10.738,8.767
1037,0.672,34.637,40.92,43.291,25.898,5.727,11.108,8.808
1038,0.675,34.482,40.798,43.3,25.887,5.563,11.436,8.726
1039,0.665,34.656,40.948,43.271,25.887,5.645,11.764,8.767
1040,0.672,34.763,40.837,43.281,25.898,5.687,12.257,8.808
1041,0.672,34.666,40.968,43.271,25.894,5.687,12.381,8.767
1042,0.665,34.366,40.759,43.3,25.887,5.522,12.545,8.767
1043,0.639,34.492,40.916,43.271,25.884,5.563,12.668,8.726
1044,0.659,34.618,40.96,43.3,25.901,5.645,12.873,8.849
1045,0.659,34.337,40.928,43.32,25.908,5.81,13.038,8.931
1046,0.655,34.414,41.046,43.271,25.891,5.604,12.956,8.684
1047,0.655,34.54,40.901,43.281,25.891,5.645,12.996,8.684
1048,0.662,34.647,41.031,43.281,25.891,5.563,12.915,8.767
1049,0.655,34.259,40.739,43.291,25.894,5.604,12.832,8.767
1050,0.655,34.424,40.972,43.291,25.894,5.604,12.873,8.726
1051,0.665,34.55,40.845,43.291,25.905,5.645,12.791,8.767
1052,0.675,34.637,41.023,43.291,25.898,5.687,12.709,8.767
1053,0.659,34.279,40.723,43.271,25.887,5.563,12.545,8.644
1054,0.655,34.434,40.897,43.271,25.88,5.563,12.463,8.684
1055,0.675,34.589,40.924,43.3,25.898,5.687,12.463,8.808
1056,0.672,34.656,40.912,43.32,25.898,5.727,12.381,8.89
1057,0.669,34.24,40.972,43.291,25.887,5.645,12.257,8.808
1058,0.685,34.405,40.873,43.3,25.898,5.645,12.093,8.849
1059,0.665,34.511,41.015,43.291,25.894,5.645,11.97,8.931
1060,0.652,34.55,40.739,43.281,25.891,5.563,11.97,8.808
1061,0.662,34.288,40.952,43.281,25.891,5.604,11.888,8.972
1062,0.672,34.463,40.81,43.31,25.898,5.645,11.888,9.054
1063,0.678,34.589,41.007,43.33,25.905,5.687,11.888,9.095
1064,0.662,34.569,40.873,43.291,25.894,5.604,11.6,8.972
1065,0.652,34.269,40.889,43.271,25.887,5.522,11.436,8.931
1066,0.655,34.414,40.873,43.3,25.901,5.687,11.518,9.095
1067,0.646,34.53,40.861,43.32,25.894,5.687,11.436,9.136
1068,0.649,34.443,40.964,43.291,25.891,5.645,11.313,9.054
1069,0.655,34.337,40.873,43.32,25.891,5.81,11.231,9.177
1070,0.659,34.443,41.027,43.3,25.891,5.687,11.149,9.259
1071,0.649,34.55,40.818,43.31,25.88,5.563,11.025,9.095
1072,0.642,34.075,40.96,43.291,25.891,5.727,10.984,9.177
1073,0.649,34.172,40.786,43.3,25.898,5.727,10.984,9.136
1074,0.655,34.327,40.995,43.33,25.905,5.727,10.943,9.218
1075,0.646,34.385,40.857,43.281,25.891,5.645,10.697,9.095
1076,0.619,34.143,40.956,43.3,25.887,5.604,10.574,8.972
1077,0.642,34.317,40.987,43.33,25.894,5.645,10.738,9.177
1078,0.662,34.414,40.901,43.32,25.898,5.687,10.656,9.177
1079,0.669,34.521,40.936,43.3,25.891,5.727,10.491,9.054
1080,0.655,34.114,40.849,43.32,25.898,5.727,10.574,9.177
1081,0.652,34.269,41.027,43.3,25.887,5.687,10.409,9.095
1082,0.655,34.366,40.806,43.281,25.887,5.645,10.368,9.013
1083,0.655,34.434,40.983,43.368,25.891,5.687,10.327,9.136
1084,0.649,34.172,40.794,43.31,25.894,5.687,10.286,9.136
1085,0.646,34.376,40.952,43.359,25.901,5.851,10.368,9.136
1086,0.623,34.434,40.881,43.3,25.891,5.687,10.122,8.931
1087,0.632,34.472,40.968,43.31,25.887,5.645,10.081,9.013
1088,0.626,34.104,40.999,43.31,25.891,5.687,10.122,9.013
1089,0.629,34.221,40.881,43.31,25.894,5.645,10.081,9.013
1090,0.642,34.356,40.952,43.33,25.898,5.645,9.916,9.013
1091,0.655,34.395,40.901,43.339,25.898,5.727,9.916,8.972
1092,0.685,34.056,40.983,43.31,25.891,5.727,9.876,8.931
1093,0.715,34.192,40.873,43.31,25.887,5.645,9.793,8.849
1094,0.741,34.279,40.901,43.31,25.891,5.645,9.752,8.849
1095,0.787,34.23,40.806,43.349,25.898,5.768,9.834,8.931
1096,0.833,34.162,40.979,43.359,25.901,5.851,9.834,9.095
1097,0.905,34.259,40.857,43.32,25.884,5.727,9.629,8.849
1098,0.971,34.366,41.011,43.31,25.898,5.645,9.629,8.808
1099,1.014,34.008,40.841,43.31,25.898,5.687,9.752,8.89
1100,1.079,34.114,40.964,43.31,25.887,5.687,9.752,8.849
1101,1.132,34.259,40.92,43.32,25.894,5.687,9.916,8.767
1102,1.181,34.376,40.904,43.31,25.901,5.768,9.957,8.849
1103,1.247,34.017,40.853,43.339,25.891,5.768,9.999,8.849
1104,1.365,34.133,40.952,43.33,25.887,5.645,9.999,8.726
1105,1.474,34.269,40.964,43.32,25.894,5.645,10.163,8.849
1106,1.589,34.366,40.901,43.339,25.898,5.727,10.327,8.89
1107,1.687,34.066,40.94,43.349,25.905,5.768,10.45,8.972
1108,1.736,34.153,40.782,43.349,25.887,5.604,10.45,8.89
1109,1.855,34.279,40.964,43.32,25.887,5.604,10.45,8.849
1110,1.96,34.356,40.869,43.349,25.898,5.727,10.656,9.095
1111,2.042,33.94,40.991,43.339,25.894,5.687,10.697,9.259
1112,2.124,34.114,40.755,43.378,25.894,5.604,10.738,9.259
1113,2.183,34.221,40.944,43.33,25.901,5.645,10.779,9.259
1114,2.265,34.25,40.806,43.33,25.898,5.604,10.697,9.382
1115,2.344,33.94,40.944,43.32,25.891,5.604,10.656,9.382
1116,2.361,34.066,41.011,43.33,25.898,5.604,10.697,9.465
1117,2.393,34.211,40.975,43.33,25.901,5.687,10.779,9.588
1118,2.476,34.259,41.031,43.388,25.905,5.851,10.82,9.67
1119,2.499,33.94,40.834,43.33,25.891,5.687,10.697,9.547
1120,2.436,34.114,40.979,43.33,25.891,5.645,10.82,9.506
1121,2.42,34.211,40.869,43.33,25.894,5.727,10.984,9.588
1122,2.41,34.008,41.031,43.32,25.898,5.81,11.025,9.711
1123,2.371,33.959,40.774,43.349,25.891,5.81,11.149,9.711
1124,2.331,34.114,40.936,43.446,25.898,5.81,11.313,9.752
1125,2.262,34.221,40.802,43.349,25.898,5.768,11.477,9.793
1126,2.213,33.823,40.916,43.31,25.891,5.768,11.518,9.834
1127,2.167,33.94,40.794,43.32,25.894,5.768,11.6,10.204
1128,2.055,34.104,40.956,43.359,25.901,5.892,11.806,10.491
1129,1.897,34.201,40.857,43.368,25.912,5.974,11.929,11.108
1130,1.746,33.862,40.916,43.339,25.894,5.768,11.764,11.354
1131,1.615,34.037,40.873,43.359,25.891,5.851,11.806,11.806
1132,1.47,34.153,40.92,43.339,25.898,5.81,11.888,12.298
1133,1.303,34.201,41.019,43.32,25.887,5.727,11.764,12.791
1134,1.135,33.804,40.924,43.33,25.898,5.81,11.847,13.284
1135,0.974,33.969,40.932,43.359,25.898,5.892,11.764,13.695
1136,0.793,34.085,40.837,43.349,25.891,5.768,11.723,14.105
1137,0.626,34.153,40.908,43.349,25.891,5.727,11.641,14.228
1138,0.55,33.736,40.806,43.339,25.88,5.645,11.6,14.598
1139,0.468,33.911,40.968,43.349,25.901,5.768,11.559,14.763
1140,0.403,34.037,40.881,43.378,25.905,5.892,11.683,15.091
1141,0.35,34.075,40.944,43.359,25.894,5.81,11.436,15.009
1142,0.317,33.998,40.802,43.359,25.891,5.687,11.395,15.05
1143,0.281,34.114,40.956,43.368,25.891,5.81,11.395,15.091
1144,0.261,34.24,40.83,43.359,25.884,5.727,11.395,15.214
1145,0.251,34.25,41.007,43.378,25.894,5.727,11.395,15.132
1146,0.284,33.833,40.881,43.359,25.894,5.81,11.395,15.091
1147,0.301,33.959,40.944,43.359,25.894,5.687,11.477,14.968
1148,0.327,34.056,40.928,43.339,25.891,5.727,11.518,14.927
1149,0.366,33.862,40.869,43.31,25.88,5.687,11.683,15.05
1150,0.396,33.882,40.936,43.368,25.898,5.851,11.806,15.091
1151,0.439,34.027,40.865,43.378,25.905,5.974,12.052,15.502
1152,0.472,34.104,40.972,43.349,25.891,5.727,11.929,15.461
1153,0.504,33.698,40.834,43.426,25.894,5.81,12.052,15.625
1154,0.514,33.833,40.944,43.368,25.894,5.851,12.134,15.871
1155,0.534,33.94,40.806,43.349,25.891,5.768,12.134,15.953
1156,0.554,34.046,40.995,43.359,25.884,5.81,12.175,16.241
1157,0.59,33.756,40.849,43.359,25.894,5.81,12.175,16.487
1158,0.609,33.911,41.007,43.368,25.894,5.727,12.175,16.652
1159,0.613,34.027,40.952,43.349,25.891,5.727,12.093,16.775
1160,0.613,34.095,40.897,43.339,25.884,5.687,12.052,16.734
1161,0.639,33.727,40.991,43.359,25.891,5.768,12.134,16.857
1162,0.659,33.901,40.904,43.368,25.908,5.933,12.216,16.98
1163,0.632,33.998,41.046,43.349,25.891,5.768,12.093,16.775
1164,0.636,34.056,40.818,43.359,25.891,5.768,12.134,16.652
1165,0.646,33.862,40.904,43.359,25.891,5.727,12.216,16.57
1166,0.659,34.008,40.944,43.397,25.891,5.645,12.134,16.282
1167,0.675,34.114,40.897,43.368,25.894,5.687,12.134,16.035
1168,0.669,34.162,40.975,43.378,25.898,5.768,12.216,15.953
1169,0.669,33.823,40.904,43.388,25.891,5.768,12.134,15.625
1170,0.652,33.94,41.035,43.33,25.884,5.645,12.093,15.214
1171,0.655,34.066,40.889,43.426,25.88,5.604,12.011,14.927
1172,0.669,34.395,40.972,43.378,25.894,5.768,12.175,14.845
1173,0.675,33.736,40.861,43.397,25.901,5.81,12.298,14.722
1174,0.672,33.862,41.003,43.349,25.891,5.727,12.134,14.352
1175,0.688,33.969,40.881,43.368,25.894,5.768,12.298,14.188
1176,0.685,33.717,40.964,43.359,25.887,5.851,12.381,14.023
1177,0.685,33.746,40.81,43.359,25.887,5.768,12.381,13.695
1178,0.692,33.882,40.912,43.359,25.894,5.892,12.545,13.613
1179,0.692,34.008,40.814,43.378,25.901,5.974,12.75,13.49
1180,0.692,33.649,40.983,43.368,25.898,5.933,12.709,13.284
1181,0.672,33.746,40.995,43.349,25.884,5.892,12.668,13.038
1182,0.669,33.882,40.873,43.349,25.887,5.933,12.75,13.038
1183,0.688,34.017,40.968,43.388,25.901,6.015,12.956,12.996
1184,0.698,33.698,40.928,43.388,25.905,6.138,12.915,12.915
1185,0.682,33.814,40.987,43.368,25.884,6.138,12.873,12.545
1186,0.685,33.93,40.944,43.407,25.894,6.138,12.873,12.545
1187,0.682,34.008,41.07,43.349,25.887,6.179,12.873,12.381
1188,0.682,33.514,40.96,43.349,25.891,6.097,12.832,12.175
1189,0.678,33.678,41.003,43.359,25.891,6.138,12.832,12.052
1190,0.675,33.814,40.893,43.368,25.901,6.22,12.832,12.011
1191,0.675,33.891,41.011,43.388,25.894,6.22,12.791,11.806
1192,0.672,33.639,40.841,43.339,25.891,6.138,12.627,11.723
1193,0.682,33.765,40.956,43.339,25.88,6.056,12.586,11.477
1194,0.695,33.92,40.755,43.359,25.887,6.22,12.75,11.477
1195,0.705,33.969,40.912,43.388,25.898,6.302,12.791,11.436
1196,0.692,33.649,40.92,43.368,25.891,6.22,12.668,11.108
1197,0.692,33.794,40.897,43.388,25.901,6.179,12.832,11.189
1198,0.695,33.891,40.964,43.388,25.891,6.22,12.791,11.025
1199,0.692,34.124,40.881,43.349,25.891,6.179,12.75,10.861
1200,0.695,33.581,40.999,43.368,25.894,6.179,12.832,10.82
1201,0.698,33.736,40.834,43.397,25.901,6.179,12.832,10.82
1202,0.711,33.852,40.991,43.388,25.898,6.262,12.915,10.738
1203,0.695,33.688,40.845,43.368,25.891,6.097,12.791,10.574
1204,0.675,33.717,40.991,43.359,25.884,6.056,12.75,10.409
1205,0.678,33.891,40.952,43.397,25.898,6.22,12.832,10.45
1206,0.672,33.998,40.92,43.407,25.901,6.262,12.873,10.532
1207,0.685,33.475,40.92,43.368,25.894,6.097,12.75,10.245
1208,0.685,33.639,40.778,43.407,25.894,6.138,12.709,10.204
1209,0.705,33.727,40.948,43.417,25.891,6.179,12.545,10.122
1210,0.698,33.814,40.778,43.368,25.884,6.097,12.463,10.04
1211,0.721,33.504,40.972,43.378,25.894,6.056,12.422,10.081
1212,0.734,33.678,40.92,43.397,25.894,6.179,12.422,9.957
1213,0.744,33.823,40.897,43.388,25.898,6.097,12.298,9.916
1214,0.738,33.872,40.979,43.368,25.887,6.015,12.298,9.752
1215,0.731,33.475,40.92,43.349,25.877,5.933,12.257,9.67
1216,0.731,33.688,41.07,43.378,25.887,6.138,12.381,9.752
1217,0.728,33.814,40.92,43.426,25.901,6.22,12.545,9.793
1218,0.715,33.862,41.015,43.397,25.898,6.056,12.339,9.629
1219,0.692,33.484,40.763,43.407,25.891,6.056,12.422,9.629
1220,0.695,33.63,40.96,43.407,25.887,6.097,12.504,9.588
1221,0.678,33.736,40.806,43.388,25.884,5.974,12.422,9.424
1222,0.695,33.785,40.983,43.397,25.898,6.097,12.463,9.424
1223,0.698,33.572,40.995,43.417,25.898,6.138,12.545,9.506
1224,0.711,33.736,40.865,43.446,25.894,6.056,12.463,9.465
1225,0.701,33.823,41.003,43.397,25.887,6.015,12.381,9.342
1226,0.698,33.891,40.877,43.368,25.884,5.892,12.298,9.259
1227,0.708,33.552,40.991,43.407,25.894,6.015,12.339,9.342
1228,0.698,33.707,40.893,43.417,25.894,6.097,12.339,9.342
1229,0.692,33.794,41.027,43.397,25.894,6.056,12.134,9.301
1230,0.708,33.484,40.841,43.407,25.894,6.179,12.093,9.342
1231,0.711,33.562,40.983,43.397,25.894,6.179,11.97,9.259
1232,0.721,33.678,40.845,43.388,25.887,6.179,11.806,9.218
1233,0.728,33.785,41.019,43.397,25.894,6.302,11.847,9.095
1234,0.731,33.388,41.023,43.388,25.901,6.343,11.806,9.218
1235,0.738,33.552,40.987,43.446,25.898,6.467,11.764,9.218
1236,0.708,33.649,40.999,43.397,25.891,6.343,11.6,9.095
1237,0.701,33.727,40.861,43.388,25.884,6.343,11.477,8.931
1238,0.705,33.378,40.995,43.407,25.901,6.508,11.6,9.136
1239,0.708,33.543,40.897,43.436,25.901,6.549,11.6,9.259
1240,0.718,33.659,41.05,43.397,25.894,6.508,11.518,9.095
1241,0.738,33.746,40.897,43.426,25.901,6.508,11.6,9.136
1242,0.731,33.465,41.039,43.397,25.894,6.59,11.6,9.177
1243,0.718,33.63,40.849,43.397,25.884,6.549,11.518,9.095
1244,0.724,33.756,41.011,43.407,25.894,6.59,11.559,9.218
1245,0.728,33.804,40.92,43.446,25.898,6.59,11.559,9.177
1246,0.741,33.397,41.078,43.426,25.887,6.631,11.6,9.177
1247,0.734,33.514,40.928,43.397,25.891,6.426,11.518,9.013
1248,0.731,33.61,41.007,43.378,25.887,6.385,11.395,9.013
1249,0.761,33.688,40.908,43.523,25.898,6.508,11.559,9.259
1250,0.761,33.446,40.964,43.455,25.905,6.631,11.683,9.177
1251,0.747,33.552,41.042,43.426,25.891,6.508,11.559,9.054
1252,0.738,33.649,40.924,43.417,25.894,6.549,11.559,9.136
1253,0.731,33.639,40.979,43.426,25.887,6.508,11.641,9.095
1254,0.728,33.397,40.841,43.426,25.887,6.467,11.723,8.972
1255,0.741,33.533,40.999,43.417,25.894,6.467,11.847,9.013
1256,0.741,33.639,40.897,43.446,25.898,6.549,12.011,9.054
1257,0.751,33.397,41.027,43.426,25.901,6.508,11.929,8.972
1258,0.734,33.475,40.897,43.397,25.88,6.467,11.929,8.849
1259,0.724,33.572,41.019,43.388,25.884,6.385,11.888,8.89
1260,0.738,33.727,40.83,43.455,25.891,6.508,12.052,8.972
1261,0.741,33.271,40.979,43.446,25.901,6.631,12.257,9.095
1262,0.741,33.397,41.039,43.388,25.891,6.426,12.052,8.89
1263,0.741,33.533,41.007,43.426,25.898,6.549,12.175,8.931
1264,0.724,33.61,41.027,43.426,25.894,6.426,12.298,8.931
1265,0.708,33.31,40.83,43.417,25.894,6.343,12.298,8.849
1266,0.734,33.475,40.952,43.436,25.891,6.343,12.381,8.849
1267,0.738,33.61,40.806,43.446,25.901,6.426,12.422,8.931
1268,0.741,33.678,40.975,43.426,25.898,6.426,12.381,8.89
1269,0.744,33.223,40.81,43.407,25.887,6.302,12.298,8.849
1270,0.734,33.33,40.999,43.407,25.884,6.302,12.298,8.849
1271,0.767,33.484,40.865,43.436,25.894,6.343,12.339,8.931
1272,0.767,33.581,40.975,43.475,25.908,6.508,12.422,9.136
1273,0.761,33.514,40.999,43.417,25.891,6.343,12.175,8.808
1274,0.767,33.678,40.952,43.407,25.894,6.385,12.216,8.808
1275,0.761,33.785,41.082,43.436,25.891,6.302,12.175,8.931
1276,0.741,33.804,40.897,43.426,25.891,6.262,12.134,8.89
1277,0.744,33.126,41.054,43.417,25.894,6.302,12.134,8.972
1278,0.738,33.281,40.83,43.446,25.894,6.385,12.134,8.972
1279,0.734,33.407,40.987,43.436,25.894,6.262,12.011,9.054
1280,0.728,33.397,40.983,43.426,25.887,6.179,11.929,8.931
1281,0.724,33.3,41.015,43.397,25.884,6.138,11.888,8.849
1282,0.734,33.484,41.019,43.426,25.898,6.262,11.888,9.054
1283,0.747,33.61,40.897,43.465,25.898,6.343,11.97,9.095
1284,0.767,33.174,40.991,43.426,25.894,6.179,11.806,9.013
1285,0.793,33.31,40.92,43.446,25.898,6.138,11.723,9.095
1286,0.784,33.426,41.054,43.436,25.891,6.179,11.6,9.013
1287,0.767,33.494,40.889,43.417,25.88,6.138,11.477,8.931
1288,0.774,33.184,41.074,43.426,25.891,6.138,11.436,9.095
1289,0.78,33.349,40.889,43.446,25.894,6.22,11.395,9.136
1290,0.813,33.504,41.031,43.446,25.894,6.138,11.272,9.177
1291,0.813,33.533,40.849,43.426,25.891,6.015,11.149,9.136
1292,0.816,33.262,41.019,43.397,25.88,6.015,11.025,9.013
1293,0.826,33.436,41.046,43.426,25.894,6.138,11.066,9.136
1294,0.803,33.552,40.924,43.446,25.894,6.097,11.189,9.218
1295,0.797,33.659,40.979,43.455,25.894,6.015,11.149,9.136
1296,0.81,33.049,40.908,43.436,25.894,6.097,11.272,9.218
1297,0.803,33.194,41.011,43.426,25.891,6.056,11.436,9.177
1298,0.797,33.3,40.849,43.407,25.891,5.974,11.477,9.218
1299,0.784,33.359,41.046,43.426,25.898,5.974,11.683,9.259
1300,0.79,33.262,40.897,43.436,25.898,6.015,11.847,9.301
1301,0.813,33.446,41.023,43.475,25.912,6.138,12.011,9.301
1302,0.78,33.523,40.841,43.426,25.891,5.974,11.888,9.259
1303,0.787,33.543,41.042,43.417,25.891,5.933,11.888,9.136
1304,0.803,33.194,40.944,43.436,25.891,6.056,11.97,9.301
1305,0.82,33.339,41.031,43.455,25.898,6.056,11.97,9.301
1306,0.826,33.436,41.039,43.426,25.898,5.933,11.764,9.259
1307,0.826,33.339,40.936,43.455,25.905,5.974,11.806,9.301
1308,0.816,33.262,40.916,43.426,25.898,5.974,11.723,9.259
1309,0.82,33.388,40.841,43.426,25.887,5.851,11.559,9.136
1310,0.807,33.494,41.027,43.426,25.891,5.974,11.518,9.177
1311,0.813,33.136,40.877,43.436,25.901,5.974,11.6,9.259
1312,0.82,33.291,40.904,43.484,25.901,6.097,11.641,9.301
1313,0.83,33.378,40.889,43.426,25.894,5.974,11.559,9.136
1314,0.826,33.465,40.885,43.397,25.887,5.851,11.559,9.095
1315,0.833,33.068,41.054,43.426,25.894,6.015,11.764,9.218
1316,0.826,33.223,40.948,43.436,25.891,6.097,11.97,9.177
1317,0.846,33.378,41.082,43.436,25.894,6.056,12.052,9.136
1318,0.859,33.446,40.924,43.446,25.898,6.138,12.422,9.136
1319,0.866,33.126,40.96,43.436,25.891,6.097,12.422,9.095
1320,0.866,33.3,41.003,43.436,25.887,6.097,12.545,9.054
1321,0.862,33.397,40.972,43.426,25.891,6.097,12.709,9.177
1322,0.866,33.494,40.948,43.455,25.898,6.179,12.75,9.177
1323,0.872,33.271,40.944,43.475,25.908,6.22,12.873,9.177
1324,0.862,33.388,40.987,43.533,25.891,6.138,12.668,9.054
1325,0.859,33.523,40.885,43.426,25.894,6.097,12.668,9.095
1326,0.872,33.552,41.019,43.455,25.891,6.179,12.75,9.136
1327,0.869,33.388,40.897,43.436,25.898,6.22,12.627,9.218
1328,0.879,33.514,41.031,43.436,25.894,6.138,12.463,9.013
1329,0.892,33.639,40.991,43.446,25.901,6.262,12.463,9.177
1330,0.882,33.668,40.975,43.465,25.894,6.22,12.339,9.095
1331,0.882,33.32,40.869,43.417,25.891,6.138,12.093,8.931
1332,0.889,33.465,41.035,43.446,25.894,6.097,12.134,9.054
1333,0.902,33.572,40.92,43.436,25.894,6.262,12.052,9.013
1334,0.928,33.581,41.019,43.455,25.905,6.262,12.011,9.095
1335,0.902,33.562,40.786,43.436,25.891,6.097,11.888,8.931
1336,0.905,33.707,40.928,43.417,25.887,6.097,11.683,8.931
1337,0.925,33.823,40.818,43.513,25.898,6.138,11.764,9.054
1338,0.931,33.465,40.983,43.455,25.894,6.22,11.764,9.136
1339,0.938,33.572,41.023,43.446,25.894,6.138,11.559,8.972
1340,0.925,33.717,41.003,43.436,25.898,6.138,11.641,9.013
1341,0.941,33.823,40.975,43.455,25.894,6.138,11.641,9.095
1342,0.948,33.707,40.924,43.426,25.887,6.015,11.6,9.013
1343,0.945,33.882,41.046,43.436,25.891,6.056,11.683,9.095
1344,0.951,34.008,40.908,43.455,25.894,6.097,11.723,9.095
1345,0.961,34.095,41.07,43.455,25.898,6.015,11.641,9.095
1346,0.958,33.882,41.05,43.426,25.891,5.974,11.559,9.054
1347,0.954,34.008,40.968,43.426,25.884,5.892,11.559,9.013
1348,0.968,34.162,40.979,43.446,25.891,6.056,11.477,9.095
1349,0.961,34.24,40.936,43.475,25.901,6.097,11.723,9.177
1350,0.954,34.085,41.019,43.446,25.891,5.933,11.436,9.013
1351,0.981,34.23,40.952,43.446,25.887,5.974,11.395,9.136
1352,0.984,34.356,41.035,43.446,25.894,5.974,11.436,9.054
1353,0.987,34.385,40.861,43.436,25.887,5.933,11.354,8.972
1354,0.997,34.317,40.995,43.426,25.894,5.974,11.313,9.013
1355,1.014,34.472,40.975,43.465,25.901,5.892,11.313,9.013
1356,1.014,34.589,40.948,43.455,25.901,5.892,11.313,8.849
1357,1.01,34.569,41.078,43.426,25.898,5.851,11.231,8.89
1358,1.004,34.492,40.944,43.426,25.887,5.892,11.189,8.931
1359,1.01,34.656,41.086,43.455,25.901,5.974,11.189,8.972
1360,1.023,34.792,40.865,43.484,25.905,6.056,11.313,9.054
1361,1.03,34.763,41.003,43.446,25.894,5.892,11.066,8.849
1362,1.053,34.86,40.897,43.446,25.894,5.851,11.025,8.849
1363,1.046,34.986,41.019,43.465,25.894,5.974,11.025,8.931
1364,1.043,35.073,40.944,43.446,25.887,5.892,10.902,8.89
1365,1.06,34.995,40.857,43.484,25.894,5.933,10.82,8.808
1366,1.092,35.131,41.027,43.475,25.894,5.974,10.779,8.89
1367,1.115,35.238,40.889,43.455,25.901,5.892,10.697,8.849
1368,1.122,35.325,41.007,43.446,25.887,5.851,10.532,8.808
1369,1.122,35.092,40.873,43.426,25.887,5.851,10.45,8.767
1370,1.142,35.267,41.046,43.475,25.901,5.974,10.574,8.89
1371,1.161,35.422,40.881,43.494,25.905,6.056,10.574,8.972
1372,1.155,35.451,40.968,43.455,25.891,5.851,10.409,8.726
1373,1.148,35.441,40.853,43.465,25.894,5.933,10.368,8.767
1374,1.142,35.625,41.05,43.455,25.894,5.933,10.368,8.767
1375,1.132,35.683,40.991,43.436,25.891,5.933,10.245,8.684
1376,1.148,35.78,40.948,43.465,25.887,5.974,10.368,8.767
1377,1.168,35.693,41.007,43.475,25.898,5.974,10.368,8.849
1378,1.175,35.857,40.853,43.465,25.898,6.056,10.409,8.684
1379,1.171,35.925,40.991,43.436,25.891,5.81,10.286,8.602
1380,1.171,35.954,40.881,43.436,25.884,5.851,10.368,8.684
1381,1.194,36.022,41.062,43.465,25.905,6.097,10.368,8.684
1382,1.194,36.167,40.818,43.494,25.905,6.179,10.574,8.767
1383,1.188,36.245,40.968,43.465,25.891,6.015,10.368,8.684
1384,1.201,36.458,40.987,43.484,25.891,6.056,10.327,8.684
1385,1.194,36.342,40.987,43.475,25.898,5.974,10.45,8.602
1386,1.204,36.458,41.078,43.455,25.887,6.015,10.286,8.561
1387,1.227,36.565,40.956,43.465,25.898,6.015,10.368,8.602
1388,1.253,36.41,41.086,43.484,25.898,6.138,10.532,8.684
1389,1.263,36.458,40.802,43.465,25.891,6.097,10.615,8.561
1390,1.247,36.545,40.999,43.455,25.887,6.015,10.574,8.52
1391,1.253,36.632,40.861,43.446,25.891,5.974,10.738,8.438
1392,1.267,36.681,41.042,43.475,25.901,6.179,10.943,8.602
1393,1.286,36.826,40.857,43.513,25.905,6.179,11.149,8.602
1394,1.286,36.923,41.027,43.542,25.894,6.097,11.189,8.52
1395,1.29,37.01,40.837,43.494,25.894,6.097,11.313,8.52
1396,1.293,36.807,40.999,43.494,25.898,6.138,11.354,8.52
1397,1.286,36.923,40.853,43.465,25.887,6.056,11.395,8.561
1398,1.303,37.049,41.054,43.484,25.891,6.056,11.395,8.561
1399,1.326,37.136,40.912,43.475,25.898,6.179,11.477,8.602
1400,1.316,37.165,40.932,43.494,25.894,6.138,11.477,8.602
1401,1.319,37.281,40.849,43.475,25.891,6.015,11.395,8.52
1402,1.309,37.388,40.975,43.455,25.887,5.974,11.395,8.52
1403,1.319,37.446,40.995,43.484,25.898,6.138,11.395,8.684
1404,1.339,37.301,41.007,43.513,25.905,6.262,11.518,8.726
1405,1.326,37.417,41.015,43.475,25.894,6.056,11.231,8.52
1406,1.345,37.523,40.936,43.484,25.898,6.015,11.231,8.52
1407,1.342,37.533,41.035,43.504,25.898,6.056,11.149,8.561
1408,1.342,37.485,40.826,43.465,25.891,6.015,10.984,8.561
1409,1.349,37.64,41.007,43.484,25.891,6.138,10.943,8.52
1410,1.352,37.727,40.964,43.513,25.894,6.097,10.861,8.602
1411,1.352,38.076,40.948,43.513,25.891,6.015,10.779,8.561
1412,1.352,37.688,40.991,43.465,25.891,5.974,10.615,8.52
1413,1.359,37.795,40.944,43.455,25.891,6.056,10.409,8.438
1414,1.375,37.892,41.074,43.475,25.898,6.056,10.45,8.479
1415,1.388,37.785,40.999,43.494,25.905,6.179,10.574,8.602
1416,1.368,37.824,41.074,43.475,25.898,6.056,10.245,8.479
1417,1.372,37.959,40.96,43.475,25.898,6.138,10.204,8.479
1418,1.372,38.027,41.019,43.494,25.898,6.097,10.163,8.479
1419,1.362,37.911,40.897,43.446,25.891,6.015,10.081,8.438
1420,1.378,38.056,41.042,43.484,25.898,6.015,10.081,8.52
1421,1.372,38.163,40.92,43.494,25.898,6.097,10.245,8.52
1422,1.372,38.25,41.003,43.504,25.905,6.097,10.204,8.602
1423,1.362,38.056,40.968,43.475,25.894,5.974,10.204,8.438
1424,1.368,38.182,40.936,43.465,25.88,5.892,10.245,8.356
1425,1.355,38.308,41.046,43.504,25.898,6.056,10.656,8.644
1426,1.342,38.356,40.991,43.504,25.898,6.097,11.025,8.644
1427,1.342,38.347,41.078,43.484,25.894,6.015,11.231,8.561
1428,1.345,38.492,40.948,43.494,25.894,6.056,11.723,8.602
1429,1.332,38.579,41.086,43.494,25.894,6.015,12.093,8.602
1430,1.326,38.628,40.861,43.465,25.887,5.933,12.339,8.561
1431,1.329,38.163,41.011,43.494,25.894,5.974,12.709,8.644
1432,1.326,38.308,40.885,43.513,25.898,5.974,12.996,8.726
1433,1.329,38.434,41.039,43.513,25.901,6.097,13.325,8.684
1434,1.296,38.434,40.837,43.504,25.894,5.933,13.161,8.602
1435,1.286,38.434,40.948,43.465,25.88,5.851,13.243,8.52
1436,1.273,38.589,41.023,43.562,25.898,6.015,13.49,8.726
1437,1.267,38.686,40.952,43.513,25.901,6.056,13.49,8.849
1438,1.253,38.802,40.96,43.504,25.901,5.974,13.366,8.808
1439,1.247,38.511,40.885,43.475,25.905,6.056,13.407,8.89
1440,1.23,38.608,41.062,43.504,25.898,5.974,13.284,8.808
1441,1.198,38.705,40.798,43.484,25.88,5.892,13.161,8.808
1442,1.184,38.56,41.011,43.484,25.901,5.974,13.12,8.931
1443,1.198,38.666,40.873,43.523,25.901,5.974,13.038,8.972
1444,1.204,38.792,41.054,43.533,25.908,6.056,12.956,8.972
1445,1.175,38.86,41.086,43.494,25.891,5.974,12.627,8.849
1446,1.155,38.821,41.007,43.475,25.887,5.933,12.504,8.808
1447,1.138,38.957,41.054,43.494,25.901,5.892,12.422,8.89
1448,1.115,39.073,40.897,43.494,25.894,5.974,12.381,8.931
1449,1.086,39.16,41.011,43.504,25.891,5.892,12.257,8.89
1450,1.073,38.395,40.865,43.504,25.898,5.974,12.134,8.931
1451,1.079,38.511,41.042,43.494,25.898,5.974,11.929,8.89
1452,1.056,38.599,40.822,43.475,25.884,5.892,11.723,8.808
1453,1.063,38.657,40.983,43.465,25.894,5.892,11.683,8.849
1454,1.073,38.705,40.83,43.484,25.901,5.974,11.683,8.89
1455,1.073,38.889,41.027,43.523,25.908,6.015,11.683,9.054
1456,1.04,38.947,41.035,43.504,25.898,5.892,11.683,8.808
1457,1.01,38.996,41.046,43.494,25.894,5.892,11.683,8.849
1458,0.977,38.695,41.117,43.504,25.898,5.892,11.847,8.972
1459,0.958,38.812,40.999,43.484,25.898,5.892,11.888,8.931
1460,0.964,38.928,41.039,43.504,25.891,5.81,12.011,8.972
1461,0.958,38.957,40.952,43.494,25.894,5.892,12.052,9.054
1462,0.945,38.802,41.106,43.484,25.894,5.892,12.134,9.013
1463,0.922,38.899,40.944,43.484,25.887,5.81,12.175,9.054
1464,0.908,38.976,40.991,43.465,25.887,5.727,12.093,8.972
1465,0.908,38.967,40.802,43.523,25.898,5.851,12.216,9.136
1466,0.918,38.773,41.019,43.601,25.901,6.015,12.339,9.177
1467,0.899,38.86,41.007,43.475,25.894,5.768,12.093,8.972
1468,0.892,38.976,40.948,43.484,25.898,5.892,12.134,9.013
1469,0.889,38.686,41.058,43.484,25.894,5.851,12.134,9.054
1470,0.866,38.763,40.924,43.465,25.887,5.892,12.011,9.013
1471,0.879,38.918,41.082,43.484,25.891,5.81,11.97,8.931
1472,0.876,38.976,40.865,43.504,25.901,5.933,12.011,9.054
1473,0.876,38.705,41.042,43.504,25.898,5.851,11.806,8.89
1474,0.849,38.821,41.042,43.465,25.884,5.81,11.806,8.849
1475,0.836,38.909,41.027,43.465,25.88,5.727,11.764,8.808
1476,0.833,39.015,41.074,43.504,25.901,5.892,11.806,8.89
1477,0.826,38.715,40.975,43.494,25.901,6.056,11.888,8.972
1478,0.81,38.86,40.979,43.494,25.891,5.892,11.6,8.849
1479,0.807,38.986,40.96,43.523,25.898,5.892,11.723,8.89
1480,0.8,39.034,41.07,43.494,25.898,5.933,11.559,8.931
1481,0.784,38.889,40.952,43.465,25.891,5.81,11.395,8.849
1482,0.777,39.044,41.011,43.504,25.901,5.892,11.354,8.89
1483,0.77,39.16,40.912,43.513,25.898,5.974,11.354,8.849
1484,0.774,39.209,41.046,43.513,25.898,5.892,11.231,8.89
1485,0.761,38.812,40.849,43.475,25.887,5.851,10.943,8.767
1486,0.741,38.918,41.05,43.446,25.887,5.687,10.82,8.726
1487,0.754,39.054,40.924,43.494,25.901,5.892,10.861,8.726
1488,0.761,39.054,41.09,43.513,25.901,5.974,10.861,8.808
1489,0.774,38.763,41.015,43.494,25.891,5.768,10.574,8.767
1490,0.79,38.899,40.96,43.533,25.898,5.892,10.574,8.767
1491,0.774,38.976,41.039,43.494,25.894,5.892,10.409,8.684
1492,0.764,38.938,40.975,43.484,25.891,5.768,10.245,8.684
1493,0.767,38.831,41.039,43.494,25.894,5.851,10.245,8.602
1494,0.77,38.996,40.869,43.504,25.898,5.892,10.204,8.684
1495,0.751,39.102,41.039,43.513,25.905,5.933,10.081,8.726
1496,0.724,38.821,40.885,43.484,25.894,5.851,10.04,8.602
1497,0.724,38.918,41.023,43.475,25.88,5.727,9.999,8.52
1498,0.731,39.044,40.889,43.504,25.898,5.81,10.122,8.767
1499,0.728,39.112,41.117,43.494,25.898,5.892,10.204,8.808
1500,0.718,38.773,40.849,43.484,25.891,5.81,10.245,8.767
1501,0.711,38.928,41.019,43.513,25.901,5.933,10.245,8.849
1502,0.705,39.025,40.979,43.494,25.898,5.851,10.204,8.849
1503,0.698,39.063,41.011,43.475,25.891,5.727,10.163,8.808
1504,0.682,38.831,41.102,43.484,25.894,5.851,10.245,8.849
1505,0.695,38.986,40.916,43.513,25.898,5.851,10.286,8.931
1506,0.708,39.102,41.019,43.513,25.894,5.81,10.245,8.849
1507,0.705,39.112,40.794,43.494,25.891,5.727,10.122,8.767
1508,0.715,38.618,40.865,43.562,25.884,5.727,10.081,8.684
1509,0.731,38.792,40.999,43.504,25.898,5.81,10.245,8.931
1510,0.734,38.909,40.952,43.523,25.898,5.933,10.327,8.972
1511,0.711,38.899,41.062,43.504,25.891,5.768,10.245,8.89
1512,0.708,38.85,40.916,43.504,25.898,5.892,10.286,8.931
1513,0.708,38.957,41.011,43.504,25.894,5.81,10.245,8.89
1514,0.715,39.005,40.857,43.484,25.891,5.81,10.163,8.767
1515,0.715,39.054,41.054,43.494,25.894,5.81,10.327,8.89
1516,0.724,38.85,40.999,43.513,25.898,5.851,10.245,8.849
1517,0.731,39.015,41.062,43.533,25.901,5.892,10.163,8.931
1518,0.721,39.073,41.042,43.494,25.887,5.81,10.081,8.808
1519,0.715,38.899,40.881,43.484,25.887,5.768,9.916,8.767
1520,0.721,38.831,41.023,43.504,25.894,5.892,10.04,8.972
1521,0.708,38.947,40.94,43.504,25.901,5.974,9.999,8.931
1522,0.695,39.015,41.098,43.494,25.887,5.81,9.793,8.808
1523,0.678,38.86,40.885,43.504,25.887,5.974,9.793,8.972
1524,0.682,38.957,41.031,43.494,25.891,5.892,9.711,8.931
1525,0.682,39.044,40.869,43.494,25.891,5.81,9.629,8.767
1526,0.695,39.131,41.031,43.494,25.894,5.81,9.752,8.808
1527,0.734,38.763,40.999,43.504,25.898,5.933,9.793,8.849
1528,0.744,38.918,40.983,43.523,25.901,5.933,9.957,8.89
1529,0.734,38.996,41.086,43.475,25.891,5.81,9.916,8.808
1530,0.715,39.034,40.865,43.494,25.884,5.727,10.04,8.684
1531,0.721,38.666,41.027,43.513,25.898,5.892,10.368,8.808
1532,0.711,38.812,40.96,43.504,25.901,5.892,10.532,8.808
1533,0.708,38.899,41.082,43.504,25.894,5.81,10.532,8.684
1534,0.724,38.976,40.916,43.494,25.901,5.974,10.738,8.684
1535,0.718,38.899,40.975,43.504,25.894,5.851,10.738,8.726
1536,0.711,39.015,40.877,43.494,25.894,5.768,10.779,8.602
1537,0.715,39.102,40.857,43.513,25.894,5.81,10.902,8.684
1538,0.721,39.151,41.023,43.513,25.894,5.933,10.943,8.726
1539,0.724,38.831,40.924,43.523,25.901,5.851,10.984,8.684
1540,0.715,38.918,41.082,43.484,25.891,5.768,11.025,8.602
1541,0.715,39.005,40.865,43.465,25.887,5.727,10.984,8.644
1542,0.721,39.054,41.039,43.504,25.898,5.851,11.149,8.849
1543,0.724,38.792,40.92,43.504,25.898,5.81,11.231,8.972
1544,0.715,38.909,41.062,43.513,25.894,5.768,11.066,8.726
1545,0.728,38.986,40.94,43.513,25.898,5.851,11.272,8.89
1546,0.724,38.87,41.07,43.494,25.901,5.851,11.189,8.767
1547,0.724,38.831,40.952,43.484,25.894,5.768,11.108,8.849
1548,0.728,38.957,41.011,43.504,25.894,5.768,11.231,8.931
1549,0.738,39.054,40.873,43.504,25.891,5.892,11.231,8.931
1550,0.751,38.705,41.003,43.533,25.901,5.892,11.189,8.931
1551,0.721,38.773,40.908,43.494,25.887,5.81,11.066,8.89
1552,0.731,38.879,40.995,43.465,25.88,5.687,11.025,8.89
1553,0.754,38.996,40.897,43.504,25.894,5.851,11.108,9.013
1554,0.744,38.734,40.96,43.494,25.901,5.892,11.189,9.095
1555,0.744,38.85,41.035,43.494,25.894,5.81,11.108,8.972
1556,0.747,38.976,40.936,43.504,25.894,5.851,11.149,9.013
1557,0.747,39.025,41.086,43.504,25.901,5.933,11.108,9.054
1558,0.747,38.763,40.956,43.484,25.887,5.933,11.066,8.972
1559,0.741,38.909,41.042,43.484,25.894,6.015,10.984,9.095
1560,0.738,39.044,40.901,43.504,25.894,6.056,11.025,9.095
1561,0.738,39.122,41.039,43.533,25.908,6.179,11.066,9.177
1562,0.734,38.754,40.932,43.494,25.898,6.056,10.902,9.095
1563,0.734,38.879,41.07,43.504,25.891,6.097,10.82,8.972
1564,0.738,39.005,40.814,43.513,25.887,6.179,10.902,9.136
1565,0.728,39.015,40.881,43.523,25.894,6.179,10.902,9.136
1566,0.741,38.802,40.995,43.504,25.894,6.179,10.861,9.136
1567,0.738,38.957,40.936,43.513,25.901,6.302,10.902,9.177
1568,0.738,39.034,41.027,43.513,25.898,6.22,10.82,9.177
1569,0.747,39.044,40.912,43.494,25.891,6.262,10.779,9.136
1570,0.747,38.744,41.05,43.465,25.887,6.179,10.738,9.054
1571,0.754,38.928,40.901,43.513,25.887,6.262,10.738,9.177
1572,0.764,39.025,41.027,43.533,25.915,6.385,10.738,9.301
1573,0.754,38.783,40.897,43.484,25.898,6.22,10.574,9.136
1574,0.764,38.831,41.106,43.494,25.898,6.22,10.615,9.095
1575,0.767,38.938,40.912,43.504,25.887,6.262,10.532,9.095
1576,0.764,39.005,40.987,43.494,25.894,6.179,10.327,9.054
1577,0.757,38.511,40.972,43.494,25.898,6.262,10.368,9.054
1578,0.761,38.647,40.881,43.513,25.894,6.262,10.245,9.095
1579,0.767,38.763,41.007,43.513,25.901,6.343,10.286,9.095
1580,0.754,38.821,40.975,43.494,25.887,6.22,10.163,9.013
1581,0.747,38.695,41.054,43.475,25.894,6.097,10.04,8.931
1582,0.751,38.86,40.916,43.513,25.901,6.262,10.122,9.177
1583,0.741,38.976,41.062,43.523,25.898,6.302,10.163,9.259
1584,0.744,39.015,40.897,43.504,25.894,6.22,10.04,9.054
1585,0.774,38.647,41.082,43.504,25.894,6.302,10.081,9.095
1586,0.764,38.763,40.94,43.513,25.894,6.22,9.957,9.054
1587,0.757,38.86,41.058,43.484,25.887,6.179,9.957,9.013
1588,0.751,38.918,41.102,43.504,25.891,6.343,10.04,9.013
1589,0.741,38.589,40.936,43.504,25.898,6.385,10.122,9.095
1590,0.754,38.744,41.058,43.523,25.898,6.385,10.163,9.095
1591,0.744,38.831,40.912,43.484,25.887,6.385,10.081,8.972
1592,0.747,38.812,41.07,43.465,25.887,6.385,10.163,8.89
1593,0.747,38.502,40.869,43.494,25.898,6.467,10.245,9.013
1594,0.754,38.628,41.035,43.523,25.898,6.549,10.327,9.054
1595,0.774,38.725,40.865,43.494,25.887,6.549,10.245,8.89
1596,0.787,39.063,41.023,43.513,25.894,6.631,10.327,9.013
1597,0.78,38.589,41.027,43.504,25.894,6.631,10.286,8.931
1598,0.774,38.705,40.964,43.504,25.891,6.549,10.245,8.808
1599,0.77,38.802,41.094,43.494,25.891,6.631,10.286,8.931
1600,0.784,38.531,40.912,43.513,25.894,6.672,10.327,8.972
1601,0.777,38.608,41.042,43.542,25.905,6.837,10.409,9.013
1602,0.77,38.676,40.861,43.484,25.894,6.672,10.204,8.849
1603,0.761,38.734,41.078,43.504,25.891,6.631,10.122,8.808
1604,0.764,38.356,40.936,43.494,25.898,6.754,10.204,8.808
1605,0.754,38.463,41.011,43.523,25.894,6.713,10.122,8.972
1606,0.774,38.579,40.983,43.504,25.894,6.631,10.122,8.767
1607,0.764,38.676,40.885,43.523,25.901,6.754,10.081,8.849
1608,0.764,38.211,41.007,43.504,25.894,6.672,9.999,8.849
1609,0.761,38.337,40.885,43.484,25.891,6.631,9.957,8.684
1610,0.757,38.424,41.078,43.494,25.894,6.713,9.834,8.849
1611,0.761,38.521,40.865,43.523,25.894,6.672,9.916,8.808
1612,0.774,38.221,41.058,43.523,25.908,6.754,9.957,8.931
1613,0.777,38.308,40.869,43.494,25.891,6.631,9.629,8.684
1614,0.78,38.424,40.995,43.475,25.891,6.59,9.67,8.644
1615,0.774,38.473,41.086,43.504,25.901,6.672,9.752,8.767
1616,0.757,38.231,40.987,43.484,25.891,6.631,9.752,8.767
1617,0.767,38.395,41.086,43.484,25.894,6.59,9.711,8.684
1618,0.77,38.492,40.92,43.523,25.894,6.631,9.834,8.726
1619,0.761,38.502,41.035,43.504,25.898,6.59,9.711,8.767
1620,0.77,38.134,40.869,43.494,25.891,6.508,9.752,8.684
1621,0.767,38.24,41.074,43.475,25.891,6.508,9.834,8.726
1622,0.761,38.376,40.912,43.494,25.898,6.59,9.999,8.808
1623,0.754,38.55,41.05,43.552,25.905,6.672,10.163,8.849
1624,0.738,38.056,40.889,43.494,25.887,6.549,10.122,8.644
1625,0.741,38.172,40.991,43.513,25.887,6.508,10.286,8.644
1626,0.747,38.26,41.046,43.494,25.898,6.549,10.368,8.808
1627,0.767,37.95,40.999,43.494,25.887,6.426,10.409,8.644
1628,0.777,38.017,41.094,43.504,25.891,6.467,10.491,8.684
1629,0.767,38.143,40.952,43.513,25.898,6.467,10.491,8.726
1630,0.764,38.25,41.062,43.504,25.898,6.467,10.491,8.684
1631,0.767,37.785,40.869,43.475,25.891,6.426,10.409,8.602
1632,0.774,37.911,41.066,43.465,25.88,6.343,10.45,8.602
1633,0.784,38.056,41.015,43.513,25.901,6.467,10.574,8.684
1634,0.784,38.134,40.975,43.513,25.905,6.508,10.615,8.767
1635,0.754,37.756,41.007,43.504,25.894,6.467,10.409,8.52
1636,0.738,37.93,40.972,43.504,25.894,6.508,10.45,8.602
1637,0.734,38.046,41.035,43.484,25.891,6.467,10.491,8.684
1638,0.731,38.076,40.928,43.504,25.894,6.467,10.327,8.561
1639,0.744,37.659,41.094,43.484,25.891,6.467,10.327,8.602
1640,0.747,37.833,40.96,43.494,25.894,6.549,10.409,8.767
1641,0.751,37.95,41.035,43.523,25.894,6.508,10.286,8.684
1642,0.747,37.979,40.897,43.484,25.891,6.467,10.245,8.644
1643,0.738,37.707,41.046,43.475,25.891,6.467,10.204,8.726
1644,0.751,37.872,40.96,43.523,25.898,6.59,10.245,8.808
1645,0.747,37.988,41.137,43.523,25.912,6.672,10.245,8.89
1646,0.734,38.008,40.932,43.504,25.894,6.549,9.999,8.726
1647,0.741,37.611,41.05,43.504,25.894,6.549,9.957,8.767
1648,0.741,37.737,40.901,43.504,25.894,6.59,10.04,8.849
1649,0.738,37.814,41.042,43.465,25.887,6.59,9.876,8.849
1650,0.751,37.843,40.928,43.484,25.887,6.549,9.876,8.849
1651,0.754,37.62,41.113,43.504,25.894,6.631,9.916,8.931
1652,0.751,37.756,40.849,43.504,25.891,6.631,9.876,8.89
1653,0.751,37.833,40.999,43.475,25.894,6.549,9.916,8.767
1654,0.751,37.494,40.893,43.465,25.887,6.508,9.916,8.808
1655,0.764,37.63,40.991,43.494,25.894,6.672,10.081,8.849
1656,0.751,37.775,41.106,43.523,25.901,6.713,10.204,8.972
1657,0.738,37.814,41.035,43.475,25.887,6.549,10.163,8.808
1658,0.747,37.301,41.117,43.484,25.894,6.549,10.163,8.849
1659,0.744,37.436,40.877,43.494,25.898,6.59,10.245,8.849
1660,0.718,37.553,41.035,43.484,25.894,6.508,10.163,8.808
1661,0.721,37.649,40.956,43.484,25.894,6.467,10.204,8.89
1662,0.728,37.988,41.117,43.484,25.901,6.549,10.204,8.849
1663,0.724,38.114,40.944,43.513,25.891,6.549,10.245,8.849
1664,0.721,38.211,40.999,43.484,25.884,6.426,10.163,8.767
1665,0.708,38.279,40.869,43.484,25.884,6.385,10.081,8.808
1666,0.728,37.107,41.003,43.504,25.898,6.549,10.204,8.849
1667,0.747,37.262,40.869,43.513,25.901,6.508,10.245,8.931
1668,0.744,37.349,41.003,43.484,25.887,6.426,9.999,8.767
1669,0.747,37.407,40.944,43.475,25.894,6.467,9.999,8.808
1670,0.731,37.465,41.05,43.504,25.898,6.385,10.04,8.849
1671,0.711,37.601,40.904,43.465,25.887,6.385,9.916,8.726
1672,0.718,37.717,41.011,43.484,25.891,6.343,9.793,8.767
1673,0.734,37.727,40.916,43.494,25.898,6.385,9.834,8.726
1674,0.734,37.301,41.054,43.494,25.901,6.343,9.793,8.684
1675,0.738,37.378,40.885,43.446,25.887,6.262,9.67,8.644
1676,0.728,37.465,41.015,43.455,25.88,6.179,9.547,8.561
1677,0.734,37.485,41.019,43.484,25.898,6.385,9.629,8.684
1678,0.728,37.417,40.968,43.581,25.901,6.385,9.793,8.808
1679,0.728,37.543,41.015,43.475,25.891,6.302,9.506,8.684
1680,0.731,37.63,40.928,43.494,25.905,6.302,9.588,8.684
1681,0.724,37.233,41.058,43.475,25.894,6.262,9.629,8.726
1682,0.728,37.339,40.834,43.494,25.887,6.22,9.67,8.644
1683,0.718,37.475,41.023,43.475,25.891,6.262,9.876,8.767
1684,0.715,37.572,40.916,43.504,25.898,6.302,10.04,8.767
1685,0.721,37.204,41.054,43.494,25.898,6.262,10.081,8.684
1686,0.724,37.291,41.113,43.475,25.891,6.179,10.122,8.684
1687,0.715,37.398,41.039,43.465,25.877,6.138,10.081,8.561
1688,0.734,37.494,41.121,43.484,25.898,6.302,10.286,8.644
1689,0.734,37.175,40.952,43.484,25.901,6.262,10.45,8.767
1690,0.718,37.31,41.046,43.465,25.894,6.179,10.368,8.684
1691,0.724,37.417,40.975,43.484,25.901,6.22,10.368,8.726
1692,0.721,37.494,41.09,43.465,25.891,6.179,10.327,8.602
1693,0.701,37.049,40.877,43.465,25.891,6.138,10.204,8.52
1694,0.711,37.214,41.042,43.581,25.894,6.22,10.245,8.644
1695,0.718,37.33,40.873,43.465,25.901,6.22,10.245,8.602
1696,0.721,37.388,41.042,43.475,25.898,6.22,10.245,8.52
1697,0.711,37.214,40.889,43.465,25.887,6.138,10.122,8.52
1698,0.688,37.339,41.003,43.465,25.88,6.056,9.916,8.52
1699,0.695,37.485,40.936,43.494,25.894,6.179,9.999,8.602
1700,0.711,37.504,41.007,43.484,25.901,6.179,10.081,8.684
1701,0.698,37.194,41.042,43.475,25.891,6.097,9.957,8.52
1702,0.708,37.349,40.983,43.475,25.891,6.138,9.999,8.602
1703,0.705,37.407,41.094,43.475,25.894,6.097,10.122,8.644
1704,0.705,37.291,41.023,43.455,25.894,6.056,10.081,8.684
1705,0.708,37.223,41.042,43.475,25.898,6.056,10.122,8.561
1706,0.715,37.339,40.932,43.484,25.898,6.056,10.204,8.644
1707,0.698,37.417,40.987,43.455,25.894,6.097,10.204,8.602
1708,0.701,37.039,40.924,43.455,25.887,5.974,10.122,8.438
1709,0.688,37.126,41.046,43.446,25.887,6.015,10.122,8.561
1710,0.692,37.252,40.979,43.475,25.894,6.097,10.245,8.644
1711,0.685,37.368,41.07,43.484,25.908,6.097,10.327,8.684
1712,0.688,36.962,40.901,43.455,25.894,5.974,10.122,8.602
1713,0.708,37.117,41.023,43.465,25.891,6.056,10.122,8.561
1714,0.705,37.223,41.011,43.455,25.894,6.056,10.163,8.561
1715,0.688,37.272,41.042,43.446,25.894,6.015,10.04,8.52
1716,0.688,37.126,41.106,43.446,25.894,6.097,10.04,8.561
1717,0.695,37.281,41.007,43.465,25.905,6.138,10.04,8.602
1718,0.708,37.388,41.086,43.475,25.898,6.138,9.957,8.602
1719,0.708,37.427,40.936,43.455,25.891,6.097,9.916,8.479
1720,0.698,36.962,41.027,43.426,25.877,6.097,9.752,8.52
1721,0.705,37.117,40.96,43.436,25.901,6.179,9.834,8.602
1722,0.718,37.252,41.094,43.465,25.905,6.302,9.916,8.644
1723,0.695,37.252,40.885,43.475,25.891,6.138,9.629,8.602
1724,0.711,37.184,41.011,43.446,25.894,6.179,9.547,8.602
1725,0.711,37.32,41.003,43.455,25.898,6.179,9.629,8.602
1726,0.701,37.388,40.991,43.446,25.891,6.097,9.382,8.479
1727,0.705,37.407,41.039,43.455,25.887,6.138,9.424,8.561
1728,0.705,37.068,41.042,43.446,25.898,6.179,9.506,8.602
1729,0.708,37.204,41.117,43.465,25.894,6.179,9.424,8.479
1730,0.698,37.291,40.944,43.436,25.891,6.056,9.424,8.52
1731,0.688,37.155,41.015,43.417,25.884,6.056,9.382,8.397
1732,0.701,37.136,40.912,43.455,25.891,6.22,9.465,8.561
1733,0.708,37.252,41.042,43.475,25.901,6.302,9.588,8.602
1734,0.705,37.32,40.94,43.436,25.887,6.138,9.424,8.479
1735,0.695,37.059,40.889,43.455,25.898,6.302,9.465,8.479
1736,0.685,37.165,41.031,43.446,25.898,6.22,9.506,8.479
1737,0.682,37.262,40.904,43.426,25.887,6.138,9.342,8.397
1738,0.688,37.359,41.035,43.446,25.894,6.22,9.382,8.438
1739,0.688,37.029,40.932,43.455,25.898,6.22,9.506,8.561
1740,0.695,37.165,41.058,43.426,25.894,6.22,9.465,8.602
1741,0.685,37.281,40.877,43.465,25.887,6.179,9.547,8.52
1742,0.682,37.33,40.983,43.407,25.88,6.056,9.629,8.479
1743,0.692,36.991,41.058,43.455,25.891,6.262,9.793,8.684
1744,0.698,37.184,41.046,43.465,25.905,6.467,9.957,8.849
1745,0.688,37.262,41.125,43.417,25.894,6.262,9.999,8.684
1746,0.692,37.31,40.972,43.446,25.894,6.302,10.122,8.602
1747,0.685,37.049,41.07,43.446,25.894,6.302,10.327,8.684
1748,0.688,37.184,40.889,43.436,25.894,6.262,10.368,8.644
1749,0.698,37.31,41.023,43.446,25.894,6.385,10.45,8.684
1750,0.698,37.339,40.897,43.455,25.898,6.385,10.574,8.849
1751,0.692,37.0,41.102,43.446,25.894,6.426,10.656,8.767
1752,0.675,37.126,40.841,43.436,25.891,6.343,10.532,8.726
1753,0.678,37.214,40.928,43.397,25.884,6.343,10.574,8.684
1754,0.705,37.262,41.046,43.426,25.898,6.426,10.656,8.808
1755,0.728,37.02,40.987,43.465,25.908,6.631,10.738,8.972
1756,0.708,37.097,41.106,43.417,25.891,6.385,10.615,8.808
1757,0.698,37.214,40.975,43.446,25.891,6.385,10.738,8.849
1758,0.701,37.02,41.125,43.436,25.894,6.467,10.82,8.89
1759,0.688,37.029,40.889,43.417,25.891,6.343,10.82,8.849
1760,0.695,37.175,41.05,43.436,25.891,6.426,10.943,8.931
1761,0.698,37.272,40.952,43.426,25.901,6.467,11.025,8.931
1762,0.705,36.923,41.113,43.417,25.894,6.426,11.066,9.013
1763,0.675,37.039,41.113,43.426,25.894,6.302,10.984,8.931
1764,0.669,37.136,40.904,43.397,25.894,6.343,10.984,8.931
1765,0.695,37.262,41.086,43.504,25.894,6.467,11.066,9.013
1766,0.711,36.904,40.956,43.475,25.908,6.508,11.231,9.095
1767,0.695,37.02,41.039,43.417,25.887,6.343,11.149,8.972
1768,0.698,37.126,40.912,43.426,25.891,6.343,11.231,8.931
1769,0.708,37.194,41.074,43.436,25.898,6.385,11.231,8.972
1770,0.698,36.855,40.904,43.397,25.894,6.22,11.231,8.89
1771,0.718,37.02,41.046,43.426,25.891,6.343,11.189,8.89
1772,0.724,37.136,40.908,43.446,25.898,6.343,11.313,8.972
1773,0.695,37.165,41.078,43.426,25.891,6.385,11.189,8.89
1774,0.695,36.787,40.936,43.407,25.887,6.179,11.066,8.767
1775,0.682,36.913,41.019,43.397,25.887,6.179,10.943,8.849
1776,0.698,37.068,41.046,43.426,25.898,6.262,11.025,8.849
1777,0.695,37.117,40.94,43.455,25.908,6.385,11.149,8.972
1778,0.675,36.923,40.987,43.455,25.891,6.262,10.82,8.931
1779,0.678,37.078,40.956,43.417,25.898,6.179,10.779,8.767
1780,0.698,37.175,41.113,43.417,25.894,6.22,10.779,8.931
1781,0.685,37.436,40.968,43.426,25.898,6.138,10.656,8.89
1782,0.688,36.855,41.066,43.513,25.891,6.22,10.615,8.767
1783,0.685,37.0,40.885,43.446,25.898,6.22,10.656,8.931
1784,0.682,37.097,41.046,43.407,25.891,6.138,10.574,8.849
1785,0.682,36.797,40.928,43.426,25.891,6.056,10.532,8.726
1786,0.665,36.807,41.094,43.388,25.891,6.056,10.615,8.726
1787,0.688,36.962,41.102,43.426,25.894,6.138,10.656,8.849
1788,0.701,37.088,41.039,43.455,25.908,6.262,10.943,8.849
1789,0.698,36.71,40.944,43.417,25.887,6.138,10.779,8.684
1790,0.695,36.855,40.972,43.407,25.894,6.097,10.82,8.602
1791,0.695,36.962,41.086,43.436,25.894,6.097,10.82,8.684
1792,0.701,37.02,40.987,43.407,25.894,6.097,10.902,8.684
1793,0.721,36.623,41.007,43.407,25.894,6.056,10.779,8.561
1794,0.715,36.787,40.924,43.426,25.894,6.138,10.861,8.602
1795,0.701,36.894,41.05,43.407,25.894,6.097,10.779,8.644
1796,0.698,36.942,40.912,43.388,25.887,6.015,10.656,8.479
1797,0.688,36.71,41.046,43.388,25.884,6.056,10.615,8.644
1798,0.698,36.874,40.92,43.426,25.894,6.056,10.656,8.644
1799,0.695,37.02,41.082,43.436,25.901,6.179,10.738,8.684
1800,0.685,37.039,40.901,43.407,25.887,5.974,10.491,8.602
1801,0.688,36.681,40.983,43.397,25.891,6.015,10.327,8.602
1802,0.698,36.826,41.058,43.397,25.894,6.015,10.409,8.684
1803,0.695,36.923,41.015,43.417,25.898,6.056,10.409,8.726
1804,0.678,36.971,41.09,43.397,25.891,6.056,10.245,8.644
1805,0.678,36.652,40.881,43.407,25.901,6.056,10.286,8.684
1806,0.688,36.787,40.948,43.407,25.901,6.015,10.327,8.684
1807,0.675,36.865,40.774,43.397,25.887,5.933,10.163,8.602
1808,0.682,37.097,41.019,43.407,25.894,5.974,10.368,8.684
1809,0.688,36.71,40.912,43.407,25.898,5.974,10.491,8.767
1810,0.711,36.836,41.11,43.426,25.898,6.056,10.574,8.767
1811,0.695,36.913,40.83,43.388,25.884,5.892,10.45,8.767
1812,0.692,36.535,41.042,43.368,25.884,5.851,10.491,8.684
1813,0.701,36.594,40.936,43.407,25.898,6.056,10.738,8.808
1814,0.701,36.72,41.078,43.407,25.894,6.015,10.738,8.849
1815,0.708,36.797,40.96,43.388,25.891,5.974,10.615,8.767
1816,0.721,36.535,41.078,43.407,25.894,5.933,10.738,8.808
1817,0.698,36.69,41.102,43.397,25.894,5.974,10.697,8.849
1818,0.672,36.797,40.944,43.378,25.891,5.851,10.574,8.808
1819,0.675,36.894,41.098,43.397,25.891,5.851,10.656,8.89
1820,0.692,36.41,40.936,43.407,25.901,6.015,10.615,8.972
1821,0.701,36.574,41.129,43.407,25.901,5.974,10.615,8.972
1822,0.682,36.652,40.912,43.378,25.884,5.81,10.532,8.89
1823,0.672,36.739,41.035,43.455,25.884,5.81,10.327,8.89
1824,0.685,36.526,40.901,43.388,25.891,5.851,10.368,9.054
1825,0.682,36.661,41.086,43.388,25.894,5.851,10.327,9.095
1826,0.675,36.797,40.956,43.368,25.894,5.851,10.204,8.931
1827,0.685,36.836,41.121,43.397,25.901,5.933,10.245,9.095
1828,0.682,36.322,40.964,43.378,25.898,5.892,10.204,9.136
1829,0.672,36.439,41.078,43.359,25.894,5.851,9.999,9.013
1830,0.669,36.574,40.916,43.378,25.894,5.851,10.04,9.095
1831,0.678,36.623,41.031,43.397,25.894,5.933,9.957,9.177
1832,0.685,36.439,40.96,43.436,25.912,6.015,9.957,9.259
1833,0.675,36.516,41.05,43.368,25.898,5.892,9.752,9.054
1834,0.678,36.632,40.853,43.359,25.891,5.81,9.67,8.972
1835,0.682,36.7,41.035,43.446,25.898,5.933,9.752,9.136
1836,0.688,36.332,41.035,43.368,25.894,5.851,9.752,9.095
1837,0.695,36.477,40.956,43.368,25.891,5.892,9.752,9.136
1838,0.701,36.594,41.058,43.388,25.901,5.974,9.876,9.095
1839,0.698,36.235,40.987,43.378,25.887,5.933,9.876,9.136
1840,0.692,36.264,41.054,43.359,25.887,5.933,9.834,9.054
1841,0.695,36.419,40.901,43.359,25.887,5.974,9.793,9.095
1842,0.695,36.535,41.035,43.388,25.894,6.015,9.916,9.136
1843,0.695,36.371,41.05,43.397,25.905,6.056,9.916,9.177
1844,0.682,36.458,41.035,43.359,25.887,5.974,9.711,9.013
1845,0.678,36.574,41.078,43.349,25.891,5.933,9.67,8.931
1846,0.678,36.652,40.928,43.368,25.891,6.015,9.67,9.054
1847,0.675,36.032,41.003,43.368,25.898,5.933,9.629,9.054
1848,0.675,36.187,40.845,43.407,25.894,5.933,9.629,8.972
1849,0.695,36.332,41.023,43.359,25.894,6.056,9.752,9.013
1850,0.685,36.371,41.011,43.359,25.891,6.015,9.629,8.972
1851,0.672,36.167,41.003,43.339,25.887,5.974,9.465,8.931
1852,0.685,36.322,41.05,43.436,25.891,5.974,9.629,8.89
1853,0.698,36.439,40.975,43.368,25.898,6.015,9.793,8.972
1854,0.701,36.535,41.066,43.407,25.908,6.138,9.999,9.013
1855,0.672,36.09,40.995,43.359,25.891,5.974,10.04,8.767
1856,0.678,36.245,41.141,43.368,25.898,5.974,10.245,8.767
1857,0.678,36.351,40.987,43.359,25.898,6.097,10.45,8.931
1858,0.675,36.381,41.094,43.339,25.891,5.974,10.697,8.808
1859,0.692,36.071,40.865,43.359,25.887,5.974,10.82,8.808
1860,0.688,36.216,41.007,43.378,25.901,6.138,11.108,8.89
1861,0.682,36.322,41.054,43.349,25.894,5.974,11.189,8.89
1862,0.688,36.264,41.011,43.339,25.894,5.974,11.272,8.726
1863,0.688,36.09,41.007,43.32,25.884,5.974,11.313,8.726
1864,0.688,36.264,40.924,43.446,25.894,6.056,11.436,8.931
1865,0.692,36.371,41.046,43.397,25.905,6.097,11.683,8.972
1866,0.692,35.906,40.932,43.339,25.894,5.974,11.477,8.808
1867,0.695,35.993,41.098,43.359,25.898,6.015,11.559,8.808
1868,0.685,36.119,40.944,43.349,25.887,6.056,11.641,8.89
1869,0.678,36.187,41.102,43.32,25.891,6.056,11.641,8.767
1870,0.682,35.945,40.881,43.339,25.891,6.056,11.6,8.849
1871,0.698,36.129,41.019,43.378,25.891,6.138,11.559,8.931
1872,0.701,36.264,41.094,43.388,25.898,6.138,11.559,8.849
1873,0.685,36.293,41.042,43.339,25.887,6.056,11.436,8.767
1874,0.692,35.761,41.082,43.32,25.887,6.056,11.272,8.726
1875,0.692,35.906,40.912,43.349,25.887,6.138,11.395,8.808
1876,0.682,36.042,40.987,43.349,25.891,6.138,11.395,8.849
1877,0.682,36.1,40.837,43.339,25.891,6.097,11.313,8.726
1878,0.692,35.935,41.054,43.359,25.898,6.22,11.354,8.808
1879,0.701,36.09,40.928,43.349,25.891,6.138,11.272,8.849
1880,0.705,36.177,41.121,43.33,25.88,6.056,11.189,8.808
1881,0.685,36.216,40.881,43.33,25.887,6.138,11.313,8.808
1882,0.688,35.857,41.035,43.349,25.898,6.262,11.477,8.808
1883,0.692,36.012,41.019,43.378,25.905,6.385,11.764,9.013
1884,0.655,36.1,41.035,43.33,25.891,6.097,11.929,8.849
1885,0.672,36.119,41.113,43.33,25.891,6.22,12.134,8.808
1886,0.688,35.867,41.046,43.339,25.901,6.179,12.586,8.849
1887,0.698,36.003,41.113,43.32,25.887,6.056,12.75,8.808
1888,0.711,36.119,40.912,43.349,25.891,6.179,12.915,8.808
1889,0.701,35.993,41.07,43.359,25.891,6.179,13.161,8.89
1890,0.708,35.838,40.924,43.349,25.898,6.22,13.202,8.849
1891,0.708,35.935,41.117,43.33,25.898,6.097,13.243,8.808
1892,0.715,36.022,40.904,43.31,25.877,6.097,13.366,8.726
1893,0.728,35.606,41.046,43.436,25.894,6.179,13.571,8.849
1894,0.734,35.712,41.05,43.339,25.901,6.22,13.613,8.931
1895,0.741,35.828,40.995,43.33,25.898,6.22,13.571,8.767
1896,0.734,35.925,41.106,43.33,25.898,6.22,13.654,8.89
1897,0.715,35.644,40.991,43.33,25.894,6.138,13.613,8.849
1898,0.721,35.77,41.102,43.3,25.891,6.138,13.448,8.767
1899,0.721,35.916,40.944,43.33,25.898,6.138,13.448,8.849
1900,0.738,36.003,41.078,43.349,25.894,6.22,13.49,8.808
1901,0.741,35.664,40.924,43.339,25.901,6.262,13.49,8.849
1902,0.734,35.77,41.074,43.3,25.887,6.138,13.366,8.808
1903,0.741,35.877,41.054,43.31,25.88,6.097,13.284,8.767
1904,0.767,35.954,41.011,43.33,25.891,6.302,13.325,8.89
1905,0.784,35.586,40.991,43.339,25.901,6.343,13.325,8.931
1906,0.79,35.712,41.027,43.378,25.887,6.22,13.202,8.89
1907,0.797,35.848,41.039,43.33,25.901,6.302,13.202,8.931
1908,0.787,35.867,40.983,43.31,25.891,6.302,13.12,8.931
1909,0.774,35.528,41.062,43.31,25.884,6.302,12.915,8.849
1910,0.784,35.664,40.972,43.31,25.891,6.262,12.873,9.013
1911,0.787,35.79,40.964,43.349,25.898,6.302,12.791,9.013
1912,0.816,35.838,40.916,43.339,25.898,6.343,12.709,8.972
1913,0.803,35.509,41.07,43.3,25.891,6.22,12.545,8.931
1914,0.803,35.644,40.956,43.291,25.894,6.22,12.381,8.89
1915,0.813,35.77,41.086,43.31,25.898,6.302,12.339,9.054
1916,0.816,35.606,41.082,43.32,25.898,6.343,12.298,9.136
1917,0.826,35.557,40.999,43.31,25.894,6.302,12.052,9.095
1918,0.846,35.702,41.062,43.32,25.894,6.385,11.97,9.218
1919,0.833,35.799,40.916,43.3,25.891,6.262,11.806,9.136
1920,0.83,35.393,41.05,43.281,25.887,6.262,11.6,9.177
1921,0.839,35.518,40.936,43.271,25.887,6.22,11.518,9.177
1922,0.859,35.683,41.031,43.291,25.898,6.343,11.518,9.218
1923,0.853,35.79,40.912,43.349,25.908,6.343,11.477,9.342
1924,0.843,35.354,41.035,43.291,25.887,6.22,11.231,9.177
1925,0.83,35.528,40.924,43.3,25.887,6.179,11.189,9.136
1926,0.826,35.625,41.11,43.3,25.891,6.302,11.272,9.095
1927,0.823,35.683,40.991,43.291,25.891,6.262,11.189,9.177
1928,0.823,35.334,41.141,43.291,25.894,6.138,11.231,9.136
1929,0.83,35.489,41.054,43.3,25.898,6.262,11.272,9.136
1930,0.816,35.606,41.007,43.291,25.894,6.138,11.272,9.136
1931,0.81,35.673,41.094,43.281,25.887,6.097,11.149,9.095
1932,0.784,35.189,41.003,43.262,25.891,6.138,11.313,9.095
1933,0.79,35.373,41.102,43.291,25.898,6.138,11.477,9.177
1934,0.807,35.518,40.904,43.33,25.905,6.262,11.723,9.259
1935,0.787,35.548,41.074,43.3,25.887,6.097,11.683,9.095
1936,0.787,35.402,40.881,43.291,25.898,6.138,11.888,9.054
1937,0.757,35.538,41.054,43.33,25.894,6.056,12.011,9.136
1938,0.754,35.644,40.877,43.291,25.894,6.056,12.011,9.095
1939,0.747,35.664,41.102,43.291,25.891,6.056,12.052,9.218
1940,0.747,35.209,41.042,43.3,25.894,6.179,12.175,9.218
1941,0.751,35.364,41.023,43.32,25.898,6.138,12.175,9.259
1942,0.744,35.412,41.066,43.271,25.887,6.138,12.175,9.136
1943,0.728,35.257,40.972,43.262,25.88,6.056,12.175,9.136
1944,0.751,35.286,41.145,43.291,25.894,6.22,12.381,9.342
1945,0.738,35.412,40.999,43.31,25.905,6.385,12.504,9.424
1946,0.731,35.499,41.094,43.281,25.894,6.22,12.339,9.342
1947,0.721,35.112,40.92,43.3,25.898,6.343,12.463,9.301
1948,0.724,35.257,40.979,43.281,25.891,6.302,12.381,9.301
1949,0.724,35.344,40.881,43.271,25.887,6.343,12.257,9.218
1950,0.734,35.46,41.035,43.291,25.894,6.385,12.298,9.259
1951,0.744,35.121,41.098,43.3,25.898,6.467,12.257,9.342
1952,0.744,35.296,41.011,43.31,25.898,6.426,12.134,9.342
1953,0.731,35.373,41.039,43.262,25.887,6.426,12.011,9.177
1954,0.721,35.451,40.979,43.262,25.887,6.385,11.806,9.136
1955,0.728,35.054,41.102,43.291,25.898,6.467,11.888,9.218
1956,0.721,35.218,41.074,43.3,25.894,6.549,11.764,9.342
1957,0.708,35.334,41.141,43.281,25.894,6.467,11.6,9.177
1958,0.708,35.402,41.039,43.291,25.891,6.467,11.559,9.177
1959,0.695,35.102,41.042,43.291,25.894,6.467,11.395,9.177
1960,0.688,35.238,40.904,43.252,25.887,6.343,11.272,9.177
1961,0.682,35.334,41.058,43.281,25.894,6.467,11.149,9.177
1962,0.672,35.402,40.948,43.291,25.901,6.467,11.149,9.259
1963,0.682,35.102,41.031,43.3,25.901,6.426,11.025,9.218
1964,0.662,35.218,40.904,43.271,25.891,6.426,10.82,9.095
1965,0.659,35.334,41.023,43.262,25.88,6.262,10.697,9.013
1966,0.672,35.393,40.995,43.281,25.905,6.302,10.779,9.177
1967,0.672,35.112,40.995,43.32,25.901,6.467,10.738,9.218
1968,0.662,35.238,41.066,43.271,25.894,6.343,10.491,9.095
1969,0.662,35.354,40.995,43.271,25.891,6.385,10.491,9.136
1970,0.649,35.112,41.042,43.291,25.894,6.385,10.286,9.136
1971,0.669,35.063,40.904,43.252,25.88,6.22,10.245,9.013
1972,0.662,35.209,41.07,43.281,25.894,6.262,10.122,9.054
1973,0.675,35.305,40.975,43.281,25.898,6.302,10.081,9.013
1974,0.675,34.899,41.133,43.271,25.898,6.302,10.081,9.013
1975,0.652,34.995,40.912,43.271,25.884,6.179,9.916,8.931
1976,0.646,35.102,41.003,43.233,25.887,6.097,9.834,8.849
1977,0.662,35.218,40.834,43.291,25.891,6.179,9.999,9.013
1978,0.646,34.957,41.007,43.3,25.905,6.22,9.957,9.136
1979,0.616,35.063,41.023,43.262,25.887,6.179,9.834,8.931
1980,0.623,35.218,41.042,43.271,25.901,6.138,9.793,9.095
1981,0.636,35.296,41.102,43.271,25.898,6.138,9.752,9.054
1982,0.665,34.87,40.956,43.252,25.884,6.015,9.629,8.931
1983,0.649,35.034,41.094,43.271,25.894,6.138,9.711,9.095
1984,0.649,35.17,40.944,43.281,25.894,6.097,9.957,9.136
1985,0.649,35.247,41.113,43.281,25.894,6.097,9.916,9.095
1986,0.642,34.899,40.991,43.242,25.884,6.056,9.957,8.972
1987,0.649,35.034,41.094,43.233,25.88,5.974,10.204,9.013
1988,0.652,35.16,41.113,43.262,25.891,6.097,10.615,9.095
1989,0.659,35.218,41.062,43.368,25.901,6.22,10.902,9.301
1990,0.636,34.87,41.074,43.262,25.887,6.056,10.943,9.095
1991,0.642,34.995,41.003,43.262,25.891,6.138,11.066,9.095
1992,0.632,35.112,41.117,43.252,25.894,6.138,11.313,9.177
1993,0.629,35.431,40.92,43.262,25.884,6.056,11.477,9.054
1994,0.642,34.976,41.102,43.252,25.891,6.097,11.559,9.136
1995,0.662,35.121,40.948,43.271,25.901,6.138,11.683,9.177
1996,0.652,35.247,41.102,43.252,25.898,6.097,11.723,9.095
1997,0.646,34.734,40.96,43.252,25.884,5.974,11.723,9.095
1998,0.642,34.715,41.106,43.233,25.887,5.974,11.764,9.095
1999,0.636,34.87,40.999,43.262,25.898,6.056,11.888,9.218
2000,0.623,34.995,41.113,43.359,25.894,6.097,11.97,9.382
2001,0.623,34.705,41.054,43.252,25.894,5.974,11.929,9.259
2002,0.636,34.87,41.074,43.271,25.901,6.138,11.888,9.259
2003,0.619,34.995,41.153,43.271,25.894,6.015,11.888,9.301
2004,0.623,35.054,40.968,43.262,25.891,6.015,11.723,9.218
2005,0.616,34.763,41.039,43.271,25.901,6.015,11.764,9.259
2006,0.623,34.928,40.932,43.291,25.898,6.056,11.723,9.342
2007,0.629,35.015,41.062,43.262,25.887,5.974,11.641,9.259
2008,0.619,35.083,40.885,43.242,25.884,5.974,11.559,9.177
2009,0.629,34.579,41.07,43.233,25.891,5.892,11.518,9.177
2010,0.649,34.773,41.137,43.262,25.901,5.974,11.559,9.259
2011,0.665,34.928,40.999,43.291,25.912,6.138,11.723,9.342
2012,0.652,34.928,41.086,43.252,25.891,5.851,11.477,9.136
2013,0.652,34.84,40.948,43.252,25.894,5.851,11.436,9.095
2014,0.659,34.986,41.129,43.252,25.894,5.933,11.436,9.177
2015,0.652,35.092,40.956,43.233,25.891,5.851,11.354,9.136
2016,0.646,35.131,41.11,43.242,25.891,5.892,11.354,9.095
2017,0.649,34.54,41.062,43.262,25.901,5.933,11.354,9.177
2018,0.649,34.686,40.936,43.262,25.891,5.851,11.231,9.095
2019,0.649,34.792,41.066,43.233,25.887,5.81,10.984,9.013
2020,0.646,35.063,40.92,43.233,25.887,5.81,10.984,9.054
2021,0.659,34.802,41.129,43.252,25.901,5.892,10.984,9.095
2022,0.659,34.957,40.897,43.252,25.905,6.015,10.943,9.177
2023,0.632,35.044,41.039,43.349,25.894,5.851,10.697,8.931
2024,0.632,34.598,40.893,43.242,25.887,5.851,10.615,9.013
2025,0.636,34.637,41.019,43.271,25.891,5.81,10.615,8.972
2026,0.626,34.734,41.113,43.223,25.891,5.727,10.574,8.972
2027,0.626,34.86,40.999,43.242,25.894,5.768,10.491,9.013
2028,0.629,34.618,41.133,43.242,25.898,5.81,10.409,9.013
2029,0.629,34.734,40.991,43.252,25.894,5.768,10.409,9.013
2030,0.616,34.87,41.094,43.223,25.887,5.687,10.286,8.931
2031,0.626,34.937,40.948,43.223,25.88,5.687,10.245,8.931
2032,0.642,34.414,41.137,43.242,25.901,5.768,10.245,8.972
2033,0.672,34.598,40.995,43.281,25.901,5.892,10.327,9.095
2034,0.669,34.695,41.054,43.223,25.898,5.727,10.04,8.931
2035,0.685,34.782,40.964,43.3,25.891,5.727,10.04,8.808
2036,0.721,34.676,41.07,43.242,25.894,5.727,10.204,8.931
2037,0.751,34.802,40.897,43.262,25.887,5.768,10.245,8.972
2038,0.774,34.928,41.054,43.233,25.887,5.727,10.368,8.89
2039,0.816,35.005,40.928,43.262,25.894,5.81,10.574,8.931
2040,0.892,34.366,41.058,43.233,25.894,5.727,10.615,8.849
2041,0.954,34.501,41.078,43.223,25.891,5.727,10.615,8.767
2042,1.01,34.637,40.999,43.233,25.894,5.81,10.82,8.808
2043,1.06,34.705,41.11,43.233,25.891,5.81,10.902,9.013
2044,1.109,34.666,41.106,43.281,25.905,5.892,11.066,9.095
2045,1.145,34.763,41.165,43.223,25.887,5.727,10.984,8.931
2046,1.244,34.85,41.042,43.213,25.887,5.687,10.984,8.89
2047,1.365,34.899,41.102,43.233,25.898,5.81,11.108,9.013
2048,1.49,34.53,40.889,43.242,25.898,5.81,11.231,9.013
2049,1.589,34.666,41.086,43.233,25.891,5.768,11.231,9.054
2050,1.658,34.792,40.904,43.252,25.901,5.768,11.231,9.177
2051,1.75,34.385,41.09,43.233,25.891,5.727,11.272,9.259
2052,1.835,34.443,41.023,43.223,25.887,5.687,11.149,9.259
2053,1.924,34.56,40.987,43.213,25.894,5.768,11.189,9.301
2054,1.996,34.695,41.11,43.233,25.894,5.81,11.231,9.465
2055,2.098,34.482,41.054,43.252,25.905,5.892,11.272,9.629
2056,2.157,34.569,41.137,43.213,25.884,5.645,11.149,9.588
2057,2.226,34.715,41.058,43.204,25.887,5.727,11.066,9.588
2058,2.298,34.811,41.149,43.242,25.894,5.81,11.149,9.834
2059,2.321,34.414,40.956,43.223,25.898,5.727,11.189,9.876
2060,2.39,34.598,41.102,43.223,25.894,5.81,11.189,9.876
2061,2.443,34.724,40.948,43.233,25.901,5.851,11.313,9.999
2062,2.456,34.753,41.137,43.233,25.898,5.81,11.231,9.999
2063,2.367,34.308,40.975,43.223,25.884,5.768,11.189,10.04
2064,2.361,34.443,41.003,43.213,25.887,5.81,11.231,10.081
2065,2.364,34.598,41.082,43.32,25.894,5.892,11.313,10.204
2066,2.325,34.666,41.042,43.271,25.908,5.974,11.477,10.286
2067,2.246,34.308,41.066,43.223,25.891,5.892,11.436,10.163
2068,2.203,34.472,40.96,43.233,25.894,5.933,11.436,10.204
2069,2.164,34.579,41.106,43.213,25.894,5.974,11.6,10.491
2070,2.108,34.579,40.932,43.194,25.891,5.933,11.6,10.574
2071,1.993,34.443,41.066,43.233,25.891,5.933,11.764,10.738
2072,1.842,34.579,40.952,43.233,25.898,5.974,11.847,11.272
2073,1.73,34.686,41.09,43.223,25.891,5.974,11.929,11.6
2074,1.566,34.55,41.145,43.204,25.884,5.892,11.806,11.929
2075,1.408,34.288,41.023,43.194,25.88,5.851,11.723,12.339
2076,1.24,34.463,41.11,43.223,25.898,6.015,11.888,12.915
2077,1.06,34.56,41.027,43.233,25.905,6.015,11.929,13.284
2078,0.876,34.366,40.995,43.223,25.898,5.933,11.723,13.531
2079,0.715,34.492,40.991,43.242,25.901,6.015,11.723,13.818
2080,0.577,34.608,41.094,43.213,25.887,5.974,11.683,14.023
2081,0.488,34.676,41.039,43.184,25.891,5.81,11.477,14.105
2082,0.406,34.269,41.078,43.204,25.891,6.056,11.518,14.311
2083,0.366,34.443,40.928,43.233,25.891,5.933,11.395,14.557
2084,0.343,34.579,41.078,43.252,25.905,6.056,11.354,14.639
2085,0.288,34.618,40.912,43.204,25.894,5.974,11.189,14.557
2086,0.278,34.288,41.121,43.194,25.891,5.933,11.066,14.352
2087,0.271,34.463,40.968,43.213,25.891,5.974,11.231,14.516
2088,0.251,34.56,41.086,43.204,25.898,5.974,11.189,14.475
2089,0.261,34.637,41.113,43.194,25.891,6.015,11.149,14.393
2090,0.281,34.25,41.054,43.233,25.898,6.015,11.313,14.393
2091,0.32,34.385,41.094,43.213,25.898,6.015,11.231,14.27
2092,0.35,34.472,40.972,43.194,25.891,5.974,11.149,14.27
2093,0.38,34.521,41.11,43.165,25.891,5.974,11.313,14.311
2094,0.422,34.269,40.897,43.213,25.898,6.097,11.395,14.516
2095,0.472,34.453,41.015,43.233,25.905,6.179,11.559,14.68
2096,0.498,34.55,40.912,43.281,25.891,6.138,11.518,14.722
2097,0.514,34.579,41.019,43.213,25.894,6.056,11.559,14.927
2098,0.537,34.298,41.027,43.204,25.891,6.138,11.683,15.173
2099,0.57,34.434,41.023,43.194,25.894,6.097,11.723,15.42
2100,0.583,34.56,41.165,43.194,25.894,6.138,11.888,15.666
2101,0.619,34.395,40.968,43.204,25.901,6.262,12.011,15.871
2102,0.619,34.201,41.082,43.194,25.894,6.262,11.929,15.912
2103,0.629,34.298,40.948,43.184,25.887,6.179,11.97,15.953
2104,0.646,34.395,41.102,43.175,25.887,6.22,11.929,16.077
2105,0.669,34.153,40.968,43.194,25.901,6.302,12.011,16.159
2106,0.662,34.269,41.117,43.233,25.908,6.426,12.011,16.118
2107,0.646,34.366,41.141,43.194,25.891,6.22,11.723,15.871
2108,0.652,34.463,41.023,43.194,25.894,6.262,11.723,15.748
2109,0.642,34.075,41.137,43.194,25.898,6.262,11.723,15.666
2110,0.649,34.201,41.023,43.175,25.894,6.22,11.6,15.461
2111,0.662,34.327,41.149,43.194,25.898,6.262,11.6,15.297
2112,0.652,34.434,40.991,43.204,25.894,6.343,11.641,15.091
2113,0.675,34.172,41.09,43.213,25.898,6.22,11.683,14.845
2114,0.678,34.308,40.968,43.165,25.894,6.22,11.723,14.557
2115,0.659,34.414,41.09,43.136,25.887,6.179,11.723,14.352
2116,0.662,34.521,40.987,43.184,25.901,6.262,11.97,14.27
2117,0.675,34.075,41.133,43.194,25.908,6.426,12.052,14.188
2118,0.669,34.211,41.031,43.175,25.894,6.179,11.97,13.859
