time,ecg,bvp,gsr,rsp,skt,emg_zygo,emg_coru,emg_trap
0,0.721,36.176,27.414,34.773,26.35,5.071,9.671,15.708
1,0.728,35.861,27.46,34.773,26.35,5.07,9.548,15.87
2,0.738,36.001,27.456,34.782,26.357,5.111,9.588,15.993
3,0.751,36.108,27.48,34.754,26.35,5.071,9.507,16.157
4,0.754,36.196,27.523,34.773,26.353,5.111,9.506,16.525
5,0.748,35.87,27.523,34.773,26.35,5.071,9.506,16.894
6,0.747,35.992,27.519,34.773,26.357,5.07,9.465,17.345
7,0.76,36.127,27.473,34.763,26.347,4.948,9.262,17.756
8,0.774,36.205,27.468,34.792,26.353,5.029,9.3,18.208
9,0.78,35.899,27.531,34.802,26.357,5.151,9.341,18.741
10,0.787,36.04,27.516,34.783,26.364,5.234,9.301,19.193
11,0.79,36.147,27.43,34.802,26.364,5.113,9.26,19.604
12,0.787,36.177,27.46,34.792,26.357,5.193,9.178,19.853
13,0.777,35.985,27.476,34.783,26.36,5.072,9.015,20.18
14,0.78,36.108,27.46,34.792,26.357,5.111,9.054,20.428
15,0.774,36.215,27.495,34.773,26.357,5.071,9.135,20.674
16,0.774,36.264,27.535,34.802,26.36,5.111,9.055,20.92
17,0.767,35.977,27.453,34.812,26.371,5.315,9.217,21.248
18,0.757,36.098,27.476,34.792,26.367,5.114,9.259,21.373
19,0.761,36.176,27.468,34.754,26.35,5.071,9.178,21.374
20,0.754,35.947,27.531,34.773,26.346,4.989,9.137,21.334
21,0.761,35.945,27.492,34.782,26.353,4.988,9.258,21.211
22,0.757,36.079,27.429,34.783,26.353,4.988,9.219,21.129
23,0.764,36.186,27.397,34.783,26.35,5.029,9.3,21.006
24,0.78,35.87,27.467,34.811,26.357,5.03,9.423,20.72
25,0.793,36.011,27.453,34.792,26.353,5.03,9.424,20.555
26,0.79,36.089,27.46,34.754,26.343,5.03,9.383,20.35
27,0.8,36.176,27.515,34.754,26.346,4.989,9.382,20.104
28,0.803,35.87,27.48,34.782,26.357,5.029,9.464,19.939
29,0.816,36.001,27.472,34.792,26.36,5.151,9.505,19.856
30,0.836,36.127,27.511,34.783,26.364,5.112,9.506,19.692
31,0.826,36.186,27.531,34.783,26.36,5.112,9.506,19.528
32,0.82,35.842,27.527,34.773,26.36,5.152,9.506,19.648
33,0.813,35.972,27.449,34.782,26.357,5.112,9.384,20.056
34,0.813,36.089,27.413,34.783,26.36,5.071,9.423,20.629
35,0.8,36.147,27.417,34.792,26.353,5.07,9.342,21.204
36,0.816,35.88,27.464,34.802,26.357,5.03,9.423,22.023
37,0.813,36.002,27.534,34.802,26.367,5.273,9.424,23.292
38,0.794,36.108,27.469,34.783,26.367,5.154,9.424,24.972
39,0.8,36.138,27.464,34.763,26.347,4.99,9.302,26.533
40,0.8,36.445,27.452,34.773,26.353,5.029,9.178,27.891
41,0.794,36.583,27.495,34.773,26.346,4.907,9.218,29.124
42,0.797,36.68,27.531,34.782,26.36,4.987,9.218,30.031
43,0.816,36.499,27.531,34.763,26.353,4.988,9.178,30.487
44,0.823,35.634,27.5,34.763,26.36,5.029,9.137,30.695
45,0.826,35.75,27.457,34.792,26.353,5.03,9.177,30.575
46,0.839,35.837,27.472,34.773,26.35,4.989,9.137,30.289
47,0.833,35.819,27.468,34.782,26.35,4.907,9.095,29.758
48,0.852,35.943,27.538,34.783,26.357,4.987,9.136,29.305
49,0.859,36.069,27.445,34.802,26.353,4.988,9.177,28.731
50,0.866,36.157,27.46,34.783,26.357,5.029,9.259,28.075
51,0.856,35.784,27.456,34.802,26.357,5.03,9.178,27.581
52,0.859,35.933,27.507,34.792,26.364,5.07,9.218,27.169
53,0.856,36.06,27.531,34.783,26.364,5.111,9.218,26.677
54,0.853,36.128,27.531,34.792,26.357,5.071,9.178,26.306
55,0.846,35.774,27.547,34.792,26.357,5.03,9.218,25.774
56,0.856,35.953,27.446,34.821,26.364,5.03,9.178,25.362
57,0.846,36.089,27.491,34.821,26.367,5.192,9.38,24.951
58,0.846,36.119,27.515,34.793,26.361,5.112,9.382,24.581
59,0.84,35.831,27.508,34.773,26.357,5.03,9.261,23.886
60,0.83,35.982,27.394,34.773,26.357,4.989,9.219,23.514
61,0.836,36.089,27.456,34.773,26.353,4.948,9.259,23.185
62,0.846,36.138,27.46,34.792,26.353,5.029,9.259,22.897
63,0.849,35.736,27.456,34.773,26.353,4.948,9.3,22.691
64,0.859,35.895,27.515,34.792,26.36,5.029,9.382,22.404
65,0.866,35.992,27.512,34.792,26.35,4.989,9.382,22.117
66,0.856,35.974,27.508,34.773,26.357,4.988,9.342,21.829
67,0.866,35.964,27.469,34.754,26.34,4.866,9.26,21.46
68,0.889,36.098,27.488,34.782,26.353,5.028,9.259,21.213
69,0.885,36.205,27.527,34.802,26.357,5.07,9.341,20.966
70,0.898,35.938,27.492,34.792,26.36,5.03,9.342,20.761
71,0.899,35.82,27.414,34.802,26.36,5.07,9.26,20.799
72,0.912,35.953,27.456,34.792,26.364,5.03,9.3,20.881
73,0.902,36.06,27.46,34.792,26.36,5.07,9.26,20.963
74,0.895,35.84,27.468,34.792,26.36,5.03,9.341,21.086
75,0.892,35.972,27.48,34.783,26.36,5.03,9.301,21.087
76,0.905,36.108,27.507,34.811,26.36,5.03,9.382,20.924
77,0.899,36.186,27.445,34.821,26.367,5.03,9.423,20.963
78,0.886,35.746,27.456,34.783,26.364,4.989,9.261,20.72
79,0.889,35.875,27.472,34.783,26.35,4.866,9.178,20.392
80,0.882,35.982,27.527,34.763,26.353,4.906,9.137,20.023
81,0.892,36.06,27.496,34.763,26.357,4.906,9.136,19.735
82,0.899,35.792,27.433,34.782,26.353,4.906,9.177,19.447
83,0.908,35.953,27.386,34.783,26.36,4.947,9.259,19.2
84,0.925,36.069,27.448,34.84,26.353,4.907,9.259,19.035
85,0.905,36.109,27.425,34.774,26.35,5.028,9.259,18.871
86,0.915,35.85,27.448,34.763,26.353,4.867,9.259,18.788
87,0.938,36.001,27.476,34.773,26.35,4.906,9.259,18.625
88,0.951,36.147,27.488,34.811,26.357,4.947,9.341,18.582
89,0.948,36.167,27.464,34.792,26.357,4.988,9.423,18.501
90,0.961,35.861,27.48,34.802,26.357,4.988,9.342,18.256
91,0.971,35.992,27.538,34.802,26.357,5.029,9.382,18.091
92,0.971,36.089,27.504,34.764,26.357,4.948,9.382,17.886
93,0.961,36.378,27.48,34.782,26.353,4.988,9.464,17.843
94,0.968,35.786,27.46,34.792,26.357,5.029,9.424,17.802
95,0.981,35.933,27.48,34.85,26.36,4.948,9.383,17.802
96,0.971,36.069,27.464,34.812,26.367,5.15,9.505,18.086
97,0.961,35.783,27.511,34.792,26.364,5.153,9.465,18.13
98,0.964,35.809,27.48,34.763,26.364,5.031,9.343,18.008
99,0.971,35.934,27.449,34.763,26.354,4.989,9.26,17.926
100,0.968,36.05,27.448,34.773,26.346,4.988,9.259,17.803
101,0.977,35.754,27.484,34.773,26.346,4.948,9.341,17.72
102,0.977,35.885,27.542,34.763,26.353,4.947,9.342,17.638
103,0.997,36.03,27.531,34.773,26.357,4.988,9.423,17.637
104,1.004,36.099,27.512,34.792,26.36,4.988,9.383,17.597
105,0.997,35.754,27.469,34.773,26.35,4.988,9.342,17.474
106,1.013,35.914,27.464,34.773,26.346,4.907,9.26,17.31
107,1.023,36.05,27.468,34.773,26.35,4.987,9.381,17.227
108,1.036,36.118,27.531,34.782,26.36,5.029,9.464,17.145
109,1.05,35.735,27.457,34.792,26.357,5.111,9.587,17.022
110,1.063,35.895,27.476,34.792,26.364,5.112,9.629,16.859
111,1.06,35.992,27.456,34.773,26.36,4.989,9.751,16.613
112,1.066,36.031,27.476,34.773,26.36,5.029,9.833,16.529
113,1.053,35.878,27.531,34.782,26.35,5.03,9.834,16.447
114,1.053,36.002,27.531,34.783,26.357,4.989,9.916,16.487
115,1.079,36.137,27.527,34.783,26.367,5.029,10.079,16.65
116,1.07,36.158,27.477,34.802,26.374,5.192,10.243,16.855
117,1.063,35.832,27.46,34.792,26.357,5.112,10.164,17.182
118,1.073,35.934,27.484,34.754,26.357,4.989,10.163,17.226
119,1.069,36.021,27.515,34.754,26.35,4.988,10.041,17.471
120,1.066,36.061,27.453,34.754,26.35,4.948,10.162,17.758
121,1.066,36.051,27.437,34.763,26.35,4.988,10.163,18.005
122,1.079,36.205,27.444,34.773,26.357,4.948,10.122,18.291
123,1.083,36.283,27.46,34.763,26.353,4.988,10.122,18.823
124,1.083,35.756,27.484,34.763,26.35,4.988,10.163,19.316
125,1.092,35.837,27.503,34.725,26.343,4.948,9.96,19.728
126,1.109,35.982,27.523,34.753,26.353,4.947,9.957,20.179
127,1.115,36.098,27.484,34.773,26.357,4.988,10.08,20.712
128,1.122,35.812,27.468,34.792,26.357,5.07,10.121,21.083
129,1.129,35.934,27.492,34.773,26.367,5.07,9.959,21.372
130,1.145,36.05,27.48,34.754,26.361,5.03,9.917,21.415
131,1.142,36.147,27.445,34.773,26.36,4.989,9.916,21.497
132,1.145,35.975,27.452,34.792,26.357,5.029,9.754,21.457
133,1.129,36.127,27.441,34.763,26.353,4.948,9.752,21.335
134,1.142,36.273,27.444,34.754,26.357,5.069,9.712,21.211
135,1.142,36.322,27.464,34.811,26.371,5.152,9.833,21.088
136,1.122,36.159,27.492,34.773,26.357,5.071,9.712,20.884
137,1.125,36.292,27.453,34.754,26.353,5.03,9.508,20.435
138,1.119,36.418,27.456,34.734,26.357,4.948,9.425,20.023
139,1.125,36.429,27.448,34.753,26.357,4.866,9.302,19.775
140,1.129,36.218,27.507,34.754,26.35,4.906,9.301,19.57
141,1.132,36.369,27.519,34.754,26.35,4.947,9.301,19.567
142,1.129,36.467,27.488,34.763,26.353,4.988,9.178,19.486
143,1.148,36.631,27.414,34.725,26.357,5.029,9.096,19.648
144,1.135,36.402,27.393,34.724,26.353,4.989,9.054,19.609
145,1.135,36.544,27.436,34.734,26.343,4.826,8.932,19.527
146,1.168,36.641,27.444,34.753,26.353,4.987,8.972,19.445
147,1.175,36.46,27.523,34.773,26.36,4.988,8.931,19.404
148,1.171,36.496,27.465,34.763,26.357,5.029,9.012,19.362
149,1.168,36.602,27.476,34.754,26.36,5.03,8.932,19.199
150,1.188,36.699,27.445,34.754,26.353,4.989,8.89,18.913
151,1.184,36.575,27.499,34.754,26.36,4.988,8.849,18.626
152,1.175,36.699,27.543,34.734,26.364,4.988,8.767,18.542
153,1.175,36.815,27.52,34.744,26.354,5.029,8.807,18.622
154,1.178,36.893,27.5,34.763,26.357,4.989,8.726,18.786
155,1.184,36.721,27.441,34.763,26.364,5.07,8.807,18.99
156,1.168,36.844,27.48,34.763,26.367,5.193,8.889,19.643
157,1.152,36.941,27.46,34.734,26.354,5.031,8.727,20.585
158,1.142,36.99,27.515,34.705,26.353,4.907,8.726,21.773
159,1.145,36.885,27.445,34.734,26.353,4.987,8.726,23.086
160,1.142,37.028,27.472,34.734,26.353,4.907,8.644,24.278
161,1.132,37.145,27.456,34.715,26.353,4.906,8.765,25.185
162,1.135,37.174,27.484,34.753,26.353,4.947,8.767,25.885
163,1.148,37.165,27.511,34.725,26.35,4.988,8.685,26.461
164,1.145,37.28,27.531,34.744,26.357,4.988,8.807,26.67
165,1.132,37.348,27.508,34.686,26.343,4.907,8.767,26.672
166,1.155,37.387,27.433,34.724,26.343,4.865,8.604,26.469
167,1.161,37.234,27.456,34.744,26.353,4.906,8.724,26.304
168,1.168,37.338,27.476,34.734,26.364,5.028,8.807,25.977
169,1.175,37.426,27.507,34.725,26.364,5.07,8.686,25.527
170,1.168,37.522,27.429,34.744,26.357,5.03,8.725,25.278
171,1.155,37.475,27.46,34.725,26.36,4.989,8.726,25.154
172,1.152,37.58,27.464,34.724,26.364,4.988,8.644,25.071
173,1.135,37.668,27.48,34.734,26.367,4.988,8.644,24.989
174,1.129,37.563,27.515,34.753,26.357,4.988,8.725,24.866
175,1.125,37.668,27.531,34.763,26.367,5.07,8.807,24.865
176,1.103,37.774,27.52,34.754,26.367,5.111,8.93,24.825
177,1.073,37.823,27.465,34.734,26.354,4.989,8.809,24.621
178,1.063,37.651,27.468,34.715,26.35,4.907,8.808,24.334
179,1.063,37.803,27.499,34.705,26.357,4.906,8.808,24.128
180,1.047,37.91,27.476,34.734,26.35,4.987,8.808,23.963
181,1.04,37.997,27.402,34.725,26.35,4.948,8.93,23.921
182,1.043,37.768,27.444,34.705,26.36,4.907,9.012,23.88
183,1.033,37.9,27.452,34.715,26.353,4.947,8.85,23.88
184,1.024,37.978,27.452,34.724,26.353,4.947,8.971,23.798
185,1.02,38.036,27.484,34.705,26.343,4.825,8.931,23.513
186,1.03,37.874,27.542,34.724,26.353,4.905,8.809,23.225
187,1.02,38.026,27.469,34.744,26.357,5.028,8.93,23.1
188,1.023,38.133,27.456,34.744,26.364,5.07,8.972,22.733
189,1.014,38.153,27.48,34.725,26.36,4.989,8.931,22.405
190,1.014,38.086,27.531,34.715,26.36,4.988,8.931,22.076
191,1.01,38.191,27.512,34.715,26.353,4.988,8.89,21.788
192,1.004,38.297,27.437,34.724,26.357,4.988,8.89,21.582
193,0.965,38.327,27.378,34.724,26.36,4.948,8.849,21.417
194,0.961,38.184,27.42,34.753,26.357,4.988,8.849,21.253
195,0.958,38.336,27.475,34.773,26.364,5.07,8.849,21.089
196,0.932,38.395,27.464,34.754,26.371,5.111,9.011,20.924
197,0.918,38.299,27.499,34.725,26.364,5.03,8.932,20.719
198,0.896,38.308,27.406,34.705,26.357,4.907,8.809,20.351
199,0.886,38.433,27.452,34.696,26.353,4.947,8.808,20.023
200,0.879,38.511,27.441,34.715,26.353,4.907,8.767,19.857
201,0.882,38.3,27.476,34.715,26.357,4.906,8.848,19.53
202,0.859,38.413,27.499,34.705,26.357,4.947,8.849,19.242
203,0.862,38.53,27.488,34.715,26.357,4.947,8.93,18.995
204,0.866,38.598,27.449,34.715,26.353,4.907,8.89,18.789
205,0.853,38.349,27.382,34.676,26.343,4.825,8.849,18.746
206,0.853,38.5,27.432,34.705,26.35,4.824,8.808,18.502
207,0.846,38.617,27.476,34.715,26.353,4.946,8.889,18.418
208,0.84,38.695,27.511,34.715,26.364,4.988,8.93,18.295
209,0.826,38.446,27.422,34.734,26.364,4.988,8.972,18.132
210,0.839,38.578,27.444,34.696,26.354,4.988,8.891,18.008
211,0.83,38.685,27.444,34.715,26.364,4.907,8.93,17.885
212,0.823,38.743,27.495,34.715,26.35,4.947,8.89,17.762
213,0.813,38.552,27.515,34.696,26.353,4.988,8.809,17.842
214,0.797,38.694,27.539,34.705,26.36,4.988,8.808,17.965
215,0.8,38.811,27.516,34.743,26.367,5.029,8.93,18.372
216,0.774,38.812,27.391,34.734,26.371,5.07,8.931,18.783
217,0.754,38.505,27.456,34.705,26.357,5.03,8.85,19.031
218,0.744,38.636,27.495,34.696,26.35,4.867,8.808,19.115
219,0.741,38.733,27.484,34.676,26.353,4.946,8.767,19.197
220,0.731,38.84,27.39,34.705,26.353,4.866,8.929,19.239
221,0.728,38.649,27.448,34.705,26.353,4.946,9.053,19.198
222,0.708,38.772,27.441,34.696,26.357,4.988,9.095,19.117
223,0.724,38.859,27.452,34.695,26.35,4.907,9.176,19.116
224,0.715,38.524,27.495,34.695,26.353,4.947,9.218,18.953
225,0.721,38.569,27.507,34.676,26.346,4.825,9.259,18.829
226,0.737,38.713,27.492,34.695,26.35,4.824,9.381,18.706
227,0.734,38.82,27.48,34.705,26.357,4.987,9.586,18.786
228,0.728,38.524,27.46,34.705,26.36,4.988,9.751,18.868
229,0.734,38.646,27.507,34.705,26.36,5.029,9.996,18.788
230,0.731,38.752,27.488,34.715,26.364,4.989,10.08,18.665
231,0.728,38.83,27.398,34.715,26.364,4.948,10.243,18.623
232,0.734,38.534,27.456,34.686,26.36,5.029,10.326,18.46
233,0.721,38.646,27.425,34.695,26.353,4.989,10.327,18.459
234,0.708,38.772,27.476,34.705,26.353,5.029,10.408,18.337
235,0.708,38.85,27.488,34.724,26.371,5.03,10.491,18.295
236,0.692,38.582,27.507,34.696,26.367,5.151,10.573,18.213
237,0.679,38.704,27.433,34.686,26.354,4.949,10.492,18.05
238,0.675,38.811,27.44,34.676,26.353,4.907,10.451,17.723
239,0.669,38.85,27.456,34.686,26.343,4.906,10.45,17.475
240,0.659,38.544,27.511,34.686,26.353,4.947,10.572,17.31
241,0.659,38.665,27.511,34.676,26.357,4.988,10.533,17.187
242,0.665,38.781,27.457,34.686,26.35,4.907,10.573,17.185
243,0.675,38.783,27.374,34.676,26.357,4.987,10.492,17.389
244,0.678,38.476,27.327,34.695,26.353,4.988,10.491,17.675
245,0.669,38.569,27.404,34.657,26.343,4.866,10.369,17.719
246,0.675,38.694,27.444,34.685,26.346,4.865,10.368,17.801
247,0.685,38.571,27.507,34.686,26.357,4.987,10.49,18.046
248,0.692,38.531,27.398,34.686,26.364,5.029,10.41,18.211
249,0.688,38.665,27.436,34.686,26.357,4.989,10.45,18.334
250,0.688,38.743,27.452,34.686,26.364,4.988,10.369,18.661
251,0.695,38.36,27.511,34.676,26.354,4.988,10.409,19.436
252,0.695,38.481,27.504,34.686,26.364,5.029,10.328,20.542
253,0.679,38.597,27.492,34.676,26.357,4.907,10.246,21.651
254,0.669,38.656,27.453,34.676,26.364,4.906,10.164,22.475
255,0.672,38.427,27.409,34.695,26.36,4.947,10.204,23.215
256,0.656,38.578,27.468,34.715,26.367,5.069,10.204,23.792
257,0.646,38.646,27.484,34.686,26.364,5.07,10.082,24.123
258,0.633,38.695,27.472,34.647,26.354,4.948,10.081,24.085
259,0.636,38.379,27.445,34.685,26.346,4.866,9.918,23.963
260,0.636,38.51,27.437,34.667,26.35,4.906,9.916,23.84
261,0.636,38.636,27.448,34.666,26.357,4.865,9.835,23.635
262,0.639,38.676,27.48,34.666,26.353,4.865,9.753,23.592
263,0.655,38.283,27.519,34.676,26.357,4.906,9.712,23.917
264,0.662,38.384,27.519,34.676,26.357,4.906,9.63,24.083
265,0.659,38.501,27.496,34.657,26.357,4.906,9.548,24.207
266,0.672,38.53,27.445,34.695,26.347,4.784,9.466,24.127
267,0.675,38.349,27.444,34.648,26.353,4.864,9.546,24.167
268,0.678,38.481,27.507,34.676,26.36,5.028,9.547,24.533
269,0.682,38.559,27.488,34.676,26.367,4.989,9.628,24.943
270,0.688,38.809,27.418,34.676,26.361,5.029,9.588,25.435
271,0.688,38.38,27.421,34.657,26.364,4.989,9.588,26.05
272,0.682,38.491,27.464,34.666,26.357,4.988,9.547,26.381
273,0.679,38.569,27.48,34.647,26.357,4.948,9.506,26.832
274,0.662,38.224,27.496,34.676,26.353,4.947,9.546,27.284
275,0.672,38.278,27.543,34.657,26.36,4.988,9.425,27.857
276,0.675,38.413,27.508,34.685,26.367,5.07,9.505,28.351
277,0.652,38.491,27.488,34.676,26.371,5.07,9.506,28.722
278,0.646,38.089,27.449,34.638,26.361,4.989,9.425,28.725
279,0.655,38.2,27.507,34.657,26.35,4.866,9.342,28.563
280,0.655,38.326,27.465,34.666,26.35,4.946,9.26,28.399
281,0.636,38.385,27.425,34.657,26.353,4.907,9.219,27.991
282,0.649,38.175,27.444,34.638,26.353,4.947,9.259,27.458
283,0.665,38.287,27.433,34.637,26.357,4.947,9.219,27.005
284,0.665,38.394,27.476,34.647,26.35,4.907,9.259,26.472
285,0.662,38.453,27.472,34.647,26.364,4.906,9.219,25.776
286,0.675,38.031,27.519,34.609,26.347,4.906,9.218,25.24
287,0.675,38.181,27.43,34.637,26.35,4.865,9.178,24.747
288,0.682,38.316,27.456,34.647,26.364,4.946,9.299,24.783
289,0.692,38.337,27.472,34.666,26.364,4.988,9.382,24.824
290,0.701,38.222,27.499,34.638,26.357,4.988,9.382,24.865
291,0.692,38.326,27.465,34.657,26.36,4.988,9.423,24.703
292,0.701,38.433,27.394,34.647,26.367,4.988,9.383,24.579
293,0.679,38.463,27.389,34.666,26.364,5.029,9.342,24.415
294,0.675,37.974,27.467,34.638,26.354,4.989,9.342,24.088
295,0.685,38.103,27.456,34.637,26.35,4.988,9.382,23.882
296,0.685,38.22,27.495,34.676,26.367,5.029,9.464,23.514
297,0.675,38.144,27.496,34.647,26.364,5.07,9.505,23.347
298,0.662,38.105,27.476,34.705,26.36,4.948,9.384,23.061
299,0.669,38.22,27.425,34.629,26.35,4.947,9.342,22.855
300,0.652,38.317,27.472,34.599,26.35,4.825,9.26,22.772
301,0.662,37.867,27.503,34.627,26.35,4.905,9.259,22.568
302,0.669,37.958,27.468,34.618,26.353,4.906,9.3,22.443
303,0.669,38.084,27.445,34.618,26.353,4.906,9.26,22.28
304,0.678,38.181,27.421,34.637,26.357,4.947,9.259,22.197
305,0.672,37.77,27.421,34.609,26.353,4.907,9.3,22.115
306,0.682,37.9,27.425,34.599,26.343,4.825,9.219,21.951
307,0.698,38.035,27.511,34.618,26.353,4.946,9.259,21.909
308,0.698,38.123,27.457,34.637,26.364,4.988,9.341,21.746
309,0.685,37.923,27.456,34.637,26.364,4.988,9.301,21.581
310,0.695,38.045,27.46,34.628,26.364,4.948,9.341,21.255
311,0.708,38.162,27.48,34.618,26.357,4.907,9.342,20.967
312,0.705,38.201,27.507,34.618,26.353,4.947,9.342,20.517
313,0.702,37.76,27.496,34.618,26.364,4.907,9.301,20.309
314,0.685,37.9,27.461,34.628,26.357,4.906,9.382,20.144
315,0.682,38.026,27.406,34.628,26.364,4.906,9.22,20.142
316,0.675,38.056,27.456,34.637,26.371,5.069,9.34,20.264
317,0.669,37.759,27.441,34.609,26.364,5.03,9.179,20.225
318,0.662,37.871,27.507,34.58,26.36,4.907,9.137,19.981
319,0.662,37.978,27.433,34.589,26.353,4.906,9.014,19.856
320,0.659,38.314,27.437,34.589,26.353,4.906,8.972,19.733
321,0.656,37.723,27.429,34.589,26.35,4.825,8.931,19.488
322,0.652,37.861,27.479,34.599,26.357,4.905,8.931,19.323
323,0.672,37.93,27.511,34.589,26.357,4.825,8.89,19.158
324,0.665,37.748,27.515,34.579,26.357,4.946,8.849,19.035
325,0.662,37.794,27.472,34.56,26.347,4.825,8.767,18.911
326,0.698,37.929,27.41,34.579,26.35,4.865,8.685,18.626
327,0.692,38.036,27.421,34.598,26.357,4.906,8.766,18.623
328,0.695,37.615,27.472,34.608,26.364,5.028,8.848,18.46
329,0.705,37.726,27.48,34.599,26.36,4.867,8.93,18.255
330,0.711,37.832,27.406,34.599,26.364,4.946,8.89,17.969
331,0.705,37.929,27.444,34.579,26.354,4.866,8.89,17.722
332,0.708,37.623,27.444,34.579,26.357,4.946,8.849,17.435
333,0.702,37.755,27.46,34.589,26.36,4.907,8.849,17.31
334,0.701,37.909,27.484,34.579,26.357,4.865,8.849,17.065
335,0.711,37.959,27.523,34.618,26.364,4.987,8.889,16.859
336,0.692,37.547,27.488,34.608,26.371,4.988,8.971,16.816
337,0.679,37.639,27.425,34.589,26.364,4.948,8.85,16.531
338,0.678,37.764,27.429,34.551,26.35,4.825,8.767,16.366
339,0.682,37.794,27.483,34.55,26.346,4.824,8.807,16.161
340,0.672,37.459,27.445,34.56,26.35,4.865,8.686,16.078
341,0.669,37.619,27.405,34.57,26.35,4.865,8.766,15.955
342,0.678,37.735,27.444,34.57,26.353,4.824,8.767,15.831
343,0.685,37.746,27.452,34.57,26.357,4.824,8.726,15.586
344,0.675,37.66,27.456,34.579,26.36,4.905,8.726,15.462
345,0.669,37.765,27.445,34.541,26.35,4.784,8.726,15.339
346,0.688,37.861,27.503,34.56,26.35,4.824,8.685,15.175
347,0.692,37.738,27.422,34.57,26.357,4.905,8.725,15.173
348,0.695,37.554,27.464,34.589,26.364,4.906,8.807,15.336
349,0.698,37.668,27.46,34.589,26.357,4.947,8.808,15.256
350,0.701,37.745,27.511,34.57,26.357,4.866,8.767,15.174
351,0.705,37.459,27.476,34.55,26.364,4.946,8.726,15.254
352,0.711,37.58,27.41,34.569,26.364,4.825,8.807,15.337
353,0.702,37.668,27.382,34.579,26.357,4.946,8.686,15.5
354,0.692,37.784,27.428,34.618,26.36,4.866,8.725,15.542
355,0.701,37.305,27.448,34.57,26.357,4.784,8.644,15.665
356,0.692,37.445,27.46,34.589,26.374,5.068,8.765,15.829
357,0.682,37.542,27.515,34.579,26.368,4.989,8.807,16.033
358,0.669,37.61,27.402,34.551,26.357,4.866,8.686,15.914
359,0.662,37.313,27.428,34.522,26.353,4.824,8.644,15.953
360,0.656,37.464,27.456,34.55,26.357,4.824,8.725,15.994
361,0.655,37.571,27.464,34.541,26.353,4.824,8.766,16.157
362,0.659,37.61,27.507,34.531,26.353,4.865,8.929,16.403
363,0.669,37.333,27.469,34.531,26.357,4.906,9.053,16.73
364,0.675,37.464,27.453,34.54,26.364,4.865,9.257,16.978
365,0.675,37.571,27.402,34.541,26.357,4.906,9.259,17.387
366,0.675,37.581,27.417,34.531,26.347,4.865,9.341,17.716
367,0.688,37.303,27.425,34.512,26.343,4.865,9.26,17.882
368,0.695,37.425,27.499,34.559,26.353,4.987,9.422,18.087
369,0.692,37.561,27.39,34.55,26.364,4.907,9.586,18.374
370,0.701,37.572,27.428,34.56,26.36,4.906,9.629,18.336
371,0.698,37.275,27.448,34.56,26.364,4.906,9.548,18.295
372,0.695,37.425,27.472,34.55,26.357,4.947,9.506,18.172
373,0.695,37.494,27.527,34.569,26.364,4.988,9.546,18.13
374,0.695,37.341,27.531,34.531,26.357,4.907,9.588,18.171
375,0.682,37.368,27.48,34.54,26.35,4.987,9.466,18.171
376,0.682,37.522,27.429,34.56,26.357,4.907,9.587,18.049
377,0.688,37.619,27.44,34.579,26.374,4.987,9.547,18.251
378,0.672,37.17,27.483,34.56,26.368,5.07,9.506,18.131
379,0.665,37.29,27.472,34.541,26.361,4.867,9.384,17.967
380,0.652,37.416,27.394,34.512,26.35,4.906,9.342,17.844
381,0.659,37.484,27.424,34.531,26.35,4.865,9.219,17.721
382,0.649,37.13,27.44,34.502,26.35,4.906,9.259,17.597
383,0.665,37.28,27.448,34.54,26.35,4.906,9.259,17.515
384,0.682,37.396,27.487,34.531,26.35,4.865,9.219,17.433
385,0.672,37.465,27.5,34.531,26.36,4.906,9.137,17.351
386,0.678,37.12,27.476,34.521,26.35,4.825,9.217,17.431
387,0.682,37.28,27.453,34.502,26.346,4.824,9.178,17.879
388,0.692,37.406,27.476,34.521,26.353,4.865,9.218,19.063
389,0.698,37.465,27.488,34.521,26.36,4.946,9.259,20.62
390,0.724,37.158,27.449,34.531,26.357,4.988,9.341,22.14
391,0.702,37.309,27.339,34.55,26.36,4.988,9.342,23.496
392,0.701,37.406,27.416,34.522,26.36,4.988,9.342,24.73
393,0.701,37.436,27.444,34.531,26.364,4.948,9.342,26.124
394,0.692,37.149,27.433,34.54,26.354,4.988,9.382,27.643
395,0.692,37.29,27.479,34.531,26.357,4.907,9.382,29.447
396,0.688,37.387,27.492,34.531,26.364,4.947,9.261,31.295
397,0.675,37.388,27.418,34.56,26.371,5.15,9.503,33.224
398,0.682,37.119,27.436,34.522,26.364,5.031,9.343,34.707
399,0.669,37.222,27.468,34.502,26.36,4.867,9.342,35.575
400,0.649,37.31,27.499,34.502,26.347,4.906,9.179,35.991
401,0.649,36.994,27.453,34.492,26.353,4.865,9.096,36.157
402,0.662,37.058,27.406,34.521,26.353,4.906,9.136,35.915
403,0.659,37.193,27.425,34.512,26.357,4.906,9.055,35.384
404,0.669,37.28,27.429,34.521,26.36,4.906,9.135,34.81
405,0.672,37.08,27.401,34.512,26.357,4.906,9.095,34.031
406,0.669,37.193,27.452,34.512,26.357,4.865,9.054,33.17
407,0.675,37.29,27.452,34.492,26.35,4.865,9.054,32.104
408,0.682,37.387,27.448,34.502,26.35,4.906,8.932,31.117
409,0.695,36.985,27.448,34.521,26.353,4.906,9.053,30.294
410,0.698,37.115,27.48,34.502,26.364,4.947,9.135,29.351
411,0.688,37.232,27.523,34.521,26.36,5.029,9.136,28.366
412,0.695,37.281,27.469,34.521,26.357,5.03,9.136,27.543
413,0.692,37.032,27.413,34.502,26.364,5.03,9.095,27.006
414,0.672,37.183,27.39,34.521,26.364,4.989,9.095,27.163
415,0.662,37.29,27.44,34.502,26.36,5.029,9.136,27.653
416,0.669,37.329,27.405,34.492,26.36,4.948,9.095,28.39
417,0.675,37.004,27.471,34.521,26.36,5.069,9.136,29.048
418,0.662,37.096,27.456,34.521,26.374,5.07,9.258,29.705
419,0.649,37.203,27.441,34.492,26.364,4.989,9.056,30.036
420,0.626,37.213,27.429,34.492,26.357,4.988,8.932,30.04
421,0.632,37.031,27.456,34.483,26.353,4.988,9.012,30.04
422,0.636,37.173,27.515,34.473,26.357,4.948,8.932,29.877
423,0.646,37.271,27.492,34.492,26.353,4.947,8.85,29.591
424,0.649,36.965,27.464,34.483,26.353,4.947,8.889,29.385
425,0.662,36.904,27.425,34.502,26.36,4.988,8.849,29.423
426,0.662,37.019,27.436,34.483,26.35,4.988,8.808,29.302
427,0.662,37.097,27.413,34.473,26.35,4.907,8.767,29.057
428,0.672,36.896,27.483,34.473,26.353,4.906,8.645,28.77
429,0.672,37.038,27.445,34.492,26.36,5.069,8.765,28.685
430,0.675,37.173,27.452,34.483,26.364,5.07,8.807,28.441
431,0.691,37.251,27.441,34.492,26.36,4.989,8.767,28.316
432,0.685,36.897,27.448,34.483,26.364,5.029,8.726,28.234
433,0.679,37.057,27.495,34.483,26.364,4.989,8.644,27.989
434,0.675,37.164,27.492,34.492,26.364,5.029,8.684,27.824
435,0.662,37.232,27.527,34.492,26.36,4.989,8.644,27.538
436,0.669,36.936,27.426,34.483,26.357,5.029,8.644,27.291
437,0.659,37.105,27.479,34.511,26.371,5.151,8.684,26.922
438,0.652,37.174,27.484,34.502,26.361,5.031,8.766,26.512
439,0.642,37.194,27.492,34.454,26.357,4.989,8.767,25.939
440,0.633,36.945,27.394,34.444,26.357,4.948,8.645,25.283
441,0.636,37.096,27.421,34.463,26.35,4.907,8.765,24.666
442,0.636,37.203,27.433,34.454,26.35,4.906,8.807,23.969
443,0.642,37.252,27.421,34.463,26.353,4.947,8.767,23.393
444,0.662,36.993,27.472,34.454,26.353,4.988,8.848,22.858
445,0.662,37.125,27.507,34.463,26.353,4.988,8.849,22.284
446,0.662,37.193,27.472,34.473,26.353,4.988,8.889,21.912
447,0.659,37.328,27.468,34.425,26.343,4.866,8.89,21.298
448,0.678,36.917,27.413,34.453,26.346,4.906,9.012,20.886
449,0.678,37.038,27.479,34.492,26.36,4.987,9.216,20.556
450,0.691,37.135,27.484,34.454,26.36,5.07,9.259,20.106
451,0.685,36.915,27.398,34.473,26.36,5.03,9.381,19.613
452,0.682,36.99,27.436,34.463,26.364,4.989,9.423,19.324
453,0.662,37.144,27.421,34.463,26.364,5.07,9.424,18.996
454,0.659,37.203,27.436,34.444,26.357,5.03,9.424,18.87
455,0.652,36.859,27.444,34.453,26.36,4.989,9.424,18.869
456,0.655,36.98,27.48,34.453,26.364,5.029,9.383,18.951
457,0.659,37.134,27.46,34.473,26.364,5.07,9.423,18.952
458,0.636,37.203,27.452,34.482,26.367,5.152,9.464,19.074
459,0.633,36.887,27.441,34.454,26.361,5.071,9.424,19.034
460,0.629,37.009,27.503,34.425,26.36,4.908,9.342,18.911
461,0.616,37.135,27.453,34.434,26.357,4.906,9.26,18.748
462,0.616,37.203,27.398,34.434,26.35,4.987,9.178,18.543
463,0.636,36.907,27.397,34.453,26.346,4.907,9.177,18.419
464,0.649,37.028,27.405,34.453,26.357,4.906,9.177,18.54
465,0.655,37.154,27.409,34.444,26.353,4.987,9.096,18.825
466,0.662,37.194,27.432,34.444,26.35,4.907,9.258,19.072
467,0.646,36.916,27.448,34.425,26.353,4.947,9.137,19.278
468,0.652,37.057,27.456,34.444,26.346,4.825,9.095,19.321
469,0.662,37.193,27.429,34.463,26.346,4.987,9.095,19.362
470,0.669,37.223,27.468,34.444,26.357,5.07,9.258,19.484
471,0.669,36.974,27.48,34.453,26.357,5.03,9.178,19.445
472,0.678,37.077,27.464,34.444,26.36,5.03,9.137,19.363
473,0.669,37.203,27.425,34.425,26.357,4.989,9.136,19.321
474,0.659,37.05,27.386,34.415,26.347,5.029,9.055,19.28
475,0.659,36.991,27.436,34.443,26.36,5.03,9.135,19.199
476,0.656,37.106,27.448,34.425,26.357,4.989,9.095,19.198
477,0.655,37.251,27.472,34.463,26.364,5.07,9.176,19.198
478,0.642,36.955,27.46,34.444,26.364,5.03,9.259,19.239
479,0.642,37.029,27.441,34.434,26.36,4.948,9.137,19.036
480,0.616,37.154,27.429,34.425,26.343,4.947,9.014,18.83
481,0.629,37.232,27.444,34.424,26.35,4.947,9.094,18.584
482,0.623,36.984,27.48,34.405,26.353,4.947,9.014,18.501
483,0.642,37.115,27.48,34.434,26.35,4.947,9.054,18.296
484,0.649,37.203,27.46,34.415,26.357,4.947,9.013,18.172
485,0.652,37.3,27.394,34.415,26.353,4.947,9.094,18.009
486,0.646,36.869,27.409,34.415,26.36,4.988,8.973,17.885
487,0.655,37.009,27.405,34.396,26.35,4.866,9.053,17.64
488,0.672,37.135,27.464,34.415,26.353,4.906,8.932,17.393
489,0.669,37.203,27.421,34.424,26.364,5.028,8.972,17.228
490,0.662,37.031,27.421,34.424,26.364,5.03,8.972,17.064
491,0.678,37.173,27.436,34.415,26.364,5.07,8.972,16.9
492,0.672,37.28,27.476,34.405,26.364,5.03,8.931,16.654
493,0.659,37.31,27.523,34.415,26.36,5.07,8.931,16.489
494,0.659,37.023,27.469,34.415,26.357,5.03,8.931,16.284
495,0.656,37.154,27.488,34.396,26.357,4.989,8.85,16.16
496,0.639,37.251,27.39,34.395,26.357,4.988,8.93,16.078
497,0.652,37.626,27.432,34.443,26.36,5.07,8.931,15.995
498,0.642,37.055,27.483,34.444,26.364,5.152,8.972,15.995
499,0.636,37.154,27.472,34.425,26.354,5.071,8.931,15.832
500,0.633,37.251,27.394,34.415,26.353,4.948,8.809,15.627
501,0.639,37.07,27.424,34.376,26.35,4.907,8.726,15.544
502,0.629,37.135,27.429,34.386,26.35,4.906,8.807,15.502
503,0.632,37.261,27.456,34.386,26.346,4.906,8.767,15.461
504,0.639,37.339,27.484,34.395,26.36,4.987,8.726,15.501
505,0.649,36.937,27.511,34.395,26.357,4.988,8.766,15.38
506,0.642,37.048,27.461,34.386,26.353,4.948,8.848,15.419
507,0.649,37.164,27.417,34.367,26.353,4.947,8.727,15.338
508,0.655,37.261,27.421,34.366,26.346,4.866,8.685,15.297
509,0.665,37.156,27.475,34.386,26.357,5.028,8.725,15.418
510,0.682,37.299,27.453,34.386,26.357,4.989,8.726,15.379
511,0.662,37.406,27.425,34.405,26.357,5.07,8.766,15.338
512,0.662,37.474,27.44,34.405,26.357,5.03,8.604,15.256
513,0.659,37.005,27.452,34.405,26.36,4.989,8.643,15.093
514,0.656,37.135,27.48,34.376,26.36,5.029,8.562,14.969
515,0.646,37.232,27.476,34.395,26.353,5.03,8.48,14.846
516,0.655,37.29,27.48,34.386,26.357,5.03,8.52,14.845
517,0.649,37.07,27.437,34.395,26.36,5.111,8.561,15.089
518,0.642,37.202,27.444,34.415,26.367,5.152,8.683,15.62
519,0.642,37.271,27.433,34.386,26.35,5.031,8.684,15.95
520,0.626,37.3,27.495,34.376,26.353,4.907,8.766,16.279
521,0.626,37.061,27.457,34.366,26.35,4.947,8.848,16.729
522,0.632,37.193,27.406,34.366,26.346,4.907,9.011,17.181
523,0.645,37.29,27.331,34.386,26.35,4.987,9.176,17.511
524,0.655,37.272,27.416,34.376,26.357,4.988,9.259,17.839
525,0.662,37.195,27.417,34.376,26.357,4.988,9.381,17.924
526,0.652,37.3,27.413,34.366,26.353,5.029,9.505,18.087
527,0.649,37.358,27.471,34.338,26.343,4.989,9.587,18.008
528,0.662,37.004,27.355,34.366,26.346,4.988,9.547,17.966
529,0.665,37.115,27.42,34.386,26.35,5.07,9.75,17.966
530,0.675,37.251,27.429,34.367,26.364,5.07,9.915,18.007
531,0.669,37.31,27.472,34.376,26.36,5.07,9.916,17.966
532,0.682,36.994,27.499,34.366,26.36,5.07,9.916,17.966
533,0.666,37.154,27.453,34.357,26.36,5.03,9.916,18.128
534,0.652,37.27,27.429,34.385,26.353,5.07,9.835,18.293
535,0.652,37.348,27.374,34.347,26.357,5.03,9.794,18.538
536,0.642,37.042,27.42,34.366,26.36,5.07,9.793,18.866
537,0.668,37.193,27.464,34.376,26.371,5.111,9.793,19.357
538,0.656,37.261,27.495,34.386,26.364,5.193,9.875,19.809
539,0.639,37.31,27.359,34.367,26.357,5.031,9.672,20.058
540,0.623,37.08,27.412,34.347,26.357,4.989,9.589,20.101
541,0.629,37.212,27.421,34.347,26.343,4.988,9.629,20.386
542,0.639,37.319,27.46,34.357,26.35,4.988,9.507,20.592
543,0.642,37.349,27.488,34.347,26.346,4.948,9.546,20.797
544,0.655,37.061,27.496,34.347,26.353,5.029,9.506,20.922
545,0.655,37.212,27.488,34.347,26.357,5.03,9.506,20.882
546,0.652,37.29,27.382,34.337,26.357,4.989,9.384,20.963
547,0.655,37.358,27.42,34.318,26.347,4.907,9.301,20.842
548,0.668,37.052,27.464,34.356,26.346,4.987,9.219,20.678
549,0.678,37.193,27.476,34.347,26.353,5.029,9.259,20.636
550,0.678,37.29,27.382,34.366,26.353,4.989,9.259,20.351
551,0.701,37.08,27.409,34.347,26.35,5.07,9.178,20.185
552,0.688,37.097,27.413,34.347,26.357,5.111,9.177,19.858
553,0.682,37.222,27.456,34.357,26.36,5.071,9.096,19.57
554,0.669,37.29,27.48,34.337,26.357,5.152,9.095,19.486
555,0.665,37.003,27.492,34.328,26.357,5.112,9.014,19.648
556,0.662,37.115,27.539,34.337,26.364,5.071,9.013,19.812
557,0.665,37.289,27.457,34.356,26.367,5.07,8.972,19.936
558,0.656,37.358,27.456,34.366,26.367,5.111,9.094,20.1
559,0.668,36.975,27.48,34.338,26.357,5.112,9.095,20.142
560,0.669,37.115,27.46,34.347,26.35,5.03,9.054,20.02
561,0.665,37.232,27.37,34.337,26.35,4.989,8.932,19.775
562,0.685,37.281,27.424,34.337,26.346,4.907,8.931,19.57
563,0.714,37.013,27.413,34.318,26.346,4.987,9.053,19.445
564,0.744,37.173,27.421,34.318,26.353,4.988,9.013,19.363
565,0.744,37.261,27.448,34.328,26.357,5.029,9.054,19.24
566,0.764,37.3,27.484,34.337,26.36,5.07,9.095,19.28
567,0.751,36.946,27.394,34.328,26.353,5.03,9.095,19.158
568,0.735,37.067,27.409,34.289,26.346,4.989,9.136,19.076
569,0.757,37.193,27.428,34.298,26.346,4.907,9.014,18.831
570,0.767,37.252,27.495,34.337,26.36,5.028,9.257,18.788
571,0.774,37.032,27.464,34.337,26.364,5.07,9.259,18.787
572,0.764,37.164,27.386,34.328,26.36,4.989,9.259,18.625
573,0.757,37.29,27.37,34.347,26.364,5.029,9.219,18.623
574,0.741,37.186,27.405,34.328,26.36,4.989,9.3,18.46
575,0.751,36.935,27.405,34.318,26.357,4.988,9.26,18.418
576,0.735,37.048,27.46,34.318,26.353,5.07,9.3,18.377
577,0.725,37.145,27.491,34.318,26.35,5.03,9.301,18.295
578,0.734,37.011,27.476,34.356,26.36,5.07,9.26,18.213
579,0.738,37.096,27.429,34.357,26.371,5.152,9.422,18.172
580,0.712,37.174,27.456,34.328,26.357,5.031,9.383,18.09
581,0.705,37.251,27.476,34.308,26.353,4.989,9.261,17.764
582,0.705,36.897,27.453,34.299,26.353,4.866,9.259,17.516
583,0.721,37.019,27.413,34.308,26.346,4.987,9.3,17.229
584,0.734,37.144,27.39,34.299,26.35,4.948,9.341,17.023
585,0.715,37.213,27.421,34.318,26.353,4.947,9.342,16.859
586,0.754,36.859,27.397,34.299,26.357,4.988,9.464,16.735
587,0.741,36.98,27.432,34.299,26.357,4.988,9.424,16.49
588,0.734,37.096,27.425,34.27,26.35,4.826,9.505,16.365
589,0.744,37.164,27.429,34.27,26.343,4.824,9.465,15.998
590,0.747,36.868,27.417,34.317,26.364,4.946,9.587,15.872
591,0.764,36.98,27.452,34.308,26.354,4.988,9.71,15.831
592,0.78,37.134,27.484,34.327,26.364,5.07,9.752,15.708
593,0.767,37.165,27.492,34.318,26.364,5.03,9.712,15.585
594,0.748,36.839,27.461,34.28,26.357,5.03,9.792,15.584
595,0.751,36.97,27.429,34.298,26.353,5.03,9.793,15.625
596,0.741,37.077,27.444,34.308,26.357,5.03,9.753,15.828
597,0.751,37.107,27.405,34.308,26.357,4.989,9.752,15.871
598,0.757,36.973,27.464,34.347,26.367,5.11,9.752,15.912
599,0.754,37.096,27.433,34.309,26.364,5.234,9.833,16.075
600,0.741,37.155,27.429,34.318,26.36,5.072,9.712,15.995
601,0.741,36.954,27.394,34.289,26.35,5.07,9.752,15.832
602,0.754,36.933,27.424,34.289,26.35,4.989,9.549,15.708
603,0.764,37.076,27.479,34.279,26.346,5.029,9.588,15.626
604,0.767,37.164,27.488,34.26,26.35,5.03,9.507,15.544
605,0.777,36.82,27.496,34.279,26.353,5.07,9.506,15.583
606,0.784,36.941,27.468,34.289,26.357,5.03,9.506,15.543
607,0.787,37.067,27.445,34.27,26.353,5.111,9.465,15.502
608,0.78,37.107,27.409,34.26,26.346,4.989,9.383,15.42
609,0.78,37.174,27.468,34.269,26.346,5.029,9.301,15.257
610,0.767,37.309,27.417,34.298,26.35,5.111,9.382,15.215
611,0.774,37.445,27.436,34.327,26.364,5.152,9.342,15.296
612,0.754,37.494,27.421,34.289,26.357,5.112,9.301,15.215
613,0.741,36.545,27.433,34.289,26.353,5.193,9.219,15.133
614,0.731,36.689,27.452,34.27,26.357,5.031,9.178,15.213
615,0.728,36.767,27.484,34.27,26.357,5.151,9.137,15.214
616,0.715,36.854,27.496,34.26,26.35,5.071,9.095,15.336
617,0.711,36.913,27.414,34.298,26.357,5.193,9.095,15.256
618,0.695,37.028,27.436,34.299,26.371,5.234,9.176,15.499
619,0.688,37.116,27.46,34.289,26.361,5.113,9.055,15.461
620,0.695,37.117,27.468,34.289,26.35,4.989,8.891,15.339
621,0.688,36.676,27.402,34.241,26.35,4.988,8.89,15.297
622,0.679,36.825,27.339,34.279,26.343,4.988,8.849,15.215
623,0.685,36.922,27.4,34.26,26.35,5.029,8.849,15.133
624,0.682,37.057,27.409,34.269,26.353,5.07,8.849,15.173
625,0.675,36.809,27.425,34.27,26.353,5.03,8.889,15.254
626,0.669,36.893,27.433,34.26,26.35,5.07,8.849,15.296
627,0.675,36.98,27.448,34.26,26.346,4.989,8.727,15.297
628,0.682,36.732,27.456,34.279,26.35,5.07,8.848,15.418
629,0.679,36.806,27.409,34.279,26.353,5.111,8.889,15.664
630,0.682,36.931,27.456,34.289,26.36,5.112,8.89,15.747
631,0.666,37.0,27.484,34.27,26.364,5.112,8.849,15.829
632,0.652,36.626,27.433,34.27,26.357,5.152,8.849,15.912
633,0.633,36.757,27.394,34.26,26.357,5.112,8.727,15.953
634,0.619,36.893,27.339,34.26,26.357,5.152,8.644,15.953
635,0.613,36.961,27.389,34.308,26.353,5.071,8.684,16.035
636,0.616,36.645,27.436,34.289,26.357,5.111,8.603,16.158
637,0.6,36.786,27.452,34.289,26.371,5.152,8.724,16.2
638,0.593,36.864,27.448,34.26,26.357,5.153,8.603,16.159
639,0.603,36.922,27.429,34.25,26.35,4.99,8.44,16.078
640,0.59,36.626,27.417,34.26,26.343,5.029,8.316,16.077
641,0.593,36.757,27.429,34.25,26.35,4.989,8.315,16.036
642,0.596,36.902,27.476,34.25,26.35,5.029,8.274,15.995
643,0.603,36.913,27.484,34.25,26.346,5.07,8.314,16.076
644,0.609,36.616,27.449,34.241,26.353,5.03,8.274,16.077
645,0.609,36.738,27.398,34.241,26.364,5.03,8.152,16.117
646,0.6,36.844,27.413,34.221,26.347,5.03,8.191,16.158
647,0.609,36.874,27.393,34.221,26.343,4.989,8.029,16.078
648,0.622,36.635,27.471,34.231,26.35,4.948,8.068,16.036
649,0.626,36.786,27.429,34.279,26.36,5.15,8.069,16.117
650,0.626,36.864,27.429,34.25,26.364,5.071,8.109,16.036
651,0.632,36.654,27.409,34.25,26.357,5.07,8.028,15.995
652,0.636,36.585,27.444,34.25,26.36,5.152,8.027,15.913
653,0.616,36.709,27.441,34.25,26.364,5.031,8.027,15.912
654,0.61,36.815,27.468,34.241,26.357,5.151,8.027,15.953
655,0.603,36.567,27.495,34.241,26.353,5.153,8.149,16.076
656,0.619,36.718,27.441,34.25,26.364,5.153,8.273,16.158
657,0.616,36.844,27.437,34.289,26.371,5.153,8.558,16.443
658,0.597,36.922,27.448,34.26,26.364,5.193,8.643,16.568
659,0.596,36.722,27.48,34.241,26.36,4.99,8.684,16.57
660,0.583,36.854,27.421,34.25,26.357,5.029,8.847,16.488
661,0.586,36.97,27.405,34.308,26.35,4.989,8.889,16.406
662,0.593,37.058,27.397,34.222,26.346,4.988,9.052,16.405
663,0.596,36.272,27.389,34.221,26.35,5.029,9.095,16.446
664,0.603,36.446,27.413,34.231,26.35,4.989,9.258,16.406
665,0.609,36.554,27.464,34.231,26.353,4.988,9.3,16.486
666,0.626,36.612,27.484,34.231,26.357,5.029,9.382,16.609
667,0.623,36.46,27.398,34.221,26.357,5.03,9.464,17.017
668,0.629,36.621,27.382,34.212,26.347,4.948,9.383,17.346
669,0.619,36.747,27.432,34.211,26.353,4.988,9.423,17.878
670,0.636,36.787,27.468,34.231,26.353,5.11,9.668,18.941
671,0.649,36.413,27.421,34.231,26.364,5.152,9.67,20.496
672,0.649,36.544,27.315,34.25,26.364,5.153,9.751,22.382
673,0.629,36.651,27.392,34.231,26.36,5.153,9.712,24.19
674,0.623,36.997,27.397,34.231,26.357,5.031,9.711,25.794
675,0.623,36.569,27.401,34.221,26.364,5.07,9.67,26.908
676,0.616,36.68,27.456,34.212,26.357,4.948,9.629,27.691
677,0.629,36.815,27.464,34.221,26.357,5.069,9.629,28.065
678,0.629,36.462,27.46,34.25,26.367,5.193,9.67,28.353
679,0.619,36.448,27.409,34.212,26.361,5.153,9.711,28.193
680,0.606,36.563,27.448,34.211,26.353,4.99,9.548,27.826
681,0.6,36.651,27.48,34.202,26.353,4.988,9.506,27.294
682,0.59,36.383,27.418,34.202,26.343,4.948,9.465,26.638
683,0.609,36.534,27.393,34.202,26.353,4.988,9.302,26.021
684,0.609,36.651,27.335,34.211,26.357,5.07,9.341,25.446
685,0.619,36.748,27.389,34.221,26.357,4.989,9.423,24.912
686,0.629,36.25,27.409,34.202,26.357,5.029,9.424,24.296
687,0.626,36.35,27.452,34.183,26.353,4.989,9.424,23.843
688,0.642,36.486,27.406,34.182,26.35,4.948,9.342,23.188
689,0.639,36.583,27.421,34.202,26.35,5.029,9.342,22.775
690,0.652,36.335,27.421,34.202,26.357,5.07,9.382,22.364
691,0.649,36.486,27.456,34.183,26.364,5.07,9.423,21.994
692,0.652,36.593,27.495,34.182,26.357,5.07,9.424,21.543
693,0.652,36.642,27.468,34.192,26.357,5.07,9.464,21.295
694,0.646,36.354,27.433,34.202,26.357,5.03,9.424,21.252
695,0.652,36.476,27.382,34.192,26.357,5.07,9.342,21.251
696,0.642,36.592,27.405,34.192,26.36,4.989,9.301,21.292
697,0.636,36.642,27.421,34.202,26.357,5.029,9.423,21.374
698,0.633,36.412,27.487,34.221,26.371,5.192,9.505,21.374
699,0.629,36.525,27.418,34.221,26.364,5.112,9.465,21.293
700,0.629,36.603,27.401,34.173,26.354,5.071,9.343,21.17
701,0.616,36.459,27.413,34.192,26.35,4.948,9.301,20.925
702,0.619,36.333,27.471,34.173,26.357,4.988,9.26,20.557
703,0.636,36.476,27.468,34.173,26.35,4.948,9.219,20.39
704,0.642,36.554,27.48,34.192,26.346,4.907,9.259,20.267
705,0.642,36.19,27.472,34.173,26.353,4.987,9.3,20.266
706,0.649,36.292,27.386,34.182,26.357,4.988,9.301,20.469
707,0.649,36.428,27.413,34.173,26.35,4.988,9.26,20.512
708,0.655,36.496,27.425,34.154,26.35,4.948,9.178,20.471
709,0.672,36.161,27.429,34.163,26.35,4.907,9.137,20.43
710,0.669,36.302,27.382,34.192,26.357,4.987,9.217,20.43
711,0.688,36.437,27.393,34.202,26.367,5.07,9.259,20.43
712,0.685,36.506,27.397,34.173,26.361,5.03,9.219,20.308
713,0.672,36.238,27.409,34.173,26.357,5.03,9.178,20.185
714,0.665,36.398,27.483,34.192,26.353,5.03,9.137,20.061
715,0.669,36.496,27.476,34.183,26.357,4.989,9.217,19.857
716,0.656,36.545,27.499,34.182,26.353,4.988,9.096,19.692
717,0.662,36.171,27.445,34.211,26.353,4.988,9.176,19.609
718,0.652,36.35,27.413,34.173,26.364,4.948,9.177,19.405
719,0.665,36.457,27.444,34.221,26.367,5.11,9.259,19.322
720,0.649,36.477,27.472,34.183,26.364,5.071,9.381,19.199
721,0.649,36.266,27.398,34.163,26.35,5.03,9.261,18.873
722,0.642,36.399,27.424,34.221,26.35,4.867,9.137,18.585
723,0.646,36.515,27.382,34.135,26.343,4.906,9.177,18.257
724,0.649,36.622,27.37,34.172,26.353,4.906,9.259,18.05
725,0.655,36.201,27.412,34.154,26.35,5.028,9.259,17.885
726,0.642,36.331,27.44,34.153,26.357,4.989,9.259,17.68
727,0.646,36.447,27.448,34.173,26.35,4.988,9.3,17.597
728,0.636,36.257,27.417,34.144,26.346,4.907,9.26,17.556
729,0.636,36.312,27.397,34.144,26.343,4.865,9.178,17.392
730,0.652,36.447,27.46,34.163,26.353,4.946,9.259,17.35
731,0.668,36.535,27.464,34.153,26.364,4.988,9.3,17.472
732,0.678,35.97,27.41,34.163,26.357,4.988,9.382,17.432
733,0.691,36.07,27.35,34.163,26.357,4.988,9.382,17.391
734,0.692,36.224,27.389,34.163,26.357,4.988,9.342,17.31
735,0.724,36.302,27.389,34.144,26.357,4.988,9.301,17.349
736,0.731,36.207,27.381,34.153,26.35,4.988,9.26,17.472
737,0.731,36.331,27.436,34.153,26.353,5.07,9.259,17.514
738,0.725,36.476,27.409,34.173,26.357,5.03,9.219,17.595
739,0.731,36.544,27.413,34.182,26.367,5.07,9.259,17.677
740,0.718,36.047,27.425,34.163,26.354,5.03,9.219,17.638
741,0.721,36.176,27.476,34.134,26.35,5.03,9.096,17.515
742,0.747,36.292,27.472,34.134,26.35,4.826,9.054,17.27
743,0.783,36.341,27.468,34.134,26.346,4.905,8.932,17.39
744,0.839,36.083,27.382,34.153,26.353,4.947,8.931,17.635
745,0.885,36.215,27.342,34.144,26.35,4.947,8.931,18.166
746,0.928,36.34,27.358,34.144,26.35,4.907,8.89,18.781
747,0.987,36.38,27.373,34.153,26.357,4.947,8.971,19.316
748,1.026,36.016,27.44,34.125,26.357,4.866,8.891,19.809
749,1.079,36.166,27.355,34.124,26.343,4.865,8.768,19.977
750,1.135,36.302,27.405,34.144,26.353,4.946,8.807,20.263
751,1.155,36.322,27.425,34.163,26.357,4.947,8.93,20.428
752,1.168,36.179,27.468,34.134,26.36,5.029,8.89,20.389
753,1.162,36.292,27.46,34.153,26.364,5.07,8.89,20.348
754,1.161,36.37,27.484,34.134,26.36,5.03,8.89,20.266
755,1.174,36.083,27.46,34.144,26.353,4.948,8.809,20.225
756,1.168,36.176,27.37,34.134,26.36,4.988,8.767,20.143
757,1.171,36.292,27.401,34.144,26.353,4.988,8.807,19.98
758,1.201,36.389,27.444,34.125,26.357,4.988,8.767,19.897
759,1.237,36.074,27.472,34.134,26.371,5.11,8.726,19.733
760,1.201,36.186,27.382,34.163,26.367,5.112,8.848,19.61
761,1.185,36.283,27.413,34.125,26.361,5.112,8.849,19.324
762,1.116,36.351,27.405,34.105,26.353,4.989,8.808,18.955
763,1.076,36.073,27.436,34.124,26.36,4.948,8.686,18.667
764,0.949,36.205,27.444,34.115,26.35,4.988,8.644,18.379
765,0.834,36.321,27.48,34.096,26.35,4.988,8.644,18.214
766,0.7,36.38,27.46,34.134,26.353,4.988,8.644,17.968
767,0.578,35.959,27.417,34.115,26.357,5.029,8.684,17.803
768,0.479,36.098,27.401,34.124,26.353,5.07,8.603,17.598
769,0.393,36.186,27.46,34.096,26.35,5.07,8.643,17.393
770,0.295,36.206,27.425,34.057,26.346,4.908,8.562,17.147
771,0.229,36.11,27.354,34.105,26.35,4.906,8.521,16.982
772,0.209,36.263,27.416,34.115,26.346,4.987,8.601,17.183
773,0.15,36.36,27.417,34.105,26.357,5.07,8.602,17.348
774,0.137,36.371,27.425,34.115,26.364,5.111,8.602,17.472
775,0.143,35.978,27.417,34.115,26.357,5.112,8.602,17.554
776,0.153,36.089,27.479,34.105,26.357,5.071,8.521,17.596
777,0.166,36.205,27.429,34.115,26.353,5.03,8.479,17.596
778,0.182,36.062,27.413,34.105,26.357,5.07,8.438,17.596
779,0.186,36.051,27.413,34.095,26.35,5.03,8.397,17.474
780,0.199,36.214,27.464,34.134,26.357,5.07,8.356,17.392
781,0.218,36.321,27.464,34.134,26.367,5.193,8.437,17.472
782,0.235,36.006,27.398,34.105,26.364,5.112,8.397,17.554
783,0.287,36.118,27.339,34.105,26.357,5.071,8.275,17.474
784,0.366,36.253,27.389,34.105,26.35,4.989,8.193,17.432
785,0.428,36.331,27.405,34.076,26.35,4.948,8.11,17.391
786,0.497,35.996,27.405,34.086,26.346,5.029,8.109,17.472
787,0.563,36.127,27.471,34.076,26.353,5.03,8.191,17.473
788,0.606,36.244,27.386,34.086,26.353,4.989,8.11,17.514
789,0.645,36.331,27.409,34.086,26.357,5.029,8.109,17.555
790,0.681,35.987,27.425,34.076,26.35,5.03,8.109,17.555
791,0.721,36.146,27.436,34.047,26.346,4.907,8.028,17.392
792,0.754,36.263,27.452,34.076,26.353,4.947,8.027,17.31
793,0.777,36.331,27.421,34.076,26.357,5.069,8.19,17.349
794,0.787,35.958,27.354,34.105,26.357,5.111,8.192,17.35
795,0.81,36.079,27.342,34.095,26.357,5.152,8.232,17.35
796,0.813,36.186,27.373,34.086,26.36,5.071,8.233,17.187
797,0.82,36.225,27.413,34.086,26.357,5.111,8.151,17.104
798,0.807,35.938,27.429,34.076,26.357,5.071,8.232,16.941
799,0.79,36.06,27.429,34.076,26.353,5.07,8.151,16.898
800,0.81,36.205,27.39,34.086,26.35,5.07,8.191,16.776
801,0.813,36.331,27.428,34.095,26.367,5.193,8.273,16.775
802,0.794,36.064,27.468,34.095,26.364,5.153,8.314,16.694
803,0.8,36.157,27.48,34.067,26.35,5.071,8.193,16.368
804,0.8,36.225,27.472,34.047,26.346,4.989,8.07,16.161
805,0.81,35.928,27.437,34.047,26.346,5.029,8.028,15.915
806,0.816,36.031,27.347,34.057,26.35,5.07,8.068,15.831
807,0.82,36.156,27.397,34.047,26.357,4.989,8.069,15.708
808,0.83,36.225,27.467,34.066,26.353,4.988,8.028,15.626
809,0.83,35.919,27.413,34.076,26.36,5.07,8.027,15.503
810,0.839,36.069,27.393,34.076,26.35,5.03,8.068,15.339
811,0.833,36.186,27.358,34.028,26.35,4.948,7.987,15.338
812,0.852,36.302,27.397,34.047,26.357,4.988,7.986,15.215
813,0.853,35.919,27.417,34.057,26.364,5.029,8.068,15.377
814,0.833,36.059,27.456,34.066,26.364,5.111,8.15,15.419
815,0.836,36.166,27.48,34.047,26.36,5.071,8.191,15.501
816,0.833,36.215,27.437,34.066,26.353,5.111,8.11,15.583
817,0.817,35.957,27.44,34.057,26.353,5.112,8.191,15.543
818,0.82,36.098,27.413,34.057,26.353,5.03,8.192,15.583
819,0.833,36.205,27.456,34.047,26.36,5.111,8.192,15.584
820,0.833,36.264,27.398,34.037,26.353,5.112,8.151,15.706
821,0.823,36.005,27.428,34.114,26.364,5.193,8.273,16.317
822,0.826,36.137,27.401,34.076,26.367,5.194,8.355,17.461
823,0.82,36.206,27.409,34.038,26.357,5.112,8.234,18.449
824,0.839,36.206,27.421,34.018,26.347,5.071,8.233,19.353
825,0.839,35.938,27.421,34.018,26.35,5.03,8.111,20.338
826,0.836,36.05,27.44,34.027,26.35,4.989,8.191,21.364
827,0.852,36.166,27.335,34.028,26.353,5.029,8.151,22.513
828,0.853,36.033,27.381,34.037,26.353,5.111,8.15,23.744
829,0.862,35.984,27.397,34.018,26.353,5.03,8.191,25.017
830,0.862,36.108,27.471,34.027,26.35,5.07,8.273,26.005
831,0.875,36.186,27.41,34.008,26.343,4.989,8.274,26.869
832,0.882,35.937,27.37,34.018,26.343,4.948,8.233,27.203
833,0.869,36.088,27.393,34.037,26.35,5.029,8.273,27.572
834,0.853,36.215,27.385,34.037,26.36,5.03,8.314,27.82
835,0.862,36.302,27.378,34.037,26.357,5.111,8.396,27.822
836,0.853,35.91,27.413,34.037,26.353,5.071,8.356,27.578
837,0.846,36.04,27.456,34.009,26.36,5.111,8.397,27.291
838,0.843,36.166,27.324,34.037,26.353,5.071,8.356,27.004
839,0.849,36.225,27.393,34.028,26.353,5.07,8.397,26.513
840,0.843,35.89,27.401,34.028,26.357,5.07,8.275,26.061
841,0.859,36.05,27.46,34.047,26.367,5.07,8.396,25.528
842,0.859,36.138,27.468,34.057,26.367,5.233,8.56,25.116
843,0.846,36.196,27.406,34.018,26.357,5.072,8.521,24.583
844,0.859,35.88,27.374,33.999,26.347,5.03,8.398,23.846
845,0.862,36.021,27.276,34.018,26.353,4.989,8.397,23.188
846,0.875,36.147,27.392,33.989,26.35,4.988,8.478,22.734
847,0.879,36.158,27.428,33.998,26.353,5.029,8.438,22.323
848,0.885,35.928,27.437,34.027,26.357,5.03,8.519,22.116
849,0.885,36.069,27.421,34.075,26.357,4.948,8.52,21.87
850,0.889,36.157,27.374,34.009,26.357,4.988,8.52,21.664
851,0.902,36.426,27.397,33.979,26.347,4.907,8.52,21.418
852,0.899,35.882,27.448,33.989,26.35,4.947,8.439,21.09
853,0.899,36.011,27.484,34.008,26.353,5.029,8.438,20.965
854,0.899,36.108,27.476,34.018,26.364,5.07,8.519,20.761
855,0.895,35.985,27.429,34.008,26.36,5.111,8.642,20.636
856,0.886,36.098,27.362,34.027,26.357,5.112,8.562,20.351
857,0.885,36.215,27.385,33.999,26.36,5.071,8.561,20.226
858,0.879,36.302,27.448,34.008,26.353,5.03,8.521,20.062
859,0.882,35.766,27.413,33.989,26.357,5.03,8.601,19.857
860,0.885,35.904,27.401,33.998,26.35,5.03,8.562,19.692
861,0.882,36.04,27.382,34.018,26.357,5.151,8.48,19.447
862,0.885,36.128,27.417,34.027,26.367,5.112,8.601,19.2
863,0.892,36.042,27.44,34.018,26.364,5.193,8.602,19.035
864,0.889,36.137,27.503,33.989,26.36,5.072,8.521,18.79
865,0.892,36.253,27.488,33.979,26.353,5.03,8.398,18.543
866,0.905,36.312,27.437,33.979,26.35,5.03,8.316,18.338
867,0.905,35.795,27.429,33.96,26.346,4.989,8.356,18.173
868,0.908,35.924,27.382,33.989,26.35,4.988,8.356,18.009
869,0.918,36.04,27.456,33.97,26.35,5.029,8.315,17.885
870,0.931,36.089,27.406,33.979,26.35,5.07,8.396,17.721
871,0.925,35.889,27.413,34.046,26.357,5.03,8.397,17.557
872,0.925,35.992,27.354,33.942,26.35,5.03,8.397,17.311
873,0.935,36.108,27.373,33.969,26.35,4.948,8.194,17.146
874,0.935,36.167,27.452,33.979,26.353,5.069,8.354,16.982
875,0.935,35.889,27.437,33.989,26.36,5.111,8.397,16.98
876,0.935,36.011,27.48,33.989,26.36,5.152,8.397,16.858
877,0.928,36.128,27.406,33.998,26.364,5.112,8.356,16.898
878,0.922,36.042,27.393,33.979,26.36,5.071,8.356,16.898
879,0.931,35.955,27.397,33.96,26.357,5.152,8.275,16.857
880,0.918,36.089,27.46,33.979,26.357,5.071,8.274,16.816
881,0.912,36.176,27.417,33.979,26.364,5.111,8.233,16.653
882,0.931,35.851,27.343,33.989,26.364,5.112,8.233,16.692
883,0.931,35.963,27.408,34.075,26.371,5.193,8.314,16.693
884,0.938,36.031,27.37,33.98,26.364,5.072,8.193,16.489
885,0.938,36.128,27.358,33.96,26.35,5.111,8.11,16.284
886,0.945,35.87,27.385,33.96,26.353,4.989,8.109,16.16
887,0.958,36.03,27.436,33.96,26.35,5.07,8.109,16.118
888,0.954,36.147,27.394,33.95,26.35,4.989,8.15,16.077
889,0.961,36.225,27.389,33.96,26.357,5.07,8.273,16.077
890,0.971,35.861,27.413,33.979,26.357,5.07,8.274,15.955
891,0.971,35.982,27.456,33.96,26.353,5.07,8.355,15.953
892,0.974,36.079,27.417,33.941,26.343,4.989,8.275,15.791
893,0.981,36.186,27.382,33.95,26.343,5.029,8.396,15.586
894,0.974,35.89,27.331,33.979,26.36,5.07,8.478,15.665
895,0.968,36.03,27.283,33.989,26.364,5.152,8.52,15.666
896,0.971,36.147,27.377,33.979,26.364,5.153,8.52,15.625
897,0.968,36.167,27.409,33.97,26.357,5.112,8.52,15.584
898,0.971,35.851,27.44,33.96,26.353,5.152,8.52,15.625
899,0.968,36.001,27.284,33.969,26.357,5.071,8.601,15.503
900,0.964,36.118,27.396,33.96,26.357,5.152,8.602,15.502
901,0.971,36.292,27.421,33.96,26.357,5.071,8.562,15.38
902,0.987,35.9,27.464,33.998,26.364,5.233,8.683,15.297
903,0.984,35.992,27.48,33.97,26.367,5.275,8.684,15.297
904,0.984,36.07,27.445,33.96,26.364,5.113,8.603,15.134
905,1.004,35.898,27.413,33.941,26.343,5.071,8.521,15.01
906,1.014,35.973,27.327,33.96,26.346,5.07,8.601,15.009
907,1.017,36.108,27.365,33.95,26.353,5.07,8.562,14.968
908,1.03,36.186,27.409,33.96,26.357,5.07,8.561,14.887
909,1.027,35.736,27.413,33.96,26.353,5.07,8.48,15.008
910,1.033,35.856,27.436,34.027,26.353,5.111,8.52,15.009
911,1.037,35.973,27.394,33.961,26.353,5.112,8.52,14.968
912,1.037,36.041,27.385,33.922,26.35,4.989,8.52,15.09
913,1.04,35.85,27.432,33.959,26.346,4.988,8.52,15.01
914,1.04,36.011,27.476,33.969,26.364,5.151,8.642,15.131
915,1.04,36.128,27.441,33.96,26.364,5.112,8.806,15.173
916,1.043,36.186,27.472,33.969,26.364,5.193,8.889,15.376
917,1.043,35.794,27.417,33.96,26.357,5.153,8.93,15.582
918,1.033,35.924,27.378,33.96,26.357,5.153,8.972,16.072
919,1.033,36.04,27.475,33.96,26.35,5.153,8.931,16.646
920,1.05,36.08,27.417,33.979,26.353,5.193,9.012,17.424
921,1.046,35.841,27.347,33.97,26.35,5.112,9.013,18.042
922,1.059,36.001,27.401,33.989,26.364,5.234,9.094,18.739
923,1.05,36.118,27.436,33.979,26.367,5.235,9.176,19.315
924,1.076,36.109,27.398,33.95,26.35,5.113,9.096,19.484
925,1.079,35.841,27.393,33.941,26.35,5.071,8.892,19.689
926,1.092,35.972,27.452,33.931,26.346,5.03,8.93,19.772
927,1.092,36.05,27.413,33.931,26.353,4.989,8.931,19.773
928,1.096,35.994,27.397,33.95,26.35,5.11,8.85,19.773
929,1.106,35.773,27.385,33.95,26.357,5.071,8.93,19.61
930,1.115,35.895,27.428,33.95,26.357,5.07,8.972,19.527
931,1.125,35.983,27.421,33.941,26.357,5.03,8.891,19.282
932,1.119,35.744,27.366,33.931,26.35,5.07,8.89,19.117
933,1.109,35.837,27.37,33.95,26.34,5.03,8.768,18.709
934,1.122,35.992,27.409,33.988,26.357,5.111,8.889,18.746
935,1.129,36.089,27.37,33.97,26.357,5.112,9.012,18.705
936,1.122,35.773,27.377,33.95,26.36,5.112,9.094,18.705
937,1.129,35.933,27.444,33.95,26.364,5.152,9.176,18.786
938,1.135,36.05,27.386,33.941,26.357,5.112,9.177,18.665
939,1.142,36.118,27.405,33.94,26.353,5.112,9.218,18.786
940,1.125,35.803,27.366,33.94,26.353,5.112,9.3,18.665
941,1.132,35.953,27.412,33.96,26.357,5.112,9.26,18.623
942,1.155,36.089,27.464,33.989,26.364,5.152,9.3,18.623
943,1.168,36.138,27.46,33.97,26.364,5.275,9.504,18.623
944,1.171,35.784,27.409,33.941,26.354,5.154,9.465,18.582
945,1.175,35.905,27.378,33.94,26.35,5.031,9.383,18.501
946,1.178,36.031,27.381,33.912,26.343,4.989,9.342,18.54
947,1.191,36.08,27.374,33.931,26.35,5.07,9.342,18.663
948,1.201,35.879,27.444,33.94,26.357,5.111,9.382,18.705
949,1.207,36.002,27.359,33.931,26.353,5.112,9.423,18.827
950,1.22,36.127,27.393,33.931,26.353,5.071,9.464,18.869
951,1.224,36.129,27.382,33.912,26.357,5.07,9.465,18.951
952,1.234,35.87,27.417,33.902,26.34,5.07,9.505,19.033
953,1.221,36.021,27.413,33.921,26.346,5.03,9.587,18.993
954,1.224,36.137,27.46,33.95,26.35,5.151,9.629,19.237
955,1.237,36.052,27.452,33.941,26.357,5.153,9.71,19.442
956,1.227,36.051,27.398,33.95,26.36,5.071,9.711,19.566
957,1.24,36.185,27.421,33.931,26.353,5.152,9.752,19.608
958,1.227,36.283,27.401,33.921,26.36,5.071,9.671,19.609
959,1.237,35.891,27.46,33.931,26.35,5.152,9.711,19.568
960,1.231,36.011,27.355,33.94,26.353,5.153,9.711,19.405
961,1.234,36.137,27.373,33.94,26.357,5.071,9.711,19.322
962,1.256,36.253,27.366,33.94,26.36,5.111,9.711,19.077
963,1.25,35.986,27.405,33.96,26.364,5.193,9.914,18.993
964,1.26,36.118,27.448,33.931,26.357,5.112,9.876,18.789
965,1.257,36.205,27.448,33.912,26.357,5.03,9.794,18.462
966,1.276,36.254,27.464,33.902,26.353,5.03,9.793,18.255
967,1.28,36.053,27.335,33.921,26.35,5.03,9.875,17.969
968,1.296,36.205,27.397,33.921,26.353,5.07,9.916,17.844
969,1.293,36.321,27.393,33.921,26.353,5.07,9.916,17.599
970,1.319,36.351,27.428,33.902,26.35,5.03,9.957,17.393
971,1.322,36.217,27.37,33.902,26.353,5.03,10.039,17.228
972,1.306,36.369,27.358,33.921,26.35,5.07,9.999,16.901
973,1.313,36.496,27.358,33.892,26.35,4.989,9.958,16.695
974,1.319,36.526,27.373,33.902,26.35,5.07,9.957,16.489
975,1.326,36.401,27.389,33.93,26.36,5.152,10.161,16.528
976,1.326,36.496,27.444,33.931,26.357,5.153,10.204,16.447
977,1.326,36.593,27.464,33.931,26.357,5.153,10.285,16.365
978,1.319,36.728,27.456,33.96,26.357,5.112,10.164,16.486
979,1.319,36.518,27.398,33.922,26.364,5.112,10.163,16.609
980,1.316,36.631,27.413,33.911,26.354,5.152,10.163,17.099
981,1.306,36.728,27.444,33.911,26.353,5.071,10.163,17.469
982,1.319,36.605,27.421,33.911,26.357,5.111,10.163,18.042
983,1.329,36.728,27.401,33.95,26.367,5.315,10.285,18.698
984,1.332,36.806,27.362,33.931,26.364,5.276,10.367,19.925
985,1.329,36.883,27.385,33.979,26.36,5.195,10.165,21.523
986,1.329,36.635,27.362,33.893,26.347,5.112,10.122,23.206
987,1.345,36.767,27.397,33.883,26.35,5.112,10.122,24.727
988,1.345,36.883,27.413,33.882,26.35,5.193,10.122,25.921
989,1.362,36.98,27.393,33.902,26.357,5.112,10.163,26.746
990,1.359,36.885,27.378,33.883,26.35,5.234,10.285,27.242
991,1.365,37.028,27.409,33.902,26.353,5.235,10.408,27.328
992,1.349,37.125,27.46,33.892,26.353,5.235,10.287,27.37
993,1.332,37.155,27.452,33.873,26.353,5.235,10.449,27.086
994,1.326,37.069,27.429,33.863,26.346,5.153,10.45,26.595
995,1.329,37.222,27.417,33.892,26.35,5.234,10.613,26.184
996,1.332,37.357,27.261,33.911,26.36,5.194,10.859,25.691
997,1.326,37.378,27.388,33.902,26.36,5.275,11.024,25.28
998,1.322,37.263,27.452,33.902,26.357,5.316,11.188,24.747
999,1.316,37.406,27.441,33.892,26.357,5.236,11.271,24.173
1000,1.3,37.503,27.378,33.93,26.364,5.275,11.231,23.598
1001,1.299,37.523,27.397,33.892,26.357,5.276,11.312,23.064
1002,1.296,37.38,27.413,33.892,26.353,5.357,11.353,22.692
1003,1.299,37.512,27.436,33.902,26.357,5.317,11.395,22.323
1004,1.309,37.61,27.46,33.902,26.364,5.358,11.354,22.034
1005,1.293,37.572,27.464,33.902,26.364,5.399,11.435,21.747
1006,1.286,37.562,27.425,33.873,26.347,5.318,11.355,21.338
1007,1.28,37.677,27.394,33.873,26.346,5.236,11.232,21.171
1008,1.276,37.784,27.393,33.873,26.346,5.275,11.149,21.169
1009,1.27,37.689,27.44,33.873,26.35,5.195,11.149,21.088
1010,1.27,37.794,27.413,33.863,26.353,5.275,11.149,21.087
1011,1.28,37.919,27.323,33.863,26.353,5.276,11.189,21.046
1012,1.267,37.988,27.381,33.873,26.36,5.276,11.149,21.005
1013,1.247,37.729,27.366,33.863,26.357,5.316,11.149,20.883
1014,1.227,37.832,27.42,33.844,26.343,5.236,11.067,20.638
1015,1.217,37.977,27.413,33.853,26.353,5.194,10.904,20.351
1016,1.221,38.046,27.448,33.882,26.357,5.356,10.943,20.226
1017,1.195,37.999,27.413,33.863,26.357,5.358,10.943,20.143
1018,1.188,38.151,27.393,33.882,26.36,5.399,10.902,19.898
1019,1.171,38.239,27.401,33.863,26.353,5.318,10.78,19.693
1020,1.152,38.279,27.452,33.892,26.357,5.358,10.657,19.406
1021,1.145,38.068,27.456,33.883,26.36,5.399,10.574,19.159
1022,1.135,38.191,27.355,33.854,26.36,5.399,10.492,18.872
1023,1.148,38.326,27.315,33.882,26.357,5.358,10.369,18.625
1024,1.155,38.356,27.396,33.902,26.367,5.439,10.409,18.46
1025,1.135,38.308,27.362,33.863,26.357,5.318,10.328,18.133
1026,1.116,38.413,27.366,33.844,26.353,5.358,10.083,17.805
1027,1.125,38.51,27.444,33.853,26.346,5.277,10.081,17.517
1028,1.112,38.799,27.363,33.844,26.35,5.235,9.999,17.27
1029,1.099,38.399,27.381,33.863,26.35,5.316,9.999,16.983
1030,1.099,38.51,27.385,33.863,26.36,5.317,9.917,16.696
1031,1.102,38.579,27.413,33.853,26.353,5.276,9.916,16.489
1032,1.08,38.445,27.432,33.844,26.353,5.316,9.876,16.284
1033,1.047,38.511,27.382,33.825,26.35,5.276,9.835,16.201
1034,1.043,38.646,27.417,33.824,26.346,5.195,9.631,15.915
1035,1.033,38.733,27.343,33.863,26.357,5.316,9.792,15.872
1036,1.027,38.552,27.389,33.873,26.357,5.398,9.671,15.912
1037,1.004,38.675,27.385,33.873,26.364,5.399,9.629,15.912
1038,0.984,38.772,27.459,33.854,26.357,5.44,9.588,15.872
1039,0.984,38.84,27.367,33.844,26.357,5.399,9.507,15.831
1040,0.978,38.524,27.381,33.853,26.357,5.399,9.465,15.79
1041,0.958,38.665,27.358,33.844,26.36,5.318,9.383,15.749
1042,0.958,38.772,27.401,33.863,26.357,5.358,9.261,15.707
1043,0.951,38.869,27.425,33.873,26.364,5.439,9.259,15.707
1044,0.958,38.668,27.444,33.844,26.364,5.521,9.259,15.748
1045,0.935,38.762,27.46,33.834,26.354,5.36,9.178,15.667
1046,0.935,38.859,27.406,33.834,26.346,5.277,8.933,15.625
1047,0.931,38.908,27.413,33.844,26.346,5.235,8.931,15.544
1048,0.925,38.87,27.374,33.834,26.35,5.194,8.89,15.624
1049,0.915,38.975,27.409,33.815,26.353,5.275,8.93,15.503
1050,0.931,39.082,27.382,33.834,26.35,5.276,8.85,15.502
1051,0.912,39.112,27.381,33.882,26.353,5.316,8.849,15.502
1052,0.908,38.748,27.35,33.825,26.35,5.276,8.767,15.502
1053,0.895,38.869,27.362,33.815,26.346,5.195,8.767,15.42
1054,0.886,38.975,27.381,33.805,26.35,5.194,8.726,15.42
1055,0.885,38.919,27.401,33.843,26.357,5.275,8.807,15.542
1056,0.869,38.861,27.487,33.844,26.357,5.316,8.848,15.705
1057,0.853,38.975,27.402,33.844,26.36,5.317,8.889,15.788
1058,0.849,39.072,27.421,33.853,26.36,5.276,8.849,15.952
1059,0.846,38.699,27.413,33.844,26.36,5.316,8.93,15.913
1060,0.82,38.772,27.46,33.844,26.357,5.317,8.85,15.994
1061,0.813,38.888,27.425,33.834,26.353,5.195,8.849,15.913
1062,0.82,38.985,27.331,33.815,26.35,5.234,8.889,15.912
1063,0.826,38.794,27.35,33.853,26.357,5.235,8.93,15.75
1064,0.826,38.936,27.346,33.853,26.367,5.357,9.012,15.789
1065,0.826,39.043,27.354,33.844,26.364,5.358,9.094,15.83
1066,0.813,39.063,27.381,33.815,26.354,5.277,9.014,15.83
1067,0.816,38.67,27.428,33.795,26.357,5.195,9.094,15.708
1068,0.813,38.801,27.366,33.805,26.347,5.153,9.054,15.666
1069,0.813,38.907,27.381,33.805,26.353,5.153,9.135,15.666
1070,0.807,38.956,27.397,33.805,26.35,5.193,9.177,15.544
1071,0.82,38.842,27.432,33.805,26.353,5.194,9.177,15.502
1072,0.82,38.965,27.437,33.824,26.36,5.153,9.259,15.502
1073,0.81,39.043,27.382,33.805,26.353,5.234,9.219,15.502
1074,0.794,39.073,27.338,33.776,26.346,5.113,9.259,15.502
1075,0.793,38.776,27.279,33.786,26.346,5.071,9.137,15.42
1076,0.78,38.898,27.337,33.805,26.35,5.233,9.258,15.501
1077,0.784,39.014,27.385,33.824,26.364,5.194,9.341,15.705
1078,0.78,39.264,27.42,33.815,26.364,5.316,9.342,15.707
1079,0.767,38.807,27.358,33.815,26.357,5.276,9.301,15.707
1080,0.761,38.898,27.381,33.824,26.36,5.276,9.301,15.666
1081,0.764,39.023,27.405,33.805,26.353,5.235,9.301,15.707
1082,0.767,38.766,27.452,33.805,26.35,5.153,9.26,15.666
1083,0.77,38.782,27.484,33.815,26.353,5.193,9.219,15.625
1084,0.78,38.936,27.46,33.824,26.357,5.153,9.137,15.544
1085,0.79,39.014,27.445,33.844,26.371,5.356,9.258,15.583
1086,0.777,38.66,27.335,33.805,26.357,5.195,9.178,15.625
1087,0.774,38.772,27.385,33.795,26.35,5.194,9.096,15.503
1088,0.777,38.888,27.381,33.767,26.35,5.153,8.892,15.502
1089,0.78,38.947,27.413,33.795,26.35,5.112,8.93,15.583
1090,0.787,38.669,27.35,33.786,26.35,5.152,8.85,15.665
1091,0.81,38.81,27.377,33.795,26.35,5.153,8.889,15.707
1092,0.8,38.917,27.381,33.767,26.35,5.193,8.809,15.748
1093,0.787,38.976,27.389,33.785,26.357,5.153,8.808,15.87
1094,0.761,39.015,27.421,33.776,26.35,5.112,8.808,15.993
1095,0.767,39.178,27.452,33.766,26.343,4.949,8.686,15.995
1096,0.777,39.304,27.448,33.785,26.357,5.029,8.684,16.239
1097,0.767,39.344,27.347,33.824,26.353,5.151,8.644,16.688
1098,0.761,38.405,27.381,33.786,26.36,5.193,8.765,17.262
1099,0.761,38.51,27.401,33.824,26.353,5.194,8.685,18.162
1100,0.754,38.617,27.467,33.815,26.353,5.153,8.644,19.066
1101,0.748,38.637,27.378,33.786,26.357,5.193,8.644,19.888
1102,0.738,38.762,27.366,33.805,26.357,5.153,8.603,20.587
1103,0.757,38.869,27.366,33.786,26.353,5.112,8.562,21.123
1104,0.777,39.023,27.409,33.814,26.364,5.152,8.561,21.453
1105,0.777,38.833,27.386,33.815,26.364,5.275,8.683,21.741
1106,0.771,38.553,27.393,33.786,26.357,5.235,8.603,21.744
1107,0.77,38.627,27.428,33.776,26.347,5.113,8.521,21.703
1108,0.777,38.743,27.37,33.843,26.346,5.03,8.479,21.459
1109,0.777,38.427,27.37,33.767,26.35,5.07,8.479,21.294
1110,0.787,38.511,27.405,33.757,26.353,5.152,8.52,21.089
1111,0.79,38.626,27.436,33.776,26.35,5.112,8.52,20.843
1112,0.793,38.733,27.39,33.757,26.357,5.03,8.52,20.597
1113,0.787,38.437,27.37,33.776,26.353,5.111,8.52,20.432
1114,0.78,38.568,27.307,33.766,26.35,5.071,8.439,20.43
1115,0.777,38.665,27.377,33.814,26.34,5.03,8.316,20.593
1116,0.777,38.772,27.377,33.767,26.35,5.07,8.396,20.919
1117,0.777,38.437,27.428,33.785,26.357,5.07,8.397,21.451
1118,0.777,38.549,27.417,33.795,26.36,5.152,8.356,21.619
1119,0.774,38.675,27.397,33.795,26.357,5.071,8.356,21.743
1120,0.764,38.714,27.385,33.795,26.364,5.07,8.356,21.825
1121,0.757,38.609,27.405,33.795,26.357,5.111,8.356,21.867
1122,0.761,38.723,27.432,33.776,26.353,5.152,8.275,21.745
1123,0.77,38.849,27.421,33.786,26.36,5.112,8.274,21.663
1124,0.78,38.898,27.433,33.776,26.357,5.152,8.274,21.662
1125,0.777,38.247,27.398,33.805,26.371,5.153,8.396,21.581
1126,0.777,38.336,27.307,33.815,26.364,5.153,8.356,21.661
1127,0.777,38.443,27.361,33.767,26.354,5.153,8.275,21.581
1128,0.78,38.444,27.416,33.766,26.346,4.99,8.193,21.62
1129,0.784,38.415,27.374,33.747,26.35,4.988,8.151,21.824
1130,0.793,38.53,27.381,33.814,26.346,5.11,8.11,21.948
1131,0.803,38.636,27.354,33.767,26.357,5.03,8.15,22.234
1132,0.794,38.33,27.397,33.757,26.35,5.03,8.15,22.765
1133,0.803,38.308,27.432,33.757,26.353,5.151,8.273,23.747
1134,0.777,38.375,27.444,33.757,26.353,5.071,8.193,24.935
1135,0.79,38.481,27.452,33.737,26.346,5.03,8.11,26.086
1136,0.793,38.358,27.425,33.766,26.357,5.03,8.191,27.276
1137,0.79,38.5,27.405,33.785,26.36,5.151,8.273,28.345
1138,0.784,38.646,27.374,33.776,26.36,5.234,8.314,29.169
1139,0.78,38.695,27.432,33.757,26.36,5.235,8.396,29.624
1140,0.754,38.072,27.401,33.776,26.353,5.153,8.397,29.832
1141,0.767,38.21,27.323,33.776,26.353,5.153,8.519,29.957
1142,0.761,38.336,27.353,33.757,26.357,5.193,8.561,29.958
1143,0.764,38.395,27.362,33.766,26.357,5.153,8.602,29.958
1144,0.783,38.165,27.369,33.766,26.353,5.234,8.765,29.754
1145,0.78,38.307,27.412,33.776,26.367,5.316,8.929,29.508
1146,0.78,38.375,27.409,33.757,26.367,5.236,8.931,29.059
1147,0.787,38.424,27.389,33.757,26.35,5.153,8.89,28.485
1148,0.793,38.06,27.389,33.747,26.35,5.071,8.89,27.829
1149,0.784,38.181,27.37,33.747,26.35,5.07,8.849,27.172
1150,0.8,38.288,27.412,33.747,26.35,5.152,8.889,26.474
1151,0.813,38.327,27.429,33.756,26.353,5.112,8.93,25.776
1152,0.803,38.116,27.374,33.757,26.35,5.152,8.931,25.037
1153,0.807,38.249,27.288,33.757,26.35,5.153,9.012,24.42
1154,0.784,38.327,27.345,33.747,26.36,5.153,8.932,24.047
1155,0.777,38.366,27.311,33.699,26.35,4.99,8.89,23.841
1156,0.784,38.126,27.334,33.746,26.35,5.151,8.809,23.716
1157,0.777,38.249,27.412,33.747,26.357,5.153,8.889,24.0
1158,0.78,38.346,27.382,33.747,26.357,5.234,8.89,23.962
1159,0.78,38.011,27.385,33.756,26.36,5.194,8.89,23.921
1160,0.777,38.104,27.374,33.766,26.364,5.194,8.849,23.799
1161,0.764,38.22,27.428,33.747,26.364,5.112,8.767,23.431
1162,0.774,38.307,27.456,33.766,26.357,5.112,8.726,23.143
1163,0.774,37.915,27.402,33.738,26.36,5.193,8.685,22.774
1164,0.787,38.026,27.35,33.737,26.357,5.153,8.644,22.364
1165,0.793,38.171,27.33,33.756,26.357,5.193,8.603,22.197
1166,0.79,38.24,27.346,33.766,26.367,5.275,8.643,22.033
1167,0.787,37.943,27.354,33.757,26.361,5.195,8.521,21.788
1168,0.793,38.065,27.397,33.737,26.357,5.112,8.358,21.46
1169,0.806,38.181,27.346,33.718,26.347,5.03,8.356,21.131
1170,0.81,38.24,27.385,33.708,26.353,5.151,8.315,20.843
1171,0.81,37.876,27.389,33.727,26.353,5.112,8.315,20.718
1172,0.813,38.006,27.409,33.737,26.353,5.112,8.396,20.677
1173,0.813,38.113,27.436,33.747,26.35,5.071,8.478,20.636
1174,0.797,38.153,27.429,33.747,26.353,5.152,8.398,20.595
1175,0.79,37.894,27.39,33.709,26.346,5.112,8.438,20.594
1176,0.78,38.035,27.315,33.708,26.343,5.03,8.438,20.432
1177,0.787,38.171,27.353,33.727,26.36,5.111,8.601,20.43
1178,0.777,38.192,27.365,33.737,26.364,5.112,8.806,20.43
1179,0.787,37.847,27.424,33.728,26.36,5.234,8.889,20.227
1180,0.777,37.987,27.335,33.747,26.36,5.194,9.012,19.981
1181,0.764,38.084,27.354,33.747,26.353,5.112,9.054,19.694
1182,0.767,37.98,27.346,33.737,26.353,5.193,9.217,19.447
1183,0.764,37.969,27.416,33.718,26.357,5.153,9.34,19.16
1184,0.774,38.084,27.432,33.718,26.36,5.153,9.504,18.913
1185,0.793,38.191,27.46,33.737,26.364,5.153,9.587,18.748
1186,0.787,37.847,27.472,33.737,26.364,5.234,9.832,18.705
1187,0.78,37.939,27.382,33.737,26.357,5.113,9.875,18.42
1188,0.793,38.036,27.354,33.708,26.34,5.03,9.957,18.092
1189,0.787,38.123,27.416,33.708,26.353,5.07,9.998,17.804
1190,0.797,37.692,27.432,33.689,26.35,5.07,10.121,17.558
1191,0.81,37.842,27.331,33.718,26.346,5.152,10.081,17.271
1192,0.807,37.958,27.35,33.708,26.353,5.112,10.284,17.146
1193,0.803,38.026,27.346,33.718,26.357,5.071,10.245,17.063
1194,0.787,37.691,27.381,33.718,26.35,5.152,10.286,17.266
1195,0.784,37.803,27.397,33.699,26.346,5.071,10.164,17.674
1196,0.787,37.929,27.417,33.689,26.353,4.989,10.204,18.085
1197,0.784,37.978,27.44,33.727,26.36,5.192,10.245,18.699
1198,0.777,37.777,27.394,33.728,26.364,5.153,10.286,19.112
1199,0.78,37.9,27.397,33.728,26.357,5.193,10.245,19.36
1200,0.771,37.997,27.409,33.728,26.357,5.194,10.326,19.606
1201,0.767,38.017,27.405,33.728,26.357,5.153,10.246,19.69
1202,0.767,37.72,27.374,33.737,26.357,5.153,10.245,19.609
1203,0.774,37.832,27.311,33.718,26.35,5.112,10.204,19.609
1204,0.79,37.948,27.287,33.727,26.357,5.071,10.163,20.015
1205,0.8,38.161,27.365,33.747,26.36,5.193,10.122,20.751
1206,0.8,37.722,27.342,33.747,26.371,5.316,10.203,21.938
1207,0.79,37.803,27.4,33.709,26.357,5.236,10.123,22.925
1208,0.79,37.881,27.374,33.699,26.353,5.072,9.959,23.789
1209,0.784,37.633,27.377,33.708,26.35,5.07,9.835,24.448
1210,0.79,37.697,27.35,33.689,26.35,5.03,9.794,24.983
1211,0.813,37.822,27.381,33.708,26.35,5.07,9.753,25.232
1212,0.8,37.91,27.42,33.689,26.357,5.07,9.752,25.438
1213,0.79,37.422,27.425,33.689,26.35,5.07,9.712,25.359
1214,0.784,37.551,27.382,33.708,26.36,5.152,9.752,25.195
1215,0.771,37.639,27.35,33.699,26.353,5.112,9.63,24.909
1216,0.777,37.736,27.365,33.718,26.346,5.071,9.466,24.54
1217,0.777,37.574,27.35,33.708,26.357,5.07,9.505,24.13
1218,0.777,37.716,27.42,33.708,26.36,5.111,9.587,23.801
1219,0.774,37.851,27.409,33.708,26.357,5.193,9.629,23.31
1220,0.777,37.901,27.382,33.794,26.357,5.153,9.588,22.858
1221,0.764,37.47,27.362,33.719,26.353,5.112,9.547,22.487
1222,0.757,37.58,27.381,33.718,26.353,5.071,9.547,22.402
1223,0.761,37.706,27.413,33.699,26.35,5.111,9.506,22.482
1224,0.777,37.746,27.429,33.698,26.357,5.152,9.384,22.687
1225,0.777,37.535,27.433,33.718,26.36,5.071,9.382,22.811
1226,0.78,37.687,27.417,33.737,26.371,5.152,9.464,23.015
1227,0.78,37.794,27.393,33.728,26.364,5.193,9.465,23.383
1228,0.78,37.775,27.378,33.708,26.354,5.153,9.424,23.753
1229,0.784,37.478,27.428,33.67,26.35,5.031,9.261,23.96
1230,0.806,37.619,27.39,33.679,26.343,5.07,9.259,24.287
1231,0.803,37.726,27.276,33.708,26.353,5.07,9.178,24.697
1232,0.794,37.583,27.341,33.708,26.353,5.03,9.218,25.026
1233,0.79,37.428,27.377,33.699,26.353,5.111,9.096,25.355
1234,0.78,37.561,27.366,33.689,26.35,5.03,9.095,25.521
1235,0.774,37.648,27.393,33.698,26.357,5.07,8.973,25.604
1236,0.764,37.4,27.405,33.67,26.347,4.948,8.931,25.848
1237,0.761,37.503,27.366,33.679,26.353,4.988,8.809,26.949
1238,0.767,37.648,27.37,33.698,26.357,5.151,8.93,28.383
1239,0.767,37.755,27.358,33.708,26.36,5.234,8.931,29.983
1240,0.748,37.296,27.412,33.708,26.357,5.153,8.89,31.178
1241,0.738,37.425,27.401,33.718,26.364,5.071,8.849,31.962
1242,0.747,37.532,27.339,33.718,26.354,5.111,8.889,32.499
1243,0.747,37.6,27.272,33.718,26.36,5.071,8.89,32.707
1244,0.754,37.323,27.349,33.699,26.353,5.07,8.768,32.628
1245,0.764,37.473,27.346,33.708,26.35,5.03,8.685,32.302
1246,0.767,37.6,27.358,33.727,26.364,5.151,8.766,31.851
1247,0.77,37.639,27.42,33.718,26.374,5.193,8.767,31.278
1248,0.764,37.323,27.362,33.708,26.361,5.031,8.645,30.499
1249,0.767,37.445,27.358,33.689,26.35,5.03,8.481,29.556
1250,0.767,37.571,27.366,33.67,26.353,4.948,8.479,28.653
1251,0.774,37.601,27.409,33.689,26.35,4.947,8.357,27.952
1252,0.78,37.237,27.432,33.679,26.35,4.988,8.397,27.173
1253,0.777,37.367,27.398,33.689,26.346,4.988,8.316,26.596
1254,0.774,37.474,27.354,33.698,26.353,5.029,8.396,26.102
1255,0.774,37.791,27.323,33.698,26.357,5.07,8.356,25.569
1256,0.744,37.382,27.314,33.679,26.353,5.03,8.315,25.075
1257,0.751,37.493,27.338,33.66,26.343,4.948,8.193,24.583
1258,0.754,37.619,27.4,33.679,26.353,4.988,8.192,24.171
1259,0.751,37.323,27.35,33.708,26.36,5.07,8.314,23.882
1260,0.728,37.31,27.354,33.718,26.364,5.07,8.356,23.554
1261,0.747,37.435,27.381,33.689,26.364,5.111,8.437,23.388
1262,0.744,37.523,27.413,33.698,26.36,5.112,8.397,23.143
1263,0.734,37.265,27.432,33.67,26.353,5.152,8.397,23.018
1264,0.747,37.387,27.433,33.698,26.353,5.071,8.438,22.855
1265,0.751,37.512,27.401,33.689,26.353,5.07,8.519,22.772
1266,0.767,37.6,27.343,33.689,26.35,5.07,8.561,22.486
1267,0.774,37.074,27.358,33.708,26.36,5.07,8.602,22.28
1268,0.767,37.202,27.397,33.708,26.364,5.233,8.765,22.075
1269,0.761,37.29,27.385,33.679,26.357,5.113,8.685,21.666
1270,0.77,37.339,27.319,33.67,26.35,5.03,8.603,21.255
1271,0.774,37.196,27.33,33.65,26.353,5.111,8.562,20.845
1272,0.771,37.338,27.357,33.669,26.35,5.071,8.602,20.556
1273,0.764,37.445,27.408,33.669,26.35,5.07,8.521,20.35
1274,0.764,37.503,27.428,33.669,26.353,5.07,8.52,20.226
1275,0.761,37.121,27.413,33.679,26.357,5.07,8.561,20.265
1276,0.748,37.251,27.401,33.689,26.353,5.111,8.48,20.591
1277,0.741,37.348,27.393,33.737,26.35,5.071,8.479,20.879
1278,0.747,37.387,27.342,33.67,26.343,5.07,8.398,21.004
1279,0.754,37.292,27.42,33.669,26.357,5.111,8.478,21.33
1280,0.757,37.416,27.397,33.679,26.357,5.234,8.601,21.618
1281,0.751,37.532,27.307,33.689,26.353,5.153,8.521,22.027
1282,0.748,37.428,27.349,33.689,26.353,5.153,8.52,22.276
1283,0.747,37.235,27.362,33.679,26.353,5.193,8.52,22.603
1284,0.757,37.358,27.373,33.67,26.357,5.153,8.479,23.379
1285,0.754,37.445,27.385,33.669,26.36,5.153,8.438,24.606
1286,0.764,37.139,27.42,33.66,26.353,5.193,8.479,26.082
1287,0.764,37.222,27.401,33.708,26.371,5.275,8.52,27.358
1288,0.761,37.329,27.374,33.689,26.364,5.235,8.52,28.428
1289,0.754,37.387,27.37,33.67,26.35,5.194,8.398,28.845
1290,0.77,37.043,27.405,33.641,26.346,5.072,8.234,29.133
1291,0.757,37.193,27.389,33.65,26.35,5.111,8.273,29.136
1292,0.767,37.29,27.311,33.669,26.346,5.112,8.233,28.974
1293,0.764,37.387,27.33,33.669,26.357,5.112,8.192,28.565
1294,0.741,37.11,27.342,33.669,26.36,5.193,8.273,28.195
1295,0.754,37.27,27.361,33.66,26.353,5.194,8.274,27.948
1296,0.738,37.348,27.373,33.641,26.35,5.112,8.274,27.742
1297,0.734,37.407,27.432,33.65,26.35,5.071,8.111,27.415
1298,0.738,37.158,27.355,33.688,26.353,5.152,8.313,27.412
1299,0.731,37.318,27.35,33.67,26.353,5.275,8.356,27.249
1300,0.725,37.406,27.381,33.679,26.353,5.195,8.397,27.328
1301,0.728,37.446,27.405,33.689,26.36,5.234,8.478,27.695
1302,0.731,37.168,27.409,33.67,26.353,5.194,8.52,28.837
1303,0.731,37.299,27.358,33.669,26.35,5.194,8.601,30.597
1304,0.744,37.397,27.315,33.689,26.35,5.153,8.562,32.444
1305,0.747,37.407,27.307,33.689,26.353,5.193,8.602,34.089
1306,0.747,37.503,27.373,33.708,26.36,5.316,8.765,35.447
1307,0.747,37.6,27.393,33.708,26.364,5.358,8.848,36.315
1308,0.744,37.658,27.413,33.67,26.354,5.277,8.849,36.852
1309,0.741,37.132,27.386,33.679,26.35,5.073,8.849,37.467
1310,0.764,37.04,27.327,33.66,26.35,5.07,8.686,38.489
1311,0.767,37.173,27.373,33.65,26.35,5.152,8.766,39.76
1312,0.764,37.261,27.405,33.65,26.353,5.153,8.767,40.993
1313,0.767,37.109,27.436,33.65,26.353,5.153,8.767,41.818
1314,0.754,37.26,27.37,33.669,26.36,5.234,8.807,42.233
1315,0.748,37.348,27.327,33.66,26.35,5.153,8.808,42.074
1316,0.738,37.445,27.272,33.65,26.343,5.031,8.686,41.463
1317,0.741,37.082,27.337,33.669,26.357,5.151,8.684,40.765
1318,0.741,37.222,27.4,33.66,26.364,5.275,8.807,39.864
1319,0.751,37.348,27.385,33.669,26.35,5.195,8.767,38.879
1320,0.728,37.426,27.362,33.717,26.357,5.194,8.726,37.69
1321,0.728,37.139,27.354,33.68,26.353,5.194,8.685,36.377
1322,0.725,37.251,27.381,33.679,26.36,5.194,8.684,35.104
1323,0.715,37.377,27.389,33.66,26.353,5.153,8.603,33.79
1324,0.737,37.436,27.417,33.669,26.353,5.153,8.602,32.517
1325,0.751,37.158,27.436,33.669,26.357,5.112,8.48,31.325
1326,0.738,37.28,27.433,33.698,26.367,5.315,8.682,30.215
1327,0.751,37.358,27.378,33.679,26.364,5.236,8.603,29.269
1328,0.744,37.388,27.35,33.66,26.35,5.113,8.44,28.365
1329,0.747,37.119,27.385,33.66,26.343,5.112,8.438,27.665
1330,0.773,37.251,27.366,33.669,26.346,5.071,8.397,27.048
1331,0.771,37.367,27.303,33.66,26.35,5.07,8.478,26.432
1332,0.761,37.436,27.345,33.65,26.35,5.03,8.479,25.897
1333,0.764,37.264,27.35,33.66,26.35,5.07,8.52,25.404
1334,0.748,37.387,27.377,33.669,26.36,5.07,8.642,24.952
1335,0.738,37.455,27.405,33.622,26.35,5.07,8.562,24.581
1336,0.751,37.178,27.405,33.64,26.346,5.07,8.602,24.212
1337,0.728,37.251,27.386,33.65,26.35,5.152,8.684,24.086
1338,0.728,37.406,27.35,33.669,26.353,5.193,8.807,24.004
1339,0.738,37.474,27.365,33.66,26.353,5.153,8.848,23.881
1340,0.731,37.178,27.412,33.669,26.36,5.153,8.849,23.961
1341,0.725,37.309,27.413,33.669,26.35,5.112,8.808,24.002
1342,0.718,37.435,27.319,33.669,26.364,5.193,8.848,23.84
1343,0.731,37.484,27.361,33.689,26.35,5.112,8.849,23.838
1344,0.747,37.187,27.366,33.67,26.35,5.112,8.808,23.554
1345,0.767,37.357,27.362,33.708,26.367,5.274,8.848,23.388
1346,0.764,37.435,27.369,33.679,26.364,5.195,8.971,23.224
1347,0.754,37.436,27.436,33.65,26.354,5.112,8.891,22.897
1348,0.748,37.158,27.316,33.641,26.353,5.071,8.849,22.528
1349,0.764,37.318,27.33,33.621,26.35,5.07,8.808,21.996
1350,0.767,37.435,27.373,33.631,26.35,5.03,8.726,21.624
1351,0.767,37.465,27.409,33.64,26.35,5.03,8.807,21.296
1352,0.761,37.111,27.393,33.65,26.35,5.07,8.848,20.886
1353,0.757,37.241,27.35,33.641,26.353,5.152,8.889,20.516
1354,0.748,37.338,27.319,33.66,26.353,5.112,8.89,20.146
1355,0.728,37.349,27.256,33.65,26.35,5.071,8.89,19.98
1356,0.738,37.387,27.337,33.621,26.336,5.03,8.768,19.734
1357,0.734,37.532,27.385,33.65,26.357,5.07,8.807,19.691
1358,0.738,37.619,27.397,33.669,26.353,5.152,8.93,19.691
1359,0.728,37.361,27.366,33.669,26.357,5.112,8.931,19.731
1360,0.721,37.311,27.354,33.65,26.357,5.152,9.012,19.691
1361,0.721,37.416,27.381,33.66,26.357,5.193,9.013,19.813
1362,0.731,37.494,27.432,33.66,26.357,5.153,8.972,19.895
1363,0.734,37.149,27.413,33.641,26.357,5.112,8.891,19.937
1364,0.744,37.261,27.421,33.65,26.35,5.112,8.93,20.181
1365,0.751,37.387,27.397,33.631,26.357,5.112,8.931,20.631
1366,0.757,37.484,27.331,33.688,26.36,5.152,8.931,21.367
1367,0.757,37.302,27.342,33.698,26.371,5.234,8.972,22.472
1368,0.757,37.406,27.385,33.631,26.354,5.153,8.972,23.459
1369,0.738,37.503,27.389,33.631,26.35,5.071,8.809,24.567
1370,0.751,37.581,27.331,33.64,26.346,5.03,8.808,25.554
1371,0.761,37.15,27.326,33.631,26.346,5.07,8.808,26.377
1372,0.757,37.28,27.365,33.631,26.353,5.111,8.848,27.035
1373,0.761,37.406,27.397,33.64,26.35,5.112,8.808,27.367
1374,0.748,37.455,27.409,33.64,26.357,5.152,8.808,27.574
1375,0.738,37.264,27.425,33.631,26.35,5.071,8.808,27.535
1376,0.725,37.387,27.386,33.602,26.34,5.03,8.726,27.331
1377,0.731,37.532,27.401,33.678,26.35,5.07,8.603,26.923
1378,0.734,37.562,27.358,33.66,26.357,5.152,8.724,26.715
1379,0.728,37.207,27.393,33.65,26.353,5.153,8.726,26.225
1380,0.721,37.328,27.389,33.66,26.364,5.193,8.685,25.692
1381,0.734,37.435,27.339,33.65,26.354,5.194,8.684,25.158
1382,0.734,37.647,27.373,33.65,26.357,5.153,8.603,24.624
1383,0.734,37.247,27.331,33.669,26.353,5.153,8.602,24.172
1384,0.751,37.348,27.35,33.631,26.353,5.112,8.602,23.761
1385,0.754,37.474,27.416,33.659,26.36,5.152,8.602,23.431
1386,0.764,37.226,27.432,33.66,26.367,5.275,8.684,23.265
1387,0.761,37.252,27.39,33.66,26.357,5.195,8.684,23.223
1388,0.754,37.358,27.374,33.631,26.353,5.072,8.684,23.385
1389,0.751,37.464,27.346,33.612,26.35,5.111,8.644,23.549
1390,0.761,37.063,27.404,33.611,26.346,5.071,8.644,23.876
1391,0.77,37.183,27.366,33.631,26.35,5.07,8.725,24.083
1392,0.761,37.319,27.319,33.64,26.35,5.111,8.726,24.207
1393,0.757,37.426,27.35,33.631,26.357,5.112,8.766,24.167
1394,0.748,37.149,27.342,33.64,26.353,5.193,8.807,24.045
1395,0.747,37.27,27.326,33.631,26.35,5.112,8.889,23.881
1396,0.747,37.367,27.346,33.612,26.343,4.989,8.971,23.636
1397,0.747,37.484,27.432,33.611,26.353,5.07,9.053,23.308
1398,0.751,37.178,27.358,33.65,26.357,5.152,9.176,23.183
1399,0.751,37.299,27.366,33.641,26.357,5.153,9.34,22.937
1400,0.741,37.406,27.354,33.65,26.36,5.193,9.301,22.61
1401,0.741,37.446,27.408,33.641,26.36,5.234,9.382,22.2
1402,0.741,37.12,27.393,33.64,26.353,5.153,9.342,21.83
1403,0.751,37.251,27.374,33.64,26.357,5.112,9.423,21.42
1404,0.761,37.348,27.311,33.64,26.357,5.152,9.424,21.09
1405,0.767,37.387,27.248,33.64,26.353,5.153,9.424,20.64
1406,0.77,37.206,27.325,33.669,26.36,5.275,9.505,20.351
1407,0.761,37.309,27.354,33.669,26.367,5.276,9.506,20.063
1408,0.754,37.387,27.405,33.631,26.357,5.154,9.384,19.532
1409,0.751,37.196,27.307,33.631,26.347,5.071,9.179,19.12
1410,0.783,37.117,27.342,33.612,26.35,5.07,9.218,18.669
1411,0.777,37.232,27.365,33.611,26.346,5.07,9.259,18.257
1412,0.767,37.348,27.389,33.611,26.353,5.152,9.259,17.969
1413,0.774,37.013,27.428,33.631,26.353,5.112,9.341,17.803
1414,0.764,37.116,27.37,33.631,26.35,5.112,9.382,17.802
1415,0.764,37.241,27.354,33.621,26.346,5.071,9.382,17.802
1416,0.77,37.319,27.272,33.611,26.343,5.03,9.261,18.005
1417,0.787,37.004,27.341,33.64,26.35,5.111,9.3,18.779
1418,0.81,37.163,27.365,33.65,26.36,5.152,9.463,20.292
1419,0.826,37.29,27.393,33.641,26.353,5.112,9.424,22.339
1420,0.807,37.339,27.331,33.66,26.36,5.152,9.424,24.393
1421,0.81,36.994,27.342,33.65,26.357,5.153,9.464,25.999
1422,0.813,37.163,27.369,33.621,26.353,5.153,9.383,27.316
1423,0.816,37.232,27.385,33.631,26.357,5.112,9.423,28.224
1424,0.829,37.3,27.405,33.631,26.364,5.112,9.424,28.761
1425,0.843,37.071,27.421,33.659,26.364,5.112,9.383,29.011
1426,0.839,37.212,27.417,33.65,26.364,5.234,9.464,29.054
1427,0.839,37.3,27.358,33.698,26.36,5.235,9.465,28.973
1428,0.843,37.329,27.319,33.622,26.35,5.194,9.424,28.525
1429,0.839,37.042,27.381,33.621,26.343,5.112,9.383,28.073
1430,0.836,37.164,27.37,33.602,26.35,5.071,9.423,27.54
1431,0.856,37.28,27.303,33.621,26.35,5.03,9.342,27.006
1432,0.846,37.636,27.338,33.602,26.353,5.07,9.464,26.513
1433,0.84,37.045,27.342,33.63,26.35,5.111,9.546,25.939
1434,0.826,37.145,27.373,33.621,26.353,5.152,9.547,25.404
1435,0.813,37.203,27.385,33.621,26.35,4.99,9.547,24.911
1436,0.826,36.974,27.424,33.611,26.346,4.948,9.425,24.378
1437,0.826,37.01,27.382,33.64,26.357,5.069,9.586,23.884
1438,0.836,37.144,27.362,33.65,26.36,5.111,9.629,23.432
1439,0.823,37.232,27.334,33.631,26.36,5.152,9.588,23.021
1440,0.82,36.897,27.381,33.64,26.353,5.153,9.547,22.57
1441,0.826,37.038,27.37,33.631,26.364,5.153,9.506,22.24
1442,0.813,37.164,27.319,33.65,26.354,5.071,9.425,22.278
1443,0.797,37.223,27.326,33.669,26.357,5.152,9.424,22.237
1444,0.82,36.945,27.326,33.631,26.353,5.071,9.424,22.4
1445,0.826,37.115,27.35,33.669,26.364,5.193,9.424,22.401
1446,0.839,37.203,27.381,33.66,26.364,5.153,9.464,22.482
1447,0.833,37.233,27.42,33.631,26.36,5.112,9.343,22.443
1448,0.83,36.888,27.315,33.602,26.353,4.989,9.219,22.198
1449,0.83,37.038,27.322,33.621,26.346,4.988,9.096,21.952
1450,0.862,37.154,27.326,33.611,26.353,4.948,9.136,21.705
1451,0.853,37.194,27.396,33.602,26.35,5.029,9.055,21.459
1452,0.853,36.916,27.382,33.63,26.357,5.07,9.054,21.213
1453,0.853,37.038,27.327,33.612,26.357,5.07,9.095,21.088
1454,0.846,37.173,27.275,33.621,26.353,5.07,9.095,20.924
1455,0.843,37.165,27.252,33.621,26.35,5.07,9.136,20.719
1456,0.853,36.954,27.337,33.611,26.343,4.989,9.014,20.433
1457,0.853,37.096,27.358,33.621,26.353,4.988,9.135,20.511
1458,0.866,37.193,27.424,33.64,26.357,5.151,9.095,20.959
1459,0.853,37.108,27.308,33.64,26.36,5.112,9.217,21.33
1460,0.853,36.954,27.349,33.65,26.36,5.071,9.259,21.781
1461,0.84,37.067,27.373,33.631,26.35,5.152,9.341,22.151
1462,0.839,37.164,27.405,33.64,26.36,5.153,9.301,22.277
1463,0.849,36.868,27.401,33.621,26.353,5.153,9.382,22.441
1464,0.849,36.951,27.389,33.621,26.353,5.031,9.301,22.483
1465,0.846,37.096,27.358,33.621,26.357,5.07,9.341,22.483
1466,0.843,37.212,27.338,33.669,26.364,5.152,9.423,22.443
1467,0.82,36.782,27.354,33.65,26.367,5.234,9.505,22.28
1468,0.826,36.893,27.373,33.621,26.354,5.072,9.343,21.953
1469,0.813,37.019,27.385,33.611,26.35,4.989,9.219,21.502
1470,0.82,37.097,27.276,33.621,26.346,4.988,9.259,21.213
1471,0.813,36.675,27.318,33.611,26.35,5.07,9.259,20.844
1472,0.816,36.815,27.342,33.611,26.353,5.03,9.259,20.434
1473,0.813,36.941,27.377,33.611,26.357,5.07,9.219,20.186
1474,0.794,37.009,27.416,33.631,26.353,5.07,9.218,19.899
1475,0.797,36.809,27.413,33.621,26.353,5.03,9.178,19.774
1476,0.797,36.941,27.397,33.592,26.35,5.03,9.096,19.813
1477,0.797,37.086,27.37,33.64,26.353,5.07,9.054,19.977
1478,0.784,37.136,27.342,33.631,26.357,5.07,9.054,20.344
1479,0.78,36.829,27.373,33.65,26.36,5.193,9.095,20.714
1480,0.751,36.941,27.381,33.631,26.357,5.153,9.176,21.164
1481,0.741,37.077,27.303,33.631,26.36,5.071,9.096,21.535
1482,0.751,37.078,27.353,33.64,26.353,5.152,9.014,21.823
1483,0.748,36.704,27.342,33.631,26.357,5.153,8.932,22.07
1484,0.747,36.806,27.338,33.631,26.353,5.153,8.931,22.276
1485,0.754,36.941,27.354,33.631,26.353,5.112,8.972,22.563
1486,0.748,36.789,27.412,33.659,26.371,5.234,8.972,22.931
1487,0.731,36.778,27.358,33.631,26.357,5.194,9.013,23.22
1488,0.725,36.912,27.354,33.612,26.353,5.153,8.81,23.304
1489,0.715,36.99,27.358,33.611,26.346,5.031,8.848,23.427
1490,0.718,36.588,27.397,33.602,26.346,5.03,8.767,23.509
1491,0.721,36.737,27.366,33.611,26.353,5.03,8.767,23.835
1492,0.715,36.854,27.288,33.611,26.35,5.111,8.807,24.164
1493,0.721,36.941,27.345,33.611,26.353,5.071,8.808,24.411
1494,0.711,36.597,27.319,33.621,26.353,5.07,8.848,24.698
1495,0.695,36.728,27.318,33.631,26.357,5.07,8.767,24.782
1496,0.698,36.835,27.326,33.592,26.343,4.989,8.685,24.742
1497,0.705,36.922,27.393,33.592,26.35,5.029,8.684,24.539
1498,0.695,36.664,27.331,33.63,26.35,5.151,8.807,24.537
1499,0.688,36.824,27.35,33.64,26.357,5.112,8.808,24.171
1500,0.679,36.932,27.365,33.65,26.353,5.152,8.889,24.045
1501,0.682,36.981,27.393,33.641,26.357,5.153,8.849,24.166
1502,0.675,36.54,27.405,33.64,26.353,5.153,8.767,24.655
1503,0.675,36.67,27.35,33.631,26.35,5.153,8.726,25.229
1504,0.685,36.757,27.283,33.64,26.36,5.112,8.644,25.763
1505,0.698,36.825,27.189,33.66,26.347,5.152,8.644,26.541
1506,0.708,36.73,27.313,33.669,26.364,5.234,8.765,27.362
1507,0.698,36.854,27.361,33.66,26.36,5.153,8.726,28.265
1508,0.695,36.913,27.354,33.612,26.353,5.071,8.603,28.965
1509,0.701,36.846,27.229,33.631,26.346,5.03,8.562,29.419
1510,0.711,36.558,27.306,33.602,26.353,4.989,8.48,29.627
1511,0.718,36.689,27.349,33.611,26.353,5.029,8.479,29.71
1512,0.711,36.786,27.393,33.621,26.353,5.111,8.479,29.549
1513,0.715,36.538,27.385,33.611,26.35,5.112,8.52,29.262
1514,0.702,36.631,27.366,33.64,26.353,5.112,8.601,28.934
1515,0.698,36.747,27.33,33.621,26.357,5.071,8.806,28.443
1516,0.688,36.806,27.307,33.592,26.343,5.03,8.889,27.91
1517,0.688,36.433,27.33,33.602,26.346,5.03,9.052,27.416
1518,0.688,36.554,27.361,33.63,26.357,5.111,9.298,27.045
1519,0.692,36.67,27.385,33.621,26.357,5.152,9.504,26.635
1520,0.685,36.757,27.311,33.65,26.36,5.153,9.709,26.347
1521,0.682,36.605,27.326,33.631,26.357,5.153,9.752,25.734
1522,0.679,36.728,27.342,33.631,26.357,5.193,9.915,25.321
1523,0.688,36.844,27.381,33.602,26.357,5.112,9.916,24.87
1524,0.692,36.874,27.413,33.611,26.357,5.152,10.039,24.459
1525,0.705,36.453,27.413,33.631,26.353,5.234,10.04,24.048
1526,0.711,36.602,27.393,33.659,26.367,5.235,10.162,23.719
1527,0.708,36.68,27.327,33.65,26.364,5.275,10.122,23.471
1528,0.711,36.729,27.342,33.602,26.35,5.154,10.081,23.144
1529,0.711,36.557,27.365,33.602,26.35,5.071,9.999,22.896
1530,0.715,36.68,27.362,33.592,26.357,5.07,9.917,22.691
1531,0.724,36.805,27.288,33.611,26.347,5.07,9.794,22.526
1532,0.721,36.826,27.31,33.602,26.35,5.152,9.875,22.402
1533,0.721,36.414,27.318,33.602,26.35,5.153,9.794,22.157
1534,0.708,36.534,27.35,33.611,26.35,5.193,9.753,21.789
1535,0.705,36.603,27.358,33.611,26.357,5.112,9.874,21.541
1536,0.695,36.527,27.381,33.592,26.343,5.03,9.753,21.173
1537,0.701,36.583,27.393,33.602,26.35,5.07,9.874,20.925
1538,0.698,36.747,27.378,33.621,26.357,5.233,9.916,20.679
1539,0.695,36.835,27.315,33.631,26.36,5.316,10.161,20.392
1540,0.695,36.443,27.385,33.612,26.353,5.236,10.204,20.145
1541,0.695,36.544,27.385,33.611,26.357,5.235,10.204,19.776
1542,0.695,36.66,27.346,33.611,26.353,5.235,10.245,19.57
1543,0.685,36.776,27.272,33.611,26.35,5.153,10.245,19.12
1544,0.705,36.365,27.318,33.602,26.353,5.153,10.286,18.831
1545,0.718,36.534,27.33,33.64,26.364,5.234,10.367,18.544
1546,0.715,36.631,27.338,33.631,26.364,5.316,10.449,18.541
1547,0.721,36.69,27.4,33.612,26.36,5.236,10.45,18.256
1548,0.715,36.355,27.339,33.592,26.36,5.113,10.41,18.009
1549,0.711,36.495,27.338,33.602,26.35,5.112,10.409,17.641
1550,0.718,36.621,27.319,33.573,26.346,5.112,10.45,17.475
1551,0.728,36.671,27.392,33.592,26.35,5.112,10.45,17.31
1552,0.728,36.307,27.354,33.602,26.346,5.071,10.491,17.349
1553,0.731,36.437,27.362,33.592,26.357,5.152,10.491,17.431
1554,0.702,36.563,27.307,33.602,26.35,5.153,10.451,17.595
1555,0.698,36.584,27.267,33.611,26.35,5.153,10.532,17.637
1556,0.708,36.402,27.326,33.583,26.346,5.071,10.37,17.637
1557,0.705,36.563,27.357,33.592,26.346,5.152,10.328,17.719
1558,0.715,36.67,27.405,33.602,26.357,5.153,10.368,17.882
1559,0.705,36.805,27.319,33.621,26.357,5.234,10.328,17.843
1560,0.708,36.433,27.35,33.631,26.353,5.235,10.327,17.802
1561,0.692,36.544,27.35,33.602,26.353,5.194,10.165,17.72
1562,0.692,36.641,27.401,33.63,26.364,5.194,10.122,17.597
1563,0.688,36.297,27.409,33.612,26.354,5.153,10.081,17.596
1564,0.708,36.332,27.393,33.611,26.353,5.153,9.959,17.881
1565,0.724,36.486,27.35,33.592,26.35,5.112,9.876,18.453
1566,0.728,36.583,27.319,33.649,26.367,5.274,9.835,19.272
1567,0.731,36.267,27.346,33.631,26.367,5.235,9.916,20.134
1568,0.731,36.37,27.35,33.592,26.354,5.194,9.754,20.671
1569,0.728,36.476,27.401,33.592,26.35,5.153,9.59,21.001
1570,0.747,36.564,27.315,33.592,26.35,5.112,9.425,21.411
1571,0.757,36.267,27.318,33.582,26.346,5.112,9.424,21.619
1572,0.751,36.427,27.31,33.592,26.346,5.112,9.424,21.702
1573,0.754,36.534,27.353,33.602,26.353,5.193,9.383,21.744
1574,0.748,36.612,27.381,33.602,26.357,5.234,9.382,21.744
1575,0.734,36.143,27.385,33.602,26.35,5.235,9.342,21.825
1576,0.734,36.273,27.358,33.554,26.35,5.032,9.179,21.745
1577,0.731,36.408,27.323,33.582,26.35,5.03,9.218,21.744
1578,0.734,36.496,27.33,33.602,26.353,5.233,9.3,21.622
1579,0.721,36.267,27.365,33.621,26.357,5.153,9.26,21.58
1580,0.711,36.408,27.389,33.611,26.36,5.234,9.3,21.377
1581,0.689,36.525,27.323,33.611,26.36,5.194,9.219,21.13
1582,0.688,36.545,27.357,33.611,26.357,5.153,9.137,20.925
1583,0.682,36.296,27.334,33.611,26.364,5.193,9.055,20.882
1584,0.682,36.418,27.342,33.611,26.354,5.275,9.054,20.841
1585,0.698,36.515,27.35,33.602,26.35,5.195,9.013,20.8
1586,0.711,36.324,27.397,33.63,26.36,5.316,9.013,20.596
1587,0.721,36.207,27.393,33.631,26.36,5.398,9.054,20.675
1588,0.731,36.302,27.366,33.592,26.357,5.114,8.932,20.514
1589,0.76,36.408,27.319,33.602,26.347,5.071,8.85,20.309
1590,0.793,36.093,27.353,33.563,26.346,5.111,8.767,19.982
1591,0.813,36.195,27.381,33.592,26.35,5.071,8.767,19.815
1592,0.816,36.321,27.35,33.573,26.353,5.111,8.726,19.773
1593,0.81,36.437,27.311,33.601,26.357,5.152,8.685,19.732
1594,0.8,36.103,27.318,33.669,26.353,5.193,8.725,19.772
1595,0.797,36.243,27.338,33.593,26.35,5.234,8.685,19.692
1596,0.81,36.341,27.295,33.573,26.343,5.072,8.644,19.569
1597,0.829,36.438,27.365,33.592,26.35,5.193,8.644,19.527
1598,0.859,36.065,27.362,33.602,26.357,5.275,8.644,19.486
1599,0.885,36.205,27.342,33.611,26.36,5.195,8.725,19.445
1600,0.921,36.321,27.342,33.611,26.364,5.356,8.766,19.282
1601,0.935,36.38,27.369,33.611,26.354,5.317,8.767,19.117
1602,1.023,36.198,27.405,33.621,26.36,5.317,8.848,18.953
1603,1.062,36.331,27.389,33.592,26.353,5.358,8.808,18.789
1604,1.092,36.428,27.374,33.602,26.35,5.317,8.808,18.706
1605,1.141,36.487,27.338,33.602,26.346,5.276,8.767,18.542
1606,1.181,36.113,27.303,33.65,26.364,5.398,8.929,18.459
1607,1.194,36.205,27.318,33.631,26.367,5.399,9.093,18.499
1608,1.178,36.283,27.357,33.592,26.354,5.358,8.932,18.296
1609,1.178,36.6,27.346,33.592,26.35,5.277,8.931,17.928
1610,1.184,36.114,27.326,33.592,26.346,5.235,9.012,17.722
1611,1.204,36.244,27.318,33.582,26.35,5.275,9.013,17.557
1612,1.214,36.341,27.33,33.592,26.353,5.235,9.054,17.311
1613,1.234,35.977,27.369,33.592,26.357,5.235,9.095,17.187
1614,1.227,36.012,27.412,33.592,26.357,5.316,9.136,17.063
1615,1.198,36.118,27.421,33.602,26.353,5.317,9.217,16.859
1616,1.188,36.205,27.374,33.563,26.343,5.236,9.178,16.816
1617,1.155,36.158,27.362,33.582,26.346,5.235,9.177,16.979
1618,1.077,36.311,27.327,33.611,26.36,5.235,9.259,17.224
1619,0.949,36.409,27.365,33.602,26.364,5.357,9.422,17.796
1620,0.818,36.496,27.377,33.602,26.36,5.236,9.383,18.249
1621,0.664,35.989,27.256,33.602,26.357,5.316,9.342,18.538
1622,0.542,36.118,27.318,33.611,26.357,5.276,9.342,19.313
1623,0.472,36.253,27.326,33.602,26.35,5.235,9.26,20.541
1624,0.406,36.322,27.35,33.592,26.357,5.194,9.3,22.871
1625,0.324,36.188,27.369,33.582,26.357,5.234,9.26,25.984
1626,0.275,36.331,27.416,33.611,26.364,5.397,9.3,29.024
1627,0.226,36.438,27.393,33.631,26.367,5.48,9.463,31.534
1628,0.189,36.458,27.358,33.602,26.357,5.359,9.343,33.145
1629,0.195,36.026,27.326,33.592,26.35,5.317,9.26,34.137
1630,0.218,36.156,27.369,33.563,26.343,5.317,9.219,34.594
1631,0.248,36.244,27.346,33.573,26.346,5.236,9.178,34.68
1632,0.255,36.274,27.28,33.582,26.353,5.316,9.259,34.436
1633,0.274,36.14,27.318,33.573,26.35,5.398,9.259,33.987
1634,0.281,36.282,27.295,33.592,26.36,5.318,9.341,33.291
1635,0.287,36.37,27.302,33.582,26.353,5.358,9.301,32.512
1636,0.307,36.198,27.31,33.563,26.346,5.317,9.26,31.65
1637,0.327,36.072,27.373,33.573,26.343,5.317,9.137,30.666
1638,0.398,36.205,27.303,33.592,26.357,5.358,9.258,29.761
1639,0.461,36.321,27.33,33.592,26.353,5.439,9.3,28.899
1640,0.517,36.016,27.334,33.592,26.357,5.399,9.26,27.996
1641,0.576,36.118,27.377,33.592,26.36,5.358,9.259,27.377
1642,0.632,36.215,27.366,33.592,26.357,5.399,9.3,27.086
1643,0.675,36.312,27.33,33.592,26.357,5.358,9.178,27.083
1644,0.721,35.9,27.295,33.592,26.357,5.358,9.218,27.327
1645,0.741,36.04,27.236,33.592,26.353,5.399,9.259,27.695
1646,0.806,36.185,27.31,33.611,26.36,5.399,9.178,28.146
1647,0.842,36.254,27.357,33.611,26.371,5.521,9.34,28.842
1648,0.853,36.034,27.373,33.592,26.364,5.4,9.342,29.581
1649,0.869,36.176,27.303,33.592,26.347,5.358,9.26,30.035
1650,0.879,36.283,27.291,33.563,26.35,5.317,9.219,30.406
1651,0.895,36.36,27.338,33.582,26.346,5.236,9.178,30.613
1652,0.895,35.997,27.397,33.563,26.346,5.316,9.299,30.574
1653,0.905,36.127,27.385,33.592,26.353,5.317,9.382,30.452
1654,0.889,36.253,27.366,33.573,26.353,5.317,9.382,30.206
1655,0.882,36.264,27.334,33.563,26.357,5.317,9.464,29.676
1656,0.885,35.948,27.24,33.592,26.357,5.317,9.465,29.223
1657,0.856,36.069,27.29,33.554,26.347,5.195,9.383,28.609
1658,0.859,36.205,27.341,33.553,26.346,5.194,9.382,27.993
1659,0.872,36.254,27.365,33.582,26.353,5.234,9.423,27.417
1660,0.859,36.072,27.268,33.592,26.353,5.357,9.505,26.883
1661,0.846,36.195,27.326,33.611,26.357,5.317,9.506,26.268
1662,0.859,36.292,27.334,33.602,26.36,5.317,9.506,25.692
1663,0.853,35.986,27.346,33.573,26.357,5.317,9.506,24.914
1664,0.862,35.983,27.385,33.573,26.353,5.317,9.506,24.296
1665,0.869,36.098,27.405,33.582,26.35,5.195,9.546,23.802
1666,0.866,36.196,27.389,33.573,26.353,5.234,9.466,23.431
1667,0.879,35.918,27.296,33.582,26.353,5.316,9.424,23.143
1668,0.892,36.031,27.334,33.621,26.364,5.398,9.546,22.896
1669,0.889,36.147,27.365,33.583,26.364,5.399,9.506,22.609
1670,0.879,36.215,27.354,33.554,26.35,5.318,9.465,22.159
1671,0.898,35.89,27.295,33.563,26.343,5.154,9.343,21.789
1672,0.889,36.04,27.314,33.563,26.35,5.234,9.26,21.663
1673,0.892,36.166,27.326,33.563,26.353,5.194,9.219,21.621
1674,0.876,36.215,27.322,33.573,26.353,5.194,9.178,21.784
1675,0.882,35.976,27.338,33.563,26.35,5.194,9.137,21.866
1676,0.885,36.146,27.373,33.573,26.353,5.234,9.136,21.908
1677,0.866,36.234,27.385,33.563,26.357,5.194,9.095,21.908
1678,0.853,36.293,27.323,33.553,26.343,5.153,9.014,21.949
1679,0.866,35.986,27.311,33.534,26.343,5.112,8.85,21.868
1680,0.872,36.127,27.365,33.582,26.353,5.234,9.011,21.867
1681,0.872,36.234,27.385,33.592,26.357,5.316,8.972,21.745
1682,0.863,36.245,27.323,33.573,26.357,5.276,9.013,21.785
1683,0.859,36.12,27.287,33.582,26.353,5.235,8.972,21.826
1684,0.875,36.263,27.349,33.582,26.357,5.275,8.85,21.867
1685,0.876,36.36,27.342,33.573,26.36,5.235,8.849,21.786
1686,0.882,36.304,27.334,33.563,26.357,5.235,8.808,21.663
1687,0.902,36.044,27.369,33.582,26.36,5.275,8.726,21.499
1688,0.908,36.205,27.346,33.602,26.364,5.276,8.685,21.335
1689,0.918,36.283,27.322,33.592,26.367,5.316,8.847,21.171
1690,0.909,35.871,27.303,33.582,26.357,5.236,8.767,20.885
1691,0.921,35.944,27.377,33.534,26.353,5.153,8.726,20.435
1692,0.915,36.06,27.37,33.553,26.346,5.153,8.603,20.064
1693,0.905,36.157,27.35,33.563,26.353,5.153,8.521,19.654
1694,0.905,35.803,27.295,33.573,26.346,5.193,8.52,19.446
1695,0.895,35.953,27.299,33.544,26.35,5.153,8.561,19.322
1696,0.915,36.098,27.318,33.553,26.343,5.193,8.643,19.158
1697,0.899,36.167,27.318,33.563,26.353,5.194,8.684,19.035
1698,0.892,35.937,27.365,33.534,26.35,5.194,8.684,18.993
1699,0.879,36.079,27.33,33.534,26.346,5.072,8.684,18.83
1700,0.902,36.224,27.326,33.534,26.353,5.152,8.766,18.625
1701,0.892,36.293,27.318,33.572,26.35,5.193,8.929,18.542
1702,0.902,35.977,27.353,33.592,26.364,5.234,8.972,18.378
1703,0.905,36.098,27.362,33.563,26.357,5.235,8.972,18.132
1704,0.915,36.186,27.385,33.573,26.36,5.235,9.053,17.845
1705,0.918,36.235,27.381,33.582,26.357,5.235,9.013,17.639
1706,0.931,35.957,27.311,33.554,26.353,5.194,9.054,17.393
1707,0.925,36.089,27.342,33.572,26.353,5.234,9.013,17.188
1708,0.931,36.205,27.326,33.553,26.357,5.194,8.972,17.023
1709,0.948,36.245,27.393,33.592,26.357,5.234,8.972,16.899
1710,0.938,35.928,27.311,33.602,26.367,5.316,9.135,16.776
1711,0.945,36.012,27.318,33.573,26.361,5.276,8.933,16.572
1712,0.941,36.118,27.299,33.544,26.35,5.154,8.89,16.407
1713,0.941,35.898,27.334,33.534,26.35,5.112,8.768,16.161
1714,0.932,35.896,27.365,33.534,26.346,5.03,8.767,16.078
1715,0.925,36.021,27.397,33.534,26.353,5.07,8.685,15.995
1716,0.918,36.08,27.382,33.534,26.35,5.152,8.725,15.832
1717,0.918,35.936,27.331,33.544,26.35,5.071,8.766,15.83
1718,0.918,36.088,27.322,33.553,26.353,5.07,8.889,15.83
1719,0.912,36.195,27.334,33.553,26.357,5.111,8.93,15.668
1720,0.912,36.264,27.393,33.525,26.343,5.071,9.012,15.585
1721,0.908,35.881,27.307,33.534,26.353,5.07,9.094,15.503
1722,0.925,36.059,27.31,33.572,26.357,5.152,9.217,15.42
1723,0.928,36.166,27.318,33.563,26.364,5.193,9.422,15.501
1724,0.938,36.235,27.314,33.563,26.357,5.194,9.505,15.542
1725,0.932,35.88,27.349,33.553,26.35,5.194,9.628,15.827
1726,0.938,36.04,27.362,33.563,26.357,5.153,9.71,16.237
1727,0.954,36.128,27.412,33.544,26.357,5.153,9.914,17.013
1728,0.948,36.205,27.323,33.601,26.357,5.153,9.916,17.713
1729,0.967,35.909,27.346,33.563,26.36,5.153,9.916,18.614
1730,0.977,36.069,27.362,33.573,26.353,5.193,10.039,20.086
1731,0.997,36.176,27.377,33.582,26.374,5.234,10.243,22.5
1732,0.978,36.187,27.319,33.554,26.357,5.194,10.123,25.492
1733,0.968,35.918,27.24,33.563,26.353,5.112,10.081,28.693
1734,0.964,36.059,27.282,33.534,26.35,5.03,9.999,31.165
1735,0.971,36.166,27.291,33.534,26.35,4.989,9.999,33.06
1736,0.974,36.321,27.318,33.544,26.346,5.11,9.999,34.38
1737,0.961,35.948,27.338,33.544,26.35,5.112,10.039,35.043
1738,0.955,36.041,27.35,33.563,26.353,5.03,9.958,35.294
1739,0.961,36.176,27.334,33.563,26.35,5.07,9.917,35.093
1740,0.945,35.803,27.338,33.553,26.353,5.07,9.876,34.481
1741,0.941,35.866,27.358,33.534,26.346,5.03,9.713,33.906
1742,0.948,36.03,27.405,33.553,26.35,5.03,9.711,32.924
1743,0.958,36.118,27.374,33.572,26.357,5.151,9.711,32.142
1744,0.964,35.918,27.319,33.563,26.357,5.153,9.67,31.159
1745,0.977,36.05,27.271,33.563,26.357,5.153,9.629,30.173
1746,0.981,36.185,27.31,33.592,26.364,5.071,9.548,29.228
1747,0.984,36.235,27.303,33.563,26.354,5.111,9.425,28.324
1748,1.0,35.794,27.353,33.553,26.353,5.112,9.383,27.583
1749,1.0,35.934,27.326,33.572,26.357,5.03,9.301,27.007
1750,1.017,36.079,27.318,33.553,26.357,5.151,9.26,26.594
1751,1.03,36.167,27.334,33.582,26.364,5.112,9.219,26.305
1752,1.024,35.966,27.365,33.602,26.364,5.152,9.259,26.221
1753,1.023,36.117,27.412,33.592,26.36,5.153,9.259,26.017
1754,1.01,36.215,27.378,33.544,26.36,5.153,9.137,26.096
1755,1.01,36.245,27.381,33.563,26.35,4.99,9.095,26.463
1756,1.01,35.852,27.307,33.525,26.346,4.948,9.054,26.995
1757,1.001,35.992,27.314,33.543,26.353,4.988,9.095,27.489
1758,1.004,36.089,27.31,33.544,26.353,5.07,9.136,27.9
1759,1.01,36.1,27.361,33.563,26.35,4.989,9.136,28.107
1760,1.017,35.822,27.319,33.563,26.35,4.988,9.258,28.069
1761,1.001,35.991,27.271,33.601,26.357,5.029,9.219,27.865
1762,0.997,36.051,27.306,33.535,26.35,5.03,9.3,27.579
1763,1.01,35.994,27.306,33.534,26.35,4.907,9.178,27.129
1764,1.036,35.964,27.353,33.572,26.353,4.987,9.34,26.88
1765,1.037,36.108,27.381,33.573,26.36,5.029,9.342,26.837
1766,1.037,36.186,27.389,33.573,26.364,5.111,9.342,26.877
1767,1.05,36.263,27.366,33.582,26.357,5.152,9.342,26.837
1768,1.063,36.408,27.334,33.582,26.35,5.112,9.26,26.837
1769,1.066,36.525,27.326,33.582,26.36,5.071,9.178,26.714
1770,1.063,36.612,27.373,33.563,26.357,5.07,9.218,26.388
1771,1.066,35.472,27.323,33.553,26.357,5.07,9.178,25.978
1772,1.089,35.623,27.268,33.592,26.357,5.152,9.218,25.689
1773,1.102,35.778,27.318,33.602,26.364,5.193,9.259,25.402
1774,1.083,35.818,27.326,33.583,26.367,5.153,9.3,25.155
1775,1.079,35.924,27.307,33.573,26.35,5.112,9.178,24.746
1776,1.066,36.069,27.33,33.544,26.35,4.989,9.096,24.173
1777,1.066,36.176,27.369,33.534,26.346,5.07,9.095,23.761
1778,1.073,36.235,27.264,33.534,26.35,5.07,9.136,23.39
1779,1.076,35.785,27.31,33.544,26.35,5.07,9.055,22.94
1780,1.076,35.914,27.334,33.563,26.35,5.111,9.095,22.488
1781,1.07,36.031,27.404,33.563,26.36,5.071,9.095,22.077
1782,1.076,36.08,27.335,33.573,26.35,5.07,9.136,21.747
1783,1.083,35.783,27.248,33.525,26.346,4.989,9.136,21.5
1784,1.102,35.933,27.228,33.553,26.343,4.988,9.055,21.294
1785,1.122,36.06,27.302,33.553,26.346,5.07,9.135,21.374
1786,1.119,36.406,27.291,33.582,26.364,5.193,9.258,21.334
1787,1.142,35.882,27.341,33.563,26.364,5.153,9.422,21.252
1788,1.145,36.002,27.342,33.563,26.357,5.112,9.586,21.048
1789,1.148,36.099,27.315,33.592,26.353,5.193,9.669,20.843
1790,1.148,35.783,27.299,33.582,26.357,5.194,9.833,20.718
1791,1.181,35.809,27.334,33.563,26.35,5.234,9.875,20.595
1792,1.181,35.934,27.373,33.553,26.35,5.113,10.038,20.675
1793,1.194,36.04,27.354,33.563,26.353,5.112,10.162,20.92
1794,1.181,35.783,27.326,33.601,26.364,5.234,10.326,21.248
1795,1.181,35.876,27.311,33.611,26.371,5.235,10.368,21.576
1796,1.178,35.992,27.326,33.621,26.357,5.235,10.328,21.742
1797,1.168,36.06,27.303,33.554,26.35,5.113,10.286,21.825
1798,1.171,35.821,27.357,33.544,26.35,5.071,10.286,21.704
1799,1.178,35.953,27.319,33.534,26.35,5.111,10.164,21.662
1800,1.184,36.089,27.314,33.563,26.357,5.071,10.285,21.499
1801,1.188,36.157,27.303,33.573,26.353,5.111,10.245,21.335
1802,1.188,35.841,27.338,33.553,26.35,5.152,10.164,21.089
1803,1.188,35.953,27.381,33.572,26.36,5.153,10.163,20.721
1804,1.197,36.041,27.354,33.544,26.35,5.031,10.082,20.351
1805,1.214,36.118,27.338,33.544,26.35,4.989,9.999,19.941
1806,1.23,35.841,27.311,33.563,26.357,5.11,10.08,19.693
1807,1.247,35.982,27.307,33.592,26.36,5.193,10.081,19.528
1808,1.25,36.098,27.318,33.563,26.353,5.194,10.081,19.323
1809,1.247,36.109,27.389,33.563,26.36,5.194,9.999,19.118
1810,1.273,35.956,27.292,33.563,26.353,5.194,9.999,18.912
1811,1.276,36.098,27.299,33.553,26.357,5.112,9.917,18.707
1812,1.273,36.167,27.31,33.563,26.353,5.112,9.957,18.542
1813,1.286,36.129,27.318,33.553,26.35,5.152,9.795,18.297
1814,1.29,36.033,27.361,33.563,26.353,5.153,9.793,18.091
1815,1.283,36.185,27.381,33.592,26.367,5.234,9.834,18.008
1816,1.283,36.254,27.393,33.573,26.364,5.235,9.916,18.21
1817,1.26,35.948,27.276,33.553,26.354,5.113,9.754,18.172
1818,1.27,36.06,27.326,33.534,26.35,5.03,9.671,18.13
1819,1.273,36.195,27.33,33.544,26.343,4.989,9.629,18.171
1820,1.28,36.273,27.381,33.553,26.346,5.07,9.67,18.09
1821,1.263,36.034,27.311,33.553,26.35,5.152,9.629,18.211
1822,1.286,36.176,27.318,33.63,26.346,5.071,9.629,18.09
1823,1.29,36.283,27.318,33.564,26.353,5.07,9.629,18.089
1824,1.299,36.341,27.295,33.563,26.357,5.152,9.629,18.089
1825,1.303,36.217,27.326,33.525,26.343,5.031,9.507,18.17
1826,1.319,36.369,27.334,33.553,26.346,5.03,9.425,18.334
1827,1.332,36.505,27.361,33.572,26.36,5.192,9.505,18.579
1828,1.329,36.564,27.346,33.573,26.357,5.153,9.465,18.866
1829,1.336,36.334,27.322,33.573,26.357,5.153,9.343,18.869
1830,1.342,36.457,27.35,33.563,26.353,5.193,9.342,18.951
1831,1.349,36.573,27.365,33.553,26.357,5.112,9.219,18.707
1832,1.352,36.613,27.311,33.572,26.357,5.152,9.178,18.664
1833,1.329,36.651,27.303,33.563,26.357,5.112,9.055,18.501
1834,1.342,36.786,27.306,33.553,26.35,5.112,8.973,18.337
1835,1.349,36.931,27.303,33.572,26.364,5.234,9.013,18.335
1836,1.345,36.952,27.338,33.582,26.364,5.194,9.054,18.539
1837,1.326,36.674,27.338,33.554,26.354,5.153,8.932,18.541
1838,1.329,36.777,27.326,33.544,26.343,5.071,8.809,18.541
1839,1.326,36.893,27.334,33.534,26.343,5.03,8.686,18.459
1840,1.329,36.836,27.299,33.544,26.346,5.07,8.684,18.377
1841,1.316,36.893,27.353,33.553,26.35,5.111,8.522,18.295
1842,1.335,37.019,27.377,33.553,26.357,5.071,8.561,18.213
1843,1.326,37.116,27.358,33.534,26.364,5.152,8.439,18.009
1844,1.339,36.973,27.307,33.534,26.357,5.153,8.479,17.885
1845,1.339,37.096,27.264,33.544,26.353,5.153,8.438,17.843
1846,1.332,37.203,27.271,33.544,26.343,5.031,8.275,17.761
1847,1.352,37.3,27.302,33.553,26.353,5.07,8.314,17.76
1848,1.355,37.176,27.349,33.553,26.357,5.152,8.356,17.72
1849,1.355,37.319,27.326,33.563,26.357,5.153,8.315,17.801
1850,1.352,37.435,27.33,33.573,26.364,5.071,8.356,17.679
1851,1.352,37.484,27.291,33.544,26.357,5.152,8.315,17.556
1852,1.355,37.36,27.326,33.553,26.357,5.153,8.274,17.433
1853,1.349,37.483,27.381,33.553,26.364,5.153,8.314,17.473
1854,1.339,37.581,27.385,33.553,26.354,5.153,8.396,17.432
1855,1.332,37.62,27.378,33.553,26.36,5.234,8.356,17.757
1856,1.339,37.457,27.327,33.572,26.364,5.194,8.397,18.614
1857,1.319,37.609,27.33,33.573,26.371,5.234,8.438,19.68
1858,1.303,37.687,27.307,33.553,26.361,5.235,8.438,20.626
1859,1.293,37.679,27.365,33.544,26.35,5.235,8.397,21.367
1860,1.293,37.774,27.307,33.524,26.35,5.153,8.438,22.066
1861,1.28,37.9,27.31,33.515,26.346,5.112,8.357,22.642
1862,1.267,38.007,27.283,33.534,26.346,5.112,8.356,23.379
1863,1.273,38.008,27.31,33.534,26.353,5.071,8.397,24.159
1864,1.267,37.845,27.365,33.544,26.35,5.111,8.438,25.061
1865,1.263,37.949,27.358,33.534,26.35,5.193,8.397,26.006
1866,1.263,38.045,27.377,33.544,26.35,5.194,8.438,26.747
1867,1.254,37.97,27.299,33.544,26.353,5.194,8.357,27.323
1868,1.24,38.074,27.306,33.524,26.346,5.112,8.356,27.614
1869,1.247,38.2,27.303,33.543,26.353,5.112,8.356,27.698
1870,1.247,38.288,27.365,33.553,26.36,5.193,8.478,27.658
1871,1.244,38.049,27.284,33.563,26.36,5.194,8.52,27.455
1872,1.231,38.2,27.306,33.63,26.357,5.234,8.439,27.087
1873,1.224,38.297,27.31,33.564,26.353,5.235,8.479,26.676
1874,1.211,38.385,27.303,33.544,26.357,5.194,8.479,26.266
1875,1.194,38.261,27.334,33.553,26.353,5.194,8.438,25.774
1876,1.175,38.355,27.357,33.553,26.357,5.194,8.438,25.322
1877,1.158,38.481,27.389,33.534,26.353,5.194,8.357,24.748
1878,1.152,38.569,27.327,33.62,26.367,5.234,8.437,24.173
1879,1.129,38.359,27.311,33.573,26.367,5.275,8.601,23.761
1880,1.109,38.452,27.326,33.534,26.357,5.235,8.48,23.187
1881,1.089,38.559,27.35,33.515,26.343,5.113,8.438,22.653
1882,1.086,38.569,27.287,33.524,26.346,5.112,8.438,22.444
1883,1.092,38.589,27.232,33.534,26.346,5.112,8.438,22.645
1884,1.079,38.733,27.302,33.534,26.35,5.234,8.479,22.81
1885,1.073,38.811,27.279,33.534,26.357,5.194,8.52,23.178
1886,1.063,38.831,27.302,33.534,26.353,5.194,8.52,23.466
1887,1.063,38.62,27.345,33.544,26.35,5.194,8.601,23.754
1888,1.05,38.695,27.326,33.524,26.35,5.153,8.643,24.122
1889,1.043,38.811,27.299,33.524,26.343,5.112,8.521,24.248
1890,1.043,38.764,27.295,33.534,26.357,5.112,8.601,24.412
1891,1.037,38.792,27.349,33.544,26.36,5.193,8.684,24.413
1892,1.03,38.888,27.362,33.544,26.357,5.275,8.684,24.536
1893,1.024,38.985,27.299,33.553,26.364,5.235,8.725,24.537
1894,0.994,38.689,27.24,33.544,26.364,5.235,8.766,24.618
1895,0.974,38.801,27.228,33.534,26.357,5.235,8.726,24.578
1896,0.964,38.907,27.29,33.553,26.357,5.235,8.726,24.537
1897,0.948,38.985,27.306,33.534,26.357,5.194,8.685,24.455
1898,0.945,39.12,27.381,33.544,26.357,5.112,8.725,24.414
1899,0.941,39.275,27.319,33.572,26.367,5.274,8.766,24.454
1900,0.922,39.353,27.322,33.563,26.367,5.316,8.807,24.332
1901,0.902,39.383,27.338,33.553,26.357,5.236,8.808,24.25
1902,0.892,38.731,27.342,33.525,26.353,5.153,8.767,24.046
1903,0.879,38.887,27.369,33.515,26.35,5.112,8.685,23.8
1904,0.879,38.985,27.342,33.524,26.35,5.112,8.766,23.716
1905,0.892,39.034,27.299,33.534,26.35,5.152,8.726,23.593
1906,0.879,38.891,27.26,33.524,26.357,5.153,8.807,23.592
1907,0.885,39.014,27.275,33.534,26.353,5.193,8.848,23.673
1908,0.879,39.101,27.302,33.553,26.357,5.194,8.767,23.634
1909,0.866,39.112,27.342,33.525,26.35,5.153,8.807,23.552
1910,0.862,38.872,27.28,33.524,26.34,5.071,8.686,23.429
1911,0.879,39.014,27.287,33.534,26.357,5.152,8.847,23.428
1912,0.872,39.13,27.302,33.553,26.36,5.234,8.93,23.469
1913,0.859,39.266,27.365,33.544,26.367,5.153,8.931,23.51
1914,0.853,39.046,27.366,33.544,26.354,5.193,8.931,23.347
1915,0.836,39.169,27.362,33.534,26.353,5.234,8.85,23.264
1916,0.823,39.228,27.358,33.534,26.35,5.235,8.889,23.101
1917,0.82,38.979,27.303,33.563,26.357,5.153,8.849,22.815
1918,0.807,39.024,27.283,33.553,26.353,5.193,8.808,22.609
1919,0.797,39.14,27.345,33.534,26.357,5.194,8.889,22.403
1920,0.807,39.246,27.338,33.553,26.364,5.275,8.93,21.995
1921,0.8,38.854,27.276,33.592,26.364,5.316,9.093,21.828
1922,0.774,38.965,27.302,33.554,26.357,5.317,9.054,21.501
1923,0.758,39.063,27.322,33.534,26.353,5.154,9.013,21.132
1924,0.78,39.121,27.342,33.524,26.35,5.071,9.013,20.762
1925,0.78,38.891,27.358,33.524,26.353,5.07,9.176,20.474
1926,0.777,39.014,27.377,33.524,26.346,5.152,9.218,20.227
1927,0.79,39.111,27.327,33.524,26.36,5.153,9.34,20.062
1928,0.787,39.169,27.311,33.543,26.353,5.193,9.382,20.101
1929,0.784,38.844,27.31,33.534,26.357,5.153,9.423,20.264
1930,0.78,38.965,27.361,33.505,26.35,5.071,9.505,20.388
1931,0.79,39.063,27.307,33.505,26.343,5.03,9.384,20.47
1932,0.787,39.131,27.209,33.543,26.35,5.111,9.505,20.593
1933,0.784,39.007,27.305,33.544,26.364,5.274,9.546,20.635
1934,0.78,39.159,27.318,33.544,26.364,5.195,9.669,20.635
1935,0.767,39.227,27.33,33.524,26.354,5.194,9.629,20.595
1936,0.774,39.238,27.342,33.534,26.357,5.153,9.67,20.432
1937,0.748,38.912,27.358,33.534,26.36,5.153,9.67,20.43
1938,0.747,39.072,27.252,33.553,26.357,5.193,9.629,20.389
1939,0.751,39.159,27.302,33.534,26.353,5.194,9.588,20.308
1940,0.761,38.988,27.322,33.534,26.357,5.194,9.547,20.225
1941,0.741,38.948,27.373,33.572,26.371,5.194,9.588,20.306
1942,0.744,39.034,27.334,33.563,26.364,5.234,9.669,20.225
1943,0.734,39.111,27.244,33.515,26.35,5.153,9.548,20.021
1944,0.734,38.843,27.271,33.534,26.35,5.112,9.344,19.857
1945,0.734,38.937,27.294,33.524,26.35,5.03,9.26,19.692
1946,0.741,39.053,27.287,33.524,26.346,5.111,9.259,19.569
1947,0.751,39.15,27.314,33.524,26.357,5.071,9.422,19.527
1948,0.754,38.796,27.353,33.524,26.35,5.152,9.342,19.445
1949,0.761,38.936,27.217,33.543,26.357,5.112,9.382,19.282
1950,0.744,39.053,27.294,33.544,26.353,5.193,9.342,19.117
1951,0.754,39.073,27.318,33.496,26.35,5.031,9.382,18.912
1952,0.761,38.69,27.35,33.486,26.343,4.989,9.261,18.707
1953,0.761,38.82,27.354,33.524,26.346,5.151,9.422,18.624
1954,0.754,38.956,27.326,33.553,26.357,5.071,9.424,18.542
1955,0.741,38.995,27.272,33.553,26.357,5.193,9.505,18.541
1956,0.734,38.814,27.291,33.572,26.353,5.194,9.546,18.459
1957,0.734,38.917,27.263,33.534,26.36,5.194,9.628,18.337
1958,0.728,39.014,27.314,33.515,26.357,5.153,9.629,18.295
1959,0.725,39.053,27.307,33.534,26.353,5.193,9.67,18.05
1960,0.728,38.709,27.295,33.515,26.35,5.153,9.751,17.967
1961,0.721,38.82,27.291,33.534,26.357,5.153,9.915,17.763
1962,0.728,38.936,27.341,33.534,26.36,5.153,9.916,17.557
1963,0.721,39.244,27.354,33.572,26.367,5.193,10.039,17.514
1964,0.721,38.739,27.373,33.553,26.371,5.275,10.04,17.433
1965,0.728,38.82,27.37,33.525,26.357,5.113,9.999,17.229
1966,0.731,38.917,27.327,33.515,26.347,5.071,9.958,17.105
1967,0.731,38.65,27.318,33.505,26.343,5.07,9.917,17.063
1968,0.738,38.714,27.303,33.514,26.346,5.07,9.916,16.94
1969,0.741,38.82,27.349,33.515,26.35,5.07,9.916,16.939
1970,0.747,38.908,27.303,33.524,26.35,5.07,9.916,16.939
1971,0.764,38.63,27.314,33.524,26.353,5.07,9.916,16.858
1972,0.751,38.752,27.287,33.524,26.353,5.111,9.876,16.898
1973,0.741,38.84,27.298,33.496,26.34,5.03,9.753,16.898
1974,0.754,38.937,27.338,33.514,26.35,5.03,9.752,16.817
1975,0.748,38.487,27.361,33.534,26.353,5.151,9.752,16.938
1976,0.741,38.636,27.346,33.534,26.357,5.071,9.833,17.061
1977,0.738,38.733,27.322,33.534,26.353,5.111,9.794,17.144
1978,0.731,38.801,27.307,33.534,26.357,5.193,9.753,17.104
1979,0.721,38.581,27.326,33.524,26.357,5.112,9.752,17.144
1980,0.731,38.713,27.365,33.534,26.36,5.112,9.752,16.982
1981,0.728,38.839,27.291,33.524,26.353,5.071,9.712,16.939
1982,0.731,38.87,27.306,33.543,26.353,5.111,9.63,16.817
1983,0.738,38.448,27.31,33.544,26.367,5.152,9.751,16.775
1984,0.744,38.549,27.334,33.553,26.364,5.275,9.752,16.775
1985,0.731,38.646,27.303,33.525,26.357,5.154,9.63,16.612
1986,0.747,38.647,27.338,33.515,26.35,5.031,9.588,16.488
1987,0.747,38.494,27.346,33.505,26.35,4.989,9.466,16.365
1988,0.738,38.645,27.334,33.514,26.346,5.029,9.465,16.202
1989,0.741,38.724,27.287,33.515,26.35,4.989,9.424,16.322
1990,0.757,38.552,27.349,33.524,26.35,4.988,9.424,16.242
1991,0.764,38.397,27.338,33.515,26.357,5.07,9.383,16.2
1992,0.764,38.501,27.287,33.515,26.357,5.03,9.464,16.159
1993,0.757,38.588,27.298,33.543,26.343,4.948,9.343,15.996
1994,0.754,38.34,27.275,33.496,26.343,5.029,9.382,16.035
1995,0.744,38.452,27.302,33.524,26.357,5.07,9.464,16.402
1996,0.741,38.568,27.306,33.524,26.36,5.07,9.546,17.218
1997,0.725,38.627,27.334,33.524,26.35,5.111,9.628,18.04
1998,0.737,38.378,27.307,33.524,26.364,5.152,9.67,18.902
1999,0.721,38.52,27.322,33.553,26.36,5.112,9.711,19.561
2000,0.724,38.636,27.271,33.515,26.357,5.112,9.792,20.259
2001,0.721,38.676,27.341,33.534,26.357,5.071,9.793,21.16
2002,0.728,38.264,27.346,33.524,26.36,5.111,9.915,22.185
2003,0.741,38.432,27.319,33.553,26.364,5.152,9.916,23.456
2004,0.741,38.559,27.268,33.553,26.364,5.234,10.079,24.851
2005,0.721,38.569,27.209,33.515,26.357,5.194,10.081,25.963
2006,0.728,38.234,27.27,33.515,26.35,5.072,9.918,26.787
2007,0.728,38.355,27.267,33.495,26.353,5.03,9.916,27.365
2008,0.747,38.481,27.337,33.495,26.353,5.03,9.916,27.777
2009,0.747,38.502,27.248,33.514,26.353,5.07,9.957,27.903
2010,0.747,38.272,27.306,33.505,26.353,5.07,9.957,27.864
2011,0.757,38.413,27.299,33.514,26.35,5.111,9.957,27.66
2012,0.751,38.472,27.349,33.515,26.357,5.152,9.917,27.455
2013,0.751,38.722,27.358,33.495,26.353,5.031,9.794,27.168
2014,0.748,38.187,27.338,33.505,26.353,5.07,9.834,26.718
2015,0.741,38.316,27.319,33.514,26.353,5.193,9.834,26.429
2016,0.744,38.423,27.225,33.534,26.353,5.153,9.916,26.141
2017,0.741,38.165,27.271,33.524,26.357,5.234,9.916,25.813
2018,0.731,38.201,27.294,33.515,26.353,5.275,9.835,25.403
2019,0.725,38.297,27.345,33.515,26.357,5.235,9.916,24.952
2020,0.721,38.385,27.252,33.524,26.357,5.194,9.876,24.541
2021,0.715,38.194,27.279,33.515,26.36,5.153,9.794,24.293
2022,0.718,38.297,27.31,33.515,26.36,5.234,9.753,24.087
2023,0.734,38.442,27.361,33.553,26.364,5.316,9.793,24.044
2024,0.738,38.511,27.373,33.553,26.36,5.317,9.793,24.166
2025,0.741,37.974,27.393,33.515,26.357,5.276,9.671,24.004
2026,0.731,38.094,27.354,33.486,26.347,5.154,9.467,23.759
2027,0.734,38.2,27.28,33.495,26.353,5.112,9.465,23.594
2028,0.747,38.278,27.267,33.495,26.346,5.112,9.343,23.389
2029,0.754,38.116,27.337,33.486,26.343,5.234,9.301,23.306
2030,0.757,38.249,27.326,33.533,26.346,5.153,9.26,23.142
2031,0.774,38.346,27.295,33.563,26.357,5.112,9.259,22.937
2032,0.761,38.404,27.26,33.515,26.35,5.193,9.178,22.569
2033,0.754,38.271,27.302,33.486,26.35,5.112,9.015,22.403
2034,0.754,38.413,27.334,33.505,26.346,5.152,9.013,21.995
2035,0.751,38.549,27.361,33.524,26.35,5.153,9.054,21.909
2036,0.751,38.56,27.369,33.515,26.36,5.275,9.054,21.746
2037,0.738,37.908,27.311,33.515,26.364,5.276,9.013,21.785
2038,0.731,38.026,27.322,33.524,26.35,5.235,8.972,22.07
2039,0.734,38.104,27.311,33.524,26.353,5.194,8.931,22.479
2040,0.738,38.181,27.357,33.515,26.357,5.234,8.931,22.89
2041,0.721,38.057,27.307,33.524,26.353,5.235,8.85,23.301
2042,0.708,38.2,27.26,33.524,26.357,5.153,8.808,23.508
2043,0.728,38.336,27.294,33.534,26.353,5.234,8.808,23.754
2044,0.728,37.886,27.287,33.534,26.367,5.316,8.93,23.838
2045,0.721,37.93,27.31,33.515,26.361,5.236,8.768,23.798
2046,0.718,38.055,27.326,33.486,26.35,5.194,8.726,23.553
2047,0.734,38.142,27.357,33.486,26.35,5.112,8.685,23.226
2048,0.734,37.923,27.28,33.514,26.35,5.152,8.603,22.857
2049,0.738,38.084,27.283,33.486,26.343,5.153,8.602,22.609
2050,0.741,38.181,27.318,33.505,26.35,5.071,8.643,22.159
2051,0.754,38.23,27.35,33.505,26.357,5.111,8.603,21.748
2052,0.761,37.847,27.287,33.514,26.36,5.234,8.521,21.338
2053,0.754,37.968,27.236,33.495,26.357,5.235,8.601,20.886
2054,0.748,38.074,27.259,33.495,26.347,5.113,8.48,20.475
2055,0.741,38.152,27.302,33.505,26.346,5.152,8.438,20.105
2056,0.744,37.894,27.31,33.524,26.357,5.153,8.519,19.939
2057,0.731,38.016,27.33,33.515,26.357,5.275,8.601,20.018
2058,0.734,38.113,27.357,33.524,26.36,5.235,8.643,19.938
2059,0.744,38.181,27.264,33.534,26.367,5.235,8.725,19.937
2060,0.728,37.77,27.287,33.534,26.361,5.316,8.807,19.896
2061,0.712,37.881,27.334,33.524,26.35,5.236,8.93,19.855
2062,0.715,37.997,27.354,33.515,26.353,5.194,9.093,19.855
2063,0.708,37.979,27.354,33.524,26.353,5.316,9.176,19.774
2064,0.724,37.969,27.307,33.515,26.353,5.154,9.299,19.732
2065,0.734,38.103,27.264,33.534,26.367,5.315,9.544,19.772
2066,0.721,38.201,27.216,33.544,26.367,5.317,9.831,19.976
2067,0.728,37.837,27.274,33.505,26.354,5.236,9.997,20.059
2068,0.731,37.776,27.31,33.486,26.35,5.153,10.243,20.06
2069,0.738,37.89,27.322,33.486,26.353,5.153,10.448,20.142
2070,0.731,38.016,27.287,33.514,26.353,5.112,10.654,20.102
2071,0.747,37.701,27.283,33.495,26.36,5.071,10.9,20.101
2072,0.751,37.822,27.31,33.495,26.353,5.111,11.024,20.183
2073,0.751,37.958,27.361,33.505,26.353,5.193,11.229,20.265
2074,0.735,37.998,27.373,33.495,26.35,5.153,11.312,20.306
2075,0.718,37.662,27.319,33.476,26.346,5.071,11.353,20.307
2076,0.721,37.822,27.295,33.485,26.35,4.989,11.395,20.185
2077,0.721,37.977,27.318,33.514,26.357,5.151,11.476,20.468
2078,0.731,38.036,27.271,33.515,26.357,5.193,11.558,20.308
2079,0.721,37.624,27.349,33.515,26.353,5.234,11.478,20.266
2080,0.721,37.764,27.303,33.505,26.357,5.153,11.396,20.103
2081,0.715,37.881,27.314,33.524,26.353,5.193,11.395,20.02
2082,0.715,37.93,27.279,33.505,26.357,5.112,11.395,19.816
2083,0.711,38.18,27.302,33.524,26.35,5.152,11.273,19.814
2084,0.728,38.297,27.33,33.515,26.353,5.153,11.15,19.692
2085,0.747,38.413,27.361,33.543,26.364,5.234,11.189,19.65
2086,0.738,38.405,27.366,33.524,26.36,5.235,11.108,19.69
2087,0.734,37.34,27.295,33.505,26.35,5.194,10.985,19.406
2088,0.725,37.464,27.279,33.505,26.353,5.072,10.822,19.2
2089,0.724,37.59,27.306,33.495,26.346,4.989,10.698,18.913
2090,0.721,37.754,27.318,33.486,26.35,5.07,10.575,18.707
2091,0.75,37.67,27.252,33.514,26.35,5.03,10.492,18.502
2092,0.748,37.784,27.275,33.495,26.343,5.07,10.329,18.337
2093,0.741,37.89,27.279,33.505,26.353,5.152,10.327,18.213
2094,0.728,37.508,27.298,33.495,26.353,5.153,10.165,18.172
2095,0.718,37.571,27.306,33.476,26.346,4.99,10.041,18.09
2096,0.718,37.716,27.361,33.495,26.35,5.07,9.958,17.967
2097,0.721,37.794,27.346,33.495,26.353,5.152,9.876,17.966
2098,0.708,37.497,27.319,33.514,26.357,5.193,9.835,17.925
2099,0.702,37.619,27.287,33.524,26.364,5.194,9.794,17.803
2100,0.701,37.735,27.349,33.515,26.357,5.153,9.671,17.679
2101,0.698,37.804,27.342,33.515,26.353,5.153,9.548,17.475
2102,0.692,37.488,27.24,33.543,26.36,5.153,9.547,17.31
2103,0.688,37.629,27.275,33.572,26.35,5.153,9.466,17.146
2104,0.714,37.764,27.279,33.515,26.357,5.112,9.343,17.063
2105,0.711,37.833,27.302,33.534,26.364,5.274,9.423,16.981
2106,0.711,37.498,27.295,33.524,26.364,5.195,9.342,17.143
2107,0.708,37.619,27.334,33.505,26.357,5.072,9.26,17.145
2108,0.711,37.726,27.299,33.514,26.343,5.111,9.137,17.104
2109,0.721,37.775,27.287,33.495,26.35,5.112,9.095,17.022
2110,0.715,37.497,27.279,33.514,26.35,5.071,9.014,17.103
2111,0.724,37.648,27.322,33.505,26.357,5.07,9.013,17.144
2112,0.728,37.745,27.342,33.495,26.35,5.111,9.054,17.267
2113,0.734,37.765,27.276,33.505,26.35,5.152,8.973,17.471
2114,0.712,37.44,27.228,33.505,26.357,5.153,8.972,17.717
2115,0.695,37.551,27.192,33.486,26.347,5.071,8.931,17.923
2116,0.701,37.687,27.294,33.495,26.346,5.07,8.89,18.087
2117,0.698,37.583,27.287,33.514,26.357,5.193,9.012,18.292
2118,0.698,37.562,27.373,33.515,26.353,5.194,9.135,18.416
2119,0.695,37.658,27.272,33.515,26.357,5.275,9.095,18.458
2120,0.688,37.774,27.283,33.515,26.36,5.276,9.095,18.377
2121,0.672,37.315,27.291,33.515,26.353,5.195,9.014,18.336
2122,0.678,37.425,27.318,33.524,26.353,5.112,9.094,18.335
2123,0.685,37.532,27.357,33.496,26.353,5.152,9.014,18.213
