time,ecg,bvp,gsr,rsp,skt,emg_zygo,emg_coru,emg_trap
0,0.774,36.448,20.509,35.315,24.492,5.153,5.768,16.981
1,0.787,36.151,20.513,35.305,24.499,5.193,5.687,16.98
2,0.78,36.292,20.49,35.296,24.485,5.072,5.605,16.777
3,0.761,36.36,20.568,35.296,24.488,5.111,5.767,16.937
4,0.77,36.438,20.518,35.315,24.492,5.112,5.687,17.061
5,0.767,36.247,20.525,35.305,24.492,5.152,5.646,17.184
6,0.767,36.36,20.572,35.296,24.485,5.112,5.727,17.348
7,0.774,36.457,20.518,35.315,24.495,5.193,5.809,17.594
8,0.784,36.774,20.545,35.315,24.502,5.153,5.647,17.596
9,0.767,36.174,20.502,35.315,24.492,5.071,5.686,17.881
10,0.77,36.292,20.509,35.334,24.495,5.193,5.687,17.965
11,0.767,36.418,20.498,35.306,24.492,5.234,5.727,18.047
12,0.767,36.122,20.494,35.305,24.492,5.113,5.646,18.007
13,0.761,36.119,20.525,35.257,24.485,5.112,5.686,17.926
14,0.774,36.282,20.498,35.305,24.492,5.071,5.687,17.803
15,0.767,36.36,20.486,35.305,24.485,5.152,5.646,17.679
16,0.757,36.006,20.533,35.286,24.485,5.031,5.564,17.434
17,0.744,36.166,20.436,35.295,24.492,5.192,5.766,17.269
18,0.767,36.33,20.513,35.334,24.499,5.275,5.728,16.942
19,0.764,36.361,20.474,35.296,24.492,5.154,5.727,16.695
20,0.748,36.035,20.517,35.286,24.492,5.153,5.687,16.449
21,0.757,36.176,20.549,35.305,24.499,5.193,5.768,16.162
22,0.751,36.331,20.498,35.296,24.495,5.112,5.687,15.712
23,0.725,36.37,20.548,35.257,24.488,5.071,5.687,15.463
24,0.737,35.968,20.537,35.286,24.488,5.152,5.687,15.176
25,0.741,36.117,20.49,35.286,24.488,5.153,5.687,14.767
26,0.747,36.224,20.576,35.267,24.485,5.153,5.646,14.437
27,0.76,36.264,20.522,35.286,24.495,5.234,5.727,14.312
28,0.767,36.216,20.541,35.315,24.502,5.235,5.768,13.904
29,0.748,36.321,20.498,35.296,24.492,5.153,5.647,13.697
30,0.757,36.409,20.517,35.296,24.492,5.153,5.767,13.451
31,0.757,36.467,20.51,35.296,24.499,5.315,5.728,13.204
32,0.764,36.055,20.517,35.296,24.492,5.236,5.687,12.917
33,0.761,36.128,20.525,35.238,24.478,5.194,5.646,12.589
34,0.767,36.292,20.521,35.285,24.492,5.234,5.686,12.383
35,0.77,36.418,20.494,35.257,24.495,5.235,5.687,12.137
36,0.748,36.122,20.529,35.257,24.485,5.153,5.646,11.931
37,0.744,36.253,20.443,35.286,24.499,5.234,5.767,11.888
38,0.773,36.398,20.489,35.305,24.502,5.275,5.768,11.685
39,0.754,36.112,20.478,35.277,24.499,5.276,5.728,11.479
40,0.751,36.186,20.494,35.267,24.495,5.235,5.727,11.396
41,0.757,36.292,20.505,35.267,24.492,5.316,5.768,11.232
42,0.761,36.408,20.474,35.276,24.488,5.236,5.687,10.987
43,0.744,36.342,20.521,35.247,24.481,5.235,5.687,10.903
44,0.747,36.524,20.521,35.257,24.488,5.235,5.646,10.739
45,0.741,36.641,20.494,35.257,24.485,5.194,5.645,10.575
46,0.744,36.709,20.541,35.228,24.485,5.234,5.645,10.37
47,0.744,35.713,20.514,35.257,24.492,5.275,5.767,10.368
48,0.76,35.894,20.502,35.276,24.499,5.316,5.768,10.206
49,0.748,35.992,20.521,35.247,24.485,5.276,5.687,10.082
50,0.747,36.06,20.49,35.257,24.495,5.276,5.727,9.999
51,0.751,36.233,20.525,35.257,24.495,5.316,5.727,9.877
52,0.748,36.379,20.498,35.257,24.492,5.236,5.768,9.672
53,0.738,36.457,20.529,35.219,24.488,5.235,5.687,9.589
54,0.76,36.525,20.49,35.247,24.499,5.275,5.687,9.425
55,0.764,35.931,20.505,35.218,24.495,5.276,5.687,9.383
56,0.754,36.079,20.517,35.228,24.481,5.195,5.646,9.261
57,0.741,36.195,20.494,35.247,24.492,5.438,5.849,9.3
58,0.76,36.264,20.513,35.276,24.506,5.359,5.851,9.097
59,0.751,36.13,20.51,35.257,24.499,5.317,5.769,9.095
60,0.748,36.273,20.486,35.257,24.495,5.317,5.768,8.932
61,0.751,36.379,20.513,35.257,24.495,5.358,5.809,8.85
62,0.751,36.409,20.486,35.247,24.492,5.317,5.728,8.646
63,0.728,36.122,20.525,35.218,24.485,5.317,5.727,8.725
64,0.741,36.263,20.521,35.228,24.499,5.317,5.768,8.603
65,0.734,36.36,20.467,35.228,24.492,5.358,5.728,8.48
66,0.734,35.987,20.536,35.218,24.485,5.317,5.687,8.438
67,0.751,36.07,20.424,35.256,24.499,5.358,5.849,8.519
68,0.77,36.214,20.47,35.266,24.495,5.399,5.729,8.276
69,0.754,36.293,20.474,35.238,24.492,5.358,5.727,8.355
70,0.764,35.996,20.521,35.257,24.495,5.358,5.768,8.275
71,0.77,36.156,20.506,35.247,24.495,5.358,5.809,8.193
72,0.774,36.254,20.517,35.228,24.488,5.277,5.688,7.988
73,0.764,36.303,20.545,35.228,24.492,5.398,5.727,8.068
74,0.77,35.996,20.549,35.218,24.488,5.318,5.768,7.946
75,0.761,36.166,20.502,35.218,24.488,5.317,5.728,7.986
76,0.764,36.254,20.541,35.199,24.492,5.317,5.727,7.905
77,0.751,36.351,20.479,35.256,24.495,5.48,5.89,8.026
78,0.761,36.035,20.466,35.247,24.495,5.318,5.729,7.865
79,0.754,36.147,20.497,35.218,24.488,5.358,5.768,7.822
80,0.757,36.263,20.502,35.228,24.492,5.399,5.809,7.822
81,0.757,36.331,20.513,35.247,24.499,5.358,5.728,7.741
82,0.754,36.092,20.467,35.209,24.488,5.277,5.646,7.577
83,0.735,36.167,20.54,35.199,24.488,5.316,5.686,7.616
84,0.747,36.321,20.514,35.256,24.488,5.317,5.687,7.535
85,0.757,36.342,20.47,35.209,24.492,5.317,5.727,7.494
86,0.754,36.073,20.544,35.199,24.488,5.317,5.687,7.453
87,0.757,36.205,20.506,35.228,24.502,5.439,5.89,7.656
88,0.78,36.34,20.482,35.228,24.489,5.399,5.77,7.414
89,0.774,36.294,20.494,35.218,24.492,5.399,5.728,7.452
90,0.771,36.14,20.482,35.218,24.488,5.358,5.687,7.412
91,0.78,36.253,20.494,35.218,24.495,5.358,5.809,7.411
92,0.777,36.37,20.505,35.218,24.492,5.317,5.647,7.289
93,0.787,35.939,20.537,35.189,24.481,5.317,5.727,7.288
94,0.79,36.05,20.533,35.199,24.485,5.317,5.687,7.207
95,0.78,36.166,20.49,35.189,24.488,5.317,5.687,7.165
96,0.764,36.244,20.583,35.189,24.488,5.317,5.687,7.165
97,0.761,35.967,20.502,35.199,24.499,5.398,5.849,7.246
98,0.78,36.146,20.505,35.247,24.499,5.358,5.891,7.166
99,0.774,36.234,20.513,35.209,24.499,5.317,5.851,7.043
100,0.761,36.322,20.486,35.208,24.492,5.439,5.81,7.164
101,0.757,36.054,20.517,35.208,24.492,5.399,5.81,7.084
102,0.754,36.195,20.525,35.189,24.492,5.399,5.769,6.961
103,0.744,36.264,20.506,35.16,24.485,5.318,5.728,6.96
104,0.767,36.37,20.506,35.208,24.492,5.439,5.809,7.041
105,0.764,35.939,20.451,35.189,24.485,5.359,5.769,6.96
106,0.764,36.069,20.528,35.16,24.488,5.439,5.728,6.878
107,0.79,36.186,20.51,35.179,24.499,5.481,5.85,7.121
108,0.8,36.283,20.494,35.218,24.506,5.481,5.81,7.002
109,0.794,36.092,20.498,35.199,24.492,5.44,5.81,6.879
110,0.78,36.243,20.49,35.189,24.492,5.44,5.81,6.918
111,0.784,36.331,20.509,35.199,24.492,5.44,5.85,6.919
112,0.777,36.361,20.509,35.18,24.485,5.318,5.81,6.837
113,0.777,35.939,20.517,35.151,24.485,5.358,5.769,6.837
114,0.787,36.088,20.506,35.16,24.495,5.48,5.85,6.796
115,0.78,36.195,20.486,35.17,24.485,5.4,5.769,6.836
116,0.767,36.139,20.525,35.16,24.481,5.318,5.728,6.796
117,0.764,36.129,20.486,35.208,24.495,5.48,5.89,6.958
118,0.78,36.282,20.498,35.199,24.499,5.481,5.811,6.797
119,0.767,36.322,20.517,35.16,24.492,5.481,5.81,6.836
120,0.774,35.958,20.529,35.179,24.488,5.4,5.85,6.796
121,0.777,36.079,20.521,35.179,24.492,5.48,5.891,6.795
122,0.767,36.195,20.529,35.16,24.495,5.44,5.729,6.714
123,0.748,36.225,20.541,35.141,24.488,5.44,5.809,6.794
124,0.767,35.938,20.537,35.16,24.488,5.399,5.85,6.755
125,0.764,36.079,20.482,35.141,24.492,5.358,5.729,6.714
126,0.774,36.167,20.544,35.15,24.488,5.439,5.727,6.713
127,0.787,36.283,20.459,35.17,24.495,5.521,5.972,6.794
128,0.803,35.977,20.493,35.179,24.492,5.441,5.811,6.755
129,0.79,36.07,20.505,35.16,24.492,5.399,5.81,6.754
130,0.787,36.205,20.478,35.15,24.495,5.48,5.891,6.714
131,0.784,36.264,20.497,35.16,24.492,5.522,5.892,6.754
132,0.797,35.948,20.466,35.15,24.495,5.36,5.729,6.632
133,0.794,36.05,20.486,35.102,24.485,5.399,5.768,6.672
134,0.813,36.195,20.49,35.14,24.492,5.48,5.809,6.591
135,0.8,36.244,20.482,35.131,24.488,5.359,5.769,6.59
136,0.79,35.919,20.513,35.131,24.488,5.358,5.768,6.468
137,0.787,36.05,20.447,35.141,24.502,5.521,5.931,6.711
138,0.797,36.214,20.493,35.169,24.499,5.441,5.852,6.672
139,0.787,36.216,20.521,35.141,24.495,5.44,5.81,6.631
140,0.774,36.091,20.502,35.15,24.499,5.521,5.932,6.631
141,0.784,36.234,20.521,35.16,24.499,5.482,5.811,6.631
142,0.777,36.331,20.482,35.131,24.488,5.4,5.728,6.468
143,0.758,36.006,20.521,35.121,24.485,5.44,5.809,6.589
144,0.774,35.859,20.517,35.141,24.488,5.399,5.81,6.549
145,0.78,35.973,20.49,35.122,24.492,5.44,5.81,6.63
146,0.787,36.07,20.56,35.102,24.481,5.359,5.769,6.468
147,0.8,35.956,20.424,35.14,24.499,5.521,5.931,6.67
148,0.813,36.127,20.509,35.141,24.495,5.441,5.811,6.469
149,0.8,36.205,20.529,35.112,24.492,5.481,5.891,6.548
150,0.797,36.283,20.498,35.121,24.495,5.481,5.811,6.59
151,0.807,35.929,20.509,35.141,24.492,5.481,5.891,6.59
152,0.81,36.079,20.521,35.122,24.481,5.318,5.77,6.468
153,0.803,36.167,20.471,35.112,24.495,5.439,5.931,6.467
154,0.81,36.254,20.474,35.102,24.485,5.399,5.811,6.426
155,0.81,35.833,20.494,35.092,24.492,5.318,5.85,6.426
156,0.803,35.924,20.494,35.121,24.485,5.398,5.891,6.426
157,0.794,36.098,20.498,35.179,24.499,5.602,6.014,6.629
158,0.81,36.176,20.459,35.132,24.495,5.401,5.893,6.509
159,0.794,35.937,20.493,35.112,24.499,5.399,5.973,6.508
160,0.797,36.079,20.459,35.112,24.499,5.48,5.893,6.508
161,0.8,36.205,20.517,35.121,24.499,5.481,5.973,6.508
162,0.794,36.264,20.51,35.093,24.488,5.359,5.811,6.305
163,0.78,35.977,20.545,35.102,24.492,5.399,6.013,6.425
164,0.793,36.127,20.518,35.102,24.499,5.358,5.934,6.385
165,0.793,36.225,20.471,35.102,24.485,5.317,5.892,6.385
166,0.8,36.235,20.544,35.092,24.492,5.439,5.892,6.466
167,0.826,36.072,20.486,35.14,24.499,5.521,6.095,6.548
168,0.826,36.205,20.474,35.112,24.492,5.4,5.935,6.427
169,0.826,36.292,20.501,35.102,24.499,5.358,5.974,6.466
170,0.83,36.015,20.498,35.121,24.499,5.439,5.974,6.507
171,0.826,35.926,20.505,35.121,24.495,5.521,5.974,6.427
172,0.82,36.031,20.502,35.083,24.485,5.319,5.811,6.344
173,0.83,36.118,20.537,35.102,24.488,5.398,5.932,6.384
174,0.836,35.918,20.529,35.083,24.492,5.318,5.852,6.344
175,0.843,36.011,20.478,35.083,24.485,5.358,5.891,6.262
176,0.833,36.108,20.56,35.102,24.488,5.399,5.973,6.505
177,0.83,36.253,20.494,35.14,24.502,5.521,6.015,6.467
178,0.826,35.833,20.455,35.102,24.492,5.482,5.934,6.426
179,0.823,35.963,20.47,35.092,24.492,5.4,5.974,6.426
180,0.817,36.07,20.482,35.102,24.492,5.48,5.974,6.344
181,0.829,36.147,20.501,35.102,24.492,5.44,5.933,6.425
182,0.826,35.889,20.482,35.064,24.478,5.359,5.811,6.263
183,0.81,36.03,20.521,35.082,24.492,5.439,5.972,6.343
184,0.823,36.166,20.494,35.092,24.488,5.44,5.852,6.343
185,0.826,36.206,20.459,35.083,24.488,5.359,5.891,6.343
186,0.836,36.005,20.532,35.054,24.488,5.399,5.892,6.303
187,0.849,36.175,20.537,35.102,24.495,5.562,6.054,6.506
188,0.853,36.292,20.51,35.102,24.492,5.441,5.934,6.305
189,0.846,36.303,20.513,35.083,24.492,5.44,5.974,6.343
190,0.853,35.795,20.506,35.073,24.485,5.44,5.933,6.466
191,0.859,35.943,20.525,35.092,24.495,5.521,5.974,6.386
192,0.859,36.06,20.521,35.073,24.485,5.319,5.933,6.222
193,0.859,36.042,20.541,35.054,24.478,5.398,5.974,6.302
194,0.859,35.955,20.525,35.082,24.495,5.48,5.974,6.302
195,0.862,36.089,20.486,35.035,24.488,5.4,5.893,6.262
196,0.849,36.176,20.537,35.063,24.485,5.399,5.973,6.302
197,0.853,35.966,20.459,35.092,24.488,5.44,6.096,6.425
198,0.866,35.983,20.532,35.092,24.499,5.399,5.975,6.304
199,0.859,36.07,20.521,35.083,24.492,5.44,5.974,6.343
200,0.853,36.176,20.514,35.073,24.488,5.44,6.055,6.303
201,0.856,35.995,20.541,35.073,24.495,5.521,6.097,6.343
202,0.856,36.127,20.482,35.083,24.492,5.441,5.975,6.262
203,0.836,36.205,20.513,35.063,24.488,5.359,5.933,6.262
204,0.859,36.321,20.506,35.073,24.485,5.399,6.014,6.262
205,0.866,35.805,20.439,35.073,24.485,5.399,6.056,6.221
206,0.869,35.924,20.52,35.063,24.481,5.358,5.975,6.261
207,0.872,36.06,20.459,35.063,24.492,5.48,6.177,6.384
208,0.895,36.138,20.509,35.102,24.499,5.481,6.098,6.303
209,0.879,35.947,20.494,35.073,24.492,5.481,6.138,6.221
210,0.892,36.069,20.517,35.083,24.499,5.44,6.138,6.261
211,0.895,36.186,20.549,35.073,24.492,5.481,6.098,6.302
212,0.889,36.244,20.51,35.063,24.495,5.4,6.056,6.221
213,0.882,35.909,20.529,35.015,24.485,5.399,6.015,6.261
214,0.895,36.088,20.506,35.072,24.488,5.44,6.096,6.139
215,0.892,36.195,20.482,35.044,24.488,5.399,6.056,6.138
216,0.873,36.216,20.497,35.054,24.492,5.358,6.015,6.057
217,0.876,35.976,20.431,35.082,24.492,5.399,6.178,6.341
218,0.882,36.118,20.509,35.102,24.502,5.521,6.179,6.221
219,0.885,36.186,20.533,35.054,24.499,5.482,6.098,6.22
220,0.879,36.292,20.514,35.063,24.492,5.4,6.097,6.22
221,0.892,36.063,20.506,35.073,24.495,5.44,6.178,6.22
222,0.882,36.186,20.474,35.063,24.492,5.399,6.017,6.139
223,0.879,36.235,20.525,35.025,24.492,5.358,6.056,6.179
224,0.892,36.111,20.49,35.063,24.495,5.48,6.056,6.179
225,0.895,36.138,20.482,35.063,24.492,5.4,6.056,6.139
226,0.892,36.244,20.521,35.035,24.485,5.399,5.975,6.138
227,0.905,36.341,20.432,35.063,24.492,5.48,6.177,6.219
228,0.925,36.054,20.497,35.092,24.495,5.562,6.057,6.18
229,0.912,36.128,20.49,35.044,24.495,5.441,6.097,6.139
230,0.915,36.263,20.478,35.063,24.492,5.44,6.097,6.138
231,0.922,36.341,20.49,35.054,24.495,5.481,6.056,6.179
232,0.931,36.054,20.482,35.063,24.492,5.481,6.056,6.139
233,0.915,36.138,20.494,35.015,24.481,5.278,5.893,6.098
234,0.918,36.292,20.509,35.034,24.492,5.438,6.054,6.056
235,0.925,36.37,20.494,35.044,24.492,5.44,5.975,6.056
236,0.915,36.198,20.521,35.025,24.485,5.399,5.974,6.015
237,0.918,36.35,20.49,35.082,24.495,5.48,6.055,6.178
238,0.938,36.505,20.49,35.092,24.502,5.481,6.056,6.057
239,0.925,36.535,20.525,35.054,24.492,5.44,5.975,6.137
240,0.925,36.123,20.498,35.044,24.499,5.44,6.055,6.179
241,0.925,36.263,20.525,35.063,24.492,5.44,6.137,6.139
242,0.928,36.389,20.486,35.063,24.495,5.399,5.976,5.976
243,0.909,36.381,20.509,35.025,24.478,5.399,5.893,6.096
244,0.925,36.381,20.525,35.044,24.492,5.399,5.973,6.097
245,0.925,36.496,20.482,35.034,24.492,5.358,5.974,5.975
246,0.918,36.602,20.529,35.015,24.485,5.439,5.893,5.974
247,0.935,36.987,20.385,35.053,24.488,5.521,6.014,6.177
248,0.951,36.646,20.477,35.054,24.499,5.441,5.974,6.057
249,0.945,36.719,20.497,35.044,24.492,5.44,5.974,6.056
250,0.948,36.806,20.466,35.054,24.499,5.521,6.015,6.137
251,0.961,36.318,20.501,35.044,24.502,5.522,6.015,6.138
252,0.964,36.294,20.478,35.025,24.489,5.36,5.893,5.976
253,0.961,36.389,20.513,35.034,24.488,5.439,6.014,6.055
254,0.971,36.505,20.513,35.034,24.485,5.481,5.934,6.097
255,0.958,36.353,20.498,35.015,24.488,5.4,5.892,6.056
256,0.964,36.476,20.521,35.015,24.481,5.44,5.851,6.097
257,0.951,36.64,20.474,35.101,24.502,5.562,6.054,6.219
258,0.964,36.709,20.482,35.035,24.489,5.441,5.975,6.22
259,0.951,36.422,20.482,35.025,24.495,5.44,5.974,6.22
260,0.945,36.563,20.497,35.053,24.499,5.521,5.974,6.22
261,0.951,36.68,20.521,35.034,24.499,5.522,5.933,6.18
262,0.938,36.757,20.486,35.025,24.492,5.4,5.852,6.057
263,0.932,36.538,20.548,35.015,24.492,5.48,5.851,6.219
264,0.935,36.679,20.533,35.111,24.485,5.481,5.932,6.18
265,0.935,36.796,20.482,35.016,24.488,5.4,5.892,6.179
266,0.935,36.826,20.544,35.005,24.481,5.44,5.892,6.179
267,0.941,36.519,20.502,35.053,24.499,5.684,6.054,6.342
268,0.951,36.641,20.498,35.015,24.495,5.524,5.934,6.221
269,0.941,36.738,20.517,35.024,24.492,5.522,5.892,6.22
270,0.941,36.768,20.474,35.044,24.495,5.563,6.014,6.261
271,0.948,36.749,20.497,35.025,24.499,5.563,5.974,6.343
272,0.941,36.864,20.463,34.996,24.485,5.523,5.852,6.221
273,0.945,36.961,20.529,35.015,24.495,5.482,5.932,6.302
274,0.938,37.211,20.51,35.015,24.492,5.481,5.892,6.384
275,0.935,36.552,20.435,35.015,24.488,5.522,5.811,6.303
276,0.925,36.66,20.524,34.986,24.492,5.482,5.81,6.465
277,0.935,36.815,20.486,35.043,24.502,5.725,6.054,6.467
278,0.918,36.74,20.482,35.025,24.492,5.565,5.934,6.507
279,0.912,36.835,20.505,35.025,24.488,5.604,5.974,6.467
280,0.899,36.96,20.49,35.015,24.495,5.645,5.893,6.548
281,0.905,37.058,20.509,35.015,24.502,5.605,5.851,6.508
282,0.892,36.589,20.498,34.967,24.478,5.482,5.769,6.467
283,0.882,36.728,20.521,35.005,24.492,5.522,5.85,6.507
284,0.876,36.844,20.474,35.024,24.492,5.522,5.769,6.589
285,0.869,36.922,20.447,34.986,24.488,5.482,5.768,6.59
286,0.879,36.693,20.513,35.005,24.492,5.603,5.931,6.793
287,0.902,36.873,20.529,35.044,24.506,5.645,5.974,6.877
288,0.886,36.97,20.506,35.006,24.492,5.523,5.893,6.796
289,0.885,37.038,20.525,35.015,24.495,5.603,5.851,6.958
290,0.885,36.723,20.529,35.015,24.502,5.564,5.891,6.96
291,0.879,36.863,20.529,34.996,24.492,5.563,5.811,6.838
292,0.863,36.942,20.506,34.967,24.478,5.441,5.769,6.999
293,0.866,37.019,20.548,34.986,24.492,5.521,5.809,6.96
294,0.869,36.847,20.494,34.986,24.492,5.441,5.85,7.0
295,0.863,36.961,20.466,34.986,24.485,5.481,5.81,7.001
296,0.862,37.058,20.486,34.995,24.495,5.603,5.891,7.123
297,0.869,37.135,20.47,35.015,24.506,5.564,5.892,7.083
298,0.846,36.81,20.474,34.986,24.495,5.604,5.892,7.123
299,0.843,36.951,20.486,34.995,24.492,5.604,5.851,7.124
300,0.839,37.057,20.498,35.015,24.492,5.604,5.891,7.165
301,0.833,37.164,20.463,34.986,24.492,5.482,5.77,7.043
302,0.823,36.801,20.474,34.957,24.488,5.44,5.768,7.082
303,0.813,36.95,20.54,34.986,24.492,5.481,5.768,7.123
304,0.813,37.048,20.498,35.053,24.492,5.522,5.809,7.083
305,0.816,36.809,20.466,34.977,24.485,5.441,5.81,7.042
306,0.82,36.893,20.49,35.005,24.499,5.643,6.054,7.204
307,0.833,37.038,20.482,35.005,24.492,5.483,5.893,7.084
308,0.82,37.125,20.443,34.986,24.492,5.481,5.892,7.083
309,0.817,36.819,20.493,34.976,24.492,5.522,5.851,7.164
310,0.826,36.941,20.502,34.986,24.492,5.522,5.932,7.084
311,0.817,37.067,20.494,34.986,24.488,5.563,5.852,7.042
312,0.807,37.097,20.494,34.938,24.481,5.441,5.851,7.042
313,0.82,36.8,20.544,34.976,24.492,5.481,5.81,7.042
314,0.81,36.931,20.494,34.957,24.488,5.4,5.769,7.001
315,0.81,37.048,20.486,34.957,24.485,5.399,5.809,6.96
316,0.803,37.097,20.513,34.947,24.499,5.521,5.932,7.122
317,0.8,36.829,20.478,34.995,24.499,5.522,5.852,7.043
318,0.79,36.951,20.482,34.986,24.492,5.441,5.851,7.123
319,0.797,37.057,20.458,34.986,24.492,5.481,5.851,7.043
320,0.79,37.116,20.509,34.976,24.499,5.481,5.851,7.001
321,0.79,36.839,20.443,34.947,24.492,5.481,5.81,6.879
322,0.78,36.922,20.462,34.938,24.481,5.4,5.81,6.918
323,0.78,37.057,20.529,34.957,24.492,5.44,5.81,6.919
324,0.764,37.078,20.49,34.966,24.495,5.399,5.728,6.878
325,0.774,36.809,20.478,34.947,24.488,5.318,5.768,6.877
326,0.784,36.931,20.505,34.957,24.495,5.439,5.891,7.04
327,0.803,37.096,20.49,34.995,24.499,5.44,5.892,6.96
328,0.79,37.059,20.478,34.967,24.492,5.44,5.892,6.919
329,0.793,36.809,20.47,34.947,24.495,5.44,5.851,6.878
330,0.787,36.951,20.513,34.966,24.499,5.481,5.891,6.918
331,0.787,37.038,20.498,34.966,24.488,5.481,5.811,6.796
332,0.774,36.665,20.459,34.909,24.488,5.359,5.81,6.795
333,0.79,36.757,20.536,34.947,24.488,5.439,5.85,6.755
334,0.79,36.893,20.506,34.938,24.485,5.359,5.81,6.714
335,0.797,36.961,20.494,34.937,24.488,5.317,5.728,6.754
336,0.781,36.684,20.533,34.937,24.492,5.48,5.85,6.836
337,0.78,36.873,20.494,34.976,24.502,5.562,5.891,6.796
338,0.774,36.951,20.498,34.947,24.492,5.441,5.851,6.795
339,0.787,37.029,20.498,34.957,24.495,5.44,5.891,6.755
340,0.78,36.809,20.513,34.957,24.495,5.521,5.892,6.795
341,0.777,36.931,20.498,34.947,24.488,5.482,5.811,6.673
342,0.774,37.019,20.49,34.909,24.478,5.318,5.728,6.591
343,0.771,37.087,20.541,34.937,24.492,5.358,5.809,6.671
344,0.777,36.742,20.463,34.928,24.492,5.399,5.769,6.631
345,0.774,36.883,20.474,34.909,24.485,5.399,5.768,6.59
346,0.764,36.98,20.517,34.928,24.492,5.44,5.809,6.671
347,0.793,37.067,20.467,34.995,24.506,5.481,5.81,6.672
348,0.784,36.742,20.462,34.948,24.492,5.4,5.769,6.672
349,0.787,36.883,20.447,34.957,24.488,5.48,5.85,6.631
350,0.79,36.98,20.505,34.957,24.488,5.481,5.81,6.672
351,0.793,37.039,20.486,34.957,24.492,5.481,5.81,6.55
352,0.78,36.665,20.447,34.928,24.485,5.318,5.769,6.549
353,0.797,36.824,20.544,34.947,24.488,5.48,5.728,6.549
354,0.794,36.922,20.483,34.938,24.492,5.4,5.727,6.386
355,0.784,36.865,20.49,34.928,24.488,5.318,5.646,6.466
356,0.777,36.721,20.544,34.928,24.495,5.439,5.767,6.548
357,0.79,36.892,20.459,34.976,24.502,5.562,5.809,6.549
358,0.787,36.971,20.489,34.957,24.489,5.523,5.647,6.508
359,0.787,36.722,20.478,34.938,24.495,5.482,5.727,6.508
360,0.774,36.835,20.513,34.937,24.488,5.522,5.727,6.467
361,0.777,36.97,20.506,34.937,24.488,5.441,5.727,6.426
362,0.764,37.01,20.467,34.918,24.485,5.318,5.687,6.344
363,0.764,36.713,20.532,34.947,24.485,5.439,5.727,6.384
364,0.78,36.873,20.506,34.976,24.492,5.481,5.687,6.303
365,0.771,36.97,20.459,34.919,24.495,5.359,5.646,6.384
366,0.767,37.038,20.521,34.937,24.495,5.521,5.808,6.547
367,0.803,36.608,20.506,34.957,24.495,5.522,5.81,6.468
368,0.784,36.728,20.513,34.928,24.499,5.482,5.728,6.426
369,0.78,36.835,20.459,34.937,24.492,5.44,5.809,6.385
370,0.787,36.903,20.478,34.947,24.495,5.481,5.85,6.385
371,0.793,36.683,20.486,34.938,24.492,5.44,5.769,6.344
372,0.784,36.786,20.47,34.909,24.485,5.399,5.809,6.303
373,0.8,36.922,20.54,34.918,24.485,5.399,5.769,6.262
374,0.8,36.952,20.467,34.909,24.485,5.318,5.768,6.262
375,0.794,36.674,20.439,34.908,24.481,5.358,5.728,6.18
376,0.793,36.825,20.509,34.918,24.492,5.48,5.931,6.383
377,0.793,36.941,20.49,34.947,24.499,5.44,5.811,6.344
378,0.78,36.961,20.509,34.918,24.488,5.481,5.85,6.303
379,0.784,36.751,20.478,34.918,24.499,5.481,5.891,6.343
380,0.79,36.912,20.486,34.928,24.499,5.481,5.933,6.303
381,0.784,37.0,20.501,34.928,24.492,5.44,5.689,6.262
382,0.774,36.809,20.494,34.909,24.485,5.44,5.768,6.221
383,0.774,36.624,20.544,34.918,24.492,5.481,5.809,6.22
384,0.774,36.747,20.44,34.928,24.495,5.522,5.85,6.261
385,0.761,36.854,20.478,34.909,24.481,5.482,5.769,6.221
386,0.777,36.644,20.509,34.937,24.499,5.562,5.972,6.424
387,0.8,36.776,20.478,34.928,24.488,5.523,5.893,6.344
388,0.79,36.874,20.466,34.909,24.495,5.522,5.851,6.303
389,0.793,36.951,20.482,34.918,24.492,5.563,5.891,6.262
390,0.797,36.683,20.505,34.918,24.495,5.563,5.892,6.262
391,0.8,36.796,20.467,34.899,24.485,5.482,5.851,6.099
392,0.794,36.883,20.478,34.87,24.488,5.481,5.851,6.219
393,0.81,36.97,20.548,34.908,24.495,5.481,5.891,6.22
394,0.803,36.607,20.475,34.899,24.488,5.481,5.851,6.18
395,0.807,36.728,20.447,34.889,24.488,5.4,5.81,6.179
396,0.794,36.854,20.489,34.908,24.495,5.602,5.972,6.342
397,0.8,36.941,20.443,34.947,24.495,5.604,5.893,6.221
398,0.781,36.751,20.454,34.918,24.492,5.564,5.892,6.261
399,0.787,36.873,20.466,34.918,24.488,5.563,5.933,6.221
400,0.784,36.98,20.482,34.909,24.495,5.482,5.892,6.261
401,0.784,37.039,20.447,34.908,24.488,5.44,5.811,6.139
402,0.774,36.704,20.497,34.87,24.485,5.399,5.932,6.179
403,0.767,36.844,20.544,34.889,24.492,5.48,5.811,6.179
404,0.774,36.961,20.49,34.937,24.492,5.4,5.81,6.139
405,0.787,36.962,20.474,34.88,24.488,5.44,5.769,6.179
406,0.784,36.693,20.556,34.889,24.495,5.562,5.931,6.301
407,0.816,36.825,20.494,34.918,24.495,5.523,5.892,6.18
408,0.8,36.893,20.482,34.899,24.492,5.522,5.973,6.179
409,0.794,36.788,20.47,34.889,24.492,5.522,5.893,6.22
410,0.797,36.759,20.497,34.908,24.495,5.563,6.014,6.261
411,0.8,36.864,20.474,34.889,24.492,5.441,5.812,6.18
412,0.781,36.913,20.458,34.86,24.485,5.481,5.81,6.261
413,0.816,36.597,20.528,34.87,24.492,5.44,5.85,6.262
414,0.803,36.709,20.451,34.889,24.485,5.481,5.81,6.18
415,0.794,36.815,20.478,34.86,24.495,5.44,5.81,6.098
416,0.79,36.912,20.513,34.87,24.488,5.562,5.891,6.3
417,0.806,36.587,20.443,34.908,24.506,5.604,5.892,6.302
418,0.794,36.709,20.462,34.889,24.489,5.482,5.851,6.384
419,0.797,36.806,20.45,34.889,24.499,5.481,5.973,6.303
420,0.794,36.912,20.497,34.899,24.495,5.562,5.974,6.302
421,0.79,36.674,20.482,34.88,24.495,5.441,5.852,6.221
422,0.784,36.786,20.47,34.851,24.488,5.481,5.891,6.302
423,0.777,36.931,20.532,34.86,24.492,5.481,5.892,6.262
424,0.78,36.961,20.381,34.879,24.485,5.522,5.892,6.221
425,0.777,36.501,20.465,34.86,24.485,5.482,5.811,6.261
426,0.793,36.66,20.513,34.87,24.492,5.603,5.972,6.384
427,0.819,36.786,20.51,34.879,24.492,5.564,5.933,6.303
428,0.803,36.807,20.506,34.87,24.488,5.563,5.892,6.384
429,0.803,36.73,20.494,34.879,24.492,5.604,5.933,6.385
430,0.8,36.854,20.509,34.879,24.492,5.564,5.933,6.425
431,0.797,36.961,20.478,34.851,24.481,5.482,5.811,6.222
432,0.79,36.942,20.49,34.86,24.485,5.644,5.891,6.383
433,0.8,36.578,20.513,34.85,24.488,5.564,5.77,6.303
434,0.803,36.689,20.494,34.85,24.481,5.563,5.809,6.262
435,0.8,36.796,20.494,34.841,24.485,5.563,5.81,6.424
436,0.797,36.701,20.525,34.85,24.499,5.766,6.013,6.426
437,0.807,36.71,20.478,34.879,24.492,5.647,5.852,6.385
438,0.8,36.825,20.497,34.86,24.492,5.686,5.891,6.466
439,0.797,36.912,20.513,34.87,24.492,5.687,5.892,6.426
440,0.8,36.52,20.498,34.86,24.499,5.646,5.811,6.466
441,0.794,36.631,20.451,34.841,24.488,5.605,5.728,6.304
442,0.784,36.728,20.47,34.85,24.492,5.686,5.809,6.343
443,0.78,36.825,20.505,34.85,24.488,5.646,5.81,6.425
444,0.784,36.586,20.47,34.831,24.485,5.605,5.769,6.304
445,0.79,36.718,20.443,34.841,24.488,5.645,5.85,6.384
446,0.803,36.844,20.509,34.85,24.506,5.808,5.973,6.588
447,0.816,36.932,20.482,34.86,24.495,5.688,5.852,6.427
448,0.803,36.434,20.505,34.841,24.495,5.687,5.851,6.466
449,0.807,36.554,20.482,34.86,24.488,5.646,5.891,6.467
450,0.82,36.689,20.505,34.87,24.495,5.645,5.811,6.426
451,0.813,36.719,20.459,34.831,24.485,5.564,5.688,6.344
452,0.81,36.576,20.489,34.869,24.492,5.726,5.809,6.466
453,0.813,36.699,20.544,34.831,24.488,5.646,5.728,6.304
454,0.803,36.806,20.483,34.821,24.485,5.605,5.768,6.384
455,0.807,36.835,20.478,34.831,24.492,5.645,5.891,6.466
456,0.807,36.606,20.505,34.869,24.502,5.727,5.933,6.507
457,0.8,36.728,20.463,34.831,24.495,5.646,5.852,6.345
458,0.8,36.844,20.489,34.831,24.492,5.645,5.81,6.425
459,0.794,36.865,20.509,34.85,24.502,5.727,5.81,6.466
460,0.81,36.625,20.506,34.841,24.495,5.727,5.85,6.386
461,0.79,36.719,20.463,34.812,24.488,5.524,5.729,6.344
462,0.787,36.844,20.474,34.821,24.488,5.644,5.809,6.466
463,0.784,36.625,20.494,34.821,24.492,5.645,5.769,6.386
464,0.78,36.613,20.384,34.821,24.485,5.645,5.768,6.425
465,0.78,36.728,20.426,34.831,24.485,5.767,5.809,6.466
466,0.793,36.873,20.505,34.869,24.502,5.85,5.891,6.507
467,0.806,36.309,20.502,34.831,24.489,5.769,5.77,6.345
468,0.794,36.408,20.494,34.831,24.488,5.891,5.85,6.425
469,0.793,36.534,20.49,34.831,24.492,5.892,5.851,6.385
470,0.8,36.641,20.505,34.85,24.488,5.933,5.932,6.385
471,0.797,36.556,20.459,34.802,24.478,5.811,5.73,6.303
472,0.807,36.699,20.497,34.831,24.492,5.972,5.89,6.384
473,0.81,36.815,20.505,34.821,24.485,6.055,5.77,6.263
474,0.807,36.874,20.474,34.831,24.485,5.975,5.85,6.262
475,0.8,36.357,20.454,34.812,24.488,6.096,5.973,6.343
476,0.816,36.553,20.505,34.85,24.502,6.138,5.974,6.384
477,0.794,36.622,20.521,34.831,24.495,6.138,5.974,6.385
478,0.79,36.69,20.49,34.841,24.502,6.098,6.055,6.263
479,0.793,36.527,20.494,34.841,24.485,6.138,5.975,6.302
480,0.793,36.679,20.494,34.831,24.488,6.138,5.974,6.221
481,0.784,36.757,20.459,34.793,24.481,5.976,5.893,6.261
482,0.78,36.816,20.509,34.811,24.492,6.177,6.014,6.262
483,0.774,36.5,20.521,34.802,24.488,6.139,5.974,6.221
484,0.774,36.631,20.443,34.812,24.488,6.057,5.933,6.22
485,0.78,36.728,20.489,34.821,24.485,6.178,5.974,6.261
486,0.793,36.825,20.525,34.86,24.502,6.22,6.055,6.343
487,0.787,36.596,20.49,34.812,24.492,6.139,6.015,6.221
488,0.787,36.718,20.459,34.812,24.488,6.138,6.056,6.261
489,0.787,36.825,20.47,34.84,24.495,6.179,6.015,6.302
490,0.793,36.519,20.462,34.841,24.488,6.098,5.934,6.262
491,0.777,36.478,20.415,34.783,24.478,6.016,5.852,6.139
492,0.787,36.612,20.473,34.811,24.492,6.096,6.013,6.26
493,0.8,36.709,20.505,34.802,24.488,6.097,5.893,6.18
494,0.79,36.47,20.49,34.85,24.485,6.056,5.892,6.139
495,0.784,36.583,20.466,34.793,24.492,6.137,6.014,6.301
496,0.787,36.747,20.54,34.84,24.502,6.179,6.096,6.343
497,0.784,36.806,20.498,34.802,24.489,6.098,5.894,6.221
498,0.784,36.356,20.49,34.821,24.492,6.056,5.973,6.22
499,0.777,36.505,20.486,34.812,24.499,6.137,6.015,6.302
500,0.774,36.631,20.525,34.831,24.499,6.057,6.015,6.221
501,0.761,36.69,20.443,34.764,24.478,5.893,5.812,6.098
502,0.761,36.556,20.485,34.811,24.495,6.014,5.891,6.178
503,0.764,36.68,20.521,34.802,24.492,6.015,5.892,6.22
504,0.764,36.796,20.432,34.792,24.481,5.974,5.811,6.18
505,0.764,36.855,20.477,34.792,24.485,5.974,5.972,6.261
506,0.78,36.548,20.529,34.84,24.506,6.096,6.096,6.384
507,0.787,36.689,20.557,34.793,24.492,6.016,5.935,6.303
508,0.784,36.767,20.381,34.84,24.495,6.015,5.892,6.221
509,0.784,36.816,20.469,34.812,24.499,6.056,5.892,6.302
510,0.787,36.471,20.505,34.812,24.495,6.015,6.054,6.18
511,0.784,36.564,20.443,34.792,24.485,5.893,5.812,6.139
512,0.787,36.689,20.481,34.811,24.488,5.973,5.85,6.26
513,0.8,37.045,20.505,34.773,24.488,5.974,5.891,6.139
514,0.794,36.56,20.47,34.792,24.492,5.893,5.851,6.138
515,0.787,36.699,20.454,34.792,24.485,5.892,5.851,6.26
516,0.803,36.825,20.517,34.811,24.499,6.054,5.973,6.262
517,0.787,36.51,20.443,34.792,24.485,6.015,5.852,6.302
518,0.777,36.516,20.45,34.792,24.488,5.934,5.851,6.262
519,0.78,36.66,20.501,34.811,24.488,5.933,5.851,6.221
520,0.777,36.748,20.537,34.821,24.499,6.014,5.932,6.22
521,0.774,36.403,20.463,34.783,24.488,5.812,5.73,6.098
522,0.761,36.525,20.489,34.792,24.492,5.85,5.809,6.219
523,0.764,36.66,20.505,34.821,24.492,5.891,5.85,6.22
524,0.764,36.729,20.431,34.793,24.481,5.811,5.81,6.139
525,0.754,36.432,20.454,34.792,24.485,5.85,5.891,6.219
526,0.767,36.582,20.505,34.831,24.506,5.973,5.973,6.342
527,0.78,36.68,20.529,34.802,24.492,5.893,5.893,6.181
528,0.761,36.757,20.514,34.802,24.499,5.892,5.892,6.22
529,0.78,36.499,20.506,34.821,24.499,5.892,5.933,6.22
530,0.784,36.65,20.506,34.793,24.499,5.851,5.892,6.261
531,0.784,36.738,20.474,34.783,24.485,5.688,5.689,6.058
532,0.767,36.787,20.494,34.792,24.488,5.768,5.89,6.219
533,0.793,36.509,20.521,34.792,24.488,5.768,5.933,6.18
534,0.78,36.621,20.392,34.802,24.488,5.768,5.77,6.098
535,0.774,36.757,20.442,34.773,24.495,5.728,5.85,6.178
536,0.774,36.806,20.485,34.821,24.495,5.89,5.973,6.301
537,0.774,36.414,20.486,34.802,24.495,5.811,5.811,6.221
538,0.774,36.544,20.478,34.802,24.488,5.769,5.891,6.302
539,0.771,36.632,20.482,34.792,24.495,5.809,5.933,6.343
540,0.774,36.968,20.505,34.821,24.492,5.769,5.933,6.262
541,0.761,36.549,20.455,34.783,24.488,5.647,5.811,6.099
542,0.757,36.66,20.478,34.802,24.488,5.767,5.891,6.219
543,0.761,36.776,20.497,34.792,24.492,5.728,5.892,6.22
544,0.757,36.519,20.49,34.85,24.488,5.687,5.811,6.22
545,0.761,36.583,20.462,34.793,24.485,5.727,5.85,6.18
546,0.774,36.699,20.505,34.811,24.495,5.768,6.054,6.342
547,0.793,36.806,20.498,34.802,24.499,5.768,5.975,6.181
548,0.774,36.452,20.49,34.802,24.495,5.647,5.893,6.179
549,0.78,36.592,20.474,34.802,24.499,5.727,5.892,6.22
550,0.78,36.709,20.505,34.802,24.492,5.646,5.933,6.302
551,0.79,36.767,20.506,34.802,24.492,5.686,5.811,6.18
552,0.774,36.442,20.474,34.783,24.485,5.605,5.891,6.22
553,0.787,36.582,20.517,34.792,24.488,5.686,5.851,6.139
554,0.787,36.689,20.439,34.763,24.488,5.646,5.851,6.179
555,0.78,36.767,20.446,34.763,24.485,5.645,5.851,6.139
556,0.787,36.394,20.521,34.811,24.506,5.727,5.973,6.341
557,0.787,36.515,20.467,34.792,24.495,5.646,5.852,6.303
558,0.764,36.622,20.486,34.792,24.495,5.605,5.891,6.262
559,0.777,36.661,20.451,34.773,24.495,5.645,5.851,6.221
560,0.777,36.585,20.458,34.792,24.499,5.686,5.891,6.22
561,0.784,36.709,20.47,34.783,24.485,5.564,5.811,6.098
562,0.771,36.806,20.451,34.783,24.492,5.685,5.85,6.178
563,0.774,36.845,20.505,34.802,24.492,5.646,5.769,6.139
564,0.771,36.462,20.416,34.792,24.485,5.564,5.768,6.138
565,0.767,36.602,20.434,34.773,24.481,5.685,5.768,6.179
566,0.783,36.709,20.489,34.782,24.495,5.727,5.931,6.342
567,0.797,36.882,20.474,34.792,24.495,5.646,5.852,6.303
568,0.777,36.597,20.47,34.783,24.485,5.686,5.81,6.262
569,0.78,36.718,20.497,34.802,24.492,5.687,5.891,6.302
570,0.784,36.825,20.474,34.792,24.502,5.687,5.892,6.262
571,0.78,36.519,20.49,34.792,24.492,5.727,5.811,6.221
572,0.774,36.554,20.459,34.783,24.495,5.768,5.81,6.261
573,0.787,36.67,20.521,34.792,24.485,5.687,5.81,6.221
574,0.771,36.786,20.451,34.773,24.488,5.646,5.769,6.139
575,0.78,36.327,20.45,34.763,24.485,5.645,5.728,6.098
576,0.767,36.485,20.54,34.792,24.495,5.808,5.972,6.382
577,0.783,36.602,20.49,34.802,24.495,5.81,5.893,6.263
578,0.764,36.69,20.474,34.783,24.492,5.728,5.851,6.18
579,0.764,36.432,20.435,34.792,24.492,5.809,5.891,6.261
580,0.764,36.554,20.438,34.792,24.492,5.85,5.933,6.262
581,0.767,36.68,20.458,34.792,24.492,5.81,5.77,6.139
582,0.757,36.719,20.443,34.754,24.488,5.769,5.809,6.301
583,0.761,36.518,20.493,34.782,24.492,5.809,5.85,6.262
584,0.77,36.65,20.435,34.773,24.488,5.728,5.769,6.139
585,0.764,36.767,20.435,34.763,24.481,5.809,5.809,6.26
586,0.757,36.806,20.497,34.773,24.495,5.891,5.891,6.384
587,0.78,36.366,20.513,34.83,24.492,5.892,5.851,6.263
588,0.767,36.495,20.47,34.764,24.492,5.851,5.81,6.262
589,0.777,36.583,20.474,34.792,24.488,5.891,5.81,6.262
590,0.774,36.632,20.458,34.783,24.495,5.973,5.891,6.384
591,0.78,36.623,20.474,34.792,24.492,5.893,5.811,6.303
592,0.78,36.728,20.454,34.754,24.478,5.811,5.769,6.221
593,0.787,36.816,20.509,34.782,24.492,5.891,5.891,6.261
594,0.777,36.749,20.443,34.792,24.492,5.851,5.811,6.221
595,0.78,36.375,20.462,34.763,24.481,5.891,5.728,6.261
596,0.767,36.476,20.521,34.773,24.495,5.851,5.972,6.384
597,0.777,36.621,20.529,34.811,24.506,6.054,5.974,6.344
598,0.777,36.421,20.49,34.792,24.495,5.975,5.893,6.303
599,0.774,36.515,20.49,34.792,24.492,5.974,5.892,6.302
600,0.774,36.641,20.474,34.792,24.495,6.015,5.851,6.343
601,0.764,36.757,20.49,34.792,24.499,5.974,5.81,6.262
602,0.764,36.384,20.439,34.754,24.485,5.811,5.728,6.221
603,0.757,36.534,20.513,34.782,24.492,5.932,5.809,6.302
604,0.767,36.66,20.42,34.783,24.492,5.933,5.769,6.221
605,0.748,36.738,20.446,34.763,24.485,5.892,5.768,6.18
606,0.754,36.422,20.482,34.773,24.492,5.933,5.891,6.301
607,0.783,36.601,20.521,34.811,24.502,6.096,6.014,6.384
608,0.777,36.67,20.49,34.783,24.492,5.935,5.893,6.263
609,0.784,36.748,20.427,34.783,24.492,5.974,5.892,6.302
610,0.777,36.375,20.47,34.792,24.495,5.974,5.892,6.343
611,0.784,36.515,20.482,34.802,24.499,5.933,5.851,6.343
612,0.78,36.612,20.435,34.764,24.485,5.77,5.688,6.14
613,0.79,36.661,20.513,34.773,24.488,5.85,5.809,6.26
614,0.787,36.374,20.482,34.821,24.485,5.891,5.81,6.18
615,0.78,36.515,20.427,34.754,24.481,5.811,5.81,6.179
616,0.774,36.602,20.489,34.763,24.485,5.891,5.81,6.22
617,0.771,36.67,20.49,34.792,24.506,5.973,5.932,6.424
618,0.787,36.451,20.466,34.792,24.489,5.852,5.852,6.344
619,0.774,36.573,20.486,34.792,24.492,5.851,5.81,6.221
620,0.767,36.699,20.509,34.802,24.495,5.891,5.81,6.302
621,0.774,36.623,20.513,34.773,24.495,5.892,5.85,6.262
622,0.774,36.431,20.463,34.763,24.485,5.811,5.729,6.18
623,0.767,36.544,20.501,34.773,24.492,5.85,5.809,6.301
624,0.761,36.641,20.427,34.782,24.495,5.851,5.81,6.302
625,0.783,36.326,20.474,34.773,24.485,5.81,5.728,6.302
626,0.78,36.38,20.482,34.773,24.488,5.85,5.768,6.343
627,0.787,36.534,20.494,34.811,24.506,5.973,5.891,6.506
628,0.784,36.622,20.474,34.869,24.489,5.811,5.811,6.427
629,0.777,36.297,20.427,34.783,24.488,5.891,5.81,6.466
630,0.79,36.456,20.474,34.792,24.495,5.851,5.81,6.507
631,0.8,36.554,20.474,34.783,24.495,5.81,5.769,6.508
632,0.79,36.612,20.458,34.773,24.488,5.728,5.687,6.386
633,0.78,36.297,20.482,34.782,24.488,5.85,5.727,6.547
634,0.793,36.447,20.458,34.783,24.492,5.769,5.687,6.549
635,0.793,36.554,20.447,34.783,24.485,5.728,5.646,6.468
636,0.78,36.612,20.474,34.773,24.488,5.809,5.727,6.589
637,0.78,36.306,20.412,34.802,24.502,6.013,5.89,6.712
638,0.8,36.456,20.458,34.792,24.489,5.771,5.689,6.632
639,0.787,36.554,20.466,34.802,24.492,5.891,5.727,6.672
640,0.784,36.603,20.493,34.792,24.492,5.851,5.809,6.713
641,0.784,36.392,20.498,34.811,24.495,5.891,5.81,6.672
642,0.767,36.505,20.494,34.773,24.485,5.729,5.606,6.55
643,0.764,36.612,20.525,34.773,24.488,5.85,5.726,6.712
644,0.777,36.632,20.478,34.878,24.488,5.851,5.687,6.672
645,0.764,36.546,20.455,34.774,24.488,5.81,5.646,6.672
646,0.774,36.651,20.493,34.763,24.488,5.81,5.645,6.672
647,0.79,36.757,20.474,34.792,24.499,6.094,5.808,6.875
648,0.8,36.519,20.497,34.802,24.492,5.975,5.728,6.674
649,0.787,36.267,20.478,34.773,24.492,5.974,5.646,6.753
650,0.787,36.399,20.486,34.802,24.492,5.974,5.727,6.714
651,0.787,36.486,20.501,34.783,24.499,6.015,5.727,6.754
652,0.79,36.314,20.466,34.773,24.485,5.934,5.646,6.551
653,0.793,36.399,20.505,34.773,24.492,5.933,5.686,6.712
654,0.8,36.544,20.447,34.754,24.488,5.974,5.605,6.672
655,0.807,36.632,20.431,34.754,24.481,5.852,5.604,6.55
656,0.79,36.23,20.516,34.763,24.488,5.973,5.604,6.63
657,0.793,36.379,20.451,34.792,24.502,6.055,5.848,6.794
658,0.8,36.534,20.454,34.792,24.492,5.975,5.648,6.714
659,0.797,36.564,20.427,34.783,24.495,5.974,5.727,6.632
660,0.797,36.315,20.466,34.802,24.492,5.974,5.727,6.631
661,0.807,36.476,20.466,34.783,24.502,6.015,5.768,6.672
662,0.803,36.573,20.49,34.763,24.485,5.812,5.565,6.509
663,0.794,36.603,20.494,34.754,24.488,5.932,5.685,6.63
664,0.806,36.258,20.4,34.773,24.492,5.933,5.646,6.631
665,0.807,36.389,20.458,34.773,24.492,5.892,5.645,6.631
666,0.81,36.486,20.497,34.763,24.485,5.892,5.645,6.631
667,0.839,36.535,20.505,34.782,24.499,6.014,5.808,6.875
668,0.852,36.296,20.486,34.821,24.495,5.974,5.647,6.633
669,0.84,36.408,20.494,34.793,24.499,5.974,5.727,6.631
670,0.836,36.515,20.466,34.792,24.492,5.974,5.727,6.672
671,0.839,36.535,20.486,34.792,24.499,6.015,5.727,6.672
672,0.856,36.344,20.466,34.773,24.492,5.934,5.646,6.55
673,0.853,36.438,20.493,34.754,24.492,6.014,5.645,6.63
674,0.869,36.544,20.412,34.763,24.488,5.974,5.686,6.59
675,0.863,36.401,20.462,34.763,24.488,5.893,5.646,6.509
676,0.866,36.275,20.505,34.773,24.488,5.892,5.605,6.508
677,0.866,36.437,20.482,34.802,24.502,6.095,5.808,6.711
678,0.869,36.554,20.494,34.783,24.492,5.975,5.728,6.591
679,0.863,36.152,20.42,34.783,24.492,5.974,5.727,6.59
680,0.879,36.254,20.477,34.773,24.495,5.974,5.727,6.631
681,0.892,36.398,20.455,34.792,24.499,6.055,5.768,6.631
682,0.905,36.477,20.443,34.763,24.485,5.975,5.687,6.509
683,0.905,36.161,20.481,34.763,24.488,5.974,5.687,6.63
684,0.921,36.35,20.373,34.782,24.488,5.974,5.646,6.59
685,0.922,36.447,20.434,34.783,24.488,5.974,5.767,6.509
686,0.931,36.506,20.501,34.754,24.481,5.893,5.687,6.508
687,0.948,36.209,20.505,34.782,24.495,6.095,5.89,6.67
688,0.971,36.408,20.506,34.792,24.502,6.056,5.851,6.509
689,0.945,36.458,20.474,34.773,24.492,5.975,5.769,6.589
690,0.954,36.535,20.501,34.782,24.492,6.055,5.809,6.631
691,0.958,36.238,20.494,34.792,24.499,5.975,5.81,6.55
692,0.961,36.398,20.482,34.783,24.492,5.893,5.769,6.508
693,0.968,36.448,20.513,34.735,24.481,5.851,5.687,6.467
694,0.977,36.535,20.385,34.792,24.485,5.891,5.727,6.386
695,0.977,36.219,20.45,34.754,24.485,5.973,5.768,6.425
696,0.971,36.331,20.482,34.754,24.485,5.933,5.728,6.385
697,0.961,36.447,20.462,34.782,24.488,5.974,5.85,6.588
698,0.968,36.515,20.497,34.821,24.506,6.055,5.891,6.468
699,0.955,36.219,20.459,34.764,24.495,5.975,5.811,6.467
700,0.954,36.379,20.466,34.782,24.492,5.974,5.81,6.386
701,0.948,36.457,20.49,34.792,24.499,6.015,5.85,6.466
702,0.951,36.305,20.447,34.783,24.492,5.974,5.769,6.386
703,0.935,36.226,20.485,34.744,24.485,5.811,5.768,6.385
704,0.945,36.379,20.419,34.773,24.492,5.85,5.85,6.425
705,0.941,36.467,20.454,34.754,24.485,5.851,5.81,6.385
706,0.935,36.142,20.454,34.754,24.485,5.81,5.728,6.344
707,0.925,36.253,20.474,34.763,24.485,5.81,5.85,6.343
708,0.918,36.427,20.494,34.811,24.499,5.972,5.891,6.466
709,0.918,36.477,20.427,34.764,24.488,5.933,5.811,6.386
710,0.915,36.19,20.501,34.792,24.495,5.892,5.891,6.425
711,0.918,36.35,20.466,34.783,24.499,5.892,5.851,6.385
712,0.915,36.476,20.497,34.792,24.499,5.851,5.769,6.344
713,0.915,36.506,20.521,34.744,24.475,5.688,5.687,6.221
714,0.915,36.123,20.471,34.773,24.492,5.849,5.809,6.302
715,0.918,36.263,20.451,34.754,24.488,5.81,5.728,6.302
716,0.902,36.36,20.474,34.754,24.492,5.81,5.727,6.302
717,0.882,36.438,20.482,34.773,24.488,5.81,5.89,6.302
718,0.892,36.141,20.49,34.811,24.502,5.891,5.933,6.425
719,0.863,36.263,20.455,34.764,24.499,5.729,5.811,6.304
720,0.856,36.37,20.474,34.773,24.492,5.768,5.81,6.302
721,0.849,36.409,20.462,34.773,24.499,5.768,5.81,6.302
722,0.84,36.199,20.458,34.773,24.495,5.728,5.769,6.302
723,0.804,36.283,20.47,34.754,24.485,5.687,5.728,6.262
724,0.81,36.428,20.423,34.763,24.492,5.687,5.768,6.262
725,0.794,36.448,20.442,34.773,24.492,5.646,5.687,6.262
726,0.784,36.228,20.478,34.763,24.488,5.605,5.727,6.221
727,0.79,36.321,20.443,34.754,24.488,5.645,5.768,6.261
728,0.813,36.466,20.466,34.811,24.506,5.849,5.85,6.262
729,0.807,36.266,20.415,34.773,24.492,5.648,5.769,6.302
730,0.807,36.274,20.458,34.782,24.492,5.645,5.809,6.262
731,0.81,36.408,20.435,34.792,24.495,5.645,5.85,6.262
732,0.803,36.496,20.477,34.792,24.499,5.686,5.729,6.221
733,0.794,36.056,20.47,34.754,24.482,5.442,5.687,6.139
734,0.806,36.176,20.392,34.782,24.495,5.603,5.768,6.179
735,0.813,36.311,20.454,34.754,24.488,5.604,5.728,6.179
736,0.79,36.399,20.509,34.754,24.488,5.604,5.687,6.139
737,0.767,36.083,20.47,34.782,24.488,5.604,5.768,6.219
738,0.783,36.291,20.454,34.811,24.502,5.726,5.85,6.383
739,0.767,36.37,20.478,34.773,24.495,5.605,5.729,6.263
740,0.767,36.457,20.478,34.792,24.488,5.604,5.809,6.18
741,0.767,36.199,20.47,34.792,24.495,5.604,5.891,6.22
742,0.774,36.36,20.478,34.783,24.495,5.645,5.77,6.22
743,0.758,36.447,20.478,34.754,24.488,5.483,5.687,6.139
744,0.757,36.496,20.439,34.782,24.488,5.522,5.727,6.219
745,0.748,36.113,20.466,34.773,24.485,5.482,5.727,6.22
746,0.754,36.205,20.47,34.754,24.488,5.481,5.727,6.18
747,0.761,36.331,20.482,34.763,24.488,5.481,5.727,6.342
748,0.78,36.428,20.455,34.83,24.502,5.644,5.931,6.384
749,0.78,36.093,20.458,34.783,24.485,5.564,5.811,6.344
750,0.774,36.224,20.45,34.802,24.488,5.523,5.728,6.384
751,0.774,36.341,20.435,34.792,24.495,5.563,5.85,6.466
752,0.774,36.524,20.477,34.792,24.492,5.482,5.81,6.386
753,0.774,36.181,20.458,34.754,24.485,5.44,5.728,6.385
754,0.784,36.311,20.478,34.782,24.488,5.44,5.85,6.425
755,0.78,36.409,20.443,34.773,24.488,5.44,5.688,6.344
756,0.764,36.17,20.493,34.754,24.488,5.359,5.687,6.343
757,0.764,36.158,20.447,34.782,24.488,5.521,5.89,6.425
758,0.774,36.34,20.458,34.811,24.502,5.603,5.851,6.466
759,0.764,36.39,20.474,34.773,24.492,5.482,5.81,6.386
760,0.751,36.055,20.466,34.782,24.495,5.481,5.81,6.425
761,0.754,36.195,20.454,34.783,24.499,5.562,5.81,6.385
762,0.751,36.321,20.486,34.792,24.488,5.523,5.81,6.303
763,0.744,36.361,20.49,34.763,24.485,5.482,5.769,6.425
764,0.747,36.026,20.416,34.773,24.492,5.481,5.728,6.426
765,0.734,36.176,20.438,34.773,24.492,5.481,5.768,6.385
766,0.754,36.283,20.501,34.792,24.481,5.481,5.728,6.385
767,0.774,36.36,20.505,34.773,24.488,5.522,5.85,6.466
768,0.777,36.141,20.502,34.821,24.506,5.685,5.851,6.467
769,0.764,36.234,20.482,34.773,24.495,5.524,5.851,6.426
770,0.764,36.36,20.458,34.792,24.495,5.522,5.851,6.466
771,0.774,36.419,20.478,34.802,24.492,5.644,5.81,6.507
772,0.771,36.141,20.443,34.783,24.492,5.523,5.769,6.345
773,0.767,36.234,20.462,34.754,24.485,5.482,5.768,6.303
774,0.764,36.369,20.388,34.773,24.485,5.481,5.768,6.343
775,0.77,36.4,20.411,34.773,24.488,5.522,5.728,6.262
776,0.764,36.074,20.466,34.754,24.485,5.522,5.687,6.302
777,0.761,36.224,20.466,34.792,24.495,5.603,5.931,6.465
778,0.767,36.379,20.474,34.821,24.506,5.645,5.73,6.345
779,0.761,36.697,20.466,34.793,24.492,5.605,5.809,6.384
780,0.774,36.221,20.451,34.792,24.492,5.564,5.769,6.385
781,0.767,36.321,20.466,34.792,24.499,5.604,5.85,6.466
782,0.767,36.447,20.447,34.792,24.492,5.523,5.81,6.304
783,0.744,36.055,20.462,34.744,24.485,5.522,5.81,6.343
784,0.751,36.09,20.396,34.773,24.492,5.563,5.769,6.303
785,0.751,36.224,20.434,34.782,24.485,5.523,5.768,6.262
786,0.761,36.293,20.485,34.773,24.492,5.522,5.728,6.302
787,0.761,36.38,20.49,34.792,24.499,5.644,5.85,6.384
788,0.777,36.572,20.494,34.811,24.492,5.605,5.851,6.303
789,0.764,36.661,20.486,34.783,24.495,5.523,5.851,6.221
790,0.767,36.719,20.478,34.802,24.492,5.603,5.851,6.302
791,0.764,35.789,20.505,34.792,24.495,5.645,5.891,6.343
792,0.774,35.924,20.463,34.802,24.492,5.523,5.729,6.181
793,0.771,36.002,20.497,34.764,24.485,5.482,5.768,6.301
794,0.767,36.089,20.408,34.773,24.488,5.562,5.809,6.221
795,0.774,36.09,20.438,34.763,24.488,5.482,5.81,6.18
796,0.78,36.215,20.462,34.763,24.485,5.481,5.728,6.179
797,0.78,36.331,20.466,34.792,24.492,5.603,5.972,6.342
798,0.803,36.447,20.466,34.821,24.492,5.604,5.893,6.221
799,0.803,36.094,20.411,34.783,24.499,5.564,5.892,6.22
800,0.823,36.234,20.442,34.773,24.499,5.563,5.851,6.302
801,0.817,36.379,20.462,34.792,24.492,5.523,5.932,6.221
802,0.829,36.419,20.443,34.783,24.492,5.482,5.73,6.058
803,0.813,36.055,20.509,34.763,24.492,5.481,5.85,6.259
804,0.836,36.205,20.435,34.782,24.492,5.481,5.769,6.221
805,0.83,36.312,20.454,34.763,24.492,5.562,5.809,6.18
806,0.839,36.552,20.493,34.763,24.485,5.441,5.81,6.179
807,0.862,36.037,20.466,34.792,24.492,5.562,5.85,6.342
808,0.872,36.204,20.49,34.802,24.499,5.604,5.851,6.221
809,0.889,36.273,20.427,34.792,24.495,5.523,5.851,6.22
810,0.931,36.092,20.454,34.773,24.492,5.522,5.851,6.261
811,0.974,36.176,20.47,34.782,24.492,5.522,5.891,6.302
812,1.039,36.292,20.474,34.792,24.488,5.522,5.77,6.18
813,1.108,36.341,20.505,34.744,24.481,5.441,5.768,6.22
814,1.174,36.025,20.396,34.801,24.495,5.562,5.891,6.261
815,1.233,36.118,20.461,34.764,24.492,5.563,5.811,6.302
816,1.266,36.234,20.489,34.763,24.492,5.523,5.769,6.302
817,1.312,36.322,20.462,34.763,24.492,5.644,5.891,6.547
818,1.339,36.159,20.47,34.821,24.499,5.686,5.892,6.549
819,1.345,36.263,20.431,34.793,24.495,5.564,5.851,6.63
820,1.378,36.399,20.446,34.783,24.492,5.645,5.81,6.712
821,1.408,36.457,20.466,34.792,24.499,5.564,5.85,6.876
822,1.444,36.094,20.427,34.811,24.495,5.563,5.81,6.796
823,1.503,36.215,20.458,34.754,24.485,5.441,5.769,6.917
824,1.542,36.321,20.435,34.782,24.492,5.603,5.768,7.0
825,1.575,36.38,20.438,34.773,24.485,5.564,5.85,7.041
826,1.595,36.122,20.478,34.782,24.485,5.523,5.729,7.164
827,1.582,36.234,20.501,34.773,24.492,5.644,5.809,7.287
828,1.598,36.379,20.42,34.821,24.499,5.767,5.932,7.329
829,1.546,36.4,20.442,34.783,24.485,5.525,5.77,7.37
830,1.471,36.141,20.435,34.773,24.488,5.603,5.85,7.411
831,1.418,36.244,20.47,34.773,24.492,5.645,5.891,7.574
832,1.366,36.36,20.47,34.782,24.492,5.605,5.851,7.698
833,1.316,36.38,20.501,34.754,24.488,5.482,5.688,7.618
834,1.209,35.978,20.505,34.782,24.488,5.562,5.768,7.983
835,1.107,36.118,20.443,34.773,24.485,5.563,5.768,8.23
836,0.979,36.186,20.513,34.754,24.488,5.441,5.728,8.599
837,0.906,36.081,20.428,34.763,24.485,5.44,5.727,9.171
838,0.847,36.224,20.466,34.811,24.506,5.725,5.972,10.031
839,0.801,36.331,20.478,34.773,24.492,5.605,5.771,10.568
840,0.761,36.399,20.447,34.782,24.492,5.523,5.809,11.387
841,0.722,36.016,20.489,34.773,24.492,5.563,5.769,12.208
842,0.721,36.156,20.466,34.773,24.499,5.563,5.809,12.867
843,0.715,36.244,20.482,34.773,24.485,5.441,5.688,13.483
844,0.724,36.322,20.33,34.811,24.492,5.521,5.768,14.099
845,0.737,36.016,20.426,34.764,24.492,5.482,5.728,14.512
846,0.751,36.137,20.477,34.754,24.481,5.4,5.687,14.882
847,0.761,36.244,20.447,34.773,24.488,5.48,5.727,15.17
848,0.783,36.331,20.489,34.792,24.502,5.644,5.89,15.539
849,0.803,36.083,20.486,34.773,24.489,5.483,5.77,15.543
850,0.807,36.205,20.455,34.782,24.495,5.481,5.768,15.502
851,0.816,36.34,20.458,34.783,24.492,5.603,5.891,15.542
852,0.839,36.39,20.462,34.792,24.499,5.564,5.729,15.502
853,0.839,35.968,20.513,34.754,24.482,5.36,5.646,15.339
854,0.826,36.108,20.451,34.782,24.495,5.48,5.727,15.419
855,0.833,36.224,20.427,34.783,24.485,5.44,5.687,15.42
856,0.826,36.216,20.505,34.754,24.481,5.481,5.646,15.42
857,0.813,36.12,20.451,34.763,24.492,5.481,5.686,15.664
858,0.816,36.301,20.489,34.811,24.509,5.684,5.89,15.869
859,0.81,36.38,20.474,34.773,24.499,5.483,5.729,15.912
860,0.8,36.361,20.47,34.792,24.488,5.522,5.727,16.116
861,0.794,36.16,20.478,34.773,24.492,5.563,5.727,16.362
862,0.793,36.282,20.447,34.773,24.499,5.482,5.646,16.527
863,0.784,36.36,20.478,34.763,24.478,5.4,5.564,16.488
864,0.777,36.035,20.423,34.763,24.495,5.48,5.685,16.691
865,0.771,36.128,20.431,34.773,24.492,5.481,5.687,16.733
866,0.787,36.244,20.458,34.782,24.488,5.44,5.646,16.653
867,0.79,36.302,20.474,34.773,24.485,5.481,5.686,16.692
868,0.8,35.977,20.505,34.802,24.509,5.644,5.849,16.733
869,0.79,36.108,20.474,34.792,24.496,5.483,5.769,16.409
870,0.793,36.215,20.466,34.792,24.495,5.522,5.768,16.283
871,0.803,36.302,20.47,34.783,24.492,5.522,5.728,16.16
872,0.797,35.987,20.431,34.792,24.495,5.563,5.727,15.874
873,0.787,36.098,20.481,34.744,24.488,5.36,5.605,15.505
874,0.784,36.224,20.419,34.792,24.488,5.439,5.726,15.299
875,0.8,36.302,20.423,34.763,24.492,5.481,5.727,15.012
876,0.79,35.919,20.473,34.763,24.485,5.44,5.687,14.765
877,0.764,36.04,20.486,34.763,24.488,5.481,5.849,14.6
878,0.787,36.214,20.494,34.802,24.506,5.644,5.81,14.354
879,0.777,36.225,20.466,34.792,24.492,5.523,5.81,14.067
880,0.774,36.053,20.486,34.763,24.499,5.522,5.85,13.78
881,0.771,36.185,20.505,34.792,24.495,5.563,5.769,13.492
882,0.78,36.321,20.447,34.792,24.492,5.523,5.85,13.286
883,0.764,36.303,20.454,34.754,24.485,5.319,5.729,12.959
884,0.767,36.054,20.435,34.782,24.492,5.48,5.687,12.752
885,0.777,36.205,20.423,34.773,24.488,5.481,5.768,12.547
886,0.78,36.283,20.458,34.763,24.488,5.318,5.647,12.342
887,0.774,36.188,20.45,34.763,24.485,5.439,5.727,12.136
888,0.784,36.081,20.474,34.811,24.509,5.643,5.89,12.012
889,0.787,36.167,20.443,34.802,24.499,5.483,5.729,11.767
890,0.774,36.273,20.466,34.773,24.492,5.359,5.809,11.48
891,0.787,35.967,20.466,34.792,24.492,5.521,5.81,11.436
892,0.797,36.05,20.431,34.792,24.492,5.441,5.728,11.273
893,0.781,36.138,20.474,34.754,24.485,5.359,5.646,11.028
894,0.78,36.244,20.419,34.773,24.488,5.439,5.727,10.985
895,0.787,35.909,20.446,34.773,24.495,5.399,5.768,10.822
896,0.777,36.05,20.489,34.763,24.488,5.358,5.647,10.657
897,0.764,36.128,20.459,34.773,24.485,5.48,5.686,10.656
898,0.783,36.253,20.458,34.811,24.502,5.603,5.89,10.615
899,0.774,35.996,20.447,34.773,24.495,5.401,5.729,10.371
900,0.767,36.147,20.431,34.792,24.488,5.44,5.727,10.287
901,0.767,36.244,20.458,34.783,24.492,5.481,5.727,10.164
902,0.78,36.331,20.454,34.792,24.495,5.481,5.768,10.082
903,0.774,36.159,20.466,34.763,24.475,5.318,5.647,9.878
904,0.767,36.282,20.451,34.773,24.492,5.48,5.686,9.876
905,0.761,36.399,20.45,34.773,24.488,5.44,5.646,9.672
906,0.767,36.467,20.478,34.773,24.488,5.399,5.645,9.67
907,0.774,35.96,20.486,34.763,24.485,5.48,5.767,9.629
908,0.784,36.127,20.478,34.821,24.502,5.603,5.85,9.588
909,0.777,36.244,20.451,34.773,24.495,5.442,5.729,9.425
910,0.784,36.235,20.439,34.792,24.488,5.399,5.768,9.383
911,0.787,36.12,20.454,34.792,24.495,5.521,5.728,9.342
912,0.787,36.244,20.435,34.811,24.492,5.482,5.809,9.138
913,0.784,36.302,20.481,34.735,24.481,5.318,5.566,8.933
914,0.787,36.14,20.337,34.792,24.488,5.439,5.726,8.931
915,0.79,35.985,20.437,34.773,24.485,5.44,5.646,8.85
916,0.787,36.108,20.485,34.763,24.481,5.399,5.686,8.767
917,0.774,36.186,20.451,34.782,24.492,5.44,5.687,8.807
918,0.78,36.043,20.478,34.83,24.499,5.603,5.809,8.808
919,0.78,36.109,20.427,34.783,24.492,5.442,5.688,8.604
920,0.777,36.253,20.458,34.783,24.488,5.44,5.768,8.602
921,0.784,36.351,20.486,34.792,24.495,5.44,5.809,8.521
922,0.784,35.987,20.451,34.811,24.499,5.44,5.688,8.398
923,0.771,36.089,20.474,34.773,24.478,5.318,5.646,8.316
924,0.79,36.243,20.439,34.802,24.488,5.398,5.767,8.396
925,0.784,36.312,20.419,34.792,24.485,5.318,5.728,8.275
926,0.784,35.987,20.462,34.763,24.485,5.398,5.687,8.152
927,0.79,36.146,20.482,34.773,24.492,5.399,5.727,8.232
928,0.816,36.311,20.509,34.821,24.499,5.44,5.768,8.192
929,0.8,36.322,20.47,34.793,24.492,5.44,5.809,8.029
930,0.807,35.891,20.497,34.792,24.495,5.399,5.81,8.027
931,0.794,36.05,20.47,34.792,24.499,5.44,5.85,7.987
932,0.79,36.157,20.451,34.802,24.499,5.359,5.769,7.946
933,0.793,36.158,20.489,34.754,24.485,5.358,5.647,7.864
934,0.803,36.014,20.466,34.792,24.495,5.317,5.727,7.863
935,0.794,36.166,20.423,34.773,24.492,5.398,5.605,7.741
936,0.774,36.225,20.477,34.754,24.481,5.318,5.645,7.577
937,0.774,36.254,20.419,34.782,24.492,5.358,5.767,7.779
938,0.793,36.072,20.454,34.811,24.499,5.48,5.85,7.74
939,0.78,36.176,20.439,34.773,24.488,5.4,5.729,7.618
940,0.787,36.263,20.442,34.792,24.492,5.399,5.768,7.657
941,0.793,36.063,20.478,34.792,24.499,5.399,5.768,7.536
942,0.787,35.975,20.439,34.792,24.495,5.358,5.647,7.534
943,0.774,36.05,20.485,34.754,24.481,5.317,5.645,7.412
944,0.771,36.157,20.431,34.773,24.492,5.358,5.686,7.411
945,0.777,35.995,20.427,34.763,24.488,5.358,5.646,7.452
946,0.774,36.099,20.474,34.754,24.481,5.399,5.605,7.33
947,0.79,36.205,20.454,34.763,24.488,5.399,5.767,7.41
948,0.803,36.321,20.489,34.811,24.502,5.48,5.768,7.371
949,0.794,35.9,20.451,34.783,24.499,5.44,5.687,7.33
950,0.793,36.03,20.474,34.773,24.488,5.481,5.687,7.37
951,0.793,36.176,20.486,34.792,24.502,5.481,5.727,7.33
952,0.8,36.244,20.474,34.783,24.489,5.359,5.646,7.207
953,0.787,35.9,20.521,34.744,24.481,5.358,5.767,7.165
954,0.803,36.069,20.474,34.83,24.488,5.399,5.647,7.124
955,0.79,36.176,20.431,34.754,24.488,5.399,5.645,7.002
956,0.79,36.225,20.497,34.744,24.485,5.399,5.686,7.082
957,0.793,35.947,20.443,34.782,24.495,5.521,5.89,7.245
958,0.819,36.117,20.454,34.773,24.492,5.4,5.811,7.044
959,0.794,36.196,20.454,34.792,24.499,5.48,5.81,7.082
960,0.793,36.254,20.45,34.763,24.495,5.522,5.81,7.123
961,0.797,35.948,20.443,34.773,24.499,5.482,5.891,7.043
962,0.79,36.088,20.446,34.744,24.488,5.44,5.729,6.879
963,0.78,36.186,20.474,34.763,24.492,5.44,5.768,7.0
964,0.787,36.206,20.38,34.763,24.492,5.44,5.728,6.919
965,0.784,35.986,20.426,34.754,24.485,5.44,5.768,6.878
966,0.784,36.089,20.427,34.744,24.492,5.481,5.768,7.0
967,0.8,36.234,20.462,34.782,24.502,5.603,5.931,7.041
968,0.803,36.024,20.443,34.754,24.492,5.523,5.811,6.92
969,0.81,35.955,20.427,34.754,24.495,5.4,5.81,6.878
970,0.807,36.069,20.474,34.763,24.495,5.521,5.85,6.918
971,0.813,36.186,20.451,34.773,24.492,5.563,5.891,6.959
972,0.813,35.88,20.458,34.735,24.488,5.319,5.689,6.797
973,0.81,36.011,20.489,34.734,24.492,5.52,5.768,6.795
974,0.81,36.147,20.42,34.753,24.492,5.4,5.809,6.755
975,0.813,36.215,20.462,34.734,24.481,5.358,5.769,6.714
976,0.8,35.899,20.462,34.753,24.488,5.521,5.891,6.835
977,0.813,36.088,20.47,34.792,24.506,5.644,5.973,6.755
978,0.82,36.186,20.427,34.811,24.492,5.401,5.893,6.714
979,0.794,36.254,20.415,34.764,24.492,5.44,5.973,6.794
980,0.797,35.948,20.446,34.773,24.502,5.481,5.974,6.795
981,0.803,36.098,20.458,34.754,24.499,5.481,5.933,6.714
982,0.794,36.186,20.443,34.725,24.482,5.278,5.77,6.632
983,0.787,36.254,20.466,34.763,24.488,5.398,5.85,6.672
984,0.797,35.871,20.411,34.754,24.485,5.318,5.851,6.672
985,0.794,36.021,20.454,34.754,24.485,5.358,5.81,6.631
986,0.8,36.128,20.443,34.754,24.492,5.439,5.85,6.753
987,0.82,36.196,20.497,34.773,24.499,5.481,5.891,6.673
988,0.803,35.957,20.459,34.754,24.495,5.481,5.851,6.631
989,0.81,36.108,20.419,34.754,24.492,5.44,5.932,6.672
990,0.823,36.215,20.454,34.763,24.492,5.44,5.892,6.631
991,0.823,36.235,20.423,34.763,24.495,5.44,5.933,6.631
992,0.813,35.9,20.419,34.715,24.478,5.359,5.73,6.55
993,0.833,36.03,20.473,34.772,24.495,5.399,5.809,6.59
994,0.833,36.147,20.431,34.754,24.492,5.44,5.85,6.549
995,0.826,36.014,20.458,34.734,24.488,5.399,5.729,6.508
996,0.823,36.022,20.454,34.744,24.492,5.44,5.85,6.63
997,0.826,36.185,20.505,34.773,24.502,5.562,5.891,6.631
998,0.817,36.263,20.463,34.773,24.485,5.441,5.811,6.509
999,0.813,35.919,20.458,34.763,24.492,5.44,5.85,6.63
1000,0.813,36.069,20.435,34.754,24.499,5.481,5.851,6.631
1001,0.807,36.186,20.45,34.763,24.492,5.481,5.891,6.55
1002,0.81,36.235,20.443,34.725,24.481,5.359,5.729,6.386
1003,0.813,35.919,20.474,34.753,24.495,5.48,5.85,6.507
1004,0.82,36.021,20.408,34.763,24.488,5.4,5.769,6.467
1005,0.807,36.137,20.442,34.754,24.488,5.318,5.85,6.345
1006,0.813,36.215,20.431,34.763,24.495,5.48,5.891,6.547
1007,0.842,35.899,20.505,34.782,24.499,5.562,5.933,6.508
1008,0.83,36.011,20.467,34.763,24.492,5.441,5.852,6.467
1009,0.826,36.108,20.462,34.754,24.492,5.481,5.932,6.507
1010,0.839,36.186,20.447,34.763,24.495,5.481,5.892,6.508
1011,0.843,35.909,20.415,34.782,24.495,5.481,5.851,6.467
1012,0.836,36.011,20.427,34.735,24.475,5.4,5.769,6.304
1013,0.849,36.137,20.47,34.763,24.492,5.399,5.809,6.425
1014,0.849,36.177,20.372,34.763,24.488,5.44,5.769,6.385
1015,0.846,35.899,20.422,34.744,24.488,5.359,5.809,6.344
1016,0.827,36.03,20.434,34.753,24.488,5.399,5.81,6.384
1017,0.846,36.176,20.477,34.782,24.506,5.602,5.972,6.466
1018,0.833,36.35,20.458,34.754,24.495,5.482,5.852,6.467
1019,0.83,35.862,20.458,34.754,24.492,5.44,5.81,6.426
1020,0.833,36.001,20.47,34.763,24.495,5.44,5.891,6.466
1021,0.839,36.118,20.486,34.773,24.499,5.481,5.729,6.345
1022,0.83,35.994,20.459,34.744,24.478,5.318,5.727,6.343
1023,0.839,36.031,20.493,34.773,24.488,5.439,5.809,6.425
1024,0.836,36.147,20.435,34.754,24.485,5.318,5.81,6.385
1025,0.843,36.263,20.458,34.754,24.485,5.317,5.81,6.303
1026,0.836,35.775,20.466,34.754,24.485,5.398,5.891,6.384
1027,0.862,35.924,20.486,34.801,24.502,5.602,5.973,6.507
1028,0.859,36.031,20.462,34.773,24.489,5.442,5.771,6.345
1029,0.856,36.109,20.427,34.782,24.495,5.399,5.809,6.384
1030,0.866,35.86,20.431,34.773,24.485,5.48,5.891,6.425
1031,0.872,36.011,20.466,34.754,24.492,5.44,5.851,6.385
1032,0.859,36.108,20.443,34.754,24.481,5.318,5.769,6.344
1033,0.866,36.176,20.489,34.744,24.485,5.48,5.809,6.343
1034,0.872,35.794,20.412,34.763,24.488,5.359,5.688,6.262
1035,0.869,35.943,20.423,34.744,24.485,5.439,5.768,6.262
1036,0.859,36.041,20.45,34.753,24.485,5.399,5.809,6.302
1037,0.869,36.099,20.446,34.782,24.499,5.562,5.932,6.506
1038,0.876,35.956,20.466,34.773,24.492,5.401,5.811,6.386
1039,0.869,36.06,20.431,34.773,24.492,5.48,5.81,6.385
1040,0.859,36.176,20.45,34.773,24.488,5.44,5.85,6.344
1041,0.866,36.225,20.466,34.773,24.492,5.521,5.769,6.384
1042,0.862,35.976,20.435,34.782,24.492,5.4,5.687,6.222
1043,0.853,36.089,20.485,34.754,24.488,5.44,5.849,6.342
1044,0.866,36.205,20.392,34.792,24.485,5.44,5.81,6.303
1045,0.859,36.571,20.434,34.763,24.488,5.44,5.81,6.302
1046,0.869,35.989,20.454,34.754,24.481,5.399,5.769,6.302
1047,0.892,36.127,20.466,34.782,24.499,5.48,5.972,6.465
1048,0.902,36.263,20.478,34.783,24.495,5.481,5.893,6.304
1049,0.892,35.842,20.451,34.792,24.492,5.522,5.933,6.302
1050,0.886,35.857,20.466,34.763,24.495,5.4,5.892,6.302
1051,0.902,36.02,20.493,34.782,24.502,5.48,5.933,6.343
1052,0.905,36.099,20.443,34.754,24.485,5.4,5.77,6.221
1053,0.905,35.802,20.478,34.754,24.492,5.48,5.891,6.302
1054,0.915,35.953,20.447,34.763,24.485,5.44,5.892,6.221
1055,0.905,36.069,20.427,34.754,24.485,5.359,5.811,6.22
1056,0.895,36.147,20.485,34.754,24.485,5.399,5.85,6.302
1057,0.905,35.975,20.419,34.801,24.502,5.562,5.973,6.425
1058,0.912,36.118,20.438,34.783,24.499,5.401,5.933,6.304
1059,0.899,36.205,20.419,34.783,24.495,5.399,5.933,6.262
1060,0.902,36.302,20.442,34.773,24.495,5.44,5.974,6.302
1061,0.905,35.948,20.458,34.782,24.495,5.399,5.974,6.302
1062,0.892,36.079,20.435,34.773,24.485,5.358,5.73,6.14
1063,0.902,36.195,20.462,34.773,24.492,5.399,5.89,6.26
1064,0.918,36.244,20.443,34.763,24.492,5.358,5.892,6.221
1065,0.909,36.072,20.427,34.773,24.488,5.358,5.811,6.18
1066,0.918,36.195,20.442,34.754,24.488,5.317,5.81,6.22
1067,0.935,36.34,20.466,34.792,24.506,5.52,6.054,6.302
1068,0.931,36.39,20.443,34.773,24.489,5.36,5.853,6.262
1069,0.938,36.122,20.458,34.773,24.492,5.399,5.891,6.302
1070,0.938,36.263,20.435,34.773,24.499,5.44,5.973,6.262
1071,0.948,36.379,20.466,34.773,24.495,5.399,5.974,6.221
1072,0.938,36.582,20.447,34.754,24.485,5.277,5.771,6.098
1073,0.951,36.114,20.485,34.773,24.481,5.357,5.85,6.138
1074,0.951,36.224,20.431,34.754,24.488,5.358,5.81,6.098
1075,0.954,36.341,20.438,34.754,24.485,5.317,5.81,6.138
1076,0.948,36.131,20.478,34.763,24.481,5.398,5.932,6.179
1077,0.951,36.244,20.482,34.802,24.499,5.521,5.974,6.261
1078,0.945,36.36,20.435,34.773,24.495,5.36,5.852,6.18
1079,0.941,36.438,20.431,34.763,24.492,5.358,5.851,6.139
1080,0.948,36.17,20.435,34.792,24.492,5.439,5.851,6.219
1081,0.954,36.302,20.446,34.783,24.495,5.359,5.891,6.22
1082,0.948,36.418,20.403,34.754,24.481,5.236,5.689,6.098
1083,0.938,36.515,20.442,34.773,24.495,5.316,5.809,6.138
1084,0.948,36.2,20.419,34.763,24.488,5.317,5.81,6.098
1085,0.932,36.34,20.415,34.773,24.485,5.317,5.728,6.138
1086,0.944,36.428,20.462,34.754,24.488,5.236,5.809,6.26
1087,0.964,36.544,20.505,34.792,24.506,5.438,5.932,6.384
1088,0.977,36.363,20.459,34.783,24.485,5.359,5.852,6.222
1089,0.974,36.476,20.474,34.773,24.492,5.317,5.851,6.261
1090,0.968,36.602,20.462,34.792,24.499,5.398,5.851,6.302
1091,0.974,36.651,20.447,34.783,24.492,5.399,5.769,6.302
1092,0.968,36.364,20.427,34.754,24.485,5.196,5.687,6.14
1093,0.974,36.505,20.45,34.773,24.492,5.316,5.809,6.179
1094,0.981,36.612,20.403,34.773,24.492,5.358,5.769,6.139
1095,0.984,36.642,20.43,34.754,24.478,5.236,5.687,6.179
1096,0.984,36.537,20.47,34.744,24.492,5.316,5.809,6.22
1097,0.991,36.708,20.517,34.792,24.502,5.439,5.932,6.342
1098,0.987,36.787,20.404,34.783,24.492,5.318,5.811,6.262
1099,0.978,36.854,20.442,34.763,24.495,5.317,5.81,6.221
1100,0.971,36.51,20.458,34.782,24.492,5.317,5.81,6.22
1101,0.981,36.641,20.466,34.773,24.492,5.358,5.85,6.22
1102,0.977,36.719,20.411,34.735,24.481,5.114,5.729,6.22
1103,0.984,36.537,20.462,34.763,24.488,5.234,5.768,6.261
1104,0.971,36.651,20.388,34.763,24.488,5.235,5.768,6.18
1105,0.971,36.776,20.403,34.773,24.481,5.194,5.768,6.139
1106,0.981,36.835,20.45,34.773,24.495,5.275,5.85,6.341
1107,1.007,36.73,20.482,34.802,24.499,5.357,5.851,6.262
1108,0.994,36.854,20.455,34.783,24.488,5.277,5.81,6.302
1109,0.991,36.961,20.443,34.773,24.492,5.276,5.85,6.221
1110,1.0,37.058,20.454,34.782,24.502,5.276,5.769,6.302
1111,1.004,36.57,20.482,34.783,24.489,5.195,5.768,6.18
1112,0.991,36.67,20.416,34.754,24.485,5.153,5.687,6.261
1113,1.007,36.815,20.485,34.773,24.495,5.153,5.727,6.221
1114,1.004,36.884,20.423,34.782,24.492,5.153,5.768,6.18
1115,0.997,36.664,20.411,34.754,24.492,5.112,5.687,6.139
1116,0.987,36.805,20.481,34.754,24.495,5.274,5.849,6.341
1117,1.004,36.96,20.474,34.801,24.502,5.316,5.851,6.262
1118,0.991,36.99,20.474,34.773,24.495,5.195,5.769,6.221
1119,0.978,36.693,20.47,34.773,24.492,5.234,5.809,6.18
1120,0.984,36.834,20.419,34.773,24.495,5.235,5.81,6.22
1121,0.984,36.941,20.458,34.782,24.499,5.235,5.728,6.098
1122,0.974,36.933,20.45,34.715,24.485,5.113,5.768,6.178
1123,0.968,36.961,20.443,34.772,24.492,5.193,5.768,6.179
1124,0.971,37.077,20.454,34.763,24.488,5.153,5.809,6.179
1125,0.968,37.164,20.419,34.754,24.485,5.071,5.647,6.139
1126,0.971,37.079,20.462,34.792,24.499,5.233,5.808,6.301
1127,0.99,36.838,20.489,34.792,24.499,5.275,5.728,6.18
1128,0.968,36.922,20.439,34.773,24.492,5.154,5.809,6.179
1129,0.971,37.009,20.45,34.773,24.495,5.234,5.81,6.179
1130,0.974,36.866,20.419,34.792,24.495,5.235,5.85,6.179
1131,0.964,36.961,20.427,34.763,24.499,5.194,5.729,6.098
1132,0.955,37.058,20.427,34.744,24.478,5.072,5.687,6.138
1133,0.961,37.145,20.474,34.753,24.488,5.152,5.727,6.098
1134,0.951,36.81,20.412,34.773,24.485,5.153,5.727,6.056
1135,0.941,36.96,20.427,34.744,24.485,5.193,5.727,6.056
1136,0.928,37.058,20.485,34.773,24.488,5.234,5.809,6.137
1137,0.928,37.174,20.474,34.802,24.499,5.357,5.81,6.179
1138,0.925,36.964,20.443,34.783,24.488,5.236,5.81,6.139
1139,0.922,37.115,20.454,34.763,24.488,5.194,5.769,6.138
1140,0.902,37.213,20.431,34.773,24.495,5.194,5.85,6.138
1141,0.912,37.281,20.458,34.792,24.492,5.194,5.729,6.057
1142,0.899,36.859,20.466,34.754,24.481,5.153,5.727,6.056
1143,0.895,37.028,20.482,34.763,24.488,5.193,5.809,6.097
1144,0.886,37.106,20.419,34.773,24.485,5.112,5.728,6.056
1145,0.879,37.174,20.407,34.754,24.492,5.152,5.727,6.056
1146,0.879,36.964,20.485,34.773,24.492,5.234,5.931,6.178
1147,0.892,37.134,20.474,34.792,24.495,5.235,5.892,6.098
1148,0.879,37.203,20.427,34.773,24.492,5.194,5.811,6.016
1149,0.885,37.223,20.427,34.773,24.492,5.234,5.81,6.137
1150,0.889,36.974,20.434,34.782,24.495,5.316,5.972,6.138
1151,0.885,37.115,20.431,34.773,24.499,5.236,5.893,6.016
1152,0.872,37.193,20.399,34.773,24.482,5.275,5.851,6.096
1153,0.889,37.108,20.493,34.754,24.492,5.235,5.851,6.016
1154,0.866,36.915,20.416,34.773,24.488,5.235,5.851,6.015
1155,0.872,37.057,20.415,34.744,24.485,5.275,5.81,5.974
1156,0.85,37.154,20.466,34.782,24.499,5.357,6.013,6.177
1157,0.862,37.386,20.454,34.792,24.502,5.399,5.893,6.057
1158,0.849,37.484,20.411,34.773,24.492,5.399,5.892,6.056
1159,0.843,37.6,20.442,34.773,24.495,5.399,5.973,5.975
1160,0.849,37.687,20.439,34.792,24.492,5.44,5.893,6.055
1161,0.836,36.71,20.458,34.773,24.488,5.359,5.811,5.975
1162,0.82,36.786,20.45,34.744,24.488,5.358,5.769,6.055
1163,0.83,36.922,20.446,34.782,24.492,5.399,5.809,5.975
1164,0.83,37.0,20.419,34.754,24.495,5.358,5.769,6.055
1165,0.81,36.866,20.427,34.754,24.485,5.317,5.768,6.056
1166,0.823,37.018,20.438,34.792,24.502,5.48,5.972,6.137
1167,0.833,37.144,20.532,34.773,24.495,5.4,5.852,6.016
1168,0.82,37.184,20.463,34.773,24.492,5.48,5.851,6.015
1169,0.82,36.926,20.458,34.792,24.499,5.4,5.851,6.137
1170,0.83,37.057,20.466,34.792,24.492,5.521,5.851,6.057
1171,0.82,37.164,20.443,34.773,24.488,5.36,5.729,5.893
1172,0.817,37.194,20.45,34.773,24.495,5.399,5.809,6.014
1173,0.833,36.83,20.439,34.773,24.495,5.399,5.769,5.934
1174,0.823,36.951,20.415,34.773,24.485,5.399,5.687,5.974
1175,0.826,37.048,20.442,34.763,24.488,5.399,5.768,6.096
1176,0.817,37.106,20.466,34.802,24.502,5.562,5.931,6.138
1177,0.807,36.867,20.482,34.773,24.492,5.482,5.892,6.057
1178,0.807,36.989,20.455,34.792,24.502,5.481,5.892,6.137
1179,0.8,37.077,20.462,34.773,24.495,5.44,5.892,6.057
1180,0.794,37.049,20.478,34.773,24.492,5.481,5.851,5.975
1181,0.793,36.972,20.423,34.754,24.478,5.4,5.688,5.974
1182,0.8,37.096,20.442,34.763,24.495,5.48,5.809,6.015
1183,0.794,37.212,20.427,34.782,24.492,5.44,5.81,5.974
1184,0.797,37.3,20.411,34.773,24.488,5.359,5.81,5.974
1185,0.794,37.425,20.438,34.773,24.488,5.521,5.81,6.055
1186,0.816,37.561,20.427,34.811,24.506,5.603,6.013,6.097
1187,0.813,37.62,20.505,34.764,24.492,5.523,5.893,6.056
1188,0.813,36.575,20.427,34.792,24.488,5.563,5.851,6.056
1189,0.8,36.699,20.466,34.792,24.499,5.563,5.851,6.056
1190,0.813,36.825,20.474,34.811,24.492,5.523,5.81,6.097
1191,0.8,36.874,20.458,34.764,24.478,5.36,5.81,5.894
1192,0.8,36.922,20.462,34.773,24.488,5.521,5.85,6.054
1193,0.82,37.057,20.45,34.763,24.488,5.441,5.851,5.934
1194,0.81,37.154,20.372,34.773,24.488,5.399,5.769,5.974
1195,0.81,37.213,20.407,34.773,24.488,5.48,5.85,6.096
1196,0.81,36.753,20.45,34.811,24.502,5.644,5.973,6.138
1197,0.797,36.844,20.443,34.792,24.492,5.523,5.811,6.057
1198,0.787,36.961,20.442,34.792,24.495,5.522,5.85,6.056
1199,0.787,37.019,20.454,34.802,24.495,5.482,5.891,6.097
1200,0.793,36.838,20.482,34.802,24.495,5.481,5.811,6.056
1201,0.78,36.932,20.431,34.754,24.485,5.4,5.81,6.015
1202,0.79,37.086,20.435,34.792,24.495,5.48,5.85,6.056
1203,0.784,37.078,20.423,34.783,24.488,5.359,5.81,6.056
1204,0.78,36.838,20.384,34.773,24.481,5.358,5.769,6.015
1205,0.764,36.98,20.415,34.792,24.488,5.48,5.891,6.096
1206,0.796,37.106,20.427,34.831,24.506,5.562,5.973,6.138
1207,0.797,36.973,20.47,34.793,24.492,5.401,5.893,6.138
1208,0.79,36.923,20.435,34.802,24.492,5.399,5.811,6.098
1209,0.8,37.057,20.446,34.821,24.492,5.44,5.81,6.178
1210,0.794,37.154,20.462,34.812,24.488,5.481,5.891,6.139
1211,0.79,36.686,20.427,34.773,24.481,5.318,5.77,6.016
1212,0.8,36.796,20.458,34.811,24.492,5.358,5.85,6.137
1213,0.8,36.893,20.474,34.764,24.488,5.358,5.851,6.016
1214,0.8,36.98,20.451,34.782,24.485,5.399,5.81,6.096
1215,0.8,36.866,20.427,34.792,24.488,5.399,5.891,6.138
1216,0.81,37.037,20.458,34.821,24.502,5.602,5.973,6.219
1217,0.794,37.135,20.462,34.802,24.495,5.401,5.852,6.098
1218,0.8,37.222,20.423,34.802,24.492,5.48,5.973,6.097
1219,0.794,36.782,20.407,34.792,24.485,5.44,5.974,6.138
1220,0.79,36.921,20.407,34.821,24.499,5.44,5.852,6.098
1221,0.777,37.019,20.411,34.773,24.475,5.318,5.81,6.016
1222,0.777,37.058,20.434,34.782,24.492,5.439,5.85,6.137
1223,0.784,37.126,20.415,34.792,24.485,5.44,5.81,6.057
1224,0.784,37.232,20.411,34.792,24.492,5.521,5.81,6.097
1225,0.78,37.367,20.434,34.783,24.488,5.482,5.85,6.178
1226,0.793,37.426,20.442,34.83,24.502,5.644,5.973,6.139
1227,0.8,36.717,20.481,34.802,24.485,5.442,5.852,6.138
1228,0.787,36.844,20.435,34.802,24.492,5.521,5.851,6.138
1229,0.787,36.941,20.431,34.792,24.495,5.563,5.891,6.179
1230,0.806,36.981,20.431,34.802,24.488,5.604,5.851,6.139
1231,0.8,36.981,20.396,34.792,24.485,5.401,5.729,6.016
1232,0.787,37.106,20.419,34.811,24.492,5.48,5.809,6.096
1233,0.8,37.184,20.446,34.812,24.492,5.522,5.81,6.056
1234,0.794,36.926,20.396,34.802,24.492,5.36,5.769,6.056
1235,0.797,36.798,20.434,34.773,24.485,5.439,5.728,6.097
1236,0.794,36.941,20.47,34.811,24.506,5.684,5.89,6.178
1237,0.797,37.048,20.451,34.812,24.492,5.564,5.77,6.057
1238,0.79,36.886,20.45,34.821,24.492,5.523,5.768,6.137
1239,0.78,37.018,20.458,34.812,24.495,5.563,5.809,6.057
1240,0.787,37.135,20.447,34.802,24.495,5.523,5.85,6.137
1241,0.784,37.213,20.415,34.773,24.495,5.4,5.688,5.894
1242,0.777,36.763,20.434,34.792,24.488,5.521,5.687,6.095
1243,0.78,36.94,20.47,34.792,24.488,5.482,5.687,6.097
1244,0.79,37.038,20.384,34.792,24.485,5.562,5.646,6.056
1245,0.78,37.116,20.411,34.792,24.488,5.441,5.645,6.056
1246,0.787,36.848,20.442,34.811,24.495,5.643,5.767,6.137
1247,0.803,37.018,20.466,34.812,24.502,5.564,5.687,6.098
1248,0.79,37.125,20.435,34.792,24.492,5.563,5.727,5.975
1249,0.803,37.155,20.415,34.792,24.492,5.523,5.727,6.055
1250,0.803,36.781,20.427,34.811,24.495,5.644,5.768,6.097
1251,0.81,36.902,20.415,34.802,24.495,5.523,5.687,5.894
1252,0.794,36.98,20.407,34.783,24.485,5.603,5.727,6.054
1253,0.806,37.039,20.497,34.773,24.492,5.564,5.727,5.975
1254,0.807,36.78,20.447,34.792,24.481,5.523,5.727,5.893
1255,0.794,36.902,20.431,34.773,24.488,5.563,5.646,5.973
1256,0.787,37.028,20.477,34.811,24.495,5.685,5.849,6.137
1257,0.797,37.068,20.404,34.821,24.495,5.646,5.769,6.057
1258,0.784,36.992,20.426,34.802,24.492,5.605,5.768,6.056
1259,0.793,37.135,20.415,34.802,24.499,5.686,5.768,6.097
1260,0.787,37.232,20.466,34.812,24.492,5.646,5.768,6.097
1261,0.784,36.916,20.458,34.802,24.488,5.523,5.647,5.975
1262,0.777,36.846,20.443,34.773,24.492,5.522,5.767,6.015
1263,0.784,36.999,20.466,34.792,24.492,5.522,5.728,6.056
1264,0.784,37.087,20.404,34.792,24.488,5.522,5.727,6.015
1265,0.78,36.848,20.434,34.773,24.481,5.482,5.727,6.056
1266,0.79,36.951,20.446,34.811,24.495,5.644,5.809,6.178
1267,0.813,37.105,20.509,34.84,24.499,5.645,5.769,6.057
1268,0.797,37.145,20.467,34.793,24.492,5.523,5.768,6.097
1269,0.794,36.791,20.419,34.792,24.492,5.563,5.728,6.138
1270,0.787,36.941,20.45,34.821,24.495,5.645,5.85,6.138
1271,0.793,37.067,20.411,34.802,24.495,5.483,5.769,6.016
1272,0.793,37.097,20.423,34.792,24.492,5.522,5.728,6.096
1273,0.806,36.896,20.45,34.783,24.488,5.482,5.809,6.056
1274,0.807,37.057,20.38,34.792,24.488,5.481,5.728,5.975
1275,0.8,37.164,20.395,34.773,24.492,5.4,5.727,5.974
1276,0.797,37.232,20.395,34.811,24.499,5.602,5.85,6.259
1277,0.8,36.821,20.473,34.812,24.495,5.604,5.769,6.058
1278,0.794,36.951,20.466,34.802,24.495,5.523,5.809,6.056
1279,0.803,37.038,20.427,34.802,24.492,5.603,5.81,6.137
1280,0.8,37.068,20.489,34.831,24.499,5.604,5.85,6.179
1281,0.79,36.867,20.455,34.802,24.492,5.523,5.769,5.976
1282,0.78,36.942,20.443,34.783,24.492,5.522,5.85,6.096
1283,0.78,37.067,20.435,34.811,24.499,5.522,5.729,6.056
1284,0.784,37.212,20.396,34.802,24.488,5.482,5.687,6.056
1285,0.784,36.82,20.419,34.802,24.488,5.44,5.727,6.056
1286,0.793,36.96,20.411,34.84,24.495,5.725,5.972,6.219
1287,0.81,37.106,20.477,34.831,24.492,5.565,5.811,6.098
1288,0.813,36.877,20.443,34.821,24.492,5.523,5.81,6.097
1289,0.807,36.884,20.435,34.812,24.495,5.603,5.85,6.138
1290,0.81,36.999,20.462,34.821,24.499,5.564,5.851,6.098
1291,0.81,37.106,20.478,34.812,24.492,5.482,5.81,6.016
1292,0.794,36.618,20.431,34.773,24.485,5.481,5.81,6.056
1293,0.81,36.738,20.47,34.811,24.492,5.562,5.81,6.015
1294,0.81,36.854,20.372,34.802,24.485,5.523,5.728,6.056
1295,0.807,36.941,20.418,34.812,24.488,5.522,5.768,5.975
1296,0.787,36.683,20.415,34.812,24.492,5.563,5.891,6.259
1297,0.8,36.844,20.442,34.85,24.506,5.685,5.851,6.139
1298,0.787,36.951,20.427,34.831,24.489,5.524,5.851,6.138
1299,0.784,37.01,20.392,34.831,24.495,5.563,5.851,6.098
1300,0.787,36.751,20.434,34.821,24.492,5.563,5.851,6.138
1301,0.787,36.883,20.427,34.812,24.495,5.604,5.81,6.138
1302,0.777,36.98,20.434,34.783,24.485,5.482,5.769,6.057
1303,0.787,37.058,20.45,34.821,24.492,5.603,5.809,6.097
1304,0.784,36.771,20.443,34.812,24.488,5.523,5.769,6.016
1305,0.784,36.921,20.442,34.812,24.481,5.482,5.768,6.056
1306,0.79,37.038,20.415,34.84,24.499,5.644,5.891,6.178
1307,0.81,37.097,20.497,34.869,24.502,5.727,5.851,6.098
1308,0.794,36.752,20.396,34.822,24.499,5.565,5.81,6.138
1309,0.8,36.883,20.415,34.85,24.485,5.523,5.891,6.138
1310,0.8,36.99,20.442,34.85,24.492,5.603,5.892,6.138
1311,0.8,37.365,20.415,34.841,24.492,5.523,5.811,6.098
1312,0.787,36.697,20.438,34.821,24.488,5.482,5.769,6.097
1313,0.8,36.834,20.489,34.831,24.488,5.522,5.809,5.975
1314,0.803,36.941,20.377,34.841,24.485,5.522,5.81,6.015
1315,0.81,36.693,20.422,34.812,24.485,5.482,5.769,6.056
1316,0.79,36.729,20.466,34.821,24.492,5.562,5.809,6.097
1317,0.797,36.902,20.49,34.879,24.506,5.685,5.932,6.138
1318,0.787,36.971,20.462,34.841,24.489,5.605,5.852,6.138
1319,0.78,36.645,20.408,34.841,24.499,5.564,5.973,6.098
1320,0.784,36.786,20.423,34.85,24.495,5.563,5.852,6.138
1321,0.784,36.912,20.392,34.85,24.492,5.726,5.81,6.098
1322,0.787,36.98,20.403,34.822,24.485,5.484,5.769,6.016
1323,0.777,36.684,20.438,34.84,24.492,5.644,5.809,6.137
1324,0.774,36.815,20.38,34.841,24.485,5.483,5.81,6.138
1325,0.774,36.922,20.411,34.85,24.492,5.562,5.769,6.098
1326,0.774,36.98,20.423,34.86,24.488,5.563,5.85,6.219
1327,0.793,36.703,20.493,34.889,24.502,5.726,5.973,6.18
1328,0.793,36.815,20.455,34.851,24.492,5.646,5.811,6.139
1329,0.793,36.903,20.443,34.86,24.492,5.686,5.81,6.098
1330,0.787,36.971,20.466,34.86,24.492,5.605,5.972,6.178
1331,0.79,36.636,20.411,34.879,24.495,5.604,5.811,6.098
1332,0.787,36.738,20.419,34.851,24.485,5.523,5.688,6.016
1333,0.793,36.835,20.446,34.841,24.488,5.563,5.768,6.096
1334,0.777,36.865,20.446,34.879,24.495,5.523,5.768,6.016
1335,0.793,36.788,20.403,34.841,24.492,5.482,5.728,6.137
1336,0.79,36.902,20.469,34.85,24.488,5.603,5.727,6.138
1337,0.8,37.067,20.454,34.917,24.506,5.686,5.931,6.301
1338,0.803,37.231,20.419,34.88,24.492,5.564,5.852,6.14
1339,0.784,36.667,20.446,34.879,24.492,5.645,5.769,6.179
1340,0.78,36.786,20.439,34.889,24.499,5.564,5.809,6.139
1341,0.787,36.902,20.423,34.87,24.499,5.563,5.891,6.138
1342,0.78,36.664,20.434,34.86,24.475,5.482,5.689,5.935
1343,0.767,36.709,20.427,34.87,24.488,5.481,5.768,6.096
1344,0.77,36.834,20.36,34.879,24.488,5.522,5.768,6.138
1345,0.783,36.941,20.395,34.87,24.485,5.441,5.687,6.098
1346,0.78,36.578,20.419,34.86,24.485,5.399,5.727,6.097
1347,0.797,36.708,20.434,34.908,24.499,5.562,5.89,6.219
1348,0.794,36.854,20.407,34.899,24.499,5.563,5.729,6.139
1349,0.78,36.913,20.419,34.899,24.492,5.482,5.727,6.098
1350,0.78,36.53,20.419,34.889,24.495,5.481,5.727,6.26
1351,0.787,36.698,20.423,34.908,24.502,5.522,5.768,6.18
1352,0.787,36.815,20.446,34.889,24.485,5.4,5.606,6.057
1353,0.774,36.836,20.485,34.889,24.492,5.44,5.726,6.097
1354,0.777,36.634,20.474,34.956,24.492,5.481,5.687,6.097
1355,0.79,36.747,20.427,34.88,24.488,5.4,5.646,6.097
1356,0.784,36.854,20.442,34.87,24.481,5.399,5.686,6.138
1357,0.787,36.922,20.45,34.908,24.499,5.521,5.809,6.26
1358,0.797,36.674,20.443,34.908,24.488,5.482,5.728,6.139
1359,0.774,36.777,20.423,34.889,24.492,5.44,5.727,6.138
1360,0.78,36.902,20.442,34.918,24.495,5.359,5.687,6.138
1361,0.793,36.932,20.431,34.918,24.495,5.48,5.809,6.138
1362,0.787,36.578,20.431,34.909,24.492,5.318,5.566,5.976
1363,0.764,36.661,20.415,34.889,24.485,5.398,5.604,6.055
1364,0.767,36.796,20.419,34.908,24.492,5.44,5.686,6.097
1365,0.761,36.931,20.427,34.928,24.488,5.359,5.564,6.056
1366,0.764,36.664,20.415,34.889,24.488,5.317,5.604,6.097
1367,0.78,36.815,20.481,34.937,24.495,5.439,5.848,6.178
1368,0.8,36.951,20.431,34.947,24.499,5.359,5.648,6.098
1369,0.79,36.52,20.427,34.938,24.492,5.358,5.686,6.178
1370,0.79,36.583,20.438,34.928,24.492,5.439,5.646,6.139
1371,0.78,36.709,20.439,34.947,24.495,5.44,5.767,6.138
1372,0.78,36.806,20.446,34.947,24.485,5.277,5.647,6.016
1373,0.764,36.538,20.442,34.918,24.488,5.316,5.686,6.137
1374,0.774,36.718,20.384,34.918,24.495,5.358,5.646,6.057
1375,0.784,36.835,20.395,34.937,24.488,5.317,5.645,6.056
1376,0.764,36.903,20.411,34.918,24.488,5.317,5.727,6.056
1377,0.78,36.578,20.458,34.956,24.495,5.398,5.809,6.259
1378,0.78,36.756,20.407,34.986,24.499,5.318,5.688,6.139
1379,0.764,36.835,20.446,34.957,24.492,5.317,5.768,6.138
1380,0.774,36.903,20.462,34.957,24.495,5.317,5.768,6.179
1381,0.767,36.664,20.454,34.976,24.495,5.317,5.809,6.179
1382,0.77,36.815,20.446,34.947,24.492,5.317,5.647,6.017
1383,0.751,36.874,20.407,34.918,24.485,5.236,5.727,6.137
1384,0.761,36.97,20.43,34.966,24.492,5.275,5.727,6.138
1385,0.77,36.607,20.411,34.947,24.485,5.316,5.727,6.098
1386,0.774,36.718,20.423,34.947,24.485,5.195,5.768,6.097
1387,0.78,36.825,20.434,34.976,24.488,5.316,5.85,6.3
1388,0.79,36.903,20.431,35.005,24.499,5.358,5.769,6.18
1389,0.774,36.597,20.396,34.986,24.492,5.236,5.809,6.179
1390,0.777,36.737,20.395,34.986,24.488,5.357,5.81,6.179
1391,0.774,36.835,20.434,34.995,24.499,5.277,5.85,6.22
1392,0.78,36.865,20.415,34.996,24.499,5.276,5.891,6.18
1393,0.784,36.683,20.462,34.948,24.482,5.154,5.689,5.976
1394,0.777,36.815,20.38,34.985,24.492,5.315,5.849,6.096
1395,0.784,36.922,20.407,34.976,24.492,5.276,5.81,6.178
1396,0.774,36.539,20.469,34.976,24.485,5.195,5.81,6.139
1397,0.771,36.612,20.419,34.976,24.485,5.234,5.85,6.098
1398,0.78,36.766,20.434,35.034,24.502,5.397,6.013,6.341
1399,0.78,36.883,20.407,35.005,24.495,5.236,5.852,6.14
1400,0.771,36.549,20.395,34.996,24.492,5.235,5.891,6.219
1401,0.774,36.708,20.442,35.015,24.495,5.316,5.892,6.18
1402,0.774,36.834,20.439,35.015,24.495,5.276,5.933,6.261
1403,0.774,36.922,20.462,35.024,24.485,5.276,5.77,6.18
1404,0.758,36.559,20.384,35.005,24.481,5.235,5.931,6.22
1405,0.777,36.727,20.442,35.024,24.492,5.275,5.933,6.18
1406,0.774,36.844,20.47,35.005,24.485,5.235,5.852,6.179
1407,0.78,36.893,20.478,35.005,24.485,5.235,5.81,6.179
1408,0.774,36.587,20.466,35.024,24.495,5.316,5.972,6.301
1409,0.79,36.737,20.431,35.072,24.499,5.317,6.015,6.221
1410,0.777,36.854,20.415,35.025,24.495,5.398,5.934,6.22
1411,0.79,36.893,20.419,35.025,24.488,5.318,5.933,6.22
1412,0.78,36.625,20.399,35.044,24.495,5.358,6.014,6.302
1413,0.79,36.766,20.454,35.044,24.495,5.277,5.934,6.099
1414,0.78,36.845,20.298,35.006,24.485,5.276,5.852,6.178
1415,0.797,36.893,20.406,35.024,24.492,5.276,5.891,6.139
1416,0.781,36.606,20.442,35.015,24.481,5.316,5.933,6.138
1417,0.774,36.747,20.419,35.015,24.481,5.236,5.892,6.179
1418,0.774,36.844,20.434,35.063,24.495,5.397,5.973,6.342
1419,0.777,36.826,20.419,35.063,24.499,5.399,5.974,6.303
1420,0.767,36.653,20.45,35.063,24.492,5.358,5.974,6.18
1421,0.757,36.776,20.431,35.054,24.495,5.358,6.015,6.301
1422,0.77,36.883,20.423,35.073,24.492,5.399,6.056,6.302
1423,0.764,36.644,20.45,35.054,24.488,5.358,6.015,6.221
1424,0.751,36.709,20.357,35.034,24.485,5.277,5.974,6.261
1425,0.764,36.873,20.406,35.063,24.492,5.316,5.974,6.221
1426,0.767,36.932,20.442,35.054,24.485,5.358,5.933,6.18
1427,0.767,37.153,20.462,35.044,24.488,5.277,5.892,6.179
1428,0.761,37.309,20.47,35.063,24.499,5.357,6.014,6.383
1429,0.78,37.473,20.462,35.102,24.495,5.399,6.096,6.263
1430,0.771,37.504,20.443,35.083,24.488,5.318,6.097,6.262
1431,0.757,36.267,20.454,35.083,24.499,5.358,6.056,6.262
1432,0.77,36.427,20.411,35.102,24.492,5.358,6.097,6.343
1433,0.767,36.534,20.493,35.064,24.499,5.399,5.975,6.181
1434,0.767,36.574,20.443,35.121,24.478,5.236,5.893,6.098
1435,0.783,36.622,20.415,35.083,24.488,5.316,5.933,6.219
1436,0.764,36.747,20.454,35.083,24.481,5.358,5.974,6.22
1437,0.767,36.873,20.396,35.063,24.481,5.277,5.933,6.22
1438,0.767,36.922,20.419,35.082,24.488,5.316,6.014,6.302
1439,0.767,36.539,20.446,35.121,24.499,5.439,6.096,6.262
1440,0.764,36.631,20.4,35.093,24.495,5.399,6.016,6.221
1441,0.761,36.747,20.442,35.102,24.492,5.399,6.096,6.261
1442,0.764,36.768,20.415,35.112,24.492,5.44,6.016,6.302
1443,0.764,36.701,20.458,35.112,24.492,5.399,6.015,6.302
1444,0.748,36.786,20.4,35.083,24.481,5.196,5.852,6.18
1445,0.751,36.912,20.411,35.102,24.495,5.438,6.013,6.261
1446,0.761,36.741,20.45,35.083,24.488,5.399,5.893,6.262
1447,0.767,36.614,20.423,35.092,24.488,5.318,5.892,6.262
1448,0.764,36.738,20.419,35.092,24.488,5.398,6.014,6.262
1449,0.774,36.873,20.419,35.14,24.502,5.521,6.056,6.343
1450,0.79,36.558,20.407,35.112,24.489,5.36,6.015,6.303
1451,0.78,36.641,20.411,35.14,24.492,5.399,6.056,6.343
1452,0.777,36.786,20.438,35.131,24.499,5.48,6.015,6.303
1453,0.787,36.864,20.442,35.121,24.488,5.481,5.974,6.221
1454,0.78,36.539,20.411,35.131,24.485,5.278,5.811,6.098
1455,0.774,36.651,20.419,35.131,24.492,5.479,6.013,6.26
1456,0.774,36.757,20.442,35.121,24.492,5.4,5.974,6.262
1457,0.771,36.835,20.435,35.121,24.485,5.399,5.852,6.221
1458,0.767,36.529,20.38,35.121,24.485,5.44,5.973,6.302
1459,0.767,36.67,20.434,35.16,24.509,5.643,6.177,6.384
1460,0.757,36.805,20.396,35.141,24.492,5.483,5.976,6.263
1461,0.774,36.855,20.407,35.15,24.492,5.481,6.015,6.262
1462,0.771,36.529,20.403,35.15,24.492,5.562,6.015,6.302
1463,0.761,36.67,20.407,35.16,24.495,5.563,6.056,6.262
1464,0.767,36.738,20.411,35.131,24.492,5.401,5.893,6.139
1465,0.751,36.777,20.395,35.15,24.492,5.48,5.933,6.301
1466,0.757,36.528,20.407,35.141,24.499,5.44,5.892,6.18
1467,0.767,36.65,20.466,35.122,24.485,5.481,5.892,6.22
1468,0.757,36.767,20.408,35.141,24.485,5.522,5.892,6.22
1469,0.77,36.797,20.458,35.179,24.502,5.685,6.014,6.464
1470,0.78,36.567,20.415,35.16,24.495,5.564,5.974,6.304
1471,0.767,36.66,20.423,35.16,24.495,5.523,5.933,6.384
1472,0.774,36.776,20.438,35.17,24.495,5.522,5.974,6.344
1473,0.777,36.634,20.45,35.16,24.499,5.563,5.893,6.303
1474,0.767,36.556,20.403,35.141,24.482,5.36,5.77,6.221
1475,0.783,36.689,20.384,35.141,24.488,5.521,5.931,6.302
1476,0.771,36.786,20.438,35.16,24.485,5.4,5.852,6.18
1477,0.764,36.48,20.458,35.15,24.488,5.399,5.851,6.22
1478,0.764,36.621,20.407,35.15,24.488,5.48,5.851,6.342
1479,0.767,36.757,20.426,35.208,24.502,5.644,6.013,6.425
1480,0.777,36.835,20.392,35.18,24.495,5.483,5.893,6.304
1481,0.767,36.395,20.434,35.17,24.485,5.562,5.933,6.302
1482,0.764,36.553,20.45,35.179,24.495,5.523,5.974,6.302
1483,0.764,36.66,20.415,35.199,24.492,5.522,5.933,6.343
1484,0.764,36.709,20.43,35.16,24.481,5.36,5.811,6.221
1485,0.751,36.422,20.415,35.189,24.492,5.399,5.972,6.342
1486,0.761,36.553,20.403,35.18,24.488,5.44,5.974,6.262
1487,0.764,36.67,20.485,35.179,24.485,5.44,5.811,6.262
1488,0.77,36.719,20.38,35.199,24.481,5.44,5.85,6.343
1489,0.777,36.604,20.407,35.228,24.506,5.562,6.013,6.425
1490,0.8,36.728,20.384,35.189,24.492,5.401,5.852,6.385
1491,0.784,36.835,20.411,35.199,24.492,5.48,5.891,6.344
1492,0.784,36.874,20.43,35.218,24.499,5.562,5.933,6.425
1493,0.784,36.366,20.454,35.218,24.492,5.482,6.014,6.344
1494,0.777,36.495,20.404,35.18,24.488,5.359,5.812,6.221
1495,0.774,36.602,20.38,35.189,24.485,5.48,5.85,6.302
1496,0.777,36.613,20.473,35.189,24.492,5.481,5.932,6.302
1497,0.774,36.613,20.458,35.189,24.488,5.4,5.852,6.302
1498,0.78,36.718,20.447,35.199,24.485,5.44,5.851,6.343
1499,0.784,36.844,20.458,35.228,24.495,5.562,6.013,6.384
1500,0.784,36.587,20.443,35.237,24.495,5.523,5.974,6.303
1501,0.777,36.517,20.442,35.209,24.499,5.482,5.974,6.384
1502,0.78,36.641,20.407,35.218,24.492,5.481,5.974,6.385
1503,0.784,36.748,20.423,35.228,24.492,5.562,5.974,6.425
1504,0.787,36.413,20.392,35.189,24.488,5.482,5.893,6.263
1505,0.787,36.486,20.38,35.199,24.488,5.481,5.973,6.343
1506,0.797,36.65,20.426,35.218,24.488,5.522,5.974,6.303
1507,0.803,36.709,20.458,35.199,24.488,5.482,5.893,6.302
1508,0.8,36.384,20.458,35.208,24.485,5.44,5.892,6.343
1509,0.803,36.544,20.47,35.228,24.495,5.562,6.014,6.425
1510,0.82,36.689,20.431,35.247,24.495,5.563,5.974,6.385
1511,0.81,36.748,20.419,35.228,24.488,5.604,5.974,6.344
1512,0.826,36.346,20.38,35.228,24.492,5.604,5.974,6.506
1513,0.839,36.486,20.43,35.228,24.495,5.523,5.974,6.345
1514,0.846,36.602,20.396,35.218,24.502,5.644,5.893,6.343
1515,0.84,36.661,20.356,35.199,24.489,5.605,5.892,6.303
1516,0.836,36.556,20.383,35.228,24.495,5.645,5.933,6.343
1517,0.836,36.67,20.426,35.228,24.492,5.645,5.852,6.384
1518,0.839,36.786,20.411,35.209,24.492,5.605,5.851,6.303
1519,0.843,36.816,20.446,35.256,24.492,5.767,5.973,6.465
1520,0.866,36.442,20.458,35.257,24.499,5.85,5.933,6.426
1521,0.869,36.544,20.466,35.228,24.492,5.769,5.933,6.426
1522,0.879,36.641,20.415,35.237,24.499,5.768,5.974,6.385
1523,0.885,36.69,20.446,35.247,24.492,5.809,5.974,6.425
1524,0.889,36.499,20.4,35.247,24.495,5.769,5.933,6.426
1525,0.892,36.612,20.368,35.218,24.478,5.687,5.77,6.344
1526,0.912,36.709,20.418,35.228,24.488,5.849,5.931,6.384
1527,0.915,36.48,20.419,35.237,24.485,5.81,5.852,6.425
1528,0.935,36.487,20.403,35.218,24.485,5.769,5.891,6.344
1529,0.931,36.612,20.423,35.218,24.488,5.85,5.892,6.384
1530,0.957,36.757,20.427,35.266,24.506,6.013,6.014,6.507
1531,0.951,36.346,20.431,35.247,24.492,5.934,5.852,6.345
1532,0.938,36.476,20.435,35.238,24.488,5.892,5.973,6.343
1533,0.935,36.583,20.435,35.257,24.495,5.933,5.974,6.425
1534,0.951,36.661,20.396,35.257,24.495,5.892,5.974,6.304
1535,0.954,36.239,20.387,35.228,24.485,5.811,5.771,6.221
1536,0.945,36.379,20.422,35.257,24.488,5.891,5.891,6.342
1537,0.922,36.476,20.434,35.247,24.488,5.811,5.892,6.343
1538,0.915,36.573,20.38,35.247,24.485,5.891,5.851,6.343
1539,0.915,36.373,20.407,35.228,24.488,5.851,5.81,6.343
1540,0.925,36.572,20.403,35.295,24.499,6.013,5.972,6.466
1541,0.925,36.68,20.434,35.267,24.492,5.893,5.852,6.304
1542,0.912,36.729,20.411,35.267,24.492,5.933,5.973,6.343
1543,0.922,36.25,20.415,35.267,24.495,5.974,5.974,6.425
1544,0.925,36.36,20.423,35.247,24.499,6.015,5.974,6.385
1545,0.925,36.495,20.431,35.266,24.482,5.893,5.73,6.385
1546,0.922,36.497,20.431,35.238,24.495,5.933,5.972,6.344
1547,0.918,36.363,20.458,35.257,24.488,5.892,5.852,6.343
1548,0.902,36.486,20.419,35.266,24.492,5.973,5.851,6.343
1549,0.895,36.583,20.423,35.257,24.485,5.852,5.851,6.384
1550,0.895,36.939,20.399,35.295,24.502,6.054,6.054,6.466
1551,0.915,36.501,20.434,35.276,24.495,5.975,5.934,6.386
1552,0.892,36.612,20.423,35.276,24.495,6.015,5.974,6.385
1553,0.895,36.69,20.442,35.257,24.499,6.015,5.974,6.344
1554,0.886,36.422,20.357,35.295,24.495,5.974,5.933,6.466
1555,0.889,36.419,20.383,35.257,24.485,5.893,5.811,6.223
1556,0.879,36.515,20.438,35.266,24.492,5.973,5.85,6.302
1557,0.863,36.631,20.427,35.267,24.485,5.933,5.891,6.343
1558,0.853,36.335,20.399,35.267,24.485,5.974,5.851,6.303
1559,0.846,36.457,20.411,35.247,24.492,5.974,5.891,6.384
1560,0.833,36.602,20.391,35.295,24.499,6.055,6.054,6.547
1561,0.833,36.69,20.422,35.286,24.495,5.934,5.893,6.386
1562,0.807,36.278,20.423,35.276,24.495,5.974,5.892,6.425
1563,0.79,36.447,20.423,35.286,24.492,6.015,5.892,6.466
1564,0.784,36.535,20.411,35.305,24.492,5.934,5.973,6.548
1565,0.784,36.622,20.395,35.277,24.485,5.852,5.771,6.346
1566,0.774,36.325,20.419,35.286,24.495,5.973,5.891,6.466
1567,0.784,36.457,20.466,35.295,24.492,5.974,5.811,6.548
1568,0.774,36.583,20.411,35.286,24.488,5.852,5.769,6.508
1569,0.767,36.622,20.415,35.295,24.481,5.891,5.85,6.508
1570,0.78,36.277,20.419,35.315,24.502,6.054,6.013,6.589
1571,0.784,36.427,20.446,35.286,24.489,5.934,5.893,6.671
1572,0.774,36.506,20.45,35.305,24.492,5.974,5.892,6.631
1573,0.774,36.554,20.431,35.296,24.495,5.974,5.892,6.631
1574,0.787,36.306,20.427,35.315,24.499,5.974,5.933,6.631
1575,0.784,36.418,20.403,35.267,24.485,5.811,5.689,6.509
1576,0.754,36.525,20.438,35.305,24.492,5.932,5.849,6.63
1577,0.744,36.881,20.47,35.315,24.492,5.974,5.769,6.631
1578,0.76,36.424,20.357,35.305,24.488,5.893,5.809,6.55
1579,0.741,36.544,20.371,35.296,24.488,5.933,5.769,6.63
1580,0.751,36.679,20.418,35.344,24.506,6.055,5.891,6.712
1581,0.744,36.364,20.407,35.325,24.489,5.934,5.851,6.672
1582,0.741,36.39,20.415,35.315,24.488,5.933,5.851,6.631
1583,0.731,36.524,20.395,35.334,24.499,5.892,5.81,6.631
1584,0.734,36.612,20.411,35.315,24.499,5.973,5.85,6.672
1585,0.738,36.316,20.38,35.296,24.478,5.811,5.688,6.55
1586,0.741,36.437,20.422,35.324,24.495,5.932,5.849,6.671
1587,0.747,36.535,20.466,35.325,24.495,5.852,5.81,6.631
1588,0.747,36.631,20.353,35.305,24.488,5.851,5.728,6.631
1589,0.751,36.239,20.399,35.315,24.485,5.891,5.809,6.753
1590,0.751,36.398,20.411,35.344,24.502,6.014,5.972,6.836
1591,0.774,36.534,20.442,35.315,24.492,5.852,5.852,6.714
1592,0.754,36.574,20.411,35.334,24.485,5.851,5.81,6.632
1593,0.761,36.325,20.434,35.334,24.499,5.81,5.85,6.794
1594,0.744,36.457,20.403,35.325,24.502,5.85,5.81,6.714
1595,0.751,36.573,20.364,35.305,24.485,5.769,5.647,6.551
1596,0.731,36.613,20.407,35.315,24.495,5.809,5.767,6.712
1597,0.734,36.22,20.466,35.305,24.488,5.85,5.809,6.672
1598,0.744,36.36,20.443,35.315,24.488,5.729,5.688,6.672
1599,0.731,36.476,20.454,35.315,24.488,5.727,5.727,6.672
1600,0.738,36.535,20.458,35.363,24.499,5.931,5.931,6.753
1601,0.738,36.344,20.435,35.325,24.495,5.77,5.811,6.795
1602,0.731,36.457,20.407,35.344,24.492,5.809,5.81,6.714
1603,0.725,36.564,20.395,35.344,24.495,5.81,5.891,6.794
1604,0.741,36.747,20.395,35.344,24.495,5.81,5.892,6.877
1605,0.734,36.442,20.364,35.334,24.485,5.647,5.729,6.633
1606,0.728,36.544,20.368,35.334,24.492,5.767,5.89,6.712
1607,0.744,36.632,20.438,35.353,24.488,5.768,5.851,6.754
1608,0.738,36.268,20.388,35.344,24.485,5.687,5.769,6.551
1609,0.734,36.303,20.411,35.334,24.488,5.646,5.809,6.752
1610,0.744,36.447,20.458,35.363,24.506,5.889,6.054,6.876
1611,0.754,36.535,20.45,35.354,24.492,5.729,5.893,6.755
1612,0.738,36.152,20.439,35.344,24.495,5.687,5.892,6.754
1613,0.741,36.273,20.435,35.344,24.492,5.727,5.851,6.754
1614,0.747,36.399,20.403,35.363,24.492,5.768,5.891,6.754
1615,0.747,36.505,20.403,35.344,24.492,5.728,5.77,6.632
1616,0.731,36.238,20.395,35.325,24.488,5.605,5.768,6.672
1617,0.741,36.379,20.461,35.353,24.495,5.645,5.85,6.713
1618,0.738,36.515,20.404,35.354,24.492,5.645,5.769,6.672
1619,0.731,36.583,20.407,35.335,24.488,5.564,5.768,6.672
1620,0.731,36.267,20.423,35.353,24.499,5.685,5.809,6.753
1621,0.744,36.456,20.431,35.402,24.495,5.687,5.891,6.632
1622,0.744,36.535,20.423,35.373,24.492,5.687,5.811,6.712
1623,0.725,36.583,20.395,35.363,24.495,5.687,5.891,6.754
1624,0.731,36.306,20.415,35.373,24.499,5.687,5.933,6.714
1625,0.734,36.456,20.423,35.363,24.492,5.646,5.77,6.632
1626,0.731,36.525,20.423,35.344,24.485,5.605,5.809,6.672
1627,0.747,36.555,20.446,35.354,24.488,5.645,5.81,6.631
1628,0.764,36.229,20.396,35.373,24.488,5.564,5.769,6.55
1629,0.751,36.331,20.38,35.344,24.488,5.523,5.728,6.59
1630,0.751,36.457,20.372,35.382,24.495,5.644,5.85,6.712
1631,0.77,36.544,20.395,35.402,24.499,5.605,5.932,6.632
1632,0.757,36.267,20.422,35.373,24.488,5.604,5.811,6.631
1633,0.761,36.379,20.423,35.373,24.492,5.604,5.81,6.712
1634,0.764,36.486,20.352,35.383,24.502,5.645,5.891,6.632
1635,0.761,36.18,20.379,35.383,24.489,5.645,5.77,6.509
1636,0.728,36.206,20.446,35.344,24.488,5.523,5.647,6.549
1637,0.728,36.36,20.427,35.382,24.488,5.563,5.767,6.549
1638,0.738,36.467,20.419,35.373,24.488,5.563,5.687,6.508
1639,0.741,36.257,20.415,35.363,24.488,5.482,5.687,6.549
1640,0.757,36.408,20.403,35.383,24.492,5.644,5.809,6.671
1641,0.787,36.553,20.43,35.402,24.506,5.686,5.769,6.631
1642,0.787,36.612,20.427,35.392,24.495,5.564,5.768,6.631
1643,0.784,36.249,20.431,35.383,24.492,5.563,5.768,6.712
1644,0.787,36.389,20.38,35.402,24.492,5.604,5.809,6.713
1645,0.79,36.524,20.407,35.392,24.488,5.523,5.728,6.632
1646,0.8,36.545,20.43,35.344,24.478,5.482,5.727,6.712
1647,0.82,36.133,20.47,35.373,24.495,5.522,5.687,6.713
1648,0.833,36.282,20.412,35.383,24.488,5.563,5.727,6.672
1649,0.82,36.389,20.411,35.373,24.488,5.482,5.646,6.55
1650,0.849,36.419,20.427,35.402,24.499,5.562,5.849,6.834
1651,0.905,36.285,20.442,35.402,24.506,5.645,5.769,6.755
1652,0.931,36.408,20.423,35.383,24.499,5.523,5.728,6.714
1653,0.98,36.496,20.403,35.373,24.499,5.563,5.727,6.794
1654,1.069,36.545,20.36,35.421,24.499,5.523,5.85,6.795
1655,1.131,36.277,20.387,35.383,24.488,5.563,5.648,6.673
1656,1.174,36.36,20.403,35.373,24.485,5.482,5.727,6.794
1657,1.223,36.486,20.419,35.383,24.492,5.44,5.727,6.795
1658,1.24,36.477,20.407,35.383,24.488,5.481,5.687,6.795
1659,1.286,36.305,20.391,35.383,24.485,5.44,5.687,6.917
1660,1.303,36.447,20.45,35.411,24.499,5.643,5.809,7.122
1661,1.329,36.563,20.407,35.421,24.499,5.483,5.728,7.043
1662,1.342,36.152,20.442,35.383,24.495,5.522,5.687,7.204
1663,1.401,36.225,20.439,35.421,24.495,5.563,5.727,7.328
1664,1.473,36.35,20.435,35.421,24.499,5.563,5.727,7.451
1665,1.522,36.457,20.423,35.412,24.492,5.563,5.646,7.452
1666,1.555,36.142,20.407,35.402,24.488,5.563,5.686,7.615
1667,1.559,36.282,20.469,35.392,24.488,5.523,5.727,7.657
1668,1.533,36.399,20.396,35.402,24.488,5.482,5.687,7.698
1669,1.533,36.467,20.38,35.383,24.492,5.481,5.727,7.821
1670,1.494,36.199,20.391,35.431,24.502,5.644,5.89,8.025
1671,1.444,36.369,20.395,35.431,24.499,5.564,5.811,7.946
1672,1.379,36.457,20.419,35.412,24.499,5.563,5.81,7.986
1673,1.313,36.525,20.434,35.421,24.492,5.563,5.728,8.149
1674,1.231,36.104,20.388,35.431,24.495,5.604,5.768,8.313
1675,1.12,36.234,20.411,35.412,24.485,5.482,5.606,8.356
1676,1.002,36.35,20.403,35.421,24.492,5.562,5.726,8.844
1677,0.909,36.399,20.446,35.412,24.495,5.523,5.687,9.296
1678,0.863,36.208,20.38,35.393,24.488,5.563,5.768,9.788
1679,0.788,36.331,20.395,35.402,24.492,5.523,5.687,10.566
1680,0.761,36.476,20.403,35.44,24.502,5.685,5.849,11.549
1681,0.735,36.506,20.391,35.431,24.489,5.605,5.688,12.372
1682,0.679,36.2,20.419,35.431,24.492,5.604,5.809,13.194
1683,0.649,36.34,20.411,35.431,24.495,5.604,5.85,14.015
1684,0.649,36.409,20.411,35.45,24.492,5.645,5.851,14.715
1685,0.675,36.371,20.399,35.422,24.492,5.483,5.648,15.128
1686,0.695,36.227,20.372,35.402,24.485,5.603,5.767,15.62
1687,0.727,36.35,20.477,35.412,24.495,5.604,5.809,15.991
1688,0.728,36.438,20.455,35.412,24.488,5.523,5.688,16.198
1689,0.744,36.093,20.407,35.421,24.492,5.563,5.687,16.322
1690,0.76,36.224,20.423,35.45,24.502,5.726,5.89,16.608
1691,0.787,36.36,20.411,35.45,24.492,5.646,5.729,16.448
1692,0.784,36.428,20.419,35.412,24.495,5.564,5.727,16.487
1693,0.79,36.084,20.427,35.441,24.492,5.645,5.809,16.365
1694,0.81,36.186,20.384,35.45,24.495,5.727,5.81,16.364
1695,0.813,36.35,20.411,35.45,24.492,5.687,5.728,16.323
1696,0.787,36.371,20.348,35.412,24.485,5.727,5.727,16.486
1697,0.79,36.16,20.426,35.431,24.492,5.727,5.768,16.609
1698,0.793,36.302,20.368,35.441,24.492,5.727,5.728,16.895
1699,0.777,36.389,20.364,35.431,24.492,5.727,5.687,17.142
1700,0.767,36.467,20.391,35.431,24.495,5.972,5.89,17.592
1701,0.78,36.18,20.446,35.489,24.502,5.852,5.811,17.718
1702,0.764,36.283,20.411,35.441,24.492,5.891,5.81,17.963
1703,0.757,36.389,20.446,35.479,24.492,5.973,5.81,18.169
1704,0.764,36.457,20.407,35.47,24.492,5.974,5.85,18.293
1705,0.761,36.209,20.399,35.46,24.488,6.015,5.729,18.172
1706,0.761,36.292,20.372,35.431,24.485,5.974,5.646,18.171
1707,0.777,36.408,20.414,35.45,24.492,6.015,5.727,18.049
1708,0.774,36.438,20.391,35.45,24.485,6.015,5.687,17.967
1709,0.764,36.141,20.348,35.441,24.495,5.934,5.687,17.722
1710,0.757,36.273,20.41,35.47,24.492,6.136,5.849,17.597
1711,0.78,36.427,20.442,35.508,24.509,6.219,5.769,17.352
1712,0.761,36.333,20.419,35.461,24.492,6.139,5.687,16.984
1713,0.774,36.275,20.458,35.46,24.495,6.179,5.768,16.696
1714,0.774,36.379,20.415,35.47,24.495,6.179,5.768,16.327
1715,0.784,36.505,20.419,35.47,24.492,6.22,5.728,15.998
1716,0.761,36.037,20.431,35.431,24.485,6.098,5.646,15.669
1717,0.754,36.156,20.435,35.469,24.499,6.178,5.686,15.381
1718,0.761,36.282,20.431,35.46,24.495,6.22,5.727,15.013
1719,0.764,36.38,20.38,35.47,24.488,6.22,5.687,14.643
1720,0.764,36.093,20.379,35.46,24.495,6.302,5.809,14.477
1721,0.777,36.253,20.403,35.498,24.506,6.343,5.85,14.19
1722,0.761,36.379,20.387,35.461,24.495,6.343,5.769,13.944
1723,0.748,36.438,20.395,35.498,24.495,6.303,5.809,13.575
1724,0.764,36.17,20.399,35.489,24.495,6.465,5.85,13.368
1725,0.761,36.321,20.415,35.508,24.499,6.345,5.81,13.0
1726,0.754,36.409,20.395,35.451,24.478,6.262,5.728,12.753
1727,0.761,36.477,20.426,35.47,24.499,6.424,5.809,12.588
1728,0.761,36.084,20.411,35.479,24.492,6.385,5.769,12.22
1729,0.767,36.195,20.399,35.46,24.492,6.385,5.728,11.932
1730,0.774,36.321,20.38,35.47,24.492,6.507,5.89,11.929
1731,0.771,36.39,20.418,35.518,24.502,6.711,5.892,11.726
1732,0.767,36.122,20.38,35.489,24.495,6.551,5.811,11.52
1733,0.767,36.253,20.418,35.48,24.492,6.63,5.85,11.355
1734,0.777,36.36,20.399,35.489,24.502,6.672,5.81,11.151
1735,0.78,36.39,20.376,35.489,24.489,6.591,5.85,10.945
1736,0.764,36.093,20.446,35.46,24.481,6.549,5.688,10.74
1737,0.744,36.215,20.47,35.46,24.488,6.671,5.768,10.575
1738,0.751,36.321,20.443,35.47,24.492,6.672,5.809,10.411
1739,0.748,36.198,20.419,35.489,24.488,6.55,5.728,10.247
1740,0.741,36.168,20.399,35.489,24.492,6.63,5.809,10.123
1741,0.751,36.321,20.403,35.518,24.502,6.753,5.972,10.163
1742,0.751,36.418,20.423,35.48,24.485,6.592,5.852,9.919
1743,0.751,36.017,20.419,35.489,24.499,6.631,5.81,9.916
1744,0.764,36.118,20.356,35.528,24.492,6.672,5.85,9.754
1745,0.751,36.234,20.367,35.49,24.499,6.672,5.851,9.59
1746,0.751,36.312,20.418,35.48,24.482,6.509,5.729,9.344
1747,0.748,36.015,20.458,35.489,24.492,6.508,5.85,9.301
1748,0.751,36.166,20.388,35.499,24.495,6.63,5.769,9.219
1749,0.751,36.283,20.418,35.48,24.495,6.509,5.809,9.096
1750,0.754,36.351,20.395,35.499,24.492,6.508,5.81,9.014
1751,0.767,36.15,20.403,35.528,24.502,6.67,6.054,9.135
1752,0.777,36.282,20.419,35.509,24.495,6.509,5.853,8.974
1753,0.771,36.389,20.442,35.489,24.495,6.467,5.851,8.809
1754,0.774,36.448,20.357,35.518,24.492,6.507,5.891,8.767
1755,0.78,36.074,20.371,35.528,24.499,6.549,5.851,8.604
1756,0.754,36.195,20.391,35.49,24.478,6.346,5.81,8.44
1757,0.744,36.292,20.458,35.508,24.492,6.384,5.81,8.519
1758,0.747,36.36,20.419,35.509,24.485,6.385,5.891,8.479
1759,0.744,36.15,20.411,35.499,24.485,6.303,5.811,8.357
1760,0.747,36.292,20.415,35.499,24.495,6.343,5.85,8.315
1761,0.741,36.428,20.423,35.537,24.499,6.506,5.973,8.437
1762,0.76,36.429,20.415,35.509,24.492,6.386,5.933,8.357
1763,0.754,36.074,20.419,35.509,24.492,6.263,5.974,8.275
1764,0.748,36.214,20.395,35.509,24.495,6.302,5.974,8.193
1765,0.76,36.331,20.419,35.528,24.499,6.302,5.974,8.151
1766,0.764,36.227,20.407,35.518,24.488,6.18,5.689,7.947
1767,0.751,36.235,20.469,35.528,24.488,6.22,5.89,8.067
1768,0.774,36.36,20.435,35.518,24.488,6.139,5.892,7.987
1769,0.767,36.447,20.396,35.518,24.492,6.138,5.892,7.864
1770,0.774,35.978,20.387,35.509,24.485,6.138,5.892,7.863
1771,0.78,36.098,20.395,35.537,24.502,6.219,6.136,8.026
1772,0.777,36.243,20.411,35.547,24.492,6.139,5.976,7.905
1773,0.767,36.322,20.43,35.528,24.492,6.138,5.974,7.823
1774,0.764,35.958,20.349,35.547,24.488,6.219,5.933,7.781
1775,0.767,36.117,20.379,35.547,24.492,6.139,6.055,7.74
1776,0.757,36.205,20.375,35.509,24.485,6.016,5.853,7.496
1777,0.741,36.292,20.446,35.537,24.492,6.056,5.891,7.616
1778,0.76,36.159,20.415,35.518,24.492,6.056,5.892,7.617
1779,0.754,36.292,20.391,35.518,24.488,6.015,5.811,7.535
1780,0.751,36.408,20.419,35.528,24.485,6.015,5.891,7.534
1781,0.761,36.496,20.419,35.557,24.506,6.137,6.054,7.697
1782,0.751,35.979,20.399,35.538,24.492,6.098,5.975,7.536
1783,0.738,36.118,20.419,35.538,24.492,6.016,5.933,7.616
1784,0.747,36.253,20.395,35.538,24.499,6.015,5.974,7.535
1785,0.757,36.303,20.411,35.566,24.495,6.056,5.933,7.453
1786,0.761,36.936,20.399,35.509,24.485,5.853,5.689,7.33
1787,0.761,37.057,20.438,35.528,24.488,5.891,5.89,7.37
1788,0.761,37.164,20.403,35.547,24.492,5.933,5.811,7.37
1789,0.757,37.223,20.384,35.547,24.485,5.933,5.81,7.289
1790,0.77,35.622,20.387,35.538,24.488,5.974,5.891,7.451
1791,0.774,35.797,20.415,35.605,24.502,6.096,6.014,7.452
1792,0.787,35.895,20.388,35.548,24.492,5.894,5.893,7.33
1793,0.787,36.059,20.45,35.547,24.488,5.933,5.892,7.329
1794,0.771,36.186,20.368,35.557,24.495,5.933,5.933,7.37
1795,0.78,36.321,20.395,35.567,24.492,5.974,5.974,7.37
1796,0.761,36.409,20.38,35.538,24.485,5.811,5.893,7.167
1797,0.751,36.064,20.387,35.547,24.492,5.891,5.933,7.287
1798,0.764,36.186,20.387,35.566,24.492,5.892,5.852,7.207
1799,0.754,36.302,20.403,35.547,24.485,5.892,5.891,7.165
1800,0.754,36.37,20.364,35.547,24.492,5.933,5.892,7.246
1801,0.761,36.016,20.391,35.595,24.506,6.136,6.054,7.369
1802,0.774,36.156,20.399,35.567,24.489,5.976,5.934,7.289
1803,0.761,36.263,20.43,35.567,24.492,5.933,5.974,7.207
1804,0.764,36.322,20.431,35.567,24.492,6.014,6.015,7.206
1805,0.754,35.977,20.423,35.576,24.499,5.974,5.893,7.206
1806,0.764,36.108,20.446,35.528,24.485,5.893,5.851,7.043
1807,0.77,36.234,20.431,35.557,24.488,6.054,5.891,7.164
1808,0.77,36.283,20.423,35.557,24.485,5.975,5.933,7.002
1809,0.774,35.986,20.38,35.547,24.488,5.974,5.892,7.001
1810,0.774,36.137,20.399,35.566,24.488,6.015,5.973,7.082
1811,0.787,36.253,20.399,35.586,24.506,6.178,6.015,7.205
1812,0.793,36.312,20.38,35.576,24.492,6.057,5.934,7.043
1813,0.78,35.958,20.422,35.548,24.495,6.137,5.974,7.082
1814,0.787,36.069,20.372,35.557,24.495,6.098,6.055,7.042
1815,0.79,36.224,20.418,35.567,24.502,6.056,5.853,7.001
1816,0.78,36.571,20.407,35.547,24.485,5.975,5.769,6.879
1817,0.761,36.037,20.446,35.566,24.492,6.015,5.85,7.0
1818,0.767,36.195,20.454,35.567,24.481,5.974,5.851,6.919
1819,0.764,36.302,20.388,35.567,24.492,5.974,5.851,6.919
1820,0.761,35.987,20.379,35.557,24.485,5.933,5.851,6.878
1821,0.767,36.051,20.403,35.586,24.502,6.177,6.013,7.04
1822,0.774,36.185,20.364,35.576,24.492,6.017,5.893,7.001
1823,0.767,36.254,20.391,35.586,24.488,5.974,5.851,6.96
1824,0.767,35.948,20.376,35.586,24.495,6.015,5.891,6.96
1825,0.767,36.088,20.364,35.586,24.499,6.015,5.892,6.96
1826,0.774,36.167,20.387,35.548,24.482,5.934,5.729,6.797
1827,0.771,36.244,20.477,35.566,24.485,6.014,5.85,6.836
1828,0.77,35.976,20.427,35.576,24.495,5.974,5.851,6.796
1829,0.77,36.089,20.462,35.538,24.481,5.974,5.769,6.836
1830,0.77,36.224,20.415,35.566,24.485,5.974,5.768,6.877
1831,0.783,36.331,20.442,35.605,24.499,6.137,5.972,7.0
1832,0.793,36.006,20.4,35.577,24.495,6.016,5.811,6.879
1833,0.8,36.127,20.419,35.586,24.488,6.015,5.81,6.796
1834,0.797,36.234,20.388,35.586,24.492,6.096,5.891,6.836
1835,0.794,36.322,20.383,35.605,24.499,6.097,5.811,6.796
1836,0.793,35.948,20.411,35.567,24.488,5.975,5.728,6.714
1837,0.78,36.06,20.442,35.586,24.488,6.055,5.809,6.794
1838,0.787,36.205,20.407,35.586,24.492,6.056,5.81,6.755
1839,0.79,36.225,20.411,35.576,24.485,5.975,5.728,6.673
1840,0.774,35.861,20.395,35.567,24.488,6.096,5.727,6.713
1841,0.78,36.04,20.43,35.614,24.502,6.178,6.012,6.876
1842,0.787,36.166,20.399,35.586,24.489,6.139,5.771,6.674
1843,0.777,36.455,20.403,35.586,24.492,6.057,5.85,6.713
1844,0.78,36.094,20.36,35.605,24.488,6.137,5.769,6.713
1845,0.784,36.243,20.36,35.605,24.495,6.098,5.85,6.794
1846,0.784,36.322,20.371,35.586,24.488,6.016,5.729,6.633
1847,0.777,35.91,20.442,35.576,24.492,6.096,5.89,6.712
1848,0.777,35.973,20.396,35.605,24.492,6.016,5.811,6.632
1849,0.79,36.098,20.387,35.577,24.492,5.974,5.728,6.672
1850,0.8,36.176,20.34,35.586,24.485,6.055,5.687,6.55
1851,0.794,35.899,20.391,35.634,24.502,6.219,5.971,6.752
1852,0.806,36.059,20.407,35.596,24.492,6.058,5.771,6.632
1853,0.813,36.157,20.43,35.596,24.495,6.015,5.891,6.631
1854,0.81,36.244,20.333,35.605,24.492,6.096,5.851,6.59
1855,0.816,35.861,20.398,35.615,24.499,6.056,5.81,6.59
1856,0.79,35.992,20.395,35.577,24.488,5.893,5.688,6.427
1857,0.777,36.079,20.419,35.586,24.492,6.014,5.768,6.548
1858,0.797,36.186,20.403,35.596,24.492,6.015,5.728,6.63
1859,0.794,35.995,20.411,35.596,24.492,5.934,5.809,6.468
1860,0.787,36.156,20.372,35.567,24.492,5.892,5.688,6.467
1861,0.793,36.292,20.375,35.634,24.506,6.136,5.971,6.751
1862,0.806,36.36,20.414,35.606,24.492,5.976,5.771,6.632
1863,0.794,35.987,20.403,35.625,24.492,5.933,5.809,6.59
1864,0.797,36.098,20.38,35.634,24.492,5.933,5.81,6.631
1865,0.807,36.215,20.403,35.634,24.499,5.974,5.85,6.631
1866,0.807,36.245,20.387,35.615,24.485,5.893,5.648,6.509
1867,0.8,35.909,20.446,35.596,24.492,5.892,5.727,6.63
1868,0.81,36.059,20.431,35.615,24.492,5.851,5.809,6.59
1869,0.826,36.157,20.396,35.605,24.492,5.769,5.688,6.549
1870,0.82,36.244,20.411,35.605,24.485,5.728,5.727,6.59
1871,0.82,35.928,20.376,35.663,24.506,5.931,5.931,6.712
1872,0.83,36.06,20.391,35.635,24.492,5.892,5.811,6.632
1873,0.823,36.128,20.391,35.625,24.488,5.811,5.81,6.631
1874,0.833,36.081,20.391,35.625,24.499,5.81,5.891,6.631
1875,0.833,36.186,20.407,35.625,24.495,5.85,5.851,6.672
1876,0.807,36.302,20.368,35.586,24.481,5.688,5.729,6.509
1877,0.823,36.38,20.442,35.624,24.495,5.727,5.809,6.549
1878,0.807,35.738,20.345,35.615,24.492,5.727,5.769,6.549
1879,0.8,35.866,20.379,35.625,24.488,5.727,5.768,6.508
1880,0.807,35.982,20.383,35.606,24.488,5.768,5.931,6.67
1881,0.813,36.137,20.399,35.663,24.499,5.768,5.974,6.713
1882,0.816,35.975,20.411,35.615,24.492,5.728,5.893,6.672
1883,0.82,36.108,20.43,35.625,24.499,5.727,5.851,6.713
1884,0.826,36.224,20.427,35.634,24.495,5.809,5.851,6.754
1885,0.826,36.331,20.446,35.644,24.499,5.688,5.851,6.673
1886,0.82,35.881,20.388,35.596,24.485,5.605,5.769,6.591
1887,0.833,36.03,20.411,35.624,24.492,5.686,5.809,6.631
1888,0.833,36.137,20.415,35.615,24.488,5.687,5.81,6.712
1889,0.836,36.177,20.372,35.605,24.485,5.605,5.769,6.551
1890,0.839,35.918,20.411,35.615,24.492,5.645,5.891,6.712
1891,0.849,36.088,20.38,35.663,24.502,5.808,5.933,6.794
1892,0.853,36.186,20.379,35.644,24.492,5.688,5.811,6.714
1893,0.853,36.225,20.391,35.625,24.495,5.727,5.769,6.713
1894,0.862,35.928,20.387,35.634,24.495,5.768,5.891,6.713
1895,0.862,36.098,20.407,35.644,24.506,5.647,5.811,6.632
1896,0.849,36.148,20.395,35.615,24.485,5.523,5.728,6.631
1897,0.853,36.234,20.442,35.634,24.492,5.644,5.809,6.631
1898,0.853,36.015,20.411,35.634,24.488,5.645,5.769,6.631
1899,0.849,36.137,20.376,35.625,24.488,5.564,5.768,6.631
1900,0.859,36.253,20.395,35.634,24.492,5.645,5.931,6.672
1901,0.856,36.015,20.372,35.654,24.502,5.727,5.933,6.631
1902,0.846,36.08,20.395,35.654,24.495,5.646,5.811,6.59
1903,0.853,36.195,20.403,35.644,24.495,5.645,5.81,6.631
1904,0.856,36.292,20.419,35.654,24.499,5.686,5.891,6.712
1905,0.859,35.958,20.434,35.654,24.492,5.564,5.811,6.591
1906,0.862,36.05,20.396,35.615,24.478,5.523,5.728,6.59
1907,0.879,36.176,20.458,35.644,24.488,5.644,5.809,6.631
1908,0.876,36.244,20.396,35.644,24.488,5.564,5.81,6.55
1909,0.879,35.871,20.411,35.625,24.485,5.563,5.728,6.508
1910,0.885,36.021,20.407,35.653,24.488,5.604,5.89,6.589
1911,0.902,36.185,20.391,35.682,24.506,5.645,5.892,6.59
1912,0.886,36.216,20.403,35.654,24.495,5.523,5.811,6.631
1913,0.898,36.043,20.387,35.625,24.499,5.603,5.81,6.509
1914,0.899,36.166,20.379,35.644,24.492,5.645,5.85,6.589
1915,0.905,36.302,20.379,35.634,24.488,5.564,5.81,6.509
1916,0.889,36.303,20.368,35.615,24.488,5.441,5.728,6.427
1917,0.892,36.13,20.45,35.653,24.495,5.603,5.768,6.466
1918,0.886,36.253,20.4,35.644,24.488,5.482,5.809,6.467
1919,0.885,36.37,20.407,35.634,24.488,5.481,5.81,6.467
1920,0.882,36.4,20.407,35.634,24.495,5.644,5.85,6.589
1921,0.898,36.16,20.415,35.673,24.506,5.645,5.851,6.509
1922,0.892,36.263,20.411,35.644,24.492,5.523,5.851,6.508
1923,0.886,36.379,20.372,35.654,24.492,5.563,5.769,6.508
1924,0.892,36.361,20.395,35.654,24.499,5.563,5.891,6.467
1925,0.899,36.236,20.376,35.682,24.488,5.563,5.77,6.467
1926,0.895,36.322,20.364,35.644,24.481,5.523,5.687,6.386
1927,0.905,36.437,20.43,35.654,24.492,5.563,5.727,6.425
1928,0.902,36.189,20.411,35.644,24.485,5.523,5.727,6.344
1929,0.902,36.254,20.446,35.644,24.485,5.563,5.646,6.303
1930,0.918,36.36,20.419,35.654,24.495,5.604,5.889,6.506
1931,0.925,36.505,20.431,35.692,24.502,5.645,5.851,6.467
1932,0.922,36.209,20.415,35.673,24.492,5.605,5.81,6.426
1933,0.925,36.36,20.403,35.664,24.495,5.523,5.769,6.426
1934,0.931,36.467,20.36,35.663,24.492,5.644,5.85,6.426
1935,0.941,36.554,20.407,35.644,24.495,5.523,5.769,6.344
1936,0.925,36.248,20.345,35.625,24.481,5.4,5.728,6.303
1937,0.925,36.398,20.422,35.644,24.485,5.521,5.809,6.302
1938,0.931,36.496,20.36,35.654,24.488,5.522,5.647,6.302
1939,0.928,36.573,20.395,35.635,24.485,5.482,5.767,6.302
1940,0.922,36.277,20.387,35.644,24.492,5.562,5.809,6.384
1941,0.935,36.456,20.399,35.682,24.509,5.685,5.81,6.263
1942,0.925,36.554,20.391,35.664,24.492,5.524,5.728,6.302
1943,0.922,36.593,20.395,35.663,24.492,5.522,5.809,6.384
1944,0.922,36.479,20.368,35.683,24.502,5.603,5.81,6.344
1945,0.931,36.631,20.399,35.673,24.495,5.564,5.769,6.303
1946,0.925,36.69,20.356,35.625,24.481,5.441,5.728,6.302
1947,0.944,36.719,20.43,35.644,24.492,5.562,5.768,6.343
1948,0.941,36.47,20.396,35.654,24.488,5.482,5.728,6.262
1949,0.941,36.564,20.391,35.625,24.485,5.481,5.687,6.221
1950,0.941,36.68,20.419,35.644,24.492,5.562,5.809,6.342
1951,0.958,36.69,20.419,35.692,24.499,5.604,5.769,6.343
1952,0.954,36.575,20.411,35.664,24.499,5.564,5.768,6.343
1953,0.951,36.708,20.415,35.654,24.492,5.523,5.687,6.303
1954,0.964,36.825,20.352,35.682,24.495,5.563,5.809,6.302
1955,0.958,36.577,20.395,35.664,24.492,5.441,5.688,6.18
1956,0.941,36.641,20.407,35.635,24.481,5.521,5.687,6.22
1957,0.951,36.786,20.426,35.663,24.488,5.563,5.809,6.22
1958,0.945,36.854,20.388,35.654,24.492,5.441,5.688,6.18
1959,0.945,36.587,20.399,35.644,24.488,5.481,5.646,6.098
1960,0.938,36.728,20.383,35.663,24.488,5.562,5.808,6.341
1961,0.948,36.873,20.368,35.702,24.495,5.604,5.728,6.181
1962,0.932,36.932,20.368,35.664,24.492,5.523,5.646,6.22
1963,0.931,36.664,20.379,35.683,24.495,5.522,5.686,6.302
1964,0.938,36.776,20.379,35.683,24.499,5.563,5.727,6.262
1965,0.932,36.893,20.387,35.664,24.492,5.401,5.646,6.139
1966,0.915,36.913,20.356,35.644,24.485,5.48,5.686,6.26
1967,0.931,36.568,20.426,35.673,24.492,5.522,5.768,6.18
1968,0.931,36.68,20.38,35.683,24.488,5.441,5.687,6.139
1969,0.922,36.786,20.395,35.664,24.492,5.399,5.646,6.138
1970,0.925,36.845,20.403,35.683,24.499,5.521,5.767,6.341
1971,0.925,36.769,20.387,35.702,24.495,5.644,5.728,6.221
1972,0.909,36.873,20.407,35.664,24.495,5.523,5.727,6.302
1973,0.915,36.99,20.391,35.663,24.499,5.603,5.687,6.262
1974,0.912,36.981,20.407,35.683,24.499,5.564,5.768,6.302
1975,0.908,36.78,20.407,35.673,24.492,5.401,5.606,6.099
1976,0.895,36.864,20.391,35.644,24.485,5.358,5.686,6.219
1977,0.902,36.989,20.442,35.663,24.499,5.439,5.687,6.139
1978,0.882,36.876,20.4,35.673,24.492,5.399,5.605,6.219
1979,0.876,36.817,20.383,35.654,24.492,5.399,5.604,6.139
1980,0.879,36.96,20.391,35.682,24.499,5.562,5.767,6.382
1981,0.895,37.086,20.395,35.683,24.495,5.441,5.728,6.181
1982,0.869,36.762,20.391,35.683,24.492,5.521,5.687,6.179
1983,0.872,36.864,20.387,35.683,24.492,5.482,5.646,6.261
1984,0.866,36.98,20.426,35.673,24.499,5.481,5.767,6.262
1985,0.862,37.077,20.423,35.683,24.492,5.44,5.565,6.099
1986,0.843,36.79,20.345,35.644,24.485,5.399,5.645,6.178
1987,0.859,36.941,20.422,35.663,24.499,5.358,5.645,6.179
1988,0.866,37.048,20.415,35.673,24.488,5.358,5.645,6.139
1989,0.853,37.116,20.372,35.673,24.485,5.399,5.564,6.098
1990,0.853,36.743,20.379,35.683,24.492,5.44,5.685,6.178
1991,0.866,36.931,20.387,35.702,24.502,5.521,5.727,6.179
1992,0.856,37.0,20.391,35.683,24.492,5.441,5.646,6.22
1993,0.856,37.068,20.387,35.683,24.495,5.521,5.727,6.139
1994,0.856,36.905,20.399,35.683,24.499,5.441,5.687,6.219
1995,0.853,37.038,20.419,35.673,24.492,5.44,5.605,6.058
1996,0.827,37.106,20.36,35.625,24.488,5.318,5.604,6.056
1997,0.83,37.184,20.442,35.663,24.492,5.439,5.726,6.097
1998,0.817,36.83,20.333,35.663,24.488,5.44,5.565,6.056
1999,0.81,36.951,20.359,35.663,24.481,5.44,5.563,6.097
2000,0.81,37.077,20.414,35.673,24.499,5.44,5.726,6.219
2001,0.833,37.135,20.399,35.692,24.502,5.562,5.687,6.139
2002,0.813,37.002,20.407,35.673,24.495,5.482,5.646,6.057
2003,0.8,37.115,20.391,35.692,24.492,5.481,5.727,6.137
2004,0.813,37.203,20.407,35.683,24.495,5.44,5.727,6.138
2005,0.803,36.964,20.399,35.683,24.495,5.481,5.646,6.057
2006,0.794,36.866,20.352,35.664,24.488,5.4,5.605,6.056
2007,0.819,37.009,20.438,35.663,24.488,5.358,5.686,6.097
2008,0.81,37.077,20.38,35.663,24.488,5.358,5.605,5.975
2009,0.8,36.848,20.403,35.673,24.485,5.358,5.645,6.055
2010,0.797,36.989,20.407,35.683,24.492,5.48,5.767,6.219
2011,0.816,37.154,20.38,35.692,24.499,5.44,5.687,6.139
2012,0.807,37.222,20.375,35.692,24.492,5.399,5.646,6.179
2013,0.816,36.657,20.375,35.683,24.495,5.358,5.686,6.139
2014,0.807,36.786,20.348,35.702,24.499,5.399,5.687,6.098
2015,0.807,36.902,20.391,35.683,24.495,5.399,5.605,5.975
2016,0.781,36.942,20.309,35.654,24.481,5.318,5.686,5.974
2017,0.78,36.894,20.414,35.673,24.488,5.439,5.646,6.015
2018,0.787,37.057,20.294,35.711,24.488,5.399,5.564,5.974
2019,0.787,37.135,20.382,35.664,24.488,5.318,5.726,5.974
2020,0.78,37.194,20.411,35.683,24.499,5.48,5.809,6.177
2021,0.787,36.926,20.43,35.712,24.502,5.44,5.688,6.057
2022,0.777,37.057,20.411,35.683,24.492,5.399,5.646,6.056
2023,0.764,37.174,20.372,35.683,24.492,5.358,5.686,6.137
2024,0.774,37.194,20.426,35.692,24.495,5.439,5.727,6.179
2025,0.777,36.83,20.403,35.673,24.488,5.399,5.605,6.017
2026,0.767,36.912,20.356,35.644,24.481,5.318,5.645,5.974
2027,0.777,37.028,20.418,35.673,24.495,5.317,5.645,6.096
2028,0.774,37.058,20.364,35.673,24.495,5.317,5.645,6.097
2029,0.78,36.886,20.364,35.673,24.485,5.317,5.605,6.016
2030,0.79,37.028,20.375,35.673,24.495,5.398,5.686,6.137
2031,0.803,37.164,20.395,35.721,24.506,5.48,5.768,6.098
2032,0.794,36.801,20.411,35.702,24.489,5.4,5.728,6.097
2033,0.8,36.749,20.391,35.683,24.492,5.399,5.768,6.097
2034,0.8,36.873,20.38,35.692,24.492,5.48,5.768,6.138
2035,0.797,36.999,20.383,35.683,24.495,5.481,5.687,6.057
2036,0.784,36.837,20.379,35.654,24.485,5.237,5.646,5.975
2037,0.764,36.96,20.415,35.692,24.492,5.438,5.727,6.096
2038,0.78,37.077,20.352,35.673,24.492,5.318,5.687,6.056
2039,0.774,37.135,20.36,35.654,24.492,5.358,5.646,6.015
2040,0.764,36.695,20.375,35.663,24.485,5.358,5.686,6.056
2041,0.767,36.873,20.387,35.711,24.502,5.521,5.931,6.178
2042,0.77,36.98,20.391,35.683,24.499,5.4,5.73,6.057
2043,0.757,37.029,20.368,35.683,24.492,5.399,5.85,6.137
2044,0.761,36.761,20.383,35.702,24.495,5.399,5.81,6.098
2045,0.754,36.912,20.415,35.702,24.495,5.48,5.85,6.097
2046,0.767,37.009,20.427,35.645,24.478,5.318,5.648,5.975
2047,0.77,37.068,20.47,35.663,24.488,5.358,5.727,5.974
2048,0.767,36.848,20.38,35.683,24.488,5.358,5.727,5.974
2049,0.77,36.97,20.403,35.673,24.488,5.358,5.727,6.015
2050,0.77,37.086,20.368,35.654,24.492,5.399,5.768,6.096
2051,0.78,37.155,20.403,35.702,24.502,5.521,5.891,6.138
2052,0.774,36.772,20.426,35.693,24.499,5.36,5.811,6.098
2053,0.78,36.893,20.395,35.664,24.495,5.399,5.81,6.056
2054,0.777,36.98,20.352,35.673,24.495,5.44,5.81,6.097
2055,0.777,37.202,20.36,35.692,24.495,5.44,5.769,6.056
2056,0.771,36.791,20.387,35.664,24.475,5.318,5.647,5.975
2057,0.761,36.931,20.426,35.692,24.488,5.358,5.767,6.055
2058,0.774,37.038,20.407,35.683,24.488,5.317,5.728,6.056
2059,0.764,36.771,20.395,35.664,24.485,5.317,5.646,6.015
2060,0.764,36.768,20.348,35.654,24.492,5.358,5.767,6.096
2061,0.767,36.941,20.379,35.702,24.509,5.48,5.891,6.097
2062,0.757,37.0,20.395,35.664,24.492,5.318,5.729,6.097
2063,0.761,36.732,20.36,35.673,24.495,5.358,5.768,6.056
2064,0.757,36.844,20.387,35.683,24.499,5.399,5.809,6.137
2065,0.761,36.999,20.356,35.702,24.495,5.399,5.769,6.057
2066,0.764,37.048,20.387,35.664,24.485,5.236,5.647,5.975
2067,0.787,37.298,20.442,35.654,24.492,5.316,5.727,6.055
2068,0.78,37.435,20.38,35.673,24.488,5.317,5.768,6.015
2069,0.784,37.523,20.422,35.654,24.488,5.236,5.687,6.015
2070,0.774,37.581,20.38,35.654,24.488,5.275,5.727,6.137
2071,0.784,36.316,20.418,35.702,24.502,5.479,5.85,6.179
2072,0.787,36.437,20.399,35.664,24.489,5.359,5.81,6.057
2073,0.793,36.554,20.426,35.654,24.495,5.358,5.769,6.137
2074,0.793,36.632,20.403,35.673,24.492,5.317,5.891,6.138
2075,0.8,36.815,20.364,35.664,24.499,5.398,5.77,6.057
2076,0.768,36.922,20.414,35.644,24.478,5.155,5.687,6.015
2077,0.777,37.048,20.442,35.644,24.492,5.315,5.809,6.137
2078,0.777,37.097,20.407,35.663,24.492,5.276,5.769,6.138
2079,0.777,36.733,20.38,35.644,24.488,5.276,5.728,6.016
2080,0.774,36.863,20.36,35.644,24.495,5.195,5.809,6.178
2081,0.793,37.018,20.379,35.692,24.506,5.397,5.891,6.139
2082,0.78,37.346,20.387,35.645,24.499,5.318,5.811,6.179
2083,0.767,36.764,20.344,35.663,24.495,5.276,5.81,6.139
2084,0.783,36.864,20.402,35.673,24.492,5.276,5.891,6.179
2085,0.784,36.98,20.364,35.664,24.499,5.398,5.811,6.098
2086,0.787,36.713,20.356,35.625,24.478,5.196,5.769,6.056
2087,0.81,36.787,20.418,35.653,24.492,5.316,5.809,6.137
2088,0.8,36.893,20.38,35.644,24.492,5.236,5.81,6.098
2089,0.797,36.98,20.411,35.634,24.485,5.235,5.81,5.975
2090,0.797,36.665,20.364,35.625,24.495,5.316,5.891,6.218
2091,0.816,36.844,20.41,35.653,24.506,5.358,5.973,6.139
2092,0.803,36.922,20.384,35.644,24.495,5.317,5.933,6.138
2093,0.807,37.019,20.395,35.625,24.495,5.276,5.811,6.138
2094,0.803,36.723,20.356,35.634,24.495,5.357,5.932,6.057
2095,0.8,36.892,20.379,35.644,24.495,5.317,5.77,6.015
2096,0.781,36.951,20.372,35.606,24.485,5.195,5.85,6.015
2097,0.79,37.038,20.453,35.615,24.488,5.316,5.891,6.096
2098,0.78,36.617,20.388,35.605,24.488,5.236,5.811,6.016
2099,0.78,36.747,20.399,35.605,24.488,5.235,5.769,6.015
2100,0.777,36.864,20.356,35.605,24.488,5.316,5.891,6.096
2101,0.793,36.961,20.43,35.644,24.506,5.439,5.973,6.097
2102,0.774,36.799,20.384,35.634,24.492,5.318,5.852,6.097
2103,0.78,36.941,20.368,35.634,24.488,5.236,5.81,6.056
2104,0.777,37.057,20.371,35.634,24.492,5.357,5.85,6.097
2105,0.78,37.097,20.375,35.625,24.495,5.358,5.851,6.016
2106,0.774,36.762,20.34,35.586,24.481,5.195,5.729,5.974
2107,0.797,36.893,20.371,35.605,24.492,5.234,5.85,6.055
2108,0.79,36.999,20.379,35.605,24.488,5.194,5.851,6.097
2109,0.784,37.231,20.364,35.605,24.488,5.112,5.729,6.097
2110,0.797,36.696,20.348,35.596,24.495,5.274,5.85,6.138
2111,0.81,36.873,20.399,35.634,24.506,5.438,5.891,6.138
2112,0.807,36.942,20.383,35.577,24.492,5.277,5.851,6.057
2113,0.807,36.683,20.403,35.605,24.495,5.316,5.81,6.137
2114,0.813,36.748,20.415,35.615,24.495,5.358,5.85,6.098
2115,0.807,36.883,20.403,35.586,24.492,5.317,5.81,6.056
2116,0.79,36.932,20.364,35.567,24.481,5.276,5.81,6.097
2117,0.79,36.731,20.41,35.586,24.492,5.235,5.769,6.056
2118,0.79,36.873,20.333,35.586,24.485,5.194,5.809,6.015
2119,0.784,36.98,20.367,35.586,24.481,5.194,5.81,5.974
2120,0.79,37.058,20.356,35.576,24.495,5.316,5.972,6.137
2121,0.797,36.656,20.426,35.615,24.499,5.358,5.811,6.057
2122,0.787,36.786,20.388,35.577,24.492,5.277,5.85,6.015
2123,0.79,36.893,20.418,35.586,24.492,5.276,5.891,6.096
2124,0.79,36.961,20.391,35.605,24.495,5.398,5.892,6.097
2125,0.79,36.712,20.383,35.577,24.495,5.318,5.851,6.056
2126,0.787,36.815,20.399,35.519,24.485,5.236,5.769,6.056
2127,0.793,36.931,20.403,35.585,24.492,5.275,5.891,6.097
2128,0.806,37.009,20.376,35.567,24.492,5.235,5.729,6.016
2129,0.797,36.675,20.364,35.557,24.485,5.194,5.768,5.974
2130,0.797,36.815,20.356,35.567,24.495,5.316,5.891,6.137
2131,0.813,36.97,20.406,35.605,24.502,5.398,5.851,6.098
2132,0.797,36.962,20.387,35.567,24.495,5.318,5.81,6.056
2133,0.803,36.712,20.395,35.547,24.502,5.317,5.85,6.097
2134,0.807,36.844,20.317,35.566,24.495,5.317,5.851,6.056
2135,0.81,36.98,20.348,35.586,24.499,5.276,5.81,5.975
2136,0.787,37.019,20.422,35.528,24.478,5.154,5.728,6.015
2137,0.787,36.675,20.431,35.547,24.488,5.315,5.809,6.015
2138,0.79,36.805,20.411,35.538,24.492,5.195,5.769,5.974
2139,0.784,36.883,20.372,35.538,24.488,5.194,5.687,6.015
2140,0.777,36.664,20.375,35.538,24.492,5.194,5.809,6.056
2141,0.803,36.796,20.411,35.605,24.502,5.397,5.932,6.056
2142,0.794,36.912,20.364,35.538,24.492,5.277,5.852,6.056
2143,0.787,37.0,20.422,35.547,24.492,5.316,5.851,6.056
2144,0.784,36.578,20.368,35.547,24.499,5.317,5.81,6.056
2145,0.78,36.728,20.371,35.566,24.492,5.317,5.81,6.015
2146,0.79,36.825,20.399,35.509,24.485,5.195,5.647,5.974
2147,0.8,36.903,20.442,35.556,24.495,5.234,5.767,5.974
2148,0.79,36.539,20.415,35.547,24.492,5.235,5.728,5.974
2149,0.79,36.66,20.391,35.528,24.488,5.235,5.727,5.893
2150,0.79,36.776,20.38,35.537,24.485,5.235,5.768,6.014
2151,0.803,36.902,20.403,35.595,24.506,5.438,5.85,6.056
2152,0.797,36.664,20.38,35.548,24.495,5.237,5.81,6.097
2153,0.794,36.786,20.422,35.528,24.492,5.275,5.81,6.056
2154,0.793,36.893,20.306,35.566,24.495,5.276,5.891,6.056
