time,ecg,bvp,gsr,rsp,skt,emg_zygo,emg_coru,emg_trap
0,0.764,36.46,12.885,36.234,22.283,4.988,11.681,15.872
1,0.754,36.592,12.822,36.225,22.283,4.866,11.52,15.627
2,0.735,36.689,12.825,36.225,22.276,4.906,11.559,15.584
3,0.764,36.451,12.825,36.244,22.29,4.987,11.681,15.421
4,0.761,36.515,12.845,36.235,22.29,4.948,11.723,15.257
5,0.761,36.67,12.908,36.263,22.301,5.029,11.723,15.093
6,0.741,36.729,12.885,36.225,22.28,4.826,11.52,14.766
7,0.747,36.374,12.888,36.225,22.287,4.905,11.477,14.681
8,0.754,36.515,12.873,36.244,22.28,4.865,11.396,14.436
9,0.751,36.641,12.849,36.263,22.29,4.987,11.476,14.353
10,0.728,36.748,12.833,36.244,22.294,4.948,11.355,14.149
11,0.725,36.346,12.884,36.235,22.283,4.907,11.232,13.984
12,0.731,36.495,12.904,36.263,22.287,4.947,11.231,13.698
13,0.738,36.583,12.854,36.216,22.276,4.825,11.068,13.451
14,0.757,36.709,12.814,36.263,22.297,4.987,11.229,13.448
15,0.757,36.288,12.771,36.264,22.287,4.948,11.19,13.245
16,0.751,36.437,12.762,36.283,22.29,4.988,11.23,13.162
17,0.748,36.544,12.809,36.273,22.283,4.948,11.027,12.836
18,0.738,36.603,12.849,36.273,22.287,4.825,11.147,12.71
19,0.751,36.373,12.892,36.264,22.294,4.905,11.23,12.668
20,0.751,36.515,12.842,36.273,22.29,4.906,11.231,12.546
21,0.764,36.679,12.841,36.312,22.297,5.028,11.353,12.748
22,0.748,36.652,12.794,36.274,22.28,4.785,11.232,12.791
23,0.757,36.374,12.837,36.283,22.283,4.864,11.271,12.954
24,0.748,36.515,12.9,36.264,22.28,4.865,11.15,13.159
25,0.747,36.641,12.92,36.283,22.294,4.906,11.271,13.323
26,0.744,36.661,12.932,36.283,22.287,4.865,11.231,13.447
27,0.738,36.355,12.905,36.283,22.283,4.906,11.109,13.57
28,0.738,36.514,12.795,36.293,22.283,4.906,10.985,13.612
29,0.725,36.593,12.817,36.254,22.28,4.784,10.903,13.613
30,0.741,36.402,12.864,36.302,22.29,4.986,10.943,13.816
31,0.738,36.304,12.9,36.274,22.29,4.866,10.902,13.777
32,0.738,36.456,12.854,36.312,22.301,4.987,10.983,13.777
33,0.734,36.535,12.783,36.293,22.283,4.826,10.74,13.574
34,0.728,36.325,12.817,36.312,22.29,4.946,10.697,13.531
35,0.744,36.466,12.818,36.321,22.29,4.947,10.656,13.408
36,0.751,36.592,12.849,36.312,22.287,4.907,10.574,13.407
37,0.774,36.689,12.857,36.341,22.297,4.906,10.655,13.123
38,0.748,36.23,12.892,36.283,22.287,4.825,10.331,12.917
39,0.751,36.369,12.873,36.312,22.283,4.824,10.408,12.874
40,0.735,36.515,12.857,36.341,22.28,4.783,10.247,12.629
41,0.738,36.583,12.826,36.322,22.29,4.905,10.367,12.708
42,0.741,36.239,12.853,36.312,22.287,4.865,10.124,12.75
43,0.731,36.341,12.9,36.312,22.29,4.824,10.122,13.035
44,0.76,36.486,12.893,36.312,22.283,4.824,10.081,13.526
45,0.764,36.525,12.908,36.302,22.287,4.824,10.04,14.018
46,0.774,36.257,12.912,36.321,22.29,4.987,9.999,14.715
47,0.78,36.379,12.822,36.341,22.287,4.866,9.958,15.535
48,0.78,36.544,12.853,36.37,22.301,4.987,9.998,17.128
49,0.764,36.564,12.837,36.313,22.283,4.744,9.795,18.771
50,0.764,36.219,12.884,36.321,22.287,4.823,9.793,20.739
51,0.761,36.369,12.857,36.35,22.29,4.865,9.875,22.507
52,0.751,36.496,12.748,36.36,22.29,4.865,9.835,24.232
53,0.751,36.535,12.809,36.36,22.294,4.865,9.834,25.672
54,0.738,36.42,12.821,36.332,22.287,4.784,9.875,26.825
55,0.747,36.573,12.837,36.35,22.294,4.824,9.835,27.69
56,0.751,36.661,12.861,36.332,22.283,4.702,9.794,28.227
57,0.761,36.815,12.9,36.37,22.297,4.904,9.915,28.965
58,0.751,36.279,12.896,36.341,22.287,4.825,9.835,29.541
59,0.751,36.408,12.838,36.379,22.29,4.946,9.956,30.075
60,0.751,36.505,12.833,36.341,22.283,4.744,9.754,30.203
61,0.744,36.324,12.845,36.36,22.287,4.823,9.874,30.367
62,0.751,36.322,12.908,36.37,22.287,4.865,9.916,30.206
63,0.757,36.457,12.912,36.36,22.294,4.906,9.957,29.96
64,0.777,36.573,12.873,36.379,22.29,4.825,9.917,29.632
65,0.771,36.143,12.834,36.351,22.287,4.905,9.835,29.101
66,0.78,36.253,12.814,36.36,22.287,4.825,9.875,28.607
67,0.771,36.389,12.814,36.418,22.28,4.743,9.794,27.993
68,0.793,36.505,12.818,36.38,22.297,4.823,9.996,27.539
69,0.793,36.19,12.872,36.361,22.287,4.905,9.958,26.925
70,0.793,36.321,12.865,36.389,22.297,4.947,9.998,26.35
71,0.793,36.447,12.834,36.38,22.29,4.785,9.795,25.571
72,0.784,36.515,12.833,36.37,22.283,4.824,9.834,24.913
73,0.8,36.075,12.833,36.389,22.29,4.865,9.753,24.378
74,0.79,36.234,12.872,36.38,22.29,4.824,9.793,23.681
75,0.787,36.389,12.904,36.418,22.301,5.027,9.793,23.227
76,0.767,36.4,12.904,36.361,22.28,4.745,9.59,22.45
77,0.774,36.208,12.908,36.399,22.287,4.823,9.629,21.914
78,0.777,36.35,12.815,36.389,22.287,4.743,9.629,21.136
79,0.777,36.495,12.814,36.409,22.287,4.823,9.71,20.681
80,0.787,36.526,12.853,36.399,22.294,4.824,9.711,20.148
81,0.78,36.209,12.892,36.38,22.283,4.783,9.67,19.492
82,0.78,36.379,12.889,36.399,22.287,4.864,9.67,18.957
83,0.787,36.476,12.807,36.38,22.28,4.743,9.548,18.382
84,0.784,36.525,12.81,36.428,22.297,4.945,9.791,17.929
85,0.797,36.142,12.716,36.409,22.297,4.866,9.712,17.437
86,0.8,36.282,12.797,36.418,22.294,4.865,9.792,16.944
87,0.803,36.38,12.821,36.399,22.287,4.743,9.671,16.37
88,0.797,36.63,12.845,36.399,22.276,4.742,9.711,15.998
89,0.79,36.143,12.892,36.437,22.294,4.864,9.874,15.588
90,0.758,36.292,12.791,36.438,22.287,4.784,9.957,15.137
91,0.774,36.408,12.849,36.476,22.301,4.986,10.08,14.848
92,0.758,36.112,12.857,36.419,22.28,4.785,9.959,14.316
93,0.748,36.148,12.892,36.428,22.294,4.783,10.12,14.108
94,0.754,36.311,12.935,36.428,22.283,4.783,10.284,13.861
95,0.761,36.399,12.924,36.438,22.29,4.824,10.489,13.696
96,0.757,36.151,12.904,36.428,22.29,4.824,10.573,13.37
97,0.748,36.244,12.854,36.428,22.287,4.661,10.614,13.122
98,0.741,36.398,12.834,36.418,22.287,4.782,10.737,12.795
99,0.721,36.457,12.822,36.409,22.28,4.702,10.697,12.629
100,0.747,36.103,12.892,36.457,22.283,4.863,10.981,12.627
101,0.741,36.243,12.877,36.476,22.287,4.784,10.903,12.342
102,0.76,36.36,12.814,36.476,22.294,4.946,11.105,12.258
103,0.774,36.476,12.814,36.467,22.283,4.785,10.945,11.973
104,0.771,36.065,12.818,36.476,22.287,4.783,10.984,11.929
105,0.78,36.233,12.841,36.486,22.29,4.824,11.106,11.807
106,0.777,36.331,12.861,36.467,22.294,4.824,11.026,11.684
107,0.78,36.438,12.896,36.496,22.294,4.905,11.066,11.723
108,0.761,35.94,12.904,36.457,22.283,4.744,10.904,11.601
109,0.751,36.098,12.846,36.476,22.283,4.823,10.983,11.682
110,0.757,36.234,12.861,36.467,22.283,4.702,10.862,11.601
111,0.754,36.264,12.853,36.476,22.29,4.863,10.983,11.885
112,0.748,36.063,12.888,36.486,22.29,4.824,10.903,11.806
113,0.738,36.176,12.896,36.477,22.287,4.743,10.821,11.765
114,0.741,36.302,12.865,36.476,22.283,4.783,10.739,11.764
115,0.734,36.332,12.841,36.457,22.276,4.702,10.697,11.724
116,0.741,36.092,12.857,36.515,22.294,4.823,10.778,11.683
117,0.728,36.234,12.763,36.496,22.287,4.824,10.698,11.683
118,0.728,36.36,12.825,36.505,22.29,4.865,10.697,11.683
119,0.721,36.38,12.864,36.486,22.283,4.743,10.494,11.438
120,0.711,36.102,12.88,36.496,22.29,4.864,10.532,11.436
121,0.711,36.263,12.846,36.505,22.297,4.906,10.492,11.395
122,0.721,36.37,12.826,36.525,22.283,4.825,10.41,11.273
123,0.737,36.102,12.802,36.544,22.308,4.905,10.491,11.272
124,0.721,36.1,12.825,36.506,22.283,4.744,10.207,10.906
125,0.724,36.243,12.861,36.506,22.287,4.783,10.245,10.861
126,0.734,36.36,12.884,36.525,22.29,4.824,10.164,10.739
127,0.731,36.073,12.92,36.544,22.287,4.865,10.244,10.738
128,0.738,36.205,12.889,36.544,22.287,4.824,10.123,10.657
129,0.738,36.321,12.873,36.535,22.283,4.783,10.122,10.656
130,0.725,36.418,12.834,36.544,22.283,4.783,10.122,10.859
131,0.715,35.892,12.857,36.515,22.276,4.702,10.041,11.227
132,0.734,36.05,12.884,36.563,22.29,4.823,10.121,11.881
133,0.728,36.166,12.861,36.554,22.287,4.865,10.081,12.376
134,0.728,36.244,12.826,36.535,22.297,4.865,10.081,13.153
135,0.728,36.005,12.771,36.544,22.283,4.784,10.081,14.055
136,0.712,36.137,12.731,36.544,22.283,4.742,10.121,15.731
137,0.724,36.301,12.809,36.583,22.294,4.905,10.203,17.415
138,0.711,36.37,12.829,36.564,22.29,4.825,10.245,18.895
139,0.721,36.035,12.923,36.583,22.294,4.987,10.367,20.415
140,0.708,36.147,12.862,36.554,22.287,4.785,10.206,21.365
141,0.724,36.282,12.849,36.602,22.283,4.824,10.326,22.188
142,0.731,36.341,12.837,36.574,22.287,4.783,10.327,22.887
143,0.728,35.555,12.853,36.592,22.29,4.783,10.368,23.26
144,0.738,35.711,12.861,36.593,22.287,4.824,10.328,23.426
145,0.731,35.789,12.873,36.564,22.276,4.743,10.205,23.428
146,0.725,35.847,12.916,36.583,22.287,4.864,10.245,23.347
147,0.724,36.183,12.897,36.573,22.276,4.784,10.082,23.142
148,0.728,36.369,12.842,36.621,22.301,4.824,10.284,23.059
149,0.728,36.457,12.818,36.612,22.283,4.824,10.286,22.692
150,0.721,36.285,12.837,36.583,22.283,4.783,10.245,22.282
151,0.718,35.986,12.872,36.593,22.283,4.824,10.164,21.831
152,0.708,36.089,12.884,36.593,22.28,4.865,10.163,21.501
153,0.721,36.243,12.846,36.621,22.294,4.946,10.285,21.294
154,0.718,36.034,12.798,36.622,22.29,4.866,10.164,21.089
155,0.728,36.156,12.755,36.67,22.297,4.987,10.244,21.494
156,0.718,36.234,12.797,36.593,22.29,4.826,10.042,21.701
157,0.711,36.35,12.829,36.612,22.283,4.865,10.04,22.272
158,0.708,35.958,12.853,36.622,22.283,4.824,9.918,22.725
159,0.705,36.089,12.88,36.622,22.29,4.946,9.957,23.462
160,0.728,36.224,12.795,36.631,22.29,4.866,9.917,23.997
161,0.725,36.302,12.829,36.641,22.28,4.824,9.754,24.857
162,0.737,36.015,12.833,36.641,22.287,4.824,9.793,25.76
163,0.721,36.137,12.872,36.612,22.28,4.743,9.793,26.501
164,0.747,36.301,12.947,36.65,22.294,4.986,9.793,27.24
165,0.757,36.341,12.913,36.622,22.287,4.866,9.753,27.491
166,0.77,35.92,12.916,36.66,22.301,4.946,9.833,27.697
167,0.757,36.011,12.854,36.622,22.283,4.866,9.631,27.496
168,0.754,36.166,12.822,36.641,22.29,4.865,9.71,27.29
169,0.751,36.225,12.821,36.66,22.287,4.987,9.752,26.76
170,0.751,36.043,12.88,36.641,22.287,4.866,9.833,26.388
171,0.761,36.185,12.888,36.66,22.294,4.946,9.875,25.693
172,0.728,36.283,12.807,36.632,22.287,4.825,9.753,24.955
173,0.741,36.351,12.716,36.67,22.29,4.865,9.833,24.297
174,0.731,35.93,12.832,36.641,22.287,4.743,9.712,23.558
175,0.718,36.079,12.822,36.67,22.287,4.945,9.792,23.063
176,0.721,36.186,12.829,36.66,22.287,4.866,9.753,22.326
177,0.708,36.196,12.849,36.67,22.29,4.865,9.874,21.709
178,0.721,35.976,12.904,36.67,22.283,4.865,9.794,21.012
179,0.711,36.089,12.834,36.651,22.283,4.824,9.834,20.354
180,0.741,36.243,12.849,36.689,22.297,4.905,9.916,19.819
181,0.741,36.091,12.833,36.68,22.29,4.865,9.835,19.326
182,0.754,35.984,12.9,36.718,22.301,4.987,9.997,18.955
183,0.751,36.098,12.908,36.671,22.28,4.826,9.795,18.382
184,0.751,36.205,12.908,36.689,22.29,4.865,9.834,17.97
185,0.754,35.89,12.877,36.689,22.297,4.906,9.834,17.681
186,0.748,35.992,12.857,36.68,22.294,4.906,9.834,17.394
187,0.77,36.156,12.81,36.708,22.294,4.947,9.834,17.106
188,0.748,36.206,12.798,36.661,22.287,4.785,9.672,16.656
189,0.734,35.861,12.849,36.699,22.287,4.864,9.711,16.367
190,0.725,35.973,12.9,36.69,22.28,4.824,9.589,15.958
191,0.721,36.137,12.818,36.709,22.29,4.946,9.71,15.791
192,0.721,36.225,12.825,36.728,22.29,4.907,9.63,15.464
193,0.711,35.804,12.814,36.69,22.287,4.825,9.548,15.135
194,0.711,35.943,12.837,36.689,22.29,4.865,9.466,14.888
195,0.711,36.06,12.861,36.68,22.276,4.824,9.424,14.682
196,0.747,36.186,12.873,36.708,22.29,4.987,9.505,14.599
197,0.76,36.148,12.896,36.709,22.294,4.907,9.506,14.558
198,0.777,36.282,12.912,36.718,22.29,4.947,9.465,14.598
199,0.767,36.399,12.858,36.718,22.283,4.866,9.424,14.558
200,0.787,36.457,12.834,36.718,22.283,4.906,9.505,14.557
201,0.816,36.151,12.865,36.738,22.29,4.947,9.465,14.638
202,0.826,36.254,12.923,36.728,22.287,4.866,9.505,14.639
203,0.865,36.418,12.912,36.766,22.297,5.068,9.628,14.599
204,0.869,36.429,12.869,36.719,22.283,4.908,9.588,14.476
205,0.905,35.834,12.826,36.738,22.287,4.865,9.71,14.516
206,0.912,35.972,12.81,36.728,22.287,4.906,9.833,14.313
207,0.925,36.108,12.829,36.805,22.29,5.028,10.038,14.311
208,0.948,36.119,12.825,36.738,22.29,4.989,10.121,14.229
209,0.958,35.956,12.872,36.719,22.283,4.866,10.244,14.066
210,1.02,36.117,12.873,36.747,22.29,4.946,10.326,13.861
211,1.053,36.205,12.767,36.738,22.273,4.866,10.408,13.778
212,1.112,36.11,12.813,36.738,22.287,5.068,10.613,13.696
213,1.154,36.1,12.841,36.757,22.287,5.03,10.655,13.37
214,1.178,36.234,12.845,36.767,22.287,5.07,10.656,13.366
215,1.197,36.322,12.872,36.738,22.29,4.908,10.574,12.919
216,1.224,35.824,12.888,36.747,22.29,4.947,10.614,12.874
217,1.227,35.915,12.912,36.757,22.294,5.029,10.655,12.955
218,1.195,36.05,12.865,36.767,22.287,4.989,10.574,13.484
219,1.198,36.185,12.873,36.815,22.297,5.11,10.655,14.262
220,1.152,35.851,12.842,36.748,22.287,4.867,10.412,15.083
221,1.132,36.001,12.892,36.767,22.287,4.946,10.491,16.067
222,1.132,36.137,12.912,36.786,22.29,4.988,10.369,16.809
223,1.184,36.225,12.861,36.786,22.294,4.988,10.409,17.995
224,1.204,35.957,12.818,36.796,22.29,5.029,10.328,19.348
225,1.191,36.05,12.743,36.777,22.287,4.867,10.327,20.745
226,1.24,36.205,12.735,36.786,22.287,4.946,10.286,22.019
227,1.283,36.254,12.805,36.767,22.28,4.866,10.083,23.007
228,1.322,35.938,12.821,36.805,22.29,5.028,10.243,23.912
229,1.329,36.079,12.888,36.786,22.29,4.948,10.204,24.327
230,1.326,36.186,12.849,36.786,22.29,4.947,10.163,24.575
231,1.319,36.254,12.849,36.777,22.287,4.907,10.082,24.537
232,1.296,35.871,12.822,36.767,22.28,4.825,9.959,24.415
233,1.273,36.04,12.861,36.786,22.29,4.987,10.039,24.332
234,1.218,36.137,12.916,36.796,22.287,4.907,9.999,24.006
235,1.169,36.196,12.908,36.815,22.297,5.028,10.08,23.8
236,1.109,35.938,12.885,36.806,22.283,4.867,9.918,23.391
237,1.024,36.098,12.904,36.796,22.29,4.987,9.957,23.143
238,0.945,36.253,12.854,36.863,22.294,4.988,10.12,22.815
239,0.854,36.523,12.81,36.806,22.29,4.988,10.081,22.446
240,0.781,35.922,12.888,36.863,22.304,5.029,10.243,22.076
241,0.689,36.011,12.9,36.787,22.287,4.867,10.042,21.463
242,0.662,36.147,12.857,36.825,22.294,5.028,10.243,20.969
243,0.646,35.947,12.791,36.825,22.29,4.948,10.245,20.476
244,0.62,35.945,12.813,36.902,22.297,4.907,10.326,20.105
245,0.603,36.088,12.81,36.835,22.29,4.906,10.49,19.491
246,0.577,36.167,12.817,36.806,22.28,4.906,10.573,19.079
247,0.577,35.784,12.821,36.825,22.287,4.947,10.614,18.546
248,0.586,35.866,12.872,36.806,22.276,4.825,10.655,17.972
249,0.6,36.04,12.845,36.844,22.29,4.905,10.859,17.844
250,0.609,36.109,12.857,36.844,22.29,4.906,10.861,17.477
251,0.639,35.822,12.834,36.844,22.297,4.906,10.942,17.107
252,0.681,35.943,12.861,36.844,22.287,4.784,10.902,16.615
253,0.705,36.079,12.877,36.825,22.29,4.905,10.983,16.326
254,0.737,36.167,12.927,36.854,22.294,4.987,11.106,16.038
255,0.773,35.793,12.916,36.873,22.287,4.907,11.148,15.751
256,0.81,35.962,12.908,36.883,22.297,5.109,11.271,15.504
257,0.79,36.05,12.822,36.845,22.283,4.827,11.109,15.095
258,0.806,36.157,12.829,36.863,22.28,4.905,11.108,14.847
259,0.81,35.899,12.829,36.864,22.283,4.825,11.108,14.641
260,0.813,36.059,12.892,36.873,22.294,4.946,11.23,14.761
261,0.82,36.176,12.861,36.873,22.29,4.947,11.19,14.763
262,0.813,36.225,12.802,36.883,22.287,4.907,11.271,14.966
263,0.803,35.861,12.81,36.873,22.287,4.906,11.109,15.13
264,0.787,35.973,12.833,36.845,22.28,4.825,11.189,15.335
265,0.793,36.137,12.857,36.892,22.294,4.905,11.312,15.825
266,0.8,36.148,12.892,36.883,22.283,4.906,11.191,16.237
267,0.826,35.908,12.92,36.921,22.297,4.987,11.434,16.973
268,0.817,36.002,12.916,36.874,22.283,4.866,11.273,17.387
269,0.82,36.137,12.752,36.921,22.283,4.824,11.312,17.96
270,0.81,36.349,12.821,36.903,22.29,4.865,11.353,18.332
271,0.807,35.977,12.861,36.902,22.283,4.906,11.395,18.661
272,0.803,36.118,12.904,36.922,22.294,4.947,11.314,18.827
273,0.784,36.177,12.877,36.883,22.283,4.825,11.313,18.909
274,0.78,35.861,12.853,36.902,22.287,4.905,11.272,18.951
275,0.78,35.857,12.826,36.922,22.276,4.825,11.109,18.829
276,0.803,36.011,12.829,36.931,22.287,4.905,11.23,19.113
277,0.797,36.108,12.825,36.912,22.287,4.947,11.19,18.953
278,0.79,35.822,12.829,36.912,22.29,4.866,11.149,18.992
279,0.787,35.934,12.9,36.922,22.28,4.865,11.067,18.83
280,0.774,36.031,12.857,36.903,22.28,4.824,10.985,18.828
281,0.784,36.185,12.849,37.008,22.29,4.905,11.066,18.909
282,0.777,35.813,12.814,36.932,22.287,4.906,10.944,18.91
283,0.793,35.962,12.845,36.96,22.297,4.987,11.065,19.073
284,0.784,36.06,12.869,36.941,22.287,4.826,10.822,19.075
285,0.784,36.138,12.908,36.941,22.29,4.905,10.779,19.359
286,0.774,35.956,12.893,36.951,22.29,4.906,10.738,19.647
287,0.767,36.098,12.908,36.951,22.294,4.865,10.697,19.853
288,0.774,36.234,12.83,36.999,22.304,4.987,10.737,20.058
289,0.761,36.264,12.845,36.932,22.28,4.785,10.413,19.938
290,0.757,35.842,12.826,36.96,22.294,4.864,10.45,19.937
291,0.767,35.972,12.884,36.96,22.287,4.906,10.328,19.856
292,0.764,36.098,12.861,36.96,22.287,4.906,10.246,19.774
293,0.774,36.148,12.81,36.97,22.29,4.906,10.204,19.61
294,0.771,35.812,12.759,36.961,22.287,4.906,10.041,19.243
295,0.78,35.962,12.747,36.989,22.287,4.906,10.04,19.036
296,0.8,36.079,12.817,36.951,22.28,4.744,9.877,18.546
297,0.82,36.128,12.864,36.989,22.29,4.945,9.957,18.338
298,0.81,35.86,12.892,36.97,22.287,4.866,9.835,17.969
299,0.797,35.992,12.889,36.98,22.287,4.987,9.834,17.6
300,0.794,36.118,12.838,36.999,22.287,4.826,9.712,17.149
301,0.784,36.119,12.814,36.98,22.287,4.865,9.711,16.819
302,0.813,35.946,12.86,36.999,22.287,4.987,9.63,16.531
303,0.813,36.079,12.888,37.009,22.287,4.907,9.548,16.0
304,0.836,36.205,12.896,37.057,22.308,5.028,9.588,15.832
305,0.8,35.842,12.904,36.99,22.283,4.907,9.344,15.22
306,0.803,35.934,12.881,36.989,22.287,4.865,9.382,14.889
307,0.797,36.06,12.842,37.028,22.29,4.906,9.261,14.601
308,0.794,36.176,12.818,37.028,22.29,4.906,9.259,14.354
309,0.803,35.746,12.837,36.999,22.29,4.906,9.178,14.027
310,0.797,35.818,12.892,36.999,22.287,4.825,9.055,13.82
311,0.794,35.953,12.857,36.999,22.29,4.824,9.054,13.533
312,0.79,36.041,12.763,37.009,22.283,4.783,8.932,13.205
313,0.784,35.859,12.837,37.038,22.294,4.986,9.053,13.202
314,0.767,35.982,12.822,37.028,22.287,4.907,9.054,13.161
315,0.774,36.118,12.81,37.028,22.294,5.028,9.217,13.283
316,0.79,36.186,12.849,37.028,22.283,4.907,9.178,13.284
317,0.784,35.842,12.872,37.028,22.287,4.865,9.299,13.406
318,0.793,35.992,12.912,37.047,22.294,4.987,9.382,13.651
319,0.79,36.108,12.799,37.048,22.29,4.907,9.423,14.345
320,0.803,36.215,12.845,37.076,22.301,5.028,9.586,15.856
321,0.787,35.804,12.849,37.038,22.283,4.826,9.507,17.457
322,0.8,35.953,12.896,37.047,22.287,4.987,9.546,19.343
323,0.803,36.089,12.912,37.048,22.287,4.907,9.588,20.785
324,0.807,36.119,12.897,37.076,22.29,4.906,9.791,22.06
325,0.807,35.841,12.838,37.077,22.287,4.906,9.875,23.13
326,0.797,35.953,12.779,37.048,22.28,4.865,9.876,23.75
327,0.803,36.089,12.79,37.057,22.287,4.906,10.038,24.407
328,0.803,36.1,12.79,37.048,22.28,4.744,10.04,24.617
329,0.803,35.85,12.868,37.067,22.29,4.986,10.284,24.863
330,0.807,35.982,12.845,37.057,22.29,4.907,10.449,24.784
331,0.8,36.098,12.833,37.096,22.287,4.947,10.613,24.702
332,0.794,35.985,12.806,37.067,22.283,4.866,10.655,24.294
333,0.774,35.811,12.841,37.057,22.287,4.906,10.696,23.884
334,0.793,35.972,12.904,37.096,22.287,4.947,10.819,23.514
335,0.803,36.079,12.896,37.077,22.283,4.907,10.82,23.063
336,0.807,35.841,12.9,37.096,22.297,5.069,10.901,22.652
337,0.79,35.867,12.896,37.058,22.28,4.826,10.658,21.916
338,0.8,36.021,12.803,37.076,22.29,4.865,10.737,21.583
339,0.807,36.128,12.825,37.086,22.287,4.906,10.697,21.173
340,0.816,35.697,12.845,37.086,22.294,4.987,10.697,20.844
341,0.842,35.837,12.896,37.115,22.29,4.907,10.697,20.597
342,0.82,35.915,12.869,37.077,22.283,4.865,10.616,20.106
343,0.833,36.031,12.814,37.096,22.287,4.906,10.574,19.898
344,0.826,35.811,12.708,37.048,22.28,4.744,10.492,19.408
345,0.82,35.982,12.719,37.134,22.29,4.905,10.695,19.281
346,0.803,36.108,12.817,37.096,22.283,4.825,10.737,18.914
347,0.816,36.167,12.821,37.096,22.283,4.865,10.779,18.626
348,0.836,36.004,12.872,37.096,22.283,4.906,10.779,18.176
349,0.817,36.127,12.865,37.077,22.283,4.825,10.901,17.846
350,0.813,36.292,12.865,37.182,22.297,4.987,11.024,17.639
351,0.823,36.341,12.822,37.106,22.294,4.907,11.066,17.149
352,0.823,35.834,12.849,37.134,22.301,5.028,11.229,16.982
353,0.813,35.943,12.876,37.106,22.29,4.907,11.149,16.492
354,0.803,36.079,12.884,37.106,22.287,4.906,11.23,16.243
355,0.81,36.128,12.916,37.115,22.29,4.865,11.475,15.875
356,0.813,35.716,12.861,37.106,22.287,4.946,11.558,15.668
357,0.826,35.885,12.853,37.144,22.29,4.907,11.681,15.3
358,0.807,35.973,12.849,37.096,22.283,4.825,11.764,14.971
359,0.829,36.012,12.853,37.125,22.287,4.905,11.887,14.683
360,0.836,35.782,12.896,37.106,22.28,4.744,11.725,14.314
361,0.843,35.933,12.857,37.144,22.297,4.945,11.968,14.148
362,0.853,36.04,12.763,37.144,22.287,4.947,11.889,13.943
363,0.843,35.878,12.809,37.125,22.283,4.947,11.888,13.697
364,0.859,35.829,12.81,37.144,22.283,4.866,11.888,13.451
365,0.849,35.953,12.825,37.106,22.283,4.906,11.928,13.204
366,0.84,36.089,12.872,37.154,22.29,5.028,11.97,13.121
367,0.83,35.678,12.896,37.144,22.29,4.989,12.011,12.957
368,0.833,35.76,12.896,37.183,22.297,5.07,12.133,12.915
369,0.826,35.895,12.779,37.164,22.28,4.867,11.85,12.467
370,0.817,35.973,12.825,37.135,22.287,4.946,11.887,12.422
371,0.82,35.648,12.861,37.144,22.29,4.988,11.847,12.3
372,0.826,35.788,12.892,37.164,22.283,4.907,11.806,12.217
373,0.817,35.934,12.885,37.164,22.297,4.987,11.765,12.298
374,0.803,35.964,12.818,37.145,22.283,4.866,11.602,12.339
375,0.826,35.705,12.779,37.144,22.283,4.906,11.56,12.502
376,0.826,35.837,12.747,37.154,22.28,4.784,11.397,12.626
377,0.836,35.963,12.809,37.183,22.287,4.986,11.476,13.196
378,0.833,36.041,12.814,37.173,22.29,4.988,11.314,13.69
379,0.82,35.706,12.892,37.154,22.29,4.948,11.313,14.427
380,0.826,35.856,12.834,37.154,22.283,4.866,11.15,15.328
381,0.813,35.963,12.818,37.202,22.276,4.906,11.026,16.313
382,0.833,36.05,12.825,37.193,22.297,4.987,11.147,17.177
383,0.826,35.783,12.822,37.174,22.287,4.988,10.986,17.836
384,0.823,35.924,12.861,37.212,22.297,5.029,11.106,18.452
385,0.813,36.021,12.88,37.145,22.28,4.907,10.782,18.703
386,0.82,36.08,12.92,37.192,22.287,4.947,10.86,18.99
387,0.836,35.725,12.947,37.174,22.294,4.988,10.82,19.115
388,0.833,35.856,12.803,37.202,22.283,4.948,10.739,19.156
389,0.846,36.02,12.849,37.222,22.297,4.988,10.697,19.035
390,0.814,35.974,12.841,37.183,22.283,4.948,10.575,18.83
391,0.8,35.744,12.892,37.193,22.29,4.907,10.655,18.625
392,0.816,35.875,12.853,37.183,22.276,4.825,10.493,18.216
393,0.839,35.982,12.81,37.212,22.29,4.946,10.735,18.131
394,0.839,35.715,12.763,37.231,22.29,4.947,10.616,17.845
395,0.843,35.674,12.794,37.241,22.29,4.988,10.655,17.639
396,0.856,35.808,12.782,37.193,22.283,4.866,10.615,17.19
397,0.846,35.895,12.821,37.183,22.283,4.865,10.574,16.982
398,0.846,35.695,12.872,37.231,22.287,4.946,10.614,16.858
399,0.84,35.789,12.853,37.212,22.287,4.947,10.574,16.816
400,0.849,35.962,12.74,37.279,22.301,5.029,10.574,16.857
401,0.836,36.012,12.809,37.203,22.287,4.907,10.37,16.654
402,0.839,35.658,12.853,37.222,22.287,4.865,10.328,16.53
403,0.843,35.779,12.904,37.231,22.287,4.946,10.246,16.569
404,0.856,35.905,12.92,37.212,22.29,4.947,10.286,16.407
405,0.84,36.011,12.916,37.241,22.294,4.907,10.205,16.243
406,0.807,35.591,12.9,37.222,22.283,4.825,10.082,16.16
407,0.81,35.749,12.818,37.222,22.287,4.905,10.081,16.159
408,0.81,35.866,12.806,37.203,22.276,4.825,9.959,16.159
409,0.81,35.982,12.837,37.25,22.29,4.987,9.998,16.403
410,0.816,35.609,12.872,37.232,22.287,4.948,9.877,16.527
411,0.82,35.74,12.865,37.241,22.301,5.029,9.916,17.138
412,0.82,35.885,12.802,37.232,22.287,4.867,9.794,18.161
413,0.83,35.925,12.833,37.222,22.29,4.987,9.834,20.082
414,0.826,35.676,12.822,37.251,22.294,4.988,9.916,21.972
415,0.833,35.808,12.825,37.251,22.287,4.866,9.916,23.657
416,0.852,35.962,12.833,37.28,22.301,5.109,10.161,25.057
417,0.843,35.954,12.853,37.242,22.287,4.867,9.919,25.762
418,0.853,35.609,12.912,37.251,22.287,4.865,10.039,26.46
419,0.859,35.759,12.834,37.26,22.283,4.946,9.999,26.792
420,0.866,35.885,12.841,37.241,22.287,4.947,10.039,26.918
421,0.879,36.203,12.845,37.289,22.29,4.947,10.08,26.715
422,0.866,35.65,12.872,37.251,22.283,4.825,10.04,26.469
423,0.866,35.769,12.888,37.251,22.287,4.865,10.121,26.02
424,0.843,35.866,12.885,37.232,22.276,4.784,10.081,25.487
425,0.859,35.675,12.857,37.279,22.29,4.864,10.162,25.075
426,0.856,35.683,12.849,37.261,22.29,4.906,10.204,24.42
427,0.836,35.827,12.759,37.27,22.287,4.865,10.245,23.804
428,0.852,35.915,12.801,37.241,22.283,4.824,10.204,22.984
429,0.853,35.551,12.864,37.26,22.29,4.905,10.285,22.407
430,0.853,35.701,12.877,37.28,22.29,4.906,10.367,21.751
431,0.853,35.827,12.838,37.27,22.294,4.906,10.409,21.134
432,0.859,35.943,12.849,37.299,22.297,5.028,10.613,20.681
433,0.836,35.647,12.81,37.251,22.28,4.785,10.493,20.066
434,0.843,35.807,12.853,37.27,22.29,4.864,10.817,19.654
435,0.853,35.934,12.88,37.261,22.294,4.906,11.064,19.365
436,0.849,36.012,12.908,37.261,22.29,4.865,11.351,18.996
437,0.862,35.6,12.912,37.289,22.294,4.906,11.598,18.586
438,0.853,35.701,12.854,37.261,22.283,4.865,11.722,18.216
439,0.859,35.856,12.834,37.27,22.29,4.865,11.886,17.846
440,0.872,35.925,12.826,37.251,22.276,4.743,11.928,17.395
441,0.898,35.781,12.9,37.27,22.29,4.864,12.254,17.269
442,0.899,35.905,12.893,37.261,22.29,4.824,12.379,17.024
443,0.902,36.04,12.846,37.27,22.287,4.824,12.503,16.818
444,0.905,36.08,12.783,37.27,22.287,4.824,12.585,16.653
445,0.912,35.668,12.743,37.241,22.28,4.783,12.667,16.652
446,0.915,35.856,12.735,37.289,22.29,4.905,12.871,16.814
447,0.899,35.953,12.821,37.28,22.28,4.865,12.914,16.897
448,0.892,36.002,12.857,37.309,22.301,5.028,13.077,17.101
449,0.879,35.763,12.896,37.271,22.287,4.826,12.916,16.9
450,0.859,35.914,12.822,37.289,22.283,4.865,13.118,16.939
451,0.866,36.059,12.833,37.309,22.29,4.906,13.12,16.939
452,0.853,36.128,12.829,37.28,22.294,4.865,13.201,16.98
453,0.859,35.851,12.88,37.309,22.301,4.987,13.283,16.818
454,0.843,35.934,12.869,37.28,22.283,4.866,13.162,16.531
455,0.833,36.06,12.9,37.28,22.287,4.906,13.202,16.366
456,0.826,35.831,12.9,37.27,22.276,4.744,13.039,15.998
457,0.843,35.905,12.885,37.289,22.29,4.905,13.2,15.954
458,0.866,36.031,12.838,37.347,22.283,4.825,13.039,15.709
459,0.849,36.128,12.833,37.261,22.287,4.824,12.916,15.504
460,0.859,35.927,12.888,37.28,22.29,4.824,12.874,15.217
461,0.856,36.002,12.877,37.27,22.276,4.824,12.67,15.011
462,0.869,36.185,12.842,37.289,22.294,4.865,12.709,14.846
463,0.866,36.283,12.779,37.309,22.287,4.865,12.587,14.519
464,0.882,35.862,12.829,37.328,22.297,4.987,12.667,14.435
465,0.872,35.973,12.798,37.28,22.283,4.785,12.424,13.987
466,0.869,36.118,12.821,37.289,22.287,4.824,12.422,13.86
467,0.872,36.215,12.81,37.299,22.297,4.824,12.381,13.656
468,0.872,35.947,12.864,37.309,22.29,4.865,12.299,13.613
469,0.885,36.127,12.841,37.347,22.294,4.946,12.217,13.613
470,0.885,36.205,12.822,37.3,22.287,4.785,12.094,13.694
471,0.898,36.292,12.837,37.29,22.283,4.864,11.971,13.979
472,0.902,35.996,12.872,37.29,22.276,4.784,11.767,14.267
473,0.899,36.166,12.896,37.318,22.29,4.864,11.846,14.758
474,0.905,36.273,12.896,37.319,22.29,4.865,11.765,15.21
475,0.882,36.322,12.853,37.309,22.287,4.824,11.561,15.824
476,0.908,36.111,12.849,37.28,22.29,4.783,11.519,16.644
477,0.899,36.234,12.818,37.27,22.28,4.783,11.315,17.546
478,0.908,36.408,12.837,37.328,22.294,4.864,11.394,18.612
479,0.899,36.419,12.861,37.319,22.287,4.865,11.314,19.395
480,0.889,36.304,12.908,37.319,22.297,4.946,11.313,20.094
481,0.872,36.418,12.834,37.299,22.283,4.744,11.028,20.305
482,0.872,36.553,12.705,37.347,22.29,4.823,11.066,20.632
483,0.892,36.555,12.824,37.338,22.297,4.905,11.066,20.798
484,0.873,36.43,12.837,37.328,22.283,4.906,11.026,20.84
485,0.892,36.573,12.868,37.338,22.301,4.947,10.985,20.759
486,0.879,36.632,12.861,37.3,22.283,4.825,10.822,20.474
487,0.879,36.373,12.873,37.328,22.29,4.824,10.861,20.308
488,0.889,36.428,12.865,37.328,22.29,4.824,10.739,19.9
489,0.882,36.582,12.841,37.338,22.294,4.905,10.738,19.733
490,0.889,36.689,12.845,37.348,22.29,4.865,10.819,19.529
491,0.879,36.393,12.861,37.319,22.283,4.865,10.739,19.527
492,0.885,36.534,12.892,37.319,22.294,4.824,10.738,19.77
493,0.879,36.631,12.877,37.309,22.28,4.661,10.738,20.179
494,0.882,36.767,12.838,37.357,22.29,4.944,10.86,20.631
495,0.879,36.528,12.798,37.357,22.283,4.866,10.942,21.082
496,0.889,36.66,12.767,37.357,22.29,4.946,11.024,21.819
497,0.885,36.776,12.84,37.329,22.283,4.825,10.944,22.558
498,0.885,36.864,12.841,37.338,22.283,4.865,10.984,23.704
499,0.892,36.568,12.884,37.348,22.29,4.865,11.106,24.691
500,0.895,36.708,12.846,37.348,22.29,4.865,11.067,25.473
501,0.905,36.873,12.845,37.386,22.297,4.987,11.148,26.091
502,0.895,36.884,12.814,37.329,22.287,4.826,11.026,26.26
503,0.895,36.846,12.857,37.347,22.29,4.824,11.066,26.424
504,0.895,36.98,12.884,37.338,22.283,4.783,11.026,26.345
505,0.895,37.115,12.912,37.367,22.29,4.946,11.066,26.181
506,0.889,37.136,12.908,37.357,22.29,4.947,11.026,25.732
507,0.879,36.666,12.889,37.357,22.294,4.866,10.903,25.281
508,0.856,36.805,12.795,37.357,22.29,4.865,10.861,24.747
509,0.856,36.903,12.794,37.329,22.273,4.906,10.78,24.173
510,0.862,36.942,12.852,37.367,22.29,4.987,10.738,23.557
511,0.859,36.818,12.873,37.367,22.29,4.907,10.697,22.901
512,0.859,36.989,12.849,37.367,22.301,4.987,10.737,22.325
513,0.853,37.087,12.775,37.367,22.28,4.826,10.494,21.547
514,0.853,37.011,12.79,37.434,22.29,4.946,10.532,21.092
515,0.869,36.962,12.786,37.396,22.29,4.947,10.492,20.558
516,0.866,37.086,12.798,37.386,22.287,4.907,10.451,20.106
517,0.882,37.241,12.841,37.406,22.297,5.028,10.532,19.695
518,0.866,36.888,12.892,37.348,22.28,4.907,10.329,19.244
519,0.869,36.999,12.842,37.367,22.29,4.865,10.286,19.036
520,0.879,37.135,12.837,37.367,22.29,4.824,10.123,18.871
521,0.863,37.232,12.81,37.396,22.29,4.987,10.284,18.829
522,0.882,36.936,12.849,37.386,22.287,4.907,10.164,18.706
523,0.885,37.038,12.888,37.358,22.287,4.865,10.041,18.583
524,0.892,37.193,12.889,37.386,22.287,4.906,9.999,18.257
525,0.882,37.233,12.873,37.348,22.28,4.784,9.917,18.091
526,0.889,36.936,12.884,37.396,22.287,4.864,9.957,18.13
527,0.872,37.076,12.803,37.396,22.287,4.906,9.917,17.805
528,0.869,37.212,12.813,37.396,22.297,4.987,9.998,17.679
529,0.856,37.261,12.837,37.377,22.28,4.866,9.714,17.394
530,0.859,36.917,12.872,37.377,22.287,4.865,9.792,17.147
531,0.859,37.105,12.822,37.396,22.297,4.906,9.712,16.9
532,0.846,37.222,12.841,37.386,22.29,4.906,9.63,16.695
533,0.849,37.3,12.833,37.425,22.294,5.028,9.629,16.408
534,0.827,36.994,12.818,37.377,22.283,4.826,9.548,16.039
535,0.839,37.163,12.876,37.396,22.283,4.865,9.588,15.873
536,0.843,37.28,12.873,37.396,22.283,4.824,9.547,15.546
537,0.849,37.32,12.912,37.396,22.294,4.905,9.71,15.502
538,0.836,37.071,12.869,37.415,22.287,4.825,9.711,15.258
539,0.823,37.202,12.834,37.406,22.283,4.865,9.752,14.971
540,0.826,37.3,12.818,37.396,22.29,4.784,9.793,14.765
541,0.807,37.31,12.841,37.377,22.28,4.824,9.793,14.478
542,0.82,37.099,12.9,37.425,22.294,4.905,9.915,14.394
543,0.83,37.232,12.881,37.425,22.29,4.865,9.916,14.19
544,0.833,37.329,12.826,37.415,22.297,4.906,9.998,14.106
545,0.82,37.176,12.794,37.415,22.287,4.865,9.877,13.78
546,0.82,37.127,12.767,37.415,22.283,4.824,9.916,13.655
547,0.83,37.309,12.821,37.435,22.294,4.865,9.957,13.532
548,0.82,37.397,12.81,37.416,22.283,4.824,9.957,13.368
549,0.807,36.947,12.899,37.463,22.304,5.027,10.08,13.407
550,0.8,37.009,12.834,37.406,22.273,4.785,9.837,13.041
551,0.803,37.164,12.849,37.434,22.29,4.864,9.794,12.997
552,0.813,37.271,12.837,37.425,22.287,4.906,9.875,12.956
553,0.803,37.118,12.853,37.425,22.294,4.865,9.876,12.956
554,0.794,37.28,12.884,37.444,22.287,4.906,9.876,12.833
555,0.78,37.368,12.892,37.425,22.28,4.825,9.835,12.751
556,0.784,37.455,12.881,37.444,22.283,4.783,9.956,12.709
557,0.793,36.928,12.877,37.416,22.28,4.742,9.917,12.628
558,0.797,37.096,12.787,37.454,22.29,4.905,10.201,12.708
559,0.781,37.232,12.817,37.435,22.29,4.906,10.245,12.546
560,0.784,37.29,12.853,37.444,22.29,4.906,10.408,12.707
561,0.78,37.023,12.892,37.444,22.287,4.865,10.45,12.668
562,0.774,37.154,12.861,37.464,22.29,4.906,10.654,12.587
563,0.78,37.309,12.795,37.473,22.29,4.906,10.778,12.627
564,0.784,37.349,12.755,37.473,22.287,4.865,10.86,12.586
565,0.806,37.148,12.794,37.512,22.301,5.028,10.983,12.586
566,0.777,37.251,12.79,37.426,22.28,4.826,10.822,12.342
567,0.78,37.367,12.786,37.463,22.287,4.824,10.901,12.38
568,0.793,37.397,12.872,37.473,22.287,4.905,10.943,12.34
569,0.8,37.043,12.849,37.473,22.29,4.825,11.024,12.299
570,0.8,37.202,12.857,37.473,22.29,4.905,10.944,12.217
571,0.777,37.271,12.834,37.445,22.283,4.784,10.862,12.013
572,0.758,37.607,12.857,37.454,22.287,4.864,10.861,11.97
573,0.764,37.045,12.88,37.445,22.283,4.824,10.698,11.889
574,0.783,37.202,12.927,37.464,22.29,4.905,10.778,12.172
575,0.78,37.271,12.893,37.464,22.287,4.906,10.698,12.297
576,0.78,37.041,12.908,37.464,22.283,4.906,10.575,12.461
577,0.78,37.03,12.815,37.464,22.287,4.825,10.451,12.422
578,0.777,37.145,12.833,37.464,22.283,4.946,10.328,12.584
579,0.78,37.299,12.853,37.473,22.29,4.866,10.327,12.749
580,0.761,36.965,12.88,37.464,22.29,4.865,10.246,12.791
581,0.767,37.077,12.873,37.483,22.301,5.068,10.286,12.994
582,0.751,37.193,12.771,37.464,22.283,4.826,10.083,12.875
583,0.764,37.3,12.821,37.473,22.29,4.783,10.121,13.117
584,0.767,36.764,12.818,37.493,22.29,4.905,10.163,13.526
585,0.761,36.883,12.825,37.474,22.29,4.865,10.122,14.344
586,0.757,37.028,12.853,37.502,22.297,4.987,10.122,15.409
587,0.735,37.077,12.873,37.474,22.287,4.907,10.041,16.355
588,0.757,36.857,12.904,37.483,22.283,4.906,9.999,17.299
589,0.748,36.999,12.799,37.493,22.283,4.825,9.999,18.041
590,0.744,37.135,12.829,37.512,22.297,4.905,10.08,18.82
591,0.751,37.194,12.841,37.493,22.287,4.865,9.959,19.357
592,0.748,36.811,12.861,37.483,22.283,4.865,9.917,19.606
593,0.754,36.96,12.884,37.483,22.29,4.824,9.916,19.771
594,0.748,37.067,12.842,37.454,22.28,4.783,9.794,19.895
595,0.764,37.154,12.849,37.502,22.29,4.864,9.915,20.059
596,0.774,36.858,12.833,37.503,22.294,4.865,9.754,20.101
597,0.777,37.009,12.712,37.541,22.297,4.946,9.915,20.101
598,0.767,37.096,12.816,37.474,22.28,4.785,9.591,19.898
599,0.774,37.126,12.876,37.483,22.283,4.864,9.629,19.896
600,0.784,36.867,12.873,37.483,22.29,4.824,9.71,19.855
601,0.78,36.999,12.81,37.521,22.287,4.865,9.589,19.733
602,0.8,37.154,12.833,37.541,22.301,4.987,9.588,19.772
603,0.8,37.213,12.794,37.484,22.287,4.785,9.466,19.57
604,0.794,36.868,12.829,37.502,22.287,4.824,9.465,19.649
605,0.79,36.999,12.872,37.503,22.287,4.865,9.343,19.446
606,0.79,37.106,12.881,37.503,22.29,4.906,9.423,19.526
607,0.793,36.762,12.935,37.503,22.287,4.865,9.342,19.364
608,0.777,36.758,12.842,37.493,22.283,4.865,9.301,19.199
609,0.764,36.912,12.837,37.502,22.287,4.824,9.26,18.995
610,0.757,36.98,12.802,37.483,22.276,4.743,9.3,18.708
611,0.757,36.741,12.856,37.521,22.29,4.864,9.382,18.705
612,0.764,36.844,12.857,37.503,22.294,4.824,9.342,18.38
613,0.754,36.989,12.841,37.541,22.294,4.865,9.545,18.214
614,0.757,37.077,12.806,37.522,22.283,4.784,9.506,17.928
615,0.767,36.56,12.778,37.522,22.294,4.905,9.628,17.64
616,0.787,36.718,12.778,37.551,22.294,4.906,9.873,17.393
617,0.774,36.854,12.825,37.522,22.287,4.865,9.957,17.066
618,0.806,36.961,12.849,37.551,22.297,5.028,10.242,16.859
619,0.797,36.674,12.872,37.484,22.28,4.826,10.164,16.328
620,0.8,36.844,12.81,37.512,22.287,4.905,10.285,16.038
621,0.79,36.951,12.825,37.522,22.283,4.825,10.408,15.832
622,0.81,37.029,12.829,37.541,22.29,4.865,10.572,15.464
623,0.82,36.943,12.853,37.541,22.29,4.865,10.696,15.176
624,0.817,37.019,12.888,37.522,22.287,4.784,10.697,14.807
625,0.81,37.154,12.92,37.531,22.283,4.824,10.819,14.397
626,0.794,37.184,12.889,37.503,22.276,4.743,10.861,14.108
627,0.806,36.504,12.846,37.541,22.294,4.823,11.186,13.983
628,0.8,36.65,12.822,37.541,22.287,4.905,11.312,13.657
629,0.79,36.776,12.79,37.541,22.287,4.825,11.435,13.41
630,0.777,36.797,12.86,37.541,22.28,4.743,11.477,13.041
631,0.787,36.663,12.841,37.522,22.28,4.823,11.558,12.834
632,0.793,36.863,12.802,37.551,22.287,4.865,11.803,12.588
633,0.784,36.961,12.771,37.57,22.283,4.824,11.806,12.301
634,0.78,36.942,12.798,37.58,22.297,4.946,12.009,12.258
635,0.764,36.655,12.817,37.542,22.28,4.703,11.889,11.891
636,0.774,36.786,12.814,37.551,22.287,4.742,11.928,11.806
637,0.774,36.902,12.857,37.56,22.287,4.905,11.929,11.521
638,0.761,36.597,12.888,37.561,22.29,4.825,11.97,11.437
639,0.783,36.67,12.846,37.589,22.297,4.824,11.929,11.233
640,0.777,36.748,12.826,37.542,22.287,4.824,11.766,10.987
641,0.79,36.873,12.829,37.551,22.29,4.865,11.887,10.944
642,0.803,36.568,12.872,37.551,22.28,4.743,11.644,10.74
643,0.813,36.699,12.904,37.58,22.294,4.905,11.804,10.819
644,0.81,36.815,12.924,37.58,22.287,4.784,11.724,10.779
645,0.794,36.912,12.877,37.57,22.287,4.905,11.723,10.738
646,0.784,36.578,12.857,37.561,22.283,4.825,11.561,10.819
647,0.8,36.68,12.767,37.561,22.283,4.743,11.478,10.901
648,0.816,36.853,12.813,37.57,22.294,4.945,11.518,11.065
649,0.803,36.932,12.849,37.57,22.287,4.907,11.396,11.229
650,0.81,36.578,12.888,37.609,22.297,5.028,11.476,11.515
651,0.803,36.68,12.83,37.571,22.283,4.785,11.152,11.437
652,0.81,36.825,12.72,37.609,22.29,4.824,11.108,11.599
653,0.82,36.903,12.836,37.58,22.29,4.865,11.067,11.641
654,0.794,36.625,12.829,37.59,22.287,4.865,10.944,11.763
655,0.8,36.786,12.841,37.599,22.29,4.906,10.862,11.805
656,0.794,36.874,12.849,37.561,22.283,4.825,10.739,11.724
657,0.806,36.922,12.884,37.58,22.283,4.865,10.575,11.723
658,0.8,36.463,12.873,37.551,22.276,4.784,10.411,11.642
659,0.813,36.631,12.849,37.675,22.294,4.905,10.572,11.763
660,0.82,36.738,12.818,37.581,22.294,4.906,10.451,11.683
661,0.803,36.768,12.857,37.618,22.294,4.906,10.45,11.723
662,0.794,36.605,12.892,37.59,22.29,4.825,10.125,11.561
663,0.79,36.738,12.873,37.599,22.287,4.905,10.163,11.6
664,0.79,36.873,12.83,37.609,22.297,4.825,10.082,11.56
665,0.78,36.759,12.783,37.599,22.29,4.946,9.999,11.559
666,0.777,36.672,12.794,37.638,22.297,4.947,9.999,11.64
667,0.754,36.777,12.798,37.59,22.29,4.785,9.755,11.357
668,0.757,36.864,12.817,37.599,22.294,4.783,9.793,11.435
669,0.761,36.481,12.888,37.59,22.283,4.824,9.671,11.273
670,0.757,36.564,12.814,37.599,22.283,4.905,9.67,11.353
671,0.767,36.699,12.829,37.618,22.29,4.825,9.548,11.191
672,0.761,36.758,12.814,37.58,22.287,4.783,9.506,11.393
673,0.77,36.48,12.841,37.59,22.283,4.824,9.506,11.801
674,0.761,36.612,12.857,37.57,22.28,4.783,9.425,12.131
675,0.767,36.747,12.916,37.628,22.29,4.864,9.627,12.703
676,0.767,36.844,12.897,37.609,22.294,4.865,9.588,13.238
677,0.767,36.395,12.881,37.628,22.297,4.946,9.669,14.219
678,0.77,36.553,12.846,37.619,22.283,4.825,9.629,15.489
679,0.78,36.651,12.806,37.609,22.283,4.865,9.751,17.209
680,0.793,36.728,12.884,37.628,22.287,4.946,9.915,18.934
681,0.797,36.451,12.888,37.619,22.283,4.907,9.998,20.415
682,0.797,36.621,12.865,37.676,22.297,4.987,10.283,21.65
683,0.777,36.709,12.802,37.61,22.283,4.826,10.083,22.394
684,0.787,36.806,12.813,37.676,22.294,4.865,10.121,23.052
685,0.78,36.49,12.802,37.629,22.283,4.743,10.163,23.383
686,0.764,36.631,12.829,37.638,22.283,4.864,10.326,23.671
687,0.77,36.738,12.841,37.638,22.29,4.906,10.286,23.756
688,0.748,36.768,12.896,37.638,22.28,4.784,10.286,23.756
689,0.747,36.375,12.853,37.648,22.287,4.824,10.286,23.594
690,0.744,36.515,12.83,37.619,22.283,4.743,10.286,23.267
691,0.767,36.641,12.822,37.638,22.287,4.783,10.449,23.182
692,0.757,36.652,12.841,37.638,22.283,4.824,10.328,22.897
693,0.754,36.46,12.904,37.648,22.29,4.865,10.408,22.894
694,0.757,36.583,12.893,37.638,22.283,4.784,10.287,22.772
695,0.751,36.689,12.861,37.628,22.276,4.783,10.286,22.608
696,0.754,36.566,12.865,37.667,22.294,4.864,10.367,22.484
697,0.761,36.517,12.81,37.657,22.29,4.865,10.246,22.402
698,0.767,36.67,12.833,37.657,22.294,4.946,10.367,22.401
699,0.764,36.748,12.822,37.638,22.287,4.663,10.165,22.198
700,0.78,36.317,12.857,37.657,22.29,4.863,10.244,22.237
701,0.797,36.437,12.837,37.677,22.287,4.946,10.204,22.196
702,0.787,36.582,12.744,37.696,22.29,4.825,10.041,21.993
703,0.797,36.689,12.817,37.687,22.304,4.987,10.162,22.072
704,0.784,36.336,12.794,37.658,22.283,4.826,9.878,21.747
705,0.79,36.466,12.821,37.667,22.287,4.865,9.916,21.703
706,0.79,36.612,12.829,37.667,22.287,4.865,9.957,21.54
707,0.78,36.68,12.892,37.677,22.287,4.824,9.835,21.295
708,0.803,36.374,12.896,37.696,22.297,4.905,9.834,21.089
709,0.781,36.505,12.842,37.658,22.287,4.784,9.631,20.68
710,0.764,36.631,12.818,37.677,22.29,4.824,9.588,20.432
711,0.757,36.69,12.837,37.667,22.283,4.743,9.547,20.105
712,0.748,36.451,12.872,37.677,22.29,4.864,9.466,20.02
713,0.744,36.592,12.861,37.667,22.287,4.906,9.546,19.694
714,0.731,36.709,12.83,37.667,22.287,4.865,9.344,19.406
715,0.728,36.758,12.79,37.686,22.287,4.824,9.342,19.119
716,0.731,36.423,12.782,37.658,22.273,4.783,9.097,18.791
717,0.738,36.611,12.778,37.686,22.29,4.864,9.136,18.625
718,0.731,36.718,12.813,37.696,22.287,4.906,9.095,18.298
719,0.738,36.767,12.88,37.696,22.297,4.947,9.054,18.132
720,0.744,36.346,12.814,37.677,22.283,4.744,8.891,17.845
721,0.734,36.466,12.806,37.686,22.283,4.864,8.93,17.68
722,0.764,36.621,12.825,37.696,22.294,4.865,8.85,17.556
723,0.764,36.862,12.845,37.696,22.287,4.865,8.808,17.474
724,0.764,36.491,12.861,37.734,22.304,4.987,8.848,17.351
725,0.774,36.583,12.888,37.687,22.287,4.785,8.605,17.147
726,0.764,36.709,12.916,37.686,22.287,4.824,8.602,17.104
727,0.78,36.422,12.885,37.715,22.294,4.865,8.602,16.941
728,0.78,36.41,12.795,37.715,22.29,4.906,8.562,16.898
729,0.787,36.573,12.806,37.735,22.297,4.906,8.521,16.817
730,0.767,36.632,12.817,37.696,22.28,4.825,8.439,16.694
731,0.77,36.345,12.872,37.687,22.283,4.865,8.438,16.571
732,0.761,36.438,12.845,37.696,22.28,4.784,8.357,16.285
733,0.751,36.592,12.783,37.715,22.287,4.905,8.478,16.201
734,0.748,36.68,12.759,37.715,22.283,4.825,8.357,15.956
735,0.734,36.384,12.809,37.773,22.287,4.865,8.275,15.791
736,0.754,36.515,12.79,37.706,22.283,4.865,8.274,15.505
737,0.744,36.631,12.802,37.677,22.28,4.743,8.152,15.177
738,0.764,36.738,12.868,37.725,22.294,4.945,8.313,15.132
739,0.767,36.394,12.865,37.716,22.29,4.866,8.315,14.929
740,0.761,36.553,12.806,37.744,22.29,4.865,8.396,14.846
741,0.744,36.651,12.817,37.697,22.276,4.824,8.275,14.601
742,0.744,36.719,12.833,37.706,22.29,4.865,8.355,14.436
743,0.76,36.317,12.888,37.735,22.29,4.865,8.478,14.271
744,0.761,36.476,12.885,37.725,22.294,4.906,8.52,14.107
745,0.757,36.602,12.904,37.754,22.301,4.987,8.723,14.105
746,0.731,36.613,12.869,37.725,22.283,4.744,8.522,13.861
747,0.728,36.421,12.826,37.754,22.287,4.905,8.601,13.818
748,0.728,36.582,12.829,37.735,22.29,4.825,8.602,13.737
749,0.728,36.699,12.829,37.735,22.287,4.905,8.684,13.817
750,0.744,36.739,12.876,37.754,22.294,4.906,8.725,13.94
751,0.725,36.375,12.826,37.716,22.283,4.825,8.726,13.982
752,0.731,36.534,12.759,37.754,22.283,4.865,8.807,14.185
753,0.712,36.651,12.79,37.725,22.273,4.743,8.726,14.472
754,0.711,36.891,12.79,37.744,22.297,4.986,8.888,15.166
755,0.718,36.472,12.837,37.754,22.283,4.907,8.93,15.824
756,0.734,36.592,12.857,37.764,22.287,4.906,9.093,17.213
757,0.738,36.699,12.873,37.726,22.283,4.865,8.892,18.446
758,0.728,36.278,12.896,37.716,22.287,4.865,9.052,19.76
759,0.747,36.322,12.842,37.773,22.294,4.824,9.217,21.033
760,0.741,36.466,12.814,37.754,22.294,4.987,9.3,21.94
761,0.773,36.602,12.868,37.802,22.294,5.07,9.504,22.722
762,0.761,36.402,12.881,37.735,22.283,4.826,9.587,23.096
763,0.764,36.525,12.888,37.754,22.287,4.905,9.791,23.506
764,0.767,36.67,12.857,37.745,22.283,4.865,9.956,23.51
765,0.754,36.777,12.834,37.773,22.29,4.865,10.161,23.591
766,0.761,36.298,12.786,37.754,22.29,4.906,10.366,23.429
767,0.764,36.399,12.806,37.735,22.287,4.825,10.449,23.062
768,0.761,36.553,12.81,37.773,22.287,4.824,10.572,22.692
769,0.757,36.603,12.872,37.735,22.283,4.824,10.614,22.201
770,0.761,36.354,12.849,37.783,22.294,4.905,10.818,21.871
771,0.751,36.495,12.748,37.774,22.29,4.906,10.861,21.298
772,0.751,36.631,12.809,37.745,22.287,4.947,10.942,20.845
773,0.757,36.69,12.825,37.745,22.287,4.866,10.862,20.19
774,0.741,36.537,12.825,37.745,22.283,4.906,10.942,19.858
775,0.731,36.708,12.857,37.783,22.297,4.947,11.024,19.489
776,0.734,36.815,12.884,37.774,22.29,4.907,10.985,19.16
777,0.728,36.884,12.924,37.793,22.297,4.987,11.106,18.954
778,0.721,36.261,12.811,37.755,22.28,4.866,10.904,18.585
779,0.721,36.418,12.833,37.773,22.287,4.906,10.983,18.46
780,0.724,36.553,12.837,37.783,22.29,4.865,10.903,18.255
781,0.718,36.564,12.904,37.783,22.287,4.987,10.902,18.05
782,0.721,36.526,12.904,37.802,22.297,4.948,10.902,17.885
783,0.721,36.631,12.818,37.774,22.276,4.785,10.821,17.559
784,0.718,36.747,12.779,37.774,22.283,4.824,10.739,17.352
785,0.721,36.701,12.696,37.774,22.283,4.783,10.616,17.065
786,0.718,36.432,12.801,37.783,22.29,4.946,10.777,17.022
787,0.705,36.544,12.771,37.783,22.287,4.866,10.576,16.859
788,0.702,36.632,12.84,37.774,22.283,4.824,10.451,16.776
789,0.721,36.364,12.837,37.783,22.287,4.824,10.41,16.572
790,0.702,36.409,12.826,37.802,22.276,4.783,10.328,16.529
791,0.714,36.592,12.822,37.803,22.29,4.905,10.408,16.569
792,0.711,36.68,12.845,37.793,22.29,4.865,10.328,16.529
793,0.705,36.355,12.911,37.822,22.294,4.906,10.408,16.813
794,0.711,36.476,12.889,37.774,22.28,4.825,10.125,17.141
795,0.737,36.602,12.873,37.802,22.29,4.905,10.081,17.876
796,0.741,36.69,12.857,37.822,22.294,4.906,10.081,18.656
797,0.751,36.403,12.798,37.812,22.294,4.865,10.081,19.274
798,0.751,36.563,12.813,37.851,22.297,4.987,10.04,19.849
799,0.725,36.632,12.821,37.784,22.283,4.866,9.918,20.221
800,0.728,36.719,12.872,37.793,22.29,4.865,9.876,20.631
801,0.728,36.403,12.849,37.793,22.287,4.784,9.876,20.838
802,0.747,36.563,12.787,37.822,22.294,4.946,9.997,21.125
803,0.754,36.67,12.833,37.822,22.29,4.907,10.039,21.128
804,0.748,36.729,12.802,37.812,22.287,4.825,9.999,20.925
805,0.754,36.48,12.806,37.803,22.287,4.783,10.08,20.76
806,0.738,36.592,12.825,37.793,22.283,4.783,9.959,20.514
807,0.751,36.728,12.841,37.812,22.29,4.905,10.242,20.431
808,0.748,36.768,12.884,37.831,22.29,4.906,10.245,20.145
809,0.712,36.365,12.842,37.86,22.287,4.947,10.326,19.939
810,0.718,36.505,12.818,37.813,22.287,4.825,10.246,19.368
811,0.724,36.621,12.841,37.803,22.283,4.865,10.286,18.996
812,0.734,36.661,12.915,37.831,22.29,4.906,10.327,18.748
813,0.725,36.45,12.904,37.822,22.287,4.825,10.327,18.34
814,0.721,36.583,12.885,37.851,22.297,4.946,10.49,18.091
815,0.718,36.68,12.807,37.803,22.283,4.785,10.166,17.682
816,0.721,36.604,12.782,37.831,22.29,4.905,10.204,17.516
817,0.721,36.469,12.821,37.851,22.287,4.906,10.326,17.189
818,0.728,36.612,12.825,37.851,22.29,4.947,10.408,17.063
819,0.744,36.747,12.911,37.861,22.301,5.029,10.613,16.94
820,0.751,36.634,12.842,37.822,22.283,4.826,10.574,16.695
821,0.754,36.757,12.841,37.87,22.283,4.865,10.736,16.571
822,0.748,36.883,12.814,37.851,22.287,4.784,10.819,16.325
823,0.773,36.98,12.818,37.851,22.287,4.864,11.023,16.364
824,0.774,36.224,12.868,37.841,22.287,4.906,11.066,16.08
825,0.751,36.331,12.888,37.832,22.283,4.784,11.107,15.873
826,0.731,36.466,12.881,37.832,22.283,4.864,11.189,15.668
827,0.721,36.554,12.888,37.832,22.28,4.743,11.23,15.463
828,0.737,36.44,12.803,37.851,22.29,4.905,11.393,15.461
829,0.721,36.573,12.817,37.861,22.283,4.825,11.436,15.176
830,0.715,36.699,12.849,37.87,22.294,4.946,11.477,15.092
831,0.708,36.786,12.861,37.851,22.29,4.825,11.355,14.684
832,0.708,36.27,12.838,37.841,22.283,4.865,11.395,14.558
833,0.728,36.446,12.787,37.87,22.294,4.906,11.517,14.354
834,0.715,36.563,12.747,37.87,22.29,4.906,11.559,14.271
835,0.734,36.641,12.825,37.976,22.304,4.987,11.722,14.229
836,0.725,36.393,12.794,37.852,22.283,4.826,11.683,14.025
837,0.747,36.534,12.841,37.851,22.283,4.905,11.926,13.942
838,0.744,36.651,12.9,37.861,22.287,4.825,12.01,13.819
839,0.751,36.69,12.854,37.889,22.29,4.905,12.377,13.899
840,0.731,36.422,12.845,37.89,22.29,4.906,12.299,13.737
841,0.721,36.544,12.81,37.861,22.283,4.784,12.339,13.533
842,0.728,36.67,12.841,37.861,22.287,4.824,12.421,13.449
843,0.725,36.671,12.872,37.841,22.273,4.783,12.381,13.408
844,0.731,36.479,12.865,37.88,22.294,4.905,12.543,13.773
845,0.715,36.592,12.892,37.88,22.283,4.865,12.545,14.102
846,0.728,36.709,12.885,37.88,22.294,4.865,12.464,14.593
847,0.751,36.508,12.814,37.88,22.283,4.824,12.3,15.005
848,0.751,36.411,12.821,37.88,22.283,4.865,12.258,15.659
849,0.777,36.563,12.825,37.899,22.29,4.946,12.257,16.56
850,0.774,36.67,12.857,37.89,22.294,4.866,12.135,17.911
851,0.78,36.556,12.845,37.909,22.297,4.987,12.215,19.51
852,0.758,36.612,12.74,37.871,22.276,4.826,11.932,20.746
853,0.735,36.757,12.793,37.861,22.29,4.824,11.888,21.938
854,0.731,36.864,12.81,37.899,22.29,4.783,11.888,22.681
855,0.738,36.203,12.817,37.909,22.29,4.905,11.928,23.461
856,0.734,36.331,12.849,37.909,22.283,4.906,11.929,23.713
857,0.734,36.457,12.904,37.89,22.283,4.865,11.929,23.919
858,0.741,36.535,12.936,37.89,22.287,4.824,11.888,23.717
859,0.731,36.325,12.784,37.871,22.28,4.783,11.766,23.512
860,0.764,36.514,12.821,37.899,22.29,4.905,11.968,23.347
861,0.748,36.602,12.833,37.909,22.29,4.906,11.889,22.98
862,0.751,36.68,12.904,37.938,22.297,5.069,11.969,22.651
863,0.738,36.221,12.889,37.89,22.287,4.826,11.726,21.956
864,0.734,36.36,12.853,37.899,22.294,4.865,11.723,21.461
865,0.734,36.515,12.81,37.909,22.29,4.906,11.683,20.847
866,0.744,36.545,12.778,37.909,22.287,4.865,11.683,20.434
867,0.76,36.449,12.805,37.928,22.294,4.987,11.804,19.983
868,0.754,36.535,12.782,37.89,22.283,4.785,11.562,19.409
869,0.767,36.67,12.86,37.89,22.294,4.864,11.519,19.159
870,0.774,36.7,12.841,37.909,22.287,4.865,11.437,18.913
871,0.793,36.24,12.732,37.938,22.29,4.906,11.558,18.992
872,0.8,36.379,12.813,37.919,22.287,4.906,11.519,18.911
873,0.79,36.476,12.829,37.919,22.287,4.825,11.559,18.707
874,0.79,36.506,12.829,37.9,22.287,4.865,11.478,18.624
875,0.764,36.276,12.868,37.89,22.273,4.743,11.477,18.379
876,0.78,36.447,12.884,37.928,22.294,4.864,11.599,18.295
877,0.761,36.563,12.885,37.928,22.29,4.906,11.6,17.969
878,0.757,36.708,12.822,37.948,22.29,4.987,11.682,17.803
879,0.751,36.787,12.814,37.9,22.283,4.785,11.479,17.395
880,0.748,36.931,12.833,37.928,22.287,4.864,11.477,17.147
881,0.741,37.029,12.884,37.938,22.297,4.946,11.518,16.941
882,0.754,36.157,12.908,37.929,22.294,4.947,11.518,16.695
883,0.783,36.263,12.854,37.967,22.294,4.988,11.559,16.571
884,0.78,36.331,12.771,37.91,22.287,4.744,11.397,16.244
885,0.784,36.457,12.727,37.938,22.287,4.823,11.314,16.2
886,0.774,36.247,12.785,37.929,22.283,4.743,11.232,15.997
887,0.78,36.36,12.782,37.948,22.287,4.864,11.353,16.117
888,0.784,36.515,12.833,37.938,22.29,4.906,11.232,16.158
889,0.771,36.583,12.845,37.909,22.287,4.825,11.149,16.606
890,0.767,36.133,12.771,37.947,22.283,4.824,11.026,17.099
891,0.757,36.253,12.794,37.909,22.28,4.743,10.985,17.632
892,0.757,36.427,12.856,37.957,22.29,4.986,11.106,18.369
893,0.761,36.496,12.888,37.948,22.283,4.907,11.108,18.783
894,0.757,36.267,12.912,37.957,22.294,5.028,11.351,19.397
895,0.744,36.389,12.889,37.938,22.283,4.826,11.232,19.444
896,0.754,36.524,12.865,37.948,22.29,4.824,11.231,19.688
897,0.754,36.593,12.853,37.938,22.287,4.905,11.312,19.853
898,0.748,36.248,12.818,37.957,22.294,4.987,11.313,19.855
899,0.744,36.418,12.837,37.967,22.29,4.948,11.313,19.692
900,0.705,36.486,12.872,37.948,22.28,4.825,11.232,19.447
901,0.705,36.525,12.845,37.977,22.29,4.824,11.231,19.322
902,0.708,36.257,12.767,37.958,22.276,4.824,11.109,18.874
903,0.715,36.398,12.817,38.034,22.29,4.987,11.23,18.747
904,0.715,36.525,12.81,37.968,22.294,4.866,11.109,18.34
905,0.734,36.804,12.833,37.948,22.287,4.906,11.067,18.01
906,0.725,36.183,12.845,37.948,22.287,4.865,11.026,17.641
907,0.721,36.292,12.857,37.948,22.276,4.824,10.903,17.393
908,0.731,36.437,12.908,37.996,22.294,4.987,10.943,17.31
909,0.728,36.256,12.822,37.987,22.29,4.988,10.862,17.024
910,0.738,36.283,12.833,37.986,22.294,5.029,10.82,16.981
911,0.731,36.399,12.833,37.967,22.28,4.867,10.698,16.614
912,0.741,36.496,12.861,37.986,22.287,4.906,10.737,16.488
913,0.751,36.18,12.904,37.977,22.29,4.987,10.738,16.284
914,0.754,36.254,12.881,38.006,22.29,4.988,10.819,16.119
915,0.764,36.418,12.853,38.025,22.297,4.988,10.942,15.996
916,0.754,36.496,12.791,37.968,22.283,4.826,10.781,15.669
917,0.761,36.075,12.813,38.034,22.283,4.865,10.901,15.544
918,0.754,36.224,12.814,37.987,22.29,4.906,11.024,15.665
919,0.744,36.341,12.872,37.977,22.29,5.028,11.229,15.951
920,0.757,36.428,12.873,37.996,22.294,4.989,11.312,16.157
921,0.731,36.199,12.795,37.996,22.283,4.866,11.394,16.525
922,0.721,36.369,12.794,37.987,22.283,4.946,11.558,17.301
923,0.708,36.476,12.79,37.967,22.276,4.825,11.519,18.366
924,0.728,36.564,12.833,38.015,22.29,4.987,11.803,20.369
925,0.744,36.181,12.865,38.006,22.29,4.948,11.765,22.178
926,0.731,36.311,12.896,38.015,22.297,5.029,11.927,23.903
927,0.734,36.437,12.896,37.996,22.287,4.989,11.888,25.1
928,0.728,36.467,12.842,37.996,22.29,4.948,11.888,26.128
929,0.734,36.132,12.849,38.044,22.287,5.029,12.05,26.748
930,0.718,36.273,12.837,38.006,22.283,4.989,11.971,27.08
931,0.718,36.408,12.9,38.025,22.301,5.151,12.051,27.327
932,0.698,36.4,12.881,37.996,22.28,4.868,11.971,27.004
933,0.698,36.112,12.834,38.015,22.287,4.987,11.929,26.838
934,0.695,36.253,12.775,38.016,22.294,4.988,12.01,26.43
935,0.695,36.379,12.747,38.006,22.294,5.029,12.011,26.019
936,0.701,36.534,12.801,38.035,22.287,4.989,11.97,25.324
937,0.701,36.171,12.802,38.016,22.28,4.948,11.97,24.626
938,0.714,36.321,12.825,38.016,22.287,4.907,12.011,23.968
939,0.734,36.399,12.868,37.987,22.276,4.784,11.93,23.23
940,0.734,36.112,12.81,38.034,22.29,5.068,12.173,22.653
941,0.751,36.157,12.814,38.025,22.29,4.948,12.094,21.997
942,0.748,36.273,12.829,38.035,22.294,4.947,12.215,21.421
943,0.747,36.36,12.849,38.025,22.283,4.866,12.094,20.602
944,0.751,36.035,12.857,38.006,22.287,4.906,12.093,20.188
945,0.761,36.195,12.88,38.044,22.297,5.028,12.134,19.777
946,0.754,36.302,12.908,38.016,22.287,4.989,12.093,19.366
947,0.754,36.418,12.92,38.054,22.301,5.11,12.134,19.281
948,0.725,35.959,12.846,38.006,22.283,4.908,11.85,18.792
949,0.734,36.108,12.822,38.035,22.283,4.987,11.969,18.787
950,0.721,36.244,12.876,38.044,22.287,4.988,11.848,18.584
951,0.724,36.322,12.881,38.025,22.294,4.988,11.847,18.46
952,0.721,36.054,12.834,38.044,22.294,4.988,11.765,18.215
953,0.698,36.176,12.74,38.025,22.283,4.866,11.724,18.05
954,0.701,36.311,12.778,38.025,22.29,4.906,11.561,18.129
955,0.692,36.361,12.802,38.016,22.28,4.865,11.559,18.13
956,0.705,36.045,12.806,38.044,22.29,4.987,11.64,18.211
957,0.692,36.195,12.825,38.045,22.287,4.988,11.641,18.172
958,0.711,36.321,12.904,38.054,22.294,5.029,11.641,18.212
959,0.702,36.351,12.838,38.025,22.287,4.948,11.56,17.887
960,0.711,36.025,12.837,38.044,22.29,4.988,11.6,17.802
961,0.728,36.185,12.822,38.054,22.294,4.988,11.682,17.639
962,0.731,36.321,12.868,38.064,22.29,5.029,11.52,17.393
963,0.754,36.342,12.923,38.064,22.297,5.07,11.559,17.188
964,0.748,36.025,12.901,38.035,22.276,4.908,11.437,16.82
965,0.744,36.204,12.865,38.035,22.287,4.947,11.355,16.653
966,0.738,36.283,12.826,38.025,22.276,4.866,11.273,16.286
967,0.738,36.437,12.755,38.064,22.287,4.987,11.353,16.079
968,0.741,36.419,12.782,38.054,22.29,4.988,11.273,15.833
969,0.728,36.525,12.845,38.045,22.294,4.988,11.19,15.586
970,0.725,36.612,12.876,38.045,22.287,4.907,11.068,15.177
971,0.724,35.865,12.783,38.035,22.283,4.947,11.026,14.848
972,0.734,35.896,12.809,38.054,22.294,4.988,10.985,14.601
973,0.718,36.021,12.817,38.045,22.283,4.948,10.903,14.395
974,0.721,36.147,12.88,38.083,22.297,5.069,10.902,14.149
975,0.718,36.071,12.892,38.045,22.28,4.908,10.618,13.699
976,0.718,36.253,12.896,38.045,22.283,4.947,10.696,13.492
977,0.728,36.379,12.928,38.054,22.29,4.947,10.697,13.245
978,0.728,36.457,12.807,38.073,22.287,4.988,10.737,12.999
979,0.728,35.835,12.817,38.083,22.29,5.029,10.697,12.712
980,0.718,35.934,12.814,38.045,22.28,4.948,10.575,12.465
981,0.734,36.079,12.876,38.054,22.287,4.907,10.574,12.341
982,0.731,36.128,12.877,38.054,22.28,4.784,10.451,12.055
983,0.744,36.052,12.834,38.073,22.287,4.946,10.572,12.052
984,0.747,36.185,12.779,38.074,22.29,4.907,10.492,11.93
985,0.747,36.302,12.77,38.083,22.29,5.028,10.451,11.848
986,0.741,36.38,12.786,38.131,22.283,4.867,10.41,11.562
987,0.741,35.959,12.794,38.074,22.28,4.906,10.369,11.437
988,0.76,36.108,12.864,38.102,22.297,5.028,10.287,11.477
989,0.761,36.224,12.861,38.074,22.29,4.989,10.245,11.436
990,0.774,36.293,12.814,38.131,22.297,5.029,10.408,11.436
991,0.764,35.939,12.794,38.055,22.276,4.867,10.206,11.273
992,0.751,36.108,12.813,38.064,22.287,4.906,10.245,11.19
993,0.761,36.224,12.849,38.083,22.287,4.906,10.286,11.23
994,0.774,36.264,12.884,38.074,22.294,4.987,10.367,11.597
995,0.777,36.092,12.924,38.093,22.294,4.948,10.328,12.047
996,0.767,36.186,12.904,38.083,22.28,4.907,10.246,12.459
997,0.777,36.292,12.861,38.083,22.287,4.906,10.286,12.951
998,0.758,36.14,12.841,38.074,22.283,4.865,10.164,13.2
999,0.774,35.995,12.833,38.093,22.297,5.028,10.326,13.73
1000,0.784,36.147,12.88,38.083,22.294,4.948,10.408,14.02
1001,0.787,36.234,12.885,38.093,22.287,4.947,10.369,14.267
1002,0.797,35.871,12.791,38.083,22.294,4.907,10.328,14.31
1003,0.787,35.934,12.802,38.141,22.283,4.865,10.449,14.433
1004,0.81,36.088,12.813,38.113,22.29,4.987,10.45,14.597
1005,0.833,36.186,12.806,38.103,22.29,4.988,10.45,14.598
1006,0.852,36.024,12.841,38.122,22.297,5.07,10.654,14.639
1007,0.853,36.128,12.833,38.084,22.283,4.867,10.493,14.436
1008,0.901,36.244,12.853,38.093,22.283,4.946,10.573,14.434
1009,0.931,36.36,12.806,38.112,22.287,4.947,10.655,14.434
1010,0.918,35.815,12.817,38.112,22.29,4.947,10.656,14.759
1011,0.928,35.972,12.841,38.103,22.287,4.988,10.737,15.372
1012,0.935,36.07,12.849,38.064,22.28,4.785,10.535,16.151
1013,0.997,36.147,12.876,38.093,22.283,4.905,10.655,17.175
1014,1.039,35.908,12.853,38.083,22.276,4.784,10.574,17.917
1015,1.092,36.088,12.787,38.112,22.29,4.946,10.818,19.063
1016,1.141,36.195,12.786,38.112,22.294,4.947,10.942,20.091
1017,1.178,36.292,12.817,38.112,22.287,4.907,10.984,21.484
1018,1.22,35.939,12.81,38.093,22.28,4.825,10.984,22.636
1019,1.227,36.069,12.888,38.103,22.29,4.905,10.984,23.786
1020,1.24,36.205,12.865,38.122,22.29,4.987,11.066,24.57
1021,1.227,36.283,12.853,38.151,22.287,4.988,11.107,25.188
1022,1.234,36.073,12.826,38.122,22.294,5.07,11.27,25.722
1023,1.188,36.147,12.806,38.084,22.28,4.908,11.028,25.809
1024,1.142,36.273,12.829,38.122,22.29,4.947,10.985,26.013
1025,1.135,36.303,12.88,38.093,22.29,4.907,10.984,25.852
1026,1.125,35.939,12.881,38.122,22.294,4.987,10.944,25.729
1027,1.181,36.108,12.896,38.141,22.294,4.907,10.902,25.321
1028,1.162,36.167,12.787,38.122,22.287,4.906,10.78,24.91
1029,1.204,36.062,12.817,38.112,22.287,4.987,10.86,24.581
1030,1.246,35.994,12.841,38.103,22.28,4.866,10.658,24.009
1031,1.299,36.137,12.896,38.122,22.294,4.946,10.818,23.678
1032,1.345,36.253,12.857,38.112,22.29,4.907,10.739,23.186
1033,1.339,35.909,12.771,38.103,22.294,4.906,10.697,22.572
1034,1.368,36.011,12.723,38.141,22.283,4.906,10.534,22.037
1035,1.342,36.108,12.77,38.103,22.276,4.744,10.573,21.544
1036,1.365,36.234,12.805,38.122,22.29,4.986,10.655,21.173
1037,1.349,35.909,12.81,38.132,22.29,4.948,10.615,20.559
1038,1.297,36.05,12.872,38.141,22.294,4.988,10.737,20.187
1039,1.238,36.166,12.799,38.103,22.283,4.866,10.535,19.492
1040,1.165,36.235,12.806,38.122,22.283,4.865,10.614,19.038
1041,1.09,35.813,12.821,38.132,22.29,4.987,10.655,18.668
1042,0.988,35.943,12.861,38.132,22.287,4.866,10.615,18.217
1043,0.909,36.098,12.904,38.16,22.301,4.987,10.737,17.846
1044,0.814,36.128,12.885,38.122,22.276,4.826,10.697,17.395
1045,0.745,35.966,12.861,38.112,22.283,4.865,10.656,17.35
1046,0.695,36.117,12.861,38.131,22.29,4.865,10.656,17.269
1047,0.656,36.224,12.818,38.113,22.29,4.906,10.656,17.39
1048,0.633,36.321,12.825,38.131,22.29,4.906,10.656,17.513
1049,0.61,35.977,12.818,38.122,22.28,4.825,10.615,17.473
1050,0.6,36.146,12.884,38.122,22.287,4.865,10.615,17.554
1051,0.603,36.254,12.826,38.112,22.28,4.784,10.615,17.433
1052,0.606,36.322,12.841,38.141,22.294,4.946,10.777,17.554
1053,0.629,35.872,12.806,38.132,22.287,4.907,10.82,17.352
1054,0.665,36.001,12.79,38.132,22.29,4.947,10.942,17.309
1055,0.691,36.118,12.809,38.122,22.29,4.825,10.902,16.984
1056,0.708,36.196,12.833,38.141,22.283,4.865,10.983,16.818
1057,0.737,36.005,12.861,38.141,22.297,4.987,11.106,16.735
1058,0.751,36.137,12.884,38.151,22.287,4.948,11.067,16.693
1059,0.787,36.282,12.865,38.199,22.301,5.029,11.229,16.611
1060,0.803,36.025,12.818,38.132,22.287,4.867,11.068,16.488
1061,0.813,35.993,12.853,38.122,22.287,4.906,11.148,16.406
1062,0.813,36.147,12.869,38.122,22.287,4.906,11.108,16.365
1063,0.829,36.234,12.865,38.151,22.29,4.947,11.148,16.445
1064,0.843,35.948,12.834,38.132,22.287,4.907,11.23,16.365
1065,0.826,36.031,12.786,38.132,22.28,4.825,11.149,16.242
1066,0.823,36.195,12.786,38.151,22.283,4.865,11.189,16.16
1067,0.804,36.254,12.794,38.113,22.28,4.743,11.23,15.996
1068,0.813,35.813,12.833,38.16,22.294,4.986,11.393,16.035
1069,0.813,35.934,12.872,38.142,22.29,4.948,11.354,15.914
1070,0.81,36.069,12.81,38.141,22.29,5.029,11.435,15.912
1071,0.803,36.147,12.817,38.132,22.283,4.826,11.273,15.424
1072,0.797,35.928,12.814,38.151,22.29,4.865,11.312,15.42
1073,0.8,36.088,12.849,38.17,22.29,5.028,11.435,15.42
1074,0.787,36.215,12.888,38.161,22.29,4.907,11.477,15.298
1075,0.79,36.302,12.928,38.18,22.297,5.069,11.64,15.337
1076,0.793,35.843,12.908,38.151,22.287,4.826,11.479,15.093
1077,0.806,35.982,12.857,38.161,22.29,4.865,11.64,15.01
1078,0.797,36.137,12.841,38.18,22.283,4.784,11.682,14.846
1079,0.807,36.186,12.818,38.171,22.297,4.864,11.926,14.804
1080,0.82,35.957,12.853,38.17,22.287,4.946,12.01,14.641
1081,0.823,36.089,12.853,38.18,22.283,4.866,12.052,14.436
1082,0.83,36.215,12.794,38.171,22.287,4.946,12.215,14.231
1083,0.82,36.245,12.755,38.151,22.276,4.744,12.216,14.107
1084,0.846,35.976,12.774,38.199,22.287,4.945,12.42,14.309
1085,0.846,36.108,12.774,38.18,22.29,4.907,12.544,14.229
1086,0.814,36.205,12.841,38.171,22.287,4.947,12.545,14.31
1087,0.803,36.465,12.849,38.17,22.28,4.785,12.504,14.351
1088,0.807,35.844,12.884,38.142,22.283,4.824,12.585,14.514
1089,0.82,36.02,12.838,38.199,22.29,4.987,12.708,15.004
1090,0.817,36.118,12.814,38.209,22.287,4.907,12.79,15.497
1091,0.823,35.927,12.818,38.2,22.301,4.947,12.913,16.112
1092,0.794,35.925,12.853,38.171,22.28,4.825,12.711,16.321
1093,0.793,36.079,12.865,38.17,22.29,4.824,12.912,16.77
1094,0.797,36.195,12.857,38.199,22.294,4.865,12.955,17.019
1095,0.8,35.995,12.853,38.19,22.29,4.906,13.118,17.346
1096,0.813,36.147,12.845,38.218,22.301,5.028,13.282,17.472
1097,0.794,36.244,12.724,38.161,22.276,4.867,13.203,17.473
1098,0.797,36.36,12.801,38.18,22.283,4.824,13.405,17.798
1099,0.794,35.843,12.829,38.18,22.287,4.865,13.407,18.127
1100,0.803,35.982,12.876,38.19,22.287,4.865,13.651,18.699
1101,0.8,36.127,12.818,38.209,22.29,4.865,13.694,19.03
1102,0.797,36.196,12.818,38.2,22.29,4.865,13.695,19.44
1103,0.81,35.899,12.821,38.199,22.287,4.865,13.735,20.257
1104,0.807,36.03,12.814,38.18,22.276,4.784,13.573,21.445
1105,0.823,36.195,12.837,38.218,22.29,4.986,13.694,22.961
1106,0.804,36.244,12.853,38.2,22.29,4.866,13.613,24.277
1107,0.816,35.9,12.857,38.228,22.297,4.946,13.694,25.307
1108,0.79,36.03,12.826,38.2,22.283,4.785,13.492,26.089
1109,0.777,36.185,12.829,38.219,22.287,4.905,13.449,26.829
1110,0.803,36.244,12.814,38.209,22.29,4.906,13.448,27.324
1111,0.803,35.9,12.864,38.209,22.29,4.906,13.448,27.573
1112,0.826,36.069,12.888,38.247,22.304,5.028,13.408,27.657
1113,0.797,36.128,12.834,38.2,22.287,4.826,13.163,27.373
1114,0.803,36.196,12.786,38.219,22.29,4.865,13.161,27.167
1115,0.81,35.966,12.755,38.209,22.287,4.906,12.998,26.718
1116,0.787,36.098,12.782,38.228,22.294,4.947,12.996,26.347
1117,0.826,36.243,12.794,38.238,22.29,4.866,12.834,25.693
1118,0.826,36.235,12.825,38.209,22.283,4.906,12.67,25.036
1119,0.846,35.938,12.888,38.209,22.283,4.865,12.546,24.379
1120,0.853,36.04,12.81,38.2,22.276,4.743,12.382,23.6
1121,0.866,36.185,12.833,38.238,22.287,4.945,12.421,23.064
1122,0.869,35.909,12.833,38.229,22.283,4.866,12.218,22.326
1123,0.869,35.944,12.876,38.228,22.29,4.906,12.135,21.75
1124,0.859,36.079,12.881,38.219,22.283,4.825,11.931,20.85
1125,0.846,36.147,12.881,38.228,22.287,4.905,11.888,20.353
1126,0.849,35.784,12.873,38.248,22.294,4.947,11.888,19.819
1127,0.827,35.885,12.857,38.257,22.29,4.907,11.888,19.285
1128,0.804,36.059,12.841,38.267,22.297,4.987,11.888,18.833
1129,0.816,36.099,12.806,38.219,22.283,4.866,11.685,18.137
1130,0.807,35.86,12.872,38.238,22.29,4.865,11.683,17.724
1131,0.813,36.02,12.873,38.238,22.297,4.906,11.723,17.272
1132,0.794,36.156,12.818,38.238,22.29,4.906,11.642,16.902
1133,0.806,36.273,12.739,38.286,22.297,4.947,11.641,16.491
1134,0.79,35.785,12.825,38.229,22.283,4.785,11.479,15.959
1135,0.787,35.943,12.825,38.238,22.287,4.864,11.355,15.628
1136,0.787,36.069,12.833,38.229,22.287,4.906,11.354,15.218
1137,0.784,36.147,12.833,38.257,22.29,4.865,11.354,14.97
1138,0.81,35.966,12.896,38.248,22.283,4.906,11.273,14.561
1139,0.816,36.089,12.799,38.229,22.276,4.825,11.15,14.273
1140,0.823,36.243,12.833,38.238,22.287,4.824,11.108,14.026
1141,0.83,36.264,12.833,38.238,22.276,4.743,10.904,13.779
1142,0.846,35.909,12.884,38.277,22.29,4.864,11.024,13.696
1143,0.833,36.05,12.888,38.258,22.29,4.865,10.944,13.451
1144,0.843,36.166,12.881,38.258,22.294,4.906,10.902,13.286
1145,0.833,36.167,12.834,38.238,22.283,4.744,10.739,12.959
1146,0.826,35.947,12.806,38.238,22.287,4.823,10.616,12.833
1147,0.833,36.108,12.829,38.296,22.297,4.905,10.615,12.792
1148,0.836,36.215,12.79,38.248,22.29,4.865,10.533,12.71
1149,0.839,36.072,12.872,38.286,22.301,5.068,10.655,12.709
1150,0.813,35.812,12.849,38.239,22.28,4.826,10.412,12.384
1151,0.826,35.972,12.783,38.248,22.287,4.905,10.328,12.381
1152,0.836,36.089,12.817,38.238,22.29,4.947,10.286,12.34
1153,0.826,35.879,12.798,38.267,22.287,4.907,10.327,12.421
1154,0.823,35.982,12.856,38.258,22.29,4.865,10.286,12.462
1155,0.81,36.089,12.849,38.238,22.283,4.865,10.205,12.585
1156,0.813,36.176,12.872,38.238,22.28,4.906,10.245,12.627
1157,0.823,35.755,12.9,38.238,22.276,4.784,10.164,12.546
1158,0.836,35.904,12.834,38.267,22.29,4.946,10.326,12.789
1159,0.839,36.04,12.822,38.248,22.29,4.907,10.246,12.791
1160,0.839,36.137,12.829,38.257,22.294,4.906,10.408,12.832
1161,0.843,35.803,12.857,38.248,22.28,4.865,10.165,12.629
1162,0.853,35.924,12.865,38.257,22.287,4.824,10.326,12.586
1163,0.866,36.079,12.834,38.267,22.294,4.905,10.327,12.505
1164,0.856,36.167,12.771,38.277,22.287,4.906,10.286,12.463
1165,0.869,35.861,12.77,38.286,22.304,5.028,10.408,12.544
1166,0.853,35.982,12.782,38.267,22.287,4.826,10.165,12.138
1167,0.859,36.098,12.786,38.248,22.287,4.905,10.163,12.053
1168,0.856,36.167,12.825,38.267,22.294,4.906,10.163,11.93
1169,0.846,35.745,12.868,38.267,22.287,4.865,10.163,11.888
1170,0.856,35.933,12.783,38.296,22.29,4.906,10.041,11.806
1171,0.84,36.012,12.794,38.248,22.276,4.825,9.999,11.562
1172,0.862,36.06,12.81,38.267,22.287,4.865,9.999,11.519
1173,0.872,35.764,12.845,38.238,22.287,4.784,9.877,11.315
1174,0.872,35.933,12.845,38.257,22.29,4.905,10.079,11.435
1175,0.863,36.04,12.892,38.248,22.283,4.906,9.999,11.273
1176,0.859,36.051,12.908,38.248,22.29,4.865,10.039,11.272
1177,0.853,35.802,12.865,38.248,22.283,4.824,9.958,11.028
1178,0.843,35.905,12.826,38.238,22.276,4.743,9.957,10.985
1179,0.853,36.079,12.822,38.277,22.287,4.864,10.161,10.944
1180,0.856,35.889,12.872,38.267,22.287,4.906,10.082,10.862
1181,0.856,35.8,12.873,38.277,22.301,4.947,10.325,10.902
1182,0.849,35.943,12.783,38.267,22.283,4.825,10.165,10.618
1183,0.849,36.05,12.766,38.277,22.283,4.865,10.407,10.574
1184,0.872,35.84,12.786,38.267,22.29,4.824,10.613,10.574
1185,0.863,35.915,12.817,38.277,22.287,4.865,10.818,10.451
1186,0.859,36.069,12.806,38.306,22.297,4.865,11.023,10.491
1187,0.84,36.119,12.86,38.258,22.283,4.824,11.066,10.329
1188,0.846,35.668,12.892,38.258,22.283,4.865,11.27,10.286
1189,0.846,35.798,12.818,38.248,22.283,4.824,11.272,10.245
1190,0.862,35.943,12.821,38.286,22.287,4.865,11.597,10.448
1191,0.84,36.021,12.814,38.267,22.29,4.824,11.641,10.572
1192,0.833,35.734,12.864,38.258,22.28,4.824,11.682,10.777
1193,0.833,35.875,12.865,38.258,22.283,4.865,11.642,11.064
1194,0.83,35.982,12.873,38.238,22.276,4.743,11.723,11.351
1195,0.839,36.098,12.834,38.277,22.29,4.823,11.886,11.964
1196,0.846,35.716,12.79,38.286,22.287,4.865,11.928,12.458
1197,0.84,35.856,12.747,38.315,22.29,4.865,12.132,13.276
1198,0.852,35.982,12.801,38.258,22.283,4.743,11.972,13.853
1199,0.856,36.051,12.856,38.277,22.283,4.823,12.133,14.835
1200,0.869,35.725,12.873,38.258,22.29,4.865,12.256,15.739
1201,0.869,35.875,12.756,38.296,22.29,4.824,12.339,16.846
1202,0.885,36.011,12.809,38.306,22.297,4.987,12.462,17.833
1203,0.866,36.022,12.817,38.239,22.283,4.744,12.381,18.452
1204,0.882,35.696,12.829,38.267,22.29,4.823,12.462,19.15
1205,0.876,35.837,12.865,38.258,22.283,4.865,12.544,19.807
1206,0.872,35.972,12.841,38.277,22.294,4.865,12.586,20.952
1207,0.879,35.974,12.865,38.258,22.294,4.824,12.586,22.224
1208,0.866,35.782,12.802,38.258,22.283,4.824,12.627,23.457
1209,0.866,35.943,12.813,38.267,22.29,4.783,12.586,24.567
1210,0.866,36.05,12.786,38.258,22.28,4.742,12.545,25.31
1211,0.869,35.687,12.876,38.258,22.294,4.905,12.707,26.008
1212,0.869,35.606,12.884,38.267,22.283,4.906,12.628,26.422
1213,0.863,35.74,12.861,38.258,22.29,4.865,12.627,26.71
1214,0.859,35.837,12.814,38.258,22.283,4.784,12.586,26.713
1215,0.856,35.646,12.747,38.248,22.29,4.824,12.545,26.591
1216,0.872,35.807,12.708,38.277,22.294,4.865,12.586,26.427
1217,0.863,35.953,12.785,38.258,22.29,4.906,12.423,26.06
1218,0.898,36.05,12.829,38.286,22.301,4.947,12.625,25.69
1219,0.876,35.744,12.837,38.239,22.283,4.785,12.464,24.955
1220,0.892,35.895,12.794,38.257,22.287,4.824,12.544,24.419
1221,0.902,36.03,12.813,38.267,22.29,4.824,12.626,23.804
1222,0.908,36.109,12.818,38.267,22.294,4.824,12.79,23.269
1223,0.925,35.649,12.857,38.267,22.29,4.905,12.832,22.816
1224,0.902,35.759,12.88,38.238,22.287,4.744,12.832,22.283
1225,0.895,35.895,12.924,38.238,22.287,4.823,12.873,21.749
1226,0.892,35.954,12.893,38.238,22.273,4.743,12.873,21.216
1227,0.905,35.619,12.861,38.267,22.294,4.864,13.117,21.048
1228,0.905,35.769,12.818,38.325,22.287,4.946,13.079,20.599
1229,0.886,35.876,12.806,38.229,22.283,4.907,13.119,20.269
1230,0.872,35.925,12.856,38.238,22.283,4.784,12.998,19.696
1231,0.869,35.666,12.884,38.209,22.283,4.783,12.956,19.406
1232,0.892,35.846,12.818,38.257,22.297,4.905,13.037,18.956
1233,0.892,35.944,12.747,38.238,22.29,4.865,12.875,18.748
1234,0.889,36.002,12.825,38.267,22.294,4.946,12.955,18.705
1235,0.866,35.667,12.81,38.238,22.28,4.785,12.59,18.38
1236,0.866,35.846,12.825,38.238,22.283,4.783,12.667,18.254
1237,0.872,35.963,12.818,38.248,22.294,4.864,12.546,18.131
1238,0.872,36.309,12.907,38.229,22.287,4.865,12.504,18.049
1239,0.882,35.824,12.834,38.276,22.304,4.946,12.382,17.682
1240,0.879,35.924,12.806,38.219,22.28,4.785,12.218,17.353
1241,0.882,36.05,12.814,38.228,22.29,4.824,12.176,17.228
1242,0.879,35.85,12.857,38.238,22.283,4.783,12.053,16.861
1243,0.876,35.838,12.884,38.257,22.29,4.824,12.052,16.654
1244,0.892,35.972,12.869,38.229,22.29,4.865,11.889,16.367
1245,0.879,36.06,12.861,38.209,22.283,4.824,11.725,16.08
1246,0.885,35.802,12.849,38.219,22.283,4.824,11.642,15.833
1247,0.872,35.914,12.791,38.2,22.276,4.661,11.438,15.464
1248,0.876,36.069,12.825,38.247,22.29,4.822,11.477,15.339
1249,0.879,36.157,12.845,38.238,22.287,4.783,11.355,15.093
1250,0.882,35.602,12.872,38.238,22.294,4.905,11.354,14.928
1251,0.879,35.74,12.787,38.219,22.283,4.784,11.232,14.439
1252,0.879,35.875,12.794,38.228,22.294,4.783,11.109,14.312
1253,0.885,35.982,12.794,38.238,22.287,4.783,11.23,14.148
1254,0.872,35.715,12.813,38.238,22.29,4.864,11.109,13.862
1255,0.882,35.894,12.864,38.257,22.297,4.865,11.189,13.737
1256,0.863,35.973,12.861,38.2,22.283,4.702,10.946,13.329
1257,0.869,36.05,12.884,38.219,22.287,4.782,10.984,13.203
1258,0.876,35.831,12.857,38.2,22.283,4.742,10.944,12.795
1259,0.895,36.02,12.849,38.238,22.294,4.783,11.024,12.791
1260,0.892,36.128,12.822,38.229,22.294,4.742,10.863,12.507
1261,0.902,36.148,12.841,38.219,22.29,4.823,10.861,12.382
1262,0.918,35.774,12.888,38.209,22.283,4.783,10.739,12.055
1263,0.902,35.895,12.865,38.19,22.283,4.702,10.657,11.971
1264,0.925,36.04,12.838,38.218,22.294,4.823,10.656,11.889
1265,0.912,36.08,12.79,38.209,22.29,4.824,10.493,11.644
1266,0.922,35.764,12.739,38.238,22.297,4.987,10.654,11.601
1267,0.896,35.876,12.786,38.2,22.283,4.785,10.412,11.194
1268,0.899,36.002,12.786,38.219,22.287,4.824,10.369,11.149
1269,0.899,36.233,12.86,38.209,22.287,4.824,10.449,10.986
1270,0.908,36.005,12.818,38.209,22.294,4.865,10.41,10.903
1271,0.912,36.166,12.821,38.238,22.294,4.865,10.409,10.78
1272,0.899,36.225,12.79,38.19,22.283,4.743,10.206,10.576
1273,0.905,35.9,12.829,38.199,22.287,4.823,10.326,10.451
1274,0.899,35.906,12.853,38.19,22.283,4.783,10.165,10.247
1275,0.889,36.088,12.892,38.209,22.287,4.864,10.285,10.367
1276,0.895,36.167,12.9,38.19,22.294,4.865,10.286,10.206
1277,0.886,36.033,12.92,38.209,22.29,4.865,10.327,10.163
1278,0.898,36.147,12.815,38.209,22.283,4.784,10.165,9.919
1279,0.895,36.282,12.802,38.19,22.283,4.783,10.204,9.916
1280,0.918,36.399,12.837,38.218,22.294,4.905,10.245,9.835
1281,0.922,36.093,12.88,38.209,22.287,4.825,10.123,9.753
1282,0.931,36.263,12.857,38.247,22.308,4.946,10.284,9.752
1283,0.915,36.341,12.806,38.2,22.283,4.703,10.042,9.508
1284,0.915,36.438,12.747,38.219,22.29,4.823,10.04,9.546
1285,0.918,36.093,12.766,38.219,22.287,4.865,10.04,9.384
1286,0.915,36.215,12.794,38.228,22.29,4.824,10.08,9.382
1287,0.928,36.35,12.813,38.238,22.294,4.824,10.04,9.261
1288,0.896,36.38,12.837,38.181,22.276,4.743,9.918,9.178
1289,0.899,36.208,12.837,38.19,22.29,4.783,10.039,9.137
1290,0.908,36.34,12.829,38.276,22.283,4.702,9.958,9.014
1291,0.899,36.476,12.806,38.2,22.29,4.823,9.998,9.054
1292,0.895,36.506,12.837,38.219,22.287,4.783,9.999,9.013
1293,0.895,36.171,12.865,38.19,22.29,4.742,9.999,9.013
1294,0.889,36.321,12.896,38.19,22.287,4.783,10.039,8.891
1295,0.885,36.428,12.865,38.18,22.283,4.783,9.958,8.849
1296,0.918,36.487,12.88,38.228,22.297,4.824,10.039,8.93
1297,0.935,36.439,12.83,38.209,22.29,4.865,9.999,8.809
1298,0.948,36.602,12.837,38.238,22.301,4.946,10.08,8.93
1299,0.945,36.67,12.81,38.19,22.276,4.785,9.837,8.646
1300,0.951,36.7,12.876,38.19,22.283,4.783,9.916,8.603
1301,0.958,36.575,12.849,38.209,22.294,4.824,9.876,8.602
1302,0.954,36.689,12.798,38.219,22.283,4.865,9.957,8.643
1303,0.958,36.806,12.806,38.209,22.297,4.865,9.998,8.562
1304,0.925,36.481,12.829,38.19,22.28,4.743,9.877,8.48
1305,0.918,36.554,12.81,38.209,22.283,4.783,9.997,8.479
1306,0.931,36.68,12.837,38.19,22.283,4.742,10.039,8.438
1307,0.922,36.786,12.841,38.209,22.294,4.823,10.243,8.56
1308,0.912,36.605,12.876,38.2,22.29,4.824,10.245,8.602
1309,0.902,36.747,12.779,38.199,22.283,4.865,10.489,8.602
1310,0.895,36.883,12.798,38.199,22.283,4.784,10.573,8.602
1311,0.892,36.913,12.817,38.18,22.276,4.783,10.574,8.724
1312,0.902,36.712,12.86,38.209,22.287,4.946,10.736,8.807
1313,0.905,36.854,12.892,38.2,22.287,4.825,10.738,8.889
1314,0.912,36.98,12.857,38.219,22.297,4.946,10.9,9.052
1315,0.902,37.029,12.837,38.19,22.287,4.785,10.699,9.013
1316,0.905,36.732,12.775,38.199,22.283,4.864,10.778,9.135
1317,0.912,36.921,12.809,38.238,22.29,4.865,10.901,9.299
1318,0.902,37.028,12.81,38.2,22.287,4.906,10.902,9.382
1319,0.931,37.106,12.864,38.228,22.297,4.906,10.902,9.586
1320,0.918,36.771,12.845,38.181,22.287,4.784,10.861,9.751
1321,0.931,36.921,12.755,38.19,22.29,4.824,10.942,10.24
1322,0.944,37.067,12.786,38.199,22.283,4.783,10.943,10.57
1323,0.925,37.097,12.79,38.219,22.283,4.905,11.106,11.102
1324,0.912,36.858,12.852,38.2,22.29,4.825,11.108,11.595
1325,0.899,36.98,12.869,38.19,22.287,4.783,11.067,12.454
1326,0.892,37.115,12.873,38.199,22.283,4.864,11.107,13.357
1327,0.886,37.088,12.896,38.171,22.28,4.784,11.067,14.342
1328,0.882,36.848,12.846,38.209,22.297,4.864,11.229,15.612
1329,0.885,36.989,12.83,38.209,22.29,4.906,11.19,16.926
1330,0.872,37.096,12.818,38.219,22.294,4.987,11.271,18.24
1331,0.876,37.001,12.857,38.19,22.29,4.826,11.028,19.188
1332,0.876,36.885,12.845,38.18,22.29,4.865,11.147,20.255
1333,0.879,37.047,12.814,38.209,22.294,4.906,11.067,21.648
1334,0.882,37.145,12.755,38.209,22.294,4.947,10.985,23.451
1335,0.892,36.906,12.739,38.257,22.301,5.069,11.025,25.095
1336,0.866,36.952,12.809,38.248,22.283,4.826,10.903,26.291
1337,0.866,37.105,12.775,38.2,22.287,4.946,10.78,27.319
1338,0.866,37.193,12.837,38.209,22.287,4.825,10.779,27.898
1339,0.862,37.175,12.88,38.2,22.294,4.987,10.86,28.351
1340,0.862,37.319,12.783,38.199,22.29,4.907,10.861,28.437
1341,0.846,37.416,12.802,38.19,22.287,4.865,10.82,28.316
1342,0.859,37.503,12.821,38.199,22.287,4.946,10.861,27.949
1343,0.866,36.794,12.829,38.171,22.28,4.907,10.739,27.457
1344,0.872,36.96,12.868,38.199,22.29,4.906,10.9,27.168
1345,0.879,37.067,12.892,38.199,22.287,4.947,10.78,26.515
1346,0.866,37.145,12.881,38.19,22.297,5.029,10.86,25.979
1347,0.872,36.973,12.83,38.199,22.283,4.826,10.698,25.12
1348,0.853,37.134,12.818,38.199,22.29,4.865,10.656,24.42
1349,0.869,37.27,12.825,38.219,22.29,4.987,10.696,23.885
1350,0.869,37.31,12.864,38.19,22.294,4.988,10.616,23.188
1351,0.863,36.888,12.877,38.209,22.301,5.029,10.696,22.694
1352,0.853,36.99,12.783,38.19,22.276,4.867,10.331,21.957
1353,0.853,37.135,12.825,38.257,22.287,4.865,10.449,21.502
1354,0.853,37.194,12.802,38.2,22.29,4.865,10.206,21.051
1355,0.859,37.194,12.778,38.219,22.297,4.865,10.204,20.721
1356,0.866,37.338,12.802,38.209,22.29,4.906,10.123,20.311
1357,0.853,37.435,12.798,38.18,22.287,4.865,10.081,19.778
1358,0.849,37.446,12.868,38.18,22.287,4.824,9.999,19.366
1359,0.849,36.871,12.771,38.171,22.276,4.783,9.999,18.834
1360,0.862,37.037,12.817,38.228,22.29,4.986,10.202,18.625
1361,0.856,37.135,12.821,38.19,22.294,4.948,10.123,18.216
1362,0.879,37.05,12.857,38.199,22.297,4.907,10.122,17.928
1363,0.866,37.01,12.873,38.19,22.28,4.865,9.919,17.396
1364,0.853,37.135,12.877,38.19,22.297,4.946,9.957,17.228
1365,0.853,37.261,12.857,38.209,22.29,4.947,9.876,17.186
1366,0.833,36.84,12.822,38.2,22.29,4.947,9.876,17.145
1367,0.83,36.97,12.802,38.286,22.304,4.988,9.835,17.226
1368,0.813,37.058,12.778,38.172,22.28,4.826,9.59,17.023
1369,0.823,37.154,12.872,38.19,22.283,4.905,9.588,17.103
1370,0.807,36.935,12.838,38.18,22.283,4.825,9.507,16.9
1371,0.82,37.067,12.771,38.199,22.297,4.865,9.587,16.817
1372,0.817,37.183,12.817,38.199,22.294,4.946,9.344,16.653
1373,0.794,37.252,12.814,38.171,22.287,4.907,9.382,16.448
1374,0.793,36.782,12.837,38.18,22.287,4.906,9.301,16.162
1375,0.793,36.902,12.841,38.161,22.276,4.784,9.219,15.915
1376,0.79,37.067,12.869,38.218,22.297,4.986,9.3,15.872
1377,0.793,37.135,12.892,38.18,22.287,4.907,9.178,15.465
1378,0.819,36.906,12.826,38.19,22.294,4.987,9.177,15.339
1379,0.833,37.019,12.814,38.18,22.283,4.866,9.015,14.85
1380,0.846,37.154,12.833,38.199,22.294,4.865,9.013,14.641
1381,0.866,37.203,12.872,38.209,22.301,4.946,9.013,14.395
1382,0.866,36.926,12.865,38.2,22.287,4.947,8.972,14.23
1383,0.866,37.096,12.834,38.228,22.297,5.029,9.135,14.025
1384,0.846,37.164,12.759,38.152,22.283,4.826,8.933,13.698
1385,0.846,37.194,12.751,38.18,22.287,4.905,8.972,13.532
1386,0.846,36.801,12.786,38.18,22.283,4.906,9.013,13.205
1387,0.849,36.95,12.782,38.19,22.29,4.906,9.216,13.039
1388,0.833,37.067,12.848,38.171,22.29,4.865,9.218,12.875
1389,0.813,37.202,12.857,38.161,22.283,4.906,9.218,12.629
1390,0.813,36.82,12.755,38.189,22.287,4.865,9.218,12.424
1391,0.807,36.931,12.786,38.161,22.276,4.784,9.178,12.178
1392,0.81,37.086,12.817,38.189,22.29,4.946,9.34,12.175
1393,0.803,36.838,12.853,38.171,22.287,4.907,9.382,11.891
1394,0.784,36.826,12.873,38.17,22.297,4.987,9.423,11.806
1395,0.806,36.96,12.892,38.17,22.283,4.866,9.424,11.48
1396,0.807,37.038,12.885,38.17,22.29,4.865,9.424,11.396
1397,0.836,36.723,12.846,38.19,22.29,4.946,9.505,11.232
1398,0.839,36.825,12.822,38.161,22.29,4.907,9.465,11.149
1399,0.865,36.979,12.829,38.209,22.297,5.109,9.587,11.067
1400,0.872,37.019,12.849,38.142,22.28,4.786,9.425,10.741
1401,0.869,36.675,12.857,38.18,22.287,4.864,9.383,10.697
1402,0.869,36.825,12.763,38.171,22.29,4.824,9.423,10.575
1403,0.866,36.951,12.762,38.209,22.294,4.905,9.383,10.492
1404,0.879,37.029,12.797,38.161,22.287,4.865,9.464,10.288
1405,0.869,36.655,12.806,38.142,22.28,4.824,9.424,10.083
1406,0.866,36.796,12.856,38.151,22.287,4.905,9.342,10.04
1407,0.849,36.922,12.861,38.141,22.28,4.744,9.301,9.877
1408,0.856,37.009,12.888,38.16,22.294,4.945,9.463,9.957
1409,0.84,36.713,12.787,38.161,22.287,4.866,9.424,9.754
1410,0.83,36.834,12.798,38.161,22.283,4.865,9.424,9.793
1411,0.817,36.96,12.794,38.142,22.283,4.865,9.261,9.59
1412,0.8,37.0,12.825,38.132,22.287,4.865,9.341,9.507
1413,0.81,36.607,12.896,38.17,22.294,4.906,9.423,9.425
1414,0.794,36.728,12.834,38.151,22.29,4.906,9.424,9.383
1415,0.793,36.863,12.841,38.17,22.297,5.028,9.627,9.382
1416,0.784,36.865,12.798,38.122,22.28,4.867,9.466,9.139
1417,0.774,36.74,12.837,38.16,22.28,4.946,9.465,9.095
1418,0.8,36.892,12.802,38.161,22.287,4.907,9.587,9.136
1419,0.807,36.999,12.86,38.151,22.287,4.947,9.669,9.177
1420,0.816,37.24,12.873,38.161,22.29,4.866,9.751,9.218
1421,0.82,36.677,12.752,38.142,22.283,4.824,9.752,9.178
1422,0.817,36.825,12.786,38.132,22.29,4.824,9.833,9.34
1423,0.826,36.922,12.79,38.132,22.276,4.783,9.834,9.342
1424,0.839,36.702,12.809,38.17,22.297,4.905,10.119,9.667
1425,0.836,36.729,12.853,38.142,22.283,4.987,10.081,9.955
1426,0.826,36.854,12.873,38.151,22.287,4.907,10.121,10.445
1427,0.83,36.951,12.888,38.122,22.283,4.825,10.081,10.776
1428,0.83,36.54,12.838,38.112,22.28,4.824,10.04,11.185
1429,0.839,36.699,12.837,38.16,22.29,4.946,10.121,11.637
1430,0.813,36.825,12.833,38.142,22.29,4.866,10.122,12.17
1431,0.829,36.912,12.872,38.16,22.301,5.028,10.122,12.541
1432,0.83,36.472,12.873,38.142,22.283,4.826,10.0,12.626
1433,0.839,36.612,12.83,38.141,22.287,4.824,9.958,12.912
1434,0.836,36.776,12.747,38.141,22.29,4.865,9.998,13.199
1435,0.836,36.845,12.727,38.16,22.287,4.865,9.999,13.405
1436,0.856,36.567,12.782,38.228,22.29,4.906,9.958,13.448
1437,0.843,36.68,12.778,38.133,22.287,4.825,9.876,13.367
1438,0.846,36.805,12.833,38.132,22.29,4.824,9.835,13.407
1439,0.84,36.864,12.853,38.122,22.287,4.824,9.794,13.245
1440,0.836,36.635,12.794,38.141,22.29,4.905,9.875,13.324
1441,0.826,36.757,12.798,38.151,22.287,4.906,9.753,13.244
1442,0.836,36.873,12.81,38.132,22.283,4.865,9.752,13.162
1443,0.833,36.932,12.853,38.141,22.287,4.824,9.793,12.958
1444,0.823,36.357,12.869,38.103,22.276,4.783,9.509,12.874
1445,0.843,36.514,12.888,38.141,22.29,4.905,9.709,13.158
1446,0.833,36.631,12.881,38.141,22.283,4.865,9.589,13.445
1447,0.843,36.652,12.83,38.141,22.29,4.906,9.588,13.936
1448,0.846,36.68,12.822,38.132,22.28,4.825,9.425,14.266
1449,0.827,36.786,12.79,38.141,22.29,4.783,9.464,14.839
1450,0.843,36.941,12.86,38.141,22.294,4.864,9.546,15.414
1451,0.849,36.846,12.88,38.122,22.294,4.784,9.506,16.07
1452,0.853,36.481,12.822,38.17,22.304,5.027,9.587,16.687
1453,0.846,36.564,12.763,38.113,22.283,4.785,9.588,17.018
1454,0.836,36.708,12.79,38.131,22.29,4.905,9.71,17.55
1455,0.83,36.48,12.802,38.122,22.287,4.784,9.833,17.88
1456,0.836,36.564,12.817,38.151,22.287,4.864,9.997,18.412
1457,0.826,36.68,12.833,38.122,22.294,4.865,10.202,18.784
1458,0.813,36.748,12.872,38.112,22.287,4.906,10.326,19.763
1459,0.826,36.394,12.814,38.122,22.287,4.865,10.408,21.074
1460,0.83,36.524,12.794,38.103,22.283,4.824,10.572,22.469
1461,0.849,36.679,12.817,38.141,22.297,4.905,10.736,23.906
1462,0.833,36.777,12.872,38.141,22.29,4.865,10.779,24.937
1463,0.833,36.423,12.923,38.16,22.301,4.987,10.86,25.72
1464,0.83,36.534,12.889,38.132,22.287,4.866,10.82,26.012
1465,0.826,36.67,12.857,38.113,22.287,4.865,10.779,26.34
1466,0.833,36.767,12.826,38.131,22.294,4.906,10.86,26.425
1467,0.83,36.375,12.747,38.141,22.29,4.906,10.902,26.426
1468,0.839,36.534,12.813,38.16,22.304,4.987,10.943,26.263
1469,0.826,36.622,12.837,38.103,22.287,4.866,10.821,25.936
1470,0.843,36.699,12.884,38.122,22.283,4.906,10.82,25.567
1471,0.849,36.393,12.775,38.103,22.28,4.784,10.82,24.913
1472,0.843,36.553,12.802,38.131,22.287,4.905,10.901,24.54
1473,0.843,36.641,12.798,38.132,22.29,4.865,10.861,24.049
1474,0.839,36.7,12.802,38.122,22.29,4.906,11.024,23.353
1475,0.836,36.345,12.868,38.122,22.28,4.825,10.944,22.614
1476,0.833,36.466,12.845,38.112,22.283,4.824,10.984,21.997
1477,0.856,36.621,12.896,38.141,22.29,4.946,11.106,21.503
1478,0.856,36.642,12.857,38.122,22.283,4.907,11.026,20.929
1479,0.846,36.374,12.841,38.151,22.297,5.069,11.147,20.476
1480,0.84,36.496,12.798,38.122,22.276,4.826,10.986,19.739
1481,0.849,36.612,12.864,38.122,22.29,4.824,11.066,19.285
1482,0.849,36.594,12.88,38.132,22.287,4.987,11.066,18.792
1483,0.84,36.488,12.842,38.122,22.294,4.907,11.107,18.34
1484,0.836,36.631,12.814,38.141,22.294,4.865,11.026,17.888
1485,0.807,36.7,12.739,38.113,22.273,4.824,10.985,17.396
1486,0.79,36.288,12.793,38.131,22.283,4.783,11.025,16.944
1487,0.797,36.36,12.778,38.093,22.276,4.742,10.903,16.492
1488,0.803,36.524,12.829,38.131,22.287,4.945,11.065,16.325
1489,0.797,36.603,12.841,38.122,22.287,4.907,10.944,15.917
1490,0.771,36.21,12.798,38.112,22.287,4.947,10.984,15.709
1491,0.78,36.34,12.81,38.122,22.287,4.825,10.903,15.301
1492,0.774,36.428,12.794,38.112,22.283,4.905,10.902,14.971
1493,0.78,36.573,12.833,38.141,22.29,4.865,10.983,14.846
1494,0.771,36.267,12.865,38.141,22.297,4.987,10.862,14.519
1495,0.78,36.408,12.908,38.16,22.301,5.029,10.983,14.394
1496,0.777,36.496,12.885,38.103,22.276,4.745,10.74,14.027
1497,0.79,36.602,12.861,38.122,22.283,4.905,10.657,13.698
1498,0.787,36.268,12.841,38.122,22.287,4.825,10.574,13.492
1499,0.79,36.399,12.802,38.132,22.287,4.824,10.614,13.286
1500,0.806,36.534,12.841,38.132,22.29,4.865,10.615,13.04
1501,0.8,36.555,12.865,38.113,22.283,4.824,10.493,12.794
1502,0.803,36.267,12.799,38.122,22.287,4.783,10.491,12.629
1503,0.833,36.437,12.724,38.112,22.276,4.702,10.369,12.302
1504,0.836,36.573,12.77,38.17,22.29,4.863,10.49,12.217
1505,0.82,36.584,12.774,38.132,22.29,4.865,10.41,12.013
1506,0.81,36.344,12.79,38.113,22.287,4.784,10.409,11.889
1507,0.807,36.505,12.825,38.122,22.283,4.742,10.409,11.685
1508,0.797,36.574,12.88,38.084,22.29,4.701,10.45,11.52
1509,0.807,36.632,12.814,38.15,22.301,4.863,10.613,11.437
1510,0.797,36.23,12.825,38.132,22.294,4.824,10.615,11.273
1511,0.8,36.389,12.829,38.16,22.297,4.946,10.696,11.231
1512,0.79,36.467,12.849,38.103,22.283,4.825,10.656,10.905
1513,0.78,36.343,12.908,38.122,22.287,4.783,10.778,10.861
1514,0.793,36.313,12.861,38.132,22.294,4.864,10.779,10.78
1515,0.78,36.428,12.826,38.132,22.29,4.906,10.86,10.698
1516,0.8,36.563,12.825,38.16,22.297,4.906,10.902,10.616
1517,0.794,36.239,12.685,38.132,22.276,4.744,10.658,10.493
1518,0.806,36.369,12.793,38.122,22.29,4.783,10.696,10.491
1519,0.807,36.524,12.864,38.112,22.29,4.742,10.656,10.329
1520,0.79,36.593,12.877,38.131,22.297,4.823,10.656,10.408
1521,0.8,36.248,12.814,38.141,22.29,4.865,10.615,10.328
1522,0.787,36.36,12.818,38.113,22.283,4.743,10.452,10.286
1523,0.793,36.476,12.798,38.112,22.287,4.783,10.41,10.245
1524,0.8,36.554,12.825,38.103,22.273,4.702,10.287,10.245
1525,0.8,36.277,12.864,38.131,22.287,4.863,10.367,10.367
1526,0.797,36.399,12.861,38.122,22.287,4.865,10.328,10.287
1527,0.79,36.505,12.869,38.132,22.287,4.824,10.246,10.367
1528,0.8,36.583,12.814,38.122,22.287,4.743,10.164,10.287
1529,0.803,36.267,12.81,38.112,22.283,4.783,10.082,10.367
1530,0.82,36.437,12.81,38.131,22.29,4.783,10.162,10.653
1531,0.807,36.554,12.86,38.113,22.297,4.824,10.041,10.818
1532,0.829,36.632,12.896,38.141,22.304,4.905,10.162,11.064
1533,0.82,36.287,12.861,38.093,22.28,4.744,9.838,10.985
1534,0.817,36.437,12.798,38.122,22.283,4.823,9.956,11.147
1535,0.816,36.573,12.767,38.132,22.294,4.824,9.917,11.311
1536,0.81,36.603,12.716,38.141,22.29,4.783,9.835,11.475
1537,0.82,36.287,12.77,38.16,22.29,4.905,9.794,11.477
1538,0.81,36.38,12.821,38.113,22.283,4.703,9.631,11.518
1539,0.829,36.515,12.849,38.122,22.287,4.823,9.548,11.559
1540,0.826,36.526,12.755,38.122,22.276,4.783,9.384,11.437
1541,0.8,36.382,12.801,38.122,22.29,4.783,9.627,11.639
1542,0.803,36.505,12.79,38.122,22.29,4.824,9.466,11.641
1543,0.797,36.621,12.829,38.132,22.29,4.783,9.424,11.641
1544,0.787,36.316,12.888,38.122,22.283,4.783,9.342,11.479
1545,0.774,36.226,12.881,38.103,22.28,4.783,9.301,11.477
1546,0.78,36.417,12.916,38.151,22.294,4.864,9.382,11.599
1547,0.771,36.496,12.861,38.132,22.294,4.824,9.342,11.56
1548,0.764,36.257,12.826,38.151,22.301,4.905,9.464,11.64
1549,0.757,36.341,12.798,38.122,22.29,4.744,9.302,11.397
1550,0.764,36.476,12.841,38.132,22.28,4.864,9.341,11.476
1551,0.764,36.573,12.872,38.132,22.287,4.784,9.301,11.396
1552,0.751,36.181,12.806,38.132,22.294,4.742,9.26,11.354
1553,0.751,36.35,12.767,38.141,22.29,4.783,9.259,11.273
1554,0.738,36.438,12.809,38.113,22.283,4.742,9.178,11.19
1555,0.731,36.535,12.798,38.122,22.283,4.742,9.137,11.068
1556,0.754,36.2,12.813,38.112,22.28,4.701,9.055,10.944
1557,0.783,36.36,12.833,38.151,22.297,4.823,9.217,10.984
1558,0.774,36.467,12.876,38.122,22.29,4.783,9.178,10.903
1559,0.787,36.554,12.81,38.132,22.29,4.824,9.259,10.902
1560,0.8,36.248,12.81,38.132,22.287,4.743,9.178,10.983
1561,0.797,36.379,12.794,38.141,22.29,4.823,9.218,11.513
1562,0.816,36.534,12.845,38.151,22.29,4.865,9.259,12.331
1563,0.81,36.555,12.88,38.122,22.28,4.784,9.178,13.153
1564,0.82,36.334,12.892,38.179,22.297,4.905,9.34,14.137
1565,0.8,36.428,12.877,38.113,22.283,4.784,9.097,15.366
1566,0.8,36.563,12.857,38.131,22.287,4.783,9.176,17.737
1567,0.794,36.603,12.771,38.141,22.29,4.824,9.177,20.769
1568,0.79,36.296,12.786,38.132,22.29,4.824,9.259,23.686
1569,0.793,36.456,12.856,38.16,22.29,4.905,9.219,26.195
1570,0.761,36.516,12.865,38.122,22.283,4.703,9.178,28.009
1571,0.757,36.852,12.806,38.132,22.287,4.742,9.218,29.329
1572,0.744,36.404,12.802,38.16,22.283,4.823,9.096,30.114
1573,0.751,36.553,12.802,38.142,22.287,4.865,9.298,30.691
1574,0.751,36.66,12.829,38.122,22.29,4.865,9.219,30.86
1575,0.751,36.355,12.833,38.141,22.287,4.824,9.34,30.739
1576,0.761,36.342,12.849,38.113,22.29,4.783,9.301,30.209
1577,0.761,36.447,12.884,38.112,22.283,4.742,9.341,29.676
1578,0.767,36.592,12.857,38.141,22.294,4.823,9.586,29.02
1579,0.774,36.325,12.837,38.151,22.294,4.865,9.588,28.281
1580,0.79,36.447,12.814,38.151,22.294,4.906,9.751,27.542
1581,0.774,36.554,12.829,38.141,22.28,4.744,9.59,26.518
1582,0.787,36.67,12.865,38.132,22.29,4.823,9.669,25.776
1583,0.816,36.268,12.838,38.16,22.29,4.824,9.711,24.996
1584,0.82,36.408,12.802,38.151,22.297,4.824,9.792,24.257
1585,0.817,36.563,12.802,38.17,22.301,4.905,9.915,23.802
1586,0.807,36.593,12.732,38.113,22.287,4.784,9.794,23.391
1587,0.797,36.287,12.778,38.131,22.287,4.783,9.834,23.224
1588,0.8,36.428,12.802,38.122,22.276,4.742,9.834,23.06
1589,0.794,36.534,12.88,38.141,22.287,4.823,10.078,23.058
1590,0.784,36.612,12.795,38.132,22.29,4.865,10.081,22.936
1591,0.771,36.344,12.794,38.132,22.283,4.743,10.121,22.691
1592,0.774,36.486,12.802,38.141,22.287,4.823,10.203,22.485
1593,0.758,36.583,12.841,38.093,22.276,4.702,10.123,22.158
1594,0.774,36.67,12.857,38.131,22.29,4.904,10.325,21.992
1595,0.767,36.383,12.876,38.132,22.283,4.865,10.368,21.624
1596,0.757,36.515,12.884,38.132,22.29,4.906,10.449,21.336
1597,0.761,36.631,12.865,38.122,22.283,4.825,10.491,20.764
1598,0.754,36.671,12.763,38.141,22.287,4.824,10.532,20.514
1599,0.77,36.403,12.805,38.141,22.29,4.865,10.573,20.268
1600,0.777,36.525,12.849,38.132,22.29,4.824,10.574,19.981
1601,0.771,36.67,12.9,38.17,22.304,4.946,10.696,19.815
1602,0.761,36.709,12.826,38.132,22.28,4.785,10.494,19.326
1603,0.774,36.461,12.767,38.132,22.29,4.824,10.614,19.036
1604,0.758,36.602,12.774,38.17,22.29,4.824,10.574,18.708
1605,0.777,36.738,12.778,38.228,22.287,4.865,10.696,18.542
1606,0.787,36.432,12.782,38.152,22.29,4.865,10.575,18.216
1607,0.787,36.467,12.798,38.122,22.283,4.824,10.574,18.05
1608,0.803,36.583,12.864,38.132,22.29,4.824,10.818,17.967
1609,0.781,36.661,12.83,38.113,22.28,4.702,10.739,17.763
1610,0.761,36.297,12.822,38.141,22.294,4.904,10.941,17.801
1611,0.754,36.408,12.806,38.132,22.287,4.784,10.943,17.558
1612,0.761,36.534,12.845,38.16,22.294,4.864,11.065,17.636
1613,0.767,36.603,12.872,38.142,22.287,4.784,11.026,17.637
1614,0.757,36.354,12.861,38.122,22.29,4.742,11.147,17.8
1615,0.777,36.524,12.849,38.16,22.297,4.905,11.23,18.046
1616,0.797,36.631,12.853,38.132,22.287,4.865,11.353,18.292
1617,0.829,36.728,12.787,38.18,22.304,4.987,11.476,18.457
1618,0.8,36.231,12.786,38.123,22.283,4.744,11.396,18.377
1619,0.816,36.379,12.813,38.151,22.287,4.783,11.517,18.377
1620,0.826,36.515,12.864,38.122,22.297,4.783,11.559,18.214
1621,0.823,36.593,12.838,38.17,22.287,4.864,11.681,18.293
1622,0.826,36.325,12.829,38.151,22.29,4.824,11.723,18.091
1623,0.817,36.447,12.794,38.122,22.287,4.783,11.723,17.764
1624,0.816,36.583,12.798,38.141,22.283,4.864,11.764,17.557
1625,0.829,36.613,12.829,38.103,22.276,4.702,11.602,17.271
1626,0.83,36.44,12.841,38.141,22.29,4.823,11.803,17.064
1627,0.823,36.563,12.853,38.151,22.297,4.743,11.684,16.859
1628,0.83,36.68,12.853,38.161,22.29,4.905,11.804,16.572
1629,0.813,36.71,12.818,38.132,22.283,4.744,11.562,16.122
1630,0.81,36.652,12.802,38.141,22.29,4.783,11.559,15.915
1631,0.79,36.815,12.856,38.151,22.29,4.824,11.559,15.668
1632,0.787,36.893,12.873,38.113,22.29,4.865,11.478,15.503
1633,0.8,36.683,12.857,38.17,22.297,4.946,11.477,15.299
1634,0.787,36.278,12.822,38.122,22.283,4.744,11.233,15.174
1635,0.78,36.427,12.798,38.132,22.283,4.783,11.353,15.173
1636,0.806,36.534,12.755,38.132,22.283,4.783,11.232,15.092
1637,0.82,36.344,12.782,38.141,22.29,4.824,11.312,15.05
1638,0.83,36.428,12.79,38.122,22.28,4.824,11.272,15.05
1639,0.833,36.506,12.88,38.112,22.283,4.743,11.15,14.887
1640,0.836,36.631,12.842,38.122,22.283,4.823,11.108,14.804
1641,0.83,36.297,12.794,38.122,22.276,4.743,10.985,14.763
1642,0.849,36.456,12.794,38.16,22.297,4.905,11.106,14.722
1643,0.843,36.554,12.81,38.161,22.287,4.825,11.067,14.64
1644,0.846,36.651,12.829,38.161,22.294,4.865,11.107,14.68
1645,0.856,36.326,12.865,38.122,22.287,4.743,11.067,14.396
1646,0.84,36.457,12.884,38.122,22.29,4.783,11.026,14.312
1647,0.836,36.602,12.916,38.132,22.297,4.946,11.066,14.229
1648,0.826,36.69,12.787,38.151,22.29,4.825,11.026,14.025
1649,0.817,36.259,12.809,38.17,22.297,5.027,11.188,13.942
1650,0.794,36.36,12.81,38.122,22.283,4.826,10.824,13.616
1651,0.793,36.495,12.853,38.141,22.294,4.865,10.901,13.531
1652,0.797,36.545,12.822,38.141,22.29,4.865,10.821,13.205
1653,0.787,36.382,12.763,38.141,22.29,4.906,10.82,13.202
1654,0.787,36.534,12.801,38.151,22.29,4.865,10.739,12.999
1655,0.819,36.622,12.786,38.218,22.283,4.865,10.697,12.793
1656,0.817,36.671,12.809,38.152,22.287,4.784,10.616,12.547
1657,0.803,36.422,12.825,38.103,22.28,4.742,10.493,12.342
1658,0.803,36.611,12.88,38.16,22.29,4.905,10.573,12.339
1659,0.79,36.738,12.861,38.142,22.287,4.906,10.533,12.014
1660,0.787,36.777,12.822,38.18,22.301,4.987,10.614,12.052
1661,0.79,36.298,12.794,38.132,22.29,4.826,10.411,11.686
1662,0.797,36.428,12.852,38.151,22.283,4.946,10.409,11.479
1663,0.807,36.563,12.884,38.161,22.287,4.866,10.369,11.436
1664,0.803,36.44,12.865,38.142,22.29,4.824,10.328,11.233
1665,0.833,36.41,12.884,38.16,22.301,4.905,10.327,11.068
1666,0.83,36.477,12.838,38.122,22.28,4.784,10.205,10.741
1667,0.813,36.602,12.747,38.141,22.287,4.783,10.245,10.738
1668,0.807,36.22,12.778,38.122,22.28,4.742,10.245,10.453
1669,0.794,36.293,12.833,38.151,22.287,4.905,10.367,10.532
1670,0.787,36.437,12.865,38.141,22.287,4.865,10.409,10.451
1671,0.764,36.506,12.783,38.132,22.29,4.865,10.45,10.613
1672,0.774,36.19,12.782,38.132,22.287,4.824,10.45,10.94
1673,0.771,36.292,12.782,38.103,22.273,4.743,10.45,11.553
1674,0.777,36.476,12.825,38.16,22.287,4.864,10.694,12.494
1675,0.761,36.554,12.861,38.151,22.29,4.865,10.656,13.276
1676,0.764,36.277,12.849,38.161,22.294,4.865,10.9,14.545
1677,0.754,36.408,12.869,38.132,22.29,4.824,10.739,16.224
1678,0.754,36.534,12.834,38.132,22.287,4.865,10.86,18.64
1679,0.767,36.641,12.833,38.16,22.297,4.906,11.105,21.347
1680,0.754,36.249,12.814,38.161,22.287,4.825,11.27,23.773
1681,0.774,36.408,12.864,38.189,22.301,4.987,11.516,25.871
1682,0.767,36.505,12.892,38.132,22.276,4.785,11.396,27.234
1683,0.787,36.564,12.865,38.16,22.287,4.864,11.598,28.345
1684,0.806,36.277,12.802,38.161,22.287,4.824,11.722,29.047
1685,0.8,36.418,12.747,38.161,22.294,4.905,12.049,29.461
1686,0.781,36.544,12.692,38.17,22.29,4.825,12.133,29.506
1687,0.774,36.555,12.789,38.142,22.28,4.783,12.215,29.221
1688,0.777,36.181,12.813,38.16,22.283,4.824,12.338,28.812
1689,0.764,36.302,12.86,38.132,22.273,4.743,12.421,28.198
1690,0.767,36.476,12.783,38.18,22.287,4.823,12.544,27.704
1691,0.774,36.449,12.794,38.161,22.287,4.865,12.545,26.927
1692,0.738,36.324,12.81,38.161,22.297,4.906,12.707,26.35
1693,0.764,36.437,12.833,38.151,22.276,4.744,12.546,25.49
1694,0.764,36.554,12.872,38.161,22.29,4.823,12.586,24.871
1695,0.79,36.296,12.912,38.161,22.294,4.987,12.586,24.296
1696,0.787,36.207,12.865,38.17,22.297,4.866,12.586,23.884
1697,0.79,36.35,12.857,38.209,22.301,4.906,12.586,23.473
1698,0.78,36.428,12.802,38.161,22.287,4.784,12.383,22.818
1699,0.793,36.16,12.81,38.151,22.294,4.905,12.421,22.487
1700,0.79,36.263,12.86,38.151,22.294,4.865,12.381,22.158
1701,0.793,36.399,12.877,38.18,22.29,4.946,12.258,21.952
1702,0.787,36.496,12.799,38.171,22.29,4.866,12.135,21.746
1703,0.78,36.171,12.712,38.161,22.283,4.824,12.053,21.5
1704,0.784,36.34,12.793,38.17,22.29,4.905,11.889,21.172
1705,0.777,36.447,12.77,38.122,22.276,4.784,11.725,20.803
1706,0.767,36.554,12.801,38.179,22.29,4.986,11.723,20.718
1707,0.774,36.162,12.833,38.171,22.287,4.948,11.561,20.555
1708,0.761,36.292,12.872,38.17,22.294,4.988,11.64,20.716
1709,0.757,36.408,12.803,38.161,22.283,4.866,11.397,20.677
1710,0.744,36.486,12.798,38.17,22.29,4.906,11.354,20.88
1711,0.757,36.075,12.829,38.161,22.297,4.906,11.395,21.004
1712,0.751,36.205,12.845,38.189,22.287,4.906,11.232,20.924
1713,0.751,36.36,12.892,38.199,22.301,4.987,11.312,20.801
1714,0.738,36.361,12.85,38.161,22.283,4.907,11.11,20.515
1715,0.747,36.208,12.81,38.17,22.287,4.865,11.148,20.39
1716,0.76,36.34,12.798,38.18,22.283,4.865,11.067,20.023
1717,0.761,36.476,12.778,38.228,22.294,4.946,11.107,19.775
1718,0.764,36.516,12.79,38.171,22.29,4.866,11.108,19.448
1719,0.767,36.228,12.845,38.142,22.28,4.865,10.904,19.038
1720,0.777,36.36,12.853,38.16,22.283,4.906,10.902,18.668
1721,0.777,36.467,12.775,38.161,22.276,4.784,10.78,18.217
1722,0.806,36.784,12.809,38.189,22.287,4.986,10.82,17.968
1723,0.807,36.145,12.794,38.18,22.283,4.907,10.698,17.559
1724,0.79,36.282,12.833,38.209,22.294,5.069,10.697,17.392
1725,0.764,36.36,12.861,38.171,22.283,4.826,10.412,16.822
1726,0.767,36.15,12.877,38.199,22.283,4.905,10.409,16.531
1727,0.78,36.167,12.908,38.19,22.29,4.865,10.369,16.203
1728,0.8,36.321,12.826,38.18,22.294,4.865,10.287,15.875
1729,0.807,36.457,12.822,38.209,22.297,4.946,10.245,15.627
1730,0.781,36.007,12.825,38.161,22.28,4.785,10.001,15.178
1731,0.767,36.108,12.872,38.161,22.28,4.864,9.999,14.807
1732,0.764,36.263,12.849,38.17,22.29,4.824,9.836,14.519
1733,0.751,36.36,12.791,38.19,22.287,4.865,9.875,14.353
1734,0.757,36.064,12.72,38.19,22.287,4.906,9.753,14.108
1735,0.744,36.186,12.692,38.161,22.28,4.865,9.712,13.821
1736,0.744,36.311,12.769,38.17,22.28,4.946,9.63,13.574
1737,0.754,36.389,12.77,38.161,22.276,4.825,9.548,13.287
1738,0.764,36.074,12.856,38.189,22.29,4.946,9.669,13.243
1739,0.757,36.205,12.837,38.171,22.283,4.907,9.629,13.08
1740,0.754,36.35,12.763,38.19,22.29,4.906,9.67,12.997
1741,0.77,36.428,12.797,38.18,22.287,4.947,9.629,12.793
1742,0.764,35.988,12.81,38.161,22.287,4.907,9.751,12.751
1743,0.783,36.175,12.86,38.199,22.29,5.028,9.996,12.547
1744,0.784,36.292,12.834,38.18,22.287,4.948,10.08,12.545
1745,0.803,36.36,12.865,38.19,22.301,5.029,10.284,12.423
1746,0.797,36.016,12.869,38.161,22.29,4.907,10.245,12.137
1747,0.82,36.147,12.826,38.18,22.283,4.987,10.448,12.134
1748,0.817,36.301,12.814,38.209,22.29,4.988,10.613,12.093
1749,0.816,36.332,12.818,38.18,22.287,4.948,10.737,12.012
1750,0.823,36.025,12.896,38.209,22.297,4.988,10.819,12.052
1751,0.804,36.118,12.846,38.161,22.283,4.948,10.779,11.971
1752,0.787,36.244,12.771,38.18,22.287,4.988,10.86,12.051
1753,0.764,36.437,12.77,38.209,22.28,4.866,10.78,11.93
1754,0.767,36.113,12.762,38.2,22.294,5.068,11.023,12.132
1755,0.774,36.234,12.782,38.199,22.287,4.989,10.985,12.093
1756,0.777,36.35,12.817,38.18,22.29,5.029,11.066,12.093
1757,0.761,35.977,12.821,38.18,22.287,4.989,10.985,12.012
1758,0.748,35.974,12.872,38.161,22.283,4.907,11.025,11.889
1759,0.777,36.146,12.81,38.199,22.29,5.069,11.066,11.888
1760,0.764,36.254,12.817,38.199,22.287,4.989,11.026,11.766
1761,0.78,36.14,12.825,38.219,22.297,5.151,11.147,11.805
1762,0.777,36.244,12.857,38.171,22.283,4.909,10.864,11.562
1763,0.78,36.379,12.873,38.18,22.287,5.028,10.861,11.437
1764,0.78,36.486,12.865,38.199,22.287,4.907,10.82,11.355
1765,0.8,35.835,12.841,38.18,22.287,4.947,10.82,11.354
1766,0.803,35.991,12.841,38.209,22.297,4.988,10.779,11.232
1767,0.797,36.099,12.724,38.18,22.28,4.866,10.616,11.149
1768,0.813,36.196,12.793,38.18,22.283,4.987,10.615,11.067
1769,0.81,35.976,12.845,38.18,22.28,4.907,10.452,10.904
1770,0.833,36.146,12.853,38.199,22.283,4.987,10.45,10.943
1771,0.839,36.273,12.791,38.18,22.28,4.948,10.328,10.862
1772,0.843,36.322,12.798,38.19,22.287,4.947,10.327,10.78
1773,0.862,35.881,12.806,38.171,22.283,4.866,10.165,10.738
1774,0.875,36.021,12.837,38.151,22.276,4.824,10.082,10.575
1775,0.921,36.176,12.861,38.199,22.29,4.987,10.162,10.655
1776,0.922,36.206,12.857,38.19,22.287,4.988,10.0,10.534
1777,0.954,36.024,12.892,38.209,22.283,5.029,9.999,10.777
1778,0.974,36.137,12.814,38.161,22.283,4.907,9.795,10.901
1779,0.974,36.263,12.802,38.199,22.283,4.906,9.793,11.268
1780,0.997,36.331,12.821,38.19,22.297,5.028,9.915,11.597
1781,1.017,35.939,12.864,38.199,22.287,4.907,9.957,12.088
1782,1.062,36.098,12.892,38.238,22.294,5.109,10.08,12.866
1783,1.118,36.157,12.814,38.19,22.28,4.908,9.999,13.809
1784,1.158,36.254,12.767,38.18,22.29,4.906,10.08,15.282
1785,1.213,36.14,12.727,38.199,22.294,4.906,10.121,16.679
1786,1.227,36.282,12.809,38.257,22.287,4.987,10.244,18.116
1787,1.26,36.399,12.786,38.219,22.297,4.988,10.57,19.146
1788,1.263,35.901,12.833,38.161,22.283,4.907,10.655,20.011
1789,1.263,35.925,12.822,38.17,22.287,5.069,10.94,20.832
1790,1.241,36.079,12.751,38.17,22.276,4.867,11.146,21.247
1791,1.224,36.195,12.793,38.18,22.297,5.028,11.555,21.82
1792,1.201,35.899,12.806,38.18,22.29,4.989,11.722,21.989
1793,1.149,36.021,12.86,38.18,22.287,5.029,11.968,22.153
1794,1.113,36.166,12.873,38.18,22.28,4.948,12.092,22.195
1795,1.151,36.235,12.881,38.161,22.28,4.825,12.256,22.237
1796,1.2,35.842,12.888,38.189,22.29,5.109,12.379,22.237
1797,1.224,35.963,12.814,38.18,22.287,4.989,12.462,22.156
1798,1.253,36.117,12.829,38.199,22.297,5.07,12.625,22.358
1799,1.309,36.167,12.798,38.18,22.283,4.989,12.464,22.319
1800,1.355,35.918,12.841,38.171,22.283,4.988,12.463,22.4
1801,1.398,36.059,12.841,38.18,22.283,5.07,12.544,22.564
1802,1.414,36.205,12.779,38.19,22.294,5.07,12.423,22.728
1803,1.431,36.302,12.794,38.276,22.304,5.07,12.503,22.77
1804,1.395,35.91,12.778,38.162,22.283,4.948,12.301,22.649
1805,1.398,36.059,12.79,38.17,22.287,4.947,12.258,22.729
1806,1.352,36.195,12.817,38.18,22.283,4.988,12.176,22.73
1807,1.29,36.244,12.841,38.199,22.29,5.029,12.094,22.811
1808,1.234,35.861,12.888,38.161,22.287,5.07,12.093,22.649
1809,1.143,35.973,12.791,38.17,22.287,4.948,12.012,22.688
1810,1.057,36.089,12.802,38.161,22.283,4.947,11.889,22.892
1811,0.978,36.119,12.813,38.161,22.269,4.866,11.766,23.341
1812,0.873,35.841,12.845,38.189,22.294,5.068,11.887,24.037
1813,0.778,35.953,12.888,38.171,22.29,4.989,11.725,24.735
1814,0.709,36.069,12.83,38.209,22.29,4.988,11.805,25.596
1815,0.65,36.042,12.814,38.171,22.283,4.988,11.643,26.092
1816,0.633,35.974,12.794,38.18,22.287,4.948,11.804,26.463
1817,0.626,36.127,12.735,38.18,22.294,4.988,11.806,26.67
1818,0.61,36.244,12.789,38.171,22.29,4.988,11.846,26.713
1819,0.622,35.928,12.872,38.199,22.297,5.151,11.928,26.673
1820,0.642,35.954,12.849,38.161,22.287,4.949,11.807,26.306
1821,0.662,36.117,12.779,38.17,22.287,4.988,11.928,25.937
1822,0.682,36.224,12.817,38.18,22.29,5.07,12.051,25.567
1823,0.721,35.861,12.802,38.18,22.29,5.03,12.133,25.075
1824,0.776,36.02,12.833,38.19,22.29,5.07,12.175,24.542
1825,0.79,36.099,12.81,38.161,22.273,4.908,12.135,23.845
1826,0.813,36.196,12.849,38.161,22.287,4.987,12.215,23.391
1827,0.842,35.87,12.88,38.161,22.28,4.948,12.135,22.777
1828,0.879,36.021,12.838,38.18,22.287,5.029,12.256,22.446
1829,0.898,36.166,12.81,38.171,22.294,4.907,12.298,21.873
1830,0.892,36.215,12.81,38.132,22.283,5.028,12.176,21.461
1831,0.899,35.813,12.856,38.16,22.287,4.948,12.135,20.969
1832,0.886,35.915,12.857,38.151,22.28,4.907,11.972,20.517
1833,0.889,36.088,12.845,38.17,22.297,5.028,12.092,20.268
1834,0.882,36.167,12.775,38.161,22.283,5.07,12.012,19.94
1835,0.879,35.918,12.731,38.18,22.294,5.03,12.011,19.612
1836,0.856,36.04,12.657,38.171,22.29,4.907,11.808,19.121
1837,0.817,36.157,12.789,38.17,22.29,5.028,11.765,18.831
1838,0.82,36.215,12.821,38.17,22.29,5.03,11.724,18.503
1839,0.813,35.794,12.853,38.161,22.29,5.03,11.723,18.093
1840,0.813,35.972,12.806,38.218,22.29,5.151,11.764,17.764
1841,0.803,36.041,12.794,38.161,22.28,4.949,11.48,17.232
1842,0.833,36.07,12.81,38.18,22.287,4.988,11.518,16.861
1843,0.826,35.994,12.86,38.18,22.287,4.988,11.437,16.532
1844,0.83,36.137,12.873,38.18,22.29,5.029,11.517,16.162
1845,0.839,36.234,12.892,38.19,22.29,5.03,11.396,15.834
1846,0.83,35.996,12.873,38.161,22.287,4.948,11.232,15.464
1847,0.839,35.878,12.818,38.18,22.287,4.947,11.271,15.054
1848,0.846,36.021,12.802,38.171,22.283,4.866,11.069,14.725
1849,0.843,36.137,12.798,38.17,22.29,5.068,11.066,14.64
1850,0.849,35.841,12.864,38.17,22.287,4.989,11.107,14.273
1851,0.817,35.944,12.845,38.17,22.287,5.029,10.985,14.026
1852,0.826,36.069,12.783,38.18,22.287,4.948,10.903,13.779
1853,0.833,36.176,12.813,38.218,22.29,5.029,10.902,13.492
1854,0.852,35.851,12.794,38.19,22.294,5.03,10.821,13.367
1855,0.859,35.982,12.794,38.18,22.29,5.03,10.779,13.041
1856,0.872,36.127,12.798,38.209,22.297,5.192,10.982,12.916
1857,0.843,36.177,12.802,38.171,22.28,4.909,10.781,12.548
1858,0.856,35.822,12.853,38.17,22.283,4.987,10.82,12.382
1859,0.853,35.982,12.794,38.19,22.283,5.029,10.901,12.218
1860,0.853,36.108,12.817,38.18,22.294,4.948,11.024,12.013
1861,0.846,36.176,12.81,38.19,22.287,4.988,10.985,11.808
1862,0.846,36.187,12.825,38.161,22.283,4.948,11.066,11.643
1863,0.84,36.34,12.872,38.17,22.276,4.907,11.026,11.397
1864,0.82,36.438,12.853,38.151,22.283,4.865,10.944,11.273
1865,0.833,36.525,12.88,38.18,22.29,5.109,11.065,11.272
1866,0.817,35.615,12.822,38.171,22.29,4.949,11.026,11.231
1867,0.81,35.759,12.755,38.17,22.294,5.029,11.107,11.271
1868,0.816,35.866,12.801,38.161,22.283,4.907,10.904,11.069
1869,0.81,35.896,12.813,38.17,22.29,4.987,10.943,11.188
1870,0.839,36.002,12.857,38.18,22.29,4.948,10.984,11.393
1871,0.846,36.137,12.775,38.18,22.294,5.029,10.862,11.558
1872,0.836,36.282,12.805,38.199,22.304,5.03,11.024,11.884
1873,0.833,36.274,12.81,38.161,22.277,4.907,10.7,12.01
1874,0.836,35.833,12.821,38.161,22.287,5.028,10.616,12.336
1875,0.839,35.972,12.849,38.18,22.29,5.03,10.533,12.462
1876,0.833,36.079,12.872,38.19,22.29,4.989,10.573,12.707
1877,0.846,35.965,12.916,38.19,22.294,5.07,10.37,12.79
1878,0.84,35.945,12.846,38.142,22.287,4.908,10.246,12.873
1879,0.836,36.108,12.806,38.16,22.29,4.987,10.245,12.873
1880,0.843,36.196,12.782,38.142,22.28,4.907,10.082,12.833
1881,0.853,35.717,12.876,38.17,22.294,4.987,10.203,13.036
1882,0.862,35.837,12.861,38.151,22.29,4.988,10.082,12.956
1883,0.892,35.944,12.834,38.18,22.283,4.948,10.081,12.996
1884,0.905,36.041,12.783,38.18,22.287,4.907,9.918,12.875
1885,0.895,35.811,12.747,38.132,22.283,4.865,9.916,12.67
1886,0.886,35.982,12.747,38.199,22.29,4.987,10.039,12.668
1887,0.898,36.108,12.778,38.18,22.287,4.948,9.918,12.587
1888,0.889,36.205,12.821,38.18,22.297,5.069,10.161,12.708
1889,0.866,35.861,12.825,38.161,22.287,4.826,10.0,12.384
1890,0.872,36.02,12.779,38.18,22.287,4.946,10.161,12.462
1891,0.879,36.176,12.79,38.19,22.29,5.029,10.366,12.422
1892,0.869,36.235,12.79,38.18,22.29,4.989,10.409,12.381
1893,0.869,35.861,12.821,38.209,22.297,5.029,10.613,12.381
1894,0.837,35.944,12.853,38.142,22.28,4.907,10.574,12.258
1895,0.839,36.098,12.876,38.17,22.287,4.906,10.736,12.298
1896,0.836,36.148,12.877,38.151,22.283,4.906,10.9,12.217
1897,0.839,35.764,12.869,38.161,22.294,5.028,11.065,12.216
1898,0.836,35.895,12.818,38.257,22.29,4.948,11.188,12.216
1899,0.833,36.002,12.794,38.171,22.283,4.947,11.312,12.135
1900,0.843,36.051,12.837,38.161,22.29,4.988,11.394,12.012
1901,0.843,35.859,12.849,38.132,22.273,4.907,11.395,12.092
1902,0.866,36.03,12.81,38.189,22.294,5.028,11.558,12.337
1903,0.859,36.118,12.755,38.18,22.283,4.989,11.519,12.462
1904,0.869,36.474,12.774,38.18,22.297,5.07,11.721,13.073
1905,0.856,35.998,12.786,38.161,22.283,4.908,11.52,13.933
1906,0.856,36.127,12.798,38.17,22.283,4.947,11.559,15.649
1907,0.875,36.273,12.798,38.17,22.29,4.988,11.6,17.821
1908,0.869,35.804,12.849,38.18,22.29,4.948,11.56,19.875
1909,0.882,35.799,12.849,38.199,22.294,5.069,11.64,21.726
1910,0.856,35.886,12.794,38.161,22.273,4.867,11.397,22.882
1911,0.866,36.011,12.798,38.17,22.283,4.987,11.395,23.87
1912,0.872,35.878,12.841,38.17,22.287,4.826,11.395,24.652
1913,0.866,36.011,12.865,38.19,22.29,4.987,11.476,25.148
1914,0.869,36.137,12.865,38.18,22.294,4.948,11.436,25.397
1915,0.859,36.206,12.841,38.161,22.283,4.866,11.314,25.399
1916,0.869,35.813,12.818,38.17,22.29,4.987,11.272,25.277
1917,0.872,35.943,12.739,38.151,22.28,4.826,11.19,24.869
1918,0.882,36.108,12.782,38.189,22.29,4.987,11.271,24.662
1919,0.892,36.167,12.813,38.171,22.283,4.988,11.231,24.294
1920,0.892,35.822,12.86,38.17,22.29,4.988,11.19,23.965
1921,0.899,35.963,12.798,38.17,22.283,4.948,11.068,23.596
1922,0.886,36.098,12.794,38.151,22.28,4.866,10.904,23.47
1923,0.885,36.196,12.798,38.18,22.29,5.028,11.024,23.347
1924,0.905,35.842,12.802,38.161,22.287,4.948,10.903,23.142
1925,0.908,35.992,12.813,38.18,22.301,5.029,10.821,23.018
1926,0.873,36.079,12.829,38.142,22.28,4.907,10.535,22.651
1927,0.879,36.128,12.853,38.17,22.287,4.906,10.573,22.444
1928,0.898,35.784,12.857,38.17,22.287,4.987,10.451,22.158
1929,0.902,35.924,12.826,38.228,22.287,4.948,10.41,21.992
1930,0.899,36.088,12.81,38.2,22.301,4.988,10.409,21.787
1931,0.869,36.052,12.825,38.123,22.283,4.866,10.084,21.379
1932,0.872,35.869,12.868,38.141,22.283,4.865,10.162,21.171
1933,0.866,35.992,12.849,38.16,22.29,4.906,10.041,20.803
1934,0.876,36.127,12.837,38.161,22.294,4.987,9.999,20.596
1935,0.879,36.167,12.763,38.161,22.29,4.948,9.958,20.228
1936,0.866,35.822,12.743,38.161,22.28,4.907,9.917,19.899
1937,0.866,35.982,12.782,38.161,22.283,4.906,9.794,19.571
1938,0.866,36.07,12.786,38.122,22.276,4.784,9.671,19.242
1939,0.879,35.84,12.856,38.16,22.29,4.986,9.792,19.158
1940,0.889,35.876,12.814,38.161,22.287,4.948,9.834,18.832
1941,0.905,36.011,12.802,38.237,22.29,4.988,9.834,18.503
1942,0.905,36.108,12.794,38.142,22.29,4.907,9.712,18.175
1943,0.899,35.649,12.813,38.141,22.283,4.906,9.63,17.927
1944,0.931,35.788,12.841,38.17,22.29,4.947,9.751,17.6
1945,0.925,35.905,12.88,38.161,22.29,4.988,9.712,17.312
1946,0.938,36.021,12.881,38.189,22.294,5.11,9.792,17.187
1947,0.928,35.706,12.892,38.132,22.283,4.908,9.631,16.779
1948,0.912,35.875,12.775,38.17,22.287,4.947,9.67,16.612
1949,0.915,36.011,12.802,38.17,22.301,5.029,9.67,16.407
1950,0.905,36.108,12.833,38.17,22.294,4.948,9.751,16.243
1951,0.889,35.745,12.868,38.18,22.294,5.11,9.915,16.038
1952,0.876,35.828,12.838,38.151,22.28,4.908,9.794,15.792
1953,0.879,35.982,12.779,38.161,22.29,4.947,9.996,15.505
1954,0.876,36.041,12.747,38.142,22.273,4.907,9.958,15.258
1955,0.866,35.831,12.79,38.199,22.29,5.069,10.242,15.296
1956,0.862,35.953,12.794,38.161,22.29,4.989,10.245,15.093
1957,0.856,36.06,12.802,38.161,22.287,4.988,10.448,14.928
1958,0.872,36.109,12.833,38.161,22.287,4.948,10.45,14.764
1959,0.863,35.668,12.81,38.142,22.28,4.907,10.45,14.6
1960,0.879,35.865,12.841,38.228,22.294,4.947,10.654,14.558
1961,0.885,35.982,12.79,38.181,22.283,4.988,10.737,14.435
1962,0.895,36.031,12.829,38.209,22.297,5.07,10.9,14.393
1963,0.879,35.859,12.833,38.152,22.287,4.908,10.739,13.946
1964,0.889,35.992,12.853,38.141,22.29,4.947,10.86,13.9
1965,0.892,36.099,12.888,38.16,22.29,4.907,10.861,13.697
1966,0.879,35.965,12.896,38.161,22.287,5.028,10.861,13.573
1967,0.898,35.801,12.818,38.17,22.294,4.948,10.861,13.409
1968,0.889,35.914,12.814,38.161,22.287,4.866,10.78,13.123
1969,0.902,36.031,12.798,38.161,22.294,4.987,10.82,13.039
1970,0.889,35.706,12.833,38.142,22.287,4.744,10.739,12.794
1971,0.918,35.789,12.833,38.16,22.29,4.986,10.941,12.751
1972,0.915,35.914,12.755,38.151,22.29,4.907,10.984,12.588
1973,0.918,36.021,12.766,38.18,22.29,5.028,11.106,12.464
1974,0.918,35.744,12.762,38.142,22.283,4.867,11.23,12.138
1975,0.918,35.847,12.778,38.151,22.283,4.865,11.393,12.053
1976,0.931,36.001,12.821,38.17,22.294,4.987,11.558,11.971
1977,0.931,36.089,12.849,38.161,22.29,4.948,11.762,11.807
1978,0.948,35.668,12.919,38.18,22.301,5.029,12.009,11.724
1979,0.928,35.779,12.791,38.161,22.287,4.867,11.889,11.52
1980,0.941,35.924,12.817,38.151,22.287,4.906,12.01,11.437
1981,0.941,36.031,12.794,38.161,22.294,4.906,12.092,11.273
1982,0.935,35.725,12.829,38.161,22.287,4.947,12.215,11.272
1983,0.941,35.866,12.837,38.17,22.283,4.907,12.216,11.109
1984,0.925,35.973,12.806,38.132,22.28,4.825,12.054,10.985
1985,0.915,36.031,12.79,38.141,22.28,4.905,12.133,10.944
1986,0.912,35.677,12.755,38.132,22.28,4.825,12.012,10.74
1987,0.905,35.856,12.801,38.141,22.297,4.946,12.133,10.9
1988,0.908,35.973,12.798,38.151,22.294,4.947,12.134,10.943
1989,0.882,36.012,12.868,38.141,22.287,4.988,12.215,10.74
1990,0.879,35.754,12.834,38.141,22.28,4.866,12.013,10.616
1991,0.872,35.885,12.775,38.113,22.28,4.865,12.092,10.574
1992,0.869,36.03,12.778,38.131,22.297,5.028,12.134,10.614
1993,0.882,36.051,12.798,38.141,22.29,4.948,12.012,10.615
1994,0.892,35.658,12.813,38.16,22.294,5.069,12.052,10.696
1995,0.886,35.76,12.857,38.113,22.28,4.908,11.727,10.453
1996,0.892,35.885,12.853,38.151,22.283,4.865,11.764,10.572
1997,0.905,35.819,12.904,38.141,22.294,4.987,11.764,10.533
1998,0.905,35.761,12.807,38.141,22.28,4.907,11.602,10.532
1999,0.918,35.914,12.833,38.17,22.301,5.028,11.641,10.573
2000,0.912,35.973,12.822,38.132,22.283,4.826,11.479,10.33
2001,0.915,35.676,12.857,38.132,22.283,4.946,11.518,10.408
2002,0.922,35.75,12.876,38.132,22.283,4.866,11.437,10.328
2003,0.938,35.876,12.806,38.141,22.283,4.946,11.517,10.368
2004,0.945,36.002,12.751,38.122,22.29,4.907,11.477,10.328
2005,0.951,35.61,12.708,38.112,22.283,4.906,11.518,10.286
2006,0.958,35.769,12.774,38.112,22.283,4.906,11.437,10.245
2007,0.935,35.857,12.766,38.093,22.28,4.784,11.314,10.164
2008,0.935,35.982,12.833,38.131,22.29,4.946,11.394,10.366
2009,0.925,35.677,12.849,38.132,22.287,4.866,11.314,10.246
2010,0.938,35.827,12.763,38.132,22.29,4.987,11.353,10.286
2011,0.938,35.943,12.786,38.084,22.283,4.866,11.191,10.042
2012,0.915,36.012,12.79,38.102,22.283,4.906,11.23,10.08
2013,0.912,35.869,12.872,38.112,22.294,4.947,11.312,10.081
2014,0.922,36.011,12.873,38.112,22.287,4.825,11.191,9.999
2015,0.931,36.166,12.9,38.141,22.297,4.987,11.312,10.121
2016,0.912,36.177,12.885,38.084,22.283,4.826,11.11,9.837
2017,0.922,35.64,12.826,38.102,22.283,4.865,11.148,9.916
2018,0.909,35.798,12.802,38.112,22.294,4.946,11.189,10.039
2019,0.899,35.924,12.782,38.103,22.29,4.947,11.23,10.324
2020,0.912,35.983,12.848,38.131,22.301,5.029,11.312,11.059
2021,0.918,35.878,12.849,38.084,22.276,4.867,11.15,11.636
2022,0.935,36.049,12.791,38.102,22.287,4.865,11.271,12.536
2023,0.945,36.157,12.747,38.103,22.28,4.865,11.312,13.277
2024,0.974,36.196,12.782,38.103,22.283,4.987,11.516,14.341
2025,0.974,35.928,12.782,38.103,22.283,4.907,11.559,15.531
2026,0.942,36.06,12.774,38.074,22.276,4.906,11.681,17.128
2027,0.958,36.176,12.817,38.064,22.29,4.865,11.683,18.893
2028,0.958,35.909,12.849,38.045,22.269,4.743,11.723,20.577
2029,0.964,35.887,12.791,38.112,22.29,4.986,11.805,21.977
2030,0.951,36.05,12.802,38.084,22.287,4.948,11.846,22.926
2031,0.954,36.157,12.79,38.093,22.294,5.069,11.928,23.748
2032,0.945,35.87,12.817,38.064,22.283,4.826,11.766,24.082
2033,0.932,35.992,12.868,38.083,22.29,4.905,11.887,24.248
2034,0.938,36.108,12.861,38.102,22.287,4.947,11.847,24.412
2035,0.938,36.205,12.865,38.083,22.29,4.947,11.725,24.251
2036,0.948,35.89,12.853,38.131,22.297,5.069,11.805,24.087
2037,0.932,35.982,12.771,38.045,22.287,4.826,11.562,23.516
2038,0.931,36.137,12.809,38.083,22.29,4.905,11.559,23.144
2039,0.925,36.215,12.845,38.093,22.29,4.865,11.519,22.571
2040,0.935,36.005,12.865,38.074,22.29,4.987,11.518,22.037
2041,0.954,36.156,12.826,38.083,22.287,4.988,11.477,21.503
2042,0.945,36.263,12.798,38.093,22.283,4.866,11.355,20.929
2043,0.954,36.331,12.79,38.083,22.287,4.906,11.395,20.598
2044,0.951,36.044,12.806,38.045,22.28,4.825,11.273,20.391
2045,0.961,36.205,12.81,38.083,22.294,4.987,11.475,20.673
2046,0.945,36.312,12.829,38.064,22.29,4.948,11.396,20.92
2047,0.935,36.38,12.857,38.054,22.287,4.988,11.436,21.207
2048,0.951,36.102,12.853,38.035,22.287,4.826,11.395,21.373
2049,0.915,36.205,12.791,38.064,22.283,4.865,11.395,21.618
2050,0.944,36.379,12.802,38.083,22.29,4.946,11.395,21.865
2051,0.945,36.39,12.817,38.074,22.287,4.907,11.314,22.07
2052,0.941,36.256,12.853,38.074,22.304,5.069,11.394,22.398
2053,0.954,36.37,12.849,38.054,22.28,4.867,11.151,22.279
2054,0.941,36.496,12.826,38.064,22.287,4.946,11.149,22.278
2055,0.935,36.823,12.822,38.054,22.287,4.947,11.108,22.156
2056,0.945,36.337,12.779,38.045,22.294,4.907,11.067,21.952
2057,0.961,36.533,12.813,38.179,22.297,4.947,11.066,21.583
2058,0.951,36.555,12.79,38.027,22.28,4.907,10.904,21.255
2059,0.974,36.43,12.841,38.044,22.283,4.947,10.902,20.926
2060,0.987,36.448,12.81,38.045,22.283,4.785,10.821,20.476
2061,0.984,36.621,12.747,38.064,22.294,4.946,10.942,20.268
2062,0.994,36.719,12.793,38.045,22.29,4.866,10.943,19.9
2063,1.004,36.307,12.81,38.054,22.294,4.906,10.984,19.489
2064,0.997,36.389,12.81,38.054,22.283,4.906,10.781,19.038
2065,0.984,36.515,12.829,38.035,22.283,4.865,10.901,18.627
2066,0.984,36.631,12.88,38.073,22.294,4.987,10.861,18.216
2067,0.968,36.613,12.873,38.054,22.287,4.988,10.861,17.846
2068,0.968,36.786,12.787,38.093,22.301,5.07,10.942,17.558
2069,0.945,36.883,12.79,38.026,22.283,4.826,10.781,16.945
2070,0.932,36.97,12.809,38.035,22.294,4.865,10.942,16.776
2071,0.925,36.53,12.856,38.044,22.287,4.865,10.902,16.368
2072,0.925,36.66,12.845,38.045,22.294,4.987,11.105,16.161
2073,0.925,36.796,12.771,38.064,22.283,4.907,10.985,15.834
2074,0.905,36.845,12.692,38.045,22.283,4.825,11.025,15.505
2075,0.918,36.663,12.738,38.083,22.29,4.865,10.985,15.299
2076,0.922,36.786,12.747,38.016,22.276,4.743,10.944,14.93
2077,0.925,36.912,12.813,38.044,22.294,4.905,11.024,14.805
2078,0.925,36.961,12.845,38.035,22.29,4.906,10.985,14.56
2079,0.931,36.712,12.845,38.025,22.29,4.947,10.944,14.516
2080,0.935,36.863,12.802,38.073,22.287,4.825,10.821,14.231
2081,0.928,36.951,12.778,38.026,22.283,4.824,10.82,14.188
2082,0.948,37.01,12.841,38.044,22.29,4.987,10.82,14.106
2083,0.964,36.866,12.849,38.054,22.287,4.948,10.657,13.983
2084,0.955,36.999,12.865,38.073,22.297,5.069,10.737,13.942
2085,0.941,37.087,12.845,38.016,22.287,4.745,10.413,13.657
2086,0.951,37.222,12.83,38.025,22.283,4.864,10.491,13.491
2087,0.98,36.897,12.775,38.035,22.29,4.906,10.573,13.408
2088,0.981,37.028,12.778,38.035,22.29,4.987,10.492,13.285
2089,0.977,37.145,12.805,38.054,22.297,4.988,10.654,13.203
2090,0.955,36.848,12.849,38.016,22.287,4.785,10.615,13.039
2091,0.958,36.922,12.814,38.025,22.283,4.864,10.696,12.997
2092,0.958,37.076,12.751,38.025,22.283,4.824,10.656,12.875
2093,0.958,37.174,12.801,38.025,22.297,4.905,10.737,12.873
2094,0.948,36.983,12.778,38.016,22.287,4.906,10.86,12.833
2095,0.935,37.096,12.786,38.006,22.283,4.784,10.861,12.792
2096,0.938,37.222,12.809,38.025,22.283,4.864,10.902,12.588
2097,0.922,37.281,12.833,37.987,22.283,4.784,10.821,12.505
2098,0.931,36.946,12.868,38.025,22.29,4.905,10.983,12.544
