time,ecg,bvp,gsr,rsp,skt,emg_zygo,emg_coru,emg_trap
0,0.721,37.581,16.312,33.166,24.366,8.849,5.687,12.545
1,0.728,37.706,16.338,33.166,24.366,8.889,5.768,12.464
2,0.738,37.41,16.354,33.185,24.373,8.89,5.768,12.625
3,0.738,37.359,16.389,33.185,24.366,8.89,5.768,12.627
4,0.741,37.474,16.331,33.233,24.359,8.809,5.647,12.627
5,0.738,37.609,16.35,33.157,24.366,8.889,5.686,12.708
6,0.751,37.352,16.428,33.176,24.373,8.93,5.768,12.872
7,0.764,37.503,16.351,33.185,24.369,8.89,5.728,12.873
8,0.751,37.59,16.358,33.157,24.359,8.768,5.646,12.873
9,0.751,37.678,16.413,33.137,24.355,8.807,5.727,12.751
10,0.761,37.391,16.405,33.166,24.366,8.93,5.727,12.913
11,0.78,37.551,16.351,33.185,24.373,8.931,5.85,12.955
12,0.774,37.648,16.354,33.176,24.362,8.809,5.688,12.793
13,0.777,37.755,16.389,33.147,24.366,8.767,5.646,12.954
14,0.777,37.344,16.311,33.166,24.373,8.889,5.767,13.118
15,0.78,37.483,16.361,33.157,24.366,8.809,5.768,13.201
16,0.784,37.609,16.378,33.156,24.366,8.889,5.768,13.283
17,0.78,37.697,16.385,33.243,24.373,8.971,5.768,13.406
18,0.78,37.295,16.378,33.167,24.366,8.85,5.728,13.285
19,0.777,37.406,16.413,33.147,24.355,8.889,5.687,13.284
20,0.777,37.561,16.413,33.156,24.366,8.971,5.727,13.406
21,0.78,37.639,16.359,33.176,24.366,9.053,5.85,13.57
22,0.774,37.467,16.424,33.176,24.373,9.054,5.688,13.531
23,0.761,37.561,16.382,33.157,24.362,8.973,5.687,13.531
24,0.741,37.668,16.432,33.109,24.352,8.931,5.605,13.531
25,0.741,37.726,16.409,33.156,24.366,9.093,5.808,13.693
26,0.741,37.324,16.374,33.176,24.373,9.136,5.891,13.857
27,0.741,37.426,16.397,33.147,24.369,8.974,5.729,13.574
28,0.728,37.561,16.382,33.156,24.366,8.972,5.727,13.612
29,0.741,37.936,16.358,33.166,24.366,8.972,5.809,13.613
30,0.738,37.384,16.424,33.157,24.362,8.931,5.728,13.653
31,0.728,37.503,16.394,33.137,24.362,8.972,5.727,13.613
32,0.731,37.648,16.351,33.175,24.366,8.972,5.768,13.694
33,0.741,37.41,16.358,33.147,24.362,8.972,5.728,13.654
34,0.725,37.417,16.37,33.128,24.366,8.891,5.687,13.613
35,0.724,37.542,16.327,33.166,24.362,8.89,5.646,13.735
36,0.747,37.687,16.35,33.166,24.369,9.012,5.727,13.817
37,0.734,37.285,16.44,33.176,24.376,9.013,5.768,13.859
38,0.734,37.339,16.324,33.137,24.362,8.932,5.687,13.778
39,0.728,37.464,16.365,33.137,24.359,8.931,5.564,13.858
40,0.734,37.571,16.362,33.156,24.373,9.053,5.766,14.022
41,0.725,37.361,16.467,33.176,24.373,9.176,5.85,14.105
42,0.708,37.474,16.406,33.157,24.359,9.055,5.729,14.024
43,0.724,37.609,16.386,33.156,24.373,9.054,5.687,14.023
44,0.715,37.687,16.405,33.147,24.362,9.176,5.809,14.105
45,0.721,37.113,16.413,33.128,24.369,9.096,5.688,14.105
46,0.728,37.27,16.374,33.147,24.366,9.176,5.687,14.105
47,0.721,37.425,16.397,33.156,24.369,9.259,5.809,14.105
48,0.718,37.465,16.44,33.137,24.369,9.219,5.769,14.065
49,0.715,37.274,16.363,33.127,24.362,9.137,5.687,13.902
50,0.708,37.444,16.393,33.147,24.369,9.258,5.727,14.022
51,0.721,37.58,16.468,33.137,24.373,9.259,5.85,14.023
52,0.734,37.639,16.425,33.137,24.366,9.178,5.729,13.983
53,0.728,37.208,16.437,33.127,24.359,9.137,5.646,13.901
54,0.731,37.357,16.386,33.099,24.359,9.136,5.686,13.859
55,0.754,37.493,16.429,33.137,24.362,9.299,5.768,13.9
56,0.77,37.571,16.429,33.156,24.376,9.341,5.891,13.9
57,0.744,37.179,16.445,33.109,24.362,9.138,5.689,13.615
58,0.751,37.309,16.46,33.098,24.362,9.095,5.687,13.531
59,0.735,37.454,16.32,33.118,24.369,9.217,5.727,13.571
60,0.731,37.791,16.424,33.118,24.373,9.178,5.768,13.612
61,0.725,37.239,16.398,33.118,24.355,9.137,5.687,13.491
62,0.708,37.367,16.405,33.146,24.373,9.095,5.727,13.571
63,0.698,37.474,16.417,33.118,24.366,9.095,5.687,13.571
64,0.685,37.168,16.366,33.099,24.359,8.932,5.687,13.531
65,0.685,37.165,16.424,33.127,24.366,8.85,5.727,13.693
66,0.672,37.338,16.327,33.156,24.369,8.889,5.727,13.776
67,0.682,37.435,16.42,33.147,24.362,8.809,5.727,13.777
68,0.656,37.062,16.417,33.118,24.366,8.686,5.646,13.736
69,0.649,37.145,16.374,33.118,24.362,8.644,5.645,13.695
70,0.655,37.328,16.436,33.137,24.369,8.725,5.727,13.776
71,0.672,37.445,16.413,33.166,24.38,8.807,5.809,13.818
72,0.665,36.938,16.444,33.109,24.359,8.604,5.647,13.655
73,0.665,37.086,16.456,33.118,24.359,8.44,5.605,13.572
74,0.665,37.222,16.41,33.127,24.366,8.519,5.686,13.571
75,0.669,37.281,16.472,33.127,24.369,8.398,5.687,13.612
76,0.669,36.955,16.336,33.137,24.366,8.397,5.646,13.45
77,0.678,37.115,16.44,33.147,24.369,8.356,5.727,13.489
78,0.672,37.213,16.437,33.128,24.369,8.397,5.646,13.367
79,0.669,37.271,16.437,33.108,24.366,8.356,5.605,13.285
80,0.656,36.907,16.386,33.127,24.362,8.315,5.645,13.243
81,0.646,37.067,16.425,33.127,24.369,8.437,5.686,13.284
82,0.652,37.212,16.452,33.147,24.366,8.56,5.646,13.121
83,0.636,37.233,16.441,33.108,24.362,8.521,5.605,13.079
84,0.62,36.897,16.394,33.098,24.355,8.439,5.564,13.038
85,0.632,37.086,16.44,33.118,24.373,8.601,5.685,13.16
86,0.626,37.212,16.445,33.146,24.373,8.684,5.809,13.323
87,0.623,37.223,16.417,33.128,24.366,8.603,5.566,13.081
88,0.616,36.916,16.468,33.118,24.366,8.602,5.604,13.038
89,0.616,37.038,16.461,33.108,24.373,8.643,5.645,13.078
90,0.606,37.164,16.394,33.118,24.359,8.603,5.645,13.079
91,0.616,37.558,16.421,33.108,24.362,8.602,5.564,12.957
92,0.619,37.006,16.444,33.127,24.373,8.643,5.645,12.956
93,0.616,37.115,16.413,33.127,24.359,8.684,5.645,12.956
94,0.623,37.222,16.351,33.099,24.366,8.522,5.564,12.752
95,0.623,36.84,16.401,33.108,24.373,8.561,5.645,12.709
96,0.632,36.788,16.444,33.137,24.369,8.683,5.645,12.831
97,0.636,36.97,16.398,33.127,24.369,8.644,5.645,12.67
98,0.623,37.048,16.425,33.089,24.362,8.481,5.483,12.627
99,0.623,36.742,16.441,33.089,24.359,8.398,5.44,12.464
100,0.632,36.902,16.413,33.108,24.373,8.56,5.603,12.585
101,0.623,37.057,16.425,33.137,24.383,8.602,5.686,12.708
102,0.61,37.135,16.441,33.099,24.359,8.358,5.524,12.628
103,0.606,36.666,16.449,33.118,24.369,8.437,5.563,12.668
104,0.6,36.767,16.374,33.099,24.366,8.357,5.645,12.79
105,0.59,36.921,16.413,33.098,24.362,8.275,5.564,12.791
106,0.596,37.019,16.437,33.098,24.373,8.233,5.563,12.791
107,0.603,36.655,16.374,33.118,24.373,8.233,5.645,12.873
108,0.59,36.815,16.401,33.108,24.366,8.111,5.645,12.955
109,0.593,36.931,16.464,33.098,24.355,8.069,5.483,12.793
110,0.593,37.0,16.433,33.118,24.359,8.109,5.522,12.873
111,0.616,36.703,16.429,33.118,24.366,8.028,5.603,12.873
112,0.632,36.882,16.46,33.156,24.373,8.027,5.564,12.792
113,0.61,36.951,16.445,33.08,24.359,7.865,5.482,12.71
114,0.619,37.0,16.499,33.079,24.355,7.822,5.481,12.628
115,0.629,36.636,16.457,33.108,24.366,7.822,5.603,12.749
116,0.632,36.786,16.484,33.137,24.373,7.944,5.645,12.709
117,0.616,36.883,16.441,33.089,24.366,7.783,5.483,12.587
118,0.629,36.942,16.476,33.098,24.369,7.903,5.562,12.586
119,0.616,36.77,16.406,33.089,24.366,7.945,5.523,12.505
120,0.629,36.893,16.487,33.07,24.362,7.905,5.563,12.504
121,0.616,37.028,16.445,33.098,24.362,7.945,5.604,12.585
122,0.623,37.394,16.398,33.089,24.366,7.986,5.604,12.627
123,0.603,36.573,16.425,33.117,24.366,7.946,5.523,12.708
124,0.606,36.699,16.421,33.079,24.355,7.864,5.522,12.709
125,0.583,36.786,16.409,33.089,24.362,7.904,5.441,12.709
126,0.606,36.643,16.398,33.098,24.369,7.985,5.603,12.831
127,0.619,36.709,16.499,33.127,24.376,8.027,5.645,12.914
128,0.6,36.815,16.398,33.089,24.369,7.946,5.483,12.752
129,0.596,36.922,16.421,33.079,24.355,7.823,5.44,12.628
130,0.596,36.453,16.437,33.089,24.366,7.863,5.481,12.708
131,0.6,36.525,16.456,33.089,24.366,7.863,5.562,12.709
132,0.613,36.679,16.48,33.089,24.362,7.863,5.482,12.587
133,0.619,36.757,16.433,33.108,24.373,7.863,5.562,12.627
134,0.623,36.442,16.452,33.098,24.369,7.822,5.482,12.627
135,0.616,36.535,16.46,33.07,24.362,7.741,5.4,12.546
136,0.632,36.699,16.433,33.098,24.369,7.781,5.562,12.626
137,0.639,36.806,16.441,33.098,24.366,7.862,5.563,12.668
138,0.642,36.442,16.472,33.108,24.373,7.822,5.482,12.587
139,0.626,36.535,16.402,33.079,24.366,7.822,5.4,12.464
140,0.639,36.66,16.409,33.05,24.355,7.741,5.44,12.422
141,0.629,36.767,16.476,33.098,24.366,7.821,5.603,12.584
142,0.629,36.394,16.527,33.098,24.373,8.025,5.604,12.789
143,0.629,36.496,16.512,33.079,24.373,7.783,5.442,12.547
144,0.626,36.65,16.473,33.079,24.359,7.781,5.399,12.626
145,0.645,36.7,16.507,33.079,24.366,7.781,5.48,12.708
146,0.649,36.336,16.465,33.069,24.362,7.74,5.522,12.75
147,0.665,36.486,16.437,33.06,24.369,7.74,5.482,12.709
148,0.682,36.621,16.495,33.098,24.366,7.821,5.522,12.872
149,0.705,36.671,16.426,33.089,24.366,7.7,5.522,12.751
150,0.731,36.403,16.468,33.06,24.362,7.618,5.4,12.628
151,0.77,36.563,16.429,33.06,24.362,7.657,5.44,12.749
152,0.8,36.689,16.468,33.079,24.369,7.658,5.521,12.669
153,0.826,37.055,16.543,33.098,24.369,7.576,5.522,12.668
154,0.852,36.263,16.422,33.06,24.359,7.494,5.4,12.627
155,0.882,36.389,16.46,33.05,24.352,7.331,5.318,12.546
156,0.915,36.515,16.379,33.069,24.362,7.492,5.48,12.667
157,0.931,36.411,16.464,33.088,24.369,7.494,5.562,12.749
158,0.961,36.419,16.468,33.041,24.366,7.371,5.401,12.506
159,0.971,36.573,16.472,33.069,24.373,7.37,5.399,12.463
160,0.981,36.68,16.472,33.069,24.366,7.37,5.48,12.463
161,0.974,36.192,16.425,33.05,24.355,7.248,5.4,12.3
162,0.977,36.302,16.495,33.069,24.362,7.166,5.44,12.298
163,1.003,36.447,16.484,33.079,24.369,7.246,5.521,12.542
164,0.981,36.554,16.437,33.079,24.369,7.206,5.482,12.504
165,0.994,36.21,16.503,33.05,24.366,7.084,5.44,12.504
166,0.997,36.302,16.418,33.05,24.352,7.042,5.44,12.585
167,1.01,36.504,16.476,33.069,24.369,7.042,5.481,12.789
168,0.997,36.612,16.496,33.098,24.373,7.204,5.562,12.913
169,1.01,36.172,16.527,33.079,24.366,7.043,5.401,12.67
170,1.03,36.321,16.371,33.089,24.366,7.001,5.44,12.79
171,1.069,36.447,16.487,33.07,24.369,7.001,5.481,12.832
172,1.076,36.496,16.48,33.06,24.355,6.96,5.481,12.792
173,1.122,36.199,16.484,33.079,24.369,6.96,5.4,12.71
174,1.148,36.34,16.515,33.098,24.369,7.0,5.521,12.831
175,1.178,36.476,16.508,33.079,24.366,7.041,5.4,12.832
176,1.188,36.516,16.457,33.069,24.362,7.001,5.399,12.832
177,1.217,36.046,16.453,33.05,24.355,7.082,5.44,12.873
178,1.214,36.224,16.546,33.069,24.369,7.286,5.44,12.955
179,1.194,36.35,16.446,33.088,24.383,7.369,5.562,13.2
180,1.133,36.38,16.46,33.127,24.362,7.126,5.441,13.202
181,1.064,36.198,16.476,33.06,24.359,7.124,5.318,13.324
182,1.001,36.34,16.476,33.06,24.369,7.205,5.48,13.61
183,0.926,36.476,16.507,33.06,24.369,7.328,5.522,13.857
184,0.834,36.851,16.438,33.069,24.369,7.248,5.441,13.94
185,0.755,36.126,16.476,33.069,24.366,7.328,5.481,14.104
186,0.643,36.244,16.437,33.079,24.369,7.329,5.44,14.146
187,0.512,36.36,16.468,33.05,24.362,7.289,5.399,14.187
188,0.378,36.16,16.519,33.06,24.369,7.288,5.48,14.35
189,0.256,36.167,16.492,33.098,24.369,7.329,5.522,14.352
190,0.134,36.311,16.43,33.089,24.366,7.329,5.441,14.311
191,0.032,36.399,16.484,33.07,24.355,7.289,5.359,14.189
192,-0.04,35.997,16.484,33.06,24.359,7.207,5.48,14.432
193,-0.093,36.137,16.496,33.079,24.369,7.287,5.562,14.678
194,-0.162,36.301,16.508,33.108,24.376,7.369,5.563,15.127
195,-0.244,36.351,16.504,33.07,24.355,7.289,5.482,15.173
196,-0.31,35.939,16.453,33.05,24.362,7.166,5.359,15.376
197,-0.362,36.108,16.515,33.069,24.366,7.206,5.521,15.704
198,-0.428,36.234,16.484,33.069,24.373,7.206,5.563,15.91
199,-0.461,36.312,16.539,33.069,24.362,7.206,5.441,15.994
200,-0.484,35.996,16.446,33.079,24.369,7.206,5.521,16.198
201,-0.514,36.147,16.499,33.06,24.362,7.125,5.522,16.2
202,-0.553,36.244,16.5,33.05,24.362,7.002,5.441,16.322
203,-0.563,36.35,16.547,33.06,24.366,7.082,5.481,16.404
204,-0.557,36.006,16.454,33.088,24.366,7.123,5.522,16.568
205,-0.537,36.175,16.488,33.079,24.366,7.083,5.441,16.57
206,-0.553,36.254,16.547,33.06,24.359,6.961,5.399,16.488
207,-0.567,36.331,16.457,33.031,24.359,6.878,5.44,16.487
208,-0.563,35.939,16.453,33.069,24.366,6.959,5.481,16.65
209,-0.521,36.127,16.492,33.108,24.376,7.041,5.603,16.774
210,-0.488,36.196,16.445,33.06,24.362,6.879,5.442,16.734
211,-0.433,36.244,16.398,33.079,24.362,6.837,5.481,16.937
212,-0.367,35.948,16.456,33.06,24.362,6.918,5.481,17.183
213,-0.305,36.069,16.496,33.031,24.359,6.796,5.481,17.267
214,-0.242,36.195,16.469,33.059,24.359,6.836,5.481,17.39
215,-0.16,36.599,16.492,33.079,24.373,6.877,5.603,17.635
216,-0.12,35.932,16.523,33.06,24.366,6.837,5.523,17.678
217,-0.081,36.04,16.465,33.05,24.355,6.755,5.441,17.76
218,-0.009,36.166,16.441,33.04,24.359,6.754,5.481,17.842
219,0.07,35.937,16.538,33.059,24.369,6.795,5.522,17.883
220,0.155,35.954,16.512,33.088,24.373,6.917,5.644,17.924
221,0.198,36.069,16.418,33.07,24.359,6.674,5.442,17.64
222,0.238,36.176,16.476,33.06,24.359,6.631,5.359,17.515
223,0.277,35.813,16.488,33.079,24.373,6.753,5.561,17.595
224,0.3,35.915,16.551,33.069,24.366,6.754,5.604,17.556
225,0.343,36.05,16.512,33.06,24.359,6.795,5.523,17.352
226,0.395,36.176,16.547,33.069,24.369,6.795,5.563,17.269
227,0.425,35.765,16.551,33.05,24.373,6.795,5.523,17.064
228,0.452,35.895,16.473,33.079,24.359,6.795,5.441,16.818
229,0.475,36.059,16.515,33.031,24.362,6.795,5.481,16.735
230,0.498,36.157,16.539,33.088,24.369,6.958,5.481,16.531
231,0.54,35.65,16.551,33.079,24.376,6.919,5.481,16.284
232,0.547,35.779,16.469,33.031,24.362,6.796,5.481,15.916
233,0.567,35.895,16.461,33.098,24.355,6.755,5.44,15.668
234,0.599,35.992,16.531,33.079,24.369,6.876,5.481,15.747
235,0.609,35.811,16.438,33.06,24.373,6.837,5.603,15.667
236,0.622,35.962,16.472,33.05,24.359,6.837,5.523,15.259
237,0.652,36.108,16.484,33.069,24.366,6.796,5.482,15.174
238,0.668,36.148,16.461,33.06,24.366,6.917,5.522,15.011
239,0.659,35.649,16.449,33.031,24.352,6.715,5.441,14.846
240,0.678,35.807,16.531,33.059,24.366,6.794,5.481,14.723
241,0.678,35.953,16.539,33.069,24.373,6.877,5.481,14.681
242,0.688,35.974,16.492,33.069,24.369,6.755,5.522,14.64
243,0.682,35.859,16.414,33.05,24.359,6.714,5.4,14.477
244,0.692,35.973,16.433,33.031,24.359,6.672,5.44,14.434
245,0.698,36.137,16.527,33.059,24.373,6.713,5.481,14.515
246,0.711,36.522,16.508,33.098,24.38,6.876,5.603,14.516
247,0.698,35.778,16.519,33.05,24.366,6.755,5.482,14.272
248,0.708,35.895,16.551,33.05,24.366,6.714,5.481,14.188
249,0.715,36.05,16.438,33.079,24.373,6.754,5.562,14.228
250,0.708,35.811,16.515,33.069,24.369,6.795,5.441,14.147
251,0.724,35.799,16.543,33.05,24.366,6.714,5.44,14.024
252,0.731,35.924,16.582,33.069,24.376,6.713,5.562,14.064
253,0.741,36.04,16.493,33.05,24.366,6.672,5.441,13.942
254,0.757,35.62,16.473,33.04,24.362,6.591,5.481,13.86
255,0.761,35.73,16.562,33.069,24.362,6.671,5.481,13.9
256,0.767,35.895,16.493,33.079,24.373,6.631,5.522,13.941
257,0.774,36.021,16.551,33.079,24.369,6.631,5.4,13.778
258,0.774,35.667,16.532,33.041,24.359,6.509,5.399,13.533
259,0.761,35.808,16.387,33.04,24.352,6.467,5.399,13.571
260,0.774,35.982,16.503,33.05,24.366,6.548,5.44,13.653
261,0.767,36.089,16.57,33.079,24.38,6.712,5.562,13.816
262,0.754,35.563,16.618,33.05,24.359,6.51,5.401,13.655
263,0.774,35.73,16.505,33.06,24.366,6.467,5.44,13.694
264,0.771,35.866,16.469,33.06,24.369,6.589,5.481,13.857
265,0.748,35.925,16.503,33.05,24.359,6.468,5.481,13.818
266,0.757,35.503,16.523,33.06,24.362,6.426,5.44,13.818
267,0.757,35.672,16.512,33.079,24.373,6.507,5.481,13.94
268,0.757,35.798,16.547,33.069,24.366,6.467,5.44,13.86
269,0.767,35.838,16.438,33.06,24.362,6.304,5.359,13.737
270,0.754,35.56,16.507,33.05,24.366,6.302,5.399,13.736
271,0.78,35.749,16.523,33.069,24.369,6.465,5.48,13.695
272,0.797,35.904,16.547,33.088,24.373,6.426,5.481,13.654
273,0.79,35.906,16.586,33.05,24.359,6.263,5.4,13.532
274,0.8,35.647,16.52,33.06,24.352,6.221,5.236,13.449
275,0.797,35.807,16.547,33.069,24.362,6.342,5.397,13.53
276,0.813,35.953,16.539,33.06,24.366,6.343,5.521,13.612
277,0.823,36.29,16.539,33.079,24.362,6.343,5.4,13.45
278,0.826,35.66,16.582,33.069,24.373,6.303,5.48,13.448
279,0.813,35.779,16.45,33.05,24.369,6.262,5.44,13.408
280,0.81,35.885,16.507,33.031,24.359,6.139,5.359,13.407
281,0.81,35.551,16.555,33.069,24.362,6.219,5.439,13.367
282,0.803,35.548,16.575,33.06,24.369,6.261,5.399,13.488
283,0.82,35.691,16.571,33.069,24.369,6.221,5.358,13.53
284,0.787,35.779,16.551,33.06,24.366,6.18,5.317,13.408
285,0.797,35.454,16.539,33.031,24.348,6.098,5.236,13.407
286,0.807,35.585,16.555,33.107,24.369,6.26,5.479,13.61
287,0.803,35.74,16.571,33.07,24.373,6.302,5.562,13.653
288,0.794,35.818,16.575,33.06,24.362,6.14,5.441,13.572
289,0.819,35.483,16.501,33.079,24.366,6.138,5.44,13.571
290,0.81,35.633,16.547,33.069,24.366,6.26,5.399,13.449
291,0.807,35.74,16.504,33.05,24.362,6.139,5.399,13.408
292,0.829,35.837,16.601,33.06,24.366,6.138,5.399,13.448
293,0.836,35.474,16.563,33.06,24.369,6.219,5.48,13.367
294,0.846,35.614,16.547,33.069,24.369,6.22,5.44,13.325
295,0.853,35.721,16.528,33.031,24.359,6.18,5.318,13.244
296,0.836,35.789,16.555,33.031,24.362,6.139,5.358,13.243
297,0.849,35.473,16.543,33.059,24.369,6.26,5.439,13.324
298,0.869,35.633,16.551,33.069,24.383,6.302,5.481,13.366
299,0.853,35.75,16.489,33.05,24.366,6.18,5.359,13.163
300,0.862,35.799,16.484,33.04,24.362,6.179,5.358,12.998
301,0.859,35.483,16.523,33.05,24.362,6.139,5.399,13.119
302,0.843,35.624,16.559,33.031,24.366,6.219,5.399,13.079
303,0.846,35.75,16.579,33.05,24.359,6.22,5.358,13.119
304,0.856,35.808,16.548,33.079,24.369,6.22,5.48,13.282
305,0.853,35.502,16.578,33.06,24.373,6.18,5.4,13.325
306,0.833,35.614,16.571,33.05,24.362,6.179,5.277,13.244
307,0.839,35.778,16.508,33.05,24.362,6.179,5.276,13.365
308,0.856,36.135,16.59,33.05,24.369,6.22,5.438,13.366
309,0.859,35.4,16.516,33.079,24.373,6.302,5.44,13.285
310,0.846,35.527,16.488,33.05,24.362,6.14,5.318,13.203
311,0.856,35.605,16.488,33.021,24.352,6.057,5.195,13.161
312,0.866,35.318,16.539,33.059,24.362,6.137,5.397,13.283
313,0.885,35.315,16.61,33.069,24.373,6.219,5.48,13.365
314,0.892,35.449,16.54,33.05,24.366,6.098,5.318,13.204
315,0.892,35.566,16.61,33.06,24.369,6.219,5.48,13.243
316,0.892,35.356,16.563,33.05,24.366,6.139,5.359,13.284
317,0.899,35.459,16.567,33.031,24.359,6.138,5.317,13.162
318,0.918,35.623,16.563,33.04,24.362,6.138,5.358,13.161
319,0.899,35.721,16.508,33.059,24.366,6.179,5.439,13.202
320,0.902,35.099,16.531,33.06,24.366,6.22,5.359,13.08
321,0.889,35.217,16.504,33.031,24.362,6.139,5.358,12.957
322,0.899,35.343,16.539,33.031,24.362,6.098,5.399,12.956
323,0.912,35.459,16.532,33.05,24.362,6.178,5.44,13.118
324,0.925,35.422,16.543,33.079,24.376,6.261,5.399,13.323
325,0.905,35.546,16.524,33.05,24.362,6.099,5.318,13.162
326,0.902,35.643,16.496,33.031,24.359,6.138,5.317,13.12
327,0.918,35.74,16.547,33.05,24.373,6.138,5.439,13.282
328,0.912,35.243,16.563,33.069,24.369,6.219,5.399,13.325
329,0.895,35.381,16.547,33.05,24.366,6.058,5.358,13.244
330,0.921,35.546,16.551,33.06,24.366,6.137,5.399,13.406
331,0.938,35.586,16.563,33.05,24.366,6.016,5.399,13.367
332,0.938,35.184,16.614,33.031,24.359,6.056,5.318,13.325
333,0.941,35.342,16.587,33.04,24.366,6.015,5.317,13.528
334,0.958,35.488,16.594,33.059,24.366,6.137,5.52,13.734
335,0.968,35.547,16.61,33.079,24.369,6.098,5.36,13.817
336,0.961,35.308,16.521,33.041,24.359,6.016,5.317,13.899
337,0.955,35.459,16.527,33.021,24.352,5.974,5.317,13.859
338,0.977,35.604,16.613,33.05,24.366,6.055,5.439,14.022
339,0.99,35.97,16.556,33.079,24.373,6.137,5.481,14.105
340,0.971,35.312,16.555,33.05,24.362,6.057,5.359,13.861
341,0.987,35.468,16.594,33.04,24.362,6.056,5.358,13.859
342,0.997,35.576,16.583,33.031,24.366,6.015,5.399,13.859
343,0.991,35.203,16.614,33.031,24.362,6.015,5.399,13.859
344,1.0,35.189,16.544,33.059,24.366,6.015,5.358,13.778
345,1.0,35.343,16.598,33.06,24.369,5.974,5.439,13.858
346,1.0,35.411,16.552,33.04,24.366,5.974,5.481,13.737
347,1.0,35.124,16.539,33.05,24.355,5.933,5.4,13.695
348,1.01,35.275,16.555,33.05,24.362,6.014,5.44,13.735
349,1.017,35.411,16.579,33.069,24.369,5.974,5.44,13.776
350,1.027,35.527,16.544,33.06,24.366,5.974,5.318,13.736
351,1.03,35.087,16.516,33.04,24.359,5.974,5.317,13.655
352,1.033,35.236,16.555,33.021,24.359,5.852,5.398,13.572
353,1.05,35.362,16.594,33.059,24.366,6.095,5.399,13.694
354,1.073,35.488,16.579,33.088,24.373,6.097,5.48,13.776
355,1.066,35.173,16.587,33.05,24.355,6.016,5.4,13.452
356,1.079,35.323,16.548,33.04,24.362,5.974,5.358,13.448
357,1.086,35.469,16.563,33.05,24.369,6.015,5.399,13.489
358,1.089,35.537,16.567,33.069,24.359,6.015,5.44,13.449
359,1.089,35.164,16.61,33.041,24.359,6.015,5.44,13.367
360,1.109,35.333,16.56,33.069,24.373,6.056,5.44,13.447
361,1.106,35.459,16.575,33.05,24.369,6.015,5.481,13.53
362,1.109,35.508,16.575,33.04,24.362,5.974,5.4,13.408
363,1.119,35.259,16.606,33.05,24.362,6.015,5.48,13.489
364,1.106,35.439,16.602,33.06,24.369,6.137,5.481,13.611
365,1.115,35.604,16.614,33.069,24.373,6.179,5.522,13.613
366,1.119,35.577,16.548,33.041,24.362,6.017,5.4,13.531
367,1.125,35.26,16.567,33.021,24.359,5.974,5.358,13.449
368,1.132,35.41,16.563,33.059,24.369,6.055,5.48,13.611
369,1.138,35.537,16.637,33.06,24.369,6.178,5.562,13.572
370,1.132,35.921,16.478,33.069,24.362,6.057,5.36,13.449
371,1.161,35.369,16.546,33.041,24.366,6.137,5.48,13.448
372,1.158,35.479,16.586,33.069,24.366,6.138,5.522,13.367
373,1.165,35.595,16.614,33.031,24.366,6.057,5.441,13.204
374,1.191,35.519,16.552,33.04,24.369,6.056,5.44,13.365
375,1.198,35.576,16.555,33.05,24.369,6.097,5.481,13.407
376,1.207,35.711,16.563,33.05,24.362,6.056,5.481,13.245
377,1.198,35.808,16.555,33.031,24.359,5.975,5.318,13.202
378,1.211,35.368,16.567,33.002,24.355,6.055,5.398,13.243
379,1.224,35.526,16.606,33.049,24.369,6.015,5.44,13.243
380,1.237,35.701,16.474,33.06,24.373,6.137,5.603,13.365
381,1.214,35.75,16.527,33.04,24.366,6.057,5.401,13.204
382,1.217,35.703,16.539,33.031,24.359,5.934,5.399,13.161
383,1.224,35.818,16.606,33.04,24.369,6.055,5.48,13.323
384,1.217,35.953,16.599,33.031,24.369,6.056,5.522,13.447
385,1.227,36.041,16.583,33.031,24.359,5.975,5.482,13.53
386,1.224,35.936,16.633,33.05,24.366,6.015,5.481,13.531
387,1.214,36.079,16.552,33.04,24.369,6.015,5.481,13.571
388,1.204,36.195,16.629,33.021,24.362,5.974,5.4,13.531
389,1.214,36.273,16.603,33.04,24.359,5.974,5.521,13.49
390,1.211,36.073,16.54,33.059,24.362,6.055,5.482,13.611
391,1.227,36.214,16.586,33.05,24.366,6.056,5.481,13.369
392,1.23,36.331,16.555,33.012,24.359,5.934,5.359,13.285
393,1.221,36.351,16.598,32.992,24.362,5.974,5.399,13.284
394,1.247,36.265,16.559,33.04,24.366,6.015,5.399,13.325
395,1.253,36.437,16.61,33.079,24.376,6.096,5.602,13.366
396,1.227,36.506,16.552,33.012,24.359,5.894,5.482,13.204
397,1.234,36.554,16.578,33.03,24.359,5.973,5.359,13.08
398,1.247,36.641,16.614,33.031,24.366,5.974,5.48,13.16
399,1.24,36.776,16.626,33.031,24.366,6.055,5.522,13.08
400,1.234,36.883,16.556,33.031,24.362,6.015,5.441,13.079
401,1.237,37.287,16.551,33.05,24.369,6.056,5.399,13.079
402,1.211,36.687,16.59,33.021,24.366,5.975,5.48,13.16
403,1.204,36.796,16.594,33.011,24.359,5.974,5.359,13.039
404,1.207,36.912,16.587,33.03,24.359,5.974,5.399,13.119
405,1.22,37.019,16.61,33.04,24.366,6.055,5.48,13.242
406,1.214,37.135,16.595,33.031,24.373,6.015,5.4,13.202
407,1.198,37.213,16.567,33.021,24.359,5.974,5.358,13.08
408,1.191,37.357,16.555,32.983,24.355,5.933,5.317,13.079
409,1.194,37.062,16.61,33.04,24.369,6.014,5.439,13.119
410,1.181,37.174,16.669,33.069,24.369,6.137,5.521,13.201
411,1.184,37.29,16.572,33.012,24.359,5.935,5.4,13.039
412,1.197,37.406,16.571,33.011,24.362,6.055,5.399,12.956
413,1.191,37.378,16.547,33.03,24.369,6.056,5.521,12.956
414,1.194,37.493,16.586,33.002,24.359,5.975,5.4,12.915
415,1.185,37.638,16.626,33.011,24.366,5.974,5.48,12.955
416,1.194,37.726,16.646,33.021,24.369,6.015,5.481,12.956
417,1.181,37.468,16.661,33.011,24.366,6.015,5.44,12.915
418,1.178,37.609,16.595,33.021,24.362,5.974,5.359,12.752
419,1.175,37.735,16.618,32.992,24.366,6.015,5.399,12.831
420,1.184,37.813,16.61,33.021,24.369,6.015,5.44,12.873
421,1.171,37.728,16.645,33.021,24.373,6.015,5.481,12.873
422,1.136,37.823,16.525,33.002,24.359,5.934,5.359,12.751
423,1.135,37.92,16.563,33.021,24.352,5.852,5.317,12.791
424,1.122,38.007,16.575,33.011,24.366,6.013,5.439,13.035
425,1.102,37.797,16.528,33.021,24.369,6.015,5.521,13.16
426,1.093,37.91,16.555,32.992,24.366,5.974,5.4,13.12
427,1.083,38.055,16.625,33.001,24.366,6.015,5.48,13.242
428,1.079,38.075,16.607,33.002,24.369,6.015,5.44,13.284
429,1.063,37.922,16.61,32.992,24.355,5.893,5.399,13.203
430,1.053,38.084,16.579,33.001,24.362,5.933,5.48,13.202
431,1.063,38.2,16.665,33.011,24.369,5.974,5.522,13.243
432,1.06,38.556,16.626,33.011,24.373,5.893,5.441,13.202
433,1.043,38.052,16.607,32.992,24.362,5.851,5.399,13.121
434,1.037,38.181,16.544,32.973,24.362,5.769,5.358,13.201
435,1.04,38.307,16.629,33.011,24.366,5.891,5.48,13.365
436,1.03,38.116,16.614,33.03,24.376,6.054,5.562,13.447
437,1.024,38.066,16.603,33.011,24.362,5.934,5.441,13.326
438,1.007,38.219,16.677,33.011,24.366,5.933,5.44,13.366
439,0.994,38.317,16.549,33.011,24.373,5.852,5.481,13.325
440,1.004,38.049,16.614,32.992,24.359,5.81,5.481,13.325
441,0.991,38.152,16.638,33.011,24.359,5.81,5.44,13.284
442,0.965,38.306,16.704,33.021,24.366,5.932,5.481,13.325
443,0.955,38.385,16.666,33.021,24.362,5.811,5.522,13.325
444,0.941,38.088,16.626,32.983,24.359,5.769,5.4,13.325
445,0.932,38.219,16.63,33.001,24.355,5.768,5.44,13.406
446,0.922,38.403,16.536,33.03,24.366,5.809,5.521,13.448
447,0.928,38.491,16.586,33.05,24.38,5.972,5.644,13.448
448,0.892,38.396,16.649,32.983,24.362,5.811,5.442,13.367
449,0.889,38.539,16.56,32.992,24.362,5.81,5.359,13.325
450,0.879,38.665,16.559,32.992,24.366,5.891,5.521,13.406
451,0.872,38.753,16.598,33.021,24.376,5.973,5.644,13.407
452,0.869,38.025,16.618,33.002,24.369,5.893,5.523,13.326
453,0.876,38.161,16.681,33.002,24.373,5.933,5.563,13.406
454,0.866,38.278,16.615,33.002,24.359,5.892,5.523,13.285
455,0.859,38.317,16.653,32.992,24.366,5.811,5.4,13.325
456,0.862,38.088,16.615,33.049,24.369,5.891,5.48,13.325
457,0.853,38.229,16.599,33.021,24.373,5.933,5.562,13.406
458,0.862,38.346,16.645,32.992,24.362,5.852,5.523,13.285
459,0.853,38.356,16.587,32.992,24.362,5.81,5.522,13.203
460,0.833,38.117,16.594,32.963,24.355,5.769,5.4,13.161
461,0.83,38.277,16.583,33.001,24.369,5.931,5.562,13.364
462,0.817,38.413,16.665,33.011,24.38,6.014,5.604,13.569
463,0.807,38.721,16.646,32.992,24.366,5.893,5.442,13.449
464,0.803,38.168,16.591,33.001,24.362,5.892,5.521,13.53
465,0.8,38.297,16.634,32.992,24.369,5.892,5.522,13.571
466,0.781,38.404,16.552,32.973,24.366,5.811,5.482,13.531
467,0.774,38.108,16.637,32.982,24.362,5.81,5.481,13.612
468,0.777,38.105,16.689,32.982,24.369,5.891,5.481,13.653
469,0.761,38.229,16.646,32.992,24.366,5.811,5.522,13.694
470,0.751,38.336,16.595,32.963,24.359,5.769,5.441,13.573
471,0.764,38.021,16.63,32.992,24.359,5.809,5.521,13.571
472,0.777,38.142,16.677,32.992,24.369,5.81,5.522,13.49
473,0.784,38.297,16.646,33.011,24.373,5.932,5.603,13.571
474,0.758,38.346,16.63,32.982,24.359,5.77,5.482,13.409
475,0.774,37.858,16.618,32.973,24.362,5.687,5.44,13.285
476,0.761,38.006,16.583,33.001,24.366,5.809,5.481,13.406
477,0.748,38.123,16.559,32.992,24.369,5.81,5.481,13.326
478,0.764,38.21,16.641,32.982,24.359,5.728,5.481,13.203
479,0.754,37.866,16.564,32.982,24.369,5.809,5.562,13.243
480,0.757,38.016,16.586,32.982,24.369,5.769,5.523,13.202
481,0.744,38.123,16.633,32.973,24.355,5.687,5.441,13.08
482,0.734,38.201,16.646,32.992,24.366,5.768,5.481,13.079
483,0.747,37.914,16.677,33.001,24.366,5.768,5.522,13.282
484,0.741,38.093,16.603,33.021,24.373,5.891,5.522,13.528
485,0.718,38.181,16.657,32.973,24.352,5.77,5.441,13.531
486,0.718,38.201,16.556,32.963,24.352,5.647,5.318,13.653
487,0.718,37.78,16.637,32.982,24.366,5.808,5.52,13.898
488,0.715,37.919,16.665,33.001,24.373,5.85,5.603,14.103
489,0.705,38.036,16.665,32.973,24.362,5.81,5.442,14.024
490,0.685,38.046,16.587,32.992,24.369,5.769,5.521,13.983
491,0.698,37.941,16.633,32.992,24.369,5.809,5.482,13.942
492,0.711,38.065,16.653,32.963,24.359,5.728,5.44,13.86
493,0.705,38.191,16.665,32.972,24.362,5.727,5.399,13.818
494,0.721,38.556,16.673,32.992,24.366,5.89,5.562,13.859
495,0.718,37.802,16.673,33.001,24.366,5.729,5.482,13.778
496,0.708,37.91,16.607,32.973,24.359,5.727,5.44,13.696
497,0.715,38.007,16.638,32.982,24.359,5.646,5.44,13.613
498,0.731,37.701,16.689,32.982,24.369,5.767,5.521,13.531
499,0.734,37.698,16.658,33.03,24.38,5.972,5.644,13.653
500,0.731,37.813,16.607,32.964,24.366,5.771,5.483,13.45
501,0.721,37.929,16.618,32.963,24.362,5.728,5.481,13.367
502,0.708,37.662,16.614,33.001,24.366,5.809,5.562,13.529
503,0.698,37.765,16.677,32.973,24.362,5.728,5.604,13.531
504,0.698,37.909,16.607,32.992,24.362,5.727,5.523,13.531
505,0.695,38.026,16.645,32.992,24.366,5.727,5.563,13.653
506,0.688,37.596,16.595,32.973,24.366,5.809,5.563,13.613
507,0.679,37.706,16.591,32.982,24.355,5.688,5.441,13.531
508,0.672,37.832,16.673,32.963,24.373,5.768,5.521,13.571
509,0.682,37.929,16.662,32.982,24.366,5.809,5.603,13.571
510,0.692,37.643,16.673,33.078,24.376,5.85,5.686,13.49
511,0.672,37.755,16.634,32.974,24.359,5.81,5.483,13.408
512,0.695,37.861,16.661,32.953,24.355,5.728,5.44,13.285
513,0.692,37.958,16.712,32.992,24.373,5.768,5.643,13.365
514,0.705,37.413,16.6,32.982,24.373,5.85,5.645,13.488
515,0.705,37.532,16.692,32.973,24.362,5.851,5.564,13.367
516,0.708,37.677,16.619,32.982,24.373,5.851,5.645,13.447
517,0.715,37.746,16.661,32.982,24.369,5.891,5.645,13.408
518,0.711,37.497,16.634,32.953,24.359,5.851,5.483,13.245
519,0.724,37.667,16.657,32.982,24.366,5.932,5.603,13.324
520,0.724,37.803,16.65,33.03,24.369,5.892,5.645,13.406
521,0.724,37.871,16.681,32.992,24.373,5.892,5.645,13.326
522,0.695,37.45,16.662,32.954,24.362,5.892,5.564,13.284
523,0.692,37.571,16.708,32.953,24.355,5.811,5.441,13.325
524,0.695,37.697,16.666,32.992,24.366,5.891,5.643,13.569
525,0.705,38.062,16.646,32.992,24.373,5.973,5.686,13.653
526,0.685,37.395,16.638,32.963,24.362,5.933,5.564,13.572
527,0.692,37.541,16.603,32.992,24.366,5.974,5.685,13.571
528,0.685,37.648,16.657,32.982,24.366,5.933,5.646,13.653
529,0.685,37.477,16.622,32.973,24.366,5.811,5.523,13.532
530,0.695,37.523,16.525,32.982,24.362,5.972,5.644,13.571
531,0.698,37.677,16.598,32.982,24.366,6.015,5.686,13.531
532,0.708,37.793,16.657,32.992,24.369,5.974,5.727,13.49
533,0.698,37.229,16.677,32.963,24.359,5.933,5.565,13.408
534,0.698,37.338,16.634,32.944,24.348,5.852,5.563,13.326
535,0.708,37.483,16.724,32.982,24.372,6.013,5.685,13.569
536,0.724,37.59,16.647,32.992,24.369,6.015,5.646,13.653
537,0.724,37.16,16.65,32.973,24.359,5.934,5.686,13.45
538,0.728,37.309,16.661,32.973,24.362,5.974,5.646,13.408
539,0.728,37.425,16.677,32.944,24.359,5.933,5.605,13.448
540,0.725,37.503,16.533,32.972,24.355,5.933,5.604,13.408
541,0.721,37.188,16.621,32.953,24.362,5.892,5.645,13.448
542,0.728,37.338,16.724,32.982,24.366,5.973,5.727,13.611
543,0.725,37.474,16.74,32.973,24.362,5.933,5.605,13.653
544,0.721,37.504,16.678,32.992,24.362,5.892,5.523,13.694
545,0.708,37.13,16.666,32.934,24.355,5.892,5.563,13.695
546,0.715,37.299,16.677,32.972,24.369,5.973,5.726,13.898
547,0.711,37.473,16.689,32.982,24.376,6.055,5.809,14.022
548,0.708,37.475,16.666,32.973,24.366,5.853,5.647,13.861
549,0.711,37.274,16.72,32.953,24.355,5.851,5.564,13.859
550,0.698,37.406,16.565,32.953,24.366,5.973,5.645,13.9
551,0.714,37.522,16.61,32.963,24.366,6.055,5.727,13.859
552,0.724,37.581,16.665,32.944,24.362,5.934,5.646,13.656
553,0.724,37.275,16.642,32.953,24.369,5.974,5.727,13.694
554,0.728,37.406,16.673,32.944,24.369,5.974,5.646,13.695
555,0.715,37.503,16.646,32.924,24.359,5.933,5.564,13.654
556,0.731,37.849,16.642,32.943,24.362,6.014,5.645,13.572
557,0.738,37.182,16.599,32.972,24.366,5.974,5.645,13.653
558,0.754,37.309,16.677,32.973,24.373,6.055,5.605,13.572
559,0.738,37.406,16.642,32.934,24.362,5.975,5.523,13.368
560,0.734,37.263,16.587,32.924,24.362,5.974,5.522,13.285
561,0.731,37.319,16.645,32.972,24.366,6.096,5.644,13.447
562,0.731,37.493,16.708,32.992,24.38,6.178,5.767,13.408
563,0.728,37.542,16.721,32.944,24.362,6.017,5.565,13.285
564,0.725,37.073,16.674,32.953,24.369,6.056,5.604,13.284
565,0.721,37.145,16.705,32.953,24.362,6.137,5.645,13.325
566,0.708,37.27,16.596,32.953,24.355,6.016,5.564,13.284
567,0.711,37.406,16.661,32.963,24.359,6.015,5.563,13.325
568,0.708,36.966,16.751,32.963,24.366,6.137,5.604,13.366
569,0.708,37.115,16.655,32.972,24.366,6.016,5.564,13.285
570,0.705,37.232,16.658,32.944,24.359,6.015,5.604,13.162
571,0.698,37.29,16.681,32.924,24.359,5.974,5.523,13.161
572,0.724,37.08,16.646,32.972,24.369,6.096,5.644,13.242
573,0.731,37.222,16.728,32.982,24.373,6.138,5.767,13.243
574,0.728,37.357,16.611,32.953,24.366,5.976,5.525,13.04
575,0.738,37.397,16.681,32.944,24.359,6.015,5.563,13.078
576,0.738,36.861,16.638,32.972,24.362,6.096,5.645,13.079
577,0.731,36.999,16.661,32.944,24.359,6.016,5.523,13.079
578,0.741,37.125,16.716,32.953,24.362,5.974,5.563,13.079
579,0.741,37.193,16.611,32.953,24.369,6.055,5.604,13.038
580,0.741,37.165,16.665,32.944,24.362,5.975,5.564,12.956
581,0.721,37.28,16.693,32.924,24.366,5.933,5.482,12.915
582,0.715,37.387,16.72,32.924,24.362,6.014,5.522,13.037
583,0.721,37.455,16.721,32.953,24.369,5.974,5.522,13.038
584,0.724,36.938,16.623,32.972,24.369,6.015,5.522,13.038
585,0.702,37.029,16.681,32.953,24.362,5.934,5.482,13.038
586,0.695,37.164,16.65,32.963,24.359,5.77,5.44,12.956
587,0.708,37.558,16.665,32.953,24.369,5.972,5.562,13.2
588,0.711,37.131,16.732,32.972,24.383,6.055,5.685,13.324
589,0.702,37.213,16.674,32.934,24.362,5.934,5.524,13.203
590,0.695,37.348,16.673,32.953,24.359,5.892,5.522,13.08
591,0.695,36.956,16.701,32.944,24.366,6.014,5.522,13.119
592,0.701,36.894,16.744,32.934,24.355,5.934,5.482,13.12
593,0.718,37.066,16.733,32.943,24.366,5.974,5.481,13.039
594,0.715,37.174,16.717,32.972,24.369,5.974,5.522,13.119
595,0.721,36.83,16.697,32.944,24.362,5.974,5.522,13.16
596,0.715,36.932,16.697,32.924,24.352,5.811,5.4,13.08
597,0.711,37.067,16.623,32.943,24.362,5.932,5.521,13.201
598,0.731,37.193,16.688,32.953,24.369,5.974,5.522,13.121
599,0.734,36.791,16.662,32.972,24.369,6.055,5.522,13.201
600,0.725,36.893,16.63,32.944,24.362,5.812,5.482,12.999
601,0.711,37.019,16.673,32.924,24.352,5.891,5.359,12.915
602,0.721,37.116,16.685,32.934,24.366,5.933,5.48,13.118
603,0.721,36.695,16.724,32.963,24.373,5.974,5.522,13.201
604,0.702,36.853,16.662,32.953,24.362,5.893,5.522,13.161
605,0.708,36.999,16.708,32.934,24.373,5.973,5.563,13.202
606,0.708,37.068,16.65,32.943,24.366,5.933,5.563,13.243
607,0.692,36.665,16.607,32.924,24.355,5.811,5.401,13.202
608,0.695,36.815,16.727,32.924,24.369,5.81,5.521,13.283
609,0.695,36.96,16.697,32.972,24.369,5.891,5.522,13.284
610,0.692,37.038,16.67,32.944,24.366,5.973,5.522,13.284
611,0.682,36.656,16.646,32.915,24.348,5.811,5.482,13.162
612,0.688,36.776,16.689,32.895,24.355,5.688,5.481,13.12
613,0.695,36.941,16.72,32.924,24.369,5.809,5.522,13.282
614,0.714,36.99,16.693,32.962,24.373,5.972,5.644,13.406
615,0.715,36.684,16.748,32.925,24.366,5.771,5.442,13.285
616,0.715,36.853,16.698,33.01,24.359,5.809,5.44,13.203
617,0.718,36.97,16.697,32.925,24.366,5.81,5.481,13.324
618,0.724,37.288,16.744,32.915,24.359,5.769,5.522,13.325
619,0.721,36.581,16.651,32.924,24.366,5.728,5.441,13.366
620,0.734,36.737,16.681,32.924,24.369,5.809,5.562,13.529
621,0.725,36.844,16.662,32.915,24.366,5.769,5.482,13.693
622,0.705,36.587,16.74,32.895,24.366,5.687,5.318,13.817
623,0.705,36.584,16.678,32.905,24.369,5.727,5.48,13.94
624,0.705,36.766,16.689,32.934,24.366,5.809,5.522,14.144
625,0.702,36.883,16.716,32.953,24.373,5.81,5.603,14.309
626,0.675,36.616,16.604,32.905,24.359,5.728,5.482,14.229
627,0.688,36.718,16.649,32.905,24.359,5.646,5.4,14.147
628,0.688,36.844,16.7,32.924,24.366,5.727,5.44,14.269
629,0.679,36.941,16.685,32.924,24.366,5.768,5.562,14.27
630,0.669,36.415,16.631,32.915,24.359,5.728,5.482,14.148
631,0.688,36.525,16.665,32.924,24.369,5.687,5.562,14.269
632,0.685,36.66,16.65,32.915,24.359,5.646,5.441,14.107
633,0.679,36.729,16.712,32.895,24.366,5.564,5.399,14.024
634,0.695,36.509,16.697,32.914,24.366,5.726,5.48,14.064
635,0.701,36.669,16.783,32.914,24.373,5.768,5.522,14.024
636,0.711,36.825,16.698,32.934,24.373,5.687,5.522,13.983
637,0.698,36.845,16.678,32.895,24.362,5.605,5.441,13.82
638,0.695,36.424,16.728,32.876,24.348,5.564,5.318,13.655
639,0.708,36.63,16.67,32.895,24.365,5.685,5.48,13.735
640,0.711,36.776,16.705,32.924,24.369,5.768,5.522,13.736
641,0.708,36.797,16.654,32.886,24.362,5.687,5.441,13.533
642,0.708,36.442,16.736,32.914,24.369,5.646,5.521,13.531
643,0.692,36.573,16.717,32.886,24.373,5.645,5.441,13.49
644,0.685,36.67,16.705,32.895,24.359,5.645,5.44,13.408
645,0.679,36.748,16.713,32.895,24.359,5.645,5.44,13.367
646,0.685,36.451,16.643,32.914,24.362,5.686,5.521,13.447
647,0.695,36.611,16.72,32.905,24.362,5.646,5.441,13.448
648,0.675,36.709,16.697,32.905,24.355,5.605,5.399,13.286
649,0.665,37.055,16.666,32.895,24.362,5.564,5.44,13.243
650,0.688,36.445,16.701,32.924,24.366,5.726,5.481,13.284
651,0.695,36.611,16.689,32.953,24.38,5.809,5.603,13.325
652,0.682,36.68,16.705,32.915,24.359,5.606,5.401,13.122
653,0.692,36.527,16.697,32.914,24.352,5.482,5.399,12.957
654,0.695,36.574,16.713,32.934,24.366,5.603,5.521,13.118
655,0.692,36.699,16.689,32.905,24.369,5.686,5.563,13.12
656,0.695,36.796,16.67,32.905,24.362,5.564,5.482,12.957
657,0.701,36.442,16.708,32.914,24.362,5.645,5.481,13.037
658,0.718,36.515,16.693,32.905,24.366,5.605,5.44,12.956
659,0.698,36.65,16.681,32.914,24.359,5.564,5.359,12.874
660,0.721,36.757,16.689,32.905,24.366,5.563,5.399,12.833
661,0.702,36.375,16.759,32.914,24.369,5.645,5.48,12.914
662,0.711,36.496,16.772,32.934,24.369,5.564,5.44,12.915
663,0.698,36.612,16.733,32.895,24.359,5.523,5.359,12.792
664,0.695,36.671,16.666,32.895,24.359,5.482,5.399,12.913
665,0.701,36.393,16.736,32.905,24.369,5.644,5.44,12.996
666,0.714,36.572,16.717,32.934,24.373,5.645,5.521,13.119
667,0.708,36.661,16.682,32.905,24.362,5.523,5.4,12.917
668,0.708,36.738,16.724,32.905,24.362,5.522,5.399,12.915
669,0.721,36.355,16.697,32.914,24.366,5.563,5.44,12.915
670,0.711,36.505,16.705,32.905,24.366,5.604,5.44,12.833
671,0.724,36.631,16.728,32.905,24.362,5.564,5.359,12.71
672,0.75,36.7,16.768,32.914,24.369,5.563,5.48,12.709
673,0.777,36.412,16.768,32.905,24.366,5.645,5.44,12.668
674,0.767,36.553,16.706,32.886,24.352,5.523,5.318,12.627
675,0.78,36.66,16.756,32.895,24.366,5.603,5.398,12.586
676,0.797,36.748,16.713,32.914,24.366,5.686,5.44,12.667
677,0.803,36.48,16.689,32.924,24.369,5.646,5.481,12.627
678,0.787,36.573,16.705,32.876,24.362,5.605,5.318,12.546
679,0.784,36.689,16.623,32.885,24.352,5.523,5.317,12.545
680,0.787,37.093,16.7,32.885,24.369,5.725,5.439,12.626
681,0.774,36.512,16.662,32.914,24.373,5.768,5.521,12.708
682,0.767,36.641,16.732,32.886,24.362,5.647,5.4,12.668
683,0.774,36.757,16.729,32.905,24.366,5.686,5.399,12.79
684,0.767,36.576,16.674,32.895,24.366,5.687,5.44,12.994
685,0.754,36.565,16.763,32.876,24.362,5.564,5.399,13.119
686,0.751,36.708,16.717,32.895,24.362,5.645,5.48,13.16
687,0.761,36.834,16.728,32.895,24.369,5.645,5.481,13.283
688,0.744,36.51,16.783,32.886,24.369,5.645,5.44,13.284
689,0.744,36.593,16.682,32.885,24.359,5.605,5.318,13.365
690,0.744,36.737,16.724,32.895,24.366,5.564,5.398,13.325
691,0.754,36.844,16.721,32.905,24.369,5.685,5.44,13.325
692,0.774,36.385,16.775,32.914,24.38,5.727,5.521,13.447
693,0.748,36.476,16.702,32.876,24.362,5.646,5.319,13.286
694,0.754,36.621,16.678,32.876,24.352,5.523,5.358,13.203
695,0.764,36.699,16.775,32.885,24.362,5.644,5.399,13.365
696,0.767,36.441,16.706,32.885,24.369,5.645,5.48,13.447
697,0.754,36.554,16.697,32.876,24.362,5.605,5.318,13.367
698,0.774,36.718,16.752,32.895,24.366,5.645,5.398,13.204
699,0.751,36.777,16.694,32.866,24.366,5.564,5.399,13.202
700,0.744,36.5,16.689,32.847,24.359,5.523,5.358,13.161
701,0.744,36.669,16.701,32.875,24.366,5.563,5.358,13.161
702,0.744,36.796,16.736,32.895,24.366,5.563,5.521,13.242
703,0.747,36.855,16.713,32.905,24.366,5.645,5.4,13.284
704,0.734,36.5,16.697,32.876,24.362,5.605,5.358,13.284
705,0.712,36.631,16.705,32.837,24.352,5.442,5.358,13.365
706,0.715,36.795,16.721,32.895,24.359,5.643,5.48,13.569
707,0.728,36.864,16.682,32.914,24.373,5.727,5.522,13.734
708,0.702,36.52,16.767,32.876,24.362,5.605,5.4,13.573
709,0.708,36.679,16.62,32.885,24.362,5.523,5.399,13.571
710,0.721,36.796,16.712,32.895,24.362,5.563,5.44,13.653
711,0.718,37.133,16.764,32.866,24.359,5.563,5.359,13.491
712,0.737,36.503,16.741,32.866,24.366,5.604,5.399,13.53
713,0.744,36.631,16.768,32.885,24.366,5.564,5.48,13.531
714,0.734,36.738,16.717,32.876,24.366,5.563,5.4,13.49
715,0.738,36.528,16.764,32.866,24.359,5.441,5.399,13.327
716,0.731,36.526,16.733,32.856,24.352,5.521,5.399,13.366
717,0.757,36.708,16.74,32.866,24.366,5.563,5.48,13.407
718,0.761,36.825,16.795,32.895,24.373,5.685,5.562,13.407
719,0.764,36.538,16.682,32.847,24.362,5.483,5.401,13.204
720,0.77,36.66,16.705,32.856,24.359,5.481,5.358,13.161
721,0.764,36.786,16.713,32.895,24.369,5.522,5.439,13.242
722,0.735,36.883,16.736,32.857,24.359,5.482,5.481,13.162
723,0.731,36.51,16.721,32.856,24.366,5.481,5.359,13.283
724,0.738,36.669,16.728,32.876,24.369,5.522,5.48,13.406
725,0.715,36.786,16.729,32.857,24.362,5.482,5.44,13.407
726,0.705,36.864,16.701,32.856,24.359,5.481,5.359,13.326
727,0.702,36.27,16.74,32.847,24.359,5.4,5.399,13.488
728,0.708,36.418,16.756,32.866,24.366,5.562,5.521,13.611
729,0.705,36.601,16.744,32.914,24.38,5.563,5.603,13.613
730,0.689,36.632,16.744,32.876,24.362,5.401,5.442,13.45
731,0.695,36.527,16.69,32.857,24.359,5.44,5.399,13.286
732,0.692,36.679,16.771,32.866,24.362,5.44,5.44,13.365
733,0.695,36.786,16.702,32.866,24.369,5.481,5.481,13.325
734,0.695,36.864,16.724,32.856,24.366,5.44,5.44,13.162
735,0.705,36.481,16.744,32.856,24.366,5.603,5.521,13.323
736,0.679,36.602,16.783,32.866,24.366,5.564,5.4,13.244
737,0.682,36.738,16.721,32.847,24.355,5.563,5.358,13.202
738,0.692,36.758,16.799,32.856,24.366,5.523,5.399,13.243
739,0.695,36.442,16.706,32.866,24.369,5.563,5.521,13.324
740,0.698,36.659,16.756,32.895,24.373,5.604,5.482,13.244
741,0.688,36.719,16.741,32.857,24.355,5.523,5.4,13.162
742,0.662,37.055,16.748,32.818,24.359,5.522,5.358,13.202
743,0.669,36.406,16.791,32.856,24.369,5.603,5.48,13.365
744,0.662,36.572,16.663,32.856,24.366,5.686,5.644,13.651
745,0.649,36.641,16.693,32.847,24.362,5.524,5.401,13.613
746,0.655,36.412,16.662,32.856,24.369,5.644,5.48,13.857
747,0.646,36.419,16.712,32.856,24.362,5.605,5.481,13.859
748,0.636,36.525,16.744,32.847,24.355,5.523,5.4,13.94
749,0.639,36.65,16.694,32.866,24.366,5.644,5.399,13.941
750,0.636,36.354,16.72,32.866,24.366,5.645,5.48,13.941
751,0.629,36.419,16.728,32.866,24.362,5.645,5.481,13.982
752,0.632,36.553,16.748,32.847,24.362,5.564,5.359,13.738
753,0.623,36.66,16.787,32.866,24.359,5.604,5.358,13.736
754,0.629,36.326,16.698,32.866,24.362,5.604,5.48,13.858
755,0.649,36.476,16.783,32.895,24.373,5.686,5.522,13.9
756,0.639,36.573,16.702,32.857,24.359,5.646,5.36,13.778
757,0.629,36.632,16.748,32.837,24.355,5.564,5.236,13.696
758,0.642,36.278,16.772,32.847,24.366,5.645,5.438,13.695
759,0.642,36.456,16.737,32.866,24.362,5.686,5.481,13.776
760,0.642,36.583,16.752,32.847,24.362,5.646,5.44,13.696
761,0.639,36.651,16.764,32.875,24.369,5.686,5.399,13.776
762,0.623,36.172,16.823,32.857,24.362,5.687,5.358,13.736
763,0.619,36.302,16.772,32.847,24.359,5.646,5.439,13.695
764,0.616,36.456,16.788,32.856,24.362,5.645,5.399,13.857
765,0.603,36.525,16.784,32.866,24.366,5.727,5.48,13.9
766,0.613,36.267,16.756,32.856,24.366,5.768,5.4,13.859
767,0.606,36.399,16.764,32.837,24.359,5.565,5.399,13.778
768,0.6,36.505,16.745,32.837,24.352,5.563,5.318,13.818
769,0.603,36.574,16.623,32.895,24.362,5.685,5.439,13.777
770,0.616,36.335,16.724,32.895,24.376,5.849,5.562,13.858
771,0.606,36.438,16.76,32.857,24.359,5.648,5.319,13.656
772,0.619,36.573,16.76,32.847,24.362,5.727,5.398,13.654
773,0.616,36.891,16.748,32.866,24.359,5.646,5.44,13.654
774,0.619,36.136,16.725,32.856,24.359,5.605,5.359,13.613
775,0.626,36.282,16.756,32.856,24.369,5.726,5.358,13.572
776,0.636,36.408,16.744,32.895,24.369,5.727,5.48,13.571
777,0.633,36.237,16.729,32.857,24.369,5.687,5.522,13.49
778,0.639,36.235,16.748,32.828,24.359,5.646,5.319,13.327
779,0.629,36.369,16.709,32.837,24.359,5.605,5.317,13.284
780,0.639,36.505,16.771,32.856,24.369,5.686,5.48,13.406
781,0.642,36.104,16.862,32.904,24.376,5.89,5.522,13.529
782,0.623,36.148,16.8,32.847,24.362,5.648,5.36,13.408
783,0.61,36.282,16.761,32.837,24.359,5.605,5.399,13.367
784,0.622,36.408,16.713,32.856,24.369,5.645,5.399,13.529
785,0.613,36.093,16.803,32.847,24.369,5.767,5.44,13.571
786,0.616,36.234,16.788,32.847,24.362,5.647,5.318,13.49
787,0.616,36.408,16.768,32.866,24.373,5.645,5.439,13.611
788,0.606,36.458,16.78,32.856,24.366,5.645,5.399,13.613
789,0.603,35.911,16.71,32.847,24.359,5.523,5.318,13.531
790,0.622,36.069,16.767,32.847,24.366,5.603,5.358,13.449
791,0.619,36.214,16.748,32.856,24.362,5.645,5.439,13.448
792,0.632,36.283,16.807,32.847,24.366,5.686,5.399,13.408
793,0.616,35.967,16.757,32.818,24.359,5.564,5.358,13.326
794,0.616,36.098,16.752,32.808,24.355,5.523,5.236,13.203
795,0.629,36.253,16.776,32.846,24.362,5.644,5.397,13.365
796,0.632,36.351,16.733,32.875,24.38,5.727,5.562,13.407
797,0.623,35.997,16.787,32.847,24.362,5.646,5.36,13.245
798,0.636,36.156,16.702,32.828,24.366,5.605,5.358,13.162
799,0.642,36.292,16.736,32.827,24.369,5.604,5.439,13.161
800,0.642,36.322,16.76,32.827,24.359,5.604,5.359,13.08
801,0.636,35.987,16.748,32.827,24.362,5.564,5.317,12.957
802,0.639,36.108,16.783,32.837,24.366,5.645,5.439,13.037
803,0.629,36.244,16.71,32.818,24.362,5.605,5.44,12.997
804,0.619,36.59,16.748,32.808,24.355,5.564,5.359,12.956
805,0.606,36.018,16.737,32.808,24.362,5.645,5.399,13.078
806,0.626,36.175,16.772,32.837,24.366,5.645,5.399,13.119
807,0.639,36.331,16.815,32.856,24.373,5.767,5.521,13.201
808,0.613,35.958,16.749,32.828,24.359,5.565,5.36,13.039
809,0.616,35.954,16.772,32.818,24.362,5.523,5.358,12.956
810,0.619,36.117,16.772,32.846,24.362,5.685,5.399,13.159
811,0.629,36.215,16.862,32.818,24.366,5.646,5.399,13.12
812,0.652,35.88,16.773,32.818,24.359,5.564,5.44,12.957
813,0.668,36.021,16.76,32.837,24.369,5.685,5.44,12.915
814,0.685,36.147,16.69,32.818,24.366,5.646,5.44,12.955
815,0.714,36.225,16.74,32.798,24.355,5.523,5.359,12.874
816,0.744,35.679,16.733,32.837,24.362,5.563,5.358,12.873
817,0.786,35.817,16.791,32.827,24.362,5.685,5.48,12.995
818,0.819,35.972,16.776,32.837,24.366,5.605,5.44,12.915
819,0.83,36.041,16.737,32.808,24.355,5.564,5.359,12.67
820,0.852,35.763,16.783,32.789,24.359,5.482,5.277,12.749
821,0.898,35.943,16.803,32.817,24.362,5.603,5.357,12.831
822,0.902,36.079,16.776,32.837,24.369,5.686,5.48,13.076
823,0.908,36.128,16.725,32.827,24.359,5.524,5.359,12.916
824,0.931,35.726,16.701,32.827,24.366,5.644,5.358,12.996
825,0.944,35.847,16.775,32.827,24.362,5.605,5.399,13.119
826,0.951,35.982,16.776,32.818,24.362,5.401,5.399,13.16
827,0.958,36.06,16.76,32.818,24.362,5.48,5.399,13.242
828,0.964,35.764,16.78,32.837,24.366,5.644,5.44,13.365
829,0.964,35.924,16.752,32.827,24.366,5.483,5.44,13.285
830,0.971,36.021,16.791,32.808,24.359,5.522,5.277,13.284
831,0.981,36.061,16.803,32.789,24.362,5.563,5.398,13.406
832,1.02,35.744,16.858,32.827,24.366,5.523,5.44,13.367
833,1.033,35.895,16.792,32.856,24.373,5.644,5.562,13.488
834,1.017,35.992,16.78,32.818,24.362,5.564,5.319,13.327
835,1.02,36.319,16.807,32.798,24.362,5.441,5.317,13.325
836,1.053,35.594,16.78,32.817,24.366,5.562,5.398,13.406
837,1.069,35.749,16.799,32.818,24.362,5.563,5.399,13.367
838,1.089,35.847,16.784,32.818,24.362,5.482,5.358,13.204
839,1.118,35.733,16.776,32.827,24.373,5.562,5.439,13.283
840,1.132,35.76,16.752,32.818,24.362,5.523,5.44,13.162
841,1.142,35.876,16.834,32.798,24.362,5.4,5.359,13.161
842,1.158,36.021,16.823,32.817,24.366,5.521,5.439,13.202
843,1.178,35.955,16.776,32.818,24.369,5.482,5.521,13.202
844,1.201,36.098,16.756,32.827,24.366,5.481,5.4,13.202
845,1.136,36.205,16.815,32.799,24.362,5.44,5.399,13.202
846,1.093,36.302,16.761,32.779,24.352,5.44,5.358,13.161
847,1.057,35.306,16.768,32.836,24.362,5.562,5.48,13.364
848,1.008,35.449,16.838,32.856,24.376,5.604,5.603,13.407
849,0.932,35.566,16.663,32.828,24.362,5.442,5.401,13.285
850,0.85,35.672,16.747,32.818,24.362,5.44,5.358,13.243
851,0.784,35.693,16.768,32.808,24.369,5.521,5.48,13.243
852,0.696,35.798,16.827,32.827,24.369,5.644,5.522,13.324
853,0.591,35.934,16.8,32.818,24.359,5.442,5.482,13.284
854,0.486,36.04,16.768,32.837,24.366,5.521,5.481,13.406
855,0.342,35.437,16.803,32.818,24.355,5.522,5.522,13.448
856,0.216,35.585,16.757,32.789,24.355,5.482,5.4,13.57
857,0.121,35.74,16.83,32.817,24.362,5.522,5.399,13.734
858,0.042,35.808,16.831,32.818,24.362,5.482,5.48,13.98
859,-0.027,35.512,16.769,32.818,24.366,5.522,5.4,14.267
860,-0.086,35.633,16.768,32.789,24.355,5.36,5.399,14.595
861,-0.172,35.759,16.784,32.789,24.352,5.399,5.358,15.086
862,-0.251,35.818,16.819,32.808,24.369,5.521,5.521,15.579
863,-0.294,35.617,16.804,32.827,24.38,5.603,5.644,15.99
864,-0.366,35.73,16.749,32.808,24.366,5.482,5.401,16.076
865,-0.431,35.875,16.783,32.798,24.362,5.4,5.399,16.321
866,-0.468,36.222,16.768,32.808,24.369,5.562,5.48,16.567
867,-0.501,35.516,16.811,32.798,24.366,5.563,5.522,16.814
868,-0.527,35.653,16.768,32.789,24.355,5.563,5.482,16.857
869,-0.531,35.769,16.756,32.817,24.366,5.563,5.522,16.938
870,-0.534,35.425,16.772,32.818,24.362,5.523,5.522,16.939
871,-0.55,35.383,16.768,32.789,24.355,5.441,5.4,16.817
872,-0.544,35.527,16.791,32.789,24.359,5.521,5.48,16.979
873,-0.544,35.662,16.725,32.798,24.366,5.563,5.562,16.818
874,-0.524,35.424,16.807,32.827,24.366,5.604,5.523,16.816
875,-0.511,35.489,16.796,32.77,24.359,5.442,5.4,16.694
876,-0.495,35.652,16.784,32.769,24.355,5.399,5.399,16.774
877,-0.439,35.779,16.815,32.798,24.369,5.44,5.44,16.978
878,-0.37,35.377,16.765,32.817,24.373,5.643,5.643,17.224
879,-0.327,35.536,16.768,32.789,24.362,5.483,5.483,17.064
880,-0.268,35.662,16.772,32.779,24.366,5.44,5.44,17.103
881,-0.212,35.74,16.815,32.779,24.366,5.44,5.521,17.185
882,-0.166,35.367,16.831,32.779,24.359,5.44,5.522,17.185
883,-0.111,35.507,16.757,32.789,24.366,5.481,5.441,17.267
884,-0.051,35.672,16.807,32.779,24.369,5.522,5.481,17.471
885,0.011,35.721,16.757,32.789,24.362,5.482,5.44,17.514
886,0.077,35.262,16.83,32.779,24.359,5.4,5.481,17.473
887,0.133,35.41,16.804,32.769,24.355,5.48,5.481,17.473
888,0.198,35.556,16.788,32.798,24.373,5.481,5.522,17.514
889,0.241,35.644,16.815,32.808,24.369,5.481,5.563,17.473
890,0.287,35.29,16.768,32.779,24.362,5.4,5.482,17.27
891,0.314,35.43,16.799,32.741,24.355,5.318,5.359,17.064
892,0.385,35.585,16.753,32.798,24.369,5.398,5.521,17.184
893,0.432,35.634,16.756,32.837,24.373,5.521,5.603,17.145
894,0.455,35.309,16.768,32.799,24.359,5.36,5.442,16.778
895,0.488,35.44,16.76,32.789,24.362,5.399,5.44,16.653
896,0.504,35.566,16.768,32.789,24.362,5.399,5.521,16.57
897,0.527,35.931,16.815,32.779,24.359,5.318,5.441,16.366
898,0.56,35.312,16.807,32.779,24.362,5.358,5.44,16.08
899,0.576,35.468,16.78,32.789,24.366,5.439,5.481,16.036
900,0.586,35.585,16.799,32.789,24.369,5.44,5.481,15.832
901,0.616,35.289,16.866,32.75,24.362,5.359,5.359,15.627
902,0.6,35.286,16.82,32.759,24.362,5.399,5.439,15.503
903,0.616,35.459,16.811,32.807,24.369,5.44,5.481,15.461
904,0.639,35.595,16.78,32.808,24.376,5.521,5.481,15.339
905,0.646,35.174,16.819,32.75,24.355,5.319,5.481,15.134
906,0.642,35.266,16.765,32.769,24.352,5.317,5.318,14.969
907,0.649,35.439,16.83,32.779,24.362,5.48,5.439,15.009
908,0.639,35.546,16.847,32.779,24.373,5.44,5.44,14.887
909,0.662,35.126,16.804,32.779,24.362,5.359,5.399,14.723
910,0.672,35.275,16.854,32.808,24.369,5.439,5.48,14.599
911,0.675,35.382,16.808,32.789,24.362,5.44,5.481,14.395
912,0.691,35.46,16.874,32.75,24.359,5.399,5.359,14.271
913,0.701,35.154,16.773,32.759,24.355,5.399,5.399,14.229
914,0.714,35.333,16.815,32.788,24.362,5.44,5.521,14.228
915,0.731,35.449,16.8,32.798,24.369,5.481,5.441,14.188
916,0.728,35.527,16.768,32.76,24.359,5.4,5.44,14.106
917,0.734,35.058,16.784,32.731,24.352,5.318,5.359,14.105
918,0.754,35.236,16.788,32.778,24.366,5.439,5.439,14.105
919,0.761,35.401,16.807,32.808,24.369,5.562,5.481,14.187
920,0.757,35.441,16.768,32.77,24.359,5.401,5.4,13.944
921,0.764,35.182,16.838,32.769,24.362,5.399,5.358,13.941
922,0.751,35.333,16.839,32.769,24.362,5.44,5.439,13.982
923,0.748,35.44,16.73,32.76,24.362,5.481,5.359,13.982
924,0.754,35.508,16.791,32.769,24.366,5.44,5.399,13.982
925,0.764,35.096,16.858,32.76,24.369,5.44,5.48,13.942
926,0.764,35.246,16.827,32.779,24.366,5.399,5.4,13.982
927,0.751,35.353,16.8,32.75,24.352,5.358,5.358,13.901
928,0.744,35.718,16.87,32.75,24.359,5.439,5.358,13.981
929,0.751,35.07,16.75,32.769,24.366,5.44,5.399,13.982
930,0.767,35.236,16.787,32.798,24.376,5.521,5.562,13.982
931,0.761,35.314,16.854,32.75,24.359,5.4,5.36,13.698
932,0.774,35.133,16.831,32.75,24.366,5.358,5.358,13.654
933,0.774,35.16,16.815,32.759,24.366,5.439,5.439,13.735
934,0.78,35.294,16.765,32.76,24.362,5.44,5.44,13.695
935,0.797,35.43,16.846,32.76,24.362,5.399,5.399,13.613
936,0.794,35.134,16.8,32.76,24.369,5.521,5.521,13.613
937,0.797,35.208,16.792,32.769,24.362,5.441,5.482,13.531
938,0.794,35.324,16.854,32.74,24.359,5.359,5.318,13.368
939,0.8,35.449,16.679,32.75,24.355,5.399,5.358,13.366
940,0.813,34.894,16.798,32.759,24.359,5.399,5.48,13.325
941,0.816,35.033,16.807,32.769,24.369,5.399,5.44,13.244
942,0.8,35.13,16.858,32.74,24.362,5.277,5.318,13.121
943,0.8,35.198,16.824,32.721,24.362,5.235,5.317,13.079
944,0.807,35.007,16.847,32.778,24.369,5.438,5.439,13.241
945,0.797,35.149,16.847,32.769,24.373,5.521,5.521,13.324
946,0.794,35.294,16.78,32.788,24.362,5.36,5.319,13.244
947,0.797,35.372,16.807,32.75,24.366,5.399,5.398,13.243
948,0.787,34.894,16.819,32.74,24.366,5.399,5.44,13.324
949,0.787,35.052,16.757,32.74,24.359,5.318,5.399,13.203
950,0.803,35.197,16.819,32.769,24.369,5.358,5.399,13.202
951,0.807,35.285,16.792,32.76,24.369,5.399,5.399,13.324
952,0.813,34.95,16.838,32.74,24.362,5.318,5.318,13.203
953,0.803,35.1,16.862,32.731,24.359,5.317,5.358,13.08
954,0.81,35.217,16.827,32.721,24.352,5.358,5.358,13.201
955,0.829,35.276,16.839,32.759,24.362,5.358,5.521,13.283
956,0.846,35.046,16.858,32.779,24.373,5.399,5.482,13.284
957,0.833,35.159,16.847,32.721,24.359,5.277,5.318,13.203
958,0.839,35.266,16.823,32.711,24.352,5.235,5.317,13.039
959,0.849,35.66,16.808,32.74,24.366,5.357,5.398,13.16
960,0.843,34.964,16.784,32.75,24.369,5.439,5.48,13.202
961,0.843,35.091,16.799,32.74,24.362,5.318,5.4,13.161
962,0.836,35.227,16.803,32.74,24.366,5.358,5.48,13.283
963,0.833,34.959,16.807,32.75,24.362,5.399,5.4,13.203
964,0.83,34.957,16.78,32.721,24.359,5.318,5.318,13.161
965,0.833,35.101,16.842,32.73,24.362,5.358,5.398,13.323
966,0.843,35.236,16.855,32.74,24.369,5.439,5.44,13.447
967,0.836,34.94,16.839,32.74,24.366,5.399,5.44,13.367
968,0.833,34.985,16.851,32.74,24.359,5.358,5.399,13.366
969,0.833,35.149,16.757,32.711,24.352,5.236,5.358,13.244
970,0.836,35.256,16.834,32.721,24.366,5.397,5.399,13.365
971,0.843,34.777,16.835,32.73,24.373,5.48,5.48,13.569
972,0.859,34.897,16.847,32.711,24.362,5.4,5.4,13.409
973,0.869,35.033,16.847,32.721,24.369,5.399,5.44,13.57
974,0.863,35.12,16.816,32.74,24.369,5.44,5.399,13.612
975,0.872,34.757,16.827,32.702,24.355,5.318,5.318,13.694
976,0.876,34.935,16.804,32.73,24.362,5.398,5.358,13.857
977,0.882,35.091,16.878,32.74,24.366,5.44,5.439,13.94
978,0.902,35.179,16.871,32.731,24.362,5.481,5.44,13.86
979,0.889,34.882,16.8,32.702,24.362,5.4,5.359,13.737
980,0.885,35.004,16.846,32.692,24.355,5.318,5.317,13.695
981,0.902,35.168,16.862,32.74,24.366,5.48,5.439,13.817
982,0.895,35.237,16.882,32.74,24.376,5.522,5.562,13.859
983,0.886,34.758,16.808,32.711,24.362,5.36,5.319,13.696
984,0.889,34.926,16.761,32.721,24.362,5.439,5.398,13.654
985,0.892,35.052,16.834,32.721,24.362,5.399,5.358,13.776
986,0.879,35.082,16.741,32.711,24.373,5.399,5.317,13.696
987,0.889,34.862,16.846,32.702,24.359,5.277,5.358,13.817
988,0.889,35.004,16.847,32.721,24.366,5.479,5.48,13.818
989,0.892,35.13,16.816,32.721,24.362,5.359,5.44,13.696
990,0.895,35.486,16.823,32.692,24.362,5.317,5.318,13.532
991,0.905,34.866,16.862,32.701,24.366,5.48,5.358,13.571
992,0.915,35.013,16.894,32.711,24.362,5.44,5.358,13.49
993,0.931,35.149,16.804,32.74,24.369,5.399,5.399,13.449
994,0.931,34.815,16.788,32.702,24.362,5.399,5.277,13.286
995,0.935,34.783,16.792,32.682,24.359,5.358,5.276,13.162
996,0.948,34.974,16.815,32.711,24.366,5.399,5.316,13.364
997,0.954,35.072,16.854,32.721,24.366,5.48,5.439,13.366
998,0.964,34.757,16.835,32.702,24.362,5.4,5.359,13.122
999,0.974,34.888,16.839,32.701,24.369,5.48,5.317,13.12
1000,0.968,35.023,16.823,32.711,24.366,5.4,5.398,13.12
1001,0.971,35.101,16.909,32.682,24.355,5.399,5.318,12.998
1002,0.974,34.623,16.886,32.711,24.362,5.358,5.398,12.996
1003,0.971,34.771,16.8,32.721,24.366,5.48,5.399,13.119
1004,0.977,34.945,16.842,32.711,24.366,5.44,5.44,13.201
1005,0.958,34.985,16.8,32.682,24.355,5.399,5.359,13.121
1006,0.968,34.525,16.815,32.673,24.352,5.318,5.317,13.201
1007,0.971,34.703,16.843,32.711,24.366,5.398,5.439,13.324
1008,0.984,34.858,16.87,32.73,24.373,5.562,5.562,13.447
1009,0.984,34.908,16.816,32.702,24.366,5.401,5.36,13.286
1010,0.994,34.784,16.796,32.701,24.359,5.358,5.277,13.203
1011,0.997,34.945,16.858,32.711,24.369,5.439,5.398,13.283
1012,1.01,35.052,16.831,32.682,24.362,5.359,5.399,13.203
1013,1.02,35.121,16.847,32.701,24.359,5.399,5.318,13.121
1014,1.03,34.623,16.816,32.701,24.366,5.399,5.48,13.201
1015,1.05,34.781,16.847,32.692,24.366,5.44,5.481,13.202
1016,1.037,34.897,16.769,32.682,24.352,5.318,5.318,12.999
1017,1.037,34.927,16.881,32.692,24.362,5.358,5.358,13.078
1018,1.059,34.784,16.835,32.721,24.366,5.48,5.521,13.038
1019,1.086,34.965,16.847,32.74,24.376,5.481,5.522,13.038
1020,1.076,35.062,16.866,32.683,24.359,5.359,5.36,12.956
1021,1.076,35.399,16.859,32.682,24.359,5.317,5.399,12.956
1022,1.083,34.654,16.859,32.711,24.366,5.398,5.399,13.118
1023,1.076,34.791,16.804,32.692,24.366,5.521,5.44,13.242
1024,1.086,34.888,16.858,32.682,24.359,5.36,5.359,13.162
1025,1.089,34.822,16.855,32.711,24.366,5.439,5.439,13.202
1026,1.083,34.869,16.847,32.692,24.362,5.399,5.399,13.243
1027,1.083,35.004,16.816,32.682,24.359,5.318,5.358,13.202
1028,1.089,35.111,16.854,32.701,24.362,5.398,5.358,13.405
1029,1.109,34.719,16.839,32.778,24.369,5.399,5.439,13.448
1030,1.119,34.82,16.831,32.702,24.362,5.399,5.481,13.326
1031,1.115,34.907,16.882,32.682,24.359,5.277,5.359,13.244
1032,1.128,35.014,16.878,32.673,24.352,5.276,5.399,13.284
1033,1.151,34.67,16.898,32.701,24.366,5.357,5.48,13.284
1034,1.161,34.858,16.84,32.73,24.373,5.521,5.522,13.365
1035,1.168,34.937,16.835,32.663,24.369,5.319,5.319,13.122
1036,1.171,35.033,16.796,32.692,24.355,5.358,5.358,13.16
1037,1.168,34.766,16.811,32.682,24.359,5.317,5.399,13.242
1038,1.175,34.878,16.866,32.673,24.362,5.317,5.358,13.04
1039,1.194,35.052,16.695,32.692,24.362,5.358,5.399,13.038
1040,1.194,35.13,16.834,32.682,24.373,5.399,5.48,13.078
1041,1.198,35.093,16.847,32.692,24.369,5.318,5.4,13.038
1042,1.194,35.246,16.89,32.663,24.355,5.317,5.318,13.038
1043,1.185,35.334,16.824,32.663,24.362,5.358,5.398,13.119
1044,1.204,35.43,16.839,32.701,24.366,5.358,5.521,13.282
1045,1.211,34.952,16.929,32.711,24.373,5.521,5.482,13.365
1046,1.194,35.072,16.883,32.682,24.362,5.319,5.4,13.366
1047,1.198,35.188,16.878,32.673,24.352,5.236,5.318,13.407
1048,1.201,35.247,16.863,32.672,24.362,5.438,5.439,13.529
1049,1.188,35.171,16.867,32.692,24.369,5.359,5.44,13.612
1050,1.207,35.304,16.831,32.682,24.362,5.358,5.399,13.572
1051,1.22,35.43,16.862,32.692,24.366,5.399,5.44,13.571
1052,1.227,35.824,16.886,32.673,24.362,5.399,5.44,13.571
1053,1.214,35.311,16.828,32.663,24.355,5.318,5.359,13.49
1054,1.224,35.459,16.808,32.692,24.355,5.317,5.399,13.449
1055,1.237,35.575,16.846,32.692,24.369,5.317,5.521,13.53
1056,1.237,35.519,16.851,32.682,24.369,5.358,5.4,13.531
1057,1.24,35.547,16.847,32.663,24.359,5.317,5.399,13.368
1058,1.244,35.663,16.839,32.634,24.352,5.236,5.318,13.366
1059,1.253,35.817,16.855,32.682,24.362,5.438,5.48,13.447
1060,1.26,35.56,16.886,32.701,24.373,5.562,5.562,13.489
1061,1.247,35.624,16.863,32.663,24.359,5.319,5.319,13.286
1062,1.24,35.778,16.855,32.653,24.366,5.317,5.317,13.243
1063,1.231,35.866,16.773,32.672,24.366,5.358,5.439,13.365
1064,1.234,35.8,16.764,32.653,24.362,5.317,5.399,13.325
1065,1.224,35.924,16.826,32.663,24.362,5.398,5.358,13.366
1066,1.227,36.098,16.847,32.682,24.366,5.399,5.48,13.407
1067,1.217,36.157,16.862,32.653,24.366,5.358,5.359,13.285
1068,1.201,36.014,16.87,32.644,24.362,5.317,5.317,13.325
1069,1.198,36.156,16.855,32.634,24.359,5.398,5.317,13.284
1070,1.204,36.321,16.878,32.672,24.369,5.48,5.439,13.284
1071,1.204,36.418,16.921,32.682,24.376,5.522,5.481,13.243
1072,1.211,36.266,16.867,32.653,24.359,5.36,5.318,13.04
1073,1.207,36.389,16.835,32.634,24.359,5.358,5.195,12.956
1074,1.217,36.534,16.831,32.672,24.369,5.439,5.478,13.037
1075,1.214,36.593,16.858,32.682,24.373,5.521,5.481,13.078
1076,1.217,36.431,16.765,32.653,24.359,5.4,5.4,12.916
1077,1.211,36.573,16.869,32.672,24.366,5.48,5.44,12.955
1078,1.211,36.689,16.863,32.672,24.359,5.44,5.44,12.874
1079,1.198,36.719,16.847,32.653,24.359,5.399,5.318,12.751
1080,1.194,36.691,16.878,32.653,24.362,5.48,5.398,12.75
1081,1.188,36.834,16.937,32.691,24.362,5.481,5.48,12.831
1082,1.181,36.98,16.871,32.692,24.366,5.481,5.522,12.832
1083,1.162,37.326,16.769,32.653,24.366,5.44,5.36,12.751
1084,1.145,36.822,16.846,32.644,24.352,5.359,5.317,12.831
1085,1.142,36.979,16.855,32.672,24.369,5.561,5.48,13.117
1086,1.132,37.096,16.863,32.682,24.369,5.482,5.481,13.242
1087,1.132,36.963,16.867,32.663,24.359,5.481,5.4,13.202
1088,1.116,37.01,16.847,32.672,24.369,5.522,5.48,13.324
1089,1.109,37.144,16.851,32.692,24.362,5.482,5.44,13.366
1090,1.109,37.232,16.859,32.663,24.359,5.44,5.359,13.244
1091,1.102,37.156,16.913,32.672,24.366,5.399,5.399,13.284
1092,1.102,37.309,16.871,32.672,24.369,5.521,5.48,13.325
1093,1.096,37.416,16.847,32.663,24.366,5.482,5.481,13.203
1094,1.086,37.494,16.87,32.653,24.359,5.4,5.318,13.161
1095,1.079,37.149,16.882,32.634,24.348,5.318,5.358,13.202
1096,1.079,37.328,16.898,32.682,24.369,5.439,5.521,13.283
1097,1.083,37.493,16.914,32.682,24.373,5.643,5.522,13.406
1098,1.07,37.514,16.84,32.653,24.366,5.361,5.36,13.245
1099,1.066,37.245,16.851,32.644,24.359,5.399,5.358,13.284
1100,1.06,37.377,16.905,32.643,24.366,5.521,5.439,13.325
1101,1.043,37.503,16.886,32.624,24.366,5.482,5.481,13.406
1102,1.03,37.571,16.839,32.643,24.362,5.481,5.359,13.529
1103,1.02,37.447,16.784,32.672,24.366,5.481,5.399,13.693
1104,1.007,37.59,16.877,32.663,24.362,5.44,5.399,13.735
1105,0.984,37.687,16.855,32.644,24.359,5.399,5.318,13.655
1106,0.965,37.755,16.839,32.624,24.359,5.399,5.358,13.776
1107,0.974,37.497,16.909,32.634,24.362,5.521,5.48,13.899
1108,0.971,37.667,16.847,32.682,24.373,5.603,5.562,13.981
1109,0.945,37.765,16.847,32.644,24.359,5.482,5.441,13.779
1110,0.932,37.814,16.862,32.643,24.362,5.481,5.318,13.818
1111,0.925,37.488,16.906,32.643,24.362,5.522,5.398,13.899
1112,0.931,37.6,16.883,32.634,24.362,5.563,5.358,13.9
1113,0.931,37.726,16.82,32.634,24.362,5.482,5.358,13.859
1114,0.918,38.13,16.897,32.653,24.366,5.522,5.399,13.859
1115,0.918,37.635,16.808,32.634,24.362,5.522,5.399,13.818
1116,0.905,37.764,16.866,32.624,24.359,5.441,5.318,13.777
1117,0.895,37.871,16.874,32.634,24.359,5.481,5.398,13.614
1118,0.912,38.371,16.82,32.624,24.366,5.562,5.48,13.572
1119,0.902,38.587,16.87,32.672,24.38,5.645,5.44,13.612
1120,0.879,38.694,16.902,32.625,24.362,5.605,5.318,13.491
1121,0.879,38.782,16.89,32.605,24.362,5.401,5.317,13.367
1122,0.866,37.277,16.89,32.633,24.366,5.521,5.439,13.447
1123,0.856,37.319,16.851,32.624,24.366,5.522,5.481,13.489
1124,0.856,37.435,16.862,32.634,24.362,5.441,5.359,13.408
1125,0.833,37.551,16.882,32.624,24.366,5.481,5.439,13.448
1126,0.823,37.399,16.863,32.624,24.362,5.481,5.44,13.53
1127,0.817,37.513,16.89,32.595,24.352,5.359,5.359,13.408
1128,0.807,37.667,16.847,32.624,24.362,5.521,5.399,13.57
1129,0.79,37.784,16.855,32.634,24.369,5.522,5.48,13.612
1130,0.797,37.353,16.886,32.643,24.366,5.563,5.4,13.613
1131,0.79,37.464,16.871,32.634,24.359,5.441,5.399,13.45
1132,0.784,37.561,16.867,32.586,24.355,5.318,5.318,13.408
1133,0.787,37.648,16.82,32.633,24.362,5.52,5.398,13.489
1134,0.79,37.343,16.776,32.634,24.376,5.563,5.521,13.693
1135,0.784,37.464,16.889,32.615,24.359,5.401,5.36,13.573
1136,0.793,37.609,16.847,32.624,24.366,5.48,5.399,13.653
1137,0.787,37.659,16.909,32.614,24.366,5.522,5.358,13.694
1138,0.78,37.352,16.859,32.605,24.359,5.4,5.317,13.613
1139,0.793,37.531,16.902,32.614,24.362,5.48,5.317,13.613
1140,0.774,37.658,16.894,32.624,24.362,5.481,5.398,13.694
1141,0.764,37.678,16.937,32.614,24.359,5.481,5.358,13.654
1142,0.751,37.257,16.934,32.605,24.359,5.359,5.358,13.532
1143,0.748,37.358,16.824,32.605,24.359,5.439,5.399,13.571
1144,0.747,37.531,16.917,32.633,24.362,5.44,5.48,13.775
1145,0.751,37.907,16.89,32.662,24.376,5.643,5.562,13.858
1146,0.721,37.336,16.882,32.605,24.362,5.401,5.401,13.778
1147,0.724,37.464,16.921,32.605,24.355,5.399,5.358,13.736
1148,0.721,37.571,16.887,32.643,24.366,5.44,5.399,13.858
1149,0.724,37.39,16.886,32.615,24.366,5.481,5.48,13.859
1150,0.721,37.407,16.894,32.614,24.366,5.481,5.4,13.859
1151,0.718,37.541,16.937,32.614,24.373,5.481,5.48,13.94
1152,0.721,37.639,16.895,32.624,24.369,5.481,5.44,13.941
1153,0.721,37.131,16.82,32.595,24.359,5.4,5.318,13.86
1154,0.721,37.241,16.874,32.624,24.369,5.44,5.398,13.859
1155,0.731,37.377,16.816,32.614,24.369,5.521,5.44,13.94
1156,0.728,37.484,16.882,32.614,24.359,5.441,5.359,13.9
1157,0.721,37.13,16.875,32.595,24.359,5.359,5.358,13.859
1158,0.728,37.232,16.828,32.595,24.359,5.399,5.358,13.737
1159,0.738,37.396,16.866,32.605,24.369,5.48,5.399,13.736
1160,0.734,37.513,16.925,32.643,24.38,5.562,5.602,13.858
1161,0.721,36.986,16.957,32.605,24.359,5.401,5.36,13.656
1162,0.721,37.144,16.867,32.605,24.369,5.44,5.399,13.613
1163,0.711,37.29,16.831,32.614,24.366,5.481,5.399,13.775
1164,0.702,37.339,16.882,32.605,24.366,5.44,5.48,13.736
1165,0.701,37.061,16.867,32.595,24.366,5.521,5.4,13.776
1166,0.701,37.222,16.878,32.614,24.369,5.482,5.48,13.858
1167,0.692,37.338,16.941,32.605,24.369,5.481,5.44,13.859
1168,0.675,37.397,16.867,32.605,24.355,5.4,5.359,13.737
1169,0.685,36.985,16.874,32.595,24.362,5.44,5.439,13.817
1170,0.675,37.154,16.913,32.614,24.362,5.521,5.44,13.777
1171,0.701,37.318,16.914,32.634,24.373,5.603,5.562,13.696
1172,0.695,37.291,16.883,32.586,24.362,5.36,5.36,13.532
1173,0.688,36.85,16.777,32.595,24.359,5.317,5.317,13.449
1174,0.692,37.008,16.924,32.614,24.373,5.439,5.439,13.611
1175,0.701,37.125,16.859,32.634,24.373,5.562,5.521,13.694
1176,0.705,37.491,16.882,32.605,24.359,5.482,5.36,13.573
1177,0.705,36.929,16.929,32.605,24.369,5.481,5.439,13.571
1178,0.715,37.076,16.738,32.614,24.355,5.4,5.359,13.531
1179,0.702,37.164,16.873,32.586,24.362,5.399,5.358,13.327
1180,0.714,36.992,16.921,32.585,24.362,5.44,5.277,13.447
1181,0.711,37.0,16.887,32.624,24.369,5.521,5.438,13.53
1182,0.705,37.154,16.875,32.595,24.366,5.522,5.44,13.531
1183,0.692,37.251,16.859,32.633,24.359,5.441,5.359,13.49
1184,0.682,36.677,16.859,32.567,24.352,5.399,5.317,13.449
1185,0.692,36.786,16.866,32.614,24.362,5.562,5.398,13.652
1186,0.692,36.96,16.933,32.634,24.376,5.645,5.562,13.776
1187,0.682,37.019,16.965,32.586,24.359,5.442,5.36,13.614
1188,0.688,36.77,16.786,32.605,24.355,5.481,5.399,13.694
1189,0.682,36.883,16.901,32.614,24.366,5.522,5.399,13.735
1190,0.679,37.009,16.898,32.586,24.362,5.441,5.399,13.655
1191,0.691,37.106,16.953,32.576,24.359,5.481,5.358,13.613
1192,0.692,36.522,16.899,32.595,24.373,5.562,5.439,13.694
1193,0.698,36.698,16.832,32.576,24.369,5.401,5.481,13.613
1194,0.692,36.806,16.894,32.576,24.355,5.399,5.318,13.45
1195,0.701,36.864,16.847,32.566,24.362,5.44,5.439,13.57
1196,0.708,36.539,16.913,32.604,24.369,5.481,5.44,13.694
1197,0.715,36.699,16.906,32.614,24.376,5.562,5.481,13.613
1198,0.721,36.777,16.832,32.576,24.352,5.401,5.318,13.45
1199,0.711,36.864,16.882,32.537,24.355,5.318,5.358,13.286
1200,0.711,36.644,16.89,32.585,24.362,5.52,5.439,13.447
1201,0.718,36.786,16.894,32.576,24.369,5.563,5.44,13.448
1202,0.708,36.902,16.832,32.585,24.362,5.441,5.359,13.326
1203,0.711,36.961,16.843,32.595,24.366,5.521,5.439,13.406
1204,0.715,36.684,16.882,32.585,24.366,5.441,5.399,13.326
1205,0.702,36.815,16.886,32.557,24.359,5.481,5.358,13.162
1206,0.701,36.941,16.918,32.585,24.362,5.481,5.358,13.242
1207,0.701,37.316,16.906,32.614,24.366,5.481,5.439,13.243
1208,0.714,36.591,16.875,32.624,24.373,5.562,5.481,13.202
1209,0.682,36.699,16.851,32.586,24.366,5.441,5.359,13.121
1210,0.701,36.815,16.894,32.585,24.355,5.399,5.317,12.917
1211,0.698,36.605,16.957,32.605,24.362,5.521,5.317,13.118
1212,0.705,36.603,16.914,32.595,24.366,5.563,5.439,13.12
1213,0.702,36.718,16.836,32.595,24.362,5.482,5.44,13.079
1214,0.718,36.844,16.851,32.605,24.366,5.562,5.44,13.16
1215,0.721,36.443,16.878,32.595,24.359,5.441,5.399,13.12
1216,0.715,36.535,16.839,32.566,24.359,5.481,5.318,13.12
1217,0.728,36.689,16.96,32.604,24.366,5.481,5.398,13.201
1218,0.741,36.796,16.856,32.605,24.373,5.522,5.44,13.243
1219,0.751,36.202,16.925,32.614,24.369,5.563,5.399,13.243
1220,0.738,36.302,16.926,32.566,24.359,5.441,5.358,13.202
1221,0.731,36.408,16.91,32.547,24.345,5.318,5.317,13.08
1222,0.718,36.534,16.902,32.585,24.365,5.48,5.398,13.282
1223,0.718,36.535,16.824,32.585,24.366,5.562,5.48,13.447
1224,0.715,36.699,16.862,32.576,24.366,5.523,5.359,13.448
1225,0.721,36.815,16.902,32.595,24.369,5.482,5.439,13.489
1226,0.705,36.903,16.879,32.595,24.366,5.481,5.318,13.652
1227,0.692,36.299,16.929,32.557,24.362,5.481,5.317,13.572
1228,0.698,36.456,16.902,32.585,24.366,5.522,5.317,13.653
1229,0.695,36.621,16.937,32.595,24.366,5.522,5.439,13.735
1230,0.718,36.699,16.938,32.605,24.376,5.522,5.481,13.695
1231,0.702,36.297,16.961,32.566,24.359,5.4,5.318,13.492
1232,0.698,36.418,16.907,32.566,24.348,5.44,5.236,13.367
1233,0.711,36.573,16.875,32.585,24.359,5.481,5.438,13.529
1234,0.711,36.613,16.921,32.595,24.369,5.562,5.481,13.612
1235,0.721,36.306,16.906,32.576,24.359,5.441,5.44,13.491
1236,0.731,36.495,16.929,32.585,24.366,5.521,5.359,13.571
1237,0.728,36.583,16.906,32.576,24.359,5.482,5.358,13.531
1238,0.734,36.948,16.925,32.547,24.362,5.481,5.317,13.408
1239,0.731,36.29,16.898,32.575,24.366,5.481,5.398,13.448
1240,0.747,36.428,16.953,32.585,24.366,5.522,5.44,13.53
1241,0.741,36.563,16.981,32.605,24.366,5.563,5.359,13.571
1242,0.721,36.286,16.973,32.566,24.366,5.401,5.317,13.531
1243,0.711,36.303,16.899,32.547,24.355,5.358,5.236,13.531
1244,0.711,36.456,16.91,32.585,24.359,5.561,5.397,13.774
1245,0.705,36.583,16.953,32.585,24.373,5.563,5.48,13.98
1246,0.702,36.22,16.871,32.566,24.359,5.401,5.318,13.982
1247,0.701,36.35,16.925,32.576,24.369,5.521,5.358,14.063
1248,0.701,36.457,16.902,32.585,24.366,5.441,5.399,14.064
1249,0.698,36.544,16.773,32.566,24.359,5.359,5.358,13.983
1250,0.718,36.037,16.901,32.566,24.366,5.439,5.399,13.942
1251,0.711,36.166,16.902,32.595,24.373,5.481,5.44,14.022
1252,0.711,36.302,16.925,32.585,24.366,5.44,5.359,13.942
1253,0.718,36.37,16.926,32.547,24.359,5.318,5.236,13.819
1254,0.702,36.083,16.887,32.547,24.359,5.317,5.316,13.859
1255,0.721,36.253,16.914,32.585,24.373,5.48,5.317,13.9
1256,0.721,36.437,16.937,32.595,24.373,5.522,5.52,13.941
1257,0.715,36.458,16.977,32.547,24.359,5.319,5.36,13.778
1258,0.734,36.055,16.875,32.556,24.362,5.276,5.317,13.614
1259,0.721,36.233,16.921,32.566,24.369,5.357,5.439,13.653
1260,0.721,36.369,16.914,32.537,24.366,5.317,5.399,13.613
1261,0.721,36.409,16.972,32.566,24.366,5.398,5.358,13.572
1262,0.721,36.093,16.953,32.585,24.362,5.358,5.358,13.531
1263,0.708,36.234,16.852,32.566,24.362,5.317,5.358,13.571
1264,0.698,36.322,16.933,32.556,24.359,5.195,5.317,13.531
1265,0.688,36.38,16.891,32.556,24.366,5.316,5.317,13.612
1266,0.692,36.016,16.941,32.566,24.369,5.317,5.358,13.653
1267,0.711,36.166,16.977,32.595,24.376,5.48,5.439,13.816
1268,0.695,36.263,16.879,32.557,24.362,5.359,5.277,13.574
1269,0.682,36.667,16.937,32.585,24.362,5.317,5.316,13.449
1270,0.688,36.048,16.914,32.547,24.362,5.398,5.398,13.611
1271,0.692,36.166,16.926,32.547,24.366,5.318,5.358,13.572
1272,0.705,36.302,16.922,32.556,24.359,5.276,5.317,13.449
1273,0.711,36.025,16.851,32.585,24.369,5.357,5.398,13.57
1274,0.705,35.993,16.917,32.557,24.366,5.277,5.399,13.409
1275,0.708,36.137,16.887,32.537,24.362,5.195,5.277,13.367
1276,0.698,36.234,16.918,32.537,24.359,5.234,5.316,13.447
1277,0.701,35.794,16.91,32.566,24.369,5.316,5.398,13.53
1278,0.727,35.924,16.828,32.585,24.373,5.358,5.44,13.449
1279,0.715,36.031,16.913,32.547,24.359,5.277,5.237,13.408
1280,0.702,36.089,16.965,32.518,24.359,5.195,5.235,13.285
1281,0.711,37.432,16.973,32.556,24.366,5.316,5.316,13.447
1282,0.702,37.609,16.844,32.556,24.373,5.358,5.358,13.448
1283,0.695,37.726,16.808,32.585,24.362,5.317,5.236,13.367
1284,0.695,37.794,16.932,32.566,24.373,5.317,5.397,13.488
1285,0.685,35.071,16.934,32.556,24.362,5.236,5.318,13.449
1286,0.679,35.197,16.941,32.537,24.362,5.235,5.276,13.489
1287,0.685,35.371,16.953,32.527,24.359,5.235,5.316,13.53
1288,0.685,35.469,16.91,32.575,24.373,5.316,5.398,13.571
1289,0.685,35.921,16.91,32.547,24.362,5.276,5.318,13.571
1290,0.679,36.069,16.941,32.537,24.362,5.154,5.276,13.409
1291,0.672,36.186,16.895,32.527,24.352,5.112,5.235,13.448
1292,0.691,36.263,16.894,32.546,24.369,5.315,5.316,13.408
1293,0.688,35.727,16.902,32.595,24.369,5.439,5.48,13.57
1294,0.682,35.856,16.933,32.528,24.359,5.196,5.278,13.409
1295,0.695,35.992,16.906,32.546,24.359,5.275,5.276,13.367
1296,0.701,36.031,16.902,32.537,24.366,5.316,5.357,13.529
1297,0.692,35.696,16.957,32.527,24.366,5.317,5.317,13.408
1298,0.701,35.846,16.852,32.537,24.355,5.195,5.276,13.367
1299,0.705,35.982,16.921,32.547,24.369,5.397,5.398,13.366
1300,0.708,36.348,16.988,32.537,24.369,5.277,5.318,13.325
1301,0.698,35.642,16.958,32.527,24.352,5.154,5.276,13.203
1302,0.692,35.798,16.903,32.527,24.362,5.275,5.316,13.202
1303,0.708,35.972,16.886,32.585,24.362,5.316,5.398,13.283
1304,0.708,35.801,16.902,32.557,24.369,5.236,5.358,13.284
1305,0.679,35.751,16.886,32.518,24.359,5.194,5.236,13.365
1306,0.669,35.904,16.929,32.508,24.352,5.153,5.194,13.285
1307,0.675,36.011,17.023,32.537,24.372,5.234,5.356,13.447
1308,0.682,35.715,16.895,32.566,24.373,5.397,5.439,13.611
1309,0.669,35.808,16.957,32.537,24.359,5.277,5.318,13.531
1310,0.682,35.943,16.957,32.556,24.366,5.316,5.317,13.49
1311,0.669,36.031,17.008,32.537,24.366,5.317,5.358,13.49
1312,0.685,35.591,16.876,32.518,24.352,5.154,5.277,13.245
1313,0.669,35.73,16.843,32.537,24.362,5.193,5.235,13.324
1314,0.691,35.885,16.894,32.537,24.366,5.275,5.397,13.447
1315,0.695,35.992,16.929,32.575,24.369,5.276,5.358,13.408
1316,0.679,35.552,16.91,32.537,24.359,5.195,5.195,13.367
1317,0.678,35.663,16.926,32.489,24.352,5.153,5.194,13.285
1318,0.695,35.836,16.848,32.565,24.372,5.234,5.356,13.365
1319,0.695,35.934,16.89,32.528,24.369,5.316,5.439,13.407
1320,0.705,35.724,16.988,32.508,24.362,5.236,5.318,13.204
1321,0.702,35.904,16.965,32.527,24.369,5.275,5.358,13.324
1322,0.692,36.011,16.887,32.537,24.362,5.276,5.358,13.325
1323,0.682,36.07,16.925,32.518,24.355,5.195,5.317,13.162
1324,0.685,35.495,16.922,32.518,24.366,5.275,5.317,13.242
1325,0.679,35.662,16.918,32.537,24.369,5.276,5.358,13.365
1326,0.685,35.827,16.914,32.527,24.369,5.235,5.358,13.204
1327,0.675,35.819,16.953,32.508,24.359,5.194,5.236,13.161
1328,0.662,35.656,16.852,32.508,24.355,5.153,5.113,13.161
1329,0.669,35.836,16.921,32.517,24.366,5.315,5.274,13.242
1330,0.662,35.972,17.004,32.537,24.373,5.358,5.398,13.243
1331,0.662,36.338,16.977,32.499,24.362,5.277,5.277,13.121
1332,0.682,35.776,16.977,32.527,24.369,5.316,5.316,13.079
1333,0.679,35.914,16.875,32.508,24.359,5.317,5.317,13.16
1334,0.672,36.011,16.964,32.498,24.359,5.154,5.317,13.161
1335,0.678,35.715,16.922,32.508,24.362,5.234,5.317,13.364
1336,0.688,35.712,16.965,32.527,24.366,5.316,5.317,13.569
1337,0.695,35.837,16.977,32.537,24.362,5.317,5.358,13.571
1338,0.692,35.924,16.848,32.499,24.355,5.236,5.236,13.49
1339,0.682,35.657,16.941,32.489,24.352,5.153,5.113,13.49
1340,0.698,35.779,16.965,32.536,24.369,5.315,5.315,13.652
1341,0.695,35.924,16.973,32.547,24.373,5.358,5.398,13.735
1342,0.688,36.031,16.875,32.527,24.362,5.236,5.236,13.533
1343,0.705,35.687,16.82,32.537,24.366,5.316,5.275,13.571
1344,0.689,35.837,16.905,32.518,24.366,5.317,5.316,13.612
1345,0.672,35.953,16.886,32.508,24.362,5.195,5.236,13.531
1346,0.678,36.06,16.976,32.527,24.359,5.275,5.275,13.612
1347,0.695,52.822,16.996,32.556,24.362,5.357,5.398,13.694
1348,0.695,53.011,16.934,32.547,24.366,5.317,5.358,13.654
1349,0.685,52.915,16.934,32.527,24.359,5.236,5.236,13.572
1350,0.675,52.809,16.984,32.508,24.355,5.275,5.235,13.49
1351,0.691,28.193,16.946,32.546,24.362,5.276,5.275,13.53
1352,0.708,28.299,16.965,32.575,24.369,5.438,5.398,13.612
1353,0.711,28.552,16.852,32.528,24.359,5.196,5.236,13.328
1354,0.721,28.765,16.874,32.527,24.362,5.194,5.153,13.325
1355,0.731,38.539,16.902,32.546,24.362,5.356,5.315,13.366
1356,0.744,38.743,16.945,32.527,24.362,5.277,5.317,13.285
1357,0.76,38.821,16.996,32.527,24.359,5.316,5.276,13.243
1358,0.78,38.86,16.954,32.546,24.369,5.317,5.316,13.243
1359,0.774,34.411,16.973,32.518,24.362,5.276,5.317,13.08
1360,0.771,34.558,16.957,32.498,24.359,5.195,5.236,12.997
1361,0.77,34.684,16.996,32.489,24.355,5.153,5.235,13.037
1362,0.774,35.031,16.856,32.527,24.362,5.315,5.357,13.119
1363,0.777,36.194,16.937,32.556,24.376,5.398,5.439,13.201
1364,0.761,36.331,16.906,32.528,24.366,5.236,5.237,13.08
1365,0.767,36.418,16.871,32.508,24.359,5.194,5.194,13.119
1366,0.757,35.614,16.972,32.517,24.369,5.356,5.316,13.201
1367,0.744,35.347,16.969,32.518,24.366,5.236,5.317,13.283
1368,0.744,35.507,16.891,32.537,24.362,5.235,5.358,13.243
1369,0.747,35.643,16.91,32.527,24.366,5.316,5.317,13.243
1370,0.751,35.721,16.972,32.518,24.359,5.236,5.317,13.162
1371,0.748,35.808,16.977,32.489,24.359,5.235,5.195,12.998
1372,0.738,35.953,16.914,32.508,24.362,5.275,5.316,13.037
1373,0.76,36.098,16.976,32.585,24.366,5.357,5.317,13.078
1374,0.767,35.543,16.961,32.537,24.369,5.399,5.398,13.119
1375,0.754,35.662,17.004,32.547,24.359,5.236,5.236,12.998
1376,0.754,35.769,16.95,32.508,24.359,5.235,5.194,12.875
1377,0.77,35.857,17.008,32.537,24.373,5.316,5.275,12.995
1378,0.774,35.608,17.008,32.518,24.362,5.317,5.316,12.996
1379,0.777,35.769,16.954,32.527,24.366,5.236,5.276,12.915
1380,0.78,35.876,17.02,32.527,24.373,5.316,5.398,12.996
1381,0.774,35.944,16.919,32.508,24.366,5.236,5.399,12.915
1382,0.764,35.609,16.867,32.498,24.359,5.194,5.277,12.833
1383,0.744,35.759,16.894,32.508,24.359,5.234,5.276,12.914
1384,0.751,35.904,16.98,32.527,24.362,5.316,5.357,13.037
1385,0.744,35.983,16.977,32.556,24.373,5.398,5.48,13.16
1386,0.728,35.763,16.954,32.499,24.366,5.196,5.237,13.039
1387,0.725,35.895,17.012,32.498,24.359,5.234,5.235,12.956
1388,0.731,36.04,16.919,32.556,24.362,5.357,5.397,13.2
1389,0.725,36.061,16.945,32.528,24.366,5.358,5.44,13.161
1390,0.718,35.696,16.965,32.518,24.366,5.317,5.318,12.998
1391,0.721,35.865,16.985,32.537,24.359,5.358,5.358,13.078
1392,0.721,35.963,16.911,32.518,24.366,5.277,5.358,13.038
1393,0.715,36.204,16.914,32.498,24.355,5.235,5.236,12.916
1394,0.718,35.583,16.91,32.498,24.366,5.316,5.316,12.874
1395,0.728,35.74,16.926,32.517,24.373,5.317,5.317,12.914
1396,0.751,35.885,16.93,32.537,24.373,5.358,5.358,13.037
1397,0.741,35.685,16.973,32.508,24.362,5.236,5.277,12.997
1398,0.741,35.683,16.977,32.489,24.355,5.194,5.276,12.834
1399,0.757,35.865,16.985,32.517,24.362,5.397,5.316,13.036
1400,0.741,35.973,17.008,32.498,24.369,5.44,5.439,13.16
1401,0.738,36.492,17.001,32.508,24.359,5.318,5.318,13.12
1402,0.734,36.679,16.938,32.527,24.362,5.317,5.358,13.201
1403,0.738,36.767,16.996,32.518,24.373,5.317,5.317,13.202
1404,0.728,36.845,16.962,32.508,24.359,5.236,5.317,13.324
1405,0.728,35.196,16.934,32.546,24.362,5.316,5.317,13.366
1406,0.728,35.314,16.965,32.508,24.373,5.317,5.317,13.529
1407,0.725,35.44,16.973,32.489,24.366,5.317,5.236,13.612
1408,0.721,35.527,16.973,32.556,24.362,5.236,5.235,13.531
1409,0.715,35.787,16.918,32.499,24.359,5.235,5.235,13.571
1410,0.724,35.981,17.015,32.517,24.362,5.235,5.397,13.694
1411,0.724,36.118,17.005,32.537,24.38,5.397,5.48,13.817
1412,0.724,36.167,16.915,32.499,24.366,5.236,5.318,13.574
1413,0.721,35.381,16.996,32.508,24.366,5.316,5.358,13.571
1414,0.724,35.536,16.926,32.498,24.362,5.276,5.277,13.694
1415,0.715,35.653,17.0,32.556,24.362,5.316,5.235,13.695
1416,0.721,35.74,16.958,32.508,24.366,5.317,5.316,13.695
1417,0.724,35.655,16.988,32.508,24.369,5.317,5.398,13.695
1418,0.715,35.788,16.969,32.508,24.362,5.195,5.277,13.613
1419,0.702,35.895,16.946,32.489,24.362,5.234,5.316,13.531
1420,0.685,35.915,16.988,32.479,24.352,5.235,5.317,13.612
1421,0.695,35.503,16.922,32.498,24.369,5.235,5.358,13.816
1422,0.708,35.7,16.941,32.546,24.373,5.438,5.48,13.94
1423,0.679,35.779,17.008,32.508,24.359,5.237,5.278,13.86
1424,0.678,36.02,16.981,32.489,24.362,5.194,5.235,13.981
1425,0.675,35.581,16.981,32.508,24.362,5.234,5.357,14.023
1426,0.665,35.711,16.961,32.498,24.359,5.275,5.317,14.105
1427,0.665,35.846,17.024,32.489,24.366,5.276,5.276,14.187
1428,0.669,35.598,16.934,32.527,24.366,5.316,5.398,14.269
1429,0.652,35.548,16.965,32.518,24.366,5.317,5.358,14.188
1430,0.636,35.672,16.992,32.489,24.355,5.195,5.317,14.106
1431,0.639,35.779,16.95,32.498,24.362,5.275,5.317,14.105
1432,0.662,35.444,16.887,32.517,24.366,5.316,5.317,14.105
1433,0.659,35.556,16.929,32.527,24.373,5.358,5.398,13.983
1434,0.649,35.663,16.895,32.479,24.359,5.236,5.277,13.901
1435,0.646,35.75,16.984,32.469,24.355,5.194,5.195,13.859
1436,0.646,35.339,16.965,32.498,24.362,5.316,5.316,13.981
1437,0.659,35.488,16.992,32.517,24.369,5.317,5.398,14.063
1438,0.649,35.614,16.934,32.508,24.355,5.317,5.318,13.861
1439,0.652,35.721,16.984,32.508,24.369,5.358,5.358,13.818
1440,0.652,35.501,17.02,32.47,24.359,5.317,5.317,13.818
1441,0.646,35.614,16.942,32.469,24.362,5.195,5.317,13.533
1442,0.633,35.788,16.934,32.488,24.362,5.234,5.358,13.653
1443,0.629,35.866,16.906,32.498,24.366,5.316,5.399,13.735
1444,0.632,35.407,16.965,32.489,24.369,5.398,5.399,13.776
1445,0.603,35.546,16.946,32.508,24.362,5.196,5.318,13.736
1446,0.606,35.634,16.957,32.45,24.348,5.194,5.236,13.736
1447,0.616,35.702,17.0,32.507,24.372,5.275,5.357,13.898
1448,0.616,35.29,17.001,32.508,24.369,5.357,5.439,14.022
1449,0.603,35.43,16.993,32.479,24.359,5.277,5.318,13.861
1450,0.609,35.566,17.02,32.508,24.366,5.235,5.358,13.778
1451,0.606,35.615,17.048,32.489,24.373,5.316,5.439,13.858
1452,0.613,35.337,16.892,32.489,24.369,5.317,5.359,13.778
1453,0.623,35.507,16.957,32.489,24.359,5.236,5.277,13.696
1454,0.623,35.662,16.926,32.489,24.369,5.397,5.398,13.735
1455,0.626,35.836,16.992,32.498,24.362,5.236,5.399,13.655
1456,0.613,35.397,16.942,32.46,24.359,5.235,5.236,13.572
1457,0.616,35.508,16.961,32.46,24.362,5.235,5.357,13.571
1458,0.636,35.672,16.946,32.488,24.366,5.316,5.439,13.449
1459,0.649,35.357,16.953,32.498,24.373,5.439,5.481,13.611
1460,0.629,35.248,17.008,32.46,24.362,5.277,5.278,13.409
1461,0.632,35.391,16.946,32.469,24.362,5.235,5.316,13.407
1462,0.616,35.488,16.961,32.546,24.355,5.235,5.398,13.448
1463,0.616,35.24,16.981,32.46,24.359,5.194,5.358,13.489
1464,0.626,35.372,16.996,32.488,24.366,5.316,5.317,13.571
1465,0.619,35.507,16.997,32.508,24.366,5.358,5.398,13.653
1466,0.606,35.624,16.973,32.479,24.362,5.317,5.399,13.735
1467,0.596,35.155,17.004,32.469,24.362,5.195,5.277,13.655
1468,0.596,35.285,16.946,32.45,24.359,5.234,5.276,13.735
1469,0.603,35.439,16.996,32.488,24.366,5.316,5.316,13.817
1470,0.606,35.556,17.071,32.508,24.38,5.439,5.48,13.859
1471,0.609,35.193,16.954,32.46,24.359,5.237,5.318,13.696
1472,0.619,35.352,16.981,32.517,24.352,5.153,5.276,13.573
1473,0.623,35.507,16.969,32.479,24.366,5.275,5.316,13.653
1474,0.616,35.547,17.028,32.45,24.366,5.235,5.358,13.613
1475,0.636,35.126,16.97,32.469,24.366,5.194,5.317,13.531
1476,0.636,35.304,17.028,32.479,24.369,5.316,5.439,13.571
1477,0.633,35.382,16.993,32.46,24.366,5.276,5.359,13.571
1478,0.626,35.46,16.965,32.44,24.366,5.195,5.358,13.449
1479,0.629,35.518,17.016,32.431,24.359,5.234,5.358,13.408
1480,0.642,35.681,17.024,32.459,24.366,5.316,5.439,13.407
1481,0.646,35.817,16.985,32.488,24.373,5.439,5.481,13.529
1482,0.629,35.838,16.93,32.45,24.359,5.277,5.4,13.286
1483,0.629,35.013,16.976,32.45,24.359,5.235,5.196,13.243
1484,0.636,35.168,16.989,32.479,24.359,5.316,5.316,13.446
1485,0.629,35.285,16.965,32.469,24.366,5.317,5.398,13.489
1486,0.623,35.401,16.969,32.45,24.362,5.236,5.318,13.449
1487,0.623,35.086,16.965,32.479,24.369,5.316,5.398,13.53
1488,0.613,35.246,16.957,32.469,24.369,5.317,5.44,13.49
1489,0.6,35.343,17.043,32.45,24.359,5.236,5.318,13.408
1490,0.622,35.114,17.044,32.469,24.366,5.235,5.398,13.367
1491,0.623,35.092,17.001,32.488,24.366,5.316,5.44,13.325
1492,0.632,35.236,16.88,32.469,24.362,5.317,5.399,13.284
1493,0.623,35.324,17.023,32.44,24.362,5.195,5.236,13.203
1494,0.616,35.008,16.977,32.44,24.352,5.153,5.316,13.08
1495,0.639,35.139,17.004,32.469,24.369,5.234,5.398,13.201
1496,0.659,35.294,17.063,32.488,24.373,5.397,5.48,13.283
1497,0.656,35.363,16.997,32.46,24.366,5.277,5.359,13.081
1498,0.662,34.894,16.973,32.44,24.366,5.276,5.277,13.079
1499,0.691,35.023,16.957,32.459,24.366,5.357,5.357,13.079
1500,0.698,35.149,17.016,32.46,24.359,5.317,5.277,13.038
1501,0.718,35.246,16.895,32.45,24.366,5.358,5.357,13.038
1502,0.747,34.931,16.988,32.459,24.373,5.439,5.358,13.119
1503,0.773,35.081,16.997,32.45,24.366,5.359,5.399,13.12
1504,0.797,35.207,17.024,32.44,24.359,5.317,5.277,13.079
1505,0.813,35.285,17.024,32.431,24.362,5.276,5.357,13.201
1506,0.836,34.864,17.001,32.469,24.369,5.438,5.358,13.324
1507,0.872,35.052,17.005,32.488,24.376,5.481,5.48,13.447
1508,0.892,35.14,16.958,32.45,24.362,5.318,5.318,13.367
1509,0.908,35.217,16.988,32.44,24.352,5.317,5.317,13.325
1510,0.928,34.969,17.004,32.44,24.366,5.398,5.439,13.488
1511,0.948,35.129,16.962,32.45,24.362,5.399,5.399,13.449
1512,0.964,35.256,16.867,32.469,24.359,5.48,5.318,13.448
1513,0.981,35.305,16.972,32.46,24.369,5.44,5.439,13.448
1514,0.994,34.864,17.035,32.44,24.362,5.44,5.359,13.489
1515,0.997,35.004,17.044,32.44,24.359,5.318,5.317,13.449
1516,1.007,35.12,17.052,32.45,24.362,5.317,5.358,13.53
1517,1.036,35.265,17.013,32.459,24.366,5.398,5.399,13.693
1518,1.059,34.979,17.024,32.498,24.369,5.44,5.399,13.695
1519,1.069,35.091,16.997,32.441,24.359,5.277,5.358,13.613
1520,1.06,35.179,17.02,32.421,24.352,5.235,5.236,13.531
1521,1.066,35.438,16.946,32.45,24.369,5.438,5.397,13.693
1522,1.076,35.594,17.012,32.45,24.373,5.521,5.48,13.776
1523,1.092,35.721,16.993,32.45,24.369,5.4,5.359,13.655
1524,1.112,35.837,16.985,32.469,24.369,5.399,5.358,13.694
1525,1.145,34.544,17.004,32.45,24.359,5.399,5.439,13.817
1526,1.168,34.55,16.981,32.431,24.359,5.277,5.277,13.737
1527,1.181,34.703,17.004,32.45,24.366,5.316,5.357,13.858
1528,1.191,34.849,16.95,32.469,24.362,5.398,5.439,13.9
1529,1.194,34.783,16.961,32.44,24.366,5.399,5.318,13.819
1530,1.204,34.878,17.039,32.431,24.355,5.318,5.236,13.818
1531,1.185,35.004,16.974,32.411,24.348,5.154,5.235,13.615
1532,1.165,35.13,16.852,32.449,24.372,5.315,5.438,13.735
1533,1.129,34.68,16.933,32.469,24.369,5.398,5.44,13.817
1534,1.064,34.82,17.004,32.431,24.359,5.277,5.277,13.533
1535,1.011,34.965,17.005,32.45,24.366,5.398,5.357,13.531
1536,0.935,35.043,17.016,32.45,24.362,5.318,5.317,13.408
1537,0.85,34.689,17.012,32.421,24.359,5.276,5.317,13.326
1538,0.748,34.877,16.954,32.45,24.366,5.316,5.317,13.284
1539,0.669,35.023,16.996,32.45,24.373,5.317,5.317,13.447
1540,0.519,35.063,17.051,32.44,24.362,5.317,5.358,13.692
1541,0.339,34.622,16.997,32.411,24.352,5.236,5.317,13.979
1542,0.174,34.79,17.008,32.44,24.359,5.194,5.276,14.429
1543,0.072,34.936,16.989,32.44,24.366,5.356,5.357,14.962
1544,-0.004,34.985,17.024,32.478,24.376,5.439,5.521,15.415
1545,-0.099,34.794,16.974,32.421,24.362,5.277,5.36,15.582
1546,-0.146,34.984,17.008,32.421,24.366,5.235,5.358,15.868
1547,-0.227,35.091,17.102,32.43,24.369,5.235,5.358,16.278
1548,-0.316,35.159,16.99,32.421,24.366,5.316,5.358,16.607
1549,-0.372,34.767,17.004,32.44,24.359,5.317,5.317,16.936
1550,-0.415,34.926,17.044,32.45,24.362,5.398,5.439,17.264
1551,-0.468,35.024,17.024,32.421,24.359,5.318,5.359,17.39
1552,-0.517,34.794,16.856,32.411,24.355,5.195,5.236,17.31
1553,-0.53,34.754,16.976,32.44,24.355,5.275,5.357,17.349
1554,-0.56,34.897,16.993,32.431,24.373,5.276,5.399,17.431
1555,-0.57,35.052,16.997,32.459,24.369,5.316,5.358,17.351
1556,-0.606,34.603,17.043,32.402,24.359,5.236,5.317,17.269
1557,-0.622,34.675,16.958,32.401,24.348,5.153,5.154,17.105
1558,-0.629,34.877,17.035,32.43,24.369,5.315,5.397,17.104
1559,-0.613,34.966,17.001,32.43,24.369,5.317,5.399,16.859
1560,-0.59,34.794,17.083,32.411,24.362,5.195,5.318,16.572
1561,-0.528,34.926,16.919,32.43,24.366,5.275,5.439,16.529
1562,-0.501,35.081,16.992,32.43,24.359,5.195,5.359,16.406
1563,-0.462,35.14,16.965,32.392,24.359,5.194,5.317,16.405
1564,-0.39,34.517,17.039,32.411,24.359,5.234,5.439,16.852
1565,-0.318,34.674,17.005,32.449,24.362,5.235,5.44,17.304
1566,-0.262,34.848,17.036,32.44,24.369,5.275,5.44,17.715
1567,-0.219,34.869,17.028,32.402,24.355,5.235,5.318,17.923
1568,-0.134,34.582,17.005,32.373,24.352,5.113,5.276,18.209
1569,-0.055,34.761,17.047,32.43,24.362,5.193,5.438,18.619
1570,0.021,34.907,17.04,32.43,24.369,5.316,5.521,18.907
1571,0.08,34.947,17.005,32.411,24.362,5.154,5.319,18.992
1572,0.155,34.544,17.005,32.43,24.366,5.234,5.398,19.196
1573,0.215,34.674,17.02,32.411,24.366,5.194,5.399,19.198
1574,0.261,34.781,16.966,32.402,24.359,5.153,5.318,19.198
1575,0.313,34.859,17.02,32.401,24.362,5.153,5.358,19.198
1576,0.366,34.754,16.985,32.43,24.373,5.275,5.399,19.157
1577,0.418,34.888,16.989,32.421,24.366,5.195,5.358,19.035
1578,0.445,35.004,16.973,32.411,24.359,5.112,5.358,18.708
1579,0.471,35.015,17.004,32.373,24.359,5.112,5.317,18.542
1580,0.511,34.468,17.047,32.401,24.366,5.274,5.398,18.378
1581,0.55,34.664,16.939,32.44,24.373,5.316,5.48,18.377
1582,0.557,34.752,17.023,32.411,24.355,5.195,5.318,17.97
1583,0.573,34.705,17.052,32.402,24.362,5.112,5.317,17.803
1584,0.59,34.705,17.017,32.421,24.366,5.193,5.398,17.679
1585,0.587,34.858,17.071,32.402,24.355,5.194,5.358,17.434
1586,0.6,34.984,17.021,32.411,24.362,5.234,5.358,17.31
1587,0.616,34.497,17.059,32.411,24.366,5.235,5.439,17.187
1588,0.616,34.588,17.056,32.411,24.366,5.235,5.399,16.941
1589,0.629,34.694,17.005,32.402,24.359,5.072,5.318,16.736
1590,0.632,34.82,17.067,32.392,24.362,5.152,5.317,16.571
1591,0.658,34.543,17.013,32.411,24.373,5.234,5.439,16.447
1592,0.669,34.713,17.016,32.449,24.366,5.235,5.481,16.243
1593,0.685,34.81,16.981,32.402,24.355,5.113,5.359,16.038
1594,0.695,34.898,17.039,32.392,24.359,5.071,5.317,15.873
1595,0.708,34.573,17.095,32.411,24.362,5.111,5.439,15.912
1596,0.718,34.723,17.021,32.43,24.369,5.274,5.521,15.912
1597,0.728,34.849,17.024,32.402,24.355,5.195,5.319,15.75
1598,0.747,34.956,17.005,32.43,24.366,5.194,5.398,15.667
1599,0.741,34.391,17.005,32.411,24.362,5.194,5.399,15.585
1600,0.744,34.539,17.02,32.402,24.359,5.153,5.358,15.503
1601,0.754,34.684,16.981,32.401,24.359,5.193,5.399,15.502
1602,0.757,34.762,16.926,32.44,24.366,5.153,5.48,15.38
1603,0.751,34.571,16.98,32.421,24.366,5.193,5.359,15.419
1604,0.744,34.694,17.036,32.402,24.355,5.194,5.358,15.42
1605,0.738,34.829,17.009,32.43,24.359,5.194,5.399,15.338
1606,0.76,34.898,17.024,32.421,24.366,5.316,5.399,15.419
1607,0.764,34.621,17.059,32.44,24.373,5.317,5.521,15.542
1608,0.748,34.762,17.036,32.478,24.359,5.114,5.319,15.258
1609,0.747,34.878,17.013,32.402,24.355,5.152,5.358,15.133
1610,0.757,34.918,17.055,32.411,24.366,5.315,5.399,15.132
1611,0.748,34.333,17.032,32.411,24.369,5.276,5.399,15.091
1612,0.764,34.471,16.915,32.402,24.359,5.154,5.399,14.847
1613,0.777,34.626,17.011,32.44,24.369,5.275,5.44,14.845
1614,0.774,34.57,17.009,32.421,24.362,5.235,5.44,14.682
1615,0.771,34.579,17.012,32.411,24.355,5.194,5.399,14.558
1616,0.78,34.742,17.016,32.421,24.359,5.153,5.399,14.516
1617,0.797,34.859,17.059,32.421,24.366,5.234,5.399,14.516
1618,0.81,34.476,17.009,32.488,24.362,5.194,5.358,14.394
1619,0.8,34.54,17.001,32.393,24.362,5.153,5.317,14.19
1620,0.79,34.665,17.067,32.382,24.352,5.071,5.236,14.106
1621,0.803,34.8,17.029,32.401,24.366,5.233,5.438,14.146
1622,0.803,34.437,16.966,32.411,24.373,5.357,5.481,14.228
1623,0.797,34.539,16.969,32.392,24.362,5.236,5.44,14.066
1624,0.787,34.694,17.004,32.411,24.366,5.153,5.359,14.105
1625,0.787,34.772,16.962,32.411,24.362,5.234,5.399,14.187
1626,0.78,34.389,16.992,32.392,24.362,5.153,5.318,14.065
1627,0.787,34.548,17.079,32.401,24.359,5.193,5.358,14.064
1628,0.793,34.694,16.958,32.401,24.369,5.234,5.48,14.024
1629,0.797,34.81,17.027,32.411,24.362,5.194,5.359,14.023
1630,0.797,34.418,17.013,32.382,24.362,5.112,5.317,13.861
1631,0.781,34.539,17.079,32.372,24.359,5.071,5.317,13.778
1632,0.803,34.713,17.013,32.411,24.359,5.233,5.398,13.736
1633,0.826,34.791,17.009,32.43,24.373,5.316,5.44,13.736
1634,0.823,34.341,17.024,32.392,24.362,5.154,5.318,13.451
1635,0.823,34.509,16.966,32.401,24.362,5.193,5.317,13.489
1636,0.826,34.645,17.016,32.401,24.366,5.153,5.398,13.367
1637,0.826,34.675,17.071,32.373,24.362,5.112,5.277,13.244
1638,0.849,34.369,16.994,32.392,24.359,5.193,5.398,13.202
1639,0.853,34.519,17.001,32.401,24.362,5.316,5.399,13.202
1640,0.84,34.646,17.051,32.401,24.366,5.276,5.358,12.999
1641,0.846,34.666,17.052,32.373,24.359,5.113,5.236,12.915
1642,0.836,34.254,16.997,32.372,24.362,5.152,5.357,12.955
1643,0.856,34.461,16.973,32.401,24.369,5.234,5.399,12.996
1644,0.856,34.597,17.008,32.43,24.376,5.316,5.562,13.037
1645,0.83,34.445,17.024,32.383,24.359,5.114,5.319,12.956
1646,0.833,34.482,17.013,32.392,24.355,5.152,5.358,12.915
1647,0.833,34.635,17.012,32.401,24.366,5.193,5.399,13.077
1648,0.83,34.733,17.059,32.392,24.369,5.194,5.399,13.16
1649,0.826,34.341,16.989,32.392,24.362,5.194,5.44,13.12
1650,0.843,34.452,17.055,32.411,24.366,5.194,5.44,13.201
1651,0.83,34.568,17.044,32.392,24.359,5.234,5.481,13.202
1652,0.843,34.665,17.075,32.382,24.362,5.113,5.359,13.08
1653,0.846,34.331,16.99,32.372,24.359,5.152,5.399,13.079
1654,0.862,34.49,17.008,32.392,24.369,5.193,5.48,13.16
1655,0.879,34.645,17.059,32.392,24.362,5.153,5.4,13.161
1656,0.869,34.743,17.021,32.392,24.359,5.153,5.358,13.08
1657,0.866,34.159,17.044,32.353,24.345,5.031,5.317,13.038
1658,0.879,34.335,17.071,32.382,24.362,5.151,5.48,13.119
1659,0.889,34.481,17.036,32.401,24.373,5.275,5.562,13.201
1660,0.889,34.568,17.017,32.373,24.366,5.154,5.36,13.039
1661,0.899,34.368,17.079,32.372,24.366,5.112,5.48,13.078
1662,0.879,34.519,17.134,32.372,24.369,5.112,5.4,13.119
1663,0.866,34.626,17.08,32.363,24.359,5.03,5.399,13.12
1664,0.869,34.742,16.978,32.372,24.362,5.151,5.399,13.323
1665,0.876,34.264,17.039,32.382,24.369,5.153,5.48,13.447
1666,0.882,34.413,17.017,32.372,24.362,5.153,5.44,13.57
1667,0.879,34.539,16.989,32.363,24.359,5.071,5.318,13.612
1668,0.876,34.579,17.043,32.353,24.355,5.03,5.439,13.775
1669,0.879,34.378,17.04,32.372,24.369,5.151,5.481,13.858
1670,0.898,34.539,16.903,32.42,24.376,5.234,5.522,13.94
1671,0.889,34.665,17.004,32.373,24.366,4.95,5.4,13.9
1672,0.899,34.666,17.063,32.353,24.355,5.029,5.358,13.778
1673,0.918,34.273,17.111,32.372,24.362,5.151,5.48,13.899
1674,0.912,34.413,17.041,32.363,24.369,5.112,5.481,13.859
1675,0.922,34.558,17.052,32.372,24.366,5.03,5.44,13.818
1676,0.928,34.329,17.04,32.372,24.366,5.151,5.44,13.899
1677,0.918,34.26,17.021,32.382,24.362,5.071,5.399,13.941
1678,0.931,34.403,17.083,32.363,24.362,4.989,5.399,13.697
1679,0.938,34.52,17.068,32.363,24.359,5.07,5.521,13.695
1680,0.948,34.31,16.974,32.382,24.369,5.152,5.441,13.654
1681,0.964,34.461,17.004,32.401,24.376,5.193,5.44,13.613
1682,0.945,34.559,17.051,32.363,24.355,4.99,5.399,13.409
1683,0.945,34.646,17.025,32.324,24.352,4.988,5.318,13.326
1684,0.948,34.167,17.114,32.381,24.362,5.07,5.439,13.528
1685,0.941,34.306,17.056,32.382,24.362,5.111,5.481,13.531
1686,0.941,34.442,17.04,32.363,24.359,5.071,5.44,13.449
1687,0.951,34.539,17.017,32.382,24.369,5.07,5.521,13.57
1688,0.954,34.157,17.04,32.372,24.362,5.07,5.482,13.612
1689,0.948,34.287,17.071,32.363,24.359,4.948,5.359,13.409
1690,0.951,34.432,17.025,32.372,24.359,5.029,5.439,13.407
1691,0.967,34.539,16.95,32.392,24.366,5.151,5.44,13.448
1692,0.981,34.214,17.051,32.373,24.362,5.031,5.481,13.326
1693,0.984,34.345,17.005,32.353,24.352,5.03,5.359,13.244
1694,0.987,34.442,17.079,32.334,24.359,4.948,5.317,13.162
1695,1.017,34.578,17.025,32.362,24.362,5.11,5.439,13.242
1696,1.014,34.263,17.075,32.372,24.369,5.193,5.481,13.284
1697,1.023,34.422,16.986,32.363,24.359,4.99,5.359,13.121
1698,1.043,34.558,17.036,32.372,24.366,5.151,5.48,13.12
1699,1.05,34.579,17.059,32.372,24.359,5.153,5.44,13.079
1700,1.043,34.099,17.068,32.324,24.359,4.99,5.399,12.997
1701,1.069,34.267,16.966,32.343,24.355,5.151,5.399,13.037
1702,1.069,34.422,17.051,32.382,24.366,5.112,5.48,13.16
1703,1.069,34.434,17.052,32.372,24.362,5.112,5.4,13.12
1704,1.06,34.319,17.036,32.353,24.359,5.03,5.318,13.12
1705,1.05,34.471,17.032,32.353,24.352,4.989,5.317,13.12
1706,1.073,34.607,17.056,32.372,24.366,5.11,5.398,13.323
1707,1.076,34.359,17.064,32.401,24.376,5.274,5.521,13.488
1708,1.073,34.299,17.021,32.354,24.359,5.073,5.4,13.367
1709,1.089,34.442,17.052,32.372,24.359,5.07,5.358,13.285
1710,1.086,34.558,17.099,32.353,24.366,5.111,5.439,13.325
1711,1.089,34.09,16.974,32.363,24.362,5.071,5.399,13.366
1712,1.115,34.19,17.02,32.363,24.369,5.07,5.318,13.204
1713,1.132,34.355,17.001,32.382,24.366,5.111,5.398,13.365
1714,1.151,34.442,17.016,32.363,24.369,4.989,5.399,13.244
1715,1.152,34.271,17.04,32.353,24.359,5.029,5.358,13.121
1716,1.135,34.403,17.013,32.343,24.359,5.07,5.358,13.323
1717,1.164,34.548,17.036,32.353,24.366,5.152,5.399,13.366
1718,1.178,34.684,17.036,32.401,24.376,5.193,5.562,13.366
1719,1.171,34.187,17.052,32.354,24.362,4.99,5.319,13.244
1720,1.178,34.335,17.071,32.343,24.359,4.988,5.317,13.162
1721,1.188,34.481,16.99,32.363,24.362,5.151,5.398,13.323
1722,1.181,34.549,17.04,32.363,24.369,4.99,5.44,13.244
1723,1.194,34.377,17.013,32.363,24.366,5.029,5.399,13.202
1724,1.201,34.577,17.067,32.372,24.366,5.07,5.44,13.365
1725,1.194,34.656,17.072,32.401,24.362,5.111,5.399,13.366
1726,1.185,34.752,17.025,32.334,24.355,4.908,5.358,13.285
1727,1.191,34.475,17.079,32.353,24.359,5.028,5.358,13.365
1728,1.211,34.655,17.04,32.382,24.369,5.07,5.439,13.447
1729,1.204,34.791,17.063,32.382,24.362,5.152,5.521,13.53
1730,1.214,34.802,17.075,32.353,24.359,4.99,5.319,13.327
1731,1.214,34.524,17.056,32.324,24.355,4.907,5.317,13.284
1732,1.24,34.713,17.017,32.372,24.359,5.069,5.398,13.406
1733,1.227,34.83,17.036,32.372,24.373,5.152,5.48,13.448
1734,1.23,34.86,17.059,32.363,24.362,5.031,5.44,13.245
1735,1.234,34.869,17.052,32.372,24.366,5.07,5.44,13.284
1736,1.243,35.004,17.064,32.372,24.362,5.03,5.399,13.284
1737,1.257,35.12,17.009,32.344,24.355,4.989,5.277,13.203
1738,1.26,34.93,17.051,32.363,24.359,5.07,5.398,13.202
1739,1.286,34.908,17.032,32.344,24.369,5.07,5.48,13.121
1740,1.29,35.023,17.071,32.363,24.369,5.07,5.4,13.12
1741,1.283,35.13,17.04,32.344,24.362,4.908,5.318,13.039
1742,1.254,35.035,16.981,32.324,24.359,4.947,5.276,13.038
1743,1.257,35.188,17.067,32.362,24.369,5.069,5.438,13.282
1744,1.26,35.362,17.06,32.391,24.373,5.152,5.481,13.325
1745,1.247,35.392,17.005,32.334,24.366,4.99,5.359,13.284
1746,1.26,35.239,17.028,32.334,24.362,4.988,5.358,13.243
1747,1.25,35.362,17.075,32.353,24.362,5.07,5.439,13.406
1748,1.24,35.498,16.997,32.334,24.362,4.989,5.318,13.367
1749,1.237,35.605,17.024,32.353,24.359,4.988,5.398,13.488
1750,1.244,35.539,17.075,32.353,24.376,5.029,5.44,13.53
1751,1.244,35.672,17.103,32.363,24.369,5.07,5.399,13.449
1752,1.247,35.789,17.017,32.353,24.369,4.948,5.399,13.326
1753,1.253,35.886,17.059,32.372,24.359,4.988,5.48,13.284
1754,1.253,35.513,17.04,32.372,24.366,5.029,5.44,13.365
1755,1.257,35.672,17.106,32.363,24.366,5.03,5.44,13.285
1756,1.25,35.769,17.045,32.353,24.362,4.989,5.318,13.243
1757,1.25,35.799,17.091,32.315,24.348,4.907,5.317,13.243
1758,1.253,35.982,17.005,32.372,24.365,5.028,5.52,13.243
1759,1.263,36.137,17.059,32.372,24.376,5.151,5.563,13.324
1760,1.254,36.234,17.04,32.344,24.362,4.99,5.36,13.122
1761,1.26,36.264,17.04,32.334,24.369,5.029,5.48,13.201
1762,1.24,36.178,17.044,32.353,24.369,4.989,5.44,13.161
1763,1.24,36.273,17.04,32.353,24.359,4.988,5.44,13.202
1764,1.221,36.408,17.063,32.353,24.362,5.029,5.481,13.161
1765,1.221,36.448,17.021,32.353,24.366,5.111,5.522,13.283
1766,1.211,36.381,17.098,32.353,24.366,5.03,5.441,13.365
1767,1.198,36.476,17.06,32.343,24.366,4.948,5.399,13.366
1768,1.188,36.592,17.056,32.334,24.362,4.988,5.44,13.569
1769,1.188,36.536,17.075,32.372,24.366,5.029,5.521,13.775
1770,1.194,36.583,17.103,32.392,24.38,5.233,5.644,13.94
1771,1.175,36.67,17.056,32.344,24.359,4.991,5.483,13.86
1772,1.181,36.786,17.028,32.343,24.355,5.029,5.359,13.818
1773,1.165,36.672,17.056,32.363,24.369,5.03,5.48,13.981
1774,1.158,36.757,17.025,32.334,24.359,5.03,5.4,13.982
1775,1.165,36.893,17.044,32.353,24.359,5.07,5.399,13.942
1776,1.155,37.019,17.056,32.353,24.366,5.193,5.44,14.104
1777,1.145,36.694,17.095,32.343,24.366,5.194,5.481,14.065
1778,1.139,36.815,17.044,32.343,24.352,4.99,5.4,13.902
1779,1.125,36.951,17.036,32.324,24.352,5.07,5.44,13.9
1780,1.135,37.048,17.114,32.343,24.362,5.152,5.562,13.9
1781,1.142,36.867,17.021,32.391,24.38,5.193,5.604,13.9
1782,1.109,36.97,17.067,32.382,24.359,5.072,5.36,13.656
1783,1.096,37.115,17.036,32.334,24.359,5.03,5.399,13.776
1784,1.083,37.193,17.036,32.362,24.369,5.151,5.44,13.94
1785,1.057,37.002,17.028,32.42,24.359,5.071,5.521,14.063
1786,1.05,37.173,17.009,32.354,24.359,5.111,5.482,14.186
1787,1.053,37.299,17.067,32.363,24.369,5.152,5.522,14.269
1788,1.03,37.349,17.033,32.353,24.366,5.193,5.4,14.31
1789,1.017,36.985,17.04,32.353,24.352,5.153,5.399,14.311
1790,1.014,37.115,17.083,32.353,24.352,5.112,5.48,14.351
1791,1.014,37.251,17.06,32.353,24.362,5.152,5.522,14.393
1792,1.023,37.329,17.04,32.372,24.376,5.275,5.522,14.474
1793,0.994,37.1,17.005,32.334,24.362,5.154,5.4,14.312
1794,0.984,37.251,17.079,32.314,24.355,5.031,5.358,14.189
1795,0.991,37.367,17.068,32.343,24.362,5.151,5.439,14.31
1796,0.984,37.388,17.087,32.353,24.366,5.193,5.481,14.311
1797,0.965,37.043,17.099,32.334,24.362,5.072,5.4,14.189
1798,0.968,37.212,17.06,32.353,24.373,5.152,5.48,14.147
1799,0.968,37.3,17.103,32.343,24.369,5.153,5.481,14.106
1800,0.955,37.147,17.072,32.315,24.362,5.031,5.4,13.943
1801,0.951,37.146,17.04,32.333,24.362,5.111,5.358,13.982
1802,0.941,37.29,16.954,32.362,24.373,5.193,5.48,14.023
1803,0.928,37.396,17.074,32.334,24.366,5.194,5.44,14.064
1804,0.915,37.043,17.076,32.295,24.359,5.031,5.318,13.983
1805,0.879,37.097,17.06,32.324,24.355,4.948,5.358,14.063
1806,0.892,37.279,17.052,32.314,24.362,5.15,5.399,14.186
1807,0.882,37.377,17.107,32.372,24.373,5.275,5.521,14.35
1808,0.856,37.1,17.025,32.353,24.362,5.113,5.36,14.108
1809,0.856,37.222,17.067,32.353,24.366,5.152,5.317,14.146
1810,0.862,37.348,17.075,32.353,24.362,5.153,5.439,14.146
1811,0.843,37.426,17.083,32.334,24.362,5.153,5.44,14.106
1812,0.859,37.081,16.986,32.353,24.362,5.112,5.44,14.065
1813,0.853,37.222,17.055,32.372,24.369,5.193,5.44,14.146
1814,0.84,37.329,17.071,32.353,24.366,5.112,5.318,14.065
1815,0.843,37.397,17.044,32.353,24.362,5.071,5.317,14.024
1816,0.836,37.043,17.04,32.334,24.362,5.193,5.358,13.983
1817,0.836,37.183,17.099,32.353,24.362,5.153,5.439,13.982
1818,0.852,37.357,17.107,32.391,24.373,5.275,5.481,14.023
1819,0.84,37.368,17.06,32.344,24.359,5.113,5.359,13.779
1820,0.83,37.004,17.107,32.315,24.359,5.071,5.236,13.614
1821,0.833,37.173,17.095,32.343,24.369,5.152,5.397,13.775
1822,0.813,37.319,17.025,32.363,24.366,5.193,5.48,13.858
1823,0.8,37.349,17.102,32.334,24.362,5.072,5.359,13.737
1824,0.807,38.433,17.064,32.362,24.366,5.193,5.48,13.817
1825,0.79,38.568,17.025,32.353,24.366,5.153,5.44,13.777
1826,0.777,38.656,17.048,32.334,24.359,5.071,5.318,13.736
1827,0.774,38.685,17.075,32.353,24.362,5.152,5.317,13.776
1828,0.774,36.269,17.033,32.363,24.366,5.193,5.439,13.858
1829,0.771,36.418,17.017,32.353,24.369,5.234,5.359,13.859
1830,0.764,36.506,17.091,32.343,24.355,5.032,5.399,13.696
1831,0.744,36.957,17.068,32.343,24.352,5.07,5.236,13.654
1832,0.76,37.211,17.044,32.353,24.366,5.152,5.397,13.613
1833,0.774,37.386,16.985,32.382,24.376,5.275,5.602,13.653
1834,0.764,37.445,17.067,32.353,24.359,5.032,5.36,13.41
1835,0.764,36.679,17.142,32.334,24.362,5.03,5.399,13.367
1836,0.774,36.748,17.064,32.353,24.366,5.151,5.44,13.447
1837,0.754,36.864,17.071,32.343,24.366,5.112,5.399,13.489
1838,0.764,36.961,17.06,32.334,24.362,5.071,5.399,13.449
1839,0.774,36.779,17.083,32.362,24.366,5.152,5.399,13.326
1840,0.767,36.902,17.064,32.334,24.362,5.112,5.399,13.325
1841,0.761,37.019,17.071,32.324,24.359,5.03,5.318,13.244
1842,0.754,37.097,17.114,32.334,24.359,5.07,5.358,13.324
1843,0.757,36.503,17.045,32.362,24.366,5.111,5.399,13.325
1844,0.754,36.689,17.118,32.411,24.373,5.234,5.44,13.366
1845,0.735,36.777,17.099,32.334,24.359,5.072,5.277,13.447
1846,0.731,36.835,17.099,32.314,24.348,5.03,5.235,13.408
1847,0.728,36.577,17.048,32.333,24.362,5.151,5.357,13.529
1848,0.731,36.718,17.103,32.353,24.369,5.153,5.399,13.571
1849,0.718,36.825,17.068,32.334,24.366,5.071,5.358,13.531
1850,0.724,36.922,17.036,32.362,24.366,5.152,5.439,13.531
1851,0.721,36.52,17.063,32.353,24.366,5.153,5.359,13.49
1852,0.724,36.65,17.036,32.334,24.359,4.99,5.358,13.367
1853,0.734,36.748,17.095,32.334,24.373,5.151,5.399,13.407
1854,0.738,36.816,17.044,32.353,24.369,5.193,5.48,13.367
1855,0.744,36.481,17.036,32.343,24.362,5.153,5.318,13.285
1856,0.744,36.602,17.114,32.334,24.355,5.153,5.317,13.325
1857,0.731,36.718,17.056,32.314,24.352,5.031,5.317,13.284
1858,0.751,36.787,17.068,32.353,24.366,5.151,5.398,13.447
1859,0.764,36.461,17.075,32.372,24.369,5.234,5.48,13.448
1860,0.761,36.592,17.025,32.344,24.366,5.113,5.318,13.326
1861,0.761,36.689,17.055,32.343,24.366,5.112,5.317,13.244
1862,0.741,36.451,17.087,32.343,24.366,5.152,5.317,13.406
1863,0.741,36.381,17.122,32.324,24.359,5.112,5.358,13.448
1864,0.741,36.534,17.084,32.353,24.359,5.112,5.399,13.489
1865,0.738,36.66,17.076,32.353,24.369,5.152,5.44,13.693
1866,0.731,36.335,17.099,32.343,24.362,5.112,5.277,13.735
1867,0.715,36.428,17.068,32.324,24.355,5.112,5.276,13.614
1868,0.721,36.573,17.036,32.334,24.355,5.112,5.438,13.694
1869,0.721,36.68,17.114,32.362,24.366,5.112,5.399,13.695
1870,0.737,36.297,17.123,32.372,24.373,5.274,5.48,13.817
1871,0.725,36.389,16.994,32.353,24.355,5.073,5.359,13.696
1872,0.734,36.544,17.122,32.334,24.359,5.07,5.317,13.654
1873,0.741,36.632,17.115,32.353,24.369,5.152,5.398,13.776
1874,0.744,36.153,17.111,32.343,24.359,5.071,5.399,13.777
1875,0.754,36.321,17.06,32.343,24.359,5.152,5.399,13.736
1876,0.754,36.457,17.06,32.363,24.369,5.153,5.48,13.898
1877,0.757,36.516,17.025,32.344,24.366,5.153,5.44,13.819
1878,0.748,36.065,17.024,32.334,24.362,5.031,5.277,13.615
1879,0.747,36.186,17.083,32.314,24.355,4.989,5.276,13.613
1880,0.76,36.359,17.091,32.343,24.362,5.151,5.398,13.694
1881,0.774,36.457,17.013,32.372,24.38,5.275,5.562,13.776
1882,0.748,36.094,17.059,32.353,24.362,4.991,5.319,13.777
1883,0.747,36.282,17.079,32.353,24.369,5.151,5.276,13.655
1884,0.744,36.37,17.115,32.353,24.362,5.071,5.438,13.816
1885,0.734,36.419,17.068,32.334,24.366,5.07,5.318,13.899
1886,0.741,36.544,17.099,32.334,24.362,5.111,5.358,13.941
1887,0.751,36.689,17.068,32.343,24.369,5.152,5.48,13.982
1888,0.741,36.806,17.107,32.334,24.362,5.153,5.359,13.982
1889,0.725,36.807,17.068,32.343,24.362,4.99,5.317,14.023
1890,0.721,35.79,17.142,32.334,24.362,5.11,5.439,14.064
1891,0.737,35.953,17.049,32.343,24.369,5.152,5.44,14.064
1892,0.751,36.089,17.087,32.382,24.373,5.193,5.44,14.146
1893,0.751,36.071,17.068,32.325,24.359,5.031,5.359,13.984
1894,0.757,36.119,17.087,32.324,24.359,4.989,5.317,13.901
1895,0.761,36.292,17.103,32.334,24.362,5.151,5.398,14.063
1896,0.761,36.38,17.095,32.343,24.359,5.071,5.358,14.024
1897,0.754,35.968,17.103,32.324,24.362,5.07,5.358,13.942
1898,0.767,36.07,17.056,32.343,24.362,5.152,5.399,14.022
1899,0.761,36.214,17.107,32.324,24.359,5.112,5.399,14.064
1900,0.757,36.293,17.076,32.314,24.355,4.989,5.318,13.902
1901,0.764,35.737,17.029,32.333,24.362,5.11,5.398,13.9
1902,0.767,35.895,17.056,32.401,24.373,5.152,5.318,13.941
1903,0.764,36.059,17.06,32.363,24.373,5.193,5.439,14.022
1904,0.751,36.118,17.044,32.344,24.359,5.072,5.318,13.861
1905,0.741,35.898,16.946,32.343,24.355,5.07,5.236,13.859
1906,0.741,36.069,17.078,32.343,24.366,5.152,5.438,13.9
1907,0.754,36.166,17.122,32.343,24.366,5.193,5.481,13.941
1908,0.748,36.254,17.096,32.334,24.366,5.112,5.4,13.819
1909,0.747,35.775,17.115,32.343,24.366,5.071,5.44,13.818
1910,0.744,35.905,17.127,32.334,24.366,5.152,5.399,13.696
1911,0.734,36.011,17.107,32.295,24.359,5.071,5.358,13.532
1912,0.747,36.118,16.974,32.343,24.362,5.07,5.399,13.531
1913,0.764,35.822,17.09,32.334,24.366,5.07,5.399,13.531
1914,0.767,35.953,17.138,32.314,24.369,5.152,5.358,13.449
1915,0.754,36.089,17.115,32.314,24.362,5.071,5.317,13.408
1916,0.754,36.109,17.115,32.276,24.359,5.152,5.358,13.448
1917,0.774,35.841,17.072,32.343,24.366,5.234,5.439,13.448
1918,0.787,36.059,17.083,32.363,24.38,5.316,5.521,13.57
1919,0.774,36.128,17.04,32.315,24.362,5.154,5.319,13.287
1920,0.777,36.167,17.126,32.305,24.362,5.153,5.317,13.284
1921,0.774,35.774,17.014,32.314,24.366,5.193,5.398,13.325
1922,0.754,35.914,17.059,32.314,24.359,5.153,5.358,13.284
1923,0.761,36.059,17.099,32.324,24.362,5.153,5.317,13.325
1924,0.764,35.898,17.111,32.343,24.369,5.275,5.439,13.366
1925,0.757,35.858,17.099,32.334,24.362,5.235,5.359,13.366
1926,0.748,35.992,17.052,32.295,24.359,5.113,5.317,13.366
1927,0.741,36.089,17.099,32.305,24.369,5.193,5.398,13.407
1928,0.747,35.706,17.056,32.324,24.373,5.194,5.358,13.448
1929,0.747,35.798,17.056,32.334,24.376,5.316,5.48,13.53
1930,0.731,35.905,17.107,32.314,24.366,5.114,5.278,13.286
1931,0.734,35.992,17.029,32.286,24.352,5.152,5.195,13.325
1932,0.741,35.619,16.954,32.314,24.366,5.234,5.397,13.325
1933,0.741,35.759,17.047,32.324,24.366,5.275,5.399,13.325
1934,0.747,35.895,17.114,32.286,24.359,5.154,5.399,13.325
1935,0.76,35.983,17.08,32.314,24.373,5.234,5.48,13.366
1936,0.757,35.581,17.095,32.305,24.366,5.235,5.4,13.407
1937,0.761,35.72,17.146,32.295,24.355,5.194,5.318,13.285
1938,0.757,35.875,17.092,32.305,24.359,5.153,5.358,13.365
1939,0.783,35.944,17.103,32.314,24.362,5.234,5.439,13.407
1940,0.784,35.628,17.158,32.314,24.366,5.316,5.359,13.285
1941,0.758,35.74,17.069,32.276,24.355,5.195,5.399,13.243
1942,0.757,35.856,16.986,32.276,24.352,5.072,5.196,13.202
1943,0.754,35.963,17.036,32.314,24.362,5.233,5.397,13.365
1944,0.761,35.628,17.106,32.324,24.38,5.357,5.48,13.569
1945,0.735,35.75,17.037,32.305,24.362,5.155,5.4,13.49
1946,0.744,35.914,17.056,32.305,24.366,5.234,5.358,13.693
1947,0.738,35.954,17.118,32.295,24.362,5.275,5.358,13.776
1948,0.734,35.398,17.013,32.285,24.359,5.235,5.317,13.736
1949,0.728,35.565,17.071,32.314,24.362,5.316,5.398,13.776
1950,0.734,35.692,17.114,32.324,24.366,5.317,5.44,13.899
1951,0.721,35.722,17.123,32.295,24.369,5.358,5.399,13.859
1952,0.724,35.463,17.014,32.285,24.359,5.277,5.277,13.696
1953,0.744,35.614,17.051,32.304,24.366,5.316,5.357,13.735
1954,0.751,35.759,17.025,32.305,24.369,5.317,5.439,13.695
1955,0.744,35.607,17.067,32.295,24.366,5.317,5.359,13.776
1956,0.747,35.567,17.048,32.276,24.359,5.276,5.358,13.655
1957,0.747,35.701,17.067,32.247,24.359,5.235,5.277,13.694
1958,0.76,35.856,17.091,32.323,24.362,5.316,5.398,13.776
1959,0.767,35.311,17.115,32.334,24.373,5.48,5.521,13.696
1960,0.761,35.325,17.158,32.286,24.362,5.278,5.319,13.532
1961,0.757,35.469,17.1,32.276,24.355,5.235,5.276,13.49
1962,0.744,35.604,17.087,32.314,24.362,5.316,5.316,13.571
1963,0.738,35.318,17.095,32.305,24.362,5.317,5.358,13.653
1964,0.731,35.44,17.119,32.305,24.362,5.317,5.358,13.613
1965,0.741,35.623,17.076,32.333,24.366,5.317,5.439,13.653
1966,0.734,35.692,17.068,32.314,24.362,5.398,5.44,13.613
1967,0.728,35.338,17.099,32.295,24.359,5.277,5.318,13.572
1968,0.728,35.488,17.068,32.295,24.362,5.316,5.398,13.531
1969,0.725,35.624,17.068,32.333,24.366,5.358,5.399,13.612
1970,0.741,35.73,17.13,32.334,24.369,5.358,5.399,13.531
1971,0.731,35.175,17.072,32.286,24.359,5.236,5.358,13.408
1972,0.718,35.333,17.005,32.285,24.352,5.153,5.317,13.285
1973,0.734,35.478,17.055,32.295,24.366,5.315,5.398,13.284
1974,0.744,35.547,17.087,32.324,24.369,5.439,5.562,13.325
1975,0.747,35.279,17.068,32.276,24.362,5.237,5.319,13.203
1976,0.76,35.459,17.103,32.295,24.366,5.316,5.398,13.243
1977,0.748,35.566,17.107,32.295,24.366,5.276,5.358,13.121
1978,0.751,35.605,17.119,32.276,24.359,5.195,5.317,12.998
1979,0.751,35.299,17.064,32.285,24.366,5.316,5.358,12.996
1980,0.751,35.43,17.142,32.295,24.366,5.276,5.399,12.956
1981,0.764,35.566,17.064,32.295,24.366,5.316,5.399,12.915
1982,0.731,35.557,17.091,32.324,24.355,5.236,5.318,12.915
1983,0.728,35.222,17.099,32.257,24.352,5.153,5.276,12.833
1984,0.728,35.381,17.111,32.285,24.362,5.315,5.398,13.117
1985,0.728,35.488,17.13,32.314,24.366,5.358,5.643,13.242
1986,0.718,35.269,17.06,32.286,24.366,5.317,5.32,13.284
1987,0.721,35.247,17.15,32.295,24.359,5.317,5.398,13.487
1988,0.721,35.372,17.088,32.295,24.359,5.317,5.399,13.571
1989,0.711,35.469,17.115,32.285,24.355,5.317,5.399,13.734
1990,0.724,35.115,17.158,32.285,24.362,5.276,5.399,13.776
1991,0.728,35.227,17.104,32.314,24.366,5.357,5.399,13.94
1992,0.725,35.343,17.017,32.276,24.359,5.317,5.44,13.982
1993,0.724,35.43,17.079,32.256,24.355,5.236,5.318,13.86
1994,0.721,35.192,17.095,32.266,24.355,5.275,5.358,13.859
1995,0.734,35.381,17.076,32.333,24.366,5.316,5.399,13.94
1996,0.741,35.517,17.099,32.324,24.38,5.48,5.521,13.941
1997,0.728,35.576,17.123,32.257,24.355,5.318,5.36,13.778
1998,0.741,35.241,17.056,32.275,24.352,5.195,5.317,13.777
1999,0.741,35.401,17.091,32.276,24.366,5.356,5.398,13.899
2000,0.738,35.517,17.123,32.276,24.362,5.317,5.44,13.819
2001,0.744,35.595,17.084,32.266,24.362,5.317,5.359,13.737
2002,0.731,35.136,16.99,32.304,24.366,5.358,5.48,13.695
2003,0.721,35.275,17.09,32.295,24.362,5.317,5.4,13.776
2004,0.724,35.401,17.115,32.266,24.359,5.276,5.358,13.696
2005,0.724,35.469,17.045,32.275,24.359,5.357,5.358,13.898
2006,0.715,35.221,17.083,32.285,24.362,5.358,5.48,14.063
2007,0.718,35.391,17.134,32.304,24.366,5.277,5.44,14.105
2008,0.705,35.46,17.045,32.276,24.359,5.235,5.318,14.065
2009,0.695,35.508,17.036,32.247,24.359,5.194,5.317,13.983
2010,0.708,35.288,17.126,32.266,24.366,5.316,5.439,14.063
2011,0.711,35.43,17.111,32.285,24.369,5.358,5.481,14.146
2012,0.711,35.546,17.06,32.276,24.362,5.195,5.359,13.984
2013,0.718,35.576,16.986,32.295,24.373,5.316,5.439,13.901
2014,0.721,35.557,17.09,32.276,24.366,5.276,5.481,13.941
2015,0.721,35.663,17.146,32.247,24.362,5.235,5.278,13.9
2016,0.734,35.788,17.092,32.285,24.366,5.275,5.398,13.9
2017,0.731,35.205,17.103,32.285,24.362,5.316,5.44,13.9
2018,0.734,34.997,17.064,32.285,24.366,5.317,5.44,13.859
2019,0.734,35.13,17.087,32.257,24.352,5.195,5.359,13.737
2020,0.728,35.208,17.083,32.247,24.352,5.194,5.317,13.695
2021,0.744,35.237,17.099,32.275,24.366,5.275,5.439,13.817
2022,0.738,35.362,17.111,32.304,24.369,5.316,5.481,13.981
2023,0.728,35.488,16.955,32.285,24.366,5.236,5.4,13.942
2024,0.731,35.605,17.035,32.295,24.362,5.316,5.48,14.104
2025,0.728,35.078,17.063,32.276,24.362,5.236,5.44,14.268
2026,0.712,35.188,17.071,32.276,24.362,5.153,5.399,14.351
2027,0.708,35.333,17.111,32.285,24.366,5.234,5.399,14.433
2028,0.715,35.44,17.142,32.285,24.362,5.316,5.48,14.515
2029,0.708,35.307,17.1,32.276,24.362,5.236,5.481,14.557
2030,0.705,35.44,17.076,32.256,24.359,5.194,5.359,14.557
2031,0.695,35.556,17.107,32.247,24.355,5.194,5.399,14.598
2032,0.711,35.682,17.123,32.285,24.366,5.234,5.48,14.679
2033,0.721,35.28,17.107,32.304,24.373,5.357,5.603,14.802
2034,0.715,35.401,17.045,32.238,24.362,5.195,5.401,14.6
2035,0.721,35.546,17.052,32.285,24.369,5.153,5.358,14.679
2036,0.737,35.586,17.114,32.276,24.359,5.193,5.439,14.68
2037,0.728,35.212,17.068,32.256,24.359,5.153,5.481,14.599
2038,0.734,35.372,17.146,32.266,24.366,5.153,5.4,14.558
2039,0.728,35.507,17.115,32.285,24.366,5.193,5.44,14.516
2040,0.731,35.557,17.084,32.333,24.362,5.194,5.44,14.435
2041,0.738,35.404,17.107,32.247,24.362,5.153,5.359,14.353
2042,0.721,35.546,17.099,32.256,24.366,5.153,5.399,14.514
2043,0.724,35.682,17.138,32.295,24.366,5.234,5.48,14.516
2044,0.728,35.712,17.061,32.305,24.38,5.275,5.522,14.557
2045,0.702,35.309,17.068,32.257,24.359,5.113,5.319,14.395
2046,0.711,35.411,17.13,32.256,24.355,5.071,5.276,14.474
2047,0.698,35.556,17.088,32.256,24.366,5.193,5.398,14.475
2048,0.718,35.375,17.107,32.285,24.369,5.153,5.44,14.556
2049,0.708,35.335,17.099,32.276,24.366,5.153,5.359,14.435
2050,0.705,35.478,17.084,32.276,24.373,5.275,5.48,14.353
2051,0.711,35.585,17.103,32.256,24.366,5.154,5.44,14.311
2052,0.702,35.241,17.166,32.266,24.359,5.153,5.359,14.148
2053,0.721,35.362,17.182,32.266,24.366,5.153,5.439,14.146
2054,0.718,35.488,17.135,32.275,24.366,5.193,5.481,14.106
2055,0.741,35.614,17.119,32.266,24.366,5.194,5.359,14.105
2056,0.725,35.75,17.119,32.247,24.359,5.153,5.399,14.024
2057,0.731,35.876,17.084,32.247,24.362,5.112,5.399,14.023
2058,0.744,36.049,17.107,32.275,24.369,5.234,5.44,14.023
2059,0.754,36.138,17.107,32.295,24.373,5.357,5.562,14.023
2060,0.751,35.007,17.041,32.247,24.366,5.155,5.401,13.942
2061,0.748,35.13,17.083,32.266,24.366,5.193,5.318,13.86
2062,0.741,35.304,17.154,32.266,24.366,5.153,5.48,13.981
2063,0.747,35.353,17.115,32.247,24.362,5.193,5.4,13.901
2064,0.747,35.411,17.142,32.256,24.359,5.234,5.44,13.859
2065,0.731,35.585,17.064,32.285,24.362,5.194,5.44,13.981
2066,0.741,35.701,17.095,32.247,24.366,5.194,5.481,13.942
2067,0.731,35.75,17.107,32.247,24.359,5.153,5.318,13.86
2068,0.734,35.204,17.068,32.256,24.362,5.193,5.398,13.859
2069,0.754,35.381,17.13,32.275,24.369,5.234,5.48,13.94
2070,0.754,35.546,17.06,32.314,24.373,5.357,5.481,13.941
2071,0.761,35.557,17.056,32.276,24.359,5.073,5.4,13.778
2072,0.777,35.346,17.103,32.247,24.359,5.111,5.318,13.696
2073,0.79,35.517,17.134,32.266,24.355,5.315,5.52,13.817
2074,0.8,35.624,17.154,32.275,24.366,5.317,5.482,13.777
2075,0.81,35.663,17.092,32.256,24.362,5.236,5.4,13.696
2076,0.826,35.491,17.15,32.256,24.373,5.316,5.48,13.776
2077,0.813,35.624,17.131,32.256,24.362,5.236,5.44,13.736
2078,0.803,35.721,17.115,32.247,24.355,5.194,5.359,13.614
2079,0.833,35.54,17.162,32.247,24.366,5.153,5.399,13.653
2080,0.843,35.48,17.026,32.256,24.369,5.234,5.399,13.735
2081,0.846,35.643,17.114,32.275,24.373,5.275,5.44,13.573
2082,0.827,35.731,17.107,32.256,24.366,5.195,5.277,13.49
2083,0.804,35.252,17.177,32.227,24.348,5.112,5.276,13.49
2084,0.813,35.353,17.135,32.246,24.365,5.234,5.398,13.652
2085,0.8,35.507,17.092,32.275,24.362,5.275,5.521,13.735
2086,0.794,35.595,17.134,32.237,24.359,5.195,5.4,13.655
2087,0.793,35.356,17.1,32.333,24.366,5.275,5.44,13.654
2088,0.787,35.488,17.107,32.267,24.366,5.195,5.399,13.694
2089,0.777,35.624,17.111,32.247,24.359,5.194,5.358,13.573
2090,0.787,35.702,17.064,32.275,24.366,5.234,5.399,13.612
2091,0.787,35.204,17.044,32.266,24.366,5.235,5.358,13.613
2092,0.803,35.343,17.114,32.256,24.366,5.194,5.399,13.531
2093,0.807,35.45,17.107,32.237,24.359,5.112,5.358,13.449
2094,0.807,35.508,17.15,32.218,24.362,5.152,5.399,13.367
2095,0.807,35.346,17.119,32.275,24.362,5.193,5.44,13.407
2096,0.81,35.517,17.166,32.295,24.373,5.275,5.521,13.448
2097,0.787,35.605,17.119,32.257,24.362,5.195,5.4,13.245
2098,0.806,35.702,17.068,32.247,24.362,5.194,5.358,13.202
2099,0.816,35.3,17.173,32.247,24.362,5.194,5.399,13.243
2100,0.787,35.42,17.073,32.256,24.359,5.153,5.399,13.162
2101,0.793,35.585,17.099,32.247,24.366,5.193,5.399,13.202
2102,0.787,35.625,17.146,32.247,24.366,5.153,5.44,13.365
2103,0.784,35.261,17.131,32.266,24.359,5.193,5.399,13.366
2104,0.761,35.372,17.139,32.237,24.355,5.153,5.318,13.325
2105,0.757,35.488,17.076,32.227,24.352,5.153,5.317,13.406
2106,0.757,35.557,17.146,32.256,24.362,5.234,5.398,13.529
2107,0.754,35.317,17.049,32.285,24.376,5.397,5.48,13.612
2108,0.741,35.43,17.095,32.237,24.359,5.155,5.359,13.491
2109,0.747,35.566,17.138,32.256,24.359,5.234,5.399,13.408
2110,0.76,35.394,17.08,32.247,24.362,5.235,5.521,13.489
2111,0.741,35.335,17.107,32.275,24.362,5.153,5.36,13.367
2112,0.76,35.478,17.076,32.247,24.362,5.153,5.399,13.285
2113,0.78,35.614,17.115,32.256,24.369,5.234,5.48,13.325
2114,0.787,35.145,17.115,32.247,24.366,5.194,5.4,13.284
2115,0.78,35.227,17.076,32.237,24.362,5.112,5.318,13.284
2116,0.784,35.372,17.146,32.227,24.359,5.152,5.358,13.243
