time,ecg,bvp,gsr,rsp,skt,emg_zygo,emg_coru,emg_trap
0,0.6,36.04,14.797,42.613,31.581,13.737,6.714,9.219
1,0.606,36.176,14.812,42.613,31.584,13.817,6.794,9.3
2,0.619,36.244,14.781,42.604,31.594,13.899,6.714,9.301
3,0.616,35.9,14.761,42.623,31.601,13.981,6.754,9.301
4,0.61,36.059,14.746,42.594,31.602,14.226,6.795,9.382
5,0.619,36.176,14.812,42.613,31.605,14.228,6.795,9.423
6,0.642,36.225,14.754,42.594,31.602,14.228,6.755,9.342
7,0.633,35.89,14.703,42.604,31.598,14.31,6.714,9.382
8,0.636,36.04,14.729,42.604,31.598,14.27,6.754,9.261
9,0.623,36.147,14.757,42.604,31.602,14.27,6.795,9.381
10,0.613,36.167,14.796,42.613,31.598,14.351,6.795,9.301
11,0.619,36.062,14.773,42.623,31.605,14.311,6.836,9.423
12,0.603,36.205,14.812,42.604,31.591,14.148,6.714,9.22
13,0.603,36.312,14.754,42.604,31.601,14.146,6.713,9.259
14,0.596,36.169,14.753,42.623,31.598,14.106,6.754,9.3
15,0.6,36.024,14.788,42.613,31.595,14.146,6.714,9.301
16,0.587,36.185,14.808,42.604,31.598,14.106,6.713,9.341
17,0.583,36.244,14.773,42.584,31.595,14.024,6.672,9.301
18,0.596,35.957,14.734,42.594,31.591,13.861,6.631,9.178
19,0.596,36.06,14.679,42.594,31.588,13.9,6.631,9.259
20,0.609,36.214,14.671,42.632,31.605,13.859,6.712,9.259
21,0.616,36.34,14.764,42.613,31.602,13.859,6.713,9.219
22,0.639,35.91,14.785,42.632,31.598,13.94,6.713,9.178
23,0.613,35.983,14.797,42.594,31.598,13.982,6.672,9.137
24,0.623,36.146,14.73,42.594,31.591,14.104,6.713,9.177
25,0.623,36.206,14.726,42.575,31.581,14.065,6.591,9.177
26,0.632,36.034,14.769,42.594,31.601,14.39,6.753,9.137
27,0.629,36.166,14.824,42.613,31.595,14.271,6.754,9.136
28,0.658,36.34,14.813,42.632,31.608,14.392,6.795,9.217
29,0.646,36.361,14.758,42.585,31.588,14.149,6.633,9.096
30,0.668,35.949,14.687,42.613,31.605,14.187,6.631,9.014
31,0.688,36.088,14.686,42.594,31.581,14.025,6.59,8.891
32,0.711,36.243,14.764,42.613,31.605,14.105,6.712,8.93
33,0.734,36.302,14.777,42.604,31.602,13.983,6.713,8.931
34,0.76,35.948,14.8,42.613,31.605,14.063,6.876,9.053
35,0.741,36.069,14.742,42.604,31.588,13.861,6.755,8.891
36,0.78,36.214,14.749,42.594,31.601,13.859,6.795,8.849
37,0.81,36.254,14.788,42.594,31.602,13.818,6.755,8.849
38,0.842,35.967,14.804,42.613,31.602,13.737,6.836,8.889
39,0.872,36.089,14.84,42.604,31.602,13.695,6.755,8.849
40,0.895,36.205,14.801,42.594,31.602,13.654,6.836,8.93
41,0.925,36.12,14.781,42.584,31.602,13.613,6.755,8.728
42,0.961,36.138,14.754,42.67,31.602,13.613,6.754,8.766
43,1.007,36.282,14.757,42.614,31.595,13.694,6.795,8.807
44,1.049,36.38,14.792,42.623,31.605,13.939,6.755,8.848
45,1.102,36.237,14.765,42.604,31.609,13.941,6.795,8.808
46,1.135,36.322,14.66,42.594,31.605,14.063,6.836,8.726
47,1.171,36.476,14.717,42.584,31.598,14.064,6.674,8.726
48,1.207,36.544,14.78,42.584,31.598,14.186,6.753,8.685
49,1.25,35.807,14.793,42.603,31.602,14.228,6.754,8.766
50,1.273,35.934,14.832,42.623,31.608,14.188,6.714,8.929
51,1.289,36.088,14.848,42.613,31.602,14.228,6.794,8.89
52,1.299,36.147,14.77,42.585,31.595,14.107,6.755,8.809
53,1.319,36.052,14.742,42.594,31.598,14.187,6.632,8.889
54,1.293,36.176,14.753,42.575,31.584,14.188,6.672,8.93
55,1.286,36.331,14.8,42.594,31.608,14.269,6.713,9.012
56,1.247,36.418,14.769,42.594,31.602,14.31,6.713,9.135
57,1.208,35.988,14.703,42.642,31.608,14.392,6.713,9.217
58,1.155,36.079,14.749,42.652,31.591,14.19,6.632,9.096
59,1.158,36.224,14.73,42.604,31.595,14.228,6.631,9.095
60,1.116,36.254,14.78,42.565,31.584,14.066,6.55,9.014
61,1.093,36.552,14.754,42.594,31.605,14.268,6.752,9.216
62,1.034,36.689,14.824,42.594,31.605,14.229,6.714,9.178
63,0.962,36.834,14.742,42.613,31.619,14.473,6.794,9.34
64,0.87,36.817,14.734,42.585,31.598,14.353,6.511,9.138
65,0.778,35.714,14.777,42.584,31.605,14.433,6.549,9.177
66,0.683,35.827,14.793,42.565,31.598,14.434,6.508,9.096
67,0.561,35.972,14.801,42.594,31.605,14.597,6.589,9.258
68,0.443,36.05,14.742,42.584,31.605,14.558,6.549,9.178
69,0.335,36.118,14.714,42.613,31.615,14.638,6.712,9.34
70,0.213,36.224,14.694,42.575,31.602,14.436,6.51,9.179
71,0.15,36.369,14.733,42.603,31.602,14.434,6.508,9.218
72,0.062,35.949,14.761,42.565,31.602,14.271,6.427,9.096
73,-0.014,36.06,14.812,42.584,31.602,14.351,6.629,9.38
74,-0.103,36.205,14.727,42.575,31.608,14.311,6.468,9.342
75,-0.149,36.321,14.734,42.603,31.616,14.27,6.67,9.464
76,-0.156,35.929,14.738,42.584,31.595,14.148,6.509,9.262
77,-0.163,36.088,14.781,42.584,31.598,14.024,6.508,9.341
78,-0.14,36.224,14.808,42.584,31.595,13.901,6.427,9.26
79,-0.101,36.312,14.773,42.575,31.605,14.022,6.507,9.3
80,-0.064,36.054,14.765,42.584,31.602,13.942,6.467,9.382
81,-0.005,36.195,14.703,42.594,31.605,13.982,6.548,9.382
82,0.044,36.321,14.765,42.584,31.595,13.901,6.427,9.261
83,0.09,36.399,14.769,42.584,31.601,14.022,6.466,9.259
84,0.146,36.083,14.793,42.603,31.598,14.105,6.426,9.259
85,0.179,36.224,14.726,42.604,31.598,14.146,6.507,9.341
86,0.228,36.35,14.734,42.584,31.595,14.187,6.508,9.26
87,0.28,36.409,14.769,42.584,31.608,14.188,6.549,9.3
88,0.333,36.016,14.761,42.575,31.598,14.147,6.468,9.219
89,0.379,36.175,14.792,42.603,31.602,14.106,6.467,9.178
90,0.438,36.321,14.785,42.584,31.605,14.065,6.426,9.259
91,0.5,36.332,14.781,42.575,31.605,14.105,6.588,9.178
92,0.537,36.092,14.703,42.594,31.605,14.024,6.468,9.177
93,0.57,36.282,14.718,42.584,31.602,14.064,6.467,9.137
94,0.599,36.38,14.749,42.575,31.595,13.861,6.507,9.095
95,0.629,36.208,14.812,42.594,31.598,13.9,6.508,9.136
96,0.636,36.158,14.711,42.604,31.598,13.819,6.467,9.217
97,0.655,36.282,14.593,42.604,31.598,13.696,6.467,9.259
98,0.678,36.408,14.767,42.594,31.602,13.695,6.426,9.097
99,0.672,36.122,14.757,42.565,31.595,13.573,6.385,9.095
100,0.682,36.224,14.765,42.584,31.601,13.531,6.385,9.014
101,0.679,36.36,14.796,42.565,31.598,13.531,6.425,9.135
102,0.695,36.476,14.785,42.603,31.598,13.734,6.466,9.177
103,0.708,36.008,14.637,42.613,31.605,13.858,6.386,9.096
104,0.715,36.175,14.729,42.594,31.595,13.9,6.466,9.176
105,0.702,36.283,14.804,42.584,31.598,14.103,6.426,9.177
106,0.708,36.351,14.785,42.555,31.595,14.024,6.344,9.096
107,0.715,35.882,14.73,42.565,31.598,14.226,6.384,9.054
108,0.728,36.069,14.695,42.603,31.608,14.31,6.385,9.176
109,0.705,36.205,14.733,42.661,31.598,14.351,6.385,9.259
110,0.711,36.273,14.765,42.585,31.602,14.311,6.344,9.137
111,0.692,36.159,14.738,42.594,31.602,14.229,6.303,9.217
112,0.688,36.321,14.777,42.575,31.591,14.228,6.343,9.015
113,0.692,36.437,14.765,42.584,31.595,14.228,6.384,9.054
114,0.695,36.515,14.761,42.594,31.608,14.228,6.466,9.135
115,0.692,36.171,14.738,42.584,31.595,14.269,6.426,9.136
116,0.692,36.359,14.796,42.603,31.595,14.188,6.344,9.095
117,0.695,36.438,14.797,42.565,31.598,14.106,6.384,9.095
118,0.692,36.477,14.769,42.584,31.595,14.024,6.344,8.973
119,0.682,36.055,14.703,42.555,31.591,14.064,6.343,8.972
120,0.708,36.224,14.694,42.593,31.601,14.105,6.466,8.972
121,0.708,36.36,14.764,42.584,31.602,14.065,6.467,8.891
122,0.728,36.284,14.757,42.603,31.605,14.105,6.589,8.89
123,0.715,36.169,14.808,42.556,31.591,14.065,6.468,8.89
124,0.718,36.321,14.734,42.574,31.601,14.146,6.467,8.849
125,0.711,36.428,14.73,42.546,31.591,14.106,6.426,8.808
126,0.728,36.074,14.745,42.565,31.601,14.268,6.548,8.848
127,0.731,36.166,14.796,42.574,31.605,14.27,6.549,8.808
128,0.744,36.321,14.816,42.613,31.612,14.392,6.63,8.93
129,0.715,36.409,14.793,42.556,31.595,14.19,6.468,8.768
130,0.711,36.084,14.758,42.546,31.595,14.188,6.548,8.767
131,0.708,36.234,14.71,42.555,31.588,14.025,6.468,8.645
132,0.721,36.398,14.733,42.584,31.601,14.145,6.548,8.806
133,0.718,36.467,14.761,42.565,31.598,14.106,6.63,8.808
134,0.718,36.151,14.796,42.584,31.605,14.268,6.712,8.97
135,0.698,36.254,14.703,42.546,31.588,14.107,6.51,8.809
136,0.718,36.418,14.706,42.574,31.591,14.105,6.549,8.889
137,0.698,36.477,14.753,42.555,31.598,14.024,6.549,8.727
138,0.705,36.151,14.761,42.584,31.608,14.105,6.63,8.888
139,0.721,36.311,14.789,42.575,31.605,14.105,6.672,8.849
140,0.728,36.428,14.793,42.575,31.605,14.187,6.713,8.93
141,0.728,36.458,14.781,42.555,31.598,13.984,6.632,8.728
142,0.738,36.084,14.722,42.574,31.602,14.145,6.672,8.848
143,0.741,36.215,14.726,42.594,31.598,14.187,6.631,8.727
144,0.751,36.34,14.78,42.575,31.602,14.35,6.712,8.807
145,0.754,36.361,14.769,42.565,31.602,14.433,6.672,8.808
146,0.751,36.112,14.695,42.555,31.605,14.393,6.713,8.767
147,0.751,36.272,14.722,42.555,31.598,14.434,6.632,8.726
148,0.744,36.379,14.741,42.565,31.605,14.475,6.631,8.766
149,0.744,36.323,14.784,42.584,31.609,14.434,6.712,8.807
150,0.741,36.265,14.797,42.575,31.605,14.393,6.713,8.808
151,0.738,36.418,14.82,42.565,31.602,14.393,6.794,8.767
152,0.721,36.506,14.801,42.565,31.598,14.393,6.673,8.848
153,0.728,36.104,14.766,42.651,31.598,14.271,6.672,8.767
154,0.728,36.186,14.714,42.566,31.602,14.27,6.713,8.889
155,0.747,36.331,14.78,42.565,31.605,14.229,6.713,8.809
156,0.721,36.428,14.793,42.565,31.605,14.188,6.794,8.848
157,0.731,36.132,14.742,42.574,31.605,14.106,6.714,8.849
158,0.718,36.225,14.702,42.546,31.595,14.065,6.713,8.93
159,0.737,36.36,14.628,42.565,31.598,13.983,6.632,8.809
160,0.734,36.419,14.729,42.546,31.595,13.982,6.672,8.848
161,0.741,36.132,14.71,42.565,31.605,14.023,6.794,8.93
162,0.744,36.273,14.804,42.574,31.602,14.105,6.714,8.809
163,0.77,36.427,14.777,42.584,31.612,14.349,6.754,8.97
164,0.757,36.458,14.722,42.555,31.598,14.311,6.673,8.809
165,0.764,36.161,14.722,42.565,31.605,14.514,6.672,8.848
166,0.767,36.273,14.784,42.527,31.588,14.557,6.55,8.686
167,0.783,36.418,14.797,42.555,31.612,14.76,6.752,8.969
168,0.777,36.458,14.765,42.565,31.598,14.803,6.673,8.931
169,0.787,36.18,14.75,42.584,31.615,14.926,6.835,9.012
170,0.777,36.311,14.695,42.527,31.591,14.764,6.592,8.891
171,0.774,36.457,14.577,42.584,31.598,14.763,6.671,8.93
172,0.777,36.458,14.732,42.546,31.598,14.681,6.469,8.768
173,0.777,36.161,14.769,42.565,31.608,14.802,6.67,9.011
174,0.761,36.282,14.769,42.555,31.609,14.722,6.631,8.932
175,0.77,36.428,14.722,42.651,31.616,14.803,6.794,9.093
176,0.757,36.266,14.726,42.547,31.598,14.478,6.592,8.973
177,0.761,36.207,14.765,42.546,31.598,14.475,6.549,9.013
178,0.764,36.331,14.804,42.555,31.595,14.312,6.468,8.891
179,0.787,36.438,14.801,42.555,31.601,14.311,6.589,9.012
180,0.78,36.132,14.785,42.546,31.602,14.189,6.59,8.972
181,0.79,36.244,14.75,42.555,31.612,14.269,6.712,9.094
182,0.8,36.37,14.714,42.536,31.602,14.188,6.51,8.892
183,0.803,36.476,14.726,42.545,31.602,14.391,6.63,8.971
184,0.81,36.017,14.784,42.546,31.591,14.515,6.59,8.972
185,0.816,36.128,14.738,42.536,31.598,14.679,6.631,9.013
186,0.823,36.292,14.718,42.632,31.595,14.68,6.59,9.094
187,0.82,36.37,14.73,42.527,31.601,14.762,6.509,9.095
188,0.82,36.122,14.773,42.497,31.595,14.681,6.467,9.014
189,0.807,36.292,14.789,42.535,31.608,14.721,6.548,9.054
190,0.813,36.418,14.832,42.555,31.598,14.681,6.468,9.095
191,0.826,36.477,14.778,42.536,31.608,14.68,6.589,9.095
192,0.813,36.036,14.715,42.536,31.605,14.599,6.631,9.095
193,0.81,36.176,14.702,42.536,31.602,14.517,6.631,9.136
194,0.816,36.302,14.757,42.507,31.598,14.435,6.59,9.095
195,0.813,36.332,14.769,42.526,31.605,14.393,6.631,9.176
196,0.81,36.15,14.726,42.555,31.605,14.352,6.59,9.218
197,0.81,36.292,14.64,42.555,31.598,14.271,6.631,9.218
198,0.813,36.437,14.744,42.536,31.595,14.188,6.631,9.259
199,0.816,36.419,14.773,42.517,31.595,14.065,6.631,9.219
200,0.82,36.151,14.769,42.507,31.588,14.105,6.631,9.137
201,0.817,36.263,14.793,42.497,31.591,14.024,6.59,9.177
202,0.836,36.399,14.793,42.535,31.608,14.186,6.712,9.299
203,0.846,36.304,14.68,42.517,31.602,14.269,6.551,9.301
204,0.866,36.246,14.725,42.526,31.608,14.392,6.671,9.26
205,0.843,36.398,14.749,42.526,31.605,14.393,6.672,9.178
206,0.856,36.477,14.788,42.497,31.602,14.434,6.631,9.096
207,0.856,36.506,14.734,42.507,31.602,14.434,6.672,9.095
208,0.875,36.689,14.663,42.536,31.608,14.556,6.672,9.176
209,0.856,36.806,14.639,42.526,31.605,14.516,6.672,9.259
210,0.869,36.903,14.733,42.526,31.602,14.516,6.713,9.219
211,0.859,35.935,14.749,42.507,31.605,14.435,6.713,9.137
212,0.859,36.069,14.808,42.507,31.602,14.393,6.632,9.136
213,0.849,36.166,14.785,42.497,31.602,14.393,6.712,9.177
214,0.833,36.321,14.754,42.535,31.605,14.434,6.754,9.259
215,0.852,36.169,14.71,42.507,31.605,14.515,6.714,9.3
216,0.862,36.34,14.796,42.536,31.602,14.516,6.713,9.382
217,0.856,36.399,14.793,42.498,31.602,14.353,6.672,9.382
218,0.879,36.486,14.765,42.516,31.605,14.352,6.672,9.301
219,0.876,36.017,14.711,42.469,31.581,14.311,6.591,9.301
220,0.892,36.204,14.702,42.506,31.608,14.392,6.712,9.382
221,0.886,36.331,14.683,42.516,31.602,14.434,6.794,9.382
222,0.902,36.409,14.733,42.545,31.615,14.678,6.877,9.505
223,0.899,36.074,14.78,42.507,31.598,14.518,6.674,9.343
224,0.905,36.224,14.75,42.497,31.598,14.638,6.631,9.382
225,0.912,36.369,14.679,42.516,31.595,14.558,6.55,9.22
226,0.935,36.4,14.737,42.507,31.612,14.638,6.752,9.3
227,0.931,36.208,14.753,42.497,31.609,14.68,6.632,9.301
228,0.944,36.35,14.804,42.507,31.619,14.762,6.875,9.382
229,0.922,36.447,14.773,42.488,31.598,14.559,6.715,9.22
230,0.922,36.247,14.789,42.487,31.598,14.557,6.713,9.218
231,0.928,36.13,14.734,42.497,31.595,14.435,6.632,9.178
232,0.931,36.301,14.741,42.612,31.598,14.515,6.753,9.34
233,0.931,36.399,14.726,42.498,31.595,14.435,6.714,9.26
234,0.935,36.036,14.808,42.516,31.612,14.515,6.713,9.3
235,0.938,36.128,14.75,42.469,31.609,14.353,6.632,9.178
236,0.938,36.263,14.656,42.506,31.602,14.189,6.712,9.299
237,0.945,36.389,14.748,42.497,31.602,14.147,6.632,9.219
238,0.935,36.055,14.742,42.497,31.608,14.106,6.672,9.218
239,0.954,36.195,14.788,42.488,31.605,14.024,6.591,9.218
240,0.954,36.321,14.789,42.478,31.612,13.942,6.631,9.3
241,0.961,36.399,14.801,42.478,31.598,13.778,6.59,9.097
242,0.974,36.055,14.719,42.487,31.605,13.818,6.549,9.217
243,0.994,36.224,14.714,42.487,31.602,13.777,6.63,9.178
244,0.997,36.36,14.741,42.497,31.605,13.777,6.59,9.177
245,1.013,36.419,14.781,42.497,31.602,13.818,6.631,9.137
246,1.017,36.074,14.75,42.459,31.605,13.737,6.55,9.177
247,1.02,36.224,14.671,42.478,31.598,13.695,6.549,9.096
248,1.02,36.36,14.717,42.487,31.602,13.654,6.59,9.095
249,1.02,36.428,14.749,42.478,31.608,13.694,6.59,9.095
250,1.027,36.467,14.785,42.487,31.609,13.654,6.549,9.136
251,1.037,36.612,14.758,42.497,31.609,13.654,6.508,9.136
252,1.017,36.699,14.781,42.468,31.602,13.572,6.549,9.095
253,1.02,36.729,14.652,42.458,31.595,13.571,6.59,9.054
254,1.023,35.818,14.709,42.478,31.598,13.571,6.631,9.095
255,1.043,35.982,14.761,42.497,31.605,13.612,6.712,9.054
256,1.04,36.108,14.8,42.459,31.609,13.531,6.713,9.135
257,1.05,36.119,14.758,42.497,31.602,13.49,6.632,9.136
258,1.05,36.071,14.656,42.478,31.602,13.367,6.631,9.055
259,1.066,36.224,14.639,42.468,31.602,13.244,6.631,9.013
260,1.06,36.312,14.701,42.545,31.588,13.284,6.59,9.054
261,1.095,36.035,14.737,42.478,31.605,13.447,6.793,9.135
262,1.096,36.137,14.773,42.478,31.609,13.448,6.755,9.177
263,1.119,36.292,14.793,42.507,31.622,13.652,6.714,9.177
264,1.099,36.322,14.683,42.478,31.598,13.572,6.591,9.015
265,1.119,35.853,14.741,42.478,31.602,13.694,6.631,9.054
266,1.119,35.992,14.749,42.43,31.598,13.613,6.55,8.973
267,1.132,36.147,14.796,42.477,31.612,13.857,6.712,9.053
268,1.135,36.225,14.773,42.449,31.609,13.859,6.672,9.054
269,1.142,36.034,14.746,42.497,31.616,13.94,6.794,9.135
270,1.148,36.156,14.699,42.468,31.602,13.697,6.551,9.014
271,1.148,36.33,14.671,42.468,31.605,13.776,6.671,9.054
272,1.145,36.399,14.733,42.468,31.602,13.696,6.55,8.973
273,1.142,36.218,14.777,42.458,31.608,13.695,6.712,9.135
274,1.138,36.369,14.757,42.449,31.602,13.695,6.713,9.095
275,1.145,36.505,14.668,42.487,31.608,13.654,6.835,9.258
276,1.145,36.526,14.702,42.459,31.598,13.491,6.633,9.259
277,1.161,35.903,14.749,42.458,31.595,13.53,6.753,9.259
278,1.171,36.04,14.765,42.458,31.591,13.368,6.714,9.178
279,1.181,36.185,14.792,42.458,31.601,13.529,6.713,9.299
280,1.191,36.187,14.781,42.439,31.602,13.368,6.713,9.341
281,1.194,35.937,14.75,42.439,31.602,13.488,6.754,9.423
282,1.198,36.088,14.738,42.477,31.598,13.49,6.754,9.342
283,1.204,36.205,14.714,42.439,31.605,13.611,6.714,9.301
284,1.211,36.149,14.784,42.449,31.602,13.775,6.713,9.219
285,1.211,36.129,14.734,42.458,31.605,13.899,6.794,9.422
286,1.224,36.273,14.667,42.449,31.598,14.022,6.795,9.342
287,1.234,36.37,14.733,42.439,31.605,14.105,6.795,9.423
288,1.23,36.026,14.738,42.458,31.595,14.024,6.714,9.261
289,1.224,36.147,14.796,42.449,31.595,14.145,6.754,9.341
290,1.234,36.273,14.765,42.449,31.601,14.065,6.673,9.342
291,1.24,36.36,14.82,42.449,31.608,14.186,6.794,9.382
292,1.234,36.045,14.707,42.449,31.598,14.065,6.755,9.423
293,1.237,36.185,14.729,42.449,31.602,14.105,6.795,9.383
294,1.234,36.331,14.718,42.43,31.602,14.065,6.714,9.301
295,1.224,36.399,14.788,42.42,31.602,13.942,6.713,9.26
296,1.234,36.189,14.722,42.448,31.605,13.982,6.794,9.463
297,1.234,36.34,14.628,42.439,31.602,13.982,6.836,9.424
298,1.24,36.476,14.701,42.458,31.595,13.901,6.796,9.383
299,1.234,36.516,14.706,42.439,31.595,13.819,6.755,9.342
300,1.234,36.161,14.749,42.439,31.595,13.737,6.754,9.382
301,1.237,36.273,14.788,42.401,31.591,13.817,6.714,9.423
302,1.257,36.437,14.832,42.448,31.608,13.94,6.835,9.464
303,1.247,36.477,14.68,42.458,31.612,13.982,6.796,9.424
304,1.257,36.42,14.741,42.439,31.602,14.023,6.755,9.261
305,1.234,36.553,14.757,42.429,31.595,14.105,6.754,9.381
306,1.243,36.66,14.789,42.42,31.601,14.105,6.714,9.261
307,1.231,36.661,14.734,42.401,31.598,14.146,6.713,9.178
308,1.237,36.393,14.644,42.439,31.608,14.187,6.754,9.259
309,1.227,36.515,14.733,42.449,31.609,14.106,6.795,9.178
310,1.23,36.66,14.726,42.449,31.602,14.105,6.714,9.218
311,1.195,36.671,14.745,42.43,31.605,14.024,6.713,9.137
312,1.185,36.69,14.788,42.41,31.598,14.023,6.632,9.014
313,1.165,36.825,14.785,42.42,31.602,14.023,6.712,9.094
314,1.168,36.96,14.726,42.429,31.602,14.145,6.713,9.014
315,1.162,36.588,14.722,42.42,31.602,14.065,6.713,9.013
316,1.171,36.689,14.78,42.439,31.605,14.105,6.754,9.094
317,1.139,36.796,14.781,42.41,31.598,14.024,6.714,8.932
318,1.132,36.893,14.765,42.42,31.598,13.983,6.713,8.89
319,1.122,36.894,14.683,42.401,31.598,13.901,6.672,8.93
320,1.129,37.076,14.678,42.439,31.602,13.981,6.753,8.931
321,1.112,37.164,14.55,42.477,31.602,13.901,6.714,8.85
322,1.109,37.29,14.72,42.459,31.605,14.063,6.713,8.808
323,1.093,37.109,14.761,42.42,31.588,13.983,6.672,8.767
324,1.089,37.289,14.734,42.42,31.594,14.145,6.631,8.767
325,1.076,37.368,14.71,42.401,31.588,14.106,6.672,8.726
326,1.079,37.464,14.718,42.429,31.608,14.227,6.753,8.766
327,1.066,37.398,14.769,42.42,31.602,14.31,6.714,8.726
328,1.06,37.57,14.8,42.448,31.612,14.433,6.794,8.726
329,1.024,37.62,14.793,42.401,31.598,14.231,6.714,8.563
330,1.017,37.678,14.734,42.4,31.605,14.228,6.632,8.643
331,1.001,37.362,14.675,42.381,31.591,14.066,6.55,8.481
332,0.984,37.541,14.694,42.419,31.608,14.308,6.671,8.601
333,0.978,37.658,14.71,42.401,31.598,14.27,6.713,8.602
334,0.984,37.717,14.819,42.458,31.608,14.392,6.794,8.643
335,0.958,37.65,14.703,42.391,31.591,14.108,6.673,8.481
336,0.935,37.822,14.726,42.496,31.598,14.105,6.631,8.52
337,0.931,37.92,14.722,42.401,31.595,14.024,6.631,8.398
338,0.925,37.853,14.78,42.419,31.608,14.064,6.794,8.519
339,0.928,37.795,14.785,42.391,31.605,13.983,6.755,8.52
340,0.925,37.938,14.8,42.429,31.612,14.145,6.876,8.601
341,0.909,38.007,14.754,42.381,31.595,13.943,6.715,8.44
342,0.912,37.893,14.706,42.4,31.598,14.022,6.754,8.479
343,0.905,37.997,14.675,42.4,31.591,14.064,6.592,8.398
344,0.895,38.142,14.745,42.419,31.605,14.227,6.834,8.519
345,0.892,38.23,14.788,42.41,31.605,14.269,6.755,8.479
346,0.895,38.01,14.695,42.429,31.612,14.351,6.876,8.642
347,0.886,38.132,14.729,42.401,31.602,14.311,6.715,8.44
348,0.879,38.287,14.714,42.391,31.598,14.351,6.794,8.519
349,0.863,38.337,14.769,42.381,31.598,14.271,6.673,8.358
350,0.853,38.212,14.738,42.4,31.612,14.392,6.794,8.559
351,0.846,38.336,14.8,42.4,31.602,14.312,6.755,8.561
352,0.836,38.462,14.781,42.419,31.612,14.351,6.795,8.643
353,0.82,38.511,14.656,42.401,31.591,14.271,6.714,8.521
354,0.82,38.281,14.702,42.391,31.591,14.229,6.672,8.642
355,0.82,38.413,14.741,42.4,31.595,14.147,6.713,8.481
356,0.807,38.52,14.788,42.419,31.605,14.228,6.754,8.682
357,0.8,38.569,14.722,42.391,31.609,14.228,6.714,8.684
358,0.787,38.33,14.652,42.41,31.612,14.188,6.876,8.766
359,0.787,38.462,14.678,42.391,31.598,14.065,6.715,8.685
360,0.787,38.588,14.721,42.458,31.598,14.105,6.754,8.725
361,0.787,38.598,14.702,42.382,31.602,14.024,6.714,8.685
362,0.787,38.541,14.757,42.391,31.602,14.105,6.794,8.847
363,0.777,38.646,14.777,42.371,31.608,14.187,6.836,8.767
364,0.774,38.762,14.726,42.419,31.609,14.35,6.958,8.929
365,0.787,38.581,14.722,42.372,31.591,14.271,6.716,8.768
366,0.793,38.502,14.749,42.381,31.598,14.31,6.754,8.807
367,0.777,38.626,14.8,42.362,31.598,14.189,6.673,8.726
368,0.784,38.743,14.773,42.39,31.608,14.31,6.753,8.929
369,0.777,38.916,14.711,42.381,31.598,14.27,6.714,8.85
370,0.774,39.052,14.694,42.4,31.612,14.351,6.835,8.93
371,0.767,39.159,14.651,42.381,31.602,14.189,6.755,8.768
372,0.761,39.275,14.698,42.381,31.605,14.147,6.795,8.848
373,0.748,38.212,14.753,42.343,31.598,14.106,6.714,8.767
374,0.751,38.336,14.773,42.381,31.595,14.146,6.794,8.848
375,0.754,38.462,14.648,42.381,31.598,14.065,6.795,8.849
376,0.744,38.568,14.737,42.4,31.608,14.064,6.958,8.971
377,0.728,38.579,14.738,42.372,31.588,13.942,6.797,8.728
378,0.734,38.742,14.769,42.362,31.594,13.941,6.877,8.807
379,0.741,38.849,14.796,42.362,31.595,13.86,6.755,8.726
380,0.744,38.927,14.773,42.381,31.601,13.859,6.836,8.766
381,0.747,38.592,14.75,42.381,31.595,13.9,6.837,8.767
382,0.747,38.733,14.632,42.4,31.598,13.981,6.999,8.889
383,0.747,38.84,14.717,42.352,31.591,13.901,6.797,8.687
384,0.754,38.879,14.745,42.371,31.598,14.022,6.755,8.725
385,0.754,38.477,14.73,42.371,31.595,14.105,6.836,8.644
386,0.748,38.626,14.648,42.381,31.601,14.146,6.918,8.765
387,0.744,38.724,14.721,42.362,31.602,14.269,6.837,8.767
388,0.754,38.753,14.741,42.39,31.608,14.229,6.958,8.807
389,0.738,38.629,14.745,42.371,31.588,14.107,6.797,8.686
390,0.744,38.791,14.788,42.371,31.601,14.105,6.877,8.725
391,0.741,38.879,14.769,42.352,31.598,14.024,6.837,8.685
392,0.734,38.688,14.714,42.371,31.602,14.023,6.918,8.725
393,0.728,38.59,14.69,42.362,31.602,13.983,6.878,8.726
394,0.725,38.733,14.737,42.371,31.598,13.982,7.0,8.726
395,0.721,38.811,14.761,42.333,31.598,13.779,6.838,8.603
396,0.721,39.013,14.738,42.371,31.605,13.777,6.958,8.684
397,0.728,39.149,14.663,42.362,31.595,13.736,6.919,8.603
398,0.728,39.295,14.69,42.362,31.595,13.736,7.0,8.684
399,0.734,39.353,14.729,42.371,31.595,13.695,6.919,8.603
400,0.757,38.136,14.726,42.352,31.601,13.613,7.081,8.684
401,0.754,38.239,14.753,42.323,31.595,13.572,6.88,8.481
402,0.754,38.374,14.785,42.352,31.601,13.694,6.837,8.601
403,0.751,38.453,14.707,42.352,31.595,13.735,6.877,8.521
404,0.751,38.425,14.722,42.371,31.598,13.98,7.0,8.723
405,0.738,38.539,14.753,42.362,31.595,14.023,6.96,8.603
406,0.751,38.684,14.8,42.352,31.615,14.186,7.041,8.724
407,0.741,38.715,14.723,42.323,31.588,14.106,6.839,8.563
408,0.741,38.312,14.691,42.361,31.605,14.227,6.918,8.602
409,0.744,38.452,14.647,42.333,31.595,14.066,6.715,8.562
410,0.734,38.597,14.686,42.39,31.601,14.186,6.957,8.683
411,0.725,38.618,14.671,42.352,31.598,14.106,6.919,8.766
412,0.741,38.225,14.721,42.371,31.605,14.105,7.081,8.929
413,0.728,38.345,14.761,42.323,31.591,13.983,6.88,8.606
414,0.734,38.471,14.636,42.342,31.591,14.023,6.959,8.724
415,0.731,38.492,14.705,42.323,31.591,13.861,6.919,8.726
416,0.734,38.224,14.737,42.361,31.598,13.981,7.041,8.929
417,0.721,38.374,14.784,42.342,31.602,13.86,7.082,8.972
418,0.731,38.462,14.789,42.361,31.605,13.981,7.123,9.094
419,0.734,38.223,14.726,42.323,31.591,13.738,6.961,8.892
420,0.728,38.106,14.695,42.323,31.605,13.858,7.0,8.93
421,0.734,38.229,14.608,42.332,31.595,13.696,6.879,8.89
422,0.741,38.355,14.674,42.342,31.598,13.898,7.081,9.012
423,0.754,38.03,14.717,42.342,31.595,13.941,7.002,9.054
424,0.741,38.123,14.765,42.352,31.615,14.022,7.082,9.135
425,0.744,38.249,14.652,42.342,31.588,13.983,6.92,9.014
426,0.757,38.317,14.709,42.342,31.598,14.063,7.0,9.013
427,0.754,37.886,14.741,42.313,31.598,14.024,6.919,8.891
428,0.757,38.026,14.749,42.332,31.608,14.023,6.959,9.012
429,0.757,38.123,14.788,42.333,31.605,14.064,6.919,8.932
430,0.764,38.229,14.754,42.342,31.609,14.105,7.0,9.175
431,0.751,37.789,14.722,42.323,31.598,13.983,6.919,8.933
432,0.735,37.967,14.726,42.352,31.602,13.942,6.878,8.931
433,0.741,38.103,14.71,42.333,31.598,13.982,6.959,8.972
434,0.744,38.162,14.78,42.333,31.612,13.982,6.96,9.053
435,0.738,37.674,14.742,42.313,31.609,13.942,6.96,9.013
436,0.731,37.822,14.691,42.351,31.609,13.941,7.041,9.135
437,0.725,37.929,14.706,42.314,31.598,13.819,6.879,8.974
438,0.741,37.997,14.741,42.332,31.605,13.777,6.959,9.094
439,0.751,37.672,14.757,42.313,31.602,13.614,6.919,8.932
440,0.748,37.813,14.773,42.342,31.608,13.735,7.041,9.053
441,0.747,37.92,14.796,42.323,31.609,13.655,6.92,9.013
442,0.754,37.949,14.762,42.323,31.609,13.776,7.0,9.135
443,0.741,37.461,14.738,42.323,31.595,13.655,6.879,8.892
444,0.76,37.628,14.71,42.323,31.601,13.654,6.959,8.93
445,0.774,37.735,14.788,42.313,31.598,13.694,6.797,8.931
446,0.78,37.621,14.707,42.323,31.608,13.735,6.917,8.972
447,0.787,37.553,14.671,42.332,31.609,13.776,6.878,8.972
448,0.793,37.716,14.717,42.419,31.626,13.899,6.959,9.094
449,0.784,37.784,14.718,42.305,31.605,13.778,6.797,8.973
450,0.774,37.181,14.71,42.304,31.602,13.818,6.877,8.931
451,0.764,37.271,14.745,42.332,31.602,13.818,6.837,8.931
452,0.761,37.406,14.808,42.313,31.605,13.777,6.918,9.012
453,0.761,37.494,14.672,42.323,31.602,13.858,6.919,8.932
454,0.751,37.178,14.71,42.313,31.608,13.859,7.0,9.012
455,0.761,37.29,14.714,42.304,31.595,13.737,6.879,8.85
456,0.757,37.435,14.784,42.323,31.595,13.736,6.959,8.889
457,0.761,37.494,14.75,42.304,31.601,13.614,6.878,8.849
458,0.764,36.957,14.703,42.313,31.602,13.694,7.0,8.93
459,0.767,37.086,14.632,42.313,31.605,13.573,6.96,8.85
460,0.767,37.231,14.658,42.323,31.605,13.612,6.96,8.971
461,0.748,37.3,14.709,42.313,31.598,13.45,6.919,8.728
462,0.76,36.984,14.702,42.304,31.598,13.57,6.959,8.766
463,0.777,37.134,14.784,42.313,31.605,13.734,6.838,8.767
464,0.78,37.242,14.676,42.313,31.602,13.939,6.958,8.889
465,0.774,37.3,14.71,42.294,31.608,13.941,6.878,8.849
466,0.78,36.639,14.737,42.284,31.602,14.022,6.918,8.889
467,0.777,36.805,14.765,42.275,31.591,14.023,6.756,8.768
468,0.784,36.931,14.746,42.274,31.605,14.145,6.836,8.767
469,0.78,36.971,14.706,42.294,31.602,14.024,6.918,8.807
470,0.78,36.78,14.687,42.303,31.605,14.105,6.878,8.889
471,0.771,36.921,14.659,42.294,31.609,14.065,6.837,8.89
472,0.767,37.019,14.682,42.284,31.605,14.064,6.877,8.971
473,0.777,36.684,14.749,42.265,31.602,13.983,6.715,8.891
474,0.758,36.489,14.738,42.284,31.605,13.982,6.754,8.89
475,0.767,36.679,14.675,42.294,31.602,13.982,6.795,8.93
476,0.754,36.786,14.717,42.294,31.605,13.942,6.755,9.012
477,0.761,36.423,14.765,42.294,31.609,13.941,6.836,9.013
478,0.744,36.515,14.746,42.294,31.595,13.819,6.837,9.054
479,0.757,36.631,14.769,42.275,31.591,13.696,6.755,8.932
480,0.757,36.7,14.773,42.255,31.598,13.735,6.795,9.012
481,0.774,36.221,14.726,42.303,31.608,13.736,6.755,9.094
482,0.784,36.369,14.624,42.294,31.602,13.695,6.795,9.176
483,0.777,36.534,14.69,42.284,31.605,13.776,6.795,9.055
484,0.777,36.564,14.733,42.275,31.598,13.818,6.795,9.013
485,0.787,36.152,14.718,42.265,31.602,13.859,6.755,9.013
486,0.787,36.273,14.636,42.265,31.591,13.859,6.632,9.013
487,0.793,36.437,14.701,42.303,31.601,13.94,6.834,9.135
488,0.79,36.515,14.726,42.265,31.605,13.941,6.796,9.095
489,0.784,36.113,14.8,42.274,31.609,13.941,6.714,9.054
490,0.764,36.205,14.766,42.274,31.595,13.819,6.632,8.973
491,0.77,36.34,14.765,42.265,31.601,13.818,6.59,8.972
492,0.764,36.371,14.703,42.236,31.591,13.859,6.631,8.931
493,0.774,35.843,14.718,42.293,31.608,13.981,6.712,8.931
494,0.771,35.972,14.718,42.275,31.602,13.982,6.672,8.931
495,0.777,36.146,14.796,42.303,31.612,14.063,6.794,8.931
496,0.738,36.1,14.734,42.246,31.595,13.983,6.673,8.809
497,0.741,35.869,14.675,42.274,31.591,13.86,6.672,8.808
498,0.741,36.04,14.651,42.265,31.588,13.818,6.509,8.645
499,0.734,36.166,14.702,42.284,31.608,13.981,6.67,8.765
500,0.747,35.947,14.706,42.255,31.605,13.901,6.713,8.807
501,0.764,35.887,14.753,42.274,31.622,14.063,6.835,8.848
502,0.757,35.982,14.765,42.246,31.598,13.78,6.633,8.646
503,0.767,36.108,14.675,42.284,31.602,13.899,6.672,8.725
504,0.761,35.668,14.674,42.255,31.588,13.819,6.55,8.644
505,0.767,35.798,14.733,42.284,31.601,14.062,6.671,8.725
506,0.761,35.914,14.78,42.265,31.602,14.024,6.631,8.726
507,0.783,36.04,14.758,42.294,31.612,14.105,6.753,8.807
508,0.771,35.581,14.691,42.227,31.595,13.943,6.551,8.645
509,0.77,35.759,14.655,42.245,31.601,13.982,6.671,8.684
510,0.761,35.885,14.608,42.236,31.588,13.82,6.591,8.644
511,0.767,35.982,14.701,42.274,31.608,13.981,6.671,8.765
512,0.748,35.619,14.71,42.255,31.602,13.901,6.631,8.767
513,0.751,35.788,14.765,42.284,31.608,14.022,6.753,8.848
514,0.731,35.895,14.652,42.246,31.595,13.779,6.551,8.646
515,0.738,35.973,14.725,42.265,31.598,13.818,6.671,8.684
516,0.721,35.504,14.718,42.236,31.595,13.655,6.509,8.644
517,0.731,35.672,14.769,42.274,31.605,13.816,6.63,8.765
518,0.721,35.798,14.742,42.255,31.598,13.777,6.59,8.685
519,0.731,35.857,14.769,42.274,31.612,13.777,6.793,8.847
520,0.734,35.416,14.664,42.236,31.595,13.492,6.633,8.605
521,0.754,35.585,14.67,42.255,31.601,13.693,6.631,8.684
522,0.754,35.711,14.702,42.236,31.595,13.654,6.509,8.644
523,0.748,35.76,14.761,42.255,31.601,13.938,6.67,8.684
524,0.741,35.435,14.75,42.255,31.605,14.022,6.631,8.766
525,0.744,35.575,14.687,42.284,31.612,14.267,6.753,8.807
526,0.754,35.701,14.675,42.236,31.595,14.107,6.592,8.604
527,0.761,35.463,14.698,42.245,31.598,14.268,6.671,8.643
528,0.757,35.355,14.733,42.245,31.602,14.31,6.631,8.562
529,0.754,35.507,14.765,42.255,31.608,14.392,6.753,8.643
530,0.744,35.614,14.777,42.246,31.605,14.352,6.632,8.684
531,0.744,35.328,14.757,42.265,31.609,14.514,6.753,8.725
532,0.734,35.43,14.66,42.246,31.598,14.353,6.632,8.603
533,0.738,35.594,14.702,42.245,31.602,14.433,6.631,8.643
534,0.734,35.682,14.753,42.245,31.602,14.434,6.59,8.603
535,0.721,35.204,14.726,42.245,31.608,14.515,6.671,8.684
536,0.711,35.371,14.632,42.265,31.609,14.435,6.672,8.766
537,0.698,35.479,14.674,42.255,31.609,14.475,6.672,8.726
538,0.695,35.576,14.706,42.236,31.609,14.312,6.631,8.644
539,0.708,35.318,14.733,42.226,31.602,14.311,6.631,8.684
540,0.721,35.488,14.777,42.255,31.605,14.27,6.59,8.603
541,0.721,35.624,14.781,42.246,31.602,14.351,6.671,8.724
542,0.724,35.692,14.746,42.245,31.602,14.393,6.672,8.766
543,0.721,35.108,14.706,42.255,31.602,14.515,6.631,8.685
544,0.728,35.255,14.733,42.226,31.598,14.597,6.55,8.644
545,0.728,35.391,14.749,42.236,31.602,14.679,6.63,8.603
546,0.741,35.46,14.691,42.236,31.598,14.802,6.712,8.48
547,0.731,35.24,14.6,42.255,31.608,14.803,6.713,8.52
548,0.725,35.401,14.693,42.236,31.602,14.885,6.632,8.479
549,0.702,35.489,14.71,42.236,31.605,14.804,6.631,8.52
550,0.711,35.528,14.749,42.255,31.602,14.844,6.631,8.439
551,0.711,35.298,14.718,42.236,31.598,14.723,6.631,8.438
552,0.715,35.507,14.757,42.236,31.602,14.722,6.712,8.479
553,0.702,35.614,14.668,42.255,31.598,14.681,6.672,8.438
554,0.711,35.452,14.694,42.265,31.612,14.721,6.672,8.438
555,0.695,35.336,14.753,42.226,31.605,14.64,6.672,8.438
556,0.692,35.507,14.742,42.226,31.602,14.558,6.672,8.479
557,0.682,35.614,14.706,42.207,31.595,14.516,6.631,8.479
558,0.695,35.337,14.636,42.245,31.608,14.516,6.712,8.56
559,0.708,35.421,14.58,42.265,31.605,14.394,6.713,8.48
560,0.721,35.604,14.716,42.294,31.612,14.515,6.835,8.52
561,0.705,35.654,14.691,42.227,31.595,14.353,6.633,8.398
562,0.711,35.462,14.729,42.236,31.601,14.433,6.712,8.519
563,0.708,35.566,14.71,42.226,31.591,14.353,6.632,8.398
564,0.721,35.749,14.718,42.303,31.605,14.636,6.794,8.6
565,0.728,35.818,14.698,42.256,31.602,14.639,6.795,8.521
566,0.734,35.483,14.757,42.274,31.612,14.761,6.877,8.601
567,0.721,35.566,14.757,42.207,31.602,14.559,6.755,8.44
568,0.731,35.72,14.738,42.235,31.602,14.638,6.836,8.479
569,0.725,35.779,14.679,42.226,31.598,14.436,6.714,8.357
570,0.721,35.703,14.667,42.255,31.608,14.515,6.957,8.559
571,0.705,35.866,14.694,42.293,31.609,14.435,6.878,8.521
572,0.708,35.992,14.679,42.275,31.609,14.556,7.081,8.642
573,0.698,35.993,14.764,42.227,31.598,14.273,6.92,8.481
574,0.695,35.677,14.703,42.236,31.602,14.351,6.919,8.479
575,0.682,35.846,14.69,42.217,31.602,14.23,6.878,8.438
576,0.685,35.972,14.706,42.245,31.608,14.31,7.04,8.641
577,0.688,35.993,14.753,42.255,31.605,14.229,7.042,8.603
578,0.695,35.945,14.781,42.274,31.612,14.228,7.123,8.765
579,0.692,36.069,14.765,42.217,31.595,14.066,6.921,8.523
580,0.701,36.186,14.746,42.245,31.608,14.064,7.0,8.683
581,0.701,36.072,14.703,42.245,31.598,13.983,6.879,8.481
582,0.714,36.042,14.71,42.236,31.602,14.063,7.04,8.723
583,0.711,36.185,14.694,42.226,31.605,14.227,7.001,8.685
584,0.721,36.283,14.749,42.255,31.612,14.473,7.041,8.807
585,0.724,36.025,14.679,42.236,31.598,14.312,6.92,8.686
586,0.737,36.156,14.717,42.245,31.602,14.392,6.959,8.725
587,0.728,36.302,14.683,42.236,31.595,14.434,6.96,8.726
588,0.728,36.389,14.718,42.245,31.608,14.434,6.919,8.807
589,0.734,36.208,14.749,42.245,31.602,14.515,6.959,8.808
590,0.721,36.331,14.788,42.236,31.598,14.394,6.96,8.889
591,0.715,36.457,14.742,42.236,31.591,14.352,6.96,8.768
592,0.705,36.535,14.663,42.226,31.595,14.352,6.96,8.889
593,0.708,36.277,14.698,42.264,31.608,14.393,6.96,8.93
594,0.702,36.418,14.718,42.246,31.605,14.312,7.0,8.931
595,0.724,36.553,14.757,42.255,31.602,14.311,7.001,8.89
596,0.698,36.593,14.664,42.236,31.595,14.108,6.919,8.89
597,0.698,36.45,14.67,42.245,31.598,14.065,6.878,8.809
598,0.688,36.563,14.686,42.226,31.588,13.942,6.837,8.848
599,0.705,36.718,14.737,42.264,31.605,14.022,6.999,8.93
600,0.715,36.748,14.749,42.265,31.609,14.023,6.879,8.89
601,0.724,36.614,14.796,42.274,31.616,14.064,7.04,9.012
602,0.721,36.709,14.746,42.217,31.598,13.902,6.879,8.85
603,0.721,36.844,14.703,42.245,31.608,14.022,6.877,8.849
604,0.715,36.836,14.702,42.226,31.591,13.983,6.877,8.849
605,0.728,36.759,14.776,42.255,31.601,14.185,7.0,8.849
606,0.734,36.883,14.742,42.226,31.595,14.188,6.838,8.849
607,0.734,37.047,14.699,42.274,31.608,14.228,6.999,8.889
608,0.715,36.828,14.675,42.294,31.605,14.147,6.879,8.849
609,0.715,36.788,14.678,42.246,31.598,14.146,6.918,8.889
610,0.705,36.902,14.702,42.245,31.595,14.106,6.878,8.89
611,0.718,37.028,14.745,42.255,31.601,14.146,7.0,8.971
612,0.708,36.905,14.738,42.246,31.602,14.065,6.919,9.013
613,0.708,37.057,14.714,42.255,31.608,14.024,6.959,8.932
614,0.689,37.154,14.694,42.246,31.598,14.023,6.96,8.89
615,0.698,37.232,14.714,42.236,31.608,14.064,6.878,8.89
616,0.685,36.888,14.765,42.217,31.588,13.983,6.918,8.971
617,0.688,37.076,14.738,42.264,31.608,14.023,7.041,9.013
618,0.692,37.193,14.699,42.236,31.602,14.023,6.96,9.054
619,0.708,37.319,14.64,42.284,31.612,14.145,7.082,9.135
620,0.702,37.032,14.619,42.246,31.591,13.984,6.92,8.933
621,0.708,37.202,14.662,42.245,31.598,13.982,6.959,8.931
622,0.702,37.309,14.725,42.226,31.595,14.023,6.797,8.931
623,0.721,37.397,14.734,42.245,31.605,14.267,6.999,9.093
624,0.721,37.215,14.679,42.255,31.598,14.432,6.96,9.014
625,0.728,37.386,14.714,42.293,31.615,14.678,7.122,9.094
626,0.718,37.474,14.706,42.227,31.598,14.518,6.839,8.932
627,0.718,37.513,14.78,42.217,31.598,14.638,6.918,9.012
628,0.711,37.121,14.734,42.216,31.595,14.517,6.756,8.932
629,0.705,37.289,14.687,42.236,31.608,14.557,6.876,9.093
630,0.705,37.387,14.667,42.245,31.602,14.516,6.918,9.095
631,0.711,37.436,14.639,42.265,31.612,14.516,7.0,9.258
632,0.689,37.321,14.635,42.226,31.584,14.313,6.838,9.056
633,0.698,37.473,14.744,42.236,31.605,14.351,6.837,9.095
634,0.688,37.58,14.745,42.226,31.595,14.271,6.714,8.932
635,0.688,37.409,14.621,42.264,31.605,14.351,6.876,9.175
636,0.679,37.34,14.709,42.255,31.605,14.311,6.877,9.218
637,0.698,37.483,14.733,42.265,31.609,14.351,7.0,9.218
638,0.698,37.561,14.749,42.236,31.598,14.23,6.757,9.137
639,0.711,37.39,14.742,42.226,31.605,14.269,6.795,9.095
640,0.711,37.512,14.738,42.226,31.595,14.188,6.795,9.095
641,0.705,37.629,14.71,42.236,31.595,14.228,6.836,9.095
642,0.721,37.745,14.694,42.284,31.601,14.351,6.877,9.136
643,0.728,37.372,14.694,42.236,31.605,14.514,6.796,9.136
644,0.731,37.512,14.753,42.226,31.602,14.516,6.673,9.014
645,0.728,37.638,14.714,42.236,31.605,14.679,6.753,9.094
646,0.744,37.716,14.593,42.255,31.609,14.762,6.754,9.054
647,0.747,37.429,14.685,42.236,31.602,14.844,6.795,9.095
648,0.764,37.58,14.733,42.255,31.605,14.885,6.755,9.014
649,0.77,37.677,14.734,42.236,31.595,14.886,6.795,9.013
650,0.777,37.746,14.757,42.226,31.598,14.764,6.673,8.972
651,0.771,37.353,14.73,42.245,31.598,14.722,6.713,8.972
652,0.8,37.522,14.702,42.245,31.608,14.722,6.835,9.013
653,0.823,37.658,14.675,42.236,31.605,14.722,6.837,9.013
654,0.843,37.726,14.717,42.284,31.612,14.884,6.877,9.094
655,0.836,37.564,14.737,42.217,31.598,14.642,6.715,9.095
656,0.872,37.706,14.706,42.245,31.598,14.558,6.876,9.095
657,0.866,37.823,14.605,42.198,31.591,14.313,6.715,9.054
658,0.902,37.872,14.705,42.245,31.605,14.473,6.916,9.176
659,0.931,37.412,14.729,42.255,31.598,14.272,6.878,9.177
660,0.97,37.589,14.761,42.274,31.615,14.27,6.959,9.177
661,0.987,37.649,14.765,42.217,31.598,14.148,6.797,9.096
662,0.991,37.621,14.753,42.236,31.605,14.146,6.877,9.095
663,0.994,37.611,14.621,42.226,31.584,14.146,6.837,9.014
664,1.026,37.793,14.69,42.255,31.605,14.391,6.918,9.135
665,1.046,37.871,14.745,42.246,31.598,14.434,6.959,9.136
666,1.069,37.335,14.788,42.265,31.612,14.597,7.041,9.258
667,1.05,37.378,14.672,42.217,31.598,14.354,6.839,9.056
668,1.053,37.532,14.581,42.226,31.605,14.433,6.877,9.054
669,1.037,37.619,14.693,42.293,31.598,14.353,6.755,9.013
670,1.04,37.524,14.71,42.246,31.605,14.433,6.957,9.176
671,1.027,37.648,14.71,42.245,31.602,14.353,6.878,9.177
672,1.01,37.793,14.757,42.255,31.608,14.474,7.0,9.259
673,1.001,37.833,14.73,42.217,31.595,14.15,6.797,9.178
674,1.01,37.383,14.698,42.303,31.605,14.187,6.795,9.259
675,1.02,37.532,14.679,42.208,31.591,14.065,6.795,9.178
676,1.007,37.677,14.729,42.255,31.598,14.227,6.917,9.38
677,1.004,37.726,14.749,42.246,31.602,14.066,6.796,9.423
678,1.004,37.42,14.726,42.265,31.605,14.146,6.917,9.424
679,0.997,37.551,14.695,42.226,31.595,13.984,6.715,9.302
680,0.984,37.677,14.663,42.226,31.595,13.942,6.794,9.26
681,0.981,37.726,14.686,42.236,31.588,13.941,6.714,9.219
682,0.977,37.42,14.725,42.236,31.601,13.982,6.754,9.3
683,0.964,37.58,14.734,42.217,31.602,13.982,6.714,9.341
684,0.964,37.687,14.734,42.255,31.602,14.104,6.876,9.423
685,0.951,37.736,14.609,42.246,31.598,14.105,6.674,9.22
686,0.941,37.535,14.697,42.236,31.602,14.146,6.753,9.259
687,0.945,37.696,14.714,42.245,31.602,14.187,6.754,9.341
688,0.935,37.803,14.73,42.236,31.608,14.228,6.754,9.342
689,0.925,37.411,14.773,42.226,31.609,14.188,6.795,9.219
690,0.909,37.215,14.707,42.217,31.595,14.188,6.836,9.381
691,0.905,37.377,14.702,42.207,31.601,14.065,6.755,9.139
692,0.879,37.445,14.624,42.226,31.602,14.105,6.754,9.217
693,0.882,37.379,14.686,42.226,31.598,14.065,6.795,9.218
694,0.866,37.484,14.729,42.217,31.605,14.024,6.755,9.259
695,0.862,37.638,14.757,42.274,31.609,14.023,6.754,9.178
696,0.84,37.668,14.617,42.217,31.595,13.942,6.754,9.218
697,0.83,37.084,14.682,42.216,31.598,13.941,6.714,9.137
698,0.804,37.203,14.694,42.188,31.591,13.86,6.713,9.095
699,0.816,37.376,14.737,42.235,31.605,14.062,6.835,9.176
700,0.826,37.426,14.773,42.217,31.588,13.983,6.755,9.096
701,0.826,37.561,14.773,42.284,31.608,14.185,6.917,9.217
702,0.817,37.668,14.715,42.207,31.595,14.106,6.715,9.096
703,0.82,37.813,14.663,42.226,31.601,14.268,6.713,9.014
704,0.807,37.843,14.678,42.197,31.591,14.351,6.632,9.013
705,0.807,36.913,14.753,42.226,31.608,14.555,6.794,9.054
706,0.803,37.047,14.691,42.217,31.602,14.638,6.795,8.973
707,0.794,37.202,14.624,42.255,31.615,14.843,6.877,9.094
708,0.777,37.213,14.682,42.217,31.595,14.682,6.715,8.811
709,0.764,37.281,14.714,42.216,31.595,14.762,6.754,8.93
710,0.751,37.406,14.702,42.197,31.588,14.6,6.673,8.728
711,0.741,37.541,14.733,42.226,31.601,14.72,6.753,9.051
712,0.731,37.562,14.734,42.236,31.595,14.64,6.754,9.013
713,0.715,37.035,14.624,42.255,31.615,14.802,6.917,9.135
714,0.702,37.173,14.701,42.207,31.598,14.6,6.674,9.095
715,0.695,37.261,14.733,42.216,31.605,14.558,6.713,9.095
716,0.692,37.128,14.769,42.207,31.602,14.516,6.713,9.095
717,0.695,37.107,14.679,42.245,31.602,14.516,6.794,9.258
718,0.685,37.251,14.632,42.236,31.602,14.394,6.755,9.178
719,0.685,37.367,14.67,42.332,31.608,14.474,6.957,9.259
720,0.679,36.831,14.674,42.208,31.591,14.19,6.634,9.178
721,0.685,36.941,14.686,42.216,31.601,14.188,6.753,9.177
722,0.685,37.067,14.757,42.216,31.595,14.228,6.632,9.177
723,0.688,37.174,14.718,42.236,31.605,14.432,6.753,9.218
724,0.692,36.849,14.687,42.217,31.605,14.434,6.714,9.259
725,0.698,36.961,14.729,42.236,31.602,14.556,6.754,9.381
726,0.698,37.086,14.734,42.188,31.602,14.516,6.632,9.139
727,0.695,37.193,14.741,42.207,31.605,14.597,6.712,9.177
728,0.701,36.82,14.671,42.197,31.598,14.517,6.632,9.096
729,0.695,36.989,14.639,42.235,31.605,14.475,6.712,9.298
730,0.679,37.096,14.627,42.226,31.602,14.434,6.713,9.26
731,0.672,37.174,14.678,42.226,31.612,14.434,6.713,9.341
732,0.669,36.772,14.678,42.197,31.602,14.271,6.632,9.179
733,0.672,36.921,14.756,42.216,31.602,14.188,6.753,9.259
734,0.662,37.038,14.703,42.226,31.598,14.106,6.632,9.178
735,0.656,37.116,14.686,42.217,31.602,14.187,6.794,9.259
736,0.649,37.5,14.725,42.207,31.608,14.147,6.714,9.219
737,0.649,37.638,14.722,42.226,31.605,14.187,6.794,9.422
738,0.646,37.726,14.757,42.226,31.595,14.025,6.714,9.261
739,0.659,37.746,14.722,42.217,31.601,13.983,6.713,9.341
740,0.662,36.385,14.694,42.216,31.602,13.942,6.713,9.26
741,0.672,36.515,14.62,42.226,31.605,13.982,6.754,9.381
742,0.662,36.641,14.701,42.207,31.609,13.982,6.754,9.342
743,0.672,36.671,14.733,42.207,31.602,14.023,6.754,9.423
744,0.669,36.719,14.718,42.216,31.598,14.064,6.673,9.261
745,0.672,36.854,14.632,42.226,31.602,14.064,6.794,9.341
746,0.669,36.97,14.655,42.217,31.602,14.186,6.755,9.26
747,0.665,36.559,14.706,42.207,31.608,14.147,6.836,9.341
748,0.662,36.632,14.745,42.207,31.602,14.106,6.837,9.301
749,0.652,36.757,14.749,42.207,31.608,14.105,6.796,9.382
750,0.642,36.854,14.738,42.197,31.598,14.024,6.714,9.342
751,0.629,36.404,14.663,42.197,31.605,14.023,6.754,9.342
752,0.642,36.572,14.694,42.235,31.605,14.064,6.795,9.423
753,0.639,36.708,14.679,42.226,31.605,14.064,6.755,9.464
754,0.646,36.825,14.749,42.236,31.595,14.105,6.754,9.465
755,0.636,36.404,14.687,42.188,31.591,13.983,6.754,9.424
756,0.633,36.582,14.671,42.264,31.584,14.023,6.714,9.464
757,0.629,36.68,14.674,42.179,31.584,13.942,6.632,9.383
758,0.626,36.786,14.71,42.216,31.601,14.022,6.794,9.545
759,0.636,36.385,14.772,42.226,31.595,13.983,6.714,9.547
760,0.649,36.572,14.781,42.245,31.605,14.185,6.876,9.628
761,0.636,36.632,14.765,42.188,31.591,14.025,6.633,9.385
762,0.649,36.69,14.707,42.187,31.595,14.105,6.672,9.423
763,0.659,36.278,14.659,42.187,31.588,14.227,6.55,9.383
764,0.662,36.418,14.733,42.216,31.601,14.554,6.712,9.505
765,0.649,36.534,14.699,42.207,31.608,14.679,6.713,9.425
766,0.662,36.574,14.671,42.235,31.609,14.843,6.713,9.505
767,0.662,36.315,14.647,42.207,31.595,14.804,6.591,9.384
768,0.656,36.485,14.69,42.197,31.605,14.763,6.671,9.342
769,0.649,36.602,14.737,42.197,31.595,14.844,6.591,9.301
770,0.649,36.373,14.749,42.187,31.598,14.804,6.712,9.423
771,0.652,36.294,14.722,42.216,31.602,14.763,6.632,9.383
772,0.649,36.428,14.773,42.197,31.608,14.722,6.631,9.423
773,0.646,36.534,14.675,42.207,31.598,14.599,6.59,9.22
774,0.639,36.123,14.674,42.197,31.602,14.558,6.59,9.3
775,0.646,36.234,14.741,42.197,31.602,14.598,6.59,9.301
776,0.642,36.369,14.726,42.197,31.602,14.598,6.671,9.382
777,0.633,36.476,14.659,42.207,31.602,14.476,6.591,9.342
778,0.619,36.19,14.561,42.216,31.602,14.394,6.671,9.342
779,0.629,36.35,14.666,42.207,31.598,14.23,6.55,9.301
780,0.619,36.476,14.706,42.207,31.595,14.228,6.59,9.26
781,0.629,36.573,14.706,42.216,31.601,14.269,6.549,9.178
782,0.639,36.104,14.741,42.188,31.605,14.31,6.59,9.299
783,0.649,36.243,14.66,42.207,31.602,14.351,6.549,9.178
784,0.642,36.37,14.678,42.188,31.598,14.311,6.508,9.177
785,0.655,36.438,14.702,42.187,31.591,14.433,6.467,9.137
786,0.646,35.978,14.718,42.168,31.601,14.515,6.548,9.136
787,0.649,36.156,14.733,42.206,31.608,14.557,6.59,9.177
788,0.646,36.292,14.671,42.197,31.605,14.557,6.549,9.177
789,0.662,36.37,14.635,42.216,31.609,14.516,6.508,9.015
790,0.643,36.16,14.631,42.188,31.598,14.435,6.467,9.013
791,0.665,36.292,14.635,42.197,31.598,14.434,6.426,9.054
792,0.659,36.399,14.686,42.149,31.595,14.393,6.426,8.932
793,0.685,36.448,14.741,42.197,31.605,14.515,6.548,9.012
794,0.721,35.959,14.663,42.187,31.605,14.516,6.549,9.013
795,0.76,36.137,14.69,42.207,31.612,14.516,6.63,9.094
796,0.757,36.206,14.721,42.188,31.598,14.272,6.387,8.892
797,0.783,36.139,14.745,42.178,31.595,14.31,6.547,8.971
798,0.793,36.129,14.757,42.159,31.588,14.067,6.427,8.809
799,0.823,36.292,14.703,42.187,31.601,14.105,6.548,8.97
800,0.856,36.389,14.671,42.187,31.602,14.187,6.508,8.931
801,0.879,36.055,14.647,42.226,31.612,14.391,6.67,9.012
802,0.924,36.147,14.659,42.169,31.605,14.271,6.469,8.81
803,0.954,36.273,14.709,42.178,31.598,14.351,6.507,8.848
804,0.993,36.36,14.71,42.168,31.595,14.311,6.305,8.808
805,1.02,35.958,14.667,42.197,31.601,14.555,6.547,8.97
806,1.046,36.089,14.647,42.187,31.598,14.598,6.549,8.809
807,1.079,36.243,14.717,42.216,31.619,14.679,6.63,9.011
808,1.099,36.283,14.718,42.168,31.602,14.558,6.468,8.81
809,1.132,35.986,14.757,42.168,31.602,14.557,6.467,8.848
810,1.174,36.146,14.746,42.187,31.598,14.435,6.467,8.767
811,1.201,36.254,14.706,42.178,31.605,14.515,6.629,8.97
812,1.23,36.331,14.577,42.187,31.605,14.435,6.55,8.891
813,1.263,35.901,14.67,42.197,31.615,14.515,6.671,8.971
814,1.241,36.03,14.753,42.168,31.595,14.272,6.469,8.85
815,1.218,36.156,14.706,42.178,31.601,14.351,6.507,8.93
816,1.175,36.225,14.636,42.187,31.591,14.271,6.467,8.85
817,1.142,36.063,14.682,42.207,31.612,14.27,6.629,8.971
818,1.112,36.186,14.686,42.188,31.602,14.188,6.509,8.972
819,1.102,36.311,14.721,42.207,31.615,14.269,6.67,9.013
820,1.067,36.322,14.734,42.168,31.598,14.066,6.469,8.81
821,1.053,36.016,14.757,42.178,31.598,14.227,6.507,8.889
822,1.017,36.137,14.738,42.178,31.588,14.228,6.467,8.809
823,0.945,36.273,14.702,42.187,31.598,14.391,6.548,8.97
824,0.85,36.073,14.683,42.178,31.602,14.515,6.549,8.972
825,0.778,36.003,14.753,42.178,31.608,14.679,6.59,9.053
826,0.745,36.127,14.706,42.159,31.595,14.64,6.509,8.932
827,0.682,36.244,14.647,42.168,31.601,14.761,6.549,8.931
828,0.581,35.89,14.666,42.187,31.605,14.803,6.508,8.972
829,0.417,35.992,14.686,42.187,31.605,14.885,6.67,9.013
830,0.247,36.137,14.69,42.178,31.605,14.845,6.672,9.013
831,0.128,36.234,14.702,42.178,31.609,14.885,6.713,9.094
832,0.022,35.938,14.741,42.149,31.595,14.804,6.551,9.014
833,-0.057,36.069,14.683,42.177,31.601,14.803,6.712,9.094
834,-0.116,36.234,14.632,42.178,31.595,14.844,6.632,9.054
835,-0.195,36.322,14.709,42.168,31.608,14.845,6.712,9.054
836,-0.251,36.418,14.737,42.158,31.602,14.804,6.794,9.176
837,-0.294,36.563,14.706,42.178,31.602,14.722,6.795,9.259
838,-0.307,36.67,14.612,42.168,31.602,14.599,6.633,9.137
839,-0.271,36.757,14.623,42.158,31.602,14.517,6.712,9.177
840,-0.232,35.694,14.541,42.187,31.605,14.557,6.632,9.177
841,-0.173,35.827,14.669,42.168,31.605,14.516,6.753,9.218
842,-0.081,35.943,14.737,42.168,31.595,14.516,6.795,9.218
843,-0.019,35.983,14.734,42.158,31.595,14.557,6.714,9.178
844,0.08,35.945,14.636,42.168,31.598,14.557,6.672,9.137
845,0.194,36.069,14.655,42.158,31.595,14.598,6.672,9.136
846,0.296,36.243,14.741,42.168,31.605,14.679,6.713,9.136
847,0.395,36.235,14.718,42.149,31.598,14.721,6.754,9.177
848,0.481,36.005,14.722,42.187,31.608,14.722,6.754,9.015
849,0.52,36.089,14.667,42.168,31.598,14.681,6.714,9.013
850,0.57,36.205,14.624,42.168,31.602,14.64,6.754,9.054
851,0.609,35.947,14.662,42.13,31.588,14.558,6.714,8.973
852,0.662,35.916,14.702,42.168,31.601,14.638,6.794,9.013
853,0.691,36.059,14.733,42.158,31.605,14.558,6.877,9.054
854,0.731,36.186,14.702,42.206,31.609,14.679,6.959,9.135
855,0.738,35.87,14.671,42.216,31.598,14.436,6.756,8.852
856,0.731,35.992,14.694,42.178,31.598,14.393,6.917,8.971
857,0.741,36.099,14.686,42.13,31.588,14.271,6.796,8.85
858,0.754,36.215,14.733,42.158,31.598,14.392,6.958,9.011
859,0.757,35.861,14.726,42.168,31.598,14.352,6.878,8.972
860,0.757,36.03,14.698,42.197,31.622,14.311,7.0,9.053
861,0.754,36.137,14.655,42.149,31.605,14.148,6.838,8.851
862,0.754,36.225,14.663,42.168,31.602,14.269,6.918,8.93
863,0.761,35.784,14.67,42.158,31.598,14.31,6.796,8.85
864,0.754,35.953,14.729,42.178,31.605,14.514,6.958,9.011
865,0.754,36.069,14.687,42.168,31.605,14.638,6.878,9.013
866,0.764,36.176,14.663,42.197,31.615,14.802,7.0,9.094
867,0.767,35.87,14.674,42.149,31.602,14.763,6.838,8.77
868,0.767,36.021,14.706,42.177,31.605,14.763,6.877,8.889
869,0.761,36.147,14.737,42.149,31.598,14.763,6.796,8.768
870,0.761,36.215,14.722,42.187,31.602,14.763,6.877,8.929
871,0.751,35.794,14.734,42.178,31.598,14.681,6.837,8.89
872,0.748,35.953,14.628,42.187,31.608,14.802,6.918,9.093
873,0.738,36.06,14.639,42.139,31.598,14.56,6.715,8.811
874,0.747,36.07,14.713,42.139,31.605,14.557,6.794,8.93
875,0.741,35.879,14.722,42.158,31.602,14.476,6.755,8.931
876,0.738,36.04,14.644,42.178,31.602,14.516,6.836,9.012
877,0.741,36.176,14.666,42.168,31.598,14.394,6.837,8.972
878,0.728,35.928,14.686,42.149,31.598,14.312,6.877,8.972
879,0.744,35.877,14.694,42.149,31.598,14.229,6.715,8.85
880,0.744,36.011,14.761,42.158,31.605,14.269,6.835,8.93
881,0.754,36.147,14.742,42.178,31.602,14.31,6.796,8.972
882,0.774,35.832,14.718,42.149,31.598,14.351,6.836,9.013
883,0.78,35.972,14.714,42.168,31.608,14.514,6.837,8.972
884,0.767,36.089,14.69,42.139,31.602,14.557,6.837,8.891
885,0.764,36.157,14.725,42.158,31.605,14.557,6.755,8.849
886,0.78,35.813,14.687,42.12,31.595,14.516,6.754,8.808
887,0.787,35.991,14.643,42.158,31.608,14.679,6.795,8.848
888,0.787,36.108,14.655,42.254,31.602,14.599,6.795,8.849
889,0.787,36.244,14.709,42.178,31.608,14.639,6.795,8.93
890,0.771,35.785,14.659,42.139,31.598,14.517,6.673,8.768
891,0.774,35.953,14.702,42.149,31.595,14.475,6.753,8.767
892,0.758,36.05,14.694,42.12,31.591,14.312,6.673,8.645
893,0.767,36.138,14.663,42.168,31.598,14.433,6.794,8.806
894,0.757,35.956,14.659,42.139,31.605,14.353,6.673,8.686
895,0.764,36.137,14.702,42.187,31.609,14.433,6.875,8.847
896,0.748,36.206,14.741,42.12,31.595,14.19,6.633,8.727
897,0.754,36.283,14.734,42.168,31.601,14.31,6.712,8.685
898,0.757,35.785,14.671,42.139,31.588,14.067,6.632,8.684
899,0.77,35.972,14.624,42.149,31.608,14.186,6.753,8.807
900,0.77,36.06,14.67,42.149,31.598,14.025,6.714,8.848
901,0.774,36.118,14.663,42.187,31.608,14.145,6.794,8.93
902,0.774,35.994,14.694,42.159,31.602,14.024,6.551,8.768
903,0.777,36.118,14.722,42.149,31.598,14.226,6.712,8.767
904,0.787,36.244,14.663,42.158,31.591,14.269,6.551,8.726
905,0.79,35.957,14.659,42.178,31.605,14.392,6.671,8.848
906,0.8,35.858,14.706,42.139,31.609,14.474,6.672,8.849
907,0.81,36.001,14.749,42.177,31.612,14.597,6.794,8.93
908,0.8,36.079,14.718,42.149,31.598,14.558,6.551,8.768
909,0.803,36.234,14.71,42.149,31.605,14.557,6.63,8.848
910,0.79,36.35,14.636,42.139,31.595,14.516,6.59,8.727
911,0.797,36.495,14.616,42.187,31.608,14.638,6.631,8.888
912,0.784,36.593,14.627,42.159,31.602,14.639,6.631,8.849
913,0.784,35.625,14.729,42.187,31.615,14.721,6.834,8.971
914,0.777,35.74,14.706,42.149,31.595,14.559,6.511,8.809
915,0.767,35.885,14.64,42.158,31.601,14.557,6.549,8.889
916,0.767,35.973,14.659,42.149,31.591,14.435,6.549,8.809
917,0.774,35.983,14.702,42.149,31.598,14.597,6.63,8.93
918,0.784,36.127,14.737,42.158,31.605,14.476,6.631,8.89
919,0.797,36.263,14.757,42.187,31.609,14.516,6.712,9.012
920,0.803,36.312,14.722,42.139,31.595,14.394,6.591,8.85
921,0.797,35.804,14.671,42.139,31.605,14.312,6.509,8.93
922,0.816,35.991,14.655,42.158,31.602,14.311,6.467,8.809
923,0.82,36.099,14.666,42.178,31.605,14.392,6.629,8.97
924,0.826,36.138,14.737,42.149,31.598,14.515,6.631,8.972
925,0.826,35.86,14.679,42.168,31.605,14.557,6.712,8.972
926,0.833,36.001,14.675,42.13,31.591,14.476,6.51,8.85
927,0.843,36.147,14.674,42.158,31.595,14.516,6.549,8.93
928,0.839,36.158,14.714,42.149,31.595,14.394,6.508,8.85
929,0.833,35.88,14.737,42.158,31.601,14.393,6.63,8.889
930,0.826,36.011,14.734,42.139,31.605,14.352,6.55,8.93
931,0.82,36.128,14.741,42.168,31.609,14.352,6.671,8.931
932,0.813,36.052,14.66,42.12,31.602,14.067,6.591,8.85
933,0.813,36.07,14.659,42.158,31.598,14.024,6.671,8.889
934,0.816,36.224,14.694,42.149,31.602,14.064,6.591,8.768
935,0.816,36.321,14.729,42.158,31.602,14.024,6.712,8.807
936,0.807,35.785,14.64,42.168,31.602,14.023,6.713,8.848
937,0.8,35.895,14.655,42.149,31.605,13.983,6.713,8.889
938,0.803,36.04,14.67,42.139,31.598,13.779,6.632,8.687
939,0.823,36.128,14.682,42.139,31.602,13.736,6.672,8.725
940,0.843,35.927,14.718,42.149,31.605,13.695,6.713,8.726
941,0.836,36.069,14.749,42.149,31.605,13.776,6.713,8.766
942,0.833,36.176,14.714,42.149,31.602,13.818,6.713,8.807
943,0.839,36.273,14.683,42.168,31.608,13.859,6.754,8.889
944,0.856,35.814,14.678,42.13,31.595,13.94,6.673,8.687
945,0.849,35.943,14.749,42.139,31.601,13.982,6.713,8.766
946,0.869,36.098,14.703,42.129,31.608,13.982,6.713,8.767
947,0.872,36.167,14.62,42.148,31.616,13.982,6.713,8.645
948,0.872,35.976,14.674,42.139,31.598,13.982,6.632,8.765
949,0.866,36.118,14.671,42.129,31.598,13.901,6.712,8.685
950,0.869,36.234,14.674,42.148,31.595,13.941,6.632,8.766
951,0.859,36.293,14.702,42.129,31.595,13.9,6.712,8.807
952,0.859,35.862,14.729,42.129,31.598,13.819,6.754,8.808
953,0.859,36.011,14.64,42.139,31.598,13.737,6.714,8.889
954,0.866,36.147,14.694,42.139,31.598,13.817,6.713,8.89
955,0.869,36.138,14.683,42.12,31.588,13.574,6.672,8.849
956,0.856,35.889,14.718,42.12,31.588,13.571,6.631,8.93
957,0.846,36.03,14.687,42.12,31.591,13.449,6.631,8.931
958,0.866,36.166,14.663,42.148,31.595,13.53,6.712,9.012
959,0.872,36.024,14.596,42.149,31.601,13.368,6.713,9.054
960,0.889,36.032,14.67,42.168,31.608,13.366,6.713,8.973
961,0.872,36.109,14.674,42.12,31.595,13.244,6.672,9.013
962,0.889,36.224,14.682,42.12,31.595,13.365,6.631,8.972
963,0.876,35.813,14.718,42.091,31.591,13.407,6.672,9.013
964,0.902,35.972,14.62,42.158,31.601,13.61,6.713,9.013
965,0.912,36.127,14.654,42.12,31.608,13.694,6.713,9.013
966,0.925,36.244,14.713,42.158,31.612,13.857,6.713,9.013
967,0.909,35.919,14.745,42.11,31.605,13.778,6.632,9.013
968,0.925,36.05,14.73,42.12,31.605,13.858,6.712,8.932
969,0.915,36.147,14.644,42.091,31.588,13.9,6.632,8.972
970,0.925,36.282,14.662,42.119,31.608,13.981,6.712,9.013
971,0.931,35.737,14.592,42.12,31.609,14.063,6.672,9.054
972,0.935,35.914,14.674,42.168,31.619,14.268,6.794,9.054
973,0.918,36.002,14.686,42.091,31.602,14.148,6.755,8.932
974,0.922,36.06,14.698,42.1,31.598,14.228,6.714,9.012
975,0.902,36.003,14.542,42.11,31.588,14.188,6.713,8.85
976,0.915,36.166,14.693,42.139,31.601,14.35,6.794,9.052
977,0.922,36.283,14.722,42.129,31.598,14.352,6.755,8.973
978,0.931,36.351,14.73,42.139,31.612,14.514,6.917,9.094
979,0.931,35.824,14.769,42.091,31.595,14.272,6.756,8.892
980,0.928,35.953,14.73,42.119,31.595,14.31,6.795,8.93
981,0.935,36.089,14.663,42.11,31.598,14.189,6.714,8.809
982,0.958,36.119,14.67,42.215,31.612,14.432,6.835,8.97
983,0.968,36.503,14.682,42.121,31.602,14.515,6.877,8.972
984,0.977,36.641,14.682,42.129,31.605,14.557,6.877,9.013
985,0.977,36.738,14.682,42.11,31.602,14.516,6.715,8.85
986,0.994,35.962,14.655,42.158,31.608,14.597,6.754,8.808
987,1.013,35.648,14.666,42.12,31.609,14.558,6.836,8.808
988,1.007,35.807,14.686,42.11,31.605,14.516,6.837,8.889
989,0.997,35.934,14.745,42.11,31.602,14.435,6.877,8.849
990,0.994,35.916,14.749,42.11,31.608,14.434,6.959,8.93
991,0.991,36.05,14.73,42.11,31.595,14.231,6.716,8.809
992,0.987,36.185,14.706,42.12,31.605,14.188,6.754,8.767
993,1.0,36.292,14.659,42.12,31.602,14.228,6.836,8.848
994,0.991,35.747,14.69,42.11,31.602,14.147,6.877,8.849
995,1.0,35.885,14.721,42.091,31.602,14.106,6.837,8.808
996,1.0,36.011,14.671,42.119,31.602,14.024,6.837,8.848
997,1.004,36.099,14.632,42.12,31.598,13.983,6.796,8.727
998,0.994,35.965,14.647,42.11,31.598,13.982,6.836,8.766
999,1.023,36.137,14.686,42.11,31.615,13.901,6.796,8.726
1000,1.033,36.244,14.694,42.11,31.602,13.9,6.877,8.726
1001,1.056,36.35,14.729,42.12,31.608,13.941,6.837,8.685
1002,1.06,35.767,14.718,42.091,31.602,13.9,6.796,8.684
1003,1.056,35.914,14.706,42.11,31.602,13.941,6.714,8.684
1004,1.076,36.05,14.651,42.12,31.602,14.063,6.794,8.603
1005,1.086,36.118,14.729,42.12,31.608,14.186,6.714,8.684
1006,1.105,35.86,14.734,42.091,31.609,14.106,6.794,8.603
1007,1.109,36.04,14.644,42.129,31.602,14.187,6.795,8.602
1008,1.099,36.137,14.588,42.11,31.605,14.188,6.714,8.602
1009,1.102,36.177,14.662,42.11,31.598,14.106,6.713,8.602
1010,1.106,35.889,14.667,42.12,31.602,14.065,6.672,8.602
1011,1.106,36.05,14.694,42.11,31.605,14.064,6.672,8.562
1012,1.102,36.157,14.694,42.11,31.602,14.064,6.713,8.643
1013,1.106,35.966,14.683,42.11,31.608,13.942,6.713,8.684
1014,1.109,35.945,14.663,42.091,31.602,13.941,6.794,8.807
1015,1.115,36.088,14.702,42.081,31.602,13.819,6.673,8.726
1016,1.115,36.195,14.737,42.081,31.595,13.859,6.713,8.848
1017,1.135,35.746,14.722,42.11,31.598,13.656,6.713,8.849
1018,1.142,35.866,14.667,42.11,31.598,13.572,6.794,8.889
1019,1.155,36.001,14.612,42.11,31.605,13.571,6.795,8.849
1020,1.165,36.099,14.611,42.1,31.609,13.571,6.795,8.889
1021,1.171,35.793,14.647,42.1,31.598,13.409,6.755,8.809
1022,1.175,35.924,14.694,42.1,31.602,13.61,6.754,8.848
1023,1.188,36.088,14.714,42.1,31.598,13.735,6.754,8.889
1024,1.204,36.167,14.659,42.1,31.605,13.736,6.714,8.93
1025,1.211,35.861,14.655,42.11,31.602,13.695,6.754,8.931
1026,1.217,35.992,14.69,42.081,31.595,13.735,6.714,8.768
1027,1.23,36.099,14.706,42.09,31.598,13.776,6.672,8.889
1028,1.214,36.167,14.726,42.091,31.595,13.736,6.713,8.849
1029,1.237,35.947,14.683,42.11,31.605,13.817,6.672,8.971
1030,1.231,36.098,14.616,42.11,31.602,13.655,6.713,8.891
1031,1.247,36.243,14.604,42.129,31.612,13.613,6.754,8.849
1032,1.221,36.255,14.639,42.081,31.595,13.531,6.632,8.849
1033,1.234,35.833,14.721,42.081,31.601,13.653,6.712,8.93
1034,1.234,35.943,14.675,42.071,31.588,13.613,6.591,8.85
1035,1.243,36.127,14.702,42.186,31.608,13.735,6.712,8.889
1036,1.24,36.138,14.644,42.111,31.609,13.817,6.672,8.93
1037,1.26,36.081,14.741,42.139,31.616,13.818,6.713,8.972
1038,1.254,36.195,14.718,42.081,31.595,13.737,6.632,8.809
1039,1.273,36.302,14.726,42.09,31.598,13.817,6.631,8.808
1040,1.273,35.977,14.702,42.062,31.595,13.655,6.428,8.767
1041,1.293,35.935,14.636,42.109,31.608,13.857,6.629,8.929
1042,1.283,36.079,14.662,42.1,31.602,13.981,6.631,8.972
1043,1.296,36.205,14.67,42.129,31.615,14.267,6.672,9.053
1044,1.296,35.918,14.725,42.062,31.598,14.148,6.509,8.891
1045,1.312,36.05,14.652,42.09,31.602,14.35,6.467,9.012
1046,1.319,36.176,14.67,42.081,31.595,14.393,6.426,8.932
1047,1.326,36.292,14.671,42.11,31.601,14.556,6.629,9.175
1048,1.332,35.9,14.737,42.081,31.605,14.557,6.631,9.096
1049,1.319,36.05,14.734,42.119,31.612,14.638,6.672,9.258
1050,1.319,36.157,14.726,42.081,31.595,14.436,6.509,9.137
1051,1.319,36.244,14.722,42.071,31.591,14.434,6.589,9.177
1052,1.319,36.111,14.616,42.09,31.591,14.393,6.59,9.177
1053,1.322,36.282,14.643,42.11,31.605,14.515,6.671,9.299
1054,1.319,36.399,14.686,42.081,31.598,14.516,6.672,9.301
1055,1.322,36.457,14.733,42.1,31.602,14.516,6.713,9.301
1056,1.313,36.036,14.636,42.091,31.591,14.475,6.713,9.219
1057,1.313,36.166,14.647,42.129,31.598,14.434,6.672,9.178
1058,1.316,36.321,14.647,42.081,31.595,14.475,6.631,9.218
1059,1.322,36.351,14.694,42.09,31.595,14.434,6.753,9.178
1060,1.329,36.371,14.702,42.091,31.598,14.353,6.754,9.177
1061,1.332,36.496,14.733,42.091,31.591,14.433,6.795,9.218
1062,1.332,36.602,14.695,42.071,31.601,14.515,6.673,9.137
1063,1.319,36.622,14.593,42.11,31.605,14.557,6.753,9.136
1064,1.329,36.373,14.65,42.1,31.609,14.76,6.714,9.055
1065,1.329,36.534,14.702,42.091,31.609,14.844,6.713,9.095
1066,1.342,36.641,14.722,42.091,31.605,14.926,6.754,9.014
1067,1.313,36.517,14.624,42.081,31.598,14.967,6.714,8.972
1068,1.306,36.554,14.6,42.071,31.608,14.968,6.713,9.013
1069,1.29,36.68,14.654,42.11,31.598,14.927,6.672,8.972
1070,1.293,36.796,14.713,42.11,31.605,15.008,6.794,9.053
1071,1.267,36.615,14.675,42.1,31.605,15.009,6.714,9.054
1072,1.267,36.766,14.764,42.129,31.615,15.05,6.754,9.013
1073,1.244,36.864,14.695,42.062,31.598,14.969,6.673,8.932
1074,1.231,36.951,14.671,42.09,31.602,15.049,6.713,8.85
1075,1.217,36.77,14.651,42.052,31.591,14.969,6.591,8.849
1076,1.195,36.95,14.729,42.109,31.608,15.13,6.793,9.011
1077,1.181,37.057,14.73,42.081,31.609,15.01,6.755,8.932
1078,1.181,37.174,14.683,42.119,31.616,15.131,6.836,9.093
1079,1.168,36.983,14.612,42.091,31.591,14.929,6.714,8.892
1080,1.155,37.125,14.592,42.071,31.598,14.886,6.713,8.93
1081,1.142,37.241,14.646,42.052,31.595,14.723,6.591,8.809
1082,1.142,37.3,14.705,42.09,31.601,14.884,6.793,8.93
1083,1.125,37.31,14.718,42.071,31.605,14.845,6.714,8.931
1084,1.125,37.493,14.683,42.138,31.619,15.048,6.835,9.093
1085,1.109,37.552,14.643,42.072,31.602,14.806,6.714,8.811
1086,1.112,37.591,14.678,42.071,31.608,14.844,6.672,8.808
1087,1.099,37.352,14.686,42.062,31.595,14.723,6.55,8.726
1088,1.093,37.512,14.733,42.09,31.608,14.803,6.712,8.848
1089,1.066,37.629,14.702,42.081,31.605,14.844,6.672,8.808
1090,1.063,37.63,14.675,42.09,31.609,14.804,6.794,8.93
1091,1.04,37.601,14.616,42.081,31.595,14.478,6.592,8.687
1092,1.024,37.793,14.639,42.081,31.605,14.475,6.631,8.766
1093,1.014,37.881,14.701,42.071,31.602,14.353,6.55,8.685
1094,1.001,37.834,14.718,42.09,31.602,14.433,6.63,8.766
1095,0.991,37.853,14.632,42.091,31.608,14.393,6.672,8.767
1096,0.965,38.006,14.655,42.091,31.612,14.393,6.753,8.929
1097,0.951,38.084,14.663,42.062,31.595,14.19,6.551,8.728
1098,0.954,37.913,14.682,42.071,31.605,14.188,6.59,8.766
1099,0.951,38.026,14.737,42.081,31.605,14.188,6.631,8.685
1100,0.945,38.152,14.734,42.09,31.609,14.228,6.672,8.766
1101,0.945,38.249,14.687,42.081,31.602,14.269,6.631,8.767
1102,0.938,38.01,14.616,42.11,31.612,14.392,6.753,8.889
1103,0.932,38.113,14.623,42.072,31.598,14.352,6.592,8.727
1104,0.931,38.249,14.701,42.071,31.602,14.555,6.631,8.685
1105,0.922,38.307,14.722,42.09,31.605,14.598,6.55,8.725
1106,0.915,38.222,14.605,42.091,31.602,14.679,6.63,8.766
1107,0.909,38.374,14.654,42.081,31.605,14.762,6.631,8.848
1108,0.905,38.5,14.674,42.09,31.612,14.885,6.712,8.889
1109,0.882,38.55,14.717,42.071,31.598,14.764,6.632,8.809
1110,0.885,38.493,14.718,42.071,31.605,14.803,6.55,8.808
1111,0.879,38.655,14.749,42.081,31.602,14.803,6.549,8.767
1112,0.866,38.772,14.687,42.081,31.608,14.803,6.63,8.848
1113,0.866,38.802,14.651,42.11,31.605,14.763,6.631,8.93
1114,0.856,38.39,14.655,42.072,31.609,14.844,6.631,9.012
1115,0.843,38.52,14.713,42.042,31.602,14.763,6.509,8.891
1116,0.843,38.627,14.722,42.081,31.602,14.722,6.63,8.93
1117,0.83,38.666,14.659,42.071,31.598,14.722,6.55,8.931
1118,0.83,38.57,14.592,42.1,31.608,14.722,6.63,8.972
1119,0.82,38.685,14.654,42.072,31.605,14.681,6.672,8.931
1120,0.826,38.782,14.674,42.081,31.605,14.68,6.631,9.053
1121,0.82,38.668,14.694,42.052,31.595,14.68,6.55,8.891
1122,0.83,38.676,14.671,42.071,31.601,14.68,6.671,8.93
1123,0.836,38.83,14.659,42.071,31.608,14.843,6.672,9.012
1124,0.826,38.937,14.655,42.09,31.609,14.885,6.672,9.054
1125,0.843,38.631,14.686,42.081,31.605,14.886,6.672,9.095
1126,0.839,38.724,14.682,42.052,31.609,14.967,6.672,9.014
1127,0.83,38.859,14.698,42.061,31.605,14.846,6.591,8.972
1128,0.82,38.927,14.64,42.052,31.605,14.845,6.59,8.931
1129,0.83,38.707,14.608,42.071,31.609,14.845,6.631,9.012
1130,0.81,38.83,14.607,42.09,31.605,14.845,6.672,9.094
1131,0.807,38.984,14.65,42.081,31.612,14.763,6.631,9.054
1132,0.787,39.015,14.682,42.062,31.602,14.6,6.55,8.973
1133,0.787,38.747,14.702,42.052,31.605,14.558,6.59,9.013
1134,0.777,38.84,14.593,42.042,31.591,14.395,6.468,8.932
1135,0.78,39.013,14.635,42.081,31.615,14.434,6.629,9.093
1136,0.777,39.073,14.705,42.09,31.602,14.271,6.631,9.054
1137,0.787,38.824,14.733,42.091,31.608,14.351,6.753,9.257
1138,0.78,38.927,14.706,42.043,31.598,14.067,6.47,9.056
1139,0.784,39.043,14.659,42.052,31.605,13.983,6.629,9.013
1140,0.78,39.044,14.627,42.033,31.598,13.86,6.468,9.013
1141,0.777,38.91,14.608,42.109,31.608,13.94,6.629,9.135
1142,0.78,39.043,14.658,42.062,31.605,13.941,6.55,9.217
1143,0.793,39.169,14.741,42.109,31.612,14.144,6.752,9.34
1144,0.78,39.141,14.679,42.052,31.602,14.024,6.51,9.138
1145,0.787,38.825,14.655,42.061,31.598,14.023,6.508,9.217
1146,0.79,38.936,14.659,42.033,31.595,14.064,6.508,9.096
1147,0.79,39.062,14.702,42.08,31.608,14.227,6.589,9.258
1148,0.787,38.872,14.733,42.062,31.605,14.147,6.631,9.259
1149,0.79,38.851,14.702,42.081,31.615,14.269,6.631,9.381
1150,0.774,38.965,14.698,42.052,31.602,14.066,6.509,9.179
1151,0.771,39.072,14.632,42.071,31.608,14.024,6.549,9.218
1152,0.761,38.766,14.643,42.052,31.609,14.023,6.468,9.137
1153,0.767,38.859,14.686,42.081,31.602,14.145,6.548,9.339
1154,0.764,38.994,14.721,42.052,31.598,14.187,6.59,9.301
1155,0.761,39.092,14.663,42.061,31.608,14.269,6.631,9.341
1156,0.744,38.738,14.655,42.052,31.598,14.107,6.55,9.26
1157,0.757,38.888,14.663,42.061,31.598,14.065,6.549,9.219
1158,0.754,39.004,14.702,42.062,31.605,14.064,6.508,9.178
1159,0.761,39.092,14.737,42.062,31.605,14.064,6.63,9.299
1160,0.767,39.208,14.738,42.052,31.609,14.024,6.631,9.341
1161,0.761,39.353,14.734,42.071,31.609,14.064,6.631,9.342
1162,0.767,39.46,14.632,42.042,31.602,14.146,6.55,9.219
1163,0.774,39.499,14.635,42.061,31.602,14.269,6.63,9.259
1164,0.774,38.675,14.713,42.062,31.602,14.432,6.59,9.178
1165,0.777,38.801,14.726,42.071,31.608,14.556,6.59,9.34
1166,0.784,38.936,14.624,42.071,31.605,14.598,6.671,9.179
1167,0.784,38.957,14.651,42.052,31.605,14.679,6.631,9.177
1168,0.797,38.583,14.639,42.033,31.595,14.64,6.55,9.096
1169,0.774,38.723,14.694,42.071,31.601,14.721,6.59,9.136
1170,0.784,38.859,14.702,42.062,31.608,14.844,6.631,9.217
1171,0.78,38.86,14.745,42.052,31.605,14.723,6.672,9.259
1172,0.78,38.63,14.714,42.081,31.609,14.722,6.713,9.259
1173,0.758,38.752,14.679,42.033,31.588,14.722,6.632,9.259
1174,0.757,38.84,14.651,42.052,31.601,14.722,6.712,9.178
1175,0.754,38.467,14.725,42.014,31.595,14.64,6.632,9.299
1176,0.761,38.434,14.695,42.08,31.605,14.68,6.712,9.301
1177,0.754,38.549,14.632,42.052,31.605,14.599,6.672,9.341
1178,0.757,38.684,14.647,42.119,31.615,14.679,6.835,9.382
1179,0.761,38.408,14.655,42.053,31.591,14.396,6.592,9.22
1180,0.774,38.501,14.655,42.042,31.598,14.352,6.671,9.3
1181,0.764,38.626,14.643,42.033,31.588,14.23,6.55,9.219
1182,0.78,38.733,14.709,42.061,31.601,14.473,6.793,9.259
1183,0.771,38.245,14.636,42.052,31.602,14.556,6.714,9.3
1184,0.78,38.384,14.662,42.081,31.612,14.76,6.835,9.382
1185,0.787,38.51,14.655,42.043,31.595,14.559,6.633,9.179
1186,0.8,38.579,14.717,42.042,31.608,14.638,6.712,9.177
1187,0.803,38.042,14.706,42.042,31.602,14.599,6.632,9.096
1188,0.794,38.19,14.651,42.052,31.608,14.761,6.712,9.258
1189,0.78,38.326,14.577,42.052,31.598,14.763,6.632,9.219
1190,0.774,38.394,14.58,42.071,31.608,14.763,6.794,9.34
1191,0.777,38.165,14.635,42.052,31.602,14.6,6.592,9.26
1192,0.777,38.326,14.682,42.042,31.602,14.598,6.671,9.259
1193,0.774,38.433,14.698,42.042,31.598,14.517,6.631,9.137
1194,0.767,38.472,14.647,42.052,31.605,14.516,6.712,9.299
1195,0.774,37.907,14.655,42.052,31.602,14.475,6.632,9.26
1196,0.771,38.055,14.67,42.061,31.608,14.353,6.712,9.341
1197,0.77,38.162,14.721,42.042,31.598,14.149,6.632,9.138
1198,0.767,38.201,14.71,42.042,31.608,14.106,6.631,9.177
1199,0.777,37.923,14.702,42.061,31.602,14.024,6.672,9.055
1200,0.784,38.055,14.667,42.062,31.602,13.983,6.591,9.054
1201,0.784,38.162,14.585,42.052,31.602,13.901,6.631,9.135
1202,0.79,37.846,14.627,42.042,31.605,13.941,6.672,9.095
1203,0.78,37.786,14.658,42.042,31.598,13.86,6.55,8.932
1204,0.787,37.919,14.717,42.052,31.598,13.981,6.63,9.012
1205,0.8,38.036,14.612,42.071,31.605,14.063,6.631,8.972
1206,0.803,37.519,14.647,42.052,31.609,14.146,6.631,8.972
1207,0.81,37.619,14.682,42.061,31.609,14.024,6.59,8.931
1208,0.81,37.735,14.718,42.042,31.605,14.186,6.631,8.931
1209,0.807,37.823,14.733,42.033,31.612,14.188,6.672,8.89
1210,0.794,37.287,14.687,42.032,31.605,14.147,6.672,8.849
1211,0.793,37.444,14.659,42.052,31.602,14.187,6.713,8.93
1212,0.777,37.58,14.643,42.148,31.605,14.147,6.713,8.931
1213,0.784,37.658,14.662,42.053,31.598,14.106,6.713,8.931
1214,0.767,37.189,14.694,42.014,31.605,14.024,6.794,8.931
1215,0.78,37.347,14.663,42.032,31.602,13.983,6.714,8.931
1216,0.771,37.455,14.522,42.061,31.598,13.942,6.794,8.972
1217,0.783,37.571,14.661,42.052,31.598,13.941,6.836,9.053
1218,0.767,37.255,14.686,42.033,31.608,13.86,6.837,8.932
1219,0.78,37.406,14.718,42.071,31.616,13.9,6.877,9.012
1220,0.777,37.465,14.714,42.014,31.598,13.615,6.837,8.932
1221,0.774,37.523,14.694,42.032,31.602,13.653,6.877,8.972
1222,0.764,36.91,14.643,42.023,31.595,13.654,6.755,8.891
1223,0.793,37.105,14.678,42.042,31.608,13.857,6.917,9.012
1224,0.793,37.232,14.682,42.042,31.609,13.94,6.959,8.972
1225,0.793,37.252,14.718,42.061,31.616,14.144,7.041,9.135
1226,0.797,36.993,14.624,42.014,31.591,14.024,6.839,8.811
1227,0.8,37.154,14.635,42.08,31.601,14.145,6.837,8.93
1228,0.79,37.27,14.612,42.014,31.598,14.024,6.755,8.768
1229,0.793,36.917,14.686,42.051,31.605,14.105,6.998,8.929
1230,0.793,36.817,14.686,42.052,31.602,14.105,6.919,8.931
1231,0.793,36.97,14.718,42.061,31.615,14.146,7.041,9.053
1232,0.774,37.058,14.718,42.023,31.605,13.943,6.798,8.81
1233,0.787,36.675,14.667,42.08,31.602,13.941,6.917,8.889
1234,0.777,36.786,14.655,42.033,31.602,13.941,6.796,8.727
1235,0.774,36.912,14.706,42.023,31.608,14.022,6.877,8.848
1236,0.767,37.0,14.726,42.032,31.605,13.983,6.837,8.93
1237,0.77,36.492,14.632,42.032,31.602,14.104,6.958,8.972
1238,0.767,36.612,14.619,42.023,31.602,13.902,6.756,8.728
1239,0.774,36.766,14.67,42.032,31.595,13.941,6.795,8.726
1240,0.784,36.864,14.671,42.032,31.601,13.941,6.795,8.685
1241,0.78,36.395,14.713,42.032,31.605,14.022,6.877,8.766
1242,0.787,36.524,14.722,42.032,31.605,14.105,6.796,8.726
1243,0.793,36.67,14.687,42.042,31.609,14.227,6.877,8.848
1244,0.79,36.738,14.632,42.033,31.595,14.269,6.755,8.686
1245,0.793,36.346,14.639,42.013,31.608,14.392,6.795,8.684
1246,0.813,36.514,14.717,42.023,31.609,14.474,6.755,8.644
1247,0.803,36.612,14.706,42.032,31.609,14.516,6.836,8.644
1248,0.797,36.651,14.628,42.032,31.609,14.557,6.796,8.644
1249,0.781,36.096,14.576,42.032,31.609,14.476,6.795,8.725
1250,0.784,36.263,14.592,42.032,31.605,14.353,6.714,8.685
1251,0.787,36.37,14.642,42.032,31.602,14.474,6.794,8.766
1252,0.793,36.409,14.655,42.032,31.612,14.434,6.836,8.767
1253,0.79,36.285,14.694,42.032,31.609,14.434,6.837,8.889
1254,0.79,36.437,14.647,42.023,31.602,14.312,6.796,8.89
1255,0.797,36.544,14.631,42.032,31.598,14.229,6.795,8.849
1256,0.777,36.094,14.686,42.004,31.591,14.147,6.795,8.93
1257,0.774,36.023,14.71,42.032,31.595,14.106,6.836,8.931
1258,0.774,36.176,14.729,42.042,31.608,14.024,6.796,8.972
1259,0.784,36.273,14.691,42.033,31.609,13.942,6.836,8.931
1260,0.784,36.293,14.647,42.032,31.602,13.982,6.837,9.012
1261,0.774,36.399,14.6,42.013,31.595,13.901,6.837,8.972
1262,0.787,36.553,14.623,42.032,31.601,13.941,6.796,9.013
1263,0.787,36.632,14.674,42.013,31.602,14.063,6.755,9.054
1264,0.8,35.664,14.674,42.042,31.608,14.227,6.836,9.054
1265,0.79,35.817,14.596,42.033,31.602,14.31,6.837,9.095
1266,0.826,35.982,14.631,42.071,31.615,14.392,6.918,9.217
1267,0.807,36.022,14.67,42.004,31.605,14.312,6.715,8.974
1268,0.803,35.811,14.71,42.023,31.598,14.433,6.754,9.053
1269,0.784,35.943,14.722,41.994,31.591,14.312,6.673,8.973
1270,0.79,36.108,14.694,42.042,31.608,14.473,6.835,9.175
1271,0.784,36.176,14.655,42.042,31.609,14.394,6.796,9.137
1272,0.774,35.611,14.643,42.061,31.612,14.515,6.877,9.258
1273,0.758,35.74,14.623,42.014,31.598,14.353,6.755,9.097
1274,0.774,35.885,14.717,42.023,31.598,14.352,6.795,9.217
1275,0.774,35.915,14.694,42.004,31.591,14.271,6.633,9.096
1276,0.761,35.733,14.628,42.042,31.605,14.473,6.794,9.298
1277,0.761,35.885,14.651,42.013,31.605,14.353,6.755,9.301
1278,0.764,36.002,14.67,42.023,31.609,14.311,6.795,9.382
1279,0.764,35.993,14.702,42.004,31.595,14.189,6.673,9.261
1280,0.774,35.533,14.733,42.032,31.601,14.147,6.631,9.3
1281,0.774,35.682,14.726,42.032,31.605,14.187,6.712,9.301
1282,0.777,35.798,14.679,42.032,31.602,14.228,6.713,9.341
1283,0.787,35.694,14.624,42.032,31.602,14.351,6.713,9.382
1284,0.774,35.712,14.662,42.023,31.602,14.433,6.632,9.301
1285,0.777,35.856,14.71,42.013,31.595,14.515,6.59,9.26
1286,0.787,35.934,14.675,42.032,31.605,14.597,6.631,9.341
1287,0.78,35.408,14.604,42.042,31.609,14.679,6.631,9.301
1288,0.777,35.527,14.643,42.042,31.605,14.762,6.631,9.341
1289,0.78,35.672,14.678,42.042,31.602,14.803,6.631,9.382
1290,0.771,35.76,14.671,42.033,31.602,14.803,6.55,9.342
1291,0.767,35.435,14.69,42.032,31.602,14.722,6.549,9.301
1292,0.748,35.546,14.702,41.994,31.598,14.762,6.549,9.219
1293,0.764,35.72,14.647,42.042,31.608,14.844,6.63,9.259
1294,0.764,35.789,14.655,42.033,31.605,14.885,6.59,9.341
1295,0.77,35.55,14.686,42.061,31.609,14.967,6.671,9.301
1296,0.751,35.643,14.71,42.014,31.595,14.765,6.469,9.219
1297,0.757,35.779,14.671,42.032,31.595,14.722,6.548,9.178
1298,0.748,35.818,14.624,42.004,31.595,14.64,6.468,9.137
1299,0.767,35.358,14.569,42.051,31.605,14.761,6.589,9.258
1300,0.761,35.498,14.56,42.042,31.605,14.722,6.509,9.137
1301,0.77,35.672,14.669,42.061,31.615,14.844,6.67,9.299
1302,0.761,35.673,14.686,42.023,31.595,14.763,6.469,9.056
1303,0.757,35.405,14.69,42.032,31.598,14.885,6.507,9.095
1304,0.764,35.527,14.593,42.004,31.588,14.926,6.427,8.932
1305,0.774,35.71,14.658,42.042,31.605,15.252,6.507,9.093
1306,0.774,35.683,14.694,42.033,31.605,15.296,6.63,9.054
1307,0.79,35.463,14.725,42.061,31.609,15.337,6.631,9.013
1308,0.777,35.604,14.691,42.014,31.598,15.297,6.468,8.932
1309,0.787,35.73,14.655,42.023,31.605,15.297,6.507,8.931
1310,0.761,35.549,14.62,42.013,31.595,15.256,6.427,8.85
1311,0.754,35.567,14.569,42.032,31.608,15.215,6.629,8.93
1312,0.751,35.701,14.642,42.023,31.605,15.174,6.55,8.931
1313,0.754,35.827,14.717,42.032,31.615,15.254,6.63,9.093
1314,0.751,35.617,14.671,42.032,31.591,15.011,6.509,8.892
1315,0.731,35.759,14.612,42.052,31.595,14.968,6.508,8.971
1316,0.741,35.924,14.639,42.023,31.601,14.968,6.467,9.013
1317,0.747,36.012,14.674,42.042,31.602,14.968,6.629,9.135
1318,0.754,35.437,14.69,42.033,31.605,14.805,6.509,9.136
1319,0.751,35.575,14.741,42.032,31.609,14.844,6.63,9.258
1320,0.751,35.711,14.687,42.013,31.591,14.682,6.55,9.097
1321,0.757,35.789,14.651,42.032,31.598,14.68,6.549,9.136
1322,0.761,35.655,14.627,42.032,31.598,14.721,6.508,9.095
1323,0.764,35.807,14.658,42.032,31.605,14.884,6.589,9.258
1324,0.767,35.934,14.694,42.032,31.602,14.845,6.509,9.259
1325,0.77,35.993,14.667,42.042,31.608,14.926,6.63,9.341
1326,0.774,35.725,14.631,42.023,31.602,14.886,6.509,9.179
1327,0.761,35.856,14.639,42.013,31.602,14.804,6.589,9.177
1328,0.77,35.992,14.694,42.042,31.605,14.885,6.549,9.177
1329,0.757,36.041,14.714,42.033,31.605,14.804,6.63,9.259
1330,0.764,35.792,14.71,42.042,31.602,14.844,6.509,9.259
1331,0.761,35.924,14.648,42.033,31.605,14.723,6.63,9.3
1332,0.748,36.05,14.62,42.032,31.602,14.722,6.59,9.178
1333,0.747,36.08,14.627,42.042,31.602,14.722,6.59,9.218
1334,0.741,35.956,14.701,42.033,31.602,14.681,6.631,9.137
1335,0.738,36.079,14.702,42.023,31.608,14.802,6.631,9.258
1336,0.725,36.195,14.62,42.032,31.602,14.641,6.55,9.259
1337,0.734,35.976,14.639,42.032,31.605,14.558,6.671,9.219
1338,0.731,35.964,14.647,42.013,31.598,14.435,6.591,9.096
1339,0.728,36.098,14.682,42.032,31.605,14.393,6.631,9.095
1340,0.751,36.215,14.69,42.032,31.602,14.474,6.631,9.095
1341,0.738,36.014,14.71,42.023,31.605,14.516,6.672,9.136
1342,0.76,36.156,14.687,42.032,31.598,14.557,6.631,9.095
1343,0.738,36.254,14.636,42.032,31.598,14.679,6.59,9.054
1344,0.741,36.351,14.623,42.042,31.602,14.762,6.631,9.054
1345,0.728,36.064,14.701,42.004,31.595,14.844,6.631,9.013
1346,0.76,36.262,14.667,42.051,31.605,15.007,6.631,9.054
1347,0.751,36.389,14.624,42.023,31.602,15.05,6.631,9.013
1348,0.767,36.496,14.674,42.147,31.615,15.131,6.672,9.054
1349,0.741,36.152,14.635,42.014,31.602,14.888,6.509,8.932
1350,0.741,36.301,14.643,42.023,31.605,14.926,6.589,8.972
1351,0.731,36.408,14.639,42.004,31.591,14.724,6.549,8.931
1352,0.738,36.505,14.709,42.042,31.605,14.844,6.63,9.012
1353,0.725,36.286,14.644,42.052,31.605,14.763,6.59,8.972
1354,0.737,36.475,14.67,42.081,31.612,14.885,6.712,9.094
1355,0.734,36.544,14.655,42.014,31.598,14.52,6.551,8.892
1356,0.721,36.593,14.713,42.023,31.605,14.516,6.63,8.89
1357,0.708,36.44,14.694,42.004,31.588,14.353,6.509,8.768
1358,0.718,36.621,14.667,42.042,31.605,14.393,6.67,8.97
1359,0.724,36.728,14.596,42.052,31.605,14.312,6.591,8.891
1360,0.741,36.739,14.529,42.081,31.609,14.311,6.671,9.012
1361,0.731,36.538,14.657,42.014,31.602,14.229,6.509,8.81
1362,0.738,36.708,14.67,42.023,31.598,14.269,6.63,8.848
1363,0.738,36.806,14.682,42.013,31.595,14.392,6.468,8.808
1364,0.741,36.692,14.597,42.042,31.608,14.556,6.548,8.93
1365,0.734,36.69,14.631,42.033,31.602,14.557,6.549,8.89
1366,0.754,36.844,14.678,42.042,31.608,14.76,6.59,8.93
1367,0.744,36.932,14.682,42.013,31.605,14.64,6.509,8.768
1368,0.754,36.587,14.702,42.013,31.598,14.639,6.508,8.807
1369,0.748,36.68,14.644,42.032,31.602,14.558,6.467,8.808
1370,0.738,36.834,14.623,42.042,31.605,14.598,6.507,8.889
1371,0.738,36.932,14.569,42.052,31.605,14.558,6.467,8.809
1372,0.728,36.722,14.63,42.014,31.602,14.516,6.507,8.848
1373,0.725,36.844,14.658,42.023,31.595,14.435,6.467,8.727
1374,0.724,36.98,14.678,42.023,31.605,14.515,6.507,8.766
1375,0.731,37.106,14.632,42.052,31.605,14.516,6.549,8.848
1376,0.718,36.944,14.635,42.042,31.605,14.394,6.63,8.93
1377,0.715,37.086,14.686,42.033,31.602,14.393,6.468,8.931
1378,0.724,37.203,14.702,42.032,31.605,14.352,6.589,8.89
1379,0.731,37.252,14.722,42.032,31.602,14.271,6.468,8.768
1380,0.734,36.888,14.663,42.013,31.602,14.229,6.589,8.807
1381,0.731,37.047,14.686,42.042,31.605,14.269,6.549,8.848
1382,0.741,37.174,14.612,42.071,31.605,14.27,6.508,8.808
1383,0.741,37.232,14.643,42.052,31.598,14.27,6.549,8.767
1384,0.734,37.041,14.701,42.023,31.595,14.432,6.508,8.807
1385,0.747,37.183,14.655,42.032,31.601,14.434,6.467,8.686
1386,0.741,37.271,14.585,42.023,31.595,14.434,6.467,8.684
1387,0.754,37.339,14.623,42.052,31.608,14.637,6.589,8.725
1388,0.757,37.081,14.658,42.042,31.605,14.599,6.549,8.766
1389,0.757,37.26,14.674,42.071,31.615,14.72,6.671,8.767
1390,0.725,37.319,14.725,42.004,31.602,14.477,6.469,8.685
1391,0.731,37.205,14.726,42.032,31.598,14.475,6.467,8.725
1392,0.718,37.185,14.691,42.013,31.595,14.312,6.345,8.603
1393,0.728,37.367,14.671,42.051,31.601,14.433,6.547,8.684
1394,0.721,37.464,14.671,42.023,31.595,14.271,6.508,8.725
1395,0.731,37.235,14.737,42.061,31.619,14.351,6.589,8.807
1396,0.705,37.329,14.663,42.033,31.595,13.986,6.346,8.645
1397,0.721,37.464,14.6,42.052,31.601,14.023,6.506,8.603
1398,0.705,37.552,14.607,42.023,31.595,13.861,6.467,8.602
1399,0.731,37.179,14.635,42.042,31.612,13.94,6.548,8.684
1400,0.725,37.271,14.643,42.052,31.605,13.86,6.508,8.725
1401,0.734,37.435,14.701,42.061,31.615,13.981,6.711,8.766
1402,0.721,37.455,14.706,42.023,31.602,13.86,6.429,8.604
1403,0.734,37.302,14.628,42.032,31.605,14.022,6.466,8.643
1404,0.741,37.425,14.639,42.013,31.595,14.023,6.386,8.481
1405,0.747,37.561,14.659,42.042,31.605,14.226,6.507,8.682
1406,0.757,37.639,14.717,42.033,31.605,14.228,6.549,8.603
1407,0.761,37.151,14.671,42.052,31.612,14.391,6.63,8.724
1408,0.748,37.29,14.589,42.023,31.602,14.23,6.387,8.563
1409,0.747,37.406,14.596,42.032,31.602,14.269,6.425,8.602
1410,0.738,37.465,14.623,42.09,31.598,14.229,6.426,8.562
1411,0.734,37.36,14.635,42.033,31.612,14.351,6.548,8.764
1412,0.738,37.483,14.647,42.032,31.598,14.23,6.508,8.685
1413,0.751,37.619,14.717,42.052,31.615,14.351,6.589,8.847
1414,0.741,37.611,14.609,42.033,31.602,14.108,6.346,8.727
1415,0.754,37.428,14.643,42.032,31.612,14.105,6.425,8.766
1416,0.728,37.561,14.682,42.032,31.591,14.024,6.385,8.726
1417,0.721,37.687,14.702,42.061,31.601,14.023,6.507,8.848
1418,0.724,37.4,14.694,42.052,31.605,13.942,6.508,8.889
1419,0.731,37.359,14.636,42.052,31.609,13.941,6.63,8.971
1420,0.728,37.483,14.592,42.014,31.598,13.738,6.468,8.728
1421,0.728,37.59,14.467,42.032,31.602,13.776,6.548,8.848
1422,0.744,37.217,14.626,42.032,31.598,13.858,6.386,8.727
1423,0.747,37.348,14.674,42.032,31.608,13.94,6.547,8.888
1424,0.741,37.464,14.655,42.023,31.602,14.022,6.468,8.93
1425,0.747,37.571,14.647,42.042,31.612,14.145,6.548,8.89
1426,0.757,37.188,14.627,42.033,31.602,14.065,6.468,8.768
1427,0.754,37.328,14.69,42.023,31.608,14.146,6.507,8.767
1428,0.754,37.454,14.702,42.013,31.605,14.106,6.549,8.848
1429,0.748,37.542,14.702,42.051,31.612,14.187,6.508,8.849
1430,0.741,37.236,14.651,42.042,31.598,14.106,6.508,8.808
1431,0.744,37.358,14.627,42.033,31.608,14.187,6.508,8.889
1432,0.725,37.503,14.604,42.023,31.595,14.025,6.386,8.809
1433,0.734,37.562,14.631,42.042,31.595,13.983,6.507,8.808
1434,0.731,37.303,14.694,42.033,31.601,14.023,6.467,8.848
1435,0.731,37.425,14.64,42.032,31.608,13.942,6.548,8.849
1436,0.734,37.57,14.647,42.042,31.598,13.86,6.508,8.971
1437,0.728,37.591,14.627,42.042,31.608,13.778,6.549,8.931
1438,0.728,37.246,14.69,42.013,31.602,13.696,6.427,8.89
1439,0.725,37.367,14.749,42.023,31.598,13.695,6.507,8.93
1440,0.741,37.503,14.722,42.052,31.602,13.613,6.508,8.972
1441,0.741,37.523,14.694,42.033,31.605,13.694,6.589,8.972
1442,0.757,37.284,14.616,42.071,31.609,13.817,6.549,9.135
1443,0.738,37.368,14.643,42.014,31.602,13.94,6.386,8.974
1444,0.744,37.484,14.662,42.032,31.595,14.104,6.466,9.053
1445,0.738,37.245,14.655,41.994,31.591,14.227,6.426,8.973
1446,0.76,37.271,14.616,42.042,31.608,14.432,6.507,9.053
1447,0.757,37.406,14.623,42.033,31.609,14.434,6.549,9.013
1448,0.774,37.522,14.686,42.052,31.616,14.637,6.63,9.176
1449,0.751,37.159,14.663,42.004,31.602,14.517,6.428,8.933
1450,0.744,37.29,14.698,42.023,31.605,14.516,6.426,9.093
1451,0.744,37.416,14.718,42.013,31.598,14.475,6.344,8.892
1452,0.738,37.494,14.702,42.042,31.608,14.516,6.506,9.134
1453,0.744,37.053,14.651,42.033,31.609,14.435,6.467,9.014
1454,0.734,37.202,14.67,42.061,31.622,14.637,6.629,9.257
1455,0.731,37.319,14.694,42.033,31.602,14.436,6.387,9.015
1456,0.725,37.387,14.655,42.032,31.602,14.393,6.425,9.094
1457,0.721,37.1,14.592,42.013,31.595,14.312,6.263,9.014
1458,0.721,37.26,14.607,42.08,31.605,14.311,6.505,9.176
1459,0.718,37.367,14.631,42.033,31.605,14.229,6.467,9.096
1460,0.731,37.426,14.682,42.061,31.612,14.351,6.589,9.176
1461,0.731,37.043,14.69,42.014,31.602,14.149,6.346,9.015
1462,0.734,37.173,14.702,42.032,31.602,14.228,6.425,9.013
1463,0.731,37.299,14.644,42.032,31.595,14.269,6.344,8.85
1464,0.738,37.368,14.662,42.052,31.605,14.473,6.547,9.133
1465,0.731,37.129,14.678,42.023,31.605,14.434,6.508,9.055
1466,0.747,37.28,14.721,42.032,31.609,14.637,6.467,9.135
1467,0.747,37.377,14.663,42.013,31.598,14.558,6.426,8.892
1468,0.741,37.397,14.581,42.023,31.602,14.679,6.426,8.93
1469,0.738,37.043,14.595,42.032,31.598,14.68,6.385,8.972
1470,0.738,37.173,14.592,42.042,31.595,14.721,6.507,9.013
1471,0.734,37.28,14.65,42.042,31.605,14.681,6.508,8.932
1472,0.725,37.013,14.647,42.042,31.609,14.68,6.549,9.012
1473,0.731,36.962,14.713,42.013,31.602,14.68,6.468,8.891
1474,0.725,37.125,14.616,42.023,31.602,14.68,6.507,8.89
1475,0.728,37.251,14.639,42.032,31.602,14.64,6.467,8.89
1476,0.721,36.84,14.67,42.042,31.605,14.558,6.507,8.971
1477,0.715,36.96,14.725,42.033,31.602,14.557,6.549,8.972
1478,0.702,37.058,14.683,42.004,31.598,14.354,6.427,8.972
1479,0.711,37.145,14.647,42.023,31.602,14.352,6.426,8.85
1480,0.708,36.762,14.608,42.032,31.598,14.271,6.466,8.808
1481,0.721,36.95,14.584,42.052,31.605,14.351,6.507,8.848
1482,0.734,37.077,14.627,42.033,31.605,14.352,6.549,8.808
1483,0.744,37.183,14.682,42.061,31.609,14.555,6.59,8.808
1484,0.731,36.734,14.686,42.014,31.602,14.516,6.509,8.726
1485,0.741,36.873,14.608,42.023,31.598,14.679,6.467,8.685
1486,0.741,36.99,14.627,41.994,31.595,14.64,6.345,8.603
1487,0.741,37.087,14.666,42.051,31.598,14.802,6.466,8.765
1488,0.731,36.714,14.694,42.033,31.598,14.763,6.507,8.645
1489,0.741,36.873,14.714,42.061,31.619,14.885,6.63,8.847
1490,0.731,36.97,14.683,42.023,31.588,14.682,6.387,8.686
1491,0.731,37.038,14.643,42.032,31.608,14.68,6.507,8.684
1492,0.715,36.665,14.565,42.013,31.595,14.558,6.345,8.603
1493,0.721,36.844,14.65,42.051,31.605,14.598,6.547,8.806
1494,0.711,36.941,14.674,42.042,31.609,14.558,6.508,8.686
1495,0.715,36.99,14.686,42.052,31.612,14.598,6.63,8.847
1496,0.705,36.636,14.593,42.023,31.602,14.354,6.387,8.727
1497,0.711,36.767,14.631,42.032,31.602,14.311,6.425,8.766
1498,0.708,36.893,14.643,42.023,31.605,14.108,6.466,8.685
1499,0.721,36.606,14.686,42.052,31.612,14.187,6.589,8.807
1500,0.721,36.584,14.667,42.042,31.609,14.147,6.468,8.767
1501,0.721,36.728,14.713,42.061,31.619,14.187,6.67,8.889
1502,0.711,36.796,14.655,42.023,31.595,14.106,6.388,8.727
1503,0.724,36.452,14.639,42.032,31.601,14.146,6.466,8.848
1504,0.728,36.583,14.651,42.013,31.598,14.228,6.386,8.686
1505,0.741,36.728,14.686,42.032,31.608,14.351,6.588,8.847
1506,0.738,36.825,14.675,42.042,31.609,14.433,6.509,8.849
1507,0.744,36.51,14.561,42.071,31.612,14.556,6.67,8.93
1508,0.728,36.593,14.658,42.023,31.609,14.395,6.428,8.768
1509,0.712,36.757,14.647,42.023,31.609,14.434,6.466,8.767
1510,0.711,36.825,14.647,42.004,31.598,14.19,6.386,8.767
1511,0.715,36.385,14.682,42.042,31.605,14.513,6.547,8.929
1512,0.705,36.534,14.706,42.033,31.609,14.353,6.549,8.89
1513,0.715,36.66,14.597,42.071,31.619,14.474,6.671,9.093
1514,0.702,36.709,14.588,42.023,31.609,14.272,6.469,8.973
1515,0.698,36.451,14.678,42.032,31.612,14.31,6.589,9.013
1516,0.685,36.573,14.671,42.013,31.598,14.189,6.387,9.013
1517,0.705,36.747,14.643,42.051,31.608,14.269,6.629,9.257
1518,0.715,36.787,14.584,42.042,31.605,14.229,6.631,9.219
1519,0.721,36.27,14.642,42.09,31.619,14.228,6.712,9.34
1520,0.708,36.37,14.616,42.023,31.595,14.066,6.51,9.179
1521,0.718,36.515,14.666,42.052,31.601,14.064,6.508,9.177
1522,0.715,36.497,14.667,42.004,31.595,14.064,6.467,9.177
1523,0.721,36.276,14.659,42.032,31.605,14.268,6.589,9.34
1524,0.711,36.427,14.651,42.052,31.609,14.27,6.549,9.342
1525,0.721,36.554,14.655,42.081,31.619,14.473,6.752,9.545
1526,0.721,36.229,14.694,42.004,31.602,14.312,6.551,9.262
1527,0.724,36.245,14.702,42.032,31.605,14.351,6.508,9.381
1528,0.721,36.36,14.667,42.004,31.595,14.311,6.467,9.301
1529,0.711,36.486,14.581,42.032,31.608,14.27,6.589,9.504
1530,0.711,36.161,14.545,42.023,31.609,14.27,6.468,9.465
1531,0.711,36.302,14.65,42.071,31.609,14.27,6.67,9.587
1532,0.702,36.399,14.67,42.023,31.598,14.066,6.509,9.344
1533,0.708,36.515,14.694,42.032,31.605,14.146,6.549,9.464
1534,0.708,36.037,14.585,42.032,31.602,14.024,6.549,9.424
1535,0.708,36.185,14.638,42.032,31.608,14.023,6.63,9.546
1536,0.702,36.321,14.647,42.042,31.609,13.901,6.55,9.628
1537,0.708,36.39,14.702,42.042,31.605,13.981,6.671,9.67
1538,0.698,36.141,14.698,42.013,31.602,13.779,6.509,9.507
1539,0.701,36.292,14.651,42.032,31.598,13.777,6.549,9.546
1540,0.701,36.418,14.659,42.032,31.598,13.736,6.508,9.547
1541,0.705,36.486,14.608,42.042,31.612,13.858,6.589,9.628
1542,0.718,35.94,14.619,42.033,31.602,13.859,6.631,9.629
1543,0.724,36.098,14.635,42.042,31.605,13.981,6.55,9.71
1544,0.724,36.196,14.698,42.033,31.598,14.023,6.468,9.548
1545,0.754,36.244,14.589,42.032,31.608,14.186,6.507,9.588
1546,0.777,36.072,14.607,42.052,31.609,14.228,6.508,9.466
1547,0.784,36.205,14.662,42.023,31.605,14.269,6.589,9.505
1548,0.797,36.302,14.67,42.023,31.605,14.351,6.468,9.465
1549,0.797,36.322,14.737,42.023,31.609,14.311,6.548,9.546
1550,0.82,36.064,14.679,42.032,31.602,14.27,6.427,9.425
1551,0.846,36.205,14.675,42.032,31.605,14.392,6.548,9.464
1552,0.859,36.34,14.55,42.042,31.609,14.312,6.63,9.465
1553,0.872,36.006,14.65,42.052,31.609,14.27,6.631,9.505
1554,0.889,35.984,14.69,42.023,31.609,14.229,6.55,9.506
1555,0.918,36.098,14.663,42.013,31.609,14.31,6.549,9.465
1556,0.931,36.224,14.581,42.042,31.595,14.148,6.508,9.465
1557,0.951,35.995,14.611,42.033,31.598,14.187,6.549,9.546
1558,0.974,36.137,14.639,42.042,31.608,14.147,6.63,9.588
1559,0.997,36.292,14.67,42.033,31.605,14.106,6.59,9.547
1560,1.026,36.399,14.725,42.042,31.605,13.983,6.549,9.466
1561,1.027,35.882,14.644,42.033,31.602,13.901,6.508,9.465
1562,1.037,36.049,14.674,42.023,31.598,14.022,6.467,9.424
1563,1.037,36.166,14.62,42.013,31.602,14.105,6.548,9.464
1564,1.063,36.292,14.662,42.032,31.612,14.309,6.671,9.546
1565,1.056,35.91,14.678,42.032,31.609,14.351,6.591,9.506
1566,1.053,36.098,14.667,42.061,31.616,14.596,6.59,9.465
1567,1.037,36.176,14.585,42.023,31.602,14.476,6.59,9.424
1568,1.033,36.283,14.615,42.032,31.608,14.556,6.59,9.424
1569,1.024,35.938,14.639,41.985,31.595,14.476,6.427,9.261
1570,1.036,36.117,14.659,42.042,31.615,14.638,6.588,9.422
1571,1.02,36.244,14.67,42.033,31.609,14.721,6.59,9.342
1572,1.023,36.322,14.694,42.061,31.619,14.762,6.753,9.423
1573,1.017,35.891,14.62,42.023,31.602,14.518,6.551,9.22
1574,1.007,36.04,14.623,42.013,31.602,14.597,6.63,9.259
1575,0.984,36.147,14.658,42.004,31.595,14.476,6.55,9.3
1576,0.991,36.196,14.721,42.032,31.608,14.516,6.752,9.423
1577,0.984,35.947,14.659,42.042,31.605,14.475,6.754,9.424
1578,0.984,36.108,14.596,42.061,31.619,14.556,6.876,9.505
1579,0.955,36.196,14.568,42.033,31.598,14.273,6.674,9.343
1580,0.954,35.918,14.619,42.071,31.598,14.27,6.753,9.301
1581,0.945,35.916,14.631,41.995,31.598,14.107,6.632,9.219
1582,0.948,36.069,14.662,42.032,31.605,14.349,6.712,9.462
1583,0.958,36.166,14.694,42.032,31.609,14.311,6.794,9.343
1584,0.948,35.909,14.577,42.061,31.612,14.514,6.877,9.504
1585,0.932,36.011,14.631,42.033,31.598,14.353,6.715,9.303
1586,0.931,36.137,14.658,42.013,31.602,14.433,6.713,9.26
1587,0.922,36.234,14.694,42.013,31.598,14.393,6.754,9.259
1588,0.915,35.765,14.679,42.032,31.608,14.515,6.876,9.259
1589,0.905,35.904,14.628,42.032,31.609,14.475,6.796,9.3
1590,0.905,36.05,14.588,42.042,31.616,14.516,6.877,9.423
1591,0.879,36.118,14.541,42.033,31.605,14.313,6.796,9.139
1592,0.879,35.927,14.626,42.013,31.609,14.27,6.755,9.177
1593,0.856,36.079,14.647,42.023,31.602,14.229,6.714,9.096
1594,0.843,36.186,14.678,42.042,31.608,14.269,6.876,9.217
1595,0.846,36.283,14.577,42.061,31.602,14.229,6.837,9.096
1596,0.836,35.862,14.642,42.062,31.615,14.269,6.958,9.298
1597,0.826,35.973,14.662,42.014,31.602,14.107,6.756,9.178
1598,0.83,36.137,14.694,42.032,31.598,14.105,6.795,9.055
1599,0.823,36.167,14.702,42.013,31.598,14.065,6.795,8.973
1600,0.826,35.822,14.686,42.042,31.591,14.064,6.795,9.094
1601,0.813,35.972,14.69,42.033,31.605,14.064,6.836,9.014
1602,0.82,36.098,14.64,42.167,31.612,14.268,6.958,9.216
1603,0.787,36.128,14.651,42.024,31.595,14.148,6.797,8.974
1604,0.793,35.879,14.67,42.042,31.605,14.228,6.755,9.053
1605,0.774,36.011,14.639,42.033,31.602,14.228,6.714,8.932
1606,0.784,36.166,14.6,42.042,31.608,14.31,6.916,9.012
1607,0.774,35.899,14.623,42.033,31.602,14.351,6.837,8.932
1608,0.777,35.935,14.682,42.032,31.605,14.514,6.958,9.053
1609,0.754,36.031,14.718,42.013,31.605,14.313,6.756,8.891
1610,0.748,36.137,14.741,42.023,31.605,14.351,6.836,8.93
1611,0.741,35.899,14.702,42.013,31.588,14.271,6.714,8.768
1612,0.721,36.04,14.651,42.042,31.601,14.351,6.835,8.929
1613,0.721,36.195,14.604,42.033,31.602,14.311,6.837,8.972
1614,0.718,36.273,14.666,42.052,31.615,14.433,6.999,8.931
1615,0.711,36.092,14.678,42.014,31.598,14.19,6.797,8.768
1616,0.702,36.234,14.608,42.023,31.605,14.228,6.836,8.848
1617,0.688,36.369,14.553,42.023,31.598,14.107,6.796,8.767
1618,0.708,36.476,14.623,42.032,31.608,14.105,6.958,8.848
1619,0.702,35.672,14.627,42.023,31.609,14.065,6.96,8.727
1620,0.701,35.817,14.697,42.042,31.612,14.105,7.041,8.888
1621,0.701,35.924,14.718,42.033,31.598,13.983,6.798,8.727
1622,0.701,36.012,14.702,42.023,31.605,14.145,6.877,8.807
1623,0.711,35.869,14.562,42.032,31.598,14.187,6.837,8.767
1624,0.711,36.03,14.619,42.042,31.608,14.35,6.877,8.807
1625,0.705,36.137,14.666,42.013,31.602,14.352,6.837,8.808
1626,0.715,36.177,14.698,42.032,31.608,14.514,6.918,8.767
1627,0.711,35.832,14.636,41.994,31.598,14.435,6.756,8.726
1628,0.721,35.972,14.534,41.994,31.602,14.475,6.714,8.766
1629,0.721,36.127,14.611,42.013,31.608,14.434,6.794,8.767
1630,0.715,36.148,14.662,42.051,31.609,14.434,6.836,8.889
1631,0.695,35.918,14.674,42.014,31.605,14.393,6.755,8.809
1632,0.682,36.059,14.69,42.023,31.602,14.352,6.836,8.93
1633,0.682,36.157,14.643,42.013,31.595,14.23,6.796,8.809
1634,0.672,35.995,14.639,42.023,31.598,14.188,6.714,8.889
1635,0.682,36.051,14.643,42.023,31.608,14.147,6.754,8.93
1636,0.666,36.147,14.694,42.032,31.605,14.065,6.754,9.093
1637,0.672,36.254,14.702,42.042,31.605,13.942,6.714,9.014
1638,0.678,35.948,14.612,42.033,31.605,13.9,6.713,9.054
1639,0.672,36.088,14.58,42.032,31.598,13.778,6.672,9.095
1640,0.675,36.215,14.576,42.032,31.602,13.777,6.672,9.095
1641,0.698,36.331,14.627,42.052,31.608,13.899,6.713,9.054
1642,0.701,36.313,14.639,42.033,31.602,13.9,6.713,9.176
1643,0.711,36.476,14.682,42.032,31.605,14.063,6.672,9.096
1644,0.695,36.573,14.628,42.032,31.609,14.064,6.753,9.217
1645,0.701,36.651,14.592,42.032,31.605,14.064,6.632,9.137
1646,0.695,36.105,14.639,41.994,31.602,14.146,6.672,9.055
1647,0.708,36.282,14.694,42.032,31.612,14.228,6.672,9.217
1648,0.708,36.408,14.71,42.023,31.609,14.228,6.713,9.178
1649,0.708,36.486,14.69,42.08,31.616,14.31,6.754,9.218
1650,0.685,36.238,14.624,42.014,31.598,14.108,6.632,9.178
1651,0.688,36.398,14.569,42.032,31.605,14.105,6.631,9.137
1652,0.685,36.515,14.58,42.004,31.598,13.902,6.59,9.095
1653,0.682,36.574,14.662,42.042,31.608,13.981,6.712,9.258
1654,0.682,36.114,14.686,42.023,31.605,13.982,6.713,9.3
1655,0.695,36.292,14.612,42.052,31.615,13.982,6.835,9.504
1656,0.679,36.408,14.623,42.014,31.591,13.698,6.592,9.303
1657,0.682,36.448,14.651,42.023,31.601,13.695,6.671,9.341
1658,0.685,36.141,14.69,42.013,31.591,13.492,6.591,9.301
1659,0.695,36.292,14.725,42.032,31.605,13.611,6.671,9.341
1660,0.688,36.399,14.702,42.023,31.605,13.45,6.631,9.423
1661,0.695,36.189,14.679,42.052,31.612,13.611,6.794,9.464
1662,0.695,36.187,14.608,42.023,31.588,13.409,6.592,9.343
1663,0.692,36.35,14.607,42.023,31.598,13.529,6.671,9.342
1664,0.708,36.447,14.67,42.032,31.595,13.49,6.631,9.26
1665,0.711,36.113,14.671,42.032,31.608,13.611,6.712,9.341
1666,0.721,36.234,14.612,42.032,31.602,13.572,6.713,9.26
1667,0.715,36.369,14.639,42.032,31.612,13.734,6.794,9.341
1668,0.708,36.448,14.631,41.994,31.602,13.614,6.673,9.138
1669,0.698,35.902,14.682,42.013,31.602,13.694,6.672,9.136
1670,0.695,36.05,14.678,42.023,31.602,13.654,6.591,9.095
1671,0.688,36.166,14.71,42.042,31.612,13.735,6.712,9.217
1672,0.682,36.254,14.644,42.023,31.595,13.736,6.672,9.137
1673,0.666,36.044,14.631,42.032,31.608,13.776,6.753,9.217
1674,0.672,36.195,14.608,42.013,31.595,13.696,6.592,9.137
1675,0.678,36.331,14.678,42.023,31.608,13.735,6.631,9.136
1676,0.672,36.39,14.671,42.032,31.598,13.736,6.59,9.136
1677,0.665,35.968,14.577,42.042,31.602,13.695,6.712,9.177
1678,0.675,36.108,14.666,42.1,31.605,13.695,6.672,9.177
1679,0.669,36.215,14.663,42.033,31.605,13.695,6.672,9.218
1680,0.665,36.264,14.651,42.004,31.602,13.613,6.631,9.015
1681,0.662,35.938,14.655,42.013,31.602,13.735,6.712,9.013
1682,0.685,36.098,14.709,42.023,31.602,13.776,6.632,9.176
1683,0.708,36.205,14.636,42.032,31.608,13.98,6.712,9.055
1684,0.734,36.302,14.639,42.032,31.602,14.145,6.632,9.054
1685,0.738,36.063,14.662,42.032,31.598,14.146,6.631,9.095
1686,0.767,36.186,14.698,42.013,31.605,14.228,6.672,8.932
1687,0.8,36.283,14.667,42.013,31.602,14.31,6.672,8.972
1688,0.833,36.054,14.624,42.032,31.608,14.392,6.672,9.013
1689,0.856,36.032,14.553,42.023,31.605,14.434,6.672,9.013
1690,0.862,36.204,14.572,42.042,31.609,14.434,6.631,9.054
1691,0.846,36.283,14.634,42.013,31.602,14.393,6.55,8.932
1692,0.869,35.91,14.643,42.013,31.602,14.352,6.549,8.972
1693,0.895,36.002,14.682,42.004,31.595,14.393,6.63,8.931
1694,0.938,36.195,14.628,42.032,31.601,14.474,6.672,9.012
1695,0.974,36.283,14.639,42.023,31.598,14.434,6.631,8.972
1696,1.013,36.044,14.666,42.042,31.619,14.434,6.712,8.972
1697,1.017,36.128,14.667,42.023,31.595,14.271,6.632,8.972
1698,1.04,36.292,14.706,42.013,31.598,14.229,6.672,8.85
1699,1.063,36.341,14.64,41.975,31.595,14.147,6.591,8.889
1700,1.102,35.91,14.635,42.032,31.608,14.269,6.631,8.93
1701,1.138,36.05,14.577,42.032,31.602,14.31,6.631,8.972
1702,1.2,36.214,14.65,42.052,31.612,14.392,6.672,8.891
1703,1.211,36.245,14.647,41.994,31.588,14.352,6.631,8.849
1704,1.26,35.967,14.69,42.013,31.588,14.514,6.631,8.849
1705,1.286,36.089,14.569,41.994,31.594,14.475,6.59,8.889
1706,1.319,36.272,14.627,42.032,31.601,14.719,6.631,8.89
1707,1.29,36.312,14.647,42.013,31.605,14.681,6.55,8.89
1708,1.267,36.131,14.709,42.042,31.615,14.802,6.63,8.89
1709,1.224,36.234,14.694,42.013,31.588,14.681,6.428,8.849
1710,1.227,36.379,14.683,42.004,31.591,14.599,6.629,8.93
1711,1.195,36.428,14.647,41.994,31.581,14.517,6.509,8.809
1712,1.185,36.017,14.581,42.023,31.598,14.597,6.63,8.97
1713,1.136,36.147,14.619,42.013,31.598,14.598,6.59,9.013
1714,1.129,36.292,14.713,42.051,31.605,14.761,6.671,9.135
1715,1.054,36.121,14.64,41.994,31.595,14.6,6.55,9.055
1716,0.965,36.186,14.538,42.023,31.591,14.558,6.468,9.135
1717,0.896,36.321,14.611,41.984,31.588,14.516,6.426,9.136
1718,0.853,36.437,14.67,42.042,31.591,14.597,6.629,9.217
1719,0.817,35.94,14.671,42.013,31.591,14.558,6.55,9.218
1720,0.755,36.088,14.698,42.051,31.608,14.76,6.63,9.3
1721,0.604,36.167,14.694,42.004,31.588,14.6,6.509,9.097
1722,0.457,36.273,14.647,42.003,31.588,14.761,6.427,9.176
1723,0.315,35.929,14.639,41.984,31.594,14.803,6.466,9.055
1724,0.19,36.088,14.639,42.032,31.605,15.048,6.629,9.217
1725,0.108,36.205,14.721,42.032,31.595,15.131,6.55,9.218
1726,0.052,36.292,14.655,42.032,31.615,15.295,6.63,9.259
1727,-0.027,36.006,14.639,42.032,31.595,15.174,6.468,9.097
1728,-0.083,36.175,14.651,42.013,31.608,15.254,6.548,9.136
1729,-0.136,36.321,14.639,42.023,31.598,15.174,6.427,9.014
1730,-0.192,36.37,14.674,42.023,31.605,15.254,6.548,9.216
1731,-0.205,36.045,14.674,42.013,31.602,15.174,6.59,9.137
1732,-0.202,36.166,14.686,42.032,31.598,15.132,6.671,9.217
1733,-0.169,36.302,14.546,42.004,31.584,14.888,6.469,9.096
1734,-0.098,36.351,14.607,42.013,31.598,14.886,6.589,9.054
1735,-0.006,36.035,14.654,42.013,31.595,14.886,6.549,9.054
1736,0.076,36.185,14.69,42.032,31.598,14.764,6.63,9.176
1737,0.188,36.292,14.643,42.023,31.598,14.64,6.631,9.177
1738,0.293,36.399,14.581,42.023,31.602,14.599,6.672,9.218
1739,0.385,36.112,14.631,42.099,31.591,14.436,6.55,9.096
1740,0.484,36.253,14.647,42.033,31.598,14.393,6.549,9.136
1741,0.553,36.37,14.655,42.023,31.602,14.352,6.63,9.177
1742,0.612,36.016,14.694,42.023,31.605,14.474,6.672,9.177
1743,0.662,36.012,14.671,42.032,31.609,14.475,6.591,9.177
1744,0.717,36.137,14.639,42.023,31.602,14.434,6.631,9.259
1745,0.75,36.253,14.631,41.994,31.605,14.353,6.59,9.097
1746,0.774,36.005,14.678,41.994,31.602,14.433,6.631,9.176
1747,0.8,36.147,14.714,42.032,31.598,14.434,6.672,9.137
1748,0.807,36.263,14.655,42.004,31.608,14.353,6.713,9.258
1749,0.813,36.379,14.659,42.032,31.602,14.271,6.632,9.178
1750,0.8,35.911,14.565,42.004,31.598,14.188,6.59,9.177
1751,0.794,36.069,14.623,42.013,31.595,14.106,6.59,9.177
1752,0.78,36.166,14.619,42.004,31.595,14.065,6.549,9.218
1753,0.79,36.302,14.709,42.032,31.612,14.105,6.63,9.3
1754,0.777,36.082,14.62,42.023,31.605,14.024,6.59,9.301
1755,0.79,36.262,14.639,42.052,31.619,14.023,6.671,9.26
1756,0.761,36.351,14.639,42.004,31.602,13.861,6.509,9.219
1757,0.774,36.409,14.655,42.013,31.605,13.859,6.63,9.3
1758,0.758,36.112,14.69,41.984,31.598,13.615,6.509,9.219
1759,0.774,36.282,14.686,42.032,31.608,13.775,6.711,9.34
1760,0.777,36.418,14.675,42.032,31.605,13.696,6.672,9.301
1761,0.793,36.467,14.6,42.032,31.619,13.776,6.794,9.382
1762,0.777,36.017,14.615,41.994,31.591,13.614,6.551,9.139
1763,0.784,36.185,14.639,42.032,31.605,13.613,6.63,9.258
1764,0.787,36.273,14.67,41.994,31.602,13.572,6.55,9.219
1765,0.793,36.418,14.616,42.032,31.602,13.856,6.712,9.34
1766,0.806,36.17,14.611,42.013,31.608,13.696,6.713,9.342
1767,0.794,36.321,14.643,42.032,31.619,13.817,6.713,9.464
1768,0.797,36.409,14.655,42.004,31.602,13.655,6.551,9.262
1769,0.794,36.103,14.721,42.003,31.602,13.654,6.508,9.381
1770,0.793,36.109,14.663,42.013,31.598,13.654,6.549,9.261
1771,0.784,36.263,14.686,42.023,31.608,13.654,6.63,9.341
1772,0.784,36.36,14.569,42.013,31.605,13.613,6.59,9.342
1773,0.793,35.968,14.63,42.032,31.615,13.653,6.712,9.464
1774,0.78,36.07,14.631,41.985,31.605,13.532,6.469,9.262
1775,0.787,36.214,14.705,42.013,31.605,13.571,6.507,9.3
1776,0.777,36.321,14.628,42.032,31.605,13.409,6.508,9.301
1777,0.777,36.169,14.615,42.032,31.612,13.489,6.67,9.423
1778,0.784,36.311,14.623,42.013,31.598,13.408,6.591,9.383
1779,0.79,36.447,14.658,42.023,31.615,13.448,6.631,9.464
1780,0.793,36.525,14.663,42.013,31.595,13.367,6.468,9.302
1781,0.79,36.046,14.682,42.013,31.598,13.325,6.589,9.382
1782,0.806,36.195,14.675,42.032,31.608,13.488,6.631,9.423
1783,0.813,36.34,14.639,42.032,31.612,13.571,6.631,9.342
1784,0.81,36.409,14.635,42.032,31.605,13.694,6.631,9.342
1785,0.816,36.026,14.698,42.013,31.605,13.857,6.631,9.342
1786,0.823,36.147,14.659,42.004,31.602,13.818,6.468,9.138
1787,0.81,36.282,14.588,42.032,31.605,13.899,6.589,9.258
1788,0.82,36.351,14.631,42.109,31.602,14.022,6.509,9.259
1789,0.81,36.121,14.635,42.005,31.602,13.983,6.63,9.259
1790,0.807,36.253,14.647,42.032,31.612,13.942,6.59,9.259
1791,0.813,36.36,14.682,42.032,31.609,13.86,6.549,9.259
1792,0.794,36.515,14.702,42.013,31.598,13.9,6.508,9.137
1793,0.78,35.998,14.632,41.994,31.602,13.9,6.549,9.217
1794,0.784,36.166,14.655,42.032,31.602,13.941,6.59,9.259
1795,0.787,36.292,14.663,42.013,31.605,13.9,6.59,9.259
1796,0.784,36.082,14.706,42.023,31.609,13.859,6.631,9.259
1797,0.78,36.09,14.679,42.023,31.595,13.859,6.59,9.3
1798,0.784,36.215,14.624,42.013,31.601,13.778,6.549,9.301
1799,0.777,36.34,14.553,41.994,31.598,13.818,6.549,9.26
1800,0.803,36.035,14.568,42.032,31.608,13.859,6.63,9.3
1801,0.803,36.166,14.619,42.023,31.609,13.859,6.509,9.301
1802,0.82,36.321,14.627,42.032,31.609,13.94,6.549,9.301
1803,0.807,36.38,14.662,42.013,31.602,14.063,6.549,9.301
1804,0.826,35.939,14.585,42.013,31.602,14.064,6.508,9.26
1805,0.82,36.05,14.631,41.994,31.598,14.146,6.508,9.178
1806,0.83,36.243,14.662,42.032,31.612,14.228,6.467,9.259
1807,0.833,36.322,14.702,42.023,31.602,14.269,6.507,9.178
1808,0.843,36.14,14.686,42.023,31.605,14.229,6.508,9.177
1809,0.83,36.282,14.671,42.032,31.605,14.31,6.508,9.177
1810,0.833,36.389,14.608,42.004,31.602,14.189,6.427,9.096
1811,0.83,36.457,14.568,42.032,31.608,14.188,6.507,9.136
1812,0.817,36.055,14.603,42.032,31.602,14.188,6.508,9.095
1813,0.829,36.195,14.639,42.032,31.608,14.228,6.549,9.095
1814,0.82,36.312,14.733,42.013,31.602,14.147,6.549,9.054
1815,0.813,36.341,14.574,42.013,31.605,14.187,6.508,9.054
1816,0.82,35.987,14.642,42.004,31.595,14.106,6.508,9.013
1817,0.813,36.137,14.635,42.003,31.595,14.146,6.508,9.013
1818,0.826,36.282,14.721,42.023,31.608,14.106,6.508,9.013
1819,0.833,36.456,14.71,42.032,31.605,14.024,6.549,8.932
1820,0.849,36.113,14.71,42.032,31.609,14.064,6.508,8.972
1821,0.84,36.215,14.659,42.004,31.602,13.983,6.467,8.972
1822,0.849,36.331,14.581,42.013,31.595,14.063,6.426,8.85
1823,0.849,36.025,14.611,41.994,31.605,14.227,6.466,8.889
1824,0.853,36.051,14.643,42.013,31.609,14.432,6.548,8.93
1825,0.859,36.195,14.69,42.013,31.602,14.515,6.59,8.931
1826,0.875,36.321,14.577,42.013,31.608,14.557,6.509,8.85
1827,0.859,35.958,14.619,42.004,31.602,14.557,6.427,8.767
1828,0.866,36.089,14.627,41.994,31.605,14.638,6.466,8.807
1829,0.856,36.205,14.694,41.975,31.602,14.639,6.426,8.848
1830,0.866,36.34,14.718,42.013,31.605,14.721,6.588,8.889
1831,0.856,36.045,14.667,42.013,31.609,14.681,6.549,8.89
1832,0.859,36.224,14.659,42.032,31.605,14.721,6.549,8.809
1833,0.849,36.312,14.62,41.994,31.602,14.599,6.508,8.726
1834,0.859,36.38,14.635,41.994,31.605,14.679,6.467,8.888
1835,0.856,36.17,14.686,41.965,31.591,14.518,6.386,8.768
1836,0.853,36.33,14.663,42.022,31.608,14.679,6.588,8.97
1837,0.853,36.466,14.569,42.013,31.598,14.599,6.59,8.931
1838,0.866,36.564,14.638,42.147,31.615,14.639,6.753,9.053
1839,0.862,35.769,14.635,41.986,31.595,14.517,6.47,8.891
1840,0.872,35.943,14.662,42.003,31.601,14.516,6.467,8.89
1841,0.872,36.079,14.647,41.975,31.588,14.353,6.386,8.809
1842,0.892,36.128,14.721,42.013,31.605,14.596,6.629,9.052
1843,0.895,35.985,14.648,42.004,31.602,14.761,6.59,9.013
1844,0.905,36.146,14.639,42.032,31.612,14.966,6.671,9.176
1845,0.902,36.254,14.647,41.994,31.602,14.846,6.509,8.974
1846,0.902,36.283,14.686,41.984,31.602,14.926,6.508,8.891
1847,0.895,35.996,14.682,41.994,31.602,14.927,6.427,8.89
1848,0.912,36.127,14.608,42.003,31.598,15.008,6.629,9.012
1849,0.912,36.244,14.561,41.994,31.602,14.968,6.509,9.054
1850,0.902,36.015,14.521,42.013,31.612,15.009,6.63,9.095
1851,0.905,35.984,14.63,41.965,31.598,14.887,6.468,9.014
1852,0.905,36.156,14.674,41.984,31.602,14.845,6.467,9.054
1853,0.915,36.254,14.706,41.984,31.605,14.723,6.548,9.095
1854,0.915,35.919,14.628,41.994,31.605,14.762,6.549,9.176
1855,0.915,36.069,14.643,42.003,31.609,14.681,6.549,9.259
1856,0.905,36.195,14.651,41.984,31.609,14.599,6.63,9.341
1857,0.915,36.264,14.709,41.984,31.598,14.354,6.509,9.301
1858,0.922,36.418,14.679,41.984,31.602,14.352,6.549,9.301
1859,0.922,36.563,14.667,41.984,31.598,14.352,6.549,9.341
1860,0.931,36.67,14.631,41.994,31.608,14.352,6.549,9.382
1861,0.938,36.748,14.588,42.003,31.602,14.271,6.549,9.382
1862,0.938,35.502,14.607,41.994,31.605,14.31,6.549,9.423
1863,0.945,35.652,14.658,41.984,31.602,14.311,6.508,9.302
1864,0.958,35.788,14.694,41.965,31.605,14.473,6.508,9.341
1865,0.958,35.847,14.612,41.993,31.602,14.556,6.549,9.382
1866,0.961,35.982,14.647,41.984,31.602,14.598,6.59,9.342
1867,0.974,36.127,14.62,41.994,31.602,14.598,6.509,9.301
1868,0.974,36.215,14.666,41.994,31.602,14.598,6.508,9.301
1869,0.974,36.283,14.678,41.984,31.605,14.598,6.508,9.26
1870,0.958,35.823,14.675,41.975,31.602,14.517,6.467,9.381
1871,0.968,36.011,14.674,42.003,31.612,14.597,6.589,9.382
1872,0.968,36.108,14.616,41.994,31.609,14.517,6.549,9.301
1873,0.981,36.176,14.647,42.003,31.622,14.597,6.63,9.301
1874,0.958,35.794,14.651,41.965,31.595,14.436,6.509,9.26
1875,0.961,35.934,14.69,41.984,31.598,14.434,6.508,9.259
1876,0.955,36.031,14.62,41.955,31.588,14.231,6.467,9.178
1877,0.964,35.907,14.643,42.032,31.605,14.31,6.67,9.34
1878,0.964,35.915,14.643,42.004,31.602,14.392,6.591,9.26
1879,0.99,36.088,14.655,42.023,31.608,14.434,6.671,9.3
1880,0.981,36.147,14.67,41.984,31.595,14.271,6.509,9.178
1881,0.994,35.688,14.682,41.994,31.598,14.31,6.549,9.096
1882,0.994,35.789,14.686,41.975,31.602,14.351,6.549,9.014
1883,1.01,35.972,14.565,41.994,31.605,14.636,6.671,9.176
1884,1.007,36.05,14.623,42.003,31.602,14.639,6.631,9.137
1885,1.02,35.764,14.654,42.003,31.615,14.843,6.753,9.177
1886,1.017,35.876,14.682,41.965,31.598,14.682,6.551,8.933
1887,1.023,36.021,14.671,41.984,31.605,14.762,6.63,9.053
1888,1.017,36.099,14.557,41.984,31.598,14.6,6.468,8.932
1889,1.023,35.745,14.638,42.022,31.602,14.679,6.67,9.012
1890,1.027,35.875,14.631,41.994,31.605,14.558,6.631,8.972
1891,1.037,36.011,14.67,42.003,31.612,14.557,6.712,9.094
1892,1.027,36.041,14.647,41.956,31.595,14.273,6.632,8.892
1893,1.037,35.687,14.694,41.984,31.598,14.31,6.631,8.971
1894,1.043,35.856,14.608,41.994,31.591,14.148,6.672,8.85
1895,1.043,35.973,14.627,41.994,31.598,14.228,6.672,8.93
1896,1.05,36.031,14.662,41.984,31.605,14.107,6.713,8.931
1897,1.063,35.658,14.698,42.003,31.605,14.065,6.713,8.931
1898,1.066,35.76,14.663,41.984,31.598,13.983,6.632,8.809
1899,1.076,35.904,14.628,41.984,31.608,13.901,6.59,8.808
1900,1.079,35.944,14.623,41.994,31.605,13.859,6.712,8.767
1901,1.092,35.734,14.518,41.984,31.598,13.981,6.713,8.807
1902,1.102,35.866,14.63,42.003,31.605,14.023,6.713,8.686
1903,1.112,35.963,14.658,41.994,31.602,14.186,6.713,8.766
1904,1.115,35.686,14.674,41.984,31.602,14.188,6.632,8.685
1905,1.128,35.712,14.608,41.975,31.598,14.35,6.631,8.684
1906,1.132,35.866,14.643,41.994,31.602,14.474,6.631,8.603
1907,1.135,35.953,14.666,41.984,31.605,14.516,6.672,8.724
1908,1.142,35.561,14.686,41.994,31.602,14.557,6.631,8.685
1909,1.155,35.672,14.69,41.984,31.608,14.638,6.672,8.766
1910,1.148,35.789,14.682,41.984,31.598,14.558,6.631,8.604
1911,1.148,35.905,14.671,41.994,31.602,14.516,6.55,8.724
1912,1.158,35.532,14.53,41.984,31.602,14.475,6.63,8.726
1913,1.155,35.691,14.614,42.003,31.612,14.516,6.631,8.848
1914,1.168,35.817,14.647,41.975,31.609,14.435,6.631,8.808
1915,1.175,35.886,14.662,41.974,31.605,14.434,6.631,8.93
1916,1.168,35.618,14.561,41.984,31.598,14.231,6.59,8.809
1917,1.175,35.778,14.623,41.984,31.598,14.228,6.631,8.93
1918,1.184,35.905,14.647,41.994,31.605,14.147,6.55,8.972
1919,1.194,35.963,14.709,41.984,31.598,14.146,6.671,8.931
1920,1.23,35.686,14.718,41.994,31.605,14.146,6.672,8.931
1921,1.217,35.789,14.71,41.975,31.595,14.024,6.631,8.972
1922,1.23,35.934,14.687,41.984,31.601,14.105,6.55,8.85
1923,1.234,35.973,14.616,41.965,31.598,14.187,6.63,8.971
1924,1.243,35.782,14.65,42.013,31.612,14.31,6.672,9.053
1925,1.247,35.914,14.686,41.975,31.609,14.351,6.672,8.973
1926,1.283,36.069,14.659,42.003,31.609,14.433,6.794,8.972
1927,1.263,36.061,14.592,41.965,31.602,14.393,6.633,8.931
1928,1.273,35.764,14.627,41.974,31.605,14.474,6.631,8.89
1929,1.263,35.857,14.623,41.955,31.591,14.394,6.509,8.768
1930,1.28,36.011,14.647,42.003,31.608,14.556,6.711,8.889
1931,1.299,35.734,14.659,41.975,31.609,14.557,6.672,8.849
1932,1.303,35.751,14.733,42.022,31.622,14.679,6.753,8.93
1933,1.29,35.837,14.62,41.956,31.602,14.477,6.632,8.768
1934,1.29,35.982,14.631,41.993,31.608,14.556,6.712,8.848
1935,1.286,35.705,14.658,41.965,31.595,14.435,6.591,8.686
1936,1.28,35.827,14.702,41.993,31.612,14.434,6.753,8.928
1937,1.286,35.963,14.624,41.984,31.605,14.393,6.673,8.931
1938,1.303,36.07,14.596,42.013,31.619,14.434,6.875,9.053
1939,1.306,35.773,14.596,42.004,31.598,14.271,6.633,8.729
1940,1.322,35.924,14.642,41.994,31.602,14.188,6.753,8.807
1941,1.316,36.06,14.627,41.984,31.598,14.188,6.673,8.686
1942,1.332,36.128,14.69,41.984,31.608,14.391,6.713,8.807
1943,1.342,36.042,14.679,41.994,31.609,14.434,6.754,8.808
1944,1.355,36.224,14.632,42.013,31.616,14.678,6.876,8.97
1945,1.349,36.302,14.647,41.965,31.605,14.68,6.755,8.85
1946,1.358,36.37,14.655,41.984,31.602,14.762,6.714,8.889
1947,1.368,36.093,14.706,41.955,31.608,14.844,6.672,8.89
1948,1.362,36.243,14.647,41.974,31.609,14.845,6.753,9.012
1949,1.359,36.322,14.584,41.974,31.605,14.845,6.754,8.972
1950,1.355,36.38,14.592,41.974,31.595,14.845,6.836,9.053
1951,1.352,36.352,14.639,42.07,31.608,14.723,6.755,8.973
1952,1.349,36.505,14.635,41.985,31.598,14.762,6.754,9.013
1953,1.345,36.65,14.682,41.984,31.602,14.681,6.754,9.013
1954,1.355,36.652,14.678,41.994,31.608,14.68,6.795,9.094
1955,1.352,36.594,14.616,41.994,31.602,14.558,6.795,9.095
1956,1.342,36.728,14.631,41.994,31.602,14.476,6.755,9.258
1957,1.339,36.806,14.678,41.984,31.598,14.353,6.714,9.137
1958,1.336,36.874,14.702,41.994,31.602,14.271,6.754,9.177
1959,1.332,36.999,14.686,41.994,31.602,14.229,6.795,9.137
1960,1.342,37.115,14.639,42.003,31.602,14.269,6.795,9.177
1961,1.329,37.193,14.608,41.984,31.605,14.229,6.795,9.096
1962,1.329,36.964,14.604,41.965,31.605,14.351,6.795,9.176
1963,1.316,37.086,14.639,41.974,31.605,14.474,6.673,9.055
1964,1.313,37.193,14.701,41.974,31.602,14.638,6.672,9.135
1965,1.316,37.29,14.62,41.984,31.605,14.68,6.794,9.136
1966,1.319,37.377,14.608,41.975,31.612,14.843,6.755,9.136
1967,1.313,37.541,14.666,41.984,31.616,14.885,6.754,9.014
1968,1.283,37.629,14.671,41.965,31.605,14.845,6.673,9.013
1969,1.273,37.688,14.698,41.974,31.605,14.885,6.591,9.013
1970,1.247,37.496,14.694,41.955,31.595,14.804,6.631,8.972
1971,1.253,37.677,14.694,41.993,31.615,14.844,6.712,9.094
1972,1.224,37.774,14.62,41.984,31.602,14.763,6.672,8.973
1973,1.221,37.871,14.623,42.013,31.612,14.844,6.672,9.135
1974,1.191,37.853,14.654,41.956,31.595,14.682,6.631,9.014
1975,1.188,38.016,14.702,41.993,31.598,14.721,6.631,9.013
1976,1.158,38.094,14.624,41.955,31.591,14.599,6.55,9.054
1977,1.152,38.162,14.619,41.993,31.601,14.639,6.752,9.217
1978,1.142,37.933,14.639,41.994,31.602,14.558,6.673,9.218
1979,1.142,38.103,14.67,42.003,31.615,14.638,6.753,9.34
1980,1.116,38.172,14.647,41.975,31.595,14.395,6.592,9.179
1981,1.115,38.211,14.694,41.984,31.605,14.393,6.59,9.177
1982,1.099,38.24,14.671,41.955,31.598,14.312,6.509,9.259
1983,1.102,38.384,14.616,41.993,31.608,14.636,6.63,9.381
1984,1.089,38.481,14.615,41.975,31.602,14.599,6.59,9.423
1985,1.086,38.473,14.686,42.003,31.608,14.801,6.712,9.586
1986,1.07,38.492,14.702,41.965,31.598,14.641,6.551,9.344
1987,1.076,38.636,14.655,41.974,31.602,14.68,6.59,9.342
1988,1.063,38.724,14.612,41.955,31.598,14.518,6.468,9.26
1989,1.04,38.475,14.502,42.003,31.602,14.638,6.629,9.463
1990,1.024,38.607,14.645,41.984,31.608,14.639,6.59,9.424
1991,1.017,38.743,14.651,42.003,31.612,14.639,6.712,9.586
1992,1.001,38.792,14.67,41.946,31.598,14.436,6.551,9.344
1993,0.991,38.811,14.674,41.955,31.602,14.475,6.549,9.423
1994,0.978,38.955,14.596,41.984,31.584,14.434,6.59,9.342
1995,0.964,39.091,14.635,41.975,31.612,14.515,6.712,9.464
1996,0.948,39.14,14.67,41.965,31.602,14.394,6.632,9.505
1997,0.935,38.882,14.698,41.984,31.608,14.474,6.794,9.546
1998,0.912,38.995,14.655,41.975,31.591,14.312,6.551,9.425
1999,0.908,39.12,14.655,41.974,31.601,14.311,6.63,9.424
2000,0.908,39.15,14.6,41.974,31.598,14.229,6.55,9.342
2001,0.912,39.064,14.549,41.984,31.612,14.351,6.671,9.504
2002,0.912,39.188,14.619,41.984,31.612,14.433,6.672,9.506
2003,0.908,39.333,14.701,42.003,31.619,14.637,6.753,9.587
2004,0.886,39.325,14.659,41.975,31.598,14.517,6.51,9.425
2005,0.889,39.21,14.6,41.965,31.602,14.557,6.589,9.424
2006,0.892,39.353,14.603,41.955,31.598,14.557,6.468,9.302
2007,0.895,39.469,14.654,41.974,31.615,14.72,6.629,9.463
2008,0.876,39.528,14.69,41.974,31.609,14.722,6.59,9.465
2009,0.872,39.356,14.702,41.994,31.616,14.844,6.712,9.587
2010,0.85,39.46,14.69,41.965,31.598,14.56,6.51,9.344
2011,0.843,39.557,14.64,41.965,31.605,14.679,6.549,9.423
2012,0.833,39.366,14.553,41.955,31.598,14.518,6.468,9.342
2013,0.843,39.412,14.619,41.965,31.608,14.679,6.629,9.504
2014,0.83,39.518,14.69,41.974,31.605,14.68,6.631,9.506
2015,0.833,39.624,14.69,41.994,31.619,14.843,6.672,9.75
2016,0.817,39.386,14.597,41.965,31.609,14.641,6.509,9.63
2017,0.813,39.498,14.615,41.984,31.602,14.599,6.549,9.629
2018,0.813,39.653,14.631,41.975,31.598,14.517,6.549,9.629
2019,0.816,39.721,14.67,41.974,31.612,14.638,6.671,9.751
2020,0.807,39.387,14.686,41.984,31.602,14.517,6.591,9.63
2021,0.81,39.517,14.725,41.965,31.605,14.516,6.712,9.792
2022,0.813,39.634,14.667,41.974,31.602,14.435,6.551,9.59
2023,0.807,39.702,14.647,41.974,31.608,14.515,6.59,9.629
2024,0.813,39.463,14.659,41.974,31.602,14.557,6.549,9.629
2025,0.82,39.585,14.694,41.974,31.605,14.598,6.63,9.629
2026,0.826,39.721,14.671,41.974,31.609,14.517,6.55,9.629
2027,0.807,39.732,14.573,41.955,31.605,14.435,6.59,9.507
2028,0.803,39.454,14.646,41.974,31.602,14.515,6.509,9.465
2029,0.797,39.576,14.612,41.936,31.602,14.394,6.508,9.505
2030,0.797,39.74,14.662,41.974,31.608,14.515,6.63,9.506
2031,0.794,39.751,14.682,41.965,31.609,14.394,6.55,9.465
2032,0.797,39.569,14.714,41.993,31.616,14.393,6.549,9.424
2033,0.784,39.663,14.609,41.946,31.602,14.271,6.427,9.383
2034,0.784,39.77,14.643,41.955,31.605,14.229,6.466,9.382
2035,0.777,39.905,14.659,41.926,31.595,14.107,6.467,9.261
2036,0.78,39.59,14.694,41.984,31.608,14.187,6.589,9.422
2037,0.777,39.692,14.702,41.965,31.609,14.106,6.549,9.424
2038,0.787,39.856,14.632,41.993,31.616,14.187,6.671,9.464
2039,0.78,39.465,14.576,41.965,31.602,13.862,6.469,9.343
2040,0.79,39.461,14.545,41.974,31.602,13.859,6.507,9.301
2041,0.777,39.585,14.63,41.936,31.595,13.778,6.427,9.219
2042,0.793,39.682,14.643,41.964,31.605,13.98,6.548,9.381
2043,0.793,39.482,14.69,41.965,31.605,13.942,6.508,9.382
2044,0.803,39.595,14.597,41.965,31.615,14.185,6.63,9.545
2045,0.797,39.702,14.623,41.965,31.605,14.106,6.468,9.303
2046,0.803,39.799,14.662,41.936,31.609,14.187,6.507,9.341
2047,0.807,39.282,14.713,41.964,31.612,14.228,6.467,9.301
2048,0.813,39.42,14.679,41.965,31.609,14.269,6.507,9.341
2049,0.8,39.547,14.628,41.965,31.605,14.31,6.508,9.342
2050,0.787,39.605,14.635,41.965,31.615,14.27,6.549,9.464
2051,0.793,39.289,14.573,41.955,31.609,14.148,6.468,9.302
2052,0.777,39.44,14.615,41.955,31.605,14.187,6.426,9.341
2053,0.784,39.585,14.631,41.955,31.602,14.147,6.426,9.301
2054,0.774,39.625,14.694,41.945,31.605,14.228,6.466,9.382
2055,0.774,39.155,14.554,41.965,31.609,14.188,6.426,9.423
2056,0.761,39.295,14.623,41.955,31.598,14.065,6.466,9.464
2057,0.774,39.43,14.67,41.945,31.598,14.024,6.467,9.302
2058,0.764,39.451,14.674,41.945,31.605,13.983,6.467,9.341
2059,0.78,39.182,14.725,41.974,31.609,13.942,6.386,9.301
2060,0.784,39.304,14.675,41.965,31.605,13.9,6.466,9.341
2061,0.793,39.421,14.69,41.955,31.598,13.859,6.467,9.26
2062,0.793,39.633,14.561,41.945,31.602,13.9,6.467,9.259
2063,0.797,39.203,14.638,41.936,31.595,13.981,6.426,9.219
2064,0.794,39.305,14.647,41.955,31.605,14.023,6.426,9.259
2065,0.813,39.449,14.682,41.955,31.609,14.145,6.426,9.259
2066,0.813,39.0,14.608,41.965,31.612,14.228,6.426,9.259
2067,0.82,38.948,14.643,41.955,31.605,14.228,6.466,9.178
2068,0.813,39.053,14.639,41.945,31.605,14.269,6.426,9.177
2069,0.807,39.159,14.686,41.936,31.598,14.27,6.344,9.177
2070,0.79,38.815,14.737,41.936,31.602,14.392,6.466,9.218
2071,0.806,38.955,14.714,41.964,31.608,14.352,6.467,9.259
2072,0.8,39.072,14.671,41.974,31.605,14.393,6.467,9.3
2073,0.8,39.198,14.632,41.965,31.609,14.393,6.467,9.301
2074,0.79,38.605,14.643,41.946,31.602,14.434,6.507,9.26
2075,0.797,38.742,14.694,41.917,31.602,14.434,6.386,9.259
2076,0.787,38.84,14.683,41.936,31.605,14.434,6.466,9.341
2077,0.793,38.965,14.593,41.974,31.609,14.556,6.589,9.342
2078,0.79,38.583,14.611,41.955,31.605,14.395,6.631,9.382
2079,0.806,38.771,14.647,41.984,31.615,14.393,6.55,9.342
2080,0.79,38.821,14.655,41.955,31.602,14.352,6.549,9.342
2081,0.806,38.879,14.678,41.955,31.598,14.311,6.549,9.26
2082,0.81,38.467,14.686,41.926,31.595,14.473,6.549,9.341
2083,0.826,38.645,14.624,41.955,31.612,14.597,6.63,9.423
2084,0.817,38.743,14.635,41.955,31.609,14.639,6.55,9.383
2085,0.826,38.821,14.678,41.974,31.616,14.843,6.712,9.423
2086,0.82,38.227,14.706,41.926,31.609,14.763,6.551,9.302
2087,0.813,38.374,14.647,41.936,31.609,14.844,6.63,9.301
2088,0.81,38.472,14.584,41.897,31.595,14.804,6.55,9.219
2089,0.813,38.78,14.529,41.954,31.605,15.007,6.671,9.381
2090,0.81,38.418,14.618,41.984,31.605,15.009,6.631,9.382
2091,0.823,38.578,14.658,41.984,31.615,15.09,6.794,9.505
2092,0.794,38.637,14.643,41.917,31.595,14.847,6.633,9.262
2093,0.81,38.024,14.709,41.936,31.605,14.926,6.712,9.422
2094,0.803,37.912,14.569,41.936,31.598,14.764,6.591,9.302
2095,0.8,38.084,14.646,41.964,31.602,14.885,6.875,9.504
2096,0.787,38.191,14.666,41.936,31.602,14.764,6.796,9.587
2097,0.793,37.808,14.694,41.964,31.612,14.844,6.877,9.588
2098,0.797,37.91,14.679,41.926,31.598,14.682,6.796,9.466
2099,0.803,38.045,14.635,41.926,31.608,14.64,6.795,9.424
2100,0.81,38.152,14.623,41.926,31.602,14.517,6.714,9.424
2101,0.807,37.683,14.569,41.945,31.612,14.557,6.876,9.546
2102,0.816,37.813,14.646,41.926,31.605,14.557,6.796,9.547
2103,0.826,37.958,14.67,41.974,31.619,14.72,6.917,9.669
2104,0.82,37.988,14.702,41.926,31.598,14.681,6.715,9.345
2105,0.833,37.499,14.53,41.964,31.598,14.884,6.794,9.423
2106,0.823,37.629,14.642,41.917,31.595,14.845,6.673,9.261
2107,0.833,37.774,14.647,41.945,31.601,15.007,6.794,9.341
2108,0.839,37.833,14.713,41.945,31.608,14.928,6.795,9.382
2109,0.836,37.402,14.722,41.965,31.612,15.089,6.877,9.464
2110,0.813,37.513,14.659,41.936,31.595,14.806,6.674,9.302
2111,0.816,37.648,14.659,41.917,31.598,14.885,6.835,9.26
2112,0.803,37.678,14.631,42.012,31.588,14.682,6.633,9.137
2113,0.813,37.314,14.651,41.936,31.598,14.762,6.753,9.339
