time,ecg,bvp,gsr,rsp,skt,emg_zygo,emg_coru,emg_trap
0,0.941,34.519,16.126,42.594,28.52,4.618,6.631,7.944
1,0.954,34.732,16.133,42.613,28.527,4.659,6.55,7.905
2,0.951,34.772,16.125,42.613,28.53,4.66,6.63,7.904
3,0.951,34.36,16.094,42.594,28.517,4.538,6.509,7.782
4,0.964,34.577,16.129,42.604,28.527,4.577,6.549,7.659
5,0.955,34.761,16.137,42.613,28.537,4.659,6.752,7.82
6,0.971,34.677,16.141,42.594,28.527,4.7,6.551,7.741
7,0.964,34.321,16.153,42.661,28.53,4.66,6.59,7.618
8,0.958,34.528,16.106,42.595,28.524,4.579,6.549,7.617
9,0.964,34.694,16.203,42.594,28.523,4.537,6.468,7.495
10,0.971,34.494,16.118,42.623,28.548,4.781,6.629,7.616
11,0.974,34.396,16.145,42.604,28.527,4.702,6.59,7.535
12,0.971,34.625,16.153,42.584,28.527,4.579,6.509,7.453
13,0.971,34.771,16.118,42.594,28.527,4.659,6.589,7.452
14,0.968,34.207,16.125,42.584,28.52,4.497,6.59,7.371
15,0.987,34.326,16.141,42.603,28.53,4.618,6.712,7.411
16,0.974,34.5,16.18,42.584,28.527,4.659,6.713,7.452
17,0.981,34.645,16.021,42.584,28.52,4.497,6.551,7.29
18,0.981,34.234,16.101,42.584,28.53,4.618,6.712,7.247
19,0.984,34.374,16.145,42.575,28.524,4.578,6.754,7.369
20,1.004,34.596,16.157,42.594,28.527,4.618,6.754,7.248
21,1.007,34.752,16.118,42.594,28.527,4.578,6.876,7.369
22,1.001,34.159,16.153,42.546,28.52,4.537,6.837,7.208
23,1.01,34.373,16.09,42.574,28.523,4.577,6.837,7.165
24,1.014,34.577,16.16,42.575,28.523,4.659,6.958,7.246
25,1.017,34.713,16.134,42.594,28.534,4.66,6.878,7.166
26,1.023,34.206,16.164,42.584,28.534,4.66,7.0,7.206
27,1.001,34.393,16.137,42.565,28.527,4.538,6.919,7.125
28,1.013,34.625,16.086,42.565,28.524,4.618,7.041,7.124
29,1.02,34.733,16.168,42.594,28.544,4.741,7.164,7.327
30,1.017,34.197,16.138,42.575,28.531,4.661,7.002,7.085
31,1.017,34.422,16.11,42.584,28.527,4.66,7.041,7.123
32,1.017,34.597,16.121,42.565,28.527,4.619,7.042,7.043
33,1.033,34.704,16.137,42.546,28.52,4.537,6.96,6.96
34,1.04,34.158,16.153,42.593,28.541,4.821,7.122,7.163
35,1.037,34.383,16.141,42.584,28.534,4.661,7.124,7.002
36,1.04,34.548,16.153,42.575,28.534,4.66,7.043,7.041
37,1.05,34.636,16.059,42.603,28.531,4.579,7.001,7.001
38,1.046,34.148,16.093,42.565,28.524,4.578,6.96,6.919
39,1.063,34.383,16.207,42.574,28.537,4.7,7.122,7.0
40,1.056,34.548,16.114,42.584,28.534,4.62,7.002,6.96
41,1.063,34.636,16.156,42.575,28.524,4.619,7.001,6.838
42,1.066,34.11,16.153,42.575,28.527,4.659,7.001,6.877
43,1.073,34.334,16.098,42.555,28.527,4.538,6.96,6.959
44,1.092,34.548,16.168,42.546,28.53,4.577,7.0,6.96
45,1.089,34.569,16.126,42.584,28.534,4.618,7.082,6.96
46,1.099,34.099,16.164,42.527,28.524,4.497,7.002,6.838
47,1.093,34.363,16.161,42.632,28.527,4.658,6.96,6.796
48,1.083,34.51,16.122,42.546,28.53,4.619,7.041,6.999
49,1.092,34.578,16.16,42.555,28.531,4.537,7.001,6.879
50,1.089,34.157,16.176,42.574,28.534,4.618,7.001,6.918
51,1.092,34.364,16.11,42.536,28.52,4.578,6.96,6.837
52,1.102,34.519,16.156,42.574,28.527,4.578,6.919,6.755
53,1.115,34.406,16.137,42.575,28.537,4.7,7.041,6.917
54,1.109,34.213,16.133,42.661,28.527,4.62,7.001,6.878
55,1.115,34.431,16.145,42.575,28.537,4.7,6.96,6.877
56,1.106,34.558,16.168,42.555,28.527,4.66,6.878,6.837
57,1.125,34.119,16.02,42.584,28.524,4.497,6.837,6.714
58,1.138,34.124,16.152,42.603,28.537,4.699,7.04,6.876
59,1.129,34.325,16.153,42.575,28.534,4.62,6.96,6.796
60,1.145,34.481,16.137,42.575,28.527,4.619,6.919,6.755
61,1.148,34.041,16.161,42.565,28.524,4.537,6.919,6.795
62,1.145,34.142,16.126,42.536,28.523,4.537,6.796,6.755
63,1.161,34.392,16.172,42.574,28.53,4.618,6.917,6.714
64,1.165,34.51,16.102,42.555,28.534,4.619,6.919,6.754
65,1.168,33.955,16.121,42.555,28.527,4.537,6.715,6.673
66,1.175,34.141,16.141,42.555,28.527,4.618,6.876,6.631
67,1.165,34.325,16.122,42.641,28.524,4.578,6.837,6.672
68,1.184,34.49,16.121,42.556,28.53,4.578,6.877,6.713
69,1.181,33.974,16.172,42.555,28.531,4.578,6.959,6.713
70,1.175,34.132,16.145,42.536,28.52,4.537,6.797,6.551
71,1.181,34.354,16.141,42.545,28.523,4.618,6.836,6.63
72,1.178,34.471,16.145,42.565,28.527,4.619,6.999,6.712
73,1.184,33.887,16.126,42.546,28.53,4.659,6.879,6.632
74,1.184,34.093,16.149,42.584,28.527,4.66,6.918,6.712
75,1.178,34.277,16.09,42.546,28.524,4.538,6.919,6.632
76,1.191,34.394,16.18,42.555,28.527,4.537,6.878,6.59
77,1.198,33.983,16.118,42.574,28.537,4.781,7.04,6.753
78,1.198,34.189,16.137,42.565,28.531,4.539,6.879,6.673
79,1.217,34.383,16.122,42.574,28.531,4.577,7.0,6.631
80,1.208,34.462,16.141,42.527,28.531,4.578,6.919,6.59
81,1.22,33.878,16.141,42.536,28.517,4.456,6.837,6.509
82,1.234,34.121,16.145,42.584,28.544,4.658,6.999,6.711
83,1.224,34.296,16.141,42.555,28.524,4.579,6.919,6.551
84,1.237,34.404,16.137,42.546,28.53,4.659,6.878,6.549
85,1.231,34.04,16.125,42.555,28.527,4.579,6.877,6.468
86,1.234,34.228,16.164,42.517,28.52,4.537,6.837,6.467
87,1.25,34.46,16.126,42.679,28.537,4.659,6.918,6.467
88,1.247,34.52,16.121,42.566,28.527,4.619,6.919,6.548
89,1.237,33.946,16.176,42.546,28.524,4.497,6.796,6.427
90,1.234,34.17,16.122,42.555,28.523,4.577,6.877,6.466
91,1.24,34.335,16.121,42.536,28.52,4.578,6.796,6.507
92,1.244,34.414,16.114,42.555,28.527,4.578,6.877,6.508
93,1.237,34.107,16.141,42.565,28.537,4.659,6.877,6.508
94,1.211,34.306,16.09,42.546,28.517,4.497,6.755,6.345
95,1.24,34.48,16.117,42.555,28.523,4.577,6.714,6.466
96,1.237,34.52,16.172,42.536,28.53,4.7,6.876,6.507
97,1.24,34.07,16.044,42.555,28.527,4.62,6.837,6.467
98,1.244,34.305,16.152,42.574,28.53,4.659,6.837,6.426
99,1.24,34.413,16.149,42.536,28.524,4.579,6.837,6.426
100,1.247,34.232,16.129,42.545,28.523,4.578,6.755,6.426
101,1.253,34.163,16.125,42.565,28.537,4.74,6.876,6.548
102,1.257,34.383,16.141,42.536,28.524,4.579,6.796,6.468
103,1.266,34.558,16.133,42.565,28.53,4.7,6.917,6.426
104,1.254,34.08,16.145,42.536,28.531,4.579,6.837,6.426
105,1.247,34.123,16.106,42.536,28.527,4.578,6.714,6.344
106,1.266,34.363,16.207,42.574,28.537,4.7,6.876,6.384
107,1.25,34.491,16.146,42.632,28.527,4.66,6.796,6.385
108,1.25,34.214,16.118,42.556,28.527,4.579,6.714,6.385
109,1.247,34.326,16.199,42.546,28.53,4.659,6.713,6.344
110,1.24,34.528,16.142,42.526,28.513,4.538,6.672,6.303
111,1.25,34.713,16.145,42.555,28.53,4.577,6.794,6.384
112,1.237,34.226,16.157,42.546,28.534,4.7,6.755,6.344
113,1.237,34.374,16.11,42.517,28.517,4.538,6.592,6.221
114,1.231,34.596,16.141,42.536,28.53,4.659,6.753,6.342
115,1.221,34.704,16.141,42.526,28.527,4.579,6.795,6.384
116,1.224,34.331,16.129,42.536,28.53,4.578,6.836,6.344
117,1.227,34.567,16.137,42.574,28.537,4.659,6.796,6.343
118,1.221,34.723,16.106,42.527,28.531,4.579,6.714,6.262
119,1.224,34.859,16.141,42.526,28.524,4.578,6.632,6.221
120,1.221,34.476,16.133,42.564,28.527,4.74,6.875,6.424
121,1.214,34.712,16.129,42.536,28.53,4.62,6.715,6.263
122,1.224,34.906,16.133,42.565,28.527,4.659,6.794,6.302
123,1.204,34.985,16.122,42.536,28.53,4.619,6.673,6.221
124,1.211,34.65,16.121,42.526,28.531,4.578,6.631,6.139
125,1.207,34.915,16.164,42.564,28.537,4.74,6.753,6.301
126,1.207,35.071,16.137,42.536,28.527,4.701,6.673,6.262
127,1.188,35.169,16.137,42.545,28.534,4.62,6.713,6.18
128,1.175,34.892,16.079,42.536,28.527,4.578,6.672,6.179
129,1.168,35.119,16.168,42.517,28.524,4.578,6.631,6.139
130,1.178,35.313,16.173,42.564,28.534,4.659,6.712,6.26
131,1.152,35.392,16.153,42.536,28.531,4.619,6.794,6.302
132,1.155,35.22,16.157,42.536,28.52,4.578,6.673,6.099
133,1.155,35.429,16.098,42.545,28.53,4.578,6.713,6.219
134,1.135,35.585,16.152,42.622,28.527,4.496,6.794,6.22
135,1.138,35.682,16.153,42.527,28.534,4.618,6.755,6.22
136,1.125,35.463,16.18,42.555,28.537,4.578,6.836,6.261
137,1.125,35.643,16.114,42.507,28.527,4.496,6.755,6.139
138,1.116,35.827,16.137,42.536,28.53,4.577,6.795,6.179
139,1.096,35.809,16.153,42.498,28.531,4.7,6.877,6.261
140,1.096,35.799,16.149,42.535,28.531,4.62,6.877,6.221
141,1.086,36.03,16.11,42.526,28.537,4.659,6.877,6.261
142,1.07,36.137,16.117,42.497,28.524,4.579,6.837,6.139
143,1.066,36.177,16.157,42.497,28.527,4.537,6.755,6.057
144,1.066,36.033,16.137,42.555,28.537,4.659,6.957,6.3
145,1.069,36.243,16.153,42.517,28.534,4.619,6.878,6.18
146,1.06,36.389,16.133,42.555,28.541,4.659,6.837,6.22
147,1.037,36.371,16.125,42.536,28.541,4.619,6.837,6.139
148,1.02,36.38,16.114,42.517,28.531,4.537,6.755,6.098
149,1.023,36.601,16.168,42.564,28.541,4.699,6.876,6.178
150,1.004,36.728,16.122,42.536,28.538,4.62,6.877,6.179
151,0.997,36.614,16.133,42.536,28.531,4.578,6.755,6.139
152,0.987,36.699,16.129,42.526,28.534,4.578,6.754,6.138
153,0.974,36.892,16.145,42.507,28.524,4.537,6.754,6.138
154,0.971,37.066,16.118,42.631,28.534,4.577,6.795,6.219
155,0.964,36.905,16.125,42.537,28.537,4.659,6.877,6.261
156,0.951,37.038,16.18,42.517,28.527,4.538,6.593,6.139
157,0.958,37.25,16.024,42.536,28.53,4.577,6.753,6.098
158,0.945,37.339,16.089,42.517,28.531,4.578,6.795,6.178
159,0.948,37.186,16.16,42.516,28.531,4.578,6.673,6.179
160,0.945,37.367,16.188,42.526,28.544,4.659,6.713,6.22
161,0.935,37.541,16.134,42.497,28.52,4.457,6.632,6.098
162,0.931,37.677,16.145,42.516,28.534,4.617,6.631,6.178
163,0.918,37.42,16.153,42.526,28.531,4.619,6.753,6.261
164,0.925,37.637,16.133,42.507,28.531,4.659,6.754,6.139
165,0.915,37.851,16.129,42.536,28.541,4.66,6.795,6.138
166,0.905,37.891,16.168,42.488,28.527,4.538,6.714,6.098
167,0.899,37.7,16.134,42.516,28.527,4.537,6.713,6.097
168,0.882,37.918,16.118,42.536,28.534,4.699,6.754,6.3
169,0.879,38.103,16.121,42.526,28.537,4.579,6.714,6.18
170,0.879,38.191,16.094,42.536,28.538,4.618,6.713,6.22
171,0.859,38.058,16.129,42.517,28.534,4.578,6.632,6.139
172,0.859,38.267,16.106,42.516,28.524,4.537,6.59,6.057
173,0.866,38.461,16.176,42.545,28.544,4.74,6.753,6.178
174,0.846,38.521,16.052,42.536,28.534,4.62,6.673,6.22
175,0.853,38.31,16.132,42.517,28.537,4.659,6.55,6.139
176,0.84,38.49,16.18,42.497,28.534,4.579,6.59,6.138
177,0.843,38.626,16.079,42.497,28.527,4.537,6.549,6.057
178,0.856,38.752,16.137,42.545,28.541,4.659,6.59,6.219
179,0.843,38.619,16.18,42.517,28.534,4.619,6.631,6.139
180,0.849,38.829,16.122,42.516,28.531,4.497,6.468,6.057
181,0.843,38.994,16.137,42.516,28.531,4.577,6.589,6.137
182,0.843,39.005,16.145,42.507,28.52,4.537,6.509,6.138
183,0.846,38.804,16.133,42.507,28.53,4.659,6.589,6.138
184,0.846,39.013,16.149,42.536,28.537,4.619,6.671,6.179
185,0.836,39.149,16.102,42.488,28.531,4.415,6.469,6.057
186,0.833,39.381,16.18,42.507,28.527,4.535,6.467,6.056
187,0.826,39.028,16.118,42.536,28.53,4.618,6.589,6.178
188,0.82,39.226,16.117,42.536,28.531,4.619,6.509,6.139
189,0.82,39.382,16.172,42.526,28.531,4.659,6.589,6.179
190,0.807,39.297,16.149,42.478,28.527,4.619,6.509,6.139
191,0.813,39.248,16.102,42.507,28.53,4.537,6.467,6.057
192,0.803,39.449,16.137,42.526,28.544,4.699,6.589,6.219
193,0.813,39.585,16.141,42.517,28.538,4.62,6.509,6.139
194,0.807,39.452,16.126,42.622,28.541,4.7,6.508,6.138
195,0.807,39.461,16.141,42.518,28.531,4.66,6.427,6.098
196,0.8,39.662,16.157,42.507,28.527,4.497,6.426,6.016
197,0.803,39.808,16.091,42.555,28.555,4.699,6.548,6.218
198,0.803,39.407,16.141,42.517,28.538,4.66,6.427,6.058
199,0.813,39.518,16.176,42.507,28.534,4.538,6.466,6.056
200,0.813,39.701,16.157,42.507,28.531,4.537,6.467,6.056
201,0.81,39.799,16.114,42.497,28.527,4.537,6.386,6.056
202,0.816,39.617,16.145,42.535,28.537,4.659,6.547,6.056
203,0.81,39.75,16.153,42.517,28.538,4.66,6.508,6.178
204,0.813,39.943,16.137,42.497,28.527,4.538,6.467,6.017
205,0.813,40.05,16.153,42.497,28.53,4.618,6.467,6.015
206,0.794,39.649,16.133,42.478,28.524,4.578,6.548,6.015
207,0.803,39.884,16.153,42.593,28.53,4.618,6.712,6.096
208,0.803,40.05,16.114,42.508,28.534,4.659,6.713,6.097
209,0.797,40.128,16.168,42.468,28.524,4.497,6.632,5.975
210,0.797,39.822,16.161,42.497,28.523,4.577,6.672,6.055
211,0.794,40.011,16.13,42.516,28.534,4.7,6.835,6.219
212,0.787,40.204,16.11,42.507,28.537,4.66,6.714,6.098
213,0.79,40.312,16.129,42.507,28.541,4.7,6.876,6.056
214,0.78,39.814,16.086,42.507,28.534,4.62,6.796,6.137
215,0.79,40.03,16.133,42.488,28.531,4.537,6.673,6.098
216,0.793,40.233,16.153,42.545,28.541,4.74,6.916,6.219
217,0.793,40.274,16.114,42.498,28.538,4.62,6.756,6.139
218,0.8,39.9,16.141,42.507,28.538,4.659,6.795,6.138
219,0.8,40.088,16.129,42.497,28.534,4.619,6.755,6.138
220,0.794,40.244,16.141,42.507,28.527,4.537,6.714,6.098
221,0.819,40.341,16.137,42.516,28.537,4.659,6.794,6.178
222,0.8,40.026,16.129,42.497,28.534,4.619,6.755,6.22
223,0.813,40.262,16.141,42.497,28.531,4.497,6.714,6.058
224,0.81,40.408,16.02,42.516,28.537,4.577,6.794,6.056
225,0.797,40.448,16.12,42.488,28.534,4.618,6.795,6.219
226,0.807,39.892,16.192,42.487,28.531,4.7,6.795,6.139
227,0.794,40.107,16.071,42.526,28.537,4.66,6.877,6.179
228,0.793,40.244,16.105,42.478,28.517,4.497,6.755,6.179
229,0.797,40.284,16.137,42.487,28.53,4.577,6.876,6.139
230,0.79,39.987,16.102,42.497,28.534,4.659,7.0,6.219
231,0.79,40.195,16.16,42.507,28.537,4.579,7.001,6.18
232,0.793,40.369,16.122,42.507,28.538,4.659,7.123,6.22
233,0.787,40.314,16.16,42.459,28.524,4.66,7.043,6.22
234,0.793,40.045,16.044,42.497,28.523,4.619,7.001,6.139
235,0.797,40.253,16.14,42.535,28.544,4.781,7.285,6.382
236,0.787,40.399,16.153,42.507,28.538,4.702,7.166,6.303
237,0.8,40.151,16.11,42.497,28.538,4.66,7.287,6.221
238,0.807,40.043,16.129,42.507,28.531,4.619,7.247,6.22
239,0.8,40.234,16.125,42.497,28.527,4.619,7.206,6.22
240,0.816,40.399,16.176,42.535,28.544,4.781,7.328,6.261
241,0.81,39.93,16.095,42.507,28.534,4.62,7.37,6.262
242,0.813,39.983,16.168,42.507,28.534,4.659,7.37,6.18
243,0.813,40.166,16.134,42.497,28.534,4.66,7.411,6.261
244,0.803,40.302,16.122,42.497,28.527,4.579,7.33,6.139
245,0.826,39.862,16.145,42.497,28.534,4.659,7.492,6.179
246,0.817,39.963,16.153,42.497,28.534,4.66,7.534,6.179
247,0.813,40.146,16.048,42.497,28.531,4.497,7.412,6.139
248,0.803,40.283,16.117,42.488,28.527,4.618,7.493,6.219
249,0.8,39.776,16.129,42.497,28.524,4.578,7.412,6.261
250,0.807,39.962,16.161,42.488,28.53,4.618,7.493,6.221
251,0.8,40.156,16.13,42.507,28.534,4.741,7.534,6.302
252,0.8,40.235,16.141,42.478,28.524,4.539,7.372,6.18
253,0.8,39.66,16.149,42.478,28.527,4.577,7.411,6.139
254,0.79,39.856,16.137,42.545,28.534,4.7,7.615,6.382
255,0.806,40.05,16.168,42.478,28.527,4.66,7.454,6.263
256,0.8,40.147,16.165,42.497,28.537,4.66,7.452,6.302
257,0.787,39.726,16.052,42.478,28.527,4.619,7.371,6.302
258,0.81,39.933,16.078,42.497,28.53,4.578,7.289,6.18
259,0.81,40.127,16.176,42.516,28.537,4.74,7.491,6.342
260,0.813,40.215,16.122,42.497,28.527,4.62,7.371,6.262
261,0.816,39.554,16.141,42.497,28.53,4.659,7.33,6.343
262,0.813,39.749,16.118,42.497,28.527,4.7,7.248,6.221
263,0.81,39.953,16.149,42.468,28.527,4.579,7.206,6.18
264,0.826,40.041,16.149,42.516,28.537,4.822,7.409,6.342
265,0.826,39.582,16.106,42.478,28.534,4.702,7.167,6.221
266,0.823,39.788,16.16,42.497,28.534,4.701,7.206,6.22
267,0.82,39.982,16.13,42.545,28.537,4.66,7.084,6.261
268,0.813,39.993,16.118,42.459,28.531,4.579,7.002,6.262
269,0.826,39.466,16.188,42.516,28.537,4.74,7.123,6.262
270,0.804,39.633,16.138,42.478,28.534,4.661,7.124,6.343
271,0.81,39.808,16.137,42.487,28.537,4.619,7.002,6.181
272,0.807,39.829,16.164,42.478,28.531,4.659,7.001,6.22
273,0.797,39.416,16.114,42.459,28.527,4.579,6.919,6.22
274,0.816,39.7,16.153,42.516,28.53,4.7,6.959,6.302
275,0.813,39.799,16.083,42.478,28.537,4.701,7.041,6.384
276,0.803,39.8,16.183,42.468,28.527,4.498,6.839,6.141
277,0.8,39.32,16.153,42.478,28.53,4.577,6.958,6.219
278,0.807,39.498,16.102,42.487,28.534,4.7,6.878,6.342
279,0.803,39.653,16.168,42.497,28.534,4.66,6.877,6.303
280,0.813,39.491,16.141,42.468,28.541,4.66,6.918,6.343
281,0.813,39.26,16.133,42.449,28.524,4.538,6.837,6.262
282,0.813,39.478,16.149,42.477,28.527,4.537,6.755,6.221
283,0.816,39.633,16.133,42.497,28.541,4.74,6.998,6.424
284,0.823,39.242,16.122,42.478,28.538,4.661,6.879,6.304
285,0.826,39.228,16.145,42.487,28.538,4.66,6.755,6.302
286,0.82,39.372,16.129,42.449,28.538,4.7,6.714,6.262
287,0.813,39.527,16.094,42.477,28.527,4.579,6.632,6.18
288,0.823,39.049,16.152,42.535,28.541,4.822,6.794,6.342
289,0.82,39.13,16.192,42.478,28.531,4.702,6.633,6.384
290,0.817,39.323,16.177,42.487,28.541,4.701,6.712,6.303
291,0.813,39.459,16.11,42.468,28.531,4.66,6.672,6.302
292,0.8,39.0,16.153,42.449,28.527,4.579,6.591,6.221
293,0.826,39.226,16.165,42.497,28.537,4.7,6.671,6.302
294,0.81,39.372,16.083,42.478,28.538,4.66,6.672,6.384
295,0.813,39.498,16.113,42.459,28.527,4.579,6.469,6.141
296,0.816,38.857,16.129,42.468,28.534,4.659,6.548,6.219
297,0.81,39.023,16.098,42.458,28.527,4.66,6.549,6.302
298,0.826,39.245,16.16,42.478,28.534,4.66,6.63,6.302
299,0.82,39.343,16.149,42.478,28.537,4.66,6.59,6.343
300,0.817,38.692,16.165,42.43,28.527,4.538,6.468,6.303
301,0.823,38.925,16.114,42.468,28.534,4.577,6.467,6.302
302,0.82,39.1,16.156,42.478,28.537,4.74,6.507,6.465
303,0.817,39.217,16.149,42.478,28.538,4.62,6.549,6.345
304,0.836,38.71,16.141,42.487,28.538,4.7,6.671,6.343
305,0.813,38.887,16.137,42.459,28.534,4.701,6.509,6.221
306,0.82,39.052,16.161,42.458,28.524,4.66,6.467,6.261
307,0.826,39.169,16.036,42.525,28.544,4.7,6.711,6.384
308,0.823,38.595,16.132,42.478,28.538,4.701,6.51,6.222
309,0.823,38.809,16.164,42.468,28.538,4.742,6.589,6.342
310,0.813,38.965,16.157,42.478,28.538,4.661,6.549,6.262
311,0.803,39.043,16.106,42.459,28.531,4.538,6.508,6.18
312,0.823,38.517,16.164,42.497,28.541,4.699,6.63,6.342
313,0.807,38.722,16.137,42.468,28.531,4.66,6.631,6.303
314,0.807,38.897,16.149,42.545,28.531,4.66,6.59,6.221
315,0.813,38.937,16.145,42.469,28.527,4.619,6.59,6.22
316,0.803,38.429,16.145,42.449,28.524,4.537,6.549,6.261
317,0.807,38.674,16.149,42.516,28.537,4.659,6.671,6.302
318,0.81,38.83,16.11,42.497,28.531,4.66,6.631,6.343
319,0.816,38.86,16.145,42.459,28.531,4.579,6.509,6.181
320,0.82,38.323,16.129,42.468,28.531,4.578,6.549,6.301
321,0.81,38.548,16.094,42.449,28.527,4.578,6.508,6.262
322,0.829,38.704,16.156,42.468,28.534,4.618,6.549,6.302
323,0.823,38.782,16.157,42.468,28.544,4.659,6.63,6.302
324,0.813,38.236,16.126,42.439,28.527,4.538,6.428,6.14
325,0.813,38.461,16.153,42.458,28.534,4.577,6.548,6.179
326,0.816,38.588,16.157,42.43,28.534,4.578,6.549,6.261
327,0.813,38.292,16.094,42.477,28.531,4.578,6.508,6.221
328,0.816,38.116,16.148,42.468,28.537,4.7,6.549,6.22
329,0.797,38.287,16.137,42.449,28.52,4.579,6.468,6.22
330,0.8,38.432,16.176,42.468,28.53,4.578,6.507,6.18
331,0.797,38.06,16.13,42.468,28.537,4.74,6.589,6.383
332,0.794,38.104,16.153,42.468,28.531,4.701,6.468,6.303
333,0.793,38.306,16.161,42.468,28.534,4.701,6.589,6.343
334,0.777,38.433,16.094,42.516,28.534,4.66,6.509,6.221
335,0.803,37.744,16.152,42.469,28.531,4.579,6.427,6.261
336,0.8,37.871,16.161,42.478,28.544,4.74,6.629,6.384
337,0.807,38.064,16.098,42.468,28.538,4.661,6.468,6.263
338,0.8,38.21,16.109,42.478,28.538,4.619,6.467,6.262
339,0.8,37.856,16.106,42.468,28.531,4.659,6.467,6.221
340,0.8,38.025,16.141,42.439,28.524,4.619,6.345,6.22
341,0.807,38.267,16.176,42.497,28.548,4.781,6.506,6.302
342,0.81,38.346,16.122,42.468,28.541,4.62,6.467,6.343
343,0.807,37.618,16.157,42.478,28.538,4.619,6.386,6.262
344,0.803,37.793,16.133,42.459,28.534,4.537,6.385,6.221
345,0.803,37.967,16.153,42.43,28.527,4.537,6.303,6.261
346,0.813,38.113,16.184,42.468,28.537,4.74,6.343,6.302
347,0.807,37.549,16.149,42.545,28.534,4.701,6.466,6.302
348,0.807,37.754,16.137,42.45,28.52,4.498,6.264,6.14
349,0.807,37.909,16.137,42.449,28.523,4.658,6.343,6.26
350,0.787,38.016,16.137,42.439,28.53,4.66,6.384,6.343
351,0.787,37.452,16.141,42.449,28.541,4.66,6.385,6.221
352,0.793,37.676,16.137,42.468,28.531,4.7,6.466,6.302
353,0.78,37.832,16.141,42.43,28.531,4.579,6.264,6.221
354,0.793,37.939,16.09,42.458,28.531,4.537,6.343,6.22
355,0.787,37.413,16.102,42.458,28.537,4.699,6.466,6.464
356,0.793,37.637,16.188,42.458,28.531,4.579,6.345,6.345
357,0.8,37.793,16.064,42.468,28.534,4.659,6.384,6.343
358,0.781,37.852,16.129,42.439,28.534,4.7,6.222,6.221
359,0.797,37.431,16.141,42.439,28.524,4.66,6.302,6.18
360,0.807,37.666,16.137,42.477,28.544,4.782,6.465,6.342
361,0.794,37.813,16.133,42.459,28.538,4.661,6.386,6.343
362,0.8,37.872,16.125,42.458,28.531,4.66,6.303,6.262
363,0.787,37.287,16.133,42.449,28.534,4.619,6.343,6.343
364,0.793,37.473,16.168,42.525,28.527,4.537,6.343,6.221
365,0.803,37.696,16.126,42.478,28.541,4.74,6.425,6.302
366,0.8,37.679,16.18,42.459,28.531,4.661,6.426,6.384
367,0.797,37.209,16.017,42.478,28.531,4.619,6.385,6.222
368,0.784,37.453,16.105,42.439,28.531,4.659,6.385,6.302
369,0.78,37.58,16.18,42.439,28.524,4.538,6.425,6.262
370,0.797,37.534,16.11,42.468,28.53,4.659,6.385,6.302
371,0.784,37.245,16.176,42.449,28.537,4.741,6.547,6.343
372,0.787,37.473,16.126,42.43,28.52,4.539,6.305,6.221
373,0.777,37.609,16.137,42.449,28.527,4.618,6.384,6.22
374,0.767,37.246,16.125,42.497,28.524,4.619,6.466,6.342
375,0.777,37.166,16.094,42.459,28.534,4.619,6.507,6.343
376,0.784,37.376,16.172,42.458,28.537,4.659,6.508,6.425
377,0.774,37.503,16.13,42.439,28.52,4.538,6.386,6.344
378,0.78,37.005,16.121,42.449,28.527,4.577,6.425,6.221
379,0.784,37.048,16.176,42.468,28.537,4.659,6.548,6.424
380,0.787,37.26,16.141,42.449,28.538,4.66,6.468,6.385
381,0.777,37.396,16.126,42.468,28.527,4.7,6.548,6.385
382,0.777,36.956,16.164,42.449,28.53,4.62,6.549,6.263
383,0.787,37.134,16.102,42.449,28.527,4.537,6.468,6.221
384,0.79,37.347,16.149,42.468,28.544,4.699,6.629,6.383
385,0.787,37.464,16.11,42.458,28.538,4.66,6.509,6.303
386,0.793,36.909,16.145,42.439,28.538,4.66,6.508,6.302
387,0.784,37.114,16.122,42.497,28.538,4.619,6.467,6.302
388,0.774,37.299,16.094,42.43,28.527,4.497,6.467,6.262
389,0.79,37.425,16.203,42.496,28.544,4.658,6.629,6.221
390,0.78,36.928,16.157,42.449,28.538,4.66,6.55,6.342
391,0.777,37.153,16.133,42.458,28.531,4.579,6.468,6.221
392,0.771,37.347,16.129,42.43,28.537,4.578,6.467,6.22
393,0.761,37.407,16.125,42.429,28.524,4.578,6.548,6.22
394,0.787,36.813,16.133,42.449,28.53,4.659,6.549,6.302
395,0.774,37.027,16.149,42.458,28.537,4.619,6.63,6.302
396,0.764,37.173,16.122,42.42,28.524,4.537,6.509,6.221
397,0.77,37.271,16.032,42.458,28.534,4.577,6.427,6.22
398,0.767,36.974,16.12,42.449,28.531,4.618,6.548,6.383
399,0.783,37.192,16.137,42.468,28.531,4.659,6.549,6.344
400,0.784,37.386,16.153,42.468,28.531,4.7,6.549,6.303
401,0.764,37.417,16.09,42.43,28.531,4.62,6.549,6.302
402,0.777,36.899,16.133,42.429,28.527,4.578,6.386,6.221
403,0.787,37.124,16.141,42.496,28.551,4.822,6.669,6.464
404,0.78,37.289,16.11,42.459,28.534,4.702,6.55,6.304
405,0.784,37.358,16.113,42.449,28.537,4.66,6.63,6.262
406,0.777,36.899,16.16,42.449,28.531,4.619,6.55,6.262
407,0.764,37.134,16.145,42.506,28.527,4.537,6.508,6.221
408,0.777,37.318,16.161,42.468,28.537,4.659,6.589,6.342
409,0.771,37.33,16.137,42.468,28.538,4.619,6.631,6.303
410,0.767,36.927,16.125,42.449,28.531,4.659,6.55,6.18
411,0.764,37.124,16.125,42.439,28.531,4.579,6.59,6.301
412,0.761,37.261,16.125,42.42,28.527,4.618,6.631,6.262
413,0.783,37.569,16.16,42.458,28.537,4.578,6.672,6.262
414,0.764,37.044,16.122,42.497,28.527,4.659,6.753,6.343
415,0.764,37.231,16.141,42.43,28.52,4.538,6.551,6.181
416,0.767,37.405,16.188,42.449,28.53,4.537,6.63,6.22
417,0.761,37.139,16.075,42.439,28.531,4.577,6.672,6.261
418,0.774,36.935,16.133,42.458,28.527,4.659,6.631,6.343
419,0.774,37.134,16.164,42.449,28.537,4.619,6.631,6.303
420,0.764,37.261,16.126,42.42,28.524,4.497,6.59,6.221
421,0.767,37.061,16.129,42.439,28.523,4.577,6.59,6.261
422,0.764,37.078,16.121,42.449,28.534,4.7,6.753,6.384
423,0.774,37.308,16.157,42.439,28.537,4.62,6.673,6.303
424,0.771,37.473,16.141,42.497,28.531,4.619,6.753,6.302
425,0.764,36.919,16.122,42.42,28.534,4.578,6.673,6.262
426,0.774,37.038,16.188,42.42,28.527,4.578,6.713,6.18
427,0.764,37.26,16.122,42.477,28.544,4.74,6.876,6.383
428,0.751,37.377,16.141,42.468,28.531,4.661,6.796,6.263
429,0.757,36.995,16.161,42.449,28.531,4.66,6.755,6.302
430,0.761,37.154,16.141,42.439,28.527,4.619,6.795,6.302
431,0.757,37.366,16.126,42.42,28.524,4.537,6.714,6.262
432,0.761,37.522,16.137,42.468,28.544,4.659,6.835,6.262
433,0.764,36.996,16.157,42.439,28.531,4.619,6.877,6.302
434,0.761,37.202,16.126,42.497,28.531,4.578,6.755,6.221
435,0.754,37.386,16.114,42.44,28.527,4.618,6.836,6.261
436,0.761,37.465,16.203,42.439,28.524,4.537,6.755,6.302
437,0.777,37.053,16.087,42.449,28.537,4.659,6.836,6.343
438,0.761,37.25,16.148,42.449,28.541,4.66,6.918,6.303
439,0.77,37.406,16.176,42.43,28.524,4.497,6.756,6.14
440,0.767,37.513,16.138,42.458,28.53,4.618,6.836,6.219
441,0.767,37.121,16.161,42.439,28.531,4.659,6.918,6.342
442,0.78,37.347,16.106,42.439,28.531,4.7,6.878,6.343
443,0.774,37.531,16.129,42.458,28.534,4.701,6.918,6.343
444,0.764,37.562,16.129,42.42,28.524,4.579,6.837,6.181
445,0.774,37.073,16.114,42.41,28.53,4.537,6.877,6.179
446,0.764,37.27,16.18,42.42,28.537,4.699,7.04,6.423
447,0.764,37.473,16.009,42.448,28.534,4.62,6.879,6.304
448,0.764,37.552,16.097,42.458,28.537,4.659,6.959,6.343
449,0.751,37.226,16.191,42.439,28.531,4.619,6.838,6.262
450,0.764,37.434,16.114,42.42,28.527,4.578,6.796,6.18
451,0.764,37.628,16.172,42.487,28.544,4.74,6.958,6.383
452,0.751,37.697,16.122,42.459,28.538,4.579,6.878,6.222
453,0.767,37.257,16.164,42.458,28.534,4.659,6.918,6.261
454,0.748,37.463,16.036,42.478,28.534,4.619,6.837,6.262
455,0.76,37.609,16.089,42.42,28.524,4.578,6.837,6.221
456,0.774,37.678,16.16,42.458,28.544,4.7,6.755,6.342
457,0.758,37.228,16.137,42.458,28.538,4.62,6.876,6.303
458,0.764,37.453,16.114,42.43,28.534,4.578,6.755,6.18
459,0.761,37.59,16.16,42.439,28.531,4.578,6.836,6.301
460,0.764,37.562,16.114,42.429,28.531,4.578,6.796,6.221
461,0.767,37.303,16.153,42.449,28.531,4.618,6.836,6.302
462,0.764,37.512,16.133,42.439,28.544,4.619,6.796,6.302
463,0.761,37.629,16.106,42.42,28.527,4.497,6.714,6.221
464,0.77,37.429,16.168,42.42,28.537,4.618,6.713,6.18
465,0.767,37.34,16.106,42.439,28.534,4.619,6.876,6.383
466,0.77,37.56,16.188,42.429,28.534,4.659,6.796,6.222
467,0.77,37.706,16.095,42.449,28.541,4.7,6.836,6.342
468,0.761,37.362,16.109,42.41,28.524,4.579,6.714,6.303
469,0.764,37.445,16.156,42.42,28.534,4.537,6.632,6.221
470,0.774,37.686,16.145,42.458,28.551,4.699,6.875,6.464
471,0.764,37.784,16.157,42.439,28.538,4.62,6.755,6.304
472,0.767,37.277,16.149,42.439,28.541,4.659,6.714,6.262
473,0.761,37.387,16.114,42.429,28.531,4.579,6.672,6.262
474,0.751,37.58,16.02,42.458,28.531,4.578,6.672,6.221
475,0.783,37.735,16.136,42.468,28.541,4.7,6.794,6.261
476,0.767,37.267,16.153,42.439,28.534,4.66,6.714,6.302
477,0.783,37.463,16.071,42.439,28.531,4.619,6.632,6.221
478,0.793,37.648,16.066,42.439,28.531,4.619,6.712,6.302
479,0.793,37.736,16.156,42.42,28.531,4.497,6.713,6.262
480,0.823,37.295,16.137,42.458,28.531,4.577,6.794,6.262
481,0.82,37.473,16.141,42.449,28.531,4.618,6.714,6.262
482,0.849,37.676,16.145,42.42,28.524,4.578,6.672,6.18
483,0.856,37.755,16.137,42.429,28.53,4.537,6.753,6.261
484,0.853,37.219,16.098,42.41,28.527,4.577,6.795,6.262
485,0.872,37.463,16.141,42.42,28.53,4.578,6.673,6.262
486,0.866,37.638,16.161,42.439,28.544,4.659,6.753,6.262
487,0.846,37.726,16.13,42.516,28.527,4.497,6.632,6.262
488,0.843,37.295,16.09,42.44,28.53,4.618,6.672,6.221
489,0.843,37.483,16.109,42.429,28.537,4.619,6.753,6.383
490,0.849,37.686,16.16,42.429,28.541,4.619,6.836,6.303
491,0.853,37.774,16.114,42.458,28.541,4.7,6.755,6.343
492,0.853,37.401,16.156,42.401,28.527,4.538,6.714,6.221
493,0.859,37.647,16.075,42.419,28.524,4.618,6.672,6.261
494,0.849,37.832,16.152,42.477,28.544,4.7,6.835,6.546
495,0.866,37.891,16.141,42.43,28.538,4.66,6.714,6.346
496,0.866,37.335,16.188,42.439,28.534,4.7,6.754,6.303
497,0.872,37.531,16.091,42.439,28.531,4.62,6.714,6.302
498,0.879,37.696,16.145,42.42,28.531,4.537,6.591,6.18
499,0.905,37.775,16.145,42.477,28.548,4.699,6.753,6.301
500,0.892,37.382,16.129,42.439,28.531,4.66,6.714,6.262
501,0.886,37.599,16.106,42.429,28.534,4.66,6.754,6.221
502,0.885,37.764,16.129,42.42,28.534,4.619,6.795,6.22
503,0.879,37.737,16.153,42.42,28.527,4.497,6.673,6.22
504,0.889,37.363,16.13,42.515,28.537,4.699,6.794,6.261
505,0.859,37.541,16.153,42.44,28.538,4.742,6.795,6.343
506,0.859,37.667,16.161,42.391,28.527,4.498,6.633,6.14
507,0.856,37.573,16.11,42.439,28.53,4.618,6.712,6.219
508,0.84,37.361,16.129,42.429,28.541,4.7,6.794,6.383
509,0.846,37.57,16.172,42.429,28.538,4.66,6.877,6.303
510,0.853,37.735,16.126,42.449,28.541,4.741,6.837,6.343
511,0.846,37.382,16.145,42.42,28.534,4.661,6.796,6.221
512,0.859,37.388,16.114,42.41,28.527,4.538,6.714,6.22
513,0.869,37.618,16.172,42.477,28.551,4.821,6.876,6.302
514,0.859,37.735,16.161,42.439,28.534,4.702,6.796,6.343
515,0.866,37.219,16.11,42.429,28.531,4.742,6.795,6.221
516,0.869,37.3,16.184,42.429,28.531,4.661,6.836,6.302
517,0.863,37.483,16.044,42.439,28.527,4.579,6.714,6.221
518,0.885,37.676,16.16,42.468,28.544,4.659,6.916,6.22
519,0.876,37.276,16.153,42.43,28.538,4.66,6.837,6.261
520,0.882,37.444,16.13,42.439,28.527,4.619,6.755,6.139
521,0.885,37.619,16.129,42.41,28.53,4.659,6.795,6.219
522,0.879,37.726,16.11,42.41,28.531,4.579,6.755,6.22
523,0.892,37.104,16.121,42.439,28.541,4.659,6.836,6.302
524,0.895,37.299,16.168,42.439,28.538,4.7,6.877,6.302
525,0.882,37.473,16.114,42.42,28.517,4.538,6.674,6.18
526,0.892,37.571,16.168,42.429,28.53,4.537,6.794,6.139
527,0.879,37.092,16.145,42.429,28.531,4.699,6.836,6.301
528,0.872,37.308,16.129,42.429,28.544,4.579,6.837,6.262
529,0.885,37.493,16.161,42.429,28.538,4.74,6.837,6.302
530,0.869,37.562,16.098,42.401,28.527,4.661,6.796,6.18
531,0.879,37.054,16.125,42.419,28.537,4.619,6.714,6.139
532,0.879,37.279,16.145,42.42,28.538,4.781,6.916,6.382
533,0.872,37.463,16.157,42.42,28.534,4.661,6.837,6.181
534,0.856,37.552,16.141,42.448,28.541,4.619,6.837,6.22
535,0.859,37.131,16.114,42.43,28.534,4.619,6.837,6.22
536,0.859,37.347,16.121,42.41,28.527,4.537,6.714,6.139
537,0.859,37.56,16.09,42.458,28.551,4.74,6.876,6.301
538,0.866,37.62,16.078,42.42,28.538,4.701,6.837,6.262
539,0.866,36.978,16.168,42.439,28.538,4.62,6.755,6.139
540,0.843,37.192,16.145,42.42,28.538,4.619,6.714,6.179
541,0.833,37.357,16.11,42.391,28.534,4.537,6.672,6.057
542,0.839,37.474,16.168,42.458,28.541,4.74,6.753,6.137
543,0.83,37.015,16.13,42.42,28.538,4.701,6.673,6.219
544,0.826,37.231,16.141,42.525,28.527,4.579,6.631,6.139
545,0.81,37.396,16.137,42.43,28.524,4.578,6.631,6.179
546,0.807,37.417,16.141,42.391,28.527,4.578,6.631,6.179
547,0.81,36.947,16.044,42.429,28.537,4.7,6.672,6.179
548,0.79,37.163,16.136,42.429,28.538,4.66,6.713,6.22
549,0.787,37.309,16.161,42.401,28.527,4.579,6.469,6.139
550,0.771,37.454,16.157,42.41,28.53,4.618,6.629,6.138
551,0.764,37.034,16.098,42.42,28.531,4.619,6.631,6.26
552,0.761,37.26,16.156,42.42,28.534,4.659,6.59,6.18
553,0.757,37.425,16.122,42.42,28.541,4.66,6.59,6.22
554,0.751,37.091,16.133,42.401,28.527,4.538,6.509,6.139
555,0.757,36.963,16.133,42.419,28.527,4.618,6.549,6.138
556,0.741,37.144,16.161,42.429,28.548,4.741,6.752,6.341
557,0.757,37.309,16.067,42.429,28.541,4.701,6.632,6.262
558,0.767,36.956,16.136,42.42,28.541,4.66,6.672,6.221
559,0.741,36.962,16.129,42.41,28.538,4.579,6.55,6.22
560,0.757,37.173,16.141,42.391,28.531,4.578,6.508,6.139
561,0.754,37.347,16.129,42.448,28.548,4.781,6.752,6.341
562,0.761,36.697,16.137,42.43,28.531,4.742,6.632,6.14
563,0.757,36.844,16.161,42.429,28.537,4.661,6.631,6.219
564,0.754,37.018,16.141,42.42,28.534,4.619,6.55,6.139
565,0.751,37.135,16.129,42.381,28.527,4.537,6.468,6.016
566,0.757,36.858,16.18,42.448,28.534,4.781,6.629,6.218
567,0.718,37.018,16.083,42.449,28.537,4.62,6.631,6.261
568,0.741,37.231,16.141,42.43,28.538,4.659,6.55,6.099
569,0.741,37.338,16.157,42.41,28.534,4.66,6.59,6.219
570,0.728,36.534,16.161,42.381,28.527,4.579,6.468,6.017
571,0.731,36.804,16.153,42.448,28.534,4.578,6.629,6.218
572,0.725,36.979,16.122,42.43,28.537,4.7,6.631,6.22
573,0.721,37.086,16.141,42.41,28.524,4.498,6.468,6.098
574,0.721,36.599,16.122,42.41,28.527,4.618,6.548,6.219
575,0.708,36.785,16.11,42.4,28.527,4.537,6.59,6.22
576,0.724,36.998,16.203,42.391,28.541,4.659,6.59,6.22
577,0.728,37.077,16.021,42.429,28.541,4.66,6.631,6.22
578,0.725,36.388,16.097,42.381,28.524,4.497,6.468,6.22
579,0.728,36.611,16.148,42.41,28.527,4.618,6.589,6.18
580,0.721,36.795,16.122,42.41,28.541,4.659,6.631,6.261
581,0.715,36.883,16.141,42.41,28.531,4.66,6.631,6.262
582,0.718,36.51,16.106,42.42,28.541,4.7,6.631,6.302
583,0.721,36.698,16.129,42.381,28.534,4.66,6.631,6.302
584,0.731,36.911,16.133,42.458,28.531,4.619,6.55,6.18
585,0.731,36.971,16.122,42.43,28.541,4.741,6.671,6.342
586,0.721,36.377,16.176,42.42,28.538,4.701,6.672,6.221
587,0.718,36.63,16.091,42.429,28.541,4.701,6.672,6.342
588,0.708,36.767,16.09,42.42,28.541,4.62,6.672,6.221
589,0.715,36.825,16.176,42.401,28.531,4.578,6.469,6.18
590,0.708,36.49,16.141,42.439,28.544,4.781,6.792,6.342
591,0.708,36.688,16.133,42.439,28.531,4.62,6.673,6.262
592,0.715,36.863,16.122,42.42,28.537,4.659,6.672,6.221
593,0.718,36.884,16.114,42.42,28.527,4.538,6.631,6.139
594,0.702,36.347,16.11,42.401,28.53,4.537,6.631,6.138
595,0.721,36.61,16.153,42.439,28.544,4.659,6.672,6.219
596,0.711,36.728,16.192,42.42,28.541,4.7,6.672,6.342
597,0.718,37.046,16.099,42.401,28.534,4.579,6.55,6.14
598,0.715,37.212,16.137,42.4,28.531,4.578,6.63,6.138
599,0.708,37.396,16.137,42.4,28.527,4.578,6.631,6.219
600,0.724,37.58,16.176,42.419,28.53,4.659,6.672,6.22
601,0.718,36.249,16.106,42.42,28.544,4.579,6.713,6.261
602,0.718,35.938,16.121,42.391,28.524,4.537,6.551,6.139
603,0.718,36.156,16.118,42.419,28.527,4.618,6.59,6.219
604,0.715,36.302,16.071,42.429,28.537,4.619,6.753,6.261
605,0.721,36.284,16.117,42.41,28.541,4.619,6.673,6.221
606,0.724,36.428,16.137,42.429,28.538,4.659,6.753,6.261
607,0.711,36.573,16.063,42.391,28.524,4.619,6.673,6.139
608,0.724,36.737,16.14,42.4,28.527,4.578,6.55,6.138
609,0.721,36.058,16.168,42.429,28.551,4.74,6.793,6.301
610,0.718,36.185,16.138,42.41,28.538,4.579,6.592,6.221
611,0.718,36.417,16.157,42.42,28.538,4.659,6.631,6.22
612,0.715,36.544,16.106,42.401,28.527,4.66,6.672,6.139
613,0.718,35.97,16.141,42.381,28.527,4.538,6.509,6.098
614,0.75,36.204,16.165,42.496,28.548,4.74,6.711,6.26
615,0.748,36.398,16.118,42.43,28.534,4.661,6.754,6.262
616,0.764,36.505,16.164,42.401,28.531,4.619,6.673,6.139
617,0.761,35.969,16.067,42.419,28.534,4.619,6.672,6.219
618,0.774,36.185,16.133,42.381,28.527,4.619,6.672,6.139
619,0.81,36.436,16.164,42.419,28.537,4.659,6.835,6.26
620,0.849,36.487,16.126,42.41,28.534,4.66,6.837,6.221
621,0.901,35.969,16.16,42.391,28.531,4.497,6.755,6.098
622,0.954,36.185,16.122,42.419,28.531,4.618,6.754,6.219
623,1.01,36.35,16.125,42.391,28.531,4.537,6.795,6.261
624,1.092,36.476,16.059,42.419,28.534,4.577,6.836,6.221
625,1.154,35.912,16.121,42.42,28.534,4.659,6.918,6.261
626,1.213,36.117,16.153,42.362,28.517,4.497,6.796,6.139
627,1.24,36.32,16.075,42.39,28.53,4.618,6.795,6.179
628,1.26,36.399,16.121,42.391,28.534,4.578,6.917,6.301
629,1.299,35.777,16.153,42.4,28.531,4.659,6.919,6.302
630,1.325,36.02,16.145,42.419,28.534,4.619,6.878,6.302
631,1.326,36.147,16.122,42.372,28.531,4.619,6.877,6.221
632,1.28,36.225,16.114,42.381,28.531,4.659,6.837,6.22
633,1.221,35.928,16.121,42.419,28.548,4.741,7.08,6.424
634,1.198,36.127,16.086,42.42,28.538,4.661,6.92,6.304
635,1.159,36.301,16.105,42.42,28.538,4.66,6.959,6.302
636,1.113,36.322,16.164,42.41,28.538,4.619,6.919,6.221
637,1.057,35.805,16.091,42.4,28.527,4.578,6.837,6.18
638,1.043,36.077,16.117,42.448,28.541,4.7,6.999,6.261
639,1.017,36.205,16.184,42.401,28.538,4.62,6.919,6.262
640,1.023,36.427,16.114,42.4,28.534,4.578,6.959,6.18
641,0.981,35.767,16.133,42.381,28.534,4.7,6.878,6.22
642,0.974,35.972,16.129,42.391,28.524,4.498,6.918,6.261
643,0.974,36.166,16.153,42.391,28.537,4.577,7.0,6.262
644,0.987,35.918,16.106,42.429,28.538,4.618,7.041,6.343
645,0.965,35.676,16.106,42.391,28.524,4.537,6.879,6.14
646,0.961,35.904,16.149,42.4,28.527,4.577,7.0,6.26
647,0.919,36.04,16.083,42.381,28.524,4.618,7.123,6.343
648,0.866,35.725,16.101,42.4,28.537,4.619,7.124,6.384
649,0.801,35.741,16.172,42.41,28.538,4.7,7.246,6.466
650,0.689,35.904,16.149,42.372,28.527,4.498,7.125,6.386
651,0.633,36.088,16.11,42.39,28.534,4.618,7.083,6.385
652,0.58,35.611,16.125,42.4,28.548,4.7,7.408,6.629
653,0.492,35.759,16.09,42.41,28.538,4.66,7.33,6.672
654,0.397,35.952,16.141,42.487,28.544,4.619,7.329,6.713
655,0.295,36.06,16.137,42.411,28.541,4.578,7.329,6.794
656,0.19,35.476,16.164,42.391,28.527,4.618,7.289,6.877
657,0.095,35.691,16.067,42.448,28.541,4.659,7.369,7.121
658,-0.049,35.865,16.105,42.41,28.538,4.66,7.289,7.327
659,-0.161,35.992,16.113,42.4,28.531,4.66,7.207,7.329
660,-0.286,35.427,16.199,42.391,28.527,4.579,7.287,7.532
661,-0.372,35.633,16.099,42.381,28.524,4.578,7.288,7.697
662,-0.422,35.836,16.156,42.41,28.527,4.578,7.247,7.821
663,-0.474,35.953,16.122,42.42,28.534,4.618,7.328,8.025
664,-0.524,35.36,16.118,42.448,28.52,4.497,7.207,8.027
665,-0.56,35.603,16.125,42.391,28.53,4.577,7.206,8.19
666,-0.563,35.759,16.133,42.371,28.534,4.618,7.287,8.314
667,-0.554,35.885,16.122,42.4,28.531,4.659,7.207,8.356
668,-0.515,35.407,16.11,42.391,28.537,4.619,7.287,8.437
669,-0.475,35.565,16.164,42.352,28.527,4.619,7.247,8.479
670,-0.41,35.787,16.114,42.39,28.537,4.578,7.125,8.357
671,-0.35,35.886,16.117,42.4,28.544,4.7,7.287,8.844
672,-0.308,35.244,16.114,42.391,28.531,4.66,7.125,8.808
673,-0.249,35.497,16.176,42.4,28.534,4.66,7.165,9.052
674,-0.206,35.643,16.048,42.4,28.531,4.66,7.124,9.257
675,-0.121,35.74,16.125,42.372,28.524,4.497,7.002,9.463
676,-0.032,35.386,16.164,42.419,28.541,4.74,7.163,9.831
677,0.047,35.584,16.075,42.401,28.538,4.62,7.084,10.2
678,0.126,35.778,16.125,42.419,28.538,4.7,7.042,10.407
679,0.195,35.847,16.121,42.381,28.531,4.579,7.042,10.856
680,0.264,35.225,16.141,42.381,28.524,4.496,6.96,11.105
681,0.352,35.477,16.165,42.419,28.541,4.658,7.122,11.473
682,0.412,35.643,16.114,42.41,28.538,4.66,7.002,11.762
683,0.484,35.683,16.121,42.4,28.531,4.579,6.919,11.846
684,0.53,35.242,16.024,42.381,28.537,4.618,7.0,12.213
685,0.57,35.468,16.105,42.381,28.531,4.537,6.96,12.216
686,0.619,35.662,16.184,42.391,28.541,4.659,7.0,12.46
687,0.636,35.673,16.099,42.419,28.538,4.741,7.041,12.503
688,0.665,35.415,16.16,42.381,28.524,4.457,6.839,12.423
689,0.682,35.604,16.149,42.391,28.53,4.617,6.999,12.462
690,0.682,35.759,16.153,42.381,28.527,4.659,6.919,12.503
691,0.724,35.262,16.137,42.391,28.537,4.66,7.0,12.463
692,0.741,35.132,16.114,42.391,28.541,4.66,7.001,12.422
693,0.744,35.323,16.098,42.362,28.527,4.538,6.879,12.381
694,0.754,35.478,16.09,42.381,28.534,4.618,6.877,12.34
695,0.774,35.211,16.094,42.4,28.541,4.741,7.0,12.502
696,0.774,35.276,16.16,42.381,28.534,4.661,6.919,12.382
697,0.78,35.506,16.118,42.41,28.544,4.741,6.919,12.299
698,0.78,35.643,16.133,42.391,28.538,4.661,6.919,12.38
699,0.787,34.896,16.188,42.381,28.534,4.66,6.756,12.258
700,0.8,35.042,16.138,42.41,28.551,4.7,6.957,12.461
701,0.797,35.236,16.168,42.391,28.538,4.66,6.797,12.341
702,0.807,35.381,16.138,42.381,28.534,4.579,6.795,12.299
703,0.813,35.076,16.114,42.381,28.534,4.659,6.795,12.339
704,0.81,35.236,16.129,42.362,28.531,4.619,6.795,12.177
705,0.836,35.468,16.102,42.409,28.537,4.659,6.755,12.135
706,0.83,35.576,16.16,42.391,28.538,4.66,6.795,12.175
707,0.836,34.973,16.013,42.391,28.531,4.579,6.633,11.891
708,0.836,35.168,16.105,42.391,28.534,4.618,6.672,11.928
709,0.836,35.362,16.129,42.381,28.531,4.659,6.672,11.929
710,0.843,35.488,16.114,42.381,28.531,4.66,6.713,11.807
711,0.849,34.885,16.137,42.391,28.537,4.741,6.754,11.724
712,0.843,35.061,16.161,42.352,28.524,4.539,6.673,11.52
713,0.853,35.274,16.083,42.371,28.53,4.537,6.631,11.396
714,0.853,35.391,16.09,42.41,28.544,4.74,6.794,11.517
715,0.859,34.913,16.125,42.372,28.538,4.661,6.673,11.234
716,0.866,35.148,16.184,42.4,28.538,4.7,6.713,11.149
717,0.866,35.323,16.099,42.362,28.541,4.701,6.632,10.945
718,0.866,35.401,16.082,42.352,28.527,4.538,6.509,10.659
719,0.882,34.971,16.133,42.409,28.544,4.699,6.711,10.737
720,0.889,35.158,16.106,42.391,28.538,4.66,6.672,10.575
721,0.899,35.333,16.121,42.381,28.538,4.741,6.591,10.411
722,0.886,35.421,16.157,42.371,28.531,4.539,6.59,10.287
723,0.892,34.904,16.118,42.352,28.527,4.577,6.509,10.164
724,0.915,35.196,16.09,42.429,28.537,4.659,6.589,10.041
725,0.912,35.324,16.168,42.372,28.538,4.7,6.631,9.999
726,0.912,35.392,16.145,42.371,28.527,4.62,6.509,9.714
727,0.899,34.932,16.063,42.381,28.534,4.7,6.508,9.711
728,0.908,35.139,16.07,42.362,28.531,4.579,6.508,9.67
729,0.921,35.333,16.144,42.381,28.537,4.7,6.549,9.548
730,0.912,35.325,16.126,42.381,28.541,4.701,6.63,9.466
731,0.912,34.884,16.11,42.352,28.524,4.498,6.387,9.262
732,0.918,35.138,16.137,42.362,28.527,4.618,6.507,9.178
733,0.915,35.275,16.122,42.371,28.527,4.659,6.467,9.177
734,0.922,35.113,16.121,42.39,28.53,4.66,6.548,9.096
735,0.925,34.891,16.153,42.391,28.534,4.66,6.508,9.095
736,0.915,35.081,16.169,42.352,28.524,4.619,6.508,8.851
737,0.935,35.236,16.098,42.39,28.534,4.537,6.467,8.767
738,0.938,34.95,16.117,42.41,28.544,4.74,6.629,8.889
739,0.945,34.918,16.129,42.391,28.538,4.661,6.468,8.646
740,0.945,35.139,16.168,42.391,28.538,4.7,6.507,8.603
741,0.945,35.265,16.106,42.381,28.531,4.579,6.467,8.562
742,0.941,34.739,16.141,42.362,28.531,4.618,6.386,8.399
743,0.958,34.868,16.11,42.438,28.548,4.741,6.588,8.478
744,0.961,35.061,16.059,42.391,28.527,4.62,6.549,8.357
745,0.961,35.217,16.101,42.381,28.534,4.659,6.549,8.275
746,0.958,34.758,16.184,42.381,28.531,4.619,6.468,8.274
747,0.941,34.935,16.087,42.371,28.524,4.537,6.467,8.071
748,0.967,35.206,16.129,42.419,28.544,4.659,6.507,8.109
749,0.964,35.295,16.176,42.381,28.538,4.66,6.589,8.15
750,0.961,34.701,16.141,42.362,28.534,4.579,6.509,7.988
751,0.964,34.906,16.129,42.381,28.534,4.578,6.549,7.986
752,0.958,35.11,16.129,42.362,28.534,4.537,6.549,7.905
753,0.974,35.246,16.129,42.39,28.537,4.577,6.549,7.945
754,0.968,34.739,16.09,42.4,28.538,4.7,6.712,7.905
755,0.971,34.945,16.117,42.372,28.524,4.498,6.429,7.66
756,0.977,35.148,16.145,42.371,28.534,4.577,6.548,7.739
757,0.977,35.218,16.102,42.371,28.524,4.659,6.671,7.781
758,0.987,34.585,16.063,42.39,28.534,4.66,6.631,7.659
759,0.994,34.799,16.207,42.381,28.544,4.66,6.753,7.658
760,0.987,34.984,16.173,42.343,28.527,4.497,6.51,7.536
761,0.994,35.082,16.145,42.361,28.53,4.618,6.549,7.534
762,1.004,34.689,16.145,42.371,28.541,4.7,6.671,7.657
763,1.004,34.906,16.122,42.381,28.531,4.66,6.591,7.536
764,1.017,35.129,16.121,42.391,28.534,4.741,6.671,7.494
765,1.007,35.169,16.114,42.362,28.531,4.539,6.631,7.412
766,1.007,34.594,16.156,42.362,28.534,4.577,6.631,7.411
767,1.014,34.819,16.059,42.409,28.544,4.74,6.834,7.533
768,1.014,35.022,16.093,42.372,28.538,4.62,6.714,7.412
769,1.014,35.092,16.164,42.371,28.538,4.741,6.632,7.33
770,1.004,34.699,16.157,42.362,28.531,4.661,6.631,7.289
771,1.01,34.925,16.11,42.362,28.531,4.538,6.55,7.125
772,1.03,35.148,16.184,42.4,28.544,4.781,6.63,7.368
773,1.017,35.17,16.099,42.372,28.531,4.661,6.712,7.289
774,1.027,34.604,16.074,42.39,28.537,4.579,6.632,7.207
775,1.03,34.819,16.121,42.371,28.534,4.7,6.59,7.165
776,1.024,34.965,16.153,42.343,28.531,4.579,6.549,7.043
777,1.043,35.129,16.122,42.4,28.537,4.659,6.63,7.123
778,1.053,34.671,16.075,42.391,28.544,4.66,6.672,7.124
779,1.053,34.887,16.183,42.352,28.524,4.497,6.509,6.921
780,1.05,35.033,16.157,42.362,28.534,4.577,6.63,7.0
781,1.04,34.727,16.13,42.352,28.531,4.537,6.631,7.001
782,1.063,34.619,16.137,42.352,28.537,4.577,6.672,7.001
783,1.073,34.809,16.122,42.371,28.534,4.618,6.713,7.082
784,1.069,34.955,16.114,42.381,28.527,4.456,6.632,6.839
785,1.066,34.602,16.145,42.352,28.534,4.536,6.59,6.958
786,1.073,34.627,16.141,42.342,28.531,4.618,6.712,7.041
787,1.063,34.848,16.04,42.371,28.534,4.578,6.713,6.92
788,1.069,35.004,16.128,42.362,28.534,4.659,6.672,6.959
789,1.069,34.459,16.164,42.333,28.524,4.619,6.631,6.838
790,1.082,34.626,16.153,42.352,28.534,4.537,6.509,6.755
791,1.083,34.858,16.157,42.371,28.534,4.699,6.711,6.917
792,1.076,34.984,16.118,42.362,28.524,4.66,6.754,6.837
793,1.089,34.478,16.137,42.362,28.541,4.66,6.714,6.877
794,1.076,34.626,16.02,42.342,28.534,4.619,6.672,6.796
795,1.089,34.829,16.116,42.333,28.531,4.497,6.672,6.755
796,1.092,34.984,16.192,42.361,28.548,4.699,6.916,6.957
797,1.105,34.439,16.052,42.362,28.534,4.62,6.756,6.838
798,1.109,34.654,16.121,42.381,28.541,4.659,6.795,6.796
799,1.115,34.819,16.118,42.352,28.527,4.579,6.714,6.755
800,1.115,34.917,16.141,42.352,28.53,4.496,6.754,6.714
801,1.128,34.352,16.168,42.39,28.541,4.74,6.917,6.876
802,1.129,34.557,16.122,42.362,28.538,4.579,6.837,6.796
803,1.129,34.771,16.133,42.362,28.534,4.618,6.755,6.673
804,1.135,34.869,16.106,42.419,28.534,4.578,6.795,6.713
805,1.129,34.294,16.125,42.343,28.531,4.537,6.714,6.754
806,1.148,34.557,16.176,42.361,28.531,4.577,6.794,6.632
807,1.142,34.761,16.102,42.371,28.541,4.659,6.836,6.672
808,1.145,34.849,16.09,42.343,28.527,4.457,6.633,6.591
809,1.145,34.428,16.109,42.342,28.527,4.577,6.753,6.631
810,1.152,34.635,16.11,42.342,28.537,4.578,6.754,6.753
811,1.158,34.848,16.153,42.361,28.538,4.578,6.754,6.673
812,1.171,34.936,16.114,42.362,28.541,4.618,6.836,6.631
813,1.162,34.295,16.129,42.323,28.524,4.578,6.714,6.672
814,1.168,34.547,16.094,42.342,28.534,4.537,6.713,6.631
815,1.165,34.732,16.109,42.361,28.537,4.659,6.916,6.794
816,1.178,34.782,16.192,42.362,28.541,4.619,6.715,6.673
817,1.184,34.428,16.122,42.371,28.531,4.619,6.754,6.631
818,1.175,34.616,16.082,42.362,28.531,4.537,6.714,6.59
819,1.181,34.79,16.137,42.342,28.534,4.577,6.672,6.549
820,1.201,34.84,16.106,42.39,28.544,4.7,6.753,6.671
821,1.201,34.371,16.102,42.362,28.538,4.62,6.632,6.55
822,1.207,34.586,16.129,42.362,28.531,4.659,6.631,6.549
823,1.207,34.752,16.118,42.342,28.531,4.579,6.59,6.508
824,1.211,34.609,16.078,42.352,28.527,4.496,6.509,6.386
825,1.233,34.349,16.117,42.4,28.548,4.699,6.63,6.507
826,1.224,34.538,16.199,42.381,28.538,4.62,6.55,6.467
827,1.224,34.703,16.138,42.371,28.538,4.537,6.59,6.386
828,1.214,34.494,16.133,42.371,28.534,4.618,6.59,6.385
829,1.214,34.453,16.153,42.333,28.531,4.497,6.387,6.466
830,1.227,34.693,16.153,42.38,28.531,4.618,6.588,6.467
831,1.217,34.829,16.13,42.362,28.534,4.659,6.59,6.507
832,1.24,34.39,16.141,42.352,28.531,4.579,6.427,6.305
833,1.234,34.462,16.118,42.362,28.531,4.618,6.466,6.384
834,1.224,34.683,16.114,42.381,28.527,4.578,6.467,6.466
835,1.237,34.868,16.129,42.352,28.53,4.618,6.507,6.467
836,1.247,34.16,16.161,42.381,28.541,4.659,6.508,6.467
837,1.247,34.297,16.122,42.343,28.524,4.579,6.427,6.386
838,1.247,34.547,16.086,42.352,28.53,4.618,6.426,6.344
839,1.253,34.655,16.125,42.342,28.537,4.7,6.507,6.547
840,1.257,34.292,16.153,42.361,28.541,4.579,6.427,6.386
841,1.26,34.499,16.137,42.381,28.541,4.659,6.466,6.425
842,1.257,34.684,16.133,42.352,28.534,4.66,6.386,6.466
843,1.26,34.82,16.145,42.371,28.531,4.538,6.344,6.386
844,1.26,34.342,16.09,42.41,28.544,4.74,6.466,6.466
845,1.263,34.557,16.129,42.362,28.534,4.62,6.426,6.467
846,1.276,34.751,16.153,42.362,28.537,4.659,6.344,6.345
847,1.26,34.868,16.098,42.352,28.538,4.66,6.303,6.343
848,1.25,34.16,16.133,42.342,28.527,4.538,6.302,6.262
849,1.266,34.431,16.161,42.4,28.544,4.699,6.343,6.384
850,1.25,34.597,16.161,42.372,28.538,4.66,6.303,6.344
851,1.26,34.713,16.102,42.362,28.534,4.66,6.221,6.303
852,1.25,34.389,16.164,42.342,28.537,4.579,6.22,6.343
853,1.25,34.587,16.134,42.342,28.527,4.537,6.18,6.303
854,1.266,34.838,16.098,42.361,28.534,4.699,6.22,6.384
855,1.26,34.888,16.125,42.381,28.534,4.66,6.302,6.466
856,1.254,34.448,16.137,42.323,28.524,4.457,6.14,6.304
857,1.26,34.664,16.11,42.342,28.527,4.577,6.26,6.343
858,1.26,34.829,16.094,42.361,28.534,4.7,6.302,6.466
859,1.263,34.917,16.145,42.362,28.531,4.701,6.18,6.386
860,1.26,34.448,16.157,42.39,28.537,4.66,6.301,6.425
861,1.257,34.645,16.114,42.343,28.527,4.579,6.221,6.344
862,1.257,34.848,16.145,42.342,28.527,4.618,6.22,6.384
863,1.257,34.917,16.122,42.381,28.534,4.7,6.424,6.547
864,1.257,34.563,16.02,42.371,28.531,4.66,6.222,6.386
865,1.263,34.809,16.128,42.362,28.541,4.66,6.302,6.425
866,1.254,34.946,16.145,42.342,28.538,4.66,6.221,6.344
867,1.253,35.196,16.122,42.342,28.527,4.538,6.22,6.303
868,1.247,34.7,16.121,42.39,28.541,4.699,6.383,6.506
869,1.247,34.897,16.145,42.371,28.531,4.66,6.263,6.508
870,1.247,35.052,16.141,42.371,28.544,4.579,6.18,6.427
871,1.24,34.967,16.122,42.343,28.531,4.578,6.301,6.304
872,1.234,34.851,16.118,42.342,28.531,4.537,6.18,6.302
873,1.24,35.099,16.133,42.39,28.544,4.74,6.301,6.384
874,1.218,35.227,16.067,42.362,28.538,4.661,6.343,6.466
875,1.217,35.122,16.129,42.371,28.538,4.579,6.181,6.345
876,1.217,35.16,16.153,42.362,28.538,4.659,6.22,6.343
877,1.208,35.352,16.11,42.342,28.524,4.579,6.139,6.343
878,1.224,35.555,16.172,42.381,28.537,4.618,6.26,6.343
879,1.208,35.193,16.153,42.362,28.534,4.619,6.343,6.384
880,1.211,35.314,16.172,42.362,28.531,4.578,6.262,6.222
881,1.198,35.526,16.099,42.362,28.531,4.659,6.302,6.383
882,1.185,35.634,16.125,42.342,28.531,4.538,6.302,6.344
883,1.194,35.318,16.129,42.371,28.534,4.659,6.384,6.343
884,1.191,35.478,16.114,42.371,28.541,4.66,6.466,6.384
885,1.165,35.691,16.114,42.323,28.531,4.457,6.345,6.222
886,1.171,35.798,16.18,42.332,28.531,4.658,6.384,6.261
887,1.152,35.627,16.063,42.342,28.534,4.66,6.425,6.343
888,1.142,35.836,16.144,42.371,28.537,4.619,6.466,6.303
889,1.132,36.02,16.165,42.362,28.538,4.7,6.507,6.384
890,1.122,36.108,16.13,42.323,28.52,4.538,6.427,6.181
891,1.112,35.918,16.153,42.342,28.53,4.618,6.385,6.22
892,1.099,36.146,16.114,42.361,28.537,4.659,6.629,6.464
893,1.089,36.349,16.137,42.352,28.538,4.66,6.468,6.345
894,1.092,36.457,16.102,42.362,28.538,4.66,6.548,6.425
895,1.063,36.132,16.113,42.333,28.534,4.619,6.508,6.426
896,1.073,36.368,16.18,42.361,28.531,4.578,6.467,6.344
897,1.069,36.553,16.095,42.362,28.544,4.74,6.629,6.466
898,1.063,36.641,16.137,42.362,28.538,4.661,6.55,6.386
899,1.047,36.565,16.153,42.362,28.544,4.579,6.508,6.385
900,1.043,36.747,16.114,42.352,28.534,4.618,6.508,6.385
901,1.033,36.931,16.156,42.352,28.524,4.578,6.549,6.303
902,1.046,37.048,16.118,42.362,28.544,4.74,6.63,6.384
903,1.037,36.723,16.133,42.352,28.534,4.62,6.631,6.425
904,1.03,36.911,16.098,42.342,28.527,4.497,6.509,6.263
905,1.007,37.105,16.109,42.342,28.53,4.618,6.67,6.343
906,0.994,37.145,16.184,42.342,28.534,4.578,6.631,6.343
907,0.997,37.127,16.099,42.352,28.537,4.618,6.712,6.425
908,0.991,37.366,16.133,42.362,28.541,4.7,6.754,6.426
909,0.974,37.493,16.141,42.333,28.527,4.498,6.592,6.344
910,0.961,37.523,16.122,42.352,28.534,4.577,6.671,6.343
911,0.948,37.293,16.114,42.342,28.537,4.659,6.875,6.506
912,0.951,37.492,16.145,42.342,28.531,4.66,6.918,6.386
913,0.941,37.677,16.122,42.361,28.537,4.7,7.0,6.425
914,0.922,37.88,16.082,42.323,28.527,4.538,6.96,6.385
915,0.931,38.016,16.105,42.342,28.534,4.537,6.96,6.344
916,0.925,38.228,16.184,42.361,28.541,4.74,7.163,6.506
917,0.931,38.355,16.134,42.352,28.541,4.579,7.084,6.427
918,0.925,38.03,16.118,42.362,28.544,4.618,7.164,6.385
919,0.905,37.855,16.137,42.342,28.538,4.578,7.124,6.344
920,0.915,38.035,16.094,42.323,28.527,4.537,7.083,6.303
921,0.912,38.219,16.16,42.39,28.541,4.74,7.327,6.506
922,0.902,38.25,16.141,42.352,28.534,4.579,7.248,6.386
923,0.908,38.355,16.141,42.352,28.537,4.659,7.166,6.425
924,0.895,38.529,16.098,42.314,28.538,4.579,7.165,6.344
925,0.886,38.665,16.094,42.323,28.531,4.496,7.084,6.303
926,0.898,38.484,16.176,42.361,28.541,4.658,7.205,6.425
927,0.876,38.588,16.138,42.342,28.538,4.66,7.125,6.426
928,0.876,38.79,16.094,42.333,28.534,4.497,7.083,6.304
929,0.859,38.888,16.145,42.352,28.534,4.577,7.123,6.302
930,0.853,38.649,16.149,42.333,28.527,4.537,7.124,6.343
931,0.872,38.858,16.133,42.342,28.534,4.618,7.205,6.343
932,0.853,39.023,16.168,42.352,28.537,4.537,7.247,6.343
933,0.856,39.13,16.114,42.333,28.524,4.496,7.166,6.221
934,0.843,38.892,16.102,42.342,28.534,4.577,7.206,6.261
935,0.849,39.091,16.11,42.323,28.531,4.659,7.328,6.343
936,0.856,39.284,16.141,42.323,28.537,4.66,7.329,6.303
937,0.859,39.363,16.083,42.361,28.541,4.66,7.37,6.384
938,0.853,38.99,16.098,42.304,28.527,4.497,7.248,6.263
939,0.853,39.216,16.137,42.323,28.527,4.618,7.41,6.302
940,0.846,39.353,16.172,42.323,28.537,4.659,7.452,6.384
941,0.843,39.46,16.11,42.342,28.538,4.66,7.412,6.303
942,0.843,39.432,16.149,42.342,28.544,4.7,7.452,6.302
943,0.826,39.623,16.141,42.323,28.524,4.579,7.33,6.384
944,0.852,39.807,16.114,42.409,28.527,4.578,7.329,6.222
945,0.84,39.896,16.137,42.352,28.548,4.74,7.492,6.383
946,0.843,39.407,16.118,42.342,28.531,4.62,7.371,6.222
947,0.843,39.633,16.098,42.381,28.534,4.659,7.289,6.261
948,0.826,39.788,16.106,42.352,28.537,4.66,7.288,6.221
949,0.82,39.828,16.125,42.342,28.531,4.497,7.166,6.261
950,0.826,39.829,16.153,42.371,28.537,4.618,7.287,6.343
951,0.82,40.011,16.176,42.352,28.534,4.578,7.288,6.221
952,0.82,40.176,16.118,42.323,28.534,4.618,7.247,6.098
953,0.81,40.206,16.157,42.323,28.534,4.578,7.288,6.138
954,0.797,39.756,16.083,42.313,28.527,4.659,7.369,6.26
955,0.829,40.02,16.109,42.351,28.534,4.66,7.411,6.262
956,0.817,40.147,16.176,42.352,28.541,4.66,7.452,6.302
957,0.81,40.091,16.075,42.314,28.524,4.497,7.29,6.099
958,0.816,39.966,16.117,42.342,28.537,4.618,7.491,6.178
959,0.81,40.127,16.164,42.323,28.534,4.619,7.616,6.22
960,0.833,40.302,16.153,42.352,28.534,4.578,7.576,6.261
961,0.833,40.255,16.13,42.342,28.537,4.659,7.657,6.262
962,0.82,40.111,16.118,42.333,28.52,4.497,7.576,6.139
963,0.83,40.311,16.133,42.333,28.53,4.577,7.657,6.179
964,0.82,40.438,16.102,42.342,28.541,4.618,7.82,6.301
965,0.826,40.228,16.11,42.352,28.538,4.619,7.7,6.18
966,0.826,40.187,16.184,42.342,28.534,4.659,7.821,6.261
967,0.813,40.34,16.071,42.313,28.531,4.538,7.7,6.139
968,0.813,40.515,16.133,42.332,28.524,4.577,7.658,6.138
969,0.82,40.114,16.141,42.352,28.548,4.74,7.942,6.341
970,0.813,40.205,16.118,42.342,28.538,4.661,7.742,6.221
971,0.813,40.398,16.149,42.361,28.544,4.66,7.74,6.18
972,0.803,40.506,16.102,42.342,28.534,4.579,7.699,6.098
973,0.81,40.2,16.152,42.323,28.531,4.618,7.658,6.056
974,0.813,40.389,16.087,42.371,28.548,4.741,7.82,6.259
975,0.81,40.553,16.109,42.343,28.534,4.701,7.741,6.262
976,0.81,40.67,16.156,42.342,28.534,4.579,7.74,6.099
977,0.816,40.163,16.075,42.333,28.541,4.537,7.618,6.178
978,0.81,40.34,16.105,42.323,28.534,4.618,7.657,6.098
979,0.823,40.582,16.149,42.361,28.541,4.7,7.698,6.219
980,0.813,40.651,16.114,42.342,28.538,4.701,7.74,6.22
981,0.813,40.125,16.153,42.342,28.531,4.579,7.577,6.139
982,0.82,40.321,16.157,42.333,28.534,4.659,7.575,6.179
983,0.82,40.486,16.126,42.313,28.531,4.579,7.575,6.179
984,0.839,40.622,16.118,42.351,28.537,4.618,7.616,6.179
985,0.82,40.134,16.106,42.342,28.538,4.659,7.617,6.22
986,0.826,40.349,16.152,42.313,28.52,4.497,7.495,6.058
987,0.807,40.496,16.114,42.342,28.541,4.618,7.616,6.219
988,0.803,40.564,16.129,42.323,28.527,4.619,7.617,6.18
989,0.82,40.153,16.141,42.342,28.534,4.578,7.617,6.179
990,0.817,40.388,16.184,42.352,28.534,4.7,7.617,6.22
991,0.803,40.525,16.118,42.294,28.524,4.538,7.495,6.18
992,0.81,40.603,16.16,42.323,28.534,4.537,7.534,6.098
993,0.813,40.124,16.094,42.342,28.537,4.537,7.657,6.26
994,0.813,40.349,16.098,42.323,28.541,4.699,7.576,6.139
995,0.816,40.515,16.152,42.342,28.538,4.66,7.575,6.26
996,0.803,40.526,16.145,42.323,28.534,4.579,7.535,6.139
997,0.81,40.037,16.133,42.323,28.531,4.578,7.372,6.016
998,0.816,40.262,16.137,42.361,28.551,4.7,7.533,6.3
999,0.81,40.389,16.145,42.333,28.531,4.66,7.534,6.221
1000,0.836,40.438,16.122,42.352,28.541,4.66,7.453,6.18
1001,0.82,40.113,16.114,42.342,28.534,4.66,7.33,6.139
1002,0.833,40.282,16.11,42.342,28.527,4.497,7.329,6.057
1003,0.843,40.514,16.16,42.39,28.544,4.699,7.41,6.178
1004,0.833,40.584,16.083,42.343,28.538,4.701,7.371,6.22
1005,0.833,40.028,16.121,42.323,28.534,4.538,7.167,6.098
1006,0.833,40.195,16.153,42.313,28.534,4.577,7.287,6.138
1007,0.82,40.331,16.13,42.323,28.531,4.578,7.288,6.138
1008,0.833,40.102,16.141,42.332,28.541,4.578,7.288,6.138
1009,0.83,39.946,16.149,42.361,28.534,4.659,7.329,6.138
1010,0.804,40.118,16.141,42.314,28.534,4.538,7.248,6.138
1011,0.823,40.273,16.11,42.323,28.534,4.577,7.206,6.057
1012,0.817,39.939,16.153,42.332,28.544,4.74,7.287,6.259
1013,0.829,39.964,16.114,42.342,28.538,4.62,7.166,6.099
1014,0.823,40.166,16.114,42.342,28.544,4.741,7.246,6.138
1015,0.813,40.273,16.102,42.323,28.534,4.661,7.206,6.098
1016,0.823,39.756,16.133,42.313,28.534,4.538,7.165,6.056
1017,0.833,39.885,16.145,42.361,28.551,4.74,7.328,6.219
1018,0.826,40.079,16.145,42.342,28.538,4.661,7.126,6.18
1019,0.839,40.215,16.11,42.352,28.541,4.619,7.124,6.098
1020,0.836,39.641,16.16,42.342,28.534,4.537,7.165,6.097
1021,0.836,39.808,16.11,42.323,28.527,4.537,7.084,6.016
1022,0.843,40.039,16.153,42.361,28.555,4.781,7.205,6.137
1023,0.833,40.118,16.145,42.342,28.534,4.702,7.206,6.138
1024,0.843,39.649,16.067,42.342,28.534,4.62,7.125,6.098
1025,0.836,39.827,16.125,42.323,28.531,4.659,7.083,6.097
1026,0.836,39.992,16.16,42.304,28.524,4.579,6.92,6.056
1027,0.852,40.147,16.079,42.361,28.541,4.659,7.041,6.137
1028,0.83,39.515,16.101,42.342,28.538,4.619,7.123,6.098
1029,0.83,39.682,16.133,42.313,28.524,4.537,7.002,6.016
1030,0.833,39.875,16.129,42.323,28.53,4.618,7.041,6.015
1031,0.826,39.954,16.145,42.332,28.527,4.578,7.042,6.056
1032,0.833,39.533,16.122,42.342,28.534,4.618,7.082,6.097
1033,0.83,39.759,16.172,42.323,28.537,4.619,7.245,6.178
1034,0.833,39.905,16.106,42.323,28.524,4.456,7.044,6.057
1035,0.833,40.002,16.121,42.342,28.537,4.617,7.164,6.178
1036,0.82,39.332,16.16,42.313,28.534,4.578,7.206,6.179
1037,0.83,39.574,16.087,42.332,28.537,4.659,7.165,6.098
1038,0.83,39.778,16.102,42.342,28.541,4.7,7.246,6.138
1039,0.83,39.761,16.102,42.304,28.524,4.538,7.206,6.057
1040,0.839,39.387,16.113,42.313,28.534,4.659,7.206,6.056
1041,0.836,39.604,16.141,42.342,28.544,4.7,7.328,6.219
1042,0.839,39.769,16.153,42.342,28.538,4.66,7.207,6.139
1043,0.846,39.818,16.13,42.342,28.538,4.66,7.206,6.138
1044,0.83,39.186,16.106,42.323,28.534,4.619,7.165,6.057
1045,0.83,39.41,16.106,42.313,28.534,4.619,7.084,6.015
1046,0.852,39.594,16.207,42.351,28.537,4.741,7.286,6.137
1047,0.84,39.587,16.079,42.342,28.538,4.62,7.207,6.098
1048,0.849,39.28,16.109,42.333,28.541,4.578,7.206,6.016
1049,0.833,39.459,16.129,42.323,28.534,4.659,7.125,6.096
1050,0.826,39.624,16.114,42.323,28.527,4.538,7.043,6.016
1051,0.849,39.481,16.137,42.352,28.541,4.618,7.123,6.096
1052,0.83,39.039,16.122,42.323,28.538,4.659,7.165,6.097
1053,0.826,39.265,16.157,42.342,28.534,4.579,7.165,5.935
1054,0.83,39.392,16.075,42.313,28.534,4.578,7.124,6.096
1055,0.823,39.172,16.121,42.313,28.531,4.537,7.043,6.097
1056,0.846,39.16,16.164,42.342,28.534,4.618,7.082,6.097
1057,0.836,39.343,16.13,42.333,28.537,4.659,7.123,6.097
1058,0.836,39.45,16.125,42.313,28.531,4.497,6.961,6.016
1059,0.836,38.856,16.133,42.304,28.534,4.577,7.0,6.056
1060,0.826,38.889,16.098,42.313,28.531,4.537,7.001,6.097
1061,0.843,39.129,16.156,42.342,28.534,4.659,7.001,6.097
1062,0.833,39.266,16.114,42.352,28.537,4.66,7.001,6.178
1063,0.836,38.807,16.141,42.294,28.524,4.538,6.879,5.976
1064,0.836,38.917,16.067,42.313,28.534,4.577,6.877,6.015
1065,0.833,39.11,16.097,42.304,28.524,4.578,7.0,6.056
1066,0.849,39.237,16.156,42.332,28.534,4.659,6.96,6.097
1067,0.853,38.586,16.067,42.342,28.544,4.66,6.96,6.138
1068,0.83,38.742,16.121,42.304,28.527,4.579,6.878,6.057
1069,0.836,38.945,16.106,42.332,28.53,4.578,6.796,6.015
1070,0.83,39.043,16.164,42.323,28.537,4.74,6.999,6.178
1071,0.826,38.651,16.11,42.323,28.538,4.661,6.838,6.017
1072,0.82,38.858,16.145,42.332,28.548,4.66,6.796,6.096
1073,0.817,39.014,16.126,42.333,28.538,4.66,6.755,6.056
1074,0.826,39.121,16.11,42.313,28.531,4.579,6.632,6.015
1075,0.83,38.326,16.153,42.361,28.544,4.781,6.875,6.259
1076,0.817,38.519,16.157,42.314,28.538,4.62,6.755,6.139
1077,0.823,38.713,16.137,42.342,28.541,4.659,6.754,6.057
1078,0.826,38.801,16.157,42.323,28.531,4.579,6.754,6.056
1079,0.82,38.275,16.126,42.304,28.534,4.578,6.632,5.975
1080,0.846,38.547,16.157,42.351,28.541,4.7,6.712,6.015
1081,0.82,38.684,16.157,42.342,28.538,4.579,6.835,6.137
1082,0.839,38.762,16.118,42.323,28.538,4.618,6.714,6.016
1083,0.833,38.293,16.153,42.313,28.527,4.578,6.754,6.015
1084,0.823,38.5,16.044,42.323,28.527,4.578,6.673,5.934
1085,0.836,38.722,16.125,42.352,28.534,4.578,6.713,6.096
1086,0.83,38.744,16.137,42.314,28.541,4.74,6.754,6.056
1087,0.823,38.101,16.09,42.304,28.524,4.539,6.714,5.934
1088,0.823,38.315,16.121,42.323,28.534,4.618,6.713,6.055
1089,0.82,38.471,16.121,42.313,28.537,4.537,6.794,6.137
1090,0.82,38.53,16.16,42.342,28.531,4.659,6.795,6.098
1091,0.826,38.099,16.126,42.323,28.537,4.66,6.836,6.056
1092,0.807,38.287,16.11,42.285,28.524,4.497,6.714,6.015
1093,0.807,38.452,16.117,42.323,28.534,4.577,6.713,5.974
1094,0.803,38.664,16.078,42.332,28.537,4.659,6.835,6.218
1095,0.807,37.957,16.129,42.323,28.534,4.619,6.755,6.139
1096,0.813,38.161,16.168,42.332,28.534,4.659,6.795,6.138
1097,0.803,38.287,16.114,42.342,28.534,4.66,6.755,5.976
1098,0.826,38.135,16.145,42.313,28.527,4.66,6.673,6.015
1099,0.817,37.932,16.098,42.351,28.541,4.741,6.835,6.178
1100,0.816,38.132,16.152,42.323,28.534,4.62,6.755,6.057
1101,0.826,38.287,16.122,42.352,28.541,4.619,6.714,6.056
1102,0.81,37.857,16.11,42.352,28.538,4.578,6.672,6.015
1103,0.816,37.834,16.125,42.323,28.531,4.578,6.631,5.934
1104,0.829,38.083,16.047,42.352,28.541,4.7,6.672,6.096
1105,0.82,38.219,16.128,42.314,28.548,4.62,6.713,6.097
1106,0.813,37.626,16.176,42.304,28.531,4.537,6.51,5.975
1107,0.803,37.707,16.083,42.323,28.534,4.577,6.63,5.974
1108,0.8,37.89,16.121,42.313,28.531,4.578,6.55,6.015
1109,0.82,38.064,16.157,42.342,28.534,4.578,6.63,6.096
1110,0.803,37.462,16.137,42.333,28.534,4.618,6.631,6.138
1111,0.794,37.619,16.141,42.304,28.524,4.497,6.468,6.016
1112,0.797,37.822,16.114,42.323,28.534,4.577,6.589,6.015
1113,0.794,37.939,16.153,42.313,28.531,4.537,6.509,6.137
1114,0.797,37.345,16.11,42.342,28.534,4.659,6.508,6.179
1115,0.794,37.57,16.117,42.361,28.541,4.619,6.589,6.22
1116,0.793,37.716,16.141,42.314,28.527,4.497,6.468,6.18
1117,0.797,37.823,16.098,42.332,28.53,4.618,6.467,6.179
1118,0.797,37.411,16.113,42.333,28.534,4.659,6.629,6.301
1119,0.803,37.599,16.129,42.352,28.534,4.619,6.509,6.262
1120,0.81,37.812,16.106,42.333,28.541,4.619,6.508,6.221
1121,0.79,37.872,16.133,42.304,28.531,4.619,6.508,6.261
1122,0.79,37.287,16.114,42.323,28.527,4.578,6.427,6.139
1123,0.8,37.511,16.141,42.361,28.541,4.7,6.629,6.382
1124,0.803,37.686,16.094,42.323,28.531,4.66,6.59,6.181
1125,0.8,37.794,16.113,42.342,28.537,4.66,6.549,6.22
1126,0.794,37.191,16.184,42.323,28.541,4.579,6.549,6.22
1127,0.79,37.415,16.099,42.313,28.531,4.496,6.508,6.098
1128,0.793,37.59,16.117,42.351,28.544,4.699,6.67,6.3
1129,0.787,37.668,16.125,42.333,28.541,4.66,6.55,6.221
1130,0.787,37.237,16.114,42.323,28.538,4.619,6.468,6.18
1131,0.784,37.453,16.129,42.342,28.538,4.578,6.589,6.22
1132,0.784,37.619,16.114,42.313,28.527,4.578,6.468,6.18
1133,0.793,37.707,16.176,42.361,28.537,4.618,6.548,6.22
1134,0.78,37.132,16.106,42.352,28.538,4.659,6.63,6.261
1135,0.774,37.356,16.094,42.352,28.531,4.497,6.509,6.18
1136,0.774,37.522,16.176,42.333,28.531,4.536,6.549,6.179
1137,0.774,37.523,16.13,42.313,28.527,4.537,6.468,6.179
1138,0.79,37.274,16.129,42.342,28.537,4.618,6.548,6.22
1139,0.784,37.454,16.137,42.342,28.527,4.659,6.549,6.18
1140,0.787,37.599,16.11,42.313,28.527,4.538,6.468,6.139
1141,0.784,37.601,16.129,42.342,28.53,4.577,6.589,6.138
1142,0.787,37.131,16.106,42.323,28.527,4.578,6.509,6.219
1143,0.787,37.385,16.176,42.332,28.53,4.618,6.549,6.18
1144,0.793,37.541,16.114,42.323,28.534,4.659,6.63,6.179
1145,0.784,37.217,16.09,42.294,28.517,4.457,6.468,6.139
1146,0.79,37.118,16.164,42.323,28.537,4.536,6.548,6.098
1147,0.78,37.299,16.126,42.342,28.541,4.659,6.671,6.3
1148,0.78,37.473,16.114,42.342,28.531,4.619,6.631,6.18
1149,0.78,37.063,16.16,42.342,28.531,4.659,6.631,6.179
1150,0.758,37.078,16.098,42.313,28.534,4.497,6.631,6.139
1151,0.774,37.298,16.133,42.313,28.531,4.536,6.55,6.138
1152,0.771,37.445,16.122,42.361,28.551,4.74,6.793,6.301
1153,0.774,37.034,16.137,42.342,28.541,4.661,6.673,6.221
1154,0.787,37.183,16.09,42.342,28.534,4.66,6.672,6.22
1155,0.774,37.376,16.078,42.342,28.531,4.619,6.672,6.22
1156,0.767,37.474,16.16,42.304,28.531,4.537,6.631,6.139
1157,0.78,36.938,16.102,42.361,28.537,4.577,6.672,6.26
1158,0.777,37.096,16.145,42.323,28.538,4.578,6.672,6.302
1159,0.79,37.279,16.153,42.313,28.531,4.578,6.631,6.099
1160,0.787,37.387,16.165,42.351,28.531,4.537,6.672,6.178
1161,0.774,36.947,16.145,42.304,28.531,4.537,6.713,6.22
1162,0.793,37.192,16.118,42.351,28.527,4.659,6.713,6.261
1163,0.774,37.376,16.129,42.352,28.541,4.579,6.754,6.262
1164,0.78,37.455,16.137,42.323,28.524,4.496,6.551,6.139
1165,0.777,37.043,16.098,42.332,28.534,4.536,6.671,6.138
1166,0.774,37.221,16.125,42.313,28.531,4.577,6.672,6.26
1167,0.774,37.425,16.039,42.332,28.541,4.537,6.713,6.302
1168,0.774,37.532,16.117,42.361,28.541,4.659,6.794,6.302
1169,0.771,37.073,16.114,42.314,28.527,4.457,6.714,6.221
1170,0.767,37.298,16.11,42.342,28.537,4.536,6.754,6.18
1171,0.761,37.483,16.153,42.333,28.538,4.577,6.795,6.464
1172,0.77,37.571,16.087,42.342,28.534,4.618,6.755,6.223
1173,0.774,37.016,16.125,42.342,28.537,4.7,6.795,6.302
1174,0.758,37.211,16.102,42.333,28.527,4.66,6.714,6.302
1175,0.77,37.415,16.082,42.342,28.53,4.538,6.754,6.18
1176,0.767,37.484,16.152,42.342,28.534,4.699,6.795,6.383
1177,0.77,37.178,16.083,42.352,28.531,4.579,6.755,6.222
1178,0.774,37.405,16.125,42.362,28.541,4.7,6.795,6.302
1179,0.771,37.532,16.16,42.342,28.527,4.62,6.755,6.262
1180,0.774,37.581,16.134,42.323,28.527,4.497,6.673,6.221
1181,0.787,37.169,16.133,42.38,28.548,4.74,6.916,6.342
1182,0.777,37.376,16.133,42.352,28.538,4.661,6.756,6.262
1183,0.78,37.56,16.118,42.362,28.541,4.579,6.754,6.221
1184,0.784,37.505,16.106,42.323,28.541,4.618,6.714,6.18
1185,0.774,37.284,16.09,42.323,28.531,4.537,6.713,6.179
1186,0.793,37.521,16.18,42.371,28.551,4.74,6.835,6.22
1187,0.777,37.658,16.091,42.343,28.541,4.661,6.755,6.302
1188,0.758,37.573,16.105,42.352,28.538,4.579,6.714,6.14
1189,0.761,37.37,16.145,42.342,28.531,4.578,6.713,6.179
1190,0.767,37.57,16.09,42.313,28.527,4.578,6.713,6.139
1191,0.777,37.764,16.113,42.342,28.534,4.537,6.794,6.179
1192,0.767,37.372,16.121,42.342,28.537,4.659,6.795,6.261
1193,0.767,37.33,16.075,42.333,28.524,4.497,6.673,6.139
1194,0.761,37.541,16.101,42.333,28.527,4.577,6.753,6.179
1195,0.757,37.667,16.106,42.323,28.527,4.496,6.795,6.261
1196,0.767,37.362,16.152,42.342,28.53,4.618,6.714,6.221
1197,0.764,37.455,16.141,42.352,28.537,4.659,6.835,6.261
1198,0.77,37.638,16.114,42.314,28.524,4.497,6.674,6.058
1199,0.777,37.764,16.121,42.342,28.53,4.618,6.753,6.056
1200,0.764,37.277,16.106,42.342,28.534,4.619,6.876,6.3
1201,0.774,37.435,16.129,42.352,28.531,4.659,6.837,6.18
1202,0.774,37.647,16.121,42.352,28.537,4.66,6.918,6.179
1203,0.767,37.745,16.106,42.333,28.527,4.579,6.796,6.179
1204,0.777,37.344,16.082,42.333,28.53,4.578,6.755,6.098
1205,0.777,37.56,16.101,42.361,28.544,4.74,6.957,6.3
1206,0.787,37.754,16.16,42.333,28.541,4.661,6.919,6.14
1207,0.777,37.861,16.13,42.352,28.541,4.619,6.919,6.179
1208,0.767,37.325,16.11,42.323,28.531,4.537,6.878,6.139
1209,0.767,37.521,16.129,42.342,28.531,4.496,6.877,6.057
1210,0.767,37.744,16.164,42.381,28.544,4.699,7.0,6.178
1211,0.764,37.813,16.106,42.343,28.534,4.538,6.96,6.179
1212,0.764,37.411,16.156,42.342,28.537,4.618,6.96,6.098
1213,0.77,37.618,16.102,42.333,28.534,4.497,6.919,6.138
1214,0.757,37.774,16.102,42.323,28.527,4.577,6.959,6.098
1215,0.767,37.91,16.137,42.38,28.541,4.659,7.041,6.178
1216,0.757,37.518,16.149,42.343,28.538,4.619,7.001,6.22
1217,0.757,37.725,16.141,42.342,28.527,4.578,6.96,6.058
1218,0.764,37.899,16.141,42.342,28.534,4.578,7.0,6.097
1219,0.761,37.949,16.118,42.323,28.524,4.537,7.001,6.178
1220,0.777,37.432,16.149,42.352,28.53,4.496,7.082,6.22
1221,0.774,37.647,16.118,42.362,28.537,4.658,7.083,6.22
1222,0.771,37.774,16.125,42.323,28.52,4.497,7.002,6.139
1223,0.777,37.852,16.157,42.342,28.53,4.577,7.001,6.179
1224,0.771,37.508,16.083,42.333,28.531,4.618,7.082,6.301
1225,0.78,37.705,16.133,42.352,28.527,4.619,7.042,6.221
1226,0.777,37.89,16.137,42.352,28.537,4.659,7.082,6.342
1227,0.758,37.901,16.114,42.333,28.527,4.538,7.042,6.262
1228,0.761,37.403,16.098,42.342,28.53,4.537,6.96,6.139
1229,0.761,37.628,16.121,42.361,28.544,4.659,7.163,6.423
1230,0.761,37.783,16.125,42.342,28.534,4.619,7.084,6.304
1231,0.77,37.996,16.141,42.361,28.537,4.7,7.083,6.302
1232,0.761,37.567,16.122,42.342,28.538,4.62,7.042,6.221
1233,0.761,37.783,16.114,42.323,28.534,4.537,6.96,6.18
1234,0.764,37.967,16.106,42.39,28.551,4.781,7.163,6.342
1235,0.767,37.691,16.102,42.343,28.531,4.539,7.043,6.262
1236,0.774,37.544,16.184,42.361,28.537,4.577,7.082,6.221
1237,0.774,37.706,16.106,42.352,28.538,4.578,7.002,6.22
1238,0.777,37.851,16.156,42.342,28.527,4.496,7.001,6.139
1239,0.797,37.603,16.133,42.39,28.541,4.658,7.123,6.179
1240,0.787,37.601,16.161,42.352,28.538,4.619,7.083,6.22
1241,0.803,37.802,16.153,42.362,28.541,4.537,6.961,6.22
1242,0.816,37.948,16.122,42.333,28.534,4.577,7.041,6.18
1243,0.816,37.451,16.118,42.333,28.527,4.496,6.96,6.179
1244,0.849,37.609,16.082,42.371,28.53,4.577,7.082,6.179
1245,0.856,37.783,16.098,42.352,28.541,4.659,7.042,6.22
1246,0.859,37.89,16.125,42.333,28.524,4.457,6.92,6.058
1247,0.849,37.431,16.094,42.333,28.53,4.536,7.0,6.219
1248,0.856,37.599,16.137,42.352,28.537,4.659,7.082,6.342
1249,0.849,37.783,16.137,42.352,28.534,4.579,7.123,6.221
1250,0.843,37.938,16.149,42.352,28.541,4.659,7.165,6.261
1251,0.843,37.422,16.141,42.333,28.531,4.66,7.124,6.221
1252,0.846,37.647,16.106,42.342,28.527,4.497,7.124,6.098
1253,0.856,37.851,16.137,42.371,28.551,4.658,7.246,6.26
1254,0.856,37.939,16.125,42.352,28.531,4.66,7.166,6.18
1255,0.866,37.393,16.118,42.352,28.537,4.7,7.246,6.261
1256,0.849,37.57,16.125,42.342,28.534,4.62,7.044,6.139
1257,0.869,37.764,16.09,42.342,28.524,4.578,7.082,6.138
1258,0.872,37.9,16.133,42.409,28.551,4.74,7.245,6.26
1259,0.869,37.316,16.141,42.362,28.534,4.62,7.166,6.099
1260,0.889,37.54,16.141,42.381,28.537,4.578,7.124,6.178
1261,0.889,37.715,16.153,42.362,28.527,4.578,7.083,6.139
1262,0.885,37.784,16.153,42.342,28.527,4.537,7.002,6.138
1263,0.898,37.44,16.114,42.39,28.544,4.659,7.123,6.179
1264,0.886,37.618,16.121,42.343,28.534,4.619,7.165,6.139
1265,0.889,37.812,16.11,42.352,28.534,4.578,7.002,6.057
1266,0.879,37.862,16.129,42.342,28.531,4.578,7.082,6.137
1267,0.863,37.354,16.114,42.342,28.524,4.578,7.042,6.138
1268,0.859,37.608,16.117,42.361,28.53,4.618,7.123,6.179
1269,0.853,37.754,16.137,42.362,28.537,4.619,7.165,6.139
1270,0.849,37.794,16.09,42.333,28.527,4.497,7.043,6.057
1271,0.84,37.181,16.141,42.352,28.527,4.577,7.123,6.097
1272,0.852,37.386,16.141,42.352,28.534,4.659,7.205,6.178
1273,0.849,37.56,16.118,42.342,28.534,4.579,7.165,6.057
1274,0.862,37.601,16.137,42.381,28.537,4.618,7.124,6.219
1275,0.856,37.428,16.083,42.343,28.534,4.578,7.043,6.098
1276,0.859,37.638,16.152,42.352,28.527,4.496,7.001,6.097
1277,0.866,37.803,16.145,42.381,28.541,4.699,7.163,6.3
1278,0.879,37.622,16.083,42.362,28.531,4.62,7.124,6.099
1279,0.885,37.179,16.121,42.381,28.534,4.659,7.083,6.138
1280,0.879,37.357,16.114,42.362,28.531,4.619,7.002,6.179
1281,0.879,37.522,16.102,42.342,28.524,4.537,7.001,6.057
1282,0.885,37.36,16.152,42.39,28.551,4.74,7.041,6.219
1283,0.885,37.311,16.098,42.362,28.541,4.62,7.001,6.139
1284,0.895,37.502,16.106,42.381,28.534,4.619,7.041,6.057
1285,0.886,37.658,16.133,42.352,28.531,4.619,6.92,6.097
1286,0.879,37.103,16.133,42.323,28.527,4.537,6.756,6.016
1287,0.885,37.203,16.118,42.38,28.541,4.699,6.876,6.137
1288,0.882,37.386,16.121,42.371,28.531,4.579,6.959,6.138
1289,0.879,37.532,16.125,42.381,28.527,4.578,6.838,6.057
1290,0.869,37.044,16.141,42.343,28.53,4.537,6.837,6.137
1291,0.872,37.193,16.079,42.352,28.531,4.496,6.755,6.057
1292,0.895,37.434,16.152,42.371,28.537,4.658,6.836,6.137
1293,0.889,37.532,16.141,42.381,28.541,4.619,6.877,6.138
1294,0.879,37.063,16.09,42.352,28.524,4.497,6.674,6.098
1295,0.876,37.25,16.121,42.362,28.523,4.577,6.794,6.097
1296,0.853,37.425,16.133,42.342,28.53,4.578,6.755,6.138
1297,0.879,37.561,16.137,42.352,28.537,4.659,6.754,6.138
1298,0.869,36.948,16.114,42.371,28.531,4.7,6.836,6.138
1299,0.859,37.115,16.117,42.323,28.527,4.498,6.755,6.057
1300,0.869,37.308,16.153,42.352,28.534,4.577,6.714,6.056
1301,0.853,37.416,16.083,42.362,28.541,4.659,6.876,6.259
1302,0.84,36.928,16.101,42.371,28.538,4.579,6.796,6.18
1303,0.852,37.153,16.145,42.381,28.538,4.7,6.795,6.179
1304,0.827,37.299,16.067,42.352,28.527,4.579,6.795,6.057
1305,0.826,37.406,16.109,42.371,28.527,4.578,6.755,6.056
1306,0.836,36.947,16.153,42.41,28.548,4.7,6.836,6.097
1307,0.807,37.144,16.137,42.381,28.531,4.62,6.796,6.138
1308,0.816,37.338,16.129,42.391,28.531,4.578,6.836,6.057
1309,0.794,37.407,16.121,42.362,28.534,4.659,6.837,6.097
1310,0.784,36.794,16.129,42.342,28.531,4.579,6.796,6.056
1311,0.803,37.085,16.114,42.371,28.531,4.537,6.917,6.015
1312,0.774,37.222,16.125,42.371,28.534,4.577,7.041,6.096
1313,0.771,37.271,16.149,42.362,28.527,4.496,6.92,5.935
1314,0.757,36.878,16.09,42.362,28.534,4.618,6.959,6.055
1315,0.748,37.076,16.098,42.362,28.52,4.578,7.0,6.137
1316,0.764,37.26,16.164,42.381,28.537,4.659,7.001,6.098
1317,0.767,37.3,16.122,42.391,28.538,4.66,7.123,6.097
1318,0.754,36.697,16.129,42.352,28.52,4.457,6.961,6.056
1319,0.748,36.921,16.11,42.362,28.534,4.577,7.082,6.056
1320,0.751,37.067,16.129,42.362,28.534,4.659,7.123,6.178
1321,0.754,37.289,16.11,42.381,28.537,4.619,7.124,6.139
1322,0.754,36.812,16.121,42.381,28.541,4.741,7.124,6.179
1323,0.741,36.979,16.106,42.362,28.527,4.579,7.002,6.098
1324,0.757,37.144,16.137,42.362,28.527,4.618,7.001,6.016
1325,0.748,36.839,16.094,42.371,28.537,4.619,7.123,6.178
1326,0.76,36.567,16.152,42.381,28.534,4.619,7.002,6.098
1327,0.764,36.795,16.137,42.381,28.541,4.7,7.041,6.138
1328,0.731,36.912,16.106,42.419,28.524,4.62,7.001,6.138
1329,0.728,36.693,16.113,42.362,28.523,4.578,6.96,6.016
1330,0.721,36.738,16.102,42.381,28.541,4.7,7.041,6.178
1331,0.721,36.931,16.133,42.371,28.534,4.579,7.001,6.139
1332,0.737,37.096,16.141,42.381,28.537,4.618,6.96,6.138
1333,0.725,36.503,16.145,42.381,28.531,4.659,6.838,6.098
1334,0.711,36.593,16.126,42.371,28.527,4.579,6.796,6.056
1335,0.724,36.843,16.102,42.419,28.551,4.74,6.958,6.178
1336,0.721,36.941,16.137,42.391,28.538,4.661,6.878,6.098
1337,0.721,36.367,16.157,42.381,28.531,4.7,6.837,6.056
1338,0.715,36.515,16.13,42.477,28.537,4.579,6.837,6.097
1339,0.708,36.708,16.114,42.372,28.527,4.537,6.674,5.975
1340,0.734,36.863,16.141,42.41,28.541,4.699,6.835,6.096
1341,0.721,36.424,16.129,42.391,28.538,4.701,6.877,6.056
1342,0.731,36.611,16.153,42.391,28.541,4.538,6.715,6.056
1343,0.725,36.805,16.114,42.381,28.544,4.577,6.794,6.015
1344,0.721,36.912,16.098,42.352,28.527,4.578,6.795,6.015
1345,0.731,36.242,16.082,42.381,28.53,4.659,6.755,6.096
1346,0.721,36.437,16.144,42.391,28.534,4.66,6.795,6.056
1347,0.708,36.621,16.094,42.371,28.527,4.579,6.714,6.015
1348,0.715,36.738,16.094,42.381,28.537,4.537,6.794,6.015
1349,0.715,36.231,16.121,42.352,28.534,4.577,6.795,6.137
1350,0.711,36.475,16.137,42.381,28.537,4.618,6.877,6.057
1351,0.715,36.66,16.106,42.4,28.538,4.7,6.959,6.097
1352,0.698,36.719,16.137,42.352,28.527,4.538,6.838,6.016
1353,0.705,36.202,16.118,42.381,28.524,4.537,6.877,6.015
1354,0.695,36.417,16.075,42.381,28.537,4.659,6.959,6.178
1355,0.705,36.611,16.133,42.41,28.531,4.619,6.919,6.017
1356,0.705,36.69,16.122,42.4,28.541,4.659,6.959,6.056
1357,0.702,36.201,16.098,42.362,28.524,4.619,6.96,6.015
1358,0.708,36.446,16.094,42.381,28.527,4.537,6.96,5.934
1359,0.711,36.602,16.106,42.4,28.537,4.699,7.122,6.136
1360,0.708,36.68,16.113,42.4,28.531,4.579,6.961,6.057
1361,0.715,36.086,16.133,42.419,28.534,4.659,7.041,6.015
1362,0.708,36.272,16.118,42.391,28.534,4.579,6.96,5.974
1363,0.715,36.456,16.133,42.391,28.531,4.496,6.919,5.974
1364,0.728,36.516,16.086,42.41,28.548,4.699,7.081,6.055
1365,0.721,36.065,16.121,42.4,28.534,4.66,7.002,6.097
1366,0.724,36.262,16.129,42.391,28.537,4.579,7.001,5.975
1367,0.711,36.427,16.121,42.391,28.531,4.578,7.041,6.015
1368,0.708,36.439,16.129,42.371,28.527,4.578,6.96,5.974
1369,0.721,36.093,16.125,42.41,28.537,4.659,7.122,6.055
1370,0.715,36.272,16.141,42.4,28.534,4.66,7.083,6.015
1371,0.721,36.447,16.098,42.381,28.527,4.538,6.961,5.852
1372,0.708,36.151,16.129,42.381,28.534,4.496,7.041,5.932
1373,0.715,36.023,16.121,42.371,28.531,4.618,7.042,5.974
1374,0.724,36.271,16.129,42.39,28.537,4.619,7.082,6.055
1375,0.734,36.427,16.118,42.4,28.534,4.659,7.164,6.097
1376,0.731,35.873,16.129,42.352,28.524,4.579,7.043,6.016
1377,0.747,35.915,16.145,42.4,28.53,4.578,7.082,5.934
1378,0.764,36.127,16.157,42.4,28.541,4.7,7.205,6.096
1379,0.78,36.263,16.106,42.4,28.534,4.66,7.084,5.975
1380,0.793,35.785,16.152,42.41,28.537,4.619,7.286,6.096
1381,0.8,35.895,16.106,42.4,28.531,4.578,7.044,6.016
1382,0.855,36.117,16.106,42.381,28.537,4.496,7.164,5.934
1383,0.908,36.272,16.09,42.429,28.551,4.74,7.287,6.177
1384,0.951,35.622,16.098,42.391,28.538,4.661,7.166,5.976
1385,1.016,35.826,16.129,42.4,28.541,4.66,7.246,5.933
1386,1.072,36.011,16.137,42.4,28.531,4.66,7.166,5.933
1387,1.138,36.128,16.161,42.372,28.527,4.579,7.206,5.933
1388,1.197,35.688,16.102,42.429,28.551,4.781,7.45,5.933
1389,1.227,35.846,16.113,42.391,28.538,4.702,7.371,6.014
1390,1.256,36.059,16.16,42.391,28.534,4.66,7.411,5.893
1391,1.266,36.176,16.13,42.41,28.534,4.579,7.533,6.014
1392,1.306,35.64,16.129,42.391,28.52,4.537,7.494,5.974
1393,1.329,35.903,16.141,42.419,28.534,4.618,7.697,6.015
1394,1.274,36.04,16.129,42.42,28.527,4.659,7.74,6.137
1395,1.215,36.166,16.106,42.391,28.517,4.579,7.618,5.976
1396,1.185,35.669,16.106,42.4,28.53,4.618,7.779,6.137
1397,1.155,35.875,16.152,42.4,28.534,4.659,7.781,6.26
1398,1.122,36.078,16.126,42.41,28.531,4.66,7.74,6.18
1399,1.07,36.167,16.102,42.4,28.531,4.66,7.821,6.261
1400,1.024,35.477,16.145,42.372,28.524,4.579,7.741,6.139
1401,1.027,35.71,16.106,42.429,28.523,4.537,7.74,6.138
1402,1.017,35.894,16.125,42.41,28.53,4.699,7.781,6.382
1403,0.994,35.973,16.121,42.391,28.534,4.66,7.781,6.263
1404,0.981,35.533,16.075,42.429,28.537,4.66,7.822,6.221
1405,0.961,35.787,16.121,42.41,28.538,4.66,7.659,6.22
1406,0.99,35.914,16.141,42.4,28.531,4.619,7.698,6.139
1407,0.984,36.011,16.11,42.439,28.544,4.7,7.699,6.26
1408,0.965,35.485,16.121,42.42,28.538,4.66,7.618,6.343
1409,0.942,35.7,16.078,42.42,28.527,4.66,7.617,6.343
1410,0.88,35.856,16.129,42.429,28.534,4.66,7.617,6.303
1411,0.791,35.829,16.125,42.401,28.531,4.538,7.535,6.343
1412,0.702,35.541,16.129,42.429,28.527,4.659,7.575,6.425
1413,0.63,35.71,16.137,42.429,28.534,4.579,7.616,6.629
1414,0.574,35.885,16.106,42.41,28.527,4.537,7.413,6.55
1415,0.486,35.647,16.11,42.42,28.527,4.577,7.533,6.712
1416,0.374,35.309,16.133,42.401,28.527,4.578,7.494,6.835
1417,0.308,35.545,16.106,42.419,28.53,4.618,7.494,6.958
1418,0.197,35.711,16.078,42.439,28.531,4.659,7.575,7.122
1419,0.069,35.424,16.113,42.391,28.524,4.497,7.372,7.083
1420,-0.04,35.422,16.09,42.419,28.53,4.536,7.452,7.205
1421,-0.171,35.623,16.105,42.429,28.531,4.659,7.534,7.491
1422,-0.27,35.798,16.09,42.41,28.531,4.66,7.412,7.494
1423,-0.356,35.291,16.137,42.439,28.531,4.7,7.493,7.656
1424,-0.425,35.334,16.102,42.401,28.52,4.579,7.412,7.617
1425,-0.474,35.584,16.082,42.41,28.523,4.578,7.371,7.698
1426,-0.507,35.721,16.144,42.429,28.548,4.7,7.573,7.943
1427,-0.55,35.108,16.067,42.41,28.534,4.579,7.413,7.945
1428,-0.55,35.303,16.086,42.429,28.544,4.659,7.289,7.986
1429,-0.534,35.468,16.117,42.42,28.531,4.619,7.288,7.946
1430,-0.501,35.604,16.114,42.401,28.527,4.578,7.207,7.986
1431,-0.436,35.069,16.117,42.458,28.544,4.74,7.369,8.23
1432,-0.377,35.245,16.129,42.43,28.524,4.661,7.289,8.233
1433,-0.331,35.468,16.094,42.429,28.53,4.66,7.125,8.314
1434,-0.291,35.585,16.102,42.429,28.534,4.579,7.124,8.559
1435,-0.252,35.088,16.09,42.429,28.527,4.496,7.002,8.643
1436,-0.183,35.341,16.156,42.449,28.541,4.658,7.123,8.928
1437,-0.114,35.488,16.094,42.449,28.538,4.66,7.124,9.134
1438,-0.035,35.614,16.067,42.43,28.531,4.538,7.043,9.136
1439,0.044,35.069,16.121,42.42,28.531,4.699,6.96,9.421
1440,0.119,35.293,16.125,42.41,28.527,4.579,7.0,9.79
1441,0.198,35.507,16.114,42.448,28.534,4.618,6.96,9.996
1442,0.274,35.605,16.125,42.468,28.537,4.7,7.0,10.365
1443,0.346,34.934,16.121,42.411,28.52,4.498,6.838,10.571
1444,0.421,35.158,16.086,42.439,28.527,4.618,6.918,10.777
1445,0.471,35.333,16.121,42.429,28.534,4.7,6.959,11.064
1446,0.53,35.449,16.11,42.449,28.534,4.66,7.0,11.188
1447,0.573,35.115,16.125,42.449,28.541,4.7,7.041,11.434
1448,0.593,35.313,16.079,42.41,28.527,4.579,7.001,11.395
1449,0.629,35.488,16.07,42.439,28.527,4.659,7.082,11.517
1450,0.658,35.585,16.125,42.458,28.541,4.782,7.286,11.721
1451,0.672,34.857,16.09,42.439,28.534,4.702,7.004,11.601
1452,0.698,35.099,16.129,42.449,28.541,4.66,7.082,11.6
1453,0.718,35.255,16.153,42.439,28.534,4.66,7.042,11.56
1454,0.737,35.286,16.098,42.429,28.524,4.619,7.001,11.356
1455,0.76,35.104,16.113,42.477,28.551,4.741,7.123,11.517
1456,0.757,35.294,16.156,42.439,28.531,4.661,7.124,11.477
1457,0.774,35.468,16.094,42.449,28.531,4.66,7.083,11.436
1458,0.777,35.614,16.109,42.439,28.534,4.619,7.083,11.395
1459,0.777,34.915,16.078,42.439,28.531,4.578,7.042,11.232
1460,0.803,35.177,16.137,42.458,28.537,4.659,7.082,11.353
1461,0.803,35.285,16.122,42.458,28.531,4.741,7.042,11.354
1462,0.8,35.075,16.098,42.439,28.531,4.498,6.879,11.232
1463,0.797,34.948,16.113,42.458,28.534,4.577,7.04,11.271
1464,0.807,35.12,16.063,42.43,28.534,4.578,6.96,11.231
1465,0.81,35.313,16.113,42.458,28.531,4.659,7.0,11.271
1466,0.816,34.874,16.149,42.458,28.541,4.7,7.001,11.109
1467,0.81,34.889,16.106,42.43,28.524,4.538,6.919,11.067
1468,0.813,35.138,16.125,42.449,28.534,4.577,7.041,11.026
1469,0.82,35.237,16.125,42.439,28.534,4.7,7.001,11.147
1470,0.823,34.864,16.121,42.449,28.534,4.579,7.041,11.026
1471,0.836,35.004,16.11,42.468,28.537,4.74,7.082,10.985
1472,0.817,35.178,16.09,42.43,28.534,4.661,6.88,10.903
1473,0.839,35.333,16.117,42.439,28.537,4.66,6.959,10.821
1474,0.839,34.721,16.067,42.487,28.538,4.822,7.041,10.942
1475,0.846,34.926,16.097,42.459,28.541,4.702,6.96,10.781
1476,0.846,35.11,16.148,42.458,28.538,4.701,6.878,10.657
1477,0.846,35.208,16.11,42.478,28.531,4.66,6.918,10.534
1478,0.856,34.7,16.125,42.439,28.527,4.619,6.878,10.329
1479,0.872,34.944,16.133,42.506,28.544,4.741,7.04,10.327
1480,0.879,35.12,16.137,42.459,28.531,4.701,7.082,10.286
1481,0.892,35.236,16.149,42.458,28.537,4.742,7.083,10.123
1482,0.892,34.681,16.079,42.458,28.534,4.661,7.164,10.041
1483,0.886,34.868,16.09,42.449,28.524,4.538,7.206,9.918
1484,0.905,35.119,16.066,42.477,28.541,4.699,7.328,9.835
1485,0.889,35.198,16.082,42.459,28.538,4.66,7.451,9.834
1486,0.895,34.691,16.144,42.439,28.531,4.579,7.412,9.59
1487,0.895,34.906,16.063,42.439,28.537,4.7,7.411,9.629
1488,0.889,35.081,16.105,42.449,28.524,4.66,7.452,9.507
1489,0.905,35.217,16.137,42.487,28.534,4.7,7.493,9.425
1490,0.915,34.652,16.129,42.478,28.541,4.701,7.575,9.424
1491,0.902,34.858,16.125,42.439,28.527,4.538,7.535,9.18
1492,0.905,35.052,16.114,42.449,28.534,4.699,7.534,9.096
1493,0.902,35.121,16.078,42.477,28.531,4.579,7.657,9.136
1494,0.912,34.709,16.078,42.478,28.534,4.618,7.658,9.055
1495,0.908,34.925,16.062,42.478,28.537,4.7,7.78,9.013
1496,0.912,35.081,16.129,42.459,28.517,4.62,7.659,8.85
1497,0.925,35.159,16.114,42.478,28.53,4.659,7.698,8.767
1498,0.918,34.642,16.09,42.478,28.541,4.7,7.821,8.889
1499,0.931,34.858,16.145,42.459,28.527,4.701,7.741,8.687
1500,0.938,35.032,16.079,42.497,28.534,4.742,7.821,8.684
1501,0.935,35.053,16.105,42.468,28.534,4.539,7.781,8.522
1502,0.941,34.728,16.113,42.478,28.531,4.659,7.7,8.479
1503,0.951,34.954,16.125,42.526,28.544,4.822,7.943,8.601
1504,0.958,35.12,16.121,42.497,28.534,4.702,7.864,8.399
1505,0.951,35.006,16.082,42.497,28.537,4.66,7.822,8.275
1506,0.945,34.66,16.141,42.478,28.531,4.66,7.781,8.233
1507,0.945,34.829,16.133,42.459,28.527,4.619,7.74,8.111
1508,0.967,35.061,16.098,42.497,28.534,4.7,7.821,8.191
1509,0.961,34.689,16.113,42.488,28.531,4.66,7.863,8.151
1510,0.945,34.599,16.102,42.478,28.534,4.579,7.741,7.947
1511,0.948,34.809,16.11,42.497,28.531,4.618,7.699,7.864
1512,0.938,34.955,16.121,42.478,28.534,4.659,7.78,8.026
1513,0.948,34.612,16.09,42.478,28.537,4.66,7.781,7.946
1514,0.967,34.714,16.074,42.507,28.541,4.7,7.822,7.945
1515,0.955,34.878,16.062,42.468,28.527,4.66,7.7,7.864
1516,0.964,35.042,16.136,42.487,28.53,4.579,7.658,7.822
1517,0.974,34.526,16.106,42.497,28.541,4.74,7.82,7.944
1518,0.968,34.674,16.082,42.497,28.531,4.661,7.619,7.783
1519,0.984,34.887,16.09,42.507,28.541,4.7,7.657,7.7
1520,0.981,35.014,16.086,42.497,28.534,4.62,7.576,7.618
1521,0.981,34.487,16.102,42.478,28.527,4.578,7.535,7.617
1522,0.994,34.722,16.129,42.516,28.544,4.74,7.534,7.698
1523,0.997,34.926,16.094,42.507,28.538,4.661,7.494,7.658
1524,0.997,35.033,16.09,42.507,28.538,4.619,7.453,7.455
1525,0.997,34.401,16.059,42.488,28.527,4.619,7.452,7.493
1526,0.997,34.577,16.121,42.468,28.527,4.619,7.371,7.331
1527,1.004,34.828,16.125,42.497,28.534,4.619,7.411,7.41
1528,0.987,34.946,16.098,42.497,28.534,4.659,7.371,7.452
1529,0.997,34.496,16.137,42.488,28.527,4.66,7.248,7.249
1530,0.997,34.712,16.079,42.497,28.524,4.66,7.288,7.328
1531,0.997,34.906,16.101,42.478,28.527,4.497,7.288,7.289
1532,1.004,35.052,16.137,42.497,28.53,4.699,7.288,7.288
1533,1.0,34.43,16.133,42.507,28.541,4.701,7.329,7.288
1534,1.0,34.616,16.086,42.459,28.52,4.538,7.207,7.247
1535,1.007,34.829,16.066,42.506,28.53,4.577,7.206,7.206
1536,1.004,34.907,16.129,42.497,28.534,4.7,7.328,7.287
1537,1.02,34.419,16.121,42.497,28.537,4.742,7.329,7.247
1538,1.036,34.654,16.114,42.507,28.538,4.661,7.248,7.247
1539,1.024,34.8,16.114,42.478,28.527,4.7,7.206,7.206
1540,1.033,34.888,16.137,42.468,28.53,4.701,7.206,7.084
1541,1.037,34.371,16.118,42.516,28.548,4.742,7.369,7.245
1542,1.04,34.586,16.141,42.497,28.541,4.701,7.208,7.125
1543,1.053,34.771,16.106,42.507,28.538,4.66,7.206,7.043
1544,1.063,34.811,16.078,42.497,28.538,4.66,7.206,7.042
1545,1.047,34.418,16.101,42.478,28.531,4.619,7.125,7.001
1546,1.056,34.673,16.133,42.526,28.544,4.781,7.287,7.123
1547,1.043,34.82,16.11,42.497,28.534,4.661,7.207,7.002
1548,1.056,35.042,16.086,42.507,28.537,4.66,7.084,6.919
1549,1.06,34.382,16.098,42.507,28.538,4.66,7.164,6.959
1550,1.06,34.567,16.113,42.478,28.527,4.579,7.084,6.878
1551,1.066,34.78,16.106,42.516,28.537,4.618,7.164,6.959
1552,1.056,34.658,16.121,42.516,28.538,4.659,7.206,6.96
1553,1.073,34.532,16.133,42.507,28.524,4.538,7.043,6.756
1554,1.069,34.722,16.071,42.516,28.537,4.659,7.123,6.836
1555,1.056,34.897,16.101,42.497,28.531,4.579,7.165,6.999
1556,1.076,34.342,16.106,42.507,28.541,4.659,7.165,6.96
1557,1.083,34.337,16.133,42.507,28.531,4.741,7.246,6.919
1558,1.076,34.5,16.125,42.497,28.52,4.498,7.084,6.837
1559,1.083,34.664,16.098,42.507,28.527,4.577,7.083,6.877
1560,1.086,34.388,16.137,42.507,28.534,4.659,7.205,7.0
1561,1.099,34.519,16.106,42.507,28.534,4.66,7.165,6.919
1562,1.096,34.732,16.137,42.526,28.541,4.66,7.124,6.959
1563,1.096,34.839,16.106,42.497,28.531,4.7,7.205,6.878
1564,1.115,34.265,16.055,42.497,28.527,4.579,6.962,6.755
1565,1.119,34.48,16.078,42.535,28.537,4.781,7.204,6.957
1566,1.119,34.655,16.105,42.507,28.541,4.661,7.084,6.838
1567,1.135,34.8,16.098,42.526,28.541,4.66,7.123,6.877
1568,1.119,34.178,16.141,42.517,28.534,4.66,7.002,6.796
1569,1.122,34.354,16.118,42.516,28.524,4.538,6.96,6.795
1570,1.132,34.596,16.192,42.555,28.548,4.74,7.122,6.795
1571,1.119,34.704,16.13,42.526,28.531,4.661,7.043,6.714
1572,1.129,34.273,16.125,42.526,28.534,4.538,7.001,6.632
1573,1.135,34.49,16.137,42.517,28.534,4.659,7.041,6.753
1574,1.135,34.684,16.086,42.507,28.524,4.579,7.001,6.714
1575,1.151,34.82,16.113,42.526,28.534,4.618,7.082,6.754
1576,1.145,34.275,16.106,42.507,28.534,4.659,7.042,6.714
1577,1.145,34.47,16.11,42.526,28.524,4.538,6.92,6.551
1578,1.158,34.674,16.125,42.536,28.534,4.618,7.041,6.671
1579,1.165,34.762,16.121,42.498,28.531,4.659,7.042,6.753
1580,1.174,34.216,16.118,42.535,28.534,4.66,7.042,6.754
1581,1.171,34.441,16.102,42.536,28.537,4.619,7.082,6.795
1582,1.175,34.597,16.078,42.488,28.524,4.619,7.002,6.673
1583,1.178,34.713,16.105,42.535,28.53,4.619,7.001,6.591
1584,1.184,34.197,16.078,42.545,28.537,4.7,7.123,6.875
1585,1.191,34.431,16.109,42.526,28.538,4.66,7.043,6.674
1586,1.194,34.597,16.09,42.545,28.538,4.66,7.001,6.753
1587,1.181,34.656,16.121,42.526,28.538,4.66,7.001,6.673
1588,1.194,34.158,16.098,42.526,28.531,4.579,7.041,6.631
1589,1.204,34.412,16.074,42.574,28.551,4.74,7.164,6.753
1590,1.198,34.577,16.098,42.527,28.534,4.661,7.084,6.714
1591,1.207,34.627,16.117,42.555,28.537,4.7,7.083,6.672
1592,1.204,34.148,16.102,42.536,28.538,4.62,7.042,6.672
1593,1.211,34.364,16.102,42.526,28.527,4.537,7.001,6.631
1594,1.22,34.577,16.113,42.574,28.541,4.659,7.123,6.712
1595,1.211,34.56,16.098,42.555,28.538,4.619,7.124,6.713
1596,1.23,34.205,16.18,42.546,28.534,4.619,7.002,6.591
1597,1.227,34.403,16.11,42.536,28.531,4.619,7.082,6.671
1598,1.221,34.568,16.102,42.536,28.524,4.537,7.042,6.631
1599,1.234,34.358,16.07,42.574,28.534,4.699,7.082,6.672
1600,1.237,34.241,16.097,42.555,28.537,4.66,7.164,6.753
1601,1.244,34.47,16.09,42.536,28.524,4.497,6.921,6.51
1602,1.244,34.616,16.074,42.536,28.53,4.618,7.041,6.711
1603,1.234,34.119,16.121,42.555,28.534,4.537,7.123,6.713
1604,1.25,34.172,16.078,42.546,28.534,4.659,7.083,6.713
1605,1.25,34.421,16.09,42.555,28.541,4.66,7.205,6.794
1606,1.237,34.52,16.129,42.526,28.531,4.619,7.084,6.673
1607,1.237,34.099,16.09,42.526,28.527,4.537,7.042,6.631
1608,1.24,34.277,16.078,42.574,28.541,4.781,7.245,6.794
1609,1.247,34.48,16.14,42.565,28.541,4.661,7.206,6.714
1610,1.253,34.607,16.067,42.574,28.538,4.741,7.247,6.754
1611,1.227,34.109,16.101,42.565,28.538,4.62,7.166,6.632
1612,1.234,34.287,16.121,42.546,28.534,4.497,7.124,6.631
1613,1.247,34.557,16.125,42.574,28.544,4.74,7.205,6.55
1614,1.234,34.655,16.09,42.575,28.538,4.661,7.247,6.671
1615,1.25,34.167,16.117,42.584,28.531,4.497,7.206,6.55
1616,1.25,34.373,16.141,42.565,28.534,4.618,7.206,6.59
1617,1.247,34.548,16.137,42.555,28.527,4.578,7.247,6.671
1618,1.26,34.713,16.098,42.574,28.537,4.618,7.328,6.631
1619,1.257,34.139,16.109,42.575,28.538,4.7,7.329,6.672
1620,1.26,34.344,16.125,42.555,28.524,4.498,7.207,6.469
1621,1.257,34.557,16.094,42.574,28.53,4.658,7.287,6.548
1622,1.247,34.636,16.125,42.565,28.537,4.66,7.369,6.63
1623,1.25,34.311,16.09,42.565,28.531,4.66,7.452,6.55
1624,1.26,34.528,16.113,42.574,28.537,4.66,7.493,6.59
1625,1.247,34.674,16.082,42.536,28.527,4.579,7.412,6.468
1626,1.25,34.781,16.121,42.565,28.534,4.537,7.452,6.426
1627,1.247,34.389,16.106,42.584,28.541,4.699,7.574,6.71
1628,1.244,34.596,16.098,42.594,28.541,4.62,7.454,6.51
1629,1.24,34.79,16.129,42.594,28.541,4.659,7.493,6.589
1630,1.221,34.85,16.141,42.565,28.538,4.619,7.453,6.427
1631,1.234,34.505,16.098,42.565,28.531,4.537,7.371,6.466
1632,1.237,34.78,16.137,42.603,28.548,4.821,7.533,6.629
1633,1.221,34.926,16.114,42.594,28.534,4.621,7.453,6.55
1634,1.224,34.985,16.098,42.604,28.537,4.659,7.412,6.468
1635,1.224,34.679,16.094,42.575,28.531,4.579,7.371,6.548
1636,1.214,34.868,16.078,42.565,28.531,4.537,7.33,6.427
1637,1.227,35.08,16.144,42.594,28.537,4.659,7.37,6.466
1638,1.208,35.054,16.079,42.594,28.541,4.66,7.289,6.467
1639,1.214,34.766,16.117,42.584,28.527,4.66,7.207,6.304
1640,1.201,34.974,16.117,42.584,28.541,4.619,7.206,6.425
1641,1.191,35.139,16.102,42.565,28.527,4.537,7.165,6.466
1642,1.201,35.227,16.141,42.584,28.534,4.699,7.206,6.507
1643,1.191,35.132,16.102,42.584,28.537,4.701,7.247,6.467
1644,1.188,35.313,16.059,42.555,28.52,4.457,7.125,6.304
1645,1.178,35.478,16.078,42.584,28.53,4.536,7.083,6.384
1646,1.165,35.25,16.101,42.575,28.534,4.659,7.245,6.507
1647,1.161,35.238,16.125,42.584,28.534,4.66,7.084,6.386
1648,1.158,35.449,16.09,42.603,28.541,4.66,7.164,6.466
1649,1.132,35.575,16.09,42.594,28.534,4.619,7.124,6.345
1650,1.129,35.481,16.141,42.584,28.531,4.578,7.002,6.343
1651,1.122,35.643,16.11,42.623,28.541,4.7,7.204,6.506
1652,1.109,35.817,16.145,42.594,28.534,4.62,7.125,6.386
1653,1.112,35.982,16.098,42.604,28.534,4.659,7.165,6.344
1654,1.089,35.667,16.086,42.594,28.531,4.66,7.165,6.343
1655,1.079,35.798,16.105,42.584,28.524,4.538,7.043,6.384
1656,1.079,36.049,16.129,42.623,28.551,4.659,7.164,6.344
1657,1.07,36.147,16.137,42.604,28.538,4.66,7.124,6.343
1658,1.066,35.899,16.09,42.613,28.531,4.66,7.002,6.262
1659,1.063,36.088,16.102,42.604,28.534,4.538,7.041,6.384
1660,1.05,36.282,16.141,42.584,28.524,4.537,7.082,6.303
1661,1.063,36.428,16.126,42.613,28.534,4.577,7.083,6.343
1662,1.05,36.16,16.121,42.604,28.534,4.659,7.083,6.384
1663,1.037,36.369,16.09,42.594,28.524,4.497,6.961,6.263
1664,1.02,36.543,16.078,42.594,28.537,4.577,6.96,6.221
1665,1.017,36.632,16.098,42.604,28.538,4.618,7.041,6.424
1666,1.014,36.565,16.106,42.594,28.534,4.7,7.042,6.385
1667,0.997,36.785,16.16,42.613,28.534,4.742,7.123,6.425
1668,0.984,36.941,16.052,42.575,28.524,4.579,7.002,6.304
1669,0.987,37.048,16.089,42.613,28.534,4.578,6.96,6.302
1670,0.971,36.79,16.113,42.613,28.541,4.74,7.122,6.384
1671,0.968,37.017,16.114,42.613,28.538,4.579,7.002,6.385
1672,0.951,37.212,16.125,42.613,28.534,4.659,7.001,6.344
1673,0.941,37.252,16.075,42.613,28.531,4.619,6.838,6.262
1674,0.938,37.176,16.07,42.604,28.531,4.578,6.837,6.221
1675,0.932,37.424,16.121,42.623,28.544,4.7,6.999,6.424
1676,0.935,37.561,16.145,42.604,28.531,4.66,6.919,6.385
1677,0.931,37.629,16.129,42.623,28.534,4.7,6.878,6.344
1678,0.918,37.477,16.082,42.623,28.534,4.701,6.796,6.303
1679,0.915,37.667,16.078,42.604,28.531,4.498,6.755,6.221
1680,0.931,37.87,16.129,42.623,28.544,4.74,6.917,6.342
1681,0.915,37.872,16.079,42.613,28.527,4.661,6.837,6.343
1682,0.909,37.795,16.121,42.613,28.537,4.579,6.796,6.181
1683,0.895,38.006,16.063,42.632,28.527,4.618,6.755,6.301
1684,0.886,38.132,16.062,42.594,28.534,4.537,6.714,6.262
1685,0.902,38.431,16.125,42.632,28.541,4.577,6.794,6.262
1686,0.895,38.098,16.133,42.613,28.538,4.659,6.755,6.343
1687,0.882,38.296,16.122,42.613,28.531,4.497,6.632,6.181
1688,0.876,38.423,16.102,42.613,28.534,4.577,6.712,6.22
1689,0.869,38.367,16.078,42.604,28.531,4.578,6.754,6.22
1690,0.876,38.289,16.113,42.632,28.537,4.659,6.714,6.302
1691,0.866,38.509,16.086,42.623,28.541,4.66,6.794,6.302
1692,0.846,38.626,16.063,42.594,28.527,4.538,6.714,6.221
1693,0.84,38.57,16.144,42.623,28.537,4.537,6.672,6.261
1694,0.836,38.637,16.044,42.632,28.544,4.659,6.753,6.465
1695,0.833,38.858,16.113,42.633,28.534,4.619,6.714,6.304
1696,0.833,38.966,16.156,42.661,28.537,4.7,6.754,6.343
1697,0.836,38.689,16.137,42.633,28.538,4.579,6.673,6.262
1698,0.833,38.83,16.083,42.633,28.531,4.578,6.631,6.18
1699,0.839,39.032,16.09,42.681,28.548,4.74,6.794,6.301
1700,0.843,39.14,16.109,42.643,28.534,4.579,6.755,6.343
1701,0.839,38.911,16.121,42.652,28.537,4.578,6.673,6.343
1702,0.833,39.072,16.102,42.633,28.531,4.578,6.713,6.262
1703,0.833,39.236,16.117,42.613,28.527,4.496,6.632,6.139
1704,0.852,39.401,16.133,42.652,28.53,4.658,6.672,6.26
1705,0.836,39.124,16.09,42.652,28.531,4.619,6.672,6.262
1706,0.823,39.275,16.168,42.623,28.524,4.456,6.55,6.139
1707,0.817,39.468,16.138,42.623,28.537,4.577,6.59,6.219
1708,0.823,39.557,16.129,42.642,28.538,4.578,6.712,6.261
1709,0.813,39.241,16.11,42.623,28.534,4.659,6.754,6.302
1710,0.813,39.449,16.141,42.652,28.537,4.619,6.795,6.302
1711,0.8,39.604,16.106,42.623,28.531,4.578,6.795,6.302
1712,0.81,39.711,16.082,42.623,28.527,4.578,6.633,6.18
1713,0.816,39.482,16.125,42.661,28.548,4.7,6.916,6.383
1714,0.813,39.701,16.106,42.662,28.531,4.701,6.837,6.263
1715,0.82,39.866,16.098,42.652,28.537,4.62,6.877,6.221
1716,0.8,39.944,16.133,42.652,28.531,4.659,6.796,6.22
1717,0.813,39.581,16.122,42.633,28.531,4.538,6.795,6.18
1718,0.826,39.807,16.114,42.681,28.544,4.659,6.917,6.179
1719,0.81,39.944,16.121,42.652,28.538,4.579,6.919,6.22
1720,0.807,40.022,16.09,42.662,28.534,4.456,6.796,6.18
1721,0.816,39.716,16.129,42.652,28.531,4.577,6.877,6.22
1722,0.813,39.904,16.082,42.633,28.531,4.537,6.837,6.139
1723,0.823,40.098,16.129,42.671,28.537,4.577,6.918,6.26
1724,0.82,40.138,16.102,42.662,28.541,4.578,7.0,6.262
1725,0.807,39.851,16.094,42.652,28.52,4.456,6.838,6.099
1726,0.813,40.059,16.109,42.652,28.537,4.577,6.877,6.178
1727,0.8,40.205,16.106,42.652,28.534,4.659,6.959,6.301
1728,0.803,40.245,16.086,42.662,28.534,4.579,6.96,6.221
1729,0.813,40.015,16.121,42.681,28.541,4.578,6.96,6.302
1730,0.794,40.176,16.078,42.633,28.531,4.578,6.919,6.221
1731,0.8,40.35,16.105,42.652,28.531,4.578,6.878,6.18
1732,0.8,40.304,16.149,42.671,28.541,4.74,7.0,6.423
1733,0.8,39.968,16.106,42.671,28.534,4.579,6.919,6.263
1734,0.794,40.175,16.106,42.681,28.534,4.7,6.959,6.262
1735,0.79,40.283,16.067,42.671,28.534,4.579,6.96,6.221
1736,0.8,40.13,16.105,42.652,28.531,4.496,6.878,6.22
1737,0.81,40.11,16.129,42.7,28.548,4.78,7.04,6.302
1738,0.8,40.282,16.09,42.681,28.538,4.62,7.001,6.302
1739,0.803,40.399,16.098,42.691,28.534,4.619,6.919,6.221
1740,0.81,40.026,16.07,42.672,28.537,4.578,6.919,6.22
1741,0.8,40.08,16.105,42.652,28.524,4.537,6.919,6.18
1742,0.813,40.301,16.156,42.709,28.537,4.659,6.959,6.261
1743,0.807,40.409,16.094,42.691,28.534,4.579,7.041,6.262
1744,0.813,39.997,16.121,42.672,28.527,4.537,6.96,6.099
1745,0.82,40.137,16.09,42.662,28.53,4.577,7.122,6.138
1746,0.807,40.292,16.102,42.652,28.531,4.618,7.124,6.219
1747,0.8,40.437,16.141,42.671,28.531,4.7,7.165,6.261
1748,0.807,39.959,16.086,42.71,28.537,4.62,7.206,6.262
1749,0.794,40.118,16.09,42.662,28.524,4.537,7.043,6.18
1750,0.8,40.292,16.125,42.671,28.53,4.537,7.164,6.139
1751,0.797,40.38,16.094,42.681,28.537,4.577,7.206,6.301
1752,0.807,40.026,16.102,42.671,28.534,4.618,7.206,6.262
1753,0.807,40.224,16.086,42.69,28.534,4.659,7.287,6.302
1754,0.787,40.36,16.059,42.662,28.534,4.619,7.085,6.221
1755,0.793,40.467,16.109,42.69,28.531,4.619,7.123,6.22
1756,0.797,39.873,16.113,42.71,28.541,4.863,7.327,6.424
1757,0.803,40.059,16.137,42.691,28.538,4.581,7.207,6.222
1758,0.807,40.243,16.09,42.7,28.534,4.659,7.165,6.22
1759,0.803,40.293,16.113,42.691,28.527,4.579,7.043,6.22
1760,0.816,39.92,16.141,42.681,28.527,4.578,7.001,6.22
1761,0.816,40.165,16.106,42.729,28.544,4.74,7.163,6.22
1762,0.813,40.302,16.121,42.691,28.531,4.701,7.206,6.261
1763,0.829,40.39,16.09,42.7,28.534,4.701,7.084,6.18
1764,0.813,39.815,16.078,42.681,28.531,4.538,7.042,6.139
1765,0.81,40.03,16.07,42.681,28.534,4.537,7.001,6.138
1766,0.82,40.224,16.125,42.71,28.541,4.659,7.001,6.179
1767,0.81,40.255,16.102,42.7,28.538,4.66,7.041,6.261
1768,0.813,39.852,16.078,42.691,28.527,4.538,6.92,6.099
1769,0.81,40.059,16.09,42.7,28.53,4.577,6.959,6.219
1770,0.8,40.205,16.117,42.691,28.527,4.578,6.96,6.22
1771,0.803,40.274,16.106,42.7,28.534,4.618,7.082,6.261
1772,0.82,39.804,16.117,42.7,28.541,4.659,7.042,6.18
1773,0.813,40.011,16.11,42.681,28.527,4.497,6.798,6.179
1774,0.8,40.157,16.086,42.71,28.534,4.658,6.877,6.261
1775,0.803,40.254,16.129,42.691,28.527,4.579,6.959,6.343
1776,0.81,39.756,16.121,42.71,28.534,4.659,6.96,6.343
1777,0.813,39.953,16.184,42.72,28.541,4.7,6.96,6.262
1778,0.8,40.098,16.091,42.681,28.527,4.498,6.878,6.221
1779,0.813,39.937,16.082,42.7,28.53,4.658,6.918,6.22
1780,0.813,39.705,16.098,42.72,28.544,4.7,6.959,6.342
1781,0.807,39.923,16.098,42.729,28.541,4.742,6.878,6.303
1782,0.816,40.079,16.098,42.729,28.538,4.62,6.918,6.302
1783,0.816,39.582,16.117,42.691,28.531,4.659,6.878,6.221
1784,0.82,39.567,16.075,42.691,28.534,4.619,6.796,6.139
1785,0.836,39.769,16.113,42.739,28.544,4.781,6.958,6.382
1786,0.817,39.905,16.145,42.72,28.541,4.661,6.878,6.181
1787,0.816,39.59,16.118,42.72,28.544,4.66,6.877,6.301
1788,0.81,39.682,16.129,42.777,28.531,4.579,6.796,6.221
1789,0.816,39.875,16.071,42.701,28.527,4.578,6.755,6.22
1790,0.816,40.021,16.133,42.748,28.544,4.74,6.876,6.302
1791,0.816,39.342,16.133,42.73,28.538,4.62,6.796,6.302
1792,0.81,39.517,16.11,42.72,28.538,4.659,6.633,6.262
1793,0.813,39.71,16.11,42.729,28.534,4.619,6.712,6.221
1794,0.803,39.78,16.086,42.701,28.534,4.537,6.632,6.18
1795,0.823,39.358,16.105,42.739,28.537,4.659,6.753,6.22
1796,0.82,39.517,16.113,42.739,28.541,4.66,6.754,6.302
1797,0.82,39.682,16.149,42.701,28.531,4.619,6.551,6.14
1798,0.826,39.798,16.126,42.729,28.531,4.659,6.671,6.179
1799,0.817,39.157,16.098,42.71,28.531,4.579,6.631,6.261
1800,0.833,39.362,16.145,42.729,28.534,4.7,6.672,6.302
1801,0.823,39.565,16.145,42.749,28.537,4.66,6.753,6.221
1802,0.83,39.625,16.09,42.71,28.531,4.497,6.592,6.22
1803,0.83,39.06,16.113,42.71,28.531,4.618,6.631,6.18
1804,0.83,39.265,16.078,42.748,28.544,4.741,6.794,6.383
1805,0.833,39.478,16.109,42.73,28.527,4.661,6.755,6.303
1806,0.82,39.557,16.137,42.739,28.544,4.741,6.795,6.18
1807,0.81,39.001,16.094,42.72,28.534,4.62,6.673,6.22
1808,0.813,39.235,16.09,42.72,28.531,4.537,6.672,6.139
1809,0.823,39.43,16.152,42.768,28.551,4.74,6.835,6.26
1810,0.813,39.48,16.106,42.73,28.541,4.701,6.755,6.18
1811,0.82,39.096,16.152,42.749,28.544,4.579,6.795,6.22
1812,0.813,39.294,16.087,42.73,28.534,4.618,6.795,6.18
1813,0.81,39.449,16.113,42.72,28.531,4.537,6.714,6.22
1814,0.816,39.518,16.106,42.768,28.537,4.618,6.794,6.261
1815,0.813,38.809,16.071,42.739,28.538,4.578,6.795,6.262
1816,0.82,39.023,16.125,42.72,28.531,4.618,6.673,6.139
1817,0.823,39.159,16.098,42.729,28.531,4.619,6.713,6.138
1818,0.817,39.189,16.082,42.729,28.527,4.578,6.713,6.219
1819,0.829,38.94,16.109,42.729,28.537,4.659,6.794,6.261
1820,0.83,39.149,16.11,42.768,28.541,4.619,6.877,6.262
1821,0.82,39.247,16.082,42.711,28.52,4.578,6.755,6.18
1822,0.823,39.305,16.129,42.739,28.523,4.537,6.714,6.179
1823,0.817,38.644,16.082,42.72,28.537,4.618,6.835,6.261
1824,0.829,38.858,16.105,42.729,28.538,4.578,6.796,6.262
1825,0.83,39.042,16.086,42.758,28.541,4.618,6.877,6.343
1826,0.823,38.756,16.109,42.711,28.531,4.578,6.715,6.181
1827,0.82,38.638,16.071,42.729,28.534,4.578,6.754,6.179
1828,0.813,38.858,16.058,42.768,28.541,4.74,6.836,6.423
1829,0.813,38.994,16.125,42.749,28.538,4.661,6.755,6.304
1830,0.816,38.583,16.079,42.758,28.538,4.579,6.754,6.262
1831,0.803,38.598,16.121,42.739,28.534,4.537,6.714,6.18
1832,0.8,38.762,16.106,42.739,28.534,4.537,6.672,6.179
1833,0.82,38.965,16.106,42.787,28.548,4.699,6.835,6.342
1834,0.813,38.401,16.113,42.759,28.534,4.62,6.714,6.262
1835,0.807,38.539,16.082,42.768,28.537,4.578,6.672,6.302
1836,0.807,38.713,16.105,42.749,28.534,4.578,6.713,6.221
1837,0.8,38.82,16.094,42.739,28.527,4.578,6.632,6.22
1838,0.826,38.217,16.078,42.787,28.544,4.659,6.712,6.302
1839,0.823,38.374,16.125,42.768,28.538,4.66,6.672,6.302
1840,0.81,38.539,16.098,42.749,28.52,4.497,6.55,6.221
1841,0.81,38.665,16.121,42.758,28.534,4.577,6.671,6.22
1842,0.813,38.139,16.106,42.768,28.531,4.578,6.631,6.302
1843,0.82,38.354,16.094,42.768,28.534,4.578,6.631,6.262
1844,0.82,38.529,16.133,42.759,28.537,4.7,6.712,6.302
1845,0.803,38.617,16.059,42.73,28.524,4.538,6.591,6.221
1846,0.813,37.937,16.113,42.739,28.534,4.496,6.59,6.22
1847,0.807,38.16,16.117,42.777,28.544,4.74,6.793,6.424
1848,0.81,38.326,16.075,42.768,28.534,4.579,6.633,6.263
1849,0.803,38.442,16.105,42.768,28.531,4.659,6.672,6.262
1850,0.787,37.897,16.141,42.749,28.534,4.538,6.672,6.221
1851,0.8,38.141,16.09,42.758,28.527,4.537,6.631,6.139
1852,0.81,38.345,16.113,42.806,28.551,4.699,6.794,6.301
1853,0.81,38.414,16.117,42.769,28.531,4.66,6.673,6.302
1854,0.794,37.724,16.098,42.778,28.534,4.66,6.672,6.302
1855,0.8,37.957,16.129,42.778,28.534,4.538,6.713,6.221
1856,0.794,38.103,16.059,42.759,28.527,4.537,6.591,6.302
1857,0.813,38.191,16.14,42.778,28.537,4.659,6.59,6.302
1858,0.81,37.684,16.118,42.797,28.538,4.66,6.671,6.343
1859,0.803,37.889,16.09,42.768,28.524,4.457,6.509,6.181
1860,0.81,38.055,16.125,42.787,28.53,4.617,6.67,6.261
1861,0.8,38.095,16.082,42.759,28.527,4.578,6.672,6.384
1862,0.813,37.683,16.094,42.787,28.534,4.659,6.672,6.344
1863,0.797,37.889,16.09,42.788,28.537,4.66,6.713,6.343
1864,0.807,38.026,16.09,42.749,28.531,4.457,6.51,6.221
1865,0.81,38.065,16.109,42.797,28.527,4.536,6.63,6.18
1866,0.807,37.51,16.071,42.768,28.534,4.659,6.712,6.301
1867,0.8,37.744,16.152,42.778,28.534,4.66,6.632,6.343
1868,0.803,37.909,16.098,42.807,28.537,4.579,6.631,6.343
1869,0.787,37.729,16.086,42.778,28.534,4.578,6.672,6.262
1870,0.78,37.42,16.129,42.768,28.531,4.578,6.591,6.221
1871,0.78,37.657,16.094,42.806,28.537,4.7,6.753,6.424
1872,0.78,37.812,16.121,42.797,28.531,4.66,6.592,6.304
1873,0.787,37.488,16.121,42.788,28.541,4.619,6.631,6.384
1874,0.78,37.37,16.094,42.807,28.531,4.578,6.631,6.303
1875,0.771,37.608,16.09,42.778,28.531,4.578,6.468,6.262
1876,0.787,37.764,16.129,42.826,28.544,4.74,6.711,6.384
1877,0.787,37.353,16.168,42.807,28.541,4.539,6.551,6.344
1878,0.793,37.455,16.134,42.807,28.538,4.618,6.468,6.262
1879,0.787,37.638,16.102,42.797,28.534,4.619,6.548,6.262
1880,0.777,37.755,16.117,42.797,28.531,4.537,6.468,6.262
1881,0.8,37.152,16.098,42.826,28.534,4.577,6.507,6.262
1882,0.8,37.28,16.106,42.807,28.544,4.578,6.589,6.384
1883,0.794,37.483,16.125,42.807,28.531,4.537,6.468,6.222
1884,0.8,37.581,16.051,42.788,28.534,4.618,6.507,6.261
1885,0.784,37.073,16.086,42.778,28.534,4.537,6.508,6.262
1886,0.793,37.279,16.129,42.826,28.537,4.618,6.589,6.302
1887,0.784,37.444,16.118,42.788,28.541,4.7,6.712,6.384
1888,0.78,37.561,16.125,42.778,28.524,4.498,6.591,6.222
1889,0.78,36.977,16.09,42.797,28.534,4.577,6.671,6.302
1890,0.764,37.163,16.121,42.788,28.527,4.618,6.672,6.425
1891,0.774,37.366,16.114,42.788,28.534,4.578,6.713,6.344
1892,0.767,37.484,16.102,42.807,28.534,4.659,6.713,6.466
1893,0.767,36.957,16.121,42.769,28.527,4.579,6.713,6.345
1894,0.767,37.163,16.086,42.806,28.527,4.537,6.632,6.262
1895,0.764,37.366,16.078,42.836,28.541,4.659,6.875,6.465
1896,0.774,37.474,16.144,42.817,28.534,4.66,6.796,6.304
1897,0.774,36.919,16.094,42.826,28.537,4.619,6.755,6.343
1898,0.761,37.105,16.098,42.807,28.534,4.659,6.714,6.343
1899,0.764,37.299,16.113,42.816,28.527,4.619,6.713,6.303
1900,0.783,37.425,16.102,42.845,28.551,4.741,6.916,6.425
1901,0.777,36.947,16.106,42.807,28.538,4.661,6.878,6.385
1902,0.777,37.192,16.149,42.836,28.541,4.66,6.877,6.344
1903,0.774,37.348,16.129,42.817,28.531,4.579,6.796,6.343
1904,0.78,37.387,16.09,42.788,28.531,4.537,6.836,6.384
1905,0.797,36.947,16.074,42.835,28.534,4.577,6.918,6.344
1906,0.787,37.144,16.14,42.826,28.531,4.659,6.878,6.343
1907,0.771,37.29,16.129,42.797,28.524,4.497,6.796,6.221
1908,0.764,37.349,16.071,42.835,28.534,4.577,6.795,6.261
1909,0.754,36.918,16.09,42.817,28.534,4.618,6.877,6.384
1910,0.761,37.172,16.07,42.845,28.544,4.619,6.918,6.344
1911,0.767,37.338,16.109,42.826,28.538,4.578,6.919,6.425
1912,0.754,37.522,16.121,42.807,28.527,4.578,6.919,6.304
1913,0.757,36.967,16.098,42.826,28.524,4.496,6.796,6.262
1914,0.767,37.182,16.121,42.855,28.544,4.74,7.08,6.465
1915,0.764,37.347,16.118,42.846,28.538,4.62,6.92,6.386
1916,0.77,37.081,16.137,42.836,28.534,4.659,6.959,6.385
1917,0.767,36.848,16.137,42.817,28.531,4.579,6.878,6.303
1918,0.764,37.066,16.067,42.836,28.527,4.537,6.918,6.343
1919,0.774,37.241,16.09,42.884,28.548,4.659,6.959,6.384
1920,0.764,37.003,16.066,42.846,28.538,4.66,6.919,6.385
1921,0.77,37.029,16.082,42.846,28.531,4.579,6.959,6.222
1922,0.767,37.231,16.137,42.836,28.527,4.578,6.919,6.383
1923,0.774,37.367,16.09,42.817,28.527,4.578,6.837,6.263
1924,0.79,36.582,16.125,42.836,28.534,4.659,6.918,6.343
1925,0.78,36.651,16.098,42.836,28.531,4.66,7.0,6.384
1926,0.784,36.844,16.133,42.817,28.531,4.457,6.757,6.222
1927,0.771,36.989,16.145,42.826,28.531,4.617,6.795,6.261
1928,0.761,36.981,16.09,42.912,28.531,4.578,6.958,6.343
1929,0.764,37.182,16.086,42.846,28.534,4.578,6.878,6.343
1930,0.754,37.386,16.117,42.846,28.541,4.659,6.918,6.384
1931,0.761,37.503,16.098,42.807,28.524,4.497,6.715,6.303
1932,0.744,36.919,16.125,42.845,28.527,4.495,6.876,6.262
1933,0.747,37.115,16.09,42.836,28.53,4.577,6.918,6.465
1934,0.764,37.318,16.098,42.836,28.531,4.578,6.878,6.345
1935,0.764,37.454,16.129,42.855,28.537,4.659,6.877,6.343
1936,0.754,36.957,16.098,42.827,28.52,4.619,6.877,6.303
1937,0.761,37.182,16.137,42.845,28.53,4.578,6.796,6.262
1938,0.751,37.386,16.102,42.846,28.541,4.74,7.08,6.465
1939,0.754,37.474,16.117,42.855,28.538,4.579,7.042,6.345
1940,0.767,37.024,16.153,42.846,28.544,4.7,7.042,6.343
1941,0.754,37.202,16.114,42.846,28.534,4.62,6.96,6.343
1942,0.754,37.405,16.106,42.846,28.527,4.537,7.041,6.221
1943,0.767,37.503,16.137,42.893,28.544,4.74,7.245,6.464
1944,0.761,37.092,16.075,42.856,28.538,4.661,7.125,6.304
1945,0.757,37.327,16.129,42.865,28.538,4.66,7.165,6.302
1946,0.757,37.483,16.098,42.855,28.538,4.619,7.124,6.302
1947,0.748,37.542,16.106,42.846,28.527,4.537,7.083,6.262
1948,0.773,37.102,16.129,42.884,28.541,4.618,7.245,6.302
1949,0.758,37.289,16.09,42.875,28.534,4.7,7.247,6.343
1950,0.764,37.454,16.125,42.846,28.524,4.538,7.084,6.221
1951,0.764,37.513,16.133,42.874,28.534,4.577,7.164,6.302
1952,0.751,37.188,16.102,42.827,28.531,4.618,7.206,6.221
1953,0.751,37.434,16.102,42.855,28.534,4.619,7.165,6.342
1954,0.751,37.58,16.094,42.874,28.537,4.659,7.287,6.466
1955,0.748,37.61,16.09,42.846,28.527,4.538,7.166,6.264
1956,0.747,37.217,16.125,42.865,28.534,4.537,7.165,6.262
1957,0.747,37.415,16.11,42.874,28.537,4.659,7.246,6.424
1958,0.751,37.59,16.121,42.884,28.541,4.579,7.206,6.263
1959,0.754,37.63,16.063,42.875,28.538,4.659,7.165,6.384
1960,0.754,37.323,16.101,42.846,28.527,4.579,7.124,6.222
1961,0.761,37.541,16.121,42.846,28.53,4.537,7.124,6.22
1962,0.761,37.706,16.102,42.893,28.537,4.781,7.287,6.464
1963,0.754,37.41,16.11,42.884,28.531,4.702,7.207,6.304
1964,0.767,37.292,16.071,42.875,28.537,4.701,7.125,6.262
1965,0.761,37.464,16.097,42.884,28.534,4.62,7.124,6.302
1966,0.751,37.609,16.145,42.865,28.534,4.537,7.083,6.302
1967,0.767,37.448,16.11,42.903,28.544,4.74,7.123,6.343
1968,0.764,37.494,16.09,42.884,28.541,4.62,7.043,6.303
1969,0.764,37.715,16.098,42.884,28.534,4.659,7.082,6.262
1970,0.748,37.832,16.125,42.884,28.537,4.619,7.042,6.262
1971,0.744,37.21,16.121,42.856,28.527,4.578,6.92,6.302
1972,0.754,37.415,16.086,42.903,28.541,4.659,6.919,6.302
1973,0.748,37.59,16.117,42.894,28.538,4.66,7.0,6.384
1974,0.747,37.716,16.121,42.875,28.534,4.579,6.797,6.222
1975,0.751,37.257,16.106,42.875,28.531,4.618,6.877,6.261
1976,0.744,37.434,16.113,42.884,28.524,4.537,6.877,6.302
1977,0.76,37.618,16.125,42.875,28.534,4.699,6.796,6.302
1978,0.748,37.755,16.098,42.894,28.534,4.66,6.877,6.384
1979,0.754,37.257,16.098,42.865,28.52,4.579,6.755,6.181
1980,0.764,37.473,16.098,42.884,28.527,4.578,6.754,6.22
1981,0.774,37.667,16.109,42.884,28.53,4.659,6.876,6.342
1982,0.774,37.774,16.106,42.884,28.537,4.66,6.755,6.221
1983,0.78,37.334,16.11,42.894,28.544,4.619,6.876,6.302
1984,0.777,37.493,16.117,42.865,28.524,4.537,6.715,6.221
1985,0.81,37.734,16.078,42.874,28.53,4.537,6.713,6.139
1986,0.82,37.832,16.137,42.903,28.551,4.74,6.876,6.301
1987,0.82,37.354,16.137,42.875,28.531,4.62,6.715,6.221
1988,0.826,37.598,15.977,42.913,28.541,4.659,6.713,6.261
1989,0.823,37.745,16.085,42.894,28.538,4.66,6.632,6.221
1990,0.83,37.813,16.121,42.884,28.531,4.579,6.59,6.139
1991,0.83,37.392,16.106,42.923,28.541,4.7,6.793,6.301
1992,0.81,37.608,16.133,42.904,28.538,4.66,6.714,6.221
1993,0.826,37.783,16.098,42.904,28.538,4.66,6.632,6.18
1994,0.826,37.814,16.121,42.894,28.531,4.579,6.59,6.179
1995,0.839,37.344,16.114,42.884,28.524,4.496,6.549,6.22
1996,0.846,37.637,16.149,42.913,28.534,4.658,6.63,6.22
1997,0.84,37.774,16.157,42.904,28.537,4.66,6.631,6.261
1998,0.846,37.814,16.091,42.884,28.531,4.538,6.428,6.139
1999,0.846,37.45,16.094,42.913,28.531,4.618,6.548,6.179
2000,0.856,37.667,16.09,42.885,28.527,4.537,6.508,6.139
2001,0.869,37.841,16.082,42.884,28.534,4.659,6.63,6.138
2002,0.866,37.824,16.101,42.903,28.531,4.7,6.55,6.26
2003,0.853,37.392,16.098,42.875,28.52,4.498,6.549,6.139
2004,0.872,37.628,16.098,42.894,28.527,4.577,6.549,6.098
2005,0.879,37.774,16.109,42.923,28.541,4.659,6.63,6.3
2006,0.869,37.631,16.106,42.894,28.538,4.66,6.672,6.18
2007,0.869,37.381,16.16,42.913,28.541,4.66,6.591,6.22
2008,0.843,37.56,16.083,42.904,28.534,4.579,6.549,6.18
2009,0.849,37.735,16.09,42.884,28.527,4.578,6.59,6.098
2010,0.843,37.487,16.113,42.923,28.537,4.74,6.834,6.3
2011,0.843,37.446,16.047,42.894,28.538,4.62,6.674,6.18
2012,0.839,37.667,16.125,42.913,28.538,4.7,6.713,6.22
2013,0.833,37.793,16.137,42.913,28.527,4.579,6.713,6.22
2014,0.833,37.507,16.098,42.894,28.53,4.537,6.713,6.139
2015,0.849,37.658,16.129,42.951,28.544,4.659,6.835,6.26
2016,0.849,37.832,16.114,42.923,28.538,4.66,6.796,6.18
2017,0.862,37.958,16.149,42.913,28.538,4.579,6.714,6.139
2018,0.866,37.211,16.118,42.913,28.534,4.537,6.754,6.219
2019,0.862,37.348,16.086,42.904,28.527,4.537,6.754,6.139
2020,0.888,37.579,16.141,42.932,28.534,4.537,6.795,6.179
2021,0.879,37.697,16.098,42.923,28.537,4.618,6.755,6.179
2022,0.872,37.266,16.113,42.894,28.538,4.537,6.632,6.139
2023,0.876,37.454,16.121,42.894,28.534,4.577,6.753,6.138
2024,0.863,37.638,16.102,42.894,28.527,4.618,6.795,6.179
2025,0.879,37.774,16.094,42.913,28.537,4.578,6.755,6.179
2026,0.879,37.181,16.098,42.913,28.534,4.659,6.795,6.179
2027,0.869,37.367,16.117,42.904,28.524,4.579,6.714,6.139
2028,0.859,37.589,16.121,42.913,28.53,4.578,6.672,6.138
2029,0.859,37.697,16.086,42.923,28.534,4.659,6.875,6.341
2030,0.866,37.199,16.129,42.913,28.531,4.66,6.755,6.14
2031,0.862,37.443,16.094,42.923,28.534,4.66,6.754,6.219
2032,0.856,37.599,16.106,42.904,28.537,4.619,6.754,6.139
2033,0.856,37.716,16.133,42.923,28.531,4.578,6.714,6.057
2034,0.853,37.266,16.102,42.952,28.544,4.7,6.835,6.3
2035,0.853,37.483,16.074,42.923,28.534,4.66,6.714,6.18
2036,0.872,37.657,16.074,42.942,28.534,4.66,6.672,6.139
2037,0.863,37.736,16.121,42.914,28.537,4.579,6.672,6.138
2038,0.849,37.132,16.09,42.913,28.527,4.578,6.591,6.057
2039,0.869,37.395,16.105,42.952,28.551,4.659,6.671,6.137
2040,0.869,37.532,16.106,42.923,28.531,4.7,6.713,6.179
2041,0.869,37.6,16.113,42.933,28.537,4.538,6.551,6.139
2042,0.863,37.217,16.094,42.923,28.531,4.577,6.59,6.138
2043,0.849,37.424,16.121,42.913,28.527,4.578,6.59,6.057
2044,0.849,37.609,16.094,42.932,28.534,4.618,6.631,6.219
2045,0.833,37.649,16.074,42.933,28.537,4.619,6.672,6.18
2046,0.823,37.199,16.082,42.904,28.527,4.497,6.509,6.017
2047,0.804,37.434,16.101,42.923,28.534,4.618,6.63,6.178
2048,0.803,37.561,16.02,42.923,28.534,4.578,6.631,6.22
2049,0.794,37.773,16.081,42.942,28.541,4.659,6.631,6.261
2050,0.787,37.075,16.105,42.942,28.538,4.66,6.712,6.262
2051,0.78,37.231,16.078,42.904,28.524,4.579,6.632,6.139
2052,0.78,37.434,16.074,42.923,28.53,4.618,6.631,6.179
2053,0.764,37.264,16.098,42.942,28.541,4.741,6.753,6.301
2054,0.761,37.137,16.133,42.942,28.538,4.661,6.714,6.18
2055,0.764,37.366,16.098,42.952,28.538,4.66,6.713,6.261
2056,0.748,37.484,16.106,42.933,28.538,4.66,6.591,6.221
2057,0.754,37.063,16.121,42.923,28.527,4.619,6.631,6.18
2058,0.764,37.106,16.129,42.971,28.544,4.741,6.753,6.342
2059,0.741,37.289,16.102,42.943,28.531,4.62,6.754,6.303
2060,0.747,37.435,16.098,42.962,28.534,4.659,6.632,6.14
2061,0.747,36.909,16.113,42.943,28.534,4.66,6.631,6.26
2062,0.734,36.999,16.071,42.923,28.52,4.579,6.59,6.221
2063,0.76,37.259,16.129,42.961,28.534,4.618,6.631,6.261
2064,0.754,37.358,16.094,42.933,28.537,4.7,6.712,6.262
2065,0.751,36.87,16.098,42.952,28.527,4.538,6.51,6.18
2066,0.741,37.047,16.129,42.933,28.524,4.577,6.589,6.22
2067,0.725,37.231,16.106,42.913,28.523,4.618,6.59,6.302
2068,0.734,37.377,16.09,42.942,28.537,4.659,6.59,6.262
2069,0.721,36.726,16.074,42.942,28.538,4.66,6.631,6.302
2070,0.724,36.921,16.129,42.923,28.513,4.497,6.509,6.221
2071,0.728,37.124,16.106,42.942,28.53,4.536,6.589,6.261
2072,0.715,37.222,16.09,42.942,28.527,4.699,6.712,6.343
2073,0.724,36.83,16.09,42.962,28.534,4.66,6.632,6.303
2074,0.718,37.056,16.129,42.971,28.531,4.66,6.672,6.343
2075,0.715,37.202,16.071,42.924,28.527,4.538,6.631,6.343
2076,0.718,37.309,16.125,42.933,28.524,4.577,6.59,6.303
2077,0.721,36.687,16.129,42.961,28.541,4.659,6.793,6.465
2078,0.705,36.911,16.071,42.981,28.531,4.66,6.714,6.345
2079,0.721,37.095,16.058,42.981,28.531,4.7,6.713,6.425
2080,0.708,37.136,16.082,42.943,28.527,4.538,6.672,6.344
2081,0.711,36.676,16.082,42.942,28.524,4.537,6.631,6.343
2082,0.721,36.911,16.086,42.971,28.537,4.74,6.875,6.506
2083,0.718,37.067,16.105,42.962,28.534,4.62,6.796,6.345
2084,0.721,37.154,16.113,42.962,28.537,4.659,6.836,6.425
2085,0.705,36.561,16.078,42.962,28.524,4.7,6.755,6.385
2086,0.705,36.737,16.113,42.923,28.517,4.579,6.795,6.344
2087,0.708,36.959,16.125,43.019,28.541,4.659,6.917,6.425
2088,0.695,37.019,16.075,42.972,28.538,4.66,6.878,6.344
2089,0.708,36.981,16.105,42.981,28.531,4.66,6.877,6.343
2090,0.708,37.202,16.094,42.971,28.534,4.619,6.877,6.343
2091,0.692,37.357,16.09,42.943,28.531,4.578,6.877,6.303
2092,0.705,37.416,16.082,42.981,28.544,4.659,6.959,6.384
2093,0.698,36.439,16.101,42.981,28.538,4.66,7.0,6.425
2094,0.692,36.621,16.125,42.943,28.531,4.538,6.919,6.344
2095,0.695,36.805,16.094,42.962,28.534,4.659,6.959,6.466
2096,0.692,36.778,16.141,42.933,28.527,4.619,6.96,6.386
2097,0.711,36.576,16.145,42.971,28.534,4.578,7.041,6.425
2098,0.711,36.776,16.087,42.962,28.534,4.618,6.96,6.548
2099,0.711,36.912,16.09,42.952,28.524,4.497,6.878,6.264
2100,0.711,36.558,16.063,42.962,28.527,4.577,6.918,6.343
2101,0.708,36.449,16.074,42.943,28.53,4.537,7.0,6.425
2102,0.705,36.669,16.105,42.971,28.537,4.699,7.001,6.344
2103,0.715,36.815,16.067,42.981,28.531,4.66,7.001,6.384
2104,0.698,36.807,16.101,42.924,28.527,4.619,6.96,6.303
2105,0.705,36.96,16.035,42.961,28.527,4.537,6.878,6.302
2106,0.711,37.163,16.132,43.0,28.548,4.74,7.121,6.506
2107,0.702,37.29,16.141,42.953,28.534,4.661,7.083,6.345
2108,0.695,36.102,16.114,42.981,28.541,4.741,7.042,6.343
2109,0.695,36.195,16.129,42.981,28.534,4.579,7.082,6.343
2110,0.692,36.388,16.086,42.952,28.531,4.496,7.042,6.181
2111,0.701,36.563,16.105,43.01,28.558,4.699,7.286,6.383
2112,0.701,36.248,16.125,42.972,28.534,4.66,7.166,6.385
2113,0.714,36.446,16.09,42.981,28.531,4.538,7.165,6.222
2114,0.698,36.64,16.125,42.971,28.534,4.618,7.287,6.302
2115,0.701,36.757,16.059,42.962,28.527,4.537,7.288,6.262
2116,0.721,36.154,16.093,42.971,28.537,4.659,7.288,6.302
2117,0.728,36.33,16.156,42.971,28.541,4.619,7.288,6.302
2118,0.721,36.505,16.032,42.943,28.531,4.497,7.207,6.221
2119,0.731,36.631,16.105,42.962,28.531,4.577,7.328,6.18
2120,0.741,36.009,16.129,42.962,28.531,4.578,7.41,6.342
2121,0.76,36.243,16.11,42.971,28.534,4.618,7.371,6.343
2122,0.764,36.446,16.141,42.981,28.537,4.7,7.452,6.303
2123,0.783,36.525,16.067,42.952,28.524,4.498,7.33,6.221
2124,0.813,36.037,16.086,42.962,28.53,4.536,7.329,6.261
2125,0.836,36.272,16.086,42.971,28.537,4.699,7.451,6.424
2126,0.882,36.447,16.07,42.981,28.534,4.579,7.412,6.222
2127,0.928,36.535,16.105,42.981,28.544,4.659,7.411,6.261
2128,0.964,36.008,16.09,42.962,28.534,4.66,7.33,6.302
2129,1.039,36.252,16.086,42.971,28.531,4.619,7.248,6.262
2130,1.095,36.437,16.141,43.019,28.544,4.781,7.491,6.343
2131,1.135,36.515,16.086,42.972,28.534,4.58,7.331,6.221
2132,1.19,36.008,16.121,42.991,28.537,4.618,7.37,6.342
2133,1.224,36.214,16.106,42.991,28.531,4.619,7.248,6.262
2134,1.25,36.36,16.094,42.962,28.534,4.537,7.247,6.221
2135,1.289,36.476,16.109,43.038,28.551,4.699,7.369,6.302
2136,1.306,35.988,16.059,43.001,28.531,4.66,7.37,6.302
2137,1.329,36.214,16.125,43.0,28.531,4.579,7.289,6.262
2138,1.283,36.35,16.09,42.981,28.531,4.578,7.329,6.302
2139,1.218,36.351,16.09,42.981,28.531,4.537,7.289,6.262
2140,1.191,35.958,16.137,43.0,28.537,4.618,7.329,6.302
2141,1.168,36.156,16.094,43.0,28.538,4.659,7.41,6.384
2142,1.122,36.292,16.121,42.962,28.531,4.497,7.289,6.263
2143,1.076,36.082,16.067,42.952,28.534,4.577,7.288,6.302
2144,1.073,35.793,16.078,42.962,28.527,4.537,7.369,6.302
2145,1.105,36.049,16.094,42.981,28.53,4.577,7.37,6.384
2146,1.109,36.214,16.094,42.991,28.537,4.7,7.37,6.385
2147,1.086,35.938,16.109,42.972,28.531,4.66,7.33,6.344
2148,1.07,35.954,16.071,43.0,28.537,4.579,7.248,6.343
2149,1.063,36.175,16.058,43.01,28.544,4.7,7.369,6.547
2150,1.03,36.321,16.105,42.981,28.534,4.66,7.33,6.346
2151,1.027,35.737,16.09,42.991,28.534,4.7,7.289,6.425
2152,1.007,35.799,16.082,42.991,28.534,4.579,7.207,6.385
2153,0.965,36.001,16.109,42.981,28.527,4.537,7.206,6.263
2154,0.903,36.166,16.106,43.039,28.544,4.781,7.409,6.587
2155,0.798,35.64,16.106,42.991,28.538,4.58,7.208,6.468
2156,0.725,35.826,16.098,43.01,28.538,4.578,7.287,6.467
2157,0.666,35.991,16.141,43.001,28.538,4.578,7.207,6.507
2158,0.594,36.118,16.106,43.029,28.527,4.578,7.125,6.589
2159,0.515,35.592,16.074,43.01,28.541,4.618,7.124,6.793
2160,0.4,35.759,16.121,43.001,28.534,4.659,7.205,6.999
2161,0.295,35.972,16.094,43.0,28.527,4.619,7.084,7.082
2162,0.19,36.07,16.086,42.981,28.534,4.578,7.123,7.286
2163,0.091,35.524,16.078,42.962,28.527,4.578,7.083,7.532
2164,0.019,35.758,16.055,42.981,28.534,4.659,7.164,7.697
