time,ecg,bvp,gsr,rsp,skt,emg_zygo,emg_coru,emg_trap
0,0.77,37.106,26.625,41.761,29.288,27.324,9.423,8.15
1,0.774,36.695,26.601,41.761,29.284,27.817,9.505,8.232
2,0.774,36.748,26.644,41.733,29.27,27.863,9.303,8.029
3,0.767,36.902,26.64,41.742,29.27,28.066,9.341,7.987
4,0.767,36.999,26.691,41.742,29.27,28.069,9.342,7.986
5,0.761,36.607,26.656,41.704,29.27,27.865,9.179,7.986
6,0.757,36.805,26.711,41.751,29.27,27.741,9.38,8.108
7,0.757,36.922,26.676,41.761,29.277,27.537,9.301,8.15
8,0.757,37.0,26.703,41.752,29.277,27.25,9.301,8.11
9,0.748,36.665,26.676,41.752,29.27,27.003,9.26,8.069
10,0.751,36.844,26.562,41.771,29.284,27.001,9.3,8.15
11,0.741,36.951,26.608,41.742,29.274,26.594,9.097,8.028
12,0.725,37.019,26.64,41.742,29.274,26.427,9.054,8.068
13,0.737,36.512,26.675,41.752,29.27,26.182,9.013,8.069
14,0.725,36.65,26.652,41.742,29.26,25.895,8.932,7.987
15,0.741,36.796,26.683,41.761,29.267,25.892,9.012,8.027
16,0.741,36.864,26.695,41.781,29.281,26.014,9.013,7.987
17,0.747,36.606,26.688,41.752,29.281,26.137,9.013,8.027
18,0.754,36.766,26.73,41.742,29.27,26.585,8.972,8.068
19,0.754,36.873,26.711,41.79,29.284,27.241,9.216,8.109
20,0.764,36.884,26.606,41.743,29.27,27.532,9.015,7.947
21,0.77,36.529,26.628,41.742,29.274,27.86,9.094,7.905
22,0.777,36.679,26.656,41.742,29.284,28.026,9.136,7.904
23,0.771,36.757,26.664,41.733,29.267,28.068,9.136,7.904
24,0.78,36.576,26.676,41.732,29.27,27.946,9.177,7.823
25,0.771,36.507,26.691,41.761,29.274,27.945,9.299,7.863
26,0.761,36.65,26.676,41.761,29.281,27.661,9.26,7.863
27,0.764,36.738,26.687,41.761,29.27,27.333,9.3,7.863
28,0.757,36.384,26.742,41.781,29.284,27.167,9.341,7.985
29,0.748,36.457,26.63,41.762,29.277,26.758,9.301,7.864
30,0.731,36.592,26.542,41.752,29.267,26.51,9.178,7.822
31,0.728,36.699,26.616,41.771,29.274,26.386,9.218,7.781
32,0.725,36.307,26.656,41.742,29.27,26.222,9.137,7.944
33,0.728,36.447,26.66,41.742,29.267,25.895,9.055,7.701
34,0.738,36.602,26.699,41.771,29.277,25.851,9.217,7.983
35,0.744,36.69,26.692,41.752,29.274,25.688,9.178,7.946
36,0.751,36.24,26.688,41.742,29.274,25.768,9.177,7.945
37,0.767,36.389,26.691,41.771,29.284,26.135,9.177,7.945
38,0.754,36.515,26.711,41.762,29.281,26.83,9.299,8.026
39,0.757,36.545,26.629,41.733,29.267,27.446,9.178,7.824
40,0.774,36.315,26.617,41.8,29.274,28.144,9.259,7.863
41,0.771,36.485,26.656,41.752,29.277,28.639,9.341,7.782
42,0.761,36.564,26.644,41.733,29.263,28.806,9.301,7.659
43,0.787,36.632,26.722,41.752,29.277,29.052,9.504,7.78
44,0.79,36.239,26.715,41.761,29.274,29.176,9.465,7.822
45,0.774,36.389,26.688,41.752,29.277,29.096,9.465,7.781
46,0.774,36.515,26.68,41.771,29.277,28.892,9.505,7.822
47,0.751,36.535,26.715,41.771,29.284,28.565,9.587,7.944
48,0.728,36.094,26.688,41.723,29.267,28.195,9.507,7.823
49,0.741,36.263,26.617,41.742,29.267,27.989,9.465,7.863
50,0.728,36.389,26.644,41.857,29.27,27.824,9.505,7.863
51,0.715,36.323,26.601,41.705,29.263,27.578,9.384,7.863
52,0.737,36.303,26.659,41.77,29.274,27.454,9.342,7.985
53,0.738,36.418,26.691,41.742,29.274,27.127,9.423,7.946
54,0.721,36.544,26.703,41.742,29.274,26.839,9.383,8.026
55,0.724,36.19,26.695,41.761,29.274,26.837,9.301,7.946
56,0.744,36.273,26.707,41.761,29.284,27.04,9.504,8.067
57,0.734,36.399,26.664,41.733,29.267,27.001,9.303,7.946
58,0.744,36.496,26.656,41.752,29.267,27.57,9.382,7.945
59,0.76,36.104,26.625,41.752,29.274,28.348,9.545,7.986
60,0.748,36.234,26.617,41.723,29.263,28.844,9.466,7.946
61,0.757,36.398,26.656,41.752,29.277,29.337,9.627,7.945
62,0.774,36.477,26.687,41.761,29.281,29.545,9.629,7.945
63,0.771,36.18,26.711,41.752,29.277,29.71,9.751,7.945
64,0.774,36.311,26.676,41.752,29.281,29.63,9.793,7.986
65,0.767,36.457,26.711,41.8,29.284,29.629,9.915,8.027
66,0.744,36.506,26.664,41.752,29.267,29.141,9.713,8.027
67,0.744,35.95,26.691,41.752,29.267,28.77,9.752,8.027
68,0.747,36.117,26.645,41.752,29.274,28.442,9.752,8.068
69,0.728,36.244,26.55,41.733,29.27,28.194,9.671,8.109
70,0.728,36.312,26.643,41.771,29.274,27.948,9.67,8.069
71,0.728,36.725,26.664,41.742,29.281,27.823,9.751,8.272
72,0.721,36.863,26.73,41.752,29.277,27.578,9.712,8.355
73,0.715,36.98,26.707,41.771,29.277,27.169,9.589,8.315
74,0.744,37.048,26.723,41.781,29.291,27.084,9.669,8.396
75,0.738,35.764,26.625,41.752,29.277,26.839,9.629,8.356
76,0.764,35.895,26.632,41.742,29.27,26.796,9.548,8.315
77,0.783,36.021,26.679,41.752,29.274,26.999,9.506,8.315
78,0.806,36.061,26.598,41.752,29.277,27.57,9.506,8.356
79,0.82,36.061,26.64,41.819,29.274,28.226,9.425,8.275
80,0.869,36.205,26.601,41.791,29.284,28.802,9.668,8.355
81,0.882,36.321,26.663,41.762,29.277,29.174,9.711,8.356
82,0.898,35.987,26.679,41.761,29.274,29.299,9.63,8.275
83,0.928,36.079,26.695,41.781,29.281,29.463,9.751,8.355
84,0.948,36.186,26.66,41.752,29.277,29.384,9.752,8.397
85,0.954,36.283,26.676,41.733,29.27,29.179,9.59,8.153
86,0.945,35.881,26.668,41.742,29.27,28.852,9.669,8.273
87,0.964,36.021,26.668,41.752,29.274,28.524,9.629,8.314
88,0.948,36.137,26.601,41.742,29.26,28.114,9.548,8.193
89,0.961,36.273,26.663,41.761,29.281,27.947,9.669,8.314
90,0.961,35.958,26.672,41.752,29.281,27.742,9.629,8.356
91,0.971,36.108,26.726,41.761,29.281,27.455,9.548,8.356
92,0.984,36.253,26.704,41.761,29.277,27.249,9.547,8.356
93,1.0,36.312,26.633,41.771,29.284,27.044,9.628,8.519
94,1.01,35.872,26.613,41.762,29.27,26.554,9.466,8.317
95,1.007,36.04,26.562,41.752,29.27,26.468,9.383,8.274
96,1.03,36.157,26.635,41.752,29.274,26.467,9.423,8.314
97,1.03,36.196,26.593,41.723,29.263,26.589,9.342,8.274
98,1.059,35.957,26.589,41.771,29.281,27.403,9.464,8.314
99,1.066,36.127,26.62,41.771,29.284,27.981,9.505,8.396
100,1.073,36.244,26.648,41.742,29.274,28.637,9.587,8.316
101,1.073,36.255,26.683,41.761,29.284,29.009,9.588,8.315
102,1.069,35.938,26.68,41.79,29.288,29.46,9.751,8.396
103,1.063,36.05,26.625,41.752,29.277,29.384,9.63,8.153
104,1.069,36.185,26.562,41.733,29.274,29.383,9.548,8.11
105,1.056,36.216,26.573,41.752,29.277,29.342,9.588,8.15
106,1.037,35.995,26.561,41.752,29.274,29.138,9.547,8.15
107,1.04,36.156,26.55,41.733,29.277,28.852,9.547,8.11
108,1.02,36.282,26.608,41.819,29.281,28.564,9.628,8.109
109,1.007,35.948,26.64,41.772,29.274,28.399,9.548,8.15
110,0.991,35.993,26.707,41.762,29.284,28.153,9.588,8.15
111,0.994,36.166,26.715,41.79,29.288,28.069,9.669,8.313
112,0.965,36.215,26.641,41.762,29.277,27.662,9.548,8.234
113,0.935,35.842,26.605,41.733,29.267,27.251,9.384,8.192
114,0.938,36.001,26.577,41.761,29.281,26.963,9.423,8.232
115,0.928,36.118,26.558,41.752,29.267,26.878,9.424,8.233
116,0.941,36.224,26.53,41.752,29.274,26.796,9.424,8.111
117,0.932,35.784,26.569,41.761,29.284,27.121,9.464,8.313
118,0.938,35.953,26.569,41.771,29.281,27.693,9.587,8.274
119,0.954,36.089,26.616,41.762,29.281,28.349,9.588,8.193
120,0.954,36.176,26.695,41.761,29.284,28.966,9.629,8.192
121,0.941,35.87,26.688,41.781,29.281,29.419,9.751,8.273
122,0.932,36.021,26.602,41.742,29.27,29.546,9.712,8.071
123,0.935,36.147,26.562,41.752,29.27,29.75,9.752,8.109
124,0.909,36.244,26.565,41.761,29.281,29.752,9.793,8.109
125,0.882,35.813,26.515,41.723,29.267,29.508,9.671,8.069
126,0.889,35.991,26.545,41.771,29.281,29.303,9.792,8.191
127,0.885,36.127,26.542,41.781,29.281,28.935,9.834,8.273
128,0.853,36.167,26.624,41.752,29.274,28.606,9.834,8.274
129,0.853,35.918,26.624,41.761,29.281,28.114,9.712,8.233
130,0.846,36.069,26.702,41.781,29.284,27.988,9.874,8.436
131,0.83,36.166,26.664,41.742,29.277,27.539,9.753,8.235
132,0.83,36.311,26.605,41.742,29.27,27.209,9.59,8.233
133,0.8,35.852,26.558,41.752,29.281,26.8,9.669,8.192
134,0.784,35.972,26.589,41.723,29.263,26.429,9.589,8.273
135,0.79,36.118,26.647,41.78,29.281,26.385,9.547,8.314
136,0.79,35.822,26.648,41.771,29.284,26.507,9.588,8.396
137,0.793,35.857,26.636,41.809,29.281,26.63,9.629,8.316
138,0.79,36.011,26.593,41.762,29.277,27.16,9.548,8.274
139,0.78,36.147,26.675,41.79,29.291,27.978,9.831,8.436
140,0.764,35.822,26.687,41.733,29.277,28.312,9.631,8.275
141,0.764,35.963,26.648,41.752,29.274,28.64,9.629,8.193
142,0.774,36.089,26.55,41.742,29.274,28.928,9.67,8.273
143,0.754,36.186,26.612,41.78,29.27,29.012,9.711,8.193
144,0.774,35.746,26.601,41.742,29.274,28.972,9.752,8.07
145,0.764,35.895,26.659,41.78,29.281,28.931,9.833,8.191
146,0.731,36.04,26.636,41.752,29.281,28.646,9.794,8.151
147,0.715,36.109,26.625,41.733,29.277,28.318,9.753,8.15
148,0.721,35.889,26.656,41.78,29.288,28.112,9.874,8.232
149,0.708,35.963,26.66,41.752,29.274,27.662,9.713,8.192
150,0.695,36.098,26.695,41.742,29.27,27.455,9.67,8.07
151,0.692,36.176,26.617,41.742,29.274,27.29,9.711,8.028
152,0.679,35.813,26.589,41.761,29.277,27.085,9.752,7.987
153,0.675,35.962,26.624,41.742,29.263,26.554,9.549,8.027
154,0.678,36.108,26.656,41.771,29.284,26.508,9.669,8.109
155,0.678,36.138,26.617,41.752,29.281,26.508,9.67,8.109
156,0.691,35.851,26.667,41.752,29.284,26.508,9.629,8.028
157,0.692,35.982,26.625,41.771,29.277,26.793,9.588,7.987
158,0.688,36.079,26.66,41.762,29.284,27.568,9.751,8.108
159,0.692,36.406,26.683,41.733,29.274,28.104,9.59,7.865
160,0.695,35.748,26.664,41.742,29.274,28.76,9.588,7.904
161,0.695,35.895,26.617,41.752,29.274,29.133,9.588,7.863
162,0.695,35.983,26.593,41.723,29.267,29.38,9.588,7.863
163,0.708,35.82,26.644,41.761,29.277,29.586,9.669,7.904
164,0.715,35.876,26.644,41.752,29.284,29.547,9.67,7.863
165,0.698,36.011,26.66,41.752,29.281,29.384,9.589,7.904
166,0.698,36.108,26.64,41.771,29.274,29.179,9.588,7.904
167,0.688,35.726,26.644,41.8,29.291,28.974,9.751,8.107
168,0.685,35.818,26.632,41.733,29.27,28.484,9.508,7.906
169,0.685,35.943,26.679,41.742,29.274,28.195,9.425,7.863
170,0.675,36.031,26.656,41.752,29.281,28.07,9.424,7.985
171,0.659,35.735,26.551,41.723,29.274,27.865,9.424,7.946
172,0.675,35.952,26.612,41.79,29.274,27.701,9.261,7.945
173,0.672,36.06,26.597,41.771,29.281,27.536,9.422,8.108
174,0.672,36.118,26.648,41.771,29.274,27.209,9.302,8.028
175,0.678,35.755,26.679,41.762,29.274,27.165,9.341,8.027
176,0.708,35.933,26.719,41.781,29.288,27.368,9.382,8.109
177,0.682,36.012,26.649,41.762,29.274,27.37,9.382,8.028
178,0.682,36.07,26.656,41.742,29.267,27.818,9.301,7.946
179,0.692,35.745,26.691,41.742,29.277,28.554,9.341,8.026
180,0.692,35.895,26.668,41.761,29.277,29.049,9.382,8.027
181,0.698,36.011,26.562,41.742,29.263,29.339,9.342,7.824
182,0.708,36.06,26.639,41.752,29.281,29.667,9.586,7.985
183,0.718,35.869,26.652,41.761,29.281,29.792,9.507,8.027
184,0.721,36.001,26.648,41.752,29.277,29.794,9.546,7.946
185,0.721,36.175,26.664,41.79,29.284,29.712,9.547,7.905
186,0.695,36.196,26.64,41.762,29.284,29.386,9.547,8.067
187,0.698,35.775,26.675,41.742,29.277,28.895,9.506,7.865
188,0.682,35.933,26.68,41.733,29.274,28.646,9.506,7.944
189,0.672,36.05,26.656,41.752,29.281,28.318,9.587,7.986
190,0.669,35.831,26.617,41.733,29.27,28.071,9.425,7.864
191,0.682,35.886,26.523,41.78,29.277,27.946,9.505,8.026
192,0.666,36.011,26.639,41.762,29.281,27.701,9.546,8.19
193,0.659,36.099,26.648,41.752,29.274,27.414,9.466,8.11
194,0.672,35.735,26.679,41.771,29.274,27.045,9.424,8.109
195,0.659,35.827,26.687,41.771,29.277,27.083,9.546,8.232
196,0.669,35.943,26.633,41.742,29.267,26.961,9.344,7.989
197,0.669,36.069,26.664,41.761,29.27,27.244,9.464,7.986
198,0.691,35.735,26.676,41.752,29.277,27.816,9.465,7.986
199,0.679,35.856,26.66,41.733,29.267,28.31,9.343,7.946
200,0.691,36.011,26.613,41.771,29.284,29.128,9.626,8.067
201,0.695,36.108,26.667,41.762,29.281,29.583,9.629,8.069
202,0.708,35.668,26.672,41.771,29.277,29.791,9.629,8.028
203,0.711,35.808,26.676,41.762,29.274,29.915,9.67,7.987
204,0.715,35.943,26.699,41.79,29.284,30.079,9.792,8.027
205,0.692,35.983,26.692,41.723,29.277,29.756,9.59,7.946
206,0.679,35.724,26.676,41.732,29.27,29.468,9.547,7.945
207,0.678,35.885,26.668,41.752,29.277,29.18,9.588,7.986
208,0.662,35.944,26.668,41.713,29.263,28.73,9.507,7.946
209,0.659,36.06,26.683,41.751,29.274,28.522,9.465,7.945
210,0.656,35.764,26.578,41.771,29.281,28.317,9.627,8.026
211,0.646,35.895,26.624,41.762,29.277,28.112,9.466,8.027
212,0.642,36.03,26.601,41.771,29.274,27.866,9.465,8.109
213,0.655,36.061,26.671,41.79,29.288,27.66,9.587,8.232
214,0.649,35.783,26.668,41.752,29.277,27.17,9.425,8.029
215,0.642,35.914,26.679,41.742,29.27,27.043,9.342,7.987
216,0.642,36.05,26.723,41.761,29.274,27.123,9.382,8.108
217,0.639,35.811,26.684,41.742,29.274,27.327,9.423,8.069
218,0.649,35.771,26.711,41.733,29.267,27.858,9.302,7.987
219,0.675,35.924,26.641,41.761,29.284,28.636,9.544,8.108
220,0.678,36.031,26.543,41.771,29.277,29.294,9.547,8.191
221,0.698,35.744,26.608,41.762,29.277,29.748,9.506,8.192
222,0.724,35.866,26.687,41.771,29.281,30.037,9.628,8.11
223,0.744,35.982,26.672,41.752,29.284,30.284,9.629,8.191
224,0.77,36.031,26.68,41.742,29.27,30.124,9.507,8.07
225,0.8,35.735,26.664,41.742,29.277,30.122,9.506,8.028
226,0.81,35.904,26.703,41.761,29.281,29.919,9.506,8.109
227,0.813,35.992,26.707,41.733,29.267,29.469,9.425,8.028
228,0.826,36.127,26.668,41.761,29.281,29.18,9.586,8.109
229,0.852,35.544,26.648,41.761,29.277,28.893,9.466,8.272
230,0.869,35.73,26.652,41.838,29.281,28.687,9.465,8.274
231,0.918,35.866,26.648,41.753,29.274,28.522,9.424,8.274
232,0.941,35.953,26.664,41.781,29.288,28.398,9.505,8.396
233,0.984,35.705,26.707,41.742,29.274,27.95,9.303,8.316
234,1.004,35.846,26.664,41.761,29.27,27.62,9.26,8.274
235,1.03,35.992,26.718,41.761,29.274,27.657,9.259,8.355
236,1.079,36.003,26.664,41.733,29.27,27.577,9.178,8.315
237,1.109,35.763,26.679,41.761,29.277,27.86,9.259,8.396
238,1.154,35.895,26.684,41.781,29.281,28.351,9.3,8.438
239,1.2,36.021,26.609,41.762,29.284,29.047,9.301,8.357
240,1.224,36.041,26.605,41.752,29.277,29.705,9.301,8.397
241,1.289,35.821,26.632,41.79,29.291,30.118,9.504,8.438
242,1.325,35.924,26.648,41.743,29.27,30.122,9.425,8.316
243,1.319,36.031,26.679,41.733,29.274,30.285,9.424,8.315
244,1.3,35.773,26.691,41.742,29.27,30.286,9.464,8.274
245,1.247,35.636,26.688,41.723,29.263,30.124,9.424,8.314
246,1.253,35.807,26.676,41.761,29.281,29.919,9.505,8.274
247,1.247,35.915,26.683,41.761,29.277,29.632,9.587,8.396
248,1.218,35.753,26.687,41.761,29.281,29.182,9.629,8.275
249,1.165,35.856,26.606,41.761,29.277,28.893,9.588,8.355
250,1.142,36.011,26.652,41.781,29.291,28.849,9.669,8.397
251,1.106,36.08,26.629,41.742,29.267,28.442,9.548,8.316
252,1.024,35.687,26.691,41.733,29.27,28.194,9.466,8.234
253,0.923,35.856,26.688,41.771,29.274,27.989,9.505,8.314
254,0.876,35.944,26.687,41.714,29.267,27.539,9.384,8.274
255,0.856,36.06,26.68,41.761,29.274,27.575,9.464,8.274
256,0.801,35.792,26.691,41.761,29.281,27.535,9.587,8.355
257,0.702,35.924,26.652,41.752,29.274,27.697,9.547,8.315
258,0.545,36.05,26.675,41.742,29.281,28.187,9.588,8.274
259,0.404,36.147,26.609,41.79,29.288,29.005,9.751,8.355
260,0.256,35.649,26.585,41.733,29.274,29.298,9.63,8.153
261,0.164,35.807,26.628,41.742,29.27,29.626,9.67,8.15
262,0.101,35.934,26.644,41.733,29.27,29.832,9.711,8.191
263,0.045,35.973,26.66,41.704,29.274,29.916,9.67,8.11
264,-0.021,35.715,26.66,41.742,29.281,29.795,9.792,8.15
265,-0.096,35.856,26.683,41.752,29.281,29.631,9.834,8.191
266,-0.185,35.973,26.641,41.742,29.27,29.385,9.834,8.192
267,-0.221,36.012,26.664,41.761,29.277,28.976,9.794,8.192
268,-0.209,35.926,26.707,41.8,29.284,28.647,9.915,8.314
269,-0.199,36.06,26.61,41.733,29.274,28.115,9.713,8.193
270,-0.134,36.166,26.659,41.742,29.274,27.947,9.67,8.192
271,-0.061,35.966,26.629,41.752,29.281,27.661,9.67,8.273
272,0.001,35.743,26.663,41.723,29.274,27.373,9.711,8.274
273,0.132,35.933,26.703,41.761,29.281,27.167,9.711,8.314
274,0.237,36.06,26.707,41.771,29.281,26.88,9.792,8.356
275,0.333,35.677,26.656,41.771,29.274,26.755,9.671,8.356
276,0.447,35.779,26.644,41.742,29.267,26.836,9.711,8.275
277,0.527,35.933,26.668,41.78,29.288,27.081,9.914,8.477
278,0.576,35.993,26.656,41.742,29.277,27.449,9.632,8.276
279,0.638,35.715,26.523,41.752,29.274,28.062,9.629,8.314
280,0.694,35.866,26.635,41.733,29.274,28.719,9.71,8.193
281,0.721,35.973,26.628,41.723,29.27,29.01,9.63,8.273
282,0.776,36.089,26.652,41.771,29.281,29.298,9.71,8.233
283,0.797,35.62,26.691,41.752,29.284,29.585,9.792,8.273
284,0.807,35.798,26.648,41.761,29.284,29.629,9.712,8.233
285,0.807,35.924,26.621,41.742,29.281,29.466,9.752,8.314
286,0.81,36.002,26.624,41.78,29.295,29.384,9.793,8.356
287,0.79,35.686,26.663,41.723,29.277,28.895,9.631,8.193
288,0.787,35.827,26.57,41.742,29.277,28.565,9.629,8.11
289,0.787,35.972,26.546,41.761,29.281,28.439,9.67,8.191
290,0.767,36.012,26.628,41.752,29.274,28.194,9.67,8.273
291,0.77,35.821,26.632,41.742,29.267,27.989,9.548,8.111
292,0.761,35.943,26.718,41.79,29.284,27.783,9.588,8.272
293,0.761,36.088,26.715,41.771,29.284,27.496,9.588,8.274
294,0.748,36.119,26.707,41.762,29.281,27.087,9.547,8.193
295,0.773,35.668,26.645,41.8,29.288,27.164,9.547,8.192
296,0.767,35.779,26.656,41.762,29.281,27.043,9.506,8.273
297,0.764,35.876,26.656,41.733,29.281,27.123,9.343,8.152
298,0.774,35.896,26.625,41.761,29.274,27.652,9.382,8.15
299,0.787,35.781,26.64,41.848,29.274,28.43,9.545,8.191
300,0.79,35.914,26.621,41.734,29.27,28.885,9.384,7.988
301,0.793,36.031,26.64,41.771,29.281,29.459,9.586,8.149
302,0.81,35.754,26.675,41.771,29.281,29.79,9.588,8.11
303,0.803,35.837,26.656,41.752,29.274,29.875,9.547,8.109
304,0.81,35.972,26.66,41.761,29.274,29.916,9.628,8.109
305,0.803,36.098,26.617,41.79,29.288,29.876,9.751,8.232
306,0.784,35.62,26.644,41.743,29.27,29.51,9.549,8.029
307,0.787,35.75,26.625,41.761,29.274,29.099,9.506,8.027
308,0.787,35.885,26.605,41.752,29.277,28.77,9.546,8.068
309,0.758,35.982,26.609,41.723,29.263,28.482,9.425,8.028
310,0.774,35.609,26.613,41.752,29.281,28.317,9.505,8.027
311,0.767,35.749,26.663,41.771,29.281,28.234,9.587,8.19
312,0.767,35.866,26.676,41.771,29.277,27.948,9.507,8.273
313,0.754,35.925,26.676,41.762,29.281,27.62,9.506,8.152
314,0.777,35.733,26.625,41.79,29.288,27.495,9.587,8.191
315,0.771,35.827,26.64,41.762,29.274,27.29,9.425,8.151
316,0.777,35.972,26.664,41.752,29.267,27.37,9.464,8.028
317,0.78,36.012,26.648,41.752,29.281,27.533,9.505,8.027
318,0.787,35.696,26.625,41.752,29.277,28.104,9.546,8.068
319,0.797,35.856,26.636,41.742,29.277,28.801,9.466,7.987
320,0.807,35.963,26.64,41.761,29.277,29.54,9.627,8.149
321,0.813,35.993,26.679,41.771,29.274,29.954,9.67,8.069
322,0.803,35.686,26.707,41.762,29.284,30.161,9.67,8.028
323,0.82,35.875,26.656,41.8,29.291,30.407,9.792,8.068
324,0.81,35.934,26.609,41.762,29.281,30.287,9.793,8.069
325,0.82,35.993,26.601,41.771,29.267,30.042,9.671,7.865
326,0.803,35.705,26.554,41.752,29.277,29.837,9.711,7.944
327,0.797,35.856,26.6,41.742,29.274,29.468,9.752,7.986
328,0.794,35.953,26.562,41.761,29.27,28.977,9.59,7.905
329,0.793,35.657,26.632,41.771,29.277,28.769,9.669,8.107
330,0.797,35.721,26.624,41.771,29.281,28.563,9.67,8.028
331,0.794,35.856,26.675,41.762,29.281,28.236,9.629,8.109
332,0.79,35.963,26.691,41.79,29.284,27.989,9.67,8.15
333,0.784,35.667,26.617,41.762,29.277,27.62,9.629,8.232
334,0.78,35.779,26.577,41.752,29.277,27.251,9.507,8.07
335,0.787,35.943,26.542,41.761,29.274,27.206,9.506,8.069
336,0.806,36.021,26.561,41.771,29.277,27.247,9.506,8.109
337,0.807,35.524,26.596,41.733,29.274,27.328,9.506,7.987
338,0.813,35.71,26.558,41.78,29.281,28.061,9.628,8.19
339,0.813,35.837,26.632,41.771,29.281,28.8,9.67,8.151
340,0.82,35.915,26.652,41.752,29.277,29.458,9.751,8.15
341,0.833,35.618,26.687,41.781,29.281,29.912,9.712,8.11
342,0.833,35.75,26.676,41.771,29.281,30.201,9.914,8.232
343,0.839,35.876,26.602,41.742,29.267,30.204,9.713,8.029
344,0.843,35.944,26.581,41.752,29.281,30.326,9.792,8.027
345,0.836,35.561,26.554,41.752,29.274,30.124,9.834,8.027
346,0.82,35.701,26.561,41.752,29.263,29.837,9.712,8.027
347,0.833,35.846,26.577,41.761,29.288,29.631,9.914,8.109
348,0.83,35.896,26.565,41.781,29.281,29.304,9.916,8.15
349,0.836,35.647,26.647,41.771,29.274,29.057,9.835,8.069
350,0.833,35.817,26.671,41.762,29.281,28.77,9.794,8.15
351,0.826,35.943,26.695,41.79,29.284,28.726,9.915,8.232
352,0.813,36.156,26.645,41.752,29.274,28.319,9.754,8.111
353,0.816,35.65,26.617,41.771,29.267,27.99,9.712,8.028
354,0.816,35.779,26.562,41.762,29.277,27.661,9.711,8.149
355,0.813,35.876,26.546,41.752,29.267,27.455,9.67,8.11
356,0.852,35.656,26.542,41.771,29.281,27.452,9.629,8.069
357,0.846,35.702,26.557,41.771,29.281,27.575,9.792,8.109
358,0.853,35.846,26.546,41.79,29.281,28.226,9.753,8.15
359,0.853,35.925,26.608,41.781,29.277,28.802,9.752,8.069
360,0.862,35.523,26.691,41.8,29.284,29.54,9.915,8.191
361,0.859,35.605,26.68,41.762,29.27,29.832,9.794,8.029
362,0.885,35.74,26.641,41.742,29.274,30.038,9.793,7.987
363,0.879,35.856,26.589,41.742,29.274,30.243,9.915,8.027
364,0.869,35.426,26.566,41.742,29.274,30.245,9.794,7.987
365,0.885,35.604,26.55,41.771,29.274,30.123,9.753,7.946
366,0.879,35.749,26.561,41.771,29.281,29.919,9.874,8.026
367,0.863,35.828,26.573,41.762,29.277,29.632,9.916,8.068
368,0.859,35.57,26.593,41.752,29.277,29.223,9.876,8.028
369,0.862,35.759,26.612,41.79,29.298,29.056,9.957,8.109
370,0.849,35.847,26.679,41.752,29.274,28.607,9.795,8.109
371,0.853,35.886,26.676,41.733,29.274,28.399,9.712,7.987
372,0.853,35.58,26.633,41.761,29.274,28.072,9.711,8.149
373,0.83,35.73,26.613,41.742,29.281,27.703,9.752,8.273
374,0.843,35.837,26.566,41.733,29.267,27.333,9.549,8.193
375,0.866,35.915,26.577,41.761,29.284,27.37,9.75,8.354
376,0.879,35.503,26.491,41.761,29.281,27.411,9.752,8.356
377,0.869,35.662,26.545,41.733,29.284,27.574,9.712,8.315
378,0.892,35.798,26.581,41.8,29.284,28.186,9.711,8.356
379,0.879,36.106,26.628,41.771,29.281,28.883,9.792,8.437
380,0.895,35.592,26.648,41.733,29.277,29.378,9.712,8.316
381,0.908,35.711,26.668,41.732,29.281,29.871,9.752,8.396
382,0.908,35.837,26.633,41.752,29.281,30.12,9.833,8.316
383,0.918,35.589,26.546,41.733,29.263,30.163,9.753,8.274
384,0.922,35.625,26.6,41.78,29.288,30.285,9.915,8.355
385,0.918,35.769,26.632,41.771,29.284,30.164,9.957,8.397
386,0.912,35.866,26.609,41.771,29.277,29.838,9.917,8.397
387,0.912,35.484,26.628,41.8,29.291,29.59,9.916,8.356
388,0.912,35.576,26.656,41.752,29.281,29.1,9.916,8.437
389,0.908,35.711,26.648,41.723,29.274,28.648,9.794,8.438
390,0.902,35.798,26.699,41.732,29.281,28.481,9.793,8.357
391,0.912,35.483,26.656,41.752,29.281,28.276,9.753,8.437
392,0.895,35.662,26.605,41.723,29.263,27.745,9.63,8.357
393,0.908,35.798,26.573,41.761,29.281,27.537,9.71,8.559
394,0.912,35.866,26.476,41.761,29.277,27.291,9.752,8.602
395,0.915,35.397,26.615,41.829,29.274,27.126,9.671,8.562
396,0.915,35.575,26.562,41.762,29.281,27.246,9.67,8.48
397,0.925,35.701,26.62,41.781,29.281,27.491,9.711,8.601
398,0.935,35.741,26.62,41.723,29.274,27.982,9.711,8.44
399,0.948,35.473,26.667,41.732,29.27,28.718,9.711,8.397
400,0.948,35.643,26.652,41.752,29.281,29.417,9.792,8.478
401,0.948,35.74,26.617,41.713,29.267,29.912,9.712,8.357
402,0.974,35.828,26.55,41.751,29.288,30.283,9.833,8.437
403,0.968,35.416,26.589,41.761,29.284,30.367,9.916,8.479
404,0.974,35.546,26.608,41.733,29.281,30.368,9.916,8.398
405,0.964,35.682,26.593,41.742,29.281,30.165,9.835,8.397
406,0.968,35.731,26.632,41.771,29.288,30.0,9.956,8.6
407,0.961,35.53,26.601,41.723,29.281,29.389,9.754,8.358
408,0.951,35.672,26.64,41.752,29.274,28.976,9.793,8.356
409,0.945,35.798,26.679,41.742,29.288,28.687,9.753,8.397
410,0.941,35.397,26.707,41.704,29.274,28.319,9.712,8.397
411,0.964,35.393,26.66,41.751,29.277,28.152,9.67,8.438
412,0.964,35.546,26.578,41.761,29.277,27.866,9.751,8.519
413,0.961,35.624,26.46,41.771,29.277,27.457,9.712,8.52
414,0.961,35.404,26.642,41.752,29.281,27.168,9.63,8.52
415,0.971,35.556,26.668,41.79,29.291,27.124,9.832,8.601
416,0.981,35.644,26.64,41.733,29.274,27.043,9.631,8.48
417,0.984,35.74,26.609,41.723,29.27,27.245,9.588,8.398
418,0.997,35.281,26.655,41.732,29.274,27.898,9.71,8.478
419,1.004,35.43,26.66,41.761,29.284,28.677,9.792,8.398
420,1.017,35.575,26.672,41.742,29.274,29.213,9.753,8.275
421,1.023,35.653,26.641,41.771,29.277,29.991,9.915,8.436
422,1.036,35.299,26.558,41.762,29.281,30.243,9.916,8.397
423,1.046,35.468,26.616,41.733,29.274,30.367,9.998,8.356
424,1.059,35.614,26.636,41.771,29.288,30.45,9.999,8.315
425,1.043,35.682,26.613,41.762,29.288,30.451,10.039,8.437
426,1.04,35.319,26.616,41.752,29.281,30.166,10.04,8.316
427,1.037,35.478,26.613,41.742,29.281,29.797,9.999,8.315
428,1.043,35.585,26.628,41.752,29.281,29.468,9.917,8.274
429,1.033,35.634,26.632,41.723,29.27,29.14,9.916,8.274
430,1.04,35.203,26.664,41.771,29.281,29.136,9.957,8.396
431,1.046,35.362,26.601,41.742,29.281,28.974,9.957,8.438
432,1.04,35.488,26.507,41.761,29.277,28.728,9.917,8.438
433,1.037,35.509,26.619,41.742,29.274,28.4,9.957,8.438
434,1.046,35.365,26.687,41.771,29.288,28.234,9.998,8.641
435,1.056,35.488,26.617,41.742,29.274,28.03,9.795,8.318
436,1.079,35.605,26.64,41.742,29.267,28.109,9.753,8.315
437,1.086,35.395,26.679,41.733,29.284,28.313,9.874,8.396
438,1.083,35.297,26.648,41.723,29.27,28.762,9.835,8.356
439,1.105,35.478,26.683,41.761,29.281,29.539,9.875,8.315
440,1.115,35.576,26.672,41.771,29.288,30.238,9.997,8.356
441,1.128,35.279,26.609,41.771,29.288,30.57,9.958,8.356
442,1.142,35.42,26.542,41.781,29.281,30.777,9.998,8.315
443,1.161,35.585,26.608,41.762,29.288,30.982,10.121,8.437
444,1.165,35.634,26.616,41.733,29.274,30.822,10.0,8.235
445,1.161,35.184,26.644,41.723,29.277,30.617,9.958,8.111
446,1.155,35.352,26.636,41.742,29.277,30.33,9.917,8.232
447,1.145,35.469,26.656,41.733,29.281,29.961,9.916,8.233
448,1.155,35.576,26.613,41.742,29.267,29.511,9.835,8.111
449,1.161,35.318,26.667,41.752,29.281,29.303,9.916,8.272
450,1.161,35.478,26.676,41.733,29.284,29.016,9.998,8.314
451,1.165,35.604,26.535,41.752,29.284,28.769,9.877,8.315
452,1.171,35.711,26.647,41.79,29.295,28.563,9.876,8.396
453,1.162,35.204,26.644,41.743,29.284,28.114,9.835,8.397
454,1.174,35.362,26.66,41.733,29.27,27.825,9.712,8.275
455,1.194,35.479,26.644,41.742,29.27,27.7,9.711,8.274
456,1.211,35.528,26.671,41.742,29.284,27.78,9.711,8.355
457,1.207,35.202,26.648,41.723,29.267,27.862,9.63,8.193
458,1.224,35.391,26.679,41.761,29.284,28.636,9.873,8.354
459,1.243,35.498,26.707,41.752,29.284,29.416,9.835,8.397
460,1.25,35.528,26.653,41.761,29.277,30.115,9.875,8.356
461,1.266,35.25,26.539,41.771,29.281,30.691,9.916,8.356
462,1.273,35.41,26.631,41.771,29.298,31.063,10.079,8.397
463,1.283,35.489,26.613,41.742,29.274,30.944,9.918,8.275
464,1.283,35.403,26.659,41.733,29.281,31.025,9.957,8.274
465,1.28,35.364,26.644,41.752,29.281,30.903,9.917,8.274
466,1.27,35.479,26.668,41.723,29.27,30.577,9.916,8.314
467,1.293,35.643,26.734,41.752,29.281,30.33,9.998,8.315
468,1.29,35.242,26.668,41.771,29.291,29.961,9.999,8.315
469,1.29,35.333,26.691,41.752,29.284,29.551,9.917,8.356
470,1.29,35.478,26.602,41.752,29.281,29.425,9.876,8.356
471,1.309,35.604,26.546,41.781,29.291,29.221,9.997,8.519
472,1.3,35.28,26.616,41.762,29.274,28.73,9.836,8.398
473,1.29,35.411,26.597,41.742,29.267,28.4,9.672,8.397
474,1.286,35.556,26.616,41.752,29.274,28.031,9.751,8.356
475,1.303,35.634,26.652,41.733,29.277,28.027,9.752,8.397
476,1.322,35.27,26.695,41.742,29.27,28.068,9.59,8.234
477,1.326,35.42,26.672,41.761,29.281,28.394,9.71,8.395
478,1.339,35.546,26.703,41.742,29.277,28.966,9.833,8.356
479,1.355,35.634,26.695,41.752,29.277,29.785,9.834,8.315
480,1.362,35.28,26.641,41.781,29.295,30.525,9.875,8.315
481,1.352,35.391,26.468,41.752,29.277,30.939,9.916,8.356
482,1.378,35.517,26.603,41.733,29.274,31.147,9.916,8.153
483,1.382,35.557,26.624,41.742,29.281,31.352,9.957,8.15
484,1.375,35.461,26.671,41.752,29.281,31.435,9.917,8.15
485,1.372,35.614,26.672,41.742,29.274,31.233,9.916,8.069
486,1.378,35.759,26.656,41.752,29.281,31.068,10.039,8.231
487,1.372,35.78,26.672,41.761,29.284,30.782,9.999,8.233
488,1.352,35.521,26.707,41.752,29.284,30.291,10.08,8.151
489,1.346,35.681,26.672,41.771,29.291,30.083,10.081,8.232
490,1.336,35.75,26.605,41.762,29.281,29.756,10.04,8.233
491,1.336,35.703,26.624,41.742,29.27,29.508,9.918,8.07
492,1.332,35.578,26.64,41.752,29.281,29.262,9.916,8.191
493,1.326,35.74,26.632,41.752,29.281,28.853,9.916,8.232
494,1.322,35.828,26.648,41.742,29.267,28.402,9.754,8.192
495,1.332,35.713,26.671,41.761,29.281,28.478,9.793,8.354
496,1.336,35.808,26.672,41.771,29.281,28.479,9.753,8.315
497,1.326,35.943,26.676,41.762,29.284,28.56,9.915,8.274
498,1.339,36.05,26.656,41.771,29.288,29.212,9.876,8.193
499,1.332,36.492,26.652,41.762,29.277,30.072,9.997,8.354
500,1.329,36.641,26.554,41.742,29.277,30.691,9.836,8.153
501,1.316,36.767,26.635,41.771,29.281,31.347,9.956,8.191
502,1.329,36.864,26.644,41.752,29.284,31.639,10.039,8.192
503,1.303,35.532,26.66,41.733,29.263,31.723,9.999,8.11
504,1.303,35.701,26.695,41.761,29.281,31.846,10.039,8.191
505,1.29,35.846,26.676,41.752,29.284,31.684,10.202,8.273
506,1.26,35.905,26.703,41.761,29.281,31.398,10.082,8.233
507,1.257,36.213,26.695,41.761,29.277,30.907,10.081,8.233
508,1.227,36.36,26.672,41.781,29.291,30.577,10.162,8.355
509,1.201,36.467,26.594,41.742,29.277,29.964,10.041,8.193
510,1.188,36.516,26.519,41.78,29.277,29.754,9.999,8.151
511,1.171,36.267,26.6,41.752,29.274,29.549,9.999,8.273
512,1.129,36.379,26.624,41.723,29.267,29.14,9.917,8.314
513,1.138,36.534,26.656,41.78,29.281,28.811,9.835,8.356
514,1.129,36.564,26.722,41.771,29.284,28.523,9.916,8.437
515,1.116,36.517,26.657,41.762,29.281,28.48,9.794,8.438
516,1.106,36.65,26.687,41.771,29.281,28.479,9.793,8.316
517,1.109,36.776,26.645,41.771,29.288,28.723,9.875,8.518
518,1.08,36.768,26.648,41.752,29.274,29.132,9.753,8.358
519,1.079,36.595,26.632,41.752,29.274,29.868,9.793,8.275
520,1.079,36.737,26.472,41.781,29.277,30.445,9.915,8.314
521,1.05,36.825,26.611,41.762,29.277,30.898,9.835,8.356
522,1.06,36.749,26.605,41.752,29.277,31.105,9.916,8.153
523,1.066,36.835,26.655,41.79,29.288,31.23,9.916,8.273
524,1.047,36.96,26.652,41.762,29.288,31.15,9.916,8.193
525,1.024,37.077,26.675,41.771,29.281,31.067,9.916,8.273
526,1.01,36.972,26.687,41.819,29.295,30.863,9.998,8.314
527,0.988,37.048,26.652,41.772,29.281,30.333,9.877,8.193
528,0.971,37.174,26.64,41.733,29.274,29.88,9.794,8.192
529,0.955,37.271,26.613,41.761,29.274,29.55,9.753,8.151
530,0.935,37.061,26.632,41.771,29.288,29.303,9.752,8.273
531,0.922,37.174,26.574,41.762,29.27,29.057,9.59,8.152
532,0.905,37.328,26.675,41.781,29.284,28.892,9.791,8.273
533,0.895,37.378,26.703,41.771,29.281,28.565,9.712,8.355
534,0.886,37.11,26.676,41.79,29.281,28.236,9.711,8.397
535,0.895,37.289,26.68,41.81,29.291,28.111,9.589,8.356
536,0.892,37.377,26.664,41.781,29.277,28.069,9.629,8.315
537,0.882,37.417,26.672,41.762,29.274,28.15,9.507,8.274
538,0.872,37.446,26.652,41.761,29.277,28.801,9.587,8.274
539,0.882,37.599,26.613,41.771,29.281,29.621,9.71,8.274
540,0.882,37.716,26.566,41.762,29.27,30.117,9.589,8.152
541,0.885,37.746,26.6,41.8,29.281,30.772,9.832,8.273
542,0.885,37.449,26.651,41.781,29.281,31.064,9.834,8.233
543,0.879,37.58,26.672,41.771,29.281,31.148,9.875,8.273
544,0.879,37.725,26.664,41.781,29.288,31.189,9.876,8.233
545,0.856,37.909,26.679,41.781,29.281,31.068,9.916,8.314
546,0.84,37.786,26.68,41.771,29.27,30.701,9.835,8.193
547,0.826,37.929,26.652,41.771,29.274,30.331,9.834,8.192
548,0.826,37.997,26.66,41.762,29.277,29.88,9.834,8.232
549,0.794,38.353,26.574,41.742,29.267,29.388,9.753,8.192
550,0.8,38.548,26.604,41.78,29.281,29.261,9.833,8.273
551,0.8,38.675,26.616,41.79,29.281,29.015,9.794,8.314
552,0.784,38.743,26.683,41.781,29.284,28.728,9.712,8.396
553,0.774,37.612,26.684,41.771,29.277,28.319,9.67,8.356
554,0.774,37.716,26.711,41.809,29.291,28.112,9.792,8.437
555,0.767,37.823,26.688,41.762,29.277,27.866,9.671,8.316
556,0.78,37.91,26.711,41.752,29.277,27.904,9.629,8.274
557,0.777,38.649,26.719,41.781,29.274,28.189,9.67,8.314
558,0.774,38.762,26.657,41.742,29.27,28.842,9.589,8.315
559,0.793,38.907,26.629,41.771,29.281,29.703,9.71,8.234
560,0.787,38.976,26.605,41.79,29.284,30.606,9.833,8.314
561,0.787,37.72,26.613,41.781,29.284,31.225,9.916,8.274
562,0.797,37.871,26.644,41.781,29.281,31.597,9.876,8.274
563,0.813,38.016,26.66,41.819,29.295,32.048,10.079,8.396
564,0.784,38.027,26.672,41.772,29.274,31.971,9.918,8.194
565,0.784,38.219,26.66,41.762,29.267,31.929,9.876,8.192
566,0.777,38.393,26.633,41.781,29.277,31.685,9.957,8.192
567,0.774,38.453,26.652,41.781,29.281,31.317,9.998,8.192
568,0.78,38.52,26.64,41.771,29.267,30.947,9.877,8.11
569,0.761,38.176,26.562,41.781,29.288,30.699,9.997,8.191
570,0.751,38.335,26.624,41.79,29.284,30.453,9.958,8.273
571,0.757,38.433,26.644,41.8,29.281,30.206,9.917,8.193
572,0.738,38.77,26.668,41.791,29.284,29.919,9.835,8.273
573,0.741,38.255,26.676,41.781,29.288,29.51,9.997,8.436
574,0.728,38.375,26.66,41.79,29.267,29.018,9.795,8.194
575,0.734,38.472,26.66,41.8,29.274,28.932,9.753,8.232
576,0.747,38.271,26.633,41.771,29.281,28.972,9.793,8.151
577,0.751,38.279,26.71,41.742,29.267,28.972,9.712,8.11
578,0.757,38.432,26.664,41.809,29.284,29.704,9.874,8.272
579,0.764,38.53,26.597,41.8,29.288,30.524,9.876,8.233
580,0.77,38.176,26.632,41.791,29.281,31.224,9.916,8.233
581,0.767,38.297,26.664,41.781,29.284,31.678,9.916,8.192
582,0.783,38.442,26.679,41.81,29.295,32.049,9.998,8.273
583,0.777,38.492,26.68,41.772,29.274,32.052,9.917,8.152
584,0.774,38.147,26.637,41.781,29.284,32.133,9.916,8.069
585,0.774,38.306,26.609,41.79,29.284,32.053,9.957,8.069
586,0.744,38.404,26.605,41.8,29.27,31.727,9.835,8.028
587,0.757,38.52,26.644,41.81,29.284,31.48,9.916,8.109
588,0.754,38.262,26.625,41.781,29.288,30.989,9.876,8.15
589,0.738,38.375,26.535,41.79,29.281,30.659,9.916,8.11
590,0.751,38.548,26.608,41.81,29.274,30.371,9.835,8.109
591,0.748,38.579,26.64,41.819,29.291,30.206,9.956,8.313
592,0.725,38.186,26.656,41.8,29.27,29.716,9.795,8.071
593,0.718,38.326,26.691,41.791,29.274,29.386,9.753,8.15
594,0.708,38.471,26.68,41.8,29.274,28.936,9.793,8.11
595,0.718,38.444,26.668,41.791,29.267,28.728,9.631,8.15
596,0.734,38.242,26.644,41.8,29.284,28.807,9.792,8.15
597,0.738,38.394,26.664,41.8,29.277,28.889,9.834,8.232
598,0.741,38.491,26.629,41.819,29.281,29.418,9.875,8.233
599,0.757,38.741,26.578,41.82,29.284,29.993,9.916,8.192
600,0.757,38.197,26.589,41.82,29.291,30.812,10.12,8.314
601,0.754,38.307,26.632,41.8,29.274,31.023,10.0,8.112
602,0.777,38.413,26.664,41.8,29.281,31.229,10.039,8.069
603,0.761,38.108,26.66,41.81,29.281,31.312,10.121,8.069
604,0.754,38.085,26.644,41.8,29.277,31.313,10.163,8.028
605,0.761,38.229,26.64,41.791,29.281,31.028,10.082,7.987
606,0.754,38.365,26.644,41.829,29.284,30.863,10.243,8.108
607,0.748,38.05,26.621,41.8,29.288,30.414,10.286,8.109
608,0.741,38.162,26.613,41.8,29.284,30.003,10.327,8.109
609,0.738,38.335,26.566,41.848,29.288,29.714,10.327,8.069
610,0.705,38.366,26.577,41.81,29.281,29.427,10.246,8.15
611,0.721,37.915,26.597,41.8,29.277,29.139,10.123,7.988
612,0.705,38.074,26.671,41.829,29.274,28.933,10.081,8.108
613,0.695,38.181,26.656,41.81,29.277,28.565,10.081,8.069
614,0.711,38.259,26.625,41.8,29.274,28.236,9.878,8.028
615,0.721,37.962,26.656,41.829,29.288,28.274,10.079,8.109
616,0.734,38.113,26.636,41.829,29.284,28.396,10.081,8.109
617,0.725,38.229,26.66,41.82,29.281,28.641,10.04,8.028
618,0.747,38.317,26.617,41.848,29.284,29.294,10.08,8.068
619,0.734,37.723,26.601,41.82,29.281,30.236,10.162,8.231
620,0.731,37.861,26.609,41.81,29.281,30.855,10.082,8.029
621,0.738,37.987,26.652,41.819,29.277,31.471,10.081,7.987
622,0.76,38.036,26.683,41.8,29.281,31.802,10.162,8.027
623,0.754,37.787,26.66,41.791,29.27,31.846,10.082,7.905
624,0.767,37.958,26.644,41.819,29.281,31.969,10.203,7.985
625,0.761,38.074,26.644,41.839,29.284,31.807,10.204,7.986
626,0.744,38.095,26.621,41.839,29.281,31.481,10.204,8.027
627,0.747,37.635,26.64,41.829,29.281,31.03,10.204,7.987
628,0.738,37.764,26.609,41.839,29.288,30.619,10.245,8.068
629,0.725,37.871,26.546,41.801,29.274,30.005,10.042,7.946
630,0.724,37.661,26.592,41.819,29.281,29.674,9.999,7.986
631,0.721,37.649,26.628,41.82,29.281,29.508,9.958,8.027
632,0.692,37.755,26.675,41.791,29.263,29.059,9.917,7.946
633,0.714,37.9,26.664,41.848,29.281,28.851,10.12,8.026
634,0.721,37.527,26.676,41.839,29.288,28.442,10.0,8.109
635,0.715,37.61,26.625,41.829,29.284,28.316,9.999,8.109
636,0.728,37.754,26.605,41.839,29.281,28.315,9.917,8.028
637,0.741,37.861,26.648,41.858,29.291,28.64,10.039,8.19
638,0.725,37.354,26.605,41.82,29.274,28.969,9.918,8.029
639,0.75,37.493,26.585,41.829,29.274,29.622,10.039,7.946
640,0.757,37.657,26.593,41.829,29.281,30.442,10.04,8.067
641,0.748,37.678,26.648,41.82,29.281,30.857,9.999,7.987
642,0.764,37.602,26.664,41.82,29.281,31.186,10.039,7.986
643,0.777,37.764,26.687,41.848,29.284,31.434,10.121,8.108
644,0.777,37.881,26.633,41.839,29.274,31.477,10.081,8.028
645,0.758,37.93,26.624,41.848,29.281,31.315,10.081,8.027
646,0.767,37.115,26.613,41.877,29.295,31.232,10.243,8.149
647,0.751,37.203,26.632,41.83,29.281,30.743,10.042,8.028
648,0.761,37.338,26.566,41.858,29.274,30.331,9.999,8.068
649,0.744,37.407,26.518,41.839,29.274,30.043,9.958,8.069
650,0.734,37.292,26.592,41.82,29.281,29.959,9.957,8.191
651,0.744,37.473,26.628,41.839,29.281,29.632,9.917,8.11
652,0.731,37.6,26.671,41.877,29.284,29.548,9.998,8.272
653,0.715,37.62,26.652,41.858,29.284,29.222,10.039,8.355
654,0.721,36.997,26.617,41.868,29.284,28.934,9.918,8.356
655,0.737,37.173,26.585,41.858,29.291,28.931,9.957,8.315
656,0.734,37.251,26.577,41.858,29.281,28.809,9.957,8.356
657,0.734,37.06,26.604,41.839,29.27,29.052,9.876,8.193
658,0.747,37.011,26.593,41.858,29.281,29.664,9.876,8.354
659,0.744,37.173,26.558,41.887,29.277,30.565,9.916,8.275
660,0.741,37.251,26.616,41.839,29.263,31.265,9.835,8.233
661,0.757,36.926,26.656,41.858,29.281,31.922,10.038,8.395
662,0.767,37.019,26.679,41.849,29.281,32.254,10.162,8.316
663,0.761,37.144,26.629,41.839,29.284,32.339,10.122,8.274
664,0.777,37.27,26.644,41.877,29.288,32.339,10.122,8.314
665,0.754,36.763,26.566,41.858,29.284,32.258,10.203,8.437
666,0.748,36.893,26.604,41.83,29.281,31.81,10.082,8.235
667,0.738,37.047,26.581,41.848,29.281,31.481,10.121,8.192
668,0.744,37.135,26.581,41.849,29.284,31.071,10.203,8.314
669,0.718,36.657,26.612,41.906,29.27,30.579,9.919,8.152
670,0.731,36.863,26.632,41.878,29.284,30.452,10.039,8.313
671,0.731,36.98,26.695,41.868,29.284,30.166,10.04,8.234
672,0.718,37.019,26.707,41.858,29.281,30.0,9.918,8.273
673,0.718,36.636,26.688,41.877,29.284,29.674,9.957,8.274
674,0.715,36.757,26.652,41.887,29.284,29.223,9.998,8.396
675,0.721,36.854,26.625,41.878,29.284,29.015,9.877,8.112
676,0.734,36.932,26.593,41.868,29.281,29.013,9.794,8.191
677,0.728,36.655,26.597,41.858,29.277,29.176,9.793,8.273
678,0.725,36.767,26.546,41.858,29.277,29.624,9.793,8.111
679,0.747,36.941,26.561,41.935,29.281,30.28,9.834,8.191
680,0.747,36.952,26.581,41.878,29.281,31.099,10.038,8.232
681,0.754,36.53,26.659,41.868,29.288,31.514,10.04,8.192
682,0.754,36.679,26.644,41.858,29.281,31.762,9.999,8.11
683,0.761,36.834,26.66,41.906,29.298,32.049,10.202,8.272
684,0.751,36.663,26.617,41.878,29.277,31.889,10.001,8.03
685,0.754,36.575,26.617,41.849,29.274,31.685,9.958,8.068
686,0.741,36.728,26.609,41.877,29.281,31.398,9.917,8.109
687,0.741,36.816,26.616,41.858,29.274,30.948,9.957,8.069
688,0.738,36.452,26.562,41.887,29.281,30.537,9.835,8.069
689,0.721,36.554,26.604,41.897,29.288,30.167,9.956,8.15
690,0.724,36.689,26.616,41.878,29.281,29.878,9.917,8.15
691,0.718,36.786,26.64,41.897,29.281,29.753,9.835,8.11
692,0.724,36.452,26.707,41.916,29.288,29.549,9.956,8.232
693,0.708,36.554,26.645,41.878,29.277,29.1,9.835,8.111
694,0.705,36.67,26.578,41.868,29.281,28.729,9.794,8.15
695,0.702,36.748,26.601,41.887,29.281,28.563,9.712,8.069
696,0.711,36.202,26.585,41.878,29.274,28.602,9.67,8.069
697,0.724,36.379,26.62,41.878,29.281,28.643,9.711,8.028
698,0.724,36.505,26.535,41.906,29.281,29.213,9.752,8.149
699,0.731,36.574,26.616,41.887,29.281,29.95,9.752,8.191
700,0.738,36.258,26.605,41.887,29.274,30.649,9.712,8.07
701,0.741,36.437,26.679,41.935,29.298,31.266,9.955,8.191
702,0.747,36.525,26.644,41.888,29.277,31.434,9.917,8.151
703,0.751,36.564,26.601,41.887,29.277,31.558,9.835,7.947
704,0.748,36.239,26.531,41.878,29.281,31.559,9.834,8.026
705,0.751,36.379,26.573,41.906,29.281,31.478,9.916,8.068
706,0.738,36.524,26.546,41.878,29.274,31.03,9.794,7.906
707,0.741,36.564,26.561,41.897,29.284,30.781,9.915,8.067
708,0.728,36.248,26.522,41.926,29.281,30.413,9.916,8.069
709,0.715,36.398,26.627,41.897,29.288,29.921,9.835,7.987
710,0.721,36.534,26.656,41.916,29.284,29.754,9.834,7.946
711,0.705,36.42,26.683,41.916,29.284,29.63,9.916,8.148
712,0.702,36.218,26.687,41.907,29.281,29.182,9.713,7.947
713,0.695,36.379,26.617,41.897,29.281,28.933,9.711,7.986
714,0.701,36.486,26.605,41.907,29.277,28.646,9.67,7.986
715,0.705,36.046,26.534,41.887,29.274,28.399,9.507,7.905
716,0.711,36.147,26.577,41.916,29.281,28.56,9.668,7.985
717,0.702,36.273,26.597,41.936,29.288,28.724,9.67,7.986
718,0.721,36.379,26.562,41.917,29.277,29.092,9.751,7.864
719,0.734,36.122,26.604,41.936,29.281,29.827,9.752,7.904
720,0.728,36.234,26.64,41.936,29.288,30.566,9.874,8.026
721,0.728,36.379,26.683,41.917,29.281,31.021,9.794,7.865
722,0.741,36.457,26.633,41.916,29.281,31.269,9.793,7.863
723,0.741,36.122,26.582,41.936,29.281,31.394,9.875,7.822
724,0.728,36.234,26.565,41.897,29.277,31.354,9.916,7.7
725,0.738,36.398,26.581,41.954,29.284,31.435,9.916,7.78
726,0.728,36.496,26.55,41.926,29.284,31.192,9.998,7.822
727,0.721,36.132,26.542,41.936,29.281,30.865,9.958,7.822
728,0.721,36.273,26.561,41.945,29.281,30.455,9.876,7.822
729,0.708,36.427,26.632,41.974,29.291,30.328,10.038,8.025
730,0.689,36.429,26.632,41.917,29.274,29.921,9.836,7.824
731,0.692,36.151,26.632,41.916,29.277,29.713,9.753,7.863
732,0.679,36.301,26.652,41.926,29.277,29.589,9.874,7.863
733,0.672,36.408,26.609,41.916,29.277,29.222,9.753,7.863
734,0.688,36.467,26.585,41.945,29.277,28.934,9.712,7.822
735,0.685,36.18,26.577,41.955,29.281,28.85,9.833,7.985
736,0.701,36.321,26.522,41.955,29.284,28.93,9.794,7.946
737,0.692,36.399,26.561,41.936,29.284,29.012,9.712,7.864
738,0.695,36.438,26.514,41.993,29.295,29.582,9.955,8.026
739,0.698,36.132,26.608,41.946,29.27,30.117,9.835,7.905
740,0.711,36.263,26.648,41.936,29.277,30.772,9.753,7.863
741,0.721,36.379,26.656,41.964,29.281,31.226,9.833,7.985
742,0.705,36.16,26.625,41.926,29.277,31.393,9.834,7.864
743,0.724,36.273,26.589,41.955,29.277,31.558,9.794,7.822
744,0.728,36.408,26.558,41.965,29.284,31.641,9.834,7.903
745,0.731,36.515,26.495,41.974,29.284,31.479,9.834,7.863
746,0.708,36.142,26.529,41.955,29.288,31.233,9.794,7.944
747,0.711,36.301,26.581,42.003,29.291,31.028,9.996,8.067
748,0.695,36.408,26.542,41.975,29.284,30.416,9.714,7.946
749,0.688,36.515,26.581,41.955,29.277,30.043,9.711,7.864
750,0.688,36.19,26.651,41.965,29.277,29.837,9.752,7.944
751,0.662,36.321,26.636,41.946,29.281,29.712,9.752,7.986
752,0.675,36.466,26.628,41.965,29.281,29.549,9.712,7.946
753,0.669,36.544,26.578,41.993,29.281,29.303,9.752,8.108
754,0.672,36.171,26.573,41.994,29.281,29.016,9.712,8.069
755,0.665,36.311,26.565,41.984,29.277,28.85,9.63,8.028
756,0.685,36.476,26.565,42.013,29.295,29.011,9.792,8.19
757,0.675,36.487,26.55,41.975,29.274,29.013,9.753,8.07
758,0.675,36.382,26.549,41.955,29.274,29.42,9.712,8.069
759,0.698,36.534,26.608,41.993,29.281,30.278,9.792,7.987
760,0.695,36.622,26.597,41.965,29.281,30.977,9.793,8.108
761,0.705,36.68,26.687,41.974,29.274,31.472,9.753,7.947
762,0.724,36.422,26.672,41.984,29.284,31.802,9.955,8.067
763,0.721,36.534,26.594,41.994,29.284,31.968,10.039,8.109
764,0.705,36.679,26.554,41.994,29.281,31.97,9.999,8.069
765,0.724,36.901,26.557,42.013,29.295,31.929,9.999,8.15
766,0.705,36.578,26.569,42.004,29.281,31.563,9.958,8.15
767,0.689,36.718,26.542,41.984,29.274,31.071,9.876,8.028
768,0.679,36.825,26.499,41.984,29.281,30.701,9.916,8.027
769,0.678,36.519,26.58,41.994,29.284,30.29,9.957,8.109
770,0.678,36.554,26.608,41.984,29.274,29.92,9.876,7.987
771,0.672,36.708,26.667,41.994,29.288,29.876,9.997,8.149
772,0.675,36.806,26.633,42.013,29.281,29.591,9.999,8.232
773,0.659,36.366,26.574,42.013,29.288,29.1,9.958,8.273
774,0.672,36.534,26.53,42.032,29.291,28.851,9.957,8.233
775,0.652,36.631,26.538,42.004,29.277,28.605,9.917,8.273
776,0.672,36.709,26.569,41.984,29.281,28.562,9.794,8.111
777,0.688,36.662,26.542,41.994,29.277,28.805,9.915,8.15
778,0.698,36.805,26.581,42.013,29.281,29.296,10.039,8.232
779,0.695,36.912,26.573,41.984,29.27,29.87,9.796,8.111
780,0.708,37.038,26.628,42.022,29.284,30.648,9.996,8.232
781,0.711,36.541,26.656,41.994,29.284,31.225,10.121,8.314
782,0.721,36.67,26.625,42.003,29.281,31.353,10.081,8.234
783,0.744,36.834,26.558,42.023,29.284,31.598,10.04,8.151
784,0.725,36.855,26.538,42.004,29.291,31.601,10.202,8.191
785,0.715,36.817,26.514,41.994,29.277,31.356,10.041,8.029
786,0.705,36.97,26.573,42.023,29.274,31.151,10.04,8.149
787,0.692,37.096,26.565,42.023,29.277,30.742,10.08,8.232
788,0.698,37.126,26.62,42.032,29.267,30.25,9.959,8.07
789,0.692,36.839,26.656,42.032,29.284,30.001,10.08,8.231
790,0.669,36.96,26.672,42.032,29.284,29.633,10.04,8.192
791,0.669,37.077,26.703,42.032,29.281,29.466,10.08,8.11
792,0.685,37.452,26.653,42.023,29.284,29.221,10.081,8.232
793,0.659,36.909,26.551,42.032,29.288,28.893,10.04,8.273
794,0.669,37.028,26.522,42.032,29.27,28.483,9.918,8.152
795,0.672,37.145,26.522,42.032,29.281,28.235,9.957,8.232
796,0.698,36.973,26.53,42.032,29.277,28.355,10.08,8.273
797,0.688,36.991,26.479,42.004,29.27,28.275,9.837,8.152
798,0.695,37.173,26.615,42.128,29.281,28.884,10.078,8.232
799,0.701,37.232,26.601,42.043,29.288,29.5,10.121,8.273
800,0.708,36.916,26.64,42.042,29.284,30.116,10.203,8.233
801,0.721,37.057,26.687,42.052,29.291,30.569,10.245,8.192
802,0.708,37.164,26.633,42.042,29.291,30.858,10.245,8.314
803,0.705,37.232,26.527,42.033,29.274,30.861,10.245,8.152
804,0.705,36.907,26.553,42.032,29.281,30.82,10.286,8.11
805,0.702,37.067,26.522,42.032,29.284,30.779,10.286,8.15
806,0.685,37.174,26.545,42.013,29.27,30.494,10.205,8.069
807,0.692,37.261,26.577,42.061,29.284,30.248,10.285,8.069
808,0.685,37.032,26.632,42.033,29.281,29.961,10.286,8.15
809,0.669,37.154,26.613,42.042,29.288,29.511,10.245,8.15
810,0.672,37.28,26.675,42.052,29.281,29.303,10.245,8.11
811,0.669,37.348,26.703,42.061,29.291,29.219,10.367,8.191
812,0.656,36.994,26.598,42.033,29.281,28.812,10.002,8.11
813,0.655,37.163,26.538,42.042,29.277,28.442,10.039,8.069
814,0.652,37.299,26.542,42.042,29.281,28.154,9.999,8.109
815,0.629,37.291,26.627,42.033,29.274,28.029,9.958,8.15
816,0.649,37.272,26.593,42.052,29.281,28.109,9.917,8.028
817,0.681,37.444,26.495,42.071,29.284,28.272,9.998,8.068
818,0.659,37.542,26.557,42.071,29.281,28.802,9.999,8.109
819,0.669,37.648,26.577,42.062,29.281,29.54,10.039,8.069
820,0.698,37.141,26.663,42.1,29.291,30.441,10.162,8.15
821,0.692,37.242,26.633,42.033,29.284,30.857,10.122,8.069
822,0.682,37.358,26.578,42.052,29.274,31.186,10.041,7.906
823,0.695,37.263,26.503,42.042,29.281,31.434,10.121,7.945
824,0.675,37.3,26.545,42.052,29.281,31.395,10.081,7.945
825,0.688,37.445,26.507,42.081,29.277,31.273,10.04,7.905
826,0.688,37.561,26.533,42.081,29.288,31.15,10.121,8.067
827,0.669,37.179,26.596,42.071,29.281,30.702,10.122,8.028
828,0.682,37.299,26.585,42.071,29.284,30.331,10.122,8.027
829,0.682,37.464,26.632,42.1,29.291,29.961,10.203,7.905
830,0.643,37.494,26.695,42.062,29.288,29.673,10.082,8.067
831,0.639,37.696,26.668,42.052,29.274,29.426,9.959,7.987
832,0.649,37.851,26.621,42.071,29.284,29.139,9.917,8.027
833,0.639,37.987,26.585,42.071,29.284,28.811,9.916,8.027
834,0.639,38.036,26.515,42.081,29.27,28.442,9.754,7.987
835,0.639,36.972,26.592,42.11,29.281,28.397,9.833,8.068
836,0.649,37.106,26.515,42.081,29.281,28.397,9.834,8.028
837,0.655,37.232,26.53,42.09,29.284,28.478,9.875,8.068
838,0.678,37.348,26.581,42.11,29.291,29.048,9.916,8.028
839,0.669,37.368,26.62,42.062,29.281,29.583,9.835,7.946
840,0.669,37.484,26.64,42.062,29.277,30.198,9.753,7.905
841,0.678,37.629,26.656,42.081,29.281,30.733,9.712,7.945
842,0.685,37.659,26.597,42.09,29.281,31.063,9.833,7.945
843,0.692,37.228,26.534,42.071,29.27,31.148,9.712,7.783
844,0.695,37.405,26.542,42.119,29.284,31.271,9.874,7.903
845,0.695,37.484,26.475,42.12,29.281,31.231,9.876,7.863
846,0.662,37.513,26.58,42.12,29.281,30.946,9.916,7.863
847,0.675,37.437,26.48,42.12,29.284,30.618,9.876,7.863
848,0.665,37.542,26.6,42.11,29.281,30.249,9.794,7.863
849,0.652,37.648,26.609,42.091,29.277,29.839,9.671,7.741
850,0.659,37.266,26.644,42.081,29.281,29.631,9.751,7.781
851,0.649,37.176,26.664,42.09,29.284,29.466,9.712,7.862
852,0.633,37.271,26.625,42.071,29.274,29.058,9.548,7.782
853,0.636,37.425,26.581,42.11,29.281,28.932,9.628,7.862
854,0.629,37.254,26.601,42.11,29.288,28.524,9.588,7.944
855,0.645,37.386,26.577,42.129,29.281,28.358,9.629,7.945
856,0.636,37.493,26.62,42.12,29.281,28.356,9.588,7.905
857,0.639,37.59,26.589,42.129,29.291,28.559,9.71,7.985
858,0.652,37.15,26.593,42.081,29.281,28.887,9.548,7.824
859,0.665,37.29,26.624,42.1,29.281,29.662,9.547,7.863
860,0.675,37.435,26.636,42.1,29.281,30.483,9.669,7.944
861,0.669,37.475,26.652,42.081,29.281,30.898,9.67,7.945
862,0.695,37.101,26.57,42.119,29.277,31.309,9.711,7.823
863,0.685,37.241,26.542,42.129,29.284,31.476,9.792,7.863
864,0.682,37.367,26.452,42.139,29.284,31.436,9.834,7.822
865,0.685,37.426,26.595,42.206,29.281,31.314,9.794,7.903
866,0.672,37.149,26.593,42.188,29.295,31.354,9.915,8.026
867,0.669,37.251,26.577,42.159,29.281,30.785,9.754,7.865
868,0.662,37.386,26.632,42.11,29.277,30.413,9.712,7.822
869,0.652,37.436,26.648,42.11,29.277,30.043,9.752,7.944
870,0.642,37.225,26.691,42.12,29.281,29.918,9.752,7.945
871,0.649,37.405,26.625,42.11,29.277,29.713,9.671,7.864
872,0.642,37.513,26.57,42.129,29.288,29.508,9.711,8.026
873,0.636,37.552,26.491,42.148,29.281,29.262,9.67,8.027
874,0.616,37.226,26.545,42.12,29.284,28.934,9.67,7.987
875,0.645,37.405,26.596,42.225,29.288,28.89,9.67,8.027
876,0.646,37.474,26.593,42.188,29.277,28.89,9.711,8.027
877,0.652,37.235,26.616,42.168,29.274,29.012,9.548,7.946
878,0.659,37.137,26.597,42.111,29.277,29.664,9.669,7.945
879,0.675,37.27,26.644,42.12,29.281,30.483,9.751,7.986
880,0.675,37.348,26.687,42.12,29.267,31.061,9.671,7.783
881,0.669,37.177,26.691,42.139,29.284,31.839,9.833,7.944
882,0.672,37.29,26.567,42.139,29.284,32.253,9.916,7.986
883,0.678,37.425,26.546,42.149,29.281,32.339,9.957,7.864
884,0.685,37.542,26.592,42.216,29.281,32.339,9.917,7.782
885,0.685,36.91,26.577,42.168,29.298,32.299,9.998,7.862
886,0.669,37.028,26.561,42.12,29.277,31.933,9.917,7.741
887,0.665,37.173,26.569,42.235,29.281,31.482,9.916,7.74
888,0.662,37.271,26.585,42.14,29.284,31.111,9.957,7.781
889,0.646,36.984,26.581,42.12,29.27,30.62,9.754,7.7
890,0.649,37.154,26.643,42.139,29.281,30.452,9.874,7.78
891,0.652,37.261,26.64,42.139,29.288,30.166,9.957,7.822
892,0.655,37.329,26.562,42.158,29.277,29.919,9.876,7.944
893,0.652,37.004,26.55,42.158,29.281,29.632,9.794,7.864
894,0.659,37.163,26.616,42.254,29.291,29.345,9.834,8.026
895,0.659,37.261,26.585,42.131,29.277,28.895,9.631,7.865
896,0.669,37.31,26.604,42.148,29.274,28.89,9.67,7.822
897,0.669,36.888,26.581,42.139,29.281,28.931,9.67,7.822
898,0.672,37.018,26.585,42.139,29.274,29.378,9.67,7.822
899,0.682,37.154,26.601,42.139,29.274,30.196,9.711,7.822
900,0.688,37.184,26.624,42.158,29.288,30.895,9.833,7.903
901,0.688,36.964,26.601,42.178,29.281,31.431,9.916,7.945
902,0.692,37.106,26.546,42.168,29.284,31.721,9.916,7.905
903,0.698,37.28,26.608,42.216,29.295,31.846,9.916,7.863
904,0.682,37.089,26.585,42.149,29.281,31.928,9.998,7.863
905,0.679,36.896,26.636,42.129,29.281,31.604,9.836,7.782
906,0.682,37.057,26.64,42.148,29.281,31.356,9.916,7.822
907,0.669,37.174,26.632,42.158,29.281,30.907,9.835,7.822
908,0.672,36.762,26.601,42.149,29.274,30.374,9.753,7.781
909,0.656,36.883,26.663,42.177,29.288,30.165,9.752,7.862
910,0.652,37.009,26.633,42.178,29.288,29.716,9.915,7.863
911,0.655,37.087,26.605,42.168,29.284,29.549,9.754,7.863
912,0.668,36.829,26.542,42.168,29.284,29.181,9.752,7.822
913,0.633,36.97,26.565,42.235,29.288,28.893,9.833,7.985
914,0.642,37.067,26.612,42.159,29.27,28.321,9.631,7.783
915,0.652,37.164,26.613,42.158,29.277,28.234,9.629,7.862
916,0.662,36.628,26.636,42.178,29.288,28.192,9.548,7.782
917,0.656,36.738,26.605,42.149,29.274,28.192,9.588,7.781
918,0.668,36.902,26.624,42.187,29.281,28.72,9.629,7.74
919,0.672,36.99,26.656,42.207,29.288,29.579,9.751,7.903
920,0.678,36.722,26.672,42.168,29.288,30.32,9.752,7.823
921,0.678,36.863,26.598,42.168,29.284,30.937,9.793,7.781
922,0.695,37.047,26.562,42.216,29.298,31.35,9.915,7.822
923,0.679,37.03,26.573,42.159,29.281,31.435,9.835,7.741
924,0.691,36.598,26.585,42.158,29.281,31.395,9.794,7.659
925,0.688,36.737,26.604,42.168,29.281,31.436,9.834,7.698
926,0.675,36.854,26.648,42.187,29.281,31.233,9.875,7.658
927,0.672,36.903,26.605,42.178,29.274,30.784,9.835,7.536
928,0.672,36.664,26.679,42.187,29.288,30.454,9.956,7.779
929,0.656,36.796,26.656,42.197,29.281,30.044,9.917,7.74
930,0.662,36.893,26.675,42.187,29.284,29.837,9.876,7.74
931,0.669,36.836,26.644,42.197,29.291,29.753,9.794,7.821
932,0.646,36.539,26.515,42.187,29.284,29.468,9.834,7.781
933,0.646,36.699,26.616,42.274,29.281,29.099,9.712,7.74
934,0.646,36.806,26.597,42.198,29.274,28.77,9.752,7.781
935,0.639,36.615,26.612,42.207,29.281,28.563,9.671,7.822
936,0.642,36.671,26.597,42.168,29.274,28.602,9.548,7.619
937,0.662,36.815,26.601,42.187,29.288,28.887,9.71,7.901
938,0.659,36.931,26.577,42.207,29.284,29.378,9.752,7.863
939,0.665,36.405,26.628,42.188,29.288,30.277,9.874,7.863
940,0.688,36.592,26.656,42.216,29.291,31.099,9.876,7.863
941,0.669,36.689,26.605,42.207,29.295,31.717,9.957,7.944
942,0.672,36.748,26.534,42.197,29.281,32.008,9.876,7.783
943,0.695,36.423,26.592,42.178,29.281,32.255,9.997,7.74
944,0.685,36.582,26.624,42.206,29.281,32.339,10.039,7.699
945,0.679,36.67,26.617,42.188,29.27,32.136,9.958,7.699
946,0.685,36.786,26.648,42.216,29.288,32.053,10.08,7.78
947,0.679,36.385,26.64,42.216,29.295,31.727,10.081,7.781
948,0.669,36.524,26.648,42.216,29.284,31.276,9.999,7.781
949,0.662,36.67,26.625,42.207,29.281,30.825,9.999,7.822
950,0.656,36.709,26.687,42.226,29.295,30.698,10.121,7.944
951,0.652,36.288,26.598,42.207,29.281,30.29,9.919,7.742
952,0.649,36.437,26.507,42.188,29.274,30.042,9.835,7.74
953,0.642,36.582,26.592,42.264,29.284,29.674,9.794,7.862
954,0.639,36.574,26.577,42.188,29.27,29.304,9.712,7.822
955,0.652,37.015,26.624,42.216,29.281,29.138,9.752,7.944
956,0.655,37.154,26.644,42.226,29.288,29.258,9.752,7.945
957,0.659,37.27,26.652,42.226,29.288,29.463,9.752,7.864
958,0.656,36.965,26.597,42.217,29.291,29.993,9.793,7.863
959,0.675,36.108,26.64,42.236,29.291,31.056,9.915,7.985
960,0.659,36.205,26.625,42.207,29.284,31.676,9.794,7.824
961,0.669,36.331,26.632,42.226,29.281,32.252,9.834,7.822
962,0.678,36.418,26.515,42.226,29.281,32.705,9.834,7.822
963,0.665,36.506,26.588,42.188,29.281,32.912,9.875,7.781
964,0.685,36.679,26.593,42.226,29.281,32.996,9.916,7.781
965,0.688,36.796,26.62,42.236,29.288,32.915,10.039,7.862
966,0.666,36.02,26.597,42.226,29.284,32.589,9.958,7.822
967,0.656,36.147,26.605,42.236,29.288,32.139,9.957,7.781
968,0.668,36.321,26.648,42.255,29.302,31.85,10.08,7.984
969,0.646,36.37,26.632,42.207,29.281,31.277,9.918,7.824
970,0.636,36.496,26.71,42.226,29.281,30.865,9.835,7.741
971,0.639,36.641,26.625,42.236,29.281,30.699,9.794,7.821
972,0.636,36.748,26.566,42.226,29.277,30.372,9.834,7.863
973,0.62,36.864,26.597,42.236,29.281,29.921,9.753,7.741
974,0.639,35.992,26.64,42.245,29.284,29.632,9.793,7.862
975,0.629,36.127,26.636,42.255,29.284,29.345,9.753,7.944
976,0.639,36.253,26.644,42.236,29.281,29.342,9.793,7.783
977,0.659,36.351,26.629,42.284,29.295,29.464,9.793,7.862
978,0.659,36.256,26.589,42.227,29.284,29.79,9.875,7.944
979,0.662,36.408,26.597,42.226,29.281,30.403,9.794,7.783
980,0.672,36.534,26.628,42.255,29.284,31.101,9.875,7.74
981,0.662,36.564,26.57,42.255,29.284,31.596,9.957,7.781
982,0.665,36.104,26.558,42.246,29.277,31.763,9.835,7.7
983,0.675,36.301,26.6,42.265,29.291,32.09,9.997,7.699
984,0.685,36.399,26.593,42.274,29.288,32.093,10.039,7.74
985,0.682,36.659,26.589,42.246,29.288,31.931,10.04,7.699
986,0.675,36.163,26.655,42.255,29.288,31.644,10.04,7.78
987,0.656,36.292,26.633,42.274,29.295,31.357,10.162,7.822
988,0.649,36.38,26.589,42.227,29.281,30.785,9.919,7.619
989,0.642,36.141,26.624,42.236,29.281,30.372,9.957,7.698
990,0.649,36.196,26.64,42.245,29.281,30.124,9.998,7.658
991,0.629,36.302,26.535,42.217,29.274,29.715,9.917,7.617
992,0.642,36.466,26.584,42.331,29.284,29.589,9.998,7.698
993,0.633,36.075,26.593,42.275,29.281,29.181,9.999,7.699
994,0.629,36.195,26.636,42.265,29.288,28.852,9.958,7.699
995,0.629,36.331,26.667,42.265,29.281,28.605,9.876,7.658
996,0.649,36.457,26.668,42.313,29.298,28.724,10.038,7.82
997,0.636,35.988,26.679,42.256,29.281,28.685,9.918,7.659
998,0.642,36.146,26.66,42.255,29.277,29.132,9.957,7.617
999,0.655,36.292,26.676,42.265,29.281,29.95,9.957,7.576
1000,0.639,36.341,26.648,42.236,29.281,30.649,10.039,7.657
1001,0.662,36.131,26.543,42.265,29.288,31.266,10.08,7.617
1002,0.669,36.292,26.581,42.361,29.284,31.678,10.284,7.698
1003,0.685,36.418,26.581,42.266,29.288,31.805,10.245,7.658
1004,0.679,36.486,26.601,42.284,29.284,31.846,10.245,7.617
1005,0.698,36.305,26.648,42.303,29.302,31.847,10.326,7.698
1006,0.666,36.408,26.664,42.246,29.291,31.44,10.246,7.618
1007,0.669,36.525,26.625,42.265,29.277,30.948,10.164,7.535
1008,0.678,36.574,26.64,42.265,29.281,30.618,10.204,7.616
1009,0.659,36.028,26.667,42.274,29.281,30.249,10.163,7.657
1010,0.669,36.166,26.625,42.265,29.274,29.879,10.122,7.536
1011,0.675,36.302,26.542,42.294,29.288,29.794,10.203,7.657
1012,0.695,36.6,26.596,42.284,29.284,29.509,10.123,7.698
1013,0.692,36.057,26.573,42.284,29.288,29.181,10.081,7.699
1014,0.714,36.224,26.628,42.323,29.288,28.893,10.121,7.699
1015,0.715,36.293,26.624,42.294,29.281,28.727,10.081,7.78
1016,0.744,36.092,26.632,42.275,29.284,28.563,9.878,7.659
1017,0.751,36.128,26.628,42.274,29.281,28.724,9.997,7.698
1018,0.757,36.263,26.656,42.303,29.281,29.295,10.039,7.658
1019,0.78,36.36,26.664,42.275,29.277,29.951,9.918,7.617
1020,0.806,36.083,26.648,42.294,29.295,30.811,10.12,7.779
1021,0.807,36.205,26.535,42.313,29.288,31.43,10.122,7.7
1022,0.807,36.35,26.577,42.304,29.281,31.721,10.163,7.699
1023,0.807,36.438,26.628,42.313,29.284,31.968,10.163,7.699
1024,0.813,35.911,26.624,42.313,29.291,32.133,10.285,7.74
1025,0.803,36.021,26.652,42.275,29.284,31.931,10.083,7.618
1026,0.79,36.156,26.656,42.294,29.281,31.726,10.081,7.617
1027,0.787,36.254,26.648,42.313,29.288,31.358,10.081,7.617
1028,0.764,36.034,26.613,42.275,29.284,30.988,10.04,7.698
1029,0.77,36.233,26.62,42.294,29.284,30.578,9.999,7.658
1030,0.783,36.36,26.57,42.313,29.288,30.411,10.039,7.78
1031,0.793,36.438,26.554,42.323,29.288,30.084,10.08,7.781
1032,0.793,36.036,26.573,42.304,29.284,29.878,9.999,7.74
1033,0.806,36.224,26.6,42.351,29.295,29.591,10.08,7.943
1034,0.807,36.312,26.632,42.323,29.281,29.181,9.959,7.945
1035,0.833,36.341,26.64,42.313,29.281,28.852,9.795,7.823
1036,0.862,35.901,26.679,42.294,29.277,29.011,9.834,7.822
1037,0.879,36.05,26.672,42.323,29.281,29.094,9.834,7.863
1038,0.879,36.176,26.664,42.294,29.281,29.542,9.794,7.7
1039,0.892,36.215,26.633,42.323,29.284,30.563,10.037,7.943
1040,0.886,36.062,26.605,42.332,29.291,31.346,10.08,7.905
1041,0.905,36.214,26.601,42.38,29.284,31.842,10.162,7.945
1042,0.938,36.35,26.593,42.333,29.284,32.253,10.204,7.905
1043,0.941,36.016,26.624,42.333,29.291,32.583,10.285,7.904
1044,0.948,35.945,26.644,42.304,29.284,32.383,10.123,7.782
1045,0.958,36.088,26.656,42.304,29.284,32.381,10.163,7.822
1046,0.938,36.195,26.648,42.323,29.288,32.096,10.163,7.822
1047,0.925,35.87,26.66,42.313,29.27,31.524,10.082,7.741
1048,0.925,36.021,26.652,42.342,29.284,31.193,10.243,7.862
1049,0.909,36.147,26.664,42.342,29.288,30.865,10.245,7.904
1050,0.905,36.234,26.613,42.342,29.284,30.495,10.164,7.945
1051,0.908,35.948,26.609,42.313,29.284,30.329,10.082,7.823
1052,0.892,36.098,26.605,42.351,29.295,30.124,10.243,8.066
1053,0.882,36.186,26.609,42.323,29.288,29.593,10.001,7.865
1054,0.876,36.283,26.64,42.342,29.277,29.222,9.917,7.863
1055,0.869,35.958,26.625,42.352,29.281,29.137,9.957,7.822
1056,0.85,36.069,26.663,42.314,29.277,29.136,9.917,7.863
1057,0.879,36.224,26.605,42.351,29.277,29.502,9.916,7.904
1058,0.863,36.293,26.62,42.352,29.295,30.034,9.957,7.945
1059,0.869,35.967,26.632,42.342,29.288,30.853,10.039,7.905
1060,0.866,36.108,26.593,42.342,29.281,31.674,10.04,7.945
1061,0.872,36.282,26.612,42.381,29.302,32.374,10.162,7.986
1062,0.856,36.264,26.609,42.343,29.277,32.543,10.082,7.946
1063,0.856,35.919,26.62,42.333,29.281,32.586,9.959,7.783
1064,0.84,36.079,26.663,42.333,29.281,32.708,9.998,7.822
1065,0.83,36.176,26.664,42.361,29.281,32.587,9.999,7.822
1066,0.826,36.215,26.668,42.352,29.281,32.261,9.999,7.7
1067,0.813,35.976,26.637,42.39,29.288,31.851,10.121,7.861
1068,0.81,36.108,26.652,42.362,29.288,31.481,10.0,7.944
1069,0.794,36.244,26.644,42.371,29.288,30.949,9.999,7.905
1070,0.79,36.082,26.566,42.4,29.288,30.659,10.039,7.945
1071,0.771,36.023,26.585,42.372,29.288,30.412,9.999,7.986
1072,0.764,36.147,26.589,42.333,29.288,30.043,9.795,7.946
1073,0.748,36.263,26.64,42.361,29.281,29.674,9.834,7.945
1074,0.751,35.871,26.636,42.381,29.284,29.345,9.794,8.026
1075,0.735,35.944,26.667,42.352,29.27,29.016,9.712,7.946
1076,0.751,36.117,26.699,42.381,29.288,29.094,9.752,7.945
1077,0.744,36.205,26.649,42.381,29.288,29.217,9.793,8.067
1078,0.738,35.986,26.625,42.371,29.288,29.666,9.915,8.109
1079,0.741,36.137,26.589,42.381,29.288,30.443,9.916,8.109
1080,0.741,36.301,26.523,42.419,29.295,31.386,10.12,8.191
1081,0.725,36.351,26.584,42.362,29.281,31.761,9.959,7.948
1082,0.715,35.805,26.62,42.381,29.281,32.212,9.917,7.945
1083,0.708,35.972,26.628,42.381,29.288,32.42,9.998,7.945
1084,0.698,36.05,26.632,42.362,29.284,32.503,10.039,7.986
1085,0.705,36.166,26.652,42.381,29.291,32.423,10.08,7.946
1086,0.698,35.918,26.664,42.4,29.291,32.3,10.081,8.067
1087,0.682,36.069,26.664,42.4,29.291,31.933,10.081,7.987
1088,0.666,36.195,26.683,42.41,29.288,31.522,10.04,7.986
1089,0.656,36.254,26.676,42.42,29.302,31.152,10.162,8.108
1090,0.639,35.909,26.609,42.42,29.284,30.783,10.0,7.987
1091,0.636,36.031,26.616,42.391,29.281,30.535,9.917,7.986
1092,0.626,36.156,26.624,42.391,29.284,30.329,9.876,7.946
1093,0.613,36.167,26.652,42.4,29.284,30.002,9.916,7.986
1094,0.619,35.976,26.64,42.391,29.288,29.633,9.794,7.946
1095,0.623,36.146,26.648,42.419,29.291,29.629,9.996,8.067
1096,0.639,36.254,26.629,42.401,29.281,29.548,9.917,8.028
1097,0.623,36.005,26.663,42.391,29.281,29.71,9.957,8.027
1098,0.632,35.83,26.652,42.429,29.295,30.199,9.917,8.027
1099,0.629,35.934,26.632,42.401,29.284,30.936,9.998,8.027
1100,0.642,36.06,26.605,42.4,29.281,31.553,9.836,7.946
1101,0.646,35.85,26.616,42.41,29.288,32.128,9.997,7.864
1102,0.636,35.953,26.624,42.42,29.291,32.459,10.08,7.944
1103,0.649,36.069,26.652,42.381,29.274,32.504,9.918,7.823
1104,0.662,36.214,26.66,42.41,29.284,32.626,10.039,7.944
1105,0.649,36.043,26.636,42.42,29.288,32.505,10.08,7.945
1106,0.633,36.195,26.617,42.401,29.288,32.26,10.081,7.864
1107,0.636,36.321,26.609,42.419,29.281,31.891,10.04,7.944
1108,0.642,36.409,26.632,42.448,29.295,31.563,10.121,8.067
1109,0.603,35.652,26.554,42.401,29.281,30.949,9.959,7.865
1110,0.613,35.798,26.616,42.419,29.277,30.699,9.917,7.822
1111,0.6,35.934,26.628,42.439,29.281,30.616,9.998,7.863
1112,0.59,35.973,26.636,42.391,29.277,30.412,9.917,7.904
1113,0.593,35.897,26.675,42.439,29.284,30.165,9.916,7.863
1114,0.596,36.05,26.691,42.449,29.291,29.878,9.957,8.026
1115,0.58,36.176,26.672,42.43,29.291,29.672,9.957,7.946
1116,0.606,36.225,26.613,42.439,29.288,29.751,9.957,7.945
1117,0.635,35.89,26.628,42.458,29.295,30.037,9.998,8.067
1118,0.62,35.992,26.55,42.43,29.281,30.446,10.039,7.946
1119,0.632,36.118,26.549,42.42,29.284,31.101,9.958,7.823
1120,0.629,36.167,26.585,42.439,29.284,31.88,10.039,7.903
1121,0.623,35.88,26.577,42.429,29.284,32.457,10.121,7.863
1122,0.626,36.03,26.604,42.429,29.281,32.747,10.081,7.782
1123,0.645,36.166,26.636,42.439,29.288,33.035,10.284,7.862
1124,0.642,36.043,26.648,42.458,29.288,32.957,10.205,7.863
1125,0.646,35.84,26.636,42.43,29.284,32.834,10.285,7.822
1126,0.652,36.02,26.667,42.496,29.295,32.67,10.245,7.903
1127,0.629,36.08,26.609,42.43,29.288,32.221,10.164,7.904
1128,0.626,35.802,26.577,42.439,29.281,31.647,10.082,7.823
1129,0.626,35.895,26.538,42.458,29.281,31.316,10.081,7.822
1130,0.61,36.04,26.573,42.449,29.288,30.947,10.081,7.903
1131,0.606,36.147,26.569,42.449,29.274,30.699,9.999,7.863
1132,0.619,35.88,26.632,42.477,29.288,30.453,10.121,8.026
1133,0.61,36.011,26.671,42.459,29.281,30.044,10.0,7.987
1134,0.609,36.118,26.664,42.478,29.284,29.674,9.958,8.027
1135,0.613,36.253,26.652,42.497,29.295,29.508,10.12,8.068
1136,0.6,35.756,26.66,42.459,29.288,29.384,9.959,8.028
1137,0.613,35.904,26.664,42.439,29.281,29.383,9.876,7.946
1138,0.619,36.05,26.644,42.458,29.284,29.83,9.916,7.945
1139,0.629,36.128,26.586,42.458,29.288,30.566,9.998,8.026
1140,0.632,35.889,26.573,42.449,29.281,31.184,9.958,7.946
1141,0.642,36.059,26.624,42.477,29.291,31.84,10.161,8.067
1142,0.642,36.176,26.663,42.478,29.288,32.172,10.122,8.109
1143,0.652,36.215,26.66,42.468,29.284,32.257,10.122,8.069
1144,0.665,35.851,26.633,42.478,29.291,32.339,10.203,7.987
1145,0.656,35.944,26.624,42.478,29.295,32.177,10.204,8.108
1146,0.629,36.069,26.601,42.459,29.281,31.809,10.163,7.987
1147,0.626,36.128,26.562,42.478,29.281,31.359,10.122,8.027
1148,0.616,35.784,26.569,42.468,29.281,30.947,10.122,7.987
1149,0.61,35.905,26.534,42.458,29.277,30.333,9.959,7.905
1150,0.616,36.059,26.549,42.487,29.284,30.165,10.08,8.148
1151,0.623,36.118,26.573,42.487,29.288,29.756,10.04,8.11
1152,0.613,35.889,26.667,42.497,29.288,29.468,10.08,8.109
1153,0.603,36.04,26.672,42.497,29.281,29.058,9.999,8.109
1154,0.606,36.128,26.644,42.526,29.295,28.729,10.161,8.272
1155,0.596,35.851,26.625,42.478,29.281,28.36,9.838,8.111
1156,0.603,35.915,26.593,42.478,29.281,28.356,9.875,8.028
1157,0.609,36.05,26.581,42.487,29.288,28.519,9.916,8.068
1158,0.603,36.118,26.589,42.459,29.274,28.805,9.835,8.028
1159,0.619,35.745,26.562,42.478,29.281,29.662,9.997,8.068
1160,0.642,35.875,26.577,42.507,29.288,30.443,9.999,8.109
1161,0.655,36.011,26.597,42.507,29.288,31.06,10.08,8.109
1162,0.668,36.099,26.64,42.497,29.284,31.351,9.999,8.109
1163,0.714,35.802,26.656,42.535,29.298,31.761,10.161,8.191
1164,0.718,35.924,26.621,42.478,29.281,31.683,10.0,8.029
1165,0.75,36.04,26.613,42.487,29.281,31.642,10.039,8.027
1166,0.78,36.128,26.585,42.497,29.288,31.438,10.04,8.027
1167,0.78,35.86,26.577,42.507,29.291,31.07,10.121,7.987
1168,0.81,36.04,26.561,42.516,29.281,30.701,10.0,7.864
1169,0.826,36.176,26.55,42.545,29.284,30.453,10.039,8.066
1170,0.846,36.235,26.561,42.507,29.281,30.166,10.04,8.109
1171,0.872,35.813,26.632,42.516,29.281,30.041,9.918,8.109
1172,0.921,36.01,26.656,42.555,29.295,29.918,10.079,8.191
1173,0.931,36.089,26.644,42.517,29.284,29.632,9.918,8.192
1174,0.977,36.128,26.574,42.507,29.277,29.141,9.835,8.029
1175,1.02,35.784,26.546,42.516,29.277,29.014,9.834,8.149
1176,1.069,35.914,26.546,42.516,29.281,29.216,9.875,8.11
1177,1.102,36.031,26.557,42.507,29.274,29.219,9.835,8.028
1178,1.132,36.291,26.6,42.526,29.288,29.828,9.916,8.19
1179,1.184,35.977,26.511,42.555,29.284,30.485,9.957,8.192
1180,1.24,36.118,26.596,42.526,29.288,31.183,9.998,8.192
1181,1.299,36.244,26.663,42.564,29.295,31.881,10.08,8.192
1182,1.306,35.775,26.664,42.527,29.295,32.091,10.04,8.192
1183,1.319,35.77,26.625,42.507,29.277,32.256,9.999,8.07
1184,1.352,35.914,26.601,42.516,29.284,32.258,10.039,7.987
1185,1.359,36.05,26.57,42.536,29.291,32.176,10.04,7.986
1186,1.316,35.85,26.503,42.517,29.281,31.891,9.877,7.905
1187,1.3,36.011,26.541,42.545,29.291,31.685,10.119,8.107
1188,1.241,36.128,26.538,42.536,29.284,31.276,10.081,8.109
1189,1.205,36.215,26.577,42.536,29.284,30.865,10.081,8.069
1190,1.172,35.756,26.616,42.545,29.288,30.536,9.999,8.069
1191,1.162,35.876,26.656,42.536,29.288,30.289,10.039,8.15
1192,1.113,35.982,26.679,42.517,29.284,29.88,9.918,7.947
1193,1.054,36.098,26.625,42.545,29.281,29.591,9.957,8.026
1194,0.965,35.764,26.574,42.546,29.284,29.263,9.917,8.027
1195,0.863,35.895,26.526,42.507,29.277,28.894,9.754,7.987
1196,0.801,36.03,26.506,42.555,29.284,28.971,9.915,8.068
1197,0.722,36.109,26.537,42.546,29.281,29.053,9.916,8.069
1198,0.637,35.822,26.506,42.546,29.284,29.42,9.957,8.028
1199,0.525,35.982,26.553,42.565,29.288,30.074,10.039,8.027
1200,0.374,36.089,26.569,42.574,29.291,30.853,10.162,8.109
1201,0.233,36.128,26.647,42.536,29.281,31.227,10.041,7.987
1202,0.154,35.879,26.632,42.555,29.281,31.515,10.08,7.946
1203,0.094,36.021,26.621,42.546,29.288,31.721,10.121,7.905
1204,-0.001,36.128,26.55,42.536,29.277,31.724,10.122,7.863
1205,-0.067,36.512,26.553,42.574,29.284,31.683,10.163,7.863
1206,-0.171,35.893,26.534,42.555,29.284,31.52,10.244,7.985
1207,-0.211,36.021,26.545,42.555,29.288,31.193,10.245,7.986
1208,-0.209,36.137,26.507,42.555,29.288,30.661,10.123,7.905
1209,-0.196,35.908,26.592,42.584,29.295,30.371,10.284,8.067
1210,-0.179,35.915,26.585,42.536,29.274,29.921,10.042,7.987
1211,-0.133,36.059,26.644,42.574,29.281,29.795,10.04,7.986
1212,-0.074,36.157,26.66,42.555,29.281,29.468,9.999,8.027
1213,-0.041,35.678,26.57,42.555,29.281,29.099,9.917,8.027
1214,0.037,35.856,26.593,42.584,29.288,28.933,9.957,8.109
1215,0.077,35.992,26.491,42.594,29.295,28.768,9.957,8.191
1216,0.133,36.07,26.526,42.575,29.284,28.685,9.998,8.273
1217,0.205,35.792,26.518,42.565,29.281,28.807,9.958,8.152
1218,0.28,35.962,26.553,42.613,29.295,29.296,9.998,8.354
1219,0.333,36.06,26.569,42.556,29.284,29.87,9.836,8.153
1220,0.405,36.147,26.6,42.555,29.284,30.485,9.875,8.15
1221,0.468,35.793,26.671,42.574,29.284,31.101,9.835,8.191
1222,0.507,35.924,26.629,42.584,29.288,31.474,9.916,8.232
1223,0.573,36.069,26.574,42.565,29.277,31.558,9.916,8.029
1224,0.612,36.128,26.55,42.584,29.291,31.722,9.957,8.19
1225,0.655,35.831,26.534,42.594,29.288,31.683,9.957,8.151
1226,0.672,35.972,26.542,42.594,29.284,31.438,9.998,8.11
1227,0.688,36.146,26.569,42.623,29.291,31.273,9.917,8.272
1228,0.685,36.148,26.448,42.613,29.291,30.784,9.916,8.233
1229,0.675,35.812,26.568,42.585,29.281,30.291,9.754,8.029
1230,0.678,35.972,26.612,42.584,29.281,30.042,9.793,8.109
1231,0.669,36.108,26.648,42.603,29.281,29.837,9.875,8.15
1232,0.675,36.119,26.636,42.565,29.274,29.428,9.753,8.11
1233,0.669,35.735,26.562,42.622,29.284,29.343,9.793,8.191
1234,0.669,35.866,26.538,42.613,29.288,29.016,9.875,8.232
1235,0.665,35.982,26.487,42.613,29.288,28.688,9.835,8.192
1236,0.665,35.83,26.549,42.613,29.284,28.766,9.753,8.192
1237,0.695,35.828,26.518,42.632,29.291,28.97,9.955,8.273
1238,0.685,35.924,26.561,42.671,29.277,29.216,9.795,8.071
1239,0.701,36.031,26.589,42.604,29.281,29.91,9.793,8.028
1240,0.701,35.62,26.605,42.613,29.284,30.608,9.875,8.068
1241,0.701,35.682,26.605,42.585,29.27,31.062,9.835,8.028
1242,0.711,35.856,26.624,42.623,29.288,31.595,9.956,8.109
1243,0.721,35.944,26.511,42.604,29.291,31.722,9.998,8.109
1244,0.718,35.82,26.506,42.604,29.288,31.805,9.999,7.987
1245,0.724,35.953,26.498,42.623,29.284,31.684,9.917,8.068
1246,0.715,36.098,26.604,42.652,29.298,31.601,10.12,8.15
1247,0.702,36.138,26.499,42.623,29.281,31.031,9.878,7.988
1248,0.701,35.745,26.576,42.652,29.288,30.578,9.835,7.986
1249,0.698,35.875,26.569,42.604,29.284,30.33,9.956,7.986
1250,0.679,35.992,26.6,42.594,29.274,29.839,9.795,7.946
1251,0.685,36.089,26.64,42.623,29.284,29.794,9.915,8.067
1252,0.679,35.678,26.636,42.623,29.291,29.631,9.916,8.069
1253,0.672,35.827,26.546,42.623,29.288,29.304,9.794,8.028
1254,0.669,35.953,26.549,42.623,29.281,29.016,9.834,8.027
1255,0.685,36.05,26.514,42.68,29.295,28.891,9.916,8.149
1256,0.688,35.783,26.596,42.614,29.281,28.727,9.713,7.988
1257,0.688,35.933,26.573,42.642,29.281,28.766,9.752,7.905
1258,0.701,36.05,26.62,42.709,29.281,29.214,9.833,7.863
1259,0.695,36.061,26.601,42.614,29.281,29.91,9.834,7.863
1260,0.711,35.773,26.593,42.623,29.281,30.526,9.753,7.822
1261,0.708,35.905,26.655,42.652,29.288,31.021,9.955,7.985
1262,0.724,36.031,26.601,42.652,29.284,31.229,9.957,7.905
1263,0.728,35.84,26.515,42.633,29.281,31.434,9.957,7.823
1264,0.747,35.857,26.487,42.671,29.298,31.517,10.039,7.903
1265,0.734,35.963,26.576,42.671,29.284,31.315,10.04,7.823
1266,0.721,36.041,26.569,42.719,29.284,30.988,9.836,7.781
1267,0.711,35.629,26.593,42.71,29.284,30.659,9.956,7.822
1268,0.708,35.711,26.612,42.643,29.281,30.29,9.957,7.822
1269,0.711,35.875,26.574,42.623,29.277,29.798,9.754,7.741
1270,0.715,36.002,26.663,42.652,29.291,29.671,9.955,7.862
1271,0.705,36.195,26.668,42.652,29.288,29.426,9.957,7.863
1272,0.698,36.35,26.59,42.642,29.281,29.221,9.957,7.904
1273,0.692,36.524,26.511,42.671,29.295,29.096,9.876,7.863
1274,0.685,36.564,26.592,42.719,29.291,28.689,9.916,7.985
1275,0.688,35.462,26.577,42.624,29.281,28.4,9.794,7.824
1276,0.688,35.614,26.604,42.632,29.281,28.275,9.834,7.863
1277,0.701,35.74,26.609,42.652,29.284,28.396,9.916,7.863
1278,0.705,35.789,26.574,42.633,29.281,28.641,9.794,7.741
1279,0.718,35.79,26.554,42.652,29.295,29.457,9.834,7.862
1280,0.728,35.934,26.643,42.662,29.284,30.075,9.956,7.863
1281,0.718,36.04,26.632,42.652,29.284,30.65,9.998,7.863
1282,0.731,36.128,26.57,42.69,29.288,30.981,9.917,7.822
1283,0.747,35.573,26.503,42.681,29.302,31.106,10.039,7.903
1284,0.741,35.711,26.569,42.643,29.277,30.985,9.918,7.701
1285,0.751,35.846,26.593,42.652,29.277,30.984,9.876,7.74
1286,0.748,35.877,26.605,42.671,29.284,30.74,9.916,7.74
1287,0.728,35.714,26.613,42.633,29.274,30.25,9.835,7.699
1288,0.721,35.885,26.577,42.681,29.281,29.92,9.834,7.78
1289,0.711,35.992,26.597,42.662,29.284,29.469,9.916,7.822
1290,0.715,35.753,26.636,42.671,29.284,29.18,9.835,7.781
1291,0.705,35.617,26.582,42.662,29.284,28.974,9.794,7.822
1292,0.721,35.788,26.538,42.69,29.298,28.931,9.956,7.944
1293,0.708,35.857,26.569,42.758,29.277,28.484,9.754,7.864
1294,0.708,35.589,26.593,42.663,29.281,28.154,9.752,7.822
1295,0.711,35.701,26.616,42.662,29.284,28.029,9.671,7.863
1296,0.715,35.827,26.648,42.652,29.284,27.987,9.711,7.904
1297,0.741,35.934,26.621,42.671,29.277,27.987,9.589,7.701
1298,0.738,35.628,26.624,42.662,29.291,28.312,9.791,7.902
1299,0.747,35.778,26.644,42.681,29.284,28.762,9.834,7.863
1300,0.751,35.885,26.664,42.671,29.288,29.295,9.916,7.904
1301,0.767,36.021,26.613,42.71,29.295,29.87,9.916,7.945
1302,0.774,35.418,26.48,42.691,29.291,30.038,9.916,7.986
1303,0.774,35.565,26.56,42.662,29.284,30.04,9.794,7.824
1304,0.767,35.711,26.581,42.662,29.281,30.121,9.793,7.822
1305,0.774,35.789,26.62,42.69,29.284,29.959,9.834,7.781
1306,0.764,35.531,26.62,42.662,29.281,29.673,9.753,7.74
1307,0.754,35.71,26.632,42.7,29.288,29.467,9.915,7.862
1308,0.754,35.856,26.644,42.691,29.295,29.099,9.835,7.904
1309,0.748,35.886,26.64,42.672,29.281,28.567,9.794,7.863
1310,0.747,35.58,26.628,42.671,29.284,28.195,9.793,7.944
1311,0.747,35.74,26.609,42.69,29.298,28.151,9.834,8.067
1312,0.744,35.828,26.492,42.672,29.284,27.704,9.753,7.906
1313,0.734,35.867,26.568,42.681,29.288,27.374,9.63,7.945
1314,0.744,36.26,26.585,42.681,29.284,27.167,9.629,7.986
1315,0.747,36.379,26.616,42.652,29.281,26.84,9.629,7.986
1316,0.773,36.534,26.601,42.681,29.281,26.877,9.629,8.068
1317,0.774,35.845,26.609,42.7,29.284,27.04,9.67,8.15
1318,0.784,35.224,26.62,42.672,29.288,27.286,9.711,8.028
1319,0.793,35.391,26.663,42.681,29.284,27.898,9.752,8.109
1320,0.81,35.527,26.664,42.719,29.302,28.717,9.915,8.232
1321,0.803,35.979,26.601,42.681,29.284,29.092,9.754,8.151
1322,0.807,36.166,26.511,42.691,29.281,29.298,9.712,8.028
1323,0.816,36.321,26.576,42.691,29.288,29.504,9.711,8.149
1324,0.82,36.399,26.593,42.672,29.291,29.669,9.711,8.11
1325,0.83,35.153,26.616,42.662,29.284,29.589,9.63,8.028
1326,0.813,35.294,26.597,42.69,29.291,29.466,9.751,8.109
1327,0.807,35.42,26.636,42.7,29.284,29.302,9.712,8.272
1328,0.816,35.489,26.617,42.7,29.295,28.935,9.711,8.233
1329,0.807,35.643,26.609,42.7,29.284,28.565,9.711,8.192
1330,0.803,35.779,26.679,42.71,29.295,28.317,9.833,8.395
1331,0.797,35.876,26.586,42.672,29.284,28.03,9.509,8.194
1332,0.794,35.992,26.573,42.69,29.281,27.865,9.587,8.232
1333,0.79,35.389,26.565,42.691,29.288,27.66,9.629,8.273
1334,0.79,35.517,26.597,42.652,29.267,27.251,9.507,8.314
1335,0.8,35.681,26.624,42.69,29.281,27.166,9.546,8.315
1336,0.797,35.731,26.621,42.681,29.288,27.206,9.588,8.356
1337,0.816,35.492,26.636,42.7,29.288,27.247,9.507,8.356
1338,0.816,35.633,26.605,42.691,29.291,27.572,9.587,8.356
1339,0.833,35.788,26.667,42.729,29.302,28.389,9.791,8.437
1340,0.836,35.77,26.637,42.662,29.281,28.804,9.631,8.275
1341,0.846,35.377,26.554,42.681,29.277,29.296,9.71,8.233
1342,0.836,35.527,26.53,42.719,29.288,29.626,9.711,8.273
1343,0.846,35.605,26.581,42.681,29.295,29.832,9.752,8.233
1344,0.866,35.682,26.604,42.681,29.281,29.834,9.712,8.111
1345,0.876,35.53,26.652,42.7,29.284,29.875,9.792,8.272
1346,0.866,35.662,26.625,42.691,29.288,29.713,9.753,8.193
1347,0.859,35.769,26.64,42.7,29.291,29.386,9.833,8.314
1348,0.882,35.416,26.64,42.748,29.291,29.058,9.875,8.274
1349,0.846,35.412,26.644,42.691,29.281,28.607,9.835,8.314
1350,0.856,35.546,26.668,42.681,29.281,28.196,9.753,8.193
1351,0.849,35.672,26.574,42.671,29.284,27.989,9.752,8.151
1352,0.846,35.415,26.546,42.719,29.288,27.824,9.752,8.273
1353,0.84,35.537,26.553,42.681,29.274,27.416,9.63,8.233
1354,0.846,35.72,26.616,42.719,29.284,27.249,9.751,8.314
1355,0.853,35.779,26.597,42.701,29.284,27.085,9.752,8.315
1356,0.862,35.31,26.616,42.691,29.288,26.961,9.671,8.356
1357,0.882,35.478,26.624,42.7,29.281,26.96,9.711,8.315
1358,0.876,35.624,26.593,42.71,29.295,27.326,9.833,8.396
1359,0.895,35.663,26.577,42.672,29.284,27.695,9.672,8.275
1360,0.895,35.328,26.636,42.69,29.288,28.349,9.629,8.193
1361,0.908,35.488,26.566,42.7,29.291,28.885,9.71,8.192
1362,0.899,35.605,26.565,42.767,29.274,29.093,9.67,8.11
1363,0.931,35.702,26.604,42.691,29.288,29.38,9.751,8.15
1364,0.928,35.386,26.616,42.719,29.288,29.545,9.671,8.191
1365,0.935,35.517,26.64,42.691,29.284,29.547,9.711,8.151
1366,0.945,35.653,26.644,42.7,29.291,29.384,9.63,8.11
1367,0.928,35.702,26.656,42.729,29.295,29.261,9.751,8.232
1368,0.928,35.338,26.652,42.691,29.284,28.731,9.549,8.029
1369,0.931,35.507,26.644,42.71,29.281,28.441,9.588,8.027
1370,0.922,35.624,26.625,42.7,29.291,28.154,9.588,8.109
1371,0.915,35.73,26.539,42.691,29.274,27.947,9.507,8.069
1372,0.938,35.329,26.577,42.719,29.291,27.905,9.465,8.15
1373,0.922,35.469,26.593,42.71,29.284,27.62,9.465,8.15
1374,0.938,35.576,26.628,42.729,29.281,27.332,9.465,8.191
1375,0.948,35.308,26.644,42.729,29.284,27.167,9.424,8.11
1376,0.951,35.382,26.679,42.739,29.302,27.368,9.505,8.232
1377,0.958,35.479,26.598,42.691,29.281,27.208,9.262,8.111
1378,0.968,35.585,26.57,42.71,29.288,27.491,9.341,8.028
1379,0.984,35.222,26.604,42.71,29.281,28.103,9.342,8.109
1380,0.984,35.324,26.589,42.681,29.277,28.557,9.382,8.109
1381,1.01,35.507,26.53,42.719,29.291,29.171,9.464,8.028
1382,1.01,35.585,26.561,42.72,29.288,29.462,9.505,8.068
1383,1.027,35.203,26.608,42.729,29.291,29.587,9.546,8.028
1384,1.037,35.362,26.62,42.72,29.284,29.71,9.506,8.027
1385,1.05,35.517,26.679,42.729,29.302,29.793,9.668,8.068
1386,1.024,35.557,26.644,42.701,29.281,29.509,9.467,7.946
1387,1.02,35.404,26.636,42.7,29.284,29.181,9.546,7.945
1388,1.033,35.575,26.644,42.71,29.288,28.933,9.547,7.945
1389,1.001,35.653,26.64,42.691,29.284,28.484,9.466,7.945
1390,1.036,35.75,26.597,42.7,29.284,28.317,9.424,7.945
1391,1.027,35.128,26.609,42.729,29.291,28.193,9.546,8.026
1392,1.037,35.294,26.562,42.72,29.291,27.989,9.506,8.109
1393,1.033,35.43,26.604,42.71,29.284,27.702,9.465,8.15
1394,1.05,35.489,26.663,42.739,29.298,27.496,9.546,8.273
1395,1.043,35.259,26.64,42.701,29.284,27.25,9.425,8.193
1396,1.056,35.42,26.625,42.691,29.281,27.166,9.383,8.11
1397,1.073,35.537,26.632,42.71,29.288,27.206,9.423,8.15
1398,1.069,35.854,26.66,42.71,29.291,27.45,9.424,8.232
1399,1.089,35.167,26.679,42.691,29.274,27.981,9.342,8.029
1400,1.105,35.333,26.555,42.71,29.291,28.759,9.504,8.19
1401,1.115,35.44,26.573,42.71,29.288,29.295,9.465,8.273
1402,1.119,35.326,26.585,42.72,29.291,29.667,9.505,8.233
1403,1.142,35.401,26.616,42.72,29.291,29.792,9.546,8.151
1404,1.142,35.517,26.632,42.729,29.295,29.956,9.588,8.273
1405,1.135,35.595,26.628,42.691,29.284,29.754,9.425,8.111
1406,1.135,35.059,26.632,42.7,29.277,29.63,9.424,8.109
1407,1.132,35.169,26.609,42.71,29.295,29.263,9.505,8.15
1408,1.122,35.275,26.659,42.672,29.281,28.853,9.425,8.15
1409,1.129,35.401,26.633,42.719,29.291,28.564,9.464,8.191
1410,1.132,35.172,26.558,42.729,29.284,28.317,9.465,8.232
1411,1.125,35.333,26.608,42.729,29.288,27.99,9.465,8.192
1412,1.145,35.469,26.593,42.71,29.291,27.661,9.465,8.232
1413,1.145,35.566,26.616,42.739,29.298,27.455,9.465,8.477
1414,1.142,35.155,26.648,42.72,29.281,26.924,9.343,8.276
1415,1.142,35.313,26.617,42.71,29.281,26.593,9.26,8.274
1416,1.168,35.44,26.636,42.72,29.284,26.509,9.341,8.274
1417,1.168,35.489,26.601,42.701,29.274,26.589,9.342,8.314
1418,1.178,35.259,26.671,42.7,29.281,26.753,9.301,8.152
1419,1.207,35.41,26.629,42.71,29.288,27.405,9.382,8.354
1420,1.201,35.517,26.539,42.72,29.291,28.021,9.423,8.315
1421,1.211,35.595,26.592,42.71,29.288,28.556,9.383,8.274
1422,1.233,35.414,26.585,42.748,29.298,28.968,9.545,8.355
1423,1.23,35.508,26.589,42.701,29.281,29.135,9.466,8.315
1424,1.237,35.605,26.644,42.691,29.288,29.096,9.424,8.152
1425,1.247,35.721,26.652,42.691,29.288,29.136,9.505,8.11
1426,1.234,35.204,26.597,42.71,29.291,29.014,9.546,8.15
1427,1.227,35.352,26.601,42.7,29.281,28.688,9.384,8.028
1428,1.237,35.459,26.628,42.71,29.288,28.481,9.545,8.19
1429,1.24,35.403,26.617,42.71,29.291,28.154,9.466,8.192
1430,1.218,35.46,26.519,42.691,29.288,27.907,9.465,8.192
1431,1.217,35.643,26.604,42.729,29.288,27.701,9.424,8.192
1432,1.214,35.712,26.597,42.729,29.284,27.577,9.464,8.354
1433,1.198,35.377,26.628,42.682,29.277,27.21,9.343,8.153
1434,1.198,35.498,26.675,42.691,29.281,26.881,9.342,8.232
1435,1.204,35.653,26.652,42.7,29.284,26.674,9.382,8.273
1436,1.204,35.702,26.664,42.672,29.274,26.469,9.261,8.111
1437,1.214,35.472,26.656,42.71,29.291,26.63,9.381,8.272
1438,1.214,35.623,26.648,42.71,29.288,26.753,9.464,8.233
1439,1.208,35.74,26.64,42.681,29.284,27.283,9.383,8.273
1440,1.207,35.828,26.562,42.71,29.281,27.776,9.423,8.193
1441,1.204,35.55,26.6,42.729,29.295,28.391,9.668,8.354
1442,1.201,35.653,26.605,42.71,29.277,28.478,9.507,8.153
1443,1.201,35.788,26.624,42.691,29.284,28.723,9.587,8.11
1444,1.204,35.866,26.624,42.71,29.288,28.807,9.588,8.109
1445,1.201,35.723,26.628,42.662,29.274,28.726,9.588,8.028
1446,1.188,35.904,26.609,42.7,29.288,28.644,9.629,8.068
1447,1.165,36.021,26.632,42.71,29.288,28.481,9.751,8.109
1448,1.155,36.061,26.593,42.7,29.284,28.113,9.63,8.069
1449,1.122,35.85,26.605,42.72,29.284,27.784,9.67,8.15
1450,1.112,36.03,26.577,42.739,29.302,27.578,9.751,8.191
1451,1.089,36.099,26.554,42.71,29.281,27.251,9.59,8.151
1452,1.083,36.128,26.612,42.7,29.288,27.125,9.547,8.11
1453,1.066,36.042,26.636,42.7,29.284,26.921,9.547,8.15
1454,1.053,36.147,26.656,42.681,29.281,26.593,9.466,8.191
1455,1.037,36.321,26.64,42.71,29.291,26.549,9.587,8.232
1456,1.037,36.207,26.625,42.7,29.291,26.59,9.507,8.233
1457,1.03,36.187,26.605,42.691,29.291,26.631,9.546,8.151
1458,1.017,36.34,26.616,42.691,29.288,26.997,9.588,8.191
1459,1.027,36.438,26.632,42.729,29.295,27.651,9.71,8.273
1460,1.01,36.247,26.546,42.739,29.281,28.064,9.548,8.152
1461,1.007,36.37,26.577,42.672,29.284,28.678,9.506,8.028
1462,0.991,36.496,26.651,42.69,29.291,29.01,9.587,8.109
1463,0.981,36.573,26.648,42.681,29.284,29.176,9.547,8.109
1464,0.994,36.507,26.656,42.681,29.284,29.259,9.466,7.987
1465,0.971,36.65,26.648,42.729,29.284,29.3,9.627,8.149
1466,0.951,36.757,26.629,42.71,29.291,29.057,9.588,8.11
1467,0.935,36.854,26.652,42.7,29.284,28.81,9.629,8.15
1468,0.925,36.635,26.64,42.739,29.302,28.523,9.67,8.191
1469,0.899,36.728,26.593,42.682,29.288,27.951,9.507,8.07
1470,0.886,36.863,26.569,42.748,29.284,27.701,9.465,8.028
1471,0.866,36.932,26.581,42.691,29.284,27.414,9.505,8.068
1472,0.859,36.885,26.593,42.681,29.281,27.086,9.506,8.109
1473,0.856,37.066,26.655,42.691,29.281,26.717,9.425,7.987
1474,0.833,37.193,26.621,42.691,29.295,26.388,9.586,8.108
1475,0.83,37.252,26.605,42.71,29.281,26.222,9.507,8.109
1476,0.83,36.907,26.609,42.691,29.284,26.058,9.506,8.069
1477,0.839,37.076,26.628,42.719,29.298,26.178,9.587,8.15
1478,0.823,37.135,26.648,42.672,29.284,26.261,9.588,7.988
1479,0.826,37.174,26.566,42.681,29.288,26.749,9.547,7.986
1480,0.826,37.251,26.561,42.7,29.288,27.364,9.588,7.946
1481,0.813,37.348,26.585,42.672,29.288,27.818,9.588,8.026
1482,0.823,37.483,26.616,42.69,29.284,28.066,9.507,7.905
1483,0.833,37.331,26.656,42.691,29.295,28.394,9.587,7.985
1484,0.82,37.234,26.648,42.691,29.288,28.438,9.669,7.986
1485,0.813,37.358,26.613,42.691,29.284,28.56,9.629,8.027
1486,0.813,37.503,26.589,42.729,29.302,28.521,9.67,8.027
1487,0.784,37.475,26.62,42.701,29.291,28.154,9.629,8.027
1488,0.771,37.6,26.605,42.691,29.288,27.826,9.588,7.946
1489,0.767,37.735,26.566,42.7,29.288,27.578,9.507,7.945
1490,0.744,37.832,26.569,42.691,29.288,27.332,9.506,8.026
1491,0.738,37.507,26.6,42.662,29.281,27.004,9.384,7.865
1492,0.754,37.686,26.651,42.71,29.295,27.041,9.586,8.026
1493,0.728,37.794,26.64,42.691,29.288,26.839,9.507,8.109
1494,0.725,37.871,26.609,42.7,29.288,26.389,9.546,8.109
1495,0.731,37.661,26.577,42.691,29.288,26.182,9.466,8.15
1496,0.734,37.784,26.569,42.71,29.295,26.261,9.627,8.191
1497,0.725,37.9,26.577,42.681,29.284,26.058,9.426,8.029
1498,0.731,37.968,26.604,42.671,29.288,26.219,9.505,7.987
1499,0.734,37.748,26.499,42.671,29.284,26.668,9.587,8.027
1500,0.721,37.861,26.537,42.662,29.274,27.201,9.507,8.068
1501,0.741,38.006,26.569,42.69,29.298,27.694,9.587,8.028
1502,0.741,38.065,26.655,42.7,29.295,27.984,9.629,8.109
1503,0.734,37.884,26.644,42.662,29.291,28.108,9.629,8.069
1504,0.734,38.026,26.629,42.7,29.291,28.069,9.67,8.028
1505,0.754,38.152,26.585,42.7,29.298,28.231,9.792,8.149
1506,0.725,38.143,26.55,42.681,29.284,27.786,9.59,8.069
1507,0.711,37.923,26.522,42.671,29.281,27.496,9.547,7.946
1508,0.715,38.064,26.522,42.681,29.288,27.168,9.506,8.026
1509,0.698,38.171,26.522,42.681,29.284,26.84,9.587,8.109
1510,0.701,38.144,26.569,42.662,29.284,26.511,9.507,8.069
1511,0.698,38.076,26.667,42.681,29.288,26.345,9.465,8.15
1512,0.682,38.21,26.64,42.691,29.298,26.262,9.505,8.11
1513,0.672,38.317,26.625,42.662,29.288,25.936,9.425,8.15
1514,0.685,38.337,26.597,42.71,29.305,25.73,9.586,8.273
1515,0.662,38.414,26.55,42.672,29.284,25.362,9.385,8.274
1516,0.672,38.52,26.534,42.652,29.274,25.277,9.342,8.071
1517,0.675,38.617,26.53,42.69,29.284,25.357,9.382,8.191
1518,0.672,37.937,26.467,42.672,29.288,25.643,9.423,8.232
1519,0.688,38.084,26.533,42.7,29.281,26.093,9.342,8.111
1520,0.695,38.191,26.569,42.691,29.288,26.87,9.504,8.272
1521,0.708,38.278,26.604,42.691,29.288,27.366,9.465,8.233
1522,0.702,38.164,26.655,42.681,29.288,27.777,9.505,8.233
1523,0.721,38.364,26.609,42.71,29.295,28.147,9.587,8.233
1524,0.702,38.443,26.554,42.672,29.284,28.191,9.507,8.151
1525,0.701,38.511,26.518,42.652,29.288,28.273,9.425,8.069
1526,0.685,38.09,26.545,42.652,29.291,28.233,9.464,8.109
1527,0.682,38.219,26.542,42.671,29.291,28.03,9.465,8.069
1528,0.692,38.336,26.503,42.671,29.281,27.743,9.343,7.946
1529,0.675,38.414,26.592,42.777,29.291,27.618,9.464,8.148
1530,0.669,38.271,26.569,42.692,29.298,27.251,9.546,8.15
1531,0.662,38.413,26.628,42.681,29.288,27.125,9.466,8.11
1532,0.678,38.539,26.691,42.7,29.302,26.921,9.424,8.15
1533,0.656,38.531,26.617,42.672,29.288,26.553,9.383,8.232
1534,0.649,38.128,26.546,42.652,29.284,26.142,9.22,8.192
1535,0.652,38.258,26.53,42.681,29.291,25.976,9.259,8.273
1536,0.662,38.375,26.491,42.671,29.281,25.811,9.259,8.233
1537,0.669,38.376,26.506,42.652,29.281,25.769,9.178,8.111
1538,0.678,38.309,26.514,42.662,29.288,26.053,9.34,8.272
1539,0.685,38.461,26.588,42.671,29.295,26.585,9.342,8.274
1540,0.688,38.549,26.569,42.662,29.295,27.2,9.423,8.193
1541,0.705,38.051,26.632,42.7,29.298,27.735,9.424,8.232
1542,0.702,38.046,26.644,42.672,29.288,28.025,9.464,8.273
1543,0.701,38.171,26.586,42.633,29.281,28.19,9.383,8.071
1544,0.714,38.297,26.538,42.652,29.281,28.273,9.423,8.069
1545,0.711,38.087,26.467,42.671,29.288,28.315,9.424,8.069
1546,0.708,38.2,26.502,42.652,29.281,28.03,9.424,7.946
1547,0.702,38.364,26.514,42.671,29.291,27.946,9.586,8.148
1548,0.698,38.424,26.549,42.671,29.295,27.62,9.588,8.15
1549,0.685,37.858,26.577,42.671,29.288,27.292,9.507,8.11
1550,0.682,38.035,26.597,42.671,29.295,27.085,9.506,8.15
1551,0.669,38.113,26.628,42.633,29.298,27.002,9.506,8.232
1552,0.662,38.191,26.648,42.642,29.284,26.676,9.384,8.111
1553,0.662,38.01,26.625,42.652,29.281,26.428,9.464,8.232
1554,0.659,38.152,26.542,42.662,29.288,26.141,9.465,8.111
1555,0.656,38.268,26.518,42.633,29.281,25.772,9.262,8.028
1556,0.662,38.356,26.534,42.681,29.288,25.931,9.463,8.19
1557,0.675,37.819,26.545,42.662,29.291,25.892,9.424,8.151
1558,0.675,37.967,26.546,42.652,29.288,26.136,9.383,8.11
1559,0.688,38.113,26.62,42.652,29.284,26.626,9.382,8.15
1560,0.698,38.114,26.574,42.681,29.295,27.322,9.505,8.273
1561,0.692,37.875,26.636,42.643,29.284,27.695,9.425,8.111
1562,0.701,38.016,26.644,42.642,29.284,28.065,9.464,8.109
1563,0.705,38.142,26.57,42.642,29.291,28.313,9.546,8.028
1564,0.698,38.086,26.507,42.614,29.281,28.193,9.425,7.987
1565,0.721,37.702,26.498,42.652,29.288,28.314,9.586,8.108
1566,0.711,37.851,26.49,42.652,29.295,28.234,9.629,8.109
1567,0.708,37.949,26.467,42.652,29.284,27.989,9.588,8.109
1568,0.692,37.739,26.56,42.652,29.291,27.58,9.507,8.109
1569,0.685,37.823,26.612,42.671,29.309,27.413,9.75,8.272
1570,0.672,37.92,26.589,42.623,29.284,26.964,9.508,8.071
1571,0.669,38.026,26.675,42.623,29.288,26.838,9.506,8.028
1572,0.672,37.596,26.633,42.632,29.288,26.592,9.546,8.068
1573,0.652,37.687,26.57,42.642,29.284,26.305,9.466,8.069
1574,0.672,37.861,26.518,42.652,29.284,26.059,9.505,7.987
1575,0.675,37.939,26.518,42.652,29.295,25.853,9.587,8.068
1576,0.675,37.326,26.483,42.642,29.288,25.77,9.588,7.987
1577,0.685,37.454,26.533,42.642,29.291,25.85,9.547,7.946
1578,0.698,37.609,26.542,42.652,29.298,26.135,9.628,8.067
1579,0.688,37.659,26.577,42.623,29.284,26.423,9.507,7.865
1580,0.705,37.352,26.601,42.623,29.291,26.954,9.628,7.944
1581,0.711,37.464,26.655,42.632,29.281,27.407,9.629,7.945
1582,0.708,37.561,26.629,42.594,29.281,27.737,9.629,7.864
1583,0.724,37.658,26.574,42.632,29.288,27.943,9.629,7.904
1584,0.741,37.256,26.569,42.613,29.291,28.067,9.67,7.945
1585,0.728,37.406,26.476,42.623,29.295,27.987,9.629,7.905
1586,0.725,37.522,26.49,42.652,29.284,27.864,9.67,7.823
1587,0.711,37.591,26.506,42.662,29.302,27.741,9.751,8.025
1588,0.711,37.179,26.444,42.623,29.281,27.252,9.549,7.824
1589,0.705,37.328,26.552,42.604,29.288,27.044,9.588,7.863
1590,0.708,37.454,26.569,42.613,29.288,26.839,9.547,7.863
1591,0.695,37.619,26.62,42.594,29.274,26.592,9.506,7.822
1592,0.705,37.208,26.613,42.632,29.291,26.59,9.465,7.944
1593,0.702,37.348,26.566,42.642,29.288,26.346,9.505,8.067
1594,0.705,37.445,26.511,42.623,29.288,26.019,9.465,8.028
1595,0.705,36.947,26.518,42.623,29.288,25.812,9.424,8.027
1596,0.711,36.971,26.495,42.661,29.295,25.85,9.586,8.149
1597,0.715,37.077,26.545,42.614,29.288,25.688,9.466,7.988
1598,0.721,37.183,26.44,42.623,29.281,25.89,9.424,7.905
1599,0.737,36.849,26.591,42.594,29.291,26.38,9.505,8.026
1600,0.715,36.961,26.636,42.565,29.284,26.913,9.506,7.946
1601,0.741,37.125,26.656,42.613,29.288,27.407,9.506,7.986
1602,0.741,37.232,26.644,42.623,29.298,27.899,9.668,8.027
1603,0.754,36.686,26.554,42.613,29.291,27.986,9.629,8.027
1604,0.751,36.825,26.507,42.604,29.288,28.108,9.629,7.946
1605,0.761,36.999,26.615,42.642,29.298,28.191,9.71,8.067
1606,0.744,37.039,26.585,42.623,29.288,27.989,9.63,8.028
1607,0.734,36.646,26.593,42.604,29.288,27.661,9.588,7.905
1608,0.734,36.834,26.577,42.651,29.284,27.455,9.629,7.945
1609,0.721,36.951,26.597,42.594,29.288,27.087,9.588,7.945
1610,0.715,37.019,26.601,42.584,29.288,26.676,9.425,7.823
1611,0.721,36.598,26.648,42.603,29.302,26.55,9.586,8.066
1612,0.718,36.737,26.601,42.594,29.288,26.346,9.466,8.069
1613,0.708,36.844,26.546,42.594,29.291,26.1,9.505,8.069
1614,0.721,36.932,26.491,42.632,29.298,25.853,9.506,8.15
1615,0.718,36.607,26.444,42.594,29.281,25.526,9.425,8.11
1616,0.718,36.757,26.463,42.604,29.281,25.319,9.342,8.069
1617,0.721,36.873,26.564,42.604,29.284,25.398,9.382,8.109
1618,0.731,37.201,26.577,42.69,29.284,25.562,9.382,8.109
1619,0.721,36.446,26.581,42.557,29.277,26.011,9.301,8.069
1620,0.744,36.602,26.624,42.603,29.295,26.788,9.423,8.15
1621,0.754,36.69,26.648,42.594,29.284,27.283,9.464,8.15
1622,0.738,36.374,26.597,42.604,29.288,27.573,9.383,8.15
1623,0.751,36.409,26.534,42.604,29.298,27.942,9.464,8.11
1624,0.744,36.544,26.503,42.594,29.291,28.067,9.465,8.191
1625,0.747,36.641,26.561,42.661,29.284,27.987,9.343,8.029
1626,0.741,36.326,26.589,42.566,29.291,27.905,9.342,8.027
1627,0.734,36.505,26.573,42.613,29.284,27.823,9.423,8.027
1628,0.728,36.593,26.589,42.585,29.281,27.416,9.261,8.027
1629,0.734,36.718,26.608,42.584,29.295,27.249,9.422,8.068
1630,0.721,36.125,26.589,42.575,29.295,27.085,9.342,8.028
1631,0.715,36.263,26.659,42.575,29.291,26.839,9.382,8.109
1632,0.724,36.399,26.582,42.584,29.291,26.674,9.261,8.069
1633,0.715,36.486,26.546,42.594,29.298,26.469,9.422,8.231
1634,0.708,36.151,26.448,42.575,29.288,26.06,9.18,8.111
1635,0.724,36.34,26.552,42.575,29.288,25.853,9.177,8.069
1636,0.718,36.447,26.553,42.651,29.291,25.729,9.137,8.109
1637,0.705,36.487,26.507,42.556,29.274,25.728,9.014,7.987
1638,0.728,36.094,26.596,42.574,29.284,26.012,9.216,8.068
1639,0.734,36.243,26.612,42.575,29.291,26.503,9.259,8.069
1640,0.741,36.37,26.624,42.565,29.288,27.077,9.259,8.028
1641,0.741,36.409,26.656,42.565,29.295,27.53,9.137,8.027
1642,0.747,35.959,26.601,42.574,29.298,28.063,9.339,8.109
1643,0.751,36.069,26.531,42.555,29.281,28.15,9.26,7.947
1644,0.754,36.195,26.444,42.565,29.284,28.232,9.259,7.986
1645,0.751,36.235,26.564,42.546,29.284,28.233,9.259,7.905
1646,0.725,35.957,26.569,42.526,29.284,28.233,9.259,7.945
1647,0.734,36.137,26.597,42.574,29.288,28.07,9.259,7.864
1648,0.718,36.244,26.609,42.565,29.295,27.825,9.341,7.985
1649,0.702,35.976,26.605,42.555,29.291,27.497,9.342,7.946
1650,0.705,35.964,26.659,42.555,29.288,27.331,9.342,7.945
1651,0.708,36.146,26.64,42.584,29.302,27.248,9.423,8.026
1652,0.679,36.206,26.578,42.555,29.284,26.922,9.302,7.946
1653,0.682,35.871,26.503,42.555,29.281,26.634,9.178,7.905
1654,0.698,35.982,26.448,42.565,29.288,26.306,9.177,7.945
1655,0.688,36.118,26.58,42.584,29.288,26.059,9.299,7.945
1656,0.698,36.215,26.546,42.546,29.281,25.894,9.097,7.823
1657,0.721,35.756,26.6,42.555,29.288,25.973,9.217,7.944
1658,0.721,35.876,26.542,42.574,29.295,26.177,9.218,7.864
1659,0.721,36.002,26.588,42.546,29.291,26.545,9.34,7.863
1660,0.737,36.118,26.636,42.574,29.295,27.199,9.301,7.944
1661,0.721,35.678,26.648,42.546,29.295,27.572,9.382,7.945
1662,0.731,35.817,26.57,42.536,29.281,27.698,9.179,7.742
1663,0.744,35.972,26.507,42.536,29.281,27.902,9.218,7.781
1664,0.734,36.05,26.576,42.622,29.284,27.986,9.259,7.781
1665,0.731,35.754,26.538,42.527,29.277,27.824,9.097,7.618
1666,0.738,35.933,26.596,42.545,29.291,27.863,9.298,7.82
1667,0.721,36.06,26.593,42.546,29.291,27.579,9.301,7.903
1668,0.724,36.08,26.593,42.546,29.291,27.291,9.178,7.782
1669,0.728,35.898,26.651,42.555,29.288,26.922,9.259,7.74
1670,0.702,36.021,26.601,42.555,29.295,26.797,9.3,7.903
1671,0.695,36.137,26.644,42.517,29.281,26.389,9.097,7.782
1672,0.698,36.138,26.562,42.536,29.288,26.263,9.136,7.781
1673,0.685,35.688,26.514,42.555,29.288,26.058,9.177,7.903
1674,0.672,35.817,26.534,42.555,29.274,25.69,9.096,7.823
1675,0.678,35.972,26.604,42.565,29.288,25.646,9.136,7.944
1676,0.691,35.811,26.613,42.546,29.284,25.523,9.095,7.986
1677,0.708,35.771,26.574,42.565,29.288,25.522,9.095,7.946
1678,0.711,35.943,26.569,42.555,29.284,25.644,9.095,7.945
1679,0.698,36.041,26.6,42.574,29.298,26.337,9.298,8.067
1680,0.708,35.696,26.609,42.527,29.281,26.75,9.097,7.987
1681,0.708,35.817,26.624,42.517,29.288,27.242,9.054,7.905
1682,0.702,35.982,26.539,42.545,29.284,27.654,9.135,7.985
1683,0.685,36.041,26.503,42.507,29.281,27.821,9.095,7.864
1684,0.708,35.763,26.545,42.526,29.288,28.066,9.217,7.944
1685,0.715,35.895,26.561,42.536,29.291,28.109,9.259,7.945
1686,0.705,36.03,26.608,42.526,29.291,28.11,9.259,8.026
1687,0.702,36.099,26.616,42.536,29.295,27.866,9.219,7.987
1688,0.692,35.85,26.62,42.545,29.305,27.782,9.34,8.108
1689,0.685,35.953,26.613,42.517,29.288,27.253,9.26,7.947
1690,0.672,36.089,26.644,42.516,29.284,27.003,9.137,7.905
1691,0.669,36.186,26.629,42.516,29.288,26.879,9.095,7.945
1692,0.652,35.813,26.531,42.507,29.288,26.674,9.095,7.986
1693,0.668,36.03,26.612,42.555,29.284,26.388,9.095,7.946
1694,0.662,36.137,26.562,42.536,29.291,26.263,9.176,8.026
1695,0.659,36.167,26.593,42.526,29.288,25.977,9.177,7.987
1696,0.669,36.445,26.573,42.507,29.281,25.893,9.055,7.946
1697,0.695,36.602,26.643,42.555,29.302,26.136,9.257,8.026
1698,0.669,36.69,26.586,42.526,29.284,26.179,9.097,7.987
1699,0.678,36.71,26.616,42.517,29.281,26.627,9.054,7.824
1700,0.688,35.693,26.648,42.507,29.288,27.322,9.217,7.863
1701,0.692,35.817,26.609,42.516,29.284,27.898,9.259,7.904
1702,0.685,35.953,26.523,42.478,29.281,28.148,9.137,7.823
1703,0.708,36.127,26.565,42.564,29.295,28.435,9.339,7.863
1704,0.715,36.225,26.565,42.527,29.291,28.641,9.342,7.944
1705,0.708,36.341,26.569,42.497,29.288,28.684,9.423,7.945
1706,0.708,36.457,26.577,42.516,29.284,28.522,9.342,7.864
1707,0.698,36.017,26.597,42.536,29.298,28.358,9.464,8.026
1708,0.688,36.089,26.601,42.507,29.284,27.828,9.262,7.824
1709,0.682,36.224,26.566,42.497,29.291,27.456,9.3,7.781
1710,0.675,36.331,26.647,42.516,29.288,27.168,9.382,7.862
1711,0.659,36.14,26.632,42.459,29.288,26.962,9.301,7.822
1712,0.678,36.33,26.558,42.516,29.288,26.838,9.301,7.903
1713,0.675,36.495,26.561,42.536,29.295,26.633,9.301,8.107
1714,0.659,36.535,26.589,42.517,29.295,26.265,9.341,8.028
1715,0.662,36.142,26.597,42.516,29.295,25.936,9.301,7.946
1716,0.675,36.33,26.624,42.536,29.302,25.974,9.341,8.026
1717,0.678,36.428,26.617,42.498,29.284,25.771,9.219,7.946
1718,0.672,36.487,26.613,42.497,29.284,25.972,9.218,7.905
1719,0.685,36.362,26.616,42.497,29.284,26.503,9.259,8.026
1720,0.669,36.495,26.64,42.488,29.284,27.158,9.219,7.987
1721,0.691,36.631,26.652,42.468,29.281,27.572,9.137,7.946
1722,0.711,36.69,26.551,42.516,29.295,28.104,9.339,8.026
1723,0.711,36.364,26.6,42.564,29.295,28.191,9.342,8.027
1724,0.708,36.486,26.609,42.498,29.295,28.395,9.342,7.987
1725,0.715,36.64,26.616,42.507,29.295,28.397,9.423,7.946
1726,0.685,36.642,26.601,42.497,29.298,28.356,9.505,8.067
1727,0.679,36.508,26.577,42.468,29.284,28.031,9.343,7.865
1728,0.675,36.66,26.608,42.478,29.291,27.783,9.382,7.985
1729,0.662,36.767,26.593,42.507,29.284,27.415,9.342,8.027
1730,0.652,36.653,26.663,42.468,29.281,27.086,9.26,7.865
1731,0.662,36.537,26.601,42.497,29.295,27.042,9.381,8.066
1732,0.669,36.67,26.55,42.497,29.291,26.879,9.342,8.109
1733,0.652,36.767,26.581,42.555,29.291,26.593,9.342,8.069
1734,0.668,36.528,26.573,42.507,29.288,26.305,9.26,8.109
1735,0.656,36.612,26.624,42.507,29.295,26.181,9.422,8.232
1736,0.652,36.718,26.589,42.468,29.281,25.854,9.261,8.07
1737,0.662,36.815,26.624,42.468,29.288,25.892,9.259,8.028
1738,0.682,36.634,26.566,42.468,29.284,25.933,9.3,8.109
1739,0.669,36.728,26.597,42.458,29.281,26.258,9.26,8.028
1740,0.691,36.902,26.675,42.468,29.291,26.912,9.3,8.068
1741,0.682,36.971,26.613,42.487,29.288,27.285,9.341,8.069
1742,0.685,36.703,26.519,42.478,29.291,27.532,9.342,8.109
1743,0.688,36.873,26.58,42.487,29.291,27.738,9.464,7.987
1744,0.698,37.018,26.593,42.507,29.298,27.943,9.627,8.068
1745,0.692,37.039,26.605,42.459,29.284,27.783,9.426,7.946
1746,0.688,36.761,26.64,42.439,29.288,27.659,9.383,7.945
1747,0.688,36.893,26.605,42.468,29.288,27.536,9.382,7.986
1748,0.662,37.009,26.57,42.458,29.281,27.209,9.382,7.986
1749,0.672,37.096,26.612,42.478,29.288,26.881,9.382,7.905
1750,0.672,36.896,26.644,42.478,29.291,26.674,9.423,7.945
1751,0.669,37.038,26.597,42.478,29.288,26.469,9.383,7.945
1752,0.656,37.154,26.554,42.478,29.284,26.345,9.423,7.945
1753,0.668,37.222,26.581,42.602,29.298,26.222,9.505,8.026
1754,0.649,36.974,26.562,42.46,29.284,25.814,9.303,7.946
1755,0.646,37.134,26.585,42.458,29.284,25.485,9.301,7.783
1756,0.655,37.251,26.616,42.458,29.284,25.441,9.301,7.862
1757,0.662,37.147,26.617,42.458,29.284,25.521,9.301,7.822
1758,0.675,36.935,26.609,42.458,29.281,25.685,9.178,7.741
1759,0.685,37.067,26.616,42.478,29.295,26.134,9.299,7.943
1760,0.692,37.164,26.652,42.478,29.288,26.626,9.382,7.864
1761,0.688,37.002,26.64,42.449,29.284,27.16,9.301,7.863
1762,0.698,37.135,26.554,42.516,29.298,27.49,9.463,7.904
1763,0.705,37.242,26.573,42.478,29.288,27.575,9.343,7.823
1764,0.705,37.329,26.569,42.449,29.288,27.616,9.26,7.659
1765,0.705,36.994,26.604,42.458,29.288,27.617,9.3,7.739
1766,0.672,37.125,26.605,42.439,29.281,27.536,9.382,7.781
1767,0.682,37.27,26.62,42.439,29.281,27.291,9.342,7.659
1768,0.679,37.377,26.624,42.477,29.295,27.004,9.301,7.861
1769,0.675,36.975,26.628,42.449,29.288,26.757,9.341,7.904
1770,0.678,37.115,26.64,42.458,29.284,26.47,9.301,7.782
1771,0.685,37.27,26.625,42.478,29.298,26.386,9.341,7.781
1772,0.669,37.3,26.531,42.43,29.284,26.1,9.26,7.862
1773,0.662,37.003,26.561,42.429,29.284,25.853,9.137,7.822
1774,0.656,37.163,26.557,42.439,29.284,25.566,9.177,7.863
1775,0.649,37.261,26.604,42.449,29.281,25.401,9.177,7.822
1776,0.675,37.339,26.616,42.439,29.284,25.358,9.015,7.7
1777,0.691,37.234,26.601,42.458,29.284,25.399,9.257,7.983
1778,0.685,37.358,26.624,42.43,29.288,25.562,9.219,7.905
1779,0.692,37.455,26.601,42.429,29.288,25.929,9.137,7.863
1780,0.708,37.532,26.671,42.477,29.302,26.462,9.217,7.904
1781,0.682,37.092,26.566,42.43,29.284,26.67,9.096,7.823
1782,0.685,37.222,26.518,42.41,29.288,26.916,9.095,7.781
1783,0.698,37.348,26.522,42.429,29.284,27.122,9.095,7.781
1784,0.701,37.464,26.569,42.401,29.295,27.165,9.095,7.822
1785,0.705,37.187,26.585,42.429,29.288,27.043,9.014,7.7
1786,0.705,37.338,26.589,42.429,29.291,27.083,9.216,7.821
1787,0.689,37.445,26.628,42.429,29.291,26.839,9.178,7.781
1788,0.692,37.139,26.624,42.429,29.295,26.511,9.055,7.822
1789,0.698,37.203,26.679,42.477,29.298,26.305,9.217,7.822
1790,0.666,37.3,26.668,42.411,29.291,25.855,9.015,7.7
1791,0.672,37.406,26.621,42.4,29.284,25.688,8.932,7.618
1792,0.669,36.985,26.55,42.419,29.288,25.524,8.972,7.657
1793,0.639,37.096,26.557,42.42,29.284,25.238,9.013,7.739
1794,0.649,37.251,26.573,42.429,29.288,24.869,8.932,7.659
1795,0.659,37.348,26.624,42.458,29.291,24.743,9.012,7.658
1796,0.656,37.148,26.554,42.42,29.288,24.742,9.013,7.698
1797,0.659,37.28,26.632,42.429,29.284,24.701,8.972,7.618
1798,0.672,37.425,26.613,42.458,29.305,24.986,9.013,7.698
1799,0.662,37.465,26.628,42.42,29.291,25.395,8.972,7.658
1800,0.675,36.967,26.624,42.391,29.288,25.968,8.931,7.617
1801,0.685,37.134,26.593,42.429,29.295,26.625,9.053,7.535
1802,0.685,37.289,26.554,42.439,29.291,27.119,9.013,7.575
1803,0.692,37.31,26.542,42.382,29.284,27.205,8.932,7.454
1804,0.711,37.157,26.616,42.419,29.295,27.531,9.093,7.534
1805,0.708,37.28,26.632,42.42,29.295,27.657,9.095,7.657
1806,0.695,37.406,26.66,42.41,29.295,27.699,9.176,7.576
1807,0.695,37.474,26.664,42.429,29.295,27.496,9.137,7.616
1808,0.679,37.015,26.625,42.391,29.295,27.331,9.177,7.779
1809,0.669,37.135,26.609,42.371,29.281,26.923,8.974,7.537
1810,0.665,37.261,26.667,42.4,29.284,26.797,9.053,7.616
1811,0.662,37.578,26.562,42.41,29.291,26.673,9.054,7.617
1812,0.649,37.179,26.534,42.41,29.274,26.388,8.851,7.576
1813,0.655,37.328,26.588,42.42,29.291,26.303,9.052,7.738
1814,0.655,37.426,26.608,42.41,29.291,26.018,9.054,7.699
1815,0.652,36.957,26.644,42.41,29.295,25.771,9.013,7.74
1816,0.668,36.962,26.613,42.4,29.288,25.687,9.013,7.699
1817,0.678,37.096,26.687,42.419,29.291,25.849,9.176,7.861
1818,0.669,37.174,26.629,42.381,29.284,25.77,8.933,7.7
1819,0.682,36.983,26.624,42.391,29.284,26.297,8.931,7.658
1820,0.698,37.106,26.656,42.4,29.288,26.953,8.931,7.739
1821,0.679,37.222,26.539,42.381,29.281,27.407,8.972,7.659
1822,0.701,37.348,26.534,42.429,29.284,27.859,8.972,7.698
1823,0.708,36.85,26.569,42.401,29.295,28.148,9.094,7.74
1824,0.708,36.961,26.608,42.381,29.291,28.191,9.054,7.74
1825,0.702,37.106,26.632,42.4,29.291,28.151,9.013,7.781
1826,0.698,37.203,26.624,42.429,29.302,28.11,9.176,7.781
1827,0.679,36.859,26.64,42.391,29.288,27.906,9.055,7.822
1828,0.682,37.009,26.621,42.371,29.288,27.538,8.973,7.619
1829,0.682,37.135,26.644,42.381,29.288,27.25,9.053,7.698
1830,0.672,37.194,26.66,42.362,29.295,26.963,9.135,7.78
1831,0.652,36.897,26.566,42.352,29.277,26.716,9.014,7.618
1832,0.665,37.066,26.593,42.39,29.295,26.713,9.135,7.82
1833,0.665,37.193,26.589,42.371,29.288,26.51,9.095,7.822
1834,0.652,37.233,26.605,42.4,29.291,26.345,9.136,7.781
1835,0.665,36.868,26.648,42.4,29.295,26.019,9.055,7.822
1836,0.652,36.961,26.64,42.4,29.288,25.934,9.095,7.985
1837,0.665,37.058,26.621,42.343,29.284,25.852,8.973,7.783
1838,0.675,37.346,26.601,42.361,29.288,26.054,9.013,7.781
1839,0.695,36.735,26.644,42.371,29.288,26.422,9.013,7.74
1840,0.695,36.844,26.648,42.343,29.288,26.914,8.972,7.659
1841,0.698,36.989,26.566,42.39,29.291,27.488,9.175,7.861
1842,0.701,36.809,26.604,42.458,29.288,27.86,9.259,7.822
1843,0.705,36.845,26.593,42.353,29.291,28.066,9.219,7.781
1844,0.718,37.018,26.632,42.371,29.295,28.069,9.178,7.74
1845,0.702,37.106,26.617,42.352,29.295,28.15,9.259,7.943
1846,0.698,36.637,26.613,42.342,29.288,27.826,9.178,7.783
1847,0.695,36.757,26.628,42.342,29.288,27.619,9.259,7.862
1848,0.695,36.902,26.632,42.371,29.295,27.292,9.259,7.782
1849,0.682,36.971,26.601,42.323,29.274,26.882,9.178,7.781
1850,0.675,36.655,26.659,42.352,29.288,26.674,9.299,7.984
1851,0.678,36.786,26.578,42.362,29.295,26.428,9.301,8.027
1852,0.678,36.941,26.573,42.362,29.291,26.182,9.26,8.027
1853,0.665,37.038,26.608,42.352,29.288,25.935,9.178,8.027
1854,0.669,36.569,26.616,42.362,29.298,25.689,9.38,8.149
1855,0.659,36.689,26.62,42.333,29.281,25.199,9.22,8.028
1856,0.665,36.844,26.62,42.323,29.284,25.031,9.218,8.027
1857,0.682,36.903,26.652,42.342,29.284,25.111,9.178,8.109
1858,0.675,36.558,26.636,42.313,29.284,25.234,9.218,8.109
1859,0.688,36.727,26.691,42.342,29.288,25.723,9.218,8.069
1860,0.695,36.844,26.645,42.352,29.298,26.46,9.259,8.069
1861,0.698,36.884,26.593,42.342,29.298,26.955,9.3,8.109
1862,0.682,36.481,26.558,42.371,29.288,27.448,9.301,8.028
1863,0.718,36.669,26.585,42.381,29.305,27.819,9.423,8.149
1864,0.708,36.729,26.604,42.323,29.288,27.822,9.18,8.028
1865,0.705,36.748,26.585,42.332,29.295,27.903,9.218,8.027
1866,0.702,36.509,26.624,42.323,29.284,27.904,9.218,8.027
1867,0.679,36.602,26.632,42.342,29.288,27.742,9.178,8.068
1868,0.695,36.747,26.617,42.323,29.288,27.455,9.177,7.946
1869,0.685,36.547,26.679,42.352,29.302,27.29,9.259,8.067
1870,0.682,36.516,26.644,42.323,29.291,27.044,9.259,8.028
1871,0.669,36.65,26.566,42.342,29.291,26.961,9.259,7.987
1872,0.665,36.805,26.554,42.381,29.302,26.878,9.259,8.027
1873,0.652,36.356,26.561,42.323,29.291,26.674,9.137,7.987
1874,0.642,36.467,26.589,42.313,29.288,26.266,9.055,7.946
1875,0.652,36.602,26.605,42.323,29.288,26.099,9.135,7.945
1876,0.655,36.69,26.585,42.313,29.288,26.016,8.974,7.986
1877,0.678,36.259,26.644,42.304,29.281,26.015,8.972,7.824
1878,0.672,36.446,26.586,42.342,29.295,26.137,9.094,7.985
1879,0.682,36.554,26.679,42.323,29.288,26.626,9.095,7.986
1880,0.692,36.632,26.68,42.313,29.288,27.078,9.095,7.986
1881,0.701,36.249,26.586,42.371,29.305,27.733,9.298,7.986
1882,0.692,36.398,26.577,42.352,29.288,27.903,9.097,7.946
1883,0.705,36.496,26.577,42.294,29.284,27.986,9.054,7.864
1884,0.718,36.564,26.608,42.323,29.288,28.108,9.135,7.944
1885,0.708,36.181,26.601,42.304,29.295,28.15,9.258,7.783
1886,0.708,36.35,26.632,42.304,29.281,27.907,9.097,7.74
1887,0.705,36.486,26.636,42.323,29.295,27.823,9.217,7.943
1888,0.695,36.545,26.625,42.323,29.291,27.578,9.259,7.905
1889,0.685,36.21,26.628,42.313,29.291,27.21,9.219,7.945
1890,0.692,36.379,26.656,42.351,29.298,27.043,9.178,7.945
1891,0.672,36.457,26.586,42.294,29.291,26.92,9.177,7.945
1892,0.675,36.506,26.534,42.323,29.281,26.593,9.096,7.864
1893,0.662,36.497,26.584,42.304,29.288,26.509,9.095,7.904
1894,0.656,36.65,26.612,42.313,29.291,26.223,9.136,7.945
1895,0.655,36.748,26.609,42.284,29.274,25.895,9.014,7.783
1896,0.678,36.298,26.648,42.323,29.295,25.851,9.094,7.944
1897,0.682,36.111,26.644,42.294,29.291,25.892,9.095,7.986
1898,0.688,36.234,26.644,42.303,29.295,25.973,9.176,7.946
1899,0.701,36.389,26.621,42.313,29.295,26.34,9.137,7.986
1900,0.705,36.016,26.648,42.323,29.302,26.913,9.177,8.068
1901,0.698,36.128,26.547,42.294,29.288,27.285,9.096,7.865
1902,0.714,36.263,26.573,42.303,29.295,27.573,9.095,7.822
1903,0.715,36.379,26.6,42.304,29.288,27.738,9.095,7.903
1904,0.711,36.016,26.601,42.265,29.288,27.821,9.095,7.904
1905,0.724,36.204,26.644,42.294,29.291,27.863,9.136,7.904
1906,0.721,36.34,26.644,42.323,29.291,27.863,9.217,7.945
1907,0.702,36.428,26.675,42.304,29.291,27.782,9.178,7.945
1908,0.701,36.036,26.648,42.294,29.288,27.375,9.177,7.864
1909,0.711,36.195,26.687,42.323,29.302,27.208,9.177,7.985
1910,0.682,36.264,26.594,42.285,29.291,26.718,9.137,7.946
1911,0.685,36.36,26.499,42.265,29.281,26.51,9.014,7.864
1912,0.685,35.939,26.557,42.294,29.288,26.264,9.094,7.904
1913,0.662,36.098,26.569,42.284,29.288,26.018,9.014,7.945
1914,0.678,36.243,26.616,42.284,29.281,25.69,9.013,7.823
1915,0.675,36.322,26.644,42.313,29.298,25.483,9.013,7.985
1916,0.675,36.054,26.636,42.294,29.295,25.319,9.054,7.986
1917,0.685,36.185,26.621,42.294,29.302,25.236,9.013,7.946
1918,0.705,36.34,26.667,42.303,29.298,25.397,9.054,7.945
1919,0.692,36.332,26.652,42.304,29.298,25.684,9.013,8.067
1920,0.695,36.006,26.617,42.275,29.284,26.175,8.932,7.906
1921,0.705,36.156,26.531,42.274,29.291,26.545,8.972,7.945
1922,0.708,36.282,26.573,42.284,29.288,26.915,9.094,7.945
1923,0.711,36.073,26.573,42.246,29.281,27.0,8.892,7.783
1924,0.747,35.956,26.6,42.284,29.291,27.204,9.093,7.822
1925,0.741,36.117,26.624,42.294,29.302,27.247,9.136,7.863
1926,0.741,36.205,26.64,42.265,29.288,27.206,9.217,7.863
1927,0.744,35.986,26.656,42.284,29.295,27.043,9.096,7.904
1928,0.754,36.079,26.672,42.294,29.302,26.92,9.258,8.026
1929,0.767,36.215,26.621,42.256,29.284,26.39,9.056,7.702
1930,0.764,36.312,26.624,42.274,29.284,26.1,8.973,7.78
1931,0.774,35.833,26.554,42.265,29.288,25.975,9.094,7.74
1932,0.767,35.963,26.577,42.255,29.277,25.608,9.014,7.618
1933,0.79,36.146,26.585,42.293,29.291,25.482,9.054,7.698
1934,0.8,36.234,26.624,42.284,29.291,25.278,9.135,7.821
1935,0.8,35.928,26.617,42.275,29.288,25.073,9.014,7.741
1936,0.807,36.079,26.64,42.265,29.288,24.867,9.013,7.74
1937,0.813,36.224,26.632,42.284,29.298,24.987,9.135,7.821
1938,0.803,36.254,26.617,42.246,29.288,24.948,8.974,7.578
1939,0.816,35.823,26.632,42.255,29.284,25.394,8.972,7.616
1940,0.836,35.982,26.601,42.265,29.295,26.05,9.013,7.617
1941,0.826,36.089,26.534,42.236,29.284,26.503,8.972,7.576
1942,0.846,36.176,26.565,42.284,29.295,26.874,9.013,7.575
1943,0.859,35.976,26.604,42.275,29.295,27.203,9.135,7.575
1944,0.859,36.108,26.632,42.274,29.288,27.287,9.095,7.535
1945,0.879,36.215,26.644,42.274,29.291,27.37,9.014,7.534
1946,0.895,36.273,26.617,42.294,29.305,27.33,9.176,7.697
1947,0.892,35.881,26.64,42.246,29.284,27.004,9.055,7.536
1948,0.899,36.021,26.636,42.265,29.291,26.676,9.013,7.534
1949,0.921,36.147,26.664,42.265,29.288,26.469,9.013,7.534
1950,0.912,36.033,26.633,42.226,29.291,26.142,9.013,7.534
1951,0.938,35.946,26.539,42.264,29.288,26.016,9.013,7.494
1952,0.948,36.098,26.561,42.265,29.295,25.934,9.054,7.616
1953,0.951,36.205,26.589,42.265,29.291,25.648,9.013,7.657
1954,0.932,35.823,26.632,42.246,29.291,25.401,9.013,7.617
1955,0.948,35.924,26.664,42.293,29.305,25.236,9.094,7.698
1956,0.958,36.04,26.629,42.265,29.284,24.95,8.932,7.618
1957,0.977,36.118,26.64,42.246,29.284,24.947,8.931,7.535
1958,0.977,35.735,26.625,42.255,29.284,25.069,8.931,7.575
1959,0.984,35.837,26.624,42.246,29.284,25.355,8.931,7.575
1960,0.994,35.982,26.613,42.236,29.288,25.846,8.809,7.454
1961,0.991,36.098,26.546,42.265,29.295,26.339,9.011,7.615
1962,0.987,35.85,26.573,42.246,29.291,26.669,8.972,7.698
1963,0.994,36.011,26.561,42.245,29.288,26.835,8.891,7.577
1964,0.997,36.185,26.632,42.265,29.298,27.04,9.052,7.575
1965,0.984,36.187,26.601,42.236,29.288,26.92,8.932,7.494
1966,0.971,36.455,26.624,42.226,29.288,26.837,8.89,7.494
1967,0.955,36.621,26.624,42.236,29.291,26.674,8.89,7.494
1968,0.948,36.719,26.621,42.245,29.288,26.388,8.89,7.534
1969,0.948,36.777,26.636,42.236,29.288,26.06,8.809,7.534
1970,0.925,35.589,26.656,42.236,29.302,26.016,8.93,7.657
1971,0.918,35.74,26.586,42.236,29.295,25.771,8.931,7.617
1972,0.905,35.885,26.577,42.226,29.288,25.647,8.931,7.739
1973,0.899,35.944,26.64,42.264,29.295,25.523,8.89,7.699
1974,0.879,35.878,26.621,42.226,29.295,25.238,8.849,7.821
1975,0.876,36.03,26.636,42.217,29.288,24.869,8.727,7.7
1976,0.876,36.137,26.656,42.226,29.288,24.865,8.848,7.74
1977,0.872,36.119,26.652,42.226,29.291,24.743,8.767,7.781
1978,0.879,35.745,26.605,42.226,29.284,24.701,8.685,7.7
1979,0.872,35.895,26.601,42.245,29.291,25.189,8.888,7.821
1980,0.885,36.011,26.655,42.245,29.298,25.6,8.89,7.822
1981,0.889,36.386,26.57,42.245,29.288,25.97,8.768,7.741
1982,0.895,36.62,26.542,42.293,29.302,26.381,8.767,7.862
1983,0.869,36.699,26.561,42.236,29.302,26.466,8.889,7.863
1984,0.866,36.796,26.6,42.236,29.284,26.467,8.809,7.7
1985,0.866,35.253,26.605,42.217,29.291,26.508,8.726,7.74
1986,0.859,35.343,26.659,42.216,29.284,26.467,8.807,7.74
1987,0.83,35.469,26.656,42.207,29.277,26.142,8.686,7.699
1988,0.823,35.595,26.636,42.235,29.291,26.057,8.847,7.78
1989,0.794,35.836,26.632,42.245,29.295,25.772,8.849,7.822
1990,0.787,35.982,26.656,42.236,29.295,25.606,8.808,7.822
1991,0.8,36.127,26.566,42.245,29.291,25.482,8.767,7.741
1992,0.781,36.167,26.483,42.245,29.295,25.4,8.767,7.903
1993,0.754,35.592,26.592,42.226,29.284,25.155,8.645,7.863
1994,0.757,35.74,26.616,42.226,29.284,24.949,8.603,7.822
1995,0.738,35.866,26.652,42.226,29.288,24.785,8.643,7.863
1996,0.741,35.906,26.668,42.207,29.281,24.58,8.603,7.741
1997,0.744,35.81,26.691,42.235,29.295,24.7,8.724,7.862
1998,0.728,35.943,26.637,42.236,29.295,24.782,8.726,7.863
1999,0.731,36.05,26.632,42.217,29.284,25.149,8.685,7.944
2000,0.741,36.118,26.656,42.245,29.295,25.641,8.766,7.823
2001,0.725,35.668,26.551,42.226,29.302,26.012,8.848,8.025
2002,0.724,35.808,26.573,42.226,29.288,26.259,8.686,7.824
2003,0.737,35.924,26.542,42.207,29.288,26.424,8.725,7.822
2004,0.731,36.223,26.569,42.216,29.295,26.548,8.807,7.863
2005,0.708,35.804,26.577,42.197,29.281,26.427,8.686,7.782
2006,0.711,35.962,26.624,42.226,29.295,26.507,8.807,7.822
2007,0.702,36.079,26.624,42.226,29.295,26.264,8.889,7.863
2008,0.685,35.678,26.663,42.217,29.288,25.936,8.809,7.863
2009,0.695,35.693,26.644,42.197,29.288,25.73,8.848,7.863
2010,0.682,35.856,26.66,42.255,29.302,25.565,8.971,8.026
2011,0.672,35.915,26.605,42.207,29.291,25.279,8.769,7.865
2012,0.649,35.647,26.581,42.207,29.284,25.235,8.767,7.782
2013,0.652,35.798,26.577,42.216,29.288,25.032,8.767,7.903
2014,0.636,35.905,26.569,42.216,29.284,24.785,8.807,7.904
2015,0.659,36.021,26.624,42.207,29.288,24.539,8.808,7.782
2016,0.659,35.687,26.648,42.216,29.295,24.537,8.808,7.862
2017,0.662,35.817,26.648,42.216,29.291,24.496,8.808,7.904
2018,0.659,35.943,26.648,42.207,29.288,24.536,8.808,7.823
2019,0.678,36.06,26.668,42.255,29.302,25.065,8.97,7.863
2020,0.669,35.629,26.672,42.217,29.291,25.396,8.931,7.863
2021,0.669,35.778,26.617,42.207,29.288,25.724,8.931,7.741
2022,0.682,35.905,26.511,42.197,29.288,26.012,8.89,7.781
2023,0.682,35.973,26.553,42.197,29.288,26.218,8.89,7.74
2024,0.679,35.734,26.596,42.168,29.281,26.139,8.849,7.618
2025,0.691,35.914,26.616,42.226,29.295,26.342,8.93,7.698
2026,0.685,36.031,26.609,42.197,29.291,26.222,8.972,7.699
2027,0.672,36.061,26.624,42.216,29.295,25.976,8.931,7.658
2028,0.682,35.764,26.632,42.197,29.291,25.73,8.931,7.739
2029,0.669,35.904,26.624,42.235,29.302,25.524,8.972,7.862
2030,0.649,35.983,26.663,42.188,29.291,24.994,8.809,7.741
2031,0.642,36.329,26.601,42.197,29.288,24.826,8.889,7.699
2032,0.646,35.718,26.511,42.207,29.288,24.662,8.849,7.699
2033,0.626,35.837,26.561,42.178,29.284,24.335,8.808,7.78
2034,0.636,36.001,26.593,42.206,29.291,24.209,8.808,7.74
2035,0.646,35.705,26.616,42.207,29.295,23.964,8.97,7.74
2036,0.639,35.722,26.632,42.207,29.291,23.88,8.931,7.781
2037,0.649,35.866,26.652,42.188,29.295,23.88,8.89,7.781
2038,0.655,35.992,26.613,42.245,29.298,24.124,9.134,7.862
2039,0.649,35.562,26.577,42.169,29.288,24.37,8.974,7.782
2040,0.668,35.672,26.624,42.197,29.288,24.779,8.931,7.7
2041,0.669,35.846,26.632,42.187,29.284,25.352,8.972,7.74
2042,0.652,35.905,26.5,42.197,29.284,25.765,9.013,7.781
2043,0.675,35.657,26.565,42.197,29.284,25.972,8.891,7.618
2044,0.685,35.798,26.597,42.207,29.295,26.218,9.012,7.739
2045,0.679,35.934,26.612,42.188,29.291,26.302,8.972,7.699
2046,0.669,35.993,26.62,42.207,29.288,26.221,9.013,7.78
2047,0.675,35.562,26.656,42.216,29.305,26.22,9.054,7.781
2048,0.652,35.682,26.601,42.197,29.295,25.814,8.891,7.74
2049,0.659,35.817,26.644,42.187,29.288,25.485,8.89,7.577
2050,0.652,35.895,26.664,42.187,29.291,25.319,8.93,7.616
2051,0.649,35.628,26.609,42.178,29.291,25.195,8.931,7.576
2052,0.642,35.778,26.48,42.187,29.281,24.869,8.768,7.535
2053,0.633,35.924,26.568,42.226,29.295,24.825,8.889,7.697
2054,0.623,35.964,26.585,42.207,29.298,24.54,8.849,7.699
2055,0.632,36.175,26.601,42.188,29.291,24.212,8.808,7.618
2056,0.649,36.35,26.651,42.216,29.302,24.127,8.808,7.576
2057,0.662,36.428,26.632,42.197,29.298,24.085,8.767,7.738
2058,0.652,36.419,26.601,42.178,29.284,24.044,8.685,7.537
2059,0.662,35.393,26.616,42.178,29.288,24.45,8.725,7.494
2060,0.669,35.546,26.671,42.187,29.298,25.024,8.726,7.575
2061,0.665,35.634,26.617,42.168,29.277,25.395,8.644,7.454
2062,0.675,35.692,26.57,42.187,29.298,25.928,8.765,7.615
2063,0.688,35.779,26.581,42.264,29.295,26.177,8.767,7.617
2064,0.679,35.924,26.604,42.179,29.291,26.301,8.685,7.535
2065,0.682,36.031,26.624,42.168,29.291,26.262,8.725,7.494
2066,0.669,35.476,26.652,42.197,29.298,26.343,8.888,7.697
2067,0.649,35.547,26.648,42.168,29.288,26.059,8.687,7.455
2068,0.649,35.72,26.617,42.168,29.288,25.853,8.725,7.452
2069,0.652,35.818,26.628,42.187,29.291,25.607,8.766,7.493
2070,0.629,35.617,26.628,42.139,29.284,25.36,8.685,7.453
2071,0.632,35.826,26.601,42.177,29.298,25.277,8.644,7.412
2072,0.626,35.934,26.515,42.187,29.291,25.195,8.725,7.493
2073,0.619,36.021,26.58,42.187,29.295,25.031,8.685,7.616
2074,0.61,35.619,26.585,42.178,29.288,24.704,8.684,7.535
2075,0.629,35.788,26.616,42.216,29.302,24.701,8.766,7.738
2076,0.636,35.876,26.617,42.159,29.288,24.294,8.645,7.537
2077,0.652,35.944,26.62,42.168,29.284,24.372,8.481,7.534
2078,0.678,35.667,26.62,42.168,29.288,24.454,8.642,7.616
2079,0.698,35.779,26.628,42.158,29.288,24.78,8.603,7.576
2080,0.734,35.933,26.687,42.158,29.295,25.19,8.684,7.616
2081,0.777,35.983,26.59,42.178,29.295,25.763,8.725,7.617
2082,0.806,35.629,26.546,42.178,29.288,26.053,8.726,7.657
2083,0.852,35.788,26.553,42.168,29.295,26.259,8.766,7.617
2084,0.872,35.934,26.616,42.206,29.309,26.506,8.889,7.698
2085,0.869,35.897,26.636,42.14,29.291,26.345,8.768,7.618
2086,0.902,35.676,26.621,42.139,29.288,26.262,8.685,7.495
2087,0.905,35.817,26.66,42.168,29.291,26.099,8.684,7.616
2088,0.941,35.924,26.672,42.149,29.291,25.853,8.684,7.617
2089,0.971,35.733,26.68,42.158,29.291,25.444,8.562,7.495
2090,1.003,35.693,26.672,42.178,29.302,25.278,8.764,7.697
2091,1.036,35.856,26.633,42.168,29.291,25.113,8.726,7.618
2092,1.053,35.944,26.519,42.178,29.295,24.868,8.685,7.617
2093,1.079,35.724,26.588,42.187,29.302,24.703,8.684,7.657
2094,1.109,35.789,26.597,42.168,29.288,24.376,8.603,7.658
2095,1.132,35.924,26.616,42.158,29.291,24.128,8.521,7.536
2096,1.181,36.021,26.628,42.168,29.288,24.085,8.479,7.616
2097,1.223,35.504,26.628,42.158,29.291,24.044,8.52,7.657
2098,1.253,35.653,26.656,42.149,29.284,24.125,8.398,7.455
2099,1.309,35.788,26.625,42.158,29.295,24.736,8.6,7.656
2100,1.339,35.866,26.687,42.158,29.288,25.271,8.643,7.658
2101,1.326,35.656,26.617,42.158,29.298,25.845,8.603,7.658
2102,1.309,35.836,26.562,42.187,29.298,26.257,8.562,7.658
2103,1.274,35.934,26.596,42.168,29.295,26.587,8.561,7.658
2104,1.26,36.012,26.577,42.139,29.284,26.59,8.521,7.536
2105,1.231,35.552,26.632,42.158,29.291,26.712,8.479,7.534
2106,1.204,35.711,26.609,42.178,29.302,26.754,8.56,7.534
2107,1.162,35.827,26.659,42.13,29.284,26.51,8.439,7.534
2108,1.139,35.896,26.648,42.177,29.291,26.427,8.56,7.657
2109,1.073,35.647,26.652,42.159,29.284,26.263,8.561,7.698
2110,0.959,35.817,26.683,42.158,29.288,26.018,8.602,7.74
