time,ecg,bvp,gsr,rsp,skt,emg_zygo,emg_coru,emg_trap
0,-0.017,35.789,15.565,32.159,23.686,5.726,5.357,14.68
1,-0.064,35.253,15.597,32.169,23.686,5.687,5.317,14.884
2,-0.11,35.429,15.624,32.198,23.699,5.809,5.439,15.048
3,-0.188,35.537,15.558,32.15,23.679,5.647,5.237,14.969
4,-0.231,35.595,15.577,32.121,23.672,5.523,5.194,14.927
5,-0.235,35.375,15.624,32.149,23.685,5.685,5.316,15.171
6,-0.228,35.575,15.535,32.169,23.686,5.646,5.317,15.173
7,-0.245,35.663,15.561,32.131,23.679,5.645,5.236,15.051
8,-0.232,35.731,15.62,32.14,23.689,5.686,5.275,15.091
9,-0.212,35.406,15.539,32.169,23.686,5.727,5.316,15.05
10,-0.215,35.556,15.495,32.14,23.689,5.646,5.358,15.009
11,-0.196,35.663,15.565,32.15,23.686,5.686,5.358,15.09
12,-0.189,35.702,15.569,32.131,23.682,5.646,5.277,15.213
13,-0.176,35.338,15.566,32.14,23.682,5.645,5.154,15.417
14,-0.14,35.526,15.558,32.159,23.692,5.727,5.356,15.704
15,-0.114,35.672,15.577,32.198,23.696,5.89,5.399,15.992
16,-0.091,35.712,15.57,32.141,23.672,5.689,5.236,16.076
17,-0.071,35.252,15.573,32.14,23.682,5.687,5.235,16.28
18,-0.022,35.449,15.538,32.188,23.682,5.809,5.397,16.607
19,-0.002,35.547,15.624,32.15,23.686,5.81,5.236,16.936
20,0.031,35.365,15.57,32.14,23.675,5.688,5.235,17.224
21,0.08,35.411,15.534,32.14,23.685,5.809,5.275,17.471
22,0.126,35.594,15.585,32.169,23.689,5.81,5.316,17.676
23,0.175,35.692,15.554,32.14,23.686,5.891,5.236,17.8
24,0.215,35.319,15.561,32.159,23.692,5.892,5.397,17.964
25,0.267,35.411,15.523,32.14,23.682,5.77,5.236,17.885
26,0.317,35.556,15.631,32.13,23.679,5.768,5.235,17.802
27,0.379,35.663,15.539,32.15,23.689,5.85,5.235,17.802
28,0.438,35.347,15.569,32.179,23.696,5.932,5.397,17.72
29,0.468,35.421,15.589,32.131,23.679,5.811,5.196,17.435
30,0.481,35.575,15.616,32.14,23.679,5.769,5.234,17.473
31,0.517,35.692,15.64,32.14,23.689,5.85,5.357,17.392
32,0.55,35.271,15.504,32.15,23.682,5.81,5.236,17.147
33,0.56,35.41,15.545,32.14,23.686,5.769,5.275,16.982
34,0.586,35.546,15.6,32.121,23.686,5.809,5.276,16.899
35,0.6,35.663,15.57,32.159,23.689,5.85,5.276,16.695
36,0.616,35.414,15.616,32.15,23.686,5.81,5.316,16.571
37,0.632,35.575,15.597,32.169,23.696,5.891,5.48,16.529
38,0.639,35.701,15.527,32.14,23.686,5.689,5.237,16.162
39,0.665,35.741,15.534,32.121,23.675,5.646,5.153,15.874
40,0.691,35.3,15.616,32.13,23.689,5.849,5.397,15.831
41,0.711,35.478,15.656,32.169,23.696,5.851,5.358,15.627
42,0.721,35.566,15.621,32.121,23.675,5.729,5.195,15.381
43,0.734,35.634,15.617,32.14,23.682,5.768,5.275,15.297
44,0.77,35.318,15.589,32.14,23.689,5.809,5.316,15.297
45,0.783,35.488,15.538,32.159,23.686,5.769,5.317,15.174
46,0.787,35.614,15.557,32.121,23.679,5.728,5.236,14.97
47,0.8,35.654,15.565,32.121,23.685,5.809,5.316,14.887
48,0.816,35.376,15.589,32.14,23.689,5.769,5.317,15.089
49,0.807,35.527,15.519,32.13,23.682,5.728,5.317,15.416
50,0.813,35.643,15.569,32.13,23.689,5.89,5.398,15.826
51,0.82,35.472,15.546,32.14,23.679,5.77,5.236,15.993
52,0.813,35.288,15.639,32.102,23.675,5.687,5.194,16.198
53,0.829,35.459,15.547,32.13,23.685,5.768,5.356,16.444
54,0.836,35.614,15.565,32.169,23.696,5.85,5.358,16.65
55,0.826,35.28,15.601,32.121,23.682,5.648,5.236,16.652
56,0.826,35.334,15.519,32.13,23.682,5.767,5.275,16.733
57,0.836,35.478,15.588,32.14,23.689,5.891,5.357,16.856
58,0.826,35.595,15.589,32.14,23.686,5.811,5.277,16.735
59,0.833,35.337,15.609,32.121,23.679,5.728,5.276,16.734
60,0.849,35.517,15.476,32.14,23.685,5.727,5.276,16.571
61,0.866,35.662,15.537,32.178,23.686,5.809,5.276,16.407
62,0.856,35.74,15.616,32.141,23.686,5.81,5.316,16.365
63,0.872,35.252,15.601,32.15,23.696,5.891,5.439,16.323
64,0.872,35.381,15.617,32.14,23.686,5.729,5.237,15.998
65,0.869,35.517,15.57,32.092,23.672,5.646,5.153,15.751
66,0.879,35.624,15.612,32.13,23.689,5.808,5.315,15.829
67,0.905,35.357,15.429,32.15,23.686,5.81,5.236,15.586
68,0.879,35.459,15.549,32.121,23.682,5.81,5.316,15.299
69,0.895,35.623,15.6,32.13,23.686,5.81,5.236,15.215
70,0.882,35.683,15.566,32.14,23.692,5.81,5.316,15.174
71,0.866,35.204,15.538,32.13,23.686,5.769,5.317,15.051
72,0.889,35.352,15.456,32.13,23.682,5.768,5.317,14.969
73,0.876,35.478,15.541,32.13,23.682,5.728,5.236,14.968
74,0.889,35.547,15.561,32.13,23.682,5.687,5.194,14.846
75,0.892,35.241,15.601,32.121,23.689,5.809,5.275,14.885
76,0.899,35.42,15.574,32.159,23.696,5.891,5.479,15.008
77,0.886,35.546,15.593,32.112,23.682,5.729,5.278,14.765
78,0.885,35.557,15.538,32.169,23.675,5.687,5.195,14.681
79,0.895,35.413,15.569,32.14,23.682,5.768,5.316,14.721
80,0.892,35.565,15.593,32.13,23.682,5.728,5.317,14.518
81,0.895,35.672,15.593,32.111,23.672,5.687,5.276,14.353
82,0.892,36.038,15.593,32.121,23.678,5.687,5.235,14.311
83,0.912,35.265,15.527,32.14,23.689,5.727,5.357,14.311
84,0.912,35.401,15.624,32.111,23.682,5.727,5.317,14.189
85,0.918,35.556,15.601,32.13,23.682,5.768,5.398,14.106
86,0.922,35.394,15.539,32.121,23.686,5.687,5.277,14.024
87,0.935,35.383,15.612,32.121,23.675,5.564,5.154,13.82
88,0.938,35.546,15.527,32.121,23.689,5.766,5.356,13.859
89,0.945,35.701,15.577,32.159,23.706,5.809,5.399,13.94
90,0.925,35.098,15.546,32.112,23.679,5.647,5.318,13.738
91,0.912,35.159,15.593,32.121,23.675,5.686,5.358,13.817
92,0.938,35.342,15.601,32.121,23.692,5.687,5.358,13.94
93,0.915,35.45,15.523,32.14,23.689,5.646,5.317,13.982
94,0.905,35.163,15.565,32.102,23.686,5.686,5.236,13.901
95,0.902,35.313,15.491,32.111,23.686,5.646,5.316,13.941
96,0.921,35.497,15.569,32.13,23.686,5.727,5.276,13.9
97,0.918,35.576,15.581,32.14,23.686,5.646,5.357,13.859
98,0.915,35.279,15.62,32.15,23.689,5.727,5.439,13.94
99,0.912,35.42,15.519,32.121,23.682,5.646,5.237,13.697
100,0.912,35.556,15.549,32.121,23.672,5.483,5.235,13.573
101,0.918,35.663,15.573,32.13,23.692,5.725,5.357,13.612
102,0.938,35.261,15.577,32.13,23.679,5.646,5.317,13.572
103,0.935,35.42,15.55,32.13,23.679,5.564,5.236,13.449
104,0.938,35.556,15.522,32.13,23.679,5.604,5.316,13.448
105,0.948,35.624,15.589,32.121,23.689,5.686,5.398,13.489
106,0.954,35.232,15.566,32.14,23.686,5.605,5.318,13.408
107,0.945,35.401,15.558,32.121,23.689,5.726,5.48,13.489
108,0.954,35.517,15.585,32.111,23.679,5.605,5.318,13.327
109,0.958,35.566,15.538,32.082,23.672,5.482,5.154,13.244
110,0.945,35.241,15.479,32.12,23.689,5.603,5.356,13.446
111,0.951,35.429,15.576,32.14,23.693,5.686,5.317,13.448
112,0.941,35.508,15.57,32.092,23.675,5.605,5.236,13.489
113,0.941,35.547,15.636,32.101,23.682,5.604,5.397,13.611
114,0.948,35.241,15.586,32.14,23.692,5.564,5.358,13.897
115,0.938,35.381,15.57,32.102,23.682,5.645,5.317,13.859
116,0.938,35.488,15.581,32.13,23.692,5.605,5.358,13.94
117,0.941,35.518,15.534,32.14,23.679,5.604,5.317,13.86
118,0.941,35.346,15.546,32.102,23.679,5.523,5.195,13.778
119,0.954,35.498,15.604,32.121,23.682,5.603,5.397,13.858
120,0.971,35.653,15.628,32.14,23.699,5.767,5.358,13.778
121,0.955,35.309,15.504,32.102,23.682,5.525,5.317,13.655
122,0.971,35.325,15.42,32.13,23.682,5.563,5.317,13.654
123,0.99,35.488,15.541,32.13,23.686,5.604,5.398,13.654
124,0.981,35.614,15.557,32.111,23.686,5.645,5.358,13.572
125,0.987,35.145,15.546,32.101,23.682,5.605,5.317,13.531
126,0.991,35.256,15.585,32.121,23.682,5.564,5.358,13.49
127,1.004,35.41,15.554,32.111,23.682,5.604,5.399,13.449
128,1.0,35.508,15.515,32.121,23.689,5.604,5.399,13.448
129,1.01,35.116,15.569,32.13,23.699,5.726,5.44,13.53
130,0.991,35.227,15.581,32.121,23.682,5.524,5.318,13.246
131,0.984,35.362,15.601,32.073,23.679,5.441,5.317,13.284
132,1.004,35.469,15.585,32.13,23.685,5.643,5.48,13.365
133,1.004,35.134,15.57,32.121,23.682,5.564,5.44,13.325
134,0.984,35.265,15.569,32.102,23.679,5.563,5.318,13.366
135,0.997,35.401,15.499,32.121,23.682,5.604,5.398,13.407
136,1.004,35.508,15.534,32.13,23.692,5.645,5.358,13.407
137,0.997,35.221,15.557,32.121,23.693,5.564,5.439,13.367
138,1.0,35.372,15.55,32.121,23.693,5.645,5.359,13.407
139,1.013,35.498,15.483,32.121,23.686,5.564,5.358,13.245
140,1.027,35.576,15.53,32.102,23.679,5.523,5.236,13.121
141,1.017,35.394,15.589,32.121,23.689,5.563,5.438,13.201
142,1.046,35.584,15.609,32.14,23.696,5.726,5.44,13.243
143,1.046,35.673,15.558,32.102,23.679,5.484,5.277,13.08
144,1.03,35.702,15.554,32.101,23.679,5.562,5.357,13.119
145,1.053,35.156,15.565,32.14,23.692,5.604,5.399,13.201
146,1.043,35.313,15.538,32.14,23.686,5.564,5.358,13.08
147,1.053,35.401,15.542,32.092,23.682,5.482,5.277,12.997
148,1.056,35.441,15.616,32.092,23.686,5.562,5.316,12.956
149,1.073,35.268,15.496,32.12,23.686,5.563,5.358,12.996
150,1.063,35.43,15.545,32.111,23.686,5.563,5.439,12.956
151,1.063,35.546,15.554,32.14,23.692,5.604,5.481,13.037
152,1.056,35.298,15.589,32.121,23.679,5.523,5.318,12.916
153,1.056,35.161,15.558,32.092,23.679,5.4,5.236,12.833
154,1.063,35.323,15.558,32.12,23.685,5.521,5.357,13.076
155,1.073,35.488,15.601,32.121,23.696,5.563,5.399,13.079
156,1.066,35.154,15.46,32.082,23.675,5.482,5.318,12.957
157,1.073,35.246,15.568,32.111,23.689,5.44,5.358,13.037
158,1.076,35.42,15.577,32.121,23.696,5.562,5.439,13.078
159,1.076,35.508,15.581,32.102,23.682,5.563,5.359,13.079
160,1.089,35.135,15.495,32.092,23.682,5.441,5.317,12.997
161,1.112,35.284,15.397,32.12,23.682,5.521,5.358,13.119
162,1.122,35.43,15.536,32.102,23.689,5.563,5.358,13.039
163,1.125,35.518,15.542,32.111,23.689,5.482,5.399,13.16
164,1.135,35.202,15.468,32.121,23.693,5.603,5.44,13.283
165,1.135,35.333,15.561,32.092,23.682,5.442,5.318,13.121
166,1.132,35.459,15.577,32.082,23.675,5.318,5.276,13.039
167,1.148,35.575,15.538,32.12,23.692,5.52,5.357,13.2
168,1.158,35.155,15.557,32.102,23.693,5.482,5.358,13.161
169,1.161,35.265,15.562,32.082,23.679,5.359,5.317,13.12
170,1.155,35.43,15.577,32.111,23.682,5.48,5.358,13.201
171,1.145,35.508,15.55,32.121,23.689,5.481,5.358,13.446
172,1.155,35.25,15.499,32.111,23.682,5.4,5.399,13.53
173,1.155,35.401,15.467,32.111,23.689,5.48,5.399,13.693
174,1.168,35.546,15.584,32.092,23.682,5.4,5.358,13.817
175,1.175,35.605,15.558,32.101,23.682,5.399,5.236,13.899
176,1.175,35.184,15.581,32.111,23.686,5.44,5.357,14.185
177,1.188,35.371,15.632,32.149,23.699,5.562,5.521,14.472
178,1.181,35.45,15.535,32.083,23.682,5.401,5.319,14.353
179,1.181,35.499,15.522,32.101,23.686,5.318,5.317,14.474
180,1.207,35.327,15.577,32.101,23.689,5.398,5.398,14.638
181,1.214,35.449,15.589,32.101,23.689,5.44,5.358,14.558
182,1.221,35.566,15.558,32.063,23.686,5.399,5.277,14.516
183,1.237,35.826,15.585,32.12,23.686,5.358,5.357,14.557
184,1.24,35.416,15.527,32.111,23.686,5.358,5.358,14.557
185,1.237,35.556,15.542,32.101,23.689,5.48,5.399,14.557
186,1.247,35.682,15.55,32.121,23.693,5.4,5.44,14.598
187,1.25,35.424,15.585,32.092,23.686,5.318,5.318,14.314
188,1.25,35.412,15.577,32.073,23.672,5.276,5.236,14.229
189,1.257,35.585,15.523,32.12,23.678,5.479,5.357,14.391
190,1.253,35.73,15.592,32.14,23.696,5.562,5.439,14.393
191,1.231,35.626,15.538,32.083,23.679,5.319,5.318,14.23
192,1.234,35.75,15.6,32.082,23.679,5.358,5.358,14.351
193,1.247,35.914,15.449,32.111,23.692,5.399,5.48,14.433
194,1.24,35.992,15.545,32.111,23.682,5.399,5.359,14.434
195,1.24,35.821,15.554,32.073,23.679,5.318,5.399,14.434
196,1.24,35.972,15.546,32.091,23.685,5.358,5.399,14.434
197,1.25,36.137,15.546,32.101,23.682,5.317,5.318,14.393
198,1.231,36.215,15.557,32.101,23.686,5.398,5.398,14.434
199,1.243,35.871,15.565,32.13,23.699,5.44,5.48,14.434
200,1.244,36.011,15.441,32.092,23.679,5.318,5.318,14.149
201,1.25,36.108,15.545,32.063,23.682,5.317,5.358,14.146
202,1.24,36.224,15.554,32.111,23.686,5.398,5.399,14.187
203,1.25,36.082,15.604,32.082,23.679,5.358,5.358,14.106
204,1.253,36.243,15.57,32.082,23.682,5.399,5.317,14.024
205,1.266,36.379,15.566,32.092,23.682,5.48,5.358,14.023
206,1.267,36.438,15.593,32.082,23.686,5.481,5.358,13.983
207,1.267,36.4,15.484,32.092,23.686,5.481,5.399,13.901
208,1.263,36.563,15.541,32.092,23.689,5.562,5.48,13.941
209,1.26,36.68,15.526,32.073,23.675,5.441,5.359,13.657
210,1.247,36.71,15.538,32.044,23.679,5.318,5.236,13.654
211,1.253,36.528,15.522,32.091,23.689,5.52,5.438,13.857
212,1.257,36.679,15.549,32.159,23.686,5.522,5.399,13.696
213,1.227,36.786,15.534,32.073,23.679,5.482,5.318,13.695
214,1.227,36.807,15.538,32.072,23.682,5.481,5.398,13.776
215,1.23,36.778,15.557,32.111,23.696,5.522,5.358,13.899
216,1.224,36.912,15.55,32.092,23.693,5.563,5.358,13.819
217,1.214,37.0,15.558,32.092,23.693,5.604,5.399,13.859
218,1.214,37.135,15.511,32.101,23.682,5.523,5.358,13.656
219,1.208,37.117,15.53,32.082,23.682,5.441,5.277,13.532
220,1.214,37.27,15.569,32.101,23.692,5.481,5.438,13.612
221,1.224,37.406,15.585,32.092,23.696,5.644,5.481,13.613
222,1.204,37.177,15.554,32.053,23.679,5.442,5.318,13.531
223,1.201,37.232,15.507,32.082,23.682,5.481,5.439,13.612
224,1.207,37.396,15.588,32.092,23.692,5.562,5.359,13.694
225,1.201,37.484,15.554,32.12,23.686,5.563,5.358,13.532
226,1.198,37.37,15.55,32.073,23.675,5.482,5.399,13.571
227,1.201,37.464,15.569,32.063,23.682,5.44,5.318,13.409
228,1.204,37.609,15.527,32.082,23.689,5.481,5.317,13.407
229,1.201,37.716,15.546,32.082,23.686,5.481,5.317,13.489
230,1.188,37.554,15.538,32.092,23.699,5.603,5.561,13.652
231,1.178,37.677,15.585,32.073,23.689,5.442,5.36,13.41
232,1.149,37.784,15.601,32.053,23.675,5.359,5.236,13.448
233,1.148,37.9,15.523,32.082,23.685,5.561,5.479,13.611
234,1.148,37.709,15.542,32.101,23.689,5.441,5.4,13.613
235,1.126,37.823,15.554,32.053,23.679,5.44,5.358,13.491
236,1.119,37.948,15.538,32.072,23.685,5.481,5.358,13.611
237,1.102,38.036,15.561,32.101,23.689,5.522,5.399,13.613
238,1.099,37.835,15.585,32.082,23.686,5.482,5.399,13.613
239,1.089,37.987,15.476,32.072,23.682,5.4,5.44,13.613
240,1.102,38.103,15.518,32.082,23.682,5.44,5.318,13.491
241,1.099,38.172,15.546,32.072,23.682,5.399,5.317,13.53
242,1.093,37.981,15.565,32.072,23.689,5.48,5.358,13.693
243,1.102,38.123,15.566,32.12,23.693,5.603,5.48,13.776
244,1.08,38.22,15.538,32.063,23.675,5.401,5.278,13.655
245,1.066,38.221,15.585,32.053,23.675,5.399,5.316,13.654
246,1.069,37.876,15.472,32.072,23.689,5.48,5.439,13.694
247,1.076,38.026,15.533,32.063,23.686,5.481,5.359,13.654
248,1.057,38.113,15.596,32.053,23.682,5.44,5.399,13.572
249,1.056,38.469,15.558,32.063,23.686,5.399,5.399,13.612
250,1.043,38.223,15.515,32.072,23.692,5.48,5.358,13.735
251,1.024,38.374,15.475,32.111,23.682,5.44,5.358,13.776
252,1.027,38.472,15.529,32.092,23.689,5.481,5.439,13.899
253,1.007,38.166,15.495,32.053,23.682,5.4,5.318,13.859
254,0.988,38.076,15.444,32.072,23.682,5.399,5.276,13.818
255,0.987,38.239,15.537,32.072,23.689,5.521,5.357,13.981
256,0.994,38.374,15.589,32.101,23.699,5.522,5.521,14.104
257,0.961,38.059,15.515,32.063,23.682,5.36,5.4,14.024
258,0.945,38.142,15.51,32.053,23.689,5.399,5.44,14.064
259,0.954,38.316,15.588,32.082,23.689,5.44,5.399,14.024
260,0.951,38.404,15.577,32.072,23.679,5.359,5.44,13.942
261,0.941,39.028,15.55,32.034,23.685,5.358,5.359,13.819
262,0.941,39.159,15.479,32.062,23.686,5.358,5.317,13.777
263,0.935,39.304,15.498,32.072,23.686,5.399,5.358,13.696
264,0.931,39.354,15.541,32.063,23.686,5.399,5.399,13.613
265,0.918,37.532,15.503,32.101,23.692,5.48,5.48,13.694
266,0.918,37.648,15.553,32.082,23.679,5.318,5.359,13.451
267,0.905,37.745,15.534,32.034,23.675,5.236,5.236,13.286
268,0.912,37.88,15.514,32.091,23.689,5.397,5.438,13.447
269,0.922,38.122,15.545,32.073,23.696,5.399,5.318,13.367
270,0.886,38.239,15.593,32.044,23.679,5.318,5.317,13.244
271,0.889,38.384,15.601,32.062,23.689,5.358,5.317,13.446
272,0.892,38.472,15.554,32.072,23.689,5.399,5.398,13.53
273,0.863,37.811,15.499,32.091,23.689,5.358,5.399,13.612
274,0.862,37.958,15.502,32.073,23.689,5.439,5.44,13.775
275,0.862,38.084,15.463,32.053,23.686,5.359,5.359,13.696
276,0.866,38.152,15.533,32.053,23.682,5.277,5.317,13.613
277,0.846,37.952,15.581,32.072,23.686,5.357,5.439,13.775
278,0.856,38.122,15.581,32.101,23.699,5.439,5.481,13.858
279,0.823,38.21,15.488,32.073,23.682,5.277,5.318,13.696
280,0.833,38.24,15.518,32.072,23.686,5.357,5.317,13.695
281,0.836,37.809,15.561,32.063,23.692,5.358,5.439,13.654
282,0.836,37.929,15.573,32.072,23.689,5.317,5.359,13.654
283,0.846,38.045,15.55,32.053,23.675,5.276,5.317,13.491
284,0.849,38.046,15.55,32.053,23.689,5.276,5.358,13.53
285,0.84,37.749,15.534,32.082,23.689,5.316,5.358,13.571
286,0.839,37.89,15.53,32.072,23.686,5.317,5.399,13.531
287,0.849,38.026,15.546,32.082,23.703,5.439,5.44,13.531
288,0.84,37.768,15.573,32.063,23.682,5.277,5.318,13.408
289,0.833,37.775,15.499,32.034,23.679,5.195,5.317,13.326
290,0.83,37.948,15.487,32.082,23.682,5.356,5.398,13.447
291,0.833,38.074,15.514,32.072,23.692,5.236,5.358,13.611
292,0.813,37.376,15.577,32.044,23.675,5.194,5.358,13.613
293,0.81,37.455,15.616,32.072,23.685,5.316,5.317,13.775
294,0.803,37.628,15.57,32.072,23.686,5.398,5.439,13.94
295,0.803,37.716,15.554,32.053,23.689,5.318,5.44,14.144
296,0.8,37.525,15.522,32.063,23.682,5.317,5.399,14.228
297,0.794,37.677,15.526,32.063,23.689,5.195,5.358,14.31
298,0.793,37.822,15.522,32.063,23.686,5.194,5.317,14.392
299,0.793,37.891,15.565,32.053,23.682,5.316,5.358,14.556
300,0.803,37.316,15.499,32.082,23.692,5.48,5.561,14.598
301,0.807,37.435,15.42,32.053,23.686,5.278,5.319,14.517
302,0.8,37.561,15.502,32.053,23.686,5.316,5.358,14.435
303,0.823,37.658,15.538,32.063,23.689,5.398,5.358,14.434
304,0.813,37.352,15.514,32.072,23.686,5.318,5.358,14.353
305,0.823,37.512,15.522,32.053,23.686,5.317,5.358,14.311
306,0.817,37.658,15.6,32.053,23.679,5.317,5.358,14.229
307,0.826,37.697,15.492,32.034,23.682,5.317,5.358,14.066
308,0.823,37.017,15.53,32.062,23.686,5.398,5.439,14.105
309,0.826,37.202,15.522,32.091,23.692,5.44,5.521,14.105
310,0.813,37.281,15.51,32.044,23.682,5.237,5.319,13.902
311,0.807,37.329,15.569,32.043,23.682,5.316,5.358,13.9
312,0.803,37.176,15.523,32.053,23.689,5.358,5.439,13.981
313,0.8,37.319,15.487,32.043,23.682,5.317,5.399,13.982
314,0.781,37.416,15.534,32.024,23.679,5.236,5.277,13.901
315,0.793,37.426,15.429,32.062,23.682,5.316,5.316,13.981
316,0.8,37.849,15.529,32.063,23.686,5.317,5.358,13.982
317,0.787,37.987,15.569,32.043,23.692,5.358,5.317,14.023
318,0.78,38.103,15.542,32.072,23.693,5.439,5.439,14.064
319,0.79,37.069,15.499,32.044,23.682,5.359,5.318,13.902
320,0.787,36.445,15.522,32.024,23.679,5.236,5.195,13.819
321,0.806,36.611,15.534,32.043,23.685,5.316,5.356,13.899
322,0.81,36.776,15.593,32.091,23.692,5.358,5.399,13.859
323,0.797,36.854,15.511,32.034,23.679,5.277,5.236,13.737
324,0.803,36.98,15.553,32.053,23.685,5.276,5.397,13.776
325,0.82,37.125,15.546,32.063,23.696,5.398,5.399,13.858
326,0.817,37.222,15.499,32.053,23.682,5.318,5.399,13.818
327,0.813,36.533,15.53,32.043,23.686,5.358,5.358,13.737
328,0.813,36.65,15.561,32.053,23.686,5.277,5.317,13.573
329,0.826,36.815,15.46,32.053,23.686,5.316,5.317,13.49
330,0.81,36.903,15.561,32.043,23.686,5.398,5.317,13.611
331,0.81,36.625,15.562,32.072,23.692,5.48,5.439,13.735
332,0.8,36.738,15.554,32.034,23.679,5.318,5.237,13.614
333,0.79,36.844,15.526,32.005,23.675,5.317,5.235,13.653
334,0.79,36.98,15.522,32.062,23.692,5.439,5.357,13.816
335,0.803,36.607,15.569,32.053,23.693,5.481,5.317,13.859
336,0.79,36.709,15.484,32.015,23.682,5.318,5.195,13.859
337,0.797,36.863,15.545,32.053,23.689,5.48,5.356,13.9
338,0.797,36.951,15.534,32.043,23.689,5.481,5.399,13.9
339,0.803,36.453,15.553,32.053,23.686,5.481,5.399,13.859
340,0.784,36.611,15.495,32.034,23.682,5.481,5.318,13.818
341,0.803,36.747,15.444,32.043,23.679,5.44,5.317,13.818
342,0.81,36.816,15.533,32.043,23.689,5.481,5.317,13.777
343,0.816,47.911,15.514,32.053,23.682,5.562,5.358,13.899
344,0.82,48.042,15.53,32.072,23.699,5.645,5.561,14.022
345,0.81,48.014,15.514,32.044,23.686,5.523,5.279,13.779
346,0.807,47.927,15.573,32.034,23.679,5.441,5.316,13.736
347,0.82,31.462,15.523,32.053,23.689,5.521,5.358,13.776
348,0.823,31.602,15.51,32.053,23.689,5.522,5.358,13.777
349,0.817,31.788,15.553,32.015,23.682,5.441,5.277,13.736
350,0.813,33.381,15.558,32.043,23.682,5.521,5.357,13.858
351,0.807,38.24,15.577,32.043,23.696,5.644,5.358,14.022
352,0.803,38.404,15.456,32.043,23.686,5.523,5.358,14.145
353,0.8,38.52,15.49,32.053,23.682,5.563,5.399,14.187
354,0.797,36.095,15.565,32.024,23.686,5.482,5.318,14.147
355,0.807,35.428,15.511,32.024,23.679,5.522,5.317,14.187
356,0.797,35.604,15.553,32.043,23.682,5.563,5.439,14.269
357,0.803,35.73,15.558,32.062,23.703,5.766,5.521,14.351
358,0.797,36.422,15.48,32.024,23.686,5.565,5.36,14.23
359,0.794,36.592,15.498,32.014,23.679,5.563,5.317,14.228
360,0.806,36.766,15.569,32.053,23.685,5.604,5.358,14.188
361,0.803,36.864,15.581,32.043,23.682,5.604,5.317,14.228
362,0.803,36.002,15.562,32.024,23.679,5.645,5.317,14.188
363,0.813,36.156,15.519,32.053,23.685,5.605,5.358,14.147
364,0.813,36.33,15.522,32.053,23.689,5.645,5.358,14.106
365,0.813,36.399,15.491,32.053,23.689,5.605,5.317,14.065
366,0.833,36.112,15.502,32.024,23.689,5.726,5.398,14.105
367,0.823,36.244,15.545,32.014,23.682,5.565,5.358,13.861
368,0.813,36.36,15.538,32.014,23.679,5.563,5.236,13.778
369,0.82,36.476,15.44,32.043,23.692,5.645,5.357,13.94
370,0.826,36.046,15.553,32.072,23.699,5.808,5.439,13.982
371,0.8,36.137,15.554,32.024,23.679,5.647,5.277,13.82
372,0.8,36.273,15.608,32.014,23.682,5.605,5.316,13.859
373,0.807,36.36,15.476,32.043,23.689,5.686,5.398,13.9
374,0.797,36.016,15.49,32.024,23.689,5.605,5.318,13.859
375,0.784,36.156,15.565,32.014,23.679,5.645,5.317,13.818
376,0.79,36.321,15.495,32.014,23.685,5.605,5.358,13.777
377,0.78,36.38,15.537,32.033,23.682,5.604,5.277,13.696
378,0.79,36.198,15.585,32.024,23.692,5.686,5.357,13.695
379,0.79,36.36,15.499,32.072,23.696,5.768,5.521,13.695
380,0.78,36.447,15.444,32.044,23.686,5.647,5.278,13.41
381,0.78,36.458,15.482,31.995,23.672,5.523,5.195,13.448
382,0.8,35.94,15.541,32.043,23.685,5.644,5.397,13.367
383,0.8,36.088,15.499,32.043,23.686,5.645,5.358,13.285
384,0.79,36.205,15.549,32.015,23.679,5.605,5.317,13.243
385,0.806,36.197,15.522,32.024,23.685,5.645,5.317,13.202
386,0.803,36.033,15.546,32.034,23.689,5.686,5.398,13.161
387,0.81,36.176,15.53,32.034,23.686,5.687,5.318,13.12
388,0.8,36.292,15.503,32.043,23.689,5.727,5.398,12.957
389,0.803,35.804,15.541,32.015,23.679,5.687,5.277,12.915
390,0.803,35.799,15.448,32.024,23.679,5.646,5.276,12.711
391,0.803,35.982,15.471,32.043,23.685,5.727,5.398,12.953
392,0.797,36.127,15.514,32.072,23.696,5.89,5.48,13.118
393,0.784,35.937,15.51,32.015,23.679,5.689,5.278,13.039
394,0.771,36.04,15.51,32.005,23.675,5.646,5.357,13.2
395,0.78,36.243,15.53,32.024,23.685,5.849,5.358,13.365
396,0.771,36.322,15.557,32.024,23.686,5.769,5.358,13.447
397,0.761,35.757,15.522,32.014,23.682,5.728,5.277,13.489
398,0.777,35.904,15.507,32.033,23.679,5.727,5.276,13.449
399,0.771,36.05,15.538,32.024,23.692,5.768,5.398,13.53
400,0.767,36.147,15.526,32.043,23.682,5.809,5.44,13.571
401,0.783,35.822,15.577,32.043,23.692,5.972,5.521,13.653
402,0.777,35.963,15.46,32.005,23.679,5.73,5.319,13.532
403,0.777,36.079,15.502,31.995,23.675,5.727,5.317,13.531
404,0.784,36.195,15.565,32.014,23.689,5.85,5.317,13.612
405,0.78,35.813,15.526,32.072,23.686,5.851,5.439,13.613
406,0.784,35.953,15.507,32.005,23.679,5.81,5.277,13.491
407,0.797,36.098,15.549,32.005,23.685,5.891,5.398,13.53
408,0.803,36.167,15.519,32.024,23.689,5.892,5.48,13.449
409,0.784,35.784,15.479,32.024,23.686,5.973,5.4,13.448
410,0.777,35.953,15.514,32.043,23.689,5.933,5.44,13.692
411,0.767,36.05,15.553,32.024,23.686,5.852,5.318,13.532
412,0.77,36.08,15.522,31.986,23.675,5.769,5.276,13.49
413,0.761,35.725,15.53,32.024,23.689,5.972,5.438,13.774
414,0.767,35.914,15.553,32.043,23.689,5.974,5.359,13.818
415,0.761,35.992,15.55,32.005,23.682,5.893,5.317,13.899
416,0.761,36.089,15.487,32.014,23.686,5.892,5.358,14.103
417,0.748,35.869,15.584,32.033,23.689,5.933,5.439,14.309
418,0.751,35.992,15.523,32.034,23.686,5.974,5.359,14.311
419,0.754,36.118,15.479,32.014,23.686,5.852,5.399,14.473
420,0.754,35.87,15.514,32.005,23.689,5.891,5.399,14.394
421,0.77,35.8,15.506,31.995,23.689,5.851,5.358,14.434
422,0.767,35.914,15.541,32.014,23.686,5.973,5.48,14.556
423,0.774,36.05,15.557,32.043,23.692,5.974,5.4,14.638
424,0.78,35.677,15.546,31.995,23.679,5.852,5.318,14.477
425,0.761,35.741,15.483,31.985,23.668,5.688,5.236,14.353
426,0.783,35.914,15.526,32.043,23.685,5.89,5.397,14.433
427,0.787,36.05,15.487,32.034,23.689,5.851,5.399,14.353
428,0.78,35.514,15.526,31.995,23.682,5.729,5.318,14.23
429,0.784,35.653,15.553,32.004,23.686,5.809,5.398,14.188
430,0.767,35.779,15.511,32.024,23.689,5.81,5.44,14.269
431,0.757,35.905,15.413,32.024,23.689,5.85,5.399,14.27
432,0.757,35.685,15.49,32.034,23.686,5.769,5.44,14.31
433,0.748,35.837,15.537,32.005,23.686,5.768,5.359,14.351
434,0.744,35.972,15.475,32.005,23.679,5.687,5.317,14.311
435,0.741,36.07,15.514,32.014,23.685,5.809,5.398,14.392
436,0.747,36.972,15.577,32.024,23.696,5.891,5.521,14.556
437,0.738,37.067,15.491,31.986,23.675,5.729,5.36,14.273
438,0.731,37.183,15.487,31.985,23.675,5.687,5.358,14.27
439,0.741,37.28,15.514,32.024,23.689,5.809,5.439,14.351
440,0.741,34.855,15.553,32.005,23.679,5.688,5.44,14.189
441,0.741,35.003,15.495,31.995,23.679,5.727,5.318,14.147
442,0.738,35.149,15.495,32.004,23.685,5.727,5.398,14.065
443,0.744,35.237,15.514,32.024,23.689,5.727,5.399,14.064
444,0.744,35.87,15.51,32.005,23.682,5.646,5.399,14.105
445,0.751,36.049,15.495,32.014,23.692,5.849,5.44,14.105
446,0.751,36.157,15.491,32.005,23.682,5.729,5.359,13.983
447,0.751,36.187,15.537,31.985,23.679,5.646,5.317,13.779
448,0.761,35.516,15.421,32.004,23.685,5.686,5.398,13.899
449,0.774,35.701,15.529,32.024,23.699,5.89,5.521,13.9
450,0.748,35.818,15.546,32.005,23.689,5.648,5.36,13.697
451,0.728,35.991,15.515,31.985,23.675,5.645,5.399,13.776
452,0.744,35.83,15.549,32.014,23.689,5.767,5.521,13.818
453,0.721,35.963,15.495,32.014,23.686,5.687,5.441,13.696
454,0.724,36.089,15.506,31.995,23.682,5.646,5.359,13.695
455,0.728,35.783,15.479,31.995,23.689,5.686,5.399,13.654
456,0.728,35.799,15.502,32.004,23.686,5.727,5.399,13.694
457,0.731,35.924,15.534,32.014,23.686,5.727,5.44,13.532
458,0.731,36.04,15.534,32.014,23.692,5.809,5.603,13.653
459,0.725,35.591,15.405,31.985,23.686,5.647,5.401,13.491
460,0.734,35.701,15.47,31.976,23.675,5.605,5.318,13.286
461,0.738,35.856,15.561,31.995,23.685,5.767,5.48,13.406
462,0.744,35.973,15.593,32.033,23.699,5.85,5.44,13.367
463,0.738,35.868,15.507,31.995,23.679,5.729,5.318,13.204
464,0.744,36.011,15.545,32.004,23.679,5.727,5.398,13.283
465,0.757,36.166,15.546,32.005,23.685,5.809,5.48,13.284
466,0.744,36.244,15.522,32.014,23.686,5.81,5.4,13.203
467,0.744,35.756,15.507,31.985,23.682,5.688,5.358,13.039
468,0.744,35.933,15.545,32.004,23.686,5.727,5.439,12.956
469,0.747,36.069,15.468,32.014,23.692,5.727,5.399,12.833
470,0.741,36.147,15.475,32.033,23.686,5.727,5.44,12.995
471,0.747,35.928,15.522,32.024,23.692,5.809,5.521,13.037
472,0.725,36.031,15.526,31.995,23.675,5.647,5.278,12.875
473,0.721,36.166,15.55,31.966,23.679,5.564,5.316,13.036
474,0.734,36.273,15.55,32.014,23.682,5.766,5.439,13.2
475,0.725,36.082,15.519,32.005,23.686,5.687,5.399,13.121
476,0.715,36.186,15.499,31.976,23.679,5.646,5.358,13.201
477,0.715,36.369,15.459,32.014,23.685,5.686,5.358,13.243
478,0.721,36.428,15.525,32.014,23.689,5.768,5.439,13.284
479,0.702,35.988,15.557,32.005,23.686,5.687,5.399,13.284
480,0.711,36.127,15.491,32.024,23.689,5.809,5.521,13.406
481,0.721,36.253,15.483,31.986,23.682,5.688,5.36,13.204
482,0.724,36.274,15.475,31.966,23.672,5.524,5.317,13.121
483,0.734,36.121,15.529,32.004,23.685,5.685,5.358,13.323
484,0.744,36.301,15.475,32.014,23.692,5.687,5.399,13.406
485,0.738,36.389,15.526,31.976,23.679,5.564,5.318,13.245
486,0.728,36.246,15.538,31.995,23.675,5.604,5.358,13.202
487,0.747,36.091,15.483,32.004,23.692,5.645,5.48,13.202
488,0.747,36.243,15.51,32.005,23.689,5.686,5.4,13.08
489,0.747,36.341,15.518,31.976,23.686,5.687,5.318,13.079
490,0.741,36.131,15.534,32.004,23.686,5.646,5.317,13.038
491,0.741,36.186,15.53,32.005,23.682,5.605,5.276,13.038
492,0.734,36.331,15.44,32.005,23.689,5.564,5.479,13.2
493,0.741,36.476,15.474,32.024,23.699,5.685,5.481,13.365
494,0.734,36.19,15.549,31.986,23.682,5.524,5.318,13.244
495,0.715,36.321,15.503,31.956,23.679,5.441,5.276,13.202
496,0.734,36.485,15.538,32.004,23.689,5.643,5.316,13.405
497,0.734,36.593,15.55,31.995,23.686,5.605,5.398,13.367
498,0.728,36.133,15.476,31.985,23.682,5.482,5.358,13.325
499,0.741,36.301,15.487,31.995,23.686,5.562,5.358,13.244
500,0.751,36.456,15.526,32.004,23.689,5.563,5.439,13.365
501,0.748,36.535,15.546,32.005,23.689,5.563,5.399,13.204
502,0.757,36.277,15.495,32.014,23.693,5.726,5.521,13.324
503,0.754,36.418,15.506,31.985,23.679,5.524,5.319,13.122
504,0.754,36.525,15.51,31.966,23.679,5.4,5.317,12.957
505,0.764,36.622,15.479,32.004,23.685,5.602,5.398,13.078
506,0.8,36.143,15.502,31.995,23.686,5.564,5.399,13.119
507,0.797,36.234,15.538,31.976,23.679,5.482,5.358,12.917
508,0.807,36.389,15.495,31.985,23.685,5.603,5.317,12.915
509,0.813,36.448,15.459,31.985,23.686,5.645,5.358,12.955
510,0.803,36.362,15.533,32.004,23.689,5.605,5.358,12.956
511,0.82,36.505,15.491,32.005,23.686,5.645,5.439,13.118
512,0.803,36.631,15.537,31.985,23.679,5.523,5.318,13.039
513,0.8,36.632,15.507,31.976,23.672,5.441,5.276,13.038
514,0.807,36.345,15.479,31.985,23.685,5.603,5.438,13.241
515,0.823,36.486,15.576,32.014,23.699,5.604,5.44,13.284
516,0.797,36.573,15.476,31.976,23.679,5.482,5.318,13.162
517,0.787,36.987,15.51,31.995,23.682,5.522,5.358,13.242
518,0.8,36.32,15.514,31.995,23.682,5.563,5.48,13.324
519,0.807,36.437,15.538,31.976,23.682,5.523,5.318,13.244
520,0.81,36.554,15.475,31.976,23.682,5.522,5.317,13.162
521,0.807,36.459,15.432,31.995,23.679,5.482,5.358,13.12
522,0.823,36.439,15.486,31.985,23.679,5.522,5.358,13.12
523,0.817,36.563,15.518,31.985,23.685,5.522,5.399,13.201
524,0.829,36.68,15.436,32.014,23.692,5.644,5.48,13.324
525,0.823,36.249,15.471,31.985,23.682,5.442,5.359,13.041
526,0.813,36.293,15.545,31.937,23.672,5.44,5.236,12.997
527,0.829,36.476,15.409,31.985,23.692,5.562,5.438,13.159
528,0.833,36.602,15.501,32.004,23.689,5.563,5.44,13.12
529,0.817,36.392,15.553,31.947,23.679,5.401,5.318,12.998
530,0.82,36.534,15.55,31.985,23.675,5.48,5.358,13.119
531,0.817,36.689,15.503,31.995,23.689,5.562,5.439,13.201
532,0.81,36.748,15.413,31.985,23.693,5.523,5.399,13.202
533,0.807,36.269,15.505,31.985,23.682,5.482,5.44,13.243
534,0.794,36.389,15.495,31.976,23.682,5.4,5.359,13.202
535,0.797,36.572,15.522,31.985,23.689,5.48,5.317,13.243
536,0.807,36.661,15.514,31.985,23.689,5.562,5.398,13.243
537,0.807,36.364,15.51,31.995,23.693,5.604,5.48,13.324
538,0.777,36.495,15.444,31.985,23.682,5.442,5.318,13.122
539,0.767,36.621,15.471,31.966,23.675,5.44,5.276,12.876
540,0.774,36.709,15.518,31.995,23.689,5.521,5.398,12.955
541,0.78,36.317,15.518,31.985,23.686,5.482,5.358,12.874
542,0.764,36.409,15.553,31.947,23.679,5.44,5.317,12.873
543,0.764,36.573,15.519,31.975,23.682,5.521,5.358,12.833
544,0.777,36.632,15.561,31.985,23.682,5.522,5.399,12.914
545,0.777,36.297,15.53,32.043,23.686,5.563,5.318,12.915
546,0.78,36.447,15.491,31.967,23.689,5.482,5.398,12.996
547,0.8,36.573,15.522,31.966,23.682,5.481,5.399,12.915
548,0.803,36.632,15.444,31.975,23.682,5.44,5.318,13.037
549,0.816,36.258,15.482,31.985,23.692,5.481,5.398,13.119
550,0.82,36.437,15.498,32.004,23.699,5.644,5.48,13.201
551,0.803,36.515,15.534,31.966,23.679,5.401,5.318,13.202
552,0.794,36.554,15.522,31.947,23.679,5.44,5.276,13.283
553,0.787,36.44,15.514,31.994,23.689,5.521,5.438,13.487
554,0.79,36.582,15.549,31.976,23.689,5.563,5.399,13.49
555,0.78,36.689,15.464,31.947,23.675,5.441,5.236,13.571
556,0.797,36.355,15.479,31.975,23.682,5.521,5.357,13.571
557,0.8,36.371,15.522,31.976,23.686,5.563,5.439,13.694
558,0.787,36.524,15.526,31.985,23.686,5.523,5.399,13.695
559,0.787,36.622,15.44,31.966,23.689,5.563,5.358,13.776
560,0.777,36.182,15.467,31.956,23.679,5.482,5.358,13.574
561,0.767,36.244,15.506,31.947,23.675,5.4,5.236,13.49
562,0.77,36.446,15.502,31.956,23.685,5.48,5.397,13.733
563,0.79,36.544,15.53,32.004,23.699,5.603,5.48,13.695
564,0.777,36.171,15.475,31.947,23.675,5.482,5.318,13.532
565,0.767,36.292,15.506,31.966,23.685,5.522,5.358,13.612
566,0.774,36.476,15.436,31.966,23.689,5.603,5.399,13.613
567,0.771,36.564,15.482,31.985,23.686,5.564,5.358,13.491
568,0.77,36.162,15.537,31.947,23.682,5.482,5.399,13.449
569,0.774,36.321,15.522,31.975,23.686,5.522,5.318,13.53
570,0.771,36.485,15.46,31.966,23.686,5.482,5.358,13.408
571,0.751,36.554,15.428,32.004,23.692,5.562,5.358,13.651
572,0.751,36.085,15.467,31.995,23.699,5.645,5.521,13.776
573,0.741,36.234,15.471,31.966,23.679,5.564,5.319,13.696
574,0.715,36.35,15.444,31.928,23.672,5.482,5.236,13.654
575,0.724,36.447,15.506,31.965,23.692,5.562,5.397,13.857
576,0.728,36.237,15.538,31.975,23.689,5.645,5.399,13.859
577,0.715,36.331,15.487,31.956,23.679,5.523,5.236,13.778
578,0.718,36.505,15.483,31.975,23.685,5.522,5.316,13.818
579,0.718,36.535,15.545,31.976,23.686,5.603,5.398,13.859
580,0.708,36.056,15.538,31.966,23.692,5.604,5.358,13.778
581,0.708,36.205,15.487,31.947,23.686,5.564,5.439,13.655
582,0.711,36.321,15.393,31.966,23.679,5.563,5.318,13.572
583,0.721,36.351,15.474,31.956,23.679,5.482,5.276,13.571
584,0.721,36.179,15.541,31.966,23.685,5.522,5.357,13.612
585,0.724,36.379,15.507,32.004,23.696,5.685,5.399,13.613
586,0.708,36.448,15.545,31.947,23.679,5.483,5.236,13.409
587,0.705,36.209,15.476,31.927,23.685,5.481,5.316,13.367
588,0.721,36.139,15.498,31.994,23.689,5.603,5.317,13.285
589,0.715,36.273,15.498,31.947,23.686,5.564,5.276,13.203
590,0.695,36.36,15.553,31.927,23.675,5.441,5.316,13.202
591,0.698,35.997,15.554,31.937,23.682,5.481,5.317,13.121
592,0.698,36.06,15.499,31.956,23.686,5.562,5.358,13.079
593,0.685,36.214,15.506,31.966,23.686,5.482,5.358,13.282
594,0.685,36.331,15.483,31.966,23.692,5.603,5.399,13.284
595,0.679,35.881,15.483,31.956,23.682,5.482,5.277,13.284
596,0.675,35.973,15.475,31.927,23.672,5.359,5.235,13.162
597,0.678,36.146,15.545,31.965,23.682,5.521,5.316,13.445
598,0.685,36.282,15.479,31.985,23.689,5.522,5.358,13.408
599,0.669,36.015,15.51,31.937,23.682,5.441,5.317,13.367
600,0.682,36.166,15.534,31.946,23.682,5.521,5.358,13.529
601,0.692,36.311,15.518,31.966,23.696,5.522,5.317,13.571
602,0.688,36.389,15.546,31.937,23.686,5.482,5.317,13.531
603,0.682,35.815,15.495,31.966,23.686,5.522,5.358,13.571
604,0.682,35.982,15.491,31.937,23.682,5.482,5.317,13.531
605,0.695,36.108,15.455,31.937,23.679,5.359,5.236,13.368
606,0.688,36.196,15.482,31.956,23.692,5.521,5.357,13.447
607,0.718,35.928,15.514,31.975,23.696,5.563,5.439,13.489
608,0.695,36.06,15.491,31.928,23.682,5.36,5.277,13.286
609,0.695,36.166,15.436,31.946,23.686,5.48,5.316,13.203
610,0.698,36.263,15.474,31.966,23.689,5.481,5.398,13.324
611,0.685,35.871,15.526,31.947,23.693,5.4,5.399,13.244
612,0.682,36.021,15.546,31.937,23.679,5.521,5.236,13.162
613,0.675,36.147,15.456,31.937,23.679,5.441,5.275,13.202
614,0.675,36.225,15.502,31.946,23.685,5.481,5.235,13.202
615,0.672,35.765,15.495,31.946,23.686,5.522,5.316,13.243
616,0.675,35.933,15.428,31.966,23.689,5.563,5.439,13.324
617,0.669,36.069,15.474,31.937,23.686,5.441,5.277,13.122
618,0.669,36.262,15.529,31.937,23.675,5.399,5.195,13.039
619,0.669,35.823,15.522,31.966,23.685,5.48,5.356,13.16
620,0.688,36.011,15.432,31.966,23.689,5.562,5.317,13.12
621,0.685,36.089,15.474,31.947,23.679,5.441,5.236,12.957
622,0.701,35.783,15.498,31.946,23.685,5.521,5.275,13.037
623,0.695,35.77,15.545,31.946,23.692,5.563,5.276,13.038
624,0.695,35.924,15.522,31.966,23.686,5.563,5.276,12.997
625,0.698,36.012,15.514,31.928,23.679,5.482,5.276,12.956
626,0.708,35.792,15.534,31.937,23.682,5.522,5.316,12.915
627,0.702,35.905,15.487,31.946,23.675,5.482,5.276,12.833
628,0.708,36.05,15.506,31.946,23.685,5.562,5.316,12.914
629,0.711,36.147,15.541,31.946,23.692,5.685,5.48,12.996
630,0.692,36.714,15.456,31.937,23.682,5.483,5.197,12.875
631,0.688,36.863,15.463,31.918,23.679,5.481,5.234,12.914
632,0.682,37.028,15.401,31.946,23.682,5.644,5.316,13.118
633,0.705,37.135,15.505,31.966,23.699,5.686,5.398,13.242
634,0.679,35.007,15.499,31.918,23.679,5.524,5.277,13.243
635,0.678,35.158,15.514,31.937,23.682,5.522,5.316,13.446
636,0.691,35.333,15.514,31.956,23.686,5.644,5.398,13.408
637,0.685,35.392,15.471,31.947,23.682,5.564,5.318,13.529
638,0.675,35.767,15.455,31.937,23.679,5.604,5.276,13.49
639,0.685,35.953,15.44,31.927,23.679,5.523,5.316,13.408
640,0.695,36.089,15.506,31.927,23.682,5.603,5.317,13.529
641,0.692,36.138,15.557,31.937,23.686,5.604,5.317,13.49
642,0.692,35.486,15.487,31.937,23.689,5.645,5.398,13.571
643,0.692,35.643,15.459,31.918,23.679,5.564,5.277,13.449
644,0.718,35.759,15.486,31.917,23.672,5.441,5.154,13.367
645,0.724,35.828,15.491,31.927,23.685,5.603,5.315,13.488
646,0.734,35.857,15.475,31.975,23.686,5.604,5.398,13.408
647,0.731,35.973,15.526,31.928,23.675,5.442,5.236,13.285
648,0.744,36.089,15.413,31.918,23.685,5.562,5.275,13.325
649,0.773,36.138,15.462,31.946,23.689,5.563,5.316,13.366
650,0.79,35.41,15.518,31.927,23.682,5.523,5.317,13.285
651,0.81,35.556,15.526,31.918,23.682,5.482,5.276,13.325
652,0.846,35.691,15.503,31.917,23.682,5.481,5.316,13.325
653,0.875,35.75,15.495,31.927,23.689,5.481,5.358,13.366
654,0.882,35.713,15.534,31.937,23.686,5.562,5.399,13.447
655,0.908,35.866,15.429,31.937,23.692,5.563,5.48,13.652
656,0.931,35.973,15.463,31.908,23.679,5.441,5.359,13.45
657,0.948,35.494,15.506,31.917,23.675,5.359,5.236,13.367
658,0.974,35.547,15.444,31.917,23.689,5.561,5.357,13.529
659,1.01,35.72,15.467,31.946,23.689,5.523,5.317,13.49
660,1.007,35.779,15.467,31.889,23.686,5.4,5.236,13.327
661,1.01,35.512,15.51,31.908,23.686,5.48,5.357,13.244
662,1.03,35.662,15.495,31.927,23.692,5.481,5.358,13.324
663,1.037,35.779,15.495,31.918,23.686,5.481,5.277,13.244
664,1.05,35.876,15.487,31.908,23.679,5.44,5.276,13.243
665,1.056,35.445,15.42,31.908,23.675,5.521,5.316,13.243
666,1.092,35.604,15.49,31.917,23.685,5.441,5.317,13.202
667,1.089,35.769,15.495,31.908,23.686,5.44,5.358,13.283
668,1.083,35.847,15.514,31.937,23.692,5.562,5.48,13.406
669,1.083,35.56,15.432,31.899,23.679,5.401,5.318,13.163
670,1.092,35.701,15.474,31.888,23.672,5.318,5.236,13.242
671,1.109,35.856,15.518,31.927,23.689,5.52,5.397,13.365
672,1.125,35.973,15.538,31.946,23.693,5.522,5.318,13.366
673,1.103,35.408,15.464,31.899,23.679,5.4,5.236,13.325
674,1.132,35.584,15.44,31.917,23.685,5.44,5.316,13.284
675,1.161,35.721,15.486,31.917,23.689,5.521,5.358,13.365
676,1.187,35.789,15.463,31.898,23.679,5.36,5.317,13.285
677,1.214,35.483,15.486,31.888,23.679,5.521,5.317,13.243
678,1.256,35.662,15.51,31.917,23.689,5.482,5.317,13.121
679,1.247,35.798,15.522,31.908,23.682,5.481,5.317,13.039
680,1.201,35.857,15.444,31.908,23.686,5.562,5.317,13.16
681,1.168,35.56,15.486,31.937,23.692,5.645,5.398,13.242
682,1.119,35.672,15.502,31.918,23.682,5.361,5.277,13.121
683,1.07,35.779,15.491,31.889,23.675,5.358,5.154,12.998
684,1.011,35.933,15.467,31.927,23.689,5.439,5.315,13.2
685,0.916,35.551,15.483,31.927,23.682,5.521,5.358,13.121
686,0.791,35.672,15.502,31.889,23.679,5.441,5.236,13.079
687,0.699,35.817,15.491,31.908,23.685,5.399,5.316,13.079
688,0.61,35.589,15.475,31.908,23.692,5.521,5.317,13.241
689,0.479,35.519,15.533,31.917,23.686,5.522,5.317,13.487
690,0.367,35.662,15.475,31.889,23.679,5.482,5.358,13.855
691,0.262,35.798,15.428,31.898,23.685,5.481,5.236,14.022
692,0.16,35.464,15.482,31.888,23.679,5.44,5.235,14.226
693,0.091,35.556,15.494,31.908,23.682,5.481,5.316,14.513
694,0.055,35.72,15.463,31.937,23.696,5.603,5.48,14.882
695,-0.021,35.818,15.432,31.899,23.682,5.401,5.278,14.967
696,-0.093,35.387,15.513,31.869,23.679,5.358,5.276,15.252
697,-0.159,35.565,15.452,31.907,23.685,5.561,5.357,15.662
698,-0.221,35.711,15.475,31.917,23.689,5.482,5.358,15.829
699,-0.303,35.789,15.448,31.898,23.682,5.44,5.317,15.871
700,-0.34,35.444,15.506,31.908,23.686,5.481,5.358,16.075
701,-0.366,35.614,15.51,31.898,23.686,5.522,5.399,16.036
702,-0.392,35.74,15.436,31.898,23.682,5.522,5.358,16.158
703,-0.409,35.866,15.513,31.908,23.696,5.603,5.439,16.281
704,-0.429,35.369,15.444,31.889,23.682,5.442,5.277,16.038
705,-0.429,35.507,15.478,31.879,23.668,5.399,5.276,15.954
706,-0.403,35.662,15.471,31.898,23.685,5.48,5.357,16.116
707,-0.399,35.74,15.498,31.908,23.686,5.603,5.439,15.915
708,-0.425,35.329,15.487,31.869,23.682,5.442,5.277,15.79
709,-0.403,35.507,15.448,31.907,23.686,5.521,5.357,15.749
710,-0.376,35.633,15.517,31.889,23.689,5.563,5.48,15.748
711,-0.331,35.692,15.499,31.908,23.686,5.523,5.318,15.707
712,-0.278,35.434,15.498,31.908,23.689,5.522,5.358,15.992
713,-0.232,35.594,15.459,31.889,23.679,5.482,5.317,16.239
714,-0.186,35.692,15.518,31.879,23.675,5.4,5.236,16.485
715,-0.137,35.77,15.514,31.907,23.682,5.48,5.397,16.853
716,-0.075,36.058,15.456,31.927,23.699,5.562,5.48,17.223
717,-0.051,36.166,15.506,31.87,23.686,5.401,5.359,17.389
718,-0.002,36.273,15.401,31.898,23.686,5.44,5.358,17.594
719,0.06,36.101,15.451,31.917,23.686,5.562,5.439,17.921
720,0.126,35.208,15.416,31.898,23.686,5.441,5.399,18.128
721,0.185,35.324,15.525,31.869,23.679,5.44,5.358,18.252
722,0.267,35.459,15.479,31.888,23.679,5.399,5.358,18.294
723,0.317,35.489,15.471,31.898,23.685,5.48,5.439,18.376
724,0.35,35.557,15.506,31.908,23.692,5.44,5.44,18.539
725,0.392,35.72,15.463,31.908,23.696,5.481,5.44,18.581
726,0.438,35.808,15.49,31.86,23.689,5.4,5.359,18.338
727,0.474,35.291,15.483,31.85,23.672,5.318,5.236,18.213
728,0.504,35.43,15.467,31.888,23.692,5.48,5.438,18.212
729,0.543,35.623,15.444,31.898,23.689,5.522,5.318,18.172
730,0.547,35.692,15.459,31.869,23.682,5.4,5.317,17.927
731,0.573,35.3,15.494,31.869,23.689,5.44,5.358,17.884
732,0.59,35.468,15.51,31.898,23.689,5.562,5.439,17.843
733,0.613,35.614,15.499,31.869,23.679,5.482,5.399,17.599
734,0.61,35.682,15.479,31.879,23.682,5.481,5.358,17.474
735,0.629,35.376,15.506,31.869,23.689,5.44,5.399,17.351
736,0.649,35.555,15.495,31.869,23.682,5.359,5.236,17.147
737,0.652,35.672,15.514,31.898,23.689,5.521,5.397,17.185
738,0.688,35.798,15.506,31.898,23.699,5.563,5.521,17.063
739,0.682,35.358,15.385,31.869,23.679,5.36,5.4,16.778
740,0.698,35.498,15.466,31.86,23.682,5.399,5.399,16.572
741,0.734,35.691,15.502,31.879,23.689,5.48,5.44,16.488
742,0.734,35.741,15.495,31.869,23.679,5.4,5.399,16.325
743,0.734,35.31,15.479,31.869,23.679,5.318,5.318,16.201
744,0.764,35.478,15.436,31.86,23.685,5.398,5.317,16.2
745,0.777,35.624,15.486,31.879,23.686,5.44,5.398,16.037
746,0.787,35.673,15.448,31.869,23.686,5.44,5.399,15.873
747,0.79,35.52,15.49,31.869,23.689,5.521,5.44,15.831
748,0.79,35.653,15.502,31.85,23.686,5.319,5.318,15.627
749,0.793,35.798,15.436,31.84,23.686,5.358,5.317,15.503
750,0.793,35.838,15.506,31.869,23.692,5.439,5.358,15.583
751,0.81,35.416,15.475,31.907,23.693,5.603,5.48,15.543
752,0.787,35.498,15.529,31.85,23.679,5.36,5.318,15.462
753,0.78,35.624,15.487,31.85,23.682,5.439,5.358,15.42
754,0.81,35.606,15.506,31.878,23.692,5.521,5.48,15.501
755,0.81,35.51,15.502,31.879,23.689,5.482,5.4,15.461
756,0.794,35.633,15.44,31.84,23.679,5.44,5.318,15.339
757,0.806,35.779,15.471,31.859,23.685,5.481,5.358,15.297
758,0.813,35.291,15.463,31.888,23.682,5.522,5.399,15.215
759,0.816,35.296,15.537,31.869,23.692,5.522,5.358,15.174
760,0.823,35.468,15.456,31.888,23.699,5.603,5.439,15.173
761,0.82,35.566,15.346,31.869,23.689,5.401,5.318,14.97
762,0.83,35.337,15.489,31.802,23.672,5.358,5.236,14.805
763,0.836,35.478,15.475,31.859,23.685,5.48,5.397,14.844
764,0.852,35.652,15.537,31.917,23.689,5.522,5.318,14.804
765,0.849,35.74,15.448,31.841,23.675,5.441,5.276,14.6
766,0.846,35.377,15.498,31.85,23.685,5.481,5.276,14.558
767,0.869,35.517,15.456,31.888,23.689,5.562,5.398,14.476
768,0.869,35.672,15.443,31.86,23.682,5.523,5.358,14.312
769,0.866,35.75,15.514,31.84,23.682,5.482,5.399,14.229
770,0.862,35.185,15.464,31.85,23.686,5.522,5.318,14.066
771,0.856,35.314,15.459,31.85,23.686,5.482,5.317,14.064
772,0.856,35.488,15.428,31.907,23.686,5.481,5.317,14.105
773,0.862,35.585,15.478,31.879,23.699,5.684,5.52,14.227
774,0.856,35.433,15.416,31.84,23.686,5.442,5.319,14.107
775,0.833,35.575,15.459,31.83,23.675,5.399,5.195,14.065
776,0.849,35.759,15.518,31.849,23.689,5.562,5.356,14.146
777,0.866,35.818,15.428,31.869,23.689,5.563,5.358,14.065
778,0.853,35.291,15.467,31.821,23.679,5.482,5.236,13.902
779,0.862,35.468,15.483,31.849,23.692,5.522,5.316,13.9
780,0.882,35.585,15.533,31.859,23.689,5.603,5.358,13.941
781,0.892,35.625,15.483,31.859,23.686,5.564,5.399,13.819
782,0.889,35.357,15.436,31.84,23.682,5.563,5.358,13.777
783,0.892,35.526,15.424,31.84,23.686,5.523,5.358,13.736
784,0.895,35.643,15.463,31.84,23.675,5.522,5.236,13.533
785,0.892,36.047,15.459,31.85,23.692,5.522,5.316,13.612
786,0.905,35.399,15.494,31.878,23.696,5.725,5.48,13.653
787,0.895,35.479,15.487,31.831,23.682,5.484,5.278,13.328
788,0.886,35.604,15.444,31.83,23.675,5.4,5.235,13.325
789,0.895,35.443,15.482,31.849,23.692,5.562,5.397,13.366
790,0.899,35.431,15.483,31.84,23.686,5.563,5.318,13.285
791,0.886,35.566,15.522,31.83,23.682,5.441,5.236,13.284
792,0.905,35.663,15.46,31.84,23.679,5.521,5.316,13.284
793,0.899,35.357,15.49,31.869,23.685,5.563,5.317,13.406
794,0.882,35.421,15.502,31.85,23.686,5.523,5.317,13.448
795,0.876,35.594,15.487,31.85,23.692,5.603,5.358,13.692
796,0.889,35.682,15.463,31.821,23.679,5.401,5.358,13.41
797,0.889,35.386,15.506,31.811,23.672,5.318,5.236,13.367
798,0.895,35.546,15.428,31.868,23.689,5.48,5.357,13.488
799,0.899,35.739,15.431,31.879,23.696,5.562,5.439,13.53
800,0.895,35.77,15.459,31.831,23.682,5.36,5.277,13.286
801,0.915,35.233,15.525,31.849,23.686,5.521,5.316,13.284
802,0.925,35.391,15.51,31.85,23.692,5.563,5.358,13.325
803,0.922,35.517,15.479,31.831,23.686,5.523,5.358,13.284
804,0.928,35.586,15.498,31.821,23.686,5.482,5.399,13.365
805,0.925,35.299,15.42,31.84,23.679,5.44,5.277,13.204
806,0.948,35.449,15.455,31.83,23.682,5.481,5.276,13.243
807,0.948,35.604,15.518,31.84,23.692,5.481,5.357,13.284
808,0.971,35.692,15.471,31.859,23.699,5.603,5.439,13.243
809,0.942,35.204,15.432,31.811,23.682,5.482,5.237,13.04
810,0.935,35.352,15.474,31.83,23.686,5.522,5.316,12.997
811,0.948,35.517,15.475,31.83,23.686,5.522,5.358,12.996
812,0.954,35.566,15.529,31.84,23.686,5.522,5.358,12.915
813,0.941,35.308,15.335,31.83,23.686,5.441,5.277,12.874
814,0.958,35.497,15.442,31.83,23.682,5.481,5.398,12.955
815,0.968,35.624,15.51,31.83,23.686,5.481,5.399,12.956
816,0.955,35.644,15.467,31.849,23.692,5.522,5.399,13.078
817,0.958,35.433,15.518,31.84,23.693,5.644,5.44,13.201
818,0.945,35.594,15.479,31.821,23.682,5.442,5.318,13.161
819,0.941,35.692,15.459,31.83,23.672,5.318,5.276,13.039
820,0.951,35.645,15.475,31.897,23.692,5.48,5.438,13.322
821,0.977,35.385,15.459,31.841,23.689,5.44,5.359,13.325
822,0.955,35.469,15.44,31.792,23.682,5.44,5.317,13.203
823,0.974,35.614,15.482,31.82,23.682,5.44,5.358,13.365
824,0.987,35.308,15.44,31.83,23.689,5.481,5.358,13.407
825,1.0,35.315,15.443,31.83,23.689,5.481,5.317,13.448
826,0.997,35.469,15.494,31.811,23.682,5.44,5.358,13.408
827,0.997,35.585,15.463,31.821,23.689,5.399,5.358,13.326
828,1.004,35.222,15.475,31.811,23.686,5.399,5.317,13.325
829,1.004,35.333,15.506,31.821,23.689,5.44,5.317,13.325
830,1.017,35.497,15.487,31.83,23.693,5.521,5.52,13.528
831,1.004,35.585,15.35,31.811,23.682,5.36,5.238,13.408
832,1.01,35.231,15.403,31.811,23.672,5.317,5.194,13.326
833,1.01,35.401,15.482,31.821,23.685,5.439,5.397,13.61
834,1.01,35.575,15.37,31.84,23.692,5.481,5.399,13.653
835,1.007,35.615,15.411,31.811,23.686,5.44,5.236,13.572
836,1.01,35.625,15.509,31.821,23.686,5.44,5.316,13.653
837,1.017,35.788,15.413,31.83,23.692,5.481,5.398,13.654
838,1.02,35.914,15.466,31.83,23.689,5.4,5.318,13.694
839,1.033,35.973,15.436,31.811,23.682,5.358,5.358,13.654
840,1.046,35.063,15.533,31.821,23.682,5.399,5.317,13.694
841,1.063,35.207,15.479,31.83,23.686,5.44,5.358,13.613
842,1.05,35.352,15.432,31.84,23.689,5.399,5.358,13.694
843,1.066,35.44,15.482,31.85,23.693,5.521,5.48,13.776
844,1.069,35.288,15.463,31.821,23.686,5.36,5.318,13.655
845,1.066,35.43,15.463,31.792,23.679,5.317,5.317,13.45
846,1.079,35.613,15.467,31.83,23.685,5.439,5.358,13.57
847,1.096,35.663,15.49,31.84,23.699,5.44,5.439,13.612
848,1.076,35.223,15.416,31.83,23.679,5.318,5.318,13.409
849,1.089,35.372,15.451,31.811,23.685,5.439,5.317,13.61
850,1.099,35.507,15.514,31.84,23.689,5.44,5.358,13.735
851,1.089,35.518,15.487,31.821,23.686,5.399,5.317,13.817
852,1.089,35.298,15.506,31.811,23.679,5.358,5.317,13.859
853,1.096,35.478,15.475,31.811,23.679,5.439,5.276,13.9
854,1.106,35.604,15.514,31.83,23.689,5.481,5.357,14.103
855,1.109,35.491,15.452,31.811,23.686,5.4,5.317,14.187
856,1.115,35.451,15.439,31.84,23.696,5.48,5.48,14.269
857,1.112,35.575,15.482,31.811,23.682,5.44,5.359,14.188
858,1.115,35.682,15.432,31.792,23.675,5.359,5.277,14.025
859,1.122,35.204,15.435,31.82,23.692,5.439,5.316,14.186
860,1.148,35.295,15.424,31.84,23.689,5.521,5.317,14.106
861,1.145,35.392,15.467,31.783,23.689,5.4,5.276,14.024
862,1.148,35.508,15.525,31.811,23.689,5.44,5.316,13.983
863,1.161,35.336,15.452,31.83,23.686,5.481,5.358,14.063
864,1.161,35.459,15.49,31.802,23.689,5.4,5.358,14.024
865,1.178,35.585,15.487,31.811,23.682,5.48,5.358,14.023
866,1.184,35.701,15.467,31.811,23.682,5.359,5.358,13.901
867,1.201,35.089,15.444,31.801,23.682,5.48,5.317,13.819
868,1.211,35.217,15.517,31.811,23.682,5.481,5.358,13.777
869,1.214,35.391,15.44,31.84,23.692,5.522,5.48,13.858
870,1.211,35.469,15.412,31.859,23.682,5.36,5.318,13.656
871,1.211,35.355,15.455,31.792,23.675,5.277,5.195,13.613
872,1.22,35.536,15.49,31.811,23.689,5.398,5.397,13.775
873,1.23,35.691,15.53,31.821,23.686,5.399,5.399,13.818
874,1.221,35.741,15.491,31.802,23.679,5.358,5.196,13.655
875,1.224,35.454,15.463,31.801,23.682,5.358,5.356,13.816
876,1.237,35.623,15.494,31.821,23.692,5.439,5.358,13.899
877,1.234,35.75,15.448,31.811,23.686,5.359,5.358,13.737
878,1.224,35.789,15.494,31.792,23.682,5.358,5.317,13.776
879,1.224,35.55,15.475,31.782,23.682,5.399,5.276,13.655
880,1.25,35.701,15.475,31.811,23.686,5.399,5.316,13.572
881,1.263,35.818,15.44,31.801,23.686,5.358,5.398,13.531
882,1.26,35.886,15.451,31.83,23.699,5.48,5.44,13.693
883,1.27,36.606,15.459,31.792,23.682,5.359,5.277,13.451
884,1.27,36.718,15.404,31.782,23.679,5.317,5.154,13.408
885,1.283,36.883,15.474,31.792,23.685,5.439,5.437,13.529
886,1.293,36.807,15.475,31.792,23.686,5.359,5.359,13.408
887,1.283,35.416,15.44,31.792,23.679,5.317,5.277,13.163
888,1.296,35.575,15.435,31.792,23.679,5.358,5.276,13.242
889,1.29,35.72,15.459,31.811,23.689,5.399,5.316,13.284
890,1.28,36.038,15.502,31.811,23.693,5.399,5.358,13.365
891,1.28,36.166,15.475,31.801,23.689,5.48,5.358,13.407
892,1.286,36.34,15.389,31.811,23.682,5.359,5.277,13.489
893,1.29,36.466,15.427,31.811,23.686,5.399,5.235,13.53
894,1.286,36.113,15.537,31.801,23.686,5.48,5.316,13.693
895,1.29,36.253,15.452,31.83,23.699,5.562,5.439,13.857
896,1.277,36.37,15.475,31.782,23.679,5.401,5.318,13.656
897,1.27,36.448,15.49,31.772,23.679,5.399,5.236,13.613
898,1.27,36.487,15.405,31.82,23.689,5.521,5.397,13.694
899,1.273,36.621,15.474,31.811,23.686,5.482,5.318,13.695
900,1.27,36.747,15.463,31.773,23.679,5.481,5.276,13.573
901,1.276,36.825,15.475,31.801,23.689,5.562,5.357,13.531
902,1.276,36.567,15.459,31.801,23.689,5.685,5.317,13.49
903,1.286,36.708,15.44,31.792,23.686,5.687,5.317,13.49
904,1.286,36.863,15.459,31.82,23.699,5.768,5.439,13.611
905,1.286,36.922,15.404,31.782,23.682,5.647,5.237,13.328
906,1.286,36.875,15.455,31.772,23.672,5.686,5.235,13.244
907,1.286,37.038,15.498,31.801,23.689,5.849,5.357,13.406
908,1.303,37.183,15.479,31.792,23.693,5.81,5.358,13.326
909,1.286,37.213,15.428,31.772,23.679,5.81,5.195,13.325
910,1.28,37.118,15.459,31.782,23.689,5.85,5.316,13.244
911,1.273,37.26,15.498,31.792,23.693,5.891,5.439,13.284
912,1.276,37.387,15.483,31.792,23.686,5.851,5.318,13.325
913,1.25,37.407,15.389,31.772,23.692,5.851,5.317,13.406
914,1.24,37.302,15.4,31.772,23.686,5.891,5.317,13.448
915,1.231,37.464,15.497,31.763,23.682,5.851,5.317,13.408
916,1.237,37.6,15.397,31.801,23.686,5.932,5.398,13.489
917,1.231,37.63,15.501,31.811,23.696,6.055,5.44,13.693
918,1.221,37.726,15.475,31.782,23.686,5.853,5.237,13.41
919,1.211,37.832,15.49,31.753,23.675,5.769,5.235,13.407
920,1.224,37.987,15.416,31.791,23.685,5.931,5.397,13.489
921,1.221,37.96,15.427,31.792,23.689,5.933,5.318,13.449
922,1.208,37.806,15.459,31.772,23.679,5.852,5.195,13.286
923,1.22,37.958,15.471,31.782,23.682,5.932,5.316,13.406
924,1.221,38.084,15.479,31.801,23.689,5.892,5.358,13.407
925,1.208,37.941,15.412,31.782,23.686,5.933,5.358,13.448
926,1.198,37.988,15.474,31.763,23.682,5.892,5.358,13.408
927,1.207,38.142,15.408,31.81,23.682,5.851,5.317,13.245
928,1.188,38.258,15.459,31.763,23.686,5.81,5.276,13.202
929,1.188,38.029,15.522,31.772,23.686,5.891,5.316,13.283
930,1.181,38.181,15.487,31.801,23.699,6.014,5.398,13.406
931,1.149,38.278,15.444,31.773,23.682,5.812,5.236,13.285
932,1.142,38.356,15.322,31.753,23.675,5.769,5.235,13.406
933,1.135,38.145,15.477,31.791,23.685,5.931,5.357,13.651
934,1.135,38.278,15.467,31.753,23.686,5.852,5.277,13.857
935,1.103,38.413,15.459,31.753,23.679,5.769,5.235,13.94
936,1.119,38.491,15.447,31.772,23.685,5.891,5.316,14.226
937,1.096,38.224,15.451,31.782,23.692,5.892,5.358,14.351
938,1.083,38.384,15.428,31.811,23.689,5.811,5.358,14.433
939,1.073,38.491,15.424,31.782,23.696,5.85,5.358,14.515
940,1.069,38.578,15.447,31.763,23.689,5.769,5.277,14.475
941,1.073,38.311,15.463,31.763,23.679,5.687,5.195,14.516
942,1.063,38.481,15.483,31.772,23.689,5.849,5.316,14.557
943,1.066,38.655,15.44,31.791,23.699,5.932,5.48,14.679
944,1.056,38.647,15.498,31.744,23.682,5.77,5.237,14.436
945,1.037,38.273,15.475,31.82,23.692,5.809,5.275,14.434
946,1.043,38.451,15.432,31.782,23.693,5.85,5.398,14.434
947,1.046,38.559,15.478,31.744,23.686,5.688,5.318,14.231
948,1.03,38.589,15.381,31.753,23.675,5.687,5.358,14.188
949,1.027,38.464,15.419,31.753,23.682,5.727,5.317,14.147
950,1.023,38.626,15.416,31.772,23.686,5.687,5.317,14.106
951,0.994,38.724,15.486,31.772,23.686,5.768,5.398,14.146
952,0.984,39.079,15.491,31.763,23.696,5.891,5.48,14.228
953,0.971,38.373,15.409,31.734,23.686,5.648,5.318,14.107
954,0.955,38.491,15.443,31.734,23.675,5.645,5.154,14.024
955,0.954,38.626,15.478,31.772,23.692,5.727,5.356,14.226
956,0.958,38.522,15.451,31.772,23.693,5.687,5.317,14.147
957,0.922,38.464,15.428,31.744,23.675,5.605,5.276,14.024
958,0.922,38.616,15.49,31.762,23.682,5.645,5.316,13.983
959,0.918,38.752,15.405,31.763,23.689,5.727,5.439,14.023
960,0.918,38.322,15.435,31.743,23.689,5.768,5.44,13.942
961,0.922,38.394,15.463,31.753,23.689,5.728,5.359,13.819
962,0.912,38.501,15.432,31.734,23.686,5.646,5.317,13.777
963,0.915,38.626,15.467,31.743,23.682,5.605,5.236,13.818
964,0.915,38.158,15.424,31.753,23.689,5.686,5.316,13.94
965,0.915,38.306,15.513,31.772,23.696,5.849,5.48,13.941
966,0.899,38.404,15.397,31.744,23.679,5.648,5.278,13.738
967,0.886,38.472,15.447,31.724,23.682,5.645,5.316,13.736
968,0.889,38.156,15.432,31.743,23.686,5.808,5.358,13.817
969,0.889,38.287,15.498,31.743,23.682,5.728,5.317,13.777
970,0.876,38.413,15.417,31.734,23.675,5.646,5.317,13.736
971,0.869,38.501,15.408,31.734,23.682,5.686,5.358,13.858
972,0.859,38.156,15.443,31.734,23.689,5.809,5.358,13.859
973,0.853,38.278,15.432,31.753,23.686,5.728,5.317,13.94
974,0.856,38.413,15.428,31.763,23.692,5.768,5.439,13.982
975,0.846,38.472,15.412,31.743,23.686,5.647,5.318,13.901
976,0.833,38.127,15.478,31.715,23.672,5.605,5.236,13.859
977,0.826,38.277,15.401,31.743,23.682,5.726,5.316,13.94
978,0.839,38.452,15.427,31.791,23.699,5.809,5.439,13.941
979,0.817,38.425,15.443,31.734,23.682,5.688,5.318,13.778
980,0.803,37.926,15.475,31.724,23.686,5.564,5.317,13.736
981,0.826,38.093,15.463,31.733,23.689,5.685,5.317,13.776
982,0.813,38.2,15.397,31.734,23.679,5.646,5.317,13.736
983,0.813,38.211,15.435,31.734,23.685,5.605,5.317,13.533
984,0.82,37.962,15.467,31.753,23.682,5.604,5.317,13.571
985,0.823,38.122,15.42,31.743,23.686,5.645,5.358,13.612
986,0.826,38.258,15.49,31.743,23.682,5.645,5.358,13.531
987,0.826,38.173,15.444,31.762,23.692,5.727,5.48,13.571
988,0.82,37.818,15.412,31.734,23.686,5.565,5.318,13.409
989,0.817,37.929,15.416,31.714,23.668,5.523,5.154,13.245
990,0.816,38.074,15.486,31.743,23.685,5.725,5.315,13.365
991,0.807,37.826,15.475,31.762,23.692,5.646,5.439,13.366
992,0.794,37.785,15.432,31.734,23.679,5.605,5.318,13.204
993,0.79,37.958,15.439,31.734,23.679,5.604,5.358,13.324
994,0.787,38.065,15.486,31.734,23.689,5.564,5.399,13.284
995,0.787,37.625,15.459,31.743,23.693,5.645,5.358,13.325
996,0.777,37.716,15.467,31.734,23.686,5.564,5.439,13.284
997,0.771,37.851,15.498,31.753,23.682,5.523,5.277,13.325
998,0.783,37.958,15.413,31.734,23.679,5.522,5.316,13.203
999,0.774,37.403,15.459,31.734,23.689,5.563,5.439,13.283
1000,0.787,37.58,15.502,31.753,23.689,5.726,5.44,13.365
1001,0.793,37.687,15.463,31.724,23.679,5.646,5.318,13.244
1002,0.771,37.736,15.459,31.686,23.672,5.523,5.317,13.284
1003,0.8,37.497,15.416,31.743,23.689,5.644,5.439,13.447
1004,0.803,37.638,15.451,31.734,23.679,5.605,5.359,13.367
1005,0.8,37.764,15.357,31.734,23.682,5.564,5.358,13.366
1006,0.8,37.871,15.435,31.734,23.682,5.563,5.358,13.285
1007,0.81,37.402,15.478,31.743,23.692,5.563,5.358,13.365
1008,0.807,37.522,15.401,31.734,23.686,5.685,5.317,13.325
1009,0.813,37.677,15.466,31.753,23.699,5.687,5.48,13.366
1010,0.807,37.736,15.432,31.734,23.682,5.564,5.318,13.244
1011,0.787,37.315,15.455,31.686,23.672,5.482,5.276,13.324
1012,0.797,37.493,15.51,31.743,23.685,5.684,5.398,13.488
1013,0.8,37.657,15.432,31.734,23.682,5.646,5.48,13.449
1014,0.781,37.649,15.428,31.714,23.675,5.564,5.237,13.408
1015,0.777,37.218,15.451,31.724,23.689,5.604,5.397,13.448
1016,0.78,37.386,15.447,31.733,23.693,5.686,5.48,13.57
1017,0.777,37.493,15.451,31.714,23.682,5.646,5.44,13.571
1018,0.774,37.494,15.479,31.714,23.679,5.645,5.399,13.531
1019,0.774,37.101,15.42,31.724,23.685,5.686,5.277,13.368
1020,0.784,37.251,15.424,31.733,23.682,5.605,5.316,13.285
1021,0.793,37.377,15.494,31.724,23.686,5.645,5.358,13.284
1022,0.8,37.311,15.545,31.762,23.696,5.849,5.48,13.365
1023,0.803,37.186,15.487,31.715,23.682,5.607,5.318,13.204
1024,0.787,37.319,15.455,31.705,23.682,5.564,5.317,13.08
1025,0.803,37.435,15.463,31.733,23.686,5.685,5.358,13.119
1026,0.803,37.034,15.42,31.714,23.686,5.646,5.399,13.039
1027,0.813,37.068,15.412,31.714,23.686,5.645,5.318,12.875
1028,0.816,37.241,15.459,31.714,23.686,5.645,5.398,12.711
1029,0.82,37.348,15.475,31.714,23.686,5.645,5.399,12.831
1030,0.813,36.937,15.385,31.733,23.689,5.645,5.318,12.792
1031,0.797,37.057,15.431,31.753,23.693,5.727,5.439,12.913
1032,0.787,37.202,15.431,31.715,23.682,5.605,5.318,12.792
1033,0.78,37.281,15.455,31.705,23.679,5.482,5.236,12.751
1034,0.78,36.773,15.4,31.724,23.689,5.644,5.357,13.035
1035,0.8,36.95,15.474,31.753,23.693,5.727,5.399,13.078
1036,0.79,37.057,15.487,31.724,23.682,5.565,5.277,12.997
1037,0.774,37.154,15.362,31.714,23.686,5.645,5.316,13.119
1038,0.784,36.839,15.435,31.733,23.689,5.686,5.398,13.12
1039,0.78,36.98,15.424,31.734,23.686,5.605,5.399,13.079
1040,0.78,37.077,15.435,31.705,23.689,5.564,5.358,13.119
1041,0.806,37.155,15.443,31.704,23.682,5.604,5.317,13.039
1042,0.807,36.849,15.369,31.714,23.686,5.645,5.236,12.997
1043,0.816,37.008,15.439,31.724,23.689,5.686,5.316,13.119
1044,0.826,37.154,15.474,31.743,23.693,5.809,5.439,13.201
1045,0.804,37.175,15.451,31.705,23.682,5.647,5.359,12.999
1046,0.794,36.695,15.408,31.695,23.679,5.645,5.236,12.915
1047,0.81,36.882,15.474,31.714,23.699,5.686,5.357,12.996
1048,0.81,37.038,15.416,31.762,23.682,5.768,5.358,12.996
1049,0.8,37.03,15.412,31.696,23.679,5.606,5.277,12.956
1050,0.813,36.771,15.455,31.704,23.682,5.686,5.316,12.956
1051,0.81,36.941,15.482,31.714,23.689,5.727,5.358,13.2
1052,0.8,37.038,15.451,31.724,23.689,5.687,5.358,13.324
1053,0.797,37.308,15.4,31.714,23.693,5.727,5.399,13.406
1054,0.79,36.716,15.482,31.685,23.682,5.646,5.318,13.285
1055,0.784,36.854,15.373,31.676,23.682,5.605,5.236,13.243
1056,0.797,36.98,15.415,31.695,23.689,5.726,5.357,13.446
1057,0.803,36.732,15.482,31.733,23.699,5.768,5.399,13.57
1058,0.784,36.643,15.432,31.686,23.675,5.647,5.236,13.368
1059,0.784,36.795,15.431,31.752,23.682,5.686,5.316,13.285
1060,0.784,36.941,15.424,31.724,23.686,5.727,5.358,13.325
1061,0.8,36.607,15.459,31.695,23.686,5.605,5.317,13.244
1062,0.8,36.69,15.443,31.685,23.675,5.564,5.276,13.284
1063,0.807,36.844,15.412,31.695,23.682,5.645,5.316,13.284
1064,0.807,36.961,15.416,31.714,23.682,5.645,5.276,13.406
1065,0.81,36.616,15.459,31.724,23.686,5.605,5.316,13.529
1066,0.82,36.757,15.447,31.791,23.689,5.686,5.439,13.734
1067,0.823,36.893,15.424,31.686,23.686,5.524,5.318,13.573
1068,0.817,36.961,15.478,31.656,23.682,5.522,5.195,13.49
1069,0.82,36.521,15.42,31.694,23.686,5.644,5.356,13.652
1070,0.826,36.689,15.404,31.733,23.696,5.686,5.399,13.735
1071,0.804,36.806,15.388,31.676,23.686,5.564,5.236,13.655
1072,0.787,36.883,15.439,31.685,23.686,5.604,5.275,13.857
1073,0.806,37.594,15.494,31.695,23.692,5.645,5.357,13.94
1074,0.794,37.735,15.416,31.695,23.682,5.686,5.317,14.022
1075,0.79,37.823,15.431,31.695,23.675,5.564,5.317,14.064
1076,0.793,37.9,15.443,31.685,23.689,5.685,5.317,14.105
1077,0.787,35.993,15.459,31.704,23.693,5.646,5.398,14.146
1078,0.777,36.127,15.459,31.695,23.686,5.605,5.358,14.106
1079,0.787,36.282,15.49,31.724,23.696,5.726,5.48,14.309
1080,0.797,36.303,15.444,31.686,23.686,5.605,5.318,14.026
1081,0.79,36.6,15.35,31.676,23.672,5.523,5.236,13.942
1082,0.797,36.805,15.407,31.704,23.689,5.644,5.357,14.022
1083,0.813,36.96,15.435,31.743,23.689,5.767,5.439,14.105
1084,0.803,36.933,15.361,31.676,23.686,5.606,5.318,13.983
1085,0.807,36.376,15.415,31.695,23.686,5.645,5.317,13.942
1086,0.816,36.543,15.459,31.695,23.686,5.727,5.398,14.022
1087,0.813,36.66,15.389,31.704,23.689,5.727,5.358,13.942
1088,0.803,36.594,15.392,31.685,23.682,5.646,5.317,13.86
1089,0.813,36.421,15.47,31.676,23.679,5.645,5.276,13.737
1090,0.8,36.563,15.444,31.695,23.692,5.686,5.235,13.776
1091,0.803,36.689,15.412,31.704,23.686,5.727,5.357,13.858
1092,0.8,36.412,15.412,31.704,23.699,5.85,5.521,13.94
1093,0.787,36.41,15.431,31.676,23.679,5.688,5.319,13.697
1094,0.774,36.534,15.478,31.656,23.679,5.727,5.317,13.735
1095,0.78,36.689,15.381,31.685,23.689,5.85,5.358,13.776
1096,0.78,36.269,15.474,31.685,23.686,5.81,5.399,13.736
1097,0.767,36.36,15.42,31.666,23.682,5.728,5.318,13.614
1098,0.774,36.534,15.388,31.704,23.686,5.809,5.358,13.613
1099,0.78,36.631,15.454,31.695,23.692,5.81,5.358,13.613
1100,0.784,36.306,15.428,31.676,23.689,5.81,5.399,13.572
1101,0.784,36.466,15.486,31.695,23.693,5.891,5.399,13.49
1102,0.784,36.602,15.459,31.676,23.679,5.811,5.358,13.367
1103,0.78,36.67,15.451,31.685,23.679,5.769,5.317,13.244
1104,0.79,36.307,15.451,31.695,23.685,5.931,5.439,13.324
1105,0.8,36.485,15.451,31.724,23.696,6.014,5.481,13.325
1106,0.777,36.573,15.393,31.657,23.686,5.812,5.278,13.041
1107,0.774,36.613,15.454,31.656,23.679,5.85,5.357,13.119
1108,0.784,36.153,15.412,31.694,23.689,5.891,5.48,13.079
1109,0.777,36.321,15.377,31.666,23.686,5.851,5.4,13.038
1110,0.761,36.428,15.415,31.647,23.675,5.769,5.318,12.997
1111,0.764,36.515,15.451,31.675,23.679,5.809,5.358,13.078
1112,0.767,36.248,15.486,31.666,23.685,5.81,5.399,13.119
1113,0.764,36.379,15.381,31.675,23.689,5.85,5.399,13.201
1114,0.764,36.524,15.443,31.685,23.696,5.973,5.48,13.324
1115,0.757,36.535,15.49,31.656,23.686,5.771,5.359,13.203
1116,0.761,36.209,15.397,31.656,23.672,5.687,5.236,13.161
1117,0.761,36.398,15.419,31.675,23.689,5.809,5.397,13.323
1118,0.767,36.534,15.466,31.695,23.693,5.972,5.399,13.325
1119,0.754,36.727,15.401,31.666,23.679,5.771,5.277,13.162
1120,0.767,36.202,15.302,31.675,23.682,5.728,5.357,13.202
1121,0.78,36.369,15.418,31.685,23.689,5.89,5.358,13.243
1122,0.774,36.476,15.443,31.666,23.679,5.729,5.358,13.243
1123,0.764,36.257,15.467,31.656,23.679,5.727,5.317,13.202
1124,0.767,36.226,15.479,31.666,23.685,5.768,5.398,13.283
1125,0.78,36.369,15.444,31.675,23.686,5.768,5.358,13.325
1126,0.774,36.486,15.451,31.666,23.682,5.768,5.399,13.366
1127,0.784,36.257,15.447,31.666,23.689,5.891,5.48,13.447
1128,0.79,36.312,15.459,31.666,23.679,5.689,5.318,13.326
1129,0.784,36.447,15.479,31.637,23.685,5.646,5.236,13.284
1130,0.78,36.573,15.448,31.656,23.689,5.767,5.357,13.528
1131,0.78,36.047,15.4,31.685,23.699,5.85,5.399,13.653
1132,0.761,36.137,15.369,31.637,23.679,5.688,5.318,13.572
1133,0.751,36.282,15.435,31.637,23.682,5.768,5.398,13.734
1134,0.761,36.38,15.439,31.675,23.689,5.768,5.399,13.858
1135,0.761,36.16,15.432,31.647,23.686,5.728,5.399,13.9
1136,0.754,36.282,15.494,31.656,23.675,5.727,5.358,13.9
1137,0.757,36.456,15.424,31.666,23.682,5.768,5.317,13.9
1138,0.754,36.554,15.451,31.666,23.679,5.728,5.317,13.9
1139,0.748,36.2,15.447,31.685,23.689,5.687,5.439,13.9
1140,0.767,36.36,15.467,31.685,23.689,5.849,5.521,13.981
1141,0.754,36.447,15.44,31.656,23.679,5.688,5.4,13.738
1142,0.757,36.515,15.338,31.647,23.675,5.605,5.277,13.614
1143,0.767,36.104,15.411,31.666,23.685,5.645,5.438,13.735
1144,0.774,36.263,15.439,31.685,23.692,5.849,5.481,13.736
1145,0.751,36.37,15.428,31.666,23.682,5.648,5.318,13.614
1146,0.751,36.419,15.451,31.656,23.682,5.686,5.398,13.694
1147,0.774,36.237,15.451,31.675,23.686,5.727,5.399,13.654
1148,0.774,36.379,15.326,31.656,23.686,5.687,5.399,13.572
1149,0.764,36.496,15.419,31.656,23.675,5.646,5.318,13.571
1150,0.757,36.545,15.486,31.647,23.682,5.645,5.398,13.612
1151,0.761,36.152,15.405,31.656,23.689,5.686,5.44,13.613
1152,0.751,36.301,15.431,31.675,23.689,5.687,5.44,13.735
1153,0.748,36.437,15.4,31.666,23.696,5.768,5.44,13.858
1154,0.744,36.535,15.451,31.647,23.682,5.647,5.359,13.656
1155,0.734,36.325,15.35,31.627,23.675,5.564,5.277,13.613
1156,0.738,36.485,15.435,31.665,23.685,5.685,5.438,13.816
1157,0.747,36.631,15.482,31.675,23.689,5.687,5.44,13.737
1158,0.731,36.306,15.412,31.656,23.679,5.605,5.318,13.736
1159,0.738,36.322,15.443,31.714,23.685,5.645,5.439,13.614
1160,0.741,36.505,15.408,31.666,23.692,5.645,5.399,13.694
1161,0.741,36.612,15.462,31.656,23.682,5.645,5.48,13.532
1162,0.741,36.287,15.475,31.637,23.682,5.645,5.4,13.531
1163,0.744,36.418,15.428,31.656,23.689,5.605,5.358,13.368
1164,0.757,36.582,15.373,31.656,23.689,5.564,5.317,13.325
1165,0.751,36.661,15.478,31.666,23.689,5.645,5.439,13.366
1166,0.754,36.22,15.432,31.704,23.696,5.767,5.481,13.488
1167,0.751,36.331,15.416,31.657,23.675,5.606,5.318,13.123
1168,0.748,36.447,15.466,31.618,23.672,5.482,5.317,13.079
1169,0.76,36.563,15.436,31.656,23.692,5.644,5.398,13.16
1170,0.764,36.315,15.424,31.675,23.686,5.645,5.399,13.12
1171,0.741,36.447,15.392,31.637,23.679,5.605,5.318,13.16
1172,0.747,36.602,15.47,31.656,23.685,5.523,5.398,13.242
1173,0.741,36.661,15.459,31.666,23.689,5.603,5.44,13.406
1174,0.738,36.345,15.432,31.656,23.686,5.564,5.44,13.448
1175,0.721,36.486,15.404,31.656,23.679,5.604,5.399,13.57
1176,0.728,36.621,15.47,31.656,23.682,5.564,5.358,13.449
1177,0.728,36.709,15.405,31.656,23.686,5.523,5.358,13.489
1178,0.731,36.461,15.416,31.666,23.682,5.563,5.399,13.49
1179,0.738,36.631,15.478,31.695,23.692,5.645,5.521,13.652
1180,0.734,36.728,15.397,31.647,23.689,5.483,5.4,13.369
1181,0.731,36.748,15.357,31.608,23.675,5.4,5.236,13.325
1182,0.731,36.423,15.419,31.646,23.689,5.562,5.438,13.406
1183,0.741,36.611,15.427,31.675,23.686,5.604,5.399,13.285
1184,0.738,36.69,15.396,31.647,23.679,5.401,5.358,13.203
1185,0.738,36.738,15.427,31.637,23.685,5.521,5.399,13.283
1186,0.747,36.509,15.455,31.665,23.689,5.644,5.48,13.203
1187,0.751,36.641,15.322,31.637,23.689,5.605,5.4,13.161
1188,0.748,36.776,15.419,31.627,23.686,5.564,5.44,13.202
1189,0.744,36.634,15.408,31.637,23.682,5.482,5.44,13.121
1190,0.741,36.498,15.439,31.627,23.686,5.481,5.359,13.079
1191,0.731,36.669,15.451,31.627,23.689,5.481,5.399,13.323
1192,0.744,36.825,15.381,31.675,23.699,5.644,5.521,13.61
1193,0.728,36.567,15.415,31.618,23.682,5.442,5.36,13.491
1194,0.712,36.632,15.408,31.617,23.672,5.399,5.358,13.652
1195,0.734,36.815,15.427,31.637,23.689,5.602,5.48,13.735
1196,0.738,36.922,15.424,31.637,23.686,5.482,5.44,13.776
1197,0.721,37.508,15.427,31.637,23.686,5.44,5.318,13.736
1198,0.728,37.686,15.447,31.694,23.689,5.521,5.398,13.736
1199,0.741,37.832,15.389,31.666,23.689,5.603,5.44,13.736
1200,0.734,37.881,15.454,31.666,23.686,5.564,5.44,13.695
1201,0.754,36.376,15.459,31.647,23.692,5.685,5.481,13.735
1202,0.744,36.495,15.401,31.637,23.682,5.524,5.44,13.533
1203,0.747,36.65,15.396,31.627,23.672,5.482,5.196,13.449
1204,0.767,36.738,15.447,31.656,23.689,5.562,5.438,13.57
1205,0.777,36.605,15.443,31.666,23.693,5.604,5.44,13.531
1206,0.761,36.709,15.408,31.647,23.682,5.482,5.318,13.449
1207,0.777,36.854,15.466,31.627,23.682,5.603,5.398,13.448
1208,0.787,36.941,15.342,31.656,23.692,5.604,5.48,13.408
1209,0.78,36.463,15.368,31.637,23.693,5.564,5.4,13.326
1210,0.777,36.621,15.446,31.646,23.689,5.685,5.44,13.284
1211,0.78,36.747,15.451,31.646,23.686,5.524,5.44,13.081
1212,0.777,36.797,15.439,31.627,23.679,5.522,5.318,13.201
1213,0.793,36.711,15.365,31.646,23.689,5.685,5.439,13.283
1214,0.803,36.882,15.47,31.656,23.689,5.727,5.521,13.284
1215,0.8,36.99,15.354,31.618,23.675,5.646,5.319,13.243
1216,0.807,37.02,15.411,31.637,23.682,5.605,5.439,13.324
1217,0.813,36.55,15.486,31.665,23.689,5.767,5.44,13.406
1218,0.807,36.718,15.389,31.647,23.686,5.687,5.481,13.367
1219,0.823,36.835,15.38,31.627,23.679,5.646,5.4,13.285
1220,0.82,37.21,15.404,31.646,23.689,5.727,5.399,13.243
1221,0.836,36.715,15.427,31.646,23.679,5.768,5.358,13.202
1222,0.846,36.873,15.439,31.637,23.685,5.687,5.399,13.202
1223,0.846,36.99,15.4,31.685,23.692,5.89,5.521,13.283
1224,0.846,36.693,15.392,31.647,23.686,5.729,5.319,13.162
1225,0.833,36.614,15.419,31.618,23.675,5.687,5.317,13.12
1226,0.836,36.824,15.42,31.656,23.682,5.849,5.439,13.201
1227,0.849,36.932,15.459,31.637,23.689,5.769,5.44,13.08
1228,0.833,36.703,15.432,31.608,23.679,5.728,5.359,12.957
1229,0.846,36.815,15.385,31.636,23.689,5.809,5.439,13.118
1230,0.843,36.989,15.4,31.646,23.689,5.81,5.44,13.12
1231,0.833,37.077,15.396,31.637,23.689,5.85,5.44,13.201
1232,0.823,36.483,15.416,31.637,23.689,5.851,5.481,13.405
1233,0.82,36.592,15.416,31.618,23.686,5.81,5.359,13.367
1234,0.817,36.747,15.396,31.627,23.682,5.769,5.317,13.447
1235,0.816,36.873,15.408,31.646,23.689,5.85,5.52,13.692
1236,0.833,36.664,15.427,31.656,23.699,5.973,5.522,13.735
1237,0.817,36.748,15.377,31.627,23.675,5.771,5.4,13.614
1238,0.803,36.902,15.443,31.608,23.682,5.809,5.358,13.694
1239,0.807,36.98,15.49,31.636,23.686,5.891,5.48,13.817
1240,0.807,36.559,15.381,31.637,23.686,5.892,5.44,13.818
1241,0.803,36.708,15.411,31.618,23.682,5.851,5.359,13.818
1242,0.807,36.863,15.365,31.637,23.689,5.891,5.399,13.777
1243,0.803,36.922,15.446,31.637,23.696,5.933,5.44,13.818
1244,0.807,36.635,15.404,31.704,23.686,5.933,5.44,13.859
1245,0.81,36.786,15.404,31.637,23.689,6.014,5.521,13.859
1246,0.79,36.883,15.466,31.618,23.679,5.974,5.4,13.818
1247,0.787,36.913,15.326,31.608,23.675,5.974,5.277,13.655
1248,0.806,36.578,15.423,31.617,23.682,6.015,5.52,13.776
1249,0.81,36.747,15.451,31.656,23.689,6.015,5.482,13.696
1250,0.787,36.825,15.451,31.599,23.679,5.893,5.4,13.654
1251,0.78,36.874,15.346,31.617,23.685,6.054,5.399,13.735
1252,0.787,36.577,15.38,31.656,23.682,6.097,5.48,13.858
1253,0.787,36.708,15.415,31.618,23.682,6.056,5.44,13.859
1254,0.784,36.815,15.408,31.617,23.692,6.015,5.44,13.9
1255,0.787,36.749,15.42,31.637,23.686,6.015,5.44,13.859
1256,0.8,36.528,15.427,31.608,23.686,6.015,5.359,13.778
1257,0.797,36.708,15.42,31.627,23.682,6.096,5.48,13.818
1258,0.781,36.854,15.451,31.665,23.699,6.178,5.562,13.94
1259,0.774,36.395,15.428,31.608,23.675,5.976,5.36,13.575
1260,0.777,36.409,15.447,31.598,23.679,5.974,5.399,13.571
1261,0.806,36.573,15.463,31.617,23.692,6.096,5.44,13.531
1262,0.8,36.67,15.424,31.627,23.686,6.056,5.399,13.49
1263,0.803,36.431,15.392,31.608,23.679,5.893,5.358,13.367
1264,0.813,36.582,15.443,31.608,23.685,6.014,5.399,13.366
1265,0.807,36.709,15.412,31.617,23.692,6.056,5.399,13.285
1266,0.803,36.825,15.423,31.617,23.686,6.056,5.399,13.243
1267,0.813,36.51,15.463,31.627,23.692,6.137,5.521,13.284
1268,0.794,36.66,15.397,31.627,23.686,5.976,5.4,13.081
1269,0.777,36.776,15.396,31.589,23.679,5.852,5.277,12.957
1270,0.79,36.883,15.419,31.608,23.689,6.054,5.357,13.078
1271,0.787,36.376,15.447,31.636,23.689,6.056,5.358,13.079
1272,0.774,36.467,15.455,31.598,23.679,6.015,5.317,12.957
1273,0.767,36.621,15.412,31.608,23.685,6.056,5.398,13.159
1274,0.764,36.699,15.466,31.617,23.696,6.056,5.44,13.202
1275,0.754,36.365,15.412,31.608,23.686,6.137,5.399,13.283
1276,0.738,36.505,15.412,31.608,23.682,6.057,5.318,13.243
1277,0.744,36.631,15.459,31.617,23.682,6.097,5.398,13.243
1278,0.741,36.709,15.373,31.617,23.682,6.097,5.399,13.324
1279,0.734,36.355,15.376,31.627,23.689,6.138,5.44,13.284
1280,0.734,36.524,15.396,31.637,23.693,6.26,5.521,13.447
1281,0.731,36.622,15.478,31.589,23.686,6.099,5.36,13.204
1282,0.725,36.661,15.444,31.579,23.675,6.016,5.317,13.039
1283,0.741,36.326,15.396,31.617,23.685,6.218,5.358,13.241
1284,0.754,36.514,15.505,31.617,23.696,6.22,5.399,13.202
1285,0.731,36.593,15.409,31.598,23.682,6.139,5.318,13.039
1286,0.725,36.67,15.412,31.608,23.686,6.179,5.317,13.119
1287,0.728,36.288,15.451,31.627,23.689,6.22,5.48,13.079
1288,0.725,36.437,15.365,31.608,23.686,6.18,5.359,13.119
1289,0.724,36.554,15.415,31.598,23.686,6.098,5.358,13.039
1290,0.724,36.382,15.412,31.617,23.682,6.138,5.399,13.038
1291,0.731,36.323,15.435,31.598,23.679,6.138,5.318,13.038
1292,0.718,36.466,15.42,31.617,23.685,6.138,5.398,13.241
1293,0.715,36.602,15.412,31.646,23.689,6.26,5.521,13.406
1294,0.708,36.143,15.478,31.589,23.682,6.058,5.36,13.204
1295,0.695,36.177,15.307,31.588,23.672,5.975,5.277,13.243
1296,0.695,36.388,15.415,31.636,23.692,6.137,5.438,13.365
1297,0.685,36.476,15.439,31.627,23.686,6.098,5.399,13.325
1298,0.682,36.257,15.412,31.589,23.679,6.056,5.318,13.203
1299,0.695,36.418,15.365,31.617,23.685,6.015,5.317,13.202
1300,0.701,36.553,15.431,31.617,23.686,6.056,5.398,13.243
1301,0.714,36.651,15.455,31.608,23.686,6.056,5.44,13.121
1302,0.708,36.211,15.428,31.617,23.692,6.178,5.481,13.242
1303,0.711,36.331,15.431,31.646,23.679,5.976,5.318,13.08
1304,0.695,36.476,15.377,31.599,23.672,5.852,5.236,12.997
1305,0.711,36.564,15.443,31.617,23.675,6.054,5.438,13.241
1306,0.721,35.96,15.393,31.656,23.692,6.137,5.481,13.324
1307,0.705,36.079,15.431,31.589,23.682,5.976,5.318,13.203
1308,0.705,36.215,15.443,31.608,23.686,5.974,5.398,13.365
1309,0.721,36.302,15.35,31.617,23.689,5.974,5.399,13.366
1310,0.698,36.13,15.411,31.608,23.689,5.974,5.358,13.529
1311,0.695,36.292,15.427,31.608,23.689,5.893,5.317,13.449
1312,0.688,36.408,15.455,31.589,23.679,5.973,5.236,13.53
1313,0.688,36.477,15.436,31.617,23.685,5.893,5.397,13.653
1314,0.682,36.017,15.381,31.627,23.686,5.973,5.399,13.694
1315,0.685,36.195,15.458,31.637,23.696,6.096,5.48,13.898
1316,0.682,36.302,15.377,31.598,23.686,5.894,5.278,13.656
1317,0.669,36.303,15.404,31.608,23.668,5.811,5.316,13.613
1318,0.675,36.178,15.388,31.617,23.689,5.972,5.398,13.857
1319,0.695,36.359,15.451,31.617,23.693,5.933,5.399,13.696
1320,0.685,36.419,15.381,31.589,23.686,5.852,5.277,13.573
1321,0.688,36.515,15.365,31.627,23.682,5.891,5.357,13.612
1322,0.705,36.056,15.403,31.618,23.689,5.933,5.439,13.775
1323,0.689,36.195,15.412,31.608,23.686,5.933,5.359,13.696
1324,0.698,36.302,15.431,31.617,23.686,5.811,5.358,13.695
1325,0.708,36.025,15.365,31.627,23.682,5.85,5.358,13.735
1326,0.718,36.022,15.442,31.618,23.682,5.81,5.358,13.695
1327,0.721,36.195,15.326,31.637,23.689,5.891,5.317,13.695
1328,0.721,36.312,15.426,31.627,23.693,5.973,5.52,13.857
1329,0.715,35.872,15.459,31.598,23.682,5.771,5.319,13.615
1330,0.698,35.973,15.424,31.579,23.675,5.728,5.276,13.572
1331,0.701,36.146,15.381,31.627,23.679,5.89,5.357,13.816
1332,0.714,36.301,15.353,31.665,23.685,5.851,5.317,13.859
1333,0.692,36.044,15.368,31.589,23.682,5.688,5.276,13.818
1334,0.698,36.176,15.357,31.598,23.682,5.768,5.316,13.899
1335,0.695,36.359,15.403,31.617,23.689,5.891,5.398,13.981
1336,0.698,36.457,15.439,31.589,23.686,5.77,5.358,13.942
1337,0.679,35.883,15.346,31.598,23.679,5.768,5.399,13.9
1338,0.691,36.059,15.392,31.608,23.682,5.768,5.318,13.859
1339,0.698,36.195,15.38,31.608,23.682,5.768,5.398,13.859
1340,0.701,36.283,15.45,31.608,23.686,5.809,5.399,13.818
1341,0.721,35.823,15.432,31.617,23.692,5.891,5.521,13.777
1342,0.711,35.953,15.369,31.579,23.682,5.729,5.278,13.614
1343,0.711,36.098,15.407,31.579,23.675,5.646,5.235,13.409
1344,0.721,36.167,15.42,31.598,23.692,5.808,5.397,13.529
1345,0.724,35.976,15.439,31.617,23.686,5.81,5.399,13.531
1346,0.715,36.079,15.373,31.589,23.675,5.728,5.277,13.368
1347,0.728,36.243,15.431,31.588,23.682,5.687,5.316,13.407
1348,0.734,36.274,15.381,31.617,23.686,5.768,5.317,13.326
1349,0.721,36.063,15.408,31.598,23.686,5.687,5.358,13.366
1350,0.724,36.214,15.459,31.598,23.686,5.727,5.317,13.366
1351,0.724,36.35,15.432,31.588,23.679,5.727,5.317,13.285
1352,0.731,36.371,15.435,31.598,23.685,5.727,5.317,13.243
1353,0.738,35.719,15.365,31.608,23.686,5.727,5.317,13.365
1354,0.754,35.894,15.501,31.627,23.696,5.85,5.439,13.529
1355,0.751,35.992,15.397,31.608,23.682,5.648,5.318,13.368
1356,0.767,35.926,15.376,31.56,23.679,5.645,5.317,13.366
1357,0.809,35.897,15.443,31.598,23.685,5.767,5.358,13.447
1358,0.833,36.05,15.346,31.598,23.686,5.647,5.399,13.408
1359,0.872,36.138,15.388,31.579,23.679,5.645,5.277,13.245
1360,0.898,35.793,15.396,31.598,23.689,5.686,5.316,13.243
1361,0.921,35.857,15.427,31.617,23.693,5.727,5.358,13.243
1362,0.954,35.982,15.392,31.589,23.686,5.727,5.317,13.202
1363,1.0,36.108,15.4,31.588,23.689,5.687,5.358,13.161
1364,1.013,35.764,15.474,31.588,23.686,5.605,5.317,13.08
1365,1.03,35.914,15.377,31.579,23.682,5.604,5.317,12.997
1366,1.063,36.05,15.407,31.607,23.689,5.686,5.358,13.078
1367,1.089,36.195,15.416,31.617,23.696,5.768,5.48,13.201
1368,1.07,35.717,15.279,31.598,23.682,5.606,5.359,12.958
1369,1.076,35.846,15.395,31.569,23.679,5.523,5.317,12.996
1370,1.102,36.04,15.396,31.598,23.689,5.644,5.398,13.119
1371,1.115,36.109,15.427,31.579,23.682,5.605,5.358,13.039
1372,1.122,35.735,15.365,31.588,23.682,5.564,5.317,13.078
1373,1.129,35.904,15.4,31.588,23.682,5.563,5.317,13.119
1374,1.135,36.05,15.462,31.598,23.689,5.563,5.398,13.404
1375,1.119,36.138,15.436,31.665,23.689,5.604,5.358,13.489
1376,1.145,35.736,15.373,31.58,23.693,5.604,5.439,13.652
1377,1.148,35.885,15.439,31.588,23.679,5.564,5.318,13.491
1378,1.161,36.03,15.357,31.588,23.679,5.441,5.276,13.53
1379,1.184,36.089,15.376,31.588,23.689,5.603,5.357,13.693
1380,1.233,36.032,15.447,31.627,23.693,5.686,5.48,13.735
1381,1.253,36.128,15.389,31.57,23.686,5.564,5.278,13.533
1382,1.263,36.244,15.404,31.579,23.682,5.563,5.357,13.693
1383,1.293,36.322,15.412,31.607,23.692,5.685,5.439,13.735
1384,1.306,35.622,15.451,31.598,23.686,5.687,5.44,13.695
1385,1.332,35.769,15.404,31.598,23.679,5.646,5.277,13.613
1386,1.293,35.905,15.408,31.588,23.685,5.727,5.357,13.613
1387,1.26,36.289,15.462,31.598,23.689,5.727,5.399,13.613
1388,1.201,35.689,15.33,31.588,23.686,5.85,5.399,13.572
1389,1.149,35.856,15.403,31.598,23.692,5.932,5.44,13.694
1390,1.067,35.944,15.396,31.588,23.679,5.77,5.318,13.573
1391,0.985,35.791,15.408,31.56,23.679,5.728,5.195,13.571
1392,0.883,35.818,15.427,31.598,23.689,5.931,5.397,13.775
1393,0.798,35.991,15.307,31.617,23.696,6.014,5.358,13.818
1394,0.657,36.051,15.399,31.569,23.679,5.812,5.277,13.777
1395,0.516,35.591,15.365,31.569,23.689,5.891,5.316,13.899
1396,0.355,35.692,15.415,31.598,23.693,5.973,5.317,14.022
1397,0.217,35.817,15.388,31.598,23.689,5.933,5.358,14.105
1398,0.134,35.924,15.419,31.579,23.682,5.892,5.317,14.105
1399,0.065,35.686,15.384,31.579,23.686,5.892,5.317,14.105
1400,0.006,35.846,15.4,31.588,23.675,5.892,5.236,14.187
1401,-0.05,35.982,15.443,31.588,23.689,5.973,5.357,14.391
1402,-0.113,36.108,15.424,31.608,23.696,6.055,5.439,14.718
1403,-0.188,35.659,15.443,31.56,23.675,5.853,5.196,14.803
1404,-0.244,35.798,15.373,31.559,23.679,5.851,5.316,15.129
1405,-0.29,35.972,15.431,31.579,23.685,5.973,5.358,15.417
1406,-0.349,36.06,15.396,31.579,23.686,5.893,5.358,15.542
1407,-0.382,35.447,15.349,31.569,23.682,5.811,5.317,15.543
1408,-0.402,35.633,15.423,31.579,23.682,5.891,5.317,15.746
1409,-0.422,35.779,15.431,31.598,23.689,5.933,5.317,15.992
1410,-0.451,35.838,15.381,31.588,23.679,5.811,5.398,16.157
1411,-0.474,35.771,15.396,31.598,23.696,5.891,5.399,16.24
1412,-0.507,35.914,15.388,31.579,23.679,5.77,5.236,16.241
1413,-0.524,36.002,15.404,31.56,23.675,5.728,5.235,16.241
1414,-0.498,36.089,15.416,31.655,23.689,5.809,5.357,16.485
1415,-0.459,35.716,15.396,31.599,23.689,5.891,5.358,16.528
1416,-0.436,35.846,15.431,31.55,23.679,5.811,5.236,16.488
1417,-0.403,35.963,15.248,31.607,23.685,5.769,5.316,16.487
1418,-0.331,36.031,15.394,31.598,23.686,5.809,5.358,16.691
1419,-0.246,35.754,15.435,31.579,23.682,5.85,5.358,16.693
1420,-0.18,35.876,15.42,31.569,23.682,5.769,5.317,16.855
1421,-0.107,36.03,15.373,31.579,23.682,5.728,5.236,16.938
1422,-0.061,35.993,15.415,31.598,23.686,5.768,5.235,17.061
1423,0.027,35.725,15.381,31.579,23.679,5.85,5.357,17.225
1424,0.109,35.894,15.4,31.598,23.696,5.973,5.48,17.511
1425,0.162,35.992,15.419,31.569,23.679,5.73,5.278,17.433
1426,0.215,35.533,15.396,31.559,23.672,5.687,5.195,17.595
1427,0.306,35.557,15.369,31.579,23.685,5.89,5.356,17.84
1428,0.366,35.739,15.349,31.569,23.689,5.892,5.358,17.802
1429,0.392,35.828,15.396,31.559,23.679,5.77,5.277,17.761
1430,0.422,35.685,15.439,31.569,23.685,5.809,5.235,17.842
1431,0.464,35.837,15.416,31.588,23.692,5.932,5.357,17.802
1432,0.497,35.972,15.357,31.56,23.689,5.892,5.317,17.72
1433,0.527,36.07,15.368,31.559,23.686,5.851,5.358,17.679
1434,0.566,35.524,15.431,31.569,23.682,5.891,5.317,17.597
1435,0.586,35.691,15.377,31.569,23.689,5.892,5.358,17.556
1436,0.606,35.837,15.411,31.569,23.689,5.892,5.399,17.474
1437,0.626,35.934,15.412,31.588,23.696,6.014,5.44,17.595
1438,0.642,35.513,15.392,31.608,23.686,5.852,5.277,17.352
1439,0.662,35.653,15.384,31.55,23.675,5.688,5.235,17.147
1440,0.675,35.807,15.431,31.559,23.689,5.971,5.397,17.145
1441,0.704,35.915,15.459,31.579,23.693,6.055,5.399,16.982
1442,0.708,35.59,15.404,31.531,23.682,5.731,5.155,16.736
1443,0.724,35.759,15.341,31.559,23.682,5.809,5.315,16.571
1444,0.747,35.914,15.477,31.569,23.689,5.932,5.398,16.488
1445,0.754,35.964,15.385,31.579,23.693,5.892,5.399,16.284
1446,0.764,35.715,15.396,31.56,23.682,5.77,5.236,15.957
1447,0.787,35.875,15.416,31.559,23.682,5.809,5.316,15.831
1448,0.797,36.021,15.248,31.579,23.686,5.891,5.398,15.586
1449,0.803,36.08,15.383,31.569,23.689,5.892,5.358,15.625
1450,0.81,35.63,15.408,31.569,23.689,5.933,5.439,15.706
1451,0.81,35.788,15.427,31.569,23.682,5.811,5.318,15.544
1452,0.81,35.914,15.369,31.54,23.675,5.769,5.195,15.38
1453,0.81,35.944,15.38,31.578,23.685,5.891,5.356,15.46
1454,0.81,35.667,15.478,31.588,23.699,6.014,5.48,15.583
1455,0.81,35.779,15.409,31.55,23.682,5.812,5.318,15.421
1456,0.813,35.876,15.396,31.54,23.679,5.769,5.317,15.379
1457,0.82,35.743,15.431,31.559,23.689,5.85,5.398,15.501
1458,0.823,35.674,15.31,31.559,23.689,5.851,5.358,15.42
1459,0.82,35.789,15.333,31.559,23.682,5.769,5.277,15.298
1460,0.82,35.924,15.399,31.569,23.686,5.891,5.316,15.337
1461,0.846,35.666,15.451,31.579,23.689,5.811,5.439,15.256
1462,0.853,35.74,15.354,31.56,23.682,5.891,5.399,15.215
1463,0.859,35.875,15.364,31.569,23.689,5.811,5.44,15.092
1464,0.862,35.992,15.4,31.559,23.686,5.81,5.318,15.01
1465,0.869,35.581,15.408,31.636,23.682,5.728,5.276,14.887
1466,0.866,35.711,15.377,31.56,23.686,5.85,5.316,14.886
1467,0.889,35.856,15.458,31.569,23.692,5.891,5.48,14.845
1468,0.879,35.934,15.346,31.559,23.686,5.851,5.278,14.519
1469,0.882,35.551,15.345,31.531,23.672,5.729,5.235,14.435
1470,0.885,35.72,15.431,31.569,23.696,5.85,5.397,14.434
1471,0.882,35.875,15.392,31.559,23.686,5.891,5.399,14.393
1472,0.859,35.934,15.404,31.559,23.679,5.811,5.277,14.312
1473,0.866,35.59,15.271,31.559,23.685,5.769,5.316,14.392
1474,0.866,35.778,15.379,31.579,23.686,5.931,5.398,14.474
1475,0.866,35.885,15.415,31.55,23.682,5.811,5.399,14.475
1476,0.866,35.963,15.408,31.578,23.686,5.85,5.358,14.516
1477,0.859,35.59,15.412,31.569,23.686,5.769,5.317,14.435
1478,0.862,35.74,15.4,31.569,23.686,5.768,5.317,14.353
1479,0.872,35.875,15.384,31.569,23.686,5.931,5.439,14.433
1480,0.885,35.973,15.404,31.626,23.689,6.014,5.481,14.475
1481,0.885,35.552,15.384,31.55,23.682,5.812,5.237,14.272
1482,0.882,35.691,15.404,31.54,23.679,5.769,5.316,14.27
1483,0.905,35.856,15.4,31.559,23.689,5.85,5.439,14.31
1484,0.905,35.896,15.384,31.55,23.682,5.891,5.359,14.311
1485,0.889,35.58,15.376,31.559,23.679,5.729,5.317,14.189
1486,0.899,35.749,15.302,31.559,23.685,5.809,5.358,14.188
1487,0.918,35.895,15.356,31.559,23.689,5.81,5.439,14.106
1488,0.915,36.059,15.427,31.559,23.693,5.891,5.318,14.105
1489,0.909,35.533,15.428,31.579,23.693,5.851,5.439,14.065
1490,0.908,35.672,15.295,31.56,23.682,5.81,5.318,13.983
1491,0.899,35.798,15.391,31.54,23.679,5.728,5.317,13.982
1492,0.902,35.56,15.4,31.569,23.682,5.85,5.358,14.185
1493,0.908,35.576,15.431,31.588,23.696,5.973,5.521,14.35
1494,0.892,35.673,15.392,31.55,23.679,5.73,5.319,14.23
1495,0.892,35.789,15.392,31.55,23.685,5.85,5.398,14.269
1496,0.899,35.857,15.388,31.569,23.689,5.891,5.44,14.351
1497,0.895,35.982,15.353,31.579,23.689,5.811,5.44,14.311
1498,0.899,36.108,15.388,31.569,23.682,5.81,5.399,14.27
1499,0.908,36.224,15.4,31.559,23.689,5.85,5.399,14.188
1500,0.915,35.315,15.388,31.569,23.689,5.891,5.318,14.147
1501,0.935,35.449,15.33,31.569,23.686,5.892,5.439,14.106
1502,0.938,35.623,15.419,31.588,23.696,6.095,5.562,14.146
1503,0.935,35.683,15.384,31.531,23.675,5.894,5.36,13.902
1504,0.935,35.443,15.369,31.521,23.679,5.892,5.317,13.9
1505,0.945,35.652,15.376,31.568,23.685,5.973,5.439,13.981
1506,0.951,35.779,15.435,31.55,23.679,5.893,5.399,13.86
1507,0.951,35.857,15.381,31.54,23.682,5.892,5.318,13.696
1508,0.967,35.503,15.365,31.559,23.682,5.973,5.398,13.695
1509,0.971,35.672,15.431,31.579,23.689,5.974,5.399,13.695
1510,0.961,35.798,15.357,31.569,23.689,6.015,5.399,13.654
1511,0.958,35.876,15.36,31.559,23.696,6.096,5.48,13.694
1512,0.958,35.503,15.251,31.531,23.679,5.935,5.237,13.573
1513,0.951,35.662,15.375,31.53,23.679,5.811,5.235,13.531
1514,0.948,35.808,15.419,31.559,23.685,6.013,5.397,13.734
1515,0.971,35.915,15.381,31.588,23.696,6.056,5.48,13.776
1516,0.955,35.503,15.408,31.55,23.679,5.893,5.318,13.696
1517,0.945,35.672,15.357,31.559,23.689,6.014,5.439,13.817
1518,0.958,35.808,15.376,31.569,23.689,5.974,5.399,13.818
1519,0.954,35.847,15.384,31.54,23.689,5.893,5.399,13.655
1520,0.961,35.368,15.392,31.54,23.682,5.933,5.358,13.694
1521,0.971,35.546,15.435,31.54,23.686,5.933,5.399,13.695
1522,0.984,35.672,15.353,31.54,23.686,5.933,5.358,13.613
1523,0.987,35.673,15.364,31.55,23.686,5.974,5.399,13.613
1524,1.004,35.597,15.396,31.578,23.699,6.055,5.643,13.694
1525,0.991,35.73,15.38,31.54,23.679,5.853,5.32,13.492
1526,0.991,35.808,15.396,31.521,23.679,5.729,5.276,13.449
1527,1.023,35.493,15.388,31.549,23.685,5.89,5.438,13.448
1528,1.02,35.566,15.38,31.559,23.689,5.933,5.399,13.408
1529,1.004,35.672,15.349,31.54,23.682,5.852,5.399,13.367
1530,1.017,35.817,15.454,31.53,23.679,5.851,5.399,13.447
1531,1.017,35.56,15.436,31.549,23.692,5.891,5.358,13.53
1532,1.007,35.672,15.353,31.54,23.693,5.892,5.399,13.571
1533,1.007,35.817,15.384,31.54,23.686,5.973,5.44,13.612
1534,1.004,35.905,15.47,31.521,23.686,5.811,5.359,13.572
1535,1.01,35.446,15.389,31.54,23.682,5.85,5.358,13.612
1536,1.007,35.585,15.38,31.55,23.686,5.973,5.399,13.735
1537,1.02,35.759,15.443,31.578,23.696,6.055,5.521,13.776
1538,1.007,35.818,15.279,31.54,23.675,5.812,5.319,13.614
1539,1.02,35.454,15.367,31.521,23.675,5.81,5.317,13.572
1540,1.036,35.652,15.423,31.568,23.685,5.891,5.48,13.571
1541,1.05,35.788,15.42,31.559,23.679,5.973,5.4,13.531
1542,1.046,35.809,15.42,31.54,23.685,5.771,5.318,13.408
1543,1.053,35.301,15.388,31.55,23.682,5.85,5.398,13.407
1544,1.053,35.468,15.435,31.559,23.689,6.013,5.399,13.448
1545,1.06,35.633,15.311,31.559,23.682,5.893,5.44,13.408
1546,1.069,35.673,15.391,31.55,23.686,5.851,5.399,13.326
1547,1.089,35.52,15.396,31.54,23.682,5.81,5.358,13.244
1548,1.092,35.691,15.345,31.55,23.686,5.81,5.317,13.121
1549,1.089,35.817,15.388,31.55,23.686,5.81,5.398,13.282
1550,1.102,35.876,15.392,31.569,23.696,6.013,5.44,13.325
1551,1.076,35.445,15.427,31.54,23.686,5.771,5.318,13.081
1552,1.089,35.585,15.373,31.511,23.679,5.687,5.317,13.119
1553,1.096,35.74,15.322,31.568,23.685,5.89,5.48,13.364
1554,1.096,36.115,15.376,31.55,23.686,5.892,5.44,13.325
1555,1.086,35.515,15.384,31.521,23.679,5.811,5.277,13.284
1556,1.099,35.701,15.435,31.559,23.689,5.891,5.398,13.406
1557,1.099,35.827,15.369,31.54,23.686,5.973,5.399,13.448
1558,1.102,35.56,15.435,31.559,23.689,5.852,5.48,13.489
1559,1.102,35.509,15.334,31.531,23.682,5.81,5.4,13.49
1560,1.122,35.653,15.395,31.53,23.682,5.81,5.318,13.408
1561,1.135,35.788,15.388,31.549,23.689,5.85,5.398,13.448
1562,1.145,35.416,15.369,31.54,23.686,5.891,5.399,13.611
1563,1.161,35.508,15.419,31.578,23.699,6.014,5.521,13.857
1564,1.155,35.633,15.318,31.55,23.686,5.852,5.319,13.778
1565,1.161,35.731,15.411,31.53,23.675,5.769,5.317,13.899
1566,1.171,35.511,15.373,31.549,23.685,5.891,5.398,14.103
1567,1.197,35.662,15.396,31.54,23.686,5.851,5.399,14.065
1568,1.188,35.76,15.396,31.521,23.679,5.81,5.318,13.983
1569,1.21,35.885,15.455,31.54,23.682,5.85,5.398,13.982
1570,1.207,35.436,15.389,31.559,23.689,5.973,5.399,14.104
1571,1.201,35.566,15.357,31.559,23.689,5.893,5.358,14.024
1572,1.214,35.711,15.384,31.54,23.689,5.973,5.439,14.105
1573,1.217,35.808,15.353,31.54,23.686,5.852,5.359,14.065
1574,1.211,35.416,15.353,31.521,23.682,5.891,5.317,13.983
1575,1.211,35.585,15.372,31.568,23.689,5.892,5.439,14.063
1576,1.207,35.73,15.427,31.569,23.696,6.095,5.481,14.186
1577,1.211,35.78,15.388,31.54,23.679,5.853,5.359,13.944
1578,1.214,35.627,15.372,31.521,23.682,5.851,5.358,13.982
1579,1.247,35.807,15.454,31.559,23.686,5.973,5.399,14.023
1580,1.244,35.934,15.338,31.55,23.689,5.893,5.399,14.023
1581,1.263,35.964,15.31,31.521,23.675,5.851,5.277,13.861
1582,1.26,35.743,15.426,31.54,23.679,5.891,5.357,13.859
1583,1.276,35.895,15.373,31.54,23.682,5.892,5.358,13.859
1584,1.286,36.03,15.404,31.54,23.682,5.892,5.358,13.9
1585,1.286,36.061,15.345,31.55,23.699,5.933,5.439,13.941
1586,1.293,35.946,15.411,31.521,23.686,5.811,5.318,13.738
1587,1.312,36.117,15.353,31.521,23.672,5.769,5.236,13.573
1588,1.303,36.244,15.392,31.54,23.692,5.85,5.357,13.734
1589,1.319,36.283,15.415,31.569,23.699,5.932,5.439,13.817
1590,1.303,35.948,15.357,31.531,23.675,5.811,5.318,13.655
1591,1.293,36.098,15.357,31.521,23.685,5.769,5.317,13.816
1592,1.309,36.253,15.372,31.559,23.686,5.891,5.398,13.859
1593,1.309,36.197,15.388,31.54,23.679,5.77,5.358,13.9
1594,1.306,36.244,15.372,31.511,23.682,5.728,5.317,13.859
1595,1.303,36.408,15.388,31.54,23.679,5.768,5.317,13.9
1596,1.319,36.534,15.376,31.54,23.689,5.972,5.48,13.859
1597,1.306,36.296,15.349,31.559,23.686,5.811,5.359,13.9
1598,1.303,36.447,15.353,31.559,23.692,5.85,5.439,13.941
1599,1.309,36.583,15.345,31.54,23.686,5.729,5.318,13.697
1600,1.316,36.651,15.403,31.511,23.682,5.727,5.236,13.613
1601,1.342,36.479,15.396,31.54,23.689,5.809,5.397,13.694
1602,1.345,36.64,15.345,31.54,23.682,5.769,5.358,13.613
1603,1.326,36.748,15.364,31.521,23.672,5.728,5.277,13.45
1604,1.335,36.825,15.427,31.53,23.689,5.687,5.316,13.489
1605,1.336,36.836,15.377,31.54,23.699,5.727,5.398,13.49
1606,1.342,36.97,15.392,31.54,23.686,5.727,5.358,13.49
1607,1.336,37.077,15.412,31.521,23.682,5.727,5.399,13.449
1608,1.345,37.183,15.357,31.549,23.686,5.687,5.358,13.245
1609,1.345,37.021,15.36,31.53,23.686,5.768,5.317,13.202
1610,1.342,37.173,15.372,31.53,23.686,5.809,5.398,13.283
1611,1.342,37.328,15.415,31.559,23.703,5.85,5.48,13.325
1612,1.336,37.33,15.342,31.521,23.689,5.729,5.359,13.203
1613,1.323,37.32,15.341,31.521,23.679,5.687,5.358,13.202
1614,1.316,37.464,15.462,31.53,23.692,5.849,5.48,13.283
1615,1.303,37.609,15.354,31.597,23.686,5.769,5.4,13.284
1616,1.303,37.639,15.333,31.512,23.679,5.687,5.318,13.203
1617,1.299,37.688,15.395,31.53,23.692,5.727,5.358,13.202
1618,1.299,37.842,15.341,31.54,23.686,5.768,5.358,13.243
1619,1.299,37.958,15.341,31.55,23.686,5.809,5.358,13.243
1620,1.293,37.969,15.427,31.54,23.696,5.85,5.439,13.243
1621,1.286,37.806,15.377,31.521,23.682,5.729,5.318,12.999
1622,1.28,37.939,15.396,31.511,23.675,5.565,5.236,12.996
1623,1.293,38.074,15.38,31.559,23.689,5.766,5.397,13.119
1624,1.303,38.047,15.349,31.559,23.693,5.809,5.44,13.12
1625,1.283,37.931,15.349,31.511,23.679,5.728,5.318,13.039
1626,1.29,38.093,15.317,31.53,23.685,5.809,5.358,13.038
1627,1.293,38.21,15.419,31.521,23.692,5.81,5.399,13.038
1628,1.273,38.182,15.384,31.53,23.689,5.769,5.44,13.038
1629,1.267,38.288,15.318,31.502,23.686,5.768,5.359,13.078
1630,1.267,38.432,15.341,31.52,23.686,5.687,5.358,12.997
1631,1.263,38.539,15.368,31.521,23.689,5.768,5.358,13.078
1632,1.247,38.262,15.396,31.53,23.689,5.768,5.399,13.201
1633,1.231,38.403,15.419,31.549,23.693,5.891,5.562,13.405
1634,1.211,38.491,15.369,31.511,23.686,5.811,5.36,13.326
1635,1.181,38.588,15.353,31.482,23.679,5.688,5.358,13.325
1636,1.201,38.455,15.349,31.53,23.682,5.849,5.358,13.528
1637,1.194,38.597,15.364,31.53,23.686,5.851,5.358,13.693
1638,1.168,38.704,15.388,31.502,23.675,5.81,5.358,13.573
1639,1.171,38.791,15.38,31.53,23.679,5.81,5.399,13.694
1640,1.168,38.361,15.271,31.53,23.689,5.891,5.44,13.695
1641,1.165,38.481,15.321,31.511,23.693,5.892,5.521,13.613
1642,1.155,38.607,15.391,31.53,23.686,5.892,5.482,13.613
1643,1.155,38.675,15.4,31.521,23.682,5.811,5.359,13.531
1644,1.145,38.599,15.377,31.501,23.679,5.81,5.317,13.449
1645,1.135,38.762,15.361,31.52,23.689,5.85,5.439,13.57
1646,1.142,38.907,15.368,31.549,23.699,5.973,5.521,13.612
1647,1.122,38.918,15.357,31.502,23.689,5.771,5.319,13.409
1648,1.116,39.666,15.399,31.492,23.679,5.728,5.358,13.448
1649,1.119,39.827,15.431,31.52,23.692,5.809,5.439,13.448
1650,1.109,39.925,15.353,31.511,23.689,5.85,5.399,13.408
1651,1.086,39.954,15.317,31.521,23.679,5.81,5.358,13.326
1652,1.073,37.883,15.337,31.501,23.685,5.81,5.317,13.366
1653,1.056,38.054,15.391,31.501,23.682,5.769,5.398,13.529
1654,1.043,38.19,15.302,31.501,23.682,5.891,5.44,13.571
1655,1.04,38.652,15.348,31.501,23.686,5.851,5.521,13.612
1656,1.027,38.705,15.415,31.501,23.686,5.81,5.319,13.572
1657,1.007,38.859,15.303,31.501,23.675,5.688,5.317,13.531
1658,1.001,39.014,15.379,31.511,23.692,5.809,5.398,13.693
1659,1.004,38.564,15.439,31.549,23.696,5.85,5.399,13.613
1660,0.984,38.416,15.412,31.502,23.679,5.688,5.318,13.572
1661,0.994,38.578,15.361,31.52,23.682,5.768,5.358,13.531
1662,1.004,38.685,15.337,31.521,23.689,5.768,5.399,13.571
1663,0.984,38.542,15.349,31.521,23.686,5.809,5.399,13.531
1664,0.974,38.636,15.349,31.501,23.682,5.647,5.318,13.531
1665,0.981,38.81,15.372,31.511,23.682,5.767,5.358,13.449
1666,0.974,38.879,15.388,31.53,23.686,5.768,5.358,13.408
1667,0.977,38.429,15.357,31.511,23.689,5.809,5.317,13.489
1668,0.971,38.568,15.376,31.53,23.693,5.81,5.48,13.571
1669,0.958,38.685,15.361,31.492,23.686,5.688,5.359,13.49
1670,0.941,38.753,15.392,31.472,23.679,5.687,5.236,13.53
1671,0.922,38.514,15.4,31.511,23.692,5.687,5.357,13.815
1672,0.931,38.684,15.408,31.521,23.689,5.768,5.358,13.899
1673,0.909,38.762,15.4,31.501,23.686,5.728,5.236,13.981
1674,0.895,38.821,15.431,31.501,23.686,5.687,5.357,14.023
1675,0.889,38.284,15.385,31.511,23.686,5.768,5.358,14.105
1676,0.885,38.413,15.33,31.501,23.686,5.768,5.399,14.146
1677,0.872,38.53,15.403,31.501,23.682,5.728,5.358,14.106
1678,0.872,38.627,15.248,31.511,23.689,5.727,5.277,14.065
1679,0.879,38.244,15.332,31.511,23.686,5.768,5.357,14.024
1680,0.876,38.394,15.349,31.53,23.686,5.809,5.399,13.983
1681,0.866,38.52,15.423,31.54,23.699,5.81,5.521,13.982
1682,0.856,38.55,15.396,31.492,23.679,5.728,5.36,13.657
1683,0.84,38.205,15.365,31.482,23.672,5.687,5.236,13.532
1684,0.862,38.374,15.466,31.511,23.685,5.809,5.438,13.612
1685,0.875,38.51,15.256,31.53,23.692,5.81,5.399,13.572
1686,0.859,38.502,15.359,31.502,23.675,5.728,5.236,13.409
1687,0.862,38.176,15.403,31.492,23.679,5.768,5.397,13.448
1688,0.872,38.326,15.341,31.511,23.689,5.85,5.44,13.53
1689,0.856,38.442,15.352,31.511,23.686,5.851,5.399,13.571
1690,0.853,38.319,15.341,31.501,23.686,5.729,5.358,13.571
1691,0.846,38.097,15.427,31.501,23.686,5.809,5.358,13.653
1692,0.843,38.248,15.361,31.53,23.682,5.81,5.399,13.776
1693,0.833,38.355,15.341,31.511,23.689,5.81,5.44,14.061
1694,0.826,38.069,15.384,31.54,23.696,5.891,5.481,14.39
1695,0.817,38.056,15.396,31.502,23.682,5.77,5.359,14.352
1696,0.807,38.19,15.353,31.492,23.675,5.687,5.277,14.474
1697,0.81,38.336,15.403,31.501,23.689,5.849,5.398,14.678
1698,0.82,37.886,15.412,31.52,23.686,5.891,5.358,14.721
1699,0.81,37.968,15.318,31.501,23.682,5.729,5.277,14.64
1700,0.807,38.113,15.376,31.578,23.682,5.809,5.398,14.68
1701,0.816,38.249,15.341,31.521,23.692,5.891,5.399,14.68
1702,0.813,37.761,15.395,31.511,23.686,5.811,5.358,14.64
1703,0.813,37.871,15.408,31.521,23.686,5.85,5.439,14.721
1704,0.81,38.026,15.38,31.482,23.682,5.81,5.318,14.762
1705,0.81,38.104,15.365,31.491,23.679,5.688,5.276,14.559
1706,0.816,37.664,15.361,31.511,23.685,5.768,5.398,14.801
1707,0.833,37.851,15.349,31.54,23.699,5.85,5.521,14.803
1708,0.82,37.949,15.388,31.482,23.679,5.729,5.36,14.6
1709,0.807,37.998,15.384,31.491,23.675,5.727,5.399,14.558
1710,0.823,37.614,15.365,31.511,23.692,5.809,5.399,14.557
1711,0.81,37.754,15.349,31.521,23.686,5.728,5.399,14.516
1712,0.8,37.871,15.345,31.501,23.679,5.687,5.318,14.435
1713,0.797,37.958,15.392,31.492,23.685,5.646,5.317,14.475
1714,0.807,37.585,15.326,31.501,23.689,5.767,5.439,14.434
1715,0.797,37.735,15.356,31.52,23.682,5.728,5.318,14.515
1716,0.81,37.871,15.419,31.521,23.692,5.768,5.48,14.557
1717,0.79,37.891,15.291,31.501,23.682,5.647,5.359,14.395
1718,0.787,37.556,15.317,31.482,23.675,5.645,5.236,14.19
1719,0.793,37.735,15.387,31.52,23.692,5.727,5.397,14.269
1720,0.803,37.871,15.431,31.54,23.693,5.727,5.399,14.27
1721,0.807,37.949,15.33,31.502,23.679,5.605,5.277,13.985
1722,0.807,37.384,15.309,31.501,23.689,5.564,5.235,13.982
1723,0.816,37.532,15.379,31.52,23.689,5.645,5.397,13.982
1724,0.813,37.629,15.345,31.501,23.696,5.645,5.318,13.82
1725,0.82,37.467,15.356,31.482,23.682,5.605,5.358,13.737
1726,0.826,37.437,15.372,31.501,23.682,5.564,5.399,13.776
1727,0.839,37.599,15.345,31.501,23.686,5.645,5.277,13.614
1728,0.839,37.706,15.317,31.511,23.689,5.645,5.438,13.572
1729,0.836,37.276,15.383,31.511,23.689,5.727,5.44,13.734
1730,0.839,37.329,15.376,31.501,23.682,5.565,5.318,13.655
1731,0.82,37.464,15.361,31.501,23.672,5.441,5.276,13.694
1732,0.826,37.59,15.372,31.52,23.692,5.603,5.398,13.857
1733,0.813,37.275,15.353,31.53,23.693,5.767,5.44,14.103
1734,0.8,37.329,15.415,31.473,23.679,5.647,5.277,13.943
1735,0.79,37.474,15.345,31.491,23.685,5.645,5.357,13.982
1736,0.81,37.6,15.38,31.52,23.689,5.727,5.439,14.063
1737,0.807,37.169,15.372,31.511,23.686,5.727,5.359,14.064
1738,0.797,37.318,15.333,31.53,23.679,5.646,5.317,13.942
1739,0.813,37.473,15.368,31.511,23.689,5.645,5.398,13.982
1740,0.813,37.571,15.353,31.53,23.686,5.727,5.48,13.86
1741,0.813,37.14,15.403,31.511,23.686,5.768,5.4,13.9
1742,0.807,37.299,15.38,31.511,23.686,5.809,5.44,13.941
1743,0.82,37.416,15.337,31.492,23.682,5.647,5.399,13.738
1744,0.836,37.494,15.388,31.501,23.675,5.645,5.318,13.736
1745,0.833,36.948,15.341,31.52,23.689,5.808,5.439,13.817
1746,0.839,37.144,15.372,31.549,23.699,5.932,5.481,13.859
1747,0.843,37.213,15.353,31.483,23.682,5.73,5.359,13.656
1748,0.826,37.29,15.294,31.501,23.682,5.687,5.317,13.613
1749,0.846,37.186,15.379,31.501,23.686,5.809,5.439,13.572
1750,0.833,37.309,15.365,31.492,23.682,5.81,5.399,13.449
1751,0.817,37.416,15.419,31.482,23.682,5.728,5.318,13.326
1752,0.829,37.455,15.345,31.491,23.686,5.768,5.398,13.284
1753,0.833,37.091,15.345,31.52,23.692,5.809,5.44,13.406
1754,0.807,37.231,15.345,31.501,23.693,5.85,5.318,13.489
1755,0.81,37.338,15.313,31.501,23.689,5.769,5.398,13.53
1756,0.8,37.435,15.352,31.492,23.686,5.687,5.358,13.449
1757,0.8,37.139,15.357,31.482,23.679,5.687,5.317,13.367
1758,0.813,37.289,15.403,31.52,23.692,5.809,5.358,13.447
1759,0.82,37.444,15.322,31.597,23.696,5.891,5.399,13.53
1760,0.807,37.005,15.36,31.483,23.682,5.729,5.318,13.368
1761,0.813,36.972,15.419,31.472,23.682,5.727,5.439,13.325
1762,0.836,37.144,15.404,31.52,23.686,5.768,5.44,13.447
1763,0.82,37.222,15.365,31.511,23.686,5.687,5.359,13.367
1764,0.82,36.926,15.345,31.482,23.679,5.646,5.358,13.325
1765,0.843,37.038,15.411,31.491,23.682,5.686,5.317,13.366
1766,0.849,37.202,15.334,31.568,23.686,5.768,5.398,13.366
1767,0.849,37.29,15.368,31.502,23.686,5.728,5.399,13.407
1768,0.853,36.946,15.411,31.492,23.689,5.809,5.48,13.448
1769,0.843,37.057,15.318,31.482,23.682,5.647,5.318,13.326
1770,0.836,37.183,15.329,31.501,23.675,5.564,5.236,13.284
1771,0.839,37.319,15.352,31.492,23.685,5.685,5.438,13.447
1772,0.852,36.956,15.384,31.511,23.689,5.768,5.399,13.53
1773,0.836,37.048,15.357,31.501,23.679,5.565,5.236,13.327
1774,0.826,37.202,15.403,31.482,23.685,5.685,5.397,13.528
1775,0.826,37.3,15.377,31.511,23.692,5.727,5.44,13.612
1776,0.82,36.888,15.365,31.501,23.686,5.605,5.359,13.653
1777,0.82,37.047,15.388,31.492,23.682,5.686,5.399,13.735
1778,0.826,37.183,15.322,31.501,23.682,5.687,5.399,13.776
1779,0.833,37.252,15.411,31.511,23.689,5.727,5.399,13.696
1780,0.833,36.821,15.318,31.501,23.693,5.646,5.44,13.776
1781,0.839,36.989,15.212,31.53,23.693,5.727,5.481,13.818
1782,0.833,37.087,15.339,31.502,23.686,5.646,5.318,13.655
1783,0.826,37.126,15.345,31.463,23.675,5.564,5.236,13.613
1784,0.839,36.848,15.376,31.539,23.689,5.685,5.397,13.897
1785,0.852,36.999,15.326,31.521,23.693,5.768,5.399,13.819
1786,0.833,37.058,15.387,31.473,23.682,5.647,5.318,13.696
1787,0.846,37.106,15.251,31.501,23.686,5.808,5.358,13.735
1788,0.849,37.222,15.359,31.501,23.689,5.85,5.399,13.858
1789,0.84,37.348,15.423,31.482,23.686,5.769,5.358,13.778
1790,0.839,37.426,15.373,31.482,23.686,5.728,5.358,13.818
1791,0.836,36.995,15.302,31.482,23.686,5.727,5.317,13.777
1792,0.839,36.693,15.297,31.511,23.689,5.809,5.398,13.899
1793,0.83,36.834,15.379,31.501,23.689,5.81,5.44,13.981
1794,0.83,36.97,15.318,31.511,23.696,5.972,5.481,14.226
1795,0.817,36.674,15.317,31.482,23.686,5.811,5.318,14.107
1796,0.826,36.709,15.411,31.463,23.675,5.688,5.276,14.105
1797,0.823,36.863,15.334,31.501,23.692,5.89,5.357,14.349
1798,0.82,37.018,15.372,31.53,23.693,5.851,5.439,14.352
1799,0.81,36.617,15.353,31.482,23.686,5.729,5.359,14.23
1800,0.807,36.728,15.411,31.482,23.686,5.809,5.358,14.31
1801,0.823,36.911,15.338,31.491,23.689,5.85,5.399,14.351
1802,0.823,36.961,15.294,31.492,23.679,5.851,5.399,14.352
1803,0.823,36.521,15.309,31.463,23.689,5.851,5.399,14.311
1804,0.826,36.631,15.34,31.491,23.689,5.81,5.318,14.189
1805,0.83,36.805,15.341,31.463,23.675,5.728,5.317,14.147
1806,0.823,36.883,15.38,31.501,23.685,5.809,5.398,14.106
1807,0.846,36.644,15.365,31.511,23.703,5.972,5.521,14.187
1808,0.836,36.767,15.322,31.473,23.686,5.771,5.319,13.944
1809,0.823,36.893,15.364,31.482,23.682,5.768,5.358,13.86
1810,0.839,36.999,15.419,31.501,23.692,5.85,5.358,13.859
1811,0.826,36.598,15.377,31.482,23.689,5.851,5.358,13.778
1812,0.81,36.747,15.337,31.482,23.686,5.81,5.317,13.736
1813,0.807,36.892,15.337,31.482,23.679,5.81,5.317,13.736
1814,0.81,36.942,15.368,31.501,23.685,5.85,5.439,13.858
1815,0.813,36.578,15.345,31.482,23.686,5.851,5.44,13.859
1816,0.8,36.737,15.372,31.491,23.696,5.973,5.481,13.859
1817,0.794,36.854,15.353,31.472,23.686,5.852,5.359,13.656
1818,0.787,36.874,15.306,31.443,23.675,5.769,5.236,13.613
1819,0.793,36.501,15.352,31.501,23.685,5.931,5.438,13.735
1820,0.81,36.679,15.388,31.511,23.689,6.014,5.481,13.776
1821,0.8,36.767,15.415,31.463,23.682,5.852,5.318,13.574
1822,0.8,37.123,15.357,31.472,23.689,5.932,5.398,13.531
1823,0.82,36.561,15.333,31.501,23.686,6.014,5.358,13.612
1824,0.817,36.699,15.415,31.482,23.686,5.974,5.399,13.572
1825,0.82,36.806,15.322,31.472,23.686,5.893,5.399,13.612
1826,0.823,36.577,15.344,31.472,23.679,5.892,5.358,13.531
1827,0.833,36.574,15.341,31.491,23.685,6.014,5.439,13.49
1828,0.83,36.708,15.321,31.463,23.689,6.056,5.399,13.449
1829,0.82,36.825,15.344,31.501,23.693,6.015,5.562,13.611
1830,0.82,36.462,15.321,31.473,23.679,5.934,5.401,13.572
1831,0.803,36.525,15.407,31.472,23.679,5.852,5.318,13.612
1832,0.81,36.708,15.369,31.482,23.685,5.973,5.48,13.857
1833,0.816,36.834,15.337,31.52,23.696,6.137,5.44,14.022
1834,0.79,36.356,15.321,31.454,23.675,5.894,5.318,14.064
1835,0.787,36.476,15.384,31.462,23.685,5.973,5.398,14.186
1836,0.793,36.66,15.365,31.491,23.689,6.055,5.48,14.31
1837,0.79,36.748,15.341,31.472,23.686,5.975,5.4,14.392
1838,0.787,36.461,15.419,31.463,23.679,5.893,5.44,14.312
1839,0.79,36.631,15.264,31.472,23.682,5.973,5.318,14.311
1840,0.787,36.776,15.34,31.482,23.689,5.933,5.358,14.229
1841,0.797,36.845,15.36,31.482,23.686,5.892,5.439,14.147
1842,0.8,36.328,15.392,31.482,23.689,6.054,5.481,14.106
1843,0.8,36.466,15.384,31.482,23.682,5.893,5.359,13.943
1844,0.803,36.573,15.365,31.444,23.679,5.892,5.277,13.86
1845,0.807,36.67,15.419,31.491,23.685,5.933,5.438,13.981
1846,0.816,36.537,15.303,31.501,23.692,5.933,5.521,13.942
1847,0.81,36.641,15.34,31.463,23.682,5.852,5.36,13.738
1848,0.81,36.748,15.349,31.453,23.686,5.81,5.439,13.776
1849,0.813,36.835,15.349,31.482,23.686,5.891,5.481,13.777
1850,0.81,36.356,15.29,31.482,23.679,5.851,5.44,13.777
1851,0.79,36.495,15.336,31.463,23.679,5.81,5.318,13.736
1852,0.79,36.621,15.356,31.472,23.685,5.85,5.398,13.695
1853,0.797,36.651,15.357,31.482,23.682,5.769,5.358,13.735
1854,0.794,36.489,15.392,31.472,23.682,5.891,5.358,13.776
1855,0.793,36.64,15.337,31.491,23.696,5.933,5.48,13.899
1856,0.79,36.757,15.368,31.444,23.686,5.852,5.318,13.697
1857,0.777,36.739,15.333,31.443,23.675,5.688,5.276,13.654
1858,0.774,36.585,15.313,31.482,23.689,5.89,5.357,13.694
1859,0.784,36.785,15.426,31.482,23.699,5.892,5.439,13.735
1860,0.774,36.826,15.346,31.444,23.679,5.689,5.318,13.573
1861,0.777,36.423,15.29,31.434,23.675,5.687,5.439,13.612
1862,0.8,36.477,15.305,31.472,23.682,5.849,5.44,13.653
1863,0.794,36.602,15.337,31.443,23.682,5.851,5.399,13.572
1864,0.79,36.699,15.313,31.453,23.675,5.688,5.358,13.449
1865,0.8,36.556,15.317,31.443,23.692,5.727,5.399,13.53
1866,0.803,36.67,15.411,31.482,23.693,5.768,5.358,13.571
1867,0.813,36.815,15.318,31.472,23.686,5.728,5.399,13.571
1868,0.794,36.893,15.305,31.463,23.689,5.768,5.48,13.694
1869,0.806,36.482,15.376,31.463,23.682,5.768,5.318,13.613
1870,0.803,36.602,15.365,31.463,23.679,5.606,5.276,13.613
1871,0.79,36.757,15.325,31.463,23.689,5.686,5.398,13.816
1872,0.793,36.883,15.22,31.52,23.703,5.849,5.521,13.94
1873,0.79,36.491,15.297,31.454,23.679,5.648,5.319,13.778
1874,0.784,36.612,15.27,31.443,23.682,5.645,5.317,13.94
1875,0.787,36.795,15.317,31.472,23.686,5.645,5.398,14.022
1876,0.78,36.864,15.368,31.472,23.682,5.727,5.399,14.064
1877,0.767,36.577,15.318,31.472,23.686,5.565,5.399,14.105
1878,0.767,36.776,15.36,31.472,23.686,5.645,5.399,14.146
1879,0.774,36.893,15.341,31.482,23.696,5.605,5.399,14.106
1880,0.774,36.951,15.423,31.482,23.693,5.645,5.399,14.105
1881,0.787,36.655,15.314,31.472,23.689,5.605,5.358,14.146
1882,0.79,36.824,15.294,31.463,23.686,5.564,5.317,14.024
1883,0.784,36.941,15.297,31.463,23.672,5.563,5.317,13.983
1884,0.793,36.981,15.297,31.491,23.685,5.604,5.48,14.023
1885,0.803,36.665,15.344,31.511,23.703,5.726,5.522,14.145
1886,0.787,36.767,15.372,31.463,23.682,5.484,5.36,13.984
1887,0.784,36.873,15.298,31.443,23.679,5.562,5.358,13.982
1888,0.797,36.942,15.309,31.482,23.692,5.604,5.48,13.942
1889,0.794,36.789,15.364,31.463,23.686,5.523,5.4,13.941
1890,0.797,36.922,15.4,31.453,23.682,5.522,5.399,13.778
1891,0.794,37.057,15.341,31.472,23.686,5.563,5.399,13.858
1892,0.793,36.924,15.286,31.472,23.686,5.523,5.399,13.859
1893,0.8,36.875,15.282,31.482,23.689,5.522,5.358,13.9
1894,0.781,36.99,15.379,31.482,23.693,5.563,5.48,14.063
1895,0.78,37.135,15.31,31.453,23.682,5.441,5.359,13.78
1896,0.767,36.618,15.348,31.453,23.682,5.399,5.277,13.696
1897,0.777,36.68,15.356,31.482,23.696,5.521,5.438,13.857
1898,0.78,36.844,15.236,31.52,23.693,5.563,5.481,13.859
1899,0.771,36.941,15.332,31.454,23.679,5.441,5.318,13.696
1900,0.767,36.703,15.368,31.462,23.685,5.399,5.398,13.654
1901,0.774,36.854,15.396,31.491,23.689,5.562,5.44,13.572
1902,0.777,36.961,15.353,31.463,23.686,5.482,5.399,13.49
1903,0.774,37.067,15.306,31.472,23.692,5.44,5.358,13.449
1904,0.78,37.011,15.376,31.463,23.682,5.359,5.358,13.367
1905,0.787,37.144,15.322,31.472,23.682,5.358,5.317,13.325
1906,0.793,37.29,15.352,31.482,23.686,5.358,5.398,13.366
1907,0.81,37.387,15.399,31.501,23.699,5.561,5.521,13.285
1908,0.807,36.659,15.291,31.463,23.682,5.319,5.278,13.04
1909,0.781,36.786,15.336,31.453,23.682,5.398,5.316,13.2
1910,0.803,36.97,15.38,31.472,23.689,5.44,5.398,13.161
1911,0.777,37.01,15.415,31.453,23.686,5.318,5.358,13.039
1912,0.767,36.77,15.349,31.453,23.675,5.358,5.317,13.119
1913,0.767,36.941,15.376,31.529,23.689,5.48,5.398,13.12
1914,0.774,37.096,15.357,31.454,23.686,5.44,5.399,13.201
1915,0.764,37.116,15.357,31.472,23.689,5.399,5.399,13.405
1916,0.77,36.781,15.349,31.482,23.686,5.44,5.562,13.407
1917,0.77,36.902,15.333,31.463,23.682,5.318,5.319,13.285
1918,0.767,37.019,15.368,31.434,23.672,5.317,5.236,13.203
1919,0.774,37.087,15.271,31.472,23.685,5.398,5.438,13.365
1920,0.79,36.973,15.34,31.491,23.686,5.44,5.399,13.325
1921,0.787,37.077,15.337,31.453,23.682,5.359,5.318,13.244
1922,0.79,37.203,15.372,31.462,23.679,5.439,5.317,13.324
1923,0.797,37.309,15.388,31.482,23.685,5.481,5.398,13.366
1924,0.794,36.812,15.349,31.472,23.686,5.44,5.358,13.285
1925,0.787,36.97,15.372,31.463,23.689,5.481,5.399,13.325
1926,0.8,37.096,15.279,31.472,23.686,5.44,5.358,13.203
1927,0.81,36.848,15.325,31.463,23.686,5.481,5.358,13.243
1928,0.813,36.836,15.341,31.482,23.692,5.481,5.399,13.284
1929,0.82,36.999,15.372,31.482,23.696,5.603,5.521,13.447
1930,0.817,37.096,15.302,31.463,23.686,5.482,5.319,13.286
1931,0.8,36.829,15.309,31.434,23.679,5.4,5.276,13.243
1932,0.81,36.96,15.36,31.481,23.689,5.48,5.398,13.406
1933,0.813,37.096,15.38,31.463,23.686,5.522,5.399,13.448
1934,0.81,37.184,15.372,31.453,23.679,5.482,5.318,13.408
1935,0.82,36.811,15.322,31.462,23.689,5.562,5.358,13.529
1936,0.833,36.951,15.36,31.472,23.693,5.604,5.439,13.531
1937,0.826,37.086,15.364,31.482,23.686,5.482,5.481,13.612
1938,0.836,37.183,15.314,31.463,23.689,5.481,5.481,13.613
1939,0.839,36.916,15.383,31.463,23.675,5.481,5.318,13.491
1940,0.852,37.057,15.326,31.443,23.675,5.4,5.276,13.53
1941,0.869,37.193,15.286,31.472,23.696,5.521,5.438,13.531
1942,0.882,37.309,15.325,31.491,23.693,5.603,5.521,13.49
1943,0.866,36.735,15.356,31.444,23.686,5.442,5.319,13.367
1944,0.872,36.873,15.294,31.472,23.686,5.44,5.358,13.407
1945,0.885,37.038,15.305,31.482,23.686,5.521,5.358,13.407
1946,0.882,37.106,15.387,31.453,23.686,5.441,5.399,13.367
1947,0.885,36.8,15.341,31.462,23.686,5.399,5.358,13.204
1948,0.892,36.95,15.321,31.463,23.686,5.399,5.358,13.243
1949,0.882,37.105,15.395,31.463,23.692,5.48,5.358,13.365
1950,0.879,37.145,15.369,31.463,23.693,5.522,5.358,13.447
1951,0.872,36.753,15.31,31.491,23.696,5.522,5.521,13.611
1952,0.866,36.912,15.27,31.472,23.682,5.441,5.36,13.531
1953,0.856,36.98,15.34,31.434,23.679,5.318,5.236,13.653
1954,0.853,37.01,15.325,31.462,23.685,5.48,5.357,13.898
1955,0.849,36.905,15.309,31.463,23.689,5.522,5.358,13.859
1956,0.846,37.009,15.395,31.434,23.679,5.441,5.236,13.981
1957,0.843,37.125,15.31,31.462,23.679,5.44,5.357,13.982
1958,0.843,36.992,15.34,31.472,23.692,5.481,5.48,14.104
1959,0.843,36.809,15.341,31.472,23.689,5.44,5.4,14.024
1960,0.846,36.922,15.38,31.453,23.689,5.481,5.399,14.064
1961,0.862,37.057,15.337,31.472,23.686,5.4,5.318,13.902
1962,0.856,36.771,15.286,31.453,23.686,5.48,5.236,13.859
1963,0.862,36.797,15.344,31.462,23.689,5.44,5.316,13.94
1964,0.885,36.96,15.298,31.501,23.693,5.603,5.48,14.022
1965,0.866,37.038,15.321,31.453,23.679,5.442,5.278,13.779
1966,0.856,36.579,15.352,31.434,23.679,5.359,5.276,13.818
1967,0.866,36.718,15.333,31.481,23.685,5.561,5.398,13.777
1968,0.859,36.863,15.368,31.463,23.689,5.482,5.358,13.696
1969,0.84,36.951,15.341,31.443,23.686,5.44,5.317,13.492
1970,0.852,36.722,15.407,31.443,23.679,5.44,5.317,13.53
1971,0.833,36.883,15.314,31.453,23.696,5.521,5.358,13.531
1972,0.826,36.999,15.301,31.462,23.693,5.603,5.358,13.612
1973,0.833,37.087,15.336,31.482,23.689,5.645,5.439,13.816
1974,0.813,36.599,15.345,31.463,23.686,5.483,5.318,13.777
1975,0.807,36.747,15.333,31.434,23.679,5.522,5.195,13.696
1976,0.81,36.912,15.349,31.453,23.685,5.603,5.397,13.979
1977,0.829,36.971,15.349,31.482,23.689,5.645,5.399,14.023
1978,0.82,36.54,15.321,31.463,23.679,5.564,5.277,13.861
1979,0.823,36.708,15.341,31.463,23.689,5.563,5.398,13.9
1980,0.83,36.834,15.36,31.463,23.689,5.645,5.399,13.981
1981,0.843,36.893,15.376,31.463,23.682,5.686,5.358,13.86
1982,0.83,36.587,15.326,31.434,23.672,5.605,5.317,13.818
1983,0.846,36.766,15.298,31.443,23.685,5.645,5.358,13.777
1984,0.853,36.912,15.348,31.453,23.686,5.605,5.358,13.736
1985,0.84,36.952,15.317,31.453,23.686,5.604,5.358,13.898
1986,0.849,36.645,15.348,31.482,23.699,5.767,5.439,13.941
1987,0.866,36.748,15.294,31.453,23.686,5.606,5.318,13.778
1988,0.853,36.873,15.329,31.424,23.668,5.523,5.276,13.736
1989,0.875,37.287,15.348,31.443,23.685,5.644,5.316,13.817
1990,0.876,36.677,15.364,31.462,23.689,5.645,5.317,13.818
1991,0.84,36.767,15.38,31.434,23.679,5.645,5.317,13.777
1992,0.833,36.912,15.298,31.434,23.689,5.605,5.317,13.818
1993,0.839,36.626,15.317,31.453,23.693,5.686,5.358,13.899
1994,0.817,36.556,15.372,31.462,23.689,5.564,5.277,13.9
1995,0.807,36.699,15.322,31.443,23.682,5.604,5.316,13.941
1996,0.8,36.806,15.333,31.434,23.689,5.564,5.317,13.982
1997,0.807,36.577,15.341,31.462,23.682,5.645,5.276,13.942
1998,0.787,36.689,15.372,31.453,23.689,5.767,5.398,13.982
1999,0.793,36.863,15.333,31.482,23.696,5.768,5.562,14.104
2000,0.78,36.922,15.372,31.444,23.682,5.647,5.319,13.78
2001,0.793,36.482,15.333,31.434,23.682,5.645,5.358,13.858
2002,0.797,36.631,15.337,31.453,23.692,5.605,5.399,13.859
2003,0.794,36.767,15.317,31.434,23.689,5.645,5.318,13.859
2004,0.78,36.845,15.352,31.434,23.679,5.564,5.358,13.778
2005,0.79,36.318,15.36,31.443,23.682,5.604,5.317,13.858
2006,0.797,36.466,15.302,31.443,23.689,5.686,5.317,13.859
2007,0.79,36.592,15.352,31.453,23.689,5.687,5.398,13.859
2008,0.803,36.718,15.325,31.472,23.696,5.849,5.521,13.981
2009,0.784,36.441,15.313,31.415,23.686,5.607,5.278,13.779
2010,0.777,36.582,15.348,31.424,23.675,5.645,5.276,13.818
2011,0.777,36.747,15.337,31.443,23.685,5.645,5.357,13.981
2012,0.777,36.816,15.325,31.443,23.686,5.727,5.317,14.023
2013,0.761,36.356,15.286,31.424,23.679,5.565,5.276,13.983
2014,0.751,36.514,15.403,31.433,23.689,5.685,5.357,14.104
2015,0.748,36.66,15.271,31.443,23.689,5.646,5.399,14.146
2016,0.741,36.719,15.297,31.443,23.689,5.686,5.399,14.106
2017,0.734,36.413,15.364,31.453,23.689,5.646,5.358,14.105
2018,0.741,36.563,15.302,31.443,23.682,5.645,5.358,14.024
2019,0.725,36.708,15.305,31.424,23.679,5.564,5.236,13.942
2020,0.734,36.748,15.313,31.472,23.689,5.685,5.357,14.022
2021,0.747,36.384,15.352,31.472,23.696,5.727,5.399,14.064
2022,0.734,36.476,15.306,31.424,23.686,5.565,5.236,13.942
2023,0.731,36.583,15.266,31.433,23.672,5.604,5.316,13.9
2024,0.747,36.632,15.332,31.453,23.692,5.645,5.398,13.941
2025,0.744,36.402,15.352,31.453,23.686,5.645,5.318,13.941
2026,0.734,36.544,15.345,31.434,23.682,5.605,5.276,13.86
2027,0.744,36.679,15.313,31.434,23.686,5.564,5.357,13.778
2028,0.747,36.307,15.344,31.443,23.689,5.645,5.399,13.736
2029,0.747,36.293,15.251,31.443,23.682,5.645,5.318,13.614
2030,0.751,36.447,15.305,31.443,23.689,5.686,5.398,13.653
2031,0.731,36.544,15.309,31.443,23.675,5.564,5.358,13.491
2032,0.718,36.248,15.305,31.434,23.679,5.482,5.236,13.367
2033,0.715,36.37,15.383,31.462,23.685,5.644,5.397,13.488
2034,0.737,36.563,15.314,31.472,23.692,5.727,5.44,13.571
2035,0.715,36.603,15.348,31.434,23.679,5.524,5.359,13.449
2036,0.705,36.124,15.333,31.414,23.682,5.603,5.358,13.448
2037,0.708,36.301,15.321,31.452,23.686,5.645,5.439,13.53
2038,0.705,36.456,15.333,31.443,23.686,5.564,5.359,13.449
2039,0.708,36.535,15.36,31.434,23.679,5.523,5.358,13.367
2040,0.721,36.219,15.321,31.424,23.685,5.563,5.317,13.285
2041,0.728,36.369,15.274,31.453,23.686,5.563,5.358,13.365
2042,0.718,36.524,15.317,31.453,23.686,5.563,5.317,13.366
2043,0.721,36.583,15.333,31.462,23.689,5.645,5.439,13.407
2044,0.728,36.239,15.306,31.424,23.682,5.483,5.318,13.245
2045,0.728,36.369,15.309,31.424,23.675,5.4,5.236,13.243
2046,0.734,36.515,15.337,31.453,23.689,5.602,5.397,13.284
2047,0.744,36.631,15.333,31.491,23.693,5.686,5.44,13.365
2048,0.734,36.134,15.306,31.424,23.682,5.564,5.277,13.204
2049,0.728,36.263,15.391,31.424,23.692,5.563,5.357,13.324
2050,0.751,36.408,15.326,31.453,23.686,5.604,5.399,13.325
2051,0.735,36.467,15.266,31.434,23.686,5.564,5.44,13.366
2052,0.728,36.228,15.34,31.424,23.682,5.523,5.359,13.488
2053,0.734,36.398,15.349,31.414,23.686,5.563,5.399,13.53
2054,0.734,36.515,15.302,31.452,23.692,5.685,5.358,13.612
2055,0.721,36.516,15.286,31.434,23.682,5.564,5.358,13.653
2056,0.721,36.181,15.383,31.434,23.686,5.604,5.439,13.898
2057,0.721,36.34,15.248,31.434,23.686,5.604,5.399,13.737
2058,0.718,36.466,15.309,31.424,23.682,5.523,5.318,13.655
2059,0.711,36.266,15.36,31.443,23.686,5.603,5.358,13.776
2060,0.741,36.188,15.353,31.462,23.696,5.726,5.48,13.858
2061,0.734,36.302,15.317,31.405,23.679,5.605,5.318,13.656
2062,0.728,36.38,15.251,31.414,23.679,5.523,5.317,13.735
2063,0.741,36.102,15.316,31.433,23.685,5.644,5.439,13.736
2064,0.744,36.138,15.302,31.443,23.686,5.645,5.318,13.695
2065,0.744,36.282,15.329,31.424,23.679,5.523,5.276,13.654
2066,0.741,36.399,15.388,31.424,23.682,5.603,5.316,13.654
2067,0.754,36.122,15.279,31.443,23.692,5.604,5.398,13.613
2068,0.761,36.244,15.34,31.424,23.686,5.604,5.399,13.653
2069,0.754,36.389,15.345,31.433,23.689,5.686,5.399,13.694
2070,0.754,36.467,15.364,31.443,23.686,5.687,5.318,13.613
2071,0.744,36.094,15.31,31.424,23.679,5.564,5.317,13.613
2072,0.734,36.263,15.301,31.453,23.689,5.726,5.398,13.857
2073,0.744,36.437,15.29,31.472,23.693,5.727,5.48,13.981
2074,0.721,36.458,15.364,31.415,23.682,5.687,5.278,13.86
2075,0.721,35.979,15.298,31.424,23.686,5.605,5.357,13.94
2076,0.728,36.166,15.333,31.443,23.692,5.767,5.439,14.144
2077,0.728,36.292,15.321,31.443,23.682,5.728,5.44,14.024
2078,0.741,36.351,15.325,31.434,23.679,5.646,5.277,14.023
2079,0.76,36.064,15.325,31.434,23.685,5.767,5.316,13.983
2080,0.78,36.233,15.368,31.434,23.692,5.768,5.358,13.942
2081,0.819,36.35,15.372,31.434,23.686,5.809,5.358,13.86
2082,0.839,36.419,15.314,31.443,23.699,5.81,5.48,13.94
2083,0.885,35.94,15.313,31.424,23.682,5.728,5.278,13.819
2084,0.918,36.079,15.344,31.405,23.675,5.646,5.235,13.655
2085,0.938,36.234,15.325,31.433,23.689,5.849,5.397,13.857
2086,0.987,36.302,15.368,31.453,23.693,5.932,5.399,13.818
2087,0.997,35.987,15.341,31.415,23.679,5.689,5.358,13.655
2088,1.023,36.156,15.313,31.414,23.685,5.727,5.399,13.694
2089,1.046,36.282,15.298,31.443,23.689,5.768,5.399,13.695
2090,1.053,36.504,15.333,31.434,23.689,5.768,5.358,13.654
2091,1.043,36.008,15.384,31.424,23.675,5.728,5.277,13.572
2092,1.046,36.175,15.298,31.433,23.685,5.809,5.357,13.694
2093,1.063,36.292,15.348,31.434,23.689,5.728,5.399,13.817
2094,1.06,36.006,15.415,31.424,23.689,5.809,5.358,13.981
2095,1.056,35.993,15.342,31.462,23.693,5.891,5.439,14.104
2096,1.086,36.137,15.329,31.424,23.679,5.77,5.318,14.024
2097,1.105,36.225,15.337,31.395,23.672,5.687,5.236,14.023
2098,1.122,36.024,15.259,31.452,23.689,5.809,5.438,14.064
2099,1.135,36.166,15.328,31.453,23.686,5.85,5.399,14.186
2100,1.119,36.263,15.321,31.424,23.686,5.769,5.236,14.065
2101,1.158,36.379,15.356,31.424,23.686,5.85,5.316,14.186
2102,1.187,36.256,15.329,31.443,23.692,5.973,5.358,14.31
2103,1.204,36.379,15.27,31.434,23.679,5.852,5.399,14.351
2104,1.227,36.515,15.328,31.434,23.692,5.891,5.399,14.393
2105,1.256,36.593,15.333,31.443,23.686,5.77,5.318,14.434
2106,1.27,35.635,15.329,31.434,23.675,5.728,5.236,14.475
2107,1.286,35.788,15.345,31.424,23.685,5.85,5.397,14.556
2108,1.303,35.962,15.364,31.462,23.699,5.891,5.521,14.638
2109,1.329,36.022,15.243,31.424,23.679,5.689,5.278,14.436
2110,1.306,35.974,15.32,31.414,23.679,5.809,5.316,14.515
2111,1.254,36.166,15.309,31.424,23.692,5.81,5.439,14.516
2112,1.208,36.283,15.34,31.443,23.686,5.81,5.318,14.394
2113,1.129,36.332,15.356,31.414,23.682,5.769,5.358,14.271
2114,1.064,35.862,15.282,31.424,23.692,5.768,5.358,14.31
2115,0.991,36.04,15.36,31.433,23.689,5.768,5.439,14.229
2116,0.89,36.147,15.275,31.443,23.689,5.728,5.399,14.269
2117,0.785,36.215,15.321,31.434,23.693,5.85,5.48,14.392
