time,ecg,bvp,gsr,rsp,skt,emg_zygo,emg_coru,emg_trap
0,0.597,36.438,32.704,38.771,22.403,4.907,7.373,14.354
1,0.593,36.151,32.774,38.761,22.409,4.865,7.411,14.352
2,0.609,36.138,32.724,38.78,22.406,4.946,7.452,14.393
3,0.603,36.273,32.646,38.771,22.409,4.988,7.452,14.556
4,0.603,36.379,32.66,38.799,22.403,4.785,7.452,14.76
5,0.619,36.054,32.696,38.79,22.416,4.986,7.493,15.088
6,0.6,36.157,32.692,38.78,22.413,4.907,7.534,15.294
7,0.603,36.263,32.68,38.771,22.413,4.947,7.453,15.418
8,0.616,36.389,32.7,38.77,22.406,4.825,7.412,15.664
9,0.603,36.016,32.743,38.78,22.416,5.027,7.574,15.869
10,0.613,36.118,32.771,38.751,22.403,4.907,7.413,15.912
11,0.61,36.263,32.701,38.761,22.402,4.865,7.493,16.075
12,0.619,36.36,32.704,38.837,22.406,4.946,7.616,16.28
13,0.606,35.997,32.704,38.752,22.402,4.907,7.576,16.363
14,0.619,36.137,32.727,38.751,22.399,4.825,7.535,16.364
15,0.642,36.282,32.743,38.761,22.413,4.946,7.697,16.689
16,0.646,36.332,32.747,38.751,22.409,4.907,7.618,16.774
17,0.633,36.073,32.724,38.732,22.409,4.906,7.698,16.816
18,0.642,36.243,32.759,38.77,22.413,4.906,7.699,17.019
19,0.626,36.341,32.755,38.742,22.413,4.987,7.74,17.428
20,0.616,36.39,32.677,38.722,22.399,4.907,7.618,17.473
21,0.61,36.045,32.7,38.732,22.409,4.906,7.698,17.758
22,0.622,36.205,32.712,38.722,22.403,4.906,7.658,17.964
23,0.606,36.292,32.731,38.693,22.399,4.865,7.617,18.007
24,0.616,36.36,32.782,38.741,22.413,4.865,7.739,18.048
25,0.619,35.987,32.787,38.732,22.416,4.987,7.74,18.129
26,0.603,36.118,32.763,38.732,22.41,4.948,7.659,18.089
27,0.616,36.234,32.783,38.722,22.409,4.825,7.658,18.008
28,0.626,36.59,32.775,38.751,22.42,5.027,7.861,18.007
29,0.623,36.133,32.681,38.703,22.406,4.826,7.741,17.804
30,0.623,36.273,32.704,38.703,22.402,4.824,7.659,17.517
31,0.613,36.408,32.719,38.703,22.409,4.905,7.739,17.595
32,0.61,36.084,32.778,38.712,22.403,4.906,7.781,17.556
33,0.632,36.061,32.779,38.684,22.399,4.825,7.7,17.514
34,0.649,36.224,32.755,38.712,22.416,4.987,7.902,17.799
35,0.639,36.321,32.704,38.703,22.413,4.948,7.823,17.802
36,0.642,35.958,32.704,38.693,22.409,4.907,7.903,17.802
37,0.636,36.069,32.68,38.693,22.409,4.947,7.945,17.72
38,0.629,36.214,32.657,38.731,22.416,4.988,8.067,17.76
39,0.632,36.293,32.684,38.665,22.406,4.785,7.906,17.435
40,0.632,36.034,32.711,38.674,22.402,4.783,7.945,17.269
41,0.626,36.176,32.786,38.693,22.406,4.824,7.986,17.146
42,0.603,36.283,32.736,38.645,22.399,4.743,8.027,16.982
43,0.616,36.399,32.692,38.673,22.409,4.864,7.987,16.696
44,0.61,35.92,32.719,38.731,22.413,4.865,8.027,16.53
45,0.619,36.069,32.704,38.674,22.403,4.824,8.068,16.366
46,0.623,36.186,32.716,38.674,22.406,4.783,7.987,16.161
47,0.623,36.302,32.739,38.702,22.42,4.986,8.108,15.915
48,0.632,35.987,32.677,38.655,22.406,4.826,8.028,15.628
49,0.61,36.108,32.743,38.645,22.399,4.783,7.905,15.381
50,0.609,36.244,32.786,38.645,22.399,4.864,7.863,15.175
51,0.639,36.302,32.713,38.645,22.406,4.865,7.944,14.889
52,0.636,35.939,32.708,38.693,22.399,4.743,7.823,14.601
53,0.633,36.117,32.684,38.683,22.409,4.945,7.985,14.436
54,0.645,36.224,32.708,38.664,22.409,4.947,7.946,14.312
55,0.672,36.264,32.72,38.645,22.403,4.907,7.864,14.067
56,0.669,36.044,32.759,38.625,22.406,4.865,7.904,13.902
57,0.643,36.176,32.759,38.683,22.42,4.946,7.945,13.819
58,0.642,36.263,32.736,38.607,22.403,4.825,7.783,13.371
59,0.636,36.562,32.79,38.616,22.402,4.824,7.7,13.204
60,0.652,35.932,32.677,38.635,22.406,4.824,7.74,13.121
61,0.636,36.06,32.692,38.616,22.399,4.824,7.74,12.917
62,0.642,36.195,32.7,38.635,22.406,4.865,7.659,12.711
63,0.646,35.976,32.762,38.625,22.409,4.946,7.698,12.587
64,0.639,35.983,32.79,38.625,22.409,4.947,7.658,12.383
65,0.652,36.137,32.791,38.635,22.413,4.866,7.617,12.177
66,0.662,36.263,32.787,38.645,22.416,4.946,7.698,12.094
67,0.669,35.948,32.755,38.597,22.413,4.866,7.658,11.971
68,0.675,36.041,32.747,38.596,22.399,4.824,7.455,11.726
69,0.682,36.195,32.697,38.606,22.406,4.824,7.452,11.52
70,0.695,36.312,32.704,38.606,22.409,4.824,7.493,11.355
71,0.698,35.814,32.727,38.577,22.396,4.743,7.412,11.232
72,0.714,35.972,32.77,38.615,22.406,4.945,7.452,11.19
73,0.731,36.108,32.755,38.606,22.416,4.907,7.534,11.068
74,0.744,36.196,32.704,38.596,22.406,4.906,7.575,10.944
75,0.757,35.928,32.673,38.596,22.406,4.825,7.494,10.74
76,0.787,36.107,32.649,38.625,22.42,4.987,7.656,10.657
77,0.787,36.186,32.653,38.568,22.403,4.826,7.495,10.412
78,0.813,36.263,32.66,38.596,22.402,4.824,7.575,10.287
79,0.81,35.871,32.684,38.596,22.402,4.865,7.535,10.205
80,0.839,35.992,32.727,38.568,22.409,4.906,7.534,10.163
81,0.875,36.137,32.751,38.567,22.406,4.825,7.494,9.919
82,0.915,36.206,32.736,38.606,22.409,4.987,7.656,9.916
83,0.97,35.861,32.607,38.606,22.406,4.907,7.658,9.835
84,0.99,36.011,32.695,38.577,22.409,4.947,7.698,9.753
85,1.049,36.137,32.696,38.586,22.413,4.907,7.658,9.63
86,1.06,36.167,32.696,38.606,22.409,4.987,7.78,9.67
87,1.082,35.937,32.696,38.548,22.399,4.907,7.659,9.426
88,1.135,36.079,32.696,38.567,22.402,4.865,7.658,9.261
89,1.129,36.205,32.782,38.548,22.399,4.906,7.698,9.259
90,1.112,36.436,32.755,38.538,22.406,4.865,7.658,9.259
91,1.119,35.978,32.65,38.567,22.409,4.865,7.658,9.097
92,1.102,36.098,32.688,38.586,22.413,4.987,7.82,9.176
93,1.06,36.205,32.696,38.548,22.406,4.988,7.781,9.096
94,1.047,35.89,32.747,38.529,22.402,4.866,7.781,9.095
95,1.108,35.915,32.794,38.567,22.413,5.028,7.781,8.932
96,1.102,36.031,32.775,38.558,22.406,4.989,7.74,9.012
97,1.099,36.109,32.783,38.519,22.409,4.866,7.618,8.891
98,1.161,35.86,32.787,38.519,22.403,4.865,7.657,8.89
99,1.217,35.973,32.736,38.538,22.406,4.906,7.698,8.849
100,1.224,36.079,32.7,38.509,22.392,4.825,7.699,8.808
101,1.256,36.215,32.7,38.547,22.406,4.987,7.821,8.808
102,1.263,35.832,32.747,38.548,22.416,4.907,7.903,8.808
103,1.228,35.972,32.771,38.538,22.413,4.865,7.945,8.808
104,1.221,36.098,32.779,38.509,22.409,4.906,7.945,8.686
105,1.201,36.205,32.763,38.557,22.42,4.987,8.026,8.807
106,1.142,35.746,32.755,38.519,22.406,4.907,8.068,8.848
107,1.077,35.895,32.712,38.519,22.402,4.865,8.028,8.849
108,0.985,36.04,32.649,38.509,22.399,4.865,8.109,9.011
109,0.922,36.089,32.68,38.509,22.409,4.865,8.191,9.216
110,0.84,35.908,32.676,38.48,22.396,4.743,8.192,9.259
111,0.765,36.069,32.762,38.538,22.416,4.905,8.273,9.544
112,0.66,36.176,32.79,38.5,22.413,4.987,8.396,9.872
113,0.548,36.225,32.728,38.499,22.413,4.988,8.275,10.038
114,0.489,35.804,32.677,38.499,22.409,4.866,8.396,10.202
115,0.462,35.972,32.668,38.528,22.42,5.068,8.56,10.448
116,0.432,36.07,32.649,38.49,22.406,4.786,8.358,10.532
117,0.406,36.119,32.641,38.509,22.402,4.864,8.397,10.614
118,0.422,35.87,32.688,38.471,22.402,4.946,8.316,10.859
119,0.435,36.011,32.696,38.48,22.402,4.907,8.396,11.146
120,0.461,36.137,32.751,38.471,22.399,4.906,8.275,11.474
121,0.471,36.359,32.739,38.49,22.413,4.947,8.436,12.168
122,0.504,35.824,32.665,38.49,22.409,4.907,8.357,12.582
123,0.514,35.953,32.719,38.471,22.403,4.906,8.356,13.074
124,0.57,36.089,32.72,38.499,22.413,4.865,8.437,13.526
125,0.58,35.841,32.72,38.471,22.409,4.906,8.438,14.1
126,0.586,35.876,32.751,38.442,22.399,4.825,8.316,14.471
127,0.622,35.992,32.779,38.451,22.399,4.865,8.356,14.963
128,0.668,36.118,32.732,38.451,22.402,4.824,8.397,15.537
129,0.698,35.755,32.79,38.432,22.396,4.743,8.356,16.031
130,0.714,35.914,32.697,38.46,22.409,4.864,8.519,16.767
131,0.715,36.059,32.696,38.47,22.416,4.987,8.723,17.385
132,0.715,36.138,32.68,38.461,22.406,4.907,8.685,18.041
133,0.724,35.745,32.739,38.47,22.402,4.906,8.684,18.454
134,0.741,35.904,32.79,38.499,22.42,4.987,8.847,18.947
135,0.744,36.011,32.779,38.452,22.403,4.866,8.727,18.952
136,0.731,36.099,32.771,38.422,22.402,4.865,8.766,19.114
137,0.734,35.898,32.806,38.432,22.402,4.824,8.767,19.156
138,0.705,36.04,32.814,38.432,22.402,4.865,8.807,19.116
139,0.728,36.166,32.709,38.413,22.396,4.865,8.726,18.953
140,0.708,36.283,32.72,38.451,22.406,4.946,8.888,18.952
141,0.682,35.689,32.696,38.47,22.409,4.866,8.89,18.667
142,0.695,35.817,32.782,38.442,22.409,4.865,8.768,18.461
143,0.711,35.991,32.775,38.441,22.416,4.946,8.848,18.133
144,0.708,36.012,32.763,38.441,22.413,4.988,8.889,18.049
145,0.689,35.782,32.704,38.422,22.406,4.866,8.727,17.601
146,0.701,35.933,32.704,38.432,22.402,4.824,8.726,17.434
147,0.708,36.06,32.708,38.432,22.406,4.905,8.726,17.351
148,0.685,36.07,32.653,38.403,22.396,4.784,8.603,16.984
149,0.695,35.754,32.711,38.441,22.416,4.946,8.684,16.736
150,0.701,35.904,32.716,38.432,22.41,4.907,8.684,16.571
151,0.701,36.002,32.755,38.422,22.413,4.906,8.725,16.325
152,0.695,36.204,32.759,38.441,22.403,4.947,8.685,15.998
153,0.714,35.88,32.716,38.47,22.416,4.988,8.807,15.832
154,0.702,36.002,32.673,38.413,22.41,4.866,8.686,15.464
155,0.695,36.108,32.68,38.403,22.399,4.824,8.603,15.054
156,0.708,35.802,32.68,38.46,22.402,4.824,8.643,14.847
157,0.702,35.809,32.692,38.422,22.399,4.865,8.644,14.682
158,0.688,35.924,32.692,38.384,22.395,4.743,8.562,14.436
159,0.721,36.069,32.739,38.422,22.409,4.986,8.683,14.515
160,0.692,35.706,32.767,38.403,22.409,4.988,8.684,14.394
161,0.688,35.798,32.72,38.403,22.409,4.866,8.644,14.312
162,0.711,35.953,32.649,38.403,22.406,4.946,8.644,14.27
163,0.711,36.06,32.703,38.412,22.413,5.069,8.765,14.392
164,0.685,35.696,32.708,38.403,22.399,4.867,8.563,14.352
165,0.692,35.827,32.727,38.384,22.395,4.865,8.602,14.514
166,0.701,35.982,32.755,38.393,22.402,4.946,8.602,14.76
167,0.685,36.06,32.736,38.393,22.406,4.907,8.602,15.169
168,0.705,35.754,32.763,38.393,22.409,4.865,8.521,15.661
169,0.715,35.924,32.763,38.403,22.413,5.028,8.601,16.682
170,0.698,36.031,32.689,38.393,22.409,4.989,8.562,17.547
171,0.708,36.128,32.7,38.383,22.409,4.988,8.521,18.449
172,0.724,35.745,32.731,38.402,22.416,4.907,8.479,19.394
173,0.711,35.866,32.739,38.403,22.406,4.987,8.601,20.135
174,0.715,35.963,32.782,38.364,22.399,4.948,8.44,20.468
175,0.718,36.022,32.779,38.374,22.406,4.866,8.357,20.918
176,0.721,35.734,32.763,38.393,22.406,4.865,8.356,21.207
177,0.702,35.866,32.743,38.364,22.399,4.784,8.275,21.21
178,0.714,36.021,32.724,38.393,22.402,4.986,8.314,21.413
179,0.708,36.032,32.681,38.393,22.409,4.988,8.356,21.619
180,0.711,35.754,32.704,38.393,22.403,4.948,8.275,21.377
181,0.708,35.895,32.762,38.383,22.406,4.947,8.233,21.252
182,0.708,36.002,32.783,38.412,22.42,5.069,8.355,21.17
183,0.705,36.137,32.744,38.364,22.399,4.908,8.153,20.641
184,0.708,35.784,32.665,38.374,22.402,4.865,8.11,20.391
185,0.708,35.933,32.645,38.374,22.402,4.865,8.109,20.267
186,0.685,36.05,32.649,38.355,22.406,4.865,8.109,20.103
187,0.695,35.783,32.668,38.364,22.406,4.824,7.947,19.776
188,0.708,35.828,32.723,38.441,22.409,4.905,8.108,19.854
189,0.721,35.972,32.72,38.355,22.403,4.906,8.109,19.774
190,0.718,36.05,32.755,38.354,22.409,4.906,8.028,19.651
191,0.728,35.706,32.767,38.364,22.409,4.947,8.027,19.528
192,0.721,35.818,32.712,38.374,22.42,5.069,8.149,19.527
193,0.737,35.924,32.606,38.355,22.403,4.908,7.947,19.242
194,0.728,36.021,32.707,38.345,22.402,4.865,7.986,18.995
195,0.728,35.677,32.7,38.354,22.402,5.028,8.027,18.911
196,0.725,35.779,32.696,38.326,22.399,4.867,7.946,18.666
197,0.734,35.933,32.727,38.354,22.406,4.906,7.986,18.542
198,0.744,36.021,32.743,38.354,22.406,4.987,7.986,18.5
199,0.738,35.782,32.771,38.335,22.409,4.948,7.946,18.296
200,0.721,35.933,32.751,38.354,22.413,4.947,7.905,18.335
201,0.718,36.127,32.724,38.393,22.416,5.069,8.026,18.864
202,0.708,36.129,32.716,38.326,22.406,4.948,7.946,19.52
203,0.721,35.582,32.72,38.316,22.399,4.947,7.783,20.177
204,0.715,35.72,32.731,38.335,22.402,4.907,7.822,20.956
205,0.715,35.837,32.782,38.325,22.402,4.906,7.822,21.452
206,0.721,35.896,32.791,38.297,22.399,4.825,7.7,21.904
207,0.728,35.704,32.814,38.315,22.409,4.946,7.699,22.234
208,0.721,35.846,32.76,38.335,22.409,4.947,7.78,22.4
209,0.705,35.972,32.728,38.316,22.409,4.907,7.74,22.401
210,0.721,36.012,32.716,38.316,22.406,4.987,7.699,22.279
211,0.744,36.089,32.72,38.344,22.423,5.07,7.699,22.115
212,0.734,36.186,32.747,38.306,22.406,4.989,7.699,21.87
213,0.734,36.283,32.778,38.287,22.396,4.948,7.618,21.339
214,0.731,36.245,32.755,38.287,22.406,4.907,7.535,21.089
215,0.76,35.401,32.74,38.287,22.409,4.947,7.616,20.802
216,0.761,35.498,32.735,38.258,22.392,4.825,7.535,20.19
217,0.754,35.643,32.751,38.315,22.413,5.027,7.575,19.858
218,0.744,35.894,32.712,38.268,22.413,5.03,7.575,19.489
219,0.751,36.05,32.723,38.286,22.409,4.948,7.454,18.997
220,0.741,36.176,32.712,38.287,22.406,4.947,7.493,18.545
221,0.738,36.292,32.747,38.287,22.42,5.069,7.656,18.297
222,0.738,35.459,32.775,38.258,22.403,4.908,7.373,17.847
223,0.741,35.537,32.712,38.238,22.406,4.947,7.411,17.477
224,0.741,35.691,32.657,38.267,22.409,5.029,7.411,17.31
225,0.728,35.779,32.645,38.248,22.403,5.03,7.411,17.024
226,0.751,35.665,32.668,38.286,22.402,4.989,7.289,16.696
227,0.757,35.827,32.68,38.287,22.409,5.07,7.41,16.611
228,0.761,35.934,32.704,38.248,22.409,4.989,7.411,16.367
229,0.751,36.031,32.743,38.257,22.406,4.988,7.411,16.161
230,0.767,35.869,32.802,38.277,22.416,5.07,7.452,16.118
231,0.761,35.963,32.74,38.248,22.403,4.989,7.452,16.077
232,0.757,36.089,32.653,38.219,22.402,4.907,7.452,15.955
233,0.754,36.176,32.703,38.238,22.406,4.987,7.493,15.913
234,0.761,35.468,32.688,38.248,22.402,4.988,7.453,16.116
235,0.754,35.595,32.7,38.229,22.392,4.866,7.412,16.646
236,0.777,35.749,32.758,38.248,22.409,5.028,7.615,17.79
237,0.764,35.808,32.759,38.229,22.409,5.03,7.657,19.021
238,0.761,35.704,32.779,38.228,22.409,5.03,7.658,20.335
239,0.767,35.856,32.822,38.219,22.406,4.989,7.617,21.364
240,0.767,35.973,32.771,38.267,22.423,5.11,7.739,22.432
241,0.751,35.983,32.728,38.267,22.399,4.989,7.537,22.93
242,0.748,35.629,32.708,38.219,22.409,4.988,7.616,23.382
243,0.757,35.769,32.723,38.219,22.409,4.988,7.657,23.834
244,0.741,35.866,32.747,38.19,22.399,4.988,7.658,24.123
245,0.764,36.049,32.767,38.209,22.406,5.029,7.576,24.248
246,0.748,35.629,32.779,38.219,22.413,5.03,7.738,24.452
247,0.757,35.778,32.767,38.219,22.406,4.989,7.699,24.414
248,0.757,35.876,32.794,38.2,22.409,4.988,7.78,24.251
249,0.757,35.704,32.736,38.238,22.413,5.151,7.781,24.087
250,0.751,35.712,32.708,38.209,22.406,4.99,7.7,23.963
251,0.754,35.827,32.704,38.19,22.399,4.948,7.618,23.677
252,0.764,35.934,32.766,38.18,22.395,4.947,7.657,23.552
253,0.767,35.542,32.779,38.19,22.413,4.988,7.658,23.266
254,0.774,35.634,32.783,38.18,22.389,4.866,7.536,22.816
255,0.787,35.807,32.755,38.218,22.406,5.109,7.779,22.649
256,0.787,35.905,32.743,38.19,22.409,4.989,7.781,22.282
257,0.78,35.522,32.739,38.19,22.409,4.988,7.822,21.871
258,0.767,35.681,32.673,38.199,22.409,4.948,7.863,21.501
259,0.774,35.827,32.723,38.219,22.413,5.11,7.944,21.213
260,0.774,35.886,32.685,38.161,22.399,4.989,7.742,20.641
261,0.761,35.503,32.762,38.142,22.395,4.907,7.821,20.229
262,0.774,35.662,32.767,38.18,22.406,4.906,7.822,19.818
263,0.744,35.788,32.712,38.171,22.396,4.947,7.903,19.326
264,0.767,35.886,32.684,38.17,22.406,4.866,7.863,18.874
265,0.757,35.56,32.727,38.19,22.409,5.028,7.944,18.544
266,0.774,35.701,32.614,38.19,22.409,4.948,7.945,18.053
267,0.784,35.827,32.574,38.199,22.406,4.907,7.945,17.641
268,0.774,35.905,32.703,38.19,22.416,5.109,7.945,17.231
269,0.774,35.685,32.712,38.161,22.416,5.071,7.986,16.739
270,0.771,35.808,32.735,38.161,22.403,4.948,7.824,16.287
271,0.774,35.943,32.751,38.151,22.399,4.907,7.944,15.957
272,0.793,35.973,32.661,38.161,22.402,4.906,7.864,15.506
273,0.78,35.552,32.692,38.132,22.392,4.825,7.822,15.136
274,0.81,35.73,32.723,38.141,22.402,4.987,7.944,14.888
275,0.807,35.856,32.735,38.16,22.409,4.988,8.026,14.682
276,0.803,35.925,32.751,38.151,22.403,4.948,8.109,14.436
277,0.803,35.513,32.743,38.141,22.406,4.947,8.028,14.19
278,0.803,35.681,32.767,38.18,22.42,5.029,8.149,14.147
279,0.8,35.741,32.755,38.123,22.406,4.826,8.069,13.862
280,0.807,35.549,32.712,38.132,22.402,4.824,8.069,13.696
281,0.803,35.615,32.704,38.141,22.402,4.946,8.15,13.573
282,0.79,35.75,32.7,38.132,22.406,4.907,8.15,13.49
283,0.8,35.866,32.731,38.103,22.402,4.825,8.11,13.286
284,0.794,35.599,32.782,38.122,22.413,5.027,8.272,13.487
285,0.8,35.73,32.787,38.122,22.406,4.948,8.233,13.449
286,0.807,35.856,32.779,38.122,22.409,4.947,8.233,13.367
287,0.813,35.973,32.787,38.122,22.413,4.988,8.273,13.325
288,0.8,35.504,32.759,38.132,22.409,4.948,8.396,13.325
289,0.79,35.653,32.662,38.084,22.403,4.866,8.194,13.041
290,0.8,35.769,32.692,38.093,22.399,4.987,8.192,12.875
291,0.803,35.876,32.719,38.093,22.409,4.907,8.192,12.873
292,0.807,35.57,32.763,38.074,22.406,4.865,8.151,12.67
293,0.816,35.759,32.779,38.093,22.409,4.946,8.273,12.587
294,0.82,35.895,32.732,38.103,22.409,4.988,8.233,12.586
295,0.817,35.935,32.692,38.093,22.403,4.866,8.151,12.383
296,0.833,35.628,32.673,38.093,22.409,4.946,8.191,12.299
297,0.83,35.817,32.696,38.122,22.416,4.988,8.232,12.298
298,0.813,35.886,32.63,38.084,22.41,4.988,8.111,12.136
299,0.813,35.944,32.688,38.055,22.403,4.866,8.069,11.972
300,0.8,35.504,32.735,38.064,22.409,4.865,8.109,11.929
301,0.816,35.653,32.759,38.074,22.406,4.946,8.109,11.807
302,0.8,35.76,32.712,38.054,22.399,4.825,7.947,11.643
303,0.81,35.818,32.673,38.083,22.406,4.987,8.067,11.682
304,0.813,35.732,32.704,38.083,22.413,4.907,8.109,11.601
305,0.813,35.875,32.7,38.064,22.406,4.987,8.028,11.56
306,0.81,35.992,32.743,38.054,22.409,4.907,8.068,11.397
307,0.82,36.051,32.767,38.083,22.42,5.069,8.15,11.476
308,0.803,35.629,32.744,38.045,22.403,4.908,7.988,11.274
309,0.803,35.75,32.802,38.025,22.402,4.865,7.986,11.15
310,0.816,35.885,32.787,38.044,22.402,4.906,8.068,11.026
311,0.823,35.589,32.654,38.045,22.409,4.865,8.109,11.066
312,0.817,35.634,32.692,38.006,22.399,4.824,7.947,10.904
313,0.842,35.788,32.7,38.063,22.409,4.987,8.148,10.983
314,0.846,35.886,32.727,38.045,22.406,4.907,8.232,11.066
315,0.846,35.666,32.763,38.025,22.409,4.987,8.233,11.026
316,0.84,35.779,32.783,38.025,22.406,4.948,8.151,11.025
317,0.843,35.924,32.806,38.054,22.416,5.029,8.273,11.269
318,0.833,35.973,32.81,38.016,22.399,4.867,8.111,11.231
319,0.852,35.609,32.795,37.987,22.399,4.824,8.15,11.149
320,0.846,35.749,32.689,38.025,22.406,4.905,8.191,11.311
321,0.836,35.885,32.712,38.016,22.402,4.947,8.232,11.353
322,0.843,35.982,32.731,38.006,22.402,4.866,8.151,11.313
323,0.839,35.801,32.802,38.015,22.409,4.987,8.273,11.394
324,0.823,35.943,32.783,37.987,22.409,4.948,8.233,11.476
325,0.849,36.06,32.744,38.006,22.409,5.029,8.192,11.436
326,0.872,36.157,32.747,38.025,22.416,4.989,8.273,11.477
327,0.833,35.813,32.728,37.977,22.41,5.029,8.233,11.396
328,0.839,35.962,32.696,37.958,22.399,4.867,8.192,11.395
329,0.852,36.079,32.7,37.967,22.406,4.906,8.11,11.517
330,0.862,36.147,32.7,37.977,22.406,4.906,8.15,11.64
331,0.843,35.86,32.727,37.948,22.392,4.784,8.069,11.519
332,0.839,36.03,32.782,37.977,22.416,4.946,8.15,11.681
333,0.833,36.166,32.748,37.967,22.41,4.907,8.15,11.886
334,0.849,36.177,32.704,37.967,22.406,5.069,8.11,11.969
335,0.849,36.043,32.665,37.967,22.402,4.948,8.109,11.889
336,0.856,36.185,32.688,37.986,22.423,4.988,8.232,12.01
337,0.846,36.254,32.649,37.958,22.399,4.907,8.029,11.808
338,0.849,36.331,32.575,37.957,22.402,4.906,7.987,11.765
339,0.83,36.054,32.652,37.948,22.399,4.947,7.946,11.887
340,0.852,36.176,32.699,37.938,22.402,4.907,7.986,11.888
341,0.849,36.302,32.751,37.938,22.399,4.865,7.946,11.806
342,0.836,36.437,32.724,37.957,22.409,4.987,8.026,11.928
343,0.833,36.563,32.685,37.948,22.409,4.988,7.987,11.929
344,0.833,36.689,32.692,37.929,22.406,5.029,7.986,11.929
345,0.849,36.796,32.727,37.948,22.416,4.989,7.986,12.051
346,0.827,35.886,32.704,37.938,22.41,4.988,8.027,12.377
347,0.833,35.973,32.712,37.9,22.403,4.907,7.905,12.543
348,0.849,36.108,32.696,37.89,22.402,4.906,7.945,12.829
349,0.853,36.205,32.727,37.909,22.409,4.906,7.945,13.198
350,0.836,36.168,32.735,37.861,22.392,4.825,7.864,13.324
351,0.839,36.369,32.677,37.918,22.409,4.946,7.985,13.569
352,0.846,36.505,32.719,37.928,22.409,4.988,7.946,13.694
353,0.836,36.564,32.731,37.909,22.409,5.029,7.945,13.979
354,0.859,36.21,32.763,37.909,22.406,4.907,7.945,14.023
355,0.879,36.388,32.798,37.919,22.416,5.109,8.067,14.308
356,0.85,36.476,32.81,37.88,22.41,4.867,7.865,14.229
357,0.836,36.544,32.799,37.87,22.399,4.906,7.782,14.391
358,0.83,36.277,32.802,37.89,22.406,4.947,7.862,14.515
359,0.82,36.437,32.744,37.88,22.399,4.866,7.863,14.801
360,0.833,36.573,32.736,37.928,22.406,4.987,7.782,15.048
361,0.836,36.641,32.704,37.88,22.413,4.988,7.903,15.335
362,0.826,36.46,32.766,37.87,22.406,4.948,7.863,15.622
363,0.82,36.592,32.794,37.861,22.409,4.988,7.863,15.91
364,0.836,36.757,32.798,37.889,22.413,4.948,7.944,15.994
365,0.813,36.739,32.767,37.861,22.409,5.029,7.945,16.401
366,0.807,36.403,32.736,37.841,22.403,4.907,7.823,16.405
367,0.81,36.515,32.716,37.841,22.409,4.947,7.944,16.608
368,0.816,36.66,32.708,37.851,22.406,4.988,8.026,16.733
369,0.81,36.786,32.692,37.889,22.396,4.826,8.027,16.774
370,0.816,36.749,32.68,37.851,22.413,4.905,8.109,16.816
371,0.829,36.864,32.731,37.851,22.413,5.028,8.15,16.857
372,0.817,36.97,32.759,37.832,22.413,4.948,8.191,16.898
373,0.82,36.559,32.755,37.851,22.409,4.947,8.232,16.817
374,0.836,36.593,32.697,37.87,22.416,5.069,8.355,16.816
375,0.82,36.709,32.669,37.822,22.406,4.908,8.193,16.572
376,0.833,36.806,32.637,37.841,22.396,4.865,8.232,16.244
377,0.813,36.538,32.656,37.813,22.406,4.946,8.233,16.038
378,0.813,36.67,32.723,37.822,22.406,4.988,8.273,15.832
379,0.813,36.786,32.708,37.784,22.399,4.866,8.152,15.505
380,0.823,36.912,32.751,37.831,22.409,4.946,8.313,15.42
381,0.807,36.674,32.763,37.822,22.409,4.988,8.315,15.054
382,0.794,36.825,32.697,37.812,22.409,4.988,8.274,14.847
383,0.81,36.96,32.719,37.879,22.409,4.988,8.314,14.56
384,0.794,37.038,32.696,37.813,22.413,5.029,8.356,14.516
385,0.79,36.502,32.696,37.784,22.399,4.826,8.234,14.028
386,0.777,36.65,32.727,37.774,22.395,4.865,8.273,13.861
387,0.774,36.796,32.735,37.802,22.402,4.906,8.314,13.696
388,0.771,36.826,32.755,37.774,22.402,4.906,8.274,13.573
389,0.787,36.788,32.79,37.783,22.402,4.865,8.193,13.327
390,0.79,36.922,32.763,37.802,22.409,4.906,8.314,13.244
391,0.797,37.076,32.704,37.803,22.409,4.906,8.315,13.08
392,0.787,37.107,32.704,37.793,22.413,4.987,8.234,12.916
393,0.797,36.771,32.751,37.802,22.42,5.07,8.355,12.833
394,0.79,36.873,32.763,37.764,22.41,4.948,8.234,12.588
395,0.797,36.999,32.767,37.754,22.399,4.825,8.111,12.342
396,0.794,37.029,32.81,37.745,22.402,4.865,8.15,12.258
397,0.78,36.819,32.791,37.754,22.406,4.906,8.191,12.135
398,0.787,36.96,32.783,37.745,22.402,4.865,8.07,11.89
399,0.78,37.096,32.744,37.773,22.409,5.028,8.191,11.928
400,0.764,37.078,32.724,37.764,22.409,4.989,8.192,11.848
401,0.764,36.733,32.72,37.764,22.406,4.948,8.192,11.603
402,0.78,36.911,32.77,37.745,22.413,4.988,8.151,11.56
403,0.758,36.98,32.775,37.754,22.409,5.151,8.313,11.559
404,0.748,36.808,32.74,37.716,22.403,4.909,8.071,11.356
405,0.751,36.874,32.728,37.715,22.399,4.906,8.109,11.273
406,0.744,37.009,32.704,37.735,22.409,4.947,8.109,11.231
407,0.731,37.068,32.704,37.716,22.403,4.947,8.15,11.271
408,0.754,36.685,32.677,37.735,22.402,4.988,8.273,11.231
409,0.748,36.786,32.708,37.744,22.406,5.029,8.355,11.231
410,0.751,36.941,32.7,37.725,22.413,4.989,8.275,11.231
411,0.748,37.029,32.755,37.716,22.406,5.029,8.233,11.312
412,0.764,36.799,32.782,37.744,22.416,5.03,8.355,11.435
413,0.751,36.893,32.72,37.725,22.403,4.907,8.315,11.517
414,0.757,37.028,32.649,37.696,22.399,4.865,8.193,11.599
415,0.757,37.106,32.625,37.706,22.402,4.906,8.232,12.007
416,0.754,36.781,32.676,37.706,22.402,4.987,8.273,12.824
417,0.738,36.893,32.594,37.715,22.392,4.826,8.152,13.767
418,0.747,37.057,32.711,37.715,22.402,5.027,8.273,14.997
419,0.734,37.097,32.716,37.696,22.413,4.948,8.314,15.985
420,0.738,36.829,32.778,37.696,22.413,4.988,8.234,16.889
421,0.728,36.951,32.767,37.696,22.409,4.948,8.192,17.589
422,0.738,37.086,32.689,37.715,22.42,4.988,8.354,18.328
423,0.725,37.116,32.692,37.677,22.406,4.866,8.112,18.62
424,0.718,36.8,32.692,37.667,22.399,4.865,8.069,18.907
425,0.715,36.979,32.723,37.667,22.406,4.946,8.109,19.114
426,0.715,37.067,32.727,37.629,22.402,4.866,8.109,19.156
427,0.728,37.116,32.759,37.686,22.406,4.906,7.987,19.116
428,0.738,36.743,32.751,37.696,22.406,4.987,8.027,19.075
429,0.721,36.883,32.767,37.658,22.409,4.948,8.068,18.953
430,0.728,36.98,32.74,37.667,22.403,4.988,8.028,18.707
431,0.725,37.106,32.747,37.763,22.42,5.11,8.068,18.583
432,0.705,36.906,32.704,37.649,22.403,4.867,7.865,18.216
433,0.718,37.067,32.735,37.638,22.402,4.865,7.863,17.968
434,0.724,37.174,32.755,37.638,22.409,4.906,7.985,17.763
435,0.698,36.676,32.775,37.638,22.396,4.825,7.905,17.516
436,0.705,36.719,32.787,37.638,22.399,4.905,7.823,17.189
437,0.718,36.873,32.783,37.638,22.413,4.947,7.985,17.063
438,0.702,36.961,32.775,37.638,22.406,4.947,7.946,16.818
439,0.711,36.76,32.728,37.638,22.406,4.907,7.905,16.531
440,0.715,36.921,32.708,37.686,22.416,5.069,8.067,16.406
441,0.676,37.009,32.696,37.61,22.403,4.908,8.028,15.999
442,0.675,37.077,32.735,37.599,22.402,4.906,7.946,15.71
443,0.688,36.666,32.767,37.609,22.406,4.865,8.026,15.422
444,0.679,36.786,32.779,37.599,22.402,4.865,8.027,15.216
445,0.685,36.922,32.744,37.58,22.406,4.865,7.905,14.726
446,0.698,37.038,32.743,37.637,22.416,4.987,8.067,14.64
447,0.701,36.694,32.716,37.619,22.413,4.948,8.069,14.355
448,0.698,36.806,32.712,37.619,22.406,4.907,8.069,14.027
449,0.727,36.998,32.708,37.59,22.402,4.865,8.069,13.82
450,0.708,37.048,32.696,37.59,22.409,4.987,8.191,13.777
451,0.695,36.684,32.739,37.561,22.406,4.826,8.029,13.289
452,0.701,36.825,32.782,37.58,22.409,4.783,8.109,13.04
453,0.695,36.951,32.748,37.58,22.403,4.864,8.109,12.875
454,0.701,36.99,32.677,37.58,22.402,4.784,8.15,12.629
455,0.714,36.674,32.68,37.58,22.409,4.905,8.11,12.464
456,0.708,36.815,32.672,37.59,22.409,4.906,8.15,12.259
457,0.705,36.922,32.649,37.59,22.406,4.825,8.15,12.054
458,0.721,36.942,32.707,37.57,22.413,4.946,8.11,11.889
459,0.728,36.76,32.72,37.609,22.413,5.029,8.191,11.725
460,0.715,36.854,32.731,37.561,22.406,4.867,8.07,11.479
461,0.702,36.961,32.747,37.561,22.406,4.784,7.987,11.192
462,0.705,36.942,32.661,37.551,22.409,4.824,7.986,11.027
463,0.702,36.731,32.711,37.541,22.406,4.865,8.027,10.903
464,0.698,36.863,32.692,37.522,22.399,4.743,7.865,10.577
465,0.698,37.009,32.719,37.57,22.413,4.945,8.107,10.614
466,0.692,36.617,32.727,37.551,22.409,4.907,8.028,10.493
467,0.698,36.632,32.767,37.56,22.406,4.906,8.109,10.329
468,0.708,36.786,32.763,37.551,22.409,4.865,7.987,10.165
469,0.685,36.883,32.802,37.56,22.416,4.987,8.149,10.204
470,0.705,36.731,32.763,37.522,22.403,4.826,7.988,9.879
471,0.702,36.844,32.658,37.522,22.402,4.824,7.986,9.753
472,0.701,36.98,32.711,37.522,22.402,4.865,8.027,9.712
473,0.698,37.077,32.708,37.503,22.399,4.865,7.865,9.63
474,0.714,36.57,32.766,37.522,22.406,4.906,7.944,9.466
475,0.721,36.699,32.783,37.512,22.413,4.906,7.986,9.505
476,0.721,36.825,32.822,37.512,22.409,4.906,7.946,9.425
477,0.721,36.903,32.775,37.503,22.403,4.947,7.986,9.424
478,0.715,36.645,32.83,37.541,22.42,4.988,8.149,9.668
479,0.708,36.757,32.744,37.503,22.403,4.866,8.028,9.792
480,0.695,36.873,32.724,37.493,22.399,4.824,7.743,9.915
481,0.698,36.951,32.696,37.493,22.402,4.824,7.862,10.079
482,0.692,36.664,32.755,37.502,22.399,4.865,7.863,10.487
483,0.692,36.786,32.782,37.464,22.395,4.824,7.741,10.654
484,0.711,36.931,32.767,37.493,22.409,4.987,7.943,11.306
485,0.695,36.971,32.736,37.474,22.409,4.907,7.986,12.207
486,0.695,36.636,32.7,37.483,22.409,4.987,8.027,13.233
487,0.698,36.786,32.696,37.483,22.403,4.948,7.905,14.219
488,0.705,36.893,32.673,37.493,22.42,4.947,7.985,15.245
489,0.695,36.932,32.719,37.454,22.399,4.825,7.864,15.865
490,0.724,36.501,32.7,37.454,22.402,4.865,7.782,16.603
491,0.721,36.669,32.77,37.464,22.413,4.865,7.822,17.18
492,0.689,36.729,32.747,37.425,22.403,4.865,7.822,17.552
493,0.718,36.825,32.712,37.463,22.399,4.906,7.863,17.84
494,0.728,36.749,32.63,37.464,22.409,4.987,7.904,18.209
495,0.741,36.873,32.695,37.531,22.413,4.948,7.904,18.456
496,0.738,36.951,32.704,37.445,22.413,4.947,7.863,18.621
497,0.744,36.588,32.727,37.473,22.416,5.029,7.863,18.786
498,0.715,36.574,32.7,37.464,22.406,4.907,7.822,18.787
499,0.715,36.708,32.712,37.416,22.402,4.784,7.741,18.543
500,0.724,36.796,32.766,37.425,22.406,4.905,7.699,18.459
501,0.721,36.519,32.708,37.435,22.409,4.906,7.78,18.255
502,0.715,36.612,32.743,37.464,22.396,4.825,7.74,17.847
503,0.734,36.786,32.708,37.416,22.409,4.946,7.781,17.721
504,0.725,36.883,32.751,37.415,22.409,4.988,7.862,17.516
505,0.715,36.52,32.751,37.406,22.403,4.907,7.863,17.229
506,0.721,36.67,32.763,37.406,22.406,4.865,7.944,16.942
507,0.728,36.815,32.779,37.444,22.42,5.068,8.026,16.817
508,0.718,36.855,32.751,37.397,22.403,4.948,7.946,16.409
509,0.715,36.462,32.794,37.377,22.402,4.825,7.864,16.121
510,0.715,36.621,32.681,37.396,22.399,4.946,7.904,15.915
511,0.728,36.766,32.723,37.396,22.406,4.866,7.985,15.75
512,0.734,36.797,32.712,37.386,22.402,4.824,7.864,15.423
513,0.741,36.529,32.763,37.406,22.409,4.987,8.026,15.46
514,0.751,36.67,32.783,37.396,22.413,4.988,8.027,15.298
515,0.744,36.777,32.787,37.386,22.406,4.948,8.027,15.174
516,0.751,36.835,32.783,37.386,22.406,5.029,8.027,15.092
517,0.735,36.519,32.791,37.386,22.413,5.03,8.109,15.132
518,0.734,36.612,32.724,37.338,22.403,4.907,7.947,14.766
519,0.738,36.747,32.661,37.376,22.409,4.906,7.986,14.64
520,0.734,36.787,32.692,37.396,22.399,4.865,7.986,14.599
521,0.721,36.624,32.712,37.358,22.399,4.906,7.946,14.598
522,0.747,36.786,32.763,37.376,22.399,4.865,7.945,14.476
523,0.741,36.912,32.763,37.358,22.409,4.987,8.026,14.556
524,0.725,36.75,32.724,37.357,22.409,4.988,7.987,14.638
525,0.734,36.471,32.646,37.357,22.409,4.948,7.946,14.558
526,0.744,36.64,32.664,37.386,22.416,5.029,7.945,14.516
527,0.728,36.7,32.629,37.338,22.406,4.948,7.864,14.557
528,0.734,36.48,32.672,37.415,22.402,4.866,7.822,14.395
529,0.728,36.573,32.704,37.339,22.402,4.906,7.822,14.271
530,0.725,36.708,32.743,37.328,22.406,4.906,7.863,14.27
531,0.724,36.758,32.759,37.29,22.399,4.825,7.741,14.026
532,0.724,36.471,32.743,37.328,22.409,4.987,7.903,14.023
533,0.724,36.602,32.677,37.347,22.406,4.907,7.945,13.983
534,0.734,36.718,32.715,37.328,22.406,4.947,7.986,13.86
535,0.734,36.806,32.712,37.309,22.402,4.907,7.864,13.737
536,0.744,36.471,32.739,37.347,22.416,4.987,8.066,13.736
537,0.721,36.573,32.728,37.281,22.403,4.826,7.824,13.37
538,0.721,36.718,32.759,37.299,22.402,4.905,7.781,13.285
539,0.724,36.796,32.759,37.299,22.396,4.865,7.862,13.203
540,0.728,36.423,32.759,37.309,22.402,4.824,7.863,13.161
541,0.741,36.601,32.689,37.309,22.413,4.905,7.822,12.998
542,0.734,36.747,32.715,37.319,22.406,4.906,7.944,12.956
543,0.721,36.787,32.7,37.319,22.406,4.906,7.864,12.793
544,0.728,36.643,32.727,37.299,22.406,4.906,7.904,12.669
545,0.747,36.824,32.782,37.328,22.416,5.028,7.945,12.627
546,0.721,36.884,32.771,37.271,22.403,4.867,7.783,12.546
547,0.718,36.951,32.79,37.27,22.399,4.824,7.781,12.423
548,0.731,36.29,32.814,37.28,22.402,4.865,7.74,12.381
549,0.728,36.437,32.799,37.261,22.409,4.906,7.74,12.462
550,0.725,36.573,32.732,37.289,22.403,4.744,7.577,12.259
551,0.731,36.613,32.72,37.29,22.409,4.905,7.779,12.379
552,0.738,36.421,32.727,37.28,22.413,4.906,7.781,12.421
553,0.741,36.563,32.767,37.27,22.409,4.865,7.618,12.422
554,0.76,36.708,32.783,37.309,22.416,4.906,7.698,12.544
555,0.754,36.624,32.755,37.28,22.416,4.825,7.74,12.667
556,0.738,36.45,32.716,37.251,22.396,4.824,7.537,12.668
557,0.741,36.592,32.727,37.26,22.399,4.824,7.575,12.79
558,0.738,36.699,32.689,37.261,22.399,4.946,7.657,12.873
559,0.731,36.403,32.684,37.232,22.399,4.744,7.576,12.914
560,0.731,36.515,32.715,37.279,22.406,4.945,7.698,12.996
561,0.725,36.641,32.759,37.261,22.416,4.988,7.699,13.037
562,0.711,36.738,32.786,37.27,22.406,4.907,7.618,12.956
563,0.728,36.336,32.716,37.232,22.413,4.906,7.576,12.874
564,0.712,36.495,32.677,37.27,22.416,4.987,7.698,12.873
565,0.702,36.593,32.657,37.222,22.403,4.826,7.577,12.548
566,0.714,36.689,32.594,37.241,22.402,4.824,7.535,12.464
567,0.708,36.317,32.672,37.241,22.402,4.905,7.534,12.463
568,0.702,36.409,32.707,37.212,22.396,4.906,7.575,12.3
569,0.724,36.553,32.7,37.231,22.402,4.865,7.454,12.095
570,0.724,36.632,32.774,37.241,22.409,4.946,7.574,12.093
571,0.728,36.373,32.783,37.232,22.409,4.947,7.575,12.052
572,0.728,36.534,32.701,37.231,22.403,4.988,7.535,11.93
573,0.734,36.699,32.731,37.26,22.416,5.07,7.534,11.929
574,0.725,36.719,32.72,37.213,22.41,4.948,7.412,11.807
575,0.737,36.259,32.727,37.212,22.399,4.825,7.33,11.602
576,0.741,36.418,32.743,37.203,22.402,4.865,7.37,11.519
577,0.744,36.544,32.736,37.202,22.409,4.906,7.411,11.477
578,0.718,36.574,32.747,37.174,22.392,4.825,7.208,11.192
579,0.731,36.45,32.786,37.202,22.409,5.027,7.45,11.23
580,0.712,36.573,32.752,37.202,22.409,4.948,7.452,11.149
581,0.698,36.718,32.693,37.212,22.406,4.988,7.452,11.067
582,0.708,36.729,32.715,37.193,22.406,4.988,7.493,10.904
583,0.705,36.279,32.727,37.202,22.413,5.07,7.616,10.943
584,0.685,36.408,32.763,37.155,22.406,4.908,7.495,10.618
585,0.692,36.525,32.806,37.173,22.399,4.906,7.494,10.493
586,0.692,36.555,32.814,37.164,22.406,4.987,7.616,10.41
587,0.679,36.488,32.795,37.164,22.406,5.029,7.617,10.328
588,0.698,36.65,32.756,37.154,22.399,4.867,7.617,10.124
589,0.705,36.767,32.728,37.164,22.409,4.987,7.82,10.163
590,0.708,36.25,32.7,37.173,22.409,4.988,7.781,10.041
591,0.708,36.302,32.708,37.173,22.406,4.948,7.862,9.918
592,0.708,36.476,32.759,37.173,22.413,4.988,7.863,9.754
593,0.698,36.525,32.79,37.173,22.409,4.988,7.944,9.833
594,0.714,36.468,32.795,37.125,22.399,4.866,7.864,9.509
595,0.728,36.583,32.759,37.154,22.402,4.906,7.944,9.506
596,0.725,36.737,32.716,37.135,22.402,4.987,7.945,9.384
597,0.702,36.796,32.696,37.106,22.396,4.826,7.823,9.261
598,0.708,36.059,32.7,37.134,22.406,4.946,8.025,9.259
599,0.711,36.185,32.704,37.135,22.409,5.029,8.109,9.178
600,0.708,36.331,32.716,37.125,22.406,4.989,8.028,9.177
601,0.708,36.399,32.774,37.125,22.413,4.988,8.027,9.055
602,0.718,36.448,32.798,37.154,22.416,5.11,8.109,9.176
603,0.711,36.544,32.709,37.125,22.403,4.908,7.947,9.096
604,0.705,36.679,32.673,37.115,22.399,4.906,7.864,9.217
605,0.692,36.767,32.676,37.144,22.402,4.947,7.944,9.543
606,0.685,36.298,32.696,37.096,22.402,4.947,7.986,9.791
607,0.695,36.437,32.719,37.144,22.402,4.825,7.824,10.118
608,0.714,36.573,32.735,37.106,22.409,5.027,8.025,11.098
609,0.715,36.622,32.716,37.115,22.409,4.989,8.027,12.165
610,0.708,36.364,32.751,37.096,22.406,4.988,8.027,13.68
611,0.721,36.534,32.751,37.125,22.406,4.988,8.109,15.24
612,0.705,36.651,32.689,37.115,22.416,5.11,8.109,16.922
613,0.695,36.652,32.704,37.096,22.399,4.949,7.825,17.955
614,0.701,36.259,32.7,37.067,22.402,4.988,7.863,19.064
615,0.705,36.398,32.719,37.086,22.406,4.907,7.985,20.091
616,0.698,36.496,32.727,37.086,22.399,4.865,7.905,21.037
617,0.714,36.458,32.759,37.077,22.409,4.946,7.945,21.656
618,0.705,36.372,32.755,37.096,22.413,4.988,8.067,22.394
619,0.708,36.476,32.767,37.077,22.406,5.029,8.028,22.767
620,0.708,36.564,32.763,37.077,22.406,4.867,7.946,23.096
621,0.702,36.286,32.759,37.182,22.42,5.068,8.026,23.465
622,0.698,36.293,32.708,37.049,22.403,4.908,7.865,23.632
623,0.688,36.428,32.723,37.048,22.399,4.865,7.782,23.633
624,0.672,36.534,32.759,37.038,22.406,4.946,7.781,23.755
625,0.672,36.229,32.786,37.057,22.406,4.988,7.822,23.675
626,0.675,36.35,32.794,37.038,22.402,4.826,7.7,23.471
627,0.685,36.514,32.802,37.076,22.42,4.946,7.902,23.51
628,0.685,36.583,32.799,37.038,22.41,4.988,7.782,23.51
629,0.685,36.152,32.74,37.047,22.413,4.948,7.781,23.469
630,0.698,36.33,32.716,37.057,22.413,4.907,7.74,23.632
631,0.695,36.438,32.708,37.057,22.409,4.987,7.74,23.918
632,0.688,36.496,32.727,37.019,22.396,4.948,7.659,23.88
633,0.708,36.295,32.786,37.028,22.409,4.907,7.658,23.88
634,0.715,36.437,32.783,37.028,22.403,4.947,7.739,23.92
635,0.705,36.554,32.74,36.99,22.392,4.825,7.618,23.636
636,0.711,36.641,32.728,37.028,22.409,5.027,7.698,23.471
637,0.698,36.105,32.724,37.028,22.406,4.989,7.74,23.347
638,0.701,36.243,32.735,37.009,22.413,4.988,7.659,23.224
639,0.695,36.37,32.72,37.086,22.409,4.948,7.698,23.223
640,0.695,36.448,32.716,37.048,22.423,5.11,7.821,23.304
641,0.675,36.391,32.743,37.009,22.406,4.949,7.7,23.02
642,0.682,36.524,32.778,36.999,22.402,4.866,7.618,22.814
643,0.682,36.641,32.755,36.999,22.402,4.946,7.617,22.527
644,0.688,36.671,32.689,37.009,22.406,4.907,7.657,22.402
645,0.685,36.249,32.653,36.971,22.402,4.744,7.536,22.157
646,0.685,36.418,32.653,37.018,22.416,4.905,7.697,22.155
647,0.682,36.525,32.571,37.009,22.41,5.028,7.699,21.992
648,0.685,36.439,32.703,36.99,22.409,4.989,7.618,21.787
649,0.698,36.333,32.708,36.989,22.406,4.988,7.617,21.541
650,0.705,36.486,32.762,37.018,22.42,5.029,7.698,21.539
651,0.675,36.564,32.779,36.971,22.399,4.867,7.536,21.498
652,0.688,36.239,32.685,36.98,22.402,4.906,7.534,21.66
653,0.698,36.36,32.68,37.009,22.406,4.906,7.534,21.906
654,0.701,36.467,32.672,36.971,22.399,4.947,7.575,22.03
655,0.708,36.583,32.715,36.98,22.406,4.947,7.494,21.991
656,0.718,36.277,32.755,36.989,22.413,5.069,7.616,22.113
657,0.715,36.379,32.74,36.989,22.409,4.989,7.576,22.073
658,0.702,36.515,32.712,36.98,22.406,4.948,7.494,21.91
659,0.705,36.631,32.759,37.018,22.42,5.069,7.494,21.827
660,0.702,36.095,32.763,36.98,22.41,5.03,7.534,21.542
661,0.695,36.234,32.685,36.951,22.396,4.907,7.453,21.173
662,0.688,36.389,32.708,36.941,22.402,4.906,7.493,20.844
663,0.692,36.457,32.708,36.97,22.409,4.947,7.534,20.515
664,0.672,36.276,32.731,36.932,22.392,4.866,7.412,20.065
665,0.688,36.456,32.774,36.96,22.409,4.987,7.533,19.776
666,0.685,36.583,32.783,36.97,22.413,4.907,7.534,19.407
667,0.685,36.651,32.787,36.951,22.413,4.906,7.534,18.997
668,0.695,36.23,32.791,36.96,22.403,4.947,7.494,18.667
669,0.695,36.379,32.767,36.96,22.42,4.988,7.697,18.542
670,0.688,36.486,32.662,36.932,22.399,4.826,7.496,18.256
671,0.688,36.535,32.703,36.931,22.399,4.946,7.494,18.05
672,0.688,36.305,32.723,36.941,22.402,4.907,7.534,18.007
673,0.662,36.408,32.763,36.922,22.402,4.906,7.616,17.885
674,0.701,36.553,32.794,36.95,22.402,4.947,7.617,17.843
675,0.695,36.593,32.806,36.932,22.406,4.907,7.698,17.761
676,0.688,36.258,32.767,36.931,22.406,4.987,7.658,17.516
677,0.695,36.379,32.763,36.922,22.402,4.866,7.658,17.351
678,0.695,36.524,32.747,36.95,22.42,5.068,7.861,17.269
679,0.672,36.401,32.63,36.922,22.406,4.908,7.66,16.902
680,0.678,36.323,32.684,36.922,22.402,4.825,7.658,16.654
681,0.678,36.447,32.735,36.941,22.406,4.905,7.658,16.408
682,0.675,36.554,32.782,36.941,22.406,4.906,7.617,16.202
683,0.675,36.21,32.736,36.912,22.392,4.784,7.617,15.793
684,0.662,36.292,32.712,36.922,22.402,4.946,7.861,15.667
685,0.672,36.447,32.681,36.941,22.409,4.947,7.741,15.422
686,0.675,36.535,32.637,36.932,22.399,4.988,7.781,15.094
687,0.675,36.257,32.645,36.941,22.406,4.907,7.781,14.806
688,0.672,36.37,32.699,36.922,22.416,4.906,7.822,14.681
689,0.672,36.486,32.7,36.903,22.399,4.784,7.7,14.233
690,0.682,36.554,32.743,36.893,22.402,4.905,7.74,14.025
691,0.682,36.219,32.767,36.902,22.402,4.906,7.903,13.942
692,0.682,36.34,32.701,36.874,22.399,4.825,7.823,13.738
693,0.695,36.514,32.727,36.998,22.402,4.905,7.944,13.614
694,0.688,36.612,32.712,36.922,22.413,4.987,7.986,13.531
695,0.688,36.181,32.716,36.903,22.406,4.948,7.946,13.368
696,0.695,36.302,32.778,36.883,22.413,4.907,7.864,13.163
697,0.701,36.456,32.744,36.921,22.42,5.028,7.985,13.039
698,0.679,36.496,32.755,36.883,22.403,4.867,7.905,12.875
699,0.691,36.276,32.759,36.873,22.399,4.865,7.782,12.629
700,0.688,36.408,32.763,36.883,22.409,4.865,7.944,12.586
701,0.685,36.525,32.607,36.921,22.403,4.865,7.864,12.464
702,0.679,36.564,32.711,36.855,22.396,4.824,7.822,12.341
703,0.688,36.229,32.735,36.873,22.409,4.946,7.985,12.421
704,0.688,36.369,32.763,36.883,22.409,4.907,7.864,12.3
705,0.685,36.476,32.783,36.873,22.409,4.865,7.863,12.298
706,0.682,36.535,32.794,36.873,22.413,4.906,7.904,12.298
707,0.685,36.267,32.826,36.902,22.423,5.028,7.945,12.217
708,0.685,36.36,32.779,36.854,22.406,4.907,7.905,12.094
709,0.675,36.457,32.755,36.844,22.399,4.784,7.823,11.849
710,0.685,36.429,32.72,36.844,22.402,4.864,7.822,11.765
711,0.682,36.4,32.708,36.844,22.402,4.906,7.822,11.805
712,0.679,36.515,32.735,36.825,22.396,4.744,7.7,11.643
713,0.695,36.66,32.806,36.854,22.409,4.905,7.861,11.641
714,0.695,36.22,32.775,36.864,22.413,4.947,7.782,11.56
715,0.695,36.293,32.744,36.864,22.403,4.947,7.781,11.478
716,0.692,36.418,32.704,36.854,22.409,4.907,7.822,11.436
717,0.705,36.544,32.704,36.873,22.427,4.987,7.863,11.68
718,0.689,36.094,32.684,36.835,22.403,4.826,7.741,11.601
719,0.688,36.215,32.68,36.854,22.399,4.824,7.659,11.682
720,0.695,36.379,32.692,36.854,22.409,4.865,7.739,11.723
721,0.675,36.448,32.754,36.835,22.403,4.906,7.781,11.805
722,0.669,36.18,32.763,36.815,22.399,4.865,7.74,11.684
723,0.675,36.34,32.708,36.854,22.409,4.946,7.943,11.926
724,0.665,36.486,32.673,36.835,22.406,4.947,7.864,12.01
725,0.662,36.554,32.711,36.892,22.406,4.907,7.863,12.092
726,0.675,36.104,32.723,36.826,22.409,4.947,7.863,12.256
727,0.678,36.224,32.708,36.854,22.413,4.988,7.985,12.461
728,0.675,36.35,32.712,36.806,22.399,4.866,7.864,12.503
729,0.682,36.428,32.712,36.796,22.406,4.743,7.863,12.666
730,0.692,36.285,32.747,36.825,22.409,4.986,7.985,12.709
731,0.669,36.399,32.743,36.787,22.392,4.826,7.783,12.953
732,0.691,36.572,32.677,36.825,22.409,4.946,7.984,13.118
733,0.688,36.632,32.719,36.844,22.409,4.947,8.108,13.445
734,0.701,36.46,32.724,36.806,22.406,4.907,8.109,13.936
735,0.695,36.602,32.751,36.815,22.402,4.906,8.069,14.592
736,0.708,36.728,32.767,36.854,22.42,5.109,8.231,15.574
737,0.692,36.71,32.759,36.806,22.403,4.827,8.151,16.397
738,0.685,36.019,32.743,36.786,22.402,4.946,8.069,17.097
739,0.692,36.166,32.786,36.796,22.402,4.907,8.15,17.795
740,0.695,36.292,32.728,36.805,22.406,4.906,8.15,18.411
741,0.695,36.322,32.731,36.767,22.396,4.906,8.028,18.58
742,0.698,36.351,32.72,36.805,22.413,4.947,8.19,19.192
743,0.711,36.476,32.755,36.796,22.409,5.029,8.273,19.157
744,0.689,36.573,32.798,36.777,22.406,5.03,8.193,19.238
745,0.695,36.114,32.791,36.796,22.409,4.948,8.232,19.158
746,0.685,36.167,32.795,36.805,22.413,5.069,8.355,19.076
747,0.672,36.302,32.759,36.767,22.399,4.908,8.193,18.709
748,0.678,36.389,32.732,36.767,22.402,4.947,8.192,18.542
749,0.685,36.179,32.677,36.776,22.406,4.988,8.273,18.216
750,0.682,36.302,32.692,36.767,22.396,4.866,8.314,17.968
751,0.718,36.485,32.735,36.786,22.402,4.946,8.274,17.722
752,0.721,36.564,32.771,36.786,22.409,5.029,8.436,17.679
753,0.721,36.076,32.779,36.777,22.406,4.948,8.438,17.556
754,0.728,36.214,32.775,36.767,22.409,4.988,8.357,17.474
755,0.747,36.379,32.751,36.796,22.413,5.029,8.478,17.514
756,0.728,36.409,32.724,36.767,22.409,4.989,8.52,17.473
757,0.718,36.189,32.696,36.748,22.406,4.866,8.398,17.351
758,0.721,36.34,32.645,36.757,22.402,4.865,8.397,17.35
759,0.721,36.476,32.692,36.757,22.402,4.987,8.438,17.35
760,0.708,36.506,32.692,36.728,22.396,4.826,8.357,17.147
761,0.721,36.027,32.766,36.766,22.409,4.946,8.559,17.022
762,0.721,36.176,32.775,36.767,22.403,5.029,8.521,16.94
763,0.705,36.311,32.697,36.757,22.406,4.989,8.561,16.573
764,0.702,36.361,32.645,36.767,22.409,4.988,8.561,16.447
765,0.714,36.198,32.715,36.786,22.416,5.07,8.602,16.243
766,0.698,36.331,32.731,36.729,22.399,4.867,8.48,15.834
767,0.698,36.438,32.735,36.738,22.402,4.946,8.52,15.546
768,0.714,36.467,32.7,36.747,22.402,4.947,8.52,15.34
769,0.708,36.17,32.735,36.747,22.402,4.988,8.601,15.215
770,0.702,36.321,32.771,36.738,22.402,4.907,8.521,15.011
771,0.701,36.447,32.744,36.757,22.416,5.069,8.683,15.253
772,0.747,36.247,32.677,36.757,22.41,5.03,8.603,15.337
773,0.757,36.149,32.704,36.757,22.416,4.948,8.602,15.5
774,0.777,36.321,32.708,36.767,22.41,4.988,8.643,15.746
775,0.777,36.399,32.723,36.748,22.409,5.029,8.603,15.87
776,0.771,36.093,32.77,36.728,22.399,4.948,8.48,15.871
777,0.754,36.167,32.79,36.728,22.395,4.907,8.438,15.871
778,0.774,36.311,32.787,36.738,22.409,4.947,8.479,15.912
779,0.767,36.389,32.759,36.709,22.396,4.825,8.357,15.75
780,0.77,36.055,32.743,36.728,22.409,4.987,8.356,15.707
781,0.744,36.176,32.716,36.728,22.413,4.988,8.478,15.666
782,0.728,36.321,32.712,36.738,22.409,4.948,8.398,15.463
783,0.721,36.409,32.751,36.719,22.403,4.907,8.275,15.257
784,0.718,35.997,32.798,36.728,22.42,5.109,8.436,15.093
785,0.708,36.099,32.791,36.69,22.403,4.989,8.194,14.847
786,0.721,36.243,32.791,36.699,22.399,4.866,8.192,14.682
787,0.724,36.331,32.798,36.699,22.406,4.946,8.192,14.802
788,0.731,36.016,32.791,36.709,22.406,4.947,8.273,15.048
789,0.738,36.195,32.736,36.69,22.402,4.907,8.193,15.294
790,0.754,36.34,32.747,36.709,22.409,4.987,8.354,15.784
791,0.757,36.399,32.716,36.718,22.406,5.029,8.437,16.155
792,0.761,36.064,32.751,36.699,22.409,5.03,8.357,16.647
793,0.787,36.205,32.794,36.718,22.406,4.907,8.478,17.302
794,0.78,36.331,32.775,36.718,22.42,5.109,8.601,18.081
795,0.764,36.342,32.716,36.68,22.403,4.908,8.44,18.496
796,0.757,36.131,32.7,36.68,22.399,4.947,8.479,19.15
797,0.767,36.282,32.7,36.699,22.402,4.988,8.52,19.685
798,0.757,36.36,32.661,36.67,22.399,4.907,8.52,20.179
799,0.767,36.457,32.703,36.689,22.406,4.947,8.561,20.428
800,0.751,36.151,32.727,36.699,22.413,5.029,8.643,20.836
801,0.741,36.263,32.767,36.69,22.409,4.907,8.521,20.841
802,0.728,36.389,32.767,36.68,22.403,5.028,8.601,20.759
803,0.741,36.266,32.689,36.689,22.409,5.07,8.521,20.596
804,0.702,36.168,32.692,36.718,22.416,5.07,8.561,20.472
805,0.679,36.292,32.684,36.671,22.406,4.908,8.358,20.024
806,0.669,36.399,32.704,36.67,22.406,4.987,8.356,19.816
807,0.678,35.968,32.723,36.68,22.406,4.988,8.356,19.489
808,0.678,36.022,32.724,36.661,22.399,4.907,8.275,19.16
809,0.682,36.195,32.743,36.66,22.406,5.069,8.314,18.832
810,0.692,36.292,32.814,36.68,22.409,5.03,8.437,18.544
811,0.679,36.015,32.705,36.68,22.416,5.03,8.316,18.175
812,0.691,36.137,32.739,36.728,22.413,5.03,8.274,18.049
813,0.695,36.292,32.728,36.709,22.42,5.192,8.396,18.129
814,0.695,36.351,32.743,36.651,22.399,4.99,8.275,18.13
815,0.695,36.025,32.755,36.651,22.395,4.948,8.193,18.333
816,0.714,36.176,32.775,36.66,22.402,5.069,8.273,18.579
817,0.705,36.292,32.767,36.66,22.406,5.03,8.152,18.826
818,0.705,36.37,32.759,36.641,22.399,4.948,8.11,18.95
819,0.711,35.901,32.786,36.651,22.409,5.069,8.191,19.195
820,0.708,36.05,32.713,36.66,22.409,5.07,8.232,19.279
821,0.702,36.185,32.716,36.66,22.406,5.03,8.151,19.199
822,0.714,36.254,32.724,36.651,22.409,5.03,8.11,19.076
823,0.698,35.996,32.778,36.651,22.416,5.111,8.191,19.115
824,0.692,36.099,32.779,36.622,22.406,4.989,7.988,18.791
825,0.708,36.234,32.783,36.641,22.402,5.029,8.068,18.625
826,0.702,36.283,32.767,36.631,22.406,4.989,8.109,18.501
827,0.688,35.996,32.751,36.612,22.399,5.029,8.109,18.134
828,0.698,36.194,32.767,36.641,22.409,4.989,8.109,17.927
829,0.695,36.321,32.673,36.641,22.413,5.029,8.191,17.64
830,0.695,36.332,32.704,36.66,22.406,5.07,8.192,17.312
831,0.698,35.996,32.739,36.641,22.413,4.989,8.151,17.065
832,0.711,36.166,32.786,36.66,22.42,5.232,8.232,16.859
833,0.702,36.235,32.767,36.622,22.413,4.991,8.192,16.735
834,0.705,36.139,32.724,36.612,22.399,4.988,8.11,16.449
835,0.708,36.129,32.661,36.612,22.406,4.988,8.191,16.365
836,0.705,36.263,32.661,36.631,22.406,5.07,8.192,16.242
837,0.698,36.37,32.618,36.612,22.399,4.989,7.988,16.038
838,0.701,35.92,32.598,36.631,22.413,5.07,8.19,16.117
839,0.692,35.973,32.679,36.631,22.406,5.03,8.273,15.996
840,0.685,36.108,32.747,36.612,22.409,4.989,8.233,15.872
841,0.679,36.244,32.767,36.612,22.413,5.07,8.111,15.709
842,0.672,35.871,32.747,36.641,22.409,5.193,8.232,15.666
843,0.662,35.982,32.654,36.603,22.403,4.99,8.029,15.463
844,0.659,36.146,32.696,36.602,22.399,5.029,7.946,15.501
845,0.656,36.234,32.716,36.612,22.399,4.989,8.026,15.827
846,0.646,35.909,32.72,36.583,22.406,4.988,8.068,16.115
847,0.662,36.079,32.727,36.612,22.406,5.029,8.028,16.362
848,0.675,36.224,32.704,36.631,22.409,5.151,8.068,16.893
849,0.669,36.293,32.727,36.612,22.409,5.031,8.069,17.223
850,0.672,35.948,32.767,36.602,22.406,5.03,8.109,17.471
851,0.685,36.127,32.72,36.65,22.42,5.111,8.109,17.839
852,0.669,36.215,32.716,36.593,22.41,5.071,8.069,18.127
853,0.685,36.283,32.704,36.573,22.396,4.908,7.946,18.333
854,0.688,35.948,32.735,36.583,22.402,5.028,8.026,18.498
855,0.682,36.088,32.751,36.583,22.402,5.03,8.068,18.581
856,0.682,36.224,32.779,36.573,22.396,4.907,7.987,18.46
857,0.705,36.283,32.806,36.592,22.409,5.028,8.027,18.621
858,0.685,35.958,32.818,36.583,22.403,5.07,8.109,18.42
859,0.695,36.089,32.799,36.573,22.402,5.03,8.109,18.214
860,0.695,36.224,32.728,36.573,22.406,5.07,8.028,18.05
861,0.679,36.235,32.728,36.592,22.416,5.193,8.19,17.804
862,0.669,35.9,32.731,36.564,22.399,4.99,7.948,17.354
863,0.669,36.021,32.767,36.554,22.409,4.988,8.026,17.106
864,0.665,36.176,32.79,36.573,22.403,4.988,8.109,16.737
865,0.659,35.957,32.775,36.545,22.406,4.988,8.109,16.449
866,0.669,35.926,32.775,36.563,22.406,5.029,8.15,16.121
867,0.669,36.069,32.787,36.573,22.416,5.151,8.15,15.874
868,0.675,36.176,32.775,36.583,22.406,4.99,8.191,15.587
869,0.675,35.937,32.669,36.573,22.413,5.029,8.192,15.177
870,0.685,36.079,32.715,36.592,22.416,5.111,8.314,14.929
871,0.685,36.157,32.743,36.545,22.403,4.989,8.193,14.683
872,0.685,36.254,32.763,36.535,22.399,4.948,8.192,14.274
873,0.698,35.766,32.751,36.554,22.399,5.029,8.192,14.351
874,0.695,35.904,32.697,36.554,22.402,4.989,8.11,14.514
875,0.682,36.031,32.673,36.535,22.396,4.948,8.109,14.557
876,0.695,36.147,32.629,36.573,22.406,5.069,8.232,14.882
877,0.695,35.947,32.637,36.564,22.416,5.03,8.273,15.089
878,0.695,36.088,32.703,36.554,22.41,4.989,8.152,15.742
879,0.701,36.215,32.723,36.554,22.413,5.029,8.191,16.805
880,0.695,36.283,32.767,36.583,22.427,5.151,8.314,18.442
881,0.688,35.775,32.759,36.525,22.396,4.909,8.112,19.678
882,0.705,35.943,32.665,36.525,22.395,4.906,8.109,20.951
883,0.711,36.079,32.696,36.525,22.402,4.987,8.028,21.899
884,0.685,36.128,32.684,36.534,22.409,4.988,8.068,22.681
885,0.692,35.879,32.692,36.515,22.406,4.866,7.946,23.177
886,0.695,36.011,32.735,36.515,22.409,5.068,8.108,23.588
887,0.695,36.118,32.763,36.515,22.409,4.989,8.109,23.714
888,0.701,36.177,32.775,36.534,22.409,4.988,8.232,23.593
889,0.708,35.87,32.802,36.563,22.416,5.11,8.273,23.389
890,0.695,35.982,32.775,36.506,22.41,5.03,8.233,22.98
891,0.701,36.098,32.658,36.506,22.399,4.907,8.273,22.488
892,0.701,36.148,32.703,36.506,22.406,4.947,8.274,22.158
893,0.698,35.956,32.727,36.506,22.406,4.947,8.314,21.667
894,0.701,36.079,32.77,36.477,22.399,4.866,8.193,21.093
895,0.724,36.205,32.81,36.515,22.409,5.028,8.354,20.64
896,0.721,35.928,32.791,36.506,22.409,5.07,8.397,20.188
897,0.715,35.801,32.787,36.496,22.406,5.03,8.316,19.696
898,0.715,35.943,32.763,36.505,22.409,4.989,8.356,19.162
899,0.721,36.079,32.759,36.525,22.413,5.151,8.437,18.872
900,0.708,35.889,32.716,36.477,22.403,4.99,8.316,18.381
901,0.708,35.992,32.727,36.486,22.402,4.948,8.234,17.807
902,0.702,36.127,32.759,36.496,22.402,4.988,8.273,17.558
903,0.714,36.215,32.763,36.486,22.409,4.988,8.314,17.149
904,0.721,35.794,32.732,36.457,22.392,4.866,8.274,16.657
905,0.724,35.953,32.712,36.495,22.409,5.109,8.355,16.408
906,0.737,36.079,32.684,36.496,22.409,5.071,8.519,16.039
907,0.754,36.157,32.661,36.477,22.406,5.03,8.439,15.71
908,0.764,35.803,32.664,36.486,22.406,4.989,8.438,15.341
909,0.77,35.972,32.739,36.505,22.42,5.11,8.641,15.256
910,0.777,36.06,32.693,36.467,22.403,4.949,8.521,14.849
911,0.784,36.128,32.778,36.448,22.399,4.988,8.52,14.519
912,0.8,35.841,32.771,36.457,22.402,4.948,8.52,14.516
913,0.813,35.972,32.712,36.495,22.406,5.029,8.52,14.679
914,0.794,36.098,32.696,36.457,22.389,4.989,8.52,15.046
915,0.839,36.186,32.731,36.495,22.409,5.07,8.601,16.026
916,0.875,35.832,32.7,36.477,22.406,4.989,8.643,16.727
917,0.892,35.963,32.712,36.467,22.409,4.988,8.603,17.384
918,0.892,36.117,32.72,36.476,22.409,5.07,8.684,18.041
919,0.899,36.138,32.724,36.467,22.413,5.111,8.684,18.739
920,0.925,35.707,32.759,36.457,22.403,4.989,8.522,18.949
921,0.98,35.856,32.704,36.448,22.402,4.988,8.561,19.317
922,1.007,36.001,32.723,36.467,22.409,4.988,8.521,19.728
923,1.046,35.974,32.688,36.409,22.389,4.988,8.52,19.894
924,1.089,35.878,32.747,36.457,22.413,5.029,8.561,20.059
925,1.118,36.011,32.755,36.448,22.406,5.07,8.602,20.263
926,1.135,36.118,32.775,36.447,22.409,5.07,8.602,20.184
927,1.142,35.86,32.783,36.419,22.409,5.07,8.521,19.98
928,1.174,35.81,32.771,36.476,22.409,5.193,8.601,19.856
929,1.145,35.915,32.787,36.409,22.399,4.909,8.399,19.53
930,1.148,36.04,32.681,36.428,22.406,4.947,8.438,19.242
931,1.119,35.811,32.711,36.418,22.409,4.988,8.479,19.076
932,1.08,35.905,32.704,36.418,22.403,4.948,8.479,18.912
933,1.083,36.05,32.762,36.418,22.402,4.907,8.357,18.707
934,1.131,36.166,32.786,36.428,22.409,5.109,8.437,18.786
935,1.142,35.774,32.806,36.428,22.409,5.03,8.479,18.787
936,1.168,35.876,32.771,36.409,22.409,5.03,8.357,18.828
937,1.214,36.03,32.783,36.418,22.403,5.03,8.437,18.706
938,1.26,36.109,32.759,36.428,22.413,5.07,8.56,18.949
939,1.247,35.63,32.665,36.39,22.403,4.908,8.317,18.952
940,1.273,35.788,32.707,36.399,22.399,4.865,8.356,18.992
941,1.254,35.924,32.731,36.389,22.399,4.946,8.397,19.277
942,1.211,35.973,32.786,36.399,22.399,4.988,8.438,19.565
943,1.185,35.724,32.783,36.38,22.402,4.988,8.397,19.933
944,1.162,35.875,32.752,36.399,22.416,5.029,8.519,20.506
945,1.116,35.992,32.697,36.389,22.403,5.07,8.479,20.959
946,1.034,36.041,32.68,36.389,22.409,4.948,8.438,21.33
947,0.985,35.84,32.672,36.428,22.416,5.15,8.519,21.659
948,0.899,35.963,32.618,36.39,22.41,4.909,8.601,21.784
949,0.804,36.06,32.672,36.351,22.399,4.947,8.399,21.663
950,0.712,36.128,32.719,36.379,22.402,4.988,8.478,21.54
951,0.633,35.745,32.774,36.389,22.402,4.988,8.601,21.417
952,0.545,35.875,32.728,36.351,22.396,4.907,8.48,21.171
953,0.514,36.021,32.696,36.389,22.409,5.028,8.682,21.088
954,0.485,36.032,32.712,36.38,22.406,4.989,8.766,20.924
955,0.465,35.802,32.688,36.38,22.409,4.988,8.807,20.598
956,0.471,35.943,32.727,36.361,22.406,4.988,8.808,20.432
957,0.501,36.069,32.747,36.389,22.423,5.11,8.97,20.308
958,0.488,35.831,32.732,36.341,22.406,4.989,8.85,20.103
959,0.53,35.781,32.763,36.37,22.399,4.907,8.849,20.305
960,0.56,35.924,32.771,36.341,22.406,4.906,8.889,21.079
961,0.586,36.012,32.708,36.341,22.402,4.947,8.93,21.859
962,0.616,35.696,32.712,36.341,22.402,4.988,8.85,22.559
963,0.629,35.808,32.727,36.351,22.406,4.988,8.93,23.379
964,0.658,35.934,32.747,36.351,22.402,4.988,8.972,24.037
965,0.678,36.04,32.775,36.341,22.402,4.988,8.972,24.572
966,0.734,35.763,32.787,36.351,22.413,5.07,8.931,25.025
967,0.76,35.876,32.779,36.341,22.409,4.989,9.012,25.395
968,0.777,35.982,32.794,36.312,22.403,4.948,8.85,25.196
969,0.777,36.098,32.787,36.302,22.402,5.029,8.889,25.072
970,0.79,35.63,32.634,36.341,22.406,4.989,8.93,24.908
971,0.784,35.75,32.711,36.303,22.392,4.866,8.85,24.459
972,0.803,35.924,32.759,36.331,22.402,4.987,8.971,24.048
973,0.794,35.992,32.767,36.322,22.406,5.029,9.013,23.719
974,0.793,35.648,32.79,36.322,22.409,5.03,8.972,23.065
975,0.787,35.788,32.763,36.322,22.403,4.989,8.931,22.57
976,0.806,35.953,32.743,36.36,22.416,5.11,8.972,22.077
977,0.784,35.964,32.708,36.303,22.399,5.071,8.85,21.422
978,0.787,35.791,32.692,36.302,22.402,4.908,8.727,20.928
979,0.79,35.962,32.626,36.321,22.402,4.987,8.807,20.598
980,0.771,36.098,32.715,36.302,22.409,4.988,8.686,20.35
981,0.764,36.119,32.751,36.293,22.396,4.866,8.603,19.86
982,0.774,35.659,32.806,36.321,22.406,4.987,8.765,19.814
983,0.767,35.798,32.748,36.283,22.402,4.948,8.685,19.611
984,0.757,35.914,32.681,36.302,22.399,4.947,8.684,19.283
985,0.764,35.964,32.598,36.312,22.406,4.947,8.644,19.077
986,0.757,35.954,32.691,36.369,22.416,4.988,8.725,18.953
987,0.754,36.089,32.649,36.303,22.399,4.907,8.603,18.504
988,0.754,36.195,32.699,36.283,22.402,4.906,8.602,18.256
989,0.764,35.832,32.716,36.293,22.402,4.947,8.602,18.05
990,0.761,35.675,32.759,36.254,22.399,4.866,8.521,17.845
991,0.78,35.836,32.771,36.292,22.409,5.028,8.683,17.68
992,0.774,35.963,32.681,36.302,22.413,5.03,8.684,17.638
993,0.764,35.791,32.711,36.283,22.403,4.989,8.684,17.475
994,0.774,35.905,32.731,36.293,22.406,4.948,8.603,17.31
995,0.793,36.05,32.759,36.312,22.42,5.069,8.806,17.268
996,0.771,36.099,32.759,36.254,22.403,4.908,8.604,17.064
997,0.767,35.563,32.747,36.244,22.402,4.906,8.48,17.062
998,0.774,35.701,32.778,36.263,22.399,4.947,8.642,17.55
999,0.771,35.827,32.779,36.264,22.406,4.947,8.562,18.328
1000,0.767,35.915,32.728,36.254,22.402,4.866,8.439,18.945
1001,0.78,35.685,32.728,36.263,22.409,4.987,8.519,20.009
1002,0.767,35.837,32.735,36.273,22.406,4.988,8.479,20.629
1003,0.764,35.953,32.735,36.273,22.409,4.988,8.479,21.205
1004,0.77,36.041,32.798,36.254,22.403,5.029,8.438,21.535
1005,0.767,35.725,32.806,36.283,22.42,5.111,8.56,21.905
1006,0.757,35.827,32.791,36.245,22.403,4.989,8.317,21.908
1007,0.754,35.963,32.783,36.263,22.396,4.866,8.315,21.868
1008,0.767,36.022,32.755,36.254,22.406,4.906,8.396,21.745
1009,0.754,35.619,32.65,36.244,22.409,4.987,8.397,21.581
1010,0.77,35.788,32.684,36.225,22.399,4.866,8.316,21.173
1011,0.774,35.943,32.715,36.273,22.413,4.987,8.437,21.006
1012,0.774,35.945,32.755,36.254,22.409,5.07,8.479,20.558
1013,0.777,35.715,32.775,36.263,22.409,4.989,8.438,20.106
1014,0.784,35.875,32.751,36.244,22.403,4.988,8.357,19.654
1015,0.79,35.982,32.724,36.254,22.406,5.029,8.519,19.365
1016,0.784,35.993,32.665,36.235,22.399,4.867,8.317,18.712
1017,0.787,35.734,32.676,36.234,22.402,4.906,8.315,18.177
1018,0.79,35.875,32.641,36.244,22.406,5.028,8.396,17.805
1019,0.78,35.954,32.695,36.225,22.402,4.948,8.275,17.436
1020,0.8,35.753,32.719,36.244,22.399,4.907,8.233,16.863
1021,0.79,35.703,32.778,36.254,22.413,4.987,8.355,16.735
1022,0.777,35.856,32.732,36.244,22.399,4.948,8.356,16.327
1023,0.78,35.944,32.677,36.244,22.413,4.947,8.315,16.038
1024,0.8,35.724,32.731,36.263,22.413,4.988,8.315,15.832
1025,0.768,35.808,32.716,36.216,22.403,5.029,8.274,15.505
1026,0.761,35.915,32.716,36.215,22.399,4.867,8.152,15.095
1027,0.77,36.031,32.727,36.225,22.406,4.906,8.191,14.888
1028,0.783,35.572,32.7,36.196,22.402,4.947,8.151,14.682
1029,0.774,35.672,32.704,36.186,22.396,4.825,8.069,14.436
1030,0.784,35.856,32.782,36.205,22.409,4.946,8.191,14.353
1031,0.78,35.925,32.701,36.225,22.396,5.029,8.151,14.271
1032,0.79,35.628,32.735,36.206,22.402,4.948,8.11,14.188
1033,0.793,35.759,32.696,36.196,22.406,4.947,8.069,14.106
1034,0.806,35.933,32.755,36.234,22.416,5.11,8.15,14.187
1035,0.803,35.954,32.771,36.177,22.399,5.03,7.947,14.106
1036,0.797,35.619,32.779,36.186,22.399,4.867,7.945,13.983
1037,0.807,35.769,32.787,36.176,22.402,4.906,8.026,14.023
1038,0.784,35.914,32.787,36.215,22.406,4.906,7.987,13.983
1039,0.793,35.944,32.779,36.158,22.396,4.825,7.824,13.901
1040,0.797,35.695,32.712,36.195,22.413,4.987,7.944,14.103
1041,0.8,35.846,32.712,36.196,22.409,4.988,8.026,14.105
1042,0.797,35.963,32.735,36.177,22.409,4.988,7.946,14.024
1043,0.816,36.022,32.802,36.186,22.409,4.948,7.945,13.983
1044,0.803,35.677,32.767,36.186,22.413,5.029,8.067,14.104
1045,0.79,35.789,32.755,36.167,22.396,4.907,7.865,13.943
1046,0.787,35.905,32.759,36.167,22.406,4.865,7.863,14.022
1047,0.787,36.021,32.759,36.167,22.409,4.946,7.944,14.023
1048,0.78,35.648,32.704,36.167,22.399,4.866,7.864,14.023
1049,0.797,35.846,32.684,36.167,22.409,4.865,7.944,14.105
1050,0.797,35.944,32.715,36.186,22.409,4.946,7.986,14.471
1051,0.794,35.734,32.743,36.167,22.409,4.907,7.864,15.004
1052,0.793,35.693,32.767,36.157,22.409,4.865,7.944,15.741
1053,0.806,35.865,32.775,36.195,22.416,4.987,7.945,16.602
1054,0.794,35.925,32.708,36.167,22.41,4.907,7.945,17.302
1055,0.803,35.686,32.657,36.119,22.399,4.865,7.864,17.878
1056,0.803,35.779,32.657,36.147,22.402,4.824,7.822,18.575
1057,0.81,35.914,32.629,36.147,22.409,4.946,7.863,19.192
1058,0.797,35.992,32.691,36.195,22.396,4.785,7.741,19.686
1059,0.813,35.648,32.712,36.148,22.402,4.905,7.903,20.219
1060,0.79,35.759,32.743,36.147,22.409,4.947,7.863,20.469
1061,0.81,35.904,32.775,36.138,22.409,4.907,7.863,20.552
1062,0.8,35.983,32.736,36.138,22.403,4.865,7.822,20.553
1063,0.794,35.59,32.638,36.166,22.413,4.987,7.944,20.634
1064,0.793,35.721,32.711,36.119,22.406,4.826,7.701,20.432
1065,0.803,35.856,32.696,36.118,22.399,4.865,7.699,20.267
1066,0.787,35.934,32.731,36.118,22.406,4.784,7.78,20.184
1067,0.777,35.59,32.731,36.099,22.406,4.905,7.781,19.98
1068,0.8,35.749,32.731,36.109,22.402,4.825,7.7,19.531
1069,0.807,35.876,32.755,36.118,22.406,4.946,7.861,19.404
1070,0.807,35.954,32.767,36.109,22.406,4.947,7.782,19.119
1071,0.813,35.58,32.708,36.118,22.406,4.947,7.903,18.709
1072,0.826,35.749,32.727,36.118,22.406,4.947,7.863,18.339
1073,0.81,35.837,32.735,36.118,22.409,4.988,8.026,18.051
1074,0.816,35.867,32.747,36.099,22.403,4.866,7.905,17.519
1075,0.82,35.618,32.786,36.109,22.399,4.824,7.863,17.148
1076,0.83,35.778,32.775,36.118,22.402,4.905,7.944,16.9
1077,0.817,35.847,32.775,36.08,22.399,4.865,7.905,16.613
1078,0.829,36.126,32.759,36.108,22.406,4.946,7.863,16.488
1079,0.833,35.553,32.74,36.099,22.409,4.947,8.026,16.487
1080,0.817,35.682,32.657,36.109,22.409,4.907,7.946,16.243
1081,0.823,35.798,32.719,36.109,22.409,4.906,7.945,16.16
1082,0.823,35.675,32.774,36.118,22.416,5.028,7.986,15.996
1083,0.826,35.654,32.783,36.08,22.406,4.907,7.946,15.995
1084,0.813,35.779,32.787,36.08,22.399,4.825,7.823,15.913
1085,0.81,35.905,32.767,36.089,22.399,4.824,7.781,16.075
1086,0.81,35.724,32.775,36.08,22.402,4.905,7.822,16.158
1087,0.813,35.827,32.712,36.07,22.392,4.784,7.7,16.118
1088,0.816,35.972,32.72,36.099,22.409,4.905,7.821,16.28
1089,0.816,36.07,32.622,36.109,22.409,4.906,7.903,16.363
1090,0.829,35.342,32.703,36.09,22.403,4.906,7.863,16.283
1091,0.833,35.469,32.743,36.07,22.399,4.947,7.863,16.201
1092,0.843,35.623,32.806,36.099,22.416,5.029,7.985,16.363
1093,0.833,35.683,32.752,36.061,22.396,4.826,7.864,16.323
1094,0.833,35.606,32.681,36.079,22.402,4.865,7.822,16.364
1095,0.833,35.778,32.661,36.089,22.402,4.865,7.781,16.486
1096,0.833,35.876,32.641,36.061,22.406,4.906,7.781,16.487
1097,0.843,35.954,32.684,36.089,22.402,4.906,7.781,16.487
1098,0.849,35.513,32.696,36.08,22.413,4.906,7.822,16.528
1099,0.843,35.653,32.716,36.06,22.406,4.906,7.781,16.488
1100,0.836,35.788,32.743,36.07,22.402,4.906,7.781,16.284
1101,0.846,35.857,32.786,36.108,22.42,5.028,7.822,16.241
1102,0.83,35.503,32.681,36.061,22.403,4.867,7.781,16.038
1103,0.836,35.633,32.723,36.099,22.402,4.824,7.74,15.792
1104,0.833,35.779,32.681,36.07,22.399,4.824,7.659,15.586
1105,0.833,35.818,32.692,36.06,22.402,4.946,7.698,15.381
1106,0.81,35.474,32.712,36.032,22.396,4.785,7.577,15.175
1107,0.813,35.652,32.766,36.07,22.406,4.946,7.698,15.051
1108,0.826,35.769,32.767,36.08,22.409,4.907,7.74,14.928
1109,0.82,36.048,32.779,36.051,22.413,4.906,7.781,14.642
1110,0.826,35.514,32.779,36.051,22.403,4.947,7.74,14.355
1111,0.843,35.691,32.697,36.089,22.416,5.029,7.903,14.271
1112,0.83,35.779,32.7,36.061,22.41,4.867,7.863,14.026
1113,0.839,35.598,32.684,36.041,22.399,4.824,7.782,13.739
1114,0.862,35.615,32.731,36.031,22.402,4.783,7.781,13.492
1115,0.869,35.75,32.751,36.05,22.402,4.864,7.822,13.327
1116,0.856,35.818,32.782,36.012,22.396,4.743,7.781,13.0
1117,0.879,35.502,32.791,36.05,22.406,4.986,7.984,12.915
1118,0.866,35.605,32.806,36.051,22.399,4.948,7.946,12.67
1119,0.872,35.749,32.783,36.041,22.406,4.947,7.864,12.465
1120,0.879,35.847,32.705,36.031,22.409,4.825,7.863,12.219
1121,0.869,35.531,32.719,36.05,22.409,4.987,7.985,12.257
1122,0.856,35.634,32.716,36.012,22.406,4.826,7.783,11.932
1123,0.856,35.759,32.778,36.021,22.396,4.824,7.822,11.766
1124,0.853,35.857,32.767,36.012,22.406,4.865,7.822,11.724
1125,0.853,35.436,32.747,36.002,22.396,4.824,7.822,11.642
1126,0.853,35.633,32.736,36.021,22.402,4.865,7.863,11.56
1127,0.853,35.769,32.747,36.022,22.406,4.865,7.944,11.925
1128,0.856,35.818,32.689,36.012,22.413,4.946,7.945,12.335
1129,0.84,35.617,32.665,36.041,22.406,4.907,8.026,13.031
1130,0.872,35.807,32.707,36.041,22.416,4.987,8.027,13.932
1131,0.853,35.895,32.747,36.003,22.406,4.866,8.027,14.754
1132,0.846,35.935,32.778,35.993,22.402,4.784,7.946,15.413
1133,0.849,35.475,32.72,36.012,22.406,4.864,8.026,16.151
1134,0.866,35.643,32.685,36.012,22.406,4.865,8.027,16.728
1135,0.866,35.75,32.637,36.012,22.396,4.784,7.946,17.14
1136,0.872,35.818,32.621,36.031,22.406,4.905,8.108,17.714
1137,0.882,35.665,32.621,36.022,22.409,4.906,8.109,18.167
1138,0.869,35.808,32.715,35.993,22.409,4.825,8.15,18.496
1139,0.879,35.924,32.708,36.002,22.403,4.905,8.11,18.988
1140,0.872,36.232,32.77,36.031,22.413,4.987,8.354,19.521
1141,0.856,35.535,32.759,35.983,22.399,4.866,8.193,19.852
1142,0.859,35.691,32.704,35.992,22.402,4.824,8.232,20.18
1143,0.869,35.808,32.712,35.993,22.402,4.824,8.273,20.468
1144,0.863,35.579,32.696,35.993,22.406,4.905,8.355,20.634
1145,0.866,35.596,32.727,35.983,22.406,4.865,8.356,20.635
1146,0.866,35.74,32.751,36.002,22.413,4.946,8.478,20.838
1147,0.866,35.828,32.755,35.993,22.403,4.947,8.479,20.922
1148,0.869,35.56,32.771,36.012,22.402,4.907,8.479,20.923
1149,0.879,35.701,32.728,36.012,22.409,4.947,8.479,21.004
1150,0.869,35.808,32.747,35.983,22.409,4.947,8.642,21.086
1151,0.872,35.886,32.665,35.973,22.403,4.744,8.521,20.802
1152,0.882,35.637,32.7,35.964,22.402,4.823,8.52,20.637
1153,0.898,35.779,32.716,35.983,22.402,4.824,8.479,20.513
1154,0.886,35.885,32.743,35.945,22.399,4.783,8.52,20.105
1155,0.879,36.002,32.794,35.992,22.406,4.905,8.601,19.857
1156,0.902,35.763,32.775,35.973,22.406,4.947,8.643,19.489
1157,0.899,35.904,32.806,35.964,22.409,4.907,8.603,19.201
1158,0.895,36.031,32.791,35.944,22.403,4.906,8.602,18.791
1159,0.895,36.137,32.787,35.992,22.416,5.028,8.724,18.381
1160,0.886,35.726,32.713,35.935,22.403,4.826,8.563,17.848
1161,0.879,35.875,32.708,35.934,22.402,4.865,8.439,17.395
1162,0.885,36.021,32.731,35.954,22.402,4.906,8.56,17.025
1163,0.885,36.051,32.782,35.925,22.402,4.865,8.48,16.655
1164,0.889,35.802,32.759,35.934,22.399,4.824,8.479,16.164
1165,0.885,35.982,32.755,35.934,22.416,4.946,8.642,15.956
1166,0.892,36.089,32.724,35.944,22.406,4.907,8.603,15.587
1167,0.886,36.109,32.688,35.935,22.402,4.906,8.684,15.34
1168,0.902,35.918,32.688,35.954,22.409,4.865,8.644,15.093
1169,0.889,36.011,32.653,35.944,22.409,4.946,8.765,14.888
1170,0.902,36.128,32.68,35.906,22.399,4.866,8.645,14.561
1171,0.889,36.464,32.747,35.905,22.399,4.784,8.603,14.313
1172,0.902,36.055,32.782,35.905,22.399,4.905,8.602,14.392
1173,0.899,36.176,32.728,35.896,22.395,4.744,8.562,14.556
1174,0.912,36.321,32.681,35.924,22.409,4.905,8.724,15.167
1175,0.915,36.169,32.711,36.011,22.403,4.987,8.644,15.986
1176,0.915,36.167,32.704,35.935,22.402,4.907,8.684,16.889
1177,0.918,36.311,32.716,35.915,22.409,4.987,8.644,17.752
1178,0.912,36.428,32.751,35.934,22.42,4.988,8.684,18.533
1179,0.912,36.045,32.759,35.896,22.406,4.826,8.522,18.907
1180,0.908,36.166,32.771,35.896,22.396,4.783,8.439,19.236
1181,0.908,36.302,32.763,35.905,22.406,4.905,8.438,19.564
1182,0.902,36.38,32.642,35.896,22.402,4.906,8.438,19.608
1183,0.905,36.179,32.711,35.877,22.399,4.865,8.316,19.446
1184,0.908,36.34,32.727,35.905,22.409,4.906,8.437,19.485
1185,0.895,36.457,32.767,35.877,22.409,4.906,8.397,19.363
1186,0.886,36.535,32.767,35.886,22.403,4.825,8.397,19.118
1187,0.911,36.363,32.798,35.915,22.413,5.027,8.356,18.791
1188,0.908,36.438,32.779,35.867,22.406,4.907,8.356,18.503
1189,0.902,36.582,32.783,35.857,22.402,4.825,8.193,18.093
1190,0.912,36.641,32.716,35.857,22.402,4.824,8.232,17.723
1191,0.905,36.345,32.72,35.895,22.409,4.987,8.273,17.353
1192,0.892,36.457,32.696,35.838,22.396,4.785,8.152,16.862
1193,0.902,36.621,32.77,35.886,22.406,4.946,8.273,16.694
1194,0.921,36.671,32.787,35.886,22.413,4.907,8.274,16.449
1195,0.899,36.46,32.763,35.876,22.406,4.987,8.233,16.08
1196,0.908,36.621,32.775,35.857,22.409,4.948,8.192,15.792
1197,0.912,36.719,32.767,35.876,22.409,4.947,8.314,15.708
1198,0.899,36.72,32.763,35.848,22.396,4.866,8.152,15.26
1199,0.912,36.499,32.654,35.857,22.399,4.865,8.191,15.052
1200,0.892,36.641,32.731,35.867,22.402,4.906,8.151,14.847
1201,0.882,36.738,32.712,35.819,22.402,4.825,8.11,14.723
1202,0.882,37.055,32.766,35.857,22.406,4.905,8.109,14.437
1203,0.892,36.512,32.755,35.867,22.409,4.987,8.232,14.393
1204,0.895,36.641,32.712,35.857,22.403,4.907,8.192,14.108
1205,0.886,36.748,32.677,35.838,22.402,4.906,8.151,14.024
1206,0.879,36.643,32.61,35.857,22.416,4.865,8.232,13.942
1207,0.882,36.652,32.633,35.847,22.41,5.028,8.233,13.982
1208,0.879,36.767,32.695,35.914,22.399,4.867,8.07,13.698
1209,0.885,36.883,32.692,35.829,22.402,4.865,8.069,13.613
1210,0.876,36.606,32.747,35.838,22.399,4.865,8.069,13.531
1211,0.859,36.67,32.79,35.818,22.395,4.824,8.069,13.571
1212,0.885,36.844,32.713,35.847,22.395,4.824,7.946,13.571
1213,0.895,36.951,32.657,35.876,22.413,4.987,8.108,14.059
1214,0.886,36.703,32.699,35.848,22.409,4.907,8.109,14.349
1215,0.892,36.834,32.735,35.838,22.406,4.825,8.069,14.84
1216,0.899,36.98,32.739,35.866,22.416,4.905,8.028,15.333
1217,0.892,37.029,32.747,35.819,22.41,4.987,8.027,15.947
1218,0.879,36.694,32.732,35.818,22.396,4.826,7.946,16.645
1219,0.885,36.834,32.774,35.837,22.406,4.824,7.905,17.871
1220,0.872,36.97,32.767,35.818,22.402,4.905,7.945,19.429
1221,0.859,37.01,32.685,35.809,22.396,4.825,7.783,20.827
1222,0.872,36.761,32.708,35.837,22.406,4.987,7.862,22.223
1223,0.876,36.921,32.72,35.838,22.406,4.988,7.944,23.253
1224,0.859,37.019,32.778,35.818,22.413,4.988,7.905,23.995
1225,0.859,37.058,32.806,35.818,22.409,4.948,7.823,24.491
1226,0.856,36.838,32.818,35.847,22.416,4.988,7.944,24.821
1227,0.853,36.932,32.791,35.799,22.406,4.907,7.823,24.702
1228,0.856,37.057,32.798,35.809,22.399,4.825,7.741,24.457
1229,0.843,37.097,32.775,35.809,22.402,4.905,7.74,24.292
1230,0.843,36.848,32.732,35.818,22.402,4.906,7.74,23.965
1231,0.846,36.951,32.712,35.78,22.396,4.784,7.659,23.392
1232,0.853,37.105,32.751,35.818,22.409,4.905,7.861,23.143
1233,0.843,37.337,32.81,35.828,22.409,4.906,7.822,22.693
1234,0.843,36.87,32.767,35.809,22.413,4.906,7.741,22.079
1235,0.839,37.018,32.728,35.799,22.403,4.825,7.699,21.666
1236,0.856,37.135,32.728,35.837,22.416,5.027,7.821,21.296
1237,0.833,37.088,32.708,35.78,22.403,4.785,7.537,21.048
1238,0.826,37.164,32.665,35.78,22.399,4.864,7.575,21.005
1239,0.83,37.299,32.68,35.808,22.402,4.865,7.616,21.127
1240,0.82,37.377,32.68,35.789,22.409,4.865,7.617,21.25
1241,0.823,36.611,32.754,35.799,22.403,4.865,7.495,21.333
1242,0.817,36.709,32.775,35.818,22.416,4.946,7.616,21.415
1243,0.813,36.834,32.708,35.799,22.41,4.907,7.576,21.375
1244,0.8,36.922,32.649,35.799,22.409,4.865,7.616,21.374
1245,0.816,36.856,32.719,35.818,22.416,4.906,7.617,21.456
1246,0.8,36.97,32.72,35.79,22.406,4.906,7.617,21.335
1247,0.803,37.096,32.704,35.77,22.402,4.784,7.617,21.171
1248,0.807,37.184,32.719,35.779,22.399,4.824,7.576,20.925
1249,0.8,36.782,32.724,35.789,22.406,4.946,7.616,20.638
1250,0.797,36.912,32.774,35.77,22.396,4.744,7.617,20.229
1251,0.803,37.067,32.751,35.799,22.409,4.945,7.739,20.102
1252,0.82,37.126,32.681,35.799,22.409,4.907,7.821,19.695
1253,0.797,36.848,32.688,35.789,22.413,4.906,7.944,19.447
1254,0.813,36.999,32.712,35.77,22.403,4.825,7.945,19.16
1255,0.807,37.135,32.735,35.799,22.413,4.987,8.108,18.994
1256,0.803,37.136,32.759,35.761,22.399,4.866,7.947,18.627
1257,0.81,36.82,32.759,35.77,22.402,4.824,7.986,18.379
1258,0.794,36.979,32.767,35.779,22.402,4.865,8.068,18.173
1259,0.787,37.067,32.775,35.76,22.402,4.865,8.109,18.049
1260,0.793,37.135,32.744,35.77,22.402,4.824,8.109,17.723
1261,0.79,36.935,32.72,35.856,22.413,4.946,8.232,17.638
1262,0.78,37.067,32.708,35.8,22.406,4.866,8.233,17.475
1263,0.777,37.193,32.743,35.789,22.402,4.824,8.233,17.27
1264,0.793,37.376,32.794,35.78,22.409,4.946,8.273,17.105
1265,0.767,36.812,32.795,35.77,22.413,4.947,8.314,16.981
1266,0.767,36.941,32.779,35.751,22.399,4.866,8.274,16.696
1267,0.777,37.067,32.787,35.741,22.399,4.865,8.274,16.611
1268,0.78,36.848,32.771,35.779,22.409,4.906,8.274,16.488
1269,0.761,36.826,32.72,35.732,22.396,4.784,8.233,16.284
1270,0.761,37.047,32.712,35.77,22.409,4.946,8.395,16.363
1271,0.77,37.126,32.723,35.77,22.409,4.907,8.478,16.283
1272,0.777,36.791,32.751,35.76,22.403,4.865,8.479,16.079
1273,0.79,36.912,32.775,35.741,22.406,4.946,8.479,16.199
1274,0.78,37.067,32.767,35.789,22.42,5.029,8.642,16.444
1275,0.787,37.126,32.693,35.741,22.399,4.826,8.481,16.365
1276,0.784,36.647,32.669,35.76,22.402,4.824,8.52,16.445
1277,0.777,36.786,32.676,35.76,22.402,4.824,8.561,16.487
1278,0.767,36.893,32.672,35.741,22.402,4.824,8.602,16.731
1279,0.77,37.019,32.723,35.741,22.409,4.824,8.602,17.059
1280,0.757,36.751,32.716,35.76,22.409,4.905,8.643,17.794
1281,0.751,36.883,32.763,35.751,22.406,4.906,8.684,18.289
1282,0.754,36.999,32.779,35.76,22.413,4.906,8.684,18.782
1283,0.767,37.106,32.685,35.77,22.416,4.987,8.644,19.275
1284,0.735,36.685,32.719,35.741,22.406,4.907,8.725,19.727
1285,0.747,36.815,32.685,35.722,22.402,4.825,8.603,19.894
1286,0.754,36.941,32.684,35.741,22.409,4.824,8.562,20.14
1287,0.748,36.99,32.68,35.731,22.403,4.905,8.521,20.305
1288,0.751,36.847,32.711,35.712,22.392,4.784,8.479,20.388
1289,0.761,37.028,32.739,35.75,22.409,4.946,8.56,20.511
1290,0.761,37.135,32.778,35.751,22.406,4.947,8.602,20.593
1291,0.754,37.155,32.712,35.76,22.409,4.907,8.521,20.513
1292,0.764,36.705,32.72,35.77,22.403,4.865,8.52,20.634
1293,0.761,36.844,32.727,35.751,22.413,4.906,8.642,21.082
1294,0.757,36.951,32.731,35.722,22.403,4.784,8.399,21.615
1295,0.767,37.134,32.767,35.712,22.399,4.864,8.478,22.312
1296,0.774,36.82,32.755,35.731,22.399,4.865,8.52,23.01
1297,0.771,36.941,32.763,35.702,22.399,4.824,8.358,23.586
1298,0.754,37.077,32.794,35.731,22.399,4.824,8.437,23.958
1299,0.767,36.781,32.806,35.75,22.416,4.946,8.438,24.409
1300,0.757,36.787,32.709,35.722,22.41,4.907,8.357,24.576
1301,0.748,36.922,32.743,35.731,22.403,4.947,8.437,24.618
1302,0.76,37.067,32.739,35.76,22.413,5.029,8.438,24.619
1303,0.751,36.665,32.771,35.722,22.409,4.867,8.357,24.456
1304,0.748,36.767,32.779,35.702,22.403,4.865,8.193,24.129
1305,0.741,36.912,32.779,35.712,22.402,4.865,8.192,23.638
1306,0.747,36.99,32.759,35.721,22.409,4.987,8.192,23.308
1307,0.741,36.655,32.704,35.693,22.403,4.826,8.11,22.817
1308,0.747,36.853,32.7,35.731,22.409,4.946,8.109,22.324
1309,0.751,36.98,32.641,35.741,22.409,4.988,8.191,21.75
1310,0.764,37.048,32.695,35.731,22.406,4.948,8.192,21.216
1311,0.761,36.598,32.735,35.712,22.406,4.866,8.07,20.682
1312,0.767,36.776,32.829,35.741,22.416,5.068,8.109,20.27
1313,0.754,36.883,32.76,35.722,22.413,4.948,8.069,19.778
1314,0.764,36.923,32.693,35.721,22.399,4.866,7.946,19.204
1315,0.761,36.683,32.653,35.721,22.399,4.865,7.986,18.832
1316,0.77,36.844,32.618,35.731,22.406,4.946,7.864,18.381
1317,0.761,36.922,32.617,35.693,22.399,4.825,7.863,17.97
1318,0.761,37.038,32.691,35.798,22.409,4.905,7.822,17.641
1319,0.764,36.704,32.7,35.703,22.409,4.947,7.944,17.353
1320,0.751,36.854,32.723,35.731,22.406,4.988,7.945,16.984
1321,0.751,36.941,32.79,35.702,22.402,4.907,7.905,16.614
1322,0.757,37.009,32.736,35.731,22.416,5.028,8.026,16.245
1323,0.754,36.694,32.708,35.75,22.413,4.948,7.987,15.997
1324,0.738,36.834,32.688,35.664,22.406,4.866,7.783,15.507
1325,0.738,36.941,32.708,35.683,22.402,4.824,7.781,15.177
1326,0.744,37.057,32.727,35.702,22.409,4.865,7.822,14.889
1327,0.738,36.685,32.72,35.673,22.389,4.784,7.741,14.52
1328,0.747,36.873,32.739,35.692,22.409,4.905,7.862,14.272
1329,0.751,36.961,32.767,35.702,22.413,4.987,7.904,14.026
1330,0.757,36.616,32.779,35.693,22.403,4.948,7.945,13.779
1331,0.767,36.632,32.681,35.683,22.406,4.866,7.823,13.452
1332,0.777,36.795,32.739,35.712,22.416,4.987,7.944,13.326
1333,0.758,36.864,32.712,35.693,22.403,4.907,7.823,12.959
1334,0.764,36.558,32.735,35.673,22.402,4.906,7.781,12.711
1335,0.764,36.689,32.778,35.673,22.409,4.825,7.781,12.465
1336,0.774,36.806,32.806,35.673,22.399,4.865,7.862,12.3
1337,0.767,36.874,32.795,35.644,22.399,4.784,7.7,12.014
1338,0.767,36.664,32.798,35.682,22.409,4.905,7.78,11.889
1339,0.764,36.796,32.783,35.683,22.409,4.947,7.822,11.806
1340,0.764,36.922,32.697,35.702,22.406,4.907,7.822,11.602
1341,0.761,37.009,32.7,35.683,22.409,4.906,7.741,11.438
1342,0.757,36.598,32.751,35.692,22.409,5.028,7.862,11.395
1343,0.738,36.718,32.794,35.645,22.399,4.826,7.66,11.029
1344,0.734,36.854,32.767,35.644,22.402,4.865,7.617,10.903
1345,0.734,36.913,32.759,35.663,22.402,4.865,7.617,10.821
1346,0.741,36.558,32.72,35.654,22.399,4.824,7.698,10.739
1347,0.744,36.737,32.724,35.663,22.395,4.905,7.618,10.575
1348,0.741,36.873,32.688,35.683,22.413,4.947,7.739,10.614
1349,0.734,36.922,32.645,35.683,22.403,4.947,7.74,10.493
1350,0.747,36.674,32.695,35.664,22.406,4.866,7.781,10.451
1351,0.764,36.853,32.751,35.702,22.413,5.028,7.781,10.491
1352,0.754,36.941,32.775,35.683,22.403,4.907,7.781,10.654
1353,0.744,36.942,32.732,35.635,22.396,4.947,7.74,10.778
1354,0.76,36.578,32.665,35.663,22.395,4.907,7.74,10.982
1355,0.777,36.728,32.657,35.663,22.402,4.906,7.821,11.187
1356,0.774,36.816,32.633,35.644,22.392,4.825,7.7,11.393
1357,0.774,36.922,32.66,35.692,22.409,4.987,7.943,11.883
1358,0.774,36.616,32.711,35.664,22.409,4.988,7.945,12.416
1359,0.774,36.738,32.751,35.673,22.403,4.988,7.986,13.113
1360,0.771,36.854,32.743,35.644,22.406,4.907,7.946,13.608
1361,0.774,36.663,32.778,35.682,22.416,5.069,8.108,14.263
1362,0.754,36.671,32.697,35.644,22.406,4.908,7.947,14.636
1363,0.751,36.825,32.708,35.644,22.396,4.865,7.823,14.924
1364,0.751,36.912,32.712,35.644,22.402,4.865,7.903,15.293
1365,0.744,36.558,32.723,35.625,22.406,4.824,7.945,15.5
1366,0.757,36.708,32.739,35.644,22.409,4.865,7.864,15.583
1367,0.754,36.844,32.751,35.673,22.409,4.987,7.985,15.828
1368,0.754,36.932,32.771,35.664,22.406,4.948,7.986,15.83
1369,0.754,36.492,32.787,35.663,22.402,4.947,7.946,15.749
1370,0.774,36.65,32.771,35.663,22.406,4.947,7.945,15.626
1371,0.735,36.767,32.72,35.663,22.409,5.029,8.026,15.584
1372,0.751,36.845,32.692,35.635,22.399,4.867,7.905,15.34
1373,0.761,36.548,32.735,35.644,22.402,4.906,7.823,15.215
1374,0.774,36.67,32.759,35.654,22.402,4.865,7.903,15.092
1375,0.761,36.786,32.775,35.625,22.396,4.865,7.863,14.888
1376,0.78,36.883,32.794,35.653,22.402,4.906,7.822,14.845
1377,0.784,36.472,32.818,35.644,22.399,4.947,7.903,14.926
1378,0.78,36.612,32.783,35.644,22.409,4.947,7.823,14.886
1379,0.767,36.728,32.736,35.634,22.406,4.988,7.822,14.886
1380,0.77,36.825,32.724,35.673,22.416,5.151,7.944,15.008
1381,0.761,36.606,32.724,35.625,22.399,4.909,7.742,14.968
1382,0.767,36.747,32.759,35.625,22.399,4.906,7.659,14.846
1383,0.77,36.854,32.775,35.634,22.399,4.865,7.739,14.845
1384,0.761,36.884,32.755,35.644,22.406,4.906,7.781,14.885
1385,0.757,36.568,32.689,35.615,22.396,4.865,7.659,14.682
1386,0.748,36.728,32.68,35.663,22.409,4.987,7.78,14.924
1387,0.754,36.825,32.645,35.635,22.413,4.948,7.74,14.846
1388,0.761,36.932,32.633,35.644,22.406,4.947,7.821,14.926
1389,0.777,36.75,32.711,35.654,22.406,4.947,7.741,15.333
1390,0.758,36.864,32.727,35.663,22.413,5.069,7.862,16.232
1391,0.764,36.942,32.782,35.625,22.399,4.867,7.741,17.135
1392,0.774,36.472,32.771,35.625,22.406,4.906,7.659,18.161
1393,0.764,36.477,32.681,35.634,22.402,4.865,7.78,19.187
1394,0.754,36.602,32.735,35.701,22.396,4.865,7.781,20.092
1395,0.78,36.718,32.716,35.635,22.402,4.987,7.822,20.711
1396,0.784,36.499,32.755,35.654,22.406,5.029,7.863,21.164
1397,0.79,36.621,32.716,35.625,22.406,4.948,7.904,21.454
1398,0.754,36.766,32.731,35.625,22.406,5.029,7.863,21.456
1399,0.777,36.873,32.743,35.663,22.42,5.192,8.026,21.579
1400,0.751,36.577,32.763,35.606,22.399,4.99,7.946,21.336
1401,0.744,36.699,32.681,35.615,22.399,4.907,7.823,21.049
1402,0.757,36.873,32.723,35.605,22.402,4.947,7.863,20.761
1403,0.761,36.961,32.712,35.615,22.402,4.988,7.944,20.474
1404,0.751,36.31,32.743,35.586,22.392,4.866,7.823,19.983
1405,0.757,36.495,32.79,35.624,22.409,4.987,8.025,19.815
1406,0.738,36.621,32.798,35.625,22.409,5.029,8.027,19.529
1407,0.741,36.68,32.806,35.615,22.403,4.989,8.109,19.12
1408,0.751,36.518,32.771,35.634,22.402,5.029,8.232,18.75
1409,0.751,36.679,32.787,35.644,22.42,5.111,8.355,18.543
1410,0.741,36.786,32.67,35.596,22.399,4.908,8.193,18.134
1411,0.741,36.826,32.707,35.605,22.406,4.947,8.232,17.805
1412,0.747,36.452,32.739,35.596,22.402,4.988,8.273,17.72
1413,0.751,36.592,32.782,35.596,22.402,4.988,8.274,17.597
1414,0.754,36.699,32.763,35.596,22.392,4.907,8.111,17.474
1415,0.77,36.739,32.779,35.634,22.406,5.028,8.313,17.554
1416,0.767,36.375,32.736,35.625,22.413,5.03,8.396,17.474
1417,0.764,36.496,32.724,35.606,22.399,5.111,8.316,17.595
1418,0.77,36.602,32.716,35.625,22.402,5.03,8.274,17.799
1419,0.774,36.728,32.614,35.644,22.409,5.151,8.396,18.086
1420,0.738,36.509,32.711,35.596,22.396,4.99,8.234,18.089
1421,0.76,36.65,32.731,35.605,22.399,4.907,8.192,18.17
1422,0.748,36.767,32.786,35.605,22.402,4.987,8.232,18.374
1423,0.747,36.48,32.74,35.596,22.402,5.029,8.192,18.58
1424,0.741,36.525,32.646,35.586,22.396,4.907,8.029,19.151
1425,0.744,36.679,32.617,35.624,22.402,5.028,8.19,20.011
1426,0.741,36.786,32.719,35.615,22.409,5.03,8.232,20.629
1427,0.738,36.298,32.727,35.615,22.406,4.989,8.07,21.042
1428,0.751,36.437,32.731,35.625,22.409,5.07,8.15,21.371
1429,0.741,36.554,32.712,35.606,22.399,5.07,8.232,21.659
1430,0.741,36.632,32.755,35.577,22.402,4.908,7.989,21.581
1431,0.747,36.45,32.759,35.576,22.402,4.947,8.027,21.58
1432,0.747,36.592,32.681,35.595,22.402,4.947,8.068,21.499
1433,0.738,36.689,32.708,35.567,22.396,4.988,7.987,21.294
1434,0.754,36.796,32.684,35.614,22.409,4.988,8.027,21.089
1435,0.751,36.346,32.723,35.596,22.406,5.07,8.027,20.802
1436,0.754,36.486,32.724,35.586,22.402,5.03,8.068,20.434
1437,0.751,36.602,32.763,35.586,22.402,4.989,8.109,20.145
1438,0.754,36.699,32.779,35.624,22.413,5.07,8.069,19.817
1439,0.754,36.345,32.841,35.577,22.399,5.03,8.028,19.611
1440,0.744,36.476,32.768,35.557,22.395,4.989,7.946,19.161
1441,0.741,36.612,32.744,35.653,22.409,4.948,8.026,18.954
1442,0.741,36.671,32.704,35.587,22.396,5.069,8.109,18.707
1443,0.747,36.307,32.719,35.538,22.395,4.867,8.028,18.461
1444,0.741,36.485,32.778,35.586,22.409,5.068,8.19,18.255
1445,0.741,36.64,32.767,35.576,22.409,5.07,8.273,18.131
1446,0.741,36.661,32.79,35.576,22.406,5.03,8.274,17.886
1447,0.734,36.412,32.791,35.576,22.402,5.07,8.274,17.599
1448,0.744,36.592,32.841,35.615,22.409,5.111,8.477,17.434
1449,0.734,36.651,32.721,35.548,22.403,4.908,8.316,17.025
1450,0.734,36.661,32.72,35.557,22.399,4.987,8.315,16.655
1451,0.738,36.383,32.712,35.547,22.402,4.988,8.396,16.448
1452,0.741,36.515,32.759,35.566,22.406,4.988,8.478,16.202
1453,0.757,36.65,32.755,35.576,22.399,4.866,8.398,15.834
1454,0.751,36.393,32.771,35.586,22.406,5.028,8.519,15.668
1455,0.751,36.438,32.716,35.586,22.406,4.989,8.479,15.544
1456,0.774,36.554,32.665,35.567,22.402,4.948,8.52,15.34
1457,0.774,36.67,32.688,35.576,22.402,4.947,8.439,15.215
1458,0.758,36.249,32.673,35.576,22.409,5.15,8.601,15.214
1459,0.754,36.322,32.723,35.548,22.403,4.909,8.358,14.97
1460,0.744,36.485,32.72,35.547,22.396,4.987,8.397,14.887
1461,0.754,36.583,32.782,35.566,22.402,5.029,8.438,14.967
1462,0.744,36.306,32.752,35.538,22.399,4.948,8.397,15.009
1463,0.747,36.485,32.697,35.557,22.406,4.947,8.356,15.09
1464,0.738,36.66,32.68,35.595,22.409,5.029,8.437,15.294
1465,0.747,36.719,32.715,35.567,22.399,5.03,8.438,15.337
1466,0.744,36.211,32.7,35.576,22.409,5.07,8.316,15.46
1467,0.741,36.379,32.751,35.586,22.409,5.111,8.437,15.461
1468,0.744,36.476,32.751,35.567,22.403,5.071,8.397,15.461
1469,0.738,36.535,32.712,35.538,22.396,4.989,8.356,15.217
1470,0.747,36.344,32.786,35.538,22.402,4.988,8.356,15.214
1471,0.741,36.486,32.744,35.557,22.396,5.029,8.437,15.133
1472,0.734,36.621,32.704,35.567,22.395,4.867,8.357,14.929
1473,0.741,36.671,32.704,35.567,22.399,5.068,8.478,14.886
1474,0.747,36.757,32.727,35.576,22.406,5.111,8.479,14.804
1475,0.757,36.912,32.759,35.576,22.402,5.071,8.479,14.56
1476,0.744,37.019,32.779,35.538,22.409,5.111,8.52,14.516
1477,0.751,37.049,32.798,35.576,22.416,5.234,8.561,14.353
1478,0.731,36.09,32.798,35.528,22.399,5.032,8.439,14.027
1479,0.728,36.224,32.767,35.547,22.406,4.989,8.357,13.861
1480,0.741,36.35,32.724,35.538,22.399,5.029,8.356,13.737
1481,0.734,36.495,32.708,35.547,22.402,5.03,8.315,13.655
1482,0.715,36.478,32.712,35.547,22.392,4.989,8.193,13.369
1483,0.718,36.631,32.751,35.557,22.409,5.151,8.354,13.366
1484,0.715,36.738,32.779,35.557,22.409,5.071,8.356,13.244
1485,0.715,36.24,32.787,35.547,22.406,5.152,8.234,13.08
1486,0.715,36.274,32.791,35.566,22.402,5.071,8.192,12.957
1487,0.711,36.418,32.767,35.567,22.409,5.233,8.273,12.996
1488,0.715,36.467,32.732,35.528,22.406,5.032,8.111,12.753
1489,0.708,36.353,32.681,35.528,22.396,5.03,8.109,12.628
1490,0.718,36.514,32.704,35.547,22.402,5.07,8.069,12.505
1491,0.705,36.612,32.719,35.519,22.399,5.03,7.946,12.423
1492,0.721,36.738,32.79,35.557,22.402,5.151,8.026,12.218
1493,0.731,36.154,32.791,35.557,22.406,5.031,8.109,12.257
1494,0.744,36.282,32.732,35.557,22.406,5.151,8.028,12.135
1495,0.741,36.428,32.692,35.547,22.396,5.071,8.027,12.012
1496,0.747,36.534,32.68,35.586,22.416,5.193,7.987,11.97
1497,0.728,36.42,32.704,35.528,22.399,5.153,7.946,11.889
1498,0.718,36.573,32.696,35.528,22.395,5.031,7.823,11.766
1499,0.724,36.699,32.68,35.547,22.399,5.07,7.863,11.887
1500,0.728,36.767,32.743,35.538,22.399,5.07,7.822,11.888
1501,0.715,36.183,32.755,35.499,22.402,4.989,7.741,11.766
1502,0.734,36.35,32.712,35.566,22.406,5.07,7.821,11.968
1503,0.731,36.486,32.692,35.567,22.406,5.03,7.822,12.011
1504,0.721,36.506,32.684,35.547,22.402,5.03,7.822,11.889
1505,0.724,36.449,32.711,35.538,22.402,5.111,7.781,11.888
1506,0.728,36.631,32.759,35.576,22.416,5.193,7.781,11.928
1507,0.712,36.709,32.74,35.538,22.403,5.072,7.7,11.848
1508,0.715,36.71,32.771,35.518,22.396,4.948,7.577,11.603
1509,0.711,36.326,32.755,35.509,22.399,5.069,7.657,11.56
1510,0.715,36.485,32.806,35.537,22.406,5.03,7.658,11.478
1511,0.702,36.573,32.681,35.509,22.392,4.989,7.576,11.436
1512,0.721,36.584,32.727,35.547,22.399,5.07,7.575,11.314
1513,0.731,36.411,32.724,35.557,22.402,5.111,7.657,11.353
1514,0.721,36.534,32.763,35.547,22.402,5.112,7.617,11.191
1515,0.734,36.631,32.775,35.547,22.406,5.03,7.617,10.986
1516,0.754,36.278,32.798,35.576,22.413,5.192,7.739,11.025
1517,0.728,36.284,32.787,35.528,22.403,5.031,7.659,10.985
1518,0.715,36.418,32.791,35.528,22.399,4.989,7.495,10.659
1519,0.724,36.515,32.795,35.528,22.399,5.07,7.534,10.574
1520,0.728,36.267,32.705,35.537,22.402,5.111,7.575,10.492
1521,0.718,36.399,32.716,35.499,22.396,4.908,7.413,10.329
1522,0.724,36.534,32.747,35.537,22.406,5.069,7.615,10.327
1523,0.711,36.622,32.767,35.538,22.409,5.07,7.576,10.327
1524,0.711,36.249,32.751,35.528,22.403,5.03,7.575,10.165
1525,0.702,36.398,32.751,35.547,22.406,5.07,7.616,10.0
1526,0.727,36.572,32.751,35.566,22.42,5.193,7.698,10.039
1527,0.702,36.593,32.732,35.528,22.403,5.031,7.618,9.796
1528,0.705,36.287,32.724,35.509,22.396,5.03,7.495,9.631
1529,0.708,36.447,32.692,35.537,22.399,5.07,7.616,9.588
1530,0.715,36.583,32.727,35.538,22.406,5.07,7.617,9.547
1531,0.708,36.632,32.724,35.518,22.396,4.948,7.535,9.425
1532,0.715,36.306,32.806,35.528,22.406,5.11,7.697,9.464
1533,0.721,36.447,32.756,35.537,22.409,5.112,7.699,9.383
1534,0.724,36.583,32.7,35.528,22.406,5.071,7.658,9.261
1535,0.721,36.651,32.657,35.557,22.402,5.07,7.658,9.259
1536,0.724,36.316,32.68,35.576,22.409,5.152,7.78,9.3
1537,0.734,36.437,32.665,35.538,22.396,4.99,7.618,9.138
1538,0.721,36.535,32.711,35.538,22.392,5.029,7.657,9.014
1539,0.715,36.574,32.712,35.528,22.409,5.03,7.658,9.013
1540,0.715,36.344,32.755,35.518,22.403,5.03,7.739,8.972
1541,0.731,36.495,32.798,35.528,22.396,5.07,7.618,8.85
1542,0.728,36.621,32.72,35.547,22.402,5.07,7.779,8.93
1543,0.718,36.565,32.704,35.538,22.409,5.07,7.781,8.931
1544,0.711,36.354,32.696,35.538,22.406,5.07,7.822,8.85
1545,0.721,36.524,32.751,35.538,22.409,5.03,7.781,8.767
1546,0.708,36.603,32.751,35.547,22.409,5.111,7.903,9.011
1547,0.702,36.239,32.759,35.519,22.396,5.03,7.742,8.932
1548,0.701,36.283,32.782,35.518,22.395,5.03,7.781,9.297
1549,0.714,36.428,32.818,35.528,22.406,4.989,7.7,9.626
1550,0.705,36.515,32.775,35.49,22.399,4.988,7.74,9.954
1551,0.715,36.257,32.65,35.547,22.406,5.029,7.74,10.283
1552,0.711,36.398,32.731,35.547,22.406,5.111,7.862,10.896
1553,0.708,36.515,32.735,35.538,22.409,5.03,7.782,11.39
1554,0.711,36.593,32.767,35.547,22.406,5.03,7.781,12.005
1555,0.724,36.325,32.822,35.566,22.409,5.151,7.74,12.58
1556,0.702,36.428,32.787,35.538,22.409,5.153,7.781,13.48
1557,0.721,36.544,32.798,35.509,22.403,4.99,7.659,13.977
1558,0.728,36.641,32.806,35.518,22.402,4.988,7.617,14.917
1559,0.718,36.268,32.74,35.537,22.409,5.07,7.657,15.496
1560,0.715,36.399,32.708,35.518,22.389,4.908,7.576,16.193
1561,0.721,36.534,32.731,35.557,22.409,5.028,7.616,16.972
1562,0.728,36.612,32.767,35.547,22.409,5.03,7.698,17.875
1563,0.734,36.172,32.794,35.528,22.406,5.111,7.699,18.494
1564,0.734,36.311,32.748,35.528,22.402,5.071,7.618,19.15
1565,0.731,36.485,32.747,35.557,22.416,5.233,7.698,19.97
1566,0.721,36.487,32.716,35.528,22.399,4.991,7.618,20.303
1567,0.718,36.295,32.681,35.499,22.392,4.866,7.535,20.632
1568,0.715,36.437,32.657,35.528,22.402,5.028,7.575,20.96
1569,0.715,36.554,32.688,35.509,22.406,4.989,7.616,21.086
1570,0.715,36.593,32.688,35.518,22.392,4.948,7.495,21.006
1571,0.721,36.344,32.762,35.547,22.413,5.069,7.616,21.086
1572,0.721,36.457,32.783,35.538,22.409,5.03,7.617,20.924
1573,0.734,36.573,32.716,35.538,22.406,5.07,7.657,20.719
1574,0.734,36.488,32.649,35.538,22.409,5.07,7.617,20.433
1575,0.712,36.305,32.703,35.557,22.413,5.193,7.779,20.186
1576,0.708,36.408,32.712,35.499,22.403,5.031,7.578,19.696
1577,0.705,36.534,32.723,35.518,22.399,4.989,7.616,19.406
1578,0.702,36.181,32.716,35.518,22.402,4.988,7.576,19.2
1579,0.701,36.244,32.72,35.509,22.402,4.988,7.616,19.117
1580,0.708,36.37,32.766,35.499,22.396,4.948,7.617,18.872
1581,0.708,36.467,32.747,35.547,22.409,5.11,7.657,18.991
1582,0.705,36.295,32.689,35.547,22.409,4.989,7.658,18.911
1583,0.698,36.37,32.708,35.528,22.409,5.029,7.658,18.87
1584,0.718,36.534,32.727,35.509,22.409,5.07,7.698,18.707
1585,0.698,36.593,32.767,35.537,22.409,5.111,7.861,18.746
1586,0.695,36.133,32.786,35.49,22.399,4.949,7.7,18.38
1587,0.688,36.282,32.783,35.518,22.402,4.947,7.699,18.214
1588,0.701,36.418,32.787,35.537,22.399,4.988,7.78,17.968
1589,0.682,36.467,32.779,35.499,22.395,4.948,7.781,17.641
1590,0.692,36.209,32.709,35.518,22.402,4.988,7.822,17.353
1591,0.698,36.379,32.72,35.518,22.409,5.029,7.944,17.187
1592,0.714,36.486,32.739,35.528,22.403,5.03,7.945,16.779
1593,0.708,36.564,32.775,35.528,22.406,4.989,8.026,16.49
1594,0.721,36.114,32.783,35.537,22.416,5.07,8.068,16.243
1595,0.711,36.215,32.767,35.509,22.41,5.07,8.069,15.916
1596,0.721,36.34,32.744,35.499,22.396,4.908,7.946,15.506
1597,0.715,36.399,32.755,35.508,22.402,4.987,8.067,15.177
1598,0.711,36.246,32.716,35.518,22.402,4.988,8.109,14.929
1599,0.715,36.379,32.688,35.499,22.389,4.826,8.069,14.52
1600,0.721,36.524,32.704,35.528,22.399,5.068,8.191,14.272
1601,0.705,36.545,32.743,35.528,22.409,5.03,8.151,14.107
1602,0.711,36.229,32.782,35.509,22.406,5.07,8.11,13.902
1603,0.698,36.369,32.759,35.509,22.409,4.989,8.109,13.575
1604,0.721,36.515,32.697,35.547,22.416,5.11,8.15,13.287
1605,0.715,36.353,32.673,35.519,22.399,4.989,8.11,13.121
1606,0.689,36.208,32.68,35.576,22.395,4.907,7.987,12.713
1607,0.688,36.34,32.7,35.557,22.399,4.947,8.027,12.546
1608,0.708,36.466,32.719,35.499,22.399,5.029,8.109,12.301
1609,0.692,36.209,32.727,35.47,22.392,4.948,7.906,12.014
1610,0.705,36.302,32.747,35.518,22.409,5.069,8.067,11.93
1611,0.715,36.418,32.782,35.509,22.406,5.111,8.069,11.726
1612,0.718,36.544,32.712,35.499,22.406,5.071,8.069,11.479
1613,0.718,36.018,32.704,35.508,22.399,5.03,8.069,11.355
1614,0.734,36.156,32.751,35.537,22.409,5.111,8.15,11.273
1615,0.728,36.244,32.72,35.499,22.403,4.989,8.028,11.069
1616,0.712,36.341,32.743,35.48,22.399,4.948,7.946,10.741
1617,0.734,36.14,32.763,35.48,22.395,4.907,7.986,10.616
1618,0.731,36.273,32.767,35.489,22.399,4.906,7.986,10.493
1619,0.731,36.399,32.779,35.489,22.395,4.825,7.946,10.247
1620,0.721,36.477,32.775,35.518,22.409,4.987,8.108,10.286
1621,0.724,36.123,32.669,35.528,22.409,5.029,8.15,10.164
1622,0.711,36.263,32.731,35.509,22.399,5.03,8.15,10.0
1623,0.715,36.389,32.735,35.499,22.409,4.989,8.15,9.917
1624,0.705,36.448,32.806,35.508,22.416,5.029,8.313,9.916
1625,0.695,36.122,32.791,35.499,22.396,4.948,8.193,9.469
1626,0.698,36.263,32.771,35.489,22.399,4.907,8.11,9.505
1627,0.698,36.389,32.779,35.499,22.402,4.947,8.191,9.384
1628,0.688,36.429,32.748,35.489,22.402,4.988,8.151,9.382
1629,0.701,36.17,32.728,35.48,22.399,4.907,8.11,9.22
1630,0.701,36.321,32.728,35.508,22.402,5.028,8.232,9.34
1631,0.718,36.428,32.739,35.499,22.402,4.989,8.192,9.382
1632,0.715,36.429,32.775,35.508,22.406,5.029,8.151,9.342
1633,0.741,36.17,32.814,35.537,22.413,5.03,8.15,9.545
1634,0.721,36.263,32.764,35.49,22.409,5.03,8.232,9.628
1635,0.708,36.389,32.697,35.48,22.399,4.867,8.07,9.629
1636,0.715,36.333,32.673,35.489,22.402,4.987,8.028,9.751
1637,0.721,36.236,32.657,35.489,22.402,4.948,8.068,9.874
1638,0.708,36.36,32.66,35.46,22.389,4.907,7.946,9.957
1639,0.721,36.486,32.703,35.498,22.409,5.028,7.986,10.039
1640,0.718,36.075,32.716,35.489,22.406,4.989,8.027,10.243
1641,0.728,36.119,32.786,35.489,22.402,5.029,7.905,10.245
1642,0.715,36.234,32.771,35.499,22.402,5.03,7.945,10.367
1643,0.715,36.389,32.701,35.518,22.409,5.07,8.026,10.693
1644,0.708,36.055,32.735,35.547,22.396,4.948,7.824,10.697
1645,0.724,36.176,32.728,35.48,22.399,4.947,7.741,10.819
1646,0.721,36.35,32.72,35.46,22.402,4.988,7.74,10.983
1647,0.708,36.438,32.704,35.479,22.399,5.029,7.74,11.228
1648,0.721,35.998,32.704,35.47,22.392,4.948,7.618,11.231
1649,0.721,36.147,32.731,35.518,22.413,5.029,7.779,11.515
1650,0.702,36.282,32.774,35.489,22.403,5.03,7.74,11.599
1651,0.701,36.341,32.767,35.489,22.406,4.989,7.659,11.763
1652,0.708,36.102,32.716,35.489,22.402,4.988,7.658,11.764
1653,0.695,36.263,32.739,35.508,22.413,5.151,7.82,11.968
1654,0.711,36.36,32.728,35.461,22.403,4.99,7.537,11.889
1655,0.728,36.428,32.755,35.47,22.399,4.907,7.494,11.847
1656,0.741,36.113,32.771,35.479,22.399,4.987,7.534,11.765
1657,0.728,36.224,32.806,35.47,22.395,4.988,7.534,11.764
1658,0.734,36.379,32.806,35.489,22.406,4.948,7.453,11.642
1659,0.744,36.419,32.822,35.489,22.409,5.029,7.615,11.641
1660,0.738,36.045,32.744,35.47,22.406,5.03,7.535,11.641
1661,0.731,36.185,32.755,35.489,22.406,5.03,7.534,11.519
1662,0.731,36.331,32.747,35.518,22.413,5.07,7.575,11.437
1663,0.718,36.323,32.743,35.499,22.403,4.989,7.575,11.355
1664,0.728,36.064,32.763,35.47,22.396,4.907,7.494,11.11
1665,0.738,36.195,32.771,35.451,22.402,4.947,7.453,11.067
1666,0.731,36.331,32.802,35.47,22.402,4.947,7.534,10.944
1667,0.731,36.169,32.76,35.451,22.396,4.866,7.453,10.821
1668,0.744,36.062,32.767,35.489,22.409,4.987,7.534,10.82
1669,0.738,36.195,32.72,35.47,22.406,5.029,7.616,10.739
1670,0.734,36.302,32.72,35.479,22.409,5.07,7.495,10.575
1671,0.738,35.958,32.7,35.48,22.399,4.989,7.616,10.533
1672,0.734,36.05,32.786,35.518,22.413,5.151,7.657,10.655
1673,0.734,36.128,32.763,35.489,22.396,4.949,7.576,10.574
1674,0.738,36.253,32.72,35.48,22.399,4.907,7.454,10.736
1675,0.751,36.015,32.685,35.489,22.402,4.947,7.534,10.941
1676,0.764,36.118,32.657,35.48,22.402,4.988,7.575,11.146
1677,0.774,36.282,32.664,35.47,22.396,4.907,7.454,11.352
1678,0.787,36.38,32.637,35.508,22.409,4.987,7.656,11.882
1679,0.78,36.016,32.719,35.48,22.403,5.029,7.658,12.335
1680,0.767,36.147,32.727,35.489,22.406,4.948,7.576,12.787
1681,0.774,36.321,32.817,35.489,22.406,5.029,7.575,13.361
1682,0.758,36.361,32.744,35.489,22.409,5.03,7.698,14.017
1683,0.754,35.968,32.646,35.46,22.396,4.907,7.577,14.43
1684,0.738,36.127,32.695,35.47,22.406,4.906,7.535,15.206
1685,0.715,36.244,32.716,35.47,22.402,4.947,7.616,16.027
1686,0.705,36.302,32.743,35.451,22.396,4.866,7.535,16.646
1687,0.728,35.996,32.763,35.489,22.406,4.987,7.575,17.383
1688,0.718,36.137,32.783,35.47,22.402,5.029,7.779,18.285
1689,0.728,36.263,32.775,35.47,22.406,4.948,7.618,19.23
1690,0.725,36.303,32.814,35.47,22.399,4.947,7.657,20.418
1691,0.744,35.929,32.748,35.518,22.42,5.11,7.78,21.772
1692,0.744,36.031,32.716,35.47,22.399,4.867,7.659,22.68
1693,0.754,36.156,32.692,35.451,22.399,4.865,7.576,23.502
1694,0.78,36.177,32.743,35.46,22.399,4.946,7.616,24.079
1695,0.784,35.976,32.778,35.479,22.399,4.947,7.657,24.41
1696,0.8,36.137,32.791,35.47,22.392,4.907,7.536,24.495
1697,0.79,36.263,32.806,35.479,22.416,4.987,7.738,24.536
1698,0.79,36.168,32.83,35.48,22.406,4.988,7.699,24.455
1699,0.787,36.062,32.783,35.47,22.406,4.948,7.618,24.17
1700,0.78,36.233,32.681,35.518,22.409,4.988,7.698,23.761
1701,0.764,36.302,32.711,35.47,22.409,4.988,7.699,23.512
1702,0.754,35.939,32.723,35.451,22.392,4.866,7.618,22.941
1703,0.744,36.012,32.77,35.47,22.399,4.946,7.657,22.488
1704,0.747,36.185,32.787,35.46,22.402,4.947,7.658,21.914
1705,0.734,36.244,32.755,35.46,22.399,4.988,7.617,21.42
1706,0.738,35.89,32.736,35.47,22.399,4.988,7.535,20.684
1707,0.725,36.03,32.724,35.479,22.402,5.029,7.657,20.392
1708,0.721,36.166,32.712,35.47,22.399,4.989,7.658,19.779
1709,0.711,36.244,32.692,35.489,22.399,4.988,7.698,19.285
1710,0.731,35.928,32.731,35.489,22.406,5.029,7.699,18.995
1711,0.712,36.05,32.759,35.489,22.406,5.03,7.821,18.748
1712,0.718,36.157,32.775,35.451,22.396,4.907,7.619,18.461
1713,0.728,36.244,32.767,35.46,22.399,4.987,7.698,18.377
1714,0.715,35.9,32.708,35.479,22.399,4.907,7.74,18.295
1715,0.721,36.04,32.677,35.47,22.399,4.987,7.659,18.254
1716,0.721,36.176,32.614,35.489,22.399,4.866,7.658,17.969
1717,0.731,36.244,32.683,35.508,22.413,4.987,7.739,17.925
1718,0.738,35.976,32.704,35.489,22.403,5.029,7.781,17.803
1719,0.731,36.118,32.696,35.48,22.399,4.989,7.74,17.558
1720,0.754,36.263,32.743,35.489,22.402,4.988,7.699,17.311
1721,0.728,36.274,32.778,35.48,22.406,5.11,7.78,17.146
1722,0.705,35.881,32.701,35.46,22.406,4.989,7.659,16.738
1723,0.721,36.049,32.708,35.47,22.406,4.948,7.739,16.49
1724,0.728,36.176,32.716,35.47,22.402,4.947,7.659,16.243
1725,0.708,36.168,32.727,35.46,22.399,4.947,7.698,15.997
1726,0.721,35.899,32.767,35.47,22.402,4.947,7.577,15.669
1727,0.724,36.05,32.763,35.499,22.406,5.069,7.779,15.544
1728,0.744,36.157,32.747,35.489,22.406,5.03,7.781,15.218
1729,0.744,36.091,32.759,35.48,22.406,5.03,7.74,14.93
1730,0.767,36.08,32.802,35.489,22.409,5.151,7.699,14.642
1731,0.748,36.195,32.693,35.489,22.399,4.99,7.78,14.477
1732,0.744,36.283,32.696,35.441,22.395,4.907,7.659,14.068
1733,0.738,35.9,32.708,35.479,22.402,4.947,7.739,13.942
1734,0.741,35.963,32.774,35.489,22.402,5.029,7.74,13.697
1735,0.725,36.07,32.775,35.46,22.396,4.907,7.618,13.41
1736,0.728,36.186,32.806,35.498,22.402,5.028,7.779,13.326
1737,0.738,35.861,32.795,35.48,22.406,5.03,7.781,13.162
1738,0.728,35.973,32.798,35.47,22.402,5.07,7.74,13.12
1739,0.731,36.098,32.748,35.489,22.402,5.07,7.74,13.039
1740,0.728,36.253,32.72,35.537,22.416,5.193,7.821,13.282
1741,0.698,35.756,32.72,35.47,22.403,4.99,7.619,13.203
1742,0.695,35.895,32.743,35.46,22.396,4.948,7.617,13.202
1743,0.695,36.04,32.802,35.479,22.402,4.947,7.657,13.243
1744,0.682,36.099,32.771,35.47,22.409,4.988,7.658,13.284
1745,0.682,35.869,32.736,35.451,22.399,4.907,7.617,13.203
1746,0.682,36.049,32.696,35.489,22.402,5.069,7.739,13.446
1747,0.692,36.185,32.676,35.48,22.402,5.111,7.74,13.489
1748,0.695,36.225,32.649,35.489,22.409,5.03,7.74,13.449
1749,0.692,35.832,32.703,35.47,22.406,5.07,7.699,13.57
1750,0.695,35.972,32.735,35.489,22.413,5.111,7.699,13.856
1751,0.685,36.079,32.763,35.47,22.403,4.989,7.618,13.696
1752,0.688,36.128,32.759,35.46,22.399,4.988,7.535,13.857
1753,0.708,35.851,32.724,35.47,22.406,4.988,7.575,14.062
1754,0.692,35.972,32.677,35.46,22.402,5.029,7.494,14.024
1755,0.727,36.137,32.711,35.47,22.406,4.989,7.575,14.145
1756,0.715,36.177,32.743,35.479,22.402,5.07,7.575,14.269
1757,0.708,35.947,32.751,35.47,22.409,5.07,7.616,14.188
1758,0.708,36.088,32.743,35.479,22.396,5.07,7.535,14.147
1759,0.721,36.243,32.763,35.508,22.409,5.07,7.575,14.187
1760,0.718,35.948,32.786,35.47,22.403,5.03,7.575,14.025
1761,0.695,35.801,32.771,35.46,22.402,4.948,7.413,13.861
1762,0.698,35.962,32.669,35.489,22.399,5.029,7.452,13.778
1763,0.714,36.06,32.719,35.47,22.402,5.03,7.452,13.614
1764,0.692,35.773,32.716,35.441,22.392,4.826,7.371,13.409
1765,0.701,35.885,32.743,35.479,22.409,5.027,7.452,13.245
1766,0.695,36.05,32.802,35.47,22.403,5.111,7.534,13.121
1767,0.692,36.118,32.799,35.479,22.402,5.03,7.534,12.957
1768,0.701,35.793,32.783,35.47,22.409,5.07,7.494,12.833
1769,0.711,35.943,32.822,35.508,22.413,5.152,7.575,12.71
1770,0.695,36.031,32.74,35.451,22.403,5.031,7.454,12.465
1771,0.708,36.156,32.735,35.46,22.399,4.907,7.33,12.178
1772,0.711,35.669,32.708,35.47,22.399,4.947,7.451,12.094
1773,0.705,35.779,32.759,35.489,22.402,4.988,7.412,12.052
1774,0.721,35.933,32.814,35.451,22.399,4.907,7.371,11.849
1775,0.734,36.031,32.806,35.489,22.413,5.028,7.492,11.806
1776,0.728,35.85,32.787,35.48,22.403,5.111,7.453,11.724
1777,0.721,35.972,32.763,35.47,22.409,5.03,7.452,11.601
1778,0.728,36.118,32.759,35.479,22.406,4.989,7.412,11.478
1779,0.721,36.186,32.708,35.489,22.409,5.11,7.533,11.477
1780,0.721,35.65,32.723,35.451,22.392,5.03,7.331,11.233
1781,0.718,35.788,32.739,35.45,22.395,4.948,7.329,11.027
1782,0.715,35.924,32.782,35.46,22.402,4.988,7.37,10.903
1783,0.711,35.954,32.763,35.451,22.402,4.988,7.289,10.821
1784,0.715,35.801,32.704,35.46,22.402,4.948,7.247,10.698
1785,0.702,35.953,32.665,35.46,22.409,4.988,7.369,10.737
1786,0.698,36.041,32.61,35.46,22.406,5.029,7.37,10.657
1787,0.711,36.07,32.594,35.47,22.406,5.03,7.33,10.696
1788,0.721,35.956,32.734,35.489,22.413,5.111,7.329,10.656
1789,0.708,36.06,32.732,35.46,22.403,4.989,7.41,10.859
1790,0.715,36.166,32.751,35.451,22.396,4.907,7.289,10.861
1791,0.715,35.899,32.806,35.46,22.399,4.947,7.369,11.146
1792,0.711,35.733,32.724,35.46,22.402,4.907,7.452,11.515
1793,0.705,35.875,32.716,35.489,22.396,4.906,7.33,11.843
1794,0.737,36.021,32.712,35.47,22.409,5.028,7.573,12.253
1795,0.731,35.773,32.743,35.46,22.403,4.989,7.575,12.542
1796,0.728,35.876,32.751,35.46,22.402,5.029,7.616,12.667
1797,0.741,35.982,32.775,35.451,22.406,4.989,7.535,12.79
1798,0.738,36.108,32.787,35.508,22.413,5.151,7.819,13.076
1799,0.725,35.687,32.802,35.441,22.403,4.949,7.619,12.957
1800,0.724,35.817,32.787,35.441,22.389,4.866,7.617,12.996
1801,0.721,35.982,32.701,35.46,22.395,4.906,7.657,12.956
1802,0.715,36.07,32.716,35.451,22.402,4.906,7.739,12.956
1803,0.728,35.61,32.724,35.422,22.396,4.865,7.699,12.752
1804,0.728,35.778,32.782,35.46,22.406,4.987,7.821,12.913
1805,0.715,35.895,32.794,35.451,22.409,5.029,7.863,12.833
1806,0.718,35.963,32.798,35.45,22.406,4.867,7.822,12.873
1807,0.744,35.791,32.791,35.45,22.409,4.946,7.985,12.751
1808,0.738,35.934,32.779,35.47,22.409,5.069,8.068,12.791
1809,0.757,36.04,32.779,35.422,22.399,4.948,7.987,12.547
1810,0.764,36.128,32.666,35.45,22.395,4.947,8.027,12.464
1811,0.777,35.764,32.719,35.45,22.402,4.988,8.068,12.341
1812,0.78,35.876,32.759,35.45,22.399,4.948,8.191,12.299
1813,0.787,36.04,32.771,35.431,22.402,4.866,8.07,12.176
1814,0.806,36.08,32.798,35.469,22.413,5.028,8.191,12.216
1815,0.826,35.821,32.736,35.451,22.406,5.03,8.192,12.216
1816,0.833,35.943,32.743,35.46,22.402,4.989,8.232,12.013
1817,0.859,36.117,32.712,35.47,22.406,4.948,8.233,11.97
1818,0.882,36.09,32.692,35.451,22.409,5.029,8.273,11.97
1819,0.879,35.726,32.7,35.508,22.396,4.826,8.193,11.685
1820,0.902,35.866,32.712,35.422,22.399,4.905,8.151,11.56
1821,0.899,36.001,32.747,35.45,22.402,4.906,8.191,11.559
1822,0.925,35.801,32.759,35.431,22.399,4.906,8.232,11.437
1823,0.974,35.799,32.712,35.441,22.399,4.865,8.111,11.355
1824,1.013,35.934,32.684,35.46,22.409,4.987,8.272,11.557
1825,1.049,36.04,32.723,35.451,22.406,4.988,8.314,11.844
1826,1.082,35.668,32.704,35.431,22.399,4.948,8.315,12.091
1827,1.125,35.817,32.747,35.469,22.413,5.069,8.559,12.378
1828,1.132,35.905,32.732,35.441,22.399,4.948,8.602,12.665
1829,1.142,36.002,32.728,35.431,22.402,4.947,8.562,12.749
1830,1.168,35.638,32.767,35.431,22.402,4.907,8.724,13.197
1831,1.155,35.769,32.775,35.441,22.399,4.987,8.848,13.568
1832,1.161,35.885,32.677,35.412,22.399,4.785,8.808,13.734
1833,1.142,36.002,32.711,35.45,22.409,4.986,9.011,14.142
1834,1.106,35.705,32.723,35.441,22.406,4.988,9.135,14.512
1835,1.096,35.856,32.747,35.431,22.406,4.988,9.095,14.679
1836,1.145,35.973,32.775,35.441,22.396,4.907,9.095,14.924
1837,1.139,36.031,32.79,35.46,22.413,5.069,9.258,15.171
1838,1.142,35.629,32.787,35.422,22.399,4.908,9.097,15.214
1839,1.174,35.788,32.791,35.421,22.399,4.906,9.014,15.255
1840,1.246,35.924,32.787,35.431,22.399,4.906,9.054,15.418
1841,1.25,35.992,32.677,35.45,22.406,4.906,9.013,15.42
1842,1.276,35.734,32.719,35.441,22.402,4.987,8.972,15.338
1843,1.267,35.885,32.759,35.45,22.406,4.988,9.013,15.338
1844,1.234,36.011,32.775,35.441,22.406,4.907,9.054,15.338
1845,1.211,36.032,32.779,35.431,22.409,4.987,8.973,15.378
1846,1.188,35.735,32.81,35.45,22.406,5.029,8.891,15.501
1847,1.152,35.856,32.791,35.441,22.406,5.03,8.89,15.786
1848,1.07,35.925,32.775,35.422,22.396,4.907,8.768,15.789
1849,0.998,35.944,32.74,35.412,22.399,4.947,8.726,15.952
1850,0.952,35.762,32.751,35.412,22.406,4.988,8.685,15.994
1851,0.854,35.866,32.736,35.402,22.392,4.866,8.562,16.035
1852,0.791,36.021,32.763,35.431,22.402,4.906,8.643,16.035
1853,0.683,35.821,32.794,35.45,22.406,5.069,8.603,16.076
1854,0.584,35.761,32.759,35.431,22.406,4.989,8.562,15.955
1855,0.544,35.895,32.728,35.422,22.402,5.029,8.521,15.791
1856,0.534,36.04,32.677,35.45,22.409,5.111,8.52,15.789
1857,0.495,35.687,32.653,35.422,22.396,4.949,8.358,15.464
1858,0.485,35.779,32.606,35.412,22.399,4.866,8.315,15.257
1859,0.504,35.924,32.687,35.421,22.399,4.906,8.234,15.011
1860,0.521,36.031,32.719,35.421,22.402,4.947,8.233,14.846
1861,0.544,35.62,32.778,35.402,22.392,4.907,8.151,14.519
1862,0.567,35.817,32.771,35.45,22.409,4.987,8.313,14.475
1863,0.599,35.924,32.697,35.422,22.403,4.988,8.274,14.272
1864,0.616,36.021,32.723,35.431,22.402,4.948,8.274,14.026
1865,0.636,35.648,32.7,35.422,22.402,4.988,8.274,13.861
1866,0.659,35.779,32.723,35.431,22.413,5.11,8.396,13.818
1867,0.685,35.895,32.708,35.412,22.392,4.989,8.194,13.574
1868,0.724,35.973,32.735,35.412,22.395,4.988,8.192,13.49
1869,0.77,35.6,32.759,35.421,22.402,4.988,8.192,13.49
1870,0.777,35.721,32.822,35.402,22.396,4.948,8.273,13.693
1871,0.803,35.904,32.764,35.431,22.395,4.988,8.274,13.654
1872,0.807,35.973,32.755,35.441,22.409,5.029,8.355,13.898
1873,0.807,35.676,32.728,35.441,22.406,5.03,8.437,14.063
1874,0.807,35.808,32.751,35.431,22.406,4.989,8.397,14.227
1875,0.81,35.972,32.806,35.479,22.416,5.151,8.438,14.351
1876,0.8,35.964,32.795,35.432,22.403,4.99,8.316,14.474
1877,0.8,35.638,32.798,35.402,22.402,4.907,8.274,14.394
1878,0.797,35.779,32.802,35.44,22.402,4.947,8.355,14.434
1879,0.794,35.905,32.799,35.422,22.402,4.988,8.234,14.353
1880,0.784,35.906,32.697,35.421,22.396,4.826,8.192,14.271
1881,0.8,35.81,32.723,35.441,22.402,4.987,8.354,14.351
1882,0.787,35.924,32.739,35.441,22.409,5.029,8.315,14.271
1883,0.774,36.06,32.778,35.422,22.409,5.03,8.274,14.066
1884,0.784,35.696,32.794,35.441,22.399,5.07,8.233,13.983
1885,0.771,35.587,32.779,35.441,22.413,5.111,8.314,13.942
1886,0.757,35.701,32.732,35.422,22.396,4.908,8.152,13.657
1887,0.764,35.818,32.716,35.431,22.395,4.947,8.191,13.41
1888,0.754,35.656,32.7,35.422,22.399,5.029,8.192,13.285
1889,0.748,35.74,32.665,35.412,22.399,4.948,8.151,13.162
1890,0.754,35.923,32.735,35.45,22.399,4.988,8.191,12.876
1891,0.764,36.012,32.767,35.46,22.413,5.07,8.273,12.833
1892,0.761,35.629,32.806,35.422,22.403,4.989,8.274,12.629
1893,0.751,35.759,32.775,35.45,22.409,5.029,8.233,12.464
1894,0.787,35.933,32.732,35.47,22.413,5.07,8.273,12.3
1895,0.774,35.993,32.7,35.479,22.403,4.989,8.233,12.217
1896,0.774,35.581,32.684,35.422,22.399,4.988,8.111,12.013
1897,0.787,35.74,32.704,35.431,22.399,4.866,8.109,12.133
1898,0.777,35.875,32.712,35.45,22.402,4.987,8.15,12.337
1899,0.774,35.915,32.727,35.403,22.389,4.866,7.947,12.543
1900,0.784,35.676,32.794,35.44,22.409,5.028,8.067,13.033
1901,0.784,35.817,32.787,35.47,22.406,4.989,8.109,13.444
1902,0.777,35.943,32.713,35.441,22.413,4.948,8.028,14.14
1903,0.767,35.993,32.735,35.431,22.406,4.988,8.027,14.878
1904,0.774,35.686,32.735,35.469,22.413,5.11,8.068,15.821
1905,0.764,35.798,32.763,35.451,22.403,4.989,8.028,16.603
1906,0.761,35.914,32.767,35.431,22.396,4.948,7.824,17.099
1907,0.761,35.944,32.786,35.441,22.399,4.907,7.944,17.673
1908,0.774,35.619,32.806,35.45,22.402,4.987,7.945,18.085
1909,0.777,35.74,32.795,35.422,22.392,4.907,7.864,18.17
1910,0.78,35.875,32.779,35.46,22.406,5.028,7.944,18.496
1911,0.777,35.877,32.74,35.451,22.402,4.989,8.026,18.54
1912,0.777,35.762,32.716,35.45,22.406,4.988,8.068,18.459
1913,0.78,35.895,32.77,35.441,22.409,4.988,7.987,18.377
1914,0.8,36.03,32.822,35.479,22.416,5.151,8.027,18.295
1915,0.803,35.696,32.775,35.441,22.41,5.031,7.987,17.969
1916,0.787,35.607,32.759,35.422,22.403,4.989,7.946,17.6
1917,0.797,35.759,32.79,35.441,22.406,5.029,7.905,17.393
1918,0.781,35.876,32.783,35.45,22.406,5.03,7.945,17.147
1919,0.787,35.618,32.709,35.422,22.392,4.907,7.864,16.778
1920,0.787,35.778,32.743,35.46,22.409,5.069,7.985,16.653
1921,0.777,35.895,32.724,35.46,22.409,4.989,7.986,16.367
1922,0.78,35.992,32.778,35.46,22.406,5.07,7.946,16.202
1923,0.784,35.523,32.775,35.431,22.402,4.989,7.945,15.956
1924,0.787,35.681,32.74,35.479,22.409,5.151,8.026,15.953
1925,0.767,35.798,32.669,35.432,22.396,4.949,7.824,15.587
1926,0.767,35.866,32.688,35.441,22.399,4.947,7.863,15.381
1927,0.78,35.618,32.665,35.441,22.409,4.947,7.822,15.297
1928,0.777,35.74,32.715,35.508,22.403,4.988,7.944,15.134
1929,0.787,35.895,32.704,35.441,22.399,4.948,7.742,14.929
1930,0.79,35.973,32.751,35.46,22.406,5.11,7.903,14.805
1931,0.793,35.552,32.782,35.451,22.409,5.071,7.945,14.6
1932,0.806,35.701,32.74,35.441,22.403,4.989,7.945,14.395
1933,0.826,35.856,32.626,35.47,22.399,4.988,7.945,14.23
1934,0.807,35.886,32.715,35.47,22.409,5.07,8.026,14.147
1935,0.807,35.608,32.708,35.422,22.396,4.908,7.946,13.78
1936,0.826,35.749,32.743,35.431,22.392,4.987,7.945,13.614
1937,0.82,35.876,32.778,35.422,22.399,4.988,8.026,13.491
1938,0.803,35.896,32.748,35.412,22.399,5.029,8.027,13.327
1939,0.81,35.656,32.778,35.46,22.399,4.948,8.068,13.0
1940,0.803,35.798,32.822,35.441,22.413,4.988,8.191,12.956
1941,0.797,35.924,32.721,35.431,22.409,4.988,8.151,12.711
1942,0.794,35.935,32.72,35.441,22.403,4.988,8.11,12.506
1943,0.8,35.666,32.77,35.46,22.42,5.11,8.109,12.301
1944,0.784,35.769,32.783,35.431,22.41,5.03,8.069,12.136
1945,0.784,35.876,32.798,35.412,22.396,4.989,8.028,11.85
1946,0.787,35.637,32.822,35.431,22.409,4.948,7.987,11.765
1947,0.797,35.596,32.787,35.431,22.399,5.029,8.068,11.724
1948,0.79,35.701,32.791,35.412,22.389,4.867,7.987,11.642
1949,0.8,35.856,32.759,35.45,22.409,5.028,8.108,11.601
1950,0.797,35.57,32.747,35.489,22.406,5.03,8.191,11.6
1951,0.8,35.653,32.704,35.432,22.406,5.03,8.192,11.519
1952,0.81,35.817,32.755,35.422,22.402,5.03,8.232,11.355
1953,0.803,35.924,32.806,35.46,22.413,5.151,8.314,11.476
1954,0.807,35.494,32.763,35.412,22.403,4.909,8.234,11.233
1955,0.82,35.633,32.728,35.431,22.396,4.987,8.151,11.149
1956,0.83,35.769,32.704,35.402,22.402,4.907,8.15,10.986
1957,0.826,35.857,32.653,35.431,22.406,4.987,8.273,10.944
1958,0.817,35.522,32.672,35.402,22.399,4.907,8.071,10.699
1959,0.826,35.691,32.727,35.44,22.402,4.987,8.272,10.737
1960,0.82,35.817,32.728,35.412,22.406,5.07,8.314,10.697
1961,0.817,35.895,32.774,35.421,22.402,4.989,8.193,10.575
1962,0.803,35.561,32.783,35.431,22.402,4.988,8.273,10.411
1963,0.807,35.691,32.748,35.441,22.409,5.151,8.355,10.45
1964,0.794,35.779,32.704,35.402,22.396,4.99,8.071,10.206
1965,0.797,35.857,32.739,35.392,22.402,4.948,8.191,10.082
1966,0.8,35.474,32.704,35.402,22.396,4.907,8.151,9.999
1967,0.787,35.614,32.735,35.412,22.402,4.987,8.069,10.039
1968,0.806,35.759,32.72,35.421,22.399,4.907,8.109,9.877
1969,0.807,35.78,32.743,35.412,22.409,5.028,8.232,9.916
1970,0.81,35.598,32.778,35.402,22.403,4.989,8.111,9.876
1971,0.813,35.73,32.771,35.421,22.402,4.988,8.15,9.916
1972,0.829,35.904,32.708,35.441,22.413,5.11,8.191,9.916
1973,0.82,35.983,32.735,35.431,22.409,5.112,8.192,9.998
1974,0.83,35.552,32.728,35.402,22.396,4.949,8.151,9.958
1975,0.826,35.691,32.755,35.421,22.395,4.947,8.069,9.957
1976,0.826,35.817,32.814,35.421,22.399,4.947,8.069,10.08
1977,0.826,35.589,32.806,35.383,22.392,4.907,8.109,10.162
1978,0.83,35.625,32.818,35.421,22.402,5.028,8.15,10.407
1979,0.833,35.75,32.818,35.421,22.409,5.07,8.313,10.734
1980,0.826,35.866,32.74,35.431,22.403,4.989,8.234,10.982
1981,0.82,35.484,32.728,35.431,22.402,4.988,8.192,11.35
1982,0.839,35.604,32.763,35.45,22.416,5.11,8.273,11.598
1983,0.826,35.682,32.798,35.412,22.403,4.949,8.274,11.803
1984,0.817,35.769,32.826,35.393,22.392,4.907,8.111,11.887
1985,0.816,35.435,32.779,35.402,22.406,4.947,8.191,12.091
1986,0.82,35.585,32.755,35.431,22.396,5.029,8.192,12.296
1987,0.817,35.682,32.712,35.393,22.388,4.989,8.11,12.217
1988,0.839,35.808,32.747,35.431,22.409,4.988,8.191,12.42
1989,0.836,35.397,32.7,35.431,22.409,5.07,8.273,12.422
1990,0.843,35.536,32.731,35.422,22.406,5.111,8.193,12.462
1991,0.839,35.672,32.759,35.431,22.399,5.03,8.151,12.422
1992,0.856,35.779,32.81,35.46,22.416,5.151,8.273,12.381
1993,0.836,35.502,32.787,35.412,22.399,5.031,8.152,12.299
1994,0.839,35.633,32.705,35.412,22.402,4.989,8.11,12.136
1995,0.846,35.759,32.673,35.412,22.396,4.988,8.028,12.093
1996,0.846,35.857,32.719,35.431,22.395,4.988,8.068,12.134
1997,0.84,35.464,32.724,35.479,22.392,4.907,7.946,11.931
1998,0.833,35.643,32.735,35.441,22.409,5.069,8.067,12.132
1999,0.83,35.779,32.712,35.431,22.406,5.152,8.028,12.337
2000,0.826,35.818,32.747,35.422,22.402,5.071,7.946,12.787
2001,0.833,35.569,32.782,35.421,22.406,5.03,7.986,13.361
2002,0.849,35.72,32.736,35.469,22.416,5.192,8.068,14.017
2003,0.836,35.827,32.728,35.431,22.406,5.072,7.946,14.511
2004,0.83,36.03,32.716,35.412,22.396,4.948,7.823,15.045
2005,0.826,35.418,32.731,35.412,22.402,4.988,7.944,15.822
2006,0.833,35.565,32.782,35.421,22.406,5.029,7.864,16.725
2007,0.823,35.663,32.767,35.412,22.392,4.989,7.741,17.588
2008,0.849,35.568,32.79,35.441,22.406,5.029,7.821,18.369
2009,0.846,35.605,32.806,35.431,22.406,5.07,7.903,19.108
2010,0.843,35.711,32.81,35.431,22.409,5.07,7.863,19.644
2011,0.839,35.818,32.713,35.412,22.403,4.989,7.822,20.016
2012,0.856,35.483,32.743,35.46,22.416,5.151,7.985,20.466
2013,0.84,35.556,32.743,35.431,22.403,4.99,7.864,20.756
2014,0.852,35.701,32.767,35.412,22.402,4.948,7.822,20.962
2015,0.862,35.808,32.802,35.421,22.402,4.988,7.822,21.248
2016,0.866,35.435,32.818,35.421,22.399,4.988,7.903,21.373
2017,0.862,35.556,32.81,35.393,22.399,4.988,7.863,21.334
2018,0.853,35.72,32.83,35.431,22.406,5.11,7.985,21.415
2019,0.862,35.808,32.799,35.431,22.409,5.152,8.068,21.375
2020,0.866,35.378,32.689,35.422,22.403,4.99,8.069,20.968
2021,0.859,35.527,32.723,35.421,22.409,4.948,8.028,20.72
2022,0.849,35.672,32.743,35.46,22.413,5.069,8.19,20.514
2023,0.849,35.702,32.786,35.412,22.403,4.989,7.948,19.984
2024,0.853,35.415,32.783,35.402,22.402,4.907,7.945,19.531
2025,0.846,35.575,32.752,35.431,22.402,4.987,7.986,19.12
2026,0.84,35.673,32.72,35.422,22.402,4.988,8.027,18.791
2027,0.852,35.76,32.704,35.402,22.402,4.907,7.905,18.462
2028,0.869,35.406,32.704,35.431,22.399,5.069,7.985,18.581
2029,0.876,35.546,32.692,35.441,22.399,5.03,7.986,18.582
2030,0.876,35.653,32.735,35.422,22.406,5.03,8.027,18.541
2031,0.892,35.74,32.778,35.441,22.409,4.907,8.027,18.541
2032,0.876,35.492,32.798,35.422,22.406,5.069,8.068,18.541
2033,0.879,35.605,32.752,35.402,22.399,4.908,7.865,18.378
2034,0.882,35.759,32.681,35.412,22.399,4.947,7.782,18.295
2035,0.892,36.048,32.708,35.479,22.399,4.988,7.862,18.172
2036,0.889,35.514,32.723,35.403,22.395,4.948,7.822,18.171
2037,0.892,35.681,32.724,35.421,22.406,4.907,7.781,18.049
2038,0.886,35.789,32.727,35.431,22.413,5.028,7.862,18.007
2039,0.882,35.55,32.739,35.431,22.406,4.948,7.822,17.763
2040,0.879,35.528,32.782,35.441,22.409,4.988,7.822,17.76
2041,0.876,35.682,32.794,35.46,22.409,5.07,7.944,17.638
2042,0.882,35.76,32.681,35.403,22.406,4.908,7.823,17.393
2043,0.876,35.415,32.723,35.402,22.402,4.906,7.781,17.066
2044,0.879,35.537,32.727,35.412,22.396,4.906,7.822,16.859
2045,0.859,35.672,32.77,35.412,22.399,4.947,7.863,16.613
2046,0.853,35.75,32.787,35.383,22.395,4.825,7.741,16.245
2047,0.859,35.54,32.787,35.431,22.402,4.987,7.943,16.078
2048,0.872,35.672,32.798,35.422,22.406,4.988,8.026,15.792
2049,0.872,35.808,32.802,35.412,22.406,4.988,8.109,15.505
2050,0.869,35.886,32.787,35.402,22.409,5.029,7.987,15.136
2051,0.879,35.503,32.752,35.44,22.413,5.07,8.19,15.01
2052,0.882,35.633,32.712,35.402,22.399,4.948,8.07,14.602
2053,0.885,35.769,32.759,35.402,22.395,4.907,7.946,14.273
2054,0.889,35.847,32.79,35.392,22.402,4.906,8.067,14.107
2055,0.895,35.589,32.81,35.412,22.402,4.906,8.069,13.861
2056,0.899,35.721,32.795,35.383,22.399,4.865,8.028,13.574
2057,0.912,35.875,32.806,35.421,22.402,4.987,8.149,13.531
2058,0.899,35.906,32.802,35.421,22.409,5.029,8.273,13.246
2059,0.899,35.666,32.76,35.431,22.403,4.948,8.193,13.08
2060,0.895,35.827,32.716,35.431,22.402,4.907,8.151,12.876
2061,0.895,35.934,32.731,35.431,22.413,5.069,8.273,12.833
2062,0.895,35.954,32.755,35.393,22.399,4.867,8.152,12.426
2063,0.905,35.667,32.79,35.383,22.399,4.824,8.11,12.137
2064,0.912,35.798,32.787,35.402,22.399,4.946,8.109,12.012
2065,0.899,35.895,32.732,35.392,22.402,4.947,8.15,11.889
2066,0.899,36.222,32.704,35.402,22.399,4.907,8.11,11.766
2067,0.899,35.717,32.723,35.402,22.406,4.947,8.232,11.602
2068,0.889,35.856,32.704,35.412,22.406,4.988,8.233,11.478
2069,0.895,35.953,32.743,35.402,22.406,5.029,8.151,11.355
2070,0.908,35.897,32.72,35.402,22.413,4.989,8.11,11.151
2071,0.899,35.896,32.79,35.402,22.413,5.029,8.232,11.149
2072,0.892,36.021,32.791,35.373,22.399,4.867,8.111,10.823
2073,0.895,36.128,32.72,35.392,22.395,4.987,8.109,10.739
2074,0.912,35.812,32.704,35.421,22.399,4.948,8.109,10.657
2075,0.905,35.895,32.716,35.374,22.395,4.907,8.069,10.534
2076,0.925,36.059,32.72,35.392,22.395,4.906,8.069,10.37
2077,0.922,36.138,32.77,35.402,22.406,4.987,8.109,10.368
2078,0.912,35.927,32.775,35.402,22.402,4.988,8.109,10.328
2079,0.905,36.06,32.771,35.383,22.406,4.988,8.109,10.124
2080,0.918,36.205,32.822,35.411,22.409,4.988,8.191,10.122
2081,0.892,36.254,32.783,35.373,22.403,4.988,8.151,10.0
2082,0.899,35.957,32.724,35.392,22.396,4.948,8.069,9.755
2083,0.899,36.098,32.731,35.364,22.399,4.866,8.109,9.874
2084,0.905,36.243,32.743,35.383,22.409,4.865,8.109,9.835
2085,0.899,36.293,32.759,35.354,22.392,4.824,7.987,9.672
2086,0.902,36.102,32.782,35.392,22.406,4.987,8.149,9.792
2087,0.912,36.234,32.81,35.383,22.406,5.029,8.11,9.834
2088,0.895,36.369,32.795,35.373,22.406,5.03,8.109,9.794
2089,0.912,36.4,32.814,35.373,22.406,5.03,8.028,9.793
2090,0.915,36.266,32.775,35.402,22.409,5.111,8.149,9.834
2091,0.909,36.389,32.748,35.354,22.406,4.949,7.988,9.672
2092,0.918,36.515,32.736,35.354,22.399,4.988,7.986,9.67
2093,0.925,36.545,32.774,35.373,22.395,4.988,7.986,9.67
2094,0.915,36.219,32.814,35.383,22.406,5.029,8.108,9.67
2095,0.918,36.379,32.779,35.354,22.399,4.948,7.947,9.67
2096,0.931,36.515,32.759,35.382,22.409,5.029,7.986,9.833
2097,0.931,36.823,32.751,35.373,22.409,5.03,7.986,9.834
2098,0.922,36.289,32.759,35.363,22.399,5.03,7.946,9.916
2099,0.931,36.437,32.712,35.373,22.399,5.03,8.067,9.916
2100,0.918,36.554,32.731,35.383,22.409,5.233,8.191,10.161
2101,0.902,36.373,32.731,35.364,22.396,4.991,8.07,10.163
2102,0.902,36.4,32.786,35.363,22.395,4.988,8.109,10.204
2103,0.905,36.544,32.783,35.383,22.402,4.988,8.109,10.285
2104,0.905,36.651,32.72,35.373,22.406,5.07,8.191,10.408
2105,0.905,36.412,32.665,35.344,22.402,4.948,8.192,10.328
2106,0.905,36.525,32.625,35.411,22.413,5.069,8.273,10.612
2107,0.899,36.67,32.645,35.383,22.406,5.07,8.274,10.737
2108,0.902,36.748,32.723,35.421,22.396,5.03,8.274,10.697
2109,0.918,36.48,32.759,35.383,22.402,5.07,8.274,10.697
2110,0.905,36.592,32.763,35.383,22.413,5.152,8.396,10.9
2111,0.905,36.709,32.814,35.344,22.399,4.99,8.275,10.699
2112,0.902,36.787,32.771,35.373,22.399,5.029,8.274,10.656
2113,0.912,36.519,32.666,35.383,22.399,4.989,8.193,10.656
2114,0.902,36.679,32.719,35.344,22.399,4.988,8.192,10.656
2115,0.915,36.805,32.716,35.363,22.395,4.948,8.11,10.574
2116,0.918,36.874,32.743,35.383,22.409,5.15,8.232,10.696
2117,0.909,36.625,32.767,35.373,22.409,5.071,8.192,10.778
