time,ecg,bvp,gsr,rsp,skt,emg_zygo,emg_coru,emg_trap
0,0.863,36.565,28.276,29.421,24.096,9.998,8.03,5.607
1,0.888,36.373,28.308,29.458,24.113,10.446,8.149,5.767
2,0.866,36.505,28.214,29.459,24.113,10.654,8.11,5.606
3,0.876,36.602,28.26,29.459,24.106,10.9,8.109,5.726
4,0.879,36.459,28.284,29.459,24.113,11.105,8.028,5.565
5,0.859,36.468,28.319,29.468,24.11,11.311,8.149,5.726
6,0.862,36.564,28.328,29.449,24.106,11.435,8.11,5.646
7,0.853,36.67,28.308,29.449,24.106,11.558,8.15,5.605
8,0.872,36.345,28.281,29.507,24.12,11.884,8.476,5.808
9,0.879,36.361,28.233,29.459,24.113,11.766,8.52,5.647
10,0.866,36.495,28.311,29.459,24.106,11.887,8.805,5.727
11,0.869,36.573,28.23,29.449,24.11,11.888,9.133,5.646
12,0.863,36.277,28.26,29.468,24.117,11.928,9.461,5.686
13,0.84,36.379,28.276,29.449,24.106,11.766,9.505,5.605
14,0.836,36.544,28.339,29.468,24.113,11.968,9.831,5.726
15,0.852,36.584,28.328,29.459,24.113,11.889,10.038,5.727
16,0.872,36.373,28.328,29.421,24.103,11.685,10.04,5.524
17,0.895,36.553,28.253,29.478,24.106,11.764,10.406,5.725
18,0.879,36.68,28.245,29.459,24.113,11.724,10.45,5.687
19,0.869,36.729,28.296,29.459,24.113,11.723,10.572,5.727
20,0.882,36.25,28.269,29.459,24.11,11.683,10.574,5.687
21,0.889,36.398,28.257,29.459,24.117,11.886,10.696,5.768
22,0.899,36.496,28.249,29.44,24.099,11.888,10.697,5.647
23,0.892,36.573,28.311,29.459,24.113,12.01,10.859,5.767
24,0.892,36.373,28.324,29.478,24.12,12.133,10.902,5.768
25,0.863,36.448,28.261,29.43,24.099,12.053,10.739,5.525
26,0.885,36.602,28.194,29.449,24.11,12.133,10.819,5.725
27,0.882,36.613,28.244,29.459,24.11,12.215,10.82,5.646
28,0.889,51.514,28.26,29.449,24.117,12.135,10.82,5.808
29,0.892,51.579,28.315,29.449,24.113,12.134,10.739,5.728
30,0.873,51.549,28.214,29.488,24.12,12.134,10.819,5.809
31,0.872,46.255,28.26,29.421,24.106,12.012,10.657,5.647
32,0.879,29.805,28.296,29.439,24.11,11.97,10.656,5.645
33,0.892,29.975,28.319,29.497,24.124,12.051,10.737,5.849
34,0.853,30.151,28.273,29.431,24.11,11.808,10.575,5.648
35,0.895,37.22,28.218,29.449,24.106,11.887,10.574,5.727
36,0.882,38.854,28.131,29.459,24.11,11.725,10.411,5.646
37,0.898,38.985,28.228,29.459,24.113,11.723,10.45,5.686
38,0.889,39.034,28.256,29.44,24.106,11.683,10.369,5.727
39,0.892,35.16,28.264,29.449,24.113,11.764,10.328,5.809
40,0.892,35.093,28.245,29.44,24.11,11.521,10.165,5.728
41,0.892,35.255,28.264,29.439,24.106,11.477,10.163,5.605
42,0.915,35.372,28.343,29.478,24.127,11.64,10.244,5.686
43,0.899,36.649,28.269,29.421,24.113,11.479,10.123,5.687
44,0.889,36.824,28.272,29.458,24.113,11.396,9.959,5.605
45,0.899,36.951,28.237,29.459,24.113,11.314,9.917,5.645
46,0.899,37.029,28.295,29.468,24.106,11.272,9.916,5.686
47,0.892,35.85,28.296,29.44,24.11,11.069,9.713,5.646
48,0.892,36.03,28.327,29.459,24.12,11.148,9.752,5.727
49,0.889,36.137,28.273,29.507,24.11,11.23,9.712,5.687
50,0.859,36.177,28.249,29.431,24.106,10.987,9.508,5.605
51,0.892,36.263,28.335,29.449,24.113,11.187,9.628,5.686
52,0.866,36.37,28.289,29.459,24.11,11.189,9.385,5.727
53,0.879,36.486,28.206,29.468,24.113,11.23,9.342,5.687
54,0.889,36.516,28.252,29.44,24.106,11.149,9.301,5.727
55,0.882,37.015,28.264,29.459,24.11,11.271,9.26,5.727
56,0.879,37.116,28.304,29.421,24.106,11.15,9.137,5.646
57,0.905,37.232,28.347,29.458,24.11,11.271,9.258,5.727
58,0.899,37.242,28.281,29.468,24.117,11.272,9.341,5.809
59,0.879,35.574,28.249,29.411,24.106,11.109,9.097,5.566
60,0.898,35.749,28.268,29.449,24.113,11.189,9.258,5.685
61,0.912,35.837,28.3,29.449,24.11,11.189,9.097,5.687
62,0.879,36.087,28.269,29.449,24.103,11.189,9.176,5.687
63,0.902,36.243,28.241,29.43,24.106,11.108,9.096,5.646
64,0.902,36.398,28.256,29.449,24.113,11.23,9.176,5.686
65,0.886,36.457,28.3,29.44,24.103,11.068,9.055,5.646
66,0.889,36.094,28.331,29.439,24.106,11.107,9.095,5.767
67,0.905,36.138,28.332,29.459,24.124,11.148,9.176,5.809
68,0.866,36.225,28.265,29.421,24.103,10.986,8.893,5.647
69,0.898,36.341,28.268,29.458,24.106,11.025,8.971,5.767
70,0.876,36.083,28.315,29.43,24.106,11.025,8.931,5.728
71,0.869,36.215,28.238,29.459,24.113,11.066,8.931,5.687
72,0.866,36.34,28.249,29.43,24.11,11.026,8.809,5.727
73,0.862,36.438,28.264,29.459,24.12,11.107,8.848,5.768
74,0.872,35.978,28.3,29.43,24.103,11.026,8.686,5.687
75,0.879,36.127,28.32,29.449,24.106,11.066,8.766,5.687
76,0.898,36.282,28.316,29.468,24.12,11.107,8.889,5.809
77,0.876,36.274,28.226,29.421,24.099,10.904,8.687,5.688
78,0.895,35.958,28.237,29.439,24.106,10.943,8.766,5.727
79,0.895,36.098,28.272,29.439,24.106,10.943,8.685,5.727
80,0.899,36.234,28.272,29.459,24.11,11.024,8.644,5.727
81,0.895,36.283,28.245,29.421,24.106,10.944,8.562,5.646
82,0.918,36.034,28.245,29.449,24.113,11.146,8.643,5.767
83,0.902,36.166,28.292,29.44,24.113,11.271,8.481,5.687
84,0.905,36.273,28.3,29.42,24.099,11.394,8.479,5.687
85,0.895,36.332,28.273,29.487,24.127,11.68,8.764,5.89
86,0.886,36.016,28.222,29.44,24.113,11.723,8.726,5.689
87,0.889,36.156,28.26,29.449,24.11,12.049,9.01,5.768
88,0.872,36.254,28.249,29.44,24.113,12.296,9.298,5.687
89,0.859,36.264,28.292,29.439,24.113,12.705,9.829,5.727
90,0.872,36.044,28.241,29.43,24.106,12.953,10.16,5.605
91,0.898,36.205,28.253,29.449,24.12,13.321,10.732,5.808
92,0.863,36.302,28.284,29.44,24.11,13.447,11.144,5.769
93,0.843,36.14,28.3,29.43,24.103,13.57,11.352,5.606
94,0.862,36.148,28.257,29.487,24.117,13.938,11.882,5.808
95,0.875,36.254,28.194,29.45,24.11,13.982,11.969,5.688
96,0.866,36.36,28.24,29.507,24.113,14.063,12.214,5.687
97,0.872,35.91,28.225,29.431,24.11,14.064,12.298,5.687
98,0.889,36.011,28.288,29.459,24.11,14.064,12.421,5.727
99,0.872,36.099,28.261,29.421,24.103,14.024,12.381,5.687
100,0.876,36.215,28.257,29.458,24.11,14.064,12.421,5.809
101,0.879,36.053,28.28,29.459,24.12,14.024,12.462,5.81
102,0.872,36.147,28.3,29.421,24.103,13.82,12.3,5.566
103,0.879,36.321,28.249,29.458,24.113,13.777,12.258,5.726
104,0.882,36.399,28.253,29.44,24.106,13.655,12.176,5.727
105,0.872,35.959,28.249,29.449,24.113,13.572,12.094,5.727
106,0.853,36.089,28.253,29.449,24.103,13.409,11.93,5.687
107,0.853,36.205,28.276,29.468,24.11,13.367,11.888,5.727
108,0.849,36.245,28.304,29.421,24.11,13.163,11.644,5.646
109,0.853,35.967,28.265,29.43,24.113,13.08,11.601,5.686
110,0.872,36.146,28.245,29.478,24.12,13.16,11.682,5.809
111,0.859,36.196,28.284,29.411,24.106,12.917,11.357,5.688
112,0.823,36.283,28.273,29.439,24.11,12.915,11.191,5.727
113,0.836,35.986,28.265,29.459,24.106,13.077,11.149,5.727
114,0.836,36.118,28.237,29.459,24.106,13.201,11.067,5.727
115,0.83,36.224,28.264,29.421,24.106,13.446,10.822,5.727
116,0.852,36.264,28.304,29.43,24.113,13.733,10.82,5.768
117,0.859,35.996,28.304,29.439,24.113,13.695,10.576,5.647
118,0.84,36.099,28.261,29.411,24.106,13.735,10.37,5.686
119,0.865,36.243,28.253,29.458,24.117,13.939,10.449,5.768
120,0.859,36.446,28.28,29.43,24.113,13.941,10.247,5.647
121,0.853,36.007,28.276,29.43,24.113,13.941,10.204,5.727
122,0.84,36.118,28.222,29.43,24.113,13.819,10.082,5.646
123,0.869,36.253,28.256,29.43,24.113,13.818,10.121,5.727
124,0.859,35.938,28.28,29.42,24.106,13.615,9.919,5.646
125,0.859,35.993,28.319,29.43,24.106,13.572,9.916,5.767
126,0.856,36.127,28.324,29.468,24.12,13.531,9.916,5.85
127,0.836,36.177,28.265,29.401,24.099,13.164,9.591,5.607
128,0.836,35.976,28.233,29.41,24.11,13.12,9.669,5.686
129,0.846,36.05,28.249,29.439,24.11,12.998,9.467,5.605
130,0.846,36.185,28.303,29.439,24.11,12.915,9.465,5.726
131,0.836,36.263,28.214,29.42,24.099,12.915,9.302,5.605
132,0.826,35.842,28.26,29.43,24.11,12.955,9.341,5.767
133,0.839,35.934,28.268,29.401,24.099,12.915,9.26,5.647
134,0.81,36.069,28.327,29.42,24.106,12.955,9.137,5.686
135,0.836,36.176,28.343,29.468,24.113,13.037,9.258,5.89
136,0.83,35.966,28.269,29.411,24.103,12.875,8.975,5.729
137,0.833,36.117,28.194,29.439,24.099,12.873,8.972,5.687
138,0.849,36.244,28.221,29.411,24.103,12.792,8.891,5.646
139,0.833,36.283,28.284,29.43,24.106,12.791,8.849,5.727
140,0.836,35.938,28.249,29.411,24.092,12.629,8.808,5.646
141,0.846,36.098,28.253,29.43,24.117,12.749,8.93,5.767
142,0.853,36.205,28.249,29.42,24.103,12.669,9.012,5.728
143,0.849,36.245,28.296,29.411,24.096,12.627,9.094,5.646
144,0.853,35.967,28.304,29.458,24.123,12.79,9.583,5.767
145,0.833,36.07,28.249,29.43,24.106,12.873,9.669,5.728
146,0.839,36.186,28.202,29.439,24.099,12.995,9.995,5.768
147,0.826,36.225,28.252,29.439,24.11,13.2,10.202,5.728
148,0.82,35.9,28.237,29.42,24.106,13.446,10.57,5.768
149,0.813,36.021,28.295,29.411,24.099,13.53,10.655,5.647
150,0.81,36.156,28.253,29.487,24.113,13.734,10.981,5.686
151,0.813,36.119,28.241,29.43,24.113,13.898,11.066,5.687
152,0.82,36.023,28.256,29.411,24.099,13.941,11.188,5.646
153,0.82,36.195,28.3,29.458,24.12,14.226,11.434,5.767
154,0.813,36.244,28.222,29.43,24.106,14.473,11.314,5.687
155,0.81,35.938,28.143,29.439,24.113,14.719,11.394,5.727
156,0.823,35.993,28.22,29.43,24.106,14.965,11.354,5.646
157,0.826,36.137,28.264,29.43,24.106,15.252,11.354,5.767
158,0.826,36.215,28.296,29.42,24.106,15.418,11.354,5.647
159,0.823,35.938,28.253,29.439,24.099,15.623,11.354,5.767
160,0.839,36.05,28.253,29.439,24.106,15.706,11.354,5.809
161,0.82,36.147,28.264,29.392,24.096,15.585,11.069,5.566
162,0.833,36.254,28.335,29.429,24.106,15.706,11.107,5.685
163,0.852,35.938,28.238,29.411,24.099,15.666,10.985,5.687
164,0.846,36.079,28.229,29.487,24.103,15.544,10.944,5.727
165,0.827,36.195,28.233,29.421,24.096,15.421,10.821,5.646
166,0.833,36.273,28.26,29.439,24.099,15.338,10.739,5.686
167,0.813,35.958,28.284,29.401,24.103,15.175,10.575,5.646
168,0.816,36.117,28.304,29.43,24.106,15.173,10.614,5.808
169,0.823,36.253,28.284,29.449,24.113,15.092,10.655,5.81
170,0.804,36.274,28.233,29.411,24.092,14.806,10.371,5.647
171,0.82,36.015,28.307,29.43,24.103,14.722,10.328,5.686
172,0.8,36.147,28.253,29.43,24.103,14.599,10.246,5.687
173,0.82,36.282,28.253,29.43,24.11,14.314,10.204,5.809
174,0.8,36.293,28.229,29.411,24.099,14.148,10.041,5.688
175,0.807,36.025,28.256,29.43,24.106,14.065,10.121,5.687
176,0.813,36.128,28.276,29.411,24.103,13.739,9.919,5.687
177,0.82,36.253,28.315,29.411,24.106,13.573,9.916,5.687
178,0.826,36.283,28.253,29.468,24.117,13.531,9.998,5.849
179,0.83,36.006,28.237,29.411,24.092,13.164,9.714,5.688
180,0.826,36.147,28.284,29.439,24.103,12.998,9.752,5.727
181,0.833,36.263,28.261,29.42,24.11,12.793,9.63,5.687
182,0.833,36.101,28.233,29.42,24.106,12.629,9.629,5.727
183,0.817,36.061,28.233,29.411,24.106,12.424,9.507,5.605
184,0.842,36.214,28.28,29.449,24.113,12.462,9.506,5.686
185,0.817,36.273,28.284,29.42,24.11,12.341,9.343,5.646
186,0.803,35.948,28.292,29.411,24.103,12.258,9.179,5.564
187,0.829,36.088,28.296,29.458,24.12,12.379,9.421,5.726
188,0.797,36.176,28.238,29.411,24.11,12.218,9.18,5.687
189,0.8,36.283,28.237,29.43,24.113,12.216,9.137,5.687
190,0.803,37.588,28.284,29.411,24.113,12.216,9.055,5.646
191,0.79,37.754,28.241,29.411,24.113,12.298,9.095,5.686
192,0.806,37.842,28.225,29.42,24.11,12.298,8.973,5.687
193,0.79,37.929,28.303,29.439,24.113,12.421,9.013,5.727
194,0.787,35.159,28.312,29.42,24.117,12.544,8.972,5.768
195,0.784,35.237,28.269,29.411,24.099,12.626,8.85,5.565
196,0.81,35.429,28.229,29.449,24.12,12.871,8.93,5.685
197,0.807,35.479,28.163,29.43,24.11,13.036,8.768,5.687
198,0.82,36.113,28.232,29.42,24.11,13.2,8.807,5.727
199,0.82,36.253,28.276,29.43,24.103,13.283,8.808,5.646
200,0.817,36.37,28.202,29.439,24.113,13.447,9.011,5.767
201,0.82,36.428,28.24,29.43,24.106,13.489,8.932,5.647
202,0.846,35.815,28.276,29.439,24.113,13.571,9.175,5.727
203,0.846,35.972,28.308,29.449,24.12,13.694,9.502,5.768
204,0.807,36.022,28.249,29.392,24.103,13.451,9.628,5.647
205,0.807,36.08,28.194,29.439,24.11,13.448,9.792,5.727
206,0.807,36.071,28.229,29.487,24.113,13.286,9.915,5.687
207,0.82,36.205,28.233,29.43,24.106,13.284,10.201,5.768
208,0.813,36.321,28.245,29.43,24.106,13.04,10.367,5.647
209,0.8,36.476,28.249,29.439,24.113,12.997,10.612,5.808
210,0.787,35.979,28.257,29.42,24.106,12.753,10.574,5.769
211,0.79,36.098,28.245,29.43,24.11,12.628,10.655,5.647
212,0.803,36.224,28.307,29.468,24.12,12.708,10.818,5.849
213,0.79,36.13,28.245,29.43,24.106,12.506,10.861,5.769
214,0.767,36.196,28.206,29.449,24.11,12.341,10.82,5.809
215,0.803,36.321,28.244,29.42,24.103,12.217,10.779,5.81
216,0.794,36.418,28.264,29.449,24.11,12.135,10.82,5.81
217,0.797,35.738,28.276,29.44,24.106,11.931,10.657,5.688
218,0.813,35.856,28.3,29.439,24.11,11.888,10.656,5.768
219,0.81,36.02,28.277,29.507,24.127,11.888,10.696,5.85
220,0.8,36.032,28.218,29.402,24.099,11.522,10.331,5.688
221,0.816,35.946,28.287,29.439,24.106,11.518,10.408,5.809
222,0.813,36.06,28.265,29.411,24.106,11.437,10.369,5.688
223,0.826,36.205,28.253,29.458,24.11,11.314,10.287,5.809
224,0.826,36.264,28.233,29.421,24.11,11.232,10.123,5.728
225,0.823,35.909,28.264,29.439,24.113,11.149,10.122,5.768
226,0.8,36.021,28.288,29.42,24.11,11.067,10.041,5.687
227,0.797,36.166,28.315,29.42,24.11,11.066,9.836,5.727
228,0.8,36.254,28.273,29.458,24.127,11.351,10.038,5.89
229,0.784,35.938,28.233,29.401,24.106,11.313,9.715,5.729
230,0.787,36.098,28.249,29.43,24.113,11.394,9.67,5.687
231,0.79,36.205,28.276,29.411,24.11,11.476,9.589,5.646
232,0.764,36.254,28.202,29.449,24.117,11.68,9.629,5.767
233,0.783,35.9,28.213,29.42,24.106,11.642,9.426,5.728
234,0.8,36.069,28.264,29.439,24.113,11.885,9.464,5.85
235,0.81,36.147,28.304,29.42,24.106,11.847,9.424,5.769
236,0.79,36.148,28.316,29.401,24.099,11.887,9.302,5.687
237,0.81,35.956,28.312,29.449,24.124,12.091,9.423,5.849
238,0.768,36.06,28.245,29.43,24.106,12.052,9.18,5.729
239,0.783,36.166,28.225,29.42,24.113,11.971,9.137,5.727
240,0.79,36.081,28.272,29.42,24.11,11.97,9.136,5.768
241,0.806,35.984,28.194,29.42,24.117,12.092,9.136,5.809
242,0.803,36.098,28.225,29.411,24.106,11.89,9.014,5.688
243,0.81,36.224,28.245,29.43,24.113,11.969,9.135,5.727
244,0.813,35.861,28.299,29.42,24.12,11.889,9.095,5.85
245,0.784,35.896,28.3,29.391,24.096,11.603,8.851,5.688
246,0.816,36.069,28.304,29.429,24.113,11.722,9.093,5.809
247,0.803,36.119,28.23,29.411,24.11,11.601,8.973,5.769
248,0.794,35.841,28.217,29.42,24.12,11.641,8.931,5.768
249,0.806,35.953,28.229,29.411,24.106,11.641,8.85,5.728
250,0.797,36.079,28.28,29.42,24.106,11.682,8.93,5.768
251,0.79,36.157,28.241,29.411,24.106,11.642,8.85,5.728
252,0.826,35.822,28.241,29.43,24.11,11.885,8.93,5.768
253,0.836,35.953,28.288,29.459,24.12,12.01,9.012,5.891
254,0.81,36.041,28.308,29.392,24.099,11.97,8.81,5.77
255,0.855,36.118,28.265,29.42,24.11,12.254,9.011,5.809
256,0.882,35.86,28.214,29.411,24.106,12.542,9.054,5.769
257,0.911,35.992,28.116,29.449,24.113,12.748,9.257,5.809
258,0.915,36.089,28.216,29.411,24.099,12.872,9.219,5.728
259,0.931,36.176,28.287,29.43,24.12,13.239,9.462,5.768
260,0.931,35.841,28.202,29.411,24.103,13.406,9.505,5.768
261,0.931,35.982,28.237,29.42,24.106,13.57,9.546,5.768
262,0.964,36.146,28.28,29.458,24.124,13.978,9.831,5.891
263,0.942,36.129,28.292,29.411,24.106,13.982,9.712,5.811
264,0.938,35.918,28.257,29.439,24.11,14.185,9.792,5.728
265,0.945,36.031,28.194,29.43,24.11,14.228,9.712,5.727
266,0.951,36.156,28.158,29.449,24.113,14.31,9.955,5.85
267,0.935,36.167,28.213,29.401,24.103,14.229,9.876,5.729
268,0.967,35.928,28.241,29.43,24.117,14.31,9.957,5.85
269,0.958,36.05,28.28,29.449,24.11,14.351,9.917,5.851
270,0.997,36.157,28.241,29.401,24.096,14.149,9.794,5.648
271,1.007,35.947,28.256,29.449,24.117,14.269,9.915,5.767
272,1.001,35.887,28.296,29.42,24.106,14.229,9.835,5.768
273,0.994,36.011,28.288,29.439,24.11,14.147,9.875,5.891
274,0.997,36.099,28.206,29.411,24.103,14.024,9.753,5.811
275,1.02,35.879,28.225,29.487,24.11,14.023,9.833,5.81
276,1.02,35.944,28.186,29.421,24.11,14.023,9.712,5.728
277,1.023,36.088,28.236,29.43,24.11,14.186,9.833,5.809
278,1.043,36.205,28.272,29.449,24.124,14.31,9.834,5.891
279,1.027,35.727,28.198,29.392,24.103,14.27,9.631,5.689
280,1.056,35.885,28.24,29.42,24.11,14.798,9.71,5.89
281,1.063,35.992,28.256,29.42,24.113,15.251,9.711,5.851
282,1.053,36.089,28.303,29.439,24.117,15.743,9.589,5.851
283,1.063,35.649,28.202,29.42,24.106,16.033,9.588,5.688
284,1.082,35.807,28.233,29.439,24.12,16.483,9.547,5.89
285,1.053,35.905,28.217,29.411,24.113,16.691,9.425,5.689
286,1.043,35.992,28.252,29.43,24.113,16.896,9.383,5.768
287,1.059,36.914,28.288,29.468,24.124,17.183,9.586,5.891
288,1.008,36.98,28.273,29.411,24.103,17.023,9.263,5.77
289,1.014,37.125,28.237,29.43,24.11,17.184,9.178,5.809
290,1.023,37.174,28.233,29.42,24.106,17.185,9.177,5.81
291,1.007,35.199,28.288,29.42,24.113,17.063,9.177,5.891
292,0.994,35.285,28.222,29.42,24.106,16.9,9.055,5.77
293,1.004,35.459,28.237,29.439,24.113,16.817,9.054,5.809
294,0.997,35.489,28.241,29.42,24.11,16.653,8.851,5.81
295,0.994,35.94,28.28,29.411,24.106,16.489,8.727,5.728
296,1.01,36.108,28.327,29.458,24.12,16.65,8.929,5.85
297,1.01,36.176,28.3,29.421,24.11,16.489,8.687,5.81
298,1.02,36.311,28.21,29.43,24.11,16.487,8.644,5.81
299,1.01,35.766,28.217,29.411,24.106,16.528,8.603,5.728
300,1.04,35.895,28.276,29.449,24.117,16.61,8.602,5.85
301,1.004,35.992,28.233,29.42,24.106,16.488,8.48,5.729
302,1.017,35.782,28.233,29.43,24.11,16.691,8.479,5.768
303,1.02,35.838,28.253,29.439,24.12,16.693,8.601,5.891
304,0.997,35.905,28.257,29.392,24.103,16.489,8.358,5.648
305,0.991,36.04,28.311,29.429,24.11,16.528,8.397,5.727
306,0.984,35.735,28.296,29.411,24.113,16.406,8.316,5.727
307,0.971,35.866,28.234,29.439,24.113,16.324,8.274,5.809
308,0.951,35.963,28.19,29.411,24.106,16.079,8.233,5.688
309,0.932,36.079,28.233,29.449,24.113,15.995,8.314,5.768
310,0.915,35.697,28.264,29.43,24.106,15.751,8.193,5.728
311,0.905,35.856,28.241,29.487,24.11,15.707,8.192,5.727
312,0.908,36.011,28.241,29.478,24.124,15.748,8.273,5.85
313,0.873,36.012,28.245,29.421,24.106,15.423,8.111,5.769
314,0.853,35.744,28.292,29.449,24.103,15.257,8.191,5.809
315,0.853,35.875,28.257,29.42,24.11,15.093,8.192,5.688
316,0.849,36.011,28.233,29.43,24.11,14.888,8.395,5.849
317,0.84,36.051,28.159,29.43,24.103,14.642,8.397,5.648
318,0.846,35.754,28.224,29.439,24.11,14.599,8.682,5.849
319,0.846,35.885,28.276,29.439,24.11,14.354,8.969,5.769
320,0.833,35.992,28.218,29.43,24.106,14.067,9.053,5.687
321,0.846,36.07,28.237,29.478,24.12,14.146,9.501,5.849
322,0.843,35.706,28.249,29.43,24.113,13.862,9.668,5.688
323,0.83,35.846,28.307,29.43,24.11,13.818,9.792,5.768
324,0.836,35.963,28.257,29.411,24.106,13.574,9.956,5.768
325,0.833,35.993,28.179,29.439,24.106,13.368,10.161,5.768
326,0.791,35.753,28.193,29.43,24.106,13.163,10.122,5.728
327,0.816,35.924,28.229,29.439,24.12,13.202,10.325,5.768
328,0.81,36.012,28.213,29.439,24.113,13.039,10.286,5.728
329,0.794,35.878,28.28,29.411,24.103,12.997,10.205,5.646
330,0.803,35.762,28.245,29.468,24.12,12.996,10.407,5.767
331,0.797,35.866,28.233,29.43,24.11,12.915,10.369,5.728
332,0.781,35.973,28.256,29.439,24.113,12.955,10.328,5.809
333,0.774,35.744,28.241,29.411,24.11,12.956,10.205,5.688
334,0.78,35.828,28.182,29.449,24.106,13.118,10.204,5.809
335,0.771,35.934,28.217,29.44,24.106,13.079,10.123,5.728
336,0.777,36.05,28.233,29.459,24.11,13.282,10.122,5.809
337,0.777,35.677,28.233,29.459,24.117,13.325,10.163,5.85
338,0.774,35.75,28.299,29.421,24.099,13.244,9.919,5.648
339,0.793,35.933,28.218,29.439,24.113,13.365,9.916,5.808
340,0.78,36.012,28.225,29.449,24.11,13.407,9.835,5.728
341,0.79,35.696,28.256,29.449,24.11,13.448,9.794,5.727
342,0.78,35.817,28.284,29.44,24.113,13.286,9.712,5.687
343,0.78,35.953,28.167,29.468,24.113,13.365,9.792,5.727
344,0.784,36.021,28.201,29.421,24.106,13.325,9.549,5.687
345,0.784,35.6,28.229,29.458,24.113,13.244,9.628,5.809
346,0.767,35.749,28.276,29.44,24.113,13.243,9.588,5.81
347,0.751,35.818,28.272,29.411,24.103,12.999,9.344,5.606
348,0.761,35.924,28.308,29.449,24.11,13.078,9.382,5.686
349,0.741,35.733,28.249,29.44,24.11,12.957,9.301,5.646
350,0.751,35.875,28.229,29.43,24.11,12.996,9.341,5.727
351,0.748,35.973,28.268,29.439,24.106,12.875,9.179,5.687
352,0.728,36.031,28.175,29.459,24.117,12.995,9.34,5.727
353,0.738,35.696,28.205,29.43,24.106,12.915,9.179,5.687
354,0.744,35.856,28.244,29.459,24.106,13.158,9.299,5.727
355,0.751,35.944,28.284,29.459,24.12,13.364,9.341,5.727
356,0.741,35.935,28.269,29.401,24.099,13.244,9.057,5.565
357,0.767,35.724,28.284,29.449,24.113,13.528,9.217,5.685
358,0.764,35.856,28.171,29.449,24.106,13.49,9.259,5.727
359,0.783,35.973,28.217,29.459,24.11,13.53,9.259,5.646
360,0.758,35.744,28.26,29.44,24.106,13.531,9.137,5.645
361,0.761,35.722,28.218,29.459,24.113,13.49,9.217,5.767
362,0.757,35.856,28.221,29.43,24.103,13.449,9.056,5.647
363,0.793,35.963,28.221,29.449,24.113,13.489,9.135,5.686
364,0.8,35.571,28.291,29.468,24.117,13.49,9.258,5.849
365,0.784,35.596,28.288,29.421,24.099,13.205,9.015,5.648
366,0.793,35.759,28.257,29.439,24.113,13.202,9.054,5.686
367,0.8,35.857,28.19,29.43,24.11,13.08,8.973,5.646
368,0.8,35.742,28.201,29.459,24.11,12.997,9.013,5.686
369,0.823,35.837,28.233,29.421,24.106,12.793,8.932,5.605
370,0.836,35.992,28.253,29.449,24.12,12.791,9.012,5.726
371,0.849,36.051,28.218,29.449,24.11,12.588,8.85,5.687
372,0.872,35.6,28.233,29.459,24.103,12.383,8.889,5.646
373,0.895,35.759,28.311,29.488,24.12,12.462,9.012,5.767
374,0.879,35.857,28.285,29.43,24.106,12.138,8.85,5.687
375,0.905,35.925,28.269,29.459,24.113,12.053,8.808,5.605
376,0.925,35.599,28.171,29.44,24.113,12.093,8.767,5.645
377,0.961,35.778,28.205,29.468,24.117,12.215,8.767,5.686
378,0.997,35.866,28.186,29.44,24.106,12.46,8.726,5.646
379,1.039,35.934,28.252,29.468,24.11,12.991,8.807,5.727
380,1.066,35.657,28.186,29.44,24.106,13.403,8.645,5.646
381,1.115,35.788,28.205,29.449,24.11,13.936,8.644,5.564
382,1.161,35.934,28.272,29.478,24.127,14.551,8.806,5.807
383,1.158,35.916,28.265,29.421,24.103,14.638,8.604,5.606
384,1.171,35.599,28.214,29.449,24.106,15.046,8.684,5.604
385,1.168,35.759,28.131,29.449,24.106,15.213,8.603,5.645
386,1.194,35.876,28.212,29.459,24.11,15.539,8.643,5.686
387,1.201,36.021,28.233,29.43,24.099,15.502,8.521,5.646
388,1.194,35.667,28.241,29.468,24.113,15.583,8.642,5.727
389,1.149,35.769,28.237,29.459,24.106,15.828,8.562,5.687
390,1.129,35.876,28.225,29.44,24.106,15.83,8.48,5.687
391,1.171,35.733,28.268,29.487,24.124,16.155,8.642,5.768
392,1.142,35.722,28.276,29.459,24.106,16.118,8.521,5.687
393,1.132,35.885,28.202,29.459,24.113,16.077,8.439,5.727
394,1.142,35.992,28.229,29.488,24.11,16.077,8.357,5.727
395,1.158,35.552,28.213,29.469,24.117,15.995,8.437,5.727
396,1.145,35.643,28.225,29.449,24.106,15.832,8.316,5.646
397,1.135,35.807,28.264,29.468,24.11,15.83,8.396,5.727
398,1.112,35.867,28.3,29.469,24.11,15.627,8.397,5.768
399,1.128,35.618,28.241,29.44,24.106,15.462,8.275,5.687
400,1.148,35.798,28.237,29.497,24.124,15.501,8.518,5.849
401,1.113,35.876,28.28,29.45,24.113,15.217,8.398,5.769
402,1.05,35.954,28.226,29.459,24.11,15.011,8.438,5.728
403,0.985,35.513,28.209,29.459,24.113,14.846,8.357,5.646
404,0.965,35.672,28.217,29.468,24.11,14.682,8.397,5.727
405,0.899,35.779,28.252,29.43,24.099,14.355,8.316,5.646
406,0.827,35.857,28.303,29.468,24.113,14.271,8.315,5.808
407,0.826,35.742,28.312,29.478,24.12,14.188,8.437,5.81
408,0.761,35.808,28.148,29.411,24.099,13.903,8.153,5.566
409,0.731,35.982,28.213,29.458,24.11,13.778,8.273,5.766
410,0.679,36.012,28.256,29.449,24.113,13.655,8.274,5.728
411,0.652,35.61,28.222,29.44,24.11,13.532,8.274,5.768
412,0.594,35.749,28.233,29.449,24.11,13.327,8.233,5.728
413,0.574,35.885,28.225,29.449,24.117,13.203,8.314,5.85
414,0.534,35.858,28.252,29.449,24.11,12.958,8.234,5.648
415,0.514,35.647,28.272,29.459,24.11,12.956,8.273,5.727
416,0.504,35.807,28.288,29.488,24.127,13.078,8.355,5.89
417,0.472,35.886,28.245,29.44,24.11,12.957,8.275,5.689
418,0.462,35.781,28.19,29.439,24.11,12.833,8.274,5.727
419,0.4,35.627,28.221,29.459,24.11,12.71,8.274,5.646
420,0.354,35.759,28.276,29.459,24.113,12.668,8.314,5.767
421,0.298,35.837,28.218,29.468,24.106,12.546,8.193,5.647
422,0.291,35.531,28.217,29.469,24.11,12.626,8.314,5.767
423,0.252,35.586,28.237,29.469,24.113,12.586,8.356,5.768
424,0.225,35.701,28.26,29.411,24.099,12.423,8.153,5.606
425,0.222,35.837,28.261,29.468,24.113,12.544,8.313,5.848
426,0.245,35.608,28.19,29.469,24.106,12.545,8.315,5.769
427,0.281,35.74,28.135,29.459,24.113,12.545,8.315,5.85
428,0.313,35.875,28.205,29.459,24.103,12.626,8.396,5.729
429,0.343,35.954,28.26,29.468,24.113,12.871,8.438,5.768
430,0.347,35.552,28.198,29.43,24.099,12.914,8.397,5.647
431,0.373,35.739,28.233,29.468,24.113,13.118,8.478,5.767
432,0.392,35.856,28.237,29.488,24.117,13.404,8.601,5.809
433,0.363,35.886,28.253,29.44,24.103,13.326,8.399,5.688
434,0.405,35.589,28.253,29.459,24.106,13.528,8.56,5.768
435,0.432,35.721,28.171,29.468,24.11,13.531,8.561,5.768
436,0.458,35.856,28.162,29.469,24.11,13.693,8.602,5.768
437,0.478,35.886,28.213,29.449,24.099,13.613,8.643,5.728
438,0.511,35.628,28.241,29.478,24.117,13.694,8.765,5.809
439,0.537,35.721,28.256,29.45,24.103,13.613,8.685,5.728
440,0.563,35.894,28.253,29.478,24.117,13.653,8.807,5.89
441,0.596,35.935,28.229,29.488,24.117,13.572,8.848,5.892
442,0.606,35.628,28.264,29.43,24.103,13.246,8.686,5.689
443,0.658,35.798,28.265,29.459,24.113,13.243,8.725,5.849
444,0.682,35.895,28.171,29.459,24.11,13.121,8.726,5.81
445,0.698,35.925,28.205,29.478,24.106,13.16,8.766,5.81
446,0.692,35.542,28.19,29.469,24.106,12.917,8.767,5.81
447,0.708,35.682,28.233,29.478,24.113,12.874,8.767,5.891
448,0.724,35.769,28.249,29.45,24.106,12.67,8.685,5.892
449,0.724,35.703,28.21,29.478,24.11,12.587,8.684,5.851
450,0.734,35.77,28.233,29.517,24.124,12.789,8.928,5.973
451,0.734,35.837,28.237,29.45,24.106,12.588,8.687,5.852
452,0.751,35.934,28.264,29.488,24.113,12.627,8.725,5.851
453,0.744,35.456,28.202,29.478,24.103,12.546,8.726,5.851
454,0.757,35.547,28.213,29.507,24.11,12.626,8.766,5.932
455,0.761,35.691,28.202,29.479,24.096,12.505,8.726,5.892
456,0.77,35.779,28.225,29.497,24.117,12.544,8.766,5.933
457,0.77,35.483,28.249,29.488,24.106,12.504,8.685,5.933
458,0.79,35.614,28.303,29.45,24.103,12.463,8.644,5.811
459,0.793,35.798,28.265,29.583,24.12,12.585,8.765,5.972
460,0.793,35.828,28.218,29.489,24.106,12.301,8.604,5.893
461,0.79,36.509,28.287,29.488,24.113,12.258,8.643,5.933
462,0.777,36.612,28.241,29.478,24.11,12.135,8.562,5.852
463,0.784,36.747,28.206,29.497,24.113,12.053,8.521,5.932
464,0.793,36.806,28.194,29.478,24.106,11.849,8.398,5.892
465,0.8,35.033,28.252,29.488,24.113,11.806,8.519,5.973
466,0.781,35.168,28.264,29.498,24.113,11.684,8.52,5.974
467,0.78,35.247,28.261,29.469,24.096,11.357,8.276,5.811
468,0.784,35.343,28.214,29.497,24.12,11.354,8.396,5.972
469,0.777,35.737,28.217,29.478,24.106,11.11,8.275,5.893
470,0.774,35.866,28.237,29.488,24.11,11.148,8.314,5.892
471,0.764,35.963,28.237,29.488,24.103,10.986,8.234,5.892
472,0.757,36.031,28.214,29.517,24.12,10.984,8.273,5.973
473,0.764,35.658,28.182,29.488,24.11,10.822,8.152,5.893
474,0.783,35.807,28.225,29.498,24.11,10.82,8.11,5.892
475,0.777,35.943,28.311,29.545,24.127,10.942,8.313,6.095
476,0.764,35.993,28.296,29.479,24.103,10.74,8.071,5.894
477,0.78,35.418,28.257,29.497,24.117,10.9,8.069,5.933
478,0.777,35.575,28.194,29.498,24.113,10.861,8.028,5.933
479,0.787,35.701,28.197,29.507,24.106,11.024,8.027,5.974
480,0.8,35.54,28.252,29.488,24.106,11.107,7.946,5.852
481,0.781,35.624,28.132,29.526,24.113,11.311,8.189,5.932
482,0.797,35.75,28.201,29.488,24.11,11.353,8.232,5.811
483,0.8,35.837,28.225,29.488,24.099,11.435,8.395,5.85
484,0.813,35.512,28.28,29.526,24.124,11.599,8.885,6.054
485,0.781,35.538,28.237,29.498,24.106,11.6,9.012,5.893
486,0.81,35.691,28.221,29.517,24.11,11.682,9.298,5.892
487,0.807,35.779,28.163,29.517,24.11,11.764,9.544,5.811
488,0.781,35.54,28.213,29.507,24.11,11.927,9.831,5.891
489,0.777,35.643,28.237,29.498,24.106,11.929,9.916,5.892
490,0.81,35.798,28.221,29.536,24.11,12.132,10.161,5.933
491,0.777,35.866,28.213,29.527,24.113,12.053,10.326,5.892
492,0.787,35.589,28.202,29.498,24.103,11.93,10.368,5.811
493,0.79,35.759,28.28,29.536,24.12,12.051,10.653,5.932
494,0.774,35.857,28.241,29.527,24.106,11.93,10.534,5.852
495,0.787,35.915,28.206,29.527,24.103,11.888,10.655,5.81
496,0.784,35.494,28.131,29.527,24.106,11.766,10.615,5.81
497,0.79,35.643,28.201,29.527,24.113,11.764,10.737,5.891
498,0.797,35.759,28.19,29.517,24.11,11.561,10.657,5.811
499,0.8,35.818,28.268,29.527,24.11,11.64,10.656,5.85
500,0.803,35.502,28.241,29.555,24.12,11.641,10.737,5.932
501,0.803,35.605,28.19,29.508,24.103,11.397,10.535,5.77
502,0.829,35.711,28.256,29.507,24.11,11.476,10.573,5.891
503,0.813,35.76,28.241,29.507,24.11,11.355,10.492,5.77
504,0.81,35.636,28.163,29.517,24.11,11.354,10.532,5.768
505,0.816,35.759,28.17,29.555,24.106,11.273,10.41,5.728
506,0.813,35.876,28.213,29.517,24.11,11.475,10.45,5.89
507,0.79,35.781,28.217,29.517,24.11,11.518,10.369,5.811
508,0.79,35.617,28.256,29.507,24.099,11.559,10.287,5.688
509,0.803,35.798,28.229,29.565,24.12,11.966,10.408,5.931
510,0.787,35.866,28.198,29.498,24.103,11.807,10.165,5.811
511,0.793,35.445,28.221,29.507,24.113,11.968,10.204,5.769
512,0.787,35.518,28.252,29.507,24.103,11.97,10.041,5.809
513,0.767,35.653,28.202,29.526,24.12,12.092,10.04,5.85
514,0.793,35.712,28.205,29.507,24.103,12.093,9.918,5.769
515,0.803,35.444,28.201,29.526,24.113,12.134,9.876,5.809
516,0.79,35.566,28.217,29.527,24.12,12.134,9.794,5.85
517,0.793,35.644,28.252,29.469,24.099,11.931,9.671,5.648
518,0.81,35.769,28.249,29.526,24.106,11.97,9.629,5.808
519,0.807,35.617,28.241,29.527,24.106,11.889,9.548,5.769
520,0.82,35.75,28.21,29.527,24.11,11.847,9.547,5.768
521,0.813,35.866,28.26,29.498,24.106,11.725,9.384,5.728
522,0.803,35.944,28.202,29.517,24.113,11.764,9.382,5.727
523,0.813,35.436,28.201,29.507,24.106,11.561,9.261,5.646
524,0.816,35.594,28.209,29.526,24.12,11.519,9.341,5.727
525,0.82,35.73,28.256,29.527,24.12,11.559,9.342,5.809
526,0.787,35.732,28.241,29.479,24.099,11.275,9.097,5.647
527,0.797,35.54,28.26,29.497,24.11,11.272,9.095,5.767
528,0.787,35.662,28.237,29.498,24.11,11.069,8.973,5.647
529,0.793,35.798,28.206,29.526,24.113,11.066,8.972,5.686
530,0.79,35.799,28.248,29.507,24.106,10.904,8.85,5.646
531,0.797,35.416,28.253,29.517,24.12,10.902,8.93,5.767
532,0.784,35.546,28.182,29.498,24.106,10.821,8.768,5.647
533,0.784,35.682,28.209,29.517,24.103,10.698,8.767,5.727
534,0.79,35.731,28.248,29.565,24.12,10.9,8.889,5.89
535,0.774,35.54,28.268,29.489,24.103,10.699,8.687,5.689
536,0.793,35.701,28.28,29.498,24.106,10.819,8.766,5.727
537,0.797,35.779,28.276,29.517,24.106,11.023,8.685,5.687
538,0.807,35.588,28.151,29.517,24.113,11.107,8.725,5.768
539,0.807,35.548,28.197,29.498,24.106,11.189,8.644,5.647
540,0.82,35.701,28.26,29.507,24.113,11.434,8.765,5.767
541,0.797,35.798,28.214,29.507,24.11,11.558,8.767,5.728
542,0.813,35.406,28.205,29.498,24.106,11.6,8.726,5.646
543,0.833,35.546,28.233,29.545,24.12,12.007,8.97,5.808
544,0.81,35.634,28.28,29.517,24.11,12.052,8.931,5.688
545,0.807,35.731,28.288,29.527,24.113,12.093,8.972,5.687
546,0.8,35.511,28.249,29.527,24.11,12.134,9.094,5.646
547,0.813,35.633,28.182,29.527,24.11,12.297,9.258,5.767
548,0.797,35.769,28.19,29.507,24.099,12.258,9.341,5.647
549,0.8,35.866,28.225,29.517,24.113,12.298,9.545,5.686
550,0.797,35.436,28.252,29.555,24.113,12.421,9.831,5.768
551,0.787,35.537,28.241,29.517,24.099,12.3,9.794,5.565
552,0.81,35.71,28.221,29.546,24.12,12.421,9.996,5.685
553,0.803,35.751,28.256,29.517,24.11,12.3,10.121,5.646
554,0.797,35.473,28.268,29.536,24.113,12.339,10.244,5.727
555,0.807,35.566,28.237,29.527,24.103,12.258,10.326,5.646
556,0.813,35.711,28.178,29.536,24.113,12.217,10.449,5.686
557,0.787,35.741,28.193,29.536,24.106,12.094,10.328,5.605
558,0.819,35.502,28.194,29.546,24.11,12.052,10.408,5.686
559,0.833,35.653,28.268,29.565,24.117,12.052,10.531,5.768
560,0.817,35.702,28.183,29.517,24.103,11.686,10.248,5.606
561,0.833,35.789,28.217,29.536,24.11,11.723,10.367,5.686
562,0.856,35.483,28.237,29.527,24.113,11.561,10.246,5.687
563,0.846,35.633,28.272,29.546,24.11,11.519,10.286,5.687
564,0.84,35.721,28.245,29.527,24.106,11.396,10.083,5.646
565,0.839,35.894,28.151,29.555,24.11,11.232,10.121,5.727
566,0.836,35.57,28.068,29.546,24.106,11.109,9.959,5.605
567,0.839,35.72,28.196,29.546,24.11,11.026,9.957,5.604
568,0.836,35.847,28.217,29.594,24.124,11.107,10.039,5.808
569,0.804,35.435,28.256,29.518,24.103,11.067,9.755,5.606
570,0.82,35.489,28.225,29.555,24.11,11.229,9.712,5.645
571,0.823,35.605,28.206,29.546,24.106,11.353,9.63,5.645
572,0.817,35.721,28.264,29.565,24.11,11.598,9.629,5.686
573,0.807,36.412,28.245,29.565,24.106,11.763,9.507,5.646
574,0.813,36.582,28.155,29.575,24.113,12.049,9.546,5.686
575,0.826,36.67,28.201,29.613,24.113,12.296,9.425,5.687
576,0.82,36.738,28.205,29.547,24.103,12.339,9.302,5.564
577,0.839,34.754,28.244,29.594,24.124,12.624,9.382,5.766
578,0.843,34.83,28.257,29.546,24.11,12.627,9.22,5.647
579,0.836,34.984,28.229,29.565,24.113,12.79,9.137,5.686
580,0.843,35.062,28.198,29.565,24.106,12.791,9.095,5.646
581,0.846,35.495,28.244,29.575,24.11,12.913,9.014,5.686
582,0.833,35.624,28.249,29.546,24.106,12.874,8.932,5.564
583,0.852,35.788,28.151,29.565,24.117,13.036,8.972,5.726
584,0.856,35.838,28.189,29.565,24.11,13.119,8.85,5.646
585,0.843,35.292,28.201,29.527,24.096,13.16,8.686,5.442
586,0.862,35.468,28.229,29.603,24.12,13.405,8.766,5.725
587,0.849,35.556,28.272,29.566,24.106,13.489,8.604,5.646
588,0.836,35.586,28.296,29.575,24.11,13.571,8.643,5.645
589,0.836,35.356,28.23,29.565,24.11,13.571,8.481,5.645
590,0.839,35.507,28.237,29.585,24.106,13.775,8.479,5.686
591,0.833,35.595,28.253,29.556,24.099,13.858,8.357,5.524
592,0.82,35.634,28.186,29.575,24.11,14.184,8.437,5.685
593,0.833,35.462,28.186,29.594,24.12,14.472,8.479,5.727
594,0.813,35.547,28.193,29.546,24.092,14.597,8.276,5.484
595,0.836,35.701,28.24,29.584,24.11,15.086,8.396,5.684
596,0.836,35.626,28.276,29.575,24.11,15.376,8.316,5.605
597,0.839,35.558,28.276,29.575,24.106,15.623,8.274,5.645
598,0.843,35.682,28.175,29.585,24.099,15.788,8.193,5.564
599,0.853,35.789,28.221,29.594,24.106,15.992,8.354,5.645
600,0.849,35.397,28.241,29.566,24.103,15.954,8.193,5.605
601,0.859,35.488,28.19,29.604,24.113,16.076,8.273,5.645
602,0.869,35.643,28.233,29.614,24.127,16.239,8.314,5.727
603,0.856,35.683,28.213,29.566,24.099,15.956,8.112,5.605
604,0.853,35.309,28.272,29.594,24.106,15.953,8.15,5.604
605,0.853,35.43,28.253,29.585,24.106,15.831,8.11,5.645
606,0.853,35.566,28.233,29.604,24.117,15.627,8.15,5.645
607,0.84,35.624,28.194,29.575,24.099,15.381,8.069,5.605
608,0.839,35.376,28.186,29.604,24.113,15.256,8.109,5.645
609,0.843,35.479,28.213,29.575,24.106,14.93,8.069,5.564
610,0.849,35.614,28.237,29.585,24.099,14.683,8.028,5.563
611,0.856,35.74,28.225,29.633,24.12,14.64,8.231,5.726
612,0.849,35.454,28.194,29.604,24.106,14.233,8.029,5.646
613,0.849,35.594,28.264,29.585,24.106,14.025,8.068,5.645
614,0.84,35.721,28.28,29.604,24.099,13.82,8.028,5.605
615,0.849,35.77,28.222,29.623,24.11,13.655,7.987,5.645
616,0.853,35.387,28.143,29.595,24.106,13.288,8.027,5.564
617,0.856,35.546,28.177,29.642,24.113,13.162,7.987,5.604
618,0.856,35.672,28.189,29.624,24.11,12.917,8.068,5.686
619,0.856,35.664,28.24,29.576,24.096,12.508,7.824,5.524
620,0.875,35.472,28.186,29.613,24.12,12.585,7.985,5.685
621,0.866,35.623,28.209,29.614,24.106,12.342,7.986,5.605
622,0.872,35.73,28.248,29.604,24.11,12.217,7.946,5.645
623,0.853,35.722,28.288,29.604,24.106,12.094,7.864,5.564
624,0.872,35.549,28.21,29.604,24.106,12.052,7.904,5.645
625,0.85,35.653,28.135,29.595,24.103,11.889,7.904,5.564
626,0.856,35.798,28.193,29.623,24.117,11.969,7.904,5.563
627,0.843,35.713,28.209,29.623,24.12,12.011,8.026,5.726
628,0.826,35.645,28.252,29.585,24.099,11.808,7.743,5.484
629,0.846,35.807,28.276,29.604,24.106,11.806,7.862,5.603
630,0.84,35.905,28.249,29.614,24.103,11.724,7.822,5.645
631,0.843,35.628,28.26,29.604,24.106,11.723,7.822,5.645
632,0.83,35.721,28.304,29.614,24.099,11.642,7.822,5.564
633,0.843,35.856,28.288,29.623,24.113,11.763,7.863,5.645
634,0.82,35.925,28.183,29.604,24.106,11.642,7.7,5.605
635,0.839,35.628,28.256,29.633,24.113,11.763,7.74,5.604
636,0.852,35.769,28.272,29.643,24.12,11.968,7.903,5.686
637,0.83,35.837,28.257,29.595,24.099,11.889,7.701,5.483
638,0.852,35.934,28.3,29.623,24.113,12.05,7.78,5.603
639,0.853,35.753,28.257,29.614,24.103,12.052,7.618,5.564
640,0.853,35.924,28.237,29.642,24.11,12.174,7.698,5.645
641,0.843,36.031,28.276,29.624,24.099,12.256,7.658,5.564
642,0.846,36.089,28.308,29.633,24.113,12.501,7.861,5.563
643,0.846,35.735,28.203,29.624,24.106,12.382,7.782,5.482
644,0.866,35.875,28.272,29.623,24.11,12.381,7.74,5.44
645,0.869,36.03,28.292,29.671,24.117,12.625,7.984,5.643
646,0.84,36.041,28.308,29.614,24.11,12.464,7.905,5.564
647,0.836,35.936,28.316,29.623,24.106,12.544,7.945,5.604
648,0.833,36.05,28.335,29.623,24.106,12.464,7.905,5.482
649,0.83,36.176,28.285,29.643,24.113,12.544,7.985,5.562
650,0.82,36.206,28.269,29.643,24.099,12.504,7.946,5.563
651,0.83,35.871,28.335,29.652,24.113,12.585,8.067,5.604
652,0.807,35.982,28.296,29.652,24.11,12.423,8.028,5.645
653,0.813,36.079,28.273,29.643,24.103,12.259,7.987,5.442
654,0.813,36.301,28.288,29.662,24.113,12.501,8.19,5.643
655,0.81,36.015,28.3,29.643,24.11,12.341,8.07,5.564
656,0.81,36.147,28.331,29.652,24.11,12.339,7.987,5.604
657,0.816,36.254,28.351,29.652,24.106,12.299,8.068,5.523
658,0.82,36.159,28.304,29.652,24.106,12.339,8.109,5.522
659,0.817,36.196,28.273,29.633,24.099,12.258,8.069,5.482
660,0.82,36.36,28.296,29.662,24.113,12.339,8.191,5.562
661,0.83,36.428,28.312,29.653,24.106,12.462,8.273,5.645
662,0.82,35.94,28.285,29.691,24.096,12.381,8.071,5.442
663,0.826,36.108,28.3,29.682,24.113,12.543,8.15,5.643
664,0.82,36.205,28.304,29.653,24.113,12.626,8.11,5.605
665,0.813,36.302,28.339,29.652,24.106,12.627,8.15,5.482
666,0.81,36.993,28.347,29.643,24.11,12.546,8.15,5.562
667,0.807,37.125,28.3,29.672,24.113,12.626,8.273,5.604
668,0.787,37.222,28.218,29.643,24.103,12.505,8.111,5.482
669,0.787,37.329,28.295,29.652,24.117,12.544,8.191,5.562
670,0.777,35.565,28.359,29.662,24.12,12.545,8.273,5.726
671,0.78,35.663,28.273,29.633,24.096,12.26,8.071,5.443
672,0.777,35.817,28.3,29.662,24.103,12.339,8.028,5.643
673,0.761,35.876,28.308,29.653,24.106,12.258,8.109,5.564
674,0.754,36.328,28.355,29.662,24.099,12.257,8.069,5.645
675,0.761,36.476,28.398,29.662,24.096,12.217,7.987,5.564
676,0.774,36.631,28.383,29.662,24.11,12.257,8.027,5.645
677,0.761,36.661,28.285,29.672,24.099,12.135,8.068,5.564
678,0.774,35.981,28.327,29.672,24.106,12.175,7.865,5.523
679,0.78,36.137,28.324,29.72,24.124,12.297,8.107,5.725
680,0.767,36.196,28.355,29.653,24.103,12.054,7.906,5.565
681,0.777,36.283,28.332,29.681,24.099,12.093,7.945,5.604
682,0.777,36.312,28.332,29.662,24.11,11.93,7.783,5.564
683,0.777,36.447,28.39,29.662,24.11,11.929,7.862,5.604
684,0.767,36.535,28.387,29.662,24.099,11.888,7.741,5.523
685,0.764,36.401,28.313,29.681,24.113,11.806,7.821,5.685
686,0.754,36.199,28.249,29.672,24.103,11.724,7.781,5.564
687,0.757,36.36,28.311,29.691,24.103,11.764,7.74,5.563
688,0.761,36.486,28.355,29.72,24.12,11.887,8.024,5.726
689,0.728,36.151,28.383,29.672,24.103,11.766,7.824,5.524
690,0.731,36.244,28.293,29.681,24.11,11.683,7.863,5.563
691,0.728,36.379,28.331,29.681,24.11,11.683,7.863,5.523
692,0.721,36.467,28.359,29.691,24.103,11.764,7.863,5.644
693,0.705,36.276,28.383,29.662,24.103,11.683,7.863,5.483
694,0.718,36.437,28.313,29.7,24.11,11.804,7.944,5.684
695,0.721,36.535,28.238,29.672,24.103,11.684,7.945,5.524
696,0.721,36.641,28.288,29.681,24.106,11.723,7.945,5.522
697,0.741,36.153,28.312,29.729,24.117,11.886,8.189,5.725
698,0.734,36.215,28.308,29.672,24.089,11.644,8.029,5.565
699,0.741,36.379,28.374,29.691,24.106,11.641,8.068,5.563
700,0.741,36.438,28.344,29.701,24.11,11.56,7.946,5.523
701,0.738,36.304,28.347,29.701,24.113,11.519,7.945,5.563
702,0.738,36.428,28.394,29.701,24.11,11.477,7.945,5.563
703,0.741,36.582,28.344,29.71,24.11,11.477,8.067,5.645
704,0.721,36.622,28.316,29.701,24.113,11.477,8.069,5.645
705,0.734,36.191,28.308,29.691,24.103,11.274,7.906,5.564
706,0.728,36.369,28.335,29.749,24.113,11.516,8.067,5.645
707,0.712,36.476,28.351,29.692,24.11,11.559,8.028,5.605
708,0.708,36.506,28.375,29.71,24.11,11.6,8.027,5.604
709,0.724,36.209,28.281,29.682,24.106,11.803,8.027,5.604
710,0.731,36.379,28.331,29.701,24.113,12.009,8.109,5.645
711,0.712,36.476,28.363,29.691,24.11,12.092,8.069,5.564
712,0.705,36.506,28.371,29.72,24.113,12.378,8.191,5.685
713,0.734,36.305,28.273,29.72,24.11,12.462,8.273,5.727
714,0.718,36.408,28.327,29.692,24.103,12.381,8.071,5.484
715,0.737,36.544,28.351,29.73,24.113,12.625,8.231,5.644
716,0.747,36.286,28.371,29.701,24.113,12.627,8.151,5.645
717,0.751,36.255,28.39,29.72,24.113,12.668,8.273,5.564
718,0.744,36.389,28.414,29.701,24.103,12.709,8.314,5.645
719,0.76,36.505,28.364,29.73,24.117,12.872,8.274,5.645
720,0.761,36.075,28.308,29.701,24.099,12.873,8.233,5.564
721,0.767,36.176,28.382,29.72,24.103,13.036,8.314,5.645
722,0.793,36.34,28.332,29.739,24.124,13.282,8.396,5.727
723,0.774,36.38,28.328,29.711,24.11,13.243,8.234,5.524
724,0.78,36.246,28.332,29.72,24.11,13.324,8.273,5.603
725,0.774,36.379,28.367,29.73,24.11,13.325,8.233,5.564
726,0.787,36.505,28.394,29.72,24.11,13.366,8.192,5.685
727,0.777,36.593,28.395,29.72,24.103,13.285,8.192,5.564
728,0.793,36.133,28.332,29.749,24.106,13.447,8.11,5.604
729,0.777,36.244,28.335,29.711,24.099,13.286,8.109,5.564
730,0.784,36.398,28.359,29.72,24.11,13.284,8.15,5.523
731,0.803,36.486,28.394,29.778,24.124,13.365,8.273,5.766
732,0.8,36.142,28.32,29.75,24.103,13.122,8.152,5.606
733,0.8,36.282,28.312,29.74,24.103,12.957,8.15,5.564
734,0.797,36.408,28.374,29.74,24.103,12.874,8.15,5.645
735,0.82,36.477,28.402,29.749,24.106,12.792,8.191,5.686
736,0.82,36.199,28.41,29.73,24.099,12.629,8.11,5.524
737,0.833,36.35,28.383,29.739,24.113,12.627,8.15,5.685
738,0.833,36.457,28.297,29.73,24.106,12.546,8.069,5.605
739,0.836,36.477,28.327,29.711,24.106,12.301,8.028,5.523
740,0.852,36.228,28.406,29.768,24.12,12.38,8.271,5.766
741,0.849,36.321,28.274,29.74,24.11,12.137,8.071,5.565
742,0.862,36.457,28.315,29.74,24.11,12.012,8.069,5.604
743,0.862,36.573,28.339,29.74,24.113,11.93,8.191,5.604
744,0.866,36.191,28.367,29.74,24.113,11.848,8.192,5.564
745,0.876,36.302,28.379,29.73,24.103,11.643,8.07,5.482
746,0.869,36.437,28.383,29.749,24.12,11.682,8.15,5.725
747,0.859,37.954,28.313,29.759,24.106,11.52,8.15,5.646
748,0.875,38.305,28.327,29.74,24.106,11.396,8.15,5.483
749,0.869,38.452,28.339,29.807,24.124,11.436,8.395,5.766
750,0.866,38.472,28.359,29.759,24.113,11.192,8.316,5.606
751,0.862,35.241,28.344,29.759,24.113,11.149,8.437,5.604
752,0.859,35.209,28.32,29.778,24.106,10.986,8.479,5.604
753,0.853,35.372,28.363,29.759,24.113,10.944,8.56,5.645
754,0.866,35.46,28.406,29.74,24.106,10.74,8.602,5.645
755,0.869,36.285,28.356,29.768,24.113,10.738,8.643,5.645
756,0.859,36.418,28.293,29.759,24.11,10.575,8.603,5.564
757,0.862,36.515,28.261,29.749,24.106,10.37,8.602,5.482
758,0.882,36.67,28.335,29.778,24.12,10.531,8.724,5.684
759,0.885,35.99,28.375,29.769,24.113,10.288,8.726,5.605
760,0.885,36.118,28.328,29.759,24.11,10.164,8.726,5.564
761,0.876,36.282,28.328,29.778,24.113,10.041,8.685,5.563
762,0.889,36.312,28.363,29.769,24.12,9.958,8.725,5.604
763,0.885,35.958,28.39,29.749,24.099,9.835,8.644,5.604
764,0.898,36.117,28.352,29.788,24.117,9.875,8.725,5.604
765,0.889,36.244,28.285,29.778,24.113,9.672,8.685,5.645
766,0.869,36.264,28.218,29.788,24.103,9.507,8.481,5.483
767,0.895,36.111,28.327,29.817,24.113,9.668,8.682,5.684
768,0.879,36.205,28.335,29.788,24.113,9.426,8.522,5.605
769,0.879,36.312,28.382,29.769,24.113,9.383,8.601,5.645
770,0.863,36.341,28.359,29.769,24.106,9.301,8.48,5.523
771,0.879,36.092,28.332,29.778,24.11,9.219,8.52,5.644
772,0.859,36.195,28.355,29.769,24.099,9.096,8.398,5.564
773,0.879,36.321,28.379,29.807,24.11,9.136,8.438,5.685
774,0.876,36.84,28.285,29.788,24.12,9.095,8.438,5.646
775,0.869,37.037,28.304,29.759,24.099,9.054,8.275,5.483
776,0.885,37.212,28.343,29.797,24.11,9.176,8.314,5.644
777,0.885,37.29,28.347,29.788,24.099,9.177,8.274,5.645
778,0.889,35.555,28.363,29.769,24.113,9.259,8.314,5.645
779,0.895,35.452,28.312,29.769,24.106,9.341,8.193,5.605
780,0.899,35.594,28.331,29.797,24.103,9.382,8.273,5.604
781,0.902,35.673,28.335,29.769,24.103,9.342,8.111,5.564
782,0.928,46.221,28.39,29.797,24.11,9.504,8.191,5.645
783,0.918,46.606,28.309,29.798,24.12,9.587,8.192,5.645
784,0.896,46.57,28.316,29.759,24.096,9.425,8.029,5.483
785,0.912,46.599,28.351,29.797,24.11,9.668,8.149,5.562
786,0.908,31.477,28.336,29.788,24.11,9.67,8.028,5.563
787,0.889,31.488,28.382,29.798,24.11,9.67,8.109,5.645
788,0.885,31.691,28.375,29.778,24.106,9.833,8.028,5.564
789,0.889,31.894,28.363,29.807,24.12,10.078,8.149,5.604
790,0.872,37.573,28.336,29.769,24.106,10.243,8.191,5.564
791,0.892,37.774,28.394,29.807,24.113,10.652,8.395,5.645
792,0.895,37.89,28.313,29.817,24.124,10.981,8.519,5.808
793,0.869,37.901,28.327,29.779,24.103,11.106,8.398,5.525
794,0.885,35.12,28.351,29.797,24.11,11.433,8.56,5.644
795,0.885,35.236,28.379,29.788,24.106,11.721,8.643,5.645
796,0.905,35.391,28.406,29.817,24.106,11.886,8.725,5.605
797,0.899,35.431,28.371,29.779,24.106,12.01,8.766,5.564
798,0.905,36.179,28.289,29.817,24.11,12.174,8.97,5.645
799,0.905,36.321,28.304,29.798,24.106,12.256,8.931,5.564
800,0.921,36.409,28.362,29.798,24.106,12.42,8.972,5.604
801,0.931,36.467,28.351,29.836,24.124,12.666,9.257,5.726
802,0.925,35.768,28.328,29.788,24.113,12.546,9.137,5.565
803,0.922,35.904,28.339,29.807,24.11,12.707,9.217,5.645
804,0.918,36.011,28.382,29.798,24.11,12.628,9.137,5.564
805,0.931,35.974,28.414,29.807,24.106,12.627,9.258,5.604
806,0.905,35.945,28.403,29.798,24.103,12.505,9.137,5.564
807,0.905,36.117,28.356,29.807,24.117,12.626,9.217,5.604
808,0.895,36.215,28.324,29.807,24.103,12.464,9.218,5.645
809,0.892,35.813,28.304,29.807,24.096,12.219,9.056,5.523
810,0.915,35.962,28.382,29.826,24.12,12.46,9.257,5.725
811,0.899,36.05,28.328,29.836,24.106,12.178,9.097,5.646
812,0.892,36.166,28.316,29.827,24.106,12.094,9.095,5.686
813,0.892,35.909,28.363,29.808,24.106,11.971,9.014,5.646
814,0.899,36.05,28.398,29.826,24.117,11.929,9.013,5.686
815,0.895,36.157,28.367,29.817,24.11,11.726,8.891,5.524
816,0.912,36.263,28.316,29.827,24.117,11.764,8.93,5.725
817,0.918,35.833,28.21,29.846,24.11,11.602,8.931,5.687
818,0.909,35.943,28.315,29.779,24.099,11.397,8.687,5.483
819,0.928,36.127,28.398,29.836,24.117,11.476,8.807,5.644
820,0.935,36.167,28.328,29.836,24.103,11.314,8.645,5.645
821,0.922,35.784,28.332,29.817,24.11,11.313,8.684,5.645
822,0.922,35.914,28.355,29.807,24.103,11.232,8.603,5.523
823,0.931,36.031,28.375,29.817,24.113,11.312,8.602,5.644
824,0.918,36.07,28.344,29.817,24.099,11.353,8.48,5.564
825,0.931,35.86,28.3,29.855,24.113,11.557,8.601,5.685
826,0.918,36.011,28.281,29.875,24.12,11.844,8.684,5.687
827,0.912,36.089,28.296,29.798,24.092,11.806,8.44,5.483
828,0.915,36.147,28.339,29.826,24.103,12.131,8.601,5.562
829,0.905,35.832,28.41,29.827,24.11,12.297,8.521,5.645
830,0.912,35.972,28.348,29.875,24.11,12.542,8.601,5.645
831,0.905,36.07,28.312,29.818,24.106,12.626,8.765,5.605
832,0.905,36.282,28.37,29.846,24.11,12.79,8.97,5.726
833,0.899,35.843,28.363,29.846,24.099,12.873,9.013,5.605
834,0.908,35.982,28.297,29.846,24.103,12.995,9.298,5.645
835,0.912,36.108,28.234,29.884,24.124,13.078,9.626,5.727
836,0.905,35.697,28.311,29.827,24.103,12.957,9.588,5.565
837,0.908,35.731,28.339,29.846,24.11,13.118,9.791,5.645
838,0.905,35.856,28.375,29.846,24.11,13.039,9.915,5.605
839,0.915,35.953,28.352,29.846,24.117,13.2,10.039,5.645
840,0.925,35.858,28.351,29.837,24.103,13.121,10.162,5.564
841,0.931,35.982,28.324,29.865,24.113,13.282,10.244,5.726
842,0.925,36.098,28.382,29.837,24.11,13.284,10.204,5.605
843,0.931,36.196,28.316,29.836,24.106,13.365,10.285,5.482
844,0.941,35.746,28.347,29.903,24.113,13.651,10.408,5.684
845,0.919,35.818,28.308,29.847,24.11,13.532,10.247,5.524
846,0.931,35.953,28.327,29.856,24.103,13.612,10.245,5.563
847,0.905,36.012,28.394,29.846,24.103,13.613,10.245,5.604
848,0.918,35.773,28.399,29.846,24.11,13.653,10.164,5.686
849,0.905,35.914,28.278,29.865,24.099,13.613,10.041,5.524
850,0.905,36.069,28.335,29.865,24.11,13.694,10.08,5.644
851,0.912,36.109,28.355,29.846,24.103,13.532,9.918,5.564
852,0.905,35.755,28.332,29.856,24.11,13.449,9.916,5.645
853,0.905,35.933,28.25,29.904,24.124,13.53,9.998,5.767
854,0.882,35.993,28.319,29.847,24.103,13.246,9.714,5.647
855,0.898,36.041,28.347,29.875,24.103,13.162,9.711,5.645
856,0.908,35.754,28.379,29.865,24.106,13.039,9.589,5.645
857,0.912,35.924,28.394,29.885,24.117,12.875,9.547,5.727
858,0.922,36.021,28.399,29.866,24.106,12.711,9.384,5.524
859,0.918,36.051,28.363,29.885,24.11,12.709,9.545,5.644
860,0.912,35.802,28.332,29.866,24.11,12.628,9.425,5.564
861,0.925,35.934,28.39,29.865,24.106,12.749,9.342,5.523
862,0.944,36.079,28.328,29.913,24.127,12.994,9.545,5.644
863,0.906,35.879,28.324,29.866,24.103,12.996,9.384,5.564
864,0.915,35.666,28.343,29.875,24.11,13.078,9.505,5.563
865,0.918,35.788,28.363,29.875,24.103,13.201,9.384,5.563
866,0.912,35.905,28.402,29.885,24.12,13.365,9.342,5.604
867,0.902,35.753,28.36,29.866,24.106,13.325,9.342,5.482
868,0.908,35.866,28.301,29.904,24.113,13.528,9.382,5.522
869,0.892,35.992,28.308,29.866,24.106,13.49,9.382,5.482
870,0.886,36.06,28.351,29.875,24.106,13.49,9.261,5.481
871,0.905,35.687,28.328,29.923,24.124,13.733,9.503,5.684
872,0.879,35.769,28.32,29.904,24.113,13.655,9.303,5.564
873,0.879,35.885,28.32,29.885,24.11,13.694,9.301,5.685
874,0.882,35.963,28.374,29.894,24.117,13.735,9.178,5.524
875,0.882,35.638,28.398,29.914,24.113,13.817,9.218,5.644
876,0.879,35.769,28.371,29.885,24.103,13.899,9.056,5.523
877,0.895,35.905,28.363,29.894,24.113,13.981,9.054,5.603
878,0.882,35.973,28.332,29.904,24.11,14.063,9.013,5.564
879,0.892,35.6,28.32,29.885,24.106,13.983,8.891,5.441
880,0.899,35.788,28.39,29.933,24.113,14.185,9.052,5.643
881,0.892,35.895,28.336,29.962,24.106,14.106,8.932,5.605
882,0.889,35.944,28.312,29.895,24.096,14.187,8.972,5.564
883,0.895,35.724,28.37,29.894,24.11,14.106,8.931,5.482
884,0.905,35.866,28.41,29.904,24.113,14.268,9.134,5.481
885,0.892,35.982,28.344,29.914,24.103,14.432,9.177,5.44
886,0.899,36.012,28.289,29.923,24.117,14.597,9.462,5.562
887,0.879,35.686,28.319,29.981,24.12,14.964,9.749,5.685
888,0.859,35.808,28.324,29.895,24.103,15.252,9.59,5.442
889,0.872,35.962,28.406,29.933,24.113,15.947,9.832,5.521
890,0.866,35.954,28.285,29.933,24.11,16.36,9.916,5.522
891,0.866,35.743,28.327,29.914,24.11,16.893,10.079,5.563
892,0.856,35.866,28.363,29.923,24.11,17.305,9.959,5.482
893,0.866,35.973,28.394,29.952,24.106,17.797,10.12,5.603
894,0.843,35.772,28.32,29.895,24.103,18.005,10.041,5.564
895,0.866,35.751,28.273,29.933,24.106,18.21,10.08,5.604
896,0.879,35.904,28.335,29.962,24.12,18.334,10.162,5.645
897,0.856,35.954,28.312,29.895,24.096,18.173,9.919,5.483
898,0.869,35.609,28.343,29.942,24.113,18.252,10.039,5.644
899,0.882,35.702,28.359,29.924,24.113,18.091,9.999,5.564
900,0.882,35.837,28.34,29.952,24.12,17.886,10.08,5.563
901,0.869,35.915,28.336,29.924,24.106,17.64,9.999,5.523
902,0.892,35.628,28.402,29.933,24.117,17.475,10.08,5.644
903,0.889,35.74,28.348,29.914,24.106,17.148,9.999,5.564
904,0.872,35.866,28.289,29.923,24.106,16.819,9.958,5.482
905,0.892,35.982,28.315,29.962,24.124,16.735,10.08,5.644
906,0.86,35.475,28.331,29.933,24.113,16.246,9.837,5.564
907,0.856,35.623,28.339,29.924,24.11,15.997,9.916,5.563
908,0.853,35.73,28.398,29.933,24.106,15.669,9.754,5.523
909,0.853,35.808,28.321,29.952,24.113,15.422,9.752,5.644
910,0.849,35.608,28.312,29.914,24.106,15.135,9.63,5.523
911,0.875,35.759,28.366,29.952,24.113,14.888,9.67,5.522
912,0.863,35.876,28.348,29.943,24.113,14.561,9.629,5.644
913,0.853,35.896,28.273,29.914,24.096,14.273,9.385,5.442
914,0.853,35.666,28.335,29.971,24.117,14.107,9.505,5.643
915,0.846,35.779,28.343,29.953,24.11,13.739,9.343,5.523
916,0.856,35.885,28.375,29.943,24.11,13.533,9.342,5.563
917,0.856,35.887,28.41,29.952,24.11,13.205,9.219,5.563
918,0.869,35.695,28.399,29.972,24.113,13.161,9.3,5.645
919,0.866,35.827,28.344,29.953,24.099,12.876,9.138,5.483
920,0.866,35.963,28.343,29.972,24.11,12.792,9.136,5.522
921,0.882,36.098,28.379,29.972,24.12,12.751,9.136,5.725
922,0.866,35.62,28.297,29.924,24.099,12.425,8.852,5.484
923,0.859,35.778,28.339,29.952,24.106,12.462,8.93,5.481
924,0.872,35.895,28.32,29.962,24.106,12.341,8.931,5.522
925,0.879,35.628,28.343,29.943,24.106,12.339,8.85,5.522
926,0.846,35.644,28.386,29.943,24.106,12.217,8.849,5.563
927,0.859,35.788,28.395,29.972,24.11,12.216,8.808,5.604
928,0.843,35.876,28.297,29.972,24.106,12.135,8.767,5.482
929,0.839,35.599,28.316,29.972,24.117,12.175,8.767,5.562
930,0.839,35.73,28.37,29.981,24.117,12.378,8.929,5.726
931,0.833,35.808,28.344,29.934,24.092,12.218,8.728,5.484
932,0.833,35.943,28.324,29.981,24.113,12.42,8.929,5.562
933,0.83,35.609,28.308,29.962,24.11,12.462,8.972,5.523
934,0.836,35.749,28.351,29.991,24.106,12.585,9.216,5.563
935,0.836,35.856,28.386,29.962,24.106,12.545,9.137,5.604
936,0.833,35.953,28.391,29.991,24.11,12.626,9.421,5.604
937,0.839,35.695,28.34,29.962,24.103,12.464,9.383,5.482
938,0.856,35.885,28.254,30.01,24.106,12.544,9.423,5.562
939,0.856,35.992,28.327,30.011,24.12,12.545,9.627,5.685
940,0.84,35.983,28.359,29.953,24.092,12.301,9.466,5.483
941,0.859,35.514,28.273,29.981,24.106,12.339,9.505,5.522
942,0.853,35.653,28.311,29.991,24.103,12.258,9.506,5.4
943,0.866,35.798,28.343,29.982,24.113,12.217,9.506,5.562
944,0.859,35.828,28.375,29.972,24.106,12.054,9.465,5.523
945,0.859,35.694,28.367,29.991,24.113,12.011,9.587,5.563
946,0.856,35.789,28.324,29.982,24.11,11.767,9.385,5.523
947,0.853,35.934,28.312,29.991,24.11,11.805,9.342,5.522
948,0.859,35.993,28.327,30.03,24.12,11.846,9.504,5.685
949,0.833,35.686,28.304,29.982,24.106,11.603,9.303,5.524
950,0.833,35.837,28.347,29.991,24.113,11.641,9.382,5.482
951,0.833,35.944,28.336,29.982,24.117,11.56,9.301,5.481
952,0.83,35.782,28.328,30.02,24.106,11.681,9.26,5.562
953,0.826,35.579,28.363,30.001,24.103,11.723,9.259,5.482
954,0.823,35.73,28.394,30.011,24.117,11.886,9.259,5.603
955,0.826,35.827,28.332,29.991,24.099,11.928,9.178,5.564
956,0.833,35.617,28.257,30.001,24.099,12.051,9.055,5.441
957,0.865,35.769,28.292,30.058,24.12,12.459,9.298,5.603
958,0.836,35.809,28.312,29.982,24.106,12.585,9.138,5.482
959,0.843,35.915,28.378,30.01,24.11,12.871,9.177,5.522
960,0.846,35.647,28.297,29.991,24.106,13.117,9.137,5.522
961,0.853,35.798,28.331,30.02,24.11,13.445,9.177,5.563
962,0.856,35.905,28.351,30.011,24.106,13.652,9.137,5.523
963,0.856,36.002,28.394,30.011,24.117,13.898,9.217,5.563
964,0.853,35.523,28.352,30.02,24.106,13.941,9.096,5.482
965,0.849,35.681,28.265,30.011,24.113,13.982,9.054,5.44
966,0.853,35.856,28.315,30.059,24.124,14.145,9.257,5.643
967,0.833,35.877,28.324,30.021,24.106,14.065,9.056,5.605
968,0.839,35.695,28.328,30.02,24.11,14.105,9.013,5.523
969,0.833,35.837,28.378,30.02,24.106,14.024,8.972,5.522
970,0.826,35.982,28.344,30.03,24.11,14.023,8.931,5.603
971,0.82,36.003,28.297,30.001,24.099,14.023,8.85,5.482
972,0.833,35.725,28.362,30.039,24.11,13.983,8.889,5.644
973,0.823,35.837,28.34,30.02,24.099,14.023,8.768,5.564
974,0.81,35.944,28.261,30.02,24.099,13.942,8.645,5.482
975,0.836,36.041,28.311,30.059,24.113,14.022,8.684,5.684
976,0.836,35.687,28.316,30.03,24.103,13.942,8.522,5.524
977,0.836,35.827,28.339,30.04,24.106,13.941,8.561,5.522
978,0.862,35.924,28.367,30.03,24.11,13.86,8.48,5.482
979,0.846,35.954,28.344,30.03,24.113,13.9,8.56,5.603
980,0.84,35.705,28.308,30.011,24.103,13.778,8.399,5.482
981,0.852,35.846,28.355,30.059,24.11,13.696,8.519,5.562
982,0.859,35.934,28.375,30.04,24.12,13.695,8.479,5.604
983,0.843,35.695,28.262,30.011,24.106,13.451,8.276,5.36
984,0.862,35.722,28.315,30.049,24.12,13.611,8.436,5.602
985,0.853,35.818,28.327,30.04,24.11,13.45,8.275,5.564
986,0.827,35.934,28.351,30.049,24.106,13.448,8.274,5.523
987,0.826,35.58,28.382,30.03,24.106,13.367,8.233,5.482
988,0.82,35.682,28.402,30.078,24.11,13.366,8.355,5.644
989,0.813,35.808,28.348,30.04,24.106,13.285,8.193,5.483
990,0.829,35.905,28.332,30.068,24.103,13.284,8.395,5.603
991,0.826,35.666,28.374,30.059,24.113,13.325,8.641,5.604
992,0.81,35.74,28.285,30.021,24.092,13.041,8.603,5.442
993,0.826,35.943,28.335,30.078,24.106,13.119,8.846,5.562
994,0.82,35.973,28.316,30.059,24.106,12.957,9.052,5.523
995,0.82,35.513,28.343,30.069,24.103,12.874,9.176,5.603
996,0.813,35.643,28.41,30.05,24.103,12.751,9.299,5.482
997,0.833,35.779,28.391,30.068,24.106,12.669,9.504,5.644
998,0.826,35.799,28.301,30.04,24.099,12.546,9.425,5.523
999,0.846,35.54,28.343,30.078,24.106,12.464,9.668,5.522
1000,0.84,35.701,28.359,30.078,24.117,12.381,9.792,5.644
1001,0.83,35.76,28.32,30.04,24.096,12.218,9.671,5.483
1002,0.833,35.857,28.316,30.059,24.11,12.216,9.751,5.522
1003,0.843,35.599,28.3,30.069,24.103,12.176,9.793,5.482
1004,0.853,35.74,28.343,30.088,24.11,12.216,9.753,5.522
1005,0.83,35.847,28.371,30.059,24.106,12.216,9.671,5.441
1006,0.82,35.896,28.371,30.078,24.11,12.379,9.792,5.562
1007,0.817,35.628,28.328,30.059,24.106,12.421,9.671,5.482
1008,0.816,35.75,28.32,30.069,24.113,12.503,9.711,5.522
1009,0.836,35.904,28.339,30.107,24.12,12.748,9.792,5.644
1010,0.826,36.011,28.375,30.059,24.106,12.669,9.59,5.483
1011,0.817,35.667,28.316,30.107,24.117,12.749,9.669,5.603
1012,0.81,35.75,28.312,30.079,24.11,12.709,9.589,5.604
1013,0.823,35.856,28.351,30.098,24.103,12.709,9.588,5.604
1014,0.81,35.704,28.379,30.05,24.103,12.587,9.425,5.523
1015,0.813,35.779,28.336,30.097,24.113,12.627,9.464,5.603
1016,0.823,35.885,28.281,30.069,24.106,12.464,9.383,5.564
1017,0.81,35.982,28.23,30.088,24.103,12.463,9.342,5.523
1018,0.839,35.504,28.327,30.126,24.12,12.544,9.423,5.766
1019,0.836,35.576,28.347,30.088,24.11,12.301,9.302,5.525
1020,0.83,35.72,28.328,30.098,24.106,12.298,9.26,5.563
1021,0.839,35.808,28.328,30.098,24.106,12.176,9.178,5.523
1022,0.849,35.454,28.308,30.088,24.106,12.094,9.137,5.482
1023,0.846,35.575,28.363,30.078,24.106,11.93,9.055,5.481
1024,0.853,35.72,28.344,30.107,24.113,12.01,9.176,5.522
1025,0.827,35.779,28.261,30.098,24.11,11.889,9.015,5.522
1026,0.817,35.454,28.3,30.107,24.11,11.766,8.932,5.482
1027,0.846,35.652,28.3,30.136,24.124,11.805,9.134,5.644
1028,0.827,35.74,28.304,30.098,24.113,11.765,8.852,5.523
1029,0.83,35.799,28.39,30.107,24.11,11.561,8.889,5.563
1030,0.826,35.56,28.211,30.127,24.106,11.64,8.849,5.563
1031,0.813,35.711,28.311,30.108,24.113,11.601,8.808,5.563
1032,0.82,35.808,28.355,30.098,24.099,11.519,8.726,5.482
1033,0.823,35.867,28.386,30.126,24.113,11.477,8.766,5.644
1034,0.8,35.493,28.293,30.117,24.11,11.477,8.685,5.523
1035,0.81,35.643,28.167,30.127,24.103,11.396,8.644,5.482
1036,0.839,35.807,28.303,30.136,24.117,11.436,8.765,5.644
1037,0.813,35.78,28.296,30.108,24.11,11.355,8.604,5.564
1038,0.833,35.636,28.323,30.127,24.113,11.313,8.643,5.563
1039,0.83,35.721,28.339,30.117,24.106,11.232,8.603,5.563
1040,0.843,35.866,28.32,30.136,24.113,11.19,8.684,5.604
1041,0.836,35.752,28.316,30.108,24.106,11.068,8.562,5.482
1042,0.852,35.655,28.363,30.146,24.12,11.107,8.724,5.644
1043,0.849,35.779,28.312,30.117,24.117,11.067,8.685,5.686
1044,0.846,35.876,28.312,30.088,24.096,10.822,8.522,5.402
1045,0.862,35.56,28.331,30.136,24.117,10.901,8.642,5.562
1046,0.849,35.596,28.343,30.127,24.106,10.739,8.603,5.482
1047,0.866,35.749,28.351,30.127,24.11,10.738,8.643,5.644
1048,0.872,35.837,28.382,30.136,24.106,10.738,8.603,5.605
1049,0.879,35.503,28.309,30.146,24.113,10.9,8.602,5.645
1050,0.882,35.624,28.312,30.127,24.106,10.861,8.562,5.442
1051,0.885,35.75,28.374,30.136,24.113,11.105,8.643,5.603
1052,0.898,35.837,28.344,30.146,24.124,11.189,8.765,5.645
1053,0.902,35.378,28.312,30.146,24.103,10.946,8.604,5.442
1054,0.928,35.536,28.312,30.165,24.106,11.228,8.806,5.603
1055,0.931,35.653,28.331,30.146,24.11,11.271,8.93,5.482
1056,0.941,35.74,28.367,30.137,24.11,11.394,9.012,5.603
1057,0.945,35.454,28.348,30.136,24.106,11.395,9.013,5.482
1058,0.951,35.585,28.351,30.165,24.11,11.598,9.176,5.603
1059,0.951,35.711,28.316,30.146,24.106,11.641,9.096,5.442
1060,0.961,35.789,28.296,30.146,24.113,11.885,9.217,5.603
1061,0.987,35.444,28.366,30.165,24.117,12.213,9.422,5.726
1062,0.971,35.556,28.277,30.137,24.103,12.135,9.139,5.484
1063,0.994,35.711,28.311,30.146,24.106,12.297,9.258,5.562
1064,1.007,35.741,28.316,30.146,24.11,12.38,9.3,5.604
1065,1.02,35.597,28.374,30.146,24.11,12.543,9.26,5.645
1066,1.014,35.721,28.383,30.146,24.099,12.545,9.219,5.605
1067,1.02,35.847,28.398,30.165,24.113,12.667,9.3,5.604
1068,1.014,35.886,28.281,30.156,24.103,12.668,9.178,5.604
1069,1.036,35.474,28.323,30.165,24.106,12.953,9.259,5.604
1070,1.037,35.604,28.371,30.204,24.11,13.118,9.341,5.645
1071,1.033,35.644,28.332,30.118,24.096,13.039,9.219,5.483
1072,1.04,35.596,28.328,30.175,24.106,13.2,9.3,5.684
1073,1.05,35.577,28.292,30.166,24.099,13.161,9.26,5.605
1074,1.043,35.711,28.327,30.175,24.103,13.12,9.259,5.604
1075,1.033,35.789,28.355,30.166,24.099,12.998,9.259,5.604
1076,1.05,35.512,28.343,30.175,24.106,13.037,9.3,5.645
1077,1.053,35.576,28.312,30.166,24.099,12.916,9.178,5.483
1078,1.056,35.72,28.308,30.233,24.11,12.874,9.299,5.562
1079,1.069,35.847,28.312,30.214,24.117,12.914,9.341,5.726
1080,1.053,35.637,28.339,30.156,24.103,12.63,9.179,5.646
1081,1.066,35.779,28.265,30.185,24.106,12.546,9.259,5.645
1082,1.063,35.914,28.292,30.175,24.11,12.545,9.178,5.605
1083,1.069,35.973,28.327,30.185,24.103,12.667,9.137,5.645
1084,1.047,35.398,28.367,30.146,24.099,12.709,9.055,5.645
1085,1.053,35.546,28.367,30.194,24.11,13.197,9.095,5.645
1086,1.05,35.663,28.277,30.166,24.106,13.446,9.014,5.645
1087,1.027,35.731,28.214,30.165,24.099,13.733,9.013,5.523
1088,1.043,35.463,28.284,30.223,24.11,14.264,9.135,5.685
1089,1.033,35.575,28.28,30.185,24.11,14.514,8.974,5.687
1090,1.024,35.682,28.312,30.185,24.11,14.719,8.972,5.646
1091,1.027,35.731,28.308,30.166,24.11,14.965,8.891,5.645
1092,1.056,35.732,28.327,30.194,24.11,15.171,8.971,5.727
1093,1.03,35.827,28.371,30.175,24.103,15.214,8.809,5.646
1094,1.037,35.943,28.375,30.213,24.113,15.417,8.93,5.686
1095,1.033,35.954,28.324,30.214,24.113,15.379,8.85,5.727
1096,1.037,35.532,28.281,30.185,24.103,15.216,8.686,5.565
1097,1.046,35.72,28.304,30.214,24.117,15.377,8.766,5.726
1098,1.033,35.789,28.292,30.204,24.103,15.175,8.604,5.605
1099,1.03,35.895,28.351,30.204,24.113,15.011,8.602,5.645
1100,1.02,35.599,28.254,30.195,24.11,14.887,8.521,5.645
1101,1.014,35.74,28.307,30.195,24.113,14.845,8.561,5.727
1102,1.001,35.808,28.351,30.195,24.103,14.56,8.358,5.646
1103,0.981,35.694,28.347,30.204,24.113,14.435,8.356,5.564
1104,1.0,35.77,28.269,30.233,24.12,14.434,8.519,5.766
1105,0.958,35.847,28.284,30.185,24.092,14.068,8.317,5.647
1106,0.945,35.934,28.292,30.204,24.11,13.983,8.315,5.645
1107,0.935,35.571,28.327,30.204,24.11,13.698,8.356,5.727
1108,0.918,35.682,28.371,30.214,24.12,13.654,8.437,5.605
1109,0.886,35.789,28.351,30.195,24.103,13.45,8.357,5.645
1110,0.879,35.914,28.336,30.214,24.113,13.367,8.641,5.686
1111,0.856,35.503,28.332,30.204,24.11,13.204,8.644,5.605
1112,0.846,35.672,28.359,30.195,24.106,13.161,8.765,5.564
1113,0.853,35.846,28.34,30.242,24.12,13.242,9.011,5.766
1114,0.843,35.915,28.308,30.205,24.11,12.877,9.013,5.647
1115,0.839,35.542,28.288,30.223,24.11,12.792,9.176,5.645
1116,0.833,35.662,28.3,30.204,24.11,12.629,9.34,5.645
1117,0.836,35.798,28.331,30.233,24.106,12.546,9.626,5.605
1118,0.843,35.838,28.363,30.214,24.103,12.342,9.792,5.604
1119,0.843,35.483,28.297,30.233,24.11,12.299,10.24,5.645
1120,0.843,35.604,28.304,30.233,24.11,12.136,10.692,5.686
1121,0.833,35.711,28.343,30.204,24.103,11.972,10.9,5.524
1122,0.849,35.798,28.336,30.252,24.117,12.173,11.349,5.644
1123,0.843,35.569,28.332,30.243,24.11,12.297,11.638,5.605
1124,0.839,35.692,28.312,30.224,24.117,12.38,11.885,5.564
1125,0.82,35.808,28.335,30.214,24.106,12.34,12.132,5.604
1126,0.813,35.828,28.343,30.243,24.11,12.543,12.378,5.686
1127,0.813,35.56,28.371,30.224,24.103,12.464,12.381,5.605
1128,0.81,35.72,28.383,30.243,24.106,12.544,12.503,5.686
1129,0.803,35.856,28.328,30.262,24.113,12.586,12.626,5.646
1130,0.781,35.656,28.312,30.205,24.099,12.261,12.505,5.523
1131,0.793,35.501,28.378,30.243,24.106,12.42,12.585,5.644
1132,0.787,35.662,28.285,30.252,24.11,12.422,12.586,5.605
1133,0.78,35.779,28.319,30.262,24.113,12.666,12.505,5.686
1134,0.787,35.444,28.331,30.243,24.106,12.79,12.423,5.564
1135,0.797,35.518,28.382,30.243,24.11,13.076,12.3,5.604
1136,0.781,35.643,28.375,30.243,24.106,13.201,12.136,5.564
1137,0.806,35.74,28.355,30.243,24.11,13.405,12.134,5.645
1138,0.803,35.396,28.269,30.272,24.12,13.651,12.134,5.686
1139,0.787,35.479,28.292,30.224,24.096,13.654,11.728,5.483
1140,0.8,35.652,28.331,30.262,24.106,13.776,11.764,5.603
1141,0.784,35.731,28.328,30.262,24.103,13.858,11.521,5.564
1142,0.803,35.406,28.308,30.262,24.12,13.981,11.477,5.645
1143,0.807,35.527,28.312,30.262,24.103,13.982,11.314,5.564
1144,0.797,35.672,28.355,30.281,24.11,14.063,11.313,5.604
1145,0.797,35.693,28.375,30.243,24.103,14.024,11.069,5.564
1146,0.807,35.472,28.371,30.262,24.106,14.023,11.026,5.645
1147,0.797,35.633,28.344,30.291,24.12,14.186,11.066,5.727
1148,0.771,35.702,28.328,30.291,24.103,13.862,10.66,5.524
1149,0.767,35.779,28.308,30.263,24.11,13.778,10.696,5.644
1150,0.774,35.435,28.366,30.243,24.113,13.696,10.534,5.645
1151,0.784,35.575,28.285,30.262,24.106,13.573,10.451,5.605
1152,0.784,35.673,28.288,30.262,24.106,13.368,10.247,5.523
1153,0.764,35.731,28.327,30.281,24.113,13.366,10.245,5.644
1154,0.77,35.473,28.374,30.253,24.103,13.163,10.001,5.564
1155,0.787,35.623,28.391,30.262,24.103,12.958,9.917,5.604
1156,0.8,35.759,28.352,30.301,24.12,13.078,10.079,5.808
1157,0.797,35.876,28.25,30.272,24.113,12.835,9.796,5.566
1158,0.813,35.484,28.284,30.282,24.106,12.71,9.753,5.645
1159,0.826,35.624,28.323,30.253,24.106,12.628,9.752,5.564
1160,0.843,35.702,28.312,30.281,24.11,12.668,9.833,5.645
1161,0.853,35.444,28.308,30.282,24.106,12.505,9.834,5.523
1162,0.869,35.431,28.324,30.272,24.117,12.544,9.916,5.685
1163,0.879,35.546,28.355,30.262,24.106,12.504,10.079,5.646
1164,0.905,35.634,28.336,30.253,24.11,12.463,10.081,5.523
1165,0.925,35.491,28.3,30.31,24.12,12.544,10.365,5.725
1166,0.918,35.566,28.234,30.272,24.11,12.423,10.368,5.605
1167,0.931,35.701,28.299,30.282,24.11,12.422,10.368,5.686
1168,0.951,35.76,28.3,30.282,24.103,12.381,10.328,5.646
1169,0.964,35.32,28.382,30.301,24.117,12.34,10.49,5.645
1170,0.971,35.469,28.289,30.282,24.11,12.136,10.369,5.483
1171,1.007,35.595,28.292,30.301,24.106,12.134,10.49,5.684
1172,1.017,35.673,28.351,30.291,24.106,11.972,10.41,5.687
1173,1.046,35.424,28.394,30.263,24.103,11.807,10.369,5.524
1174,1.121,35.613,28.348,30.339,24.124,11.928,10.531,5.725
1175,1.138,35.702,28.328,30.311,24.106,11.807,10.37,5.687
1176,1.194,35.741,28.343,30.311,24.117,11.765,10.328,5.646
1177,1.207,35.415,28.339,30.291,24.11,11.724,10.286,5.645
1178,1.217,35.565,28.39,30.301,24.11,11.764,10.286,5.686
1179,1.221,35.653,28.387,30.301,24.106,11.642,10.083,5.564
1180,1.26,35.731,28.367,30.311,24.117,11.804,10.121,5.645
1181,1.267,35.607,28.344,30.32,24.117,11.724,10.122,5.727
1182,1.26,35.721,28.39,30.263,24.099,11.601,9.919,5.484
1183,1.263,35.875,28.367,30.301,24.11,11.885,9.998,5.644
1184,1.244,35.915,28.328,30.301,24.103,12.01,9.958,5.564
1185,1.253,35.331,28.328,30.301,24.11,12.133,9.957,5.645
1186,1.253,35.44,28.347,30.282,24.11,12.337,9.835,5.645
1187,1.253,35.566,28.386,30.301,24.113,12.462,9.956,5.727
1188,1.25,35.701,28.41,30.291,24.099,12.666,9.835,5.605
1189,1.247,35.511,28.328,30.32,24.106,12.912,9.875,5.686
1190,1.253,35.681,28.351,30.33,24.12,13.077,9.916,5.768
1191,1.208,35.712,28.359,30.282,24.099,13.038,9.672,5.606
1192,1.188,35.54,28.39,30.301,24.106,13.119,9.67,5.686
1193,1.181,35.576,28.293,30.33,24.106,13.12,9.629,5.687
1194,1.184,35.72,28.355,30.311,24.117,13.12,9.629,5.727
1195,1.162,35.789,28.347,30.311,24.103,13.039,9.507,5.687
1196,1.122,35.368,28.394,30.32,24.113,13.078,9.506,5.687
1197,1.054,35.44,28.414,30.292,24.106,12.876,9.425,5.605
1198,1.004,35.604,28.403,30.32,24.11,12.995,9.464,5.726
1199,0.971,35.711,28.379,30.349,24.113,13.119,9.465,5.89
1200,0.903,35.329,28.355,30.273,24.099,12.917,9.262,5.607
1201,0.84,35.488,28.414,30.31,24.117,13.077,9.259,5.767
1202,0.833,35.624,28.332,30.32,24.11,13.079,9.137,5.687
1203,0.791,35.711,28.359,30.32,24.113,13.079,9.177,5.727
1204,0.722,35.434,28.375,30.311,24.106,12.997,9.096,5.687
1205,0.708,35.585,28.414,30.33,24.113,13.037,9.136,5.727
1206,0.646,35.692,28.399,30.34,24.106,12.916,9.095,5.646
1207,0.607,35.741,28.41,30.311,24.099,12.792,8.973,5.645
1208,0.58,35.434,28.336,30.368,24.12,12.954,9.175,5.808
1209,0.557,35.537,28.332,30.33,24.106,12.793,9.096,5.728
1210,0.541,35.643,28.386,30.32,24.11,12.71,9.176,5.768
1211,0.537,35.692,28.359,30.32,24.106,12.546,9.299,5.687
1212,0.524,35.444,28.367,30.349,24.11,12.586,9.423,5.727
1213,0.485,35.556,28.344,30.311,24.106,12.464,9.424,5.646
1214,0.478,35.701,28.39,30.349,24.113,12.463,9.627,5.849
1215,0.446,35.712,28.398,30.34,24.106,12.381,9.67,5.769
1216,0.409,35.472,28.356,30.301,24.103,12.258,9.589,5.647
1217,0.39,35.643,28.332,30.349,24.113,12.298,9.791,5.727
1218,0.354,35.74,28.335,30.34,24.103,12.217,9.793,5.768
1219,0.327,35.645,28.339,30.34,24.11,12.135,9.915,5.768
1220,0.32,35.51,28.394,30.33,24.103,12.053,9.876,5.809
1221,0.359,35.653,28.309,30.359,24.11,11.93,9.916,5.81
1222,0.392,35.75,28.343,30.33,24.103,11.766,9.916,5.688
1223,0.435,35.406,28.39,30.349,24.11,11.764,9.957,5.768
1224,0.468,35.469,28.418,30.349,24.12,11.805,10.039,5.891
1225,0.452,35.566,28.391,30.321,24.099,11.562,9.836,5.689
1226,0.458,35.701,28.352,30.349,24.11,11.722,9.916,5.809
1227,0.468,35.472,28.273,30.349,24.11,11.723,9.916,5.769
1228,0.475,35.595,28.339,30.359,24.106,11.642,9.916,5.809
1229,0.475,35.701,28.371,30.34,24.103,11.601,9.754,5.81
1230,0.504,35.789,28.383,30.34,24.106,11.641,9.915,5.81
1231,0.501,35.416,28.367,30.34,24.096,11.601,9.754,5.769
1232,0.517,35.585,28.355,30.368,24.103,11.519,9.833,5.809
1233,0.544,35.721,28.437,30.378,24.12,11.64,9.916,5.972
1234,0.544,35.741,28.395,30.321,24.099,11.397,9.672,5.771
1235,0.557,35.454,28.344,30.34,24.103,11.354,9.751,5.809
1236,0.576,35.614,28.293,30.359,24.106,11.313,9.59,5.85
1237,0.586,35.74,28.37,30.359,24.106,11.313,9.588,5.851
1238,0.609,35.76,28.387,30.349,24.099,11.191,9.466,5.81
1239,0.658,35.483,28.465,30.369,24.113,11.271,9.505,5.972
1240,0.678,35.614,28.352,30.369,24.106,11.15,9.343,5.852
1241,0.698,35.74,28.359,30.369,24.106,11.189,9.301,5.81
1242,0.718,35.808,28.441,30.407,24.127,11.352,9.382,6.054
1243,0.721,35.473,28.415,30.369,24.106,11.354,9.179,5.853
1244,0.744,35.623,28.356,30.359,24.11,11.679,9.218,5.891
1245,0.747,35.74,28.351,30.397,24.113,12.048,9.056,5.851
1246,0.757,35.991,28.382,30.369,24.117,12.459,9.135,6.054
1247,0.761,35.399,28.398,30.378,24.106,12.666,8.974,5.853
1248,0.767,35.536,28.442,30.369,24.117,13.075,9.013,6.013
1249,0.757,35.634,28.442,30.378,24.113,13.282,8.972,5.974
1250,0.751,35.577,28.422,30.359,24.106,13.447,8.809,5.893
1251,0.78,35.615,28.438,30.397,24.124,13.773,8.97,5.973
1252,0.787,35.721,28.497,30.388,24.113,13.858,8.891,6.015
1253,0.78,35.789,28.442,30.398,24.11,13.981,8.809,6.015
1254,0.754,35.444,28.434,30.436,24.103,13.982,8.767,5.974
1255,0.777,35.546,28.422,30.398,24.11,14.023,8.807,5.974
1256,0.793,35.653,28.453,30.359,24.099,13.901,8.686,5.974
1257,0.8,35.76,28.477,30.388,24.113,13.941,8.766,6.015
1258,0.81,35.54,28.532,30.417,24.124,13.941,8.889,6.178
1259,0.807,35.634,28.416,30.36,24.099,13.738,8.687,5.935
1260,0.807,35.788,28.434,30.397,24.106,13.776,8.969,5.974
1261,0.807,35.857,28.473,30.398,24.106,13.655,9.094,6.096
1262,0.826,35.407,28.458,30.388,24.113,13.776,9.298,6.056
1263,0.81,35.565,28.356,30.388,24.11,13.696,9.423,5.975
1264,0.829,35.711,28.402,30.407,24.117,13.776,9.749,6.096
1265,0.82,35.751,28.43,30.379,24.106,13.736,9.874,6.016
1266,0.807,44.448,28.465,30.417,24.106,13.573,9.997,6.015
1267,0.82,44.574,28.516,30.436,24.131,13.856,10.405,6.218
1268,0.803,44.536,28.474,30.408,24.113,13.534,10.409,6.058
1269,0.79,44.507,28.458,30.407,24.113,13.49,10.491,6.178
1270,0.787,31.648,28.426,30.398,24.113,13.367,10.491,6.017
1271,0.797,31.768,28.481,30.407,24.113,13.285,10.654,6.015
1272,0.797,31.952,28.399,30.388,24.103,13.081,10.656,5.974
1273,0.803,32.069,28.41,30.426,24.11,13.079,10.818,6.055
1274,0.797,36.826,28.426,30.417,24.113,12.916,10.779,6.056
1275,0.794,37.018,28.453,30.417,24.099,12.711,10.738,5.975
1276,0.81,37.125,28.508,30.436,24.12,12.709,10.9,6.055
1277,0.803,36.426,28.493,30.408,24.11,12.465,10.861,6.056
1278,0.81,34.76,28.454,30.407,24.113,12.3,10.902,6.056
1279,0.816,34.878,28.434,30.417,24.11,12.176,10.821,6.015
1280,0.829,35.033,28.481,30.436,24.117,12.094,10.82,6.015
1281,0.82,35.456,28.45,30.408,24.099,11.808,10.657,5.974
1282,0.843,35.671,28.446,30.475,24.11,11.846,10.737,6.015
1283,0.846,35.798,28.438,30.427,24.117,11.725,10.697,6.056
1284,0.827,35.847,28.446,30.388,24.103,11.52,10.412,5.853
1285,0.823,35.234,28.485,30.426,24.113,11.559,10.491,5.973
1286,0.823,35.295,28.47,30.417,24.11,11.6,10.451,5.933
1287,0.817,35.44,28.458,30.446,24.11,11.56,10.369,6.014
1288,0.826,35.518,28.38,30.417,24.106,11.519,10.246,5.974
1289,0.817,35.413,28.453,30.436,24.113,11.518,10.326,6.015
1290,0.807,35.546,28.481,30.417,24.11,11.396,10.124,5.852
1291,0.807,35.701,28.419,30.436,24.113,11.558,10.244,6.013
1292,0.807,35.779,28.453,30.446,24.117,11.64,10.164,6.096
1293,0.787,35.281,28.446,30.417,24.099,11.397,9.96,5.853
1294,0.81,35.449,28.508,30.436,24.11,11.558,10.039,5.932
1295,0.794,35.537,28.509,30.427,24.11,11.64,9.958,5.974
1296,0.8,35.615,28.454,30.436,24.113,11.763,10.039,5.933
1297,0.797,35.356,28.395,30.427,24.106,11.805,9.999,5.892
1298,0.82,35.498,28.418,30.436,24.106,11.887,10.039,5.973
1299,0.82,35.585,28.457,30.417,24.106,11.888,10.121,5.893
1300,0.83,35.673,28.458,30.455,24.113,11.928,10.406,6.014
1301,0.833,35.357,28.458,30.456,24.12,12.132,10.856,6.056
1302,0.823,35.44,28.446,30.418,24.106,11.89,10.902,5.893
1303,0.836,35.575,28.516,30.446,24.106,11.888,11.105,5.973
1304,0.833,35.596,28.482,30.427,24.106,11.928,11.351,5.852
1305,0.817,35.443,28.423,30.446,24.11,11.929,11.557,5.973
1306,0.816,35.575,28.399,30.437,24.106,11.848,11.64,5.852
1307,0.833,35.692,28.442,30.446,24.11,11.887,11.845,5.973
1308,0.804,35.501,28.43,30.437,24.11,11.766,11.887,5.893
1309,0.81,35.403,28.508,30.417,24.103,11.683,11.806,5.811
1310,0.826,35.575,28.431,30.465,24.124,11.886,12.09,5.972
1311,0.817,35.634,28.446,30.446,24.113,11.766,11.93,5.893
1312,0.816,35.337,28.469,30.456,24.113,11.805,12.051,5.851
1313,0.81,35.421,28.52,30.437,24.11,11.765,12.011,5.851
1314,0.81,35.546,28.415,30.437,24.113,11.927,11.93,5.891
1315,0.797,35.624,28.438,30.484,24.103,11.766,11.848,5.811
1316,0.826,35.443,28.43,30.456,24.113,11.927,11.887,5.891
1317,0.83,35.566,28.454,30.475,24.124,12.01,11.806,5.892
1318,0.817,35.644,28.458,30.418,24.103,11.808,11.602,5.729
1319,0.826,35.759,28.493,30.465,24.113,12.009,11.682,5.89
1320,0.826,35.406,28.454,30.446,24.117,12.092,11.601,5.851
1321,0.833,35.546,28.423,30.446,24.113,12.134,11.519,5.851
1322,0.83,35.653,28.492,30.437,24.103,12.053,11.396,5.891
1323,0.856,35.74,28.435,30.456,24.11,12.174,11.354,5.892
1324,0.827,35.252,28.434,30.465,24.113,12.053,11.232,5.811
1325,0.839,35.42,28.45,30.466,24.11,12.093,11.231,5.85
1326,0.843,35.575,28.469,30.485,24.124,12.256,11.149,6.054
1327,0.813,35.577,28.458,30.437,24.106,11.891,10.945,5.771
1328,0.82,35.471,28.489,30.465,24.11,12.05,10.821,5.891
1329,0.813,35.623,28.435,30.456,24.113,11.889,10.698,5.811
1330,0.81,35.721,28.426,30.456,24.11,11.969,10.656,5.891
1331,0.81,35.751,28.465,30.446,24.106,11.929,10.534,5.811
1332,0.82,35.348,28.493,30.475,24.11,11.97,10.532,5.972
1333,0.81,35.469,28.419,30.466,24.113,11.889,10.329,5.811
1334,0.81,35.595,28.422,30.466,24.099,11.928,10.124,5.85
1335,0.829,35.903,28.45,30.504,24.117,12.213,10.203,5.973
1336,0.826,35.484,28.501,30.476,24.106,12.257,10.041,5.852
1337,0.839,35.614,28.497,30.456,24.113,12.339,9.918,5.81
1338,0.833,35.682,28.497,30.465,24.106,12.421,9.835,5.891
1339,0.849,35.52,28.478,30.552,24.113,12.422,9.794,5.851
1340,0.84,35.49,28.434,30.447,24.092,12.381,9.671,5.81
1341,0.852,35.643,28.512,30.485,24.117,12.503,9.629,5.932
1342,0.846,35.75,28.454,30.475,24.113,12.463,9.588,5.933
1343,0.833,35.281,28.43,30.437,24.099,12.259,9.303,5.73
1344,0.852,35.401,28.446,30.484,24.11,12.339,9.382,5.89
1345,0.84,35.527,28.458,30.475,24.106,12.258,9.342,5.811
1346,0.852,35.605,28.485,30.494,24.11,12.257,9.301,5.891
1347,0.82,35.376,28.505,30.456,24.106,12.135,9.26,5.77
1348,0.83,35.527,28.493,30.494,24.103,12.256,9.422,5.891
1349,0.826,35.643,28.454,30.447,24.096,12.054,9.464,5.77
1350,0.83,35.74,28.462,30.485,24.11,12.133,9.709,5.85
1351,0.823,35.406,28.509,30.494,24.12,12.175,9.955,5.973
1352,0.8,35.489,28.38,30.466,24.099,11.972,10.039,5.771
1353,0.813,35.652,28.41,30.475,24.117,12.051,10.284,5.85
1354,0.833,35.721,28.43,30.494,24.11,11.971,10.53,5.891
1355,0.843,35.358,28.477,30.495,24.11,11.97,10.655,5.892
1356,0.83,35.469,28.497,30.475,24.106,11.97,10.656,5.77
1357,0.846,35.614,28.501,30.504,24.12,11.97,10.9,5.85
1358,0.83,35.634,28.411,30.485,24.11,12.011,10.861,5.769
1359,0.849,35.366,28.426,30.494,24.106,11.93,10.902,5.768
1360,0.875,35.546,28.489,30.533,24.127,12.132,11.065,5.891
1361,0.853,35.605,28.442,30.505,24.106,12.012,10.944,5.851
1362,0.849,35.654,28.434,30.504,24.11,12.133,10.902,5.851
1363,0.849,36.565,28.434,30.504,24.103,12.175,10.861,5.769
1364,0.862,36.718,28.461,30.504,24.12,12.378,10.861,5.85
1365,0.869,36.767,28.497,30.485,24.106,12.381,10.698,5.81
1366,0.846,36.231,28.501,30.514,24.12,12.625,10.737,5.85
1367,0.84,34.758,28.439,30.495,24.11,12.627,10.616,5.81
1368,0.836,34.887,28.379,30.504,24.106,12.627,10.493,5.647
1369,0.852,35.061,28.453,30.533,24.12,12.83,10.573,5.808
1370,0.817,35.428,28.485,30.495,24.106,12.67,10.411,5.769
1371,0.833,35.585,28.423,30.504,24.113,12.79,10.328,5.768
1372,0.826,35.711,28.43,30.514,24.11,12.751,10.205,5.809
1373,0.833,35.827,28.457,30.524,24.117,12.791,10.204,5.891
1374,0.81,35.186,28.489,30.485,24.103,12.751,10.041,5.729
1375,0.849,35.304,28.501,30.514,24.11,12.913,9.999,5.89
1376,0.849,35.44,28.458,30.514,24.113,13.037,9.958,5.892
1377,0.84,35.46,28.391,30.495,24.092,12.916,9.673,5.689
1378,0.869,35.489,28.422,30.514,24.12,13.199,9.751,5.768
1379,0.863,35.595,28.442,30.524,24.106,13.161,9.671,5.768
1380,0.869,35.721,28.481,30.524,24.106,13.323,9.548,5.768
1381,0.869,35.808,28.454,30.524,24.103,13.244,9.506,5.728
1382,0.866,35.282,28.415,30.524,24.113,13.406,9.587,5.809
1383,0.859,35.391,28.461,30.495,24.106,13.448,9.588,5.688
1384,0.872,35.546,28.493,30.514,24.113,13.489,9.954,5.768
1385,0.879,35.624,28.446,30.552,24.113,13.571,10.161,5.85
1386,0.853,35.366,28.36,30.495,24.096,13.368,10.082,5.729
1387,0.866,35.536,28.422,30.59,24.106,13.529,10.406,5.89
1388,0.859,35.653,28.438,30.515,24.11,13.449,10.531,5.77
1389,0.856,35.692,28.465,30.514,24.106,13.489,10.614,5.809
1390,0.843,35.271,28.38,30.514,24.106,13.408,10.737,5.769
1391,0.849,35.43,28.437,30.533,24.11,13.489,10.86,5.809
1392,0.853,35.518,28.458,30.505,24.103,13.286,10.942,5.688
1393,0.853,35.547,28.497,30.543,24.11,13.284,10.943,5.849
1394,0.853,35.432,28.466,30.543,24.12,13.203,11.065,5.932
1395,0.846,35.518,28.372,30.495,24.099,12.877,10.863,5.73
1396,0.856,35.662,28.433,30.533,24.106,12.914,10.902,5.85
1397,0.856,35.597,28.407,30.524,24.106,12.792,10.902,5.81
1398,0.856,35.519,28.457,30.533,24.11,12.791,10.861,5.891
1399,0.853,35.624,28.497,30.524,24.099,12.669,10.78,5.77
1400,0.866,35.769,28.462,30.543,24.113,12.709,10.738,5.891
1401,0.859,35.377,28.427,30.533,24.099,12.587,10.616,5.811
1402,0.882,35.46,28.481,30.533,24.106,12.545,10.574,5.81
1403,0.885,35.623,28.454,30.562,24.124,12.626,10.655,5.972
1404,0.892,35.702,28.387,30.562,24.106,12.464,10.493,5.811
1405,0.892,35.482,28.426,30.543,24.099,12.503,10.41,5.81
1406,0.889,35.604,28.453,30.543,24.106,12.504,10.328,5.81
1407,0.869,35.749,28.477,30.553,24.113,12.87,10.327,5.85
1408,0.853,35.799,28.477,30.533,24.103,13.077,10.165,5.729
1409,0.853,35.416,28.446,30.552,24.117,13.689,10.163,5.85
1410,0.853,35.546,28.442,30.533,24.117,14.142,10.122,5.932
1411,0.856,35.653,28.461,30.533,24.099,14.634,9.959,5.77
1412,0.846,35.75,28.489,30.572,24.127,15.29,10.161,5.931
1413,0.849,35.435,28.396,30.553,24.103,15.581,10.0,5.852
1414,0.853,35.575,28.434,30.572,24.11,15.909,9.958,5.851
1415,0.846,35.692,28.45,30.553,24.106,16.156,9.835,5.851
1416,0.859,35.76,28.489,30.553,24.11,16.321,9.834,5.891
1417,0.859,35.521,28.513,30.524,24.11,16.323,9.712,5.77
1418,0.849,35.672,28.505,30.543,24.11,16.526,9.752,5.85
1419,0.872,35.798,28.474,30.572,24.12,16.528,9.671,5.932
1420,0.866,35.79,28.423,30.524,24.103,16.203,9.385,5.73
1421,0.866,35.56,28.496,30.552,24.12,16.159,9.464,5.89
1422,0.856,35.682,28.403,30.572,24.113,16.078,9.383,5.77
1423,0.879,35.789,28.434,30.553,24.11,15.873,9.301,5.891
1424,0.879,36.058,28.438,30.543,24.106,15.587,9.219,5.811
1425,0.882,35.591,28.5,30.562,24.113,15.462,9.218,5.85
1426,0.859,35.692,28.493,30.543,24.106,15.135,9.056,5.769
1427,0.859,35.817,28.478,30.553,24.113,14.969,9.095,5.809
1428,0.872,36.634,28.388,30.591,24.127,14.927,9.176,6.013
1429,0.843,36.891,28.406,30.534,24.106,14.439,9.015,5.73
1430,0.853,37.019,28.449,30.572,24.113,14.353,9.013,5.85
1431,0.846,37.116,28.458,30.553,24.113,14.149,9.176,5.81
1432,0.853,35.199,28.438,30.553,24.106,13.984,9.462,5.85
1433,0.856,35.179,28.422,30.553,24.099,13.698,9.668,5.851
1434,0.849,35.342,28.492,30.572,24.113,13.898,10.036,5.851
1435,0.836,35.402,28.493,30.553,24.099,13.9,10.243,5.851
1436,0.852,35.978,28.47,30.553,24.103,13.9,10.489,5.81
1437,0.862,36.175,28.442,30.61,24.127,14.063,10.979,5.972
1438,0.849,36.235,28.391,30.553,24.106,13.983,11.066,5.893
1439,0.856,36.341,28.418,30.572,24.11,14.023,11.351,5.851
1440,0.853,35.69,28.492,30.572,24.106,13.983,11.395,5.851
1441,0.83,35.856,28.442,30.572,24.113,14.023,11.558,5.81
1442,0.862,35.963,28.403,30.553,24.106,13.861,11.6,5.728
1443,0.875,36.031,28.461,30.572,24.113,13.9,11.803,5.809
1444,0.846,35.974,28.477,30.543,24.12,13.859,11.765,5.891
1445,0.846,36.079,28.423,30.543,24.099,13.696,11.683,5.689
1446,0.853,36.243,28.379,30.581,24.124,13.695,11.886,5.931
1447,0.846,36.274,28.359,30.582,24.11,13.573,11.685,5.892
1448,0.849,35.89,28.414,30.582,24.11,13.49,11.683,5.851
1449,0.827,36.011,28.438,30.572,24.11,13.286,11.52,5.81
1450,0.83,36.147,28.43,30.562,24.117,13.284,11.599,5.972
1451,0.813,36.148,28.434,30.562,24.103,13.081,11.397,5.73
1452,0.829,36.004,28.457,30.601,24.113,13.201,11.314,5.972
1453,0.807,36.137,28.524,30.591,24.113,13.243,11.272,5.974
1454,0.79,36.196,28.447,30.543,24.103,12.958,10.987,5.811
1455,0.819,36.369,28.383,30.572,24.11,13.078,10.984,5.932
1456,0.81,36.198,28.266,30.582,24.099,13.079,10.822,5.892
1457,0.8,36.321,28.374,30.582,24.103,12.997,10.698,5.892
1458,0.81,36.418,28.398,30.572,24.117,12.834,10.656,5.811
1459,0.81,36.17,28.477,30.591,24.117,12.914,10.574,5.972
1460,0.816,36.177,28.337,30.582,24.11,12.63,10.37,5.893
1461,0.81,36.331,28.421,30.572,24.106,12.627,10.368,5.892
1462,0.813,36.447,28.477,30.61,24.124,12.708,10.409,6.014
1463,0.803,36.525,28.474,30.572,24.11,12.506,10.165,5.974
1464,0.807,36.67,28.399,30.601,24.113,12.544,10.122,5.974
1465,0.8,36.786,28.418,30.582,24.106,12.586,10.041,5.893
1466,0.79,36.864,28.399,30.591,24.113,12.667,10.08,5.973
1467,0.787,35.81,28.422,30.582,24.106,12.668,9.959,5.933
1468,0.787,35.962,28.438,30.601,24.12,12.831,10.12,6.014
1469,0.761,36.07,28.477,30.582,24.117,12.995,10.203,5.934
1470,0.764,36.128,28.423,30.572,24.103,13.037,10.367,5.811
1471,0.764,36.378,28.438,30.62,24.12,13.404,10.856,6.054
1472,0.735,36.486,28.477,30.582,24.117,13.489,10.942,5.975
1473,0.738,36.602,28.434,30.61,24.11,13.611,11.228,5.974
1474,0.741,36.651,28.309,30.62,24.106,13.694,11.434,5.933
1475,0.741,36.268,28.409,30.592,24.117,13.695,11.68,5.933
1476,0.741,36.389,28.422,30.572,24.11,13.654,11.723,5.811
1477,0.757,36.534,28.453,30.591,24.11,13.654,11.968,5.932
1478,0.757,36.555,28.505,30.601,24.11,13.735,12.051,6.014
1479,0.754,36.373,28.431,30.582,24.103,13.492,11.93,5.812
1480,0.767,36.553,28.43,30.61,24.117,13.53,12.091,5.972
1481,0.751,36.66,28.446,30.611,24.11,13.408,12.093,6.015
1482,0.741,36.661,28.458,30.601,24.11,13.326,12.093,5.893
1483,0.741,36.355,28.348,30.601,24.103,13.162,11.971,5.933
1484,0.747,36.495,28.421,30.611,24.11,13.242,11.889,5.974
1485,0.738,36.593,28.43,30.592,24.106,13.08,11.847,5.852
1486,0.747,36.517,28.481,30.611,24.113,13.201,11.806,5.973
1487,0.738,36.459,28.485,30.639,24.124,13.324,11.806,6.096
1488,0.721,36.516,28.446,30.582,24.11,13.122,11.48,5.853
1489,0.705,36.65,28.446,30.591,24.11,13.201,11.518,6.013
1490,0.702,36.364,28.407,30.601,24.106,13.202,11.315,5.852
1491,0.714,36.419,28.477,30.611,24.106,13.202,11.232,5.932
1492,0.711,36.553,28.407,30.611,24.106,13.202,11.109,5.933
1493,0.715,36.651,28.426,30.611,24.113,13.121,11.108,5.974
1494,0.695,36.364,28.407,30.62,24.11,13.039,10.904,5.852
1495,0.708,36.495,28.465,30.62,24.11,12.997,10.861,5.891
1496,0.744,36.631,28.509,30.64,24.124,12.996,10.861,6.014
1497,0.705,36.661,28.474,30.592,24.099,12.875,10.495,5.812
1498,0.728,36.431,28.36,30.62,24.113,12.873,10.573,5.891
1499,0.725,36.573,28.422,30.611,24.106,12.833,10.492,5.892
1500,0.721,36.718,28.465,30.63,24.11,12.873,10.41,5.933
1501,0.705,36.767,28.403,30.621,24.106,12.792,10.206,5.892
1502,0.744,36.461,28.418,30.64,24.117,12.791,10.285,5.973
1503,0.741,36.583,28.41,30.621,24.113,12.71,10.164,5.893
1504,0.734,36.689,28.446,30.601,24.099,12.628,9.919,5.77
1505,0.741,36.786,28.469,30.63,24.124,12.749,10.079,6.013
1506,0.728,36.48,28.431,30.621,24.11,12.506,9.837,5.934
1507,0.728,36.612,28.395,30.63,24.113,12.423,9.753,5.933
1508,0.721,36.718,28.399,30.64,24.106,12.422,9.671,5.852
1509,0.705,36.748,28.426,30.63,24.113,12.422,9.589,5.973
1510,0.698,36.423,28.453,30.611,24.106,12.34,9.425,5.893
1511,0.711,36.592,28.305,30.63,24.12,12.421,9.464,5.892
1512,0.734,36.699,28.417,30.63,24.11,12.422,9.465,5.973
1513,0.699,36.978,28.438,30.611,24.103,12.259,9.262,5.852
1514,0.721,36.569,28.485,30.639,24.11,12.298,9.341,5.973
1515,0.721,36.67,28.446,30.649,24.11,12.258,9.423,5.893
1516,0.737,36.786,28.364,30.63,24.11,12.217,9.546,6.014
1517,0.721,36.528,28.394,30.63,24.103,12.135,9.588,5.852
1518,0.744,36.516,28.406,30.649,24.12,12.175,9.832,5.891
1519,0.741,36.631,28.442,30.621,24.11,12.094,9.997,5.892
1520,0.764,36.738,28.403,30.649,24.106,12.093,10.121,5.892
1521,0.774,36.528,28.434,30.678,24.127,12.215,10.406,6.014
1522,0.771,36.555,28.407,30.611,24.106,11.972,10.328,5.812
1523,0.774,36.727,28.461,30.639,24.113,12.051,10.49,5.891
1524,0.803,36.806,28.434,30.649,24.106,12.052,10.532,5.851
1525,0.794,36.452,28.364,30.621,24.11,12.052,10.573,5.932
1526,0.78,36.573,28.379,30.649,24.106,12.093,10.574,5.852
1527,0.793,36.708,28.406,30.64,24.12,12.093,10.655,5.891
1528,0.78,36.777,28.414,30.63,24.099,12.134,10.574,5.851
1529,0.79,37.535,28.457,30.64,24.099,12.053,10.574,5.851
1530,0.806,37.725,28.419,30.707,24.12,12.296,10.696,6.054
1531,0.784,37.784,28.391,30.65,24.106,12.136,10.534,5.812
1532,0.787,37.843,28.461,30.659,24.11,12.256,10.492,5.891
1533,0.793,35.753,28.462,30.65,24.113,12.257,10.451,5.892
1534,0.803,35.895,28.395,30.678,24.106,12.461,10.491,5.851
1535,0.807,36.002,28.301,30.65,24.11,12.422,10.329,5.81
1536,0.81,36.07,28.398,30.669,24.113,12.625,10.408,5.932
1537,0.816,36.627,28.426,30.65,24.106,12.708,10.369,5.811
1538,0.826,36.747,28.438,30.649,24.106,12.912,10.287,5.81
1539,0.856,36.883,28.508,30.688,24.127,13.199,10.408,5.972
1540,0.846,36.875,28.431,30.669,24.11,13.243,10.206,5.852
1541,0.859,36.309,28.426,30.669,24.106,13.406,10.204,5.973
1542,0.862,36.428,28.446,30.659,24.11,13.448,10.082,5.811
1543,0.866,36.554,28.43,30.659,24.11,13.611,10.04,5.85
1544,0.859,36.641,28.391,30.64,24.106,13.613,9.877,5.81
1545,0.872,36.489,28.406,30.659,24.117,13.735,9.957,5.891
1546,0.866,36.602,28.414,30.65,24.106,13.695,9.876,5.892
1547,0.862,36.69,28.426,30.659,24.103,13.613,9.631,5.77
1548,0.892,36.432,28.485,30.688,24.127,13.775,9.751,5.891
1549,0.866,36.419,28.431,30.64,24.11,13.696,9.712,5.851
1550,0.862,36.553,28.391,30.649,24.117,13.573,9.711,5.851
1551,0.846,36.632,28.445,30.649,24.11,13.531,9.67,5.81
1552,0.862,36.508,28.477,30.678,24.117,13.774,9.873,5.891
1553,0.843,36.593,28.399,30.669,24.106,13.736,9.916,5.77
1554,0.859,36.757,28.422,30.678,24.12,14.264,10.161,5.931
1555,0.853,36.806,28.418,30.688,24.12,14.676,10.366,5.974
1556,0.856,36.222,28.434,30.65,24.096,14.965,10.368,5.811
1557,0.882,36.379,28.457,30.688,24.117,15.456,10.612,5.85
1558,0.882,36.486,28.485,30.669,24.11,15.827,10.777,5.81
1559,0.898,36.564,28.392,30.688,24.11,15.993,10.86,5.85
1560,0.895,36.373,28.406,30.669,24.11,16.157,10.983,5.851
1561,0.895,36.515,28.465,30.688,24.113,16.24,11.147,5.932
1562,0.905,36.631,28.411,30.65,24.106,16.2,11.149,5.852
1563,0.908,36.728,28.414,30.688,24.113,16.241,11.23,5.932
1564,0.895,36.403,28.418,30.679,24.12,16.282,11.271,5.892
1565,0.899,36.496,28.453,30.64,24.106,16.16,11.028,5.729
1566,0.899,36.66,28.505,30.678,24.12,16.118,11.188,5.85
1567,0.899,36.671,28.505,30.659,24.11,15.996,11.108,5.81
1568,0.886,36.393,28.431,30.669,24.117,15.872,11.067,5.891
1569,0.872,36.524,28.442,30.659,24.106,15.709,10.985,5.77
1570,0.882,36.65,28.415,30.678,24.11,15.544,10.944,5.85
1571,0.879,36.652,28.457,30.669,24.099,15.38,10.821,5.81
1572,0.898,36.335,28.376,30.698,24.12,15.297,10.739,5.85
1573,0.912,36.476,28.414,30.717,24.124,15.215,10.779,6.013
1574,0.899,36.525,28.422,30.641,24.103,14.93,10.454,5.812
1575,0.912,36.526,28.485,30.688,24.117,14.764,10.45,5.932
1576,0.892,36.459,28.47,30.669,24.106,14.559,10.369,5.811
1577,0.908,36.602,28.466,30.678,24.113,14.598,10.287,5.891
1578,0.905,36.709,28.348,30.669,24.11,14.314,10.123,5.851
1579,0.905,36.326,28.394,30.688,24.113,14.229,10.203,5.932
1580,0.892,36.351,28.438,30.669,24.106,13.944,10.001,5.852
1581,0.905,36.486,28.411,30.688,24.11,13.86,9.958,5.851
1582,0.918,36.631,28.422,30.707,24.124,13.9,9.998,6.013
1583,0.892,36.316,28.418,30.688,24.11,13.534,9.755,5.812
1584,0.902,36.457,28.469,30.688,24.113,13.408,9.671,5.932
1585,0.895,36.564,28.454,30.669,24.113,13.245,9.548,5.852
1586,0.892,36.641,28.43,30.688,24.11,13.162,9.547,5.973
1587,0.873,36.268,28.368,30.659,24.106,12.917,9.384,5.771
1588,0.892,36.427,28.414,30.707,24.12,12.955,9.423,5.972
1589,0.892,36.534,28.422,30.688,24.113,12.752,9.302,5.893
1590,0.882,36.583,28.45,30.669,24.103,12.547,9.178,5.811
1591,0.892,36.421,28.419,30.707,24.12,12.586,9.218,5.891
1592,0.886,36.534,28.414,30.698,24.113,12.505,9.137,5.811
1593,0.892,36.631,28.469,30.707,24.113,12.585,9.177,5.891
1594,0.886,36.671,28.442,30.679,24.106,12.545,9.096,5.892
1595,0.889,36.326,28.391,30.707,24.113,12.667,9.095,5.892
1596,0.905,36.437,28.313,30.669,24.11,12.546,9.014,5.811
1597,0.908,36.573,28.402,30.707,24.12,12.748,9.013,5.932
1598,0.912,36.613,28.403,30.727,24.117,12.953,9.176,6.014
1599,0.908,36.277,28.469,30.669,24.103,12.956,8.933,5.852
1600,0.908,36.456,28.384,30.698,24.106,13.24,9.093,5.932
1601,0.918,36.554,28.406,30.688,24.113,13.528,9.136,5.933
1602,0.915,36.89,28.438,30.707,24.113,13.856,9.339,5.892
1603,0.931,36.376,28.446,30.679,24.11,14.022,9.342,5.811
1604,0.931,36.515,28.391,30.726,24.12,14.186,9.667,5.891
1605,0.918,36.593,28.402,30.756,24.103,14.269,9.751,5.892
1606,0.915,36.373,28.399,30.679,24.106,14.27,9.915,5.811
1607,0.922,36.4,28.434,30.726,24.124,14.392,10.201,5.972
1608,0.905,36.496,28.43,30.708,24.113,14.271,10.204,5.852
1609,0.905,36.564,28.461,30.698,24.113,14.188,10.285,5.932
1610,0.899,36.334,28.427,30.698,24.11,14.106,10.286,5.892
1611,0.918,36.428,28.414,30.698,24.113,13.983,10.408,5.892
1612,0.905,36.544,28.453,30.688,24.103,13.82,10.328,5.933
1613,0.902,36.651,28.403,30.707,24.11,13.696,10.449,5.933
1614,0.889,36.259,28.434,30.775,24.113,13.532,10.491,5.974
1615,0.885,36.389,28.376,30.679,24.103,13.205,10.369,5.811
1616,0.911,36.534,28.41,30.726,24.113,13.08,10.449,5.932
1617,0.899,36.593,28.418,30.708,24.11,12.957,10.41,5.892
1618,0.912,36.507,28.485,30.708,24.113,12.833,10.328,5.933
1619,0.912,36.631,28.411,30.708,24.11,12.588,10.205,5.852
1620,0.918,36.786,28.43,30.727,24.113,12.464,10.285,5.891
1621,0.922,36.816,28.442,30.708,24.106,12.219,10.083,5.892
1622,0.941,36.078,28.422,30.708,24.12,12.257,10.04,5.892
1623,0.932,36.253,28.364,30.755,24.12,12.217,10.08,6.014
1624,0.928,36.322,28.379,30.708,24.099,12.013,9.837,5.934
1625,0.941,36.38,28.418,30.727,24.113,12.052,9.916,5.852
1626,0.945,36.419,28.453,30.727,24.11,12.011,9.794,5.891
1627,0.928,36.553,28.481,30.727,24.11,11.97,9.834,5.851
1628,0.931,36.641,28.462,30.708,24.099,11.889,9.712,5.851
1629,0.918,36.69,28.419,30.736,24.117,12.01,9.67,5.932
1630,0.909,37.601,28.399,30.698,24.106,11.889,9.589,5.852
1631,0.912,37.716,28.453,30.707,24.106,11.847,9.669,5.891
1632,0.922,37.842,28.407,30.775,24.12,11.928,9.67,6.095
1633,0.892,37.172,28.403,30.727,24.11,11.644,9.507,5.935
1634,0.892,35.66,28.418,30.736,24.11,11.641,9.506,5.974
1635,0.908,35.788,28.446,30.727,24.106,11.601,9.506,5.893
1636,0.905,35.914,28.461,30.727,24.12,11.6,9.384,5.973
1637,0.905,36.299,28.458,30.727,24.11,11.478,9.342,5.893
1638,0.918,36.476,28.399,30.736,24.113,11.436,9.342,5.973
1639,0.918,36.612,28.406,30.746,24.113,11.273,9.26,5.893
1640,0.899,36.671,28.418,30.708,24.099,11.231,9.178,5.77
1641,0.905,36.192,28.442,30.746,24.117,11.434,9.259,5.972
1642,0.899,36.273,28.419,30.737,24.113,11.314,9.137,5.852
1643,0.918,36.408,28.407,30.727,24.12,11.353,9.136,5.891
1644,0.918,36.477,28.445,30.736,24.103,11.476,9.014,5.851
1645,0.912,36.65,28.469,30.727,24.113,11.64,8.85,5.973
1646,0.912,36.786,28.431,30.727,24.106,11.723,8.808,5.852
1647,0.918,36.912,28.391,30.756,24.113,12.008,8.848,5.973
1648,0.938,36.98,28.414,30.813,24.117,12.296,8.808,6.015
1649,0.906,35.869,28.391,30.709,24.096,12.258,8.604,5.812
1650,0.908,36.049,28.453,30.746,24.113,12.542,8.724,5.891
1651,0.902,36.166,28.348,30.727,24.11,12.626,8.603,5.973
1652,0.879,36.225,28.39,30.746,24.11,12.79,8.643,5.933
1653,0.898,36.446,28.418,30.727,24.113,12.791,8.44,5.933
1654,0.905,36.611,28.469,30.746,24.11,12.994,8.519,5.974
1655,0.899,36.699,28.454,30.737,24.106,12.915,8.439,5.933
1656,0.899,36.739,28.43,30.756,24.11,13.037,8.519,6.014
1657,0.915,36.154,28.333,30.756,24.117,13.119,8.479,6.096
1658,0.886,36.263,28.374,30.718,24.092,12.917,8.276,5.894
1659,0.898,36.399,28.426,30.756,24.106,12.955,8.436,6.014
1660,0.905,36.4,28.453,30.737,24.113,12.996,8.479,6.015
1661,0.918,36.227,28.407,30.746,24.113,12.956,8.56,6.056
1662,0.899,36.369,28.395,30.765,24.11,12.956,8.602,5.975
1663,0.921,36.476,28.453,30.766,24.113,12.996,8.765,6.015
1664,0.915,36.343,28.45,30.737,24.106,12.956,8.767,6.015
1665,0.896,36.265,28.391,30.756,24.11,12.996,8.929,6.015
1666,0.908,36.418,28.34,30.794,24.12,13.078,9.134,6.178
1667,0.876,36.467,28.402,30.718,24.099,12.835,8.974,6.098
1668,0.876,36.247,28.403,30.746,24.113,12.832,9.094,6.138
1669,0.876,36.341,28.461,30.756,24.11,12.71,9.095,5.976
1670,0.876,36.457,28.399,30.756,24.113,12.668,9.136,6.096
1671,0.885,36.535,28.391,30.746,24.103,12.546,9.095,5.935
1672,0.889,36.046,28.426,30.765,24.113,12.545,9.217,6.136
1673,0.882,36.157,28.453,30.746,24.103,12.423,9.056,6.057
1674,0.872,36.273,28.411,30.737,24.117,12.503,9.054,6.056
1675,0.892,36.399,28.344,30.794,24.12,12.788,9.257,6.219
1676,0.879,36.275,28.382,30.775,24.11,12.832,9.056,6.058
1677,0.882,36.399,28.41,30.766,24.11,13.157,9.054,6.097
1678,0.872,36.505,28.414,30.766,24.11,13.405,8.973,6.056
1679,0.879,36.574,28.492,30.756,24.117,13.732,8.972,6.056
1680,0.879,36.181,28.423,30.785,24.106,13.98,8.972,6.056
1681,0.895,36.302,28.399,30.775,24.117,14.185,8.891,6.178
1682,0.905,36.418,28.426,30.785,24.113,14.35,8.971,6.139
1683,0.892,36.438,28.438,30.737,24.103,14.311,8.769,5.976
1684,0.889,36.151,28.348,30.775,24.117,14.595,8.889,6.137
1685,0.895,36.273,28.406,30.766,24.117,14.558,8.809,6.138
1686,0.882,36.408,28.379,30.775,24.11,14.557,8.848,6.138
1687,0.879,36.41,28.406,30.775,24.106,14.476,8.727,6.057
1688,0.879,36.179,28.469,30.766,24.117,14.475,8.726,6.219
1689,0.863,36.283,28.47,30.756,24.106,14.272,8.644,6.098
1690,0.875,36.447,28.427,30.794,24.113,14.27,8.765,6.138
1691,0.879,36.726,28.426,30.795,24.131,14.188,8.726,6.179
1692,0.853,36.183,28.461,30.737,24.1,13.862,8.522,6.017
1693,0.866,36.34,28.423,30.784,24.113,13.859,8.642,6.137
1694,0.879,36.447,28.336,30.795,24.106,13.615,8.521,6.098
1695,0.859,36.266,28.39,30.785,24.113,13.531,8.52,6.138
1696,0.869,36.245,28.387,30.766,24.11,13.368,8.52,6.016
1697,0.866,36.379,28.434,30.775,24.113,13.447,8.601,6.178
1698,0.866,36.457,28.446,30.766,24.106,13.57,8.602,6.057
1699,0.869,36.18,28.434,30.775,24.113,13.938,8.765,6.137
1700,0.889,36.302,28.415,30.804,24.12,14.144,9.051,6.219
1701,0.866,36.389,28.422,30.776,24.106,14.106,9.013,6.139
1702,0.862,36.505,28.438,30.775,24.113,14.309,9.176,6.057
1703,0.875,36.085,28.36,30.766,24.106,14.473,9.34,6.137
1704,0.885,36.215,28.398,30.794,24.113,14.638,9.626,6.057
1705,0.879,36.35,28.395,30.785,24.106,14.68,9.67,6.056
1706,0.869,36.428,28.438,30.804,24.117,14.843,10.036,6.137
1707,0.859,36.218,28.438,30.785,24.11,14.845,10.08,6.138
1708,0.843,36.34,28.461,30.766,24.099,14.885,10.162,5.976
1709,0.859,36.514,28.364,30.833,24.124,15.048,10.447,6.177
1710,0.846,36.545,28.398,30.805,24.106,14.928,10.45,6.057
1711,0.836,36.142,28.438,30.785,24.113,15.008,10.572,6.097
1712,0.817,36.253,28.454,30.795,24.106,15.05,10.574,6.097
1713,0.833,36.379,28.321,30.804,24.113,15.253,10.655,6.178
1714,0.839,36.419,28.378,30.776,24.113,15.296,10.615,6.057
1715,0.817,36.496,28.433,30.804,24.117,15.5,10.696,6.178
1716,0.839,36.612,28.454,30.804,24.11,15.461,10.819,6.098
1717,0.843,36.699,28.462,30.756,24.096,15.461,10.535,5.975
1718,0.853,36.748,28.462,30.785,24.113,15.461,10.695,6.055
1719,0.866,35.914,28.329,30.804,24.113,15.461,10.575,6.015
1720,0.882,36.05,28.398,30.804,24.11,15.379,10.614,6.096
1721,0.866,36.147,28.449,30.795,24.106,15.297,10.493,6.056
1722,0.879,36.34,28.446,30.804,24.11,15.256,10.491,6.097
1723,0.866,36.265,28.422,30.852,24.106,15.052,10.329,6.056
1724,0.856,36.418,28.422,30.805,24.113,15.05,10.286,6.056
1725,0.856,36.544,28.442,30.833,24.117,15.05,10.367,6.137
1726,0.846,36.094,28.43,30.785,24.092,14.765,10.043,5.976
1727,0.856,36.138,28.457,30.823,24.103,14.885,10.04,6.096
1728,0.849,36.263,28.438,30.814,24.106,14.804,9.958,6.056
1729,0.856,36.36,28.422,30.824,24.092,14.803,9.957,6.137
1730,0.843,36.035,28.387,30.805,24.106,14.803,9.754,6.098
1731,0.82,36.156,28.457,30.804,24.113,14.763,9.833,6.138
1732,0.807,36.263,28.43,30.804,24.103,14.6,9.672,6.098
1733,0.829,36.341,28.422,30.852,24.103,14.639,9.548,6.178
1734,0.843,36.179,28.43,30.824,24.124,14.639,9.628,6.261
1735,0.813,36.263,28.411,30.795,24.106,14.355,9.385,5.977
1736,0.826,36.418,28.453,30.814,24.113,14.311,9.342,6.055
1737,0.836,36.477,28.469,30.814,24.113,14.189,9.26,6.056
1738,0.849,36.017,28.47,30.804,24.106,14.147,9.178,6.137
1739,0.836,36.156,28.442,30.823,24.103,14.024,9.096,6.057
1740,0.839,36.292,28.395,30.814,24.11,13.983,9.136,6.137
1741,0.836,36.341,28.445,30.814,24.106,13.82,8.933,6.098
1742,0.878,36.188,28.368,30.804,24.106,13.737,8.89,6.016
1743,0.859,36.359,28.398,30.843,24.131,13.817,9.052,6.137
1744,0.83,36.438,28.395,30.795,24.106,13.574,8.769,6.016
1745,0.859,36.496,28.438,30.833,24.11,13.368,8.929,6.096
1746,0.84,36.142,28.481,30.824,24.117,13.244,8.768,6.056
1747,0.843,36.282,28.485,30.814,24.11,13.121,8.807,6.097
1748,0.826,36.389,28.454,30.814,24.106,12.957,8.686,6.016
1749,0.83,36.419,28.426,30.843,24.12,12.874,8.766,6.137
1750,0.833,36.227,28.399,30.814,24.117,12.711,8.685,6.057
1751,0.833,36.36,28.453,30.814,24.11,12.628,8.644,5.975
1752,0.81,36.505,28.407,30.852,24.12,12.749,8.765,6.218
1753,0.79,36.324,28.399,30.834,24.11,12.588,8.604,6.098
1754,0.81,36.207,28.414,30.833,24.113,12.667,8.643,6.097
1755,0.81,36.331,28.442,30.805,24.103,12.709,8.603,6.056
1756,0.816,36.428,28.465,30.833,24.113,12.872,8.643,6.097
1757,0.81,36.093,28.462,30.814,24.099,12.833,8.644,6.016
1758,0.826,36.176,28.454,30.833,24.113,13.036,8.847,6.056
1759,0.826,36.321,28.446,30.843,24.106,12.997,9.093,6.056
1760,0.839,36.39,28.415,30.814,24.106,12.915,9.258,6.015
1761,0.859,36.285,28.465,30.881,24.124,13.158,9.788,6.178
1762,0.83,36.37,28.36,30.824,24.11,12.917,9.875,6.017
1763,0.839,36.505,28.398,30.833,24.106,12.955,10.241,6.056
1764,0.865,36.583,28.399,30.833,24.11,12.874,10.489,6.137
1765,0.846,36.057,28.434,30.843,24.113,12.873,10.695,6.057
1766,0.82,36.176,28.469,30.824,24.099,12.711,10.819,5.975
1767,0.843,36.321,28.485,30.843,24.117,12.831,11.064,6.096
1768,0.853,36.351,28.431,30.843,24.11,12.629,11.107,6.097
1769,0.843,36.083,28.415,30.805,24.113,12.505,11.108,6.016
1770,0.846,36.253,28.426,30.881,24.12,12.585,11.351,6.178
1771,0.849,36.331,28.461,30.843,24.11,12.383,11.232,6.057
1772,0.853,36.39,28.36,30.853,24.106,12.258,11.19,6.056
1773,0.862,36.141,28.379,30.843,24.113,12.095,11.149,6.056
1774,0.866,36.282,28.406,30.853,24.11,12.052,11.189,6.137
1775,0.862,36.36,28.41,30.843,24.11,11.727,11.068,5.976
1776,0.895,36.419,28.473,30.881,24.117,11.723,11.026,6.055
1777,0.918,36.141,28.454,30.872,24.12,11.561,11.107,6.137
1778,0.922,36.244,28.43,30.824,24.099,11.315,10.904,5.854
1779,0.961,36.379,28.415,30.862,24.113,11.313,11.024,6.054
1780,0.942,36.707,28.43,30.853,24.11,11.232,10.944,6.097
1781,0.945,36.173,28.434,30.862,24.113,11.149,10.943,6.097
1782,0.938,36.283,28.379,30.862,24.106,11.108,10.781,6.056
1783,0.971,36.408,28.406,30.872,24.117,11.148,10.901,6.097
1784,0.964,36.199,28.418,30.834,24.11,11.108,10.699,5.975
1785,0.981,36.206,28.461,30.872,24.113,11.311,10.819,6.096
1786,1.0,36.36,28.442,30.882,24.124,11.557,10.82,6.178
1787,1.004,36.39,28.434,30.834,24.103,11.6,10.495,6.017
1788,1.033,36.15,28.364,30.862,24.11,11.885,10.573,6.056
1789,1.007,36.244,28.402,30.872,24.12,12.091,10.451,6.097
1790,1.004,36.36,28.43,30.882,24.12,12.215,10.41,6.097
1791,1.017,36.438,28.422,30.872,24.113,12.338,10.287,6.016
1792,1.023,36.103,28.407,30.891,24.117,12.38,10.245,6.178
1793,1.01,36.205,28.395,30.853,24.103,12.421,10.164,6.017
1794,1.014,36.36,28.449,30.881,24.12,12.625,10.122,6.096
1795,1.023,36.428,28.469,30.901,24.12,12.708,10.081,6.178
1796,1.049,36.036,28.431,30.834,24.103,12.587,9.837,6.017
1797,1.056,36.204,28.422,30.891,24.11,12.749,9.834,6.096
1798,1.043,36.321,28.325,30.872,24.11,12.791,9.794,6.138
1799,1.043,36.39,28.386,30.882,24.113,12.873,9.671,6.138
1800,1.053,36.083,28.422,30.863,24.106,12.833,9.507,6.057
1801,1.076,36.243,28.387,30.891,24.113,12.954,9.465,6.178
1802,1.089,36.341,28.395,30.882,24.106,12.833,9.424,6.098
1803,1.066,36.399,28.418,30.872,24.12,12.873,9.302,6.056
1804,1.089,36.074,28.481,30.91,24.124,12.995,9.423,6.3
1805,1.076,36.166,28.474,30.853,24.103,12.712,9.18,6.18
1806,1.079,36.283,28.407,30.891,24.11,12.75,9.137,6.22
1807,1.066,36.322,28.364,30.882,24.113,12.709,9.136,6.098
1808,1.04,36.14,28.379,30.872,24.11,12.75,9.014,6.219
1809,1.011,36.234,28.367,30.863,24.11,12.628,8.891,6.098
1810,1.017,36.36,28.437,30.901,24.11,12.708,8.971,6.219
1811,1.01,36.61,28.364,30.892,24.11,12.668,8.972,6.18
1812,1.004,36.613,28.363,30.882,24.106,12.587,8.85,6.098
1813,1.02,36.805,28.422,30.93,24.12,12.749,9.133,6.219
1814,1.014,36.874,28.45,30.882,24.113,12.628,9.177,6.22
1815,1.027,35.916,28.438,30.891,24.113,12.546,9.421,6.18
1816,1.033,35.839,28.399,30.891,24.106,12.382,9.627,6.139
1817,1.043,35.972,28.371,30.901,24.106,12.421,9.995,6.179
1818,1.014,36.06,28.383,30.882,24.103,12.218,10.121,6.098
1819,1.01,36.09,28.418,30.901,24.11,12.257,10.528,6.178
1820,1.01,36.215,28.43,30.92,24.12,12.298,10.736,6.301
1821,0.968,36.302,28.383,30.873,24.096,11.932,10.697,6.099
1822,0.99,36.447,28.395,30.901,24.106,12.01,10.941,6.219
1823,0.991,35.931,28.438,30.882,24.113,11.93,11.024,6.18
1824,0.984,36.079,28.461,30.901,24.113,11.97,11.229,6.179
1825,0.968,36.176,28.434,30.901,24.106,11.807,11.231,6.139
1826,0.958,36.283,28.407,30.901,24.12,11.806,11.393,6.301
1827,0.958,36.025,28.348,30.901,24.11,11.684,11.314,6.18
1828,0.951,36.166,28.379,30.92,24.113,11.56,11.394,6.22
1829,0.928,36.321,28.422,30.93,24.12,11.559,11.517,6.342
1830,0.883,36.303,28.422,30.901,24.106,11.397,11.396,6.14
1831,0.872,35.967,28.407,30.92,24.113,11.314,11.354,6.26
1832,0.879,36.098,28.399,30.92,24.11,11.313,11.232,6.18
1833,0.872,36.224,28.438,30.92,24.11,11.272,11.231,6.261
1834,0.856,36.245,28.438,30.882,24.11,11.231,11.109,6.18
1835,0.859,36.024,28.411,30.911,24.106,11.353,11.148,6.261
1836,0.836,36.118,28.356,30.911,24.103,11.354,10.945,6.139
1837,0.843,36.263,28.312,30.92,24.106,11.517,10.862,6.219
1838,0.859,36.303,28.406,30.949,24.127,11.925,10.942,6.383
1839,0.849,36.015,28.414,30.921,24.113,12.01,10.74,6.222
1840,0.843,36.166,28.426,30.92,24.113,12.336,10.697,6.261
1841,0.843,36.254,28.407,30.93,24.11,12.584,10.656,6.18
1842,0.866,36.13,28.406,30.911,24.12,12.911,10.574,6.139
1843,0.869,36.014,28.445,30.911,24.106,12.955,10.37,6.179
1844,0.84,36.166,28.446,30.92,24.113,13.159,10.409,6.179
1845,0.83,36.235,28.376,30.901,24.113,13.202,10.247,6.22
1846,0.807,35.928,28.289,30.901,24.106,13.202,10.164,6.139
1847,0.846,36.079,28.405,30.949,24.12,13.324,10.204,6.301
1848,0.827,36.138,28.395,30.93,24.113,13.122,10.123,6.18
1849,0.817,36.234,28.43,30.921,24.117,13.079,9.959,6.22
1850,0.797,35.89,28.403,30.901,24.106,12.997,9.998,6.139
1851,0.794,36.03,28.399,30.911,24.12,12.996,9.999,6.219
1852,0.784,36.137,28.41,30.93,24.11,12.793,9.795,6.18
1853,0.79,36.244,28.457,30.94,24.11,12.751,9.834,6.301
1854,0.777,35.938,28.419,30.911,24.113,12.588,9.834,6.262
1855,0.79,36.079,28.352,30.901,24.103,12.383,9.55,6.221
1856,0.816,36.253,28.281,30.949,24.12,12.503,9.669,6.342
1857,0.82,36.293,28.39,30.921,24.106,12.219,9.507,6.303
1858,0.833,35.814,28.406,30.94,24.106,12.094,9.465,6.343
1859,0.839,35.943,28.434,30.93,24.11,11.93,9.383,6.303
1860,0.82,36.069,28.376,30.93,24.11,11.807,9.301,6.343
1861,0.817,36.099,28.398,30.921,24.103,11.684,9.178,6.303
1862,0.826,35.985,28.453,30.94,24.12,11.886,9.218,6.343
1863,0.826,36.118,28.446,30.94,24.117,11.969,9.178,6.384
1864,0.807,36.215,28.36,30.911,24.103,11.848,8.933,6.263
1865,0.787,36.283,28.39,30.997,24.117,12.172,9.012,6.384
1866,0.777,35.938,28.383,30.921,24.113,12.256,8.932,6.344
1867,0.754,36.079,28.406,30.949,24.113,12.42,8.85,6.384
1868,0.754,36.157,28.414,30.921,24.11,12.584,8.686,6.303
1869,0.77,36.541,28.485,30.949,24.12,12.789,8.847,6.547
1870,0.761,35.864,28.415,30.93,24.106,12.913,8.605,6.386
1871,0.774,36.02,28.375,30.969,24.113,13.118,8.643,6.425
1872,0.78,36.128,28.449,30.978,24.117,13.282,8.725,6.548
1873,0.758,35.956,28.426,30.921,24.103,13.081,8.481,6.346
1874,0.751,36.031,28.372,30.949,24.12,13.201,8.601,6.466
1875,0.751,36.156,28.379,30.95,24.12,13.121,8.521,6.426
1876,0.751,36.254,28.359,30.959,24.113,13.079,8.561,6.466
1877,0.774,35.823,28.363,30.94,24.106,13.079,8.521,6.386
1878,0.774,35.915,28.426,30.959,24.11,13.079,8.601,6.466
1879,0.78,36.031,28.434,30.95,24.117,12.835,8.521,6.304
1880,0.8,36.128,28.399,30.95,24.106,12.751,8.683,6.384
1881,0.823,35.86,28.41,30.969,24.124,12.75,8.807,6.629
1882,0.82,35.925,28.446,30.94,24.106,12.547,8.848,6.346
1883,0.826,36.06,28.383,30.949,24.11,12.464,9.052,6.384
1884,0.836,36.166,28.383,30.95,24.106,12.219,9.176,6.344
1885,0.852,35.861,28.387,30.95,24.113,12.176,9.502,6.425
1886,0.84,36.001,28.406,30.95,24.099,11.972,9.546,6.344
1887,0.869,36.147,28.453,30.959,24.12,11.97,9.75,6.425
1888,0.879,36.186,28.43,30.94,24.11,11.97,9.793,6.507
1889,0.872,35.851,28.383,30.949,24.11,11.807,9.834,6.345
1890,0.931,36.059,28.406,30.978,24.131,11.968,10.078,6.628
1891,0.931,36.128,28.422,30.959,24.113,11.767,10.04,6.509
1892,0.974,36.177,28.426,30.959,24.117,11.764,10.121,6.508
1893,1.013,35.832,28.348,30.959,24.11,11.805,10.041,6.508
1894,1.027,35.972,28.39,30.969,24.11,11.887,10.121,6.549
1895,1.056,36.089,28.406,30.959,24.106,11.725,10.122,6.468
1896,1.131,36.138,28.43,30.988,24.12,11.846,10.122,6.507
1897,1.177,35.966,28.454,30.969,24.11,11.725,10.041,6.508
1898,1.201,36.089,28.45,30.959,24.106,11.561,9.918,6.467
1899,1.298,36.243,28.364,30.998,24.12,11.762,10.079,6.629
1900,1.342,36.168,28.39,30.96,24.106,11.764,9.959,6.468
1901,1.371,35.784,28.43,30.988,24.113,11.764,9.917,6.507
1902,1.385,35.905,28.415,30.979,24.106,11.724,9.876,6.467
1903,1.408,36.059,28.418,31.046,24.113,11.846,9.835,6.507
1904,1.405,35.917,28.399,30.96,24.106,11.725,9.631,6.427
1905,1.44,36.011,28.434,30.978,24.113,11.846,9.67,6.426
1906,1.45,36.166,28.473,31.007,24.124,12.009,9.67,6.588
1907,1.418,36.177,28.454,30.969,24.099,12.011,9.385,6.346
1908,1.395,36.244,28.438,30.998,24.11,12.377,9.423,6.466
1909,1.372,36.389,28.391,31.036,24.11,12.828,9.342,6.467
1910,1.388,36.486,28.367,30.979,24.113,13.157,9.301,6.507
1911,1.339,36.573,28.422,30.979,24.11,13.405,9.138,6.467
1912,1.332,35.51,28.407,30.979,24.12,13.814,9.299,6.507
1913,1.326,35.624,28.367,30.959,24.11,13.981,9.097,6.467
1914,1.313,35.759,28.383,30.978,24.106,14.104,9.095,6.426
1915,1.326,35.885,28.426,31.026,24.124,14.39,9.136,6.629
1916,1.257,35.887,28.453,30.989,24.103,14.434,9.014,6.509
1917,1.234,36.03,28.469,30.979,24.11,14.475,9.054,6.549
1918,1.227,36.166,28.423,30.979,24.106,14.516,8.891,6.468
1919,1.208,36.235,28.395,30.998,24.12,14.475,9.012,6.548
1920,1.178,35.727,28.383,30.969,24.103,14.353,8.81,6.468
1921,1.139,35.885,28.422,31.007,24.12,14.352,8.93,6.548
1922,1.054,35.982,28.344,31.017,24.12,14.271,8.85,6.63
1923,0.994,36.012,28.359,30.96,24.099,13.945,8.646,6.306
1924,0.948,35.792,28.402,31.007,24.12,14.022,8.765,6.587
1925,0.893,35.905,28.442,30.979,24.117,13.698,8.685,6.549
1926,0.785,36.031,28.465,30.998,24.113,13.654,8.684,6.549
1927,0.728,36.032,28.45,30.988,24.106,13.369,8.562,6.508
1928,0.663,35.859,28.403,31.017,24.113,13.204,8.521,6.508
1929,0.61,35.992,28.379,30.989,24.103,13.039,8.439,6.467
1930,0.574,36.108,28.41,31.017,24.12,12.916,8.519,6.548
1931,0.521,35.879,28.434,31.008,24.12,12.792,8.52,6.63
1932,0.485,35.723,28.294,30.998,24.099,12.385,8.276,6.468
1933,0.511,35.875,28.386,31.008,24.106,12.381,8.396,6.589
1934,0.511,35.963,28.395,31.008,24.113,12.218,8.438,6.509
1935,0.472,35.791,28.426,30.988,24.106,12.054,8.438,6.589
1936,0.488,35.876,28.446,30.998,24.103,11.889,8.357,6.509
1937,0.52,36.011,28.442,31.017,24.11,11.969,8.478,6.589
1938,0.488,36.08,28.36,30.998,24.11,12.011,8.316,6.509
1939,0.498,35.649,28.375,30.998,24.106,12.174,8.396,6.549
1940,0.459,35.788,28.433,31.055,24.127,12.541,8.519,6.712
1941,0.419,35.866,28.395,30.998,24.106,12.586,8.439,6.551
1942,0.38,35.992,28.387,31.008,24.11,12.789,8.479,6.549
1943,0.353,35.677,28.395,31.027,24.106,12.994,8.52,6.508
1944,0.356,35.817,28.43,30.998,24.117,13.241,8.479,6.549
1945,0.376,35.934,28.442,30.979,24.113,13.243,8.438,6.508
1946,0.422,36.021,28.442,31.026,24.113,13.324,8.601,6.63
1947,0.422,35.821,28.403,31.008,24.11,13.244,8.562,6.631
1948,0.425,35.972,28.34,31.008,24.106,13.284,8.439,6.509
1949,0.439,36.127,28.378,31.056,24.131,13.365,8.641,6.63
1950,0.429,36.138,28.402,30.998,24.11,13.285,8.562,6.55
1951,0.448,35.707,28.391,31.008,24.113,13.243,8.439,6.508
1952,0.475,35.837,28.379,31.084,24.106,13.243,8.438,6.508
1953,0.472,35.972,28.375,31.028,24.117,13.324,8.56,6.549
1954,0.498,35.974,28.418,30.998,24.096,13.203,8.399,6.508
1955,0.488,35.859,28.457,31.017,24.12,13.283,8.478,6.63
1956,0.501,35.953,28.45,31.017,24.113,13.203,8.398,6.509
1957,0.501,36.069,28.411,30.998,24.099,13.121,8.316,6.467
1958,0.534,36.502,28.371,31.046,24.12,13.242,8.437,6.67
1959,0.56,35.864,28.367,31.027,24.106,13.04,8.397,6.672
1960,0.557,36.011,28.39,31.027,24.11,12.956,8.356,6.591
1961,0.547,36.07,28.414,31.027,24.113,12.874,8.275,6.549
1962,0.576,35.821,28.395,31.008,24.113,12.792,8.355,6.63
1963,0.609,35.771,28.383,31.017,24.099,12.669,8.234,6.55
1964,0.629,35.943,28.43,31.046,24.113,12.627,8.233,6.712
1965,0.649,36.021,28.438,31.037,24.117,12.586,8.273,6.632
1966,0.668,35.744,28.415,31.017,24.099,12.301,8.111,6.509
1967,0.672,35.885,28.426,31.046,24.117,12.421,8.232,6.67
1968,0.688,35.963,28.336,31.037,24.106,12.259,8.192,6.672
1969,0.708,36.089,28.363,31.037,24.113,12.257,8.192,6.631
1970,0.718,35.543,28.398,31.037,24.106,12.135,8.192,6.55
1971,0.744,35.701,28.41,31.056,24.11,12.134,8.314,6.671
1972,0.734,35.808,28.383,31.037,24.106,11.972,8.315,6.672
1973,0.751,35.895,28.383,31.037,24.11,11.97,8.64,6.713
1974,0.731,35.896,28.422,31.065,24.12,12.011,8.969,6.835
1975,0.751,35.983,28.442,31.027,24.103,11.645,9.094,6.592
1976,0.757,36.137,28.43,31.037,24.11,11.804,9.502,6.712
1977,0.764,36.186,28.415,31.046,24.113,11.684,9.75,6.632
1978,0.78,35.602,28.34,31.046,24.11,11.52,10.037,6.672
1979,0.774,35.721,28.371,31.056,24.11,11.437,10.162,6.55
1980,0.771,35.856,28.418,31.046,24.117,11.436,10.407,6.752
1981,0.793,35.886,28.387,31.046,24.11,11.192,10.491,6.632
1982,0.81,35.771,28.391,31.065,24.113,11.108,10.614,6.672
1983,0.81,35.943,28.371,31.094,24.124,11.23,10.818,6.794
1984,0.794,35.983,28.422,31.047,24.106,10.987,10.657,6.673
1985,0.813,36.051,28.457,31.065,24.11,10.944,10.737,6.672
1986,0.787,35.735,28.411,31.056,24.113,10.821,10.819,6.672
1987,0.787,35.875,28.371,31.056,24.113,10.739,10.739,6.713
1988,0.774,35.973,28.285,31.066,24.106,10.657,10.616,6.591
1989,0.787,36.012,28.382,31.056,24.113,10.696,10.655,6.671
1990,0.774,35.725,28.414,31.056,24.11,10.534,10.574,6.672
1991,0.774,35.856,28.368,31.056,24.106,10.451,10.492,6.55
1992,0.793,36.011,28.379,31.085,24.124,10.613,10.573,6.752
1993,0.751,35.734,28.383,31.056,24.11,10.33,10.37,6.632
1994,0.738,35.78,28.437,31.075,24.11,10.286,10.328,6.631
1995,0.751,35.914,28.45,31.056,24.11,10.205,10.165,6.631
1996,0.777,36.011,28.411,31.075,24.11,10.245,10.122,6.59
1997,0.78,35.638,28.352,31.066,24.106,10.082,10.0,6.549
1998,0.793,35.798,28.379,31.075,24.113,10.121,9.917,6.63
1999,0.806,35.905,28.375,31.075,24.106,10.203,9.957,6.631
2000,0.807,35.954,28.426,31.047,24.103,10.082,9.714,6.387
2001,0.807,35.763,28.313,31.094,24.113,10.365,9.792,6.547
2002,0.807,35.876,28.359,31.085,24.106,10.449,9.671,6.508
2003,0.803,36.011,28.406,31.075,24.113,10.572,9.589,6.549
2004,0.8,36.06,28.442,31.075,24.11,10.574,9.507,6.468
2005,0.787,35.629,28.407,31.085,24.113,10.777,9.506,6.589
2006,0.774,35.75,28.332,31.066,24.103,10.779,9.384,6.468
2007,0.819,35.904,28.308,31.085,24.11,10.982,9.342,6.548
2008,0.817,35.973,28.37,31.104,24.117,11.228,9.464,6.63
2009,0.781,35.878,28.402,31.047,24.103,11.149,9.099,6.468
2010,0.8,36.049,28.406,31.075,24.106,11.271,9.176,6.507
2011,0.771,36.176,28.395,31.075,24.106,11.312,9.177,6.467
2012,0.777,36.225,28.391,31.075,24.106,11.435,9.177,6.548
2013,0.761,35.564,28.406,31.066,24.103,11.314,9.177,6.468
2014,0.757,35.72,28.438,31.094,24.117,11.475,9.137,6.548
2015,0.761,35.847,28.383,31.076,24.106,11.396,9.177,6.468
2016,0.787,35.838,28.309,31.066,24.106,11.232,8.974,6.426
2017,0.819,35.79,28.296,31.114,24.12,11.353,9.175,6.548
2018,0.777,35.905,28.382,31.095,24.113,11.273,9.096,6.468
2019,0.816,36.021,28.414,31.095,24.11,11.231,9.054,6.548
2020,0.807,35.83,28.391,31.095,24.106,11.271,9.054,6.549
2021,0.8,35.752,28.387,31.095,24.11,11.312,9.095,6.549
2022,0.81,35.856,28.356,31.056,24.106,11.272,8.892,6.468
2023,0.82,35.982,28.414,31.094,24.12,11.312,9.052,6.467
2024,0.803,35.715,28.418,31.095,24.127,11.475,9.095,6.589
2025,0.807,35.751,28.332,31.047,24.093,11.274,8.892,6.387
2026,0.823,35.914,28.273,31.085,24.106,11.272,8.971,6.507
2027,0.807,36.011,28.358,31.075,24.11,11.394,8.931,6.508
2028,0.813,35.658,28.371,31.085,24.106,11.314,8.931,6.508
2029,0.781,35.769,28.422,31.075,24.113,11.313,8.85,6.467
2030,0.79,35.905,28.407,31.095,24.117,11.394,8.849,6.507
2031,0.764,35.963,28.375,31.076,24.103,11.273,8.727,6.467
2032,0.793,35.619,28.394,31.095,24.117,11.475,8.766,6.467
2033,0.79,35.778,28.445,31.133,24.12,11.599,8.848,6.629
2034,0.774,35.857,28.399,31.076,24.106,11.478,8.605,6.468
2035,0.806,35.934,28.328,31.114,24.11,11.68,8.602,6.507
2036,0.797,35.619,28.382,31.152,24.106,11.804,8.562,6.549
2037,0.784,35.788,28.379,31.105,24.113,12.009,8.521,6.468
2038,0.797,35.886,28.367,31.076,24.11,12.092,8.439,6.426
2039,0.826,35.954,28.457,31.114,24.113,12.418,8.479,6.548
2040,0.82,35.59,28.337,31.104,24.106,12.503,8.357,6.427
2041,0.797,35.74,28.363,31.095,24.106,12.626,8.275,6.426
2042,0.826,35.885,28.414,31.143,24.12,12.993,8.396,6.629
2043,0.794,35.877,28.43,31.086,24.106,12.956,8.234,6.428
2044,0.78,35.704,28.375,31.104,24.11,13.037,8.233,6.426
2045,0.793,35.808,28.285,31.095,24.106,13.038,8.151,6.385
2046,0.793,35.934,28.358,31.114,24.113,13.16,8.11,6.466
2047,0.777,36.319,28.359,31.095,24.099,13.202,8.069,6.386
2048,0.813,35.814,28.41,31.114,24.113,13.405,8.15,6.507
2049,0.81,35.915,28.449,31.085,24.113,13.407,8.11,6.386
2050,0.8,36.002,28.329,31.114,24.103,13.326,7.987,6.344
2051,0.81,35.821,28.363,31.143,24.12,13.569,8.23,6.547
2052,0.79,35.79,28.418,31.114,24.113,13.49,8.273,6.346
2053,0.767,35.905,28.43,31.124,24.113,13.53,8.396,6.466
2054,0.777,36.011,28.344,31.124,24.11,13.612,8.478,6.426
2055,0.78,35.591,28.351,31.105,24.106,13.735,8.682,6.426
2056,0.787,35.682,28.347,31.114,24.103,13.736,8.725,6.304
2057,0.797,35.798,28.351,31.133,24.103,13.98,8.929,6.465
2058,0.813,35.876,28.394,31.114,24.11,13.942,9.012,6.345
2059,0.803,35.858,28.445,31.095,24.099,13.941,9.013,6.303
2060,0.816,36.068,28.407,31.133,24.113,14.185,9.257,6.384
2061,0.807,36.138,28.356,31.124,24.106,14.065,9.259,6.344
2062,0.803,36.234,28.414,31.133,24.113,14.105,9.3,6.425
2063,0.813,35.363,28.387,31.105,24.106,14.065,9.341,6.385
2064,0.829,35.526,28.328,31.124,24.113,14.146,9.342,6.385
2065,0.8,35.643,28.367,31.105,24.099,14.024,9.301,6.344
2066,0.816,35.731,28.371,31.133,24.113,14.064,9.382,6.384
2067,0.839,35.693,28.39,31.143,24.113,14.024,9.464,6.385
2068,0.787,35.817,28.418,31.105,24.099,13.861,9.262,6.222
2069,0.793,35.943,28.403,31.114,24.113,13.818,9.341,6.342
2070,0.79,36.012,28.367,31.133,24.11,13.696,9.26,6.303
2071,0.797,36.166,28.387,31.124,24.113,13.613,9.3,6.343
2072,0.787,36.302,28.43,31.114,24.103,13.45,9.219,6.303
2073,0.797,36.418,28.356,31.143,24.113,13.367,9.259,6.384
2074,0.803,36.438,28.379,31.114,24.106,13.204,9.097,6.303
2075,0.803,36.256,28.352,31.143,24.12,13.202,9.298,6.384
2076,0.81,36.398,28.39,31.153,24.12,13.121,9.301,6.466
2077,0.8,36.457,28.414,31.105,24.103,12.795,9.178,6.264
2078,0.829,36.055,28.442,31.133,24.11,12.791,9.259,6.262
2079,0.833,35.207,28.356,31.124,24.106,12.71,9.178,6.262
2080,0.82,35.362,28.347,31.143,24.11,12.628,9.299,6.302
2081,0.826,35.469,28.382,31.134,24.106,12.383,9.138,6.262
2082,0.83,35.566,28.406,31.153,24.117,12.421,9.258,6.302
2083,0.826,35.653,28.328,31.124,24.106,12.218,9.097,6.221
2084,0.804,35.817,28.371,31.143,24.113,12.176,9.217,6.342
2085,0.82,35.953,28.394,31.181,24.124,12.175,9.3,6.425
2086,0.807,35.532,28.406,31.115,24.099,11.891,9.056,6.222
2087,0.82,35.653,28.434,31.133,24.113,11.847,9.095,6.302
2088,0.82,35.788,28.442,31.143,24.113,11.684,9.014,6.302
2089,0.817,35.866,28.329,31.143,24.11,11.642,9.094,6.262
2090,0.829,35.474,28.343,31.134,24.106,11.479,8.973,6.221
2091,0.839,35.643,28.406,31.162,24.113,11.436,9.013,6.302
2092,0.833,35.74,28.379,31.153,24.11,11.395,9.013,6.262
2093,0.82,35.847,28.359,31.134,24.103,11.273,8.891,6.262
2094,0.813,35.579,28.347,31.181,24.127,11.394,9.134,6.465
2095,0.807,35.663,28.386,31.134,24.106,11.273,8.892,6.345
2096,0.826,35.788,28.434,31.153,24.11,11.312,8.93,6.262
2097,0.807,35.847,28.434,31.153,24.113,11.353,8.85,6.302
2098,0.816,35.512,28.411,31.153,24.117,11.476,8.849,6.384
2099,0.82,35.643,28.379,31.134,24.103,11.436,8.767,6.222
2100,0.83,35.788,28.375,31.162,24.106,11.761,8.767,6.342
2101,0.859,35.809,28.402,31.153,24.117,11.887,8.685,6.303
2102,0.843,35.55,28.301,31.143,24.106,12.01,8.603,6.221
2103,0.843,35.73,28.366,31.172,24.124,12.377,8.724,6.342
2104,0.82,35.827,28.371,31.172,24.113,12.462,8.603,6.262
2105,0.8,35.838,28.402,31.163,24.106,12.788,8.602,6.343
2106,0.816,35.56,28.422,31.153,24.113,12.994,8.44,6.303
2107,0.82,35.691,28.411,31.153,24.12,13.281,8.479,6.302
2108,0.82,35.789,28.371,31.143,24.106,13.325,8.438,6.302
2109,0.83,35.703,28.371,31.172,24.117,13.447,8.519,6.425
2110,0.83,35.616,28.379,31.153,24.117,13.57,8.439,6.304
2111,0.826,35.74,28.422,31.153,24.103,13.49,8.357,6.221
2112,0.83,35.895,28.407,31.21,24.124,13.693,8.559,6.302
2113,0.81,35.522,28.367,31.182,24.11,13.573,8.399,6.384
2114,0.794,35.595,28.418,31.182,24.117,13.571,8.438,6.385
2115,0.826,35.711,28.422,31.172,24.11,13.449,8.316,6.303
