time,ecg,bvp,gsr,rsp,skt,emg_zygo,emg_coru,emg_trap
0,0.869,37.716,26.267,31.395,24.204,4.906,5.974,9.546
1,0.866,37.324,26.297,31.366,24.211,4.987,6.015,9.547
2,0.859,37.435,26.04,31.375,24.204,4.907,5.974,9.588
3,0.862,37.532,26.244,31.356,24.201,4.906,5.974,9.588
4,0.859,37.639,26.082,31.375,24.197,4.825,5.893,9.466
5,0.846,37.304,26.279,31.385,24.208,4.905,6.054,9.627
6,0.849,37.445,26.305,31.385,24.211,4.987,6.056,9.71
7,0.849,37.561,26.141,31.404,24.218,4.948,6.056,9.67
8,0.846,37.62,26.26,31.395,24.211,4.988,6.056,9.67
9,0.849,37.304,26.035,31.385,24.211,4.988,6.056,9.67
10,0.843,37.445,26.306,31.385,24.208,4.948,6.015,9.67
11,0.859,37.619,26.044,31.414,24.215,4.988,6.056,9.67
12,0.856,37.649,26.252,31.405,24.222,5.11,6.137,9.792
13,0.846,37.477,26.312,31.376,24.208,4.908,6.057,9.671
14,0.846,37.628,26.153,31.366,24.204,4.865,6.056,9.507
15,0.856,37.735,26.319,31.375,24.201,4.906,5.934,9.465
16,0.866,37.765,26.016,31.375,24.211,4.825,5.974,9.383
17,0.862,37.478,26.177,31.375,24.204,4.905,5.974,9.261
18,0.866,37.628,26.038,31.385,24.204,4.906,6.055,9.341
19,0.859,37.726,26.248,31.366,24.208,4.906,6.056,9.301
20,0.859,37.852,26.066,31.356,24.197,4.825,5.853,9.138
21,0.866,37.393,26.178,31.385,24.208,4.905,6.054,9.095
22,0.885,37.532,26.296,31.356,24.215,4.987,6.097,9.176
23,0.869,37.639,26.246,31.366,24.215,4.907,6.056,9.096
24,0.856,37.477,26.328,31.347,24.215,4.987,6.097,9.014
25,0.853,37.513,25.989,31.375,24.215,4.988,6.016,9.135
26,0.849,37.648,26.236,31.385,24.208,4.907,6.015,9.095
27,0.866,37.764,26.008,31.366,24.208,4.906,6.015,9.258
28,0.862,37.459,26.22,31.404,24.222,5.028,6.178,9.381
29,0.846,37.532,26.367,31.385,24.218,4.989,6.139,9.586
30,0.833,37.658,26.095,31.366,24.208,4.866,6.138,9.669
31,0.859,37.765,26.283,31.337,24.204,4.824,6.057,9.792
32,0.862,37.382,26.059,31.337,24.204,4.824,6.056,10.037
33,0.859,37.503,26.264,31.356,24.215,4.824,6.015,10.324
34,0.869,37.648,26.242,31.366,24.208,4.905,6.056,10.49
35,0.863,37.716,26.172,31.366,24.211,4.906,6.015,10.654
36,0.866,37.343,26.276,31.337,24.194,4.825,5.974,10.737
37,0.879,37.522,26.11,31.356,24.201,4.824,5.974,10.86
38,0.876,37.658,26.346,31.366,24.211,4.987,6.137,11.024
39,0.879,37.697,26.114,31.356,24.218,4.948,6.098,11.025
40,0.882,37.429,26.276,31.366,24.211,5.029,6.178,11.025
41,0.879,37.57,25.993,31.356,24.215,4.907,6.057,11.066
42,0.872,37.668,26.236,31.327,24.211,4.906,6.097,10.985
43,0.869,37.717,26.23,31.365,24.211,4.987,6.097,10.944
44,0.879,37.612,26.148,31.385,24.225,5.029,6.219,10.984
45,0.866,37.735,26.264,31.356,24.218,5.07,6.18,10.903
46,0.856,37.832,26.106,31.337,24.211,4.948,6.139,10.821
47,0.853,37.833,26.334,31.318,24.201,4.866,6.016,10.698
48,0.872,37.479,26.071,31.337,24.204,4.865,6.096,10.616
49,0.872,37.638,26.158,31.337,24.208,4.906,6.056,10.533
50,0.869,37.745,26.268,31.327,24.211,4.825,6.097,10.573
51,0.866,37.593,26.203,31.346,24.204,4.865,6.097,10.451
52,0.846,37.495,26.285,31.308,24.201,4.824,6.056,10.41
53,0.866,37.657,26.102,31.346,24.201,4.865,5.975,10.247
54,0.872,37.774,26.276,31.346,24.215,4.946,6.015,10.367
55,0.879,37.555,26.039,31.356,24.218,4.947,6.096,10.409
56,0.885,37.658,26.275,31.356,24.211,4.988,6.138,10.247
57,0.885,37.774,26.172,31.346,24.208,4.907,6.098,10.286
58,0.882,37.862,26.214,31.346,24.208,4.906,6.097,10.164
59,0.879,37.373,26.207,31.356,24.208,4.906,6.056,10.122
60,0.889,37.541,26.206,31.346,24.211,4.987,6.015,10.081
61,0.889,37.667,26.347,31.366,24.218,5.029,6.096,10.121
62,0.889,37.717,26.114,31.366,24.218,4.989,6.138,9.959
63,0.876,37.429,26.28,31.308,24.201,4.866,6.016,9.795
64,0.863,37.58,26.043,31.336,24.201,4.906,5.974,9.712
65,0.866,37.706,26.291,31.298,24.208,4.865,6.015,9.589
66,0.866,37.784,26.086,31.327,24.211,4.906,6.056,9.588
67,0.879,37.459,26.264,31.346,24.208,4.865,6.056,9.588
68,0.869,37.609,25.992,31.346,24.211,4.906,6.015,9.507
69,0.863,37.726,26.165,31.289,24.204,4.825,5.974,9.343
70,0.866,37.813,26.304,31.327,24.211,4.905,5.933,9.342
71,0.866,37.507,26.149,31.346,24.211,4.987,6.096,9.342
72,0.879,37.667,26.296,31.375,24.215,4.988,6.097,9.342
73,0.885,37.765,26.063,31.347,24.218,4.948,6.056,9.301
74,0.882,37.814,26.322,31.327,24.211,4.947,6.137,9.341
75,0.885,37.43,26.094,31.327,24.208,4.947,6.057,9.26
76,0.898,37.561,26.252,31.337,24.211,4.907,6.137,9.259
77,0.905,37.716,26.246,31.356,24.222,5.028,6.138,9.259
78,0.895,38.091,26.117,31.366,24.218,5.03,6.219,9.3
79,0.902,37.568,26.284,31.318,24.201,4.867,6.058,9.097
80,0.889,37.687,26.102,31.308,24.201,4.865,5.975,9.014
81,0.895,37.803,26.28,31.317,24.211,4.906,5.974,8.972
82,0.892,37.497,26.047,31.317,24.211,4.865,6.015,8.972
83,0.879,37.485,26.283,31.327,24.208,4.946,6.015,8.891
84,0.879,37.6,26.219,31.298,24.204,4.866,6.056,8.849
85,0.876,37.697,26.195,31.298,24.197,4.865,5.934,8.849
86,0.872,37.41,26.249,31.317,24.208,4.906,6.014,8.808
87,0.879,37.522,26.09,31.346,24.211,4.987,6.178,8.97
88,0.882,37.648,26.276,31.337,24.215,4.988,6.139,9.094
89,0.882,37.745,26.141,31.346,24.211,5.029,6.138,9.176
90,0.879,37.363,26.268,31.318,24.215,4.948,6.179,9.299
91,0.879,37.503,26.078,31.317,24.208,4.907,6.139,9.463
92,0.879,37.638,26.283,31.317,24.208,5.028,6.138,9.627
93,0.895,37.736,26.102,31.365,24.222,5.111,6.301,9.873
94,0.892,37.248,26.244,31.347,24.212,5.071,6.302,10.038
95,0.899,37.338,26.062,31.308,24.201,4.948,6.099,10.121
96,0.899,37.483,26.17,31.327,24.211,4.907,6.056,10.122
97,0.902,37.552,26.28,31.327,24.204,4.906,6.097,10.203
98,0.902,37.38,26.047,31.337,24.204,4.906,6.097,10.245
99,0.905,37.503,26.318,31.346,24.215,4.947,6.056,10.448
100,0.895,37.629,26.009,31.327,24.201,4.988,6.015,10.45
101,0.895,37.668,26.173,31.308,24.201,4.826,6.056,10.328
102,0.905,37.343,26.319,31.346,24.215,4.987,6.097,10.408
103,0.895,37.483,26.133,31.337,24.218,4.988,6.178,10.409
104,0.902,37.609,26.206,31.346,24.211,5.07,6.179,10.45
105,0.886,37.63,26.0,31.337,24.211,5.07,6.179,10.369
106,0.879,37.409,26.232,31.327,24.218,5.07,6.179,10.368
107,0.892,37.532,26.297,31.337,24.211,4.989,6.098,10.246
108,0.899,37.658,26.227,31.356,24.211,5.029,6.097,10.286
109,0.889,37.621,26.343,31.366,24.225,5.07,6.26,10.286
110,0.889,37.409,26.04,31.327,24.215,5.07,6.139,10.123
111,0.882,37.561,26.252,31.308,24.208,4.908,6.057,9.959
112,0.869,37.648,26.094,31.336,24.204,4.865,5.975,9.876
113,0.876,37.256,26.17,31.327,24.208,4.946,6.096,9.876
114,0.882,37.31,26.257,31.327,24.208,4.988,6.056,9.876
115,0.889,37.454,26.094,31.337,24.208,4.948,6.137,9.794
116,0.885,37.523,26.295,31.318,24.208,4.988,6.098,9.793
117,0.892,37.293,26.032,31.298,24.204,4.907,5.975,9.59
118,0.892,37.435,26.287,31.336,24.211,4.947,6.096,9.669
119,0.912,37.571,26.239,31.356,24.218,5.15,6.178,9.629
120,0.908,37.658,26.183,31.346,24.211,5.031,6.179,9.629
121,0.902,37.189,26.308,31.346,24.218,5.07,6.098,9.548
122,0.912,37.328,26.094,31.337,24.211,5.03,6.097,9.425
123,0.889,37.454,26.264,31.337,24.204,5.03,6.056,9.424
124,0.882,37.542,26.035,31.346,24.204,5.07,6.137,9.424
125,0.882,37.313,26.267,31.366,24.218,5.193,6.219,9.546
126,0.866,37.416,26.106,31.337,24.222,5.072,6.18,9.71
127,0.862,37.522,26.276,31.327,24.205,4.989,6.098,9.67
128,0.862,37.581,26.281,31.346,24.204,4.948,6.016,9.792
129,0.869,37.131,26.168,31.327,24.204,4.866,5.974,10.118
130,0.876,37.289,26.292,31.327,24.211,4.946,6.055,10.406
131,0.872,37.396,26.114,31.327,24.204,4.988,6.097,10.694
132,0.853,37.426,26.284,31.356,24.218,4.988,6.097,10.941
133,0.879,37.302,25.997,31.308,24.198,4.866,6.016,11.065
134,0.892,37.483,26.267,31.346,24.208,4.987,6.137,11.27
135,0.895,37.571,26.094,31.346,24.215,5.11,6.138,11.516
136,0.892,37.62,26.291,31.356,24.218,5.03,6.098,11.64
137,0.899,37.189,26.313,31.337,24.205,5.111,6.097,11.763
138,0.892,37.328,26.071,31.346,24.211,5.071,6.138,11.846
139,0.882,37.435,26.271,31.346,24.211,4.989,6.098,11.887
140,0.889,37.264,26.117,31.327,24.218,4.988,6.097,11.928
141,0.895,37.291,26.268,31.384,24.215,5.151,6.178,12.01
142,0.899,37.406,26.067,31.366,24.218,5.112,6.139,12.092
143,0.886,37.465,26.268,31.327,24.201,4.908,6.057,11.93
144,0.869,37.13,26.059,31.317,24.204,4.987,5.975,11.807
145,0.859,37.222,26.252,31.327,24.201,4.907,6.015,11.765
146,0.853,37.377,26.269,31.327,24.208,4.906,6.056,11.764
147,0.853,37.464,26.09,31.346,24.208,4.947,6.056,11.724
148,0.856,37.139,26.237,31.346,24.204,5.029,6.056,11.683
149,0.849,37.261,26.008,31.318,24.197,4.826,5.975,11.642
150,0.859,37.415,26.294,31.346,24.211,5.027,6.055,11.56
151,0.859,37.503,26.246,31.356,24.215,5.03,6.137,11.64
152,0.859,37.226,26.133,31.356,24.218,5.07,6.179,11.723
153,0.859,37.377,26.299,31.356,24.215,4.948,6.139,11.561
154,0.866,37.464,26.106,31.346,24.208,5.029,6.057,11.519
155,0.869,37.523,26.284,31.346,24.208,5.03,6.178,11.437
156,0.866,37.159,26.0,31.337,24.215,5.03,6.098,11.314
157,0.879,37.299,26.243,31.356,24.205,4.989,6.056,11.272
158,0.889,37.435,26.246,31.356,24.218,5.151,6.178,11.312
159,0.876,37.446,26.176,31.356,24.218,5.031,6.179,11.353
160,0.866,37.139,26.273,31.346,24.205,4.989,6.057,11.069
161,0.853,37.318,26.008,31.337,24.204,4.907,6.015,10.985
162,0.866,37.416,26.216,31.337,24.204,4.906,6.015,10.862
163,0.853,37.436,26.058,31.327,24.208,4.906,6.056,10.82
164,0.866,37.168,26.225,31.327,24.208,4.987,6.056,10.861
165,0.859,37.338,26.16,31.346,24.211,4.988,6.137,10.902
166,0.853,37.416,26.151,31.327,24.201,4.948,6.098,10.983
167,0.856,37.446,26.253,31.308,24.201,4.866,6.016,10.862
168,0.859,37.187,26.148,31.346,24.211,4.906,6.137,10.983
169,0.866,37.309,26.331,31.337,24.215,5.028,6.138,11.066
170,0.856,37.416,26.091,31.385,24.215,5.07,6.219,11.066
171,0.853,37.302,26.256,31.347,24.211,5.03,6.18,11.026
172,0.84,37.387,26.047,31.346,24.208,5.03,6.179,11.107
173,0.846,37.503,26.232,31.366,24.208,5.07,6.139,11.23
174,0.859,37.619,26.226,31.356,24.204,4.989,6.179,11.353
175,0.866,37.208,26.136,31.366,24.218,5.07,6.22,11.557
176,0.862,37.281,26.268,31.356,24.211,5.07,6.261,11.559
177,0.856,37.406,26.082,31.327,24.208,4.948,6.099,11.6
178,0.866,37.484,26.279,31.327,24.201,4.866,6.138,11.641
179,0.862,37.072,26.016,31.337,24.204,4.946,6.138,11.804
180,0.859,37.25,26.208,31.356,24.208,4.988,6.057,11.968
181,0.856,37.367,26.304,31.346,24.215,4.948,6.178,12.133
182,0.859,37.426,26.223,31.327,24.208,4.988,6.179,12.215
183,0.849,37.206,26.222,31.308,24.204,4.907,6.139,12.298
184,0.853,37.376,26.047,31.317,24.204,4.865,6.057,12.176
185,0.843,37.532,26.244,31.337,24.211,4.987,6.178,12.378
186,0.849,37.562,26.074,31.365,24.218,5.029,6.261,12.421
187,0.853,37.188,26.295,31.347,24.208,4.989,6.221,12.381
188,0.853,37.319,26.321,31.346,24.204,5.029,6.22,12.299
189,0.843,37.426,26.176,31.356,24.211,5.03,6.18,12.298
190,0.843,37.494,26.261,31.346,24.211,4.948,6.179,12.217
191,0.839,37.312,26.145,31.366,24.222,5.069,6.179,12.135
192,0.849,37.425,26.303,31.375,24.215,5.152,6.301,12.256
193,0.843,37.522,26.047,31.347,24.211,5.031,6.221,12.054
194,0.849,37.523,26.221,31.346,24.204,5.03,6.139,11.889
195,0.856,37.178,26.031,31.337,24.208,4.989,6.098,11.806
196,0.869,37.299,26.298,31.327,24.204,4.907,6.178,11.724
197,0.856,37.406,26.235,31.346,24.208,4.987,6.098,11.642
198,0.853,37.283,26.234,31.346,24.211,4.988,6.219,11.641
199,0.836,37.262,26.308,31.337,24.208,4.988,6.18,11.601
200,0.843,37.367,26.165,31.327,24.201,4.907,6.098,11.275
201,0.856,37.493,26.339,31.346,24.215,4.987,6.138,11.394
202,0.862,37.111,26.04,31.366,24.215,5.07,6.219,11.354
203,0.853,37.222,26.256,31.347,24.218,5.03,6.22,11.191
204,0.856,37.338,25.996,31.346,24.211,4.989,6.22,11.068
205,0.843,37.416,26.193,31.356,24.211,4.988,6.22,10.985
206,0.843,37.12,26.308,31.346,24.204,5.07,6.139,10.903
207,0.843,37.26,26.149,31.346,24.208,5.03,6.219,10.861
208,0.833,37.406,26.28,31.385,24.222,5.151,6.302,10.902
209,0.826,37.446,26.063,31.356,24.212,5.031,6.221,10.821
210,0.826,37.11,26.275,31.308,24.204,4.948,6.098,10.739
211,0.833,37.251,26.254,31.327,24.204,4.947,6.138,10.575
212,0.836,37.415,26.141,31.346,24.211,4.947,6.057,10.655
213,0.833,37.484,26.26,31.337,24.211,5.029,6.097,10.615
214,0.839,37.37,26.141,31.337,24.204,5.03,6.138,10.615
215,0.836,37.493,26.311,31.346,24.211,4.989,6.138,10.574
216,0.836,37.619,26.063,31.318,24.201,4.907,6.016,10.411
217,0.849,37.687,26.256,31.356,24.211,4.987,6.137,10.491
218,0.84,36.911,25.996,31.423,24.215,5.029,6.138,10.491
219,0.839,37.047,26.197,31.357,24.211,5.03,6.138,10.614
220,0.839,37.145,26.124,31.346,24.211,5.07,6.179,10.574
221,0.836,37.194,26.155,31.356,24.208,5.03,6.139,10.574
222,0.839,37.175,26.265,31.346,24.211,4.989,6.138,10.614
223,0.839,37.328,26.121,31.356,24.208,5.029,6.179,10.696
224,0.846,37.474,26.358,31.366,24.218,5.151,6.22,10.859
225,0.827,37.609,26.079,31.366,24.218,5.071,6.139,11.064
226,0.817,36.939,26.193,31.337,24.198,4.989,6.098,11.066
227,0.833,37.096,26.167,31.356,24.204,4.948,6.016,11.026
228,0.817,37.212,26.175,31.337,24.204,4.947,6.015,11.107
229,0.816,37.079,26.269,31.346,24.211,4.947,6.015,11.189
230,0.826,37.126,26.106,31.327,24.211,4.947,6.056,11.189
231,0.817,37.28,26.287,31.346,24.204,5.029,6.056,11.23
232,0.81,37.358,26.028,31.337,24.197,4.907,6.015,11.231
233,0.836,37.014,26.291,31.365,24.208,4.987,6.056,11.231
234,0.839,37.125,26.223,31.375,24.211,4.988,6.178,11.231
235,0.846,37.27,26.152,31.356,24.211,5.07,6.22,11.231
236,0.849,37.32,26.218,31.366,24.211,5.03,6.139,11.149
237,0.849,37.032,26.074,31.356,24.211,5.03,6.098,11.067
238,0.84,37.164,26.268,31.366,24.204,5.07,6.178,10.985
239,0.849,37.29,26.055,31.356,24.215,4.989,6.098,10.984
240,0.846,37.396,26.143,31.375,24.222,5.07,6.178,10.903
241,0.836,36.966,26.268,31.375,24.222,5.152,6.342,10.902
242,0.836,37.077,26.121,31.347,24.208,4.99,6.14,10.739
243,0.826,37.203,26.315,31.327,24.204,4.948,6.098,10.575
244,0.82,37.271,26.032,31.346,24.204,4.907,6.056,10.492
245,0.823,36.955,26.263,31.346,24.204,4.947,6.097,10.369
246,0.826,37.105,26.024,31.346,24.208,4.988,6.097,10.368
247,0.826,37.232,26.212,31.346,24.211,4.988,6.178,10.287
248,0.817,37.271,26.292,31.308,24.201,4.866,6.139,10.164
249,0.816,37.089,26.153,31.346,24.201,4.865,6.057,10.0
250,0.82,37.251,26.28,31.375,24.211,4.987,6.178,10.039
251,0.83,37.358,26.075,31.356,24.218,5.11,6.22,10.08
252,0.836,37.378,26.322,31.366,24.215,5.071,6.098,9.959
253,0.826,36.985,25.993,31.356,24.215,5.07,6.138,9.835
254,0.833,37.115,26.208,31.366,24.211,5.03,6.179,9.753
255,0.839,37.222,26.269,31.356,24.211,4.948,6.098,9.63
256,0.859,37.156,26.149,31.375,24.211,4.988,6.138,9.548
257,0.843,37.04,26.323,31.375,24.222,5.151,6.301,9.547
258,0.833,37.145,26.122,31.366,24.212,5.031,6.14,9.506
259,0.83,37.251,26.217,31.356,24.208,4.948,6.138,9.303
260,0.836,36.811,25.976,31.346,24.204,4.947,6.057,9.26
261,0.836,36.883,26.255,31.356,24.204,4.907,6.056,9.137
262,0.846,37.028,26.07,31.346,24.208,4.947,6.015,9.095
263,0.84,37.145,26.182,31.346,24.211,4.988,6.056,9.095
264,0.83,36.868,26.257,31.346,24.211,4.907,6.097,9.095
265,0.817,36.989,26.094,31.327,24.208,4.906,6.016,9.136
266,0.826,37.135,26.326,31.346,24.197,4.947,6.015,9.014
267,0.817,37.232,26.137,31.366,24.211,4.988,6.056,9.135
268,0.829,36.811,26.28,31.356,24.215,5.029,6.137,9.299
269,0.823,36.97,26.004,31.356,24.211,5.07,6.098,9.382
270,0.82,37.096,26.216,31.356,24.215,4.989,6.138,9.505
271,0.826,37.155,26.3,31.356,24.211,4.988,6.138,9.628
272,0.83,36.81,26.125,31.385,24.208,5.07,6.098,9.832
273,0.83,36.97,26.292,31.376,24.218,5.03,6.097,9.997
274,0.836,37.106,26.106,31.385,24.222,5.111,6.26,10.283
275,0.83,37.107,26.326,31.347,24.205,4.989,6.139,10.327
276,0.846,36.771,26.079,31.346,24.211,4.907,6.016,10.368
277,0.843,36.96,26.26,31.346,24.201,4.865,6.015,10.49
278,0.836,37.058,25.996,31.366,24.204,4.865,6.096,10.573
279,0.843,37.097,26.212,31.347,24.208,4.906,6.056,10.655
280,0.833,36.905,26.043,31.356,24.211,4.906,6.097,10.737
281,0.826,36.99,26.244,31.337,24.208,4.947,6.097,10.697
282,0.839,37.125,26.027,31.318,24.201,4.866,5.975,10.616
283,0.833,37.539,26.255,31.365,24.218,5.028,6.096,10.655
284,0.839,36.843,26.09,31.366,24.215,4.989,6.219,10.696
285,0.83,36.97,26.291,31.366,24.215,4.948,6.098,10.656
286,0.826,37.077,26.012,31.375,24.211,4.988,6.138,10.615
287,0.823,36.924,26.138,31.375,24.211,4.948,6.138,10.574
288,0.826,36.971,26.257,31.366,24.211,4.907,6.179,10.451
289,0.839,37.125,26.106,31.375,24.215,4.987,6.139,10.369
290,0.83,37.213,26.299,31.395,24.218,5.029,6.219,10.571
291,0.813,36.724,26.063,31.366,24.208,4.907,6.22,10.37
292,0.81,36.815,26.232,31.347,24.204,4.865,6.098,10.287
293,0.829,36.96,26.187,31.346,24.201,4.865,6.016,10.083
294,0.833,37.058,26.191,31.356,24.208,4.865,6.015,10.121
295,0.839,36.79,26.249,31.366,24.208,4.906,6.096,10.0
296,0.843,36.912,26.012,31.366,24.218,4.906,6.138,9.917
297,0.83,37.028,26.228,31.385,24.205,4.865,6.138,9.835
298,0.83,37.106,26.039,31.347,24.201,4.743,6.016,9.672
299,0.849,36.637,26.298,31.366,24.208,4.945,6.056,9.67
300,0.843,36.805,26.02,31.375,24.208,4.947,6.219,9.711
301,0.836,36.922,26.251,31.356,24.215,4.988,6.18,9.63
302,0.833,36.971,26.285,31.366,24.208,4.948,6.098,9.588
303,0.833,36.789,26.188,31.356,24.215,4.988,6.138,9.507
304,0.826,36.941,26.273,31.356,24.211,4.988,6.098,9.384
305,0.839,37.096,26.086,31.385,24.215,4.866,6.138,9.382
306,0.826,37.145,26.264,31.385,24.218,5.068,6.301,9.464
307,0.826,36.714,26.028,31.356,24.215,4.989,6.14,9.383
308,0.817,36.854,26.244,31.337,24.205,4.866,6.138,9.22
309,0.816,36.961,26.07,31.346,24.204,4.906,6.057,9.218
310,0.826,37.019,26.182,31.356,24.204,4.947,6.056,9.178
311,0.833,36.732,26.28,31.346,24.204,4.907,6.097,9.137
312,0.826,36.835,26.106,31.366,24.204,4.825,6.178,9.177
313,0.813,36.941,26.256,31.327,24.201,4.824,6.098,9.137
314,0.836,36.875,25.996,31.346,24.197,4.865,6.016,8.974
315,0.846,36.692,26.232,31.366,24.211,4.987,6.137,9.094
316,0.846,36.825,26.3,31.395,24.218,4.907,6.179,9.136
317,0.833,36.922,26.211,31.366,24.215,4.947,6.22,9.177
318,0.82,36.616,26.347,31.366,24.208,4.907,6.18,9.177
319,0.83,36.68,26.087,31.356,24.204,4.906,6.179,9.259
320,0.826,36.825,26.264,31.375,24.215,4.906,6.139,9.341
321,0.839,36.951,26.07,31.366,24.211,4.947,6.219,9.423
322,0.849,36.712,26.279,31.395,24.222,5.029,6.302,9.668
323,0.833,36.815,26.153,31.366,24.212,4.948,6.221,9.711
324,0.83,36.96,26.167,31.347,24.204,4.866,6.098,9.914
325,0.817,37.038,26.272,31.337,24.201,4.784,6.056,9.957
326,0.82,36.512,26.153,31.356,24.204,4.864,6.097,10.08
327,0.826,36.65,26.327,31.366,24.208,4.946,6.138,10.243
328,0.823,36.767,26.079,31.375,24.208,4.947,6.179,10.367
329,0.81,36.873,26.221,31.433,24.204,4.907,6.098,10.409
330,0.82,36.568,26.214,31.347,24.194,4.784,6.097,10.369
331,0.823,36.728,26.132,31.366,24.204,4.905,6.097,10.409
332,0.82,36.863,26.253,31.385,24.208,4.865,6.219,10.572
333,0.817,36.922,26.098,31.395,24.218,4.987,6.22,10.655
334,0.826,36.693,26.264,31.366,24.205,4.988,6.18,10.656
335,0.833,36.834,26.113,31.385,24.211,4.948,6.22,10.574
336,0.839,36.941,26.33,31.356,24.211,4.907,6.22,10.492
337,0.836,36.961,26.114,31.385,24.204,4.947,6.22,10.532
338,0.843,36.655,26.276,31.395,24.218,5.069,6.261,10.532
339,0.836,36.748,26.012,31.385,24.215,4.989,6.262,10.614
340,0.833,36.873,26.201,31.356,24.211,4.866,6.18,10.452
341,0.826,36.874,26.261,31.356,24.198,4.906,6.139,10.41
342,0.82,36.606,26.117,31.366,24.204,4.906,6.138,10.328
343,0.833,36.728,26.26,31.356,24.204,4.865,6.179,10.368
344,0.826,36.844,26.164,31.366,24.204,4.946,6.179,10.328
345,0.817,36.721,26.323,31.366,24.204,4.907,6.261,10.368
346,0.81,36.672,26.036,31.337,24.201,4.865,6.099,10.328
347,0.826,36.844,26.213,31.365,24.201,4.824,6.138,10.286
348,0.83,36.941,26.066,31.395,24.211,4.946,6.179,10.327
349,0.82,36.559,26.166,31.356,24.218,4.947,6.22,10.327
350,0.826,36.651,26.28,31.366,24.215,4.988,6.22,10.327
351,0.823,36.796,26.082,31.366,24.218,4.988,6.22,10.286
352,0.82,36.883,26.256,31.395,24.211,4.988,6.18,10.245
353,0.836,36.462,26.172,31.376,24.211,4.988,6.261,10.204
354,0.826,36.602,26.226,31.366,24.211,4.866,6.221,10.123
355,0.843,36.738,26.23,31.404,24.218,5.109,6.302,10.122
356,0.833,36.777,26.183,31.376,24.218,5.03,6.302,10.122
357,0.83,36.442,26.202,31.347,24.205,4.867,6.14,9.959
358,0.83,36.582,26.113,31.366,24.204,4.865,6.138,9.957
359,0.839,36.718,26.28,31.356,24.204,4.824,6.098,10.08
360,0.833,36.767,26.125,31.366,24.208,4.946,6.138,10.365
361,0.836,36.499,26.276,31.423,24.208,4.947,6.179,10.612
362,0.843,36.631,26.0,31.366,24.211,4.947,6.139,10.737
363,0.839,36.738,26.267,31.337,24.194,4.825,6.057,10.982
364,0.843,36.816,26.113,31.356,24.215,4.905,6.097,11.228
365,0.836,36.471,26.159,31.385,24.215,5.028,6.26,11.515
366,0.823,36.612,26.226,31.385,24.211,5.03,6.302,11.64
367,0.82,36.738,26.066,31.366,24.215,4.948,6.221,11.763
368,0.826,36.768,26.244,31.385,24.208,4.947,6.261,11.846
369,0.83,36.595,26.137,31.356,24.211,4.947,6.139,11.928
370,0.843,36.757,26.268,31.356,24.211,4.988,6.219,11.929
371,0.849,36.902,26.031,31.394,24.225,5.07,6.302,12.01
372,0.869,36.875,26.22,31.395,24.215,5.03,6.262,12.052
373,0.869,36.405,26.293,31.356,24.211,4.907,6.18,11.889
374,0.889,36.553,26.161,31.346,24.204,4.906,6.139,11.725
375,0.905,36.67,26.229,31.356,24.204,4.947,6.219,11.805
376,0.921,36.393,26.055,31.366,24.204,4.866,6.139,11.724
377,0.931,36.457,26.244,31.366,24.208,4.946,6.138,11.52
378,0.922,36.583,26.043,31.366,24.204,4.947,6.179,11.599
379,0.925,36.661,26.302,31.337,24.197,4.785,6.098,11.478
380,0.938,36.412,26.282,31.365,24.208,4.864,6.138,11.274
381,0.932,36.534,26.145,31.385,24.211,4.987,6.179,11.394
382,0.931,36.67,26.3,31.376,24.215,4.948,6.261,11.314
383,0.912,36.748,26.059,31.375,24.218,4.988,6.302,11.232
384,0.925,36.307,26.185,31.366,24.208,4.948,6.221,11.231
385,0.925,36.447,26.015,31.366,24.218,4.988,6.261,11.149
386,0.922,36.573,26.181,31.375,24.211,4.988,6.18,11.108
387,0.925,36.699,26.277,31.395,24.222,4.988,6.179,11.108
388,0.918,37.477,26.141,31.376,24.218,5.11,6.342,11.148
389,0.896,37.6,26.257,31.356,24.205,4.989,6.221,10.986
390,0.902,37.735,26.012,31.356,24.201,4.948,6.139,10.862
391,0.905,37.784,26.251,31.346,24.208,4.907,6.057,10.739
392,0.895,35.752,26.109,31.366,24.204,4.906,6.056,10.657
393,0.905,35.895,26.131,31.375,24.208,4.987,6.178,10.656
394,0.918,36.03,26.249,31.375,24.208,5.029,6.139,10.574
395,0.912,36.07,26.117,31.366,24.215,5.03,6.179,10.696
396,0.925,36.521,26.288,31.337,24.201,4.867,6.017,10.575
397,0.941,36.679,26.114,31.365,24.208,4.987,6.096,10.614
398,0.945,36.815,26.295,31.375,24.215,5.07,6.138,10.777
399,0.938,36.855,25.965,31.414,24.215,5.07,6.098,10.738
400,0.938,36.596,26.185,31.395,24.211,5.03,6.138,10.738
401,0.922,36.737,26.3,31.376,24.211,5.03,6.138,10.738
402,0.912,36.835,26.094,31.366,24.211,5.03,6.138,10.697
403,0.931,36.404,26.268,31.356,24.211,5.03,6.138,10.656
404,0.948,36.218,26.059,31.394,24.218,5.03,6.098,10.656
405,0.945,36.35,26.299,31.376,24.218,5.111,6.219,10.737
406,0.938,36.419,26.075,31.385,24.211,5.071,6.098,10.575
407,0.932,36.275,26.252,31.337,24.204,4.989,6.056,10.451
408,0.925,36.379,26.117,31.356,24.204,4.907,6.015,10.41
409,0.931,36.553,26.139,31.366,24.208,4.987,6.137,10.247
410,0.935,36.632,26.264,31.356,24.208,5.029,6.057,10.286
411,0.931,36.23,26.09,31.356,24.208,4.989,6.056,10.286
412,0.925,36.369,26.221,31.375,24.204,4.988,6.097,10.083
413,0.931,36.505,25.976,31.366,24.197,4.907,6.016,9.999
414,0.925,36.612,26.2,31.375,24.211,4.987,6.096,9.999
415,0.918,37.169,26.331,31.375,24.218,5.151,6.138,9.999
416,0.918,37.299,26.177,31.404,24.211,5.071,6.179,9.958
417,0.918,37.425,26.3,31.376,24.218,5.07,6.098,9.998
418,0.905,37.475,25.997,31.385,24.215,5.03,6.138,9.958
419,0.915,35.749,26.267,31.347,24.211,5.07,6.098,9.998
420,0.905,35.923,26.043,31.394,24.211,4.989,6.097,9.999
421,0.902,36.04,26.189,31.404,24.222,5.151,6.219,10.202
422,0.892,36.089,26.249,31.385,24.215,5.071,6.18,10.245
423,0.882,36.311,26.109,31.337,24.205,5.07,6.057,10.123
424,0.872,36.437,26.307,31.346,24.204,4.948,6.056,10.122
425,0.869,36.582,26.047,31.346,24.204,4.947,6.097,10.244
426,0.879,36.632,26.201,31.346,24.211,4.947,6.138,10.367
427,0.885,36.038,26.043,31.375,24.208,4.988,6.098,10.368
428,0.872,36.166,26.248,31.356,24.201,4.988,6.097,10.49
429,0.882,36.292,26.047,31.346,24.197,4.948,6.097,10.573
430,0.898,36.715,26.236,31.385,24.211,4.947,6.178,10.533
431,0.889,36.336,26.277,31.395,24.218,5.069,6.22,10.736
432,0.905,36.457,26.156,31.385,24.215,5.111,6.18,10.941
433,0.895,36.554,26.346,31.356,24.218,5.03,6.22,10.943
434,0.892,36.411,26.052,31.375,24.211,5.03,6.22,11.024
435,0.905,36.448,26.185,31.385,24.208,5.07,6.139,11.066
436,0.918,36.602,26.015,31.443,24.215,5.03,6.138,11.148
437,0.915,36.709,26.216,31.405,24.215,5.151,6.301,11.271
438,0.892,36.106,26.148,31.385,24.218,5.071,6.262,11.312
439,0.892,36.176,26.214,31.356,24.211,4.989,6.18,11.232
440,0.882,36.311,26.203,31.366,24.204,4.948,6.057,11.231
441,0.869,36.418,26.023,31.356,24.204,4.988,6.137,11.231
442,0.879,36.266,26.294,31.366,24.204,4.988,6.098,11.149
443,0.859,36.418,26.278,31.395,24.211,4.988,6.138,11.149
444,0.846,36.534,26.074,31.356,24.208,5.029,6.138,11.149
445,0.853,36.603,26.236,31.346,24.194,4.907,6.098,11.067
446,0.849,36.095,26.019,31.356,24.208,4.987,6.056,11.026
447,0.846,36.243,26.267,31.385,24.215,5.151,6.137,11.066
448,0.836,36.379,26.074,31.385,24.218,5.153,6.179,11.026
449,0.823,36.438,26.229,31.385,24.211,5.153,6.22,10.985
450,0.813,36.247,26.238,31.376,24.211,5.071,6.18,10.903
451,0.813,36.389,26.156,31.356,24.211,5.152,6.139,10.821
452,0.82,36.496,26.339,31.385,24.211,5.071,6.138,10.779
453,0.823,36.573,26.024,31.414,24.222,5.07,6.179,10.657
454,0.826,36.181,26.255,31.405,24.218,5.193,6.22,10.696
455,0.813,36.283,26.027,31.357,24.211,5.072,6.098,10.534
456,0.813,36.399,26.244,31.356,24.204,4.908,6.097,10.37
457,0.813,36.409,26.129,31.346,24.201,4.947,6.097,10.165
458,0.81,36.256,26.182,31.356,24.204,5.029,6.138,10.122
459,0.81,36.398,26.218,31.366,24.211,4.989,6.057,10.081
460,0.81,36.525,26.16,31.375,24.211,4.988,6.056,9.999
461,0.807,36.353,26.327,31.356,24.208,5.07,6.097,10.039
462,0.794,36.112,26.11,31.346,24.194,4.948,6.016,9.918
463,0.81,36.292,26.268,31.366,24.204,5.029,6.096,9.916
464,0.81,36.418,26.012,31.375,24.208,5.07,6.138,10.079
465,0.81,36.18,26.302,31.395,24.211,5.07,6.138,10.081
466,0.803,36.244,26.079,31.376,24.215,5.07,6.098,10.081
467,0.807,36.389,26.279,31.366,24.208,5.03,6.056,10.081
468,0.803,36.457,25.989,31.375,24.211,5.07,6.097,9.959
469,0.803,36.055,26.189,31.366,24.215,5.03,6.097,9.998
470,0.816,36.233,26.249,31.385,24.215,5.07,6.097,9.999
471,0.8,36.322,26.18,31.414,24.222,5.111,6.26,10.039
472,0.803,36.399,26.276,31.433,24.212,5.03,6.139,9.999
473,0.807,36.093,26.047,31.357,24.198,5.03,6.057,9.917
474,0.8,36.234,26.299,31.356,24.204,4.948,6.137,9.916
475,0.82,36.36,26.09,31.356,24.208,4.988,6.057,9.876
476,0.83,36.428,26.303,31.356,24.208,5.029,6.137,9.916
477,0.83,36.151,25.997,31.375,24.208,4.907,6.057,9.916
478,0.826,36.263,26.107,31.366,24.204,4.987,6.137,10.039
479,0.846,36.399,26.221,31.366,24.204,4.866,5.976,9.836
480,0.862,36.477,26.218,31.366,24.211,4.987,6.096,10.078
481,0.888,36.123,26.253,31.385,24.211,5.07,6.178,10.121
482,0.925,36.263,26.137,31.366,24.215,5.03,6.098,10.163
483,0.961,36.379,26.268,31.385,24.211,5.07,6.097,10.122
484,0.984,36.419,26.156,31.366,24.211,5.03,6.138,10.081
485,1.033,36.045,26.28,31.375,24.211,5.03,6.057,10.121
486,1.076,36.224,26.051,31.366,24.215,4.907,6.056,10.081
487,1.148,36.341,26.197,31.404,24.222,5.15,6.178,10.243
488,1.194,36.399,25.957,31.376,24.212,5.031,6.179,10.245
489,1.237,36.093,26.196,31.366,24.201,4.867,6.017,10.123
490,1.286,36.205,26.257,31.347,24.201,4.906,5.974,10.081
491,1.358,36.36,26.106,31.346,24.208,4.947,6.015,10.04
492,1.417,36.198,26.245,31.356,24.208,4.907,6.015,10.121
493,1.486,36.206,26.129,31.366,24.208,4.947,6.056,10.081
494,1.558,36.292,26.272,31.366,24.208,4.947,6.015,10.081
495,1.653,36.428,26.012,31.337,24.204,4.866,5.974,9.959
496,1.732,35.94,26.22,31.365,24.211,4.987,6.015,9.957
497,1.795,36.012,26.039,31.375,24.211,5.029,6.096,10.039
498,1.851,36.147,26.228,31.366,24.218,5.07,6.097,9.918
499,1.903,36.244,26.347,31.385,24.215,4.989,6.097,9.916
500,1.946,36.101,26.149,31.395,24.208,4.988,6.016,9.835
501,1.963,36.263,26.28,31.385,24.211,5.029,6.015,9.753
502,2.022,36.408,26.106,31.376,24.215,5.03,5.974,9.671
503,2.061,36.477,26.276,31.395,24.222,5.111,6.218,9.873
504,2.088,35.902,26.043,31.366,24.212,5.03,6.139,9.713
505,2.124,36.04,26.146,31.356,24.201,4.907,5.976,9.67
506,2.14,36.176,26.237,31.346,24.204,4.947,5.974,9.792
507,2.141,36.254,26.168,31.346,24.204,4.866,5.974,9.875
508,2.134,36.034,26.343,31.346,24.204,4.946,6.015,10.079
509,2.108,36.166,26.126,31.356,24.215,4.988,6.015,10.203
510,2.075,36.263,26.284,31.346,24.205,4.948,6.056,10.326
511,2.072,36.331,25.969,31.346,24.204,4.866,5.975,10.286
512,2.055,35.949,26.173,31.366,24.215,4.987,6.015,10.774
513,1.987,36.117,26.21,31.385,24.215,4.988,6.015,11.023
514,1.885,36.244,26.058,31.385,24.215,4.988,6.056,11.229
515,1.793,36.255,26.256,31.376,24.211,4.948,5.975,11.475
516,1.665,36.092,26.051,31.366,24.215,4.988,6.055,11.721
517,1.537,36.234,26.263,31.375,24.215,5.029,6.015,11.846
518,1.396,36.36,26.309,31.385,24.211,4.989,6.015,12.05
519,1.278,36.352,26.176,31.452,24.222,5.151,6.218,12.621
520,1.143,36.035,26.257,31.357,24.212,5.031,6.098,12.952
521,1.002,36.166,26.16,31.356,24.208,4.948,6.056,13.403
522,0.861,36.302,26.245,31.356,24.204,4.947,5.975,14.017
523,0.736,36.044,26.039,31.366,24.208,4.947,5.974,14.592
524,0.624,36.109,26.275,31.347,24.208,4.988,6.015,15.208
525,0.506,36.253,26.078,31.356,24.204,4.988,5.974,15.743
526,0.384,36.322,26.26,31.337,24.211,4.948,6.015,16.195
527,0.292,36.984,26.168,31.346,24.201,4.907,5.852,16.444
528,0.226,37.154,26.116,31.356,24.211,4.947,5.973,16.853
529,0.17,37.299,26.237,31.366,24.211,5.11,6.096,17.223
530,0.14,37.377,26.117,31.385,24.208,4.989,6.016,17.308
531,0.114,35.345,26.28,31.356,24.215,5.07,6.096,17.39
532,0.091,35.488,26.016,31.366,24.211,5.03,6.097,17.391
533,0.084,35.614,26.224,31.366,24.208,4.989,5.975,17.391
534,0.087,35.711,26.3,31.385,24.215,4.988,6.015,17.228
535,0.107,36.067,26.176,31.385,24.215,5.151,6.096,17.105
536,0.149,36.195,26.265,31.376,24.218,5.112,6.056,16.941
537,0.189,36.292,25.961,31.366,24.211,4.908,6.056,16.695
538,0.221,36.36,26.212,31.356,24.204,4.865,5.893,16.408
539,0.248,35.834,26.019,31.366,24.204,4.946,5.973,16.202
540,0.281,35.963,26.279,31.375,24.204,4.947,5.974,16.2
541,0.32,36.108,26.0,31.366,24.204,4.947,6.015,15.997
542,0.366,36.148,26.181,31.366,24.211,4.947,6.056,15.791
543,0.409,35.774,26.277,31.327,24.198,4.866,5.934,15.586
544,0.445,35.953,26.168,31.356,24.208,4.946,5.892,15.503
545,0.497,36.06,26.245,31.375,24.211,4.988,6.014,15.542
546,0.534,36.08,26.0,31.385,24.215,5.029,6.015,15.462
547,0.573,36.176,26.216,31.356,24.215,5.03,6.015,15.501
548,0.603,36.292,26.0,31.366,24.208,4.989,6.056,15.502
549,0.619,36.399,26.185,31.366,24.211,4.988,5.975,15.583
550,0.655,36.572,26.249,31.366,24.211,4.988,5.933,15.706
551,0.675,36.68,26.059,31.395,24.218,5.029,6.014,15.87
552,0.701,36.796,26.291,31.395,24.218,5.111,6.137,16.034
553,0.698,36.855,26.067,31.376,24.208,4.949,6.057,15.954
554,0.721,35.417,26.228,31.356,24.201,4.866,5.934,15.791
555,0.741,35.421,26.0,31.423,24.204,4.865,5.974,15.749
556,0.744,35.565,26.204,31.357,24.204,4.865,5.933,15.707
557,0.751,35.672,26.062,31.356,24.208,4.865,6.014,15.544
558,0.751,35.856,26.178,31.356,24.208,4.987,5.974,15.421
559,0.751,35.953,26.288,31.356,24.208,4.866,5.974,15.298
560,0.761,36.127,26.094,31.366,24.204,4.987,5.893,15.012
561,0.757,36.244,26.268,31.385,24.211,4.948,6.054,15.05
562,0.77,35.698,26.121,31.376,24.218,4.988,6.056,14.887
563,0.77,35.837,26.256,31.375,24.215,4.988,6.015,14.764
564,0.757,35.982,26.008,31.385,24.208,4.988,6.015,14.722
565,0.761,36.041,26.204,31.366,24.211,4.988,6.056,14.559
566,0.754,35.783,26.199,31.375,24.208,4.948,6.056,14.516
567,0.774,35.933,26.163,31.404,24.208,4.988,5.975,14.353
568,0.777,36.06,26.354,31.404,24.225,5.11,6.218,14.352
569,0.751,36.099,26.044,31.376,24.215,5.03,6.017,14.149
570,0.767,35.668,26.228,31.375,24.201,4.867,5.893,13.943
571,0.754,35.827,25.996,31.366,24.204,4.865,5.973,13.778
572,0.761,35.953,26.208,31.375,24.204,4.906,6.015,13.614
573,0.757,35.993,26.156,31.375,24.211,4.906,6.015,13.45
574,0.78,35.907,26.14,31.385,24.204,4.987,6.015,13.245
575,0.774,36.059,26.276,31.366,24.211,4.948,6.015,13.162
576,0.787,36.147,26.039,31.337,24.204,4.785,5.974,12.795
577,0.79,36.455,26.275,31.375,24.204,4.905,5.974,12.751
578,0.793,35.758,26.289,31.395,24.218,5.028,6.137,12.669
579,0.79,35.904,26.176,31.366,24.215,4.989,6.016,12.627
580,0.79,36.011,26.257,31.366,24.218,5.029,6.137,12.546
581,0.793,35.859,26.082,31.385,24.215,4.989,6.057,12.464
582,0.8,35.925,26.205,31.385,24.201,4.988,6.137,12.341
583,0.81,36.06,26.015,31.376,24.204,4.948,6.057,12.258
584,0.813,36.166,26.228,31.404,24.222,4.947,6.137,12.217
585,0.8,35.65,26.066,31.385,24.222,5.069,6.138,12.216
586,0.784,35.731,26.271,31.376,24.208,4.908,6.016,12.013
587,0.79,35.866,26.074,31.356,24.208,4.947,5.974,11.848
588,0.787,35.953,26.084,31.356,24.204,4.907,5.974,11.725
589,0.78,35.676,26.237,31.366,24.208,4.987,6.015,11.642
590,0.79,35.836,26.125,31.375,24.211,4.988,6.015,11.519
591,0.784,35.934,26.264,31.385,24.211,4.948,5.974,11.518
592,0.78,36.012,25.973,31.366,24.201,4.785,5.974,11.315
593,0.793,35.811,26.185,31.375,24.208,4.905,5.974,11.272
594,0.787,35.982,26.28,31.395,24.211,5.028,6.137,11.231
595,0.797,36.108,26.164,31.395,24.215,5.03,6.098,11.109
596,0.807,36.167,26.241,31.404,24.215,4.948,6.056,10.985
597,0.807,35.611,26.023,31.385,24.211,4.988,6.015,10.903
598,0.807,35.759,26.236,31.366,24.208,4.988,6.015,10.821
599,0.826,35.914,26.008,31.385,24.215,4.988,6.015,10.82
600,0.823,35.973,26.267,31.404,24.222,5.11,6.178,10.739
601,0.81,35.763,26.289,31.404,24.218,5.03,6.139,10.738
602,0.81,35.895,26.145,31.366,24.205,4.948,6.016,10.575
603,0.807,35.983,26.288,31.347,24.204,4.947,5.974,10.411
604,0.803,36.022,26.098,31.356,24.204,4.907,5.893,10.45
605,0.813,35.763,26.244,31.356,24.204,4.947,5.973,10.491
606,0.803,35.904,25.988,31.385,24.208,4.988,5.974,10.491
607,0.787,36.031,26.224,31.366,24.204,4.988,6.015,10.654
608,0.8,35.869,26.004,31.347,24.197,4.866,5.893,10.452
609,0.807,35.723,26.216,31.366,24.208,4.987,5.933,10.41
610,0.803,35.885,26.23,31.385,24.208,4.988,6.096,10.572
611,0.79,36.011,26.101,31.376,24.215,4.948,6.016,10.533
612,0.81,35.696,26.28,31.375,24.215,4.947,6.056,10.451
613,0.816,35.779,26.125,31.366,24.211,4.988,5.934,10.572
614,0.813,35.914,26.268,31.385,24.208,5.029,6.014,10.533
615,0.826,36.05,26.008,31.404,24.208,4.989,5.974,10.451
616,0.839,35.735,26.236,31.404,24.225,5.11,6.096,10.532
617,0.83,35.827,26.012,31.366,24.208,4.989,6.016,10.573
618,0.82,35.953,26.177,31.347,24.211,4.907,5.974,10.451
619,0.817,36.041,26.323,31.346,24.201,4.906,5.852,10.41
620,0.813,35.524,26.134,31.366,24.208,4.987,5.932,10.409
621,0.823,35.662,26.253,31.366,24.208,4.948,5.933,10.491
622,0.826,35.808,26.109,31.356,24.204,4.947,5.933,10.451
623,0.813,35.857,26.245,31.346,24.211,4.988,5.892,10.613
624,0.826,35.714,26.008,31.385,24.201,4.826,5.851,10.696
625,0.826,35.885,26.22,31.366,24.211,4.905,5.891,10.778
626,0.817,36.021,26.043,31.356,24.215,4.987,5.973,11.064
627,0.807,36.08,26.217,31.375,24.211,5.029,5.974,11.148
628,0.813,35.572,26.308,31.366,24.208,5.03,5.974,11.23
629,0.807,35.711,26.094,31.356,24.211,4.989,5.974,11.231
630,0.81,35.856,26.237,31.366,24.211,4.988,5.933,11.231
631,0.829,35.915,26.039,31.366,24.218,5.029,5.933,11.353
632,0.813,35.666,26.287,31.375,24.218,5.111,6.055,11.476
633,0.807,35.788,25.977,31.337,24.208,4.989,5.975,11.396
634,0.826,35.914,26.228,31.337,24.208,4.948,5.893,11.192
635,0.823,36.165,26.062,31.327,24.201,4.866,5.851,11.189
636,0.82,35.659,26.228,31.346,24.204,4.946,5.891,11.149
637,0.823,35.788,26.312,31.337,24.208,4.988,5.892,11.067
638,0.81,35.905,26.184,31.327,24.208,4.948,5.892,11.066
639,0.816,35.647,26.245,31.346,24.201,4.866,5.892,10.944
640,0.833,35.692,26.047,31.346,24.204,4.906,5.851,10.821
641,0.836,35.808,26.275,31.337,24.215,5.028,5.973,10.901
642,0.826,35.915,26.051,31.356,24.211,5.03,5.974,10.861
643,0.826,35.551,26.252,31.346,24.211,4.948,5.974,10.739
644,0.813,35.682,26.039,31.337,24.211,4.988,5.974,10.616
645,0.816,35.808,26.263,31.327,24.211,4.988,5.893,10.533
646,0.829,35.924,26.234,31.346,24.218,4.948,5.973,10.451
647,0.817,35.618,26.218,31.366,24.215,5.11,6.055,10.491
648,0.81,35.74,26.226,31.327,24.211,4.989,6.015,10.369
649,0.816,35.875,26.047,31.317,24.204,4.907,5.893,10.165
650,0.82,35.944,26.232,31.317,24.211,4.906,5.851,10.122
651,0.82,35.446,26.043,31.317,24.208,4.906,5.891,10.0
652,0.803,35.585,26.232,31.337,24.218,4.947,5.892,9.999
653,0.826,35.749,26.031,31.327,24.208,4.947,5.933,10.039
654,0.813,35.78,26.146,31.317,24.208,4.907,5.892,9.958
655,0.826,35.646,26.323,31.327,24.201,4.865,5.851,9.835
656,0.836,35.798,26.215,31.327,24.208,4.946,5.932,9.916
657,0.839,35.905,26.292,31.356,24.215,4.988,6.014,10.12
658,0.849,35.963,26.016,31.327,24.215,5.029,5.974,10.244
659,0.849,35.532,26.255,31.327,24.218,4.989,5.974,10.448
660,0.843,35.653,26.047,31.346,24.211,4.948,5.974,10.735
661,0.833,35.788,26.209,31.318,24.208,4.988,5.974,11.144
662,0.836,35.847,26.257,31.327,24.211,4.948,6.015,11.474
663,0.846,35.656,26.18,31.356,24.222,5.11,6.137,11.843
664,0.823,35.788,26.296,31.337,24.208,5.03,6.057,12.253
665,0.804,35.847,26.102,31.318,24.204,4.907,5.934,12.379
666,0.816,35.848,26.209,31.298,24.204,4.906,5.852,12.503
667,0.826,35.598,26.019,31.317,24.204,4.947,5.891,12.707
668,0.823,35.74,26.267,31.327,24.208,4.988,5.973,12.872
669,0.82,35.856,26.0,31.317,24.211,4.907,5.933,12.955
670,0.817,35.541,26.255,31.289,24.211,4.987,6.014,12.956
671,0.81,35.605,25.988,31.307,24.201,4.948,5.974,12.996
672,0.833,35.749,26.154,31.308,24.201,4.947,5.974,12.996
673,0.83,35.895,26.28,31.336,24.208,5.029,6.096,13.037
674,0.833,35.704,26.199,31.327,24.215,5.111,5.975,12.997
675,0.833,35.837,26.23,31.317,24.211,5.03,6.055,12.915
676,0.843,35.982,26.051,31.317,24.211,5.03,6.056,12.792
677,0.836,36.06,26.228,31.308,24.208,4.948,6.056,12.71
678,0.843,35.37,26.129,31.308,24.208,5.029,6.097,12.587
679,0.843,35.517,26.323,31.346,24.222,5.111,6.138,12.586
680,0.83,35.624,26.048,31.318,24.215,5.071,6.138,12.545
681,0.826,35.692,26.236,31.279,24.201,5.03,6.057,12.301
682,0.826,35.491,25.988,31.288,24.208,4.989,5.975,12.176
683,0.826,35.633,26.181,31.269,24.201,4.948,6.015,11.972
684,0.83,35.779,26.23,31.288,24.208,4.988,6.056,11.97
685,0.836,35.828,26.019,31.307,24.208,4.948,6.097,11.807
686,0.817,35.435,26.216,31.289,24.215,5.029,6.056,11.765
687,0.826,35.566,26.031,31.279,24.201,4.907,5.934,11.561
688,0.83,35.73,26.287,31.288,24.208,4.947,6.014,11.478
689,0.843,35.77,26.106,31.279,24.211,5.069,6.137,11.436
690,0.839,35.521,26.268,31.298,24.204,5.03,6.138,11.355
691,0.839,35.653,25.989,31.288,24.211,5.07,6.219,11.273
692,0.826,35.76,26.243,31.298,24.208,5.03,6.18,11.15
693,0.817,35.751,26.269,31.298,24.208,5.03,6.098,11.067
694,0.82,35.578,26.098,31.298,24.215,4.989,6.178,10.985
695,0.836,35.749,26.272,31.308,24.222,5.11,6.22,11.025
696,0.836,35.828,26.121,31.298,24.215,5.152,6.22,10.944
697,0.833,35.598,26.295,31.269,24.205,4.99,6.098,10.862
698,0.83,35.538,26.102,31.269,24.208,4.988,6.016,10.739
699,0.839,35.682,26.252,31.288,24.208,4.948,6.015,10.779
700,0.836,35.808,26.043,31.279,24.208,4.947,6.096,10.779
701,0.83,35.425,26.201,31.298,24.208,4.988,6.097,10.82
702,0.823,35.498,26.253,31.279,24.211,4.948,6.097,10.82
703,0.823,35.653,26.082,31.25,24.198,4.907,6.016,10.739
704,0.836,35.75,26.244,31.288,24.208,4.906,6.015,10.779
705,0.839,35.521,26.098,31.307,24.215,5.069,6.056,10.901
706,0.83,35.653,26.303,31.289,24.218,5.03,6.219,11.065
707,0.817,35.779,26.083,31.288,24.211,4.989,6.22,11.148
708,0.82,35.857,26.279,31.288,24.211,5.029,6.139,11.271
709,0.813,35.436,26.0,31.288,24.215,5.03,6.138,11.394
710,0.823,35.575,26.185,31.279,24.211,4.989,6.098,11.72
711,0.839,35.749,26.101,31.298,24.215,5.07,6.178,11.805
712,0.833,35.789,26.116,31.317,24.215,5.07,6.301,12.131
713,0.83,35.55,26.245,31.289,24.205,4.908,6.099,12.256
714,0.823,35.691,26.07,31.269,24.201,4.947,6.056,12.339
715,0.82,35.827,26.299,31.269,24.204,4.907,6.097,12.38
716,0.836,35.876,26.067,31.269,24.204,4.987,6.056,12.543
717,0.839,35.56,26.213,31.259,24.208,4.988,6.137,12.626
718,0.836,35.73,26.089,31.288,24.211,4.988,6.138,12.708
719,0.823,35.818,26.123,31.269,24.211,4.948,6.098,12.668
720,0.807,35.857,26.245,31.259,24.201,4.907,5.975,12.627
721,0.813,35.541,26.051,31.278,24.211,4.987,6.177,12.586
722,0.82,35.701,26.236,31.298,24.218,5.151,6.22,12.586
723,0.826,35.808,25.988,31.279,24.211,4.99,6.22,12.545
724,0.813,36.049,26.259,31.269,24.215,4.988,6.22,12.464
725,0.82,35.821,26.039,31.288,24.211,5.029,6.18,12.422
726,0.813,35.982,26.174,31.279,24.215,4.989,6.179,12.218
727,0.813,36.098,26.198,31.307,24.208,5.029,6.139,12.216
728,0.813,35.745,26.046,31.308,24.218,5.111,6.382,12.257
729,0.797,35.77,26.228,31.269,24.208,5.071,6.222,11.973
730,0.797,35.885,26.035,31.25,24.204,4.908,6.139,11.807
731,0.797,36.002,26.205,31.259,24.201,4.987,6.098,11.684
732,0.803,35.84,26.164,31.278,24.208,4.948,6.178,11.601
733,0.8,35.963,26.237,31.269,24.211,5.029,6.179,11.478
734,0.807,36.089,26.32,31.279,24.211,4.948,6.22,11.477
735,0.8,36.157,26.094,31.269,24.215,4.988,6.18,11.314
736,0.813,35.822,26.178,31.279,24.205,4.866,6.098,11.11
737,0.816,35.982,26.058,31.288,24.208,5.028,6.219,11.026
738,0.813,36.127,26.252,31.288,24.211,5.111,6.342,10.985
739,0.8,36.186,26.043,31.279,24.215,5.03,6.221,10.862
740,0.794,36.033,26.181,31.259,24.215,5.03,6.22,10.78
741,0.8,36.176,25.964,31.288,24.205,5.03,6.342,10.82
742,0.803,36.292,26.227,31.269,24.208,4.989,6.262,10.82
743,0.807,36.389,26.285,31.298,24.222,5.029,6.302,10.82
744,0.794,36.035,26.086,31.308,24.222,5.111,6.343,10.901
745,0.79,36.166,26.233,31.26,24.215,5.03,6.303,10.821
746,0.767,36.283,26.012,31.259,24.208,4.989,6.14,10.779
747,0.761,36.332,26.259,31.25,24.204,4.866,6.219,10.698
748,0.767,36.246,26.039,31.259,24.204,4.906,6.22,10.697
749,0.764,36.398,26.24,31.259,24.208,4.947,6.261,10.656
750,0.767,36.525,26.289,31.269,24.208,4.947,6.18,10.696
751,0.761,36.516,26.043,31.269,24.204,4.947,6.22,10.575
752,0.767,36.324,26.314,31.25,24.197,4.907,6.139,10.33
753,0.774,36.476,26.005,31.269,24.208,4.987,6.26,10.408
754,0.78,36.592,26.243,31.288,24.215,4.988,6.343,10.409
755,0.771,36.565,25.988,31.279,24.218,5.029,6.343,10.369
756,0.774,36.517,26.177,31.288,24.208,5.03,6.262,10.246
757,0.774,36.641,26.296,31.288,24.208,4.989,6.302,10.164
758,0.767,36.748,26.203,31.279,24.215,4.948,6.262,10.082
759,0.774,36.403,26.245,31.259,24.208,4.988,6.302,10.04
760,0.774,36.544,26.035,31.288,24.211,5.029,6.343,9.958
761,0.761,36.66,26.283,31.298,24.218,5.151,6.384,9.998
762,0.748,36.709,25.997,31.25,24.205,5.031,6.344,9.877
763,0.76,36.48,26.193,31.259,24.201,4.948,6.14,9.631
764,0.744,36.612,26.035,31.25,24.204,4.866,6.179,9.548
765,0.741,36.757,26.158,31.23,24.208,4.946,6.139,9.547
766,0.741,36.816,26.288,31.269,24.204,4.907,6.179,9.506
767,0.747,36.634,26.098,31.288,24.211,4.906,6.22,9.384
768,0.738,36.767,26.256,31.231,24.204,4.947,6.22,9.423
769,0.741,36.902,25.981,31.23,24.204,4.866,6.058,9.424
770,0.751,37.009,26.212,31.269,24.211,4.946,6.097,9.424
771,0.744,36.742,26.039,31.259,24.211,5.029,6.219,9.668
772,0.757,36.883,26.189,31.269,24.218,5.03,6.302,10.036
773,0.767,37.018,25.988,31.269,24.215,4.989,6.262,10.324
774,0.761,37.068,26.204,31.269,24.215,5.029,6.221,10.734
775,0.757,36.857,26.296,31.269,24.215,4.989,6.22,11.022
776,0.764,36.999,26.106,31.25,24.205,4.907,6.22,11.432
777,0.764,37.154,26.28,31.288,24.225,5.109,6.22,11.761
778,0.754,37.155,25.934,31.269,24.215,5.03,6.302,12.049
779,0.754,36.935,26.18,31.24,24.208,4.907,6.14,12.215
780,0.757,37.057,26.257,31.23,24.211,4.947,6.098,12.379
781,0.761,37.154,26.07,31.249,24.204,4.988,6.097,12.543
782,0.757,37.596,26.244,31.259,24.208,4.988,6.138,12.586
783,0.748,36.949,26.043,31.25,24.208,4.948,6.219,12.708
784,0.741,37.067,26.283,31.259,24.211,4.988,6.22,12.668
785,0.76,37.145,26.032,31.231,24.208,4.866,6.058,12.627
786,0.764,37.069,26.228,31.249,24.211,4.946,6.137,12.586
787,0.767,37.145,25.996,31.269,24.215,5.029,6.219,12.667
788,0.761,37.28,26.208,31.279,24.211,4.989,6.22,12.546
789,0.761,37.377,26.011,31.24,24.208,5.029,6.22,12.504
790,0.764,36.908,26.193,31.24,24.204,5.03,6.22,12.301
791,0.751,37.028,26.171,31.269,24.208,4.948,6.18,12.258
792,0.764,37.164,26.077,31.269,24.211,4.947,6.179,12.135
793,0.751,37.29,26.287,31.288,24.225,5.15,6.261,12.053
794,0.764,37.991,26.106,31.26,24.218,4.99,6.221,12.011
795,0.754,38.132,26.237,31.25,24.201,4.866,6.18,11.767
796,0.777,38.239,25.973,31.24,24.204,4.946,6.139,11.642
797,0.787,38.317,26.212,31.278,24.204,4.947,6.057,11.519
798,0.787,36.409,26.234,31.24,24.208,4.947,6.056,11.559
799,0.79,36.563,26.129,31.249,24.211,4.988,6.097,11.478
800,0.784,36.66,26.245,31.25,24.211,4.988,6.138,11.477
801,0.787,36.738,25.988,31.23,24.204,4.826,6.057,11.274
802,0.803,37.17,26.232,31.249,24.208,4.987,6.097,11.312
803,0.8,37.309,26.109,31.278,24.211,4.988,6.178,11.272
804,0.816,37.416,26.147,31.269,24.215,4.988,6.22,11.353
805,0.829,37.465,26.249,31.279,24.211,5.029,6.18,11.313
806,0.81,37.043,26.059,31.24,24.208,5.07,6.22,11.313
807,0.82,37.202,26.248,31.249,24.215,5.03,6.18,11.232
808,0.839,37.328,26.031,31.259,24.218,5.03,6.179,11.231
809,0.833,37.358,26.263,31.288,24.218,5.111,6.261,11.312
810,0.843,36.946,26.262,31.307,24.218,5.112,6.302,11.475
811,0.836,37.067,26.121,31.241,24.211,5.071,6.058,11.396
812,0.833,37.154,26.272,31.23,24.204,4.948,6.056,11.354
813,0.839,37.28,26.078,31.249,24.204,4.907,6.015,11.435
814,0.859,37.262,26.166,31.269,24.211,4.947,6.096,11.517
815,0.859,37.387,26.019,31.259,24.204,4.988,6.097,11.559
816,0.853,37.493,26.232,31.259,24.208,4.988,6.138,11.681
817,0.872,37.044,26.039,31.259,24.197,4.866,5.935,11.683
818,0.872,37.106,26.213,31.269,24.211,4.987,6.055,11.764
819,0.895,37.251,26.285,31.279,24.218,4.988,6.137,11.968
820,0.895,37.348,26.082,31.288,24.211,5.07,6.098,12.092
821,0.892,37.023,26.26,31.298,24.222,4.948,6.056,11.971
822,0.895,37.125,26.035,31.288,24.208,4.988,6.097,12.092
823,0.899,37.261,26.138,31.298,24.215,5.029,6.097,12.012
824,0.899,37.406,25.96,31.298,24.218,4.948,6.016,11.97
825,0.899,37.206,26.227,31.317,24.229,5.11,6.218,12.051
826,0.879,37.309,26.281,31.289,24.212,4.989,6.139,12.052
827,0.879,37.416,26.168,31.269,24.204,4.866,5.976,12.011
828,0.885,37.503,26.308,31.259,24.204,5.028,5.974,11.808
829,0.892,37.082,25.954,31.288,24.201,4.948,6.015,11.806
830,0.892,37.222,26.235,31.269,24.211,4.988,6.015,11.643
831,0.889,37.348,26.016,31.269,24.211,4.948,6.015,11.601
832,0.899,37.387,26.181,31.269,24.211,4.907,6.056,11.478
833,0.905,37.167,26.222,31.269,24.194,4.825,6.015,11.436
834,0.912,37.328,26.058,31.279,24.211,4.946,5.974,11.273
835,0.912,37.445,26.303,31.288,24.218,5.029,6.096,11.312
836,0.918,37.484,26.083,31.307,24.215,4.989,6.138,11.232
837,0.922,37.178,26.252,31.289,24.211,4.988,6.138,11.068
838,0.905,37.328,26.184,31.288,24.211,5.029,6.179,10.985
839,0.915,37.416,26.097,31.269,24.211,4.989,6.179,10.822
840,0.915,37.465,26.252,31.288,24.211,4.988,6.139,10.657
841,0.918,37.187,26.043,31.307,24.218,5.029,6.219,10.615
842,0.909,37.319,26.213,31.298,24.218,5.07,6.302,10.493
843,0.915,37.416,25.98,31.279,24.208,4.948,6.14,10.288
844,0.889,37.216,26.22,31.25,24.204,4.907,6.138,10.083
845,0.895,37.185,26.195,31.259,24.208,4.906,6.098,9.999
846,0.889,37.328,26.136,31.259,24.208,4.825,6.097,9.836
847,0.882,37.426,26.225,31.269,24.208,4.905,6.097,9.834
848,0.889,37.196,26.004,31.336,24.208,5.028,6.138,9.753
849,0.869,37.28,26.173,31.27,24.204,4.907,6.138,9.549
850,0.882,37.416,26.007,31.259,24.197,4.865,6.057,9.425
851,0.879,37.513,26.185,31.288,24.211,4.946,6.137,9.464
852,0.889,37.063,26.241,31.288,24.211,5.029,6.219,9.424
853,0.885,37.183,26.152,31.288,24.211,4.989,6.18,9.383
854,0.892,37.328,26.3,31.288,24.211,5.029,6.22,9.261
855,0.889,37.406,26.059,31.279,24.211,4.989,6.139,9.178
856,0.895,37.196,26.185,31.279,24.208,4.988,6.179,9.137
857,0.895,37.357,25.921,31.269,24.215,4.988,6.179,8.933
858,0.899,37.503,26.161,31.317,24.218,5.029,6.261,8.931
859,0.879,37.542,25.984,31.289,24.222,5.151,6.302,9.093
860,0.876,37.198,26.208,31.269,24.212,4.949,6.221,8.851
861,0.872,37.338,26.261,31.317,24.204,4.947,6.139,8.767
862,0.876,37.464,26.145,31.26,24.204,4.947,6.138,8.685
863,0.879,37.494,26.315,31.25,24.204,4.907,6.098,8.684
864,0.876,37.111,26.157,31.269,24.211,4.987,6.138,8.603
865,0.876,37.26,26.249,31.259,24.211,4.988,6.057,8.643
866,0.846,37.367,26.02,31.259,24.208,4.988,6.178,8.562
867,0.853,37.407,26.212,31.259,24.197,4.866,6.057,8.561
868,0.862,37.311,25.965,31.269,24.211,4.946,6.097,8.683
869,0.866,37.445,26.188,31.279,24.218,5.029,6.138,8.766
870,0.866,37.542,26.269,31.279,24.211,5.07,6.098,8.848
871,0.859,37.562,26.047,31.269,24.211,5.03,6.178,8.93
872,0.866,37.131,26.26,31.269,24.211,5.03,6.139,8.931
873,0.849,37.261,26.055,31.25,24.208,4.948,6.098,8.931
874,0.859,37.367,26.213,31.278,24.208,4.988,6.138,8.931
875,0.872,37.397,25.953,31.327,24.222,4.988,6.219,8.972
876,0.869,37.484,26.2,31.27,24.215,5.029,6.22,9.094
877,0.872,37.6,26.011,31.25,24.205,4.989,6.139,9.014
878,0.859,37.678,26.138,31.25,24.204,4.948,6.098,8.972
879,0.856,37.122,26.272,31.24,24.211,4.947,6.097,9.053
880,0.862,37.241,26.074,31.259,24.208,4.947,6.056,9.135
881,0.862,37.377,26.225,31.259,24.211,4.907,6.097,9.217
882,0.862,37.455,26.066,31.259,24.204,4.947,6.097,9.259
883,0.879,37.13,26.228,31.221,24.204,4.866,5.975,9.259
884,0.876,37.318,25.934,31.24,24.204,4.906,6.055,9.381
885,0.882,37.445,26.239,31.269,24.215,4.947,6.097,9.505
886,0.866,37.503,26.019,31.269,24.215,5.11,6.178,9.587
887,0.866,37.255,26.205,31.269,24.215,4.989,6.22,9.71
888,0.862,37.396,26.296,31.269,24.211,4.948,6.058,9.752
889,0.856,37.493,26.094,31.24,24.211,4.988,6.097,9.712
890,0.862,37.581,26.244,31.249,24.211,4.988,6.056,9.711
891,0.859,37.303,26.059,31.278,24.225,5.11,6.137,9.833
892,0.856,37.406,26.295,31.259,24.218,5.071,6.179,9.916
893,0.853,37.503,25.962,31.25,24.208,4.908,6.139,9.713
894,0.853,37.562,26.169,31.23,24.204,4.906,6.057,9.711
895,0.856,37.409,26.233,31.24,24.208,4.906,6.056,9.63
896,0.875,37.57,26.129,31.249,24.204,4.865,6.056,9.629
897,0.882,37.658,26.28,31.23,24.211,4.987,6.056,9.629
898,0.869,37.649,26.172,31.24,24.211,4.866,6.015,9.67
899,0.872,37.227,26.214,31.221,24.201,4.784,5.934,9.589
900,0.876,37.396,26.008,31.249,24.208,4.905,6.096,9.669
901,0.872,37.503,26.255,31.259,24.215,4.947,6.138,9.792
902,0.882,37.408,25.981,31.24,24.211,4.907,6.138,9.834
903,0.885,37.359,26.169,31.24,24.211,4.947,6.098,9.834
904,0.872,37.503,26.23,31.24,24.208,4.947,6.178,9.794
905,0.876,37.59,26.148,31.24,24.208,4.947,6.098,9.753
906,0.876,37.352,26.3,31.249,24.215,4.947,6.138,9.833
907,0.876,37.455,26.102,31.259,24.225,5.029,6.219,9.916
908,0.872,37.552,26.248,31.24,24.222,4.948,6.18,9.876
909,0.859,37.629,25.992,31.23,24.201,4.866,6.017,9.753
910,0.866,37.179,26.212,31.211,24.204,4.906,6.056,9.712
911,0.876,37.328,26.238,31.23,24.204,4.865,6.015,9.63
912,0.885,37.445,26.051,31.24,24.211,4.906,6.056,9.67
913,0.885,37.551,26.228,31.23,24.208,4.906,6.056,9.711
914,0.882,37.409,26.004,31.221,24.208,4.987,6.097,9.63
915,0.885,37.551,26.243,31.201,24.201,4.826,5.975,9.548
916,0.902,37.687,26.059,31.22,24.211,4.905,6.015,9.547
917,0.905,37.755,26.244,31.24,24.211,4.987,6.137,9.669
918,0.902,37.286,26.078,31.23,24.218,4.948,6.138,9.711
919,0.889,37.444,26.115,31.249,24.211,4.988,6.098,9.792
920,0.895,37.551,26.256,31.24,24.218,4.907,6.097,9.834
921,0.895,37.6,26.082,31.221,24.211,4.906,6.097,9.834
922,0.892,37.438,26.233,31.211,24.208,4.987,6.138,9.956
923,0.899,37.58,26.008,31.259,24.222,5.07,6.179,10.202
924,0.895,37.658,26.255,31.231,24.215,5.03,6.139,10.326
925,0.882,37.669,26.039,31.211,24.205,4.907,5.976,10.408
926,0.879,37.314,26.162,31.211,24.201,4.865,5.974,10.531
927,0.872,37.445,26.155,31.211,24.201,4.946,5.893,10.695
928,0.876,37.58,26.073,31.22,24.211,4.947,6.054,10.859
929,0.879,37.927,26.201,31.221,24.208,4.907,6.097,10.983
930,0.879,37.365,26.07,31.23,24.211,4.987,6.016,11.106
931,0.872,37.483,26.189,31.201,24.198,4.826,5.934,11.148
932,0.885,37.619,26.011,31.23,24.204,4.905,6.055,11.149
933,0.879,37.467,26.263,31.24,24.218,5.069,6.097,11.311
934,0.895,37.513,26.086,31.24,24.211,5.03,6.138,11.435
935,0.892,37.629,26.135,31.249,24.215,4.989,6.138,11.477
936,0.899,37.726,26.225,31.24,24.211,4.948,6.057,11.396
937,0.905,37.382,26.015,31.288,24.211,4.988,6.056,11.314
938,0.892,37.512,26.216,31.231,24.211,5.029,6.015,11.353
939,0.908,37.648,25.988,31.259,24.218,5.03,6.137,11.354
940,0.905,37.716,26.259,31.25,24.222,5.07,6.179,11.395
941,0.899,37.238,25.992,31.221,24.208,4.989,6.139,11.151
942,0.889,37.367,26.169,31.211,24.208,4.907,6.057,11.026
943,0.899,37.493,26.198,31.23,24.208,4.865,6.056,10.903
944,0.902,37.59,26.183,31.221,24.208,4.946,6.056,10.78
945,0.899,37.352,26.183,31.211,24.204,4.947,6.056,10.698
946,0.895,37.493,26.058,31.24,24.215,4.988,6.097,10.575
947,0.892,37.581,26.197,31.211,24.201,4.907,6.056,10.574
948,0.899,37.668,25.925,31.211,24.204,4.865,6.015,10.289
949,0.895,37.333,26.188,31.23,24.215,5.028,6.137,10.327
950,0.895,37.483,26.218,31.23,24.215,5.07,6.179,10.286
951,0.899,37.6,26.09,31.24,24.211,5.03,6.139,10.205
952,0.912,37.658,26.283,31.23,24.211,4.989,6.138,10.163
953,0.905,37.343,26.082,31.23,24.215,5.029,6.098,10.041
954,0.892,37.483,26.201,31.23,24.211,4.989,6.138,9.999
955,0.895,37.6,25.992,31.221,24.204,4.907,6.138,9.917
956,0.908,37.639,26.22,31.268,24.218,5.028,6.098,9.876
957,0.899,37.237,26.168,31.25,24.218,5.07,6.219,9.916
958,0.886,37.348,26.148,31.211,24.208,5.03,6.139,9.835
959,0.885,37.445,26.276,31.201,24.201,4.907,6.057,9.712
960,0.895,37.427,26.063,31.201,24.201,4.865,6.015,9.67
961,0.899,37.331,26.236,31.22,24.204,4.906,6.015,9.589
962,0.905,37.464,26.055,31.211,24.208,4.947,6.096,9.669
963,0.899,37.571,26.24,31.201,24.211,4.947,6.097,9.67
964,0.886,37.255,26.047,31.22,24.211,4.988,6.056,9.548
965,0.889,37.3,26.221,31.182,24.204,4.866,5.975,9.506
966,0.895,37.445,26.015,31.22,24.204,4.906,6.055,9.506
967,0.879,37.561,26.259,31.24,24.211,5.028,6.097,9.587
968,0.882,37.207,26.141,31.221,24.215,4.989,6.138,9.588
969,0.879,37.348,26.132,31.221,24.211,4.948,6.138,9.547
970,0.885,37.483,26.245,31.23,24.211,5.029,6.098,9.506
971,0.882,37.571,26.035,31.23,24.215,4.989,6.138,9.425
972,0.892,37.188,26.263,31.221,24.211,4.948,6.138,9.383
973,0.905,37.405,25.996,31.23,24.218,4.988,6.179,9.382
974,0.905,37.522,26.204,31.249,24.222,5.07,6.261,9.464
975,0.902,37.552,25.996,31.211,24.212,4.989,6.139,9.424
976,0.899,37.121,26.228,31.192,24.204,4.907,6.057,9.464
977,0.908,37.27,26.304,31.182,24.208,4.865,5.975,9.546
978,0.902,37.387,26.098,31.201,24.211,4.865,6.096,9.872
979,0.895,37.455,26.252,31.201,24.208,4.906,6.016,10.119
980,0.889,37.072,26.0,31.201,24.208,4.987,6.096,10.528
981,0.879,37.202,26.267,31.192,24.204,4.907,6.097,10.736
982,0.882,37.309,26.106,31.192,24.204,4.865,5.975,10.982
983,0.895,37.378,26.12,31.23,24.211,4.946,6.015,11.228
984,0.886,37.282,26.26,31.221,24.215,4.988,6.178,11.475
985,0.895,37.416,26.102,31.211,24.215,4.988,6.139,11.721
986,0.886,37.522,26.299,31.211,24.215,4.948,6.138,11.886
987,0.882,37.792,26.059,31.23,24.208,4.947,6.098,11.888
988,0.872,37.085,26.209,31.211,24.215,4.988,6.138,11.969
989,0.882,37.231,26.047,31.201,24.215,4.907,6.138,11.929
990,0.898,37.338,26.17,31.23,24.225,5.028,6.098,11.97
991,0.882,37.244,26.159,31.211,24.218,5.03,6.219,11.97
992,0.876,37.281,26.116,31.249,24.208,4.907,6.058,11.807
993,0.879,37.406,26.237,31.202,24.204,4.906,6.015,11.684
994,0.882,37.513,26.035,31.201,24.204,4.865,6.015,11.56
995,0.889,37.044,26.271,31.182,24.208,4.906,6.096,11.519
996,0.905,37.125,25.977,31.211,24.211,4.947,6.097,11.396
997,0.899,37.28,26.181,31.192,24.211,4.988,6.016,11.314
998,0.873,37.329,25.91,31.182,24.204,4.866,5.974,11.232
999,0.889,37.1,26.157,31.191,24.208,4.906,5.852,11.068
1000,0.892,37.251,26.284,31.192,24.208,4.987,6.013,11.066
1001,0.873,37.386,26.063,31.22,24.218,5.029,6.137,11.066
1002,0.869,37.455,26.248,31.201,24.218,5.03,6.138,10.944
1003,0.882,37.072,26.031,31.192,24.211,4.948,6.057,10.821
1004,0.872,37.212,26.275,31.201,24.211,4.988,6.015,10.698
1005,0.869,37.319,25.981,31.192,24.204,4.948,6.056,10.534
1006,0.876,37.454,26.126,31.211,24.208,4.988,6.056,10.451
1007,0.892,37.072,25.991,31.23,24.222,5.07,6.178,10.45
1008,0.873,37.193,26.115,31.211,24.218,5.03,6.017,10.288
1009,0.863,37.309,26.202,31.182,24.211,4.989,5.974,10.123
1010,0.853,37.349,26.136,31.163,24.201,4.866,5.893,10.041
1011,0.862,37.157,26.264,31.191,24.204,4.906,5.933,9.918
1012,0.879,37.299,25.996,31.192,24.218,4.947,6.014,9.916
1013,0.879,37.406,26.247,31.201,24.208,4.947,5.974,9.876
1014,0.866,37.417,26.281,31.172,24.208,4.907,5.974,9.753
1015,0.879,37.11,26.09,31.191,24.204,4.906,5.852,9.59
1016,0.895,37.27,26.151,31.201,24.208,4.987,5.973,9.669
1017,0.886,37.396,26.011,31.22,24.218,4.988,6.055,9.589
1018,0.879,37.398,26.205,31.192,24.211,4.948,6.056,9.507
1019,0.872,37.254,26.089,31.192,24.218,4.988,6.015,9.506
1020,0.859,37.367,26.252,31.182,24.211,4.907,5.974,9.384
1021,0.869,37.474,26.012,31.201,24.211,4.906,6.015,9.342
1022,0.885,37.111,26.236,31.211,24.215,4.947,5.974,9.26
1023,0.885,37.145,26.101,31.22,24.225,5.11,6.137,9.3
1024,0.866,37.251,26.131,31.182,24.215,4.989,6.098,9.219
1025,0.853,37.339,26.155,31.182,24.208,4.866,5.935,9.218
1026,0.836,37.023,26.05,31.172,24.208,4.865,5.933,9.34
1027,0.839,37.135,26.244,31.182,24.211,4.987,5.974,9.464
1028,0.846,37.251,25.981,31.172,24.208,4.907,5.974,9.627
1029,0.853,37.348,26.228,31.182,24.215,4.906,5.974,9.914
1030,0.849,37.033,26.062,31.182,24.208,4.947,6.015,10.161
1031,0.853,37.173,26.139,31.153,24.204,4.825,5.893,10.326
1032,0.859,37.328,26.28,31.201,24.208,4.905,5.973,10.693
1033,0.853,37.387,26.086,31.211,24.215,4.947,6.055,11.022
1034,0.853,37.148,26.252,31.22,24.218,4.907,6.015,11.31
1035,0.866,37.29,25.945,31.192,24.211,4.987,6.056,11.475
1036,0.866,37.387,26.114,31.182,24.211,4.907,6.015,11.599
1037,0.862,37.445,26.245,31.182,24.211,4.906,6.056,11.722
1038,0.869,37.149,26.113,31.182,24.215,4.865,5.975,11.764
1039,0.876,37.318,26.276,31.211,24.218,5.068,6.137,11.927
1040,0.863,37.406,25.989,31.182,24.215,4.989,6.098,11.929
1041,0.853,37.417,26.196,31.172,24.208,4.866,5.935,11.888
1042,0.856,37.081,26.062,31.172,24.197,4.906,5.974,11.806
1043,0.862,37.212,26.205,31.172,24.201,4.825,6.015,11.724
1044,0.856,37.357,25.964,31.172,24.215,4.987,6.015,11.723
1045,0.849,37.359,26.145,31.153,24.211,4.907,5.934,11.642
1046,0.836,37.186,26.206,31.172,24.218,4.865,5.974,11.641
1047,0.826,37.29,26.187,31.134,24.201,4.865,6.015,11.56
1048,0.839,37.406,26.292,31.162,24.204,4.824,5.934,11.437
1049,0.836,37.522,26.043,31.172,24.208,4.946,6.096,11.477
1050,0.843,37.6,26.228,31.163,24.215,4.988,6.097,11.477
1051,0.839,37.735,26.023,31.172,24.222,4.948,6.138,11.314
1052,0.839,37.823,26.22,31.191,24.215,4.947,6.098,11.272
1053,0.843,36.913,26.0,31.192,24.215,4.988,6.138,11.231
1054,0.859,36.98,26.158,31.172,24.211,4.988,6.098,11.027
1055,0.856,37.115,26.253,31.163,24.208,4.948,6.138,10.944
1056,0.862,37.232,26.187,31.201,24.225,5.069,6.179,10.902
1057,0.869,37.022,26.319,31.182,24.215,5.03,6.179,10.943
1058,0.863,37.135,26.052,31.143,24.208,4.907,6.057,10.699
1059,0.862,37.309,26.17,31.181,24.208,4.825,6.015,10.616
1060,0.853,37.378,25.945,31.143,24.208,4.824,6.096,10.452
1061,0.843,37.014,26.216,31.143,24.208,4.865,6.056,10.45
1062,0.833,37.164,26.214,31.153,24.204,4.865,6.056,10.369
1063,0.846,37.299,26.129,31.143,24.204,4.906,6.097,10.287
1064,0.833,37.339,26.217,31.134,24.208,4.825,6.056,10.245
1065,0.843,36.965,26.093,31.143,24.204,4.824,6.015,10.082
1066,0.836,37.134,26.283,31.172,24.215,4.865,6.056,10.203
1067,0.833,37.251,26.02,31.172,24.211,4.946,6.137,10.204
1068,0.839,37.3,26.181,31.172,24.211,4.907,6.179,10.082
1069,0.839,37.109,25.996,31.163,24.208,4.906,6.179,10.081
1070,0.843,37.251,26.243,31.153,24.208,4.947,6.139,10.121
1071,0.843,37.339,26.094,31.172,24.211,4.947,6.138,10.203
1072,0.839,37.416,26.174,31.191,24.215,4.988,6.138,10.245
1073,0.836,37.973,26.245,31.192,24.222,5.029,6.301,10.57
1074,0.826,38.075,26.074,31.144,24.215,4.907,6.14,10.655
1075,0.833,38.162,26.272,31.153,24.205,4.865,6.016,10.9
1076,0.836,37.904,26.032,31.153,24.204,4.824,6.096,11.146
1077,0.839,36.54,26.189,31.162,24.208,4.905,6.097,11.474
1078,0.849,36.698,25.925,31.182,24.208,4.947,6.138,11.802
1079,0.853,36.786,26.172,31.153,24.204,4.907,6.098,11.968
1080,0.84,37.008,26.163,31.134,24.204,4.906,6.056,12.214
1081,0.856,37.154,26.085,31.143,24.197,4.825,5.975,12.176
1082,0.859,37.318,26.237,31.181,24.215,4.905,6.177,12.338
1083,0.853,37.416,26.043,31.163,24.215,4.987,6.179,12.421
1084,0.833,36.88,26.267,31.162,24.215,4.988,6.139,12.503
1085,0.826,36.999,25.989,31.134,24.211,4.948,6.138,12.626
1086,0.826,37.115,26.118,31.153,24.211,4.907,6.219,12.668
1087,0.833,37.213,26.089,31.182,24.211,4.947,6.18,12.627
1088,0.846,36.974,26.166,31.182,24.215,4.947,6.139,12.708
1089,0.84,37.106,26.261,31.182,24.222,4.988,6.26,12.831
1090,0.82,37.184,26.133,31.153,24.212,4.948,6.18,12.873
1091,0.82,37.271,26.245,31.124,24.204,4.866,6.098,12.792
1092,0.82,36.831,26.039,31.133,24.201,4.824,6.097,12.751
1093,0.82,36.979,26.263,31.143,24.208,4.824,6.097,12.872
1094,0.833,37.106,26.02,31.143,24.204,4.946,6.097,12.873
1095,0.839,37.184,26.158,31.143,24.211,4.866,6.138,12.914
1096,0.836,37.002,26.058,31.162,24.208,4.906,6.057,13.037
1097,0.833,37.135,26.107,31.115,24.197,4.744,6.015,12.997
1098,0.839,37.289,26.213,31.172,24.215,4.864,6.096,12.956
1099,0.846,37.31,26.121,31.182,24.222,4.946,6.178,13.159
1100,0.846,37.004,26.249,31.143,24.212,4.947,6.179,13.08
1101,0.84,37.144,26.02,31.172,24.215,4.907,6.098,12.957
1102,0.839,37.251,26.251,31.153,24.211,4.865,6.138,12.874
1103,0.839,37.262,26.008,31.143,24.218,4.906,6.138,12.711
1104,0.846,36.907,26.126,31.143,24.215,4.906,6.098,12.709
1105,0.843,37.057,26.245,31.21,24.218,5.028,6.219,12.709
1106,0.817,37.126,26.055,31.163,24.215,4.948,6.139,12.587
1107,0.82,36.992,26.24,31.124,24.205,4.825,6.057,12.301
1108,0.826,36.895,26.012,31.133,24.204,4.865,6.015,12.176
1109,0.813,37.028,26.232,31.124,24.208,4.784,6.096,11.931
1110,0.823,37.145,25.957,31.153,24.208,4.864,6.138,11.929
1111,0.826,36.887,26.165,31.134,24.204,4.824,6.057,11.766
1112,0.817,36.97,26.272,31.124,24.208,4.905,6.097,11.642
1113,0.82,37.086,26.164,31.124,24.204,4.784,6.016,11.438
1114,0.833,37.222,26.175,31.153,24.204,4.864,6.015,11.314
1115,0.839,36.801,26.109,31.153,24.215,4.946,6.218,11.272
1116,0.836,36.922,26.241,31.153,24.215,4.866,6.058,11.109
1117,0.839,37.028,26.039,31.143,24.208,4.946,6.137,10.945
1118,0.839,37.106,26.271,31.153,24.218,4.907,6.179,10.74
1119,0.833,36.829,25.996,31.143,24.208,4.825,6.139,10.657
1120,0.846,36.989,26.181,31.172,24.215,4.905,6.179,10.493
1121,0.846,37.135,26.202,31.182,24.222,5.028,6.261,10.573
1122,0.84,37.155,26.175,31.153,24.215,4.948,6.221,10.451
1123,0.833,36.772,26.206,31.114,24.205,4.825,6.058,10.166
1124,0.823,36.931,26.011,31.124,24.208,4.783,6.097,10.0
1125,0.826,37.038,26.22,31.133,24.204,4.824,6.178,9.958
1126,0.807,37.116,26.054,31.143,24.208,4.824,6.139,9.917
1127,0.816,36.858,26.271,31.153,24.211,4.824,6.138,9.876
1128,0.81,36.97,26.039,31.134,24.211,4.865,6.098,9.916
1129,0.816,37.096,26.213,31.133,24.201,4.743,6.138,9.794
1130,0.823,37.145,26.183,31.143,24.211,4.864,6.179,9.915
1131,0.826,36.906,26.109,31.153,24.218,4.906,6.22,9.998
1132,0.826,37.047,26.276,31.153,24.215,4.865,6.22,10.039
1133,0.836,37.174,26.106,31.153,24.211,4.865,6.18,10.243
1134,0.826,37.539,26.241,31.134,24.215,4.784,6.179,10.245
1135,0.83,36.91,26.117,31.153,24.218,4.864,6.22,10.326
1136,0.836,37.057,26.295,31.134,24.215,4.865,6.22,10.449
1137,0.839,37.154,26.071,31.162,24.218,5.028,6.342,10.572
1138,0.839,36.906,26.236,31.153,24.215,4.907,6.303,10.696
1139,0.826,36.884,25.941,31.143,24.208,4.784,6.14,10.575
1140,0.817,37.028,26.18,31.134,24.204,4.783,6.098,10.655
1141,0.829,37.125,26.023,31.143,24.211,4.824,6.016,10.656
1142,0.833,36.656,26.119,31.153,24.204,4.865,6.096,10.656
1143,0.836,36.757,26.21,31.134,24.208,4.865,6.219,10.696
1144,0.82,36.902,26.089,31.133,24.215,4.865,6.139,10.737
1145,0.82,36.971,26.291,31.114,24.194,4.743,6.098,10.657
1146,0.826,36.76,26.09,31.124,24.204,4.823,6.056,10.656
1147,0.826,36.921,26.225,31.143,24.211,4.865,6.137,10.9
1148,0.82,37.038,25.93,31.143,24.211,4.865,6.219,10.861
1149,0.813,37.125,26.145,31.153,24.211,4.906,6.18,10.902
1150,0.813,36.714,26.214,31.134,24.208,4.865,6.22,11.024
1151,0.823,36.844,26.109,31.153,24.211,4.865,6.22,10.985
1152,0.83,36.98,26.26,31.134,24.215,4.906,6.261,11.066
1153,0.813,37.058,26.067,31.153,24.208,4.865,6.18,11.066
1154,0.829,36.675,26.268,31.162,24.222,5.028,6.342,11.107
1155,0.826,36.777,26.024,31.143,24.215,4.907,6.221,11.108
1156,0.826,36.864,26.193,31.124,24.205,4.825,6.139,10.985
1157,0.833,36.932,25.949,31.133,24.204,4.865,6.098,10.903
1158,0.823,36.635,26.192,31.162,24.211,4.906,6.138,10.861
1159,0.826,36.795,25.976,31.134,24.208,4.865,6.138,10.902
1160,0.82,36.912,26.259,31.133,24.208,4.865,6.179,10.78
1161,0.81,36.913,25.969,31.143,24.215,4.865,6.22,10.698
1162,0.803,36.674,26.188,31.114,24.194,4.702,6.139,10.575
1163,0.829,36.825,26.035,31.133,24.211,4.823,6.098,10.614
1164,0.823,36.941,26.181,31.143,24.218,4.946,6.178,10.655
1165,0.826,36.885,26.249,31.153,24.215,4.866,6.261,10.574
1166,0.817,36.75,26.051,31.153,24.215,4.865,6.221,10.574
1167,0.813,36.883,26.17,31.143,24.218,4.824,6.261,10.492
1168,0.82,36.98,25.984,31.143,24.211,4.824,6.221,10.369
1169,0.82,36.598,26.204,31.134,24.208,4.865,6.18,10.409
1170,0.83,36.689,26.046,31.153,24.218,5.028,6.301,10.369
1171,0.813,36.786,26.088,31.134,24.215,4.867,6.302,10.328
1172,0.803,36.864,26.233,31.114,24.208,4.906,6.18,10.124
1173,0.826,36.606,26.09,31.124,24.201,4.784,6.139,10.081
1174,0.817,36.747,26.279,31.114,24.208,4.824,6.138,9.959
1175,0.833,36.883,25.993,31.133,24.208,4.824,6.138,9.957
1176,0.843,36.961,26.173,31.143,24.211,4.824,6.098,9.957
1177,0.833,36.511,25.968,31.124,24.208,4.865,6.138,9.957
1178,0.823,36.669,26.11,31.095,24.197,4.743,6.057,9.917
1179,0.843,36.815,26.26,31.143,24.211,4.742,6.137,10.039
1180,0.823,36.884,26.047,31.124,24.211,4.945,6.179,10.202
1181,0.826,36.491,26.228,31.133,24.208,4.825,6.22,10.326
1182,0.823,36.631,25.988,31.133,24.208,4.946,6.18,10.408
1183,0.81,36.747,26.224,31.133,24.211,4.947,6.22,10.734
1184,0.813,36.806,26.136,31.133,24.211,4.825,6.22,10.86
1185,0.823,36.577,26.108,31.153,24.211,4.865,6.18,10.983
1186,0.813,36.747,26.213,31.172,24.222,4.987,6.22,11.187
1187,0.803,36.825,26.058,31.153,24.212,4.948,6.22,11.393
1188,0.8,36.845,26.244,31.114,24.204,4.825,6.22,11.354
1189,0.803,36.471,26.012,31.114,24.204,4.783,6.098,11.395
1190,0.803,36.631,26.15,31.124,24.204,4.824,6.097,11.558
1191,0.8,36.757,26.233,31.124,24.215,4.824,6.138,11.6
1192,0.81,36.806,26.152,31.114,24.215,4.824,6.219,11.682
1193,0.803,36.605,26.265,31.124,24.211,4.824,6.18,11.723
1194,0.813,36.728,25.981,31.114,24.191,4.743,6.057,11.642
1195,0.829,36.883,26.212,31.124,24.211,4.905,6.137,11.56
1196,0.83,36.616,26.086,31.143,24.215,4.825,6.219,11.64
1197,0.836,36.565,26.283,31.134,24.215,4.946,6.22,11.601
1198,0.826,36.699,26.036,31.143,24.211,4.866,6.22,11.56
1199,0.833,36.777,26.259,31.153,24.208,4.946,6.18,11.478
1200,0.836,36.49,26.106,31.134,24.211,4.907,6.179,11.314
1201,0.846,36.593,26.104,31.133,24.211,4.865,6.22,11.272
1202,0.843,36.728,26.28,31.172,24.222,4.987,6.261,11.231
1203,0.823,36.806,26.106,31.143,24.218,4.948,6.262,11.231
1204,0.82,36.346,26.221,31.114,24.215,4.825,6.139,10.824
1205,0.82,36.495,26.113,31.104,24.205,4.783,6.138,10.657
1206,0.81,36.641,26.28,31.104,24.204,4.824,6.098,10.574
1207,0.81,36.69,26.106,31.104,24.211,4.824,6.178,10.533
1208,0.816,36.556,26.307,31.124,24.211,4.824,6.22,10.41
1209,0.81,36.699,25.966,31.124,24.211,4.824,6.139,10.247
1210,0.816,36.815,26.157,31.105,24.198,4.783,6.098,10.204
1211,0.813,36.884,26.124,31.104,24.204,4.824,6.056,9.919
1212,0.82,36.453,26.124,31.124,24.211,4.905,6.137,9.957
1213,0.826,36.602,26.256,31.153,24.218,4.947,6.179,9.917
1214,0.83,36.738,26.074,31.134,24.215,4.907,6.179,9.835
1215,0.833,36.787,26.264,31.133,24.211,4.865,6.22,9.712
1216,0.833,36.48,26.074,31.124,24.215,4.906,6.18,9.589
1217,0.836,36.621,26.279,31.133,24.208,4.906,6.098,9.466
1218,0.856,36.757,26.004,31.143,24.218,4.947,6.138,9.424
1219,0.84,36.806,26.216,31.143,24.222,4.988,6.219,9.464
1220,0.813,36.452,25.969,31.124,24.215,4.907,6.18,9.302
1221,0.813,36.554,26.192,31.095,24.208,4.825,6.098,9.097
1222,0.826,36.708,26.089,31.123,24.201,4.783,6.056,9.054
1223,0.826,36.739,26.19,31.124,24.204,4.864,6.056,8.973
1224,0.83,36.432,26.265,31.114,24.211,4.865,6.097,8.972
1225,0.836,36.563,26.156,31.114,24.208,4.865,6.097,9.094
1226,0.836,36.651,26.261,31.114,24.204,4.946,6.097,9.095
1227,0.846,36.402,26.016,31.104,24.197,4.785,5.975,9.095
1228,0.869,36.496,26.142,31.124,24.204,4.946,6.096,9.38
1229,0.882,36.641,25.995,31.133,24.215,4.947,6.138,9.627
1230,0.902,36.728,26.236,31.114,24.218,4.907,6.138,9.873
1231,0.928,36.211,26.109,31.133,24.218,4.987,6.138,10.038
1232,0.912,36.34,26.124,31.133,24.208,4.948,6.138,10.243
1233,0.905,36.486,26.237,31.143,24.204,4.907,6.098,10.489
1234,0.925,36.583,26.113,31.134,24.218,4.947,6.138,10.614
1235,0.935,36.44,26.291,31.153,24.222,5.069,6.26,10.94
1236,0.915,36.544,25.946,31.124,24.218,4.948,6.18,11.106
1237,0.922,36.66,26.079,31.105,24.205,4.866,6.098,11.067
1238,0.912,36.757,26.166,31.104,24.208,4.906,5.975,11.229
1239,0.925,36.327,26.12,31.124,24.208,4.865,6.055,11.312
1240,0.928,36.476,26.268,31.124,24.215,4.906,6.056,11.435
1241,0.918,36.631,26.11,31.124,24.211,4.865,6.097,11.436
1242,0.896,36.671,26.245,31.124,24.204,4.946,6.138,11.477
1243,0.905,36.307,26.02,31.095,24.194,4.785,6.016,11.396
1244,0.902,36.485,26.236,31.123,24.204,4.946,6.137,11.436
1245,0.899,36.612,25.949,31.133,24.215,4.988,6.138,11.558
1246,0.899,36.671,26.173,31.143,24.222,4.988,6.138,11.64
1247,0.895,36.46,26.058,31.134,24.215,5.029,6.179,11.682
1248,0.892,36.611,26.158,31.114,24.211,4.989,6.179,11.683
1249,0.899,36.709,26.218,31.124,24.218,4.907,6.179,11.642
1250,0.918,36.758,26.144,31.124,24.211,4.906,6.22,11.682
1251,0.935,36.365,26.237,31.153,24.218,5.069,6.302,11.845
1252,0.928,36.495,26.101,31.134,24.215,5.03,6.302,11.969
1253,0.915,36.554,26.28,31.105,24.208,4.948,6.14,12.133
1254,0.912,36.574,25.981,31.104,24.204,4.825,6.098,12.053
1255,0.918,36.613,26.196,31.162,24.204,4.865,6.178,12.215
1256,0.931,36.766,25.976,31.105,24.211,4.906,6.098,12.379
1257,0.935,36.845,26.185,31.114,24.208,4.906,6.097,12.584
1258,0.941,36.155,26.238,31.124,24.215,4.987,6.219,12.871
1259,0.941,36.206,26.156,31.114,24.211,4.948,6.18,12.995
1260,0.938,36.35,26.21,31.114,24.194,4.825,6.057,13.119
1261,0.948,36.486,26.086,31.124,24.204,4.946,6.137,13.242
1262,0.948,36.324,26.35,31.133,24.211,4.988,6.179,13.487
1263,0.945,36.466,26.036,31.133,24.208,4.988,6.22,13.49
1264,0.932,36.631,26.228,31.143,24.211,4.988,6.22,13.53
1265,0.941,36.7,25.937,31.114,24.215,4.988,6.139,13.49
1266,0.938,36.278,26.149,31.114,24.211,4.907,6.179,13.449
1267,0.932,36.427,26.28,31.114,24.218,4.987,6.098,13.408
1268,0.925,36.563,26.137,31.133,24.222,4.988,6.219,13.285
1269,0.909,36.612,26.257,31.133,24.225,5.029,6.261,13.365
1270,0.899,36.258,25.953,31.114,24.208,4.948,6.18,13.163
1271,0.892,36.408,26.177,31.085,24.204,4.866,6.139,12.917
1272,0.892,36.515,26.12,31.114,24.197,4.865,6.098,12.833
1273,0.882,36.564,26.057,31.133,24.211,4.865,6.097,12.792
1274,0.889,36.258,26.221,31.124,24.211,4.906,6.178,12.71
1275,0.882,36.418,26.109,31.133,24.208,4.906,6.139,12.709
1276,0.885,36.506,26.276,31.095,24.201,4.865,6.138,12.668
1277,0.889,36.545,26.071,31.104,24.204,4.865,6.016,12.627
1278,0.895,36.258,26.225,31.124,24.215,4.946,6.137,12.749
1279,0.902,36.418,26.082,31.133,24.215,4.988,6.179,12.831
1280,0.895,36.534,26.1,31.124,24.215,5.029,6.179,12.792
1281,0.892,36.746,26.299,31.114,24.208,5.03,6.139,12.791
1282,0.886,36.231,25.969,31.133,24.215,4.989,6.138,12.791
1283,0.882,36.389,26.235,31.124,24.211,4.988,6.138,12.71
1284,0.892,36.515,26.031,31.133,24.211,5.07,6.138,12.668
1285,0.886,36.257,26.275,31.133,24.222,5.111,6.26,12.749
1286,0.863,36.274,26.024,31.105,24.205,4.908,6.139,12.547
1287,0.875,36.418,26.177,31.085,24.201,4.947,6.016,12.464
1288,0.889,36.515,26.163,31.104,24.208,4.907,6.137,12.3
1289,0.885,36.171,26.042,31.104,24.208,4.947,6.057,12.217
1290,0.885,36.292,26.232,31.114,24.211,4.947,6.056,12.135
1291,0.882,36.418,26.031,31.124,24.211,4.988,6.097,12.093
1292,0.872,36.486,26.209,31.076,24.201,4.948,6.016,11.971
1293,0.872,36.19,25.945,31.123,24.204,4.907,6.015,11.726
1294,0.882,36.331,26.18,31.153,24.211,5.028,6.096,11.805
1295,0.866,36.457,26.292,31.134,24.215,5.03,6.178,11.684
1296,0.872,36.525,26.102,31.124,24.211,5.03,6.179,11.56
1297,0.872,36.181,26.213,31.124,24.215,5.03,6.098,11.437
1298,0.863,36.35,25.968,31.143,24.211,5.07,6.056,11.233
1299,0.879,36.476,26.185,31.124,24.211,4.989,6.137,11.109
1300,0.889,36.573,26.019,31.162,24.222,5.07,6.138,10.985
1301,0.866,36.172,26.158,31.124,24.218,5.111,6.219,11.066
1302,0.84,36.302,25.945,31.114,24.208,4.989,6.098,10.782
1303,0.836,36.428,26.157,31.104,24.204,4.948,6.056,10.576
1304,0.83,36.477,26.241,31.114,24.204,4.988,6.015,10.451
1305,0.82,36.19,26.074,31.095,24.204,4.948,6.015,10.369
1306,0.82,36.35,26.186,31.114,24.215,4.988,6.056,10.287
1307,0.8,36.476,26.042,31.143,24.211,4.948,6.056,10.205
1308,0.797,36.477,26.185,31.095,24.198,4.866,6.015,10.001
1309,0.8,36.334,26.019,31.095,24.211,4.906,6.015,9.917
1310,0.787,36.466,26.287,31.123,24.211,5.028,6.137,9.957
1311,0.79,36.592,26.051,31.124,24.211,5.111,6.138,9.876
1312,0.79,36.383,26.119,31.114,24.215,4.989,6.057,9.876
1313,0.8,36.179,26.28,31.124,24.211,5.029,6.056,9.753
1314,0.8,36.321,26.137,31.114,24.208,5.03,6.056,9.549
1315,0.797,36.447,26.194,31.124,24.211,4.989,6.056,9.506
1316,0.807,36.17,26.0,31.143,24.222,5.11,6.178,9.506
1317,0.81,36.244,26.173,31.134,24.222,5.112,6.22,9.465
1318,0.81,36.341,25.929,31.105,24.205,4.989,6.058,9.18
1319,0.807,36.428,26.192,31.085,24.204,4.907,6.015,9.137
1320,0.807,36.113,26.245,31.114,24.208,4.947,6.015,9.095
1321,0.803,36.272,26.023,31.104,24.208,4.947,6.015,9.176
1322,0.797,36.379,26.224,31.095,24.204,4.988,6.015,9.137
1323,0.794,36.457,26.062,31.104,24.211,4.907,6.056,9.258
1324,0.793,35.94,26.182,31.076,24.194,4.825,5.975,9.341
1325,0.803,36.127,25.996,31.104,24.204,4.946,6.015,9.545
1326,0.8,36.282,26.122,31.124,24.211,5.029,6.096,9.831
1327,0.797,36.36,26.249,31.133,24.218,4.989,6.138,10.119
1328,0.797,36.179,26.082,31.114,24.211,4.988,6.138,10.325
1329,0.794,36.292,26.268,31.114,24.215,4.988,6.098,10.612
1330,0.793,36.428,26.008,31.181,24.211,5.029,6.097,10.777
1331,0.806,36.477,26.208,31.115,24.211,5.07,6.056,10.942
1332,0.833,36.113,26.027,31.133,24.225,5.03,6.137,11.065
1333,0.82,36.244,26.146,31.133,24.215,5.111,6.219,11.31
1334,0.833,36.36,26.206,31.114,24.211,4.989,6.058,11.313
1335,0.852,36.399,26.078,31.104,24.208,4.907,6.015,11.272
1336,0.888,36.103,26.264,31.085,24.204,4.987,5.934,11.312
1337,0.918,36.243,26.043,31.095,24.208,4.907,6.014,11.353
1338,0.957,36.389,26.267,31.114,24.204,4.906,6.056,11.313
1339,0.987,36.735,25.942,31.114,24.211,4.947,6.056,11.313
1340,1.03,36.116,26.13,31.095,24.201,4.907,5.975,11.272
1341,1.095,36.253,26.12,31.114,24.204,4.987,6.015,11.19
1342,1.158,36.389,26.171,31.133,24.211,5.029,6.137,11.271
1343,1.207,36.093,26.124,31.114,24.215,4.989,6.138,11.15
1344,1.25,36.071,26.12,31.124,24.211,5.029,6.098,11.026
1345,1.299,36.186,26.252,31.105,24.208,5.07,6.056,10.944
1346,1.348,36.302,26.141,31.114,24.208,4.989,6.056,10.862
1347,1.43,36.025,26.284,31.104,24.211,4.948,6.056,10.78
1348,1.493,36.176,26.02,31.133,24.225,5.15,6.097,10.738
1349,1.558,36.283,26.197,31.162,24.222,5.112,6.138,10.616
1350,1.653,36.341,25.925,31.095,24.208,4.989,6.016,10.493
1351,1.71,36.073,26.172,31.095,24.208,4.988,5.974,10.369
1352,1.778,36.234,26.194,31.104,24.208,4.988,6.015,10.328
1353,1.838,36.369,26.105,31.114,24.208,4.948,6.015,10.449
1354,1.907,36.448,26.225,31.124,24.204,4.988,5.974,10.491
1355,1.937,38.654,26.066,31.114,24.211,5.029,6.015,10.614
1356,1.953,38.762,26.268,31.095,24.204,4.948,6.015,10.615
1357,2.012,38.859,26.028,31.076,24.201,4.907,5.974,10.574
1358,2.071,38.956,26.15,31.114,24.208,4.987,6.055,10.614
1359,2.114,34.661,25.983,31.124,24.215,5.07,6.097,10.696
1360,2.137,34.79,26.22,31.114,24.211,5.03,6.138,10.656
1361,2.16,34.926,26.164,31.104,24.215,5.07,6.057,10.737
1362,2.147,35.024,26.101,31.114,24.218,4.989,6.137,10.697
1363,2.147,36.52,26.229,31.095,24.211,4.988,6.057,10.575
1364,2.124,36.689,26.094,31.104,24.215,4.988,6.097,10.574
1365,2.101,36.815,26.287,31.133,24.225,5.07,6.097,10.614
1366,2.069,36.807,26.012,31.105,24.215,5.03,6.178,10.655
1367,2.042,35.666,26.142,31.085,24.201,4.948,5.976,10.493
1368,1.961,35.798,25.983,31.104,24.208,4.947,6.055,10.288
1369,1.859,35.934,26.161,31.104,24.204,4.988,5.975,10.245
1370,1.757,36.06,26.261,31.114,24.211,5.029,5.933,10.245
1371,1.629,36.032,26.031,31.104,24.208,4.989,5.974,10.204
1372,1.495,36.166,26.224,31.076,24.211,4.907,6.055,10.123
1373,1.366,36.263,26.062,31.075,24.198,4.906,5.975,10.0
1374,1.268,35.862,26.256,31.095,24.208,4.987,6.055,10.039
1375,1.13,35.886,25.988,31.143,24.218,5.07,6.137,10.04
1376,0.995,36.03,26.165,31.124,24.225,4.989,6.138,10.08
1377,0.857,36.128,25.988,31.133,24.212,5.029,6.057,10.243
1378,0.732,35.86,26.196,31.105,24.215,4.948,6.015,10.733
1379,0.62,36.011,25.992,31.114,24.208,5.029,6.096,11.429
1380,0.512,36.128,26.181,31.114,24.208,4.948,6.097,12.33
1381,0.41,36.244,26.156,31.143,24.222,5.069,6.3,13.437
1382,0.302,35.833,26.097,31.105,24.215,5.03,6.18,14.587
1383,0.236,35.963,26.276,31.095,24.201,4.948,6.098,15.574
1384,0.186,36.108,26.071,31.095,24.197,4.947,6.097,16.56
1385,0.153,36.196,26.131,31.114,24.208,4.907,6.016,17.464
1386,0.114,35.899,25.94,31.095,24.208,4.987,6.096,18.205
1387,0.078,36.05,26.184,31.104,24.208,4.988,6.056,18.7
1388,0.071,36.166,26.077,31.124,24.218,4.988,6.137,19.112
1389,0.074,36.206,26.186,31.085,24.198,4.826,5.976,19.238
1390,0.093,35.784,26.198,31.085,24.208,4.987,6.055,19.361
1391,0.136,35.924,26.031,31.123,24.211,4.988,6.178,19.484
1392,0.175,36.04,26.252,31.114,24.211,4.988,6.22,19.404
1393,0.208,36.07,25.984,31.124,24.208,5.07,6.22,19.322
1394,0.238,35.917,26.099,31.105,24.208,4.948,6.18,19.158
1395,0.281,36.05,26.202,31.104,24.208,4.988,6.179,18.913
1396,0.326,36.185,26.074,31.095,24.211,4.907,6.139,18.788
1397,0.372,36.196,26.287,31.143,24.218,5.069,6.219,18.787
1398,0.415,35.746,26.129,31.105,24.218,5.07,6.18,19.031
1399,0.464,35.866,26.26,31.095,24.208,4.908,6.098,19.115
1400,0.501,35.982,25.996,31.095,24.208,4.865,6.056,19.563
1401,0.543,35.926,26.22,31.104,24.204,4.906,6.097,20.055
1402,0.583,35.944,25.996,31.095,24.208,4.906,6.097,20.67
1403,0.612,36.098,26.158,31.095,24.211,4.947,6.016,21.245
1404,0.639,36.196,25.948,31.114,24.211,4.988,6.137,21.78
1405,0.655,35.707,26.141,31.066,24.198,4.826,6.016,22.07
1406,0.681,35.837,26.237,31.094,24.211,4.905,6.015,22.195
1407,0.685,35.972,26.09,31.123,24.215,5.028,6.096,22.358
1408,0.698,36.06,26.276,31.124,24.215,4.989,6.178,22.279
1409,0.705,35.85,25.934,31.124,24.215,5.029,6.139,22.115
1410,0.721,35.992,26.153,31.114,24.215,4.989,6.098,21.829
1411,0.728,36.118,26.253,31.095,24.215,5.029,6.056,21.46
1412,0.738,36.205,26.105,31.104,24.211,4.989,6.056,21.091
1413,0.747,35.775,26.241,31.152,24.222,5.151,6.137,20.64
1414,0.747,35.885,26.047,31.143,24.218,5.031,6.138,20.31
1415,0.741,35.982,26.252,31.105,24.208,4.907,6.016,19.697
1416,0.747,36.041,26.0,31.095,24.204,4.947,6.015,19.203
1417,0.76,35.744,26.177,31.085,24.211,4.907,6.015,18.71
1418,0.761,35.914,25.953,31.095,24.208,4.947,6.056,18.38
1419,0.767,36.04,26.141,31.095,24.208,4.988,6.097,17.97
1420,0.767,36.089,26.221,31.123,24.211,4.948,6.056,17.559
1421,0.754,35.716,26.066,31.085,24.201,4.907,6.056,17.311
1422,0.757,35.914,26.221,31.104,24.201,4.865,5.975,16.821
1423,0.767,36.011,25.98,31.114,24.215,5.068,6.096,16.735
1424,0.767,36.07,26.232,31.124,24.215,4.989,6.138,16.571
1425,0.767,35.783,26.261,31.114,24.215,4.988,6.138,16.325
1426,0.761,35.924,26.051,31.124,24.211,5.029,6.138,16.079
1427,0.767,36.04,26.139,31.105,24.215,5.03,6.138,15.752
1428,0.767,36.109,26.034,31.133,24.211,5.03,6.098,15.545
1429,0.774,35.735,26.209,31.143,24.215,5.07,6.178,15.218
1430,0.767,35.837,26.015,31.143,24.222,5.111,6.22,15.174
1431,0.761,35.944,26.166,31.124,24.205,5.071,6.139,14.807
1432,0.761,35.782,26.206,31.095,24.204,4.867,6.138,14.478
1433,0.767,35.857,26.121,31.095,24.208,4.987,6.057,14.231
1434,0.767,35.982,26.295,31.114,24.211,4.988,6.097,14.107
1435,0.774,36.098,26.028,31.124,24.215,5.029,6.138,13.861
1436,0.8,35.62,26.193,31.153,24.208,4.989,6.138,13.656
1437,0.787,35.702,25.933,31.095,24.204,4.907,6.138,13.45
1438,0.784,35.856,26.133,31.095,24.201,4.906,6.057,13.082
1439,0.793,35.953,26.221,31.114,24.218,5.069,6.178,12.957
1440,0.793,35.801,26.125,31.124,24.211,4.989,6.22,12.793
1441,0.787,35.953,26.249,31.114,24.218,5.029,6.22,12.629
1442,0.797,36.089,26.102,31.133,24.215,5.151,6.22,12.383
1443,0.787,36.138,26.291,31.114,24.218,5.031,6.261,12.177
1444,0.787,35.601,25.985,31.114,24.211,4.989,6.221,12.013
1445,0.8,35.797,26.185,31.152,24.215,5.029,6.18,11.767
1446,0.794,35.914,25.964,31.153,24.225,5.192,6.342,11.724
1447,0.78,35.964,26.122,31.134,24.215,5.072,6.262,11.683
1448,0.787,35.993,26.229,31.095,24.208,5.03,6.139,11.398
1449,0.78,36.108,26.136,31.095,24.204,4.989,6.098,11.232
1450,0.774,36.272,26.19,31.114,24.208,4.988,6.097,11.149
1451,0.784,36.303,25.953,31.143,24.204,5.029,6.178,11.067
1452,0.793,35.574,26.22,31.124,24.211,5.03,6.098,11.107
1453,0.787,35.711,26.015,31.124,24.208,4.989,6.178,11.108
1454,0.787,35.818,26.103,31.114,24.197,5.029,6.22,11.108
1455,0.8,35.867,26.163,31.104,24.201,4.948,6.058,11.108
1456,0.8,35.858,26.081,31.133,24.208,4.988,6.137,11.27
1457,0.813,36.001,26.256,31.143,24.211,5.11,6.179,11.353
1458,0.81,36.099,26.102,31.134,24.215,5.071,6.22,11.395
1459,0.8,35.86,26.276,31.133,24.211,5.03,6.18,11.476
1460,0.813,35.723,25.981,31.124,24.218,5.03,6.179,11.518
1461,0.807,35.875,26.189,31.133,24.208,5.07,6.139,11.396
1462,0.813,35.963,26.015,31.133,24.211,5.07,6.179,11.395
1463,0.816,35.705,26.158,31.153,24.218,5.152,6.22,11.68
1464,0.807,35.77,26.19,31.143,24.222,5.071,6.261,11.886
1465,0.803,35.885,26.101,31.086,24.208,4.989,6.139,12.05
1466,0.794,35.963,26.233,31.095,24.204,4.948,6.098,12.215
1467,0.79,35.532,26.055,31.114,24.208,4.947,6.138,12.541
1468,0.797,35.672,26.26,31.095,24.211,5.029,6.138,12.992
1469,0.807,35.808,25.996,31.114,24.208,5.03,6.057,13.322
1470,0.807,35.905,26.177,31.133,24.215,4.989,6.137,13.732
1471,0.79,35.494,26.132,31.095,24.208,4.988,6.138,14.061
1472,0.8,35.652,26.112,31.095,24.204,4.948,6.016,14.186
1473,0.81,35.817,26.213,31.123,24.215,5.029,6.178,14.554
1474,0.823,35.895,26.011,31.143,24.215,5.07,6.179,14.964
1475,0.813,35.82,26.244,31.114,24.218,5.07,6.179,15.252
1476,0.82,35.972,26.031,31.114,24.211,5.07,6.139,15.621
1477,0.826,36.089,26.228,31.114,24.211,5.03,6.219,15.91
1478,0.82,36.138,26.203,31.114,24.211,4.989,6.139,16.075
1479,0.83,35.563,26.046,31.124,24.211,5.07,6.138,16.402
1480,0.826,35.711,26.217,31.143,24.225,5.193,6.26,16.69
1481,0.823,35.779,26.074,31.124,24.212,5.031,6.221,16.693
1482,0.826,35.866,26.236,31.114,24.201,5.03,6.058,16.611
1483,0.833,35.675,25.941,31.104,24.208,4.948,6.056,16.57
1484,0.82,35.808,26.184,31.095,24.211,4.988,5.975,16.529
1485,0.81,35.915,26.234,31.095,24.211,4.988,6.055,16.447
1486,0.813,36.27,26.117,31.095,24.211,4.988,6.056,16.324
1487,0.797,35.584,26.159,31.076,24.204,4.948,6.097,16.12
1488,0.81,35.74,25.905,31.095,24.208,4.988,6.016,15.874
1489,0.82,35.875,26.184,31.104,24.215,5.029,6.096,15.831
1490,0.81,35.56,26.234,31.124,24.215,5.07,6.138,15.668
1491,0.807,35.548,26.066,31.114,24.211,5.07,6.098,15.503
1492,0.81,35.691,26.217,31.085,24.211,5.07,6.178,15.299
1493,0.816,35.808,26.004,31.104,24.215,5.03,6.057,15.134
1494,0.813,35.617,26.251,31.104,24.205,5.111,6.097,14.888
1495,0.839,35.788,26.031,31.124,24.222,5.071,6.056,14.845
1496,0.843,35.914,26.177,31.133,24.225,5.152,6.178,14.885
1497,0.826,35.983,25.867,31.105,24.212,5.071,6.139,14.682
1498,0.823,35.36,26.137,31.076,24.204,4.989,5.935,14.436
1499,0.817,35.507,26.1,31.075,24.204,4.948,5.974,14.312
1500,0.826,35.653,26.151,31.066,24.215,4.988,5.974,14.108
1501,0.82,35.74,26.222,31.094,24.218,4.988,6.015,14.024
1502,0.82,35.626,26.035,31.095,24.208,5.029,5.974,13.861
1503,0.8,35.759,26.259,31.066,24.201,4.948,5.974,13.696
1504,0.813,35.885,26.016,31.066,24.201,4.947,5.933,13.37
1505,0.826,35.963,26.134,31.085,24.215,5.069,6.055,13.285
1506,0.823,35.408,26.202,31.104,24.208,5.152,6.015,13.162
1507,0.804,35.556,26.031,31.095,24.211,5.071,6.056,12.917
1508,0.81,35.672,26.205,31.085,24.211,5.03,6.015,12.711
1509,0.803,35.731,26.058,31.095,24.208,5.07,6.056,12.546
1510,0.807,35.54,26.189,31.085,24.215,5.03,6.097,12.382
1511,0.826,35.71,25.992,31.095,24.215,5.07,6.056,12.177
1512,0.826,35.856,26.228,31.114,24.225,5.111,6.219,12.216
1513,0.81,35.838,26.027,31.076,24.215,5.071,6.098,12.135
1514,0.816,35.483,26.103,31.075,24.205,4.908,5.975,11.931
1515,0.823,35.624,26.233,31.075,24.208,4.947,6.015,11.807
1516,0.839,35.74,26.035,31.075,24.204,4.988,5.974,11.684
1517,0.843,35.703,26.24,31.085,24.208,4.988,6.015,11.764
1518,0.83,35.559,26.0,31.095,24.204,4.988,6.015,11.683
1519,0.826,35.672,26.232,31.076,24.208,4.988,6.015,11.642
1520,0.826,35.769,25.937,31.075,24.201,4.907,5.974,11.601
1521,0.826,35.406,26.118,31.095,24.215,5.069,6.055,11.641
1522,0.826,35.469,26.28,31.104,24.218,5.03,6.137,11.641
1523,0.826,35.614,26.094,31.095,24.211,5.111,6.138,11.601
1524,0.83,35.702,26.248,31.104,24.211,5.03,6.098,11.519
1525,0.823,35.386,26.07,31.085,24.211,5.07,6.056,11.518
1526,0.817,35.498,26.248,31.075,24.208,4.989,6.097,11.355
1527,0.826,35.672,26.035,31.114,24.215,5.07,6.016,11.313
1528,0.81,35.741,26.252,31.133,24.215,5.152,6.218,11.394
1529,0.803,35.444,25.981,31.095,24.208,5.031,6.058,11.192
1530,0.8,35.585,26.177,31.085,24.201,4.989,6.015,10.986
1531,0.8,35.721,25.953,31.075,24.201,4.988,5.974,10.862
1532,0.813,35.799,26.169,31.095,24.208,4.988,6.015,10.739
1533,0.826,35.406,26.23,31.104,24.211,5.029,6.056,10.697
1534,0.83,35.546,26.066,31.104,24.215,4.989,6.056,10.616
1535,0.81,35.653,26.225,31.085,24.201,4.988,6.097,10.493
1536,0.839,35.712,25.996,31.075,24.197,4.988,5.975,10.247
1537,0.849,35.559,26.232,31.114,24.208,4.988,6.015,10.286
1538,0.84,35.701,26.269,31.104,24.211,5.07,6.096,10.286
1539,0.833,35.827,26.071,31.114,24.218,5.03,6.097,10.205
1540,0.826,35.857,26.209,31.114,24.211,5.07,6.138,10.082
1541,0.813,35.426,26.168,31.104,24.211,4.989,6.016,9.999
1542,0.82,35.565,26.19,31.114,24.208,5.029,6.137,9.958
1543,0.836,35.73,26.035,31.114,24.215,5.03,6.138,9.795
1544,0.836,35.837,26.244,31.124,24.222,5.111,6.219,9.834
1545,0.833,35.426,26.027,31.095,24.212,4.989,6.058,9.712
1546,0.82,35.565,26.228,31.095,24.198,4.948,6.056,9.589
1547,0.813,35.682,25.945,31.095,24.208,4.988,6.097,9.588
1548,0.813,35.549,26.079,31.114,24.208,4.988,6.056,9.507
1549,0.816,35.586,26.213,31.104,24.211,4.988,6.056,9.506
1550,0.803,35.721,26.164,31.095,24.211,4.988,6.137,9.506
1551,0.807,35.789,26.245,31.095,24.204,4.988,6.098,9.506
1552,0.823,35.377,26.047,31.095,24.204,4.907,5.975,9.343
1553,0.826,35.498,26.224,31.114,24.208,4.987,6.096,9.382
1554,0.826,35.643,26.023,31.114,24.208,4.988,6.097,9.505
1555,0.83,35.721,26.22,31.133,24.211,5.029,6.178,9.465
1556,0.83,35.386,26.078,31.133,24.208,5.03,6.22,9.505
1557,0.826,35.517,26.108,31.105,24.215,5.03,6.139,9.587
1558,0.823,35.662,26.186,31.124,24.211,4.989,6.138,9.547
1559,0.836,35.75,26.066,31.133,24.215,5.07,6.138,9.628
1560,0.833,36.01,26.26,31.162,24.218,5.152,6.26,9.67
1561,0.826,36.128,25.996,31.134,24.222,5.071,6.262,9.751
1562,0.817,36.244,26.2,31.105,24.201,4.908,6.18,9.671
1563,0.816,36.312,25.984,31.114,24.204,4.906,6.098,9.589
1564,0.82,35.076,26.232,31.114,24.204,4.947,6.056,9.751
1565,0.82,35.217,25.98,31.124,24.211,4.947,6.097,9.874
1566,0.81,35.343,26.056,31.114,24.204,4.988,6.138,10.079
1567,0.8,35.411,26.182,31.114,24.215,4.988,6.098,10.162
1568,0.8,35.585,26.003,31.104,24.201,4.826,6.016,10.163
1569,0.807,35.74,26.204,31.124,24.204,4.905,6.056,10.366
1570,0.803,35.875,26.007,31.153,24.215,5.028,6.137,10.571
1571,0.8,35.925,26.189,31.134,24.208,5.03,6.138,10.736
1572,0.8,35.446,26.238,31.133,24.215,5.03,6.138,10.779
1573,0.8,35.585,26.086,31.133,24.215,4.989,6.138,10.901
1574,0.8,35.682,26.237,31.153,24.215,4.948,6.138,10.983
1575,0.816,36.0,25.895,31.143,24.208,4.988,6.098,11.066
1576,0.826,36.166,26.11,31.181,24.225,5.11,6.26,11.229
1577,0.817,36.254,26.198,31.153,24.218,5.03,6.221,11.312
1578,0.8,36.341,26.027,31.134,24.205,4.907,6.058,11.191
1579,0.803,35.354,26.275,31.133,24.204,4.906,6.097,11.149
1580,0.807,35.306,26.008,31.124,24.204,4.947,6.016,11.108
1581,0.807,35.449,26.208,31.143,24.208,4.907,6.015,11.23
1582,0.81,35.556,25.957,31.134,24.208,4.906,6.015,11.19
1583,0.8,37.082,26.188,31.153,24.211,4.947,6.015,11.189
1584,0.794,37.26,25.953,31.134,24.198,4.785,5.974,11.027
1585,0.803,37.406,26.106,31.143,24.208,4.986,6.055,10.985
1586,0.797,37.494,26.237,31.181,24.211,5.029,6.097,10.984
1587,0.794,34.886,26.144,31.153,24.215,4.989,6.178,10.944
1588,0.787,34.994,26.264,31.153,24.211,5.029,6.057,10.862
1589,0.79,35.149,26.078,31.153,24.208,4.989,6.097,10.82
1590,0.78,35.256,26.217,31.143,24.211,5.029,6.056,10.657
1591,0.787,35.967,25.941,31.153,24.208,4.867,6.056,10.574
1592,0.78,36.127,26.212,31.191,24.218,5.068,6.259,10.574
1593,0.78,36.215,26.203,31.172,24.215,4.989,6.221,10.574
1594,0.774,36.273,26.035,31.143,24.201,4.907,6.017,10.248
1595,0.774,35.785,26.213,31.153,24.215,4.865,6.056,10.164
1596,0.79,35.933,26.027,31.153,24.205,4.906,6.015,10.122
1597,0.797,36.05,26.232,31.153,24.208,4.947,5.974,10.122
1598,0.787,36.09,26.07,31.162,24.208,4.947,6.055,10.0
1599,0.777,35.879,26.115,31.162,24.204,4.907,6.097,9.917
1600,0.78,36.049,26.198,31.143,24.197,4.865,6.016,9.754
1601,0.787,36.185,26.039,31.172,24.211,4.946,5.974,9.833
1602,0.787,36.187,26.263,31.182,24.211,4.988,6.015,9.794
1603,0.787,36.081,26.031,31.249,24.222,4.948,6.056,9.671
1604,0.774,36.224,26.209,31.163,24.218,4.988,6.097,9.629
1605,0.764,36.331,25.98,31.162,24.208,5.07,6.097,9.67
1606,0.754,36.217,26.204,31.172,24.208,4.989,6.016,9.589
1607,0.757,36.225,26.035,31.172,24.211,4.988,6.056,9.547
1608,0.754,36.369,26.213,31.201,24.222,5.11,6.137,9.628
1609,0.751,36.438,25.937,31.192,24.215,5.03,6.057,9.466
1610,0.748,36.295,26.126,31.153,24.205,4.948,6.015,9.262
1611,0.744,36.418,26.229,31.143,24.208,4.988,5.974,9.219
1612,0.747,36.582,26.078,31.181,24.204,4.948,5.974,9.096
1613,0.754,36.651,26.193,31.172,24.208,4.907,5.974,9.136
1614,0.748,36.268,26.058,31.182,24.208,4.987,5.974,9.055
1615,0.751,36.379,26.283,31.163,24.201,5.029,5.974,9.013
1616,0.761,36.524,25.997,31.153,24.197,4.948,5.933,8.932
1617,0.77,36.603,26.204,31.162,24.201,4.947,5.892,8.85
1618,0.767,36.402,25.988,31.172,24.215,5.069,5.973,8.93
1619,0.748,36.534,26.13,31.182,24.215,5.07,6.015,8.931
1620,0.751,36.67,26.229,31.172,24.218,5.07,6.056,8.972
1621,0.748,36.738,26.058,31.191,24.218,4.989,6.015,9.013
1622,0.76,36.499,26.217,31.182,24.218,5.029,5.974,8.85
1623,0.751,36.65,26.0,31.182,24.211,5.03,6.015,8.889
1624,0.757,36.805,26.251,31.201,24.215,5.07,6.096,8.93
1625,0.748,36.826,26.07,31.201,24.215,5.03,6.097,9.053
1626,0.728,36.558,26.092,31.172,24.211,4.989,6.056,9.013
1627,0.725,36.699,26.073,31.182,24.204,4.948,5.975,8.972
1628,0.728,36.844,26.033,31.172,24.208,4.907,5.852,8.931
1629,0.731,36.865,26.205,31.191,24.204,4.987,5.973,9.053
1630,0.721,36.731,26.027,31.182,24.215,4.948,5.974,9.013
1631,0.728,36.883,26.056,31.201,24.211,4.947,5.974,9.013
1632,0.725,36.97,25.947,31.153,24.208,4.988,6.055,9.054
1633,0.734,37.307,26.165,31.172,24.204,4.907,5.893,8.932
1634,0.744,36.812,26.253,31.201,24.215,4.987,5.973,9.093
1635,0.738,36.951,26.027,31.201,24.218,5.07,6.055,9.298
1636,0.738,37.057,26.181,31.259,24.218,5.07,6.015,9.382
1637,0.738,36.828,25.941,31.192,24.218,4.989,6.137,9.301
1638,0.741,36.864,26.169,31.192,24.211,5.029,5.976,9.382
1639,0.744,36.999,26.027,31.192,24.208,4.989,6.015,9.382
1640,0.767,37.135,26.244,31.211,24.215,5.07,6.056,9.382
1641,0.748,36.791,26.16,31.22,24.222,5.111,6.056,9.545
1642,0.734,36.883,26.136,31.192,24.212,4.989,6.015,9.547
1643,0.741,36.999,26.249,31.172,24.208,4.866,5.974,9.425
1644,0.747,37.077,26.086,31.21,24.204,4.946,5.974,9.505
1645,0.751,36.924,26.201,31.192,24.204,4.947,6.015,9.506
1646,0.738,37.048,26.031,31.22,24.215,4.947,6.056,9.587
1647,0.734,37.183,26.205,31.211,24.211,4.988,6.015,9.669
1648,0.747,37.242,26.007,31.192,24.201,4.948,5.974,9.67
1649,0.751,36.897,26.255,31.182,24.208,4.907,5.933,9.629
1650,0.751,37.066,25.953,31.23,24.215,5.069,6.014,9.792
1651,0.754,37.202,26.181,31.201,24.218,4.989,6.096,9.875
1652,0.761,37.261,26.148,31.22,24.215,5.029,6.016,9.916
1653,0.767,36.792,26.151,31.23,24.215,5.07,6.096,9.916
1654,0.774,36.95,26.163,31.23,24.211,5.03,6.056,9.794
1655,0.771,37.048,25.999,31.211,24.211,4.989,6.015,9.793
1656,0.796,37.126,26.204,31.23,24.211,4.988,6.056,9.753
1657,0.803,37.011,26.0,31.249,24.225,5.11,6.219,9.833
1658,0.787,37.116,26.247,31.221,24.212,4.989,6.098,9.875
1659,0.803,37.222,25.981,31.211,24.211,4.907,6.016,9.55
1660,0.807,37.233,26.165,31.211,24.204,4.906,6.015,9.547
1661,0.81,37.76,26.109,31.22,24.208,4.865,5.974,9.466
1662,0.813,37.909,26.135,31.23,24.204,4.946,6.015,9.465
1663,0.833,38.007,26.202,31.24,24.208,4.988,6.015,9.383
1664,0.823,37.317,25.976,31.221,24.204,4.988,6.137,9.261
1665,0.82,36.687,26.185,31.192,24.201,4.866,6.016,9.219
1666,0.826,36.853,25.996,31.23,24.208,4.946,5.974,9.096
1667,0.826,36.98,26.271,31.249,24.215,4.947,6.055,9.136
1668,0.836,37.029,26.024,31.25,24.211,5.029,6.097,9.177
1669,0.839,37.164,26.189,31.25,24.215,4.989,6.097,9.096
1670,0.83,37.29,26.183,31.25,24.208,4.907,6.138,9.054
1671,0.839,37.377,26.097,31.221,24.208,4.947,6.057,9.054
1672,0.856,36.927,26.26,31.249,24.215,4.947,6.056,9.054
1673,0.859,37.086,26.024,31.288,24.225,5.069,6.056,9.176
1674,0.869,37.193,26.197,31.269,24.218,5.07,6.137,9.38
1675,0.863,37.261,25.953,31.24,24.205,4.867,6.016,9.342
1676,0.872,36.878,26.184,31.24,24.211,4.865,5.974,9.464
1677,0.876,37.047,26.245,31.23,24.211,4.784,6.015,9.465
1678,0.879,37.174,26.074,31.249,24.208,4.905,5.974,9.587
1679,0.866,37.251,26.19,31.269,24.211,4.947,6.015,9.669
1680,0.869,37.06,25.968,31.259,24.208,4.988,5.974,9.67
1681,0.879,37.174,26.231,31.24,24.204,4.744,5.974,9.67
1682,0.889,37.319,25.914,31.269,24.211,4.864,5.974,9.751
1683,0.885,37.387,26.157,31.269,24.215,4.946,6.055,9.793
1684,0.876,37.139,26.229,31.279,24.215,4.988,6.015,9.956
1685,0.882,37.27,26.133,31.269,24.218,4.948,6.056,9.998
1686,0.879,37.377,26.28,31.279,24.208,4.947,6.015,10.08
1687,0.872,37.407,25.996,31.279,24.211,4.947,6.056,10.203
1688,0.885,36.899,26.169,31.269,24.211,4.947,5.975,10.245
1689,0.889,37.095,25.976,31.317,24.218,5.11,6.177,10.408
1690,0.872,37.174,26.192,31.279,24.215,5.03,6.139,10.572
1691,0.872,37.443,26.226,31.259,24.208,4.867,6.016,10.451
1692,0.863,37.177,26.109,31.24,24.204,4.865,5.974,10.532
1693,0.866,37.319,26.217,31.288,24.208,4.946,6.015,10.573
1694,0.872,37.416,26.043,31.279,24.204,5.029,5.974,10.736
1695,0.879,37.062,26.248,31.288,24.211,4.948,5.974,10.819
1696,0.876,37.001,25.969,31.288,24.211,4.947,5.974,10.901
1697,0.879,37.115,26.087,31.26,24.204,4.825,5.893,10.861
1698,0.876,37.232,25.995,31.288,24.208,4.905,5.973,10.739
1699,0.879,36.945,26.091,31.298,24.211,5.109,6.015,10.982
1700,0.885,37.029,26.24,31.308,24.211,4.949,6.015,10.944
1701,0.872,37.154,26.0,31.298,24.211,5.029,6.015,10.902
1702,0.879,37.251,26.204,31.308,24.211,4.948,6.056,10.902
1703,0.882,36.945,25.929,31.308,24.204,4.988,5.975,10.861
1704,0.879,37.077,26.172,31.308,24.211,4.948,5.974,10.861
1705,0.885,37.241,26.233,31.346,24.218,4.988,6.096,10.82
1706,0.859,37.29,26.012,31.337,24.211,5.029,6.016,10.861
1707,0.846,36.994,26.185,31.298,24.208,4.907,5.974,10.739
1708,0.853,37.125,26.05,31.308,24.204,4.825,5.933,10.494
1709,0.856,37.261,26.224,31.308,24.204,4.905,5.892,10.451
1710,0.856,37.329,26.054,31.308,24.211,4.825,5.892,10.45
1711,0.843,36.994,26.228,31.317,24.215,4.946,5.933,10.45
1712,0.843,37.144,25.953,31.308,24.208,4.907,5.974,10.328
1713,0.856,37.251,26.192,31.308,24.204,4.825,5.852,10.246
1714,0.872,37.339,26.238,31.336,24.208,4.946,5.891,10.204
1715,0.866,37.081,26.008,31.356,24.211,4.947,6.054,10.245
1716,0.869,37.212,26.204,31.346,24.208,5.029,6.097,10.204
1717,0.869,37.319,26.046,31.346,24.218,4.989,5.975,10.123
1718,0.863,37.339,26.236,31.337,24.208,4.948,5.974,10.041
1719,0.869,37.023,26.012,31.346,24.208,4.907,5.933,9.836
1720,0.866,37.173,26.201,31.356,24.218,4.947,5.892,9.794
1721,0.866,37.299,26.046,31.385,24.222,5.069,6.054,9.834
1722,0.866,37.291,26.127,31.356,24.215,4.948,6.097,9.712
1723,0.859,37.09,26.229,31.327,24.205,4.907,5.975,9.589
1724,0.846,37.251,25.988,31.327,24.201,4.865,5.893,9.425
1725,0.84,37.348,26.2,31.365,24.204,4.865,5.892,9.342
1726,0.833,37.081,25.972,31.347,24.211,4.906,5.973,9.382
1727,0.83,37.183,26.189,31.356,24.208,4.906,5.974,9.382
1728,0.839,37.28,26.007,31.366,24.211,4.906,6.015,9.423
1729,0.83,37.348,26.173,31.337,24.198,4.865,5.934,9.302
1730,0.836,37.129,26.113,31.394,24.208,4.865,5.892,9.301
1731,0.843,37.261,26.046,31.395,24.225,4.987,6.095,9.423
1732,0.843,37.387,26.279,31.385,24.212,4.948,6.097,9.586
1733,0.846,37.465,25.989,31.366,24.211,4.988,6.016,9.751
1734,0.833,37.111,26.173,31.452,24.215,4.988,6.015,9.915
1735,0.846,37.251,26.179,31.386,24.211,4.948,6.015,10.079
1736,0.846,37.386,26.07,31.376,24.208,4.988,5.974,10.325
1737,0.859,37.484,26.264,31.423,24.211,5.029,6.055,10.49
1738,0.859,37.082,26.07,31.405,24.218,5.07,6.137,10.735
1739,0.846,37.193,26.236,31.385,24.211,4.908,5.976,10.86
1740,0.843,37.319,25.926,31.385,24.204,4.825,5.933,10.902
1741,0.836,37.397,26.133,31.376,24.208,4.905,5.892,10.943
1742,0.833,36.995,26.108,31.385,24.204,4.865,5.973,11.065
1743,0.846,37.154,26.003,31.385,24.208,4.946,5.933,11.148
1744,0.856,37.27,26.201,31.404,24.215,4.907,5.974,11.23
1745,0.84,37.281,25.937,31.366,24.211,4.906,5.933,11.271
1746,0.846,37.118,26.188,31.385,24.201,4.784,5.852,11.15
1747,0.836,37.299,26.253,31.404,24.211,4.986,5.973,11.23
1748,0.83,37.397,26.109,31.414,24.215,4.988,5.974,11.271
1749,0.83,37.426,26.198,31.414,24.218,4.988,6.015,11.231
1750,0.846,37.206,25.996,31.424,24.218,4.988,5.974,11.231
1751,0.846,37.348,26.243,31.414,24.218,4.907,6.015,11.109
1752,0.843,37.426,25.957,31.405,24.215,4.906,5.974,11.108
1753,0.839,37.254,26.134,31.424,24.211,4.906,5.933,11.026
1754,0.856,37.214,26.225,31.453,24.225,5.069,6.096,11.025
1755,0.856,37.309,26.07,31.424,24.218,4.989,6.056,10.944
1756,0.849,37.397,26.26,31.424,24.205,4.866,5.975,10.781
1757,0.856,37.158,26.016,31.414,24.201,4.824,5.893,10.576
1758,0.859,37.27,26.169,31.433,24.208,4.865,5.892,10.574
1759,0.859,37.406,25.945,31.424,24.211,4.906,6.054,10.451
1760,0.862,37.513,26.157,31.424,24.211,4.906,6.015,10.41
1761,0.866,37.111,25.98,31.414,24.218,4.906,5.974,10.328
1762,0.849,37.212,26.13,31.414,24.205,4.825,5.893,10.327
1763,0.859,37.405,26.182,31.424,24.208,4.865,5.892,10.124
1764,0.862,37.484,26.113,31.433,24.215,4.906,6.014,10.163
1765,0.859,37.063,26.26,31.434,24.215,4.987,6.096,10.0
1766,0.856,37.212,26.129,31.453,24.211,4.988,6.056,9.999
1767,0.849,37.329,26.186,31.443,24.215,4.948,6.056,9.999
1768,0.843,37.397,26.007,31.434,24.208,4.988,6.056,9.917
1769,0.853,37.235,26.204,31.443,24.211,4.948,5.975,9.794
1770,0.859,37.396,26.027,31.462,24.218,4.907,5.974,9.631
1771,0.853,37.493,26.193,31.472,24.222,5.109,6.137,9.832
1772,0.849,37.523,26.019,31.453,24.212,4.949,6.098,9.672
1773,0.853,37.149,26.146,31.424,24.211,4.785,5.935,9.589
1774,0.856,37.29,26.225,31.424,24.208,4.864,5.933,9.547
1775,0.869,37.406,26.09,31.443,24.208,4.865,5.974,9.588
1776,0.869,37.446,26.178,31.453,24.208,4.987,5.893,9.669
1777,0.879,37.264,25.941,31.472,24.211,4.948,6.014,9.792
1778,0.872,37.387,26.141,31.443,24.208,4.907,5.974,9.915
1779,0.885,37.522,26.19,31.424,24.201,4.825,5.933,9.998
1780,0.879,37.619,26.191,31.462,24.208,4.905,6.014,10.283
1781,0.863,37.16,26.253,31.482,24.211,4.906,6.096,10.652
1782,0.872,37.27,26.024,31.482,24.215,4.947,6.056,10.981
1783,0.879,37.377,26.244,31.463,24.218,4.988,6.097,11.228
1784,0.876,37.215,26.039,31.453,24.211,4.988,6.016,11.475
1785,0.869,37.271,26.162,31.472,24.218,4.907,6.056,11.721
1786,0.872,37.415,26.003,31.53,24.211,4.906,6.056,11.886
1787,0.866,37.542,26.126,31.502,24.222,4.987,6.137,12.132
1788,0.853,37.044,26.174,31.492,24.218,5.029,6.179,12.337
1789,0.853,37.145,26.136,31.482,24.211,4.867,6.057,12.339
1790,0.84,37.27,26.249,31.463,24.211,4.865,6.015,12.299
1791,0.852,37.367,26.027,31.463,24.211,4.906,5.974,12.298
1792,0.859,37.071,26.205,31.482,24.204,4.865,5.933,12.38
1793,0.866,37.193,26.004,31.482,24.215,4.865,6.055,12.421
1794,0.872,37.319,26.173,31.501,24.215,4.906,6.015,12.381
1795,0.866,37.387,26.081,31.482,24.201,4.825,6.015,12.258
1796,0.879,37.129,26.073,31.463,24.204,4.824,5.974,12.135
1797,0.885,37.28,26.205,31.501,24.211,4.905,6.137,12.093
1798,0.879,37.416,26.031,31.501,24.215,4.947,6.098,12.052
1799,0.869,37.465,26.275,31.501,24.218,5.029,6.097,11.971
1800,0.879,37.082,25.989,31.501,24.211,4.989,6.138,11.848
1801,0.872,37.241,26.177,31.511,24.215,4.948,6.098,11.725
1802,0.872,37.377,26.031,31.501,24.215,4.907,6.138,11.561
1803,0.882,37.407,26.252,31.501,24.215,4.987,6.057,11.559
1804,0.885,37.129,25.957,31.53,24.225,5.029,6.219,11.478
1805,0.872,37.232,26.188,31.511,24.218,4.989,6.18,11.436
1806,0.863,37.348,25.921,31.501,24.211,4.907,5.976,11.233
1807,0.856,37.349,26.153,31.501,24.208,4.825,6.015,11.149
1808,0.856,37.138,26.233,31.492,24.204,4.905,6.056,11.026
1809,0.869,37.27,26.14,31.501,24.208,4.906,6.097,10.985
1810,0.856,37.377,26.245,31.53,24.211,4.865,6.056,10.903
1811,0.859,37.225,25.988,31.511,24.215,4.906,6.056,10.861
1812,0.849,37.07,26.228,31.492,24.194,4.744,5.975,10.658
1813,0.856,37.241,25.941,31.511,24.211,4.864,6.015,10.656
1814,0.866,37.377,26.118,31.54,24.215,4.946,6.137,10.656
1815,0.869,37.071,26.221,31.54,24.218,4.988,6.179,10.574
1816,0.872,37.145,26.105,31.55,24.215,4.948,6.179,10.574
1817,0.876,37.28,26.26,31.511,24.205,4.947,6.139,10.533
1818,0.885,37.358,26.059,31.53,24.211,4.947,6.138,10.492
1819,0.869,37.014,26.221,31.53,24.211,4.947,6.057,10.491
1820,0.885,37.173,26.004,31.578,24.218,4.947,6.137,10.41
1821,0.885,37.271,26.208,31.56,24.225,4.988,6.179,10.572
1822,0.863,37.329,26.004,31.521,24.208,4.948,6.098,10.736
1823,0.866,36.86,26.13,31.53,24.208,4.825,6.016,10.982
1824,0.859,36.98,26.147,31.53,24.211,4.783,6.015,11.269
1825,0.856,37.144,26.108,31.521,24.208,4.783,5.974,11.76
1826,0.853,37.213,26.291,31.559,24.211,4.905,5.974,12.374
1827,0.846,37.108,26.086,31.54,24.211,4.865,6.096,13.194
1828,0.836,37.203,26.209,31.54,24.204,4.865,6.056,14.096
1829,0.859,37.348,25.918,31.53,24.197,4.784,5.975,14.959
1830,0.862,37.435,26.165,31.569,24.218,4.864,6.096,15.903
1831,0.862,36.995,26.233,31.569,24.222,5.028,6.097,16.685
1832,0.862,37.125,26.074,31.569,24.218,4.907,6.097,17.343
1833,0.862,37.251,26.205,31.569,24.208,4.987,6.097,17.797
1834,0.862,37.3,25.992,31.559,24.208,4.907,6.016,18.127
1835,0.859,37.023,26.232,31.569,24.215,4.906,6.015,18.455
1836,0.885,37.183,26.109,31.598,24.222,4.906,6.015,18.621
1837,0.889,37.29,26.233,31.598,24.229,4.987,6.137,18.745
1838,0.876,37.636,25.918,31.569,24.212,4.907,6.057,18.665
1839,0.879,37.122,26.133,31.569,24.204,4.906,5.934,18.379
1840,0.863,37.251,26.143,31.569,24.211,4.865,5.852,18.173
1841,0.862,37.339,26.124,31.569,24.204,4.784,5.973,18.009
1842,0.866,37.052,26.21,31.607,24.211,4.864,5.974,17.804
1843,0.872,37.02,26.089,31.579,24.204,4.946,5.933,17.558
1844,0.853,37.154,26.229,31.56,24.208,4.825,5.974,17.352
1845,0.862,37.251,26.066,31.569,24.204,4.824,5.893,17.147
1846,0.853,36.945,26.252,31.598,24.215,4.905,6.014,17.145
1847,0.853,37.067,26.07,31.617,24.218,4.947,6.096,16.982
1848,0.846,37.193,26.069,31.617,24.211,4.988,6.056,16.818
1849,0.856,37.29,26.17,31.608,24.215,4.988,6.015,16.572
1850,0.853,36.773,26.144,31.598,24.211,4.948,6.015,16.407
1851,0.849,36.902,26.198,31.617,24.215,4.907,6.015,16.161
1852,0.859,37.076,26.066,31.617,24.211,4.906,6.015,15.874
1853,0.853,37.164,26.205,31.646,24.222,4.987,6.096,15.668
1854,0.846,49.065,26.043,31.627,24.222,5.029,6.056,15.544
1855,0.846,49.176,26.228,31.598,24.205,4.907,6.015,15.055
1856,0.859,49.166,25.937,31.608,24.208,4.906,5.974,14.684
1857,0.862,49.099,26.048,31.617,24.208,4.865,6.015,14.599
1858,0.859,31.732,26.018,31.608,24.208,4.865,5.934,14.273
1859,0.859,31.845,26.127,31.608,24.208,4.865,6.014,14.066
1860,0.853,32.078,26.245,31.617,24.211,4.865,5.974,13.902
1861,0.849,32.185,25.992,31.608,24.201,4.865,5.974,13.697
1862,0.859,38.717,26.197,31.608,24.208,4.824,5.893,13.41
1863,0.859,38.907,25.996,31.627,24.215,4.987,6.014,13.245
1864,0.853,38.995,26.224,31.646,24.218,4.948,6.056,12.958
1865,0.843,39.005,25.953,31.656,24.211,4.947,6.137,12.874
1866,0.843,36.023,26.138,31.685,24.208,4.907,6.098,12.629
1867,0.839,36.137,25.944,31.628,24.208,4.906,6.056,12.464
1868,0.852,36.244,26.126,31.646,24.215,4.906,6.015,12.259
1869,0.862,36.791,26.241,31.666,24.218,4.987,6.137,12.135
1870,0.849,37.19,26.183,31.656,24.222,5.029,6.179,12.053
1871,0.833,37.309,26.237,31.647,24.212,4.826,6.098,11.686
1872,0.82,37.378,25.965,31.637,24.204,4.865,6.016,11.52
1873,0.82,36.774,26.231,31.637,24.204,4.784,6.015,11.355
1874,0.826,36.816,25.965,31.646,24.208,4.864,5.974,11.273
1875,0.83,36.97,26.067,31.666,24.211,4.865,6.015,11.109
1876,0.839,37.029,26.15,31.647,24.215,4.906,6.137,10.985
1877,0.843,36.838,26.058,31.637,24.198,4.703,6.016,10.822
1878,0.846,36.989,26.225,31.675,24.211,4.823,6.056,10.576
1879,0.836,37.135,26.035,31.666,24.222,4.946,6.178,10.614
1880,0.836,37.222,26.201,31.675,24.215,4.988,6.139,10.493
1881,0.83,36.734,25.996,31.685,24.208,4.988,6.138,10.41
1882,0.823,36.854,26.181,31.676,24.211,4.866,6.138,10.247
1883,0.833,36.989,25.984,31.666,24.208,4.906,6.138,10.164
1884,0.833,37.048,26.095,31.666,24.211,4.865,6.057,10.041
1885,0.843,36.819,26.194,31.695,24.218,4.906,6.097,9.836
1886,0.817,36.931,26.058,31.695,24.225,4.987,6.219,9.916
1887,0.807,37.038,26.24,31.676,24.215,4.866,6.139,9.794
1888,0.816,37.087,26.172,31.666,24.201,4.824,6.057,9.631
1889,0.807,36.81,26.222,31.666,24.204,4.824,6.056,9.507
1890,0.797,36.96,26.043,31.675,24.208,4.865,6.015,9.465
1891,0.816,37.096,26.201,31.685,24.204,4.946,6.056,9.465
1892,0.813,37.136,26.019,31.676,24.211,4.907,6.056,9.465
1893,0.807,36.733,26.169,31.675,24.208,4.784,6.056,9.505
1894,0.816,36.902,26.07,31.685,24.204,4.783,5.975,9.425
1895,0.823,37.038,26.096,31.714,24.215,4.905,6.096,9.586
1896,0.836,37.039,26.229,31.705,24.222,4.906,6.178,9.669
1897,0.839,36.953,26.066,31.695,24.218,4.865,6.139,9.711
1898,0.836,37.067,26.33,31.704,24.215,4.906,6.179,9.63
1899,0.833,37.183,25.97,31.695,24.215,4.865,6.098,9.67
1900,0.83,36.868,26.146,31.724,24.211,4.824,6.056,9.711
1901,0.839,36.855,26.171,31.743,24.215,4.865,6.137,9.711
1902,0.826,36.961,26.124,31.734,24.222,4.987,6.179,9.792
1903,0.833,37.058,26.174,31.714,24.208,4.826,6.098,9.712
1904,0.826,36.857,25.988,31.705,24.211,4.783,6.056,9.589
1905,0.826,36.97,26.212,31.695,24.211,4.742,6.015,9.588
1906,0.813,37.115,26.0,31.714,24.208,4.864,6.015,9.547
1907,0.816,37.213,26.193,31.705,24.211,4.865,6.056,9.547
1908,0.816,36.744,26.214,31.733,24.215,4.824,6.015,9.547
1909,0.807,36.825,26.043,31.705,24.205,4.824,6.015,9.506
1910,0.79,36.999,26.22,31.695,24.201,4.743,5.852,9.506
1911,0.803,37.106,26.031,31.743,24.215,4.905,6.013,9.628
1912,0.813,36.781,26.216,31.734,24.218,4.906,6.056,9.588
1913,0.807,36.931,25.965,31.743,24.211,4.906,6.097,9.71
1914,0.816,37.029,26.161,31.734,24.215,4.865,6.056,9.711
1915,0.82,37.116,25.991,31.743,24.205,4.865,6.056,9.67
1916,0.82,36.743,26.173,31.743,24.208,4.946,6.056,9.67
1917,0.836,36.912,26.261,31.772,24.218,4.866,6.015,9.67
1918,0.82,37.028,26.028,31.772,24.229,4.987,6.096,9.751
1919,0.817,37.068,26.189,31.811,24.212,4.948,6.097,9.793
1920,0.813,36.828,25.925,31.715,24.204,4.866,5.975,9.671
1921,0.82,36.999,26.247,31.724,24.204,4.784,5.933,9.629
1922,0.817,37.096,25.86,31.753,24.204,4.905,5.974,9.71
1923,0.813,37.155,26.141,31.743,24.211,4.947,5.974,9.63
1924,0.823,36.81,26.229,31.753,24.208,4.947,5.893,9.629
1925,0.813,36.941,26.113,31.724,24.204,4.866,5.933,9.629
1926,0.807,37.057,26.213,31.733,24.204,4.987,5.933,9.507
1927,0.807,37.164,26.004,31.781,24.222,4.988,6.014,9.587
1928,0.81,36.945,26.134,31.772,24.212,5.029,6.056,9.629
1929,0.803,37.067,25.94,31.772,24.211,5.03,6.056,9.548
1930,0.807,37.174,26.176,31.763,24.208,4.989,6.015,9.425
1931,0.803,36.868,25.964,31.772,24.218,5.07,6.056,9.464
1932,0.807,36.951,26.122,31.772,24.215,4.989,6.015,9.383
1933,0.813,37.105,26.217,31.811,24.215,5.07,6.015,9.423
1934,0.813,37.184,26.082,31.801,24.222,5.152,6.137,9.464
1935,0.803,36.695,26.217,31.792,24.212,4.99,6.016,9.343
1936,0.807,36.786,25.906,31.772,24.204,4.907,5.974,9.219
1937,0.81,36.941,26.122,31.772,24.204,4.947,5.974,9.178
1938,0.816,37.048,25.929,31.763,24.197,4.988,5.974,9.259
1939,0.82,36.569,26.118,31.782,24.211,4.988,5.974,9.381
1940,0.817,36.718,26.264,31.792,24.211,4.988,6.015,9.464
1941,0.803,36.825,26.024,31.772,24.208,5.029,6.056,9.587
1942,0.794,36.922,26.189,31.763,24.204,4.907,5.975,9.588
1943,0.803,36.827,25.992,31.801,24.208,5.069,5.974,9.913
1944,0.81,36.96,26.216,31.811,24.218,5.03,6.055,10.404
1945,0.81,37.115,25.937,31.811,24.215,5.03,6.097,10.856
1946,0.803,37.165,26.149,31.859,24.211,5.07,6.016,11.308
1947,0.797,36.686,26.026,31.792,24.211,5.03,6.056,11.841
1948,0.8,36.834,26.111,31.811,24.211,5.03,6.056,12.253
1949,0.81,36.98,26.241,31.83,24.211,5.03,6.015,12.704
1950,0.807,37.019,26.094,31.83,24.225,5.192,6.137,13.034
1951,0.813,36.732,26.237,31.83,24.222,5.153,6.098,13.363
1952,0.8,36.863,25.957,31.811,24.212,5.031,6.016,13.447
1953,0.794,36.989,26.192,31.821,24.211,4.989,5.974,13.53
1954,0.806,37.0,26.206,31.811,24.211,4.988,5.974,13.612
1955,0.787,36.828,26.054,31.821,24.215,4.988,6.015,13.613
1956,0.81,36.979,26.189,31.83,24.211,5.07,6.056,13.653
1957,0.813,37.096,26.015,31.821,24.211,5.03,6.056,13.572
1958,0.8,36.79,26.224,31.811,24.208,5.03,6.015,13.653
1959,0.81,36.672,25.996,31.811,24.204,4.989,5.934,13.41
1960,0.82,36.825,26.189,31.84,24.211,5.07,6.055,13.367
1961,0.81,36.932,25.949,31.84,24.211,5.111,6.137,13.366
1962,0.816,36.645,26.149,31.859,24.215,5.152,6.098,13.204
1963,0.82,36.757,26.229,31.831,24.211,5.112,6.178,12.999
1964,0.803,36.873,25.984,31.869,24.211,5.112,6.098,12.793
1965,0.797,36.999,26.181,31.85,24.211,5.071,6.097,12.71
1966,0.803,36.559,25.949,31.85,24.211,5.03,6.056,12.546
1967,0.8,36.727,26.231,31.888,24.222,5.192,6.137,12.504
1968,0.803,36.806,25.988,31.879,24.218,5.153,6.179,12.463
1969,0.794,36.874,26.22,31.85,24.208,5.031,6.057,12.178
1970,0.79,36.568,26.175,31.831,24.208,5.03,6.015,12.013
1971,0.793,36.708,25.995,31.84,24.204,4.989,6.015,11.808
1972,0.8,36.834,26.224,31.859,24.211,5.029,6.056,11.724
1973,0.794,36.912,26.008,31.85,24.211,5.07,6.097,11.642
1974,0.787,36.654,26.165,31.907,24.211,5.111,6.016,11.519
1975,0.803,36.796,25.894,31.86,24.201,5.071,5.974,11.234
1976,0.81,36.922,26.137,31.869,24.208,5.07,6.055,11.109
1977,0.813,36.98,26.229,31.879,24.218,5.152,6.137,11.067
1978,0.807,36.645,26.082,31.879,24.218,5.153,6.057,10.985
1979,0.803,36.795,26.244,31.879,24.222,5.112,6.056,10.781
1980,0.813,36.912,25.973,31.888,24.215,5.112,6.015,10.779
1981,0.807,36.952,26.192,31.888,24.211,5.112,6.056,10.657
1982,0.807,36.588,26.031,31.908,24.211,5.152,6.056,10.534
1983,0.816,36.757,26.177,31.917,24.222,5.275,6.137,10.573
1984,0.813,36.864,25.933,31.898,24.212,5.195,6.179,10.411
1985,0.8,37.095,26.149,31.888,24.211,5.072,6.057,10.247
1986,0.8,36.522,26.034,31.888,24.211,4.989,5.975,10.082
1987,0.787,36.65,26.138,31.888,24.204,5.029,6.015,9.918
1988,0.797,36.786,26.245,31.898,24.208,5.07,6.015,9.998
1989,0.8,36.787,25.988,31.888,24.208,5.111,6.015,9.958
1990,0.794,36.912,26.181,31.898,24.211,5.071,5.974,9.835
1991,0.79,37.019,25.886,31.879,24.201,4.989,5.974,9.753
1992,0.793,37.125,26.153,31.879,24.208,4.988,5.933,9.59
1993,0.793,36.436,26.198,31.936,24.208,5.11,6.014,9.669
1994,0.806,36.525,26.003,31.927,24.215,5.193,6.056,9.67
1995,0.803,36.67,26.232,31.918,24.215,5.153,6.056,9.589
1996,0.82,36.738,26.066,31.908,24.218,5.153,6.015,9.507
1997,0.833,36.614,26.232,31.917,24.211,5.031,5.974,9.465
1998,0.813,36.747,25.984,31.917,24.208,5.07,6.055,9.424
1999,0.816,36.892,26.083,31.937,24.225,5.111,6.015,9.383
2000,0.82,36.99,26.19,31.966,24.222,5.193,6.218,9.464
2001,0.813,36.828,26.163,31.918,24.218,5.072,5.976,9.343
2002,0.8,36.979,26.187,31.927,24.205,4.989,5.974,9.301
2003,0.803,37.106,25.984,31.918,24.211,5.029,5.974,9.178
2004,0.803,37.184,26.22,31.908,24.201,5.07,5.974,9.137
2005,0.797,36.302,26.004,31.927,24.215,5.07,5.974,9.095
2006,0.787,36.437,26.251,31.927,24.215,5.03,5.974,9.095
2007,0.78,36.554,25.949,31.937,24.208,5.07,6.015,9.136
2008,0.79,36.632,26.071,31.918,24.197,5.03,5.974,8.933
2009,0.8,36.441,26.166,31.965,24.208,4.989,5.974,9.053
2010,0.79,36.582,26.038,31.947,24.208,5.151,6.055,9.054
2011,0.793,36.718,26.256,31.956,24.215,5.112,6.097,9.013
2012,0.79,36.729,26.008,31.956,24.215,5.152,6.056,8.972
2013,0.8,37.189,26.173,31.947,24.218,5.071,6.097,8.972
2014,0.79,37.348,25.98,31.966,24.208,5.152,6.097,8.931
2015,0.803,37.435,26.173,31.966,24.211,5.071,6.056,8.89
2016,0.813,36.755,26.206,31.995,24.225,5.193,6.178,9.012
2017,0.813,36.135,25.968,31.966,24.222,5.194,6.179,8.932
2018,0.81,36.273,26.138,31.975,24.205,5.031,6.057,8.85
2019,0.807,36.418,25.952,31.947,24.208,5.111,6.015,8.849
2020,0.807,36.419,26.227,31.956,24.208,5.071,6.137,8.767
2021,0.803,36.563,25.93,31.956,24.211,5.03,6.057,8.848
2022,0.803,36.699,26.114,31.966,24.208,5.111,6.097,8.889
2023,0.803,36.767,26.159,31.966,24.208,5.112,6.138,9.012
2024,0.8,36.356,26.14,31.937,24.197,4.989,6.016,8.81
2025,0.797,36.495,26.198,31.966,24.204,5.07,6.056,9.011
2026,0.794,36.631,25.984,31.995,24.215,5.152,6.219,9.094
2027,0.787,36.728,26.185,31.995,24.215,5.193,6.18,9.136
2028,0.797,36.307,26.054,31.985,24.211,5.072,6.139,9.177
2029,0.794,36.456,26.205,31.966,24.215,5.07,6.179,9.137
2030,0.784,36.573,26.07,31.985,24.211,5.07,6.098,9.136
2031,0.793,36.689,26.232,32.052,24.215,5.111,6.178,9.177
2032,0.8,36.278,25.988,32.024,24.218,5.274,6.261,9.34
2033,0.79,36.399,26.216,31.986,24.218,5.154,6.302,9.423
2034,0.784,36.525,26.011,31.985,24.208,5.071,6.14,9.302
2035,0.784,36.564,26.013,31.985,24.208,5.03,6.098,9.219
2036,0.793,36.469,26.185,31.985,24.211,5.07,6.138,9.34
2037,0.813,36.612,25.999,31.976,24.204,5.03,6.098,9.342
2038,0.807,36.728,26.197,32.004,24.208,5.07,6.056,9.464
2039,0.8,36.748,26.027,32.005,24.211,5.111,6.097,9.627
2040,0.81,36.25,26.197,31.985,24.201,4.908,5.975,9.629
2041,0.81,36.437,25.933,32.014,24.215,5.028,6.137,9.751
2042,0.81,36.554,26.153,32.014,24.225,5.151,6.179,9.955
2043,0.8,36.89,26.245,32.005,24.218,5.071,6.261,9.957
2044,0.8,36.405,26.008,32.014,24.211,5.111,6.18,10.161
2045,0.794,36.525,26.204,32.005,24.211,5.071,6.139,10.366
2046,0.79,36.641,26.035,32.024,24.211,5.03,6.138,10.612
2047,0.78,36.374,26.205,32.014,24.215,5.07,6.138,10.899
2048,0.79,36.361,25.992,32.043,24.229,5.193,6.26,11.187
2049,0.78,36.467,26.2,32.024,24.222,5.153,6.221,11.515
2050,0.78,36.573,26.156,32.005,24.208,5.031,6.139,11.64
2051,0.787,36.162,26.077,32.005,24.208,5.03,6.098,11.845
2052,0.787,36.254,26.221,32.005,24.204,4.989,6.138,12.091
2053,0.784,36.418,26.019,32.043,24.208,4.988,6.098,12.296
2054,0.8,36.496,26.201,32.101,24.211,5.029,6.138,12.421
2055,0.797,36.199,25.922,32.044,24.208,5.03,6.138,12.625
2056,0.797,36.302,26.129,32.024,24.201,5.07,6.098,12.708
2057,0.813,36.447,26.225,32.024,24.201,4.989,6.056,12.587
2058,0.813,36.563,26.16,32.043,24.215,5.07,6.178,12.749
2059,0.813,36.363,26.222,32.043,24.215,5.111,6.22,12.831
2060,0.813,36.524,26.093,32.043,24.222,5.152,6.18,12.792
2061,0.807,36.65,26.198,32.072,24.215,5.112,6.179,12.751
2062,0.803,36.7,26.019,32.044,24.211,5.03,6.139,12.588
2063,0.803,36.058,26.13,32.043,24.215,5.07,6.219,12.464
2064,0.823,36.233,25.933,32.053,24.211,5.03,6.22,12.381
2065,0.82,36.36,26.145,32.082,24.225,5.233,6.342,12.34
2066,0.79,36.39,26.272,32.053,24.218,5.113,6.303,12.217
2067,0.787,36.361,26.094,32.043,24.205,4.989,6.18,12.054
2068,0.787,36.495,26.24,32.053,24.204,4.988,6.179,11.889
2069,0.793,36.621,25.969,32.072,24.211,5.029,6.098,11.766
2070,0.793,36.661,26.2,32.053,24.211,5.03,6.178,11.683
2071,0.787,36.307,25.937,32.053,24.211,5.03,6.22,11.56
2072,0.793,36.437,26.134,32.053,24.208,4.989,6.22,11.519
2073,0.793,36.535,26.167,32.043,24.204,4.948,6.139,11.355
2074,0.816,36.516,26.058,32.062,24.204,4.988,6.098,11.232
2075,0.833,36.343,26.236,32.082,24.218,5.07,6.219,11.271
2076,0.849,36.466,26.051,32.082,24.211,5.07,6.302,11.19
2077,0.869,36.573,26.236,32.092,24.222,5.07,6.302,11.068
2078,0.879,36.613,25.965,32.082,24.218,5.03,6.302,10.985
2079,0.885,36.718,26.149,32.13,24.211,5.07,6.221,10.822
2080,0.895,36.835,26.085,32.083,24.211,4.989,6.139,10.698
2081,0.905,36.951,26.143,32.101,24.222,5.151,6.301,10.697
2082,0.902,35.907,26.128,32.101,24.225,5.071,6.343,10.697
2083,0.905,36.021,26.03,32.073,24.205,4.948,6.181,10.453
2084,0.879,36.137,26.216,32.063,24.204,4.825,6.098,10.247
2085,0.866,36.234,26.039,32.072,24.211,4.987,6.138,10.164
2086,0.872,36.206,26.209,32.101,24.204,4.988,6.179,10.122
2087,0.879,36.36,25.976,32.082,24.211,4.988,6.139,10.0
2088,0.885,36.457,26.071,32.092,24.215,4.948,6.179,9.917
2089,0.869,36.525,26.154,32.092,24.205,4.947,6.139,9.794
2090,0.863,36.219,26.069,32.092,24.204,4.907,6.098,9.631
2091,0.872,36.379,26.229,32.101,24.218,5.028,6.219,9.67
2092,0.879,36.505,25.98,32.121,24.211,5.07,6.261,9.711
2093,0.866,36.554,26.196,32.121,24.218,5.03,6.221,9.63
2094,0.869,36.085,25.996,32.121,24.211,5.03,6.22,9.588
2095,0.872,36.243,26.126,32.121,24.211,4.989,6.261,9.547
2096,0.885,36.379,26.155,32.121,24.208,4.988,6.221,9.547
2097,0.895,36.448,26.046,32.13,24.218,5.11,6.18,9.466
2098,0.902,36.324,26.181,32.14,24.218,5.071,6.342,9.587
2099,0.905,36.447,25.956,32.121,24.211,5.07,6.221,9.466
2100,0.899,36.535,26.2,32.102,24.198,4.948,6.18,9.302
2101,0.895,36.555,25.922,32.121,24.204,4.907,6.098,9.341
2102,0.895,36.056,26.102,32.121,24.204,4.987,6.138,9.342
2103,0.895,36.195,26.229,32.121,24.211,4.988,6.179,9.26
2104,0.895,36.283,26.058,32.13,24.208,5.07,6.179,9.3
2105,0.879,36.207,26.162,32.15,24.204,4.948,6.179,9.219
2106,0.882,36.235,25.956,32.111,24.197,4.866,6.057,9.218
2107,0.889,36.389,26.181,32.149,24.211,5.068,6.219,9.3
2108,0.899,36.476,25.98,32.159,24.215,5.07,6.302,9.341
2109,0.905,36.017,26.208,32.15,24.215,5.07,6.221,9.301
2110,0.918,36.118,25.988,32.14,24.211,4.989,6.22,9.301
2111,0.918,36.253,26.075,32.14,24.215,4.988,6.18,9.219
2112,0.922,36.331,26.213,32.14,24.215,4.988,6.261,9.178
2113,0.922,36.102,26.023,32.169,24.215,5.029,6.262,9.177
2114,0.931,36.224,26.154,32.179,24.218,5.192,6.302,9.38
2115,0.918,36.321,25.921,32.16,24.208,5.031,6.302,9.261
2116,0.905,36.409,26.153,32.15,24.197,4.948,6.14,9.178
2117,0.908,36.036,25.995,32.159,24.204,4.988,6.179,9.137
2118,0.895,36.176,26.13,32.159,24.211,4.988,6.139,9.095
2119,0.889,36.321,26.241,32.15,24.208,4.907,6.219,9.136
2120,0.889,36.39,26.012,32.159,24.208,4.987,6.18,9.136
2121,0.863,36.016,26.189,32.159,24.204,4.988,6.22,9.177
2122,0.872,36.195,25.999,32.15,24.204,4.907,6.058,9.055
2123,0.872,36.36,26.15,32.179,24.215,5.028,6.178,9.217
2124,0.869,36.409,25.948,32.198,24.218,4.989,6.261,9.3
2125,0.859,36.189,26.169,32.16,24.215,4.988,6.262,9.341
2126,0.853,36.321,25.964,32.169,24.215,5.029,6.221,9.382
