time,ecg,bvp,gsr,rsp,skt,emg_zygo,emg_coru,emg_trap
0,0.78,39.521,4.869,27.078,28.948,7.534,6.302,5.03
1,0.787,39.76,4.893,27.078,28.948,7.494,6.302,5.07
2,0.79,39.838,4.897,27.068,28.951,7.412,6.343,5.07
3,0.787,39.848,4.916,27.078,28.955,7.533,6.303,5.193
4,0.78,35.015,4.901,27.049,28.951,7.412,6.221,4.99
5,0.78,35.158,4.901,27.068,28.951,7.371,6.18,5.029
6,0.784,35.294,4.909,27.068,28.955,7.411,6.261,5.111
7,0.78,35.344,4.897,27.078,28.951,7.411,6.262,5.193
8,0.787,36.926,4.889,27.059,28.944,7.289,6.18,4.99
9,0.79,37.057,4.866,27.087,28.948,7.288,6.179,5.029
10,0.787,37.164,4.881,27.078,28.948,7.369,6.22,5.151
11,0.787,36.906,4.877,27.107,28.955,7.452,6.302,5.193
12,0.787,36.175,4.881,27.049,28.948,7.249,6.18,5.031
13,0.777,36.302,4.873,27.068,28.944,7.206,6.057,4.989
14,0.777,36.399,4.897,27.068,28.944,7.247,6.178,5.029
15,0.784,36.381,4.909,27.078,28.958,7.288,6.301,5.192
16,0.787,36.476,4.889,27.059,28.944,7.207,6.14,4.99
17,0.787,36.583,4.901,27.049,28.944,7.043,6.098,4.866
18,0.784,36.699,4.893,27.077,28.944,7.123,6.178,5.068
19,0.803,36.249,4.897,27.097,28.962,7.246,6.342,5.193
20,0.781,36.37,4.885,27.049,28.948,7.003,6.1,5.031
21,0.787,36.505,4.893,27.058,28.948,6.919,6.056,4.989
22,0.784,36.574,4.885,27.068,28.955,7.0,6.097,5.029
23,0.777,36.325,4.885,27.087,28.958,7.123,6.26,5.233
24,0.78,36.428,4.889,27.068,28.948,6.88,6.139,5.072
25,0.797,36.544,4.889,27.058,28.944,6.877,6.057,4.989
26,0.774,36.632,4.901,27.078,28.948,6.959,6.137,5.11
27,0.777,36.441,4.897,27.107,28.958,7.122,6.26,5.193
28,0.771,36.535,4.909,27.059,28.941,6.799,6.058,5.031
29,0.767,36.631,4.885,27.049,28.934,6.755,5.975,4.989
30,0.787,36.709,4.889,27.077,28.948,6.836,6.096,5.151
31,0.803,36.345,4.913,27.097,28.958,6.877,6.178,5.153
32,0.781,36.428,4.893,27.068,28.944,6.796,6.017,5.071
33,0.774,36.515,4.87,27.039,28.941,6.714,6.056,5.07
34,0.793,36.554,4.885,27.068,28.951,6.835,6.137,5.07
35,0.787,36.478,4.885,27.078,28.951,6.796,6.138,4.989
36,0.78,36.564,4.87,27.059,28.948,6.633,6.016,4.988
37,0.784,36.699,4.877,27.058,28.948,6.712,6.056,5.029
38,0.787,36.365,4.893,27.078,28.948,6.794,6.137,5.07
39,0.777,36.265,4.901,27.049,28.951,6.795,6.057,5.07
40,0.777,36.389,4.889,27.058,28.944,6.714,5.975,4.989
41,0.777,36.486,4.893,27.068,28.948,6.835,6.055,5.07
42,0.787,36.372,4.901,27.068,28.951,6.837,6.137,5.152
43,0.78,36.496,4.901,27.068,28.944,6.918,6.098,5.071
44,0.764,36.602,4.881,27.049,28.937,6.837,5.935,5.03
45,0.783,36.69,4.893,27.087,28.944,6.958,6.096,5.07
46,0.78,36.288,4.897,27.078,28.955,7.122,6.138,5.152
47,0.78,36.408,4.893,27.078,28.948,7.083,6.057,5.031
48,0.777,36.505,4.87,27.068,28.948,7.042,6.015,4.948
49,0.777,36.593,4.885,27.049,28.948,7.082,6.015,5.029
50,0.797,36.076,4.889,27.087,28.951,7.245,6.056,5.07
51,0.784,36.205,4.893,27.059,28.948,7.206,6.015,5.07
52,0.777,36.292,4.885,27.068,28.948,7.165,6.015,5.07
53,0.777,36.36,4.901,27.068,28.944,7.246,5.974,5.03
54,0.78,36.189,4.901,27.058,28.951,7.206,6.096,5.111
55,0.78,36.321,4.878,27.068,28.951,7.165,6.056,5.071
56,0.78,36.409,4.881,27.049,28.944,7.206,6.015,5.07
57,0.784,36.448,4.877,27.049,28.948,7.287,5.974,5.03
58,0.797,36.257,4.885,27.068,28.948,7.288,6.055,5.03
59,0.784,36.37,4.873,27.087,28.948,7.207,6.015,5.07
60,0.78,36.457,4.869,27.059,28.948,7.165,6.096,5.03
61,0.78,36.573,4.885,27.087,28.948,7.206,6.016,4.989
62,0.79,36.2,4.885,27.059,28.951,7.247,6.096,5.07
63,0.793,36.312,4.889,27.068,28.951,7.247,6.056,5.111
64,0.79,36.399,4.885,27.049,28.951,7.206,6.097,5.112
65,0.797,36.151,4.893,27.068,28.948,7.287,6.016,5.03
66,0.794,36.254,4.889,27.087,28.958,7.288,6.096,5.03
67,0.793,36.341,4.901,27.078,28.951,7.329,6.097,5.111
68,0.787,36.447,4.889,27.078,28.951,7.37,6.178,5.152
69,0.8,35.95,4.893,27.068,28.944,7.37,6.098,5.071
70,0.803,36.108,4.889,27.078,28.951,7.33,6.056,5.03
71,0.794,36.215,4.897,27.068,28.944,7.37,6.137,5.111
72,0.784,36.283,4.889,27.068,28.955,7.533,6.138,5.112
73,0.797,36.015,4.881,27.058,28.948,7.453,6.138,4.989
74,0.794,36.166,4.909,27.068,28.951,7.493,6.057,5.029
75,0.79,36.273,4.893,27.068,28.944,7.534,6.178,4.989
76,0.784,36.322,4.881,27.058,28.951,7.616,6.22,5.11
77,0.787,36.111,4.885,27.049,28.948,7.495,6.18,4.989
78,0.784,36.234,4.893,27.058,28.948,7.575,6.139,5.029
79,0.787,36.36,4.901,27.058,28.955,7.535,6.219,5.07
80,0.78,36.399,4.881,27.068,28.951,7.575,6.302,5.193
81,0.777,35.92,4.893,27.058,28.948,7.494,6.18,5.072
82,0.787,36.059,4.893,27.068,28.948,7.575,6.179,4.989
83,0.793,36.157,4.897,27.068,28.955,7.575,6.261,5.029
84,0.79,36.187,4.889,27.058,28.948,7.657,6.302,5.111
85,0.79,35.937,4.885,27.049,28.951,7.617,6.14,5.03
86,0.79,36.088,4.901,27.077,28.948,7.535,6.219,5.07
87,0.806,36.195,4.878,27.078,28.948,7.575,6.302,5.07
88,0.787,35.995,4.893,27.068,28.951,7.575,6.343,5.111
89,0.784,35.955,4.889,27.058,28.944,7.413,6.262,5.03
90,0.79,36.108,4.877,27.068,28.951,7.411,6.221,4.989
91,0.797,36.196,4.889,27.058,28.955,7.411,6.302,5.11
92,0.787,35.89,4.893,27.078,28.955,7.493,6.302,5.152
93,0.78,36.011,4.901,27.059,28.944,7.371,6.18,5.031
94,0.797,36.147,4.893,27.068,28.948,7.411,6.22,4.989
95,0.784,36.225,4.905,27.049,28.948,7.411,6.302,5.029
96,0.784,35.775,4.913,27.068,28.955,7.371,6.384,5.151
97,0.777,35.914,4.897,27.049,28.944,7.289,6.303,5.031
98,0.78,36.05,4.889,27.077,28.951,7.329,6.221,4.989
99,0.774,36.138,4.881,27.049,28.951,7.248,6.302,5.151
100,0.78,35.879,4.877,27.097,28.962,7.369,6.343,5.153
101,0.784,36.011,4.885,27.049,28.944,7.208,6.303,4.99
102,0.78,36.118,4.893,27.03,28.944,7.125,6.14,4.948
103,0.787,36.186,4.916,27.058,28.955,7.246,6.301,5.11
104,0.793,35.679,4.901,27.087,28.955,7.288,6.343,5.234
105,0.787,35.798,4.901,27.059,28.948,7.044,6.262,4.991
106,0.787,35.895,4.889,27.049,28.941,7.042,6.058,4.988
107,0.79,35.935,4.901,27.077,28.951,7.123,6.259,5.151
108,0.793,35.916,4.905,27.107,28.969,7.246,6.343,5.193
109,0.784,36.031,4.885,27.049,28.944,7.003,6.221,4.99
110,0.774,36.109,4.885,27.039,28.937,7.001,6.139,4.988
111,0.79,36.311,4.885,27.116,28.951,7.123,6.301,5.029
112,0.793,35.737,4.897,27.097,28.962,7.165,6.384,5.192
113,0.777,35.837,4.893,27.059,28.948,6.962,6.1,5.031
114,0.774,35.934,4.877,27.03,28.934,6.878,6.138,4.948
115,0.78,35.686,4.901,27.068,28.948,7.0,6.219,5.029
116,0.793,35.769,4.897,27.087,28.962,7.082,6.383,5.192
117,0.777,35.866,4.893,27.059,28.944,6.961,6.181,4.95
118,0.78,35.953,4.897,27.03,28.937,6.838,6.139,4.947
119,0.78,35.561,4.897,27.077,28.951,6.958,6.219,5.029
120,0.8,35.72,4.924,27.087,28.962,7.0,6.342,5.192
121,0.777,35.818,4.897,27.04,28.944,6.797,6.14,5.072
122,0.777,35.895,4.885,27.029,28.937,6.714,6.138,4.908
123,0.793,35.656,4.877,27.049,28.948,6.794,6.219,5.069
124,0.797,35.817,4.889,27.097,28.962,6.877,6.302,5.193
125,0.794,35.886,4.873,27.04,28.948,6.715,6.18,4.99
126,0.784,35.925,4.881,27.039,28.937,6.713,6.179,4.948
127,0.79,35.609,4.909,27.068,28.955,6.713,6.22,5.15
128,0.803,35.769,4.921,27.087,28.951,6.794,6.261,5.071
129,0.781,35.837,4.897,27.059,28.944,6.714,6.18,4.989
130,0.78,35.876,4.885,27.058,28.941,6.672,6.22,5.07
131,0.784,35.599,4.912,27.058,28.951,6.835,6.261,5.111
132,0.793,35.759,4.901,27.068,28.948,6.796,6.221,5.03
133,0.777,35.847,4.885,27.039,28.948,6.795,6.18,5.07
134,0.774,35.857,4.877,27.058,28.948,6.877,6.179,5.152
135,0.787,35.627,4.881,27.049,28.951,6.918,6.261,5.071
136,0.797,35.75,4.881,27.106,28.951,6.919,6.139,5.07
137,0.784,35.837,4.866,27.059,28.944,6.878,6.138,4.948
138,0.806,35.713,4.869,27.049,28.944,7.0,6.098,4.988
139,0.803,35.683,4.877,27.087,28.955,7.001,6.138,5.11
140,0.797,35.817,4.862,27.059,28.951,7.001,6.138,4.989
141,0.807,35.886,4.865,27.039,28.934,6.96,6.138,4.988
142,0.816,35.551,4.889,27.039,28.948,7.041,6.138,4.988
143,0.829,35.701,4.897,27.049,28.951,7.042,6.219,5.151
144,0.826,35.808,4.889,27.049,28.948,7.001,6.22,5.153
145,0.826,35.867,4.905,27.049,28.944,6.96,6.139,5.071
146,0.843,35.512,4.905,27.058,28.955,7.0,6.179,5.07
147,0.853,35.662,4.893,27.078,28.951,7.123,6.22,5.152
148,0.843,35.798,4.866,27.068,28.951,7.002,6.22,5.071
149,0.843,35.828,4.881,27.058,28.948,7.041,6.139,5.07
150,0.853,35.359,4.87,27.049,28.948,7.082,6.138,5.03
151,0.866,35.517,4.869,27.077,28.955,7.042,6.138,5.07
152,0.869,35.643,4.881,27.078,28.948,7.123,6.138,5.111
153,0.869,35.664,4.889,27.059,28.944,7.083,6.138,5.03
154,0.866,35.443,4.885,27.049,28.948,7.083,6.138,5.03
155,0.882,35.594,4.881,27.049,28.955,7.123,6.098,5.03
156,0.872,35.663,4.905,27.049,28.948,7.165,6.138,5.111
157,0.869,35.712,4.889,27.03,28.951,7.124,6.138,5.03
158,0.882,35.501,4.889,27.049,28.944,7.205,6.057,4.989
159,0.892,35.633,4.893,27.087,28.951,7.206,6.178,5.07
160,0.882,35.74,4.889,27.059,28.955,7.287,6.057,5.07
161,0.889,36.067,4.881,27.058,28.944,7.166,6.137,5.111
162,0.892,35.486,4.873,27.049,28.948,7.124,6.098,4.949
163,0.895,35.633,4.893,27.068,28.951,7.246,6.138,5.069
164,0.895,35.711,4.885,27.049,28.948,7.247,6.138,5.03
165,0.895,35.329,4.877,27.058,28.951,7.247,6.098,5.111
166,0.912,35.373,4.893,27.049,28.948,7.166,6.056,5.071
167,0.899,35.498,4.893,27.077,28.951,7.246,6.097,5.03
168,0.905,35.624,4.893,27.059,28.951,7.084,6.097,5.111
169,0.908,35.366,4.889,27.039,28.951,7.164,6.056,5.071
170,0.902,35.498,4.897,27.049,28.944,7.084,6.056,5.03
171,0.925,35.624,4.901,27.068,28.951,7.042,6.056,5.03
172,0.935,35.702,4.893,27.049,28.944,7.123,6.137,5.07
173,0.945,35.204,4.885,27.058,28.944,7.043,6.098,5.07
174,0.945,35.352,4.893,27.058,28.948,7.001,6.056,4.989
175,0.958,35.498,4.881,27.049,28.955,7.041,6.097,5.029
176,0.951,35.557,4.87,27.049,28.948,7.042,6.097,5.07
177,0.945,35.346,4.901,27.049,28.951,7.042,6.056,5.152
178,0.951,35.488,4.893,27.049,28.944,6.92,5.975,5.071
179,0.945,35.605,4.909,27.068,28.948,7.0,6.055,5.03
180,0.925,35.654,4.889,27.049,28.958,6.96,6.137,5.07
181,0.918,35.299,4.909,27.068,28.951,7.082,6.138,5.193
182,0.931,35.42,4.885,27.039,28.944,6.92,6.016,5.031
183,0.935,35.537,4.889,27.049,28.948,6.959,6.137,5.03
184,0.935,35.547,4.901,27.058,28.951,6.96,6.098,5.111
185,0.938,35.212,4.893,27.078,28.951,7.041,6.138,5.152
186,0.945,35.352,4.893,27.049,28.948,7.001,6.057,5.071
187,0.961,35.45,4.881,27.068,28.944,7.082,6.015,5.03
188,0.951,35.336,4.87,27.049,28.944,7.123,6.137,5.03
189,0.958,35.267,4.877,27.058,28.948,7.205,6.138,5.111
190,0.951,35.391,4.873,27.058,28.944,7.247,6.057,4.989
191,0.948,35.527,4.873,27.058,28.948,7.206,6.097,5.07
192,0.948,36.468,4.877,27.058,28.955,7.328,6.138,5.03
193,0.958,36.66,4.885,27.058,28.951,7.289,6.179,5.151
194,0.964,36.748,4.897,27.039,28.948,7.329,6.139,5.031
195,0.955,36.854,4.901,27.058,28.948,7.289,6.219,4.989
196,0.928,34.228,4.897,27.049,28.951,7.369,6.342,5.151
197,0.922,34.345,4.913,27.058,28.955,7.452,6.466,5.153
198,0.922,34.481,4.885,27.039,28.944,7.29,6.386,5.031
199,0.925,34.588,4.885,27.087,28.948,7.329,6.507,4.907
200,0.928,35.212,4.897,27.068,28.951,7.451,6.63,5.109
201,0.925,35.4,4.893,27.087,28.951,7.493,6.834,5.193
202,0.912,35.489,4.874,27.04,28.948,7.371,6.796,4.95
203,0.892,35.547,4.862,27.039,28.944,7.452,6.795,4.907
204,0.886,34.895,4.893,27.068,28.951,7.534,6.999,5.028
205,0.882,35.033,4.913,27.078,28.958,7.697,7.245,5.233
206,0.859,35.12,4.893,27.049,28.944,7.496,7.084,5.032
207,0.849,35.16,4.889,27.068,28.937,7.371,7.042,4.948
208,0.849,35.189,4.893,27.039,28.944,7.533,7.286,5.029
209,0.846,35.314,4.905,27.087,28.958,7.657,7.491,5.151
210,0.827,35.392,4.885,27.04,28.951,7.495,7.331,4.949
211,0.813,35.814,4.897,27.039,28.944,7.412,7.329,4.907
212,0.816,35.071,4.885,27.068,28.951,7.574,7.451,5.109
213,0.829,35.226,4.901,27.097,28.962,7.657,7.574,5.193
214,0.807,35.295,4.87,27.049,28.951,7.455,7.413,5.031
215,0.803,35.018,4.862,27.02,28.941,7.412,7.411,4.907
216,0.807,35.082,4.893,27.068,28.951,7.533,7.493,5.028
217,0.82,35.236,4.897,27.068,28.955,7.616,7.616,5.151
218,0.8,35.295,4.889,27.039,28.948,7.495,7.495,5.031
219,0.794,35.046,4.897,27.049,28.944,7.412,7.412,4.907
220,0.787,35.188,4.916,27.039,28.948,7.493,7.493,5.069
221,0.784,35.333,4.917,27.097,28.965,7.616,7.616,5.193
222,0.774,35.392,4.897,27.049,28.941,7.373,7.495,4.99
223,0.754,35.047,4.897,27.02,28.937,7.289,7.412,4.866
224,0.764,35.226,4.905,27.068,28.955,7.369,7.574,5.068
225,0.783,35.381,4.917,27.097,28.962,7.533,7.657,5.111
226,0.761,35.412,4.882,27.049,28.948,7.291,7.455,4.989
227,0.757,34.98,4.881,27.039,28.937,7.369,7.452,5.029
228,0.767,35.149,4.893,27.058,28.951,7.37,7.493,5.151
229,0.761,35.294,4.897,27.078,28.955,7.37,7.453,5.031
230,0.748,35.305,4.897,27.039,28.941,7.167,7.412,4.989
231,0.731,34.912,4.881,27.058,28.944,7.287,7.452,5.029
232,0.738,35.09,4.881,27.068,28.951,7.329,7.574,5.111
233,0.754,35.198,4.885,27.058,28.951,7.329,7.535,4.989
234,0.728,35.199,4.909,27.03,28.944,7.207,7.494,4.988
235,0.741,34.969,4.905,27.029,28.951,7.287,7.616,4.988
236,0.734,35.11,4.897,27.058,28.944,7.369,7.698,5.029
237,0.734,35.198,4.889,27.049,28.951,7.289,7.658,5.111
238,0.738,35.122,4.901,27.039,28.951,7.166,7.658,4.989
239,0.741,35.035,4.893,27.058,28.948,7.287,7.698,5.029
240,0.747,35.178,4.893,27.058,28.955,7.451,7.74,5.07
241,0.741,35.275,4.889,27.049,28.951,7.33,7.699,5.111
242,0.728,34.922,4.873,27.049,28.944,7.289,7.658,5.03
243,0.721,35.043,4.893,27.049,28.948,7.369,7.658,5.07
244,0.721,35.169,4.897,27.058,28.958,7.411,7.78,5.07
245,0.715,35.256,4.881,27.058,28.948,7.371,7.578,5.152
246,0.715,34.912,4.897,27.049,28.948,7.37,7.616,5.031
247,0.734,35.062,4.909,27.068,28.944,7.37,7.617,5.111
248,0.747,35.207,4.917,27.058,28.951,7.452,7.657,5.152
249,0.744,35.276,4.909,27.078,28.948,7.452,7.617,5.071
250,0.738,34.931,4.905,27.039,28.948,7.412,7.535,5.03
251,0.741,35.062,4.901,27.049,28.948,7.452,7.616,4.989
252,0.738,35.217,4.909,27.068,28.958,7.534,7.576,5.11
253,0.741,35.257,4.893,27.058,28.944,7.453,7.575,5.112
254,0.734,34.854,4.877,27.02,28.941,7.371,7.494,5.03
255,0.731,34.994,4.877,27.029,28.948,7.411,7.494,5.03
256,0.728,35.139,4.877,27.058,28.951,7.452,7.575,5.07
257,0.721,35.169,4.877,27.049,28.951,7.412,7.494,5.07
258,0.724,34.92,4.881,27.049,28.944,7.289,7.453,5.111
259,0.731,35.071,4.901,27.049,28.944,7.451,7.371,5.03
260,0.731,35.188,4.897,27.058,28.948,7.412,7.452,5.03
261,0.728,35.525,4.877,27.049,28.958,7.371,7.33,5.07
262,0.721,34.847,4.901,27.058,28.951,7.37,7.41,5.07
263,0.734,34.994,4.881,27.039,28.951,7.37,7.289,5.07
264,0.741,35.12,4.877,27.068,28.951,7.37,7.329,5.03
265,0.731,34.776,4.901,27.068,28.955,7.37,7.289,5.07
266,0.734,34.801,4.893,27.058,28.948,7.37,7.329,5.111
267,0.728,34.936,4.881,27.049,28.944,7.289,7.207,4.989
268,0.744,35.052,4.87,27.077,28.948,7.329,7.206,5.029
269,0.738,34.775,4.877,27.049,28.951,7.289,7.165,5.111
270,0.734,34.897,4.873,27.049,28.951,7.329,7.287,5.112
271,0.731,35.033,4.877,27.049,28.948,7.289,7.125,5.03
272,0.734,35.14,4.897,27.049,28.951,7.288,7.083,5.03
273,0.721,34.824,4.893,27.049,28.948,7.288,7.083,5.03
274,0.724,34.975,4.897,27.058,28.951,7.329,7.164,5.07
275,0.724,35.101,4.881,27.049,28.944,7.329,7.084,4.989
276,0.741,35.169,4.901,27.049,28.948,7.329,7.123,5.029
277,0.725,34.738,4.905,27.049,28.948,7.37,7.083,5.07
278,0.737,34.878,4.893,27.049,28.951,7.411,7.083,5.03
279,0.731,34.975,4.885,27.049,28.944,7.371,7.042,5.03
280,0.738,35.053,4.889,27.049,28.944,7.37,7.042,5.03
281,0.731,34.795,4.877,27.039,28.948,7.452,7.123,5.03
282,0.731,34.945,4.881,27.068,28.948,7.452,7.083,5.151
283,0.731,35.052,4.889,27.049,28.955,7.371,7.002,5.071
284,0.738,35.092,4.893,27.049,28.948,7.33,7.001,4.989
285,0.731,34.853,4.889,27.058,28.948,7.41,7.001,5.07
286,0.738,34.975,4.901,27.068,28.948,7.452,7.123,5.111
287,0.731,35.053,4.913,27.068,28.941,7.29,7.002,5.071
288,0.738,34.996,4.889,27.049,28.944,7.288,6.96,4.948
289,0.741,34.804,4.881,27.058,28.951,7.329,7.041,5.029
290,0.764,34.936,4.916,27.068,28.955,7.451,7.123,5.192
291,0.777,35.014,4.893,27.049,28.948,7.168,6.961,5.031
292,0.78,34.794,4.893,27.049,28.941,7.246,6.96,4.948
293,0.793,34.907,4.881,27.049,28.951,7.288,7.0,5.069
294,0.806,35.071,4.893,27.068,28.955,7.369,7.082,5.193
295,0.836,35.121,4.889,27.058,28.944,7.208,6.92,5.031
296,0.865,34.594,4.877,27.03,28.937,7.084,6.756,4.948
297,0.895,34.732,4.881,27.029,28.948,7.205,6.917,5.029
298,0.921,34.887,4.885,27.068,28.958,7.287,7.081,5.151
299,0.935,34.956,4.885,27.049,28.948,7.085,6.839,4.99
300,0.967,34.717,4.881,27.03,28.941,7.083,6.755,4.907
301,1.003,34.897,4.909,27.049,28.951,7.205,6.917,5.069
302,1.03,35.042,4.905,27.087,28.955,7.287,6.919,5.111
303,1.037,35.044,4.897,27.03,28.944,7.004,6.796,5.03
304,1.05,34.641,4.897,27.02,28.937,6.96,6.795,4.989
305,1.089,34.819,4.893,27.068,28.955,7.122,6.795,5.151
306,1.099,34.965,4.905,27.078,28.955,7.083,6.836,5.112
307,1.073,34.957,4.87,27.039,28.944,6.92,6.755,5.03
308,1.073,34.794,4.869,27.02,28.941,6.919,6.714,4.948
309,1.096,34.965,4.889,27.106,28.948,7.041,6.713,5.069
310,1.115,35.11,4.877,27.059,28.955,7.042,6.713,5.07
311,1.076,35.121,4.881,27.03,28.951,6.96,6.713,5.03
312,1.05,34.699,4.862,27.039,28.944,6.96,6.713,4.989
313,1.033,34.868,4.877,27.068,28.955,7.082,6.754,5.07
314,1.004,34.956,4.893,27.058,28.948,6.961,6.754,5.03
315,0.945,34.621,4.893,27.03,28.937,6.919,6.673,4.948
316,0.88,34.637,4.881,27.039,28.951,7.0,6.713,4.907
317,0.84,34.791,4.885,27.049,28.951,7.041,6.713,5.028
318,0.771,34.878,4.893,27.049,28.948,7.042,6.672,5.03
319,0.702,34.649,4.885,27.03,28.937,6.92,6.631,4.989
320,0.627,34.8,4.893,27.049,28.948,6.959,6.59,5.029
321,0.561,34.946,4.881,27.068,28.955,7.0,6.671,5.111
322,0.485,35.024,4.901,27.049,28.948,6.96,6.631,5.03
323,0.4,34.545,4.846,27.039,28.948,6.919,6.55,4.989
324,0.334,34.694,4.885,27.049,28.951,6.959,6.59,5.029
325,0.288,34.849,4.881,27.068,28.958,7.041,6.671,5.151
326,0.255,34.898,4.877,27.049,28.951,7.042,6.631,5.112
327,0.222,34.621,4.873,27.049,28.948,7.001,6.55,5.152
328,0.202,34.781,4.889,27.068,28.948,7.041,6.549,5.071
329,0.127,34.878,4.916,27.058,28.948,7.042,6.549,5.111
330,0.097,34.946,4.909,27.049,28.948,6.96,6.508,5.152
331,0.061,34.688,4.893,27.058,28.951,6.96,6.549,5.153
332,0.058,34.839,4.889,27.049,28.948,6.96,6.508,5.071
333,0.035,34.965,4.877,27.058,28.948,6.96,6.467,5.111
334,0.002,35.005,4.869,27.049,28.948,6.96,6.467,5.152
335,-0.034,34.631,4.873,27.039,28.951,6.919,6.548,5.193
336,-0.044,34.762,4.877,27.049,28.951,6.878,6.427,5.031
337,-0.022,34.878,4.881,27.049,28.944,6.877,6.426,5.07
338,0.011,34.822,4.873,27.049,28.951,6.918,6.466,5.111
339,0.041,34.601,4.877,27.068,28.955,6.959,6.467,5.193
340,0.093,34.723,4.873,27.03,28.944,6.878,6.304,5.072
341,0.142,34.849,4.893,27.049,28.948,6.877,6.384,5.152
342,0.192,34.62,4.897,27.039,28.948,6.918,6.385,5.193
343,0.244,34.723,4.901,27.049,28.958,6.919,6.466,5.275
344,0.281,34.849,4.881,27.049,28.944,6.878,6.386,5.154
345,0.326,34.956,4.893,27.039,28.948,6.918,6.303,5.193
346,0.356,34.64,4.901,27.058,28.951,6.959,6.384,5.316
347,0.379,34.791,4.897,27.068,28.948,7.0,6.344,5.358
348,0.415,34.888,4.885,27.039,28.944,6.879,6.303,5.236
349,0.448,34.985,4.885,27.049,28.951,7.0,6.384,5.235
350,0.465,34.478,4.877,27.049,28.951,6.919,6.385,5.235
351,0.488,34.626,4.889,27.058,28.951,6.919,6.425,5.316
352,0.524,34.752,4.873,27.039,28.944,6.959,6.304,5.276
353,0.557,34.801,4.885,27.039,28.941,6.878,6.343,5.276
354,0.573,34.466,4.885,27.049,28.948,6.959,6.343,5.235
355,0.603,34.626,4.901,27.039,28.941,7.0,6.425,5.357
356,0.629,34.752,4.893,27.039,28.951,6.919,6.385,5.277
357,0.652,34.772,4.897,27.039,28.948,6.959,6.385,5.195
358,0.665,34.408,4.881,27.058,28.958,6.96,6.344,5.316
359,0.675,34.558,4.893,27.049,28.944,6.878,6.343,5.317
360,0.698,34.675,4.909,27.039,28.948,6.959,6.343,5.276
361,0.727,34.705,4.909,27.058,28.944,6.919,6.343,5.276
362,0.728,34.628,4.897,27.058,28.951,6.959,6.343,5.276
363,0.741,34.762,4.889,27.01,28.944,6.96,6.343,5.316
364,0.773,34.859,4.877,27.039,28.948,6.96,6.262,5.276
365,0.777,34.467,4.893,27.049,28.951,7.041,6.343,5.276
366,0.78,34.444,4.889,27.049,28.948,6.96,6.221,5.276
367,0.784,34.549,4.893,27.039,28.955,6.96,6.261,5.357
368,0.8,34.665,4.854,27.058,28.944,7.0,6.302,5.317
369,0.81,34.503,4.881,27.068,28.948,7.001,6.302,5.317
370,0.813,34.636,4.893,27.03,28.951,7.001,6.262,5.317
371,0.816,34.752,4.893,27.029,28.944,6.879,6.343,5.358
372,0.813,34.849,4.885,27.049,28.944,6.918,6.221,5.277
373,0.816,34.342,4.901,27.049,28.951,6.959,6.22,5.316
374,0.816,34.461,4.901,27.049,28.948,6.878,6.261,5.317
375,0.81,34.597,4.897,27.049,28.944,6.918,6.221,5.358
376,0.81,34.675,4.909,27.039,28.944,6.878,6.22,5.277
377,0.807,34.465,4.901,27.039,28.944,6.918,6.18,5.316
378,0.82,34.597,4.901,27.058,28.948,6.878,6.139,5.276
379,0.807,34.713,4.893,27.039,28.948,6.918,6.301,5.316
380,0.816,34.782,4.874,27.029,28.951,6.837,6.221,5.236
381,0.813,34.274,4.885,27.058,28.948,6.918,6.139,5.275
382,0.813,34.432,4.889,27.068,28.948,7.0,6.179,5.276
383,0.81,34.53,4.873,27.039,28.951,7.001,6.139,5.357
384,0.803,34.569,4.885,27.049,28.941,6.919,6.138,5.317
385,0.823,34.502,4.897,27.039,28.951,6.919,6.138,5.317
386,0.836,34.636,4.893,27.068,28.948,7.0,6.179,5.317
387,0.833,34.752,4.885,27.068,28.951,7.123,6.179,5.398
388,0.833,34.705,4.897,27.049,28.948,7.043,6.139,5.318
389,0.839,34.427,4.897,27.049,28.944,7.082,6.057,5.236
390,0.843,34.568,4.893,27.058,28.951,7.164,6.137,5.316
391,0.849,34.684,4.897,27.087,28.958,7.45,6.26,5.398
392,0.84,34.321,4.877,27.04,28.948,7.29,6.099,5.236
393,0.839,34.413,4.869,27.039,28.941,7.288,6.056,5.153
394,0.846,34.558,4.885,27.049,28.951,7.369,6.137,5.315
395,0.853,34.655,4.881,27.077,28.965,7.492,6.26,5.358
396,0.836,34.292,4.889,27.03,28.948,7.331,6.058,5.236
397,0.836,34.423,4.877,27.029,28.937,7.289,6.015,5.113
398,0.846,34.558,4.889,27.058,28.944,7.451,6.137,5.315
399,0.84,34.665,4.897,27.078,28.962,7.574,6.179,5.439
400,0.839,34.167,4.893,27.039,28.944,7.413,6.057,5.237
401,0.839,34.325,4.877,27.02,28.937,7.33,6.015,5.194
402,0.839,34.461,4.916,27.039,28.948,7.41,6.137,5.275
403,0.852,34.568,4.913,27.077,28.965,7.533,6.179,5.438
404,0.833,34.33,4.901,27.03,28.944,7.291,6.017,5.318
405,0.83,34.452,4.893,27.02,28.941,7.288,5.974,5.236
406,0.843,34.597,4.909,27.068,28.948,7.369,6.055,5.357
407,0.839,34.685,4.893,27.068,28.962,7.37,6.219,5.358
408,0.843,34.235,4.885,27.049,28.948,7.248,6.017,5.236
409,0.839,34.365,4.87,27.03,28.937,7.125,6.015,5.275
410,0.856,34.491,4.901,27.039,28.951,7.246,6.137,5.357
411,0.869,34.53,4.909,27.068,28.955,7.288,6.179,5.317
412,0.853,34.425,4.874,27.03,28.941,7.166,6.098,5.236
413,0.84,34.539,4.862,27.039,28.948,7.124,6.056,5.235
414,0.852,34.703,4.889,27.058,28.951,7.165,6.178,5.316
415,0.853,34.273,4.885,27.058,28.948,7.165,6.179,5.236
416,0.846,34.173,4.893,27.02,28.944,7.084,6.139,5.153
417,0.843,34.306,4.893,27.029,28.951,7.083,6.219,5.315
418,0.853,34.442,4.889,27.049,28.955,7.123,6.302,5.317
419,0.849,34.194,4.897,27.039,28.948,7.043,6.302,5.317
420,0.846,34.307,4.874,27.029,28.944,6.96,6.18,5.276
421,0.853,34.48,4.901,27.029,28.944,7.0,6.261,5.235
422,0.859,34.568,4.885,27.058,28.951,7.123,6.343,5.316
423,0.853,34.138,4.881,27.049,28.948,7.043,6.343,5.236
424,0.836,34.277,4.901,27.077,28.948,6.96,6.303,5.316
425,0.856,34.422,4.893,27.049,28.951,7.082,6.343,5.236
426,0.866,34.501,4.909,27.068,28.944,7.083,6.343,5.275
427,0.856,34.137,4.885,27.049,28.955,7.002,6.425,5.316
428,0.846,34.248,4.885,27.049,28.944,7.001,6.426,5.358
429,0.859,34.403,4.885,27.039,28.951,7.001,6.304,5.195
430,0.872,34.462,4.92,27.058,28.944,6.96,6.384,5.275
431,0.863,34.204,4.905,27.058,28.948,6.96,6.385,5.235
432,0.856,34.326,4.889,27.049,28.948,7.0,6.425,5.275
433,0.862,34.442,4.905,27.039,28.944,6.96,6.304,5.316
434,0.859,34.501,4.901,27.039,28.951,7.041,6.302,5.276
435,0.869,34.089,4.885,27.039,28.948,7.001,6.384,5.235
436,0.866,34.238,4.881,27.049,28.951,7.041,6.466,5.316
437,0.869,34.326,4.862,27.03,28.944,7.001,6.386,5.195
438,0.866,34.538,4.881,27.058,28.944,6.96,6.344,5.234
439,0.879,34.358,4.877,27.039,28.955,6.96,6.425,5.275
440,0.869,34.471,4.869,27.039,28.951,7.041,6.466,5.276
441,0.876,34.578,4.881,27.029,28.944,6.96,6.386,5.154
442,0.876,34.099,4.897,27.049,28.948,7.0,6.385,5.193
443,0.869,34.152,4.901,27.049,28.948,7.082,6.385,5.275
444,0.872,34.268,4.905,27.049,28.948,7.123,6.385,5.316
445,0.879,34.365,4.893,27.049,28.944,7.083,6.344,5.195
446,0.885,34.088,4.897,27.077,28.944,7.123,6.384,5.275
447,0.885,34.19,4.893,27.049,28.955,7.124,6.385,5.276
448,0.879,34.326,4.889,27.039,28.948,7.246,6.344,5.357
449,0.882,34.413,4.893,27.049,28.948,7.125,6.384,5.236
450,0.885,34.088,4.877,27.049,28.951,7.124,6.385,5.275
451,0.872,34.238,4.885,27.049,28.944,7.165,6.425,5.195
452,0.866,34.355,4.881,27.058,28.948,7.206,6.385,5.397
453,0.872,34.423,4.877,27.03,28.944,7.084,6.385,5.236
454,0.876,34.108,4.873,27.049,28.951,7.123,6.344,5.235
455,0.879,34.229,4.893,27.049,28.951,7.165,6.303,5.275
456,0.876,34.355,4.893,27.049,28.951,7.124,6.302,5.316
457,0.876,34.395,4.881,27.039,28.948,7.083,6.302,5.195
458,0.879,34.05,4.897,27.029,28.948,7.083,6.302,5.234
459,0.872,34.161,4.905,27.049,28.951,7.123,6.343,5.194
460,0.879,34.306,4.901,27.049,28.958,7.124,6.384,5.234
461,0.879,34.337,4.909,27.049,28.944,7.083,6.303,5.194
462,0.885,34.087,4.901,27.03,28.951,7.164,6.262,5.275
463,0.885,34.21,4.893,27.039,28.944,7.165,6.302,5.235
464,0.879,34.336,4.881,27.049,28.955,7.206,6.384,5.235
465,0.889,34.174,4.897,27.058,28.951,7.165,6.222,5.194
466,0.895,34.143,4.87,27.049,28.944,7.124,6.22,5.153
467,0.892,34.277,4.901,27.039,28.951,7.368,6.302,5.315
468,0.905,34.403,4.893,27.068,28.951,7.411,6.425,5.276
469,0.892,33.963,4.874,27.02,28.951,7.371,6.182,5.154
470,0.905,34.103,4.881,27.029,28.944,7.248,6.179,5.234
471,0.902,34.2,4.889,27.049,28.948,7.328,6.261,5.194
472,0.902,34.307,4.897,27.049,28.958,7.451,6.343,5.316
473,0.902,33.953,4.893,27.03,28.944,7.371,6.181,5.154
474,0.908,34.093,4.881,27.039,28.944,7.37,6.22,5.153
475,0.899,34.229,4.905,27.049,28.951,7.37,6.22,5.275
476,0.905,34.317,4.893,27.049,28.958,7.452,6.302,5.276
477,0.899,33.895,4.874,27.01,28.944,7.371,6.18,5.154
478,0.902,34.025,4.893,27.029,28.937,7.33,6.179,5.071
479,0.895,34.19,4.889,27.058,28.951,7.451,6.261,5.233
480,0.912,34.23,4.873,27.068,28.958,7.452,6.384,5.316
481,0.899,33.904,4.869,27.02,28.944,7.249,6.263,5.195
482,0.899,34.026,4.885,27.029,28.944,7.247,6.139,5.072
483,0.908,34.152,4.905,27.039,28.951,7.41,6.26,5.193
484,0.905,34.21,4.905,27.068,28.962,7.411,6.384,5.316
485,0.902,34.038,4.897,27.039,28.944,7.289,6.222,5.154
486,0.918,34.161,4.913,27.029,28.944,7.369,6.18,5.112
487,0.912,34.297,4.897,27.049,28.948,7.411,6.261,5.234
488,0.922,34.423,4.893,27.068,28.962,7.493,6.302,5.438
489,0.909,33.868,4.897,27.039,28.951,7.331,6.18,5.155
490,0.915,33.996,4.893,27.029,28.944,7.248,6.139,5.153
491,0.912,34.113,4.889,27.049,28.948,7.45,6.179,5.234
492,0.918,33.884,4.885,27.077,28.958,7.534,6.464,5.357
493,0.899,33.968,4.881,27.03,28.941,7.372,6.182,5.155
494,0.902,34.074,4.866,27.01,28.941,7.33,6.057,5.153
495,0.918,34.19,4.877,27.039,28.944,7.289,6.137,5.234
496,0.915,34.038,4.897,27.049,28.958,7.491,6.301,5.316
497,0.902,34.123,4.877,27.03,28.944,7.331,6.18,5.154
498,0.902,34.248,4.873,27.029,28.941,7.207,6.057,5.071
499,0.918,34.355,4.881,27.049,28.948,7.328,6.178,5.233
500,0.922,33.896,4.905,27.087,28.962,7.492,6.301,5.397
501,0.902,34.006,4.905,27.04,28.948,7.29,6.14,5.155
502,0.899,34.113,4.893,27.02,28.937,7.369,6.057,5.112
503,0.912,34.2,4.901,27.048,28.951,7.452,6.178,5.234
504,0.922,34.096,4.901,27.068,28.955,7.452,6.261,5.194
505,0.915,34.181,4.878,27.039,28.944,7.371,6.099,5.072
506,0.912,34.287,4.885,27.029,28.944,7.289,6.138,5.193
507,0.931,34.365,4.877,27.058,28.951,7.491,6.219,5.275
508,0.941,34.145,4.834,27.068,28.948,7.453,6.22,5.195
509,0.922,34.22,4.857,27.039,28.944,7.371,6.098,5.112
510,0.909,34.326,4.869,27.029,28.944,7.289,6.097,5.152
511,0.925,34.365,4.893,27.039,28.951,7.369,6.219,5.193
512,0.928,34.097,4.897,27.068,28.948,7.37,6.18,5.194
513,0.925,34.191,4.881,27.02,28.944,7.248,6.098,5.153
514,0.912,34.259,4.905,27.039,28.944,7.328,6.097,5.193
515,0.928,34.403,4.905,27.049,28.951,7.37,6.138,5.194
516,0.928,34.462,4.885,27.049,28.951,7.33,6.057,5.194
517,0.915,34.539,4.87,27.01,28.944,7.329,5.975,5.072
518,0.915,34.646,4.865,27.048,28.948,7.37,6.015,5.193
519,0.922,34.234,4.877,27.039,28.955,7.37,6.178,5.275
520,0.915,34.326,4.881,27.049,28.955,7.37,6.057,5.195
521,0.912,34.442,4.881,27.03,28.941,7.208,5.975,5.031
522,0.915,34.53,4.87,27.039,28.944,7.287,6.055,5.151
523,0.931,34.473,4.877,27.049,28.948,7.369,6.056,5.234
524,0.938,34.616,4.885,27.058,28.948,7.289,6.015,5.153
525,0.925,34.723,4.897,27.03,28.944,7.207,5.974,5.153
526,0.922,34.811,4.893,27.049,28.948,7.287,5.974,5.153
527,0.931,34.668,4.881,27.058,28.948,7.207,6.055,5.234
528,0.925,34.8,4.901,27.039,28.948,7.165,5.975,5.194
529,0.922,34.907,4.909,27.01,28.944,7.165,5.974,5.153
530,0.931,34.966,4.893,27.029,28.944,7.206,6.055,5.153
531,0.935,34.928,4.905,27.049,28.948,7.165,6.056,5.234
532,0.918,35.052,4.885,27.049,28.955,7.206,6.056,5.153
533,0.918,35.169,4.881,27.039,28.948,7.084,6.015,5.112
534,0.925,35.208,4.885,27.049,28.944,7.083,5.974,5.193
535,0.931,35.247,4.885,27.039,28.955,7.123,6.015,5.194
536,0.925,35.362,4.877,27.029,28.948,7.083,6.015,5.194
537,0.931,35.459,4.889,27.029,28.941,7.042,5.974,5.072
538,0.944,35.767,4.885,27.039,28.948,7.082,5.974,5.152
539,0.945,35.243,4.897,27.058,28.951,7.042,6.015,5.193
540,0.945,35.343,4.874,27.049,28.951,7.042,5.934,5.234
541,0.948,35.45,4.893,27.049,28.955,6.96,6.014,5.194
542,0.941,35.518,4.905,27.03,28.951,6.96,5.974,5.112
543,0.948,35.653,4.897,27.058,28.955,6.96,5.974,5.193
544,0.941,35.76,4.897,27.039,28.955,6.96,5.974,5.194
545,0.932,35.847,4.889,27.039,28.944,6.96,6.015,5.234
546,0.938,35.781,4.889,27.029,28.948,6.878,5.893,5.194
547,0.935,35.905,4.897,27.077,28.948,6.877,5.892,5.194
548,0.948,36.031,4.866,27.049,28.948,6.877,5.973,5.234
549,0.938,36.08,4.889,27.049,28.951,6.837,6.015,5.153
550,0.948,35.821,4.905,27.039,28.944,6.796,5.934,5.153
551,0.958,35.972,4.893,27.049,28.951,6.836,5.892,5.234
552,0.945,36.07,4.885,27.049,28.948,6.837,5.973,5.153
553,0.938,36.138,4.901,27.039,28.955,6.796,5.974,5.234
554,0.935,36.263,4.889,27.029,28.951,6.795,5.933,5.113
555,0.951,36.399,4.893,27.039,28.944,6.836,5.892,5.112
556,0.938,36.486,4.881,27.029,28.955,6.796,5.892,5.112
557,0.932,36.525,4.877,27.029,28.951,6.877,5.933,5.112
558,0.931,36.334,4.889,27.039,28.944,6.877,5.974,5.193
559,0.935,36.486,4.877,27.039,28.948,6.918,5.933,5.153
560,0.922,36.573,4.885,27.049,28.948,6.837,5.892,5.193
561,0.928,36.574,4.893,27.039,28.951,6.837,5.973,5.194
562,0.928,36.593,4.885,27.049,28.944,6.877,5.893,5.072
563,0.938,36.757,4.897,27.068,28.951,6.796,5.892,5.152
564,0.935,36.825,4.916,27.039,28.951,6.755,5.892,5.153
565,0.935,36.845,4.913,27.058,28.955,6.957,6.014,5.234
566,0.931,36.836,4.901,27.03,28.948,6.838,5.893,5.153
567,0.935,36.96,4.905,27.049,28.951,6.837,5.933,5.153
568,0.945,37.058,4.901,27.049,28.948,6.837,5.892,5.193
569,0.945,36.848,4.905,27.058,28.955,6.877,6.054,5.234
570,0.945,36.932,4.881,27.039,28.944,6.796,5.893,5.153
571,0.954,37.067,4.889,27.049,28.944,6.795,5.811,5.112
572,0.938,37.145,4.873,27.049,28.951,6.836,5.891,5.193
573,0.932,36.935,4.881,27.058,28.955,6.837,6.014,5.275
574,0.935,37.067,4.877,27.039,28.944,6.714,5.893,5.073
575,0.941,37.164,4.897,27.029,28.948,6.713,5.851,5.111
576,0.948,37.232,4.897,27.039,28.951,6.754,5.932,5.112
577,0.945,37.147,4.885,27.049,28.948,6.836,5.974,5.193
578,0.941,37.28,4.901,27.039,28.937,6.796,5.893,5.072
579,0.948,37.406,4.885,27.029,28.944,6.714,5.892,5.03
580,0.948,37.455,4.877,27.029,28.958,6.713,5.933,5.192
581,0.945,37.273,4.869,27.039,28.955,6.754,6.014,5.275
582,0.945,37.387,4.877,27.029,28.944,6.714,5.852,5.113
583,0.948,37.493,4.889,27.029,28.951,6.754,5.973,5.112
584,0.945,37.514,4.889,27.058,28.948,6.836,6.015,5.152
585,0.951,37.322,4.901,27.068,28.951,6.837,6.015,5.315
586,0.945,37.416,4.897,27.03,28.948,6.674,5.934,5.154
587,0.948,37.532,4.893,27.049,28.944,6.753,5.811,5.153
588,0.945,37.974,4.893,27.039,28.951,6.836,5.972,5.153
589,0.951,37.499,4.913,27.077,28.955,6.918,6.055,5.315
590,0.945,37.6,4.889,27.03,28.948,6.837,5.893,5.114
591,0.941,37.687,4.885,27.039,28.948,6.714,5.892,5.03
592,0.938,37.362,4.881,27.049,28.948,6.754,5.973,5.111
593,0.948,37.416,4.889,27.068,28.958,6.795,6.055,5.234
594,0.945,37.494,4.885,27.03,28.948,6.755,5.893,5.072
595,0.945,37.6,4.877,27.029,28.937,6.632,5.811,4.989
596,0.948,37.361,4.881,27.039,28.955,6.712,5.932,5.11
597,0.951,37.512,4.912,27.058,28.958,6.794,6.055,5.274
598,0.935,37.6,4.897,27.03,28.944,6.633,5.853,5.073
599,0.938,37.678,4.885,27.029,28.944,6.631,5.851,4.989
600,0.958,37.496,4.905,27.039,28.955,6.712,5.973,5.151
601,0.971,37.677,4.924,27.077,28.962,6.754,6.015,5.193
602,0.932,37.726,4.889,27.02,28.948,6.632,5.852,5.112
603,0.948,37.775,4.87,27.02,28.934,6.428,5.851,5.071
604,0.951,37.488,4.873,27.048,28.951,6.588,5.932,5.193
605,0.961,37.648,4.885,27.077,28.958,6.671,6.014,5.234
606,0.935,37.736,4.885,27.03,28.941,6.509,5.893,5.072
607,0.931,37.765,4.897,27.02,28.941,6.467,5.892,5.111
608,0.954,37.43,4.913,27.048,28.951,6.629,5.973,5.152
609,0.958,37.57,4.905,27.068,28.951,6.631,5.974,5.193
610,0.941,37.639,4.885,27.03,28.944,6.55,5.852,5.031
611,0.941,37.659,4.873,27.02,28.948,6.549,5.973,5.151
612,0.941,37.458,4.889,27.048,28.955,6.63,6.015,5.153
613,0.948,37.59,4.885,27.03,28.944,6.55,5.974,5.193
614,0.945,37.658,4.877,27.01,28.937,6.549,5.852,5.072
615,0.941,37.63,4.881,27.029,28.948,6.671,5.932,5.07
616,0.948,37.572,4.901,27.049,28.951,6.713,5.974,5.111
617,0.941,37.687,4.897,27.03,28.951,6.794,5.974,5.112
618,0.935,37.774,4.885,27.01,28.944,6.795,5.811,5.03
619,0.925,37.411,4.897,27.029,28.951,6.917,5.972,5.07
620,0.938,37.513,4.901,27.049,28.955,7.0,6.055,5.274
621,0.922,37.638,4.889,27.039,28.948,7.001,5.934,5.113
622,0.935,37.688,4.881,27.029,28.944,6.879,5.852,5.071
623,0.938,37.448,4.893,27.039,28.951,7.0,5.973,5.111
624,0.915,37.599,4.885,27.049,28.955,7.082,5.974,5.193
625,0.922,37.716,4.885,27.039,28.951,7.042,5.974,5.234
626,0.918,37.756,4.889,27.029,28.944,7.082,5.893,5.153
627,0.922,37.411,4.881,27.029,28.951,7.042,6.014,5.153
628,0.915,37.541,4.912,27.068,28.955,7.082,6.015,5.153
629,0.912,37.639,4.901,27.049,28.951,7.123,6.056,5.153
630,0.908,37.697,4.905,27.049,28.951,7.083,6.097,5.193
631,0.905,37.458,4.897,27.02,28.948,7.083,5.975,5.112
632,0.908,37.609,4.909,27.048,28.951,7.042,5.974,5.152
633,0.895,37.707,4.897,27.03,28.951,7.042,6.015,5.071
634,0.895,37.717,4.897,27.049,28.951,7.123,6.137,5.152
635,0.895,37.487,4.881,27.02,28.948,7.083,6.057,5.031
636,0.895,37.619,4.893,27.048,28.951,7.042,6.056,5.03
637,0.899,37.716,4.881,27.03,28.951,7.042,6.097,5.111
638,0.889,38.129,4.877,27.049,28.951,7.082,6.097,5.234
639,0.882,37.549,4.881,27.049,28.941,6.92,6.016,5.032
640,0.885,37.658,4.893,27.03,28.944,6.959,6.056,5.03
641,0.882,37.755,4.909,27.058,28.951,6.919,6.137,5.151
642,0.889,37.526,4.901,27.049,28.958,7.0,6.219,5.234
643,0.876,37.543,4.889,27.03,28.948,6.919,6.058,5.113
644,0.872,37.667,4.881,27.029,28.944,6.837,6.015,5.03
645,0.879,37.745,4.893,27.058,28.944,6.958,6.137,5.151
646,0.879,37.449,4.889,27.068,28.955,7.0,6.219,5.275
647,0.876,37.551,4.873,27.049,28.944,6.838,6.098,5.154
648,0.866,37.668,4.873,27.03,28.944,6.755,6.016,5.071
649,0.866,37.745,4.889,27.039,28.948,6.876,6.137,5.111
650,0.872,37.449,4.881,27.058,28.958,6.877,6.26,5.274
651,0.853,37.561,4.885,27.03,28.944,6.796,6.099,5.032
652,0.853,37.648,4.893,27.02,28.944,6.795,6.097,4.989
653,0.856,37.736,4.893,27.029,28.948,6.917,6.138,5.11
654,0.846,37.545,4.901,27.068,28.958,7.041,6.219,5.234
655,0.843,37.658,4.893,27.03,28.944,7.042,6.139,5.072
656,0.843,37.755,4.874,27.01,28.941,6.96,6.057,4.989
657,0.846,37.794,4.885,27.02,28.951,7.122,6.178,5.11
658,0.843,37.67,4.881,27.068,28.958,7.246,6.261,5.234
659,0.839,37.765,4.889,27.02,28.948,7.084,6.058,5.072
660,0.833,37.852,4.87,27.02,28.944,7.083,6.056,5.03
661,0.836,37.891,4.869,27.029,28.951,7.205,6.137,5.151
662,0.849,37.412,4.885,27.058,28.958,7.328,6.301,5.234
663,0.833,37.484,4.885,27.02,28.948,7.167,6.058,5.032
664,0.839,37.6,4.893,27.029,28.944,7.165,6.056,5.07
665,0.849,37.697,4.905,27.049,28.951,7.287,6.219,5.193
666,0.849,37.698,4.901,27.077,28.958,7.41,6.302,5.316
667,0.833,37.765,4.893,27.03,28.944,7.289,6.058,5.073
668,0.83,37.861,4.862,27.02,28.937,7.166,6.015,5.03
669,0.836,37.383,4.877,27.048,28.951,7.328,6.218,5.192
670,0.849,37.484,4.905,27.077,28.958,7.41,6.261,5.234
671,0.82,37.571,4.874,27.039,28.941,7.289,6.099,4.991
672,0.823,37.639,4.873,27.01,28.937,7.207,6.016,5.029
673,0.826,37.505,4.889,27.029,28.951,7.369,6.096,5.111
674,0.839,37.658,4.909,27.068,28.958,7.452,6.26,5.234
675,0.833,37.765,4.889,27.03,28.948,7.29,6.18,5.032
676,0.82,37.794,4.897,27.01,28.941,7.288,5.935,4.989
677,0.833,37.689,4.897,27.039,28.951,7.288,6.136,5.11
678,0.826,37.822,4.901,27.077,28.962,7.369,6.219,5.234
679,0.82,37.91,4.889,27.03,28.944,7.289,6.058,5.072
680,0.82,37.959,4.885,27.01,28.944,7.166,6.015,5.03
681,0.833,37.346,4.885,27.029,28.948,7.287,6.096,5.111
682,0.836,37.512,4.885,27.049,28.962,7.369,6.219,5.234
683,0.826,37.59,4.873,27.03,28.944,7.208,6.017,5.032
684,0.82,37.62,4.869,27.02,28.937,7.084,5.934,4.907
685,0.826,37.601,4.889,27.039,28.955,7.205,6.136,5.15
686,0.833,37.754,4.905,27.068,28.958,7.287,6.219,5.234
687,0.823,37.813,4.885,27.03,28.944,7.044,6.058,5.113
688,0.817,38.14,4.885,27.01,28.944,6.92,5.934,4.989
689,0.826,37.53,4.897,27.048,28.951,7.122,6.177,5.11
690,0.839,37.677,4.916,27.068,28.958,7.124,6.179,5.193
691,0.813,37.736,4.882,27.02,28.941,6.921,5.976,5.031
692,0.81,37.516,4.877,27.01,28.941,6.837,5.974,5.03
693,0.829,37.581,4.877,27.039,28.948,6.958,6.137,5.151
694,0.836,37.725,4.909,27.049,28.962,7.0,6.301,5.193
695,0.839,37.775,4.893,27.02,28.951,6.838,6.099,5.031
696,0.82,37.622,4.893,26.991,28.934,6.755,6.056,4.989
697,0.83,37.793,4.897,27.048,28.948,6.836,6.097,5.151
698,0.839,37.938,4.905,27.068,28.962,6.958,6.178,5.153
699,0.823,37.969,4.889,27.02,28.944,6.756,6.057,4.99
700,0.83,37.518,4.885,27.029,28.944,6.714,6.097,5.11
701,0.836,37.715,4.905,27.049,28.958,6.754,6.178,5.112
702,0.839,37.823,4.889,27.049,28.951,6.714,6.139,5.071
703,0.826,37.872,4.873,27.039,28.944,6.672,6.138,4.989
704,0.836,37.517,4.889,27.039,28.955,6.713,6.179,5.07
705,0.839,37.677,4.893,27.049,28.958,6.754,6.261,5.111
706,0.843,37.784,4.893,27.049,28.948,6.714,6.18,5.112
707,0.839,37.814,4.909,27.03,28.941,6.632,6.139,5.03
708,0.839,37.507,4.897,27.029,28.948,6.631,6.179,5.07
709,0.839,37.648,4.905,27.049,28.951,6.753,6.301,5.111
710,0.843,37.764,4.889,27.03,28.951,6.632,6.262,5.112
711,0.826,37.746,4.893,27.02,28.937,6.631,6.139,5.03
712,0.823,37.535,4.877,27.029,28.944,6.672,6.301,5.07
713,0.83,37.658,4.893,27.039,28.955,6.672,6.302,5.233
714,0.83,37.755,4.897,27.02,28.951,6.672,6.262,5.032
715,0.82,37.708,4.881,27.029,28.937,6.591,6.302,5.03
716,0.833,37.602,4.877,27.02,28.948,6.59,6.221,5.03
717,0.826,37.726,4.897,27.048,28.948,6.631,6.383,5.03
718,0.823,37.794,4.909,27.02,28.955,6.631,6.344,5.07
719,0.833,37.334,4.878,27.029,28.944,6.55,6.303,5.07
720,0.833,37.435,4.893,27.039,28.948,6.63,6.302,5.111
721,0.836,37.571,4.893,27.058,28.955,6.672,6.384,5.112
722,0.826,37.639,4.893,27.03,28.948,6.631,6.263,5.071
723,0.82,37.237,4.885,27.02,28.944,6.631,6.302,5.111
724,0.833,37.386,4.862,27.048,28.948,6.631,6.302,5.071
725,0.843,37.512,4.885,27.058,28.955,6.712,6.343,5.152
726,0.839,37.581,4.881,27.049,28.948,6.754,6.384,5.193
727,0.833,37.179,4.889,27.03,28.955,6.673,6.303,5.194
728,0.839,37.29,4.881,27.039,28.944,6.713,6.302,5.153
729,0.839,37.406,4.897,27.049,28.948,6.754,6.302,5.071
730,0.839,37.484,4.889,27.039,28.955,6.714,6.302,5.07
731,0.843,37.341,4.881,27.049,28.951,6.835,6.343,5.152
732,0.839,37.483,4.885,27.039,28.944,6.633,6.262,5.071
733,0.833,37.581,4.877,27.029,28.948,6.631,6.221,5.07
734,0.836,37.62,4.901,27.039,28.951,6.712,6.342,5.193
735,0.839,37.256,4.878,27.039,28.955,6.794,6.384,5.153
736,0.836,37.377,4.889,27.029,28.944,6.673,6.263,4.99
737,0.836,37.464,4.881,27.02,28.944,6.631,6.221,4.948
738,0.836,37.571,4.905,27.029,28.948,6.794,6.342,5.069
739,0.846,37.073,4.909,27.058,28.962,6.917,6.547,5.193
740,0.849,37.193,4.913,27.03,28.948,6.756,6.305,5.072
741,0.83,37.28,4.893,27.01,28.944,6.673,6.262,4.989
742,0.846,37.061,4.885,27.039,28.948,6.835,6.505,5.11
743,0.856,37.097,4.889,27.068,28.958,6.958,6.589,5.152
744,0.843,37.174,4.866,27.02,28.944,6.797,6.305,5.071
745,0.849,37.261,4.873,27.029,28.937,6.755,6.302,4.989
746,0.859,36.907,4.881,27.049,28.951,6.795,6.425,5.07
747,0.862,37.076,4.901,27.068,28.955,6.917,6.548,5.233
748,0.846,37.145,4.897,27.02,28.941,6.715,6.346,5.032
749,0.836,37.213,4.885,27.02,28.941,6.794,6.303,4.989
750,0.856,36.983,4.897,27.039,28.951,6.836,6.425,5.07
751,0.843,37.154,4.924,27.049,28.955,6.877,6.426,5.152
752,0.843,37.222,4.897,27.02,28.941,6.796,6.344,4.99
753,0.833,37.262,4.885,27.02,28.944,6.836,6.343,5.07
754,0.852,37.041,4.901,27.039,28.955,6.877,6.466,5.111
755,0.849,37.183,4.909,27.049,28.951,6.796,6.386,5.03
756,0.843,37.252,4.878,27.01,28.948,6.795,6.222,4.989
757,0.846,37.31,4.873,27.029,28.948,6.836,6.342,5.029
758,0.84,36.793,4.881,27.039,28.951,6.877,6.425,5.151
759,0.849,36.893,4.893,27.029,28.948,6.796,6.344,5.071
760,0.84,37.009,4.881,27.01,28.944,6.795,6.303,5.07
761,0.846,37.039,4.897,27.039,28.948,6.795,6.384,5.03
762,0.853,36.886,4.897,27.039,28.948,6.877,6.466,5.151
763,0.853,37.018,4.909,27.029,28.948,6.796,6.426,5.071
764,0.853,37.116,4.87,27.01,28.944,6.795,6.344,5.07
765,0.846,37.021,4.897,27.039,28.944,6.836,6.343,5.07
766,0.859,36.799,4.909,27.049,28.951,6.958,6.425,5.193
767,0.859,36.922,4.885,27.049,28.951,6.878,6.344,5.072
768,0.836,37.028,4.885,27.03,28.944,6.877,6.303,5.152
769,0.843,36.876,4.877,27.039,28.944,6.918,6.302,5.031
770,0.846,36.98,4.862,27.049,28.944,6.959,6.384,5.111
771,0.836,37.115,4.877,27.02,28.955,6.96,6.344,5.071
772,0.833,37.184,4.885,27.029,28.948,6.919,6.262,5.03
773,0.836,36.686,4.909,27.029,28.944,6.919,6.302,5.07
774,0.843,36.834,4.897,27.049,28.951,6.959,6.302,4.989
775,0.839,36.951,4.881,27.039,28.948,7.0,6.343,5.07
776,0.839,37.019,4.885,27.01,28.951,6.919,6.262,5.07
777,0.839,36.588,4.885,27.029,28.951,6.919,6.262,5.03
778,0.836,36.747,4.893,27.039,28.948,6.959,6.302,5.03
779,0.839,36.835,4.881,27.049,28.948,7.0,6.302,5.111
780,0.836,36.903,4.877,27.039,28.948,7.001,6.262,5.071
781,0.833,36.808,4.862,27.039,28.951,6.96,6.18,5.07
782,0.846,36.951,4.885,27.049,28.948,6.96,6.22,5.07
783,0.853,37.038,4.885,27.03,28.955,6.919,6.302,5.111
784,0.846,37.087,4.901,27.039,28.951,7.0,6.384,5.152
785,0.843,36.666,4.893,27.029,28.944,6.96,6.222,5.031
786,0.839,36.815,4.877,27.049,28.941,6.919,6.261,5.111
787,0.839,36.912,4.889,27.039,28.951,6.959,6.221,5.112
788,0.833,36.942,4.889,27.039,28.951,6.96,6.261,5.152
789,0.83,36.76,4.897,27.039,28.948,6.96,6.221,4.99
790,0.83,36.902,4.889,27.029,28.944,6.96,6.18,4.988
791,0.833,37.009,4.897,27.049,28.951,7.0,6.179,5.11
792,0.826,36.818,4.885,27.049,28.951,7.082,6.301,5.193
793,0.82,36.816,4.866,27.02,28.941,7.002,6.14,5.072
794,0.83,36.941,4.877,27.029,28.944,6.96,6.098,4.989
795,0.823,37.029,4.897,27.029,28.951,7.041,6.178,5.11
796,0.82,36.732,4.901,27.058,28.955,7.204,6.301,5.274
797,0.826,36.863,4.878,27.03,28.948,7.084,6.099,4.991
798,0.82,36.942,4.909,27.01,28.937,7.042,6.056,4.866
799,0.82,37.048,4.913,27.029,28.951,7.123,6.178,5.068
800,0.839,36.761,4.905,27.077,28.962,7.287,6.301,5.314
801,0.836,36.883,4.87,27.039,28.948,7.085,6.18,5.032
802,0.826,36.97,4.869,27.01,28.934,7.002,6.017,5.03
803,0.839,37.077,4.838,27.058,28.958,7.204,6.218,5.03
804,0.843,36.79,4.885,27.068,28.962,7.328,6.261,5.192
805,0.826,36.874,4.885,27.03,28.944,7.085,6.099,4.99
806,0.83,36.98,4.877,27.01,28.941,7.042,6.056,5.029
807,0.836,37.058,4.893,27.048,28.951,7.123,6.219,5.192
808,0.849,36.943,4.889,27.049,28.955,7.287,6.261,5.194
809,0.83,37.009,4.901,27.01,28.941,7.044,6.099,5.031
810,0.813,37.096,4.885,27.01,28.944,7.123,6.097,5.03
811,0.826,37.174,4.909,27.039,28.958,7.165,6.219,5.111
812,0.836,36.839,4.917,27.058,28.962,7.165,6.18,5.112
813,0.81,36.932,4.893,27.01,28.944,7.043,6.139,4.989
814,0.803,37.029,4.874,27.029,28.944,7.164,6.179,5.11
815,0.826,37.097,4.885,27.049,28.948,7.206,6.139,5.071
816,0.817,36.944,4.885,27.039,28.944,7.165,6.179,5.03
817,0.81,37.048,4.881,27.01,28.941,7.084,6.098,4.989
818,0.807,37.145,4.866,27.048,28.951,7.245,6.178,5.029
819,0.826,36.829,4.897,27.039,28.951,7.288,6.179,5.07
820,0.83,36.903,4.909,27.029,28.951,7.329,6.179,5.07
821,0.82,37.009,4.881,27.029,28.941,7.289,6.098,5.03
822,0.826,37.106,4.893,27.02,28.951,7.451,6.097,5.03
823,0.82,36.791,4.893,27.039,28.958,7.493,6.138,5.151
824,0.81,36.922,4.893,27.049,28.951,7.453,6.138,5.071
825,0.803,37.038,4.823,27.039,28.948,7.412,6.138,5.07
826,0.816,37.106,4.885,27.049,28.951,7.452,6.138,5.03
827,0.826,36.877,4.881,27.039,28.948,7.493,6.098,5.07
828,0.82,36.999,4.897,27.058,28.948,7.412,6.097,5.111
829,0.82,37.096,4.877,27.03,28.951,7.452,6.097,5.112
830,0.82,37.184,4.877,27.029,28.944,7.452,6.097,5.03
831,0.83,36.858,4.901,27.049,28.951,7.452,6.056,5.111
832,0.82,36.989,4.889,27.03,28.944,7.493,6.137,5.071
833,0.813,37.096,4.885,27.039,28.948,7.534,6.138,5.03
834,0.813,37.145,4.885,27.02,28.944,7.453,6.138,5.03
835,0.813,36.8,4.873,27.039,28.948,7.412,6.138,5.07
836,0.816,36.941,4.862,27.068,28.951,7.452,6.138,5.03
837,0.81,37.009,4.881,27.03,28.951,7.412,6.098,5.07
838,0.813,37.02,4.901,27.029,28.944,7.411,6.016,5.07
839,0.813,36.828,4.881,27.039,28.948,7.493,6.056,5.111
840,0.816,36.941,4.889,27.02,28.948,7.412,6.056,5.152
841,0.816,37.038,4.877,27.029,28.951,7.452,6.219,5.112
842,0.816,36.799,4.901,27.02,28.951,7.412,6.058,5.071
843,0.826,36.797,4.897,27.039,28.955,7.411,6.178,5.07
844,0.826,36.941,4.877,27.049,28.951,7.371,6.139,5.111
845,0.823,37.0,4.893,27.049,28.948,7.492,6.26,5.193
846,0.833,36.828,4.901,27.03,28.948,7.453,6.099,5.112
847,0.836,36.979,4.893,27.039,28.944,7.412,6.138,5.071
848,0.82,37.096,4.874,27.049,28.944,7.452,6.179,5.07
849,0.83,37.164,4.885,27.049,28.955,7.493,6.179,5.152
850,0.82,36.59,4.877,27.02,28.944,7.412,6.139,4.99
851,0.82,36.737,4.893,27.029,28.944,7.411,6.098,5.029
852,0.826,36.864,4.885,27.049,28.948,7.493,6.138,5.07
853,0.823,36.932,4.916,27.058,28.955,7.453,6.219,5.193
854,0.817,36.837,4.905,27.03,28.941,7.412,6.058,5.072
855,0.81,36.97,4.881,27.01,28.941,7.411,6.056,4.908
856,0.82,37.096,4.885,27.029,28.951,7.493,6.137,5.028
857,0.817,37.155,4.889,27.039,28.958,7.494,6.26,5.192
858,0.816,36.657,4.877,27.029,28.941,7.453,6.139,4.99
859,0.813,36.805,4.877,27.029,28.937,7.371,6.057,4.988
860,0.82,36.912,4.877,27.049,28.951,7.452,6.178,5.11
861,0.813,36.942,4.893,27.058,28.958,7.534,6.301,5.193
862,0.82,36.731,4.874,27.03,28.944,7.372,6.099,4.99
863,0.82,36.854,4.893,27.02,28.941,7.37,6.097,4.948
864,0.817,36.961,4.897,27.048,28.941,7.452,6.178,5.11
865,0.82,37.019,4.885,27.058,28.958,7.493,6.22,5.234
866,0.82,36.761,4.881,27.02,28.944,7.412,6.139,4.991
867,0.82,36.902,4.873,27.048,28.948,7.33,6.138,5.029
868,0.82,36.99,4.877,27.058,28.951,7.329,6.219,5.151
869,0.83,36.674,4.893,27.049,28.955,7.41,6.22,5.193
870,0.826,36.748,4.862,27.039,28.944,7.289,6.139,5.072
871,0.817,36.873,4.869,27.029,28.948,7.329,6.057,4.989
872,0.816,36.951,4.877,27.039,28.944,7.41,6.137,5.029
873,0.813,36.559,4.877,27.049,28.951,7.371,6.138,5.151
874,0.807,36.68,4.877,27.02,28.948,7.289,6.098,4.99
875,0.816,36.796,4.889,27.029,28.944,7.288,6.097,4.988
876,0.813,36.874,4.897,27.039,28.951,7.288,6.178,5.11
877,0.82,36.625,4.901,27.049,28.955,7.369,6.179,5.152
878,0.81,36.757,4.897,27.03,28.944,7.208,6.098,4.99
879,0.816,36.883,4.893,27.029,28.944,7.084,6.097,4.948
880,0.81,36.942,4.889,27.049,28.951,7.245,6.138,5.069
881,0.823,36.616,4.881,27.058,28.958,7.328,6.26,5.233
882,0.813,36.718,4.885,27.02,28.944,7.207,6.099,5.032
883,0.807,36.825,4.893,27.029,28.944,7.247,6.097,4.989
884,0.82,36.893,4.897,27.049,28.951,7.288,6.138,5.07
885,0.82,36.635,4.901,27.068,28.958,7.532,6.26,5.193
886,0.81,36.757,4.917,27.039,28.944,7.25,6.099,5.031
887,0.813,36.845,4.889,27.029,28.944,7.328,6.056,4.989
888,0.82,36.874,4.893,27.068,28.951,7.451,6.056,5.11
889,0.813,36.558,4.889,27.068,28.962,7.615,6.219,5.193
890,0.807,36.641,4.873,27.02,28.948,7.413,6.058,5.031
891,0.816,36.738,4.869,27.01,28.941,7.411,6.015,4.989
892,0.82,36.509,4.885,27.039,28.958,7.533,6.137,5.151
893,0.82,36.478,4.885,27.068,28.962,7.616,6.179,5.193
894,0.813,36.573,4.87,27.03,28.944,7.454,6.057,4.99
895,0.81,36.67,4.869,27.02,28.937,7.412,6.015,4.907
896,0.813,36.441,4.885,27.039,28.955,7.493,6.137,4.987
897,0.82,36.582,4.909,27.049,28.962,7.738,6.179,5.11
898,0.807,36.68,4.893,27.03,28.944,7.577,5.976,4.989
899,0.81,36.738,4.881,27.02,28.93,7.454,5.933,4.948
900,0.81,36.355,4.893,27.048,28.948,7.615,6.055,5.029
901,0.826,36.505,4.909,27.049,28.955,7.657,6.137,5.151
902,0.82,36.583,4.893,27.01,28.944,7.495,6.098,4.99
903,0.803,36.632,4.874,27.0,28.937,7.453,6.056,4.988
904,0.82,36.45,4.873,27.048,28.955,7.615,6.097,5.11
905,0.826,36.592,4.85,27.058,28.955,7.535,6.056,5.112
906,0.813,36.709,4.861,27.02,28.944,7.412,6.015,4.989
907,0.813,36.719,4.893,27.01,28.948,7.452,6.056,5.07
908,0.82,36.374,4.897,27.039,28.951,7.493,6.097,5.152
909,0.82,36.515,4.901,27.029,28.948,7.494,5.975,5.031
910,0.81,36.593,4.897,27.02,28.941,7.331,6.015,4.948
911,0.81,36.651,4.905,27.029,28.944,7.37,6.015,4.947
912,0.807,36.239,4.897,27.049,28.951,7.452,6.137,5.15
913,0.8,36.369,4.885,27.039,28.948,7.371,6.098,5.031
914,0.8,36.457,4.885,27.01,28.944,7.167,6.016,4.989
915,0.81,36.631,4.893,27.029,28.944,7.368,5.974,5.029
916,0.82,36.421,4.881,27.049,28.958,7.37,6.055,5.03
917,0.803,36.553,4.885,27.03,28.944,7.289,6.056,4.948
918,0.797,36.632,4.866,27.01,28.941,7.288,5.975,5.069
919,0.807,36.373,4.885,27.02,28.944,7.207,6.055,5.03
920,0.816,36.486,4.889,27.039,28.951,7.328,6.137,5.07
921,0.803,36.593,4.881,27.039,28.948,7.207,6.057,5.03
922,0.813,36.67,4.897,27.029,28.941,7.165,6.056,5.03
923,0.823,36.077,4.889,27.029,28.948,7.165,6.097,5.07
924,0.82,36.224,4.893,27.049,28.955,7.206,6.056,5.07
925,0.82,36.35,4.877,27.049,28.944,7.247,6.097,5.111
926,0.82,36.409,4.877,27.03,28.948,7.206,6.097,5.071
927,0.813,36.218,4.881,27.087,28.944,7.165,6.097,5.111
928,0.813,36.34,4.881,27.03,28.944,7.206,6.097,5.03
929,0.823,36.457,4.881,27.039,28.948,7.165,6.097,5.07
930,0.81,36.525,4.885,27.029,28.955,7.206,6.138,5.07
931,0.82,35.97,4.885,27.029,28.948,7.165,6.057,5.03
932,0.813,36.127,4.889,27.049,28.944,7.165,6.056,5.03
933,0.81,36.234,4.901,27.03,28.951,7.165,6.097,5.07
934,0.803,36.283,4.893,27.029,28.951,7.124,6.138,5.111
935,0.8,36.207,4.881,27.02,28.944,7.124,6.016,4.989
936,0.81,36.34,4.893,27.029,28.948,7.083,6.015,4.948
937,0.813,36.447,4.893,27.039,28.951,7.123,6.096,5.069
938,0.807,36.467,4.897,27.039,28.955,7.165,6.138,5.152
939,0.82,36.142,4.877,27.039,28.944,7.084,6.016,4.99
940,0.813,36.282,4.893,27.029,28.944,7.083,5.974,4.988
941,0.826,36.389,4.893,27.02,28.948,7.123,6.015,5.07
942,0.83,36.016,4.905,27.058,28.958,7.246,6.178,5.193
943,0.817,35.907,4.885,27.039,28.944,7.044,6.057,5.031
944,0.833,36.04,4.905,27.02,28.944,6.92,5.975,4.989
945,0.833,36.128,4.901,27.048,28.948,7.041,6.015,5.11
946,0.839,36.177,4.893,27.058,28.955,7.082,6.137,5.193
947,0.826,36.283,4.885,27.02,28.948,6.961,5.976,5.072
948,0.826,36.418,4.889,27.029,28.944,6.919,5.974,4.989
949,0.823,36.496,4.897,27.039,28.955,6.919,5.974,5.07
950,0.826,35.816,4.877,27.049,28.958,7.0,6.137,5.233
951,0.823,35.934,4.877,27.02,28.944,6.879,5.976,4.95
952,0.82,36.031,4.862,27.02,28.941,6.796,5.893,4.907
953,0.82,36.147,4.885,27.039,28.948,6.877,6.014,5.069
954,0.823,36.11,4.901,27.058,28.958,7.0,6.137,5.193
955,0.81,36.244,4.901,27.03,28.941,6.797,5.976,5.031
956,0.81,36.35,4.889,27.01,28.944,6.795,5.974,4.948
957,0.81,36.409,4.897,27.029,28.955,6.836,6.015,5.069
958,0.826,35.959,4.885,27.029,28.955,6.958,6.137,5.152
959,0.823,36.089,4.893,27.029,28.944,6.756,5.976,5.031
960,0.826,36.215,4.893,27.01,28.944,6.795,5.974,4.989
961,0.83,36.235,4.897,27.029,28.948,6.836,6.055,5.07
962,0.826,36.015,4.897,27.049,28.951,6.877,6.097,5.193
963,0.833,36.108,4.87,27.03,28.941,6.674,5.975,5.031
964,0.839,36.244,4.877,27.029,28.944,6.631,5.974,5.07
965,0.83,36.408,4.893,27.049,28.944,6.712,6.015,5.152
966,0.836,35.949,4.897,27.058,28.955,6.713,6.137,5.193
967,0.839,36.06,4.877,27.049,28.944,6.591,5.935,5.072
968,0.852,36.176,4.877,27.02,28.937,6.631,5.892,4.989
969,0.862,35.717,4.893,27.029,28.951,6.712,6.054,5.029
970,0.866,35.789,4.893,27.039,28.958,6.713,6.137,5.151
971,0.853,35.905,4.881,27.029,28.941,6.672,6.016,5.071
972,0.859,35.992,4.881,27.029,28.944,6.55,5.934,4.948
973,0.856,35.964,4.901,27.039,28.951,6.63,6.014,5.069
974,0.869,36.117,4.878,27.058,28.958,6.712,6.096,5.152
975,0.872,36.215,4.858,27.03,28.944,6.591,6.016,5.031
976,0.872,36.293,4.885,27.029,28.944,6.549,5.974,4.989
977,0.879,35.756,4.877,27.039,28.944,6.63,5.974,5.07
978,0.879,35.924,4.901,27.049,28.955,6.753,6.137,5.152
979,0.879,36.012,4.885,27.03,28.948,6.632,6.016,5.031
980,0.882,36.051,4.893,27.029,28.944,6.55,5.934,4.989
981,0.892,35.936,4.901,27.039,28.948,6.671,5.933,5.07
982,0.915,36.098,4.901,27.068,28.958,6.794,6.096,5.193
983,0.915,36.186,4.885,27.03,28.948,6.633,5.975,5.031
984,0.922,36.235,4.877,27.01,28.941,6.55,5.974,4.989
985,0.925,35.775,4.877,27.048,28.951,6.712,6.055,5.11
986,0.938,35.924,4.873,27.077,28.962,6.754,6.178,5.193
987,0.932,36.012,4.877,27.039,28.944,6.673,5.935,5.072
988,0.925,36.003,4.877,27.01,28.937,6.591,5.852,5.03
989,0.925,35.715,4.893,27.048,28.955,6.671,6.013,5.111
990,0.931,35.866,4.885,27.058,28.958,6.794,6.056,5.274
991,0.935,35.925,4.897,27.03,28.948,6.714,5.893,5.073
992,0.938,35.868,4.881,27.02,28.937,6.672,5.811,4.989
993,0.935,35.877,4.873,27.029,28.948,6.794,5.972,5.07
994,0.935,36.021,4.885,27.049,28.962,6.877,6.096,5.233
995,0.931,36.108,4.877,27.01,28.948,6.674,5.894,4.991
996,0.938,35.62,4.881,27.0,28.937,6.672,5.851,4.948
997,0.951,35.73,4.893,27.029,28.951,6.794,5.973,5.069
998,0.967,35.875,4.897,27.049,28.955,6.958,6.015,5.152
999,0.958,35.925,4.885,27.02,28.948,6.797,5.893,5.031
1000,0.958,35.714,4.885,27.01,28.937,6.714,5.811,4.948
1001,0.974,35.866,4.893,27.039,28.951,6.876,5.972,5.11
1002,0.974,36.011,4.92,27.068,28.958,6.877,5.974,5.071
1003,0.961,36.051,4.893,27.011,28.937,6.755,5.852,4.989
1004,0.948,35.658,4.881,27.02,28.944,6.795,5.932,5.029
1005,0.961,35.855,4.893,27.048,28.951,6.836,5.974,5.151
1006,0.945,35.944,4.897,27.039,28.948,6.755,5.893,5.112
1007,0.941,35.983,4.893,27.029,28.937,6.714,5.851,5.03
1008,0.948,35.59,4.885,27.029,28.948,6.754,5.891,4.989
1009,0.951,35.74,4.889,27.049,28.955,6.876,5.973,5.151
1010,0.948,35.828,4.893,27.039,28.944,6.877,5.893,5.071
1011,0.951,35.848,4.881,27.01,28.944,6.674,5.851,5.07
1012,0.958,35.704,4.881,27.02,28.944,6.713,5.891,5.07
1013,0.971,35.827,4.924,27.029,28.951,6.794,5.973,5.111
1014,0.968,35.934,4.897,27.049,28.944,6.755,5.933,5.112
1015,0.961,36.175,4.897,27.02,28.937,6.632,5.811,4.949
1016,0.964,35.64,4.897,27.02,28.948,6.712,5.891,5.069
1017,0.958,35.779,4.889,27.029,28.955,6.794,5.973,5.03
1018,0.964,35.876,4.873,27.029,28.944,6.755,5.933,5.03
1019,0.955,35.551,4.866,27.039,28.948,6.673,5.892,5.03
1020,0.954,35.634,4.885,27.039,28.948,6.672,5.892,5.111
1021,0.945,35.779,4.877,27.049,28.951,6.753,5.933,5.071
1022,0.948,35.866,4.881,27.039,28.948,6.714,5.974,5.03
1023,0.948,35.464,4.87,27.02,28.944,6.672,5.893,5.03
1024,0.948,35.614,4.897,27.029,28.951,6.631,5.973,5.07
1025,0.941,35.74,4.893,27.058,28.955,6.712,6.055,5.111
1026,0.928,35.818,4.897,27.049,28.955,6.754,6.015,5.152
1027,0.928,35.685,4.897,27.039,28.951,6.632,6.096,5.153
1028,0.912,35.837,4.901,27.049,28.944,6.672,6.056,5.153
1029,0.899,35.944,4.897,27.039,28.948,6.631,6.015,4.99
1030,0.882,36.031,4.881,27.039,28.951,6.672,6.056,5.151
1031,0.879,35.456,4.893,27.039,28.958,6.713,6.137,5.153
1032,0.846,35.585,4.87,27.039,28.951,6.632,6.057,4.99
1033,0.849,35.701,4.877,27.01,28.944,6.59,6.015,5.029
1034,0.836,35.77,4.889,27.039,28.948,6.671,6.137,5.07
1035,0.836,35.502,4.893,27.058,28.958,6.835,6.219,5.152
1036,0.817,35.614,4.881,27.03,28.944,6.633,5.976,4.949
1037,0.823,35.721,4.881,27.02,28.937,6.672,5.974,4.825
1038,0.82,35.76,4.893,27.039,28.951,6.794,6.096,5.027
1039,0.826,35.454,4.885,27.077,28.958,6.958,6.138,5.233
1040,0.81,35.547,4.873,27.02,28.944,6.838,5.976,4.991
1041,0.803,35.643,4.869,27.001,28.941,6.796,5.893,4.948
1042,0.82,35.644,4.885,27.039,28.948,6.999,6.054,5.069
1043,0.83,35.654,4.881,27.058,28.962,7.082,6.097,5.152
1044,0.807,35.731,4.877,27.03,28.948,6.92,5.975,5.071
1045,0.787,35.799,4.869,27.001,28.937,6.878,5.974,4.989
1046,0.793,35.416,4.881,27.048,28.948,7.0,6.096,5.07
1047,0.8,35.565,4.897,27.049,28.958,7.123,6.056,5.111
1048,0.784,35.624,4.889,27.03,28.944,7.124,6.015,5.03
1049,0.774,35.711,4.889,27.01,28.941,7.083,5.974,5.03
1050,0.793,35.453,4.901,27.029,28.948,7.205,6.055,5.07
1051,0.78,35.594,4.897,27.039,28.951,7.165,6.097,5.03
1052,0.764,35.692,4.885,27.01,28.937,7.124,5.935,4.989
1053,0.757,35.789,4.873,27.02,28.948,7.165,6.055,5.029
1054,0.764,35.32,4.893,27.039,28.951,7.328,6.056,5.07
1055,0.761,35.459,4.874,27.02,28.951,7.37,5.975,5.03
1056,0.744,35.547,4.877,27.01,28.944,7.167,5.933,4.948
1057,0.751,35.615,4.881,27.029,28.948,7.246,6.055,4.988
1058,0.757,35.424,4.881,27.039,28.951,7.369,6.097,5.11
1059,0.754,35.556,4.897,27.029,28.951,7.289,5.975,5.112
1060,0.751,35.624,4.901,27.02,28.941,7.125,5.893,4.949
1061,0.757,35.702,4.878,27.02,28.948,7.246,5.973,5.029
1062,0.761,35.396,4.889,27.039,28.951,7.247,6.015,5.151
1063,0.748,35.527,4.901,27.039,28.951,7.247,6.015,4.949
1064,0.751,35.624,4.889,27.029,28.948,7.166,5.974,5.069
1065,0.751,36.037,4.877,27.049,28.944,7.206,6.015,5.03
1066,0.761,35.342,4.866,27.058,28.948,7.247,6.056,5.111
1067,0.757,35.43,4.885,27.039,28.948,7.206,5.975,5.112
1068,0.754,35.537,4.858,27.039,28.944,7.206,6.015,5.03
1069,0.751,35.356,4.865,27.029,28.944,7.206,5.974,5.03
1070,0.767,35.421,4.869,27.039,28.951,7.206,6.137,5.03
1071,0.751,35.537,4.889,27.039,28.944,7.165,6.057,5.03
1072,0.751,35.624,4.873,27.02,28.944,7.206,6.056,4.989
1073,0.754,35.261,4.877,27.029,28.948,7.165,6.137,4.988
1074,0.751,35.401,4.905,27.039,28.944,7.287,6.138,5.07
1075,0.751,35.498,4.897,27.049,28.958,7.247,6.219,5.03
1076,0.741,35.585,4.889,27.01,28.948,7.288,6.098,5.07
1077,0.751,35.212,4.877,27.02,28.944,7.288,6.138,4.989
1078,0.754,35.362,4.889,27.029,28.948,7.41,6.179,5.029
1079,0.751,35.479,4.881,27.039,28.944,7.371,6.139,5.07
1080,0.744,35.528,4.877,27.039,28.948,7.37,6.179,5.111
1081,0.757,35.346,4.877,27.039,28.944,7.37,6.139,4.989
1082,0.754,35.517,4.881,27.039,28.948,7.37,6.219,5.029
1083,0.748,35.586,4.893,27.039,28.951,7.37,6.22,5.07
1084,0.747,35.644,4.905,27.029,28.951,7.411,6.18,5.152
1085,0.747,35.117,4.909,27.029,28.944,7.33,6.261,5.031
1086,0.751,35.284,4.905,27.058,28.948,7.37,6.221,5.111
1087,0.757,35.411,4.901,27.058,28.951,7.37,6.22,5.03
1088,0.738,35.393,4.885,27.049,28.948,7.492,6.302,5.151
1089,0.744,35.306,4.881,27.02,28.948,7.412,6.18,5.031
1090,0.747,35.42,4.877,27.048,28.951,7.452,6.22,5.03
1091,0.747,35.527,4.869,27.039,28.951,7.493,6.22,5.07
1092,0.741,35.375,4.869,27.029,28.951,7.575,6.261,5.111
1093,0.744,35.21,4.881,27.039,28.944,7.535,6.221,5.03
1094,0.731,35.381,4.885,27.049,28.948,7.534,6.18,5.07
1095,0.741,35.45,4.873,27.039,28.951,7.534,6.301,5.07
1096,0.741,35.288,4.893,27.029,28.951,7.616,6.262,5.152
1097,0.747,35.43,4.885,27.02,28.948,7.495,6.221,5.031
1098,0.754,35.546,4.893,27.029,28.948,7.534,6.18,5.03
1099,0.754,35.643,4.901,27.029,28.948,7.575,6.301,5.111
1100,0.757,35.117,4.897,27.039,28.955,7.616,6.384,5.152
1101,0.764,35.256,4.881,27.039,28.951,7.535,6.181,5.071
1102,0.751,35.391,4.881,27.02,28.937,7.453,6.179,4.948
1103,0.754,35.46,4.889,27.039,28.951,7.534,6.301,5.069
1104,0.767,35.115,4.885,27.097,28.958,7.616,6.302,5.193
1105,0.748,35.236,4.866,27.04,28.941,7.495,6.14,5.031
1106,0.754,35.353,4.865,27.02,28.941,7.371,6.138,4.989
1107,0.754,35.411,4.873,27.039,28.948,7.452,6.219,5.11
1108,0.764,35.191,4.893,27.049,28.955,7.534,6.302,5.234
1109,0.754,35.304,4.87,27.03,28.944,7.412,6.18,5.032
1110,0.767,35.411,4.889,27.01,28.944,7.371,6.098,4.948
1111,0.754,35.479,4.897,27.029,28.951,7.452,6.219,5.029
1112,0.757,35.154,4.885,27.058,28.958,7.452,6.302,5.192
1113,0.757,35.275,4.901,27.03,28.951,7.33,6.18,5.031
1114,0.761,35.391,4.87,27.02,28.944,7.207,6.057,4.989
1115,0.764,35.834,4.881,27.039,28.951,7.287,6.178,5.029
1116,0.79,35.253,4.877,27.049,28.955,7.41,6.261,5.151
1117,0.787,35.381,4.885,27.02,28.948,7.167,6.139,4.99
1118,0.8,35.469,4.885,27.02,28.941,7.124,6.057,4.907
1119,0.816,35.182,4.881,27.039,28.948,7.205,6.137,5.109
1120,0.869,35.237,4.885,27.077,28.962,7.287,6.26,5.234
1121,0.885,35.314,4.881,27.02,28.944,7.085,6.058,4.95
1122,0.902,35.421,4.893,27.029,28.937,7.042,6.056,4.907
1123,0.947,35.163,4.897,27.039,28.948,7.164,6.137,5.109
1124,0.967,35.304,4.92,27.049,28.958,7.206,6.26,5.234
1125,0.987,35.392,4.874,27.03,28.944,7.043,6.139,5.072
1126,1.007,35.469,4.869,27.029,28.941,6.879,6.057,4.948
1127,1.033,34.914,4.877,27.049,28.951,7.0,6.178,5.191
1128,1.059,35.09,4.889,27.077,28.962,7.163,6.301,5.194
1129,1.073,35.198,4.819,27.03,28.941,6.88,6.099,4.99
1130,1.086,35.237,4.861,26.991,28.937,6.837,6.016,4.948
1131,1.099,35.17,4.885,27.048,28.951,6.958,6.218,5.069
1132,1.099,35.342,4.893,27.068,28.958,7.082,6.302,5.111
1133,1.089,35.43,4.889,27.03,28.944,7.002,6.099,4.949
1134,1.086,35.45,4.885,27.02,28.937,6.879,6.016,5.029
1135,1.112,35.077,4.909,27.029,28.951,7.081,6.178,5.07
1136,1.099,35.236,4.905,27.058,28.958,7.002,6.139,5.03
1137,1.06,35.305,4.901,27.01,28.944,6.96,6.098,4.948
1138,1.027,35.334,4.874,27.0,28.941,6.96,6.056,5.029
1139,1.001,35.066,4.881,27.029,28.948,7.041,6.178,5.151
1140,0.971,35.217,4.889,27.029,28.951,6.96,6.139,5.031
1141,0.906,35.285,4.858,27.02,28.948,7.0,6.098,4.989
1142,0.853,35.181,4.869,27.01,28.948,7.001,6.138,5.07
1143,0.801,35.055,4.869,27.039,28.962,7.082,6.138,5.152
1144,0.738,35.188,4.873,27.039,28.944,7.123,6.179,5.153
1145,0.65,35.266,4.873,27.01,28.944,6.961,5.976,5.071
1146,0.594,35.094,4.901,27.039,28.951,7.082,6.096,5.111
1147,0.531,35.236,4.885,27.039,28.951,7.042,6.138,5.03
1148,0.43,35.343,4.873,27.029,28.955,7.042,6.057,5.111
1149,0.354,35.411,4.885,27.02,28.937,7.123,6.015,5.03
1150,0.33,35.038,4.885,27.029,28.944,7.083,6.096,5.03
1151,0.301,35.178,4.885,27.039,28.951,7.205,6.178,5.151
1152,0.265,35.295,4.877,27.049,28.948,7.165,6.017,5.153
1153,0.229,35.363,4.869,27.02,28.944,7.165,6.056,5.071
1154,0.157,34.884,4.885,27.02,28.951,7.206,6.056,5.111
1155,0.117,35.042,4.877,27.039,28.944,7.328,6.056,5.193
1156,0.084,35.159,4.877,27.039,28.944,7.248,6.015,5.112
1157,0.077,35.208,4.873,27.02,28.944,7.288,6.015,5.071
1158,0.048,34.882,4.885,27.01,28.944,7.288,6.015,5.152
1159,0.028,35.042,4.901,27.039,28.948,7.41,6.137,5.193
1160,0.005,35.149,4.917,27.039,28.948,7.411,6.057,5.112
1161,-0.018,35.189,4.893,27.039,28.944,7.289,6.056,5.193
1162,-0.002,35.036,4.885,27.029,28.941,7.329,6.015,5.153
1163,0.031,35.159,4.893,27.049,28.948,7.451,6.137,5.153
1164,0.067,35.266,4.889,27.049,28.951,7.452,6.138,5.234
1165,0.11,35.506,4.885,27.039,28.948,7.33,6.057,5.275
1166,0.165,35.049,4.873,27.049,28.948,7.37,6.015,5.276
1167,0.231,35.197,4.885,27.049,28.948,7.33,6.015,5.195
1168,0.274,35.276,4.885,27.039,28.948,7.289,6.015,5.234
1169,0.304,35.017,4.881,27.029,28.951,7.288,6.137,5.275
1170,0.353,35.044,4.885,27.039,28.951,7.207,6.057,5.154
1171,0.389,35.169,4.909,27.029,28.948,7.287,6.015,5.193
1172,0.412,35.256,4.905,27.039,28.944,7.207,6.056,5.234
1173,0.429,34.854,4.885,27.02,28.948,7.287,6.137,5.357
1174,0.452,34.975,4.909,27.039,28.944,7.166,5.976,5.195
1175,0.484,35.12,4.897,27.039,28.944,7.124,6.015,5.234
1176,0.507,35.198,4.897,27.029,28.951,7.165,6.056,5.316
1177,0.537,34.844,4.889,27.039,28.951,7.124,6.097,5.317
1178,0.566,34.984,4.873,27.039,28.948,7.083,6.016,5.236
1179,0.596,35.11,4.877,27.039,28.937,7.042,5.974,5.235
1180,0.626,35.179,4.877,27.039,28.944,7.164,6.015,5.357
1181,0.639,34.949,4.873,27.039,28.962,7.165,6.096,5.439
1182,0.668,35.081,4.877,27.02,28.944,7.043,6.016,5.237
1183,0.688,35.198,4.877,27.02,28.948,6.96,6.015,5.194
1184,0.708,35.237,4.885,27.039,28.948,7.082,6.096,5.356
1185,0.724,34.902,4.905,27.058,28.951,7.123,6.138,5.48
1186,0.741,35.033,4.885,27.03,28.944,7.043,6.016,5.359
1187,0.751,35.14,4.877,27.029,28.948,7.042,6.015,5.317
1188,0.767,35.198,4.905,27.029,28.951,7.164,6.056,5.398
1189,0.78,34.806,4.878,27.049,28.951,7.246,6.178,5.44
1190,0.784,34.946,4.877,27.03,28.944,7.125,6.017,5.277
1191,0.793,35.043,4.873,27.02,28.955,7.083,5.974,5.276
1192,0.803,35.101,4.897,27.039,28.951,7.164,6.096,5.398
1193,0.813,35.044,4.889,27.068,28.958,7.328,6.138,5.44
1194,0.816,35.149,4.877,27.03,28.937,7.248,6.057,5.318
1195,0.81,35.246,4.885,27.029,28.948,7.247,6.015,5.236
1196,0.816,34.797,4.889,27.029,28.948,7.328,6.096,5.316
1197,0.823,34.878,4.913,27.049,28.958,7.451,6.178,5.48
1198,0.82,34.985,4.889,27.03,28.948,7.29,6.057,5.237
1199,0.82,35.072,4.901,27.01,28.948,7.329,5.975,5.316
1200,0.83,34.68,4.901,27.048,28.951,7.451,6.177,5.358
1201,0.833,34.868,4.889,27.077,28.962,7.574,6.22,5.521
1202,0.826,34.946,4.881,27.03,28.948,7.413,6.058,5.319
1203,0.826,35.024,4.87,27.01,28.934,7.289,5.975,5.276
1204,0.826,34.775,4.881,27.029,28.948,7.451,6.096,5.398
1205,0.836,34.936,4.889,27.087,28.962,7.615,6.219,5.521
1206,0.826,35.014,4.877,27.02,28.944,7.413,6.058,5.319
1207,0.833,35.072,4.877,27.01,28.93,7.33,5.975,5.317
1208,0.849,34.804,4.885,27.029,28.951,7.532,6.137,5.398
1209,0.856,34.974,4.905,27.058,28.951,7.534,6.138,5.399
1210,0.83,35.024,4.905,27.02,28.948,7.412,6.057,5.236
1211,0.83,35.082,4.874,27.02,28.937,7.33,6.015,5.316
1212,0.843,34.833,4.893,27.048,28.948,7.451,6.056,5.439
1213,0.843,34.965,4.897,27.049,28.948,7.493,6.015,5.359
1214,0.836,35.053,4.87,27.01,28.944,7.371,5.974,5.277
1215,0.839,35.082,4.869,27.02,28.944,7.37,6.055,5.398
1216,0.846,34.757,4.865,27.029,28.948,7.452,6.056,5.318
1217,0.84,34.888,4.877,27.029,28.944,7.412,6.056,5.358
1218,0.833,34.975,4.877,27.01,28.941,7.371,5.975,5.317
1219,0.846,34.88,4.866,27.01,28.948,7.411,6.015,5.317
1220,0.853,34.918,4.897,27.039,28.951,7.493,6.178,5.398
1221,0.843,35.023,4.909,27.029,28.944,7.494,6.057,5.399
1222,0.843,35.13,4.874,27.02,28.944,7.412,6.015,5.358
1223,0.846,34.613,4.881,27.029,28.948,7.411,6.096,5.317
1224,0.856,34.733,4.893,27.049,28.955,7.533,6.138,5.439
1225,0.853,34.887,4.877,27.049,28.944,7.453,6.138,5.44
1226,0.849,34.956,4.866,27.03,28.944,7.452,6.057,5.399
1227,0.843,34.535,4.885,27.029,28.944,7.452,6.178,5.318
1228,0.853,34.694,4.889,27.049,28.948,7.574,6.179,5.398
1229,0.853,34.801,4.877,27.087,28.951,7.575,6.179,5.358
1230,0.846,34.878,4.885,27.03,28.948,7.616,6.179,5.399
1231,0.846,34.812,4.889,27.02,28.944,7.454,6.179,5.318
1232,0.856,34.974,4.893,27.039,28.944,7.452,6.22,5.317
1233,0.856,35.091,4.889,27.039,28.944,7.534,6.302,5.398
1234,0.853,35.15,4.881,27.049,28.955,7.534,6.302,5.44
1235,0.856,34.633,4.901,27.02,28.944,7.412,6.18,5.237
1236,0.856,34.752,4.897,27.02,28.944,7.452,6.139,5.275
1237,0.862,34.888,4.881,27.029,28.951,7.412,6.301,5.316
1238,0.866,34.908,4.889,27.039,28.955,7.452,6.384,5.48
1239,0.856,34.649,4.873,27.029,28.951,7.33,6.222,5.278
1240,0.869,34.8,4.885,27.029,28.944,7.207,6.18,5.195
1241,0.872,34.907,4.866,27.029,28.944,7.247,6.261,5.356
1242,0.879,34.937,4.904,27.058,28.958,7.41,6.343,5.48
1243,0.876,34.707,4.858,27.02,28.948,7.208,6.221,5.318
1244,0.872,34.83,4.865,27.02,28.944,7.165,6.18,5.236
1245,0.879,34.965,4.873,27.029,28.951,7.206,6.261,5.397
1246,0.889,34.64,4.889,27.068,28.955,7.369,6.424,5.48
1247,0.869,34.714,4.877,27.03,28.948,7.126,6.222,5.278
1248,0.869,34.839,4.873,27.01,28.941,7.002,6.22,5.276
1249,0.872,34.936,4.908,27.029,28.948,7.163,6.342,5.357
1250,0.885,34.669,4.885,27.058,28.958,7.165,6.466,5.48
1251,0.869,34.781,4.889,27.03,28.941,7.084,6.223,5.318
1252,0.872,34.878,4.877,27.02,28.941,6.961,6.22,5.195
1253,0.869,34.975,4.889,27.039,28.944,7.0,6.302,5.356
1254,0.882,34.477,4.866,27.068,28.958,7.123,6.425,5.48
1255,0.869,34.578,4.862,27.02,28.948,6.961,6.222,5.318
1256,0.872,34.694,4.865,27.001,28.941,6.838,6.098,5.195
1257,0.872,34.781,4.893,27.029,28.955,6.999,6.26,5.356
1258,0.889,34.543,4.893,27.068,28.958,7.001,6.424,5.399
1259,0.879,34.665,4.874,27.039,28.944,6.838,6.263,5.318
1260,0.872,34.772,4.901,27.01,28.944,6.837,6.139,5.236
1261,0.885,34.83,4.897,27.039,28.944,6.918,6.301,5.397
1262,0.895,34.754,4.909,27.058,28.962,7.041,6.343,5.44
1263,0.879,34.859,4.881,27.01,28.948,6.839,6.221,5.277
1264,0.882,34.946,4.877,27.02,28.941,6.714,6.18,5.154
1265,0.885,34.985,4.881,27.029,28.948,6.835,6.301,5.397
1266,0.902,34.487,4.893,27.058,28.962,6.958,6.343,5.44
1267,0.889,34.588,4.877,27.03,28.944,6.756,6.303,5.318
1268,0.882,34.675,4.873,27.02,28.937,6.714,6.18,5.195
1269,0.892,34.551,4.877,27.039,28.951,6.794,6.383,5.356
1270,0.895,34.598,4.893,27.077,28.955,6.836,6.466,5.439
1271,0.879,34.694,4.905,27.02,28.948,6.755,6.264,5.237
1272,0.882,34.781,4.866,27.01,28.934,6.632,6.221,5.194
1273,0.905,34.437,4.881,27.029,28.951,6.753,6.342,5.316
1274,0.902,34.587,4.901,27.068,28.958,6.876,6.425,5.317
1275,0.889,34.656,4.897,27.011,28.944,6.715,6.304,5.195
1276,0.889,34.743,4.881,27.01,28.937,6.672,6.302,5.153
1277,0.899,34.389,4.873,27.029,28.951,6.713,6.425,5.315
1278,0.905,34.558,4.885,27.049,28.955,6.713,6.344,5.317
1279,0.892,34.636,4.877,27.03,28.937,6.713,6.303,5.236
1280,0.892,34.733,4.869,27.039,28.944,6.754,6.302,5.194
1281,0.899,34.485,4.885,27.049,28.951,6.795,6.425,5.356
1282,0.905,34.626,4.905,27.03,28.948,6.755,6.344,5.399
1283,0.905,34.723,4.878,27.02,28.944,6.673,6.303,5.236
1284,0.912,34.801,4.893,27.029,28.948,6.753,6.302,5.275
1285,0.902,34.341,4.893,27.049,28.951,6.917,6.343,5.357
1286,0.899,34.471,4.901,27.049,28.955,6.796,6.343,5.317
1287,0.902,34.587,4.889,27.01,28.941,6.795,6.303,5.236
1288,0.905,34.637,4.881,27.02,28.951,6.795,6.262,5.235
1289,0.908,34.426,4.889,27.039,28.951,7.039,6.302,5.316
1290,0.918,34.539,4.877,27.049,28.948,7.001,6.221,5.317
1291,0.899,34.636,4.854,27.02,28.944,7.041,6.22,5.195
1292,0.908,34.685,4.865,27.029,28.944,7.123,6.22,5.234
1293,0.915,34.427,4.877,27.039,28.958,7.246,6.261,5.316
1294,0.918,34.539,4.893,27.049,28.951,7.288,6.302,5.236
1295,0.905,34.646,4.881,27.02,28.948,7.288,6.221,5.235
1296,0.902,34.321,4.889,27.01,28.951,7.329,6.22,5.235
1297,0.902,34.394,4.893,27.029,28.948,7.451,6.22,5.275
1298,0.908,34.529,4.885,27.029,28.948,7.371,6.261,5.316
1299,0.899,34.617,4.873,27.02,28.944,7.452,6.18,5.276
1300,0.905,34.32,4.885,27.029,28.948,7.452,6.179,5.316
1301,0.912,34.471,4.889,27.049,28.955,7.452,6.22,5.276
1302,0.908,34.578,4.862,27.02,28.951,7.493,6.261,5.276
1303,0.905,34.665,4.873,27.029,28.948,7.494,6.221,5.316
1304,0.905,34.254,4.866,27.029,28.944,7.494,6.139,5.236
1305,0.918,34.413,4.873,27.02,28.948,7.453,6.179,5.235
1306,0.925,34.539,4.885,27.048,28.944,7.493,6.22,5.316
1307,0.928,34.617,4.893,27.03,28.958,7.616,6.261,5.398
1308,0.918,34.1,4.889,27.039,28.948,7.495,6.139,5.236
1309,0.918,34.248,4.877,27.029,28.948,7.534,6.098,5.235
1310,0.918,34.374,4.881,27.029,28.948,7.534,6.219,5.275
1311,0.912,34.423,4.893,27.039,28.955,7.616,6.22,5.398
1312,0.918,34.443,4.877,27.039,28.948,7.535,6.139,5.236
1313,0.915,34.558,4.893,27.01,28.937,7.453,6.057,5.153
1314,0.912,34.684,4.893,27.039,28.951,7.574,6.259,5.356
1315,0.918,34.733,4.893,27.058,28.958,7.575,6.262,5.399
1316,0.909,34.35,4.866,27.03,28.948,7.494,6.099,5.155
1317,0.908,34.471,4.885,27.01,28.944,7.371,6.056,5.112
1318,0.912,34.597,4.877,27.029,28.955,7.492,6.259,5.274
1319,0.922,34.493,4.877,27.049,28.955,7.534,6.302,5.438
1320,0.925,34.482,4.869,27.03,28.944,7.453,6.18,5.196
1321,0.925,34.597,4.889,27.01,28.937,7.33,6.139,5.072
1322,0.935,34.733,4.901,27.039,28.955,7.492,6.26,5.233
1323,0.938,34.254,4.905,27.068,28.962,7.575,6.384,5.357
1324,0.922,34.307,4.897,27.011,28.944,7.454,6.181,5.155
1325,0.922,34.442,4.901,26.991,28.937,7.29,6.139,5.153
1326,0.944,34.568,4.889,27.048,28.951,7.491,6.301,5.275
1327,0.958,34.272,4.905,27.058,28.958,7.534,6.302,5.316
1328,0.928,34.374,4.885,27.02,28.941,7.331,6.18,5.154
1329,0.922,34.462,4.885,27.029,28.948,7.329,6.139,5.153
1330,0.938,34.607,4.885,27.029,28.955,7.37,6.301,5.275
1331,0.954,34.387,4.885,27.029,28.951,7.33,6.302,5.276
1332,0.925,34.5,4.893,27.01,28.941,7.207,6.18,5.195
1333,0.931,34.617,4.885,27.01,28.944,7.247,6.22,5.153
1334,0.935,34.704,4.885,27.058,28.948,7.288,6.302,5.275
1335,0.941,34.427,4.897,27.039,28.951,7.288,6.221,5.154
1336,0.932,34.52,4.881,27.029,28.941,7.207,6.139,5.153
1337,0.931,34.646,4.881,27.039,28.948,7.206,6.219,5.153
1338,0.938,34.695,4.901,27.039,28.958,7.287,6.261,5.315
1339,0.938,34.59,4.893,27.029,28.948,7.288,6.18,5.236
1340,0.935,34.704,4.87,27.02,28.944,7.207,6.179,5.113
1341,0.935,34.83,4.854,27.039,28.948,7.247,6.22,5.152
1342,0.941,34.994,4.885,27.029,28.951,7.288,6.302,5.315
1343,0.935,34.631,4.87,27.029,28.944,7.247,6.221,5.236
1344,0.935,34.762,4.877,27.01,28.937,7.206,6.18,5.194
1345,0.945,34.868,4.885,27.039,28.941,7.247,6.179,5.153
1346,0.948,34.697,4.905,27.039,28.948,7.206,6.261,5.315
1347,0.941,34.781,4.878,27.049,28.944,7.206,6.221,5.236
1348,0.941,34.907,4.885,27.03,28.944,7.206,6.18,5.275
1349,0.945,35.004,4.889,27.039,28.944,7.206,6.098,5.113
1350,0.958,34.775,4.885,27.039,28.944,7.206,6.219,5.234
1351,0.945,34.907,4.881,27.02,28.948,7.206,6.22,5.194
1352,0.945,35.043,4.885,27.029,28.948,7.247,6.18,5.234
1353,0.938,35.121,4.889,27.039,28.951,7.206,6.139,5.194
1354,0.932,34.958,4.877,27.058,28.948,7.287,6.138,5.194
1355,0.951,35.091,4.869,27.039,28.951,7.207,6.138,5.153
1356,0.935,35.198,4.881,27.029,28.951,7.247,6.219,5.234
1357,0.931,35.266,4.901,27.029,28.944,7.247,6.098,5.113
1358,0.944,35.276,4.897,27.049,28.944,7.288,6.138,5.193
1359,0.938,35.401,4.881,27.03,28.948,7.247,6.179,5.194
1360,0.948,35.489,4.893,27.039,28.951,7.288,6.179,5.194
1361,0.948,35.537,4.897,27.029,28.948,7.288,6.057,5.112
1362,0.951,35.48,4.874,27.049,28.948,7.329,6.097,5.193
1363,0.951,35.595,4.881,27.02,28.951,7.37,6.056,5.153
1364,0.951,35.682,4.901,27.039,28.944,7.33,6.137,5.234
1365,0.938,35.712,4.885,27.039,28.951,7.289,6.098,5.235
1366,0.958,35.875,4.885,27.039,28.951,7.329,6.056,5.194
1367,0.961,36.011,4.877,27.049,28.948,7.289,6.097,5.194
1368,0.961,36.089,4.897,27.039,28.951,7.41,6.138,5.316
1369,0.964,35.869,4.881,27.02,28.941,7.208,6.098,5.154
1370,0.958,35.79,4.889,27.039,28.944,7.206,6.056,5.193
1371,0.961,35.914,4.893,27.039,28.951,7.287,6.137,5.316
1372,0.964,36.031,4.893,27.049,28.955,7.41,6.219,5.317
1373,0.948,36.061,4.881,27.03,28.944,7.167,6.098,5.154
1374,0.951,36.186,4.885,27.02,28.941,7.165,6.016,5.112
1375,0.971,36.302,4.885,27.039,28.948,7.287,6.137,5.193
1376,0.958,36.399,4.912,27.106,28.955,7.369,6.26,5.275
1377,0.951,36.208,4.866,27.021,28.944,7.208,6.017,5.154
1378,0.951,36.34,4.885,27.029,28.941,7.247,6.056,5.071
1379,0.958,36.447,4.905,27.039,28.958,7.247,6.137,5.233
1380,0.961,36.554,4.885,27.049,28.962,7.45,6.26,5.316
1381,0.951,36.526,4.889,27.039,28.948,7.371,6.058,5.236
1382,0.961,36.65,4.901,27.01,28.937,7.248,5.975,5.032
1383,0.964,36.796,4.909,27.029,28.951,7.41,6.096,5.233
1384,0.964,36.855,4.905,27.068,28.958,7.533,6.26,5.316
1385,0.961,37.344,4.885,27.039,28.941,7.453,6.139,5.154
1386,0.958,37.464,4.881,27.01,28.937,7.412,6.016,5.153
1387,0.968,37.6,4.889,27.058,28.944,7.574,6.178,5.315
1388,0.977,37.639,4.889,27.058,28.958,7.738,6.301,5.317
1389,0.958,36.489,4.873,27.03,28.948,7.618,6.14,5.154
1390,0.948,36.602,4.885,27.001,28.941,7.617,5.976,5.071
1391,0.958,36.738,4.909,27.058,28.948,7.779,6.137,5.193
1392,0.964,37.199,4.917,27.049,28.962,7.862,6.219,5.234
1393,0.948,37.165,4.913,27.03,28.944,7.822,6.058,5.153
1394,0.938,37.271,4.893,27.01,28.934,7.781,6.097,5.112
1395,0.951,37.396,4.889,27.039,28.951,7.862,6.178,5.193
1396,0.971,37.072,4.885,27.039,28.955,7.944,6.139,5.153
1397,0.958,37.059,4.87,27.01,28.941,7.864,6.016,5.071
1398,0.945,37.174,4.877,27.01,28.951,7.944,6.096,5.193
1399,0.958,37.29,4.912,27.029,28.951,7.986,6.178,5.234
1400,0.951,37.396,4.897,27.02,28.951,8.027,6.139,5.235
1401,0.938,37.503,4.901,27.02,28.948,7.946,6.016,5.153
1402,0.954,37.629,4.901,27.039,28.955,7.905,6.056,5.193
1403,0.961,37.716,4.897,27.039,28.955,8.107,6.097,5.194
1404,0.968,37.276,4.905,27.029,28.951,7.987,6.056,5.153
1405,0.951,37.396,4.897,27.029,28.941,7.946,5.975,5.234
1406,0.958,37.522,4.893,27.039,28.944,7.986,6.096,5.194
1407,0.971,37.6,4.877,27.058,28.948,7.986,6.097,5.194
1408,0.971,37.495,4.897,27.03,28.951,7.946,6.097,5.194
1409,0.968,37.619,4.885,27.02,28.944,7.945,6.016,5.153
1410,0.964,37.745,4.885,27.029,28.951,7.945,6.056,5.153
1411,0.981,37.804,4.897,27.039,28.944,7.945,6.097,5.234
1412,0.964,37.584,4.913,27.039,28.948,7.945,6.056,5.153
1413,0.964,37.697,4.889,27.029,28.948,7.864,6.015,5.153
1414,0.971,37.803,4.885,27.02,28.948,7.782,6.056,5.153
1415,0.971,37.824,4.893,27.029,28.944,7.862,6.015,5.153
1416,0.971,37.613,4.881,27.029,28.951,7.822,6.056,5.153
1417,0.945,37.735,4.893,27.049,28.955,7.822,6.056,5.234
1418,0.971,37.832,4.897,27.03,28.944,7.7,6.015,5.072
1419,0.971,37.824,4.874,27.02,28.944,7.699,5.974,5.111
1420,0.964,37.805,4.897,27.02,28.944,7.699,6.096,5.152
1421,0.977,37.948,4.893,27.039,28.958,7.821,6.138,5.234
1422,0.968,38.007,4.889,27.029,28.944,7.7,5.894,5.153
1423,0.974,37.71,4.885,27.02,28.944,7.658,5.973,5.071
1424,0.984,37.832,4.909,27.039,28.948,7.739,6.015,5.111
1425,0.997,37.977,4.909,27.068,28.958,7.699,6.137,5.356
1426,0.991,38.036,4.893,27.039,28.944,7.577,5.976,5.155
1427,0.987,37.682,4.877,27.029,28.934,7.454,5.893,4.99
1428,0.991,37.841,4.862,27.039,28.958,7.574,6.054,5.192
1429,0.994,37.949,4.893,27.068,28.958,7.738,6.219,5.316
1430,0.991,38.017,4.881,27.039,28.944,7.455,6.017,5.154
1431,0.984,37.701,4.885,27.001,28.937,7.371,5.974,5.071
1432,0.984,37.88,4.893,27.039,28.951,7.533,6.137,5.193
1433,0.997,38.016,4.901,27.068,28.958,7.575,6.138,5.275
1434,0.981,37.998,4.893,27.011,28.941,7.372,5.935,5.073
1435,0.977,37.71,4.893,26.991,28.941,7.289,5.974,5.07
1436,0.994,37.851,4.905,27.039,28.951,7.369,6.096,5.152
1437,0.991,37.987,4.881,27.039,28.955,7.411,6.097,5.112
1438,0.978,37.988,4.889,27.01,28.948,7.289,6.016,5.071
1439,0.971,37.797,4.873,27.029,28.948,7.329,6.137,5.152
1440,0.974,37.967,4.901,27.049,28.951,7.329,6.057,5.193
1441,0.974,38.036,4.885,27.03,28.944,7.37,6.097,5.153
1442,0.964,38.372,4.885,27.02,28.948,7.208,6.016,5.031
1443,0.974,37.657,4.901,27.029,28.948,7.287,6.056,5.151
1444,0.977,37.793,4.897,27.058,28.951,7.329,6.178,5.193
1445,0.964,37.881,4.893,27.039,28.948,7.289,6.139,5.194
1446,0.958,37.805,4.881,27.02,28.948,7.207,5.976,5.112
1447,0.964,37.929,4.873,27.029,28.951,7.328,6.055,5.193
1448,0.964,38.055,4.881,27.058,28.951,7.329,6.178,5.194
1449,0.951,38.104,4.877,27.03,28.948,7.329,6.098,5.194
1450,0.951,37.625,4.858,27.02,28.941,7.167,6.016,5.112
1451,0.958,37.793,4.881,27.029,28.948,7.206,6.015,5.112
1452,0.958,37.919,4.897,27.039,28.955,7.287,6.137,5.152
1453,0.941,37.969,4.913,27.029,28.948,7.288,6.179,5.153
1454,0.935,37.729,4.889,27.02,28.944,7.207,6.057,5.193
1455,0.938,37.88,4.885,27.02,28.944,7.287,6.056,5.031
1456,0.935,38.006,4.885,27.039,28.951,7.369,6.097,5.07
1457,0.928,38.056,4.87,27.02,28.951,7.37,6.097,5.111
1458,0.925,37.663,4.877,27.01,28.948,7.411,6.056,5.152
1459,0.931,37.803,4.866,27.039,28.944,7.371,6.097,5.153
1460,0.928,37.9,4.901,27.039,28.951,7.452,6.056,5.153
1461,0.931,37.94,4.905,27.029,28.951,7.412,6.097,5.112
1462,0.925,37.652,4.881,27.029,28.948,7.493,6.138,5.193
1463,0.922,37.784,4.889,27.029,28.944,7.371,6.057,5.112
1464,0.922,37.91,4.92,27.039,28.948,7.533,6.137,5.152
1465,0.915,37.94,4.913,27.029,28.948,7.575,6.098,5.193
1466,0.915,37.777,4.882,27.039,28.948,7.535,6.097,5.194
1467,0.915,37.91,4.893,27.02,28.944,7.453,6.097,5.153
1468,0.912,38.007,4.893,27.048,28.948,7.493,6.097,5.112
1469,0.905,37.931,4.893,27.03,28.944,7.453,6.138,5.152
1470,0.908,37.873,4.877,27.039,28.951,7.534,6.057,5.234
1471,0.899,37.997,4.885,27.02,28.944,7.453,6.097,5.113
1472,0.892,38.094,4.881,27.01,28.944,7.412,6.097,5.112
1473,0.879,37.683,4.885,27.02,28.951,7.33,6.178,5.112
1474,0.879,37.755,4.889,27.01,28.948,7.329,6.139,5.152
1475,0.882,37.89,4.897,27.029,28.948,7.329,6.098,5.031
1476,0.879,37.968,4.905,27.029,28.944,7.37,6.056,5.03
1477,0.879,37.71,4.893,27.029,28.948,7.37,6.137,5.111
1478,0.879,37.851,4.87,27.029,28.948,7.37,6.219,5.152
1479,0.879,37.939,4.881,27.029,28.948,7.289,6.058,5.153
1480,0.882,38.055,4.866,27.029,28.944,7.288,6.015,5.031
1481,0.889,37.769,4.881,27.039,28.951,7.247,6.137,5.233
1482,0.882,37.9,4.901,27.049,28.955,7.288,6.26,5.235
1483,0.872,37.997,4.901,27.02,28.944,7.247,6.058,5.113
1484,0.869,38.056,4.893,27.039,28.941,7.166,6.056,5.03
1485,0.876,37.74,4.885,27.01,28.948,7.246,6.137,5.233
1486,0.895,37.88,4.893,27.058,28.951,7.247,6.26,5.275
1487,0.889,37.959,4.87,27.039,28.948,7.206,6.139,5.113
1488,0.876,38.017,4.889,27.029,28.944,7.084,6.057,5.071
1489,0.876,37.835,4.87,27.029,28.948,7.245,6.097,5.152
1490,0.885,37.977,4.885,27.058,28.958,7.328,6.26,5.275
1491,0.879,38.046,4.877,27.02,28.948,7.167,6.139,5.073
1492,0.866,38.43,4.885,27.01,28.944,7.084,6.016,5.03
1493,0.866,37.744,4.885,27.02,28.955,7.205,6.218,5.192
1494,0.879,37.871,4.912,27.048,28.955,7.287,6.22,5.275
1495,0.866,37.949,4.909,27.01,28.948,7.207,6.139,5.032
1496,0.869,37.854,4.901,27.01,28.941,7.165,6.057,5.03
1497,0.866,37.949,4.909,27.048,28.948,7.287,6.178,5.07
1498,0.869,38.084,4.905,27.058,28.962,7.41,6.301,5.233
1499,0.869,38.143,4.815,27.03,28.944,7.289,6.221,5.032
1500,0.859,37.702,4.877,27.01,28.944,7.207,6.017,5.07
1501,0.862,37.851,4.893,27.039,28.955,7.287,6.137,5.193
1502,0.869,37.987,4.905,27.058,28.958,7.491,6.301,5.194
1503,0.863,38.027,4.885,27.03,28.948,7.249,6.099,5.072
1504,0.866,37.845,4.873,27.001,28.93,7.247,6.016,5.07
1505,0.856,38.025,4.893,27.039,28.944,7.369,6.218,5.152
1506,0.875,38.181,4.901,27.058,28.955,7.452,6.22,5.153
1507,0.876,38.201,4.889,27.01,28.941,7.33,6.098,5.031
1508,0.859,37.751,4.862,27.02,28.941,7.329,6.138,5.111
1509,0.875,37.928,4.889,27.029,28.951,7.37,6.179,5.152
1510,0.872,38.055,4.87,27.039,28.948,7.452,6.22,5.112
1511,0.866,38.056,4.873,27.01,28.948,7.33,6.098,5.03
1512,0.856,37.874,4.893,27.02,28.944,7.41,6.138,5.111
1513,0.866,38.026,4.916,27.039,28.948,7.452,6.179,5.193
1514,0.869,38.133,4.913,27.049,28.948,7.371,6.139,5.112
1515,0.856,38.124,4.878,27.03,28.948,7.37,6.057,5.03
1516,0.856,37.913,4.889,27.01,28.951,7.37,6.056,5.151
1517,0.875,38.074,4.889,27.039,28.948,7.492,6.178,5.153
1518,0.866,38.171,4.877,27.029,28.951,7.453,6.098,5.112
1519,0.856,37.933,4.885,27.029,28.944,7.412,6.097,5.03
1520,0.856,37.767,4.893,27.02,28.951,7.533,6.056,5.151
1521,0.856,37.89,4.877,27.039,28.955,7.534,6.178,5.153
1522,0.853,37.987,4.877,27.02,28.951,7.575,6.098,5.112
1523,0.846,37.864,4.877,27.01,28.944,7.494,6.016,5.03
1524,0.859,38.025,4.897,27.02,28.948,7.616,6.096,5.111
1525,0.875,38.152,4.913,27.048,28.955,7.617,6.138,5.193
1526,0.872,38.23,4.885,27.049,28.951,7.576,6.098,5.153
1527,0.853,37.741,4.881,27.03,28.948,7.616,6.138,5.112
1528,0.862,37.89,4.881,27.02,28.948,7.576,6.057,5.071
1529,0.856,38.026,4.885,27.048,28.958,7.657,6.137,5.152
1530,0.853,38.075,4.881,27.039,28.951,7.576,6.138,5.112
1531,0.846,37.874,4.881,27.039,28.944,7.616,6.098,5.152
1532,0.859,38.016,4.877,27.029,28.944,7.535,6.016,5.112
1533,0.862,38.133,4.889,27.058,28.948,7.616,6.056,5.071
1534,0.869,38.162,4.877,27.049,28.944,7.576,6.097,5.152
1535,0.872,37.731,4.897,27.02,28.944,7.616,6.138,5.112
1536,0.872,37.861,4.881,27.02,28.951,7.495,6.057,5.071
1537,0.869,37.978,4.897,27.039,28.944,7.616,6.097,5.03
1538,0.879,37.998,4.885,27.029,28.951,7.576,6.138,5.151
1539,0.876,37.806,4.862,27.029,28.951,7.657,6.138,5.193
1540,0.863,37.919,4.869,27.01,28.944,7.576,6.138,5.112
1541,0.882,38.026,4.862,27.039,28.944,7.657,6.016,5.03
1542,0.872,38.42,4.889,27.02,28.951,7.78,6.096,5.192
1543,0.866,37.686,4.873,27.029,28.951,7.822,6.178,5.153
1544,0.876,37.822,4.893,27.02,28.948,7.781,6.057,5.153
1545,0.882,37.92,4.897,27.039,28.944,7.74,6.137,5.031
1546,0.885,37.719,4.909,27.029,28.951,7.862,6.098,5.151
1547,0.882,37.756,4.901,27.039,28.958,7.944,6.26,5.193
1548,0.876,37.871,4.889,27.029,28.941,7.905,6.139,5.153
1549,0.879,37.968,4.885,27.01,28.951,7.863,6.057,5.031
1550,0.879,37.643,4.901,27.029,28.948,7.944,6.137,5.111
1551,0.872,37.774,4.881,27.049,28.955,8.026,6.179,5.193
1552,0.876,37.862,4.87,27.02,28.944,7.946,6.098,5.072
1553,0.876,37.958,4.893,27.029,28.948,7.986,5.975,5.03
1554,0.879,37.48,4.889,27.039,28.951,8.068,6.177,5.151
1555,0.882,37.628,4.881,27.029,28.958,8.15,6.261,5.234
1556,0.872,37.726,4.873,27.029,28.948,8.069,6.017,5.072
1557,0.885,37.794,4.881,27.01,28.937,8.069,5.974,5.03
1558,0.876,37.373,4.889,27.02,28.944,8.191,6.137,5.151
1559,0.879,37.531,4.897,27.058,28.955,8.273,6.219,5.275
1560,0.879,37.619,4.862,27.01,28.937,8.152,6.058,5.073
1561,0.882,37.668,4.869,27.02,28.948,8.15,6.056,5.07
1562,0.892,37.563,4.869,27.029,28.951,8.15,6.097,5.111
1563,0.895,37.696,4.877,27.049,28.962,8.273,6.219,5.234
1564,0.892,37.803,4.877,27.01,28.948,8.111,6.058,5.072
1565,0.892,37.795,4.889,27.01,28.944,7.987,5.975,5.03
1566,0.892,37.267,4.909,27.048,28.951,8.068,6.137,5.192
1567,0.899,37.406,4.901,27.049,28.958,8.272,6.301,5.275
1568,0.889,37.494,4.885,27.01,28.944,8.03,6.058,5.154
1569,0.879,37.523,4.893,27.01,28.937,7.946,6.015,4.949
1570,0.882,37.514,4.862,27.02,28.951,8.067,6.137,5.069
1571,0.889,37.629,4.889,27.068,28.955,8.109,6.301,5.233
1572,0.876,37.726,4.877,27.011,28.948,7.947,6.099,5.032
1573,0.879,37.286,4.881,27.01,28.934,7.864,6.056,4.948
1574,0.882,37.387,4.905,27.039,28.951,8.026,6.137,5.15
1575,0.889,37.512,4.901,27.049,28.958,8.109,6.301,5.275
1576,0.879,37.562,4.893,27.01,28.948,7.865,6.099,5.032
1577,0.876,37.073,4.885,27.01,28.941,7.782,6.056,4.907
1578,0.876,37.231,4.866,27.029,28.955,7.822,6.137,5.15
1579,0.882,37.377,4.885,27.058,28.962,7.944,6.301,5.193
1580,0.879,37.417,4.873,27.03,28.948,7.742,6.058,5.031
1581,0.879,37.024,4.885,27.02,28.944,7.659,6.015,4.989
1582,0.892,37.192,4.893,27.029,28.948,7.739,6.218,5.11
1583,0.892,37.328,4.901,27.049,28.962,7.781,6.302,5.193
1584,0.895,37.349,4.901,27.01,28.944,7.618,6.099,5.031
1585,0.882,37.167,4.889,27.02,28.944,7.535,6.097,5.03
1586,0.892,37.328,4.893,27.048,28.951,7.575,6.178,5.151
1587,0.892,37.445,4.909,27.058,28.958,7.616,6.301,5.275
1588,0.882,37.456,4.905,27.03,28.951,7.535,6.058,5.073
1589,0.882,37.149,4.874,27.001,28.944,7.453,6.056,4.989
1590,0.889,37.29,4.869,27.039,28.951,7.656,6.178,5.192
1591,0.908,37.416,4.885,27.068,28.955,7.658,6.342,5.234
1592,0.879,37.666,4.873,27.02,28.944,7.414,6.1,5.072
1593,0.879,36.998,4.869,27.01,28.937,7.452,6.056,4.948
1594,0.885,37.144,4.889,27.039,28.951,7.534,6.219,5.11
1595,0.892,37.261,4.913,27.039,28.962,7.657,6.302,5.234
1596,0.876,37.099,4.901,27.02,28.944,7.495,6.099,4.991
1597,0.869,37.126,4.893,27.01,28.93,7.453,6.016,4.988
1598,0.892,37.28,4.881,27.039,28.951,7.534,6.137,5.151
1599,0.889,37.387,4.909,27.058,28.958,7.657,6.219,5.153
1600,0.892,36.995,4.885,27.02,28.948,7.455,6.139,5.031
1601,0.873,37.096,4.866,27.01,28.937,7.412,6.016,5.07
1602,0.872,37.232,4.897,27.02,28.955,7.452,6.218,5.193
1603,0.895,37.31,4.889,27.048,28.958,7.574,6.139,5.194
1604,0.879,36.975,4.87,27.03,28.941,7.413,6.138,5.031
1605,0.869,37.096,4.881,27.01,28.941,7.33,6.098,5.07
1606,0.879,37.232,4.916,27.039,28.955,7.492,6.219,5.152
1607,0.892,37.329,4.913,27.039,28.955,7.412,6.18,5.071
1608,0.879,37.109,4.897,27.02,28.944,7.371,6.057,4.989
1609,0.879,37.251,4.885,27.029,28.955,7.411,6.137,5.029
1610,0.885,37.367,4.881,27.049,28.948,7.411,6.219,5.151
1611,0.879,37.407,4.87,27.068,28.951,7.371,6.18,5.071
1612,0.885,37.004,4.854,27.011,28.944,7.37,6.057,4.989
1613,0.892,37.115,4.885,27.029,28.944,7.452,6.137,5.07
1614,0.892,37.26,4.905,27.049,28.948,7.534,6.179,5.152
1615,0.895,37.262,4.881,27.03,28.948,7.412,6.139,5.031
1616,0.879,37.118,4.866,27.01,28.941,7.452,6.057,5.07
1617,0.879,37.27,4.897,27.01,28.948,7.493,6.097,5.03
1618,0.885,37.377,4.885,27.029,28.951,7.534,6.097,5.111
1619,0.882,37.234,4.893,27.02,28.944,7.575,6.097,5.071
1620,0.879,36.945,4.87,27.01,28.941,7.494,5.975,5.07
1621,0.882,37.096,4.865,27.02,28.944,7.534,6.055,5.07
1622,0.898,37.203,4.862,27.039,28.944,7.494,6.097,5.152
1623,0.892,36.849,4.865,27.039,28.948,7.575,6.097,5.071
1624,0.882,36.941,4.877,27.01,28.948,7.413,6.056,5.111
1625,0.885,37.067,4.889,27.039,28.948,7.533,6.056,5.071
1626,0.889,37.164,4.885,27.039,28.948,7.453,6.137,5.193
1627,0.879,37.012,4.889,27.058,28.955,7.452,6.098,5.112
1628,0.872,37.125,4.889,27.03,28.951,7.452,6.138,5.071
1629,0.879,37.251,4.877,27.02,28.951,7.412,6.057,5.111
1630,0.885,37.339,4.889,27.029,28.951,7.452,6.097,4.989
1631,0.885,37.1,4.885,27.039,28.951,7.452,6.138,5.11
1632,0.879,37.251,4.873,27.039,28.951,7.412,6.098,5.112
1633,0.882,37.339,4.873,27.01,28.944,7.289,6.097,5.071
1634,0.869,37.416,4.881,27.048,28.951,7.369,6.097,5.07
1635,0.863,37.072,4.866,27.039,28.948,7.37,6.138,5.07
1636,0.869,37.212,4.908,27.039,28.955,7.37,6.138,5.152
1637,0.872,37.319,4.881,27.02,28.944,7.208,6.098,5.071
1638,0.866,37.358,4.873,27.02,28.948,7.206,6.097,5.03
1639,0.862,37.119,4.889,27.029,28.948,7.247,6.097,5.151
1640,0.869,37.232,4.901,27.029,28.955,7.288,6.219,5.153
1641,0.863,37.329,4.881,27.02,28.944,7.207,6.098,5.031
1642,0.875,37.368,4.877,27.039,28.951,7.247,6.056,4.989
1643,0.863,37.071,4.877,27.029,28.951,7.288,6.097,5.07
1644,0.882,37.202,4.877,27.049,28.955,7.451,6.219,5.193
1645,0.879,37.281,4.869,27.02,28.948,7.33,6.139,5.072
1646,0.876,37.07,4.893,27.039,28.948,7.41,6.098,5.07
1647,0.872,37.097,4.897,27.029,28.944,7.493,6.138,5.111
1648,0.876,37.212,4.909,27.049,28.955,7.575,6.219,5.193
1649,0.869,37.29,4.889,27.02,28.944,7.454,6.017,5.112
1650,0.872,36.898,4.889,27.01,28.944,7.534,5.974,4.989
1651,0.863,37.028,4.889,27.039,28.944,7.575,6.137,5.07
1652,0.856,37.135,4.885,27.058,28.951,7.657,6.179,5.152
1653,0.862,37.232,4.862,27.039,28.948,7.658,6.017,5.071
1654,0.869,37.108,4.881,27.02,28.944,7.658,6.015,4.989
1655,0.872,37.26,4.877,27.02,28.948,7.617,6.056,5.11
1656,0.872,37.377,4.885,27.048,28.958,7.739,6.097,5.152
1657,0.859,37.445,4.881,27.02,28.948,7.659,6.056,5.031
1658,0.859,36.986,4.905,27.02,28.948,7.698,5.934,4.989
1659,0.862,37.134,4.893,27.029,28.951,7.699,6.055,5.11
1660,0.866,37.261,4.909,27.049,28.951,7.78,6.097,5.234
1661,0.859,37.291,4.885,27.03,28.951,7.74,6.056,5.072
1662,0.866,37.099,4.897,27.049,28.941,7.699,5.934,5.07
1663,0.869,37.26,4.874,27.039,28.955,7.78,6.014,5.07
1664,0.869,37.358,4.881,27.039,28.951,7.862,6.096,5.193
1665,0.869,37.349,4.877,27.029,28.944,7.741,5.975,5.153
1666,0.879,37.042,4.885,27.029,28.944,7.74,6.015,5.071
1667,0.869,37.193,4.909,27.029,28.944,7.903,6.015,5.193
1668,0.872,37.3,4.901,27.049,28.958,7.985,6.137,5.194
1669,0.869,37.214,4.901,27.01,28.937,7.946,5.894,5.072
1670,0.872,37.031,4.897,27.029,28.951,7.945,5.973,5.03
1671,0.869,37.145,4.889,27.049,28.951,8.026,6.015,5.151
1672,0.853,37.232,4.897,27.039,28.948,7.987,6.056,5.153
1673,0.853,36.964,4.877,27.02,28.944,7.946,5.975,5.071
1674,0.862,37.058,4.881,27.058,28.944,8.026,6.055,5.07
1675,0.853,37.193,4.893,27.03,28.955,8.109,6.015,5.111
1676,0.849,37.29,4.901,27.02,28.955,8.069,6.056,5.193
1677,0.853,37.003,4.893,27.02,28.948,8.109,5.975,5.031
1678,0.849,37.173,4.893,27.039,28.944,8.15,6.055,5.03
1679,0.849,37.271,4.893,27.029,28.944,8.11,6.015,5.07
1680,0.846,37.348,4.897,27.039,28.944,8.272,6.137,5.152
1681,0.853,36.927,4.893,27.02,28.944,8.274,6.057,5.071
1682,0.866,37.086,4.893,27.039,28.944,8.274,6.056,5.07
1683,0.853,37.203,4.885,27.058,28.948,8.314,6.015,5.111
1684,0.859,37.261,4.897,27.03,28.951,8.274,6.096,5.152
1685,0.849,36.869,4.858,27.029,28.944,8.193,6.016,5.071
1686,0.859,37.037,4.877,27.049,28.944,8.11,6.015,5.07
1687,0.849,37.125,4.873,27.049,28.948,8.232,6.056,5.193
1688,0.853,37.155,4.897,27.058,28.958,8.233,6.137,5.153
1689,0.859,36.906,4.889,27.03,28.944,8.07,6.016,5.031
1690,0.856,37.038,4.897,27.02,28.941,8.028,5.974,5.03
1691,0.849,37.125,4.893,27.039,28.951,8.068,6.015,5.151
1692,0.856,37.146,4.897,27.049,28.958,8.15,6.137,5.234
1693,0.853,37.021,4.889,27.02,28.948,7.947,6.057,5.072
1694,0.843,37.154,4.862,27.029,28.948,7.945,5.975,5.03
1695,0.853,37.251,4.881,27.02,28.948,7.945,6.055,5.03
1696,0.853,36.907,4.877,27.058,28.958,8.026,6.097,5.151
1697,0.843,36.875,4.881,27.03,28.944,7.905,5.975,4.99
1698,0.839,37.009,4.885,27.02,28.944,7.823,5.974,4.948
1699,0.856,37.096,4.893,27.039,28.951,7.863,6.096,5.15
1700,0.846,36.838,4.901,27.058,28.958,7.904,6.178,5.193
1701,0.849,36.951,4.889,27.03,28.948,7.782,6.057,4.99
1702,0.846,37.057,4.877,27.01,28.937,7.618,5.975,4.907
1703,0.853,37.145,4.885,27.048,28.951,7.779,6.096,5.191
1704,0.856,36.82,4.897,27.049,28.962,7.862,6.178,5.194
1705,0.849,36.922,4.866,27.039,28.944,7.7,5.976,5.031
1706,0.843,37.009,4.865,27.01,28.934,7.618,5.893,4.989
1707,0.843,37.096,4.881,27.048,28.951,7.739,6.095,5.151
1708,0.856,36.877,4.893,27.058,28.955,7.943,6.219,5.234
1709,0.843,36.99,4.881,27.02,28.944,7.701,6.017,4.991
1710,0.843,37.077,4.889,27.01,28.944,7.658,5.893,4.988
1711,0.839,37.155,4.889,27.039,28.948,7.78,6.095,5.11
1712,0.839,36.858,4.885,27.077,28.958,7.944,6.138,5.234
1713,0.836,36.97,4.885,27.02,28.944,7.742,6.016,5.032
1714,0.836,37.058,4.877,27.029,28.944,7.699,5.934,4.989
1715,0.839,37.126,4.877,27.039,28.948,7.74,6.136,5.11
1716,0.839,37.165,4.877,27.049,28.965,7.943,6.179,5.234
1717,0.836,37.251,4.873,27.02,28.951,7.742,6.017,5.032
1718,0.823,37.339,4.885,27.02,28.941,7.699,5.893,4.948
1719,0.833,37.09,4.885,27.029,28.955,7.821,6.054,5.069
1720,0.843,36.512,4.901,27.068,28.958,8.025,6.178,5.233
1721,0.833,36.612,4.889,27.02,28.944,7.824,6.057,5.072
1722,0.83,36.718,4.881,27.02,28.937,7.781,6.015,4.989
1723,0.833,36.614,4.862,27.039,28.948,8.025,6.096,5.151
1724,0.852,36.738,4.877,27.068,28.958,8.19,6.3,5.275
1725,0.833,36.835,4.885,27.03,28.944,8.11,6.099,4.991
1726,0.813,36.884,4.885,27.029,28.937,7.947,5.975,4.988
1727,0.829,36.52,4.881,27.049,28.951,8.148,6.177,5.11
1728,0.839,36.689,4.897,27.068,28.958,8.273,6.261,5.193
1729,0.826,36.767,4.893,27.03,28.941,8.071,6.099,4.99
1730,0.82,36.825,4.874,27.01,28.937,8.069,6.056,4.988
1731,0.833,36.653,4.881,27.048,28.951,8.191,6.178,5.151
1732,0.839,36.824,4.916,27.058,28.955,8.273,6.179,5.112
1733,0.82,36.884,4.885,27.02,28.937,8.111,6.098,4.989
1734,0.813,36.913,4.877,27.01,28.937,8.109,6.097,5.029
1735,0.839,36.645,4.885,27.029,28.951,8.15,6.138,5.07
1736,0.836,36.805,4.905,27.039,28.951,8.273,6.219,5.07
1737,0.836,36.864,4.819,27.029,28.944,8.111,6.098,5.03
1738,0.82,36.913,4.877,27.02,28.941,8.15,6.138,5.03
1739,0.83,36.482,4.885,27.039,28.944,8.232,6.179,5.111
1740,0.833,36.631,4.901,27.049,28.951,8.233,6.179,5.03
1741,0.839,36.7,4.893,27.03,28.944,8.233,6.017,5.07
1742,0.82,36.691,4.862,27.029,28.948,8.233,6.178,4.989
1743,0.836,36.499,4.889,27.039,28.951,8.355,6.261,5.192
1744,0.836,36.641,4.877,27.049,28.948,8.275,6.221,5.153
1745,0.826,36.738,4.862,27.03,28.93,8.193,6.139,5.031
1746,0.833,36.48,4.877,27.039,28.944,8.273,6.219,5.07
1747,0.846,36.477,4.881,27.068,28.948,8.274,6.22,5.152
1748,0.846,36.621,4.87,27.049,28.951,8.193,6.22,5.071
1749,0.827,36.68,4.877,27.03,28.941,8.192,6.18,5.07
1750,0.836,36.393,4.893,27.039,28.948,8.232,6.179,5.03
1751,0.839,36.534,4.893,27.049,28.951,8.355,6.22,5.111
1752,0.846,36.641,4.901,27.049,28.948,8.193,6.18,5.03
1753,0.84,36.709,4.87,27.02,28.937,8.11,6.139,4.989
1754,0.833,36.499,4.897,27.02,28.948,8.15,6.26,5.11
1755,0.843,36.641,4.881,27.048,28.951,8.15,6.221,5.071
1756,0.843,36.757,4.889,27.03,28.948,8.11,6.18,4.989
1757,0.839,36.797,4.862,27.01,28.941,8.028,6.139,4.988
1758,0.826,36.308,4.873,27.048,28.948,8.027,6.138,5.07
1759,0.833,36.447,4.869,27.068,28.951,8.027,6.179,5.111
1760,0.839,36.563,4.877,27.049,28.948,8.027,6.139,5.112
1761,0.83,36.593,4.877,27.02,28.937,7.865,6.098,4.989
1762,0.833,36.287,4.897,27.029,28.944,7.863,6.138,5.07
1763,0.83,36.437,4.913,27.049,28.951,7.863,6.179,5.111
1764,0.826,36.535,4.885,27.03,28.948,7.822,6.139,5.112
1765,0.83,36.564,4.885,27.039,28.941,7.7,6.138,5.071
1766,0.826,36.286,4.885,27.029,28.948,7.78,6.138,5.07
1767,0.843,36.428,4.877,27.058,28.951,7.781,6.26,5.07
1768,0.833,36.525,4.869,27.049,28.944,7.7,6.139,5.152
1769,0.817,36.574,4.877,27.01,28.944,7.658,6.057,5.031
1770,0.829,36.277,4.869,27.029,28.948,7.658,6.097,5.07
1771,0.826,36.437,4.877,27.049,28.958,7.698,6.138,5.03
1772,0.83,36.515,4.881,27.049,28.951,7.78,6.138,5.07
1773,0.82,36.19,4.885,27.03,28.951,7.74,6.138,5.03
1774,0.839,36.283,4.885,27.039,28.944,7.74,6.098,5.111
1775,0.843,36.418,4.885,27.039,28.951,7.862,6.178,5.112
1776,0.833,36.486,4.877,27.049,28.948,7.822,6.179,5.071
1777,0.826,36.314,4.873,27.02,28.951,7.944,6.098,5.07
1778,0.83,36.457,4.877,27.039,28.941,7.905,6.097,4.867
1779,0.833,36.611,4.877,27.049,28.944,7.985,6.138,5.109
1780,0.826,36.671,4.885,27.049,28.948,8.027,6.138,5.071
1781,0.826,36.077,4.873,27.02,28.951,7.946,6.138,5.111
1782,0.833,36.234,4.873,27.029,28.948,8.026,6.179,5.03
1783,0.836,36.36,4.877,27.058,28.955,8.149,6.22,5.07
1784,0.83,36.438,4.881,27.039,28.948,8.11,6.18,5.07
1785,0.83,36.141,4.885,27.039,28.948,8.028,6.139,5.152
1786,0.833,36.292,4.881,27.039,28.948,8.109,6.179,5.112
1787,0.839,36.399,4.885,27.049,28.951,8.191,6.22,5.112
1788,0.839,36.429,4.889,27.039,28.944,8.07,6.098,5.071
1789,0.839,36.218,4.87,27.039,28.948,8.15,6.178,5.152
1790,0.833,36.34,4.869,27.029,28.948,8.069,6.139,5.071
1791,0.836,36.476,4.881,27.039,28.944,8.15,6.219,5.03
1792,0.833,36.487,4.889,27.049,28.948,8.11,6.18,5.07
1793,0.83,36.209,4.873,27.039,28.951,8.109,6.179,5.111
1794,0.826,36.34,4.881,27.029,28.955,8.069,6.139,5.071
1795,0.843,36.447,4.901,27.039,28.944,8.069,6.179,5.07
1796,0.839,36.17,4.893,27.049,28.948,8.028,6.179,5.07
1797,0.836,36.139,4.889,27.039,28.948,8.068,6.139,5.152
1798,0.843,36.244,4.877,27.029,28.944,7.946,6.179,5.031
1799,0.849,36.341,4.873,27.039,28.948,8.026,6.139,5.07
1800,0.849,35.997,4.885,27.049,28.944,7.946,6.138,5.07
1801,0.849,36.108,4.881,27.077,28.958,7.945,6.301,5.233
1802,0.849,36.215,4.897,27.03,28.941,7.945,6.099,5.032
1803,0.859,36.302,4.889,27.049,28.941,7.986,6.016,4.948
1804,0.859,35.891,4.889,27.049,28.944,7.986,6.056,5.029
1805,0.859,36.011,4.885,27.058,28.951,8.027,6.178,5.233
1806,0.875,36.108,4.889,27.039,28.941,7.905,6.057,5.032
1807,0.889,36.205,4.893,27.029,28.948,7.904,6.097,5.07
1808,0.879,36.014,4.881,27.049,28.948,7.985,6.138,5.193
1809,0.885,36.156,4.901,27.049,28.955,7.946,6.179,5.153
1810,0.889,36.263,4.87,27.039,28.941,7.945,6.057,5.031
1811,0.905,36.341,4.865,27.049,28.944,7.823,6.015,4.989
1812,0.895,35.92,4.862,27.049,28.944,7.822,6.137,5.07
1813,0.905,36.069,4.869,27.058,28.958,7.903,6.26,5.152
1814,0.895,36.157,4.881,27.049,28.937,7.823,6.058,5.031
1815,0.899,36.215,4.873,27.03,28.944,7.741,6.056,4.907
1816,0.905,36.034,4.881,27.039,28.944,7.781,6.056,4.987
1817,0.912,36.156,4.905,27.058,28.965,7.944,6.219,5.11
1818,0.912,36.244,4.878,27.039,28.944,7.701,6.017,4.949
1819,0.931,36.379,4.877,27.029,28.948,7.658,6.015,4.907
1820,0.922,35.978,4.893,27.049,28.944,7.698,6.096,5.109
1821,0.931,36.108,4.885,27.077,28.958,7.699,6.219,5.193
1822,0.938,36.205,4.87,27.039,28.944,7.577,6.058,5.031
1823,0.938,35.899,4.865,27.029,28.948,7.616,6.056,4.948
1824,0.938,35.992,4.862,27.049,28.951,7.698,6.097,5.069
1825,0.945,36.118,4.889,27.068,28.962,7.821,6.219,5.233
1826,0.945,36.196,4.877,27.039,28.951,7.659,6.098,5.032
1827,0.961,35.765,4.885,27.029,28.944,7.495,6.016,5.03
1828,0.958,35.904,4.92,27.058,28.951,7.656,6.096,5.07
1829,0.964,36.04,4.901,27.087,28.958,7.739,6.219,5.193
1830,0.964,36.089,4.885,27.049,28.944,7.659,6.098,4.99
1831,0.977,35.927,4.877,27.03,28.944,7.617,6.016,4.907
1832,0.997,36.088,4.885,27.049,28.948,7.617,6.056,5.109
1833,0.987,36.195,4.885,27.087,28.955,7.698,6.259,5.152
1834,0.981,36.254,4.881,27.03,28.937,7.536,6.058,5.031
1835,0.984,35.823,4.877,27.039,28.948,7.494,5.975,4.867
1836,0.968,35.943,4.885,27.058,28.944,7.494,6.096,5.109
1837,0.984,36.069,4.893,27.058,28.958,7.616,6.178,5.193
1838,0.991,36.119,4.874,27.049,28.944,7.535,6.017,4.99
1839,0.984,35.755,4.912,27.049,28.937,7.534,6.015,4.988
1840,0.968,35.914,4.901,27.03,28.951,7.575,6.096,5.151
1841,0.964,36.031,4.897,27.068,28.958,7.657,6.219,5.193
1842,0.955,36.022,4.881,27.039,28.944,7.495,6.058,4.99
1843,0.971,35.83,4.877,27.039,28.937,7.494,6.015,4.948
1844,0.968,35.972,4.83,27.077,28.951,7.616,6.015,5.069
1845,0.974,36.098,4.881,27.078,28.955,7.698,6.218,5.193
1846,0.964,35.869,4.885,27.049,28.937,7.536,5.976,5.072
1847,0.987,35.829,4.881,27.039,28.944,7.534,5.974,5.03
1848,0.991,35.953,4.893,27.049,28.948,7.534,6.055,5.151
1849,0.994,36.06,4.885,27.058,28.958,7.738,6.178,5.234
1850,0.991,35.658,4.905,27.058,28.941,7.537,6.017,5.032
1851,0.991,35.779,4.885,27.049,28.944,7.534,5.934,4.989
1852,0.991,35.914,4.885,27.049,28.951,7.534,6.055,5.07
1853,0.991,36.011,4.893,27.058,28.958,7.657,6.137,5.193
1854,0.978,35.648,4.897,27.039,28.944,7.495,5.976,5.031
1855,0.971,35.788,4.862,27.039,28.944,7.412,5.893,4.948
1856,0.971,35.905,4.877,27.049,28.941,7.533,6.014,5.069
1857,0.961,36.002,4.901,27.058,28.965,7.534,6.137,5.152
1858,0.951,35.59,4.889,27.03,28.944,7.453,6.016,4.99
1859,0.954,35.74,4.885,27.039,28.948,7.412,5.893,5.029
1860,0.958,35.866,4.901,27.049,28.951,7.452,6.014,5.151
1861,0.951,35.934,4.909,27.077,28.955,7.615,6.137,5.153
1862,0.938,35.666,4.893,27.039,28.944,7.454,6.057,5.031
1863,0.919,35.779,4.885,27.039,28.941,7.412,5.975,4.989
1864,0.915,35.905,4.885,27.039,28.948,7.615,6.137,5.11
1865,0.918,35.944,4.889,27.077,28.955,7.698,6.219,5.274
1866,0.892,35.724,4.834,27.068,28.944,7.455,6.139,5.032
1867,0.882,35.847,4.877,27.058,28.934,7.452,6.057,4.948
1868,0.889,35.953,4.889,27.058,28.951,7.574,6.137,5.069
1869,0.885,36.175,4.885,27.049,28.951,7.657,6.301,5.152
1870,0.866,35.64,4.877,27.049,28.941,7.576,6.14,4.99
1871,0.853,35.779,4.877,27.039,28.937,7.494,6.098,4.948
1872,0.856,35.866,4.905,27.039,28.948,7.534,6.178,5.15
1873,0.859,35.675,4.889,27.068,28.955,7.616,6.342,5.193
1874,0.836,35.75,4.866,27.03,28.944,7.495,6.14,4.99
1875,0.849,35.856,4.881,27.02,28.941,7.371,6.057,4.948
1876,0.836,35.953,4.881,27.039,28.948,7.533,6.178,5.029
1877,0.849,35.532,4.842,27.097,28.955,7.616,6.261,5.192
1878,0.846,35.643,4.873,27.049,28.937,7.413,6.099,5.031
1879,0.836,35.75,4.881,27.049,28.941,7.411,6.056,4.989
1880,0.826,35.856,4.897,27.058,28.948,7.452,6.137,5.029
1881,0.82,35.522,4.893,27.058,28.951,7.534,6.219,5.151
1882,0.813,35.634,4.877,27.03,28.944,7.331,6.058,4.949
1883,0.803,35.75,4.893,27.039,28.937,7.37,6.015,4.988
1884,0.81,35.837,4.897,27.058,28.951,7.452,6.137,5.07
1885,0.813,35.426,4.897,27.078,28.958,7.534,6.26,5.233
1886,0.813,35.565,4.885,27.049,28.941,7.412,6.099,5.032
1887,0.794,35.701,4.889,27.049,28.944,7.371,6.056,4.948
1888,0.8,35.76,4.827,27.077,28.948,7.452,6.219,5.029
1889,0.79,35.511,4.888,27.087,28.955,7.534,6.22,5.111
1890,0.78,35.662,4.866,27.04,28.944,7.372,6.017,5.03
1891,0.787,35.74,4.885,27.029,28.944,7.37,6.056,4.989
1892,0.787,35.77,4.885,27.068,28.948,7.492,6.219,5.029
1893,0.774,35.617,4.877,27.058,28.951,7.534,6.139,5.192
1894,0.78,35.73,4.893,27.039,28.944,7.453,6.138,5.031
1895,0.78,35.837,4.893,27.049,28.951,7.412,6.138,4.948
1896,0.771,35.57,4.893,27.049,28.948,7.411,6.098,4.947
1897,0.767,35.433,4.893,27.049,28.944,7.493,6.138,5.069
1898,0.761,35.594,4.877,27.039,28.951,7.453,6.098,4.989
1899,0.774,35.692,4.893,27.106,28.948,7.452,6.138,5.07
1900,0.777,35.434,4.877,27.078,28.955,7.452,6.219,5.07
1901,0.774,35.566,4.873,27.087,28.955,7.493,6.22,5.193
1902,0.774,35.672,4.877,27.04,28.944,7.371,6.098,4.99
1903,0.774,35.779,4.889,27.058,28.948,7.452,6.016,4.988
1904,0.784,35.502,4.885,27.058,28.948,7.371,6.178,5.07
1905,0.78,35.643,4.912,27.078,28.958,7.492,6.301,5.274
1906,0.774,35.74,4.866,27.049,28.941,7.331,6.058,5.032
1907,0.78,35.828,4.873,27.049,28.941,7.248,5.975,4.948
1908,0.774,35.445,4.897,27.058,28.941,7.288,6.137,5.069
1909,0.784,35.614,4.881,27.068,28.958,7.41,6.219,5.193
1910,0.767,35.702,4.881,27.058,28.948,7.289,6.017,5.031
1911,0.78,35.77,4.881,27.049,28.941,7.207,5.974,4.907
1912,0.767,35.358,4.87,27.058,28.944,7.206,6.096,5.028
1913,0.777,35.498,4.897,27.078,28.955,7.369,6.26,5.151
1914,0.771,35.614,4.885,27.03,28.948,7.33,6.017,4.99
1915,0.78,35.644,4.881,27.029,28.941,7.207,5.974,4.948
1916,0.777,35.395,4.901,27.049,28.951,7.45,6.055,5.029
1917,0.771,35.575,4.897,27.077,28.955,7.534,6.259,5.111
1918,0.77,35.682,4.885,27.059,28.944,7.453,5.977,5.03
1919,0.757,35.98,4.893,27.039,28.937,7.574,6.055,4.907
1920,0.761,35.341,4.909,27.049,28.951,7.698,6.015,5.109
1921,0.761,35.488,4.893,27.068,28.955,7.74,6.218,5.193
1922,0.761,35.557,4.87,27.068,28.944,7.699,5.976,4.99
1923,0.764,35.471,4.869,27.068,28.941,7.699,5.974,4.988
1924,0.77,35.576,4.846,27.078,28.944,7.821,6.015,5.11
1925,0.767,35.74,4.885,27.087,28.958,7.985,6.178,5.152
1926,0.761,35.799,4.877,27.049,28.948,7.864,6.057,5.031
1927,0.761,35.617,4.893,27.03,28.934,7.782,5.934,4.989
1928,0.77,35.798,4.893,27.049,28.948,7.903,6.096,5.11
1929,0.783,35.934,4.897,27.077,28.955,8.026,6.178,5.152
1930,0.777,35.983,4.885,27.039,28.944,7.865,5.976,5.031
1931,0.761,35.063,4.877,27.02,28.941,7.7,5.852,4.907
1932,0.761,35.245,4.877,27.068,28.944,7.902,6.054,5.069
1933,0.774,35.381,4.877,27.097,28.962,7.985,6.137,5.111
1934,0.764,35.402,4.877,27.049,28.941,7.783,5.935,4.908
1935,0.774,35.287,4.866,27.039,28.937,7.659,5.933,4.906
1936,0.774,35.478,4.877,27.058,28.951,7.78,6.055,5.069
1937,0.78,35.614,4.885,27.087,28.962,7.862,6.015,4.989
1938,0.774,35.606,4.881,27.059,28.944,7.741,5.974,4.988
1939,0.764,35.203,4.885,27.039,28.944,7.659,5.974,5.029
1940,0.767,35.352,4.897,27.068,28.951,7.739,6.015,5.07
1941,0.78,35.488,4.909,27.068,28.951,7.618,6.056,4.989
1942,0.771,35.47,4.893,27.03,28.941,7.576,5.975,5.029
1943,0.774,35.326,4.881,27.058,28.944,7.575,6.015,4.989
1944,0.784,35.488,4.881,27.068,28.958,7.657,6.096,5.07
1945,0.777,35.585,4.881,27.068,28.951,7.536,6.016,5.07
1946,0.774,35.327,4.858,27.049,28.941,7.453,5.974,5.03
1947,0.78,35.191,4.873,27.068,28.951,7.534,6.055,5.151
1948,0.787,35.333,4.893,27.078,28.951,7.534,6.015,5.112
1949,0.787,35.43,4.893,27.059,28.955,7.453,6.015,5.071
1950,0.777,35.211,4.893,27.049,28.944,7.452,5.974,4.989
1951,0.793,35.362,4.897,27.058,28.944,7.452,5.974,4.988
1952,0.806,35.469,4.905,27.068,28.948,7.534,6.096,5.029
1953,0.813,35.556,4.889,27.068,28.951,7.453,5.975,5.03
1954,0.833,35.145,4.873,27.039,28.941,7.493,5.933,4.989
1955,0.865,35.313,4.877,27.058,28.948,7.575,5.974,5.029
1956,0.895,35.421,4.889,27.058,28.948,7.657,6.055,4.989
1957,0.902,35.498,4.877,27.058,28.944,7.617,5.934,5.029
1958,0.931,35.163,4.862,27.049,28.937,7.617,5.933,4.989
1959,0.961,35.313,4.889,27.058,28.941,7.698,5.933,4.988
1960,0.99,35.459,4.901,27.068,28.948,7.74,6.014,5.029
1961,1.007,35.499,4.889,27.078,28.948,7.781,5.974,5.07
1962,1.023,35.279,4.873,27.049,28.951,7.74,5.974,5.111
1963,1.04,35.43,4.881,27.068,28.948,7.699,5.974,4.989
1964,1.063,35.556,4.897,27.078,28.951,7.74,6.055,5.07
1965,1.076,35.586,4.877,27.059,28.948,7.699,6.015,5.111
1966,1.083,35.27,4.869,27.058,28.944,7.74,6.015,5.071
1967,1.086,35.401,4.881,27.058,28.951,7.74,5.974,5.07
1968,1.079,35.517,4.893,27.078,28.951,7.699,5.974,5.03
1969,1.089,35.95,4.874,27.059,28.951,7.699,5.974,5.03
1970,1.105,35.168,4.866,27.068,28.944,7.74,6.015,5.03
1971,1.083,35.313,4.893,27.049,28.948,7.74,5.974,5.03
1972,1.07,35.43,4.885,27.077,28.951,7.74,6.015,5.111
1973,1.03,35.163,4.897,27.059,28.951,7.74,6.015,5.071
1974,0.975,35.198,4.881,27.049,28.944,7.74,5.974,5.07
1975,0.935,35.352,4.885,27.068,28.944,7.74,5.974,5.07
1976,0.896,35.469,4.889,27.058,28.955,7.699,6.055,5.07
1977,0.837,35.0,4.862,27.058,28.948,7.699,5.934,5.03
1978,0.784,35.13,4.893,27.058,28.948,7.658,5.933,5.03
1979,0.738,35.237,4.87,27.058,28.944,7.658,5.933,5.03
1980,0.686,35.333,4.881,27.068,28.948,7.658,5.974,5.07
1981,0.61,35.21,4.893,27.049,28.951,7.617,5.893,5.03
1982,0.541,35.324,4.893,27.058,28.948,7.576,6.014,5.07
1983,0.472,35.44,4.881,27.068,28.951,7.616,5.974,5.07
1984,0.4,35.546,4.881,27.087,28.951,7.617,5.974,5.03
1985,0.357,35.078,4.893,27.059,28.948,7.495,6.015,5.07
1986,0.34,35.207,4.893,27.087,28.948,7.575,6.056,5.152
1987,0.33,35.343,4.862,27.068,28.948,7.535,5.975,5.153
1988,0.307,35.392,4.873,27.087,28.951,7.616,6.015,5.112
1989,0.258,35.153,4.885,27.068,28.948,7.576,5.974,5.152
1990,0.18,35.285,4.823,27.097,28.944,7.535,6.015,5.153
1991,0.137,35.401,4.865,27.068,28.941,7.453,5.934,5.193
1992,0.133,35.421,4.865,27.087,28.944,7.493,5.974,5.072
1993,0.117,35.182,4.881,27.068,28.948,7.534,6.055,5.152
1994,0.074,35.333,4.889,27.058,28.948,7.534,6.056,5.234
1995,0.041,35.43,4.877,27.058,28.941,7.453,5.975,5.113
1996,0.022,35.23,4.897,27.078,28.948,7.493,5.974,5.071
1997,0.021,35.055,4.889,27.078,28.948,7.534,5.974,5.193
1998,0.044,35.178,4.885,27.059,28.948,7.575,6.015,5.275
1999,0.083,35.285,4.87,27.049,28.944,7.413,6.015,5.195
2000,0.139,35.133,4.893,27.087,28.944,7.533,5.974,5.153
2001,0.182,35.265,4.885,27.078,28.944,7.494,6.015,5.193
2002,0.228,35.401,4.881,27.087,28.955,7.575,6.015,5.356
2003,0.267,35.46,4.873,27.068,28.941,7.413,5.974,5.155
2004,0.307,34.866,4.85,27.058,28.944,7.33,5.893,5.193
2005,0.346,35.023,4.873,27.078,28.951,7.451,6.014,5.316
2006,0.382,35.149,4.881,27.107,28.948,7.493,6.096,5.358
2007,0.399,35.198,4.877,27.049,28.944,7.371,5.935,5.236
2008,0.428,35.007,4.881,27.087,28.941,7.37,5.974,5.235
2009,0.458,35.159,4.885,27.087,28.955,7.411,5.974,5.316
2010,0.481,35.294,4.893,27.078,28.958,7.574,6.177,5.398
2011,0.504,35.315,4.889,27.059,28.944,7.454,5.895,5.196
2012,0.521,34.999,4.877,27.068,28.941,7.371,5.973,5.275
2013,0.553,35.149,4.877,27.068,28.948,7.452,6.055,5.357
2014,0.583,35.256,4.901,27.097,28.951,7.615,6.056,5.439
2015,0.593,35.286,4.874,27.078,28.941,7.413,5.934,5.277
2016,0.629,35.152,4.869,27.049,28.944,7.452,5.892,5.195
2017,0.645,35.294,4.889,27.068,28.944,7.452,6.014,5.275
2018,0.665,35.392,4.905,27.068,28.955,7.615,6.015,5.357
2019,0.678,35.776,4.885,27.058,28.944,7.495,5.893,5.317
2020,0.698,35.013,4.877,27.087,28.948,7.494,5.892,5.276
2021,0.714,35.139,4.901,27.068,28.948,7.494,5.973,5.398
2022,0.731,35.256,4.901,27.097,28.955,7.575,6.055,5.44
2023,0.738,34.912,4.885,27.068,28.944,7.494,5.975,5.318
2024,0.744,34.937,4.889,27.078,28.944,7.371,5.974,5.317
2025,0.773,35.072,4.885,27.068,28.951,7.533,6.015,5.398
2026,0.787,35.198,4.823,27.126,28.958,7.575,6.137,5.562
2027,0.79,34.959,4.869,27.069,28.944,7.372,5.935,5.36
2028,0.79,35.091,4.881,27.049,28.934,7.248,5.892,5.317
2029,0.803,35.227,4.87,27.087,28.951,7.369,6.014,5.398
2030,0.807,35.333,4.889,27.107,28.958,7.411,6.137,5.48
2031,0.787,34.826,4.877,27.059,28.941,7.249,5.935,5.318
2032,0.787,34.955,4.901,27.049,28.941,7.166,5.852,5.276
2033,0.803,35.101,4.893,27.097,28.951,7.328,6.054,5.398
2034,0.803,35.198,4.893,27.097,28.958,7.41,6.137,5.48
2035,0.8,34.997,4.877,27.059,28.937,7.249,5.935,5.318
2036,0.803,35.13,4.873,27.039,28.934,7.125,5.852,5.236
2037,0.81,35.284,4.897,27.125,28.948,7.205,5.973,5.357
2038,0.813,35.353,4.877,27.107,28.962,7.328,6.177,5.48
2039,0.807,34.721,4.885,27.078,28.944,7.167,5.976,5.278
2040,0.8,34.839,4.877,27.049,28.934,7.084,5.852,5.276
2041,0.816,34.984,4.893,27.097,28.951,7.205,6.013,5.398
2042,0.813,35.053,4.901,27.116,28.962,7.287,6.137,5.562
2043,0.81,34.891,4.874,27.059,28.944,7.085,6.057,5.319
2044,0.813,35.014,4.873,27.058,28.934,7.083,5.934,5.236
2045,0.816,35.168,4.893,27.097,28.948,7.205,6.014,5.397
2046,0.839,35.036,4.889,27.116,28.962,7.369,6.178,5.562
2047,0.83,34.814,4.873,27.078,28.937,7.167,6.057,5.319
2048,0.813,34.907,4.881,27.068,28.934,7.165,5.975,5.195
2049,0.816,35.033,4.873,27.097,28.951,7.328,6.096,5.438
2050,0.836,34.862,4.908,27.107,28.958,7.492,6.178,5.481
2051,0.807,34.927,4.897,27.059,28.948,7.29,6.017,5.237
2052,0.807,35.033,4.866,27.068,28.937,7.288,6.015,5.275
2053,0.82,35.149,4.889,27.097,28.951,7.369,6.056,5.438
2054,0.83,35.15,4.909,27.116,28.958,7.533,6.137,5.399
2055,0.823,35.265,4.889,27.069,28.944,7.331,5.976,5.277
2056,0.804,35.353,4.866,27.049,28.937,7.248,6.015,5.235
2057,0.816,35.459,4.893,27.087,28.944,7.369,6.137,5.316
2058,0.826,34.54,4.893,27.116,28.958,7.533,6.219,5.398
2059,0.8,34.636,4.874,27.078,28.944,7.372,6.098,5.277
2060,0.81,34.733,4.869,27.068,28.93,7.33,6.016,5.276
2061,0.826,34.849,4.889,27.078,28.954,7.451,6.137,5.438
2062,0.833,34.898,4.893,27.107,28.965,7.574,6.179,5.481
2063,0.813,34.985,4.893,27.078,28.941,7.454,6.057,5.278
2064,0.813,35.101,4.87,27.049,28.937,7.371,5.975,5.195
2065,0.833,35.169,4.897,27.087,28.948,7.533,6.096,5.397
2066,0.839,34.642,4.909,27.126,28.958,7.616,6.178,5.44
2067,0.823,34.733,4.862,27.088,28.941,7.454,6.017,5.318
2068,0.826,34.83,4.877,27.059,28.937,7.371,5.974,5.276
2069,0.833,34.927,4.897,27.087,28.948,7.533,6.137,5.357
2070,0.843,34.899,4.893,27.107,28.958,7.616,6.219,5.439
2071,0.83,35.004,4.866,27.078,28.948,7.413,6.017,5.237
2072,0.82,35.082,4.858,27.059,28.93,7.289,5.893,5.194
2073,0.836,34.757,4.854,27.097,28.948,7.491,6.176,5.356
2074,0.846,34.782,4.881,27.126,28.955,7.534,6.179,5.399
2075,0.82,34.878,4.877,27.069,28.948,7.291,5.976,5.236
2076,0.82,34.927,4.869,27.068,28.934,7.329,6.015,5.275
2077,0.823,34.822,4.897,27.078,28.951,7.37,6.096,5.316
2078,0.83,34.975,4.905,27.087,28.951,7.37,6.097,5.358
2079,0.826,35.043,4.889,27.059,28.941,7.208,6.016,5.236
2080,0.826,35.149,4.881,27.078,28.948,7.206,6.096,5.357
2081,0.836,34.546,4.893,27.087,28.955,7.287,6.138,5.358
2082,0.839,34.674,4.877,27.087,28.948,7.166,6.098,5.317
2083,0.83,34.791,4.877,27.068,28.937,7.124,6.016,5.236
2084,0.833,34.898,4.846,27.106,28.948,7.165,6.015,5.316
2085,0.83,34.611,4.877,27.107,28.955,7.165,6.137,5.398
2086,0.826,34.761,4.873,27.078,28.944,7.043,6.057,5.44
2087,0.826,34.84,4.877,27.068,28.944,7.001,5.975,5.277
2088,0.846,34.927,4.877,27.078,28.944,7.041,6.015,5.316
2089,0.846,34.621,4.881,27.097,28.955,7.123,6.096,5.317
2090,0.84,34.723,4.881,27.088,28.944,7.083,6.097,5.317
2091,0.83,34.859,4.877,27.078,28.941,7.002,5.935,5.276
2092,0.839,34.898,4.885,27.078,28.948,7.001,6.014,5.276
2093,0.852,34.678,4.87,27.087,28.951,7.041,6.137,5.316
2094,0.84,34.82,4.869,27.068,28.944,7.001,6.057,5.317
2095,0.833,34.898,4.865,27.049,28.944,6.879,6.015,5.236
2096,0.846,34.908,4.862,27.058,28.948,6.959,6.015,5.235
2097,0.84,34.717,4.885,27.087,28.951,7.0,6.096,5.316
2098,0.846,34.83,4.873,27.078,28.944,6.96,6.097,5.317
2099,0.846,34.927,4.881,27.068,28.944,6.878,5.935,5.317
2100,0.843,34.525,4.877,27.087,28.951,6.959,5.974,5.317
2101,0.849,34.598,4.912,27.087,28.948,7.0,6.015,5.317
2102,0.853,34.752,4.901,27.087,28.951,7.082,6.056,5.317
2103,0.853,34.84,4.897,27.087,28.951,7.083,6.097,5.317
2104,0.862,34.505,4.889,27.078,28.944,7.164,6.016,5.195
2105,0.853,34.664,4.885,27.097,28.941,7.206,6.015,5.316
2106,0.843,34.8,4.881,27.097,28.948,7.247,6.056,5.236
2107,0.853,34.869,4.881,27.107,28.948,7.369,6.097,5.438
2108,0.856,34.515,4.877,27.078,28.948,7.411,6.016,5.277
2109,0.856,34.674,4.889,27.087,28.948,7.493,5.974,5.276
2110,0.853,34.81,4.889,27.097,28.948,7.494,6.015,5.235
2111,0.862,34.859,4.885,27.107,28.955,7.697,6.056,5.316
2112,0.846,34.495,4.901,27.097,28.941,7.536,5.975,5.276
2113,0.846,34.664,4.885,27.088,28.944,7.616,5.974,5.195
2114,0.853,34.762,4.893,27.087,28.948,7.657,6.015,5.316
2115,0.856,34.811,4.893,27.087,28.958,7.739,6.056,5.317
2116,0.856,34.524,4.881,27.059,28.944,7.659,6.015,5.236
2117,0.853,34.684,4.885,27.097,28.944,7.576,5.974,5.153
2118,0.856,34.81,4.877,27.088,28.951,7.616,6.015,5.315
2119,0.866,34.821,4.877,27.116,28.955,7.698,6.137,5.439
2120,0.866,34.505,4.854,27.078,28.944,7.618,5.935,5.196
2121,0.872,34.626,4.885,27.078,28.951,7.495,6.014,5.112
2122,0.866,34.752,4.889,27.087,28.944,7.616,5.934,5.234
2123,0.876,34.562,4.881,27.087,28.955,7.698,6.096,5.316
2124,0.869,34.588,4.893,27.078,28.948,7.496,5.975,5.236
2125,0.866,34.713,4.889,27.087,28.944,7.494,5.893,5.235
2126,0.882,34.81,4.905,27.087,28.955,7.575,6.054,5.316
2127,0.885,34.437,4.889,27.116,28.958,7.616,6.056,5.398
2128,0.882,34.539,4.889,27.078,28.944,7.373,5.853,5.277
2129,0.869,34.665,4.873,27.078,28.941,7.289,5.81,5.113
2130,0.872,34.781,4.862,27.097,28.948,7.451,5.972,5.315
2131,0.879,34.36,4.822,27.126,28.955,7.534,6.015,5.439
2132,0.869,34.471,4.857,27.078,28.944,7.412,5.974,5.237
2133,0.859,34.578,4.861,27.068,28.934,7.249,5.811,5.194
2134,0.862,34.684,4.897,27.087,28.948,7.328,6.013,5.316
2135,0.879,34.398,4.897,27.126,28.958,7.41,6.096,5.398
2136,0.863,34.52,4.889,27.088,28.944,7.33,5.894,5.236
2137,0.849,34.607,4.885,27.049,28.941,7.207,5.851,5.113
2138,0.859,34.694,4.893,27.087,28.955,7.369,5.973,5.274
2139,0.879,34.427,4.889,27.126,28.962,7.492,6.055,5.357
2140,0.879,34.491,4.87,27.088,28.948,7.209,5.893,5.277
2141,0.863,34.626,4.881,27.068,28.93,7.206,5.892,5.154
2142,0.872,34.694,4.885,27.087,28.951,7.287,6.054,5.315
2143,0.892,35.309,4.893,27.126,28.955,7.329,6.056,5.317
2144,0.873,35.392,4.877,27.088,28.944,7.207,5.975,5.236
2145,0.869,35.479,4.866,27.078,28.937,7.125,5.893,5.153
2146,0.898,34.962,4.877,27.116,28.941,7.327,6.054,5.315
2147,0.889,33.95,4.901,27.126,28.951,7.207,5.975,5.317
2148,0.869,34.036,4.901,27.088,28.944,7.165,5.811,5.195
2149,0.882,34.161,4.881,27.087,28.951,7.124,5.972,5.275
2150,0.869,34.278,4.893,27.087,28.948,7.287,5.974,5.316
2151,0.885,34.432,4.889,27.097,28.951,7.166,5.852,5.195
2152,0.879,34.539,4.877,27.088,28.948,7.084,5.851,5.194
2153,0.866,34.627,4.877,27.087,28.955,7.123,5.932,5.194
2154,0.876,34.234,4.877,27.097,28.948,7.205,5.892,5.234
2155,0.876,34.365,4.897,27.088,28.948,7.165,5.973,5.235
2156,0.869,34.471,4.877,27.078,28.944,7.124,5.771,5.153
2157,0.885,34.587,4.877,27.087,28.948,7.083,5.891,5.193
2158,0.882,34.205,4.881,27.097,28.951,7.205,5.973,5.316
2159,0.879,34.335,4.885,27.097,28.951,7.165,5.893,5.276
2160,0.869,34.461,4.885,27.068,28.941,7.084,5.811,5.154
2161,0.885,34.559,4.877,27.078,28.944,7.123,5.891,5.193
2162,0.895,34.425,4.909,27.097,28.948,7.205,5.933,5.234
2163,0.892,34.577,4.878,27.097,28.948,7.165,5.892,5.235
2164,0.879,34.675,4.869,27.097,28.944,7.084,5.851,5.194
2165,0.885,34.724,4.862,27.107,28.941,7.164,5.851,5.275
2166,0.892,34.331,4.877,27.107,28.955,7.206,5.851,5.276
2167,0.902,34.442,4.877,27.088,28.948,7.206,5.851,5.276
2168,0.886,34.558,4.877,27.087,28.937,7.165,5.81,5.195
2169,0.902,34.588,4.869,27.107,28.937,7.246,5.81,5.112
2170,0.899,34.493,4.901,27.088,28.944,7.328,5.85,5.315
2171,0.882,34.636,4.901,27.097,28.944,7.37,5.81,5.236
2172,0.892,34.723,4.885,27.068,28.941,7.289,5.769,5.153
2173,0.895,34.465,4.881,27.087,28.948,7.369,5.809,5.234
2174,0.892,34.444,4.897,27.116,28.951,7.492,5.85,5.194
2175,0.892,34.539,4.889,27.088,28.948,7.453,5.851,5.234
2176,0.886,34.655,4.877,27.087,28.944,7.534,5.81,5.194
2177,0.889,34.522,4.881,27.068,28.944,7.534,5.769,5.194
2178,0.902,34.646,4.885,27.106,28.951,7.534,5.891,5.153
2179,0.886,34.791,4.877,27.116,28.944,7.616,5.811,5.275
2180,0.882,34.85,4.869,27.088,28.944,7.495,5.769,5.235
2181,0.889,34.572,4.877,27.078,28.951,7.534,5.768,5.194
2182,0.895,34.742,4.897,27.116,28.951,7.616,5.85,5.234
2183,0.886,34.849,4.893,27.097,28.944,7.657,5.769,5.194
2184,0.898,34.898,4.889,27.078,28.944,7.576,5.809,5.234
2185,0.899,34.745,4.893,27.087,28.944,7.657,5.769,5.194
2186,0.915,34.916,4.889,27.107,28.948,7.739,5.931,5.234
2187,0.905,35.014,4.881,27.097,28.948,7.699,5.852,5.235
2188,0.892,35.063,4.881,27.097,28.941,7.618,5.891,5.194
2189,0.905,34.824,4.854,27.097,28.944,7.617,5.811,5.153
2190,0.912,34.975,4.873,27.116,28.951,7.739,5.891,5.234
2191,0.895,35.082,4.881,27.097,28.951,7.74,5.892,5.275
2192,0.892,35.092,4.889,27.088,28.944,7.659,5.77,5.235
2193,0.886,35.083,4.881,27.097,28.941,7.698,5.809,5.194
2194,0.892,35.207,4.885,27.107,28.951,7.699,5.85,5.234
2195,0.902,35.304,4.885,27.078,28.948,7.699,5.891,5.194
