time,ecg,bvp,gsr,rsp,skt,emg_zygo,emg_coru,emg_trap
0,1.155,34.601,18.842,32.934,33.193,7.454,7.618,6.426
1,1.142,34.704,18.881,32.953,33.2,7.493,7.698,6.548
2,1.168,34.877,18.901,32.972,33.207,7.534,7.658,6.468
3,1.168,34.927,18.846,32.934,33.214,7.494,7.617,6.345
4,1.171,34.707,18.857,32.934,33.204,7.453,7.617,6.384
5,1.155,34.849,18.893,32.953,33.2,7.412,7.657,6.385
6,1.158,35.004,18.971,32.972,33.207,7.533,7.617,6.629
7,1.165,35.082,18.921,32.992,33.214,7.534,7.698,6.509
8,1.152,34.968,18.889,32.973,33.211,7.453,7.536,6.467
9,1.152,35.091,18.873,32.963,33.211,7.452,7.575,6.426
10,1.152,35.198,18.869,32.963,33.2,7.412,7.616,6.466
11,1.158,35.237,18.897,32.972,33.214,7.411,7.698,6.467
12,1.168,35.276,18.889,32.982,33.211,7.411,7.618,6.467
13,1.158,35.382,18.873,32.944,33.207,7.208,7.495,6.223
14,1.148,35.488,18.869,32.953,33.207,7.369,7.534,6.342
15,1.165,35.451,18.865,32.972,33.204,7.289,7.534,6.343
16,1.171,35.441,18.928,32.953,33.2,7.247,7.616,6.384
17,1.171,35.556,18.948,32.963,33.204,7.166,7.454,6.303
18,1.171,35.634,18.874,32.944,33.2,7.206,7.493,6.302
19,1.175,35.635,18.889,32.972,33.211,7.247,7.616,6.465
20,1.194,35.788,18.897,33.011,33.214,7.288,7.617,6.386
21,1.204,35.905,18.881,32.973,33.204,7.166,7.535,6.344
22,1.194,35.963,18.885,32.973,33.204,7.124,7.534,6.303
23,1.188,35.801,18.897,32.963,33.207,7.165,7.494,6.343
24,1.194,35.943,18.889,32.982,33.214,7.206,7.534,6.343
25,1.178,36.088,18.885,32.973,33.204,7.084,7.494,6.303
26,1.175,36.147,18.952,32.973,33.214,7.164,7.412,6.221
27,1.171,36.225,18.905,32.944,33.2,7.002,7.33,6.302
28,1.165,36.379,18.897,32.972,33.204,7.204,7.41,6.302
29,1.168,36.505,18.889,32.953,33.211,7.206,7.411,6.343
30,1.168,36.535,18.901,32.953,33.204,7.206,7.411,6.221
31,1.165,36.42,18.881,32.953,33.2,7.165,7.33,6.22
32,1.155,36.553,18.877,32.972,33.204,7.206,7.41,6.302
33,1.155,36.66,18.916,32.982,33.211,7.287,7.493,6.425
34,1.174,36.748,18.807,33.011,33.221,7.41,7.534,6.385
35,1.181,36.758,18.869,32.973,33.207,7.249,7.412,6.344
36,1.181,36.864,18.928,32.982,33.211,7.288,7.452,6.303
37,1.181,36.97,18.929,32.973,33.207,7.288,7.412,6.343
38,1.175,37.134,18.886,33.001,33.211,7.329,7.371,6.384
39,1.175,36.935,18.866,33.002,33.218,7.37,7.411,6.344
40,1.175,37.067,18.904,32.973,33.207,7.248,7.289,6.221
41,1.162,37.135,18.87,32.944,33.193,7.247,7.288,6.261
42,1.155,37.136,18.897,32.972,33.204,7.288,7.329,6.302
43,1.152,37.242,18.94,32.982,33.207,7.329,7.329,6.384
44,1.145,37.358,18.773,32.982,33.197,7.289,7.289,6.303
45,1.116,37.455,18.88,32.973,33.204,7.288,7.288,6.302
46,1.106,37.513,18.912,32.953,33.2,7.247,7.369,6.425
47,1.102,37.648,18.94,33.011,33.218,7.41,7.37,6.466
48,1.099,37.803,18.866,33.021,33.218,7.289,7.37,6.426
49,1.093,37.843,18.858,32.992,33.218,7.288,7.289,6.385
50,1.089,37.594,18.92,32.982,33.211,7.288,7.369,6.425
51,1.092,37.735,18.885,32.992,33.214,7.288,7.33,6.466
52,1.086,37.832,18.897,33.03,33.214,7.329,7.289,6.507
53,1.083,37.9,18.948,33.002,33.207,7.37,7.207,6.467
54,1.079,37.844,18.804,32.982,33.2,7.167,7.125,6.345
55,1.06,37.977,18.876,32.963,33.2,7.206,7.205,6.466
56,1.066,38.084,18.912,32.992,33.207,7.206,7.206,6.467
57,1.063,38.133,18.913,32.973,33.2,7.165,7.125,6.467
58,1.053,38.191,18.889,32.973,33.2,7.165,7.083,6.386
59,1.047,38.297,18.85,32.982,33.197,7.124,7.123,6.466
60,1.04,38.394,18.904,32.992,33.207,7.165,7.205,6.589
61,1.05,38.453,18.905,33.03,33.221,7.328,7.328,6.631
62,1.04,38.377,18.893,32.983,33.211,7.248,7.167,6.509
63,1.027,38.453,18.936,32.992,33.204,7.166,7.124,6.508
64,1.023,38.559,18.823,33.011,33.207,7.206,7.205,6.508
65,1.01,38.512,18.881,33.021,33.207,7.287,7.206,6.467
66,0.988,38.559,18.905,33.031,33.211,7.329,7.165,6.548
67,0.968,38.665,18.924,33.011,33.207,7.289,7.206,6.468
68,0.955,38.705,18.889,32.963,33.197,7.207,7.043,6.426
69,0.941,38.648,18.866,32.982,33.211,7.247,7.123,6.466
70,0.935,38.772,18.924,33.011,33.204,7.369,7.165,6.507
71,0.925,38.878,18.889,32.992,33.2,7.248,7.124,6.386
72,0.912,38.947,18.893,33.011,33.2,7.206,7.083,6.425
73,0.895,39.436,18.94,32.992,33.207,7.287,7.164,6.426
74,0.892,39.585,18.843,33.011,33.214,7.41,7.246,6.588
75,0.908,39.711,18.881,33.04,33.221,7.452,7.328,6.59
76,0.912,39.77,18.862,33.021,33.204,7.371,7.207,6.427
77,0.908,38.783,18.904,33.002,33.207,7.411,7.247,6.426
78,0.912,38.917,18.901,33.011,33.211,7.371,7.328,6.507
79,0.905,39.043,18.874,33.011,33.211,7.452,7.451,6.467
80,0.902,39.092,18.916,33.021,33.211,7.412,7.574,6.467
81,0.899,38.949,18.878,33.011,33.211,7.452,7.616,6.386
82,0.899,39.043,18.897,32.973,33.2,7.29,7.617,6.263
83,0.886,39.14,18.889,33.011,33.211,7.41,7.779,6.384
84,0.889,39.199,18.87,33.002,33.211,7.452,7.822,6.344
85,0.866,39.247,18.912,33.002,33.197,7.412,7.944,6.343
86,0.853,39.353,18.94,32.982,33.207,7.411,8.026,6.303
87,0.84,39.44,18.921,33.001,33.204,7.371,8.068,6.302
88,0.843,39.432,18.831,33.011,33.218,7.533,8.272,6.465
89,0.846,39.249,18.869,33.069,33.221,7.575,8.274,6.426
90,0.846,39.353,18.94,33.002,33.211,7.413,8.233,6.344
91,0.833,39.44,18.894,33.021,33.214,7.411,8.314,6.303
92,0.82,39.211,18.897,33.021,33.207,7.452,8.396,6.425
93,0.813,39.295,18.905,33.021,33.211,7.452,8.356,6.344
94,0.816,39.43,18.827,33.031,33.211,7.412,8.437,6.343
95,0.826,39.499,18.881,33.04,33.207,7.371,8.316,6.221
96,0.826,39.202,18.897,32.992,33.193,7.208,8.234,6.22
97,0.81,39.324,18.948,33.001,33.207,7.328,8.355,6.18
98,0.813,39.459,18.913,33.011,33.207,7.289,8.275,6.301
99,0.81,39.537,18.893,33.011,33.207,7.288,8.314,6.343
100,0.803,39.346,18.932,33.002,33.204,7.288,8.193,6.14
101,0.794,39.479,18.854,33.011,33.207,7.207,8.151,6.26
102,0.806,39.614,18.889,33.05,33.214,7.287,8.395,6.343
103,0.813,39.673,18.928,33.06,33.214,7.369,8.275,6.303
104,0.81,39.424,18.784,33.05,33.207,7.289,8.233,6.302
105,0.79,39.556,18.869,33.04,33.214,7.247,8.192,6.302
106,0.787,39.663,18.908,33.031,33.214,7.288,8.151,6.302
107,0.787,39.683,18.948,33.05,33.214,7.288,8.191,6.302
108,0.777,39.329,18.921,33.04,33.214,7.207,8.11,6.221
109,0.777,39.44,18.917,33.021,33.193,7.084,7.987,6.18
110,0.767,39.518,18.936,33.021,33.2,7.123,7.986,6.261
111,0.787,39.576,18.874,33.088,33.211,7.205,8.027,6.221
112,0.777,39.443,18.866,33.041,33.2,7.206,8.027,6.261
113,0.78,39.556,18.908,33.021,33.207,7.247,7.946,6.221
114,0.777,39.644,18.842,33.031,33.204,7.288,7.864,6.261
115,0.767,39.482,18.869,33.021,33.211,7.329,7.985,6.302
116,0.787,39.566,18.901,33.088,33.221,7.532,8.068,6.343
117,0.777,39.653,18.94,33.05,33.207,7.372,7.987,6.303
118,0.787,39.712,18.897,33.05,33.211,7.533,7.986,6.262
119,0.797,39.358,18.909,33.06,33.204,7.616,8.027,6.262
120,0.79,39.46,18.932,33.069,33.211,7.576,7.987,6.302
121,0.793,39.595,18.897,33.117,33.214,7.657,8.108,6.343
122,0.803,39.654,18.862,33.051,33.207,7.576,8.028,6.14
123,0.79,39.424,18.877,33.021,33.2,7.413,7.946,6.179
124,0.78,39.547,18.842,33.05,33.211,7.533,8.067,6.179
125,0.777,39.672,18.853,33.06,33.207,7.616,8.069,6.22
126,0.764,39.731,18.873,33.05,33.204,7.576,8.069,6.18
127,0.767,39.377,18.916,33.031,33.204,7.575,8.028,6.22
128,0.748,39.508,18.866,33.031,33.197,7.657,8.068,6.22
129,0.754,39.605,18.885,33.069,33.207,7.78,8.272,6.342
130,0.764,39.692,18.952,33.088,33.218,7.781,8.274,6.303
131,0.757,39.386,18.819,33.05,33.207,7.781,8.274,6.343
132,0.754,39.508,18.884,33.069,33.207,7.74,8.233,6.262
133,0.754,39.615,18.901,33.069,33.207,7.699,8.314,6.302
134,0.757,39.635,18.92,33.069,33.207,7.74,8.193,6.343
135,0.774,39.376,18.913,33.098,33.214,7.781,8.273,6.343
136,0.784,39.527,18.882,33.05,33.207,7.7,8.152,6.303
137,0.767,39.586,18.885,33.04,33.197,7.536,8.11,6.262
138,0.77,39.548,18.858,33.05,33.204,7.697,8.232,6.343
139,0.787,39.5,18.881,33.069,33.204,7.699,8.151,6.303
140,0.787,39.605,18.905,33.079,33.204,7.658,8.11,6.262
141,0.79,39.692,18.858,33.06,33.207,7.617,8.109,6.262
142,0.8,39.166,18.842,33.031,33.207,7.576,8.109,6.221
143,0.787,39.266,18.912,33.059,33.211,7.616,8.15,6.302
144,0.797,39.401,18.917,33.108,33.218,7.698,8.232,6.425
145,0.79,39.508,18.893,33.156,33.214,7.618,8.07,6.304
146,0.764,39.346,18.901,33.07,33.204,7.617,8.109,6.302
147,0.761,39.469,18.924,33.069,33.211,7.698,7.987,6.343
148,0.767,39.585,18.87,33.079,33.207,7.699,8.027,6.384
149,0.764,39.673,18.897,33.089,33.214,7.74,8.109,6.385
150,0.774,39.204,18.905,33.089,33.207,7.781,7.947,6.303
151,0.767,39.343,18.811,33.05,33.19,7.7,7.783,6.221
152,0.748,39.44,18.865,33.069,33.204,7.78,7.862,6.383
153,0.764,39.499,18.92,33.079,33.211,7.903,7.863,6.344
154,0.764,39.279,18.905,33.069,33.207,7.945,7.782,6.303
155,0.764,39.411,18.733,33.088,33.207,7.945,7.781,6.221
156,0.77,39.518,18.888,33.05,33.193,7.864,7.781,6.302
157,0.767,39.538,18.885,33.079,33.211,8.026,7.822,6.302
158,0.793,39.183,18.912,33.117,33.221,8.149,7.944,6.465
159,0.797,39.333,18.909,33.099,33.211,8.069,7.742,6.386
160,0.787,39.402,18.92,33.079,33.211,8.069,7.821,6.385
161,0.787,39.738,18.897,33.079,33.211,8.028,7.781,6.385
162,0.8,39.205,18.866,33.089,33.211,8.068,7.781,6.425
163,0.794,39.295,18.94,33.089,33.214,7.987,7.781,6.385
164,0.793,39.421,18.89,33.089,33.207,8.027,7.7,6.344
165,0.774,39.077,18.885,33.06,33.193,7.905,7.618,6.221
166,0.771,39.073,18.885,33.06,33.204,7.904,7.698,6.342
167,0.78,39.227,18.916,33.069,33.197,7.985,7.699,6.343
168,0.784,39.324,18.874,33.079,33.211,7.946,7.699,6.303
169,0.774,39.095,18.885,33.069,33.2,7.864,7.618,6.221
170,0.774,39.208,18.905,33.06,33.2,7.904,7.657,6.22
171,0.771,39.343,18.784,33.079,33.207,8.026,7.739,6.302
172,0.774,39.44,18.88,33.127,33.218,8.109,7.862,6.506
173,0.787,39.096,18.936,33.089,33.214,7.987,7.741,6.386
174,0.777,39.208,18.866,33.089,33.211,7.986,7.781,6.344
175,0.797,39.324,18.897,33.108,33.204,7.946,7.7,6.384
176,0.8,39.373,18.893,33.089,33.211,7.986,7.74,6.385
177,0.803,39.028,18.916,33.089,33.214,7.986,7.781,6.344
178,0.794,39.149,18.913,33.089,33.207,7.986,7.74,6.303
179,0.8,39.285,18.905,33.079,33.197,7.905,7.577,6.221
180,0.784,39.286,18.913,33.06,33.2,7.863,7.616,6.342
181,0.8,38.903,18.901,33.127,33.211,7.904,7.657,6.343
182,0.813,39.033,18.885,33.079,33.204,7.945,7.617,6.303
183,0.79,39.121,18.936,33.069,33.204,7.783,7.657,6.343
184,0.78,39.131,18.878,33.069,33.2,7.781,7.617,6.221
185,0.777,38.872,18.858,33.098,33.204,7.781,7.657,6.342
186,0.777,39.014,18.889,33.108,33.214,7.944,7.82,6.466
187,0.797,39.149,18.928,33.137,33.214,7.823,7.781,6.345
188,0.787,38.997,18.897,33.099,33.207,7.822,7.781,6.303
189,0.78,38.929,18.866,33.089,33.207,7.781,7.781,6.343
190,0.777,39.043,18.94,33.108,33.211,7.74,7.903,6.343
191,0.78,39.15,18.866,33.118,33.204,7.74,7.823,6.425
192,0.777,38.7,18.881,33.118,33.214,7.74,7.944,6.466
193,0.78,38.791,18.928,33.099,33.207,7.659,7.783,6.304
194,0.774,38.879,18.85,33.089,33.197,7.617,7.822,6.302
195,0.787,39.004,18.838,33.098,33.204,7.657,7.944,6.384
196,0.784,38.746,18.826,33.089,33.207,7.617,7.864,6.344
197,0.793,38.878,18.927,33.089,33.204,7.576,7.822,6.303
198,0.787,38.995,18.905,33.098,33.204,7.657,7.822,6.221
199,0.787,39.063,18.905,33.108,33.207,7.617,7.863,6.383
200,0.793,38.67,18.948,33.127,33.214,7.698,7.985,6.466
201,0.813,38.829,18.894,33.127,33.218,7.74,7.946,6.345
202,0.803,38.898,18.874,33.108,33.211,7.699,7.945,6.343
203,0.794,38.966,18.936,33.108,33.207,7.699,7.823,6.303
204,0.797,38.679,18.804,33.127,33.211,7.821,7.863,6.384
205,0.784,38.81,18.834,33.118,33.218,7.741,7.863,6.344
206,0.784,38.917,18.877,33.108,33.207,7.577,7.741,6.303
207,0.78,38.899,18.912,33.098,33.193,7.494,7.659,6.302
208,0.767,38.525,18.921,33.108,33.207,7.656,7.78,6.343
209,0.77,38.675,18.913,33.098,33.2,7.576,7.7,6.303
210,0.77,38.762,18.948,33.108,33.207,7.657,7.658,6.302
211,0.767,38.965,18.823,33.098,33.204,7.617,7.617,6.221
212,0.757,38.679,18.861,33.108,33.197,7.617,7.617,6.302
213,0.764,38.82,18.92,33.127,33.211,7.739,7.698,6.425
214,0.774,38.927,18.925,33.147,33.214,7.821,7.74,6.385
215,0.784,38.381,18.901,33.128,33.211,7.7,7.577,6.303
216,0.784,38.395,18.842,33.127,33.207,7.74,7.616,6.262
217,0.79,38.539,18.904,33.127,33.204,7.74,7.576,6.384
218,0.787,38.627,18.862,33.147,33.207,7.74,7.616,6.385
219,0.787,38.378,18.889,33.156,33.214,7.74,7.535,6.385
220,0.793,38.491,18.916,33.099,33.193,7.618,7.412,6.263
221,0.777,38.578,18.803,33.098,33.2,7.576,7.493,6.262
222,0.79,38.685,18.88,33.127,33.207,7.575,7.494,6.221
223,0.777,38.283,18.905,33.108,33.207,7.535,7.453,6.302
224,0.777,38.404,18.885,33.127,33.204,7.575,7.452,6.221
225,0.767,38.549,18.838,33.118,33.197,7.575,7.33,6.139
226,0.761,38.589,18.877,33.137,33.211,7.698,7.451,6.382
227,0.774,38.359,18.908,33.166,33.225,7.902,7.615,6.385
228,0.761,38.491,18.889,33.128,33.214,7.66,7.413,6.344
229,0.751,38.578,18.862,33.147,33.2,7.698,7.33,6.303
230,0.757,38.637,18.889,33.128,33.214,7.699,7.329,6.302
231,0.77,38.167,18.885,33.127,33.211,7.74,7.37,6.343
232,0.777,38.316,18.866,33.147,33.211,7.781,7.37,6.343
233,0.774,38.433,18.932,33.147,33.211,7.7,7.289,6.343
234,0.764,38.434,18.936,33.128,33.2,7.618,7.125,6.262
235,0.764,38.175,18.815,33.108,33.204,7.657,7.205,6.302
236,0.787,38.335,18.865,33.137,33.207,7.658,7.206,6.343
237,0.787,38.433,18.897,33.127,33.207,7.576,7.125,6.343
238,0.793,38.156,18.881,33.137,33.207,7.575,7.083,6.303
239,0.793,38.096,18.877,33.127,33.2,7.575,7.164,6.384
240,0.793,38.22,18.889,33.137,33.207,7.535,7.165,6.466
241,0.8,38.336,18.916,33.185,33.221,7.657,7.287,6.507
242,0.807,38.04,18.882,33.138,33.211,7.576,7.125,6.386
243,0.794,38.142,18.901,33.166,33.211,7.494,7.165,6.385
244,0.784,38.268,18.952,33.157,33.207,7.453,7.206,6.466
245,0.78,38.356,18.882,33.147,33.204,7.493,7.247,6.467
246,0.774,37.992,18.76,33.156,33.207,7.575,7.125,6.467
247,0.777,38.142,18.857,33.166,33.207,7.454,7.043,6.345
248,0.748,38.22,18.877,33.128,33.193,7.33,7.042,6.343
249,0.744,38.307,18.854,33.147,33.207,7.451,7.042,6.384
250,0.747,37.953,18.881,33.137,33.204,7.412,7.082,6.303
251,0.751,38.045,18.881,33.137,33.207,7.452,7.042,6.302
252,0.741,38.209,18.858,33.137,33.2,7.412,7.042,6.343
253,0.744,38.23,18.865,33.137,33.207,7.371,7.001,6.384
254,0.754,37.933,18.92,33.166,33.214,7.492,7.163,6.507
255,0.767,38.112,18.889,33.195,33.221,7.575,7.165,6.467
256,0.774,38.22,18.905,33.224,33.207,7.454,7.043,6.426
257,0.764,38.202,18.878,33.167,33.207,7.452,7.082,6.385
258,0.767,37.923,18.885,33.166,33.207,7.493,7.042,6.344
259,0.77,38.064,18.881,33.166,33.207,7.534,7.082,6.384
260,0.787,38.181,18.901,33.166,33.218,7.616,7.123,6.385
261,0.8,38.163,18.846,33.166,33.211,7.576,7.043,6.344
262,0.794,37.913,18.834,33.137,33.197,7.372,6.879,6.181
263,0.764,38.007,18.912,33.137,33.207,7.492,7.0,6.301
264,0.78,38.104,18.917,33.147,33.2,7.494,7.001,6.302
265,0.748,37.788,18.843,33.176,33.207,7.453,6.96,6.262
266,0.751,37.881,18.896,33.166,33.207,7.371,6.96,6.262
267,0.751,37.987,18.893,33.147,33.2,7.411,6.96,6.343
268,0.757,38.084,18.897,33.166,33.214,7.533,7.041,6.506
269,0.767,37.654,18.889,33.195,33.221,7.616,7.082,6.427
270,0.761,37.793,18.881,33.166,33.207,7.454,7.042,6.263
271,0.748,37.881,18.869,33.176,33.214,7.574,7.082,6.302
272,0.747,37.968,18.877,33.176,33.207,7.535,7.083,6.302
273,0.76,37.844,18.916,33.185,33.211,7.575,7.123,6.343
274,0.754,37.987,18.921,33.185,33.211,7.535,7.205,6.303
275,0.764,38.103,18.827,33.176,33.2,7.453,7.043,6.221
276,0.751,38.143,18.842,33.157,33.193,7.412,7.164,6.22
277,0.754,37.721,18.896,33.176,33.2,7.493,7.206,6.261
278,0.761,37.88,18.893,33.176,33.204,7.494,7.165,6.18
279,0.761,38.006,18.877,33.166,33.207,7.453,7.246,6.179
280,0.764,38.027,18.916,33.157,33.204,7.371,7.125,6.179
281,0.764,37.739,18.878,33.185,33.197,7.37,7.287,6.22
282,0.77,37.852,18.869,33.205,33.218,7.492,7.41,6.302
283,0.774,37.987,18.924,33.214,33.214,7.371,7.371,6.221
284,0.771,37.95,18.866,33.176,33.207,7.33,7.33,6.139
285,0.757,37.95,18.885,33.185,33.207,7.37,7.451,6.301
286,0.761,38.074,18.889,33.195,33.211,7.37,7.493,6.262
287,0.764,38.181,18.905,33.205,33.214,7.37,7.575,6.262
288,0.748,37.808,18.901,33.186,33.207,7.289,7.535,6.18
289,0.751,37.795,18.889,33.176,33.2,7.166,7.453,6.098
290,0.738,37.871,18.889,33.176,33.204,7.165,7.615,6.219
291,0.747,37.997,18.831,33.205,33.204,7.165,7.698,6.139
292,0.738,37.749,18.857,33.176,33.2,7.206,7.618,6.219
293,0.754,37.88,18.924,33.185,33.2,7.165,7.698,6.18
294,0.748,37.997,18.889,33.185,33.204,7.165,7.74,6.139
295,0.728,38.075,18.811,33.214,33.211,7.287,7.821,6.219
296,0.764,37.663,18.884,33.234,33.218,7.369,7.863,6.342
297,0.774,37.841,18.893,33.224,33.204,7.33,7.863,6.181
298,0.761,37.91,18.893,33.195,33.211,7.329,7.782,6.22
299,0.764,37.988,18.881,33.214,33.211,7.37,7.781,6.22
300,0.754,37.892,18.94,33.205,33.211,7.37,7.822,6.261
301,0.764,38.007,18.882,33.205,33.211,7.33,7.863,6.18
302,0.761,38.132,18.862,33.205,33.207,7.41,7.822,6.139
303,0.748,38.162,18.924,33.166,33.197,7.371,7.619,6.016
304,0.741,37.741,18.882,33.204,33.211,7.411,7.698,6.056
305,0.741,37.89,18.811,33.214,33.211,7.411,7.658,6.097
306,0.734,37.987,18.849,33.195,33.2,7.411,7.658,6.138
307,0.738,38.008,18.857,33.195,33.197,7.411,7.658,6.057
308,0.725,37.768,18.877,33.186,33.204,7.411,7.658,6.015
309,0.724,37.9,18.866,33.195,33.207,7.615,7.78,6.218
310,0.737,38.045,18.94,33.224,33.218,7.617,7.862,6.22
311,0.747,38.008,18.909,33.205,33.207,7.495,7.863,6.18
312,0.725,37.902,18.846,33.205,33.211,7.616,8.107,6.139
313,0.744,38.016,18.896,33.214,33.214,7.576,8.191,6.219
314,0.751,38.104,18.916,33.224,33.207,7.616,8.273,6.22
315,0.751,37.702,18.839,33.215,33.207,7.657,8.436,6.22
316,0.754,37.775,18.838,33.215,33.2,7.658,8.479,6.139
317,0.744,37.881,18.834,33.195,33.2,7.658,8.56,6.26
318,0.76,37.968,18.873,33.205,33.207,7.698,8.643,6.18
319,0.77,37.701,18.873,33.214,33.204,7.78,8.725,6.22
320,0.767,37.822,18.908,33.234,33.204,7.659,8.807,6.098
321,0.754,37.92,18.862,33.215,33.207,7.739,8.889,6.138
322,0.761,38.016,18.865,33.205,33.2,7.862,8.93,6.179
323,0.761,37.701,18.912,33.224,33.218,7.985,9.134,6.301
324,0.77,37.832,18.913,33.272,33.207,7.946,9.055,6.262
325,0.754,37.948,18.866,33.244,33.207,7.864,9.095,6.18
326,0.744,37.998,18.897,33.224,33.204,7.944,9.136,6.261
327,0.747,37.758,18.874,33.253,33.207,7.945,9.136,6.18
328,0.734,37.909,18.912,33.253,33.207,7.945,9.217,6.179
329,0.747,38.007,18.874,33.224,33.207,7.986,9.218,6.22
330,0.747,38.036,18.893,33.224,33.207,7.905,9.096,6.098
331,0.731,37.787,18.866,33.195,33.2,7.823,9.136,6.178
332,0.728,37.958,18.854,33.233,33.204,7.944,9.258,6.22
333,0.734,38.074,18.889,33.224,33.207,7.945,9.219,6.261
334,0.738,38.373,18.905,33.234,33.2,7.986,9.259,6.18
335,0.741,37.743,18.893,33.205,33.2,7.864,9.259,6.139
336,0.741,37.852,18.807,33.234,33.204,7.944,9.259,6.179
337,0.747,37.958,18.884,33.253,33.214,8.067,9.381,6.342
338,0.757,37.777,18.916,33.272,33.214,8.109,9.261,6.262
339,0.761,37.814,18.889,33.253,33.207,8.028,9.259,6.221
340,0.751,37.948,18.901,33.253,33.204,7.987,9.259,6.22
341,0.748,38.007,18.831,33.263,33.207,7.946,9.219,6.261
342,0.76,37.701,18.865,33.244,33.211,7.986,9.218,6.221
343,0.751,37.832,18.889,33.244,33.214,7.946,9.178,6.22
344,0.748,37.92,18.889,33.234,33.204,7.864,9.055,6.098
345,0.728,37.988,18.834,33.215,33.197,7.822,9.013,6.138
346,0.712,37.672,18.85,33.243,33.2,7.903,9.054,6.219
347,0.728,37.803,18.877,33.234,33.207,7.945,9.013,6.139
348,0.705,37.939,18.924,33.253,33.2,7.905,8.932,6.179
349,0.705,38.007,18.897,33.234,33.2,7.782,8.85,6.179
350,0.715,37.701,18.897,33.224,33.197,7.862,8.808,6.22
351,0.731,37.842,18.854,33.282,33.211,7.944,8.97,6.383
352,0.747,38.016,18.885,33.273,33.218,7.864,8.85,6.303
353,0.741,38.008,18.889,33.263,33.207,7.782,8.767,6.302
354,0.738,37.682,18.905,33.253,33.207,7.862,8.726,6.384
355,0.76,37.832,18.862,33.263,33.207,7.741,8.603,6.263
356,0.761,37.958,18.85,33.33,33.211,7.862,8.602,6.221
357,0.761,37.979,18.869,33.283,33.207,7.782,8.521,6.22
358,0.761,37.586,18.916,33.244,33.204,7.659,8.358,6.098
359,0.761,37.697,18.897,33.244,33.2,7.78,8.437,6.26
360,0.767,37.832,18.897,33.253,33.207,7.781,8.397,6.18
361,0.761,37.766,18.85,33.263,33.2,7.862,8.316,6.179
362,0.77,37.727,18.846,33.244,33.2,7.822,8.274,6.139
363,0.754,37.861,18.889,33.263,33.207,7.822,8.274,6.179
364,0.754,37.939,18.92,33.253,33.204,7.903,8.274,6.261
365,0.754,37.556,18.862,33.292,33.218,8.148,8.396,6.384
366,0.757,37.677,18.869,33.273,33.207,8.028,8.234,6.222
367,0.735,37.774,18.901,33.282,33.211,8.068,8.192,6.261
368,0.734,37.862,18.881,33.273,33.211,8.028,8.151,6.221
369,0.741,37.546,18.862,33.282,33.211,8.109,8.15,6.302
370,0.731,37.706,18.893,33.263,33.214,8.109,8.15,6.221
371,0.734,37.813,18.834,33.282,33.214,8.069,8.028,6.18
372,0.715,37.872,18.861,33.244,33.19,7.865,7.946,6.098
373,0.708,37.537,18.889,33.263,33.207,7.985,8.026,6.219
374,0.721,37.706,18.924,33.292,33.207,8.068,8.027,6.18
375,0.724,37.794,18.874,33.273,33.207,8.028,8.027,6.139
376,0.734,37.862,18.85,33.34,33.2,7.946,7.987,6.098
377,0.734,37.536,18.865,33.273,33.204,7.945,7.905,6.138
378,0.741,37.687,18.873,33.273,33.207,7.945,8.067,6.26
379,0.751,37.832,18.889,33.311,33.218,8.108,8.109,6.343
380,0.754,37.872,18.909,33.302,33.2,7.947,7.947,6.14
381,0.757,37.489,18.854,33.282,33.204,7.905,7.986,6.138
382,0.767,37.638,18.865,33.273,33.211,7.863,7.946,6.219
383,0.764,37.726,18.908,33.282,33.214,7.822,7.945,6.18
384,0.761,37.957,18.952,33.282,33.207,7.822,7.945,6.261
385,0.751,37.461,18.847,33.282,33.214,7.7,7.864,6.139
386,0.741,37.552,18.857,33.263,33.2,7.577,7.7,6.179
387,0.728,37.648,18.873,33.292,33.211,7.657,7.78,6.22
388,0.734,37.467,18.866,33.282,33.207,7.658,7.781,6.139
389,0.728,37.542,18.869,33.282,33.204,7.658,7.74,6.138
390,0.725,37.658,18.885,33.282,33.197,7.576,7.699,6.138
391,0.728,37.736,18.877,33.282,33.2,7.454,7.74,6.26
392,0.721,37.343,18.862,33.321,33.218,7.534,7.781,6.343
393,0.737,37.522,18.904,33.331,33.214,7.575,7.944,6.343
394,0.751,37.639,18.936,33.302,33.207,7.413,7.823,6.262
395,0.741,37.688,18.882,33.302,33.2,7.493,7.741,6.139
396,0.744,37.381,18.788,33.311,33.207,7.453,7.699,6.219
397,0.751,37.551,18.853,33.311,33.211,7.574,7.74,6.22
398,0.757,37.658,18.873,33.302,33.214,7.657,7.74,6.261
399,0.754,37.717,18.877,33.302,33.207,7.617,7.659,6.139
400,0.741,37.334,18.873,33.263,33.2,7.617,7.455,6.179
401,0.747,37.445,18.897,33.292,33.211,7.739,7.615,6.179
402,0.754,37.609,18.889,33.321,33.207,7.74,7.617,6.22
403,0.751,37.649,18.913,33.292,33.204,7.74,7.576,6.22
404,0.738,37.208,18.936,33.282,33.204,7.74,7.494,6.22
405,0.725,37.357,18.823,33.301,33.207,7.862,7.616,6.302
406,0.734,37.493,18.857,33.33,33.218,7.985,7.779,6.384
407,0.744,37.542,18.858,33.34,33.211,7.946,7.537,6.263
408,0.731,37.351,18.881,33.312,33.207,7.905,7.534,6.302
409,0.738,37.483,18.877,33.321,33.207,7.985,7.534,6.221
410,0.741,37.6,18.869,33.321,33.211,7.986,7.575,6.342
411,0.741,37.256,18.924,33.311,33.211,7.946,7.535,6.303
412,0.738,37.195,18.874,33.311,33.211,7.945,7.494,6.302
413,0.747,37.28,18.85,33.283,33.197,7.783,7.331,6.18
414,0.728,37.368,18.928,33.311,33.2,7.944,7.492,6.301
415,0.747,37.225,18.889,33.321,33.207,7.945,7.494,6.302
416,0.751,37.348,18.858,33.321,33.204,7.905,7.453,6.262
417,0.748,37.455,18.865,33.302,33.197,7.823,7.33,6.221
418,0.747,37.523,18.889,33.292,33.2,7.822,7.41,6.22
419,0.747,36.996,18.889,33.33,33.214,7.944,7.533,6.464
420,0.767,37.173,18.897,33.379,33.218,8.026,7.534,6.345
421,0.761,37.261,18.909,33.322,33.2,7.865,7.372,6.262
422,0.754,37.339,18.881,33.331,33.207,7.863,7.452,6.221
423,0.748,37.128,18.881,33.331,33.211,7.863,7.452,6.342
424,0.744,37.241,18.905,33.34,33.214,7.782,7.534,6.343
425,0.747,37.386,18.944,33.35,33.207,7.781,7.453,6.303
426,0.738,37.436,18.858,33.331,33.197,7.618,7.371,6.18
427,0.728,36.995,18.865,33.302,33.197,7.617,7.492,6.261
428,0.728,37.144,18.904,33.33,33.211,7.617,7.453,6.221
429,0.718,37.27,18.815,33.34,33.207,7.576,7.412,6.261
430,0.731,37.3,18.888,33.312,33.207,7.575,7.452,6.139
431,0.725,37.013,18.92,33.33,33.197,7.494,7.534,6.26
432,0.728,37.135,18.761,33.331,33.204,7.616,7.657,6.343
433,0.741,37.289,18.853,33.369,33.218,7.657,7.658,6.466
434,0.741,37.339,18.897,33.36,33.211,7.576,7.576,6.264
435,0.744,37.023,18.893,33.331,33.207,7.494,7.494,6.302
436,0.751,37.154,18.877,33.34,33.207,7.494,7.534,6.343
437,0.754,37.28,18.866,33.36,33.214,7.534,7.575,6.303
438,0.761,36.898,18.901,33.35,33.214,7.453,7.535,6.302
439,0.764,36.98,18.897,33.34,33.211,7.412,7.534,6.302
440,0.741,37.077,18.881,33.34,33.197,7.371,7.412,6.18
441,0.751,37.155,18.893,33.321,33.207,7.411,7.493,6.22
442,0.761,36.858,18.85,33.35,33.207,7.371,7.534,6.18
443,0.757,37.009,18.873,33.36,33.207,7.37,7.534,6.179
444,0.757,37.125,18.901,33.341,33.207,7.37,7.453,6.139
445,0.741,37.184,18.866,33.312,33.204,7.289,7.452,6.219
446,0.734,36.695,18.807,33.35,33.214,7.451,7.534,6.342
447,0.751,36.882,18.869,33.388,33.214,7.534,7.616,6.343
448,0.748,36.99,18.908,33.35,33.207,7.372,7.454,6.262
449,0.731,37.039,18.897,33.36,33.2,7.452,7.493,6.343
450,0.734,36.924,18.889,33.369,33.207,7.452,7.412,6.343
451,0.731,37.038,18.897,33.379,33.211,7.412,7.452,6.262
452,0.728,37.183,18.866,33.379,33.211,7.493,7.371,6.302
453,0.734,37.242,18.881,33.379,33.214,7.534,7.289,6.221
454,0.728,36.734,18.885,33.341,33.197,7.412,7.207,6.18
455,0.734,36.863,18.893,33.35,33.207,7.493,7.287,6.301
456,0.741,36.999,18.815,33.369,33.197,7.575,7.247,6.262
457,0.747,37.01,18.857,33.36,33.204,7.535,7.206,6.18
458,0.744,36.761,18.877,33.341,33.207,7.575,7.206,6.139
459,0.744,36.902,18.877,33.34,33.2,7.616,7.165,6.219
460,0.754,37.028,18.893,33.388,33.207,7.698,7.328,6.302
461,0.767,36.732,18.877,33.389,33.221,7.74,7.289,6.221
462,0.751,36.691,18.838,33.379,33.207,7.618,7.166,6.18
463,0.748,36.806,18.885,33.369,33.204,7.657,7.328,6.22
464,0.744,36.903,18.916,33.379,33.211,7.617,7.248,6.18
465,0.747,36.539,18.882,33.369,33.207,7.698,7.288,6.22
466,0.754,36.67,18.827,33.389,33.204,7.699,7.369,6.139
467,0.748,36.786,18.849,33.37,33.2,7.536,7.248,6.016
468,0.741,36.835,18.885,33.341,33.207,7.575,7.41,6.178
469,0.747,36.596,18.866,33.369,33.204,7.575,7.411,6.139
470,0.741,36.766,18.865,33.369,33.204,7.616,7.493,6.138
471,0.738,36.864,18.885,33.369,33.2,7.617,7.494,6.057
472,0.738,36.942,18.846,33.369,33.2,7.535,7.534,6.097
473,0.744,36.405,18.869,33.379,33.207,7.575,7.657,6.219
474,0.741,36.582,18.944,33.427,33.214,7.698,7.739,6.302
475,0.757,36.699,18.901,33.399,33.204,7.496,7.74,6.099
476,0.744,36.729,18.784,33.408,33.207,7.494,7.862,6.138
477,0.754,36.49,18.88,33.399,33.2,7.494,7.863,6.138
478,0.757,36.66,18.881,33.398,33.211,7.494,7.985,6.138
479,0.77,36.748,18.885,33.398,33.207,7.494,8.068,6.138
480,0.767,36.787,18.873,33.398,33.207,7.453,8.028,6.016
481,0.77,36.423,18.846,33.351,33.193,7.371,7.987,5.974
482,0.79,36.601,18.857,33.379,33.207,7.452,8.108,6.096
483,0.793,36.709,18.893,33.379,33.207,7.371,8.15,6.097
484,0.787,36.604,18.916,33.379,33.2,7.411,8.11,6.056
485,0.787,36.354,18.87,33.389,33.197,7.371,8.15,5.975
486,0.79,36.486,18.858,33.408,33.207,7.37,8.15,6.137
487,0.797,36.602,18.893,33.408,33.211,7.533,8.313,6.341
488,0.803,36.364,18.92,33.427,33.207,7.494,8.315,6.1
489,0.8,36.428,18.858,33.418,33.207,7.371,8.234,6.056
490,0.807,36.554,18.881,33.389,33.211,7.411,8.314,6.097
491,0.813,36.651,18.885,33.418,33.207,7.371,8.234,6.138
492,0.823,36.287,18.877,33.427,33.214,7.37,8.273,6.138
493,0.82,36.408,18.889,33.418,33.211,7.289,8.233,6.098
494,0.833,36.525,18.897,33.389,33.197,7.247,8.111,5.975
495,0.843,36.583,18.885,33.389,33.2,7.288,8.191,6.015
496,0.846,36.277,18.842,33.389,33.204,7.288,8.11,6.015
497,0.849,36.418,18.853,33.398,33.211,7.207,8.109,6.056
498,0.84,36.534,18.885,33.398,33.204,7.165,8.191,5.975
499,0.846,36.603,18.85,33.398,33.2,7.165,8.11,6.015
500,0.846,36.287,18.861,33.408,33.204,7.287,8.232,6.137
501,0.879,36.447,18.904,33.437,33.225,7.329,8.273,6.138
502,0.872,36.573,18.893,33.418,33.207,7.248,8.152,6.016
503,0.876,36.593,18.889,33.418,33.204,7.206,8.15,6.056
504,0.872,36.258,18.924,33.418,33.211,7.206,8.11,6.056
505,0.85,36.389,18.882,33.437,33.211,7.247,8.069,6.137
506,0.856,36.515,18.78,33.428,33.207,7.369,8.069,6.057
507,0.859,36.679,18.849,33.408,33.207,7.289,7.906,5.934
508,0.843,36.24,18.85,33.389,33.197,7.41,7.945,6.014
509,0.836,36.398,18.869,33.427,33.204,7.615,7.864,5.974
510,0.833,36.496,18.877,33.418,33.2,7.617,7.863,6.055
511,0.83,36.123,18.885,33.408,33.197,7.657,7.822,6.015
512,0.846,36.129,18.87,33.418,33.197,7.658,7.741,5.974
513,0.84,36.263,18.862,33.418,33.2,7.739,7.781,6.096
514,0.856,36.389,18.897,33.437,33.221,7.984,7.944,6.138
515,0.888,36.975,18.916,33.456,33.207,7.864,7.783,6.016
516,0.876,37.096,18.835,33.447,33.214,7.863,7.781,6.015
517,0.882,37.212,18.9,33.447,33.211,7.944,7.659,6.056
518,0.872,37.281,18.905,33.456,33.211,7.945,7.698,6.097
519,0.879,35.67,18.878,33.447,33.207,7.986,7.699,6.056
520,0.882,35.788,18.901,33.447,33.207,7.946,7.577,5.975
521,0.892,35.886,18.893,33.408,33.197,7.823,7.575,6.015
522,0.899,35.973,18.897,33.418,33.204,7.985,7.535,6.015
523,0.908,36.079,18.866,33.437,33.204,7.905,7.575,6.015
524,0.892,36.215,18.897,33.437,33.2,7.945,7.494,5.974
525,0.895,36.321,18.842,33.408,33.193,7.864,7.575,5.974
526,0.882,36.39,18.822,33.427,33.2,7.863,7.535,5.974
527,0.879,35.968,18.865,33.437,33.218,8.026,7.697,6.055
528,0.889,36.146,18.897,33.475,33.207,8.068,7.699,5.975
529,0.863,36.234,18.815,33.447,33.207,7.946,7.658,6.015
530,0.862,36.274,18.877,33.456,33.211,7.986,7.617,5.974
531,0.866,35.958,18.94,33.457,33.211,7.905,7.698,6.055
532,0.885,36.127,18.827,33.466,33.207,7.945,7.74,6.097
533,0.889,36.244,18.857,33.466,33.211,7.986,7.699,6.056
534,0.882,36.111,18.869,33.437,33.2,7.864,7.618,5.893
535,0.872,35.946,18.85,33.428,33.2,7.863,7.657,5.973
536,0.876,36.108,18.842,33.466,33.2,7.822,7.698,5.974
537,0.863,36.224,18.865,33.447,33.2,7.822,7.74,5.974
538,0.853,35.756,18.885,33.447,33.207,7.7,7.659,5.933
539,0.843,35.837,18.862,33.437,33.197,7.658,7.617,5.974
540,0.833,35.982,18.877,33.447,33.204,7.739,7.698,6.055
541,0.846,36.098,18.955,33.485,33.214,7.943,7.78,6.097
542,0.846,35.946,18.87,33.486,33.207,7.742,7.659,6.016
543,0.83,36.06,18.862,33.457,33.211,7.699,7.658,6.056
544,0.823,36.176,18.889,33.476,33.207,7.74,7.617,5.975
545,0.813,36.263,18.881,33.476,33.2,7.699,7.617,6.015
546,0.813,35.775,18.85,33.485,33.211,7.74,7.657,6.015
547,0.8,35.924,18.857,33.486,33.211,7.699,7.617,5.934
548,0.79,36.06,18.881,33.447,33.2,7.618,7.535,5.892
549,0.777,36.07,18.819,33.456,33.2,7.657,7.616,6.014
550,0.787,35.84,18.873,33.457,33.2,7.658,7.617,5.934
551,0.787,35.953,18.924,33.466,33.211,7.658,7.576,5.974
552,0.767,36.079,18.807,33.476,33.2,7.658,7.575,5.974
553,0.767,36.099,18.841,33.447,33.197,7.617,7.575,5.933
554,0.764,35.889,18.889,33.466,33.197,7.698,7.575,6.014
555,0.79,36.03,18.897,33.476,33.214,7.821,7.82,6.096
556,0.79,36.185,18.866,33.485,33.214,7.781,7.741,6.016
557,0.774,36.474,18.877,33.476,33.204,7.7,7.618,5.974
558,0.771,35.931,18.846,33.476,33.207,7.78,7.657,6.015
559,0.761,36.079,18.881,33.524,33.211,7.7,7.739,6.015
560,0.757,36.176,18.866,33.486,33.211,7.78,7.781,6.056
561,0.754,35.688,18.928,33.486,33.214,7.7,7.822,5.975
562,0.748,35.683,18.878,33.524,33.204,7.536,7.659,5.811
563,0.747,35.798,18.83,33.467,33.197,7.616,7.739,5.972
564,0.757,35.905,18.931,33.485,33.204,7.657,7.862,5.893
565,0.748,36.184,18.897,33.476,33.197,7.617,7.822,5.851
566,0.734,36.34,18.827,33.485,33.207,7.617,7.781,5.891
567,0.728,36.447,18.861,33.476,33.2,7.617,7.822,5.851
568,0.718,36.525,18.865,33.476,33.207,7.617,7.944,6.013
569,0.721,35.327,18.904,33.524,33.207,7.739,8.108,6.137
570,0.734,35.507,18.881,33.515,33.207,7.577,8.109,5.976
571,0.702,35.605,18.924,33.486,33.207,7.616,8.069,6.015
572,0.698,35.663,18.839,33.514,33.207,7.617,8.191,5.974
573,0.688,35.74,18.865,33.515,33.211,7.535,8.192,6.055
574,0.692,35.895,18.92,33.515,33.214,7.657,8.273,6.015
575,0.701,35.992,18.925,33.505,33.211,7.617,8.396,5.974
576,0.701,36.031,18.878,33.486,33.2,7.454,8.275,5.811
577,0.698,35.562,18.85,33.495,33.2,7.656,8.477,5.972
578,0.692,35.711,18.897,33.505,33.2,7.658,8.479,6.055
579,0.688,35.818,18.893,33.514,33.2,7.617,8.601,5.934
580,0.682,35.847,18.87,33.486,33.193,7.657,8.643,5.933
581,0.695,35.627,18.904,33.486,33.197,7.536,8.725,5.811
582,0.698,35.74,18.854,33.572,33.197,7.697,8.888,6.094
583,0.698,35.885,18.873,33.544,33.214,7.861,9.012,6.097
584,0.701,35.676,18.905,33.515,33.207,7.741,8.932,5.975
585,0.675,35.568,18.917,33.515,33.207,7.821,8.89,6.015
586,0.672,35.711,18.827,33.515,33.207,7.863,8.971,6.015
587,0.669,35.827,18.857,33.524,33.211,7.944,8.891,6.096
588,0.669,35.493,18.92,33.505,33.214,8.026,8.93,6.097
589,0.662,35.624,18.823,33.524,33.207,7.987,8.89,5.975
590,0.656,35.721,18.853,33.486,33.193,7.864,8.727,5.893
591,0.642,35.789,18.893,33.495,33.197,8.066,8.807,6.054
592,0.662,35.435,18.897,33.534,33.211,7.987,8.848,6.056
593,0.672,35.594,18.858,33.515,33.2,7.986,8.849,6.056
594,0.682,35.711,18.912,33.505,33.2,7.946,8.849,5.975
595,0.685,35.779,18.917,33.495,33.2,7.945,8.727,5.933
596,0.682,35.396,18.846,33.505,33.204,8.108,8.807,6.055
597,0.698,35.575,18.861,33.553,33.214,8.191,8.93,6.097
598,0.708,35.72,18.889,33.534,33.211,8.151,8.687,6.056
599,0.695,35.751,18.842,33.544,33.207,8.232,8.725,6.015
600,0.701,35.54,18.85,33.534,33.2,8.192,8.644,6.096
601,0.705,35.691,18.893,33.544,33.207,8.273,8.603,6.056
602,0.705,35.817,18.87,33.544,33.207,8.355,8.643,6.097
603,0.698,35.838,18.889,33.515,33.207,8.275,8.521,5.894
604,0.682,35.397,18.92,33.495,33.197,8.111,8.358,5.973
605,0.682,35.536,18.913,33.524,33.204,8.272,8.397,6.015
606,0.688,35.672,18.839,33.543,33.207,8.314,8.397,6.056
607,0.679,35.856,18.857,33.515,33.207,8.315,8.275,6.015
608,0.672,35.541,18.9,33.515,33.2,8.193,8.396,5.974
609,0.672,35.662,18.838,33.515,33.204,8.273,8.275,5.974
610,0.669,35.779,18.877,33.543,33.214,8.396,8.355,6.177
611,0.669,35.425,18.928,33.582,33.214,8.397,8.356,6.057
612,0.669,35.45,18.823,33.554,33.207,8.234,8.275,6.056
613,0.682,35.594,18.881,33.553,33.204,8.273,8.274,6.056
614,0.695,35.701,18.881,33.563,33.207,8.274,8.193,6.015
615,0.714,35.492,18.928,33.553,33.211,8.314,8.192,6.137
616,0.737,35.633,18.847,33.563,33.204,8.274,8.192,6.016
617,0.751,35.769,18.846,33.525,33.197,8.111,7.948,5.893
618,0.787,35.809,18.881,33.515,33.204,8.15,8.067,5.973
619,0.819,35.358,18.846,33.534,33.204,8.15,8.069,6.015
620,0.862,35.507,18.861,33.524,33.204,8.15,7.946,6.015
621,0.905,35.614,18.908,33.534,33.204,8.069,7.905,5.893
622,0.934,35.673,18.87,33.544,33.2,8.15,7.823,5.892
623,0.984,35.328,18.869,33.553,33.207,8.11,7.903,6.054
624,1.017,35.517,18.901,33.592,33.214,8.272,7.985,6.097
625,1.03,35.634,18.905,33.563,33.207,8.111,7.783,6.016
626,1.056,35.654,18.839,33.553,33.204,8.15,7.781,6.056
627,1.073,35.414,18.842,33.544,33.207,8.15,7.822,6.097
628,1.102,35.565,18.889,33.572,33.207,8.11,7.781,6.016
629,1.122,35.672,18.873,33.582,33.207,8.109,7.822,5.974
630,1.171,35.702,18.889,33.563,33.211,8.069,7.741,6.015
631,1.207,35.3,18.913,33.553,33.2,7.946,7.577,5.974
632,1.266,35.401,18.882,33.563,33.204,7.986,7.738,5.974
633,1.335,35.556,18.873,33.573,33.2,7.986,7.659,6.055
634,1.381,35.356,18.893,33.553,33.204,7.986,7.617,5.975
635,1.424,35.344,18.897,33.563,33.193,7.864,7.535,5.974
636,1.483,35.45,18.862,33.534,33.2,7.863,7.616,6.055
637,1.542,35.547,18.838,33.563,33.204,7.985,7.617,6.219
638,1.598,35.269,18.873,33.611,33.225,8.068,7.657,6.22
639,1.628,35.382,18.83,33.563,33.2,7.906,7.576,6.139
640,1.67,35.508,18.885,33.563,33.211,7.945,7.535,6.219
641,1.7,35.595,18.928,33.563,33.207,7.905,7.534,6.261
642,1.704,35.241,18.835,33.573,33.207,7.945,7.534,6.221
643,1.7,35.401,18.908,33.573,33.211,7.864,7.575,6.22
644,1.642,35.508,18.901,33.573,33.2,7.822,7.372,6.139
645,1.553,35.576,18.92,33.544,33.2,7.741,7.37,6.138
646,1.517,35.155,18.839,33.563,33.2,7.821,7.452,6.26
647,1.484,35.294,18.834,33.573,33.207,7.741,7.412,6.221
648,1.444,35.43,18.873,33.563,33.2,7.699,7.371,6.22
649,1.389,35.47,18.842,33.563,33.204,7.78,7.248,6.342
650,1.32,35.24,18.865,33.553,33.2,7.7,7.288,6.466
651,1.218,35.401,18.908,33.592,33.211,7.861,7.41,6.629
652,1.12,35.546,18.85,33.611,33.211,7.904,7.411,6.753
653,1.002,35.557,18.85,33.583,33.197,7.742,7.289,6.795
654,0.89,35.241,18.885,33.602,33.207,7.821,7.207,7.039
655,0.817,35.343,18.936,33.592,33.207,7.781,7.247,7.245
656,0.755,35.459,18.897,33.582,33.211,7.822,7.247,7.491
657,0.682,35.499,18.889,33.602,33.207,7.822,7.166,7.778
658,0.591,35.269,18.897,33.583,33.207,7.781,7.124,7.984
659,0.515,35.363,18.823,33.573,33.19,7.781,7.043,8.23
660,0.462,35.507,18.869,33.601,33.207,7.984,7.123,8.639
661,0.432,35.049,18.924,33.583,33.204,7.946,7.043,8.847
662,0.383,35.159,18.823,33.573,33.204,7.986,7.042,9.174
663,0.341,35.266,18.834,33.582,33.2,7.986,7.042,9.38
664,0.288,35.372,18.865,33.573,33.207,7.986,7.001,9.545
665,0.248,35.22,18.932,33.601,33.214,8.149,7.082,9.913
666,0.235,35.391,18.929,33.64,33.221,8.191,7.123,10.039
667,0.209,35.498,18.87,33.621,33.214,8.07,7.002,10.08
668,0.17,35.585,18.881,33.611,33.207,8.109,6.96,10.121
669,0.166,35.03,18.85,33.602,33.204,8.109,6.96,10.284
670,0.172,35.197,18.889,33.621,33.207,8.109,7.0,10.327
671,0.182,35.333,18.913,33.631,33.211,8.191,7.001,10.49
672,0.202,35.392,18.862,33.612,33.204,7.948,6.838,10.491
673,0.209,35.124,18.822,33.592,33.19,7.945,6.837,10.695
674,0.222,35.294,18.849,33.611,33.207,7.945,6.877,10.819
675,0.235,35.392,18.92,33.602,33.207,7.905,6.796,11.023
676,0.225,35.421,18.893,33.602,33.193,7.863,6.836,11.269
677,0.222,34.99,18.858,33.602,33.2,7.741,6.755,11.475
678,0.225,35.12,18.85,33.602,33.204,7.862,6.917,11.802
679,0.238,35.275,18.822,33.64,33.211,7.944,6.919,12.172
680,0.254,35.324,18.881,33.65,33.214,7.823,6.878,12.297
681,0.248,35.219,18.905,33.602,33.207,7.7,6.837,12.542
682,0.251,35.381,18.768,33.64,33.2,7.699,6.837,12.789
683,0.255,35.488,18.833,33.64,33.207,7.74,6.877,12.913
684,0.255,35.115,18.881,33.631,33.207,7.699,6.877,13.118
685,0.268,35.131,18.912,33.64,33.204,7.618,6.877,13.16
686,0.281,35.237,18.835,33.612,33.2,7.535,6.755,13.039
687,0.3,35.305,18.834,33.602,33.197,7.534,6.836,13.241
688,0.327,34.912,18.865,33.621,33.207,7.575,6.958,13.202
689,0.346,35.033,18.862,33.602,33.211,7.494,7.0,13.121
690,0.386,35.159,18.893,33.621,33.2,7.534,6.96,13.039
691,0.419,35.237,18.881,33.631,33.2,7.453,7.041,12.916
692,0.451,35.007,18.815,33.631,33.207,7.452,7.082,12.996
693,0.497,35.197,18.869,33.65,33.214,7.615,7.205,12.875
694,0.556,35.333,18.908,33.65,33.207,7.413,7.043,12.67
695,0.573,35.363,18.956,33.631,33.2,7.411,7.123,12.546
696,0.603,34.999,18.874,33.65,33.207,7.371,7.165,12.464
697,0.639,35.149,18.862,33.631,33.207,7.33,7.206,12.259
698,0.668,35.265,18.838,33.65,33.211,7.329,7.206,12.095
699,0.704,35.324,18.838,33.65,33.211,7.289,7.165,11.93
700,0.708,34.97,18.846,33.621,33.2,7.166,7.002,11.644
701,0.734,35.101,18.908,33.621,33.207,7.206,7.123,11.601
702,0.738,35.236,18.842,33.64,33.207,7.125,7.165,11.438
703,0.747,35.266,18.853,33.65,33.204,7.083,7.084,11.233
704,0.738,35.017,18.893,33.621,33.2,7.083,7.042,11.109
705,0.731,35.139,18.924,33.611,33.197,7.083,7.123,10.945
706,0.731,35.246,18.858,33.669,33.211,7.164,7.287,11.024
707,0.734,35.19,18.881,33.679,33.211,7.124,7.288,10.822
708,0.731,34.997,18.873,33.66,33.211,7.002,7.166,10.657
709,0.721,35.091,18.854,33.66,33.207,7.041,7.165,10.534
710,0.724,35.236,18.865,33.66,33.207,7.001,7.124,10.451
711,0.724,34.892,18.901,33.65,33.207,7.041,7.165,10.369
712,0.721,35.004,18.877,33.679,33.214,7.042,7.165,10.287
713,0.728,35.139,18.854,33.67,33.207,6.96,7.124,10.205
714,0.721,35.198,18.897,33.612,33.2,6.838,7.002,10.041
715,0.737,34.873,18.928,33.669,33.207,6.958,7.123,10.121
716,0.741,35.023,18.882,33.66,33.197,6.919,7.124,9.919
717,0.754,35.168,18.838,33.65,33.204,6.796,7.165,9.916
718,0.757,35.247,18.853,33.66,33.197,6.795,7.124,9.794
719,0.757,34.835,18.834,33.66,33.2,6.795,7.124,9.793
720,0.767,35.013,18.892,33.679,33.214,6.958,7.327,9.875
721,0.787,35.149,18.916,33.698,33.221,6.878,7.289,9.631
722,0.784,35.179,18.882,33.67,33.207,6.796,7.207,9.507
723,0.777,34.863,18.869,33.689,33.211,6.795,7.247,9.506
724,0.767,35.004,18.881,33.67,33.207,6.836,7.288,9.425
725,0.77,35.139,18.944,33.669,33.211,6.877,7.288,9.383
726,0.764,35.169,18.894,33.689,33.207,6.755,7.207,9.301
727,0.754,34.911,18.85,33.67,33.197,6.673,7.165,9.097
728,0.748,35.023,18.838,33.669,33.197,6.794,7.287,9.136
729,0.751,35.14,18.896,33.679,33.204,6.795,7.288,8.974
730,0.751,35.457,18.866,33.67,33.207,6.755,7.288,8.931
731,0.751,34.856,18.904,33.679,33.2,6.795,7.247,8.85
732,0.754,34.975,18.917,33.66,33.2,6.714,7.288,8.808
733,0.741,35.091,18.893,33.736,33.2,6.835,7.41,8.889
734,0.764,34.891,18.893,33.708,33.218,6.918,7.493,8.93
735,0.783,34.946,18.92,33.689,33.207,6.837,7.494,8.768
736,0.784,35.052,18.909,33.689,33.207,6.837,7.412,8.604
737,0.79,35.159,18.85,33.689,33.207,6.958,7.411,8.602
738,0.784,34.681,18.873,33.689,33.211,7.041,7.493,8.602
739,0.797,34.8,18.873,33.698,33.211,7.001,7.494,8.521
740,0.787,34.936,18.858,33.698,33.207,6.96,7.412,8.358
741,0.813,34.995,18.889,33.67,33.193,6.96,7.289,8.193
742,0.803,34.717,18.885,33.669,33.2,7.082,7.451,8.273
743,0.813,34.906,18.842,33.689,33.204,7.123,7.452,8.233
744,0.81,35.014,18.877,33.67,33.2,7.165,7.371,8.192
745,0.797,35.092,18.92,33.689,33.2,7.124,7.37,8.07
746,0.787,34.68,18.901,33.679,33.2,7.205,7.289,8.109
747,0.787,34.81,18.866,33.679,33.207,7.287,7.491,8.15
748,0.793,34.994,18.862,33.727,33.218,7.451,7.534,8.15
749,0.797,35.043,18.912,33.689,33.2,7.33,7.453,8.028
750,0.794,34.679,18.862,33.698,33.211,7.329,7.412,7.946
751,0.787,34.829,18.881,33.708,33.211,7.37,7.411,7.945
752,0.787,34.946,18.92,33.718,33.211,7.533,7.371,7.945
753,0.8,34.985,18.772,33.747,33.207,7.372,7.411,7.823
754,0.803,34.727,18.857,33.718,33.207,7.37,7.371,7.741
755,0.8,34.839,18.9,33.67,33.193,7.289,7.248,7.659
756,0.807,34.936,18.913,33.679,33.207,7.369,7.328,7.658
757,0.816,34.851,18.913,33.698,33.207,7.411,7.329,7.658
758,0.813,34.754,18.889,33.689,33.204,7.371,7.329,7.658
759,0.81,34.878,18.881,33.689,33.197,7.37,7.289,7.536
760,0.807,34.985,18.901,33.689,33.197,7.33,7.41,7.494
761,0.82,34.641,18.881,33.689,33.2,7.451,7.493,7.534
762,0.826,34.771,18.881,33.737,33.214,7.574,7.575,7.575
763,0.83,34.936,18.842,33.699,33.207,7.413,7.454,7.454
764,0.81,34.995,18.834,33.708,33.207,7.411,7.493,7.412
765,0.81,34.602,18.861,33.699,33.204,7.452,7.494,7.452
766,0.807,34.752,18.897,33.718,33.207,7.452,7.534,7.371
767,0.81,34.916,18.866,33.737,33.211,7.452,7.534,7.452
768,0.829,34.966,18.889,33.718,33.2,7.452,7.575,7.33
769,0.817,34.535,18.877,33.68,33.193,7.33,7.494,7.207
770,0.813,34.665,18.858,33.679,33.207,7.41,7.534,7.287
771,0.82,34.8,18.897,33.708,33.2,7.371,7.616,7.288
772,0.82,34.869,18.874,33.708,33.2,7.411,7.617,7.288
773,0.833,34.582,18.85,33.699,33.2,7.371,7.576,7.207
774,0.836,34.713,18.838,33.698,33.2,7.37,7.575,7.125
775,0.83,34.839,18.869,33.698,33.2,7.492,7.738,7.287
776,0.852,34.917,18.904,33.727,33.221,7.738,7.862,7.288
777,0.866,34.659,18.878,33.718,33.207,7.618,7.741,7.207
778,0.856,34.771,18.869,33.708,33.207,7.698,7.781,7.165
779,0.856,34.878,18.881,33.727,33.204,7.78,7.781,7.165
780,0.862,35.176,18.869,33.718,33.207,7.822,7.862,7.124
781,0.879,34.671,18.916,33.718,33.207,7.944,7.904,7.205
782,0.882,34.8,18.889,33.708,33.204,7.823,7.863,7.165
783,0.876,34.907,18.866,33.689,33.2,7.822,7.7,6.962
784,0.863,34.448,18.873,33.689,33.204,7.863,7.861,7.0
785,0.862,34.53,18.889,33.718,33.204,7.944,7.904,7.041
786,0.875,34.646,18.905,33.699,33.204,7.945,7.782,7.001
787,0.872,34.771,18.858,33.689,33.2,7.945,7.781,7.001
788,0.866,34.485,18.858,33.698,33.197,7.823,7.74,6.879
789,0.869,34.626,18.881,33.708,33.207,7.863,7.862,7.0
790,0.879,34.8,18.866,33.747,33.214,8.026,7.944,7.082
791,0.889,34.917,18.897,33.747,33.218,7.987,7.823,7.002
792,0.879,34.371,18.862,33.709,33.204,7.946,7.903,7.041
793,0.882,34.519,18.865,33.727,33.207,7.945,7.945,7.001
794,0.885,34.665,18.889,33.737,33.207,7.905,7.905,6.96
795,0.898,34.733,18.92,33.737,33.211,7.863,7.945,6.96
796,0.895,34.427,18.94,33.747,33.207,7.782,7.945,6.878
797,0.895,34.577,18.882,33.699,33.2,7.7,7.905,6.796
798,0.899,34.684,18.858,33.708,33.2,7.821,7.985,6.917
799,0.899,34.743,18.881,33.708,33.204,7.7,7.986,6.837
800,0.905,34.35,18.858,33.727,33.204,7.699,7.946,6.837
801,0.908,34.49,18.897,33.718,33.197,7.618,7.986,6.837
802,0.915,34.578,18.87,33.699,33.197,7.657,7.864,6.755
803,0.912,34.636,18.873,33.727,33.204,7.698,8.066,6.876
804,0.915,34.58,18.866,33.756,33.221,7.78,8.191,6.918
805,0.922,34.694,18.932,33.728,33.207,7.659,8.029,6.837
806,0.912,34.791,18.936,33.728,33.207,7.576,8.068,6.877
807,0.912,34.466,18.866,33.737,33.211,7.698,8.069,6.877
808,0.912,34.338,18.85,33.718,33.211,7.658,8.109,6.837
809,0.922,34.481,18.873,33.747,33.207,7.617,8.15,6.837
810,0.918,34.597,18.862,33.728,33.207,7.535,8.11,6.837
811,0.912,34.253,18.873,33.708,33.193,7.453,8.028,6.755
812,0.912,34.355,18.873,33.727,33.197,7.534,8.149,6.754
813,0.925,34.548,18.881,33.756,33.207,7.494,8.069,6.754
814,0.931,34.598,18.85,33.728,33.207,7.412,8.069,6.754
815,0.938,34.272,18.904,33.708,33.204,7.452,7.946,6.673
816,0.938,34.394,18.94,33.708,33.2,7.412,7.945,6.794
817,0.948,34.558,18.874,33.718,33.214,7.533,8.067,6.836
818,0.958,34.675,18.877,33.775,33.218,7.534,8.231,6.958
819,0.981,34.263,18.866,33.738,33.204,7.412,7.948,6.797
820,0.968,34.403,18.85,33.747,33.207,7.371,7.945,6.795
821,0.984,34.529,18.889,33.728,33.207,7.411,7.905,6.836
822,0.981,34.588,18.897,33.747,33.211,7.371,7.945,6.755
823,0.991,34.282,18.87,33.814,33.211,7.411,7.945,6.754
824,0.971,34.432,18.865,33.776,33.211,7.33,7.823,6.714
825,0.968,34.539,18.897,33.728,33.2,7.248,7.659,6.672
826,0.974,34.559,18.916,33.756,33.207,7.328,7.78,6.794
827,0.974,34.234,18.866,33.747,33.214,7.37,7.781,6.755
828,0.968,34.393,18.873,33.747,33.2,7.33,7.74,6.754
829,0.977,34.5,18.881,33.737,33.2,7.289,7.577,6.673
830,0.974,34.569,18.846,33.737,33.204,7.329,7.616,6.713
831,0.974,34.253,18.869,33.756,33.207,7.41,7.698,6.835
832,0.99,34.422,18.936,33.785,33.214,7.533,7.861,6.837
833,1.0,34.529,18.87,33.766,33.207,7.453,7.66,6.714
834,1.013,34.166,18.873,33.757,33.214,7.452,7.658,6.713
835,1.017,34.258,18.932,33.785,33.207,7.412,7.658,6.794
836,1.027,34.384,18.948,33.747,33.218,7.452,7.617,6.755
837,1.023,34.5,18.886,33.785,33.214,7.493,7.657,6.754
838,1.027,34.214,18.846,33.757,33.207,7.494,7.495,6.632
839,1.023,34.355,18.877,33.728,33.2,7.331,7.412,6.55
840,1.033,34.49,18.881,33.766,33.204,7.451,7.533,6.671
841,1.043,34.568,18.862,33.747,33.197,7.452,7.494,6.631
842,1.033,34.214,18.885,33.747,33.2,7.493,7.371,6.672
843,1.04,34.355,18.803,33.756,33.2,7.534,7.411,6.55
844,1.027,34.49,18.837,33.766,33.2,7.616,7.452,6.63
845,1.046,34.549,18.9,33.766,33.211,7.739,7.493,6.753
846,1.05,34.339,18.963,33.795,33.221,7.862,7.534,6.714
847,1.056,34.49,18.913,33.786,33.207,7.863,7.412,6.591
848,1.053,34.597,18.858,33.776,33.211,7.904,7.533,6.631
849,1.063,34.637,18.912,33.776,33.211,8.026,7.453,6.631
850,1.066,34.321,18.885,33.766,33.207,8.027,7.493,6.672
851,1.063,34.461,18.893,33.795,33.214,8.149,7.494,6.672
852,1.079,34.578,18.924,33.767,33.204,8.11,7.412,6.469
853,1.076,34.579,18.819,33.747,33.193,8.069,7.411,6.548
854,1.079,34.589,18.857,33.776,33.207,8.069,7.411,6.508
855,1.089,34.732,18.854,33.766,33.204,8.15,7.33,6.508
856,1.099,34.791,18.904,33.776,33.2,8.15,7.329,6.467
857,1.112,34.524,18.881,33.757,33.197,8.11,7.289,6.467
858,1.112,34.492,18.869,33.766,33.197,8.191,7.41,6.589
859,1.106,34.636,18.92,33.795,33.218,8.314,7.452,6.671
860,1.122,34.771,18.905,33.824,33.218,8.152,7.371,6.509
861,1.112,34.629,18.897,33.786,33.207,8.15,7.37,6.508
862,1.109,34.771,18.924,33.776,33.204,8.15,7.33,6.508
863,1.102,34.916,18.788,33.776,33.207,8.11,7.329,6.549
864,1.109,35.023,18.845,33.786,33.211,8.109,7.329,6.468
865,1.096,34.708,18.881,33.786,33.207,7.947,7.248,6.589
866,1.089,34.849,18.877,33.757,33.197,7.864,7.125,6.427
867,1.086,34.965,18.873,33.757,33.2,7.904,7.165,6.466
868,1.102,35.053,18.854,33.795,33.207,7.863,7.246,6.467
869,1.102,34.986,18.92,33.786,33.2,7.863,7.166,6.467
870,1.106,35.12,18.889,33.776,33.207,7.782,7.165,6.467
871,1.096,35.246,18.85,33.776,33.2,7.7,7.084,6.467
872,1.115,35.314,18.928,33.795,33.204,7.78,7.205,6.629
873,1.132,35.123,18.811,33.824,33.221,7.822,7.287,6.631
874,1.142,35.236,18.865,33.805,33.211,7.7,7.166,6.55
875,1.142,35.314,18.893,33.776,33.207,7.658,7.124,6.59
876,1.145,35.363,18.901,33.805,33.207,7.576,7.124,6.549
877,1.142,35.335,18.866,33.795,33.211,7.616,7.083,6.549
878,1.151,35.478,18.862,33.814,33.214,7.535,7.083,6.549
879,1.152,35.556,18.901,33.805,33.2,7.494,7.002,6.386
880,1.139,35.701,18.854,33.776,33.193,7.412,6.919,6.385
881,1.142,35.683,18.869,33.805,33.207,7.493,6.959,6.385
882,1.142,35.827,18.897,33.795,33.204,7.412,6.919,6.344
883,1.135,35.915,18.889,33.843,33.207,7.371,6.919,6.506
884,1.125,35.618,18.873,33.767,33.197,7.33,6.878,6.386
885,1.129,35.692,18.885,33.776,33.207,7.37,6.918,6.466
886,1.129,35.837,18.92,33.814,33.225,7.492,7.041,6.711
887,1.135,35.953,18.897,33.824,33.218,7.494,6.879,6.51
888,1.119,36.089,18.87,33.805,33.204,7.494,6.877,6.508
889,1.109,36.243,18.904,33.786,33.207,7.575,6.837,6.549
890,1.115,36.36,18.854,33.814,33.207,7.616,6.877,6.59
891,1.115,36.428,18.873,33.834,33.214,7.657,6.877,6.59
892,1.122,36.218,18.877,33.824,33.207,7.698,6.837,6.549
893,1.122,36.369,18.85,33.815,33.2,7.577,6.633,6.508
894,1.122,36.428,18.869,33.776,33.193,7.698,6.753,6.427
895,1.122,36.525,18.893,33.805,33.207,7.78,6.754,6.466
896,1.135,36.535,18.928,33.815,33.207,7.822,6.795,6.467
897,1.125,36.67,18.882,33.805,33.204,7.944,6.714,6.507
898,1.125,36.777,18.893,33.805,33.197,7.864,6.672,6.386
899,1.125,36.816,18.885,33.805,33.207,7.904,6.713,6.629
900,1.125,36.845,18.842,33.843,33.214,8.067,6.835,6.672
901,1.135,36.989,18.861,33.815,33.211,7.987,6.714,6.469
902,1.112,37.067,18.877,33.824,33.211,8.027,6.754,6.507
903,1.112,37.097,18.795,33.824,33.207,7.946,6.836,6.549
904,1.093,37.116,18.861,33.853,33.207,8.026,6.714,6.549
905,1.089,37.232,18.904,33.853,33.211,8.109,6.794,6.549
906,1.076,37.338,18.967,33.825,33.204,7.987,6.592,6.427
907,1.063,37.244,18.909,33.786,33.19,7.864,6.59,6.385
908,1.063,37.31,18.87,33.824,33.214,7.944,6.753,6.466
909,1.053,37.435,18.901,33.824,33.211,7.905,6.592,6.467
910,1.053,37.551,18.858,33.824,33.204,7.863,6.59,6.386
911,1.04,37.466,18.842,33.805,33.197,7.782,6.631,6.344
912,1.043,37.571,18.881,33.815,33.207,7.781,6.631,6.506
913,1.037,37.706,18.846,33.824,33.214,7.862,6.712,6.63
914,1.063,37.832,18.865,33.853,33.218,8.026,6.754,6.509
915,1.04,37.69,18.862,33.825,33.204,7.743,6.673,6.508
916,1.027,37.813,18.92,33.824,33.207,7.781,6.672,6.467
917,1.03,37.91,18.901,33.824,33.2,7.74,6.672,6.507
918,1.027,37.988,18.893,33.834,33.2,7.781,6.672,6.386
919,1.023,37.94,18.897,33.834,33.214,7.74,6.753,6.466
920,1.023,38.055,18.874,33.844,33.2,7.618,6.673,6.345
921,1.01,38.152,18.858,33.805,33.193,7.535,6.591,6.221
922,0.988,38.182,18.889,33.824,33.204,7.657,6.671,6.342
923,1.0,38.125,18.842,33.834,33.204,7.617,6.713,6.303
924,0.981,38.277,18.857,33.834,33.207,7.535,6.672,6.302
925,0.955,38.365,18.869,33.844,33.197,7.616,6.631,6.343
926,0.958,38.366,18.908,33.815,33.204,7.535,6.631,6.303
927,0.958,38.328,18.878,33.843,33.211,7.657,6.753,6.384
928,0.951,38.5,18.893,33.882,33.218,7.698,6.836,6.344
929,0.941,38.588,18.87,33.844,33.207,7.536,6.714,6.343
930,0.915,38.637,18.776,33.853,33.207,7.534,6.754,6.343
931,0.915,38.589,18.845,33.844,33.207,7.453,6.754,6.384
932,0.905,38.714,18.916,33.844,33.207,7.574,6.714,6.385
933,0.905,38.811,18.905,33.863,33.207,7.535,6.794,6.425
934,0.905,38.61,18.866,33.921,33.207,7.453,6.673,6.304
935,0.889,38.685,18.869,33.825,33.197,7.33,6.631,6.302
936,0.889,38.81,18.908,33.853,33.2,7.492,6.672,6.302
937,0.895,38.898,18.893,33.844,33.204,7.534,6.672,6.302
938,0.882,38.707,18.889,33.844,33.207,7.534,6.631,6.343
939,0.872,38.811,18.873,33.853,33.2,7.616,6.672,6.303
940,0.869,38.955,18.869,33.853,33.204,7.617,6.672,6.343
941,0.879,39.043,18.869,33.872,33.214,7.779,6.753,6.547
942,0.882,38.958,18.932,33.882,33.214,7.7,6.714,6.386
943,0.869,39.062,18.862,33.854,33.207,7.699,6.754,6.344
944,0.859,39.179,18.83,33.872,33.211,7.78,6.714,6.343
945,0.856,39.208,18.849,33.863,33.214,7.781,6.794,6.425
946,0.84,39.007,18.889,33.873,33.207,7.74,6.836,6.507
947,0.839,39.13,18.897,33.873,33.207,7.781,6.796,6.386
948,0.82,39.227,18.854,33.825,33.2,7.74,6.755,6.344
949,0.81,39.219,18.897,33.844,33.204,7.699,6.795,6.466
950,0.82,39.055,18.788,33.872,33.2,7.821,6.836,6.467
951,0.82,39.188,18.861,33.873,33.2,7.781,6.796,6.426
952,0.807,39.257,18.928,33.854,33.2,7.7,6.755,6.385
953,0.803,39.612,18.858,33.844,33.2,7.699,6.754,6.466
954,0.81,39.357,18.846,33.911,33.214,7.78,6.917,6.548
955,0.829,39.498,18.865,33.902,33.218,7.862,6.959,6.468
956,0.82,39.566,18.854,33.873,33.204,7.741,6.838,6.386
957,0.82,39.193,18.861,33.882,33.207,7.659,6.877,6.466
958,0.817,39.218,18.842,33.882,33.218,7.739,6.877,6.467
959,0.813,39.343,18.904,33.873,33.214,7.821,7.0,6.507
960,0.813,39.421,18.753,33.911,33.207,7.781,6.838,6.427
961,0.813,39.201,18.872,33.864,33.204,7.7,6.796,6.304
962,0.8,39.285,18.936,33.844,33.207,7.74,6.877,6.506
963,0.81,39.43,18.858,33.863,33.204,7.862,6.837,6.427
964,0.794,39.518,18.854,33.863,33.207,7.741,6.837,6.344
965,0.79,39.241,18.858,33.853,33.2,7.781,6.796,6.343
966,0.787,39.363,18.873,33.863,33.207,7.822,6.755,6.343
967,0.777,39.46,18.885,33.873,33.2,7.863,6.836,6.425
968,0.764,39.557,18.866,33.921,33.221,8.066,6.877,6.507
969,0.774,39.347,18.936,33.902,33.207,7.906,6.837,6.345
970,0.767,39.459,18.808,33.883,33.207,7.904,6.796,6.425
971,0.754,39.557,18.877,33.911,33.207,7.945,6.795,6.385
972,0.767,39.596,18.92,33.883,33.207,7.945,6.836,6.344
973,0.761,39.299,18.858,33.902,33.211,7.986,6.837,6.384
974,0.774,39.43,18.893,33.959,33.204,7.946,6.796,6.344
975,0.767,39.499,18.874,33.883,33.19,7.783,6.673,6.221
976,0.764,39.499,18.905,33.892,33.207,7.944,6.794,6.302
977,0.767,39.509,18.885,33.902,33.207,7.945,6.714,6.343
978,0.77,39.634,18.846,33.902,33.207,7.823,6.876,6.262
979,0.767,39.702,18.904,33.892,33.207,7.741,6.877,6.262
980,0.77,39.415,18.885,33.902,33.2,7.74,6.837,6.262
981,0.777,39.278,18.87,33.892,33.211,7.781,6.999,6.302
982,0.774,39.42,18.924,33.93,33.218,7.944,7.123,6.343
983,0.771,39.527,18.835,33.921,33.207,7.701,7.083,6.303
984,0.757,39.346,18.85,33.911,33.207,7.699,7.083,6.262
985,0.757,39.44,18.893,33.921,33.207,7.618,7.123,6.262
986,0.757,39.566,18.952,33.921,33.211,7.617,7.124,6.302
987,0.761,39.653,18.909,33.921,33.211,7.576,7.327,6.302
988,0.754,39.271,18.878,33.921,33.204,7.535,7.167,6.14
989,0.751,39.382,18.924,33.883,33.193,7.453,7.043,6.219
990,0.754,39.517,18.901,33.988,33.207,7.493,7.164,6.22
991,0.741,39.567,18.874,33.903,33.207,7.453,7.165,6.22
992,0.747,39.27,18.877,33.911,33.204,7.493,7.165,6.18
993,0.751,39.401,18.799,33.892,33.2,7.371,7.124,6.179
994,0.757,39.498,18.834,33.911,33.207,7.411,7.205,6.261
995,0.767,39.576,18.853,33.95,33.214,7.533,7.369,6.302
996,0.78,39.26,18.908,33.941,33.211,7.412,7.167,6.18
997,0.777,39.353,18.913,33.94,33.214,7.452,7.124,6.179
998,0.774,39.469,18.901,33.931,33.214,7.371,7.165,6.179
999,0.787,39.48,18.92,33.931,33.207,7.37,7.165,6.179
1000,0.78,39.211,18.858,33.94,33.211,7.452,7.124,6.22
1001,0.79,39.343,18.869,33.931,33.214,7.412,7.124,6.139
1002,0.774,39.421,18.893,33.902,33.193,7.249,7.002,6.098
1003,0.761,39.575,18.807,33.93,33.211,7.369,7.082,6.178
1004,0.757,39.212,18.853,33.931,33.207,7.33,7.083,6.139
1005,0.754,39.343,18.858,33.931,33.2,7.289,7.042,6.098
1006,0.754,39.402,18.92,33.912,33.197,7.247,6.92,6.056
1007,0.748,39.163,18.874,33.911,33.207,7.288,6.959,6.137
1008,0.754,39.227,18.897,33.94,33.218,7.369,7.082,6.26
1009,0.754,39.401,18.928,33.969,33.214,7.37,7.002,6.18
1010,0.748,39.431,18.78,33.941,33.207,7.33,6.96,6.22
1011,0.754,39.019,18.857,33.96,33.207,7.329,7.041,6.22
1012,0.754,39.168,18.912,33.96,33.2,7.289,7.042,6.261
1013,0.757,39.276,18.866,33.95,33.207,7.288,7.001,6.262
1014,0.774,39.344,18.737,33.96,33.207,7.329,7.001,6.18
1015,0.764,39.086,18.864,33.941,33.2,7.207,6.879,6.139
1016,0.757,39.169,18.893,33.902,33.2,7.247,6.959,6.098
1017,0.761,39.314,18.877,33.95,33.211,7.247,7.041,6.138
1018,0.774,39.382,18.873,33.931,33.207,7.328,7.001,6.138
1019,0.774,38.971,18.924,33.931,33.197,7.289,6.96,6.057
1020,0.777,39.091,18.815,33.931,33.204,7.247,6.919,6.097
1021,0.78,39.198,18.849,33.931,33.204,7.369,7.0,6.178
1022,0.777,39.247,18.881,33.969,33.214,7.533,7.123,6.383
1023,0.784,38.989,18.897,33.969,33.214,7.453,7.002,6.181
1024,0.751,39.12,18.819,33.96,33.207,7.452,7.082,6.179
1025,0.751,39.217,18.853,33.96,33.211,7.452,7.042,6.22
1026,0.761,39.238,18.916,33.979,33.207,7.574,7.042,6.18
1027,0.757,39.036,18.882,33.979,33.207,7.575,7.082,6.301
1028,0.757,39.159,18.905,33.96,33.207,7.616,7.123,6.14
1029,0.751,39.247,18.885,33.941,33.197,7.413,6.921,6.098
1030,0.741,39.008,18.83,33.931,33.2,7.574,7.081,6.26
1031,0.751,39.015,18.846,33.95,33.204,7.616,7.042,6.221
1032,0.757,39.121,18.896,33.95,33.207,7.617,7.123,6.18
1033,0.761,39.208,18.905,33.941,33.197,7.617,7.002,6.179
1034,0.761,38.825,18.835,33.94,33.204,7.657,7.001,6.179
1035,0.757,38.946,18.846,33.96,33.207,7.658,7.163,6.301
1036,0.774,39.082,18.881,33.998,33.214,7.78,7.287,6.384
1037,0.793,39.169,18.881,33.979,33.207,7.7,7.166,6.263
1038,0.787,38.873,18.877,33.97,33.207,7.699,7.124,6.302
1039,0.79,38.994,18.912,33.96,33.207,7.658,7.124,6.302
1040,0.79,39.101,18.796,33.969,33.214,7.576,7.124,6.343
1041,0.79,39.189,18.837,33.969,33.211,7.657,7.205,6.303
1042,0.787,38.768,18.896,33.979,33.207,7.658,7.084,6.221
1043,0.777,38.859,18.87,33.941,33.197,7.455,6.961,6.22
1044,0.758,38.966,18.815,33.979,33.214,7.574,7.082,6.302
1045,0.774,39.063,18.845,33.979,33.207,7.454,7.083,6.302
1046,0.761,38.872,18.877,33.95,33.204,7.452,7.002,6.302
1047,0.761,38.994,18.901,33.941,33.2,7.412,7.082,6.302
1048,0.754,39.111,18.862,33.96,33.197,7.452,7.083,6.302
1049,0.757,39.16,18.912,33.989,33.214,7.574,7.164,6.506
1050,0.767,38.681,18.835,33.989,33.214,7.616,7.043,6.427
1051,0.748,38.753,18.857,33.979,33.2,7.495,7.042,6.385
1052,0.76,38.888,18.928,33.97,33.214,7.534,7.082,6.425
1053,0.754,38.899,18.909,33.979,33.211,7.494,7.123,6.426
1054,0.774,38.736,18.819,33.989,33.214,7.494,7.124,6.466
1055,0.764,38.849,18.842,33.979,33.207,7.412,7.165,6.467
1056,0.774,38.937,18.893,33.979,33.2,7.411,7.002,6.304
1057,0.771,38.516,18.866,33.96,33.197,7.452,7.082,6.465
1058,0.77,38.617,18.858,33.979,33.204,7.452,7.002,6.426
1059,0.767,38.743,18.908,33.96,33.207,7.452,7.082,6.426
1060,0.774,38.811,18.811,33.95,33.207,7.33,7.042,6.385
1061,0.767,38.371,18.873,33.96,33.197,7.37,7.042,6.385
1062,0.774,38.491,18.908,33.979,33.204,7.37,7.123,6.507
1063,0.771,38.626,18.917,33.998,33.218,7.533,7.246,6.549
1064,0.767,38.743,18.843,33.989,33.207,7.494,7.125,6.427
1065,0.764,38.504,18.842,33.989,33.207,7.453,7.124,6.507
1066,0.764,38.646,18.881,33.979,33.204,7.412,7.165,6.427
1067,0.77,38.762,18.885,33.998,33.207,7.452,7.206,6.466
1068,0.764,38.84,18.866,33.999,33.207,7.452,7.287,6.507
1069,0.767,38.352,18.924,33.989,33.207,7.412,7.207,6.427
1070,0.761,38.481,18.815,33.989,33.193,7.289,7.165,6.344
1071,0.744,38.578,18.841,33.979,33.2,7.329,7.206,6.466
1072,0.754,38.646,18.9,33.979,33.204,7.329,7.328,6.426
1073,0.767,38.273,18.858,33.998,33.207,7.289,7.329,6.426
1074,0.764,38.413,18.76,33.999,33.2,7.288,7.289,6.426
1075,0.761,38.491,18.837,33.97,33.2,7.288,7.288,6.385
1076,0.767,38.53,18.885,33.998,33.211,7.369,7.451,6.547
1077,0.774,38.301,18.881,34.018,33.218,7.533,7.615,6.63
1078,0.784,38.442,18.889,33.999,33.204,7.372,7.495,6.387
1079,0.78,38.511,18.893,33.989,33.2,7.411,7.453,6.466
1080,0.79,38.233,18.846,33.998,33.204,7.371,7.534,6.467
1081,0.797,38.25,18.889,34.008,33.207,7.452,7.575,6.467
1082,0.787,38.375,18.87,33.999,33.211,7.452,7.575,6.426
1083,0.78,38.443,18.862,33.999,33.204,7.371,7.575,6.385
1084,0.761,38.003,18.698,33.989,33.197,7.248,7.494,6.344
1085,0.764,38.151,18.864,33.998,33.204,7.369,7.616,6.425
1086,0.757,38.268,18.924,33.999,33.2,7.37,7.657,6.385
1087,0.767,38.346,18.905,33.999,33.193,7.289,7.576,6.344
1088,0.751,38.04,18.874,33.979,33.204,7.207,7.535,6.384
1089,0.748,38.171,18.877,33.979,33.193,7.287,7.575,6.344
1090,0.738,38.316,18.834,34.037,33.217,7.41,7.779,6.628
1091,0.754,38.414,18.885,34.028,33.214,7.411,7.7,6.387
1092,0.757,38.252,18.877,34.008,33.2,7.33,7.658,6.385
1093,0.754,38.375,18.866,34.018,33.214,7.329,7.576,6.507
1094,0.761,38.5,18.721,34.027,33.207,7.37,7.657,6.508
1095,0.764,38.54,18.825,34.037,33.218,7.33,7.617,6.467
1096,0.777,37.764,18.877,34.018,33.207,7.37,7.657,6.467
1097,0.767,37.89,18.877,33.999,33.2,7.167,7.455,6.345
1098,0.761,37.987,18.885,33.989,33.204,7.368,7.534,6.466
1099,0.774,38.046,18.912,34.018,33.207,7.33,7.575,6.426
1100,0.78,37.999,18.858,34.008,33.207,7.329,7.575,6.344
1101,0.78,38.132,18.858,34.008,33.197,7.37,7.575,6.343
1102,0.771,38.22,18.893,33.979,33.197,7.33,7.616,6.425
1103,0.77,38.058,18.877,34.027,33.214,7.532,7.698,6.588
1104,0.777,37.874,18.741,34.047,33.214,7.494,7.618,6.549
1105,0.767,37.987,18.833,34.028,33.207,7.331,7.535,6.508
1106,0.751,38.075,18.865,34.018,33.207,7.41,7.494,6.508
1107,0.751,37.759,18.901,34.018,33.204,7.289,7.494,6.549
1108,0.748,37.871,18.901,34.037,33.214,7.41,7.494,6.59
1109,0.741,38.006,18.909,33.999,33.211,7.452,7.534,6.549
1110,0.738,38.084,18.854,34.018,33.2,7.29,7.372,6.468
1111,0.728,37.721,18.818,34.008,33.2,7.288,7.411,6.589
1112,0.741,37.89,18.881,34.037,33.207,7.41,7.371,6.549
1113,0.751,37.987,18.905,34.018,33.204,7.33,7.37,6.508
1114,0.751,38.046,18.811,34.018,33.197,7.289,7.289,6.549
1115,0.751,37.663,18.826,34.008,33.197,7.247,7.369,6.549
1116,0.748,37.793,18.849,34.037,33.214,7.45,7.452,6.63
1117,0.76,37.948,18.881,34.066,33.214,7.371,7.493,6.59
1118,0.754,37.998,18.842,34.038,33.207,7.289,7.371,6.631
1119,0.748,37.825,18.881,34.037,33.207,7.247,7.289,6.631
1120,0.757,37.958,18.842,34.028,33.207,7.247,7.329,6.55
1121,0.757,38.094,18.842,34.037,33.218,7.206,7.329,6.63
1122,0.761,38.133,18.885,34.047,33.214,7.287,7.289,6.672
1123,0.754,37.654,18.905,34.028,33.204,7.125,7.207,6.469
1124,0.735,37.764,18.846,34.008,33.197,7.165,7.287,6.589
1125,0.738,37.919,18.861,34.037,33.207,7.084,7.288,6.631
1126,0.747,38.247,18.861,34.037,33.204,7.083,7.288,6.631
1127,0.741,37.866,18.877,34.028,33.207,7.083,7.247,6.672
1128,0.744,37.987,18.869,34.018,33.204,7.002,7.288,6.631
1129,0.741,38.103,18.889,34.018,33.207,7.123,7.329,6.834
1130,0.738,37.616,18.877,34.056,33.221,7.205,7.41,6.918
1131,0.751,37.62,18.866,34.066,33.207,7.084,7.33,6.837
1132,0.738,37.716,18.85,34.057,33.211,7.042,7.329,6.796
1133,0.738,37.813,18.893,34.057,33.207,7.042,7.41,6.836
1134,0.754,37.661,18.881,34.057,33.207,7.082,7.371,6.796
1135,0.767,37.793,18.854,34.133,33.207,7.042,7.411,6.795
1136,0.761,37.919,18.858,34.048,33.2,7.001,7.33,6.673
1137,0.748,37.969,18.865,34.018,33.193,6.838,7.207,6.672
1138,0.751,37.643,18.865,34.037,33.204,7.04,7.287,6.753
1139,0.761,37.793,18.885,34.056,33.197,6.96,7.369,6.714
1140,0.77,37.891,18.846,34.028,33.204,7.0,7.33,6.713
1141,0.767,37.949,18.834,34.037,33.2,7.001,7.37,6.632
1142,0.761,37.585,18.861,34.018,33.204,6.96,7.33,6.712
1143,0.764,37.735,18.908,34.066,33.211,7.122,7.614,6.835
1144,0.767,37.89,18.866,34.085,33.218,7.124,7.535,6.755
1145,0.754,37.911,18.834,34.057,33.204,7.043,7.453,6.795
1146,0.754,37.671,18.873,34.037,33.211,7.123,7.534,6.795
1147,0.744,37.803,18.889,34.066,33.207,7.124,7.575,6.755
1148,0.738,37.929,18.87,34.057,33.207,7.124,7.657,6.836
1149,0.734,37.959,18.858,34.066,33.2,7.205,7.617,6.674
1150,0.725,37.614,18.854,34.047,33.2,7.003,7.576,6.631
1151,0.715,37.735,18.815,34.037,33.2,7.041,7.657,6.712
1152,0.718,37.852,18.861,34.056,33.207,7.164,7.658,6.754
1153,0.721,37.757,18.904,34.057,33.204,7.206,7.617,6.673
1154,0.728,37.718,18.878,34.037,33.204,7.206,7.698,6.591
1155,0.734,37.832,18.905,34.076,33.197,7.247,7.658,6.631
1156,0.734,37.92,18.854,34.047,33.197,7.288,7.658,6.753
1157,0.741,37.671,18.865,34.085,33.221,7.491,7.78,6.836
1158,0.747,37.813,18.869,34.086,33.204,7.412,7.659,6.674
1159,0.744,37.891,18.858,34.057,33.207,7.452,7.698,6.672
1160,0.76,37.959,18.858,34.057,33.207,7.534,7.74,6.631
1161,0.767,37.595,18.834,34.066,33.221,7.494,7.699,6.631
1162,0.77,37.735,18.881,34.057,33.207,7.534,7.78,6.631
1163,0.764,37.861,18.889,34.066,33.211,7.575,7.781,6.631
1164,0.744,37.92,18.862,34.038,33.193,7.494,7.659,6.509
1165,0.741,37.556,18.834,34.047,33.204,7.494,7.78,6.589
1166,0.747,37.706,18.885,34.047,33.204,7.534,7.781,6.549
1167,0.734,37.832,18.916,34.066,33.2,7.534,7.781,6.468
1168,0.721,37.9,18.878,34.047,33.197,7.494,7.74,6.507
1169,0.728,37.69,18.862,34.047,33.197,7.453,7.74,6.508
1170,0.721,37.822,18.834,34.057,33.2,7.534,7.821,6.67
1171,0.734,37.968,18.873,34.095,33.214,7.697,7.985,6.753
1172,0.731,38.017,18.873,34.076,33.204,7.496,7.864,6.551
1173,0.725,37.605,18.885,34.057,33.204,7.494,7.782,6.63
1174,0.728,37.716,18.842,34.076,33.207,7.453,7.862,6.55
1175,0.734,37.823,18.857,34.076,33.207,7.452,7.741,6.549
1176,0.744,38.102,18.881,34.095,33.211,7.493,7.821,6.63
1177,0.741,37.759,18.866,34.076,33.207,7.371,7.659,6.468
1178,0.738,37.871,18.85,34.038,33.2,7.248,7.617,6.467
1179,0.744,37.987,18.885,34.056,33.211,7.328,7.657,6.507
1180,0.751,37.72,18.85,34.066,33.207,7.289,7.658,6.386
1181,0.751,37.784,18.865,34.066,33.207,7.288,7.658,6.507
1182,0.744,37.91,18.865,34.047,33.204,7.207,7.617,6.386
1183,0.731,37.988,18.893,34.057,33.197,7.287,7.576,6.425
1184,0.721,37.634,18.819,34.076,33.207,7.329,7.698,6.588
1185,0.744,37.803,18.853,34.105,33.214,7.37,7.618,6.468
1186,0.731,37.891,18.818,34.067,33.204,7.289,7.535,6.467
1187,0.728,37.978,18.842,34.085,33.207,7.166,7.453,6.467
1188,0.728,37.653,18.865,34.086,33.204,7.165,7.534,6.507
1189,0.725,37.803,18.873,34.095,33.211,7.246,7.494,6.549
1190,0.721,37.919,18.901,34.086,33.211,7.125,7.575,6.508
1191,0.715,37.969,18.889,34.067,33.2,7.083,7.291,6.345
1192,0.711,37.729,18.842,34.057,33.2,7.123,7.329,6.506
1193,0.721,37.89,18.92,34.076,33.204,7.083,7.37,6.467
1194,0.731,37.968,18.835,34.066,33.204,7.083,7.289,6.386
1195,0.728,38.046,18.814,34.076,33.2,7.123,7.288,6.344
1196,0.728,37.663,18.814,34.057,33.204,7.083,7.247,6.343
1197,0.721,37.784,18.83,34.085,33.2,7.245,7.328,6.425
1198,0.728,37.929,18.881,34.095,33.218,7.288,7.41,6.588
1199,0.728,37.997,18.905,34.105,33.207,7.207,7.289,6.468
1200,0.721,37.73,18.897,34.076,33.204,7.206,7.329,6.386
1201,0.728,37.88,18.87,34.086,33.2,7.328,7.37,6.425
1202,0.734,37.997,18.842,34.086,33.207,7.289,7.33,6.466
1203,0.734,37.749,18.92,34.086,33.207,7.41,7.329,6.426
1204,0.731,37.67,18.858,34.076,33.204,7.289,7.248,6.304
1205,0.712,37.784,18.69,34.057,33.193,7.207,7.206,6.343
1206,0.718,37.91,18.844,34.085,33.207,7.287,7.287,6.425
1207,0.721,37.604,18.838,34.067,33.204,7.288,7.247,6.385
1208,0.721,37.735,18.857,34.066,33.204,7.329,7.206,6.263
1209,0.718,37.823,18.85,34.066,33.197,7.207,7.206,6.302
1210,0.721,37.9,18.9,34.076,33.204,7.287,7.206,6.343
1211,0.731,37.623,18.87,34.105,33.214,7.451,7.45,6.588
1212,0.738,37.793,18.858,34.115,33.207,7.33,7.29,6.427
1213,0.738,37.881,18.889,34.076,33.207,7.37,7.207,6.426
1214,0.741,37.92,18.885,34.076,33.2,7.289,7.206,6.426
1215,0.741,37.537,18.803,34.086,33.207,7.288,7.206,6.385
1216,0.747,37.687,18.865,34.095,33.2,7.41,7.247,6.425
1217,0.754,37.794,18.858,34.105,33.214,7.371,7.288,6.385
1218,0.754,37.852,18.885,34.076,33.197,7.289,7.125,6.344
1219,0.741,37.594,18.866,34.066,33.2,7.41,7.246,6.425
1220,0.751,37.745,18.893,34.066,33.211,7.452,7.166,6.344
1221,0.748,37.871,18.866,34.105,33.207,7.534,7.165,6.343
1222,0.744,37.891,18.807,34.076,33.2,7.494,7.165,6.343
1223,0.734,37.604,18.888,34.066,33.2,7.616,7.124,6.343
1224,0.725,37.726,18.862,34.076,33.2,7.617,7.165,6.466
1225,0.721,37.852,18.826,34.124,33.214,7.82,7.287,6.629
1226,0.728,37.92,18.877,34.105,33.207,7.741,7.125,6.509
1227,0.715,37.729,18.877,34.076,33.207,7.699,7.205,6.508
1228,0.715,37.832,18.85,34.095,33.2,7.658,7.165,6.427
1229,0.708,37.968,18.861,34.086,33.211,7.739,7.206,6.466
1230,0.711,37.566,18.901,34.105,33.207,7.781,7.247,6.507
1231,0.711,37.639,18.835,34.115,33.207,7.7,7.125,6.386
1232,0.711,37.745,18.81,34.086,33.193,7.618,7.083,6.344
1233,0.724,37.813,18.857,34.067,33.2,7.657,7.164,6.425
1234,0.731,37.603,18.889,34.085,33.207,7.658,7.084,6.466
1235,0.731,37.726,18.823,34.086,33.2,7.698,7.083,6.386
1236,0.738,37.861,18.849,34.095,33.2,7.658,7.083,6.385
1237,0.738,37.92,18.865,34.057,33.2,7.617,7.002,6.385
1238,0.741,37.345,18.737,34.095,33.211,7.657,7.123,6.425
1239,0.747,37.531,18.86,34.114,33.218,7.78,7.246,6.548
1240,0.757,37.629,18.893,34.086,33.204,7.7,7.044,6.386
1241,0.754,37.668,18.85,34.095,33.207,7.78,7.042,6.466
1242,0.741,37.467,18.854,34.086,33.211,7.7,7.082,6.345
1243,0.734,37.609,18.9,34.095,33.211,7.699,7.042,6.425
1244,0.725,37.716,18.897,34.105,33.211,7.74,7.042,6.426
1245,0.731,37.775,18.835,34.095,33.204,7.659,6.96,6.344
1246,0.721,37.382,18.818,34.047,33.2,7.495,6.878,6.343
1247,0.721,37.532,18.884,34.085,33.204,7.656,6.959,6.384
1248,0.724,37.648,18.823,34.095,33.204,7.617,6.96,6.344
1249,0.721,37.669,18.838,34.076,33.2,7.535,6.96,6.221
1250,0.711,37.467,18.881,34.066,33.2,7.494,6.96,6.302
1251,0.698,37.6,18.768,34.076,33.2,7.534,7.082,6.343
1252,0.711,37.706,18.849,34.095,33.218,7.616,7.164,6.506
1253,0.728,37.506,18.928,34.105,33.211,7.535,7.165,6.427
1254,0.725,37.466,18.913,34.086,33.207,7.453,7.043,6.344
1255,0.728,37.59,18.862,34.076,33.211,7.452,7.123,6.425
1256,0.725,37.678,18.85,34.095,33.2,7.452,7.165,6.426
1257,0.734,37.324,18.85,34.095,33.207,7.412,7.084,6.385
1258,0.754,37.454,18.873,34.105,33.207,7.411,7.205,6.385
1259,0.741,37.58,18.862,34.086,33.204,7.289,7.125,6.222
1260,0.744,37.62,18.865,34.057,33.193,7.166,7.083,6.261
1261,0.738,37.237,18.772,34.085,33.207,7.246,7.205,6.302
1262,0.747,37.367,18.841,34.095,33.2,7.166,7.165,6.302
1263,0.728,37.493,18.893,34.086,33.204,7.124,7.165,6.18
1264,0.718,37.552,18.881,34.076,33.193,7.083,7.287,6.22
1265,0.708,37.217,18.83,34.076,33.197,7.042,7.288,6.261
1266,0.705,37.396,18.849,34.095,33.214,7.204,7.491,6.424
1267,0.715,37.551,18.873,34.124,33.214,7.125,7.453,6.263
1268,0.711,37.562,18.83,34.096,33.207,7.083,7.452,6.262
1269,0.715,37.255,18.838,34.095,33.207,7.042,7.452,6.302
1270,0.705,37.377,18.912,34.086,33.207,7.123,7.493,6.384
1271,0.728,37.474,18.8,34.095,33.214,7.124,7.575,6.385
1272,0.728,37.513,18.869,34.095,33.211,7.083,7.535,6.344
1273,0.734,37.293,18.897,34.086,33.197,7.002,7.453,6.221
1274,0.731,37.377,18.866,34.057,33.197,7.041,7.493,6.302
1275,0.738,37.512,18.819,34.095,33.204,7.082,7.494,6.343
1276,0.747,37.399,18.791,34.086,33.204,7.083,7.534,6.303
1277,0.747,37.206,18.837,34.057,33.207,7.123,7.534,6.302
1278,0.754,37.328,18.861,34.114,33.193,7.083,7.534,6.221
1279,0.735,37.426,18.85,34.086,33.2,7.164,7.657,6.383
1280,0.747,37.101,18.904,34.105,33.214,7.368,7.739,6.547
1281,0.76,37.232,18.878,34.134,33.214,7.33,7.577,6.346
1282,0.751,37.319,18.873,34.096,33.211,7.37,7.657,6.343
1283,0.744,37.406,18.901,34.095,33.207,7.452,7.658,6.384
1284,0.744,36.947,18.889,34.076,33.214,7.615,7.658,6.385
1285,0.741,37.096,18.831,34.095,33.211,7.657,7.658,6.466
1286,0.734,37.222,18.795,34.095,33.207,7.658,7.576,6.426
1287,0.725,37.29,18.833,34.067,33.197,7.617,7.494,6.304
1288,0.718,36.994,18.717,34.066,33.2,7.617,7.534,6.343
1289,0.731,37.182,18.848,34.085,33.204,7.698,7.616,6.343
1290,0.718,37.309,18.889,34.076,33.2,7.699,7.576,6.343
1291,0.698,37.349,18.823,34.086,33.204,7.699,7.413,6.303
1292,0.714,37.004,18.865,34.095,33.204,7.658,7.452,6.262
1293,0.721,37.135,18.916,34.076,33.193,7.739,7.493,6.424
1294,0.747,37.27,18.905,34.114,33.214,7.821,7.575,6.466
1295,0.754,37.329,18.827,34.105,33.211,7.7,7.454,6.304
1296,0.748,36.917,18.826,34.076,33.207,7.699,7.452,6.343
1297,0.754,37.057,18.853,34.095,33.207,7.74,7.493,6.425
1298,0.744,37.135,18.869,34.086,33.207,7.74,7.453,6.344
1299,0.754,37.462,18.846,34.105,33.211,7.862,7.452,6.343
1300,0.767,36.871,18.912,34.095,33.207,7.741,7.493,6.303
1301,0.767,36.989,18.8,34.086,33.197,7.699,7.331,6.262
1302,0.761,37.087,18.857,34.086,33.2,7.821,7.451,6.302
1303,0.767,36.848,18.904,34.076,33.204,7.903,7.452,6.302
1304,0.767,36.893,18.893,34.066,33.2,7.863,7.371,6.262
1305,0.774,37.009,18.784,34.076,33.2,7.822,7.37,6.302
1306,0.771,37.068,18.849,34.057,33.2,7.781,7.37,6.302
1307,0.767,36.723,18.857,34.076,33.211,7.984,7.411,6.425
1308,0.8,36.902,18.83,34.114,33.225,8.149,7.493,6.385
1309,0.8,37.028,18.846,34.086,33.197,7.947,7.371,6.344
1310,0.794,37.068,18.928,34.086,33.204,8.026,7.33,6.384
1311,0.797,36.713,18.811,34.095,33.207,7.946,7.37,6.385
1312,0.807,36.863,18.822,34.105,33.211,8.067,7.37,6.303
1313,0.826,36.989,18.896,34.095,33.211,8.028,7.33,6.384
1314,0.82,37.067,18.893,34.086,33.204,7.946,7.329,6.344
1315,0.82,36.637,18.846,34.057,33.193,7.823,7.126,6.221
1316,0.817,36.805,18.846,34.076,33.207,7.985,7.327,6.261
1317,0.829,36.951,18.861,34.086,33.204,7.946,7.289,6.302
1318,0.833,36.971,18.826,34.067,33.207,7.864,7.288,6.302
1319,0.836,36.674,18.838,34.047,33.207,7.782,7.125,6.262
1320,0.839,36.796,18.904,34.047,33.197,7.822,7.287,6.262
1321,0.849,36.912,18.839,34.085,33.214,7.944,7.369,6.465
1322,0.859,37.0,18.853,34.114,33.218,7.945,7.33,6.264
1323,0.849,36.646,18.838,34.076,33.2,7.823,7.329,6.221
1324,0.84,36.776,18.896,34.076,33.207,7.781,7.248,6.261
1325,0.839,36.883,18.858,34.076,33.211,7.822,7.206,6.302
1326,0.83,36.779,18.869,34.086,33.211,7.822,7.287,6.302
1327,0.83,36.701,18.885,34.086,33.207,7.863,7.247,6.262
1328,0.82,36.815,18.87,34.057,33.204,7.782,7.166,6.099
1329,0.81,36.903,18.854,34.057,33.204,7.7,7.124,6.219
1330,0.823,36.453,18.893,34.076,33.207,7.78,7.205,6.261
1331,0.846,36.535,18.85,34.076,33.2,7.781,7.287,6.18
1332,0.849,36.67,18.818,34.066,33.2,7.781,7.125,6.22
1333,0.859,36.757,18.81,34.066,33.2,7.822,7.165,6.18
1334,0.869,36.499,18.869,34.057,33.2,7.863,7.124,6.22
1335,0.882,36.66,18.877,34.085,33.218,8.026,7.287,6.302
1336,0.892,36.824,18.854,34.105,33.214,8.027,7.207,6.221
1337,0.879,36.884,18.869,34.057,33.211,8.027,7.206,6.22
1338,0.885,36.405,18.842,34.076,33.214,8.027,7.165,6.261
1339,0.885,36.544,18.85,34.086,33.211,8.109,7.206,6.221
1340,0.895,36.679,18.9,34.076,33.211,8.109,7.287,6.261
1341,0.889,36.719,18.854,34.076,33.207,8.15,7.166,6.18
1342,0.882,36.346,18.854,34.057,33.193,8.11,7.043,6.057
1343,0.853,36.457,18.846,34.037,33.197,8.191,7.123,6.219
1344,0.862,36.592,18.889,34.076,33.211,8.192,7.165,6.22
1345,0.856,36.622,18.924,34.066,33.204,8.192,7.084,6.18
1346,0.843,36.402,18.815,34.047,33.2,8.151,7.123,6.098
1347,0.833,36.525,18.841,34.037,33.207,8.191,7.083,6.138
1348,0.843,36.631,18.818,34.056,33.211,8.273,7.164,6.301
1349,0.859,36.939,18.865,34.095,33.221,8.314,7.246,6.343
1350,0.862,36.415,18.881,34.076,33.204,8.234,7.125,6.262
1351,0.849,36.515,18.869,34.066,33.204,8.192,7.124,6.262
1352,0.859,36.631,18.834,34.095,33.207,8.192,7.124,6.262
1353,0.862,36.287,18.842,34.076,33.204,8.273,7.083,6.262
1354,0.862,36.341,18.908,34.066,33.211,8.274,7.083,6.343
1355,0.869,36.476,18.878,34.066,33.2,8.193,7.002,6.303
1356,0.853,36.544,18.858,34.047,33.197,8.07,6.879,6.14
1357,0.836,36.162,18.85,34.057,33.204,8.15,7.0,6.26
1358,0.836,36.302,18.818,34.057,33.2,8.11,7.001,6.343
1359,0.833,36.418,18.845,34.066,33.2,8.069,6.919,6.221
1360,0.826,36.496,18.885,34.057,33.197,7.987,6.878,6.22
1361,0.813,36.18,18.827,34.037,33.2,7.946,6.918,6.302
1362,0.81,36.34,18.857,34.076,33.204,8.026,6.959,6.343
1363,0.807,36.476,18.873,34.086,33.214,8.068,7.0,6.384
1364,0.81,36.573,18.944,34.086,33.207,7.946,6.879,6.344
1365,0.794,36.143,18.843,34.057,33.214,7.905,6.877,6.303
1366,0.784,36.292,18.846,34.066,33.211,7.863,6.959,6.302
1367,0.777,36.437,18.842,34.066,33.207,7.863,6.878,6.302
1368,0.771,36.458,18.834,34.066,33.207,7.863,6.959,6.343
1369,0.77,36.218,18.846,34.076,33.197,7.741,6.797,6.181
1370,0.751,36.331,18.861,34.038,33.193,7.577,6.673,6.22
1371,0.748,36.428,18.834,34.056,33.197,7.698,6.835,6.342
1372,0.751,36.496,18.826,34.047,33.2,7.74,6.877,6.343
1373,0.764,36.152,18.865,34.057,33.207,7.618,6.715,6.425
1374,0.774,36.263,18.932,34.037,33.197,7.617,6.754,6.304
1375,0.764,36.37,18.866,34.047,33.193,7.576,6.754,6.343
1376,0.757,36.198,18.819,34.066,33.207,7.657,6.876,6.547
1377,0.764,36.187,18.838,34.085,33.218,7.739,6.959,6.59
1378,0.767,36.302,18.826,34.067,33.207,7.577,6.878,6.468
1379,0.751,36.418,18.826,34.066,33.211,7.657,6.837,6.507
1380,0.748,35.94,18.873,34.038,33.207,7.536,6.837,6.549
1381,0.747,36.05,18.823,34.066,33.211,7.534,6.837,6.63
1382,0.751,36.214,18.83,34.076,33.207,7.616,6.877,6.631
1383,0.731,36.293,18.896,34.057,33.2,7.454,6.796,6.509
1384,0.715,36.015,18.94,34.018,33.193,7.371,6.755,6.589
1385,0.711,36.166,18.866,34.056,33.207,7.492,6.795,6.549
1386,0.708,36.302,18.862,34.037,33.204,7.453,6.836,6.63
1387,0.708,36.37,18.834,34.047,33.197,7.371,6.796,6.631
1388,0.692,35.901,18.826,34.037,33.204,7.37,6.877,6.631
1389,0.688,36.04,18.822,34.037,33.197,7.37,6.877,6.672
1390,0.685,36.176,18.9,34.076,33.211,7.452,7.0,6.794
1391,0.692,36.254,18.877,34.076,33.211,7.493,7.001,6.755
1392,0.672,35.986,18.85,34.057,33.204,7.412,6.919,6.754
1393,0.682,36.108,18.893,34.057,33.204,7.411,6.919,6.754
1394,0.688,36.234,18.916,34.057,33.211,7.371,6.959,6.795
1395,0.695,36.254,18.909,34.057,33.218,7.37,6.96,6.755
1396,0.695,35.89,18.87,34.066,33.207,7.37,6.96,6.754
1397,0.701,36.021,18.838,34.047,33.193,7.248,6.756,6.714
1398,0.682,36.099,18.807,34.009,33.197,7.369,6.917,6.754
1399,0.682,36.215,18.826,34.047,33.204,7.37,6.959,6.836
1400,0.688,35.986,18.881,34.037,33.197,7.33,6.919,6.796
1401,0.679,36.089,18.815,34.028,33.2,7.289,6.959,6.714
1402,0.678,36.195,18.83,34.037,33.204,7.329,6.96,6.835
1403,0.675,35.861,18.865,34.047,33.211,7.37,7.041,6.918
1404,0.675,35.944,18.916,34.066,33.221,7.452,7.082,6.919
1405,0.675,36.06,18.878,34.038,33.2,7.371,7.002,6.878
1406,0.659,36.138,18.866,34.047,33.207,7.37,6.96,6.837
1407,0.649,35.86,18.85,34.037,33.211,7.289,6.96,6.918
1408,0.662,36.011,18.885,34.047,33.207,7.329,7.0,6.919
1409,0.659,36.128,18.846,34.057,33.207,7.289,7.001,6.959
1410,0.649,36.215,18.896,34.028,33.2,7.207,6.879,6.878
1411,0.646,35.717,18.85,34.018,33.193,7.165,6.918,6.877
1412,0.649,35.894,18.85,34.047,33.204,7.287,6.959,6.959
1413,0.662,36.03,18.834,34.057,33.204,7.329,6.96,6.878
1414,0.665,36.08,18.861,34.018,33.2,7.289,6.878,6.918
1415,0.659,35.735,18.881,34.018,33.207,7.288,6.837,6.878
1416,0.659,35.885,18.846,34.037,33.207,7.491,7.04,7.0
1417,0.675,36.04,18.881,34.066,33.221,7.616,7.082,7.001
1418,0.682,36.061,18.869,34.057,33.204,7.495,6.961,6.919
1419,0.675,35.735,18.838,34.047,33.197,7.453,6.919,6.959
1420,0.682,35.895,18.885,34.037,33.211,7.493,6.959,6.838
1421,0.685,35.992,18.866,34.047,33.211,7.534,6.96,6.958
1422,0.701,36.041,18.85,34.047,33.211,7.616,6.919,6.919
1423,0.698,35.706,18.85,34.047,33.207,7.535,6.878,6.796
1424,0.669,35.798,18.822,34.009,33.193,7.494,6.796,6.795
1425,0.678,35.914,18.838,34.037,33.207,7.616,6.836,6.877
1426,0.669,35.753,18.83,34.047,33.204,7.535,6.796,6.715
1427,0.656,35.799,18.834,34.037,33.204,7.575,6.836,6.794
1428,0.652,35.914,18.889,34.009,33.197,7.616,6.796,6.714
1429,0.646,36.011,18.854,34.027,33.197,7.617,6.877,6.754
1430,0.642,35.629,18.912,34.066,33.218,7.739,7.0,6.957
1431,0.668,35.769,18.893,34.057,33.211,7.699,6.919,6.716
1432,0.665,35.885,18.862,34.095,33.207,7.699,6.837,6.794
1433,0.675,35.963,18.842,34.047,33.204,7.74,6.837,6.755
1434,0.708,35.648,18.853,34.028,33.207,7.781,6.918,6.754
1435,0.721,35.788,18.877,34.047,33.214,7.74,6.878,6.714
1436,0.773,35.914,18.85,34.057,33.214,7.781,6.877,6.672
1437,0.819,35.992,18.854,34.018,33.193,7.74,6.715,6.55
1438,0.843,35.648,18.858,33.999,33.2,7.781,6.794,6.63
1439,0.888,35.836,18.85,34.027,33.207,7.944,6.836,6.631
1440,0.931,35.953,18.885,33.999,33.2,7.945,6.796,6.55
1441,0.961,35.993,18.854,33.999,33.2,7.986,6.755,6.59
1442,1.01,35.542,18.846,34.018,33.193,8.068,6.714,6.59
1443,1.027,35.672,18.838,34.018,33.204,8.272,6.794,6.631
1444,1.056,35.817,18.873,34.037,33.214,8.355,6.958,6.794
1445,1.079,35.838,18.908,34.009,33.211,8.315,6.756,6.551
1446,1.092,35.627,18.858,34.027,33.207,8.356,6.795,6.59
1447,1.109,35.769,18.85,34.008,33.211,8.397,6.795,6.59
1448,1.141,35.885,18.881,34.018,33.211,8.397,6.836,6.549
1449,1.194,35.791,18.866,34.027,33.211,8.397,6.837,6.59
1450,1.237,35.512,18.869,34.028,33.204,8.438,6.796,6.59
1451,1.299,35.624,18.862,33.999,33.193,8.194,6.673,6.427
1452,1.358,35.711,18.807,34.008,33.207,8.314,6.713,6.507
1453,1.398,35.549,18.834,34.008,33.2,8.274,6.713,6.549
1454,1.447,35.653,18.865,34.008,33.204,8.314,6.672,6.549
1455,1.506,35.76,18.897,33.999,33.2,8.234,6.713,6.468
1456,1.562,35.857,18.87,33.989,33.197,8.192,6.794,6.548
1457,1.601,35.378,18.877,34.008,33.207,8.232,6.795,6.712
1458,1.637,35.546,18.85,34.047,33.221,8.192,6.795,6.713
1459,1.667,35.672,18.846,34.018,33.211,8.07,6.714,6.632
1460,1.7,35.75,18.885,34.018,33.207,8.109,6.754,6.672
1461,1.677,35.387,18.854,33.999,33.214,8.069,6.714,6.672
1462,1.667,35.555,18.834,34.008,33.2,8.028,6.713,6.713
1463,1.589,35.682,18.842,34.018,33.207,8.027,6.713,6.754
1464,1.523,35.731,18.881,34.008,33.2,7.946,6.632,6.551
1465,1.477,35.444,18.889,33.96,33.2,7.864,6.59,6.671
1466,1.457,35.623,18.866,33.998,33.204,7.985,6.59,6.672
1467,1.408,35.74,18.865,34.018,33.214,7.946,6.631,6.713
1468,1.356,35.78,18.877,33.989,33.197,7.945,6.55,6.672
1469,1.284,35.425,18.866,33.979,33.197,7.864,6.59,6.794
1470,1.179,35.556,18.815,33.989,33.211,7.822,6.671,6.958
1471,1.08,35.711,18.884,34.018,33.221,7.985,6.753,7.082
1472,0.975,35.808,18.788,34.018,33.207,7.864,6.632,7.083
1473,0.883,35.531,18.841,33.999,33.204,7.822,6.631,7.286
1474,0.798,35.662,18.893,33.999,33.2,7.863,6.59,7.329
1475,0.735,35.769,18.893,34.027,33.207,7.822,6.549,7.532
1476,0.66,35.473,18.874,34.008,33.207,7.863,6.59,7.697
1477,0.568,35.528,18.881,34.008,33.211,7.782,6.631,7.902
1478,0.511,35.595,18.862,33.97,33.19,7.659,6.509,8.067
1479,0.462,35.711,18.822,33.989,33.2,7.739,6.589,8.353
1480,0.432,35.338,18.861,33.979,33.207,7.74,6.549,8.6
1481,0.387,35.469,18.877,33.998,33.2,7.659,6.59,8.765
1482,0.347,35.595,18.842,34.046,33.204,7.617,6.509,8.929
1483,0.304,35.682,18.842,33.98,33.2,7.617,6.589,9.093
1484,0.255,35.3,18.9,33.989,33.207,7.657,6.712,9.38
1485,0.242,35.468,18.94,34.027,33.214,7.739,6.754,9.464
1486,0.209,35.595,18.882,33.98,33.207,7.537,6.632,9.505
1487,0.183,35.653,18.869,34.008,33.207,7.534,6.631,9.587
1488,0.186,35.395,18.873,33.999,33.211,7.575,6.672,9.751
1489,0.199,35.565,18.807,33.999,33.211,7.535,6.631,9.752
1490,0.222,35.692,18.849,33.999,33.211,7.616,6.672,9.955
1491,0.235,35.741,18.865,33.999,33.204,7.535,6.591,9.917
1492,0.238,35.31,18.834,34.027,33.193,7.412,6.468,10.161
1493,0.248,35.44,18.83,33.989,33.2,7.493,6.629,10.326
1494,0.251,35.566,18.881,33.979,33.204,7.494,6.59,10.571
1495,0.242,35.567,18.909,33.96,33.2,7.412,6.549,10.736
1496,0.232,35.327,18.866,33.96,33.2,7.411,6.508,10.941
1497,0.225,35.459,18.85,33.969,33.2,7.289,6.467,11.228
1498,0.235,35.556,18.85,33.979,33.214,7.532,6.629,11.515
1499,0.261,35.49,18.818,34.027,33.214,7.534,6.631,11.64
1500,0.255,35.365,18.853,33.989,33.207,7.331,6.55,11.723
1501,0.229,35.459,18.861,33.979,33.204,7.37,6.63,11.846
1502,0.248,35.595,18.858,34.017,33.207,7.37,6.672,12.05
1503,0.251,35.28,18.83,33.999,33.207,7.37,6.591,12.215
1504,0.268,35.372,18.865,33.999,33.207,7.37,6.59,12.054
1505,0.287,35.469,18.873,33.96,33.197,7.208,6.549,11.971
1506,0.291,35.556,18.826,33.979,33.2,7.247,6.63,12.051
1507,0.32,35.202,18.865,33.979,33.207,7.166,6.631,12.011
1508,0.346,35.333,18.865,33.96,33.204,7.124,6.55,11.93
1509,0.373,35.469,18.846,33.979,33.204,7.124,6.508,11.807
1510,0.396,35.547,18.881,33.97,33.2,7.083,6.63,11.765
1511,0.438,35.241,18.881,33.979,33.204,7.164,6.712,11.846
1512,0.478,35.429,18.842,33.998,33.214,7.206,6.794,11.725
1513,0.537,35.566,18.853,34.008,33.207,7.084,6.673,11.52
1514,0.573,35.596,18.842,33.97,33.207,7.123,6.672,11.396
1515,0.596,35.241,18.881,33.989,33.207,7.043,6.713,11.314
1516,0.629,35.41,18.819,33.989,33.207,7.164,6.672,11.191
1517,0.655,35.517,18.834,33.989,33.207,7.165,6.713,11.027
1518,0.668,35.538,18.885,33.979,33.204,7.043,6.672,10.903
1519,0.672,35.202,18.838,33.95,33.19,6.96,6.591,10.739
1520,0.685,35.343,18.869,33.95,33.204,6.919,6.712,10.657
1521,0.701,35.469,18.916,33.96,33.204,7.081,6.672,10.574
1522,0.711,35.815,18.8,33.969,33.207,7.002,6.631,10.411
1523,0.708,35.339,18.822,33.941,33.197,6.919,6.672,10.287
1524,0.702,35.43,18.865,33.94,33.2,6.959,6.753,10.286
1525,0.708,35.546,18.904,33.979,33.207,7.122,6.836,10.286
1526,0.715,35.25,18.85,33.998,33.211,7.043,6.714,10.083
1527,0.708,35.247,18.83,33.97,33.204,6.96,6.713,9.999
1528,0.721,35.362,18.912,33.96,33.207,6.96,6.713,9.958
1529,0.721,35.469,18.842,33.989,33.211,6.919,6.794,9.917
1530,0.718,35.173,18.857,33.979,33.211,7.0,6.755,9.876
1531,0.728,35.314,18.908,33.979,33.207,6.919,6.795,9.753
1532,0.721,35.421,18.854,33.941,33.2,6.796,6.673,9.59
1533,0.724,35.489,18.826,33.94,33.2,6.795,6.672,9.669
1534,0.741,35.048,18.873,33.94,33.2,6.917,6.794,9.507
1535,0.738,35.197,18.893,33.95,33.207,6.837,6.714,9.465
1536,0.741,35.314,18.846,33.931,33.197,6.796,6.713,9.383
1537,0.734,35.373,18.834,33.921,33.197,6.755,6.713,9.382
1538,0.751,35.201,18.885,33.95,33.2,6.795,6.876,9.423
1539,0.764,35.391,18.858,34.065,33.218,6.958,6.959,9.342
1540,0.77,35.498,18.865,33.961,33.204,6.797,6.838,9.26
1541,0.761,35.537,18.881,33.96,33.2,6.755,6.837,9.178
1542,0.761,35.087,18.803,33.941,33.204,6.714,6.958,9.096
1543,0.761,35.236,18.837,33.95,33.211,6.754,6.96,9.054
1544,0.757,35.372,18.857,33.941,33.211,6.795,7.041,8.973
1545,0.754,35.364,18.9,33.94,33.2,6.714,6.879,8.769
1546,0.741,35.124,18.85,33.921,33.193,6.672,7.0,8.848
1547,0.744,35.284,18.881,33.94,33.207,6.713,7.082,8.808
1548,0.751,35.382,18.885,33.931,33.197,6.754,7.042,8.686
1549,0.761,35.249,18.85,33.94,33.207,6.632,7.042,8.562
1550,0.744,35.19,18.869,33.921,33.197,6.55,7.082,8.48
1551,0.751,35.314,18.881,33.931,33.2,6.671,7.123,8.56
1552,0.757,35.449,18.834,33.979,33.221,6.835,7.246,8.602
1553,0.783,35.086,18.818,33.96,33.204,6.674,7.125,8.358
1554,0.784,35.169,18.842,33.941,33.207,6.713,7.165,8.397
1555,0.787,35.294,18.881,33.94,33.2,6.713,7.206,8.356
1556,0.784,35.401,18.862,33.94,33.207,6.754,7.165,8.315
1557,0.79,34.952,18.877,33.969,33.207,6.795,7.165,8.274
1558,0.79,35.091,18.905,33.941,33.207,6.795,7.165,8.111
1559,0.784,35.217,18.862,33.902,33.193,6.714,7.043,7.947
1560,0.79,35.285,18.838,33.921,33.204,6.876,7.164,8.026
1561,0.79,35.085,18.877,33.921,33.2,6.959,7.124,7.946
1562,0.787,35.236,18.803,33.911,33.2,7.0,7.124,7.905
1563,0.777,35.343,18.802,33.921,33.197,7.041,7.083,7.782
1564,0.774,35.411,18.869,33.921,33.193,7.123,7.164,7.822
1565,0.771,35.048,18.881,33.94,33.211,7.368,7.287,7.985
1566,0.796,35.216,18.893,33.95,33.218,7.37,7.247,7.783
1567,0.787,35.314,18.862,33.941,33.2,7.33,7.166,7.781
1568,0.78,35.344,18.889,33.931,33.211,7.37,7.165,7.74
1569,0.78,35.009,18.881,33.979,33.207,7.411,7.165,7.699
1570,0.787,35.159,18.834,33.941,33.204,7.452,7.287,7.618
1571,0.797,35.275,18.896,33.931,33.207,7.452,7.166,7.576
1572,0.797,35.42,18.823,33.902,33.193,7.33,7.043,7.372
1573,0.807,35.0,18.818,33.902,33.2,7.451,7.204,7.452
1574,0.816,35.158,18.838,33.921,33.207,7.371,7.084,7.452
1575,0.813,35.237,18.885,33.921,33.204,7.492,7.083,7.371
1576,0.816,34.912,18.87,33.911,33.197,7.412,7.083,7.289
1577,0.813,34.966,18.823,33.883,33.197,7.33,7.042,7.329
1578,0.82,35.101,18.881,33.921,33.211,7.451,7.164,7.451
1579,0.82,35.246,18.881,33.94,33.214,7.574,7.165,7.452
1580,0.843,34.931,18.85,33.893,33.204,7.413,7.043,7.29
1581,0.833,35.062,18.9,33.902,33.204,7.493,7.082,7.247
1582,0.833,35.197,18.78,33.902,33.2,7.453,7.123,7.288
1583,0.826,35.295,18.822,33.902,33.207,7.412,7.083,7.247
1584,0.817,34.95,18.881,33.902,33.204,7.452,7.042,7.206
1585,0.823,35.081,18.905,33.892,33.2,7.29,6.96,7.043
1586,0.813,35.198,18.881,33.873,33.197,7.288,7.0,7.082
1587,0.826,35.295,18.83,33.892,33.2,7.329,6.96,7.083
1588,0.817,34.855,18.873,33.863,33.207,7.289,6.96,7.002
1589,0.82,35.032,18.846,33.873,33.2,7.247,6.96,6.96
1590,0.807,35.14,18.814,33.873,33.197,7.166,6.919,7.041
1591,0.82,35.179,18.896,33.882,33.2,7.287,6.959,7.123
1592,0.833,34.93,18.835,33.911,33.221,7.369,7.041,7.165
1593,0.843,35.062,18.838,33.892,33.197,7.33,6.96,7.002
1594,0.836,35.14,18.857,33.883,33.207,7.207,6.96,6.919
1595,0.846,35.16,18.889,33.882,33.207,7.206,6.96,6.959
1596,0.862,34.892,18.854,33.882,33.207,7.247,6.919,6.96
1597,0.866,35.033,18.842,33.882,33.211,7.206,6.919,6.919
1598,0.866,35.149,18.869,33.882,33.207,7.165,6.878,6.878
1599,0.862,34.901,18.83,33.863,33.193,7.043,6.837,6.715
1600,0.856,34.822,18.838,33.853,33.2,7.164,6.877,6.794
1601,0.872,34.965,18.92,33.863,33.204,7.165,6.918,6.795
1602,0.859,35.081,18.796,33.853,33.2,7.206,6.837,6.795
1603,0.853,34.757,18.833,33.853,33.2,7.206,6.877,6.755
1604,0.849,34.878,18.842,33.853,33.204,7.165,6.918,6.836
1605,0.862,35.023,18.861,33.882,33.218,7.287,7.081,6.918
1606,0.869,35.14,18.873,33.882,33.214,7.207,6.961,6.796
1607,0.853,34.738,18.823,33.844,33.207,7.165,7.041,6.755
1608,0.853,34.887,18.904,33.853,33.2,7.206,7.001,6.754
1609,0.862,35.023,18.796,33.844,33.211,7.125,7.041,6.836
1610,0.869,35.101,18.857,33.863,33.207,7.205,7.042,6.837
1611,0.869,34.603,18.924,33.863,33.207,7.206,7.001,6.755
1612,0.876,34.752,18.874,33.844,33.2,7.084,6.797,6.673
1613,0.879,34.84,18.858,33.911,33.197,7.205,6.917,6.713
1614,0.892,34.946,18.834,33.854,33.2,7.247,6.919,6.713
1615,0.889,34.774,18.873,33.844,33.197,7.288,6.919,6.672
1616,0.885,34.878,18.842,33.844,33.193,7.288,6.837,6.631
1617,0.898,35.004,18.807,33.834,33.2,7.329,6.877,6.59
1618,0.899,35.043,18.884,33.834,33.207,7.41,6.959,6.793
1619,0.912,34.785,18.788,33.872,33.211,7.493,6.96,6.755
1620,0.915,34.897,18.853,33.834,33.207,7.412,6.96,6.673
1621,0.912,35.004,18.873,33.844,33.207,7.452,6.919,6.713
1622,0.918,34.976,18.881,33.844,33.207,7.493,6.919,6.672
1623,0.912,34.66,18.862,33.872,33.207,7.534,7.0,6.713
1624,0.912,34.81,18.858,33.863,33.211,7.616,6.919,6.632
1625,0.912,34.898,18.865,33.815,33.193,7.454,6.837,6.509
1626,0.899,34.592,18.85,33.824,33.207,7.534,6.837,6.589
1627,0.912,34.732,18.865,33.834,33.2,7.494,6.958,6.631
1628,0.918,34.849,18.862,33.824,33.2,7.453,6.878,6.468
1629,0.915,34.936,18.83,33.815,33.2,7.452,6.918,6.548
1630,0.905,34.467,18.849,33.815,33.204,7.452,6.796,6.549
1631,0.915,34.607,18.873,33.824,33.207,7.493,6.958,6.671
1632,0.931,34.771,18.924,33.863,33.218,7.494,6.96,6.672
1633,0.944,34.849,18.85,33.825,33.204,7.453,6.878,6.55
1634,0.948,34.591,18.85,33.824,33.204,7.452,6.877,6.508
1635,0.954,34.732,18.861,33.844,33.207,7.452,6.877,6.589
1636,0.961,34.849,18.858,33.834,33.211,7.452,6.918,6.509
1637,0.971,34.927,18.858,33.834,33.207,7.452,6.837,6.508
1638,0.974,34.736,18.881,33.815,33.193,7.371,6.796,6.345
1639,0.971,34.801,18.815,33.786,33.193,7.33,6.795,6.425
1640,0.974,34.974,18.838,33.805,33.207,7.329,6.877,6.344
1641,0.977,35.024,18.873,33.795,33.204,7.451,6.877,6.384
1642,0.981,34.372,18.85,33.805,33.2,7.412,6.796,6.344
1643,0.971,34.51,18.775,33.795,33.204,7.371,6.836,6.384
1644,0.971,34.636,18.822,33.805,33.2,7.452,6.918,6.466
1645,0.974,34.675,18.881,33.843,33.218,7.656,7.041,6.629
1646,0.984,34.59,18.873,33.834,33.214,7.617,6.96,6.468
1647,0.978,34.713,18.877,33.824,33.204,7.617,6.919,6.426
1648,0.977,34.82,18.881,33.805,33.2,7.576,6.959,6.466
1649,0.987,34.859,18.846,33.824,33.211,7.657,6.919,6.507
1650,0.984,34.965,18.854,33.824,33.211,7.617,7.0,6.508
1651,1.0,35.081,18.865,33.834,33.211,7.698,6.96,6.427
1652,1.0,35.169,18.897,33.786,33.193,7.496,6.797,6.344
1653,1.01,34.201,18.772,33.805,33.197,7.534,6.836,6.425
1654,1.02,34.326,18.833,33.824,33.207,7.575,6.837,6.385
1655,1.036,34.471,18.838,33.805,33.204,7.575,6.837,6.425
1656,1.043,34.559,18.85,33.805,33.2,7.575,6.755,6.426
1657,1.046,34.445,18.881,33.786,33.197,7.575,6.795,6.344
1658,1.053,34.597,18.869,33.786,33.207,7.575,6.917,6.466
1659,1.073,34.761,18.838,33.843,33.211,7.779,7.041,6.507
1660,1.079,34.821,18.842,33.805,33.207,7.659,6.839,6.345
1661,1.076,34.476,18.865,33.795,33.207,7.658,6.837,6.303
1662,1.066,34.626,18.846,33.814,33.207,7.698,6.837,6.384
1663,1.066,34.752,18.744,33.815,33.204,7.658,6.796,6.466
1664,1.066,34.82,18.825,33.824,33.211,7.698,6.795,6.426
1665,1.066,34.533,18.865,33.815,33.204,7.658,6.755,6.304
1666,1.06,34.646,18.811,33.767,33.19,7.536,6.754,6.302
1667,1.066,34.781,18.857,33.785,33.2,7.657,6.673,6.302
1668,1.066,34.821,18.893,33.786,33.207,7.658,6.753,6.343
1669,1.063,34.543,18.811,33.795,33.197,7.536,6.632,6.343
1670,1.069,34.703,18.822,33.767,33.197,7.494,6.672,6.221
1671,1.073,34.83,18.865,33.785,33.204,7.534,6.713,6.302
1672,1.086,34.821,18.877,33.805,33.214,7.616,6.794,6.425
1673,1.115,34.706,18.811,33.824,33.218,7.617,6.795,6.304
1674,1.102,34.81,18.845,33.786,33.207,7.576,6.795,6.262
1675,1.102,34.917,18.881,33.795,33.207,7.575,6.755,6.302
1676,1.106,34.649,18.866,33.786,33.207,7.575,6.795,6.343
1677,1.115,34.733,18.881,33.805,33.204,7.535,6.877,6.343
1678,1.119,34.868,18.869,33.786,33.214,7.453,6.796,6.303
1679,1.125,34.956,18.826,33.766,33.197,7.371,6.633,6.14
1680,1.122,34.784,18.81,33.738,33.2,7.411,6.794,6.219
1681,1.125,34.955,18.892,33.785,33.2,7.493,6.755,6.261
1682,1.122,35.081,18.858,33.776,33.197,7.371,6.754,6.221
1683,1.116,35.169,18.748,33.776,33.2,7.411,6.754,6.139
1684,1.109,34.873,18.825,33.747,33.197,7.371,6.714,6.219
1685,1.109,35.023,18.846,33.785,33.204,7.411,6.835,6.342
1686,1.125,35.197,18.889,33.824,33.214,7.452,6.877,6.343
1687,1.122,35.247,18.877,33.767,33.2,7.452,6.796,6.221
1688,1.119,35.084,18.858,33.776,33.204,7.371,6.795,6.261
1689,1.119,35.226,18.819,33.795,33.204,7.37,6.795,6.262
1690,1.119,35.372,18.803,33.776,33.211,7.452,6.877,6.302
1691,1.125,35.392,18.841,33.776,33.211,7.452,6.837,6.302
1692,1.122,35.297,18.857,33.766,33.197,7.29,6.714,6.18
1693,1.129,35.392,18.779,33.738,33.197,7.369,6.835,6.22
1694,1.129,35.546,18.833,33.766,33.207,7.33,6.837,6.302
1695,1.135,35.691,18.85,33.766,33.2,7.41,6.755,6.262
1696,1.132,35.482,18.838,33.747,33.2,7.371,6.795,6.221
1697,1.145,35.624,18.842,33.737,33.197,7.37,6.755,6.22
1698,1.139,35.75,18.85,33.766,33.204,7.411,6.876,6.302
1699,1.155,35.713,18.822,33.795,33.214,7.493,6.959,6.343
1700,1.158,35.808,18.799,33.747,33.207,7.453,6.838,6.303
1701,1.142,35.895,18.884,33.747,33.197,7.534,6.918,6.221
1702,1.138,36.002,18.889,33.766,33.211,7.494,6.837,6.302
1703,1.132,35.821,18.772,33.757,33.207,7.616,6.918,6.302
1704,1.125,35.972,18.876,33.766,33.214,7.657,6.959,6.302
1705,1.119,36.07,18.862,33.728,33.19,7.536,6.838,6.18
1706,1.112,36.119,18.854,33.728,33.2,7.657,6.877,6.261
1707,1.122,36.081,18.846,33.747,33.204,7.658,6.877,6.262
1708,1.116,36.234,18.857,33.747,33.2,7.617,6.837,6.221
1709,1.115,36.331,18.819,33.728,33.204,7.576,6.877,6.261
1710,1.109,36.409,18.81,33.747,33.2,7.616,6.877,6.262
1711,1.109,36.381,18.865,33.737,33.204,7.698,6.959,6.424
1712,1.128,36.544,18.924,33.776,33.221,7.78,7.122,6.426
1713,1.132,36.679,18.807,33.766,33.207,7.74,6.921,6.344
1714,1.129,36.69,18.861,33.747,33.207,7.659,6.959,6.303
1715,1.129,36.719,18.854,33.747,33.207,7.739,7.0,6.343
1716,1.125,36.863,18.885,33.737,33.211,7.74,6.96,6.384
1717,1.125,36.989,18.897,33.756,33.207,7.699,7.0,6.425
1718,1.119,37.01,18.874,33.737,33.207,7.658,6.96,6.222
1719,1.109,36.818,18.772,33.708,33.197,7.617,6.919,6.261
1720,1.109,36.989,18.818,33.727,33.2,7.698,7.041,6.302
1721,1.112,37.096,18.861,33.718,33.204,7.618,7.042,6.221
1722,1.096,37.145,18.877,33.708,33.204,7.617,6.92,6.22
1723,1.086,37.155,18.803,33.708,33.2,7.576,6.959,6.18
1724,1.076,37.299,18.837,33.747,33.197,7.616,7.0,6.383
1725,1.086,37.416,18.861,33.747,33.214,7.779,7.082,6.466
1726,1.083,37.379,18.889,33.737,33.204,7.659,7.042,6.264
1727,1.05,37.484,18.85,33.737,33.207,7.617,7.001,6.302
1728,1.053,37.609,18.846,33.728,33.207,7.657,6.96,6.302
1729,1.037,37.678,18.846,33.737,33.211,7.698,7.041,6.384
1730,1.03,37.573,18.846,33.747,33.211,7.74,7.042,6.344
1731,1.03,37.716,18.857,33.737,33.207,7.659,6.92,6.262
1732,1.03,37.784,18.869,33.689,33.19,7.536,6.878,6.262
1733,1.02,37.871,18.823,33.708,33.207,7.616,6.918,6.302
1734,1.023,37.719,18.853,33.718,33.204,7.617,6.919,6.221
1735,1.014,37.861,18.815,33.718,33.2,7.617,6.878,6.22
1736,1.01,37.968,18.873,33.708,33.193,7.617,6.837,6.22
1737,1.007,38.027,18.83,33.708,33.207,7.617,6.958,6.342
1738,1.014,38.094,18.842,33.718,33.207,7.698,7.082,6.425
1739,1.03,38.258,18.881,33.727,33.207,7.699,6.92,6.304
1740,1.004,38.327,18.85,33.708,33.2,7.658,6.878,6.262
1741,0.994,38.356,18.861,33.718,33.207,7.698,6.918,6.262
1742,0.984,38.155,18.881,33.708,33.204,7.658,6.919,6.302
1743,0.968,38.287,18.819,33.727,33.207,7.698,6.837,6.302
1744,0.955,38.394,18.787,33.766,33.207,7.658,6.837,6.221
1745,0.941,38.779,18.802,33.68,33.197,7.576,6.714,6.098
1746,0.925,38.533,18.853,33.708,33.2,7.535,6.794,6.219
1747,0.925,38.694,18.85,33.708,33.204,7.534,6.836,6.18
1748,0.918,38.772,18.842,33.708,33.207,7.494,6.755,6.179
1749,0.912,38.524,18.869,33.689,33.2,7.453,6.795,6.22
1750,0.895,38.598,18.846,33.689,33.207,7.452,6.795,6.261
1751,0.905,38.704,18.869,33.718,33.214,7.493,6.836,6.343
1752,0.912,38.83,18.916,33.737,33.225,7.534,6.918,6.343
1753,0.918,38.812,18.835,33.689,33.2,7.453,6.878,6.221
1754,0.905,38.955,18.725,33.708,33.207,7.452,6.837,6.22
1755,0.895,39.062,18.802,33.699,33.197,7.452,6.796,6.261
1756,0.892,39.131,18.857,33.708,33.207,7.534,6.877,6.302
1757,0.886,38.805,18.822,33.708,33.207,7.575,6.877,6.221
1758,0.879,38.936,18.865,33.679,33.2,7.413,6.755,6.098
1759,0.879,38.976,18.858,33.66,33.19,7.411,6.795,6.138
1760,0.882,39.091,18.842,33.698,33.204,7.452,6.795,6.179
1761,0.866,38.968,18.877,33.698,33.2,7.452,6.795,6.057
1762,0.853,39.082,18.893,33.689,33.204,7.371,6.714,6.178
1763,0.836,39.188,18.815,33.679,33.197,7.411,6.794,6.098
1764,0.826,39.257,18.779,33.698,33.2,7.452,6.795,6.178
1765,0.826,39.18,18.822,33.718,33.221,7.574,6.958,6.261
1766,0.833,39.324,18.857,33.708,33.207,7.372,6.797,6.139
1767,0.823,39.392,18.826,33.689,33.204,7.37,6.795,6.179
1768,0.813,39.412,18.853,33.67,33.207,7.37,6.795,6.098
1769,0.807,39.201,18.885,33.679,33.211,7.411,6.836,6.178
1770,0.81,39.372,18.842,33.689,33.211,7.371,6.837,6.22
1771,0.807,39.479,18.857,33.708,33.207,7.289,6.877,6.139
1772,0.8,39.307,18.877,33.651,33.19,7.207,6.755,6.098
1773,0.8,39.286,18.834,33.669,33.204,7.287,6.836,6.097
1774,0.794,39.449,18.748,33.689,33.207,7.166,6.837,6.097
1775,0.8,39.499,18.833,33.679,33.2,7.206,6.796,6.097
1776,0.8,39.26,18.853,33.66,33.2,7.084,6.836,6.016
1777,0.8,39.363,18.83,33.66,33.197,7.164,6.796,6.056
1778,0.797,39.479,18.857,33.688,33.214,7.206,7.039,6.219
1779,0.823,39.585,18.865,33.698,33.214,7.206,6.96,6.139
1780,0.813,39.299,18.838,33.67,33.207,7.125,6.919,6.057
1781,0.807,39.44,18.853,33.669,33.207,7.124,6.878,6.137
1782,0.79,39.556,18.889,33.66,33.207,7.165,6.959,6.179
1783,0.784,39.625,18.838,33.669,33.207,7.124,6.96,6.139
1784,0.784,39.328,18.834,33.679,33.207,7.083,6.878,6.057
1785,0.767,39.44,18.826,33.641,33.193,6.92,6.755,6.015
1786,0.761,39.528,18.873,33.64,33.207,7.081,6.876,6.137
1787,0.77,39.615,18.862,33.66,33.2,7.002,6.918,6.057
1788,0.761,39.443,18.865,33.669,33.2,7.041,6.796,6.097
1789,0.751,39.556,18.873,33.65,33.2,7.001,6.795,6.097
1790,0.754,39.673,18.803,33.66,33.197,6.96,6.877,6.138
1791,0.761,39.722,18.83,33.679,33.207,7.082,6.959,6.26
1792,0.774,39.502,18.861,33.689,33.211,7.083,6.919,6.139
1793,0.774,39.595,18.834,33.65,33.207,7.123,6.878,6.138
1794,0.767,39.692,18.838,33.727,33.207,7.083,6.837,6.138
1795,0.774,39.827,18.826,33.66,33.204,7.042,6.877,6.138
1796,0.761,39.551,18.873,33.669,33.214,7.123,6.918,6.219
1797,0.77,39.663,18.854,33.669,33.211,7.083,6.878,6.18
1798,0.77,39.76,18.85,33.641,33.2,6.961,6.715,6.017
1799,0.767,39.454,18.838,33.621,33.207,7.041,6.794,6.056
1800,0.787,39.556,18.83,33.65,33.2,7.082,6.836,6.137
1801,0.777,39.682,18.822,33.641,33.2,7.042,6.796,6.138
1802,0.771,39.741,18.869,33.631,33.197,7.042,6.795,6.057
1803,0.761,39.339,18.858,33.64,33.197,6.92,6.755,6.137
1804,0.761,39.507,18.854,33.698,33.214,7.122,6.917,6.341
1805,0.777,39.643,18.881,33.67,33.218,7.043,6.796,6.14
1806,0.767,39.683,18.858,33.65,33.207,7.042,6.836,6.138
1807,0.764,39.415,18.83,33.65,33.207,7.042,6.796,6.219
1808,0.764,39.575,18.834,33.66,33.207,7.123,6.836,6.18
1809,0.754,39.682,18.881,33.66,33.211,7.083,6.796,6.261
1810,0.757,39.741,18.858,33.736,33.207,7.123,6.673,6.139
1811,0.751,39.396,18.803,33.622,33.197,6.961,6.713,6.057
1812,0.751,39.498,18.865,33.631,33.207,7.0,6.713,6.178
1813,0.774,39.614,18.873,33.65,33.2,7.001,6.672,6.179
1814,0.774,39.664,18.799,33.631,33.207,7.041,6.672,6.057
1815,0.767,39.453,18.861,33.612,33.197,7.042,6.631,6.097
1816,0.777,39.547,18.838,33.611,33.2,7.001,6.631,6.138
1817,0.771,39.682,18.768,33.65,33.218,7.163,6.794,6.382
1818,0.787,39.722,18.857,33.669,33.211,7.084,6.755,6.181
1819,0.774,39.396,18.869,33.602,33.207,7.002,6.673,6.139
1820,0.771,39.527,18.772,33.63,33.207,7.082,6.631,6.219
1821,0.764,39.624,18.822,33.631,33.211,7.042,6.672,6.139
1822,0.764,39.376,18.885,33.631,33.207,7.123,6.672,6.219
1823,0.764,39.354,18.881,33.631,33.207,7.002,6.631,6.098
1824,0.748,39.421,18.811,33.602,33.197,6.838,6.55,6.056
1825,0.738,39.537,18.83,33.621,33.204,7.04,6.59,6.137
1826,0.751,39.25,18.834,33.631,33.2,7.001,6.59,6.057
1827,0.741,39.353,18.818,33.592,33.207,7.041,6.59,6.097
1828,0.747,39.469,18.834,33.592,33.193,7.001,6.509,6.016
1829,0.741,39.537,18.846,33.602,33.207,7.041,6.589,6.137
1830,0.747,39.202,18.811,33.63,33.214,7.204,6.712,6.219
1831,0.767,39.381,18.806,33.65,33.211,7.206,6.672,6.139
1832,0.767,39.469,18.849,33.621,33.207,7.165,6.631,6.138
1833,0.78,39.518,18.893,33.621,33.207,7.165,6.631,6.179
1834,0.784,39.202,18.846,33.592,33.207,7.206,6.631,6.179
1835,0.784,39.353,18.83,33.621,33.214,7.287,6.672,6.139
1836,0.787,39.45,18.826,33.602,33.207,7.369,6.631,6.138
1837,0.777,39.489,18.795,33.592,33.197,7.248,6.55,6.016
1838,0.774,39.106,18.794,33.582,33.2,7.41,6.549,6.056
1839,0.78,39.256,18.865,33.592,33.207,7.493,6.549,6.137
1840,0.78,39.353,18.807,33.582,33.204,7.494,6.508,6.098
1841,0.784,39.373,18.845,33.563,33.197,7.494,6.549,6.016
1842,0.774,39.249,18.885,33.592,33.2,7.494,6.549,5.974
1843,0.754,39.382,18.877,33.592,33.207,7.616,6.59,6.137
1844,0.764,39.508,18.819,33.63,33.221,7.779,6.631,6.179
1845,0.764,39.48,18.834,33.621,33.207,7.618,6.55,6.098
1846,0.748,39.259,18.814,33.592,33.2,7.617,6.549,6.056
1847,0.747,39.353,18.799,33.582,33.207,7.617,6.508,6.178
1848,0.76,39.46,18.814,33.602,33.207,7.617,6.589,6.098
1849,0.761,39.058,18.873,33.592,33.211,7.698,6.631,6.178
1850,0.748,39.14,18.803,33.602,33.207,7.536,6.55,5.976
1851,0.741,39.218,18.857,33.554,33.193,7.372,6.468,5.974
1852,0.747,39.314,18.877,33.572,33.207,7.452,6.67,6.137
1853,0.767,39.095,18.897,33.563,33.2,7.452,6.631,6.016
1854,0.764,39.227,18.842,33.553,33.2,7.493,6.59,6.015
1855,0.774,39.324,18.795,33.572,33.2,7.453,6.59,5.934
1856,0.771,39.383,18.806,33.563,33.2,7.452,6.671,6.055
1857,0.777,38.961,18.81,33.64,33.211,7.534,6.794,6.137
1858,0.79,39.12,18.849,33.612,33.221,7.575,6.755,6.098
1859,0.787,39.198,18.893,33.563,33.204,7.413,6.754,6.056
1860,0.79,39.257,18.834,33.611,33.207,7.452,6.754,6.056
1861,0.793,38.979,18.834,33.563,33.207,7.452,6.714,6.015
1862,0.777,39.091,18.889,33.553,33.204,7.412,6.794,6.056
1863,0.767,39.198,18.889,33.563,33.211,7.411,6.673,6.015
1864,0.78,39.218,18.78,33.534,33.197,7.33,6.631,5.974
1865,0.754,38.854,18.79,33.524,33.204,7.289,6.712,6.055
1866,0.757,39.033,18.849,33.553,33.2,7.329,6.713,6.015
1867,0.754,39.121,18.772,33.553,33.204,7.289,6.754,5.974
1868,0.754,39.179,18.849,33.534,33.197,7.288,6.754,5.933
1869,0.754,38.825,18.897,33.515,33.197,7.329,6.754,6.014
1870,0.761,38.984,18.792,33.572,33.204,7.492,6.836,6.137
1871,0.761,39.111,18.826,33.573,33.218,7.616,6.958,6.138
1872,0.774,38.853,18.885,33.534,33.2,7.495,6.838,6.057
1873,0.767,38.841,18.866,33.553,33.2,7.534,6.837,6.097
1874,0.77,38.965,18.826,33.553,33.207,7.616,6.837,6.097
1875,0.787,39.063,18.826,33.553,33.207,7.576,6.877,6.056
1876,0.79,38.651,18.853,33.553,33.211,7.616,6.918,6.137
1877,0.78,38.772,18.838,33.534,33.2,7.495,6.756,6.016
1878,0.774,38.85,18.842,33.515,33.193,7.494,6.836,6.015
1879,0.787,38.946,18.885,33.524,33.207,7.616,6.877,6.096
1880,0.793,38.612,18.811,33.505,33.2,7.495,6.918,6.016
1881,0.793,38.723,18.818,33.514,33.2,7.534,6.837,6.015
1882,0.774,38.859,18.83,33.495,33.193,7.453,6.918,6.015
1883,0.767,38.908,18.853,33.505,33.2,7.574,6.878,6.015
1884,0.767,38.592,18.787,33.524,33.214,7.657,7.0,6.178
1885,0.764,38.752,18.814,33.563,33.218,7.698,7.041,6.139
1886,0.757,38.849,18.838,33.515,33.204,7.618,6.96,6.098
1887,0.754,38.889,18.744,33.563,33.211,7.617,6.96,6.056
1888,0.764,38.573,18.837,33.515,33.207,7.617,6.96,6.137
1889,0.774,38.694,18.892,33.515,33.207,7.617,7.041,6.179
1890,0.771,38.83,18.834,33.534,33.211,7.576,7.042,6.139
1891,0.761,38.812,18.818,33.515,33.204,7.454,6.839,5.976
1892,0.757,38.534,18.834,33.486,33.193,7.452,6.958,6.096
1893,0.783,38.703,18.853,33.514,33.2,7.452,7.0,6.097
1894,0.777,38.791,18.803,33.505,33.204,7.493,6.919,6.097
1895,0.78,38.591,18.779,33.495,33.2,7.453,6.919,6.016
1896,0.787,38.416,18.853,33.495,33.2,7.371,6.878,6.015
1897,0.78,38.539,18.854,33.543,33.2,7.411,6.877,6.137
1898,0.787,38.665,18.838,33.534,33.218,7.533,7.081,6.26
1899,0.8,38.312,18.881,33.524,33.207,7.453,6.961,6.058
1900,0.787,38.394,18.83,33.582,33.2,7.371,6.919,6.015
1901,0.793,38.501,18.842,33.477,33.211,7.33,7.041,6.096
1902,0.784,38.598,18.846,33.495,33.214,7.41,7.042,6.178
1903,0.777,38.225,18.865,33.495,33.211,7.33,7.082,6.22
1904,0.777,38.345,18.776,33.476,33.204,7.248,6.961,5.936
1905,0.754,38.414,18.814,33.457,33.193,7.206,6.96,6.055
1906,0.761,38.53,18.865,33.485,33.197,7.165,7.041,6.097
1907,0.764,38.214,18.748,33.486,33.2,7.287,7.001,6.056
1908,0.767,38.355,18.81,33.486,33.2,7.247,7.041,6.015
1909,0.761,38.462,18.873,33.457,33.193,7.247,6.96,6.056
1910,0.764,38.511,18.768,33.476,33.207,7.247,7.122,6.178
1911,0.77,38.166,18.822,33.514,33.214,7.45,7.124,6.139
1912,0.787,38.326,18.877,33.495,33.204,7.29,7.083,6.016
1913,0.784,38.414,18.889,33.476,33.2,7.288,7.042,6.056
1914,0.78,38.424,18.784,33.476,33.204,7.329,7.082,6.137
1915,0.784,38.089,18.826,33.495,33.207,7.248,7.042,6.057
1916,0.784,38.21,18.853,33.486,33.211,7.328,7.082,6.137
1917,0.784,38.336,18.783,33.486,33.204,7.167,6.961,5.976
1918,0.777,38.634,18.814,33.457,33.2,7.124,6.96,5.933
1919,0.784,38.11,18.873,33.457,33.204,7.287,6.96,6.014
1920,0.784,38.21,18.787,33.457,33.211,7.207,6.919,5.974
1921,0.78,38.326,18.837,33.447,33.2,7.165,6.919,5.974
1922,0.767,37.963,18.842,33.437,33.2,7.124,6.878,6.015
1923,0.754,37.998,18.885,33.456,33.2,7.205,6.959,6.015
1924,0.751,38.142,18.862,33.476,33.221,7.409,7.082,6.218
1925,0.744,38.268,18.783,33.485,33.211,7.208,6.92,6.017
1926,0.747,37.934,18.869,33.466,33.207,7.287,6.959,5.974
1927,0.751,38.045,18.819,33.447,33.211,7.207,6.96,6.015
1928,0.751,38.19,18.83,33.466,33.207,7.287,6.96,6.056
1929,0.741,38.259,18.857,33.476,33.207,7.288,7.041,6.097
1930,0.76,37.818,18.842,33.476,33.2,7.207,6.96,6.016
1931,0.754,37.958,18.842,33.447,33.19,7.165,6.878,5.934
1932,0.744,38.055,18.83,33.456,33.204,7.206,6.918,6.014
1933,0.764,38.123,18.908,33.437,33.207,7.287,6.959,5.974
1934,0.77,37.827,18.87,33.437,33.2,7.288,6.878,5.974
1935,0.77,37.968,18.803,33.447,33.2,7.247,6.877,6.015
1936,0.774,38.074,18.802,33.428,33.197,7.288,6.796,5.974
1937,0.774,38.114,18.787,33.427,33.204,7.369,6.999,6.096
1938,0.78,37.855,18.822,33.485,33.218,7.452,7.041,6.138
1939,0.793,37.977,18.853,33.447,33.2,7.371,6.879,6.016
1940,0.78,38.065,18.818,33.437,33.204,7.452,6.877,6.015
1941,0.774,38.104,18.838,33.437,33.204,7.452,6.877,5.974
1942,0.767,37.817,18.9,33.437,33.207,7.493,6.837,6.015
1943,0.761,37.958,18.905,33.437,33.207,7.616,6.877,6.056
1944,0.761,38.046,18.854,33.437,33.2,7.617,6.877,5.934
1945,0.751,37.893,18.791,33.399,33.193,7.576,6.633,5.852
1946,0.744,37.834,18.791,33.427,33.197,7.657,6.753,6.013
1947,0.754,37.958,18.779,33.427,33.211,7.78,6.795,6.015
1948,0.754,38.065,18.786,33.418,33.207,7.74,6.673,5.934
1949,0.748,37.778,18.845,33.399,33.193,7.74,6.713,5.974
1950,0.747,37.862,18.803,33.408,33.207,7.821,6.632,5.893
1951,0.741,37.978,18.806,33.418,33.207,7.944,6.712,6.095
1952,0.754,38.123,18.896,33.418,33.221,8.148,6.835,6.138
1953,0.767,37.683,18.928,33.418,33.211,8.069,6.714,5.976
1954,0.764,37.784,18.874,33.408,33.204,8.069,6.754,6.015
1955,0.764,37.919,18.83,33.418,33.207,8.15,6.714,6.056
1956,0.774,37.997,18.818,33.427,33.207,8.11,6.794,6.056
1957,0.767,37.73,18.803,33.427,33.207,8.15,6.795,6.056
1958,0.767,37.88,18.822,33.418,33.2,8.11,6.755,5.893
1959,0.761,37.949,18.838,33.37,33.193,7.947,6.714,5.851
1960,0.757,38.017,18.807,33.408,33.2,8.026,6.754,5.932
1961,0.761,37.682,18.834,33.408,33.204,7.946,6.795,5.892
1962,0.751,37.803,18.842,33.399,33.2,7.905,6.795,5.851
1963,0.744,37.9,18.896,33.379,33.2,7.945,6.795,5.81
1964,0.744,37.94,18.835,33.389,33.2,7.905,6.836,5.972
1965,0.754,37.758,18.838,33.427,33.211,8.026,6.877,6.096
1966,0.751,37.909,18.842,33.418,33.218,7.946,6.918,5.935
1967,0.738,37.997,18.795,33.389,33.207,7.905,6.878,5.933
1968,0.738,38.142,18.806,33.398,33.211,7.823,6.837,5.933
1969,0.734,37.856,18.888,33.379,33.207,7.863,6.837,6.014
1970,0.738,37.968,18.838,33.408,33.207,7.782,6.877,5.974
1971,0.731,38.094,18.826,33.408,33.211,7.74,6.918,5.974
1972,0.725,37.644,18.846,33.379,33.197,7.618,6.796,5.852
1973,0.721,37.697,18.865,33.36,33.207,7.617,6.836,5.932
1974,0.734,37.822,18.846,33.379,33.2,7.617,6.837,5.933
1975,0.744,37.91,18.807,33.36,33.207,7.535,6.796,5.933
1976,0.754,37.633,18.838,33.36,33.204,7.534,6.836,5.852
1977,0.761,37.764,18.814,33.331,33.2,7.575,6.796,5.851
1978,0.754,37.909,18.802,33.359,33.207,7.657,6.958,6.054
1979,0.761,37.997,18.9,33.398,33.218,7.82,7.0,5.975
1980,0.767,37.653,18.807,33.37,33.2,7.619,6.96,5.893
1981,0.754,37.764,18.806,33.36,33.211,7.739,6.919,5.973
1982,0.751,37.89,18.845,33.36,33.204,7.74,6.919,5.974
1983,0.751,37.959,18.877,33.36,33.207,7.781,6.919,6.015
1984,0.748,37.777,18.807,33.379,33.211,7.781,6.919,6.056
1985,0.738,37.91,18.779,33.36,33.204,7.7,6.796,5.853
1986,0.731,38.007,18.818,33.321,33.19,7.618,6.795,5.851
1987,0.728,38.046,18.806,33.35,33.207,7.657,6.917,5.891
1988,0.738,37.711,18.802,33.331,33.2,7.658,6.878,5.933
1989,0.738,37.842,18.884,33.34,33.197,7.617,6.877,5.933
1990,0.731,37.949,18.811,33.331,33.197,7.535,6.877,5.974
1991,0.731,37.959,18.83,33.34,33.2,7.575,6.877,5.974
1992,0.738,37.787,18.846,33.34,33.211,7.657,7.04,6.015
1993,0.751,37.958,18.885,33.369,33.218,7.698,7.123,6.056
1994,0.761,38.026,18.83,33.35,33.197,7.496,6.961,6.015
1995,0.751,37.807,18.799,33.35,33.204,7.494,7.041,5.974
1996,0.751,37.785,18.837,33.34,33.204,7.453,7.042,6.015
1997,0.751,37.929,18.826,33.35,33.204,7.493,7.082,6.096
1998,0.761,38.036,18.842,33.35,33.2,7.534,7.002,6.097
1999,0.754,37.663,18.889,33.34,33.204,7.494,7.001,5.935
2000,0.757,37.755,18.784,33.302,33.186,7.331,6.96,5.974
2001,0.751,37.9,18.818,33.33,33.2,7.492,7.041,6.055
2002,0.751,37.978,18.853,33.35,33.204,7.412,7.042,6.056
2003,0.738,37.72,18.858,33.302,33.2,7.371,7.001,6.056
2004,0.734,37.851,18.807,33.292,33.207,7.452,7.001,6.015
2005,0.725,37.987,18.795,33.321,33.197,7.493,6.96,6.056
2006,0.728,38.075,18.845,33.34,33.218,7.738,7.285,6.178
2007,0.741,37.797,18.857,33.331,33.207,7.496,7.044,6.057
2008,0.728,37.919,18.815,33.312,33.211,7.494,7.042,6.015
2009,0.728,38.045,18.857,33.33,33.207,7.575,7.001,6.178
2010,0.731,38.085,18.822,33.34,33.207,7.575,7.001,6.139
2011,0.731,37.74,18.818,33.34,33.211,7.575,7.082,6.138
2012,0.734,37.852,18.826,33.312,33.197,7.494,6.92,6.016
2013,0.734,37.929,18.873,33.273,33.19,7.331,6.919,5.974
2014,0.734,37.93,18.873,33.301,33.204,7.492,7.0,6.055
2015,0.744,37.758,18.83,33.321,33.197,7.453,6.96,6.056
2016,0.744,37.881,18.822,33.292,33.197,7.452,6.96,6.056
2017,0.751,37.959,18.803,33.282,33.19,7.412,6.878,5.934
2018,0.748,37.959,18.818,33.292,33.193,7.411,6.959,6.136
2019,0.754,37.787,18.896,33.33,33.214,7.574,7.082,6.179
2020,0.761,37.91,18.838,33.321,33.214,7.494,7.002,6.098
2021,0.751,37.988,18.842,33.311,33.197,7.371,6.96,6.138
2022,0.738,37.624,18.803,33.302,33.204,7.37,7.0,6.179
2023,0.728,37.716,18.865,33.302,33.207,7.411,6.96,6.139
2024,0.738,37.832,18.881,33.302,33.211,7.371,6.96,6.179
2025,0.741,37.929,18.842,33.292,33.207,7.452,6.919,6.098
2026,0.731,37.7,18.842,33.273,33.193,7.208,6.796,6.056
2027,0.712,37.832,18.818,33.292,33.204,7.328,6.836,6.056
2028,0.731,37.996,18.818,33.282,33.2,7.329,6.877,6.056
2029,0.725,38.056,18.838,33.282,33.197,7.329,6.918,6.056
2030,0.724,37.605,18.846,33.282,33.197,7.207,6.796,6.056
2031,0.731,37.754,18.818,33.282,33.2,7.206,6.795,6.137
2032,0.738,37.89,18.842,33.292,33.214,7.287,6.958,6.26
2033,0.744,37.968,18.9,33.302,33.207,7.247,6.838,6.099
2034,0.734,37.691,18.889,33.282,33.207,7.166,6.796,6.138
2035,0.738,37.813,18.858,33.273,33.207,7.124,6.836,6.138
2036,0.741,37.948,18.846,33.292,33.207,7.205,6.755,6.138
2037,0.747,37.988,18.822,33.292,33.211,7.165,6.876,6.179
2038,0.747,37.701,18.826,33.282,33.207,7.124,6.796,6.139
2039,0.738,37.794,18.818,33.234,33.193,6.961,6.633,6.016
2040,0.741,37.891,18.826,33.263,33.2,7.041,6.672,6.137
2041,0.754,37.949,18.81,33.263,33.207,7.082,6.753,6.016
2042,0.741,37.71,18.838,33.253,33.207,7.042,6.632,6.056
2043,0.728,37.832,18.889,33.263,33.2,6.96,6.631,6.015
2044,0.731,37.91,18.897,33.225,33.197,7.0,6.631,6.056
2045,0.731,37.642,18.862,33.272,33.207,7.082,6.753,6.137
2046,0.741,37.707,18.858,33.292,33.218,7.286,6.673,6.219
2047,0.741,37.813,18.846,33.263,33.197,7.125,6.591,6.098
2048,0.731,37.91,18.803,33.253,33.207,7.083,6.671,6.138
2049,0.725,37.575,18.822,33.263,33.204,7.205,6.672,6.138
2050,0.728,37.687,18.853,33.272,33.207,7.165,6.672,6.057
2051,0.731,37.813,18.733,33.263,33.207,7.206,6.55,6.137
2052,0.741,37.881,18.802,33.253,33.2,7.125,6.59,5.976
2053,0.731,37.489,18.853,33.215,33.193,7.043,6.468,6.015
2054,0.734,37.619,18.9,33.253,33.204,7.123,6.548,6.015
2055,0.741,37.774,18.866,33.244,33.197,7.124,6.508,6.015
2056,0.744,37.823,18.858,33.253,33.204,7.083,6.508,6.056
2057,0.747,37.565,18.834,33.234,33.197,7.164,6.427,6.056
2058,0.741,37.687,18.81,33.243,33.2,7.206,6.507,6.015
2059,0.747,37.813,18.826,33.244,33.211,7.206,6.589,6.137
2060,0.747,37.881,18.869,33.253,33.214,7.247,6.671,6.057
2061,0.747,37.441,18.815,33.244,33.207,7.125,6.591,6.056
2062,0.728,37.571,18.818,33.244,33.207,7.205,6.468,6.015
2063,0.734,37.687,18.853,33.244,33.211,7.206,6.548,6.096
2064,0.725,37.707,18.861,33.234,33.207,7.206,6.59,6.097
2065,0.711,37.497,18.838,33.243,33.207,7.328,6.509,6.138
2066,0.724,37.638,18.803,33.253,33.204,7.207,6.467,6.016
2067,0.721,37.697,18.826,33.215,33.193,7.247,6.345,5.934
2068,0.721,37.64,18.818,33.215,33.204,7.41,6.506,5.974
2069,0.728,37.544,18.842,33.234,33.2,7.452,6.467,6.055
2070,0.728,37.667,18.861,33.215,33.193,7.452,6.507,6.015
2071,0.725,37.784,18.826,33.243,33.197,7.534,6.508,6.056
2072,0.724,37.296,18.807,33.215,33.204,7.534,6.508,5.975
2073,0.728,37.387,18.841,33.215,33.207,7.657,6.63,6.177
2074,0.741,37.541,18.893,33.262,33.221,7.82,6.712,6.179
2075,0.744,37.629,18.866,33.244,33.204,7.741,6.591,6.057
2076,0.741,37.323,18.823,33.224,33.207,7.821,6.509,6.097
2077,0.747,37.445,18.818,33.215,33.207,7.781,6.589,6.097
2078,0.754,37.571,18.814,33.234,33.207,7.822,6.671,6.138
2079,0.767,37.639,18.873,33.224,33.207,7.863,6.631,6.098
2080,0.774,37.304,18.873,33.215,33.211,7.822,6.55,6.056
2081,0.767,37.435,18.819,33.186,33.186,7.7,6.468,5.975
2082,0.748,37.551,18.814,33.205,33.197,7.78,6.589,6.096
2083,0.754,37.61,18.865,33.205,33.204,7.781,6.59,6.056
2084,0.748,37.39,18.862,33.224,33.204,7.781,6.59,6.056
2085,0.731,37.522,18.826,33.186,33.204,7.659,6.549,6.056
2086,0.741,37.619,18.814,33.185,33.197,7.698,6.59,6.097
2087,0.734,37.668,18.841,33.205,33.207,7.821,6.753,6.178
2088,0.738,37.295,18.818,33.243,33.218,7.822,6.632,6.179
2089,0.734,37.406,18.845,33.215,33.204,7.7,6.631,6.139
2090,0.741,37.513,18.877,33.215,33.204,7.74,6.712,6.179
2091,0.741,37.83,18.827,33.205,33.207,7.74,6.713,6.179
2092,0.741,37.21,18.822,33.205,33.2,7.74,6.672,6.22
2093,0.757,37.328,18.857,33.195,33.207,7.74,6.713,6.139
2094,0.751,37.416,18.873,33.176,33.2,7.537,6.632,6.057
2095,0.748,37.177,18.815,33.176,33.193,7.575,6.672,6.097
2096,0.754,37.299,18.83,33.205,33.2,7.616,6.672,6.097
2097,0.757,37.416,18.826,33.195,33.204,7.535,6.631,6.138
2098,0.754,37.513,18.81,33.205,33.204,7.534,6.631,6.098
2099,0.748,37.006,18.865,33.166,33.19,7.534,6.631,6.056
2100,0.734,37.115,18.854,33.176,33.207,7.657,6.712,6.178
2101,0.754,37.289,18.815,33.214,33.221,7.658,6.794,6.179
2102,0.744,37.358,18.826,33.186,33.204,7.576,6.633,6.139
2103,0.734,37.1,18.849,33.185,33.204,7.575,6.672,6.138
2104,0.738,37.241,18.873,33.185,33.207,7.575,6.713,6.179
2105,0.731,37.367,18.858,33.205,33.2,7.657,6.713,6.22
2106,0.738,37.436,18.873,33.186,33.211,7.536,6.672,6.139
2107,0.734,36.957,18.854,33.166,33.2,7.534,6.591,5.976
2108,0.725,37.096,18.83,33.176,33.197,7.657,6.631,6.096
2109,0.731,37.251,18.865,33.185,33.2,7.617,6.55,6.056
2110,0.734,37.281,18.846,33.176,33.207,7.698,6.63,6.097
2111,0.731,36.927,18.795,33.166,33.2,7.618,6.509,6.056
2112,0.734,37.086,18.794,33.157,33.2,7.657,6.589,6.015
2113,0.751,37.193,18.814,33.185,33.204,7.698,6.671,6.218
2114,0.764,37.233,18.892,33.195,33.218,7.821,6.753,6.22
2115,0.777,37.012,18.838,33.186,33.207,7.7,6.673,6.139
2116,0.758,37.135,18.846,33.176,33.197,7.699,6.672,6.179
2117,0.767,37.232,18.861,33.166,33.207,7.78,6.631,6.179
2118,0.777,37.089,18.842,33.176,33.211,7.659,6.712,6.179
2119,0.806,37.04,18.834,33.185,33.214,7.658,6.632,6.139
2120,0.813,37.154,18.857,33.166,33.204,7.658,6.509,6.057
2121,0.8,37.213,18.733,33.147,33.197,7.495,6.508,6.056
2122,0.803,36.772,18.809,33.156,33.204,7.616,6.63,6.056
2123,0.816,36.864,18.822,33.166,33.204,7.657,6.59,6.137
2124,0.826,36.989,18.9,33.157,33.2,7.576,6.549,5.976
2125,0.817,37.077,18.842,33.137,33.2,7.535,6.59,6.096
2126,0.816,36.685,18.846,33.137,33.211,7.575,6.631,6.219
2127,0.826,36.863,18.889,33.175,33.218,7.738,6.794,6.18
2128,0.843,37.018,18.846,33.195,33.2,7.537,6.673,6.179
2129,0.833,37.077,18.854,33.166,33.207,7.534,6.672,6.139
2130,0.839,36.79,18.865,33.147,33.207,7.494,6.672,6.138
2131,0.843,36.941,18.811,33.166,33.207,7.494,6.713,6.219
2132,0.859,37.057,18.81,33.176,33.207,7.494,6.713,6.139
2133,0.859,37.116,18.838,33.157,33.204,7.453,6.632,6.057
2134,0.849,36.733,18.889,33.128,33.197,7.412,6.631,6.015
2135,0.853,36.863,18.858,33.147,33.2,7.452,6.712,6.218
2136,0.869,37.009,18.842,33.147,33.207,7.452,6.713,6.098
2137,0.869,37.039,18.857,33.128,33.207,7.412,6.713,6.056
2138,0.872,36.656,18.83,33.127,33.2,7.452,6.672,6.097
2139,0.879,36.776,18.834,33.137,33.19,7.412,6.753,6.016
2140,0.872,36.893,18.853,33.137,33.21,7.411,6.876,6.178
2141,0.885,37.057,18.787,33.185,33.211,7.533,7.0,6.261
2142,0.889,36.579,18.802,33.147,33.204,7.453,6.919,6.18
2143,0.872,36.699,18.849,33.128,33.204,7.412,6.959,6.179
2144,0.876,36.796,18.908,33.147,33.211,7.371,6.96,6.22
2145,0.872,36.615,18.854,33.147,33.211,7.411,6.96,6.139
2146,0.856,36.738,18.858,33.147,33.207,7.452,7.0,6.138
2147,0.853,36.844,18.858,33.137,33.2,7.29,6.96,6.098
2148,0.849,36.932,18.834,33.118,33.193,7.207,6.878,6.016
2149,0.836,36.386,18.834,33.108,33.2,7.287,7.081,6.137
2150,0.849,36.515,18.881,33.146,33.2,7.207,7.164,6.138
2151,0.846,36.641,18.788,33.128,33.2,7.206,7.084,6.057
2152,0.875,36.738,18.787,33.127,33.2,7.125,7.083,6.137
2153,0.872,36.528,18.83,33.118,33.204,7.165,7.123,6.098
2154,0.876,36.67,18.885,33.137,33.204,7.328,7.165,6.178
2155,0.885,36.825,18.854,33.166,33.211,7.41,7.328,6.22
2156,0.889,36.893,18.818,33.147,33.2,7.33,7.207,6.139
2157,0.872,36.395,18.818,33.108,33.207,7.329,7.206,6.138
2158,0.885,36.553,18.806,33.137,33.211,7.37,7.247,6.138
2159,0.885,36.67,18.841,33.127,33.207,7.411,7.288,6.138
2160,0.885,36.709,18.873,33.118,33.211,7.411,7.288,6.057
2161,0.885,36.374,18.803,33.099,33.2,7.33,7.085,5.975
2162,0.872,36.496,18.81,33.089,33.204,7.451,7.123,6.096
2163,0.879,36.631,18.845,33.127,33.204,7.452,7.287,6.056
2164,0.882,36.661,18.865,33.108,33.204,7.493,7.207,6.056
