time,ecg,bvp,gsr,rsp,skt,emg_zygo,emg_coru,emg_trap
0,0.767,37.745,38.721,47.55,29.673,7.041,6.015,5.769
1,0.761,37.89,38.685,47.569,29.68,7.204,6.137,5.891
2,0.767,37.949,38.704,47.579,29.677,7.247,6.138,5.933
3,0.78,37.681,38.759,47.569,29.673,7.206,6.138,5.892
4,0.8,37.822,38.756,47.588,29.677,7.328,6.26,5.892
5,0.807,37.92,38.76,47.588,29.68,7.37,6.139,5.892
6,0.787,37.93,38.713,47.55,29.673,7.289,6.016,5.811
7,0.787,37.738,38.712,47.55,29.666,7.451,6.096,5.81
8,0.793,37.871,38.728,47.588,29.68,7.534,6.178,5.932
9,0.803,38.006,38.755,47.598,29.687,7.697,6.301,6.014
10,0.8,38.247,38.682,47.569,29.674,7.536,6.058,5.812
11,0.813,37.636,38.704,47.569,29.677,7.697,6.137,5.85
12,0.813,37.755,38.779,47.579,29.677,7.74,6.138,5.891
13,0.803,37.852,38.733,47.55,29.677,7.781,6.098,5.77
14,0.797,37.584,38.666,47.579,29.677,7.862,6.097,5.891
15,0.803,37.658,38.638,47.588,29.68,7.985,6.178,5.892
16,0.813,37.803,38.723,47.608,29.691,8.19,6.301,6.014
17,0.79,37.881,38.689,47.56,29.674,8.029,6.099,5.812
18,0.79,37.633,38.755,47.588,29.677,8.149,6.056,5.81
19,0.777,37.735,38.693,47.588,29.68,8.191,6.178,5.932
20,0.777,37.842,38.693,47.56,29.67,8.151,6.057,5.811
21,0.774,37.939,38.759,47.588,29.67,8.15,6.219,5.81
22,0.79,37.576,38.748,47.608,29.684,8.15,6.18,5.932
23,0.797,37.716,38.658,47.589,29.677,8.15,6.139,5.933
24,0.787,37.803,38.634,47.588,29.673,8.11,6.057,5.811
25,0.78,37.871,38.684,47.56,29.666,7.987,6.015,5.728
26,0.8,37.383,38.673,47.607,29.68,8.149,6.178,5.89
27,0.8,37.503,38.712,47.608,29.677,8.15,6.098,5.973
28,0.807,37.638,38.63,47.617,29.673,8.028,6.056,5.893
29,0.813,37.688,38.708,47.618,29.677,8.068,6.097,5.973
30,0.813,37.525,38.724,47.579,29.684,7.987,6.138,5.811
31,0.816,37.629,38.705,47.579,29.673,7.905,6.016,5.769
32,0.794,37.726,38.646,47.588,29.67,7.904,6.015,5.85
33,0.806,37.804,38.688,47.617,29.684,7.945,6.096,5.932
34,0.8,37.411,38.739,47.637,29.691,8.067,6.219,6.055
35,0.784,37.522,38.752,47.589,29.674,7.824,6.098,5.934
36,0.79,37.648,38.756,47.588,29.673,7.863,6.056,5.974
37,0.79,37.764,38.658,47.588,29.68,7.822,6.137,5.893
38,0.787,37.43,38.688,47.598,29.663,7.659,6.016,5.851
39,0.793,37.551,38.728,47.608,29.677,7.698,6.056,5.891
40,0.793,37.677,38.705,47.617,29.673,7.699,6.178,5.973
41,0.8,37.4,38.615,47.656,29.687,7.74,6.179,5.974
42,0.781,37.388,38.708,47.618,29.674,7.577,6.057,5.974
43,0.787,37.512,38.736,47.618,29.673,7.494,6.015,5.811
44,0.81,37.6,38.744,47.618,29.68,7.656,6.096,5.932
45,0.807,37.246,38.767,47.618,29.677,7.536,6.056,5.933
46,0.807,37.386,38.686,47.618,29.677,7.494,6.097,5.852
47,0.8,37.532,38.681,47.637,29.684,7.494,6.056,5.932
48,0.803,37.629,38.72,47.627,29.68,7.412,6.056,5.933
49,0.79,37.189,38.697,47.618,29.673,7.411,5.975,5.852
50,0.787,37.328,38.689,47.608,29.673,7.33,5.974,5.769
51,0.797,37.502,38.689,47.646,29.677,7.329,6.055,5.891
52,0.807,37.542,38.755,47.618,29.68,7.451,6.015,5.933
53,0.807,37.131,38.74,47.618,29.677,7.29,5.974,5.892
54,0.8,37.28,38.721,47.637,29.684,7.41,6.015,5.933
55,0.794,37.387,38.677,47.646,29.673,7.208,6.056,5.933
56,0.787,37.436,38.677,47.714,29.673,7.165,5.975,5.811
57,0.771,37.11,38.689,47.609,29.673,7.084,5.933,5.81
58,0.787,37.27,38.72,47.646,29.68,7.164,6.014,5.932
59,0.8,37.406,38.693,47.675,29.687,7.206,6.096,6.055
60,0.8,37.446,38.661,47.637,29.674,7.043,5.935,5.853
61,0.79,37.168,38.735,47.646,29.677,7.164,6.014,5.932
62,0.784,37.271,38.709,47.647,29.677,7.002,5.974,5.933
63,0.777,37.387,38.654,47.637,29.663,7.001,5.933,5.852
64,0.787,37.397,38.657,47.637,29.673,7.001,5.974,5.891
65,0.797,37.177,38.692,47.666,29.677,7.041,6.055,5.892
66,0.803,37.338,38.716,47.704,29.684,7.042,6.137,5.973
67,0.784,37.397,38.751,47.647,29.673,6.879,6.057,5.852
68,0.777,37.225,38.654,47.656,29.673,6.918,6.015,5.851
69,0.787,37.223,38.677,47.647,29.677,6.878,6.096,5.973
70,0.803,37.329,38.759,47.627,29.67,6.837,6.016,5.893
71,0.816,37.416,38.713,47.656,29.68,6.796,6.137,5.892
72,0.807,36.966,38.662,47.666,29.68,6.877,6.219,5.973
73,0.813,37.115,38.657,47.685,29.677,6.796,6.139,5.893
74,0.794,37.203,38.681,47.657,29.673,6.714,6.057,5.851
75,0.787,37.281,38.689,47.666,29.663,6.672,6.015,5.729
76,0.793,36.917,38.743,47.676,29.684,6.794,6.178,5.931
77,0.797,37.057,38.736,47.656,29.677,6.755,6.22,5.892
78,0.787,37.202,38.689,47.675,29.673,6.714,6.098,5.851
79,0.787,37.29,38.743,47.676,29.684,6.713,6.219,5.973
80,0.78,36.869,38.732,47.666,29.673,6.713,6.261,5.974
81,0.774,37.009,38.65,47.676,29.666,6.632,6.18,5.811
82,0.787,37.135,38.7,47.666,29.663,6.631,6.22,5.891
83,0.793,37.213,38.697,47.676,29.68,6.753,6.22,5.933
84,0.803,36.964,38.767,47.704,29.691,6.754,6.342,6.055
85,0.797,37.077,38.693,47.676,29.677,6.632,6.303,5.812
86,0.81,37.212,38.736,47.685,29.677,6.672,6.343,5.932
87,0.8,37.271,38.678,47.676,29.673,6.631,6.221,5.933
88,0.8,36.37,38.677,47.666,29.666,6.59,6.22,5.852
89,0.8,36.505,38.739,47.685,29.673,6.631,6.302,5.891
90,0.803,36.65,38.697,47.772,29.687,6.712,6.302,5.973
91,0.816,36.709,38.685,47.696,29.68,6.794,6.343,5.893
92,0.794,37.161,38.72,47.676,29.673,6.673,6.181,5.851
93,0.787,37.299,38.748,47.676,29.663,6.631,6.139,5.769
94,0.803,37.416,38.678,47.704,29.677,6.712,6.26,5.891
95,0.794,37.129,38.665,47.676,29.673,6.672,6.262,5.892
96,0.793,36.954,38.665,47.771,29.677,6.713,6.221,5.892
97,0.79,37.096,38.638,47.724,29.684,6.713,6.261,5.973
98,0.78,37.203,38.751,47.686,29.68,6.754,6.262,5.893
99,0.78,36.916,38.658,47.685,29.673,6.673,6.18,5.851
100,0.771,37.009,38.665,47.676,29.663,6.55,6.139,5.851
101,0.761,37.173,38.712,47.695,29.68,6.712,6.26,5.973
102,0.761,37.29,38.751,47.733,29.687,6.876,6.343,6.055
103,0.761,36.812,38.674,47.695,29.674,6.715,6.181,5.975
104,0.774,36.989,38.587,47.724,29.673,6.754,6.139,5.811
105,0.774,37.096,38.684,47.705,29.673,6.754,6.219,5.891
106,0.777,37.164,38.681,47.685,29.677,6.673,6.18,5.892
107,0.793,36.887,38.751,47.714,29.673,6.713,6.139,5.851
108,0.793,37.038,38.658,47.743,29.68,6.713,6.219,5.891
109,0.793,37.183,38.688,47.743,29.68,6.713,6.261,5.973
110,0.777,37.204,38.72,47.695,29.666,6.632,6.139,5.811
111,0.787,36.849,38.689,47.685,29.666,6.55,5.976,5.728
112,0.787,36.999,38.646,47.724,29.68,6.671,6.137,5.85
113,0.777,37.154,38.626,47.705,29.677,6.631,6.179,5.891
114,0.774,37.194,38.68,47.724,29.67,6.59,6.098,5.811
115,0.767,37.022,38.696,47.734,29.68,6.671,6.138,5.932
116,0.767,37.125,38.724,47.715,29.677,6.591,6.057,5.811
117,0.751,37.213,38.693,47.705,29.663,6.468,5.975,5.81
118,0.748,37.271,38.665,47.724,29.677,6.589,6.055,5.85
119,0.757,36.994,38.712,47.724,29.677,6.549,6.056,5.973
120,0.764,37.154,38.701,47.762,29.684,6.712,6.178,6.055
121,0.748,37.232,38.685,47.753,29.677,6.51,6.017,5.771
122,0.754,37.166,38.657,47.734,29.677,6.467,6.015,5.809
123,0.754,37.002,38.688,47.734,29.684,6.548,6.056,5.891
124,0.751,37.106,38.728,47.686,29.667,6.508,5.934,5.77
125,0.761,37.212,38.755,47.733,29.673,6.549,6.014,5.809
126,0.774,36.935,38.713,47.734,29.677,6.59,6.056,5.932
127,0.797,37.029,38.662,47.762,29.677,6.631,5.975,5.811
128,0.764,37.135,38.665,47.734,29.666,6.631,5.974,5.769
129,0.767,37.194,38.646,47.715,29.666,6.468,5.893,5.687
130,0.774,36.83,38.696,47.82,29.673,6.589,6.014,5.849
131,0.771,36.96,38.681,47.744,29.673,6.671,5.974,5.851
132,0.78,37.077,38.696,47.715,29.677,6.55,5.974,5.81
133,0.78,37.183,38.74,47.753,29.684,6.59,6.015,5.891
134,0.764,36.926,38.732,47.734,29.677,6.549,6.015,5.77
135,0.761,37.038,38.697,47.724,29.67,6.508,5.934,5.728
136,0.767,37.173,38.63,47.772,29.666,6.467,5.933,5.727
137,0.761,37.251,38.723,47.763,29.677,6.589,6.014,5.85
138,0.757,36.945,38.752,47.763,29.691,6.712,6.137,5.891
139,0.748,37.067,38.619,47.753,29.674,6.51,5.976,5.729
140,0.747,37.202,38.688,47.763,29.673,6.63,6.055,5.85
141,0.738,37.242,38.704,47.763,29.677,6.631,6.015,5.891
142,0.734,36.917,38.712,47.734,29.666,6.55,5.934,5.689
143,0.741,37.067,38.658,47.762,29.673,6.549,6.014,5.809
144,0.757,37.193,38.645,47.763,29.68,6.712,6.056,5.85
145,0.761,37.223,38.704,47.791,29.687,6.713,6.097,5.851
146,0.741,36.964,38.673,47.744,29.674,6.632,5.975,5.688
147,0.747,37.086,38.747,47.763,29.673,6.753,5.974,5.727
148,0.741,37.193,38.643,47.763,29.673,6.754,6.015,5.809
149,0.728,37.194,38.68,47.744,29.673,6.714,6.015,5.769
150,0.738,36.935,38.689,47.753,29.677,6.754,5.974,5.728
151,0.757,37.057,38.728,47.763,29.68,6.876,6.096,5.727
152,0.757,37.174,38.607,47.791,29.677,6.796,6.016,5.727
153,0.751,36.82,38.665,47.744,29.67,6.795,5.934,5.646
154,0.744,36.855,38.657,47.724,29.663,6.755,5.892,5.686
155,0.757,37.018,38.692,47.772,29.68,6.957,5.973,5.809
156,0.757,37.116,38.72,47.782,29.684,7.0,6.055,5.769
157,0.738,36.867,38.677,47.763,29.677,6.879,5.934,5.728
158,0.744,37.018,38.673,47.791,29.68,7.0,6.014,5.809
159,0.738,37.154,38.677,47.763,29.684,6.96,5.974,5.728
160,0.734,37.203,38.704,47.753,29.663,6.919,5.852,5.687
161,0.718,36.763,38.607,47.772,29.659,6.959,5.891,5.727
162,0.737,36.94,38.68,47.801,29.68,7.041,5.973,5.768
163,0.754,37.077,38.704,47.821,29.684,7.164,5.974,5.891
164,0.748,37.116,38.693,47.782,29.673,7.002,5.933,5.648
165,0.747,36.877,38.708,47.782,29.673,6.96,5.933,5.727
166,0.744,37.009,38.685,47.772,29.677,7.0,5.892,5.727
167,0.741,37.096,38.654,47.753,29.673,6.879,5.811,5.646
168,0.754,37.184,38.653,47.782,29.673,7.04,5.891,5.727
169,0.761,36.791,38.731,47.782,29.677,7.001,5.933,5.85
170,0.767,36.95,38.662,47.811,29.684,7.001,5.892,5.769
171,0.767,37.038,38.661,47.782,29.673,6.879,5.851,5.647
172,0.764,37.058,38.704,47.772,29.673,6.796,5.729,5.605
173,0.767,36.943,38.736,47.772,29.677,6.917,5.85,5.726
174,0.748,37.057,38.701,47.792,29.67,6.837,5.81,5.727
175,0.751,37.193,38.65,47.782,29.677,6.837,5.85,5.727
176,0.751,37.367,38.571,47.82,29.677,6.877,5.891,5.768
177,0.738,36.918,38.625,47.792,29.68,6.837,5.811,5.728
178,0.731,37.028,38.696,47.773,29.666,6.796,5.769,5.646
179,0.731,37.116,38.662,47.763,29.666,6.714,5.687,5.605
180,0.741,36.867,38.665,47.791,29.673,6.835,5.849,5.767
181,0.738,36.884,38.704,47.801,29.68,6.796,5.891,5.809
182,0.734,37.018,38.724,47.801,29.677,6.795,5.933,5.688
183,0.741,37.125,38.697,47.811,29.677,6.755,5.811,5.727
184,0.744,36.647,38.619,47.802,29.677,6.795,5.81,5.687
185,0.734,36.757,38.645,47.782,29.677,6.714,5.728,5.646
186,0.738,36.873,38.645,47.782,29.666,6.672,5.727,5.645
187,0.751,36.999,38.704,47.801,29.677,6.794,5.89,5.727
188,0.751,36.761,38.681,47.83,29.691,6.958,5.973,5.85
189,0.748,36.873,38.646,47.811,29.677,6.797,5.771,5.729
190,0.757,36.999,38.684,47.821,29.687,6.836,5.768,5.687
191,0.754,37.058,38.689,47.782,29.674,6.755,5.85,5.727
192,0.748,36.646,38.661,47.772,29.663,6.795,5.729,5.646
193,0.747,36.776,38.657,47.887,29.67,6.795,5.809,5.645
194,0.744,36.941,38.657,47.822,29.673,6.877,5.891,5.767
195,0.76,37.029,38.673,47.85,29.691,7.0,5.973,5.809
196,0.748,36.78,38.689,47.802,29.67,6.879,5.73,5.606
197,0.738,36.921,38.689,47.811,29.673,6.918,5.768,5.726
198,0.734,37.038,38.669,47.83,29.677,6.878,5.809,5.768
199,0.721,37.058,38.673,47.792,29.673,6.877,5.728,5.647
200,0.728,36.732,38.689,47.811,29.68,6.877,5.809,5.727
201,0.741,36.883,38.634,47.84,29.684,6.959,5.85,5.768
202,0.741,37.018,38.618,47.84,29.68,6.838,5.769,5.687
203,0.721,37.279,38.641,47.792,29.666,6.796,5.768,5.727
204,0.731,36.735,38.653,47.792,29.67,6.714,5.647,5.565
205,0.725,36.902,38.708,47.811,29.68,6.916,5.808,5.726
206,0.731,36.971,38.705,47.802,29.677,6.878,5.891,5.687
207,0.734,36.703,38.677,47.926,29.673,6.837,5.77,5.687
208,0.738,36.719,38.681,47.812,29.677,6.837,5.809,5.727
209,0.747,36.844,38.72,47.83,29.673,6.796,5.81,5.727
210,0.734,36.941,38.607,47.802,29.673,6.714,5.81,5.605
211,0.747,36.626,38.629,47.773,29.659,6.632,5.728,5.564
212,0.754,36.776,38.673,47.839,29.673,6.672,5.931,5.726
213,0.751,36.902,38.708,47.84,29.677,6.835,5.974,5.809
214,0.731,36.98,38.74,47.811,29.673,6.714,6.015,5.688
215,0.741,36.665,38.678,47.849,29.684,6.754,5.934,5.687
216,0.744,36.824,38.587,47.84,29.677,6.714,5.933,5.687
217,0.728,36.922,38.672,47.802,29.66,6.672,5.933,5.564
218,0.731,36.99,38.689,47.811,29.673,6.672,5.974,5.685
219,0.744,36.646,38.634,47.821,29.673,6.713,6.015,5.687
220,0.751,36.843,38.653,47.85,29.687,6.835,6.137,5.768
221,0.725,36.922,38.653,47.821,29.67,6.633,5.976,5.647
222,0.734,36.961,38.724,47.84,29.68,6.631,5.974,5.686
223,0.734,36.482,38.673,47.811,29.677,6.631,6.055,5.687
224,0.734,36.612,38.638,47.811,29.67,6.55,5.975,5.646
225,0.738,36.738,38.583,47.84,29.673,6.59,6.015,5.686
226,0.741,36.796,38.676,47.831,29.68,6.671,6.056,5.768
227,0.767,36.701,38.665,47.859,29.684,6.672,6.097,5.687
228,0.748,36.806,38.681,47.802,29.677,6.591,5.975,5.605
229,0.757,36.912,38.618,47.821,29.673,6.509,5.974,5.645
230,0.757,36.942,38.657,47.84,29.673,6.549,6.055,5.645
231,0.754,36.587,38.7,47.802,29.677,6.508,5.975,5.605
232,0.751,36.728,38.638,47.821,29.67,6.589,6.015,5.645
233,0.748,36.844,38.602,47.84,29.673,6.631,6.096,5.686
234,0.744,36.644,38.664,47.84,29.677,6.631,6.097,5.687
235,0.731,36.613,38.646,47.811,29.666,6.428,5.975,5.564
236,0.734,36.728,38.673,47.802,29.666,6.466,5.893,5.604
237,0.734,36.854,38.735,47.821,29.673,6.548,6.014,5.767
238,0.725,36.424,38.627,47.811,29.68,6.59,6.015,5.647
239,0.728,36.582,38.68,47.821,29.677,6.59,6.056,5.645
240,0.738,36.699,38.724,47.811,29.677,6.631,6.056,5.727
241,0.728,36.796,38.627,47.83,29.67,6.631,6.056,5.687
242,0.712,36.481,38.63,47.811,29.673,6.468,5.934,5.564
243,0.715,36.592,38.626,47.792,29.663,6.507,5.933,5.563
244,0.741,36.757,38.665,47.821,29.68,6.589,6.014,5.726
245,0.734,36.854,38.692,47.85,29.684,6.712,6.096,5.768
246,0.734,36.481,38.743,47.812,29.673,6.551,6.016,5.647
247,0.747,36.631,38.6,47.811,29.68,6.671,6.056,5.686
248,0.738,36.757,38.641,47.83,29.677,6.591,5.975,5.687
249,0.738,36.797,38.704,47.802,29.67,6.549,5.893,5.564
250,0.734,36.413,38.619,47.801,29.67,6.508,5.973,5.645
251,0.754,36.592,38.661,47.821,29.673,6.63,6.015,5.727
252,0.774,36.757,38.688,47.83,29.684,6.712,6.056,5.809
253,0.754,36.749,38.689,47.802,29.673,6.632,5.934,5.688
254,0.744,36.451,38.7,47.811,29.666,6.55,5.892,5.687
255,0.744,36.592,38.712,47.802,29.677,6.59,5.973,5.646
256,0.734,36.67,38.576,47.801,29.67,6.509,5.852,5.605
257,0.721,36.719,38.637,47.821,29.673,6.549,5.851,5.645
258,0.721,36.461,38.649,47.84,29.68,6.63,5.932,5.767
259,0.741,36.621,38.696,47.84,29.687,6.631,5.933,5.728
260,0.734,36.699,38.65,47.802,29.67,6.509,5.852,5.646
261,0.734,36.499,38.642,47.773,29.666,6.467,5.851,5.564
262,0.731,36.458,38.72,47.82,29.68,6.589,5.973,5.645
263,0.731,36.573,38.681,47.782,29.673,6.509,5.852,5.605
264,0.738,36.68,38.665,47.811,29.673,6.549,5.891,5.645
265,0.747,36.355,38.607,47.792,29.677,6.59,5.933,5.727
266,0.76,36.457,38.637,47.811,29.673,6.59,5.852,5.687
267,0.748,36.573,38.591,47.792,29.673,6.549,5.729,5.605
268,0.754,36.641,38.657,47.763,29.659,6.468,5.687,5.564
269,0.751,36.191,38.638,47.801,29.68,6.548,5.809,5.726
270,0.735,36.331,38.626,47.811,29.68,6.671,5.891,5.687
271,0.741,36.447,38.696,47.792,29.677,6.591,5.811,5.564
272,0.754,36.544,38.685,47.811,29.68,6.59,5.932,5.726
273,0.744,36.248,38.63,47.792,29.673,6.631,5.892,5.687
274,0.721,36.37,38.598,47.821,29.67,6.509,5.77,5.564
275,0.711,36.476,38.653,47.763,29.666,6.427,5.768,5.645
276,0.737,36.564,38.638,47.801,29.677,6.67,5.891,5.727
277,0.734,36.277,38.7,47.801,29.68,6.753,6.014,5.768
278,0.734,36.389,38.665,47.801,29.673,6.632,5.812,5.647
279,0.747,36.553,38.63,47.801,29.68,6.672,5.972,5.686
280,0.747,36.574,38.673,47.792,29.67,6.672,5.893,5.727
281,0.744,36.267,38.646,47.773,29.673,6.591,5.811,5.646
282,0.741,36.399,38.645,47.792,29.677,6.631,5.891,5.727
283,0.764,36.544,38.606,47.801,29.677,6.712,5.892,5.727
284,0.793,36.593,38.696,47.811,29.694,6.835,5.973,5.809
285,0.797,36.229,38.658,47.782,29.667,6.633,5.852,5.688
286,0.794,36.36,38.685,47.782,29.673,6.672,5.891,5.646
287,0.787,36.476,38.626,47.792,29.673,6.672,5.892,5.605
288,0.787,36.286,38.626,47.763,29.673,6.631,5.811,5.686
289,0.79,36.207,38.68,47.782,29.677,6.712,5.85,5.687
290,0.79,36.36,38.626,47.772,29.68,6.794,5.973,5.727
291,0.8,36.495,38.661,47.782,29.677,6.836,5.974,5.727
292,0.781,36.113,38.618,47.763,29.677,6.674,5.852,5.646
293,0.79,36.205,38.684,47.734,29.666,6.672,5.729,5.564
294,0.793,36.35,38.681,47.782,29.673,6.835,5.931,5.726
295,0.797,36.438,38.689,47.772,29.677,6.837,5.852,5.687
296,0.807,36.113,38.611,47.763,29.673,6.837,5.851,5.687
297,0.81,36.292,38.653,47.791,29.68,6.958,5.932,5.687
298,0.797,36.399,38.661,47.773,29.677,6.878,5.892,5.646
299,0.797,36.457,38.638,47.763,29.673,6.837,5.892,5.645
300,0.777,35.988,38.634,47.734,29.666,6.837,5.851,5.686
301,0.784,36.166,38.653,47.772,29.673,7.04,5.851,5.809
302,0.793,36.321,38.696,47.811,29.687,7.164,6.054,5.81
303,0.797,36.351,38.673,47.744,29.677,7.002,5.893,5.728
304,0.839,36.141,38.622,47.763,29.673,7.041,5.851,5.727
305,0.836,36.273,38.571,47.763,29.677,7.042,5.891,5.727
306,0.833,36.399,38.606,47.744,29.666,6.96,5.811,5.687
307,0.833,36.457,38.668,47.753,29.673,7.082,5.85,5.646
308,0.852,36.084,38.704,47.753,29.673,7.083,5.851,5.808
309,0.892,36.253,38.556,47.791,29.68,7.042,5.891,5.769
310,0.892,36.341,38.617,47.753,29.677,6.92,5.77,5.647
311,0.895,36.371,38.661,47.724,29.666,6.919,5.768,5.605
312,0.889,36.016,38.657,47.753,29.677,7.0,5.85,5.686
313,0.885,36.128,38.618,47.724,29.673,7.041,5.81,5.768
314,0.876,36.282,38.563,47.743,29.677,7.001,5.81,5.647
315,0.853,36.207,38.617,47.763,29.68,7.041,5.891,5.727
316,0.856,36.062,38.641,47.753,29.677,6.96,5.851,5.687
317,0.84,36.176,38.677,47.705,29.673,6.919,5.81,5.646
318,0.839,36.263,38.587,47.724,29.663,6.837,5.728,5.605
319,0.843,36.005,38.617,47.743,29.673,6.958,5.89,5.686
320,0.866,36.108,38.688,47.753,29.68,7.0,6.014,5.809
321,0.879,36.224,38.665,47.724,29.677,6.879,5.852,5.769
322,0.895,36.341,38.571,47.762,29.68,6.877,5.891,5.768
323,0.892,36.006,38.641,47.734,29.677,6.959,5.933,5.728
324,0.892,36.118,38.602,47.715,29.673,6.797,5.892,5.727
325,0.892,36.253,38.661,47.743,29.673,6.917,5.933,5.768
326,0.895,36.341,38.696,47.734,29.673,6.959,5.974,5.809
327,0.905,35.949,38.704,47.762,29.687,7.041,6.096,5.85
328,0.886,36.079,38.623,47.715,29.674,6.839,6.016,5.729
329,0.898,36.205,38.665,47.724,29.666,6.918,5.974,5.646
330,0.902,36.245,38.642,47.734,29.677,7.0,6.055,5.727
331,0.899,35.967,38.591,47.734,29.67,7.001,6.056,5.687
332,0.899,36.098,38.629,47.724,29.666,7.001,5.975,5.687
333,0.892,36.224,38.63,47.734,29.68,7.123,6.137,5.809
334,0.882,36.293,38.669,47.724,29.68,7.083,6.057,5.688
335,0.859,35.919,38.677,47.705,29.673,7.083,6.015,5.646
336,0.846,36.059,38.669,47.705,29.666,6.961,5.974,5.564
337,0.836,36.186,38.603,47.714,29.673,7.204,6.096,5.726
338,0.826,36.225,38.618,47.724,29.67,7.206,6.097,5.809
339,0.82,35.947,38.68,47.714,29.67,7.125,6.056,5.728
340,0.813,36.108,38.579,47.733,29.677,7.287,6.137,5.727
341,0.813,36.205,38.641,47.724,29.673,7.288,6.098,5.768
342,0.79,36.177,38.641,47.686,29.666,7.288,6.056,5.647
343,0.78,35.87,38.684,47.685,29.663,7.288,6.056,5.645
344,0.797,36.03,38.685,47.724,29.68,7.491,6.178,5.727
345,0.794,36.128,38.657,47.734,29.687,7.575,6.261,5.85
346,0.784,35.841,38.564,47.705,29.67,7.413,6.058,5.648
347,0.803,35.915,38.574,47.695,29.684,7.574,6.178,5.767
348,0.787,36.05,38.684,47.705,29.677,7.535,6.139,5.728
349,0.78,36.128,38.568,47.685,29.666,7.453,6.016,5.646
350,0.777,35.784,38.594,47.695,29.666,7.534,6.137,5.727
351,0.777,35.924,38.625,47.705,29.677,7.616,6.098,5.687
352,0.78,36.06,38.708,47.724,29.691,7.657,6.219,5.809
353,0.761,36.099,38.658,47.695,29.67,7.455,6.098,5.647
354,0.764,35.841,38.579,47.695,29.666,7.493,6.097,5.564
355,0.764,35.992,38.571,47.705,29.67,7.534,6.178,5.685
356,0.741,36.099,38.578,47.685,29.673,7.372,6.139,5.646
357,0.738,36.176,38.617,47.695,29.666,7.452,6.138,5.686
358,0.725,35.794,38.614,47.714,29.677,7.493,6.179,5.687
359,0.718,35.972,38.618,47.695,29.677,7.494,6.179,5.605
360,0.702,36.079,38.606,47.676,29.673,7.371,6.098,5.645
361,0.701,36.109,38.657,47.666,29.663,7.37,6.138,5.605
362,0.701,35.831,38.645,47.695,29.677,7.452,6.26,5.767
363,0.698,35.972,38.532,47.685,29.673,7.371,6.221,5.728
364,0.721,36.098,38.64,47.695,29.673,7.33,6.22,5.687
365,0.724,36.128,38.63,47.685,29.677,7.41,6.261,5.727
366,0.705,35.87,38.641,47.676,29.677,7.33,6.18,5.687
367,0.702,35.963,38.645,47.676,29.67,7.207,6.098,5.605
368,0.682,36.07,38.626,47.666,29.67,7.206,6.097,5.564
369,0.685,36.234,38.633,47.685,29.673,7.247,6.178,5.685
370,0.688,35.708,38.665,47.676,29.677,7.288,6.22,5.768
371,0.692,35.827,38.622,47.666,29.67,7.207,6.139,5.647
372,0.714,35.953,38.594,47.685,29.68,7.287,6.219,5.727
373,0.728,35.782,38.61,47.676,29.677,7.207,6.18,5.646
374,0.695,35.847,38.657,47.656,29.673,7.125,6.098,5.645
375,0.692,35.982,38.669,47.666,29.666,7.165,6.138,5.645
376,0.701,36.079,38.685,47.666,29.677,7.206,6.219,5.727
377,0.701,35.697,38.618,47.695,29.68,7.328,6.342,5.768
378,0.692,35.789,38.602,47.657,29.673,7.085,6.14,5.606
379,0.698,35.934,38.653,47.685,29.677,7.205,6.179,5.645
380,0.695,35.993,38.642,47.676,29.673,7.165,6.179,5.686
381,0.682,35.657,38.618,47.676,29.666,7.002,6.139,5.646
382,0.698,35.827,38.618,47.685,29.673,7.123,6.219,5.645
383,0.705,35.943,38.657,47.676,29.673,7.124,6.18,5.727
384,0.715,36.031,38.692,47.704,29.68,7.124,6.261,5.687
385,0.705,35.562,38.681,47.657,29.673,7.002,6.139,5.646
386,0.711,35.72,38.603,47.647,29.666,6.96,6.057,5.605
387,0.698,35.856,38.649,47.656,29.673,7.122,6.178,5.726
388,0.685,35.896,38.618,47.656,29.673,7.043,6.22,5.727
389,0.708,35.666,38.641,47.656,29.673,7.123,6.261,5.727
390,0.724,35.817,38.634,47.685,29.677,7.205,6.302,5.768
391,0.728,35.953,38.598,47.666,29.666,7.206,6.302,5.647
392,0.718,35.964,38.657,47.647,29.673,7.206,6.262,5.564
393,0.715,35.552,38.642,47.618,29.659,7.125,6.262,5.604
394,0.718,35.711,38.63,47.656,29.677,7.408,6.343,5.726
395,0.715,35.818,38.555,47.666,29.673,7.452,6.425,5.687
396,0.711,36.174,38.637,47.647,29.673,7.452,6.385,5.687
397,0.702,35.803,38.579,47.666,29.677,7.615,6.425,5.727
398,0.698,35.924,38.672,47.656,29.67,7.617,6.385,5.687
399,0.698,36.021,38.571,47.647,29.673,7.617,6.344,5.646
400,0.695,35.61,38.625,47.637,29.673,7.657,6.425,5.686
401,0.705,35.644,38.645,47.675,29.677,7.861,6.466,5.727
402,0.711,35.798,38.661,47.685,29.687,7.944,6.548,5.768
403,0.705,35.857,38.599,47.637,29.67,7.783,6.427,5.647
404,0.721,35.551,38.559,47.646,29.673,7.862,6.344,5.727
405,0.715,35.663,38.602,47.656,29.673,7.863,6.425,5.727
406,0.715,35.769,38.594,47.627,29.666,7.863,6.385,5.646
407,0.715,35.866,38.657,47.646,29.673,7.904,6.425,5.727
408,0.728,35.484,38.548,47.656,29.677,7.985,6.385,5.809
409,0.725,35.643,38.633,47.647,29.677,7.946,6.425,5.728
410,0.728,35.74,38.653,47.627,29.666,7.823,6.344,5.646
411,0.728,35.799,38.638,47.599,29.666,7.822,6.262,5.523
412,0.728,35.579,38.536,47.637,29.68,7.863,6.343,5.725
413,0.725,35.711,38.586,47.637,29.677,7.863,6.384,5.809
414,0.724,35.837,38.606,47.656,29.673,7.822,6.303,5.728
415,0.734,35.905,38.645,47.647,29.68,7.822,6.465,5.727
416,0.734,35.474,38.673,47.637,29.673,7.822,6.386,5.727
417,0.728,35.585,38.618,47.599,29.666,7.619,6.344,5.646
418,0.712,35.73,38.602,47.598,29.666,7.698,6.221,5.727
419,0.731,35.799,38.661,47.617,29.673,7.74,6.342,5.768
420,0.738,35.617,38.638,47.637,29.687,7.74,6.466,5.85
421,0.718,35.74,38.595,47.627,29.667,7.537,6.304,5.729
422,0.724,35.866,38.594,47.646,29.68,7.697,6.262,5.768
423,0.721,35.877,38.633,47.627,29.673,7.496,6.262,5.809
424,0.728,35.465,38.634,47.608,29.666,7.494,6.262,5.688
425,0.728,35.595,38.688,47.617,29.666,7.575,6.221,5.646
426,0.741,35.701,38.658,47.627,29.677,7.616,6.261,5.767
427,0.744,35.53,38.614,47.646,29.68,7.698,6.384,5.891
428,0.734,35.499,38.61,47.618,29.67,7.536,6.222,5.648
429,0.738,35.633,38.649,47.608,29.67,7.494,6.18,5.727
430,0.741,35.75,38.567,47.617,29.67,7.453,6.22,5.809
431,0.738,35.243,38.59,47.579,29.673,7.412,6.139,5.688
432,0.741,35.362,38.645,47.608,29.673,7.452,6.219,5.687
433,0.754,35.498,38.657,47.608,29.677,7.452,6.302,5.768
434,0.754,35.614,38.638,47.627,29.68,7.493,6.262,5.809
435,0.735,35.433,38.587,47.589,29.666,7.371,6.221,5.728
436,0.734,35.594,38.516,47.579,29.663,7.289,6.18,5.727
437,0.725,35.74,38.586,47.608,29.677,7.369,6.261,5.809
438,0.721,35.789,38.637,47.589,29.673,7.289,6.221,5.81
439,0.715,35.349,38.544,47.579,29.673,7.329,6.302,5.728
440,0.724,35.517,38.594,47.598,29.673,7.329,6.302,5.809
441,0.721,35.634,38.641,47.608,29.673,7.207,6.221,5.728
442,0.718,35.683,38.641,47.57,29.67,7.084,6.139,5.768
443,0.728,35.3,38.571,47.569,29.659,7.002,6.138,5.647
444,0.738,35.468,38.594,47.588,29.68,7.123,6.219,5.808
445,0.747,35.595,38.508,47.608,29.677,7.083,6.22,5.81
446,0.79,35.634,38.609,47.56,29.67,7.042,6.22,5.769
447,0.839,35.328,38.602,47.588,29.68,7.082,6.302,5.809
448,0.859,35.44,38.606,47.579,29.67,7.002,6.221,5.81
449,0.859,35.546,38.575,47.56,29.67,6.919,6.18,5.728
450,0.879,35.557,38.602,47.55,29.663,6.878,6.139,5.727
451,0.915,35.433,38.672,47.588,29.68,6.837,6.219,5.768
452,0.944,35.594,38.587,47.608,29.68,6.999,6.302,5.891
453,0.984,35.701,38.614,47.665,29.67,6.797,6.262,5.729
454,1.017,35.482,38.602,47.57,29.68,6.836,6.139,5.768
455,1.04,35.432,38.668,47.569,29.673,6.796,6.219,5.768
456,1.098,35.527,38.661,47.55,29.67,6.714,6.139,5.728
457,1.112,35.643,38.685,47.559,29.673,6.754,6.138,5.768
458,1.151,35.28,38.611,47.559,29.673,6.836,6.219,5.891
459,1.187,35.43,38.606,47.579,29.68,6.837,6.22,5.851
460,1.24,35.518,38.641,47.541,29.67,6.674,6.058,5.81
461,1.279,35.614,38.567,47.55,29.673,6.713,6.137,5.769
462,1.332,35.289,38.59,47.569,29.677,6.794,6.179,5.891
463,1.368,35.411,38.606,47.56,29.673,6.795,6.139,5.851
464,1.456,35.556,38.645,47.559,29.67,6.755,6.138,5.973
465,1.525,35.644,38.657,47.55,29.677,6.876,6.179,5.974
466,1.568,35.222,38.657,47.55,29.684,6.877,6.139,6.015
467,1.611,35.343,38.474,47.55,29.667,6.755,6.098,5.893
468,1.628,35.469,38.593,47.54,29.663,6.754,5.975,5.892
469,1.67,35.547,38.641,47.55,29.68,6.876,6.177,6.014
470,1.749,35.25,38.556,47.54,29.673,6.796,6.22,6.096
471,1.805,35.401,38.59,47.54,29.67,6.877,6.18,5.975
472,1.864,35.527,38.61,47.531,29.677,6.918,6.179,6.137
473,1.891,35.567,38.661,47.54,29.673,6.919,6.179,6.098
474,1.93,35.318,38.595,47.511,29.677,6.837,6.139,6.056
475,1.966,35.459,38.594,47.492,29.663,6.796,6.098,6.056
476,2.005,35.575,38.551,47.54,29.684,6.958,6.178,6.219
477,2.003,35.625,38.613,47.531,29.684,7.041,6.342,6.342
478,1.983,35.366,38.602,47.521,29.677,6.96,6.14,6.303
479,1.96,35.517,38.583,47.54,29.677,6.96,6.219,6.384
480,1.911,35.643,38.61,47.531,29.67,7.041,6.22,6.507
481,1.832,35.395,38.579,47.502,29.663,6.92,6.18,6.508
482,1.754,35.239,38.649,47.492,29.666,6.959,6.139,6.711
483,1.629,35.41,38.599,47.53,29.677,7.041,6.179,6.835
484,1.534,35.527,38.59,47.55,29.684,7.164,6.342,7.08
485,1.429,35.24,38.504,47.531,29.673,7.043,6.181,7.042
486,1.304,35.353,38.574,47.511,29.677,7.123,6.22,7.286
487,1.147,35.488,38.629,47.511,29.677,7.002,6.18,7.41
488,1.002,35.576,38.598,47.511,29.67,6.96,6.057,7.452
489,0.893,35.203,38.61,47.511,29.673,7.0,6.097,7.656
490,0.765,35.362,38.61,47.53,29.677,7.163,6.178,7.82
491,0.679,35.507,38.661,47.53,29.68,7.206,6.261,8.025
492,0.6,35.557,38.583,47.502,29.666,7.043,6.099,8.027
493,0.518,35.202,38.625,47.501,29.673,7.204,6.138,8.068
494,0.433,35.343,38.594,47.511,29.666,7.165,6.179,8.231
495,0.341,35.45,38.594,47.492,29.666,7.043,6.057,8.314
496,0.239,35.527,38.637,47.482,29.673,7.123,6.097,8.437
497,0.17,35.269,38.63,47.472,29.673,7.287,6.056,8.519
498,0.143,35.468,38.634,47.53,29.684,7.288,6.178,8.642
499,0.107,35.537,38.591,47.473,29.67,7.207,6.017,8.521
500,0.107,35.586,38.629,47.492,29.673,7.247,6.096,8.52
501,0.113,35.27,38.602,47.501,29.68,7.328,6.138,8.764
502,0.126,35.41,38.59,47.501,29.673,7.248,6.098,8.767
503,0.149,35.527,38.606,47.511,29.677,7.247,6.056,8.726
504,0.176,35.576,38.606,47.492,29.677,7.288,6.056,8.848
505,0.189,35.27,38.645,47.501,29.68,7.288,6.137,8.849
506,0.179,35.382,38.63,47.473,29.666,7.166,6.016,8.767
507,0.186,35.479,38.501,47.453,29.663,7.246,6.015,8.929
508,0.221,35.403,38.609,47.482,29.677,7.288,6.096,9.175
509,0.267,35.239,38.641,47.482,29.684,7.369,6.097,9.421
510,0.268,35.333,38.575,47.482,29.67,7.208,5.975,9.342
511,0.317,35.459,38.582,47.482,29.673,7.328,6.055,9.504
512,0.389,35.067,38.614,47.472,29.68,7.289,5.975,9.709
513,0.441,35.15,38.594,47.434,29.67,7.207,6.015,9.833
514,0.455,35.275,38.629,47.453,29.673,7.287,6.015,10.078
515,0.484,35.401,38.614,47.472,29.677,7.369,6.056,10.284
516,0.559,35.115,38.559,47.501,29.691,7.452,6.137,10.53
517,0.576,35.246,38.578,47.473,29.674,7.29,5.976,10.573
518,0.59,35.362,38.613,47.482,29.673,7.288,5.974,10.655
519,0.609,35.459,38.594,47.472,29.677,7.247,6.015,10.9
520,0.655,35.173,38.547,47.472,29.663,7.247,5.974,11.024
521,0.695,35.333,38.613,47.472,29.67,7.288,6.015,11.107
522,0.731,35.44,38.641,47.482,29.677,7.329,6.015,11.189
523,0.773,35.546,38.634,47.501,29.687,7.329,6.096,11.189
524,0.787,35.135,38.548,47.453,29.667,7.207,5.975,11.068
525,0.797,35.294,38.539,47.453,29.666,7.206,5.893,11.066
526,0.807,35.42,38.531,47.482,29.677,7.287,5.973,11.066
527,0.813,35.479,38.597,47.472,29.673,7.288,5.974,11.026
528,0.816,35.163,38.672,47.472,29.673,7.207,6.015,11.025
529,0.829,35.333,38.579,47.597,29.677,7.287,6.015,11.025
530,0.836,35.44,38.61,47.493,29.677,7.247,5.974,10.903
531,0.82,35.451,38.618,47.434,29.67,7.206,5.893,10.821
532,0.817,35.086,38.59,47.443,29.666,7.125,5.892,10.779
533,0.839,35.274,38.52,47.491,29.673,7.287,6.014,10.779
534,0.83,35.372,38.531,47.52,29.68,7.369,6.056,10.82
535,0.83,35.392,38.594,47.492,29.673,7.208,5.975,10.739
536,0.836,35.162,38.598,47.492,29.677,7.247,6.015,10.697
537,0.839,35.285,38.637,47.473,29.673,7.288,6.015,10.575
538,0.839,35.392,38.567,47.472,29.67,7.166,5.893,10.451
539,0.843,35.114,38.563,47.472,29.677,7.206,6.014,10.41
540,0.859,35.217,38.606,47.482,29.68,7.247,6.056,10.409
541,0.856,35.391,38.641,47.52,29.68,7.41,5.975,10.491
542,0.853,35.441,38.489,47.473,29.673,7.249,5.974,10.247
543,0.849,35.0,38.581,47.492,29.67,7.206,5.893,10.123
544,0.849,35.12,38.586,47.482,29.666,7.206,5.892,10.122
545,0.853,35.246,38.629,47.463,29.666,7.165,5.892,10.0
546,0.869,35.334,38.634,47.491,29.67,7.165,5.973,9.999
547,0.863,35.095,38.602,47.492,29.68,7.206,6.015,9.999
548,0.875,35.246,38.579,47.492,29.68,7.206,5.934,9.917
549,0.859,35.353,38.578,47.473,29.666,7.084,5.852,9.754
550,0.859,35.402,38.59,47.444,29.659,7.002,5.769,9.59
551,0.869,34.99,38.512,47.491,29.677,7.082,5.931,9.629
552,0.876,35.149,38.55,47.501,29.673,7.123,5.974,9.588
553,0.876,35.256,38.594,47.482,29.673,7.002,5.852,9.425
554,0.859,35.343,38.641,47.501,29.677,7.041,5.932,9.424
555,0.866,35.066,38.645,47.482,29.67,6.96,5.892,9.261
556,0.856,35.197,38.606,47.463,29.673,6.919,5.77,9.178
557,0.843,35.314,38.547,47.491,29.673,6.837,5.85,9.137
558,0.869,35.392,38.566,47.492,29.68,6.999,5.891,9.095
559,0.882,35.114,38.652,47.511,29.687,7.041,6.054,9.095
560,0.892,35.217,38.54,47.482,29.674,6.798,5.853,8.892
561,0.892,35.372,38.558,47.492,29.673,6.917,5.851,8.809
562,0.876,35.488,38.594,47.473,29.68,6.919,5.973,8.767
563,0.879,35.01,38.602,47.453,29.666,6.878,5.811,8.685
564,0.879,35.149,38.633,47.482,29.673,6.918,5.85,8.644
565,0.898,35.285,38.61,47.472,29.68,6.959,6.013,8.603
566,0.899,35.622,38.563,47.492,29.684,7.0,5.974,8.48
567,0.902,35.75,38.551,47.463,29.673,6.838,5.893,8.357
568,0.918,35.876,38.594,47.453,29.666,6.877,5.811,8.234
569,0.909,35.963,38.602,47.472,29.68,6.959,5.972,8.314
570,0.902,34.689,38.575,47.453,29.677,6.919,5.893,8.193
571,0.921,34.781,38.574,47.453,29.673,6.959,5.892,8.11
572,0.925,34.936,38.61,47.463,29.673,7.082,5.973,8.15
573,0.925,35.052,38.626,47.472,29.677,7.083,5.974,7.947
574,0.905,35.034,38.567,47.453,29.666,7.042,5.893,7.945
575,0.899,35.178,38.492,47.434,29.666,7.042,5.851,7.864
576,0.918,35.352,38.574,47.482,29.68,7.123,6.013,7.944
577,0.909,35.411,38.543,47.453,29.68,7.327,6.056,7.986
578,0.912,34.827,38.625,47.434,29.673,7.207,5.934,7.824
579,0.912,34.984,38.594,47.453,29.673,7.287,6.014,7.781
580,0.902,35.11,38.571,47.434,29.673,7.288,6.015,7.74
581,0.905,35.14,38.621,47.434,29.666,7.247,5.893,7.618
582,0.895,35.045,38.61,47.434,29.663,7.288,5.933,7.657
583,0.905,35.207,38.571,47.462,29.677,7.329,6.014,7.658
584,0.925,35.343,38.492,47.482,29.687,7.41,6.096,7.658
585,0.915,35.363,38.585,47.434,29.674,7.289,5.935,7.455
586,0.925,35.364,38.563,47.443,29.68,7.288,6.014,7.534
587,0.922,35.488,38.582,47.443,29.677,7.288,5.974,7.494
588,0.925,35.585,38.493,47.434,29.67,7.207,5.893,7.371
589,0.922,35.845,38.562,47.434,29.673,7.287,5.973,7.37
590,0.925,34.783,38.629,47.443,29.673,7.329,5.974,7.411
591,0.944,34.936,38.622,47.462,29.677,7.37,6.015,7.371
592,0.932,35.024,38.536,47.424,29.673,7.167,5.893,7.167
593,0.925,34.938,38.562,47.414,29.666,7.165,5.851,7.206
594,0.931,34.995,38.559,47.424,29.677,7.246,5.973,7.206
595,0.931,35.12,38.617,47.414,29.673,7.206,5.893,7.125
596,0.938,35.227,38.61,47.433,29.673,7.247,5.973,7.165
597,0.932,34.816,38.586,47.434,29.68,7.288,5.974,7.246
598,0.938,34.955,38.563,47.424,29.673,7.247,5.893,7.084
599,0.925,35.062,38.606,47.386,29.663,7.206,5.892,7.042
600,0.922,35.15,38.579,47.385,29.659,7.125,5.811,7.042
601,0.935,34.872,38.485,47.443,29.68,7.287,5.972,7.123
602,0.938,35.004,38.589,47.462,29.68,7.288,6.096,7.205
603,0.935,35.111,38.571,47.415,29.673,7.166,5.813,7.084
604,0.938,35.217,38.637,47.414,29.677,7.246,5.891,7.042
605,0.945,34.921,38.614,47.395,29.677,7.166,5.933,6.96
606,0.938,35.043,38.59,47.395,29.663,7.043,5.77,6.919
607,0.958,35.178,38.559,47.395,29.67,7.082,5.85,6.878
608,0.964,35.266,38.578,47.414,29.677,7.123,5.973,6.918
609,0.964,34.95,38.606,47.424,29.687,7.124,6.015,7.0
610,0.961,35.033,38.532,47.395,29.667,7.002,5.852,6.797
611,0.977,35.159,38.566,47.385,29.673,7.082,5.81,6.755
612,0.977,35.208,38.602,47.385,29.673,7.042,5.891,6.795
613,0.987,34.729,38.602,47.366,29.673,7.042,5.851,6.755
614,0.971,34.887,38.586,47.375,29.673,7.042,5.851,6.795
615,0.981,35.004,38.571,47.414,29.68,7.164,5.973,6.795
616,0.987,35.034,38.477,47.414,29.673,7.084,5.893,6.795
617,0.984,34.89,38.558,47.366,29.666,7.083,5.851,6.633
618,0.968,35.014,38.598,47.375,29.663,7.083,5.891,6.631
619,0.971,35.159,38.504,47.385,29.673,7.286,5.892,6.672
620,0.981,34.911,38.582,47.424,29.684,7.451,6.014,6.835
621,0.977,34.851,38.567,47.395,29.667,7.29,5.934,6.674
622,0.984,35.004,38.609,47.404,29.68,7.329,5.974,6.631
623,0.978,35.111,38.563,47.385,29.67,7.289,5.893,6.59
624,0.981,34.747,38.524,47.366,29.67,7.288,5.851,6.509
625,0.981,34.868,38.5,47.356,29.666,7.288,5.932,6.549
626,1.007,35.013,38.562,47.385,29.677,7.451,5.974,6.549
627,1.027,35.12,38.609,47.395,29.684,7.615,6.137,6.671
628,1.007,34.671,38.583,47.376,29.673,7.454,5.935,6.509
629,1.017,34.839,38.574,47.385,29.673,7.452,5.933,6.549
630,1.001,34.965,38.567,47.376,29.68,7.615,5.974,6.468
631,0.994,35.043,38.645,47.347,29.666,7.495,5.893,6.345
632,1.007,34.727,38.579,47.356,29.67,7.616,5.973,6.547
633,1.01,34.887,38.496,47.395,29.677,7.617,5.974,6.549
634,1.033,35.061,38.539,47.395,29.684,7.657,6.015,6.468
635,1.011,35.082,38.535,47.347,29.663,7.617,5.893,6.426
636,1.01,34.689,38.597,47.337,29.666,7.576,5.892,6.304
637,1.023,34.829,38.614,47.356,29.677,7.698,6.014,6.425
638,1.033,34.984,38.54,47.385,29.67,7.699,5.974,6.426
639,1.024,35.024,38.547,47.347,29.673,7.78,5.974,6.304
640,1.036,34.698,38.621,47.356,29.673,7.944,5.974,6.425
641,1.03,34.829,38.563,47.356,29.673,7.864,5.974,6.385
642,1.017,34.936,38.539,47.356,29.67,7.985,5.974,6.303
643,1.023,34.966,38.539,47.327,29.663,7.946,5.852,6.221
644,1.036,34.698,38.566,47.337,29.68,8.189,5.973,6.342
645,1.04,34.839,38.621,47.346,29.68,8.232,6.096,6.425
646,1.053,34.936,38.606,47.327,29.67,8.192,5.935,6.263
647,1.066,34.841,38.598,47.346,29.68,8.273,6.014,6.343
648,1.056,34.812,38.528,47.346,29.673,8.193,5.974,6.262
649,1.066,34.927,38.613,47.318,29.659,8.151,5.893,6.18
650,1.066,35.014,38.52,47.308,29.659,8.15,5.973,6.261
651,1.082,34.516,38.547,47.327,29.673,8.232,6.015,6.302
652,1.079,34.617,38.555,47.346,29.68,8.273,6.096,6.343
653,1.083,34.742,38.578,47.308,29.673,8.233,5.935,6.181
654,1.083,34.849,38.617,47.327,29.673,8.314,5.974,6.22
655,1.073,34.735,38.579,47.318,29.673,8.315,5.974,6.22
656,1.06,34.868,38.571,47.298,29.666,8.234,5.893,6.18
657,1.069,35.013,38.508,47.308,29.673,8.314,5.933,6.22
658,1.082,35.12,38.582,47.298,29.677,8.356,6.014,6.261
659,1.092,34.623,38.61,47.336,29.68,8.559,6.096,6.302
660,1.079,34.742,38.559,47.394,29.673,8.358,5.935,6.18
661,1.086,34.878,38.574,47.309,29.666,8.356,5.892,6.179
662,1.086,34.956,38.594,47.308,29.677,8.437,5.973,6.22
663,1.083,34.65,38.621,47.269,29.673,8.397,5.933,6.139
664,1.096,34.81,38.544,47.288,29.673,8.356,5.974,6.219
665,1.109,34.936,38.551,47.308,29.673,8.356,6.015,6.22
666,1.125,35.033,38.559,47.404,29.67,8.356,5.974,6.139
667,1.109,34.564,38.527,47.29,29.67,8.315,5.974,6.098
668,1.106,34.703,38.621,47.26,29.663,8.234,5.852,6.056
669,1.115,34.849,38.493,47.298,29.68,8.314,6.013,6.178
670,1.122,34.869,38.562,47.298,29.677,8.274,5.974,6.22
671,1.125,34.678,38.602,47.279,29.666,8.274,5.893,6.058
672,1.145,34.829,38.622,47.307,29.677,8.314,6.014,6.097
673,1.145,34.936,38.54,47.279,29.673,8.274,5.974,6.097
674,1.125,34.813,38.516,47.279,29.666,8.152,5.974,6.056
675,1.119,34.687,38.535,47.24,29.663,8.15,5.811,6.015
676,1.135,34.848,38.547,47.288,29.677,8.11,6.054,6.096
677,1.138,34.975,38.594,47.279,29.673,8.191,5.975,6.178
678,1.142,34.631,38.5,47.269,29.666,8.192,5.974,6.057
679,1.145,34.742,38.527,47.279,29.677,8.151,6.055,6.137
680,1.142,34.878,38.547,47.25,29.67,8.028,6.015,6.057
681,1.148,34.966,38.586,47.25,29.673,7.987,5.934,6.097
682,1.142,34.707,38.5,47.25,29.666,7.905,6.014,6.138
683,1.142,34.887,38.546,47.269,29.68,8.107,6.056,6.138
684,1.168,35.033,38.582,47.288,29.677,8.109,6.178,6.219
685,1.155,35.111,38.61,47.241,29.67,7.947,6.017,6.017
686,1.161,34.738,38.614,47.25,29.673,7.986,6.096,6.096
687,1.165,34.878,38.579,47.25,29.677,7.864,6.138,6.056
688,1.168,35.004,38.555,47.231,29.666,7.863,6.016,5.975
689,1.175,35.082,38.547,47.23,29.67,7.985,6.096,6.055
690,1.171,34.805,38.59,47.24,29.673,7.986,6.219,6.097
691,1.191,34.993,38.532,47.278,29.684,8.068,6.261,6.138
692,1.178,35.082,38.519,47.231,29.67,7.946,6.058,5.935
693,1.191,35.15,38.539,47.24,29.666,7.945,6.178,5.974
694,1.178,35.122,38.605,47.221,29.673,7.905,6.139,6.015
695,1.158,35.236,38.598,47.211,29.67,7.863,6.098,6.015
696,1.168,35.362,38.582,47.24,29.677,7.944,6.138,6.056
697,1.162,35.411,38.414,47.259,29.677,8.026,6.219,6.056
698,1.174,35.182,38.592,47.259,29.677,8.027,6.261,6.056
699,1.158,35.275,38.625,47.212,29.666,8.027,6.139,6.015
700,1.158,35.391,38.524,47.221,29.666,7.946,6.098,5.974
701,1.155,35.46,38.574,47.221,29.673,8.108,6.178,6.137
702,1.148,35.355,38.547,47.211,29.673,8.232,6.179,6.138
703,1.155,35.488,38.617,47.211,29.666,8.233,6.139,6.098
704,1.145,35.605,38.626,47.24,29.68,8.273,6.138,6.097
705,1.155,35.471,38.583,47.202,29.67,8.193,6.138,6.016
706,1.142,35.566,38.547,47.192,29.666,8.192,6.016,5.974
707,1.155,35.682,38.527,47.182,29.663,8.314,6.137,6.055
708,1.168,35.817,38.586,47.201,29.68,8.356,6.179,6.137
709,1.188,35.608,38.539,47.24,29.68,8.641,6.342,6.219
710,1.188,35.73,38.578,47.202,29.67,8.603,6.14,6.017
711,1.191,35.895,38.555,47.211,29.673,8.684,6.219,6.015
712,1.185,35.954,38.594,47.211,29.677,8.644,6.261,6.056
713,1.171,35.83,38.598,47.182,29.666,8.644,6.099,6.015
714,1.155,35.982,38.524,47.201,29.666,8.725,6.138,6.056
715,1.161,36.127,38.476,47.201,29.677,8.929,6.26,6.097
716,1.161,36.215,38.542,47.22,29.68,9.012,6.302,6.097
717,1.142,36.12,38.527,47.173,29.677,8.891,6.14,5.975
718,1.138,36.263,38.574,47.163,29.666,8.89,6.179,5.893
719,1.145,36.399,38.578,47.268,29.677,8.971,6.22,6.095
720,1.148,36.438,38.578,47.173,29.673,8.931,6.18,5.975
721,1.139,36.352,38.574,47.182,29.673,8.931,6.261,5.974
722,1.148,36.476,38.594,47.182,29.68,8.972,6.262,6.096
723,1.145,36.592,38.504,47.182,29.666,8.972,6.221,6.016
724,1.135,36.594,38.527,47.163,29.666,8.85,6.18,5.934
725,1.135,36.632,38.511,47.143,29.659,8.767,6.098,5.892
726,1.132,36.767,38.543,47.162,29.673,8.929,6.3,6.014
727,1.129,36.883,38.605,47.191,29.68,8.85,6.262,6.056
728,1.132,36.99,38.473,47.173,29.666,8.808,6.221,5.934
729,1.122,36.809,38.585,47.191,29.677,8.848,6.22,6.014
730,1.106,36.931,38.575,47.153,29.677,8.767,6.18,5.893
731,1.112,37.0,38.582,47.143,29.666,8.726,6.057,5.851
732,1.102,36.914,38.481,47.134,29.666,8.685,6.178,5.891
733,1.112,37.038,38.55,47.172,29.68,8.847,6.179,5.973
734,1.112,37.183,38.547,47.191,29.68,8.889,6.342,6.177
735,1.089,37.261,38.555,47.153,29.67,8.646,6.221,5.895
736,1.083,37.156,38.617,47.162,29.673,8.684,6.22,6.054
737,1.079,37.251,38.54,47.153,29.673,8.684,6.302,6.015
738,1.073,37.358,38.547,47.134,29.673,8.481,6.099,5.852
739,1.05,37.445,38.559,47.134,29.666,8.601,6.178,5.932
740,1.063,37.235,38.617,47.153,29.673,8.602,6.261,5.933
741,1.053,37.396,38.489,47.191,29.684,8.643,6.343,6.136
742,1.03,37.484,38.535,47.134,29.67,8.521,6.14,5.854
743,1.027,37.561,38.558,47.172,29.673,8.561,6.219,5.932
744,1.03,37.533,38.594,47.153,29.673,8.602,6.18,5.933
745,1.017,37.658,38.614,47.115,29.67,8.48,6.057,5.852
746,1.01,37.755,38.59,47.124,29.673,8.642,6.137,5.81
747,1.017,37.833,38.438,47.191,29.677,8.684,6.26,5.972
748,1.033,37.661,38.546,47.163,29.684,8.847,6.262,6.015
749,1.014,37.745,38.609,47.124,29.673,8.686,6.18,5.852
750,1.01,37.871,38.528,47.133,29.673,8.807,6.22,5.973
751,0.991,37.901,38.535,47.124,29.67,8.848,6.261,5.974
752,0.978,37.748,38.562,47.114,29.666,8.808,6.139,5.893
753,0.977,37.89,38.578,47.133,29.673,8.848,6.179,5.973
754,0.951,38.016,38.586,47.134,29.673,8.93,6.22,5.974
755,0.945,38.305,38.547,47.143,29.67,8.85,6.22,5.893
756,0.932,37.877,38.488,47.115,29.666,8.889,6.139,5.851
757,0.925,38.006,38.492,47.085,29.659,8.809,6.098,5.81
758,0.928,38.113,38.57,47.123,29.673,8.93,6.3,5.891
759,0.941,37.376,38.485,47.105,29.68,8.931,6.262,5.973
760,0.945,37.292,38.515,47.114,29.673,8.85,6.221,5.893
761,0.945,37.444,38.578,47.143,29.673,8.93,6.383,5.973
762,0.932,37.503,38.582,47.115,29.673,8.89,6.303,5.933
763,0.918,38.377,38.528,47.085,29.666,8.768,6.221,5.852
764,0.899,38.52,38.476,47.085,29.666,8.767,6.22,5.891
765,0.899,38.684,38.488,47.143,29.677,8.848,6.302,5.933
766,0.899,38.762,38.531,47.134,29.687,8.889,6.547,6.055
767,0.882,37.948,38.582,47.095,29.667,8.768,6.264,5.853
768,0.892,38.074,38.547,47.104,29.67,8.726,6.302,5.973
769,0.889,38.181,38.527,47.114,29.673,8.685,6.302,5.974
770,0.876,38.259,38.551,47.066,29.663,8.644,6.221,5.933
771,0.879,38.202,38.594,47.095,29.677,8.603,6.302,5.933
772,0.859,38.326,38.551,47.095,29.673,8.602,6.302,5.933
773,0.859,38.49,38.469,47.124,29.687,8.684,6.465,6.014
774,0.843,38.502,38.562,47.076,29.677,8.522,6.304,5.812
775,0.846,38.233,38.535,47.085,29.677,8.52,6.343,5.85
776,0.84,38.365,38.578,47.095,29.673,8.52,6.384,5.891
777,0.833,38.443,38.59,47.076,29.666,8.439,6.263,5.851
778,0.83,38.501,38.563,47.171,29.673,8.438,6.302,5.851
779,0.817,38.377,38.516,47.096,29.677,8.479,6.465,5.891
780,0.82,38.529,38.582,47.095,29.684,8.56,6.386,5.933
781,0.803,38.579,38.539,47.085,29.667,8.48,6.303,5.892
782,0.8,38.656,38.516,47.143,29.666,8.479,6.302,5.77
783,0.794,38.379,38.527,47.067,29.673,8.601,6.425,5.972
784,0.806,38.472,38.535,47.066,29.67,8.48,6.385,5.893
785,0.807,38.607,38.578,47.085,29.673,8.56,6.385,5.851
786,0.803,38.292,38.59,47.066,29.677,8.643,6.425,5.973
787,0.826,38.289,38.547,47.085,29.677,8.562,6.426,5.893
788,0.813,38.365,38.512,47.066,29.673,8.48,6.426,5.811
789,0.8,38.452,38.546,47.047,29.659,8.479,6.426,5.81
790,0.82,38.233,38.527,47.085,29.677,8.56,6.507,5.972
791,0.82,38.346,38.511,47.066,29.68,8.602,6.63,6.015
792,0.803,38.462,38.546,47.047,29.673,8.562,6.468,5.934
793,0.787,38.578,38.547,47.094,29.68,8.602,6.589,5.852
794,0.784,38.311,38.586,47.057,29.673,8.643,6.631,5.891
795,0.777,38.433,38.528,47.056,29.666,8.644,6.468,5.851
796,0.764,38.52,38.484,47.027,29.666,8.725,6.507,5.851
797,0.777,38.636,38.538,47.075,29.666,8.807,6.63,5.891
798,0.774,38.235,38.558,47.076,29.677,8.93,6.712,6.014
799,0.774,38.346,38.555,47.028,29.673,8.89,6.591,5.812
800,0.8,38.491,38.547,47.065,29.68,9.012,6.631,5.891
801,0.79,38.54,38.551,47.066,29.673,8.972,6.55,5.973
802,0.767,38.243,38.543,47.027,29.666,9.013,6.549,5.893
803,0.757,38.365,38.601,47.046,29.673,8.972,6.549,5.933
804,0.767,38.491,38.551,47.066,29.677,9.053,6.63,5.933
805,0.77,38.559,38.477,47.085,29.687,9.095,6.59,5.933
806,0.751,38.234,38.55,47.114,29.667,8.932,6.509,5.892
807,0.767,38.374,38.484,47.038,29.666,9.012,6.467,5.811
808,0.77,38.472,38.574,47.037,29.67,9.013,6.507,5.932
809,0.767,38.453,38.508,47.056,29.673,9.013,6.508,5.892
810,0.774,38.185,38.527,47.047,29.673,9.013,6.549,5.811
811,0.784,38.316,38.578,47.027,29.673,8.972,6.508,5.85
812,0.784,38.423,38.574,47.027,29.68,8.931,6.549,5.891
813,0.787,38.213,38.528,47.027,29.673,8.931,6.346,5.77
814,0.764,38.182,38.48,47.027,29.666,8.89,6.384,5.809
815,0.774,38.336,38.542,47.027,29.68,8.971,6.507,5.85
816,0.767,38.414,38.519,47.056,29.673,9.013,6.549,5.973
817,0.757,38.079,38.547,47.047,29.673,9.013,6.427,5.893
818,0.744,38.2,38.512,47.046,29.673,9.094,6.548,5.933
819,0.744,38.336,38.546,47.027,29.68,9.095,6.468,5.852
820,0.741,38.404,38.523,47.027,29.666,8.973,6.386,5.81
821,0.741,37.983,38.578,47.027,29.673,9.094,6.385,5.81
822,0.747,38.142,38.532,47.037,29.677,9.136,6.466,5.972
823,0.725,38.278,38.465,47.094,29.68,9.339,6.548,6.015
824,0.741,38.346,38.507,47.018,29.673,9.219,6.386,5.812
825,0.757,38.002,38.515,47.027,29.673,9.259,6.466,5.81
826,0.748,38.123,38.562,47.027,29.673,9.381,6.467,5.81
827,0.757,38.22,38.547,46.998,29.666,9.382,6.386,5.85
828,0.757,38.298,38.527,47.036,29.67,9.423,6.547,5.81
829,0.757,37.915,38.547,47.046,29.677,9.586,6.549,5.891
830,0.764,38.074,38.582,47.056,29.684,9.669,6.671,5.933
831,0.764,38.171,38.504,47.027,29.67,9.589,6.55,5.811
832,0.774,38.201,38.523,47.027,29.673,9.629,6.508,5.728
833,0.774,37.885,38.523,47.018,29.673,9.629,6.589,5.85
834,0.758,37.987,38.547,47.008,29.666,9.629,6.468,5.769
835,0.748,38.123,38.578,47.037,29.677,9.67,6.548,5.891
836,0.751,38.181,38.563,47.027,29.677,9.589,6.59,5.892
837,0.757,37.894,38.492,47.046,29.68,9.832,6.712,5.933
838,0.744,38.016,38.527,47.008,29.673,9.672,6.469,5.77
839,0.744,38.113,38.547,47.017,29.673,9.711,6.589,5.85
840,0.741,37.903,38.547,46.998,29.673,9.792,6.631,5.851
841,0.731,37.767,38.461,47.036,29.666,9.712,6.59,5.769
842,0.744,37.919,38.534,47.008,29.67,9.792,6.549,5.85
843,0.744,38.016,38.519,47.017,29.677,9.915,6.59,5.891
844,0.773,37.701,38.589,47.037,29.691,10.039,6.753,6.014
845,0.761,37.784,38.582,46.989,29.674,9.999,6.551,5.812
846,0.764,37.91,38.532,47.008,29.67,10.08,6.63,5.769
847,0.761,38.007,38.515,47.017,29.673,10.121,6.672,5.891
848,0.754,37.643,38.539,46.979,29.673,10.122,6.509,5.811
849,0.757,37.745,38.586,47.007,29.673,10.325,6.589,5.81
850,0.761,37.9,38.477,47.027,29.68,10.327,6.712,5.891
851,0.78,38.026,38.542,47.027,29.68,10.368,6.672,5.851
852,0.767,37.644,38.516,46.979,29.673,10.246,6.55,5.729
853,0.77,37.793,38.543,46.96,29.666,10.164,6.549,5.768
854,0.761,37.91,38.543,46.979,29.666,10.244,6.63,5.809
855,0.774,37.997,38.508,46.988,29.673,10.164,6.59,5.769
856,0.774,37.614,38.414,46.988,29.673,10.082,6.631,5.768
857,0.764,37.764,38.506,46.988,29.68,10.203,6.672,5.85
858,0.77,37.89,38.578,46.998,29.67,10.082,6.631,5.81
859,0.757,37.901,38.5,46.979,29.663,10.04,6.631,5.769
860,0.761,37.498,38.503,46.96,29.656,9.918,6.55,5.647
861,0.761,37.677,38.511,46.998,29.67,10.039,6.712,5.849
862,0.761,37.774,38.558,46.998,29.68,10.08,6.713,5.891
863,0.767,37.814,38.547,47.008,29.673,9.999,6.632,5.811
864,0.774,37.584,38.477,46.998,29.673,10.039,6.712,5.891
865,0.784,37.697,38.413,46.998,29.677,10.04,6.632,5.851
866,0.78,37.803,38.456,46.988,29.673,10.04,6.59,5.688
867,0.777,37.651,38.554,46.979,29.673,10.08,6.59,5.768
868,0.774,37.496,38.539,46.979,29.673,10.203,6.631,5.891
869,0.767,37.657,38.547,47.027,29.687,10.285,6.753,5.973
870,0.751,37.745,38.5,46.989,29.674,10.123,6.592,5.771
871,0.774,37.526,38.578,46.979,29.677,10.122,6.549,5.768
872,0.771,37.639,38.535,46.969,29.666,10.163,6.63,5.768
873,0.767,37.736,38.473,46.969,29.666,10.122,6.509,5.728
874,0.787,37.832,38.511,46.979,29.666,10.122,6.549,5.768
875,0.777,37.364,38.527,46.988,29.677,10.163,6.63,5.809
876,0.79,37.503,38.593,46.998,29.687,10.163,6.672,5.85
877,0.777,37.6,38.563,46.96,29.674,9.96,6.509,5.688
878,0.777,37.706,38.512,46.969,29.666,9.998,6.508,5.687
879,0.777,37.449,38.5,46.969,29.67,9.958,6.549,5.768
880,0.777,37.561,38.531,46.95,29.67,9.835,6.508,5.728
881,0.771,37.706,38.539,46.969,29.67,9.834,6.508,5.768
882,0.777,37.794,38.453,46.988,29.68,9.753,6.508,5.768
883,0.78,37.392,38.499,46.96,29.677,9.712,6.508,5.809
884,0.761,37.474,38.503,46.959,29.666,9.67,6.508,5.688
885,0.77,37.59,38.507,46.94,29.663,9.629,6.305,5.605
886,0.774,37.658,38.543,46.959,29.677,9.67,6.547,5.767
887,0.78,37.429,38.535,46.94,29.67,9.711,6.508,5.809
888,0.771,37.58,38.523,46.959,29.67,9.67,6.427,5.728
889,0.787,37.716,38.535,46.959,29.677,9.711,6.548,5.85
890,0.787,37.727,38.574,46.969,29.67,9.67,6.468,5.81
891,0.803,37.372,38.426,46.95,29.67,9.589,6.426,5.647
892,0.794,37.484,38.51,46.931,29.663,9.466,6.385,5.645
893,0.81,37.638,38.539,46.959,29.673,9.627,6.466,5.727
894,0.8,37.563,38.562,46.969,29.677,9.71,6.548,5.85
895,0.79,37.303,38.547,46.959,29.67,9.508,6.468,5.688
896,0.787,37.435,38.566,46.988,29.677,9.628,6.548,5.768
897,0.78,37.532,38.379,46.979,29.677,9.548,6.468,5.809
898,0.771,37.255,38.487,46.931,29.67,9.425,6.386,5.688
899,0.767,37.329,38.562,46.921,29.67,9.505,6.425,5.768
900,0.787,37.483,38.481,46.959,29.677,9.465,6.548,5.809
901,0.793,37.609,38.523,47.007,29.684,9.668,6.63,5.85
902,0.777,37.275,38.504,46.95,29.667,9.385,6.346,5.81
903,0.784,37.406,38.601,46.94,29.663,9.301,6.343,5.688
904,0.787,37.532,38.536,46.94,29.67,9.382,6.384,5.809
905,0.774,37.591,38.574,46.93,29.673,9.261,6.385,5.769
906,0.784,37.169,38.485,46.94,29.677,9.259,6.344,5.809
907,0.78,37.309,38.472,46.969,29.68,9.219,6.466,5.85
908,0.787,37.425,38.515,46.94,29.673,9.137,6.386,5.729
909,0.793,37.465,38.504,46.93,29.666,9.014,6.303,5.768
910,0.79,37.12,38.515,46.997,29.659,8.891,6.262,5.647
911,0.803,37.27,38.504,46.96,29.677,8.89,6.384,5.767
912,0.807,37.387,38.562,46.94,29.673,8.93,6.425,5.891
913,0.794,37.417,38.566,46.921,29.673,8.768,6.385,5.729
914,0.813,37.216,38.535,46.949,29.684,8.726,6.303,5.809
915,0.8,37.338,38.5,46.95,29.673,8.644,6.302,5.81
916,0.787,37.454,38.406,46.95,29.663,8.521,6.221,5.688
917,0.787,37.456,38.471,46.911,29.666,8.439,6.302,5.727
918,0.784,37.12,38.546,46.959,29.673,8.479,6.302,5.89
919,0.78,37.28,38.488,46.969,29.68,8.479,6.384,5.933
920,0.774,37.348,38.484,46.94,29.673,8.276,6.181,5.73
921,0.78,37.416,38.523,46.94,29.673,8.274,6.261,5.768
922,0.771,37.1,38.562,46.94,29.67,8.193,6.221,5.768
923,0.78,37.203,38.52,46.921,29.67,8.11,6.139,5.768
924,0.797,37.309,38.492,46.94,29.673,8.109,6.179,5.85
925,0.813,37.051,38.429,46.94,29.68,8.15,6.179,5.81
926,0.8,37.116,38.518,46.95,29.673,8.11,6.22,5.81
927,0.803,37.203,38.504,46.921,29.67,7.987,6.098,5.688
928,0.79,37.271,38.546,46.901,29.656,7.986,5.975,5.687
929,0.79,36.85,38.484,46.94,29.677,8.068,6.177,5.809
930,0.78,36.97,38.507,46.93,29.684,8.15,6.179,5.891
931,0.784,37.077,38.578,46.94,29.673,7.988,6.139,5.689
932,0.793,37.164,38.512,46.93,29.677,8.027,6.179,5.849
933,0.8,36.849,38.468,46.94,29.673,7.946,6.098,5.769
934,0.784,36.98,38.441,46.95,29.663,7.905,6.056,5.606
935,0.774,37.077,38.483,46.911,29.666,7.945,6.056,5.767
936,0.79,37.183,38.492,46.94,29.677,7.986,6.097,5.687
937,0.803,37.021,38.589,46.94,29.687,8.149,6.138,5.89
938,0.784,37.135,38.5,46.921,29.674,8.028,6.016,5.729
939,0.777,37.27,38.488,46.93,29.673,8.231,6.015,5.727
940,0.774,37.32,38.538,46.93,29.677,8.192,6.056,5.768
941,0.777,36.764,38.555,46.911,29.673,8.151,5.934,5.687
942,0.793,36.921,38.453,46.93,29.663,8.273,6.014,5.768
943,0.787,37.048,38.499,46.94,29.673,8.396,6.015,5.768
944,0.79,37.126,38.519,46.969,29.687,8.519,6.056,5.85
945,0.784,36.714,38.488,46.921,29.67,8.317,5.934,5.648
946,0.777,36.854,38.57,46.911,29.67,8.437,5.933,5.767
947,0.787,36.941,38.559,46.921,29.673,8.357,5.974,5.768
948,0.78,37.211,38.539,46.911,29.666,8.315,5.974,5.687
949,0.79,36.715,38.523,46.911,29.673,8.274,5.974,5.809
950,0.8,36.863,38.55,46.94,29.673,8.355,5.974,5.769
951,0.82,36.97,38.488,46.959,29.68,8.437,6.015,5.768
952,0.81,36.664,38.468,46.902,29.666,8.235,5.812,5.647
953,0.807,36.709,38.511,46.911,29.666,8.151,5.769,5.605
954,0.8,36.834,38.523,46.93,29.677,8.313,5.931,5.808
955,0.774,36.941,38.527,46.911,29.673,8.234,5.852,5.728
956,0.79,36.645,38.523,46.911,29.67,8.192,5.851,5.768
957,0.774,36.795,38.453,46.93,29.673,8.354,5.891,5.85
958,0.774,36.931,38.468,46.921,29.673,8.234,5.892,5.769
959,0.761,36.99,38.538,46.911,29.666,8.111,5.811,5.647
960,0.757,36.54,38.48,46.873,29.663,8.15,5.81,5.605
961,0.774,36.727,38.472,46.939,29.677,8.191,5.891,5.767
962,0.784,36.854,38.503,46.95,29.68,8.273,6.014,5.768
963,0.797,36.922,38.519,46.911,29.67,8.193,5.812,5.768
964,0.794,36.578,38.582,46.921,29.673,8.273,5.85,5.768
965,0.793,36.737,38.5,46.911,29.673,8.111,5.891,5.728
966,0.777,36.835,38.492,46.921,29.663,8.069,5.811,5.646
967,0.79,36.874,38.519,46.901,29.666,8.069,5.81,5.727
968,0.806,36.577,38.492,46.911,29.68,8.109,5.932,5.768
969,0.8,36.728,38.558,46.949,29.684,8.15,6.014,5.891
970,0.794,36.844,38.527,46.988,29.673,8.028,5.893,5.729
971,0.8,36.884,38.476,46.921,29.67,8.068,5.851,5.727
972,0.803,36.52,38.527,46.911,29.677,8.028,5.973,5.809
973,0.79,36.631,38.539,46.892,29.666,7.987,5.852,5.728
974,0.787,36.767,38.5,46.93,29.666,8.068,5.932,5.687
975,0.784,36.989,38.46,46.921,29.677,8.069,5.974,5.809
976,0.767,36.684,38.499,46.959,29.677,8.069,5.893,5.769
977,0.761,36.757,38.468,46.911,29.663,7.987,5.851,5.647
978,0.757,36.864,38.542,46.882,29.663,7.824,5.81,5.605
979,0.77,36.577,38.465,46.92,29.677,7.944,5.932,5.767
980,0.777,36.574,38.511,46.921,29.677,7.945,5.974,5.768
981,0.774,36.708,38.507,46.921,29.673,8.026,5.852,5.687
982,0.774,36.825,38.582,46.921,29.673,7.987,5.973,5.768
983,0.777,36.538,38.473,46.921,29.673,7.986,5.933,5.687
984,0.767,36.651,38.413,46.921,29.663,7.864,5.852,5.727
985,0.761,36.767,38.495,47.026,29.666,7.944,5.851,5.646
986,0.783,36.893,38.464,46.941,29.677,7.945,5.973,5.767
987,0.79,36.549,38.538,46.94,29.68,8.067,6.055,5.891
988,0.777,36.67,38.457,46.902,29.666,7.906,5.893,5.648
989,0.79,36.825,38.491,46.92,29.666,7.863,5.973,5.645
990,0.774,36.903,38.55,46.921,29.67,7.863,5.893,5.767
991,0.767,36.52,38.52,46.911,29.673,7.863,5.892,5.687
992,0.774,36.67,38.492,46.911,29.673,7.863,5.892,5.687
993,0.777,36.825,38.499,47.007,29.673,7.904,5.973,5.809
994,0.78,36.903,38.519,46.941,29.68,7.985,5.974,5.769
995,0.761,36.501,38.511,46.902,29.666,7.783,5.852,5.647
996,0.757,36.66,38.519,46.911,29.67,7.781,5.81,5.645
997,0.757,36.786,38.531,46.911,29.673,7.822,5.891,5.727
998,0.751,36.826,38.504,46.921,29.673,7.781,5.933,5.727
999,0.754,36.711,38.476,46.911,29.666,7.822,5.852,5.727
1000,0.764,36.873,38.523,46.921,29.68,7.863,5.932,5.768
1001,0.744,36.97,38.48,46.921,29.666,7.863,5.852,5.768
1002,0.744,36.971,38.452,46.901,29.659,7.741,5.769,5.687
1003,0.728,36.492,38.468,46.911,29.67,7.781,5.85,5.727
1004,0.741,36.65,38.515,46.921,29.67,7.862,5.891,5.727
1005,0.76,36.767,38.593,46.949,29.684,7.944,5.892,5.85
1006,0.761,36.71,38.539,46.902,29.667,7.783,5.811,5.729
1007,0.764,36.767,38.437,46.92,29.673,7.781,5.769,5.727
1008,0.767,36.893,38.475,46.94,29.673,7.74,5.85,5.727
1009,0.757,36.971,38.499,46.911,29.666,7.74,5.729,5.646
1010,0.77,36.482,38.488,46.921,29.67,7.781,5.85,5.727
1011,0.767,36.592,38.492,46.911,29.677,7.822,5.891,5.85
1012,0.767,36.757,38.496,46.921,29.673,7.781,5.77,5.769
1013,0.767,36.816,38.523,46.911,29.663,7.74,5.728,5.687
1014,0.757,36.682,38.535,46.892,29.659,7.659,5.646,5.727
1015,0.751,36.863,38.539,46.92,29.666,7.82,5.849,5.768
1016,0.754,36.98,38.469,46.921,29.666,7.822,5.81,5.85
1017,0.748,37.067,38.503,46.93,29.666,7.741,5.728,5.81
1018,0.738,36.55,38.527,46.93,29.673,7.821,5.89,5.85
1019,0.731,36.67,38.527,46.911,29.673,7.781,5.729,5.851
1020,0.731,36.786,38.492,46.978,29.659,7.659,5.768,5.769
1021,0.718,36.845,38.484,46.902,29.663,7.617,5.728,5.85
1022,0.731,36.673,38.503,46.93,29.673,7.698,5.768,5.932
1023,0.731,36.834,38.546,46.94,29.684,7.821,5.85,6.014
1024,0.728,36.903,38.488,46.94,29.673,7.659,5.81,5.812
1025,0.738,36.971,38.464,46.94,29.67,7.739,5.769,5.81
1026,0.731,36.607,38.445,46.978,29.67,7.659,5.768,5.769
1027,0.741,36.69,38.476,46.912,29.663,7.617,5.687,5.728
1028,0.738,36.815,38.519,46.94,29.673,7.657,5.727,5.85
1029,0.747,36.855,38.453,46.94,29.673,7.617,5.85,5.851
1030,0.747,36.75,38.491,46.95,29.67,7.657,5.769,5.891
1031,0.747,36.854,38.511,46.902,29.666,7.495,5.809,5.77
1032,0.751,36.961,38.531,46.892,29.663,7.453,5.606,5.687
1033,0.754,36.789,38.449,46.939,29.666,7.615,5.808,5.849
1034,0.748,36.701,38.452,46.94,29.673,7.657,5.81,5.973
1035,0.738,36.854,38.437,46.93,29.677,7.536,5.728,5.852
1036,0.754,36.951,38.487,46.949,29.677,7.575,5.809,5.932
1037,0.748,36.636,38.503,46.921,29.677,7.535,5.728,5.811
1038,0.744,36.738,38.476,46.911,29.663,7.412,5.687,5.769
1039,0.741,36.864,38.472,46.901,29.666,7.452,5.687,5.809
1040,0.747,36.989,38.491,46.959,29.673,7.534,5.727,5.85
1041,0.738,36.684,38.574,46.959,29.684,7.657,5.89,5.973
1042,0.728,36.786,38.461,46.94,29.67,7.455,5.729,5.811
1043,0.721,36.931,38.523,46.959,29.67,7.452,5.727,5.81
1044,0.744,37.019,38.457,46.931,29.673,7.534,5.768,5.81
1045,0.734,36.598,38.472,46.93,29.666,7.412,5.687,5.728
1046,0.751,36.766,38.523,46.949,29.677,7.452,5.687,5.768
1047,0.744,36.873,38.511,46.94,29.684,7.534,5.809,5.85
1048,0.76,36.951,38.484,46.94,29.677,7.575,5.728,5.769
1049,0.757,36.626,38.48,46.93,29.66,7.454,5.646,5.606
1050,0.754,36.738,38.538,46.921,29.666,7.452,5.645,5.686
1051,0.761,36.864,38.457,46.94,29.673,7.574,5.686,5.849
1052,0.744,36.903,38.476,46.921,29.673,7.616,5.768,5.81
1053,0.754,36.664,38.484,46.94,29.677,7.576,5.687,5.769
1054,0.757,36.815,38.531,46.959,29.68,7.698,5.809,5.768
1055,0.751,36.922,38.547,46.95,29.673,7.577,5.728,5.768
1056,0.748,36.942,38.516,46.931,29.673,7.616,5.646,5.647
1057,0.721,36.741,38.453,46.921,29.663,7.617,5.645,5.605
1058,0.734,36.902,38.468,46.949,29.666,7.779,5.727,5.767
1059,0.728,36.999,38.558,46.94,29.673,7.7,5.809,5.85
1060,0.718,36.885,38.457,46.95,29.673,7.699,5.688,5.688
1061,0.724,36.798,38.456,46.969,29.673,7.821,5.809,5.727
1062,0.734,36.912,38.503,46.959,29.673,7.781,5.728,5.727
1063,0.721,37.0,38.523,46.921,29.663,7.781,5.646,5.646
1064,0.724,36.511,38.535,46.93,29.663,7.7,5.686,5.686
1065,0.744,36.602,38.512,46.94,29.684,7.78,5.727,5.727
1066,0.734,36.766,38.48,46.969,29.687,7.944,5.85,5.809
1067,0.741,36.825,38.425,46.95,29.667,7.823,5.729,5.688
1068,0.751,36.615,38.499,46.95,29.677,7.944,5.727,5.849
1069,0.748,36.747,38.507,46.95,29.67,7.945,5.768,5.769
1070,0.747,36.892,38.461,46.95,29.666,7.864,5.687,5.687
1071,0.751,36.951,38.495,46.95,29.659,7.944,5.687,5.727
1072,0.761,36.626,38.523,46.959,29.673,8.026,5.727,5.768
1073,0.774,36.795,38.523,46.979,29.677,8.19,5.809,5.809
1074,0.751,36.864,38.426,46.96,29.666,8.029,5.688,5.647
1075,0.744,36.951,38.44,46.959,29.666,8.068,5.687,5.645
1076,0.734,36.626,38.468,46.95,29.677,8.15,5.727,5.767
1077,0.718,36.747,38.487,46.94,29.673,8.11,5.768,5.728
1078,0.721,36.892,38.531,46.959,29.666,8.15,5.728,5.727
1079,0.724,36.951,38.492,47.084,29.673,8.232,5.809,5.768
1080,0.728,36.578,38.476,46.951,29.673,8.314,5.81,5.728
1081,0.712,36.708,38.519,46.95,29.659,8.274,5.728,5.687
1082,0.708,36.796,38.504,46.94,29.663,8.314,5.646,5.646
1083,0.718,36.845,38.41,46.969,29.666,8.477,5.808,5.727
1084,0.724,36.644,38.452,46.998,29.68,8.56,5.891,5.85
1085,0.721,36.748,38.507,46.96,29.673,8.521,5.811,5.648
1086,0.728,36.883,38.464,46.979,29.673,8.642,5.85,5.808
1087,0.721,36.74,38.487,46.979,29.677,8.684,5.851,5.728
1088,0.724,36.48,38.453,46.969,29.663,8.725,5.729,5.687
1089,0.724,36.612,38.48,46.969,29.673,8.766,5.809,5.687
1090,0.715,36.728,38.527,46.979,29.677,8.929,5.85,5.768
1091,0.744,36.652,38.511,47.007,29.687,9.012,5.973,5.768
1092,0.734,36.728,38.398,46.96,29.663,8.972,5.771,5.687
1093,0.741,36.854,38.444,46.979,29.673,9.094,5.728,5.727
1094,0.734,36.951,38.507,46.979,29.673,9.176,5.809,5.727
1095,0.728,36.501,38.515,46.96,29.663,9.137,5.769,5.687
1096,0.731,36.65,38.519,46.979,29.666,9.217,5.768,5.687
1097,0.718,36.786,38.484,46.988,29.673,9.34,5.85,5.768
1098,0.728,36.902,38.484,46.998,29.68,9.342,5.851,5.768
1099,0.718,36.501,38.492,46.979,29.666,9.342,5.729,5.606
1100,0.721,36.612,38.507,46.969,29.666,9.26,5.727,5.604
1101,0.711,36.757,38.433,46.998,29.68,9.341,5.85,5.767
1102,0.715,36.845,38.44,46.998,29.67,9.342,5.81,5.768
1103,0.718,36.519,38.487,46.988,29.666,9.342,5.81,5.687
1104,0.724,36.65,38.484,46.988,29.68,9.342,5.85,5.727
1105,0.737,36.757,38.507,46.969,29.673,9.26,5.81,5.727
1106,0.725,36.787,38.523,46.969,29.659,9.259,5.769,5.646
1107,0.721,36.423,38.402,46.988,29.663,9.381,5.768,5.645
1108,0.731,36.611,38.495,46.998,29.67,9.545,5.809,5.727
1109,0.741,36.728,38.511,47.008,29.684,9.669,6.013,5.85
1110,0.734,36.739,38.453,46.989,29.67,9.629,5.771,5.688
1111,0.741,36.49,38.437,46.988,29.67,9.751,5.85,5.646
1112,0.738,36.593,38.483,46.988,29.67,9.874,5.81,5.767
1113,0.731,36.689,38.531,46.988,29.663,9.794,5.688,5.606
1114,0.728,36.786,38.508,46.988,29.666,9.875,5.931,5.686
1115,0.734,36.538,38.496,47.017,29.673,9.916,5.892,5.727
1116,0.747,36.718,38.453,47.017,29.684,9.998,5.973,5.768
1117,0.708,36.787,38.456,46.998,29.67,9.877,5.771,5.647
1118,0.708,36.404,38.507,46.998,29.663,9.876,5.768,5.645
1119,0.711,36.467,38.484,46.998,29.673,9.876,5.891,5.727
1120,0.721,36.592,38.495,46.988,29.673,9.794,5.892,5.646
1121,0.728,36.689,38.468,46.998,29.666,9.753,5.811,5.686
1122,0.734,36.364,38.523,47.008,29.673,9.833,5.972,5.809
1123,0.725,36.495,38.508,46.989,29.673,9.753,5.852,5.769
1124,0.721,36.602,38.468,46.96,29.666,9.63,5.81,5.687
1125,0.718,36.67,38.378,46.959,29.663,9.588,5.728,5.605
1126,0.731,36.278,38.451,47.007,29.67,9.629,5.931,5.686
1127,0.731,36.399,38.433,47.017,29.677,9.629,5.892,5.849
1128,0.725,36.534,38.507,46.998,29.666,9.507,5.892,5.688
1129,0.734,36.612,38.468,47.027,29.673,9.546,5.892,5.727
1130,0.738,36.268,38.46,47.018,29.673,9.384,5.892,5.768
1131,0.725,36.408,38.515,46.989,29.666,9.301,5.811,5.647
1132,0.728,36.525,38.519,46.988,29.659,9.26,5.81,5.645
1133,0.725,36.593,38.508,47.008,29.673,9.341,5.891,5.727
1134,0.705,36.344,38.414,47.027,29.684,9.382,5.973,5.85
1135,0.708,36.466,38.467,47.008,29.677,9.261,5.852,5.688
1136,0.731,36.602,38.472,47.017,29.673,9.259,5.932,5.727
1137,0.718,36.613,38.468,46.989,29.666,9.3,5.892,5.768
1138,0.708,36.239,38.472,46.988,29.666,9.219,5.811,5.606
1139,0.702,36.389,38.464,46.998,29.67,9.218,5.85,5.808
1140,0.711,36.534,38.495,47.017,29.677,9.259,5.973,5.81
1141,0.718,36.766,38.523,47.046,29.684,9.341,6.015,5.972
1142,0.711,36.241,38.469,46.989,29.667,9.179,5.893,5.73
1143,0.711,36.379,38.374,47.027,29.673,9.259,5.851,5.809
1144,0.711,36.476,38.459,46.998,29.673,9.3,5.932,5.769
1145,0.708,36.257,38.476,47.008,29.666,9.219,5.77,5.728
1146,0.721,36.331,38.519,46.989,29.67,9.259,5.931,5.768
1147,0.75,36.486,38.5,47.017,29.673,9.341,5.852,5.768
1148,0.748,36.593,38.468,47.046,29.68,9.342,5.851,5.768
1149,0.725,36.057,38.476,47.008,29.666,9.301,5.81,5.768
1150,0.711,36.157,38.491,46.998,29.659,9.341,5.728,5.728
1151,0.731,36.311,38.472,46.998,29.673,9.464,5.931,5.85
1152,0.721,36.399,38.449,47.017,29.673,9.383,5.852,5.769
1153,0.734,36.055,38.464,47.008,29.67,9.423,5.851,5.768
1154,0.721,36.205,38.523,47.027,29.673,9.424,5.932,5.85
1155,0.724,36.35,38.531,47.027,29.673,9.424,5.892,5.81
1156,0.711,36.399,38.508,46.989,29.67,9.383,5.851,5.688
1157,0.702,36.055,38.437,46.998,29.659,9.261,5.729,5.687
1158,0.721,36.224,38.487,47.008,29.677,9.422,5.972,5.809
1159,0.708,36.341,38.503,46.998,29.666,9.302,5.933,5.85
1160,0.718,36.399,38.476,47.008,29.673,9.301,5.892,5.81
1161,0.718,36.103,38.464,47.027,29.677,9.382,5.973,5.81
1162,0.702,36.253,38.476,47.037,29.677,9.342,5.933,5.85
1163,0.682,36.36,38.476,46.998,29.666,9.179,5.852,5.729
1164,0.695,36.361,38.503,47.008,29.663,9.177,5.81,5.727
1165,0.714,36.073,38.523,47.017,29.673,9.259,5.891,5.809
1166,0.731,36.243,38.469,47.046,29.68,9.259,6.014,5.932
1167,0.734,36.331,38.476,47.027,29.666,9.097,5.852,5.73
1168,0.728,36.61,38.488,47.027,29.673,9.136,5.891,5.809
1169,0.741,36.018,38.503,47.027,29.663,9.095,5.973,5.769
1170,0.741,36.128,38.453,47.018,29.663,8.973,5.852,5.687
1171,0.741,36.244,38.456,47.027,29.666,9.013,5.891,5.809
1172,0.751,35.986,38.48,47.046,29.666,9.054,5.973,5.81
1173,0.751,36.051,38.488,47.046,29.673,9.135,6.015,5.81
1174,0.712,36.147,38.464,47.018,29.666,8.974,5.893,5.688
1175,0.711,36.244,38.405,47.046,29.666,9.013,5.851,5.727
1176,0.715,35.967,38.432,47.046,29.666,9.176,5.973,5.85
1177,0.702,36.07,38.436,47.018,29.666,9.055,5.811,5.729
1178,0.714,36.205,38.491,47.027,29.67,9.257,5.891,5.809
1179,0.728,36.321,38.48,47.152,29.67,9.341,5.892,5.85
1180,0.731,35.862,38.456,47.057,29.663,9.382,5.973,5.851
1181,0.708,35.963,38.511,47.027,29.656,9.423,5.852,5.81
1182,0.705,36.079,38.461,47.008,29.656,9.424,5.769,5.688
1183,0.705,36.195,38.421,47.037,29.663,9.749,5.972,5.809
1184,0.724,35.909,38.471,47.142,29.67,9.712,5.974,5.932
1185,0.728,36.05,38.441,47.028,29.67,9.792,5.933,5.77
1186,0.738,36.185,38.476,47.056,29.673,9.956,5.974,5.85
1187,0.738,36.225,38.515,47.037,29.663,9.917,5.933,5.891
1188,0.715,35.775,38.429,47.018,29.666,9.916,5.77,5.77
1189,0.711,35.885,38.429,47.037,29.656,9.957,5.85,5.809
1190,0.728,36.059,38.526,47.037,29.666,10.12,5.973,5.85
1191,0.751,36.099,38.476,47.056,29.68,10.081,6.055,6.013
1192,0.731,35.869,38.429,47.047,29.67,10.04,5.893,5.771
1193,0.734,36.03,38.464,47.046,29.677,10.121,5.892,5.931
1194,0.715,36.137,38.472,47.037,29.663,10.0,5.933,5.852
1195,0.689,36.138,38.503,47.037,29.659,9.958,5.892,5.729
1196,0.695,35.812,38.511,47.027,29.659,9.917,5.973,5.85
1197,0.711,35.953,38.476,47.046,29.673,9.957,5.974,5.973
1198,0.718,36.127,38.445,47.085,29.687,10.08,6.055,6.015
1199,0.705,35.956,38.464,47.028,29.663,9.796,5.934,5.893
1200,0.711,36.002,38.464,47.046,29.67,9.834,5.933,5.892
1201,0.705,36.118,38.39,47.075,29.666,9.834,5.974,5.892
1202,0.705,36.205,38.448,47.047,29.666,9.794,5.933,5.933
1203,0.721,35.765,38.472,47.046,29.666,9.875,5.974,5.892
1204,0.734,35.914,38.495,47.056,29.677,9.835,6.015,5.851
1205,0.747,36.04,38.515,47.066,29.673,9.794,5.974,5.851
1206,0.747,36.099,38.484,47.066,29.673,9.753,5.852,5.769
1207,0.764,35.706,38.441,47.037,29.659,9.793,5.891,5.728
1208,0.767,35.866,38.483,47.066,29.673,9.996,6.014,5.89
1209,0.78,36.011,38.484,47.066,29.673,10.283,6.056,6.054
1210,0.793,36.08,38.421,47.066,29.673,10.367,6.015,5.893
1211,0.787,35.706,38.487,47.066,29.68,10.49,6.056,5.973
1212,0.777,35.837,38.488,47.066,29.67,10.654,6.015,5.893
1213,0.79,35.944,38.531,47.037,29.666,10.574,5.974,5.851
1214,0.784,36.012,38.453,47.046,29.663,10.736,5.974,5.891
1215,0.806,35.821,38.433,47.075,29.673,10.9,6.055,5.973
1216,0.813,35.982,38.382,47.095,29.677,11.146,6.178,6.096
1217,0.8,36.079,38.444,47.066,29.67,11.026,5.895,5.935
1218,0.807,36.128,38.46,47.066,29.666,11.229,6.014,5.852
1219,0.82,35.784,38.444,47.066,29.67,11.312,6.096,5.891
1220,0.817,35.924,38.448,47.047,29.663,11.232,5.975,5.851
1221,0.82,36.04,38.472,47.085,29.677,11.312,6.055,5.932
1222,0.823,36.089,38.546,47.066,29.673,11.313,6.015,5.974
1223,0.817,35.754,38.449,47.085,29.673,11.272,6.015,5.974
1224,0.82,35.856,38.405,47.056,29.663,11.231,5.974,5.811
1225,0.81,35.973,38.417,47.037,29.656,11.271,5.852,5.81
1226,0.816,35.839,38.44,47.066,29.67,11.353,6.013,5.972
1227,0.823,35.8,38.46,47.085,29.677,11.476,6.096,5.974
1228,0.826,35.914,38.46,47.066,29.666,11.396,6.016,5.933
1229,0.83,36.05,38.456,47.085,29.677,11.517,6.096,5.892
1230,0.839,35.648,38.437,47.076,29.673,11.437,6.016,5.933
1231,0.852,35.731,38.499,47.066,29.659,11.395,5.934,5.852
1232,0.853,35.856,38.468,47.056,29.666,11.476,5.974,5.851
1233,0.862,35.973,38.359,47.104,29.673,11.477,6.015,5.973
1234,0.866,35.571,38.482,47.124,29.684,11.68,6.137,6.015
1235,0.853,35.692,38.488,47.076,29.667,11.479,5.976,5.812
1236,0.869,35.817,38.511,47.104,29.666,11.558,5.974,5.891
1237,0.859,35.895,38.5,47.066,29.677,11.519,6.015,5.892
1238,0.885,35.637,38.468,47.152,29.666,11.437,5.934,5.77
1239,0.902,35.817,38.421,47.067,29.673,11.477,6.014,5.809
1240,0.908,35.934,38.499,47.085,29.673,11.558,6.015,5.932
1241,0.908,36.021,38.453,47.123,29.68,11.478,6.015,5.933
1242,0.886,35.706,38.44,47.076,29.67,11.355,5.893,5.852
1243,0.885,35.856,38.394,47.085,29.663,11.273,5.892,5.81
1244,0.898,35.973,38.475,47.076,29.677,11.272,5.973,5.81
1245,0.882,36.012,38.507,47.076,29.666,11.15,5.852,5.81
1246,0.898,35.686,38.511,47.066,29.666,11.067,5.973,5.85
1247,0.899,35.837,38.402,47.123,29.673,11.026,5.974,5.891
1248,0.905,35.944,38.44,47.095,29.673,10.863,5.974,5.892
1249,0.882,35.945,38.503,47.066,29.656,10.82,5.811,5.77
1250,0.879,35.705,38.398,47.066,29.659,10.617,5.769,5.809
1251,0.892,35.875,38.463,47.095,29.677,10.574,5.891,5.891
1252,0.899,35.992,38.456,47.095,29.673,10.655,5.892,5.973
1253,0.902,35.782,38.468,47.085,29.67,10.412,5.973,5.852
1254,0.892,35.636,38.511,47.114,29.677,10.369,5.974,5.891
1255,0.879,35.779,38.453,47.095,29.673,10.287,5.933,5.892
1256,0.882,35.857,38.437,47.076,29.666,10.083,5.933,5.811
1257,0.866,35.589,38.386,47.076,29.673,9.999,5.892,5.81
1258,0.869,35.711,38.479,47.085,29.673,9.958,5.973,5.972
1259,0.872,35.866,38.499,47.114,29.684,10.039,6.055,6.055
1260,0.84,35.934,38.449,47.095,29.67,9.715,5.975,5.893
1261,0.82,35.551,38.468,47.085,29.673,9.752,5.933,5.933
1262,0.81,35.682,38.468,47.085,29.673,9.63,6.055,5.974
1263,0.803,35.779,38.507,47.085,29.659,9.588,5.893,5.933
1264,0.794,35.876,38.441,47.095,29.673,9.629,5.973,6.014
1265,0.81,35.512,38.409,47.104,29.67,9.751,6.015,6.056
1266,0.81,35.681,38.463,47.133,29.684,9.915,6.096,6.056
1267,0.79,35.76,38.448,47.076,29.667,9.957,5.975,6.056
1268,0.79,35.837,38.507,47.085,29.663,10.12,5.974,6.015
1269,0.806,35.464,38.422,47.152,29.673,10.447,6.015,6.096
1270,0.794,35.585,38.44,47.086,29.663,10.572,6.015,5.975
1271,0.777,35.74,38.495,47.085,29.673,10.858,6.056,6.055
1272,0.784,35.799,38.464,47.095,29.673,11.105,6.097,6.056
1273,0.793,35.617,38.417,47.104,29.67,11.189,6.016,6.015
1274,0.761,35.74,38.413,47.105,29.666,11.271,5.893,6.015
1275,0.761,35.837,38.424,47.066,29.656,11.272,5.892,5.893
1276,0.77,35.905,38.44,47.104,29.67,11.516,6.014,6.136
1277,0.754,35.503,38.479,47.085,29.673,11.518,6.056,6.138
1278,0.751,35.662,38.402,47.095,29.673,11.437,5.975,6.057
1279,0.757,35.817,38.424,47.104,29.673,11.558,6.015,6.137
1280,0.761,35.704,38.483,47.105,29.673,11.478,5.934,6.138
1281,0.738,35.492,38.453,47.085,29.663,11.355,5.933,6.057
1282,0.725,35.643,38.398,47.104,29.67,11.313,6.014,6.137
1283,0.734,35.788,38.42,47.124,29.673,11.232,5.974,6.219
1284,0.738,35.473,38.471,47.143,29.68,11.353,6.055,6.302
1285,0.725,35.508,38.488,47.105,29.66,11.069,5.893,6.14
1286,0.708,35.653,38.507,47.095,29.666,10.944,5.973,6.138
1287,0.708,35.76,38.468,47.104,29.666,10.902,5.974,6.219
1288,0.698,35.425,38.429,47.105,29.666,10.739,5.933,6.139
1289,0.708,35.575,38.464,47.105,29.666,10.738,5.933,6.179
1290,0.702,35.711,38.46,47.105,29.673,10.738,6.014,6.22
1291,0.708,35.818,38.433,47.124,29.67,10.738,5.974,6.18
1292,0.692,35.406,38.436,47.086,29.666,10.697,5.933,6.057
1293,0.688,35.517,38.468,47.076,29.663,10.656,5.892,6.056
1294,0.695,35.653,38.499,47.114,29.673,10.859,5.973,6.178
1295,0.685,35.76,38.476,47.133,29.677,10.942,6.015,6.22
1296,0.682,35.463,38.441,47.095,29.666,10.902,5.893,6.139
1297,0.675,35.633,38.448,47.124,29.677,10.943,6.014,6.219
1298,0.675,35.75,38.448,47.124,29.677,10.984,5.974,6.18
1299,0.672,35.78,38.476,47.105,29.663,10.903,5.933,6.098
1300,0.672,35.521,38.402,47.105,29.666,10.943,5.933,6.138
1301,0.688,35.701,38.459,47.124,29.68,11.065,6.014,6.26
1302,0.701,35.837,38.476,47.162,29.684,11.107,6.015,6.302
1303,0.675,35.838,38.499,47.115,29.667,11.026,5.934,6.14
1304,0.682,35.435,38.414,47.124,29.666,11.025,5.852,6.098
1305,0.679,35.566,38.405,47.124,29.666,11.066,5.932,6.138
1306,0.682,35.682,38.432,47.172,29.67,10.944,5.852,6.138
1307,0.701,35.75,38.432,47.144,29.673,10.984,5.891,6.179
1308,0.708,35.521,38.503,47.143,29.673,11.066,5.973,6.261
1309,0.708,35.662,38.359,47.172,29.68,10.985,5.974,6.221
1310,0.698,35.76,38.428,47.144,29.663,10.903,5.893,6.098
1311,0.701,35.377,38.464,47.086,29.663,10.78,5.77,5.975
1312,0.705,35.431,38.468,47.114,29.673,10.82,5.972,6.137
1313,0.702,35.556,38.421,47.105,29.677,10.779,5.893,6.138
1314,0.698,35.672,38.386,47.181,29.666,10.698,5.892,6.098
1315,0.701,35.424,38.479,47.153,29.67,10.656,6.054,6.178
1316,0.711,35.565,38.445,47.143,29.666,10.493,5.975,6.139
1317,0.708,35.672,38.448,47.124,29.659,10.451,5.893,6.098
1318,0.702,35.76,38.398,47.105,29.663,10.328,5.851,6.056
1319,0.701,35.377,38.42,47.152,29.677,10.368,6.054,6.178
1320,0.714,35.527,38.46,47.182,29.68,10.409,6.137,6.261
1321,0.689,35.624,38.46,47.144,29.663,10.206,5.976,6.139
1322,0.698,35.73,38.405,47.153,29.673,10.163,6.015,6.057
1323,0.705,35.415,38.409,47.153,29.673,10.163,6.015,6.178
1324,0.708,35.546,38.475,47.134,29.656,10.0,5.974,5.976
1325,0.711,35.653,38.48,47.124,29.666,10.039,5.974,6.015
1326,0.718,35.721,38.507,47.143,29.67,9.918,5.974,6.137
1327,0.731,35.444,38.445,47.172,29.68,10.039,6.096,6.219
1328,0.731,35.546,38.437,47.134,29.663,9.796,5.975,6.058
1329,0.734,35.672,38.436,47.153,29.67,9.875,5.893,6.015
1330,0.725,35.702,38.452,47.143,29.67,9.835,5.973,6.137
1331,0.689,35.463,38.394,47.124,29.659,9.794,5.933,6.016
1332,0.708,35.614,38.405,47.143,29.663,9.956,5.974,5.974
1333,0.718,35.74,38.483,47.153,29.677,9.998,5.974,6.055
1334,0.721,35.943,38.499,47.172,29.673,10.08,6.015,6.015
1335,0.711,35.427,38.507,47.144,29.67,10.081,5.934,5.974
1336,0.708,35.556,38.437,47.115,29.666,10.04,5.892,5.933
1337,0.708,35.691,38.44,47.22,29.673,10.202,6.095,6.014
1338,0.711,35.376,38.44,47.154,29.666,10.123,6.056,6.056
1339,0.715,35.45,38.472,47.134,29.673,10.081,5.975,6.015
1340,0.724,35.585,38.406,47.162,29.673,10.203,6.055,6.056
1341,0.715,35.673,38.424,47.143,29.67,10.163,6.137,6.015
1342,0.705,35.299,38.436,47.134,29.666,10.163,6.016,5.934
1343,0.705,35.401,38.468,47.124,29.652,10.122,6.015,5.892
1344,0.728,35.546,38.456,47.153,29.673,10.203,6.056,6.054
1345,0.738,35.634,38.425,47.182,29.68,10.326,6.178,6.137
1346,0.731,35.357,38.378,47.153,29.666,10.246,6.139,5.976
1347,0.725,35.517,38.436,47.143,29.666,10.286,6.098,5.974
1348,0.711,35.605,38.46,47.153,29.67,10.245,6.178,5.974
1349,0.708,35.673,38.413,47.162,29.663,10.164,6.098,5.893
1350,0.708,35.261,38.428,47.143,29.67,10.204,6.138,5.892
1351,0.734,35.41,38.452,47.162,29.673,10.285,6.219,5.973
1352,0.738,35.546,38.499,47.163,29.684,10.327,6.22,5.974
1353,0.738,35.567,38.429,47.143,29.67,10.165,6.139,5.893
1354,0.731,35.231,38.347,47.143,29.666,10.082,6.057,5.811
1355,0.731,35.391,38.373,47.249,29.677,10.162,6.219,5.972
1356,0.721,35.498,38.44,47.173,29.67,10.122,6.18,5.933
1357,0.715,35.537,38.476,47.153,29.67,10.0,6.179,5.892
1358,0.711,35.346,38.456,47.162,29.666,10.08,6.261,5.973
1359,0.718,35.488,38.441,47.153,29.673,9.918,6.139,5.933
1360,0.702,35.585,38.44,47.134,29.666,9.794,6.057,5.852
1361,0.679,35.884,38.476,47.134,29.659,9.712,6.015,5.81
1362,0.685,35.292,38.429,47.153,29.67,9.833,6.178,5.972
1363,0.688,35.43,38.429,47.201,29.666,9.834,6.301,6.015
1364,0.698,35.527,38.401,47.144,29.666,9.672,6.099,5.893
1365,0.731,35.288,38.459,47.153,29.673,9.629,6.178,5.933
1366,0.773,35.296,38.429,47.162,29.67,9.548,6.139,5.974
1367,0.806,35.43,38.46,47.124,29.663,9.344,6.016,5.852
1368,0.839,35.527,38.421,47.162,29.673,9.342,6.056,5.932
1369,0.859,35.145,38.444,47.172,29.67,9.342,6.097,5.974
1370,0.898,35.285,38.507,47.191,29.677,9.382,6.178,6.055
1371,0.925,35.372,38.386,47.153,29.666,9.22,6.057,5.812
1372,0.944,35.479,38.44,47.153,29.67,9.178,6.015,5.769
1373,0.997,35.182,38.433,47.162,29.666,9.259,6.096,5.85
1374,1.036,35.314,38.479,47.143,29.666,9.097,6.016,5.851
1375,1.069,35.43,38.452,47.153,29.67,9.095,6.056,5.851
1376,1.112,35.537,38.483,47.182,29.673,9.136,6.097,5.932
1377,1.125,35.097,38.289,47.163,29.677,9.055,6.138,5.933
1378,1.148,35.236,38.396,47.143,29.666,8.973,6.016,5.77
1379,1.187,35.353,38.467,47.143,29.663,8.891,5.893,5.768
1380,1.23,35.431,38.417,47.162,29.67,8.93,6.054,5.891
1381,1.256,35.211,38.421,47.163,29.67,8.89,6.015,5.973
1382,1.332,35.352,38.432,47.182,29.666,8.849,5.974,5.933
1383,1.404,35.478,38.495,47.163,29.684,8.849,6.096,5.974
1384,1.492,35.528,38.453,47.163,29.67,8.767,6.097,5.933
1385,1.542,35.106,38.444,47.143,29.663,8.645,5.935,5.852
1386,1.562,35.236,38.374,47.134,29.656,8.521,5.892,5.769
1387,1.621,35.391,38.42,47.153,29.673,8.642,6.014,5.972
1388,1.631,35.412,38.467,47.153,29.67,8.644,6.056,6.055
1389,1.667,35.201,38.425,47.143,29.666,8.521,6.015,5.934
1390,1.713,35.343,38.432,47.182,29.673,8.561,6.056,6.055
1391,1.749,35.478,38.444,47.144,29.677,8.48,6.015,6.015
1392,1.789,35.221,38.452,47.134,29.666,8.398,5.934,5.893
1393,1.851,35.218,38.413,47.124,29.666,8.356,6.014,5.973
1394,1.877,35.391,38.389,47.162,29.673,8.437,6.137,6.096
1395,1.891,35.536,38.416,47.22,29.677,8.397,6.179,6.219
1396,1.884,34.982,38.425,47.144,29.666,8.194,6.017,5.936
1397,1.871,35.139,38.444,47.143,29.67,8.273,6.056,5.974
1398,1.865,35.246,38.456,47.143,29.666,8.233,6.015,6.055
1399,1.829,35.343,38.433,47.153,29.67,8.111,6.015,6.097
1400,1.802,35.133,38.432,47.153,29.67,8.15,6.015,6.138
1401,1.747,35.304,38.499,47.182,29.677,8.15,6.178,6.301
1402,1.681,35.401,38.414,47.163,29.677,8.069,6.098,6.343
1403,1.554,35.469,38.366,47.153,29.666,7.946,6.016,6.343
1404,1.416,35.019,38.416,47.143,29.659,7.783,5.974,6.425
1405,1.32,35.197,38.448,47.143,29.67,7.862,6.015,6.67
1406,1.183,35.314,38.464,47.162,29.677,7.985,6.137,6.835
1407,1.019,35.382,38.456,47.143,29.663,7.783,6.016,6.958
1408,0.893,35.153,38.472,47.182,29.673,7.862,6.096,7.122
1409,0.801,35.313,38.425,47.153,29.666,7.782,6.178,7.287
1410,0.66,35.392,38.46,47.134,29.663,7.7,5.976,7.329
1411,0.574,35.431,38.398,47.124,29.663,7.699,6.015,7.492
1412,0.518,35.077,38.432,47.162,29.673,7.78,6.056,7.697
1413,0.439,35.246,38.409,47.172,29.677,7.944,6.178,7.902
1414,0.338,35.324,38.491,47.144,29.666,7.783,6.017,7.945
1415,0.246,35.392,38.468,47.172,29.673,7.862,6.056,8.067
1416,0.157,35.182,38.472,47.153,29.666,7.944,6.056,8.191
1417,0.094,35.314,38.327,47.143,29.666,7.783,5.975,8.232
1418,0.022,35.449,38.396,47.153,29.666,7.903,6.015,8.355
1419,0.018,35.211,38.452,47.172,29.677,8.026,6.056,8.519
1420,0.012,35.17,38.386,47.191,29.68,8.109,6.178,8.601
1421,0.012,35.266,38.428,47.173,29.666,7.987,6.017,8.602
1422,0.041,35.372,38.409,47.172,29.659,7.946,5.974,8.521
1423,0.054,35.047,38.46,47.163,29.673,8.067,6.137,8.683
1424,0.077,35.14,38.472,47.172,29.673,8.069,5.976,8.766
1425,0.087,35.294,38.425,47.163,29.666,7.987,5.974,8.807
1426,0.123,35.392,38.405,47.182,29.673,8.149,6.055,8.97
1427,0.162,34.99,38.44,47.172,29.67,8.15,6.015,9.053
1428,0.195,35.13,38.456,47.153,29.659,8.11,5.934,9.095
1429,0.205,35.237,38.401,47.153,29.656,8.069,5.974,9.176
1430,0.244,35.372,38.42,47.201,29.673,8.231,6.096,9.34
1431,0.313,35.038,38.456,47.192,29.677,8.355,6.097,9.586
1432,0.376,35.178,38.483,47.163,29.666,8.315,5.975,9.588
1433,0.432,35.314,38.445,47.182,29.673,8.315,6.015,9.832
1434,0.471,35.392,38.382,47.182,29.673,8.315,6.015,10.078
1435,0.511,34.99,38.397,47.182,29.666,8.274,5.974,10.203
1436,0.55,35.158,38.428,47.172,29.67,8.436,6.015,10.448
1437,0.586,35.304,38.468,47.191,29.68,8.519,6.056,10.694
1438,0.635,35.382,38.468,47.211,29.684,8.642,6.178,10.941
1439,0.659,35.105,38.433,47.163,29.673,8.481,5.976,10.862
1440,0.701,35.255,38.436,47.182,29.673,8.52,5.974,10.983
1441,0.727,35.391,38.507,47.201,29.673,8.479,6.055,11.106
1442,0.744,35.383,38.429,47.173,29.663,8.438,5.893,11.148
1443,0.757,35.124,38.374,47.201,29.673,8.479,5.973,11.149
1444,0.77,35.275,38.397,47.22,29.677,8.479,6.096,11.23
1445,0.803,35.411,38.405,47.221,29.677,8.601,6.016,11.231
1446,0.8,35.22,38.389,47.192,29.67,8.48,5.974,11.109
1447,0.81,35.113,38.436,47.182,29.663,8.398,5.893,10.985
1448,0.82,35.275,38.343,47.211,29.666,8.478,6.054,11.147
1449,0.83,35.372,38.435,47.201,29.663,8.52,6.056,11.067
1450,0.836,35.057,38.475,47.201,29.673,8.52,6.015,10.904
1451,0.836,35.159,38.417,47.22,29.673,8.479,5.974,10.902
1452,0.839,35.313,38.44,47.221,29.666,8.398,6.015,10.739
1453,0.823,35.373,38.401,47.221,29.666,8.397,5.934,10.616
1454,0.81,34.961,38.448,47.202,29.656,8.316,5.974,10.615
1455,0.823,35.158,38.456,47.22,29.666,8.315,6.055,10.655
1456,0.83,35.294,38.476,47.249,29.684,8.396,6.137,10.656
1457,0.833,35.353,38.398,47.221,29.673,8.275,5.976,10.493
1458,0.846,34.97,38.393,47.24,29.673,8.274,6.096,10.451
1459,0.836,35.12,38.471,47.221,29.663,8.193,6.056,10.41
1460,0.836,35.208,38.413,47.23,29.663,8.07,5.893,10.287
1461,0.843,35.314,38.413,47.221,29.666,8.15,5.973,10.286
1462,0.846,35.047,38.44,47.249,29.673,8.191,5.974,10.286
1463,0.859,35.216,38.491,47.279,29.677,8.232,6.096,10.286
1464,0.856,35.305,38.464,47.25,29.656,8.07,5.894,10.083
1465,0.856,35.353,38.448,47.25,29.663,8.069,5.973,10.081
1466,0.853,34.942,38.366,47.25,29.67,7.946,6.015,10.04
1467,0.859,35.081,38.389,47.231,29.659,7.945,5.893,9.836
1468,0.856,35.198,38.467,47.259,29.666,7.945,5.892,9.834
1469,0.853,35.247,38.417,47.269,29.67,7.905,5.973,9.834
1470,0.866,35.046,38.444,47.279,29.673,7.945,5.974,9.712
1471,0.869,35.13,38.425,47.26,29.666,7.742,5.811,9.589
1472,0.882,35.198,38.471,47.231,29.663,7.699,5.81,9.425
1473,0.892,35.151,38.441,47.259,29.673,7.78,5.972,9.546
1474,0.866,34.968,38.374,47.24,29.67,7.7,5.893,9.425
1475,0.869,35.12,38.358,47.259,29.666,7.74,5.811,9.302
1476,0.863,35.246,38.408,47.269,29.677,7.618,5.972,9.301
1477,0.856,34.988,38.46,47.26,29.663,7.617,5.893,9.219
1478,0.869,35.053,38.468,47.259,29.666,7.495,5.811,9.056
1479,0.853,35.188,38.433,47.231,29.659,7.412,5.769,8.932
1480,0.872,35.314,38.401,47.278,29.666,7.574,5.891,9.012
1481,0.882,34.903,38.487,47.279,29.677,7.575,5.973,9.013
1482,0.863,35.033,38.441,47.25,29.67,7.454,5.852,8.85
1483,0.872,35.168,38.382,47.298,29.673,7.493,5.891,8.808
1484,0.879,35.237,38.397,47.269,29.67,7.371,5.851,8.726
1485,0.869,34.835,38.405,47.231,29.659,7.289,5.769,8.522
1486,0.876,34.984,38.424,47.25,29.666,7.288,5.85,8.52
1487,0.898,35.12,38.479,47.279,29.673,7.369,5.851,8.601
1488,0.899,35.208,38.394,47.298,29.68,7.533,5.932,8.643
1489,0.886,34.873,38.381,47.279,29.666,7.291,5.811,8.359
1490,0.889,35.023,38.451,47.269,29.673,7.369,5.81,8.315
1491,0.892,35.13,38.421,47.269,29.666,7.37,5.891,8.315
1492,0.886,35.169,38.389,47.26,29.663,7.289,5.77,8.193
1493,0.898,34.825,38.397,47.259,29.67,7.288,5.809,8.232
1494,0.892,34.975,38.444,47.269,29.673,7.41,5.81,8.192
1495,0.899,35.139,38.511,47.298,29.677,7.411,5.85,8.192
1496,0.895,35.112,38.445,47.269,29.663,7.249,5.81,8.029
1497,0.902,34.949,38.343,47.26,29.659,7.288,5.688,7.946
1498,0.908,35.1,38.389,47.269,29.666,7.369,5.89,7.945
1499,0.895,35.188,38.448,47.25,29.666,7.289,5.77,7.864
1500,0.908,35.17,38.409,47.259,29.67,7.369,5.809,7.822
1501,0.905,34.901,38.405,47.288,29.673,7.411,5.891,7.944
1502,0.905,35.023,38.393,47.269,29.673,7.411,5.851,7.783
1503,0.905,35.111,38.459,47.269,29.659,7.411,5.81,7.7
1504,0.895,34.795,38.46,47.231,29.663,7.452,5.769,7.699
1505,0.908,34.907,38.409,47.259,29.666,7.534,5.891,7.658
1506,0.908,35.052,38.382,47.279,29.68,7.616,6.014,7.78
1507,0.912,35.159,38.409,47.26,29.67,7.454,5.852,7.618
1508,0.915,34.681,38.452,47.259,29.673,7.615,5.973,7.617
1509,0.918,34.8,38.44,47.259,29.666,7.454,5.974,7.535
1510,0.918,34.917,38.417,47.25,29.659,7.412,5.852,7.412
1511,0.931,35.014,38.425,47.24,29.673,7.411,5.891,7.452
1512,0.941,34.727,38.421,47.259,29.673,7.533,6.014,7.452
1513,0.951,34.897,38.46,47.288,29.691,7.616,6.015,7.452
1514,0.932,34.985,38.343,47.25,29.667,7.495,5.893,7.29
1515,0.935,35.091,38.396,47.259,29.673,7.453,5.851,7.329
1516,0.941,34.766,38.44,47.259,29.673,7.534,5.973,7.37
1517,0.941,34.878,38.425,47.221,29.663,7.453,5.893,7.208
1518,0.938,35.004,38.452,47.24,29.666,7.574,5.892,7.247
1519,0.938,35.101,38.378,47.25,29.677,7.657,6.014,7.247
1520,0.945,34.824,38.444,47.259,29.684,7.658,6.015,7.206
1521,0.945,34.936,38.437,47.24,29.663,7.617,5.893,7.165
1522,0.938,35.033,38.366,47.25,29.656,7.698,5.933,7.124
1523,0.941,35.101,38.326,47.279,29.673,7.74,5.974,7.205
1524,0.945,34.757,38.385,47.24,29.663,7.699,5.933,7.003
1525,0.951,34.897,38.412,47.221,29.666,7.902,5.974,7.041
1526,0.964,35.033,38.424,47.249,29.673,7.945,6.096,7.082
1527,0.974,35.159,38.499,47.24,29.666,7.945,6.016,7.042
1528,0.955,34.7,38.402,47.221,29.666,7.986,6.015,6.96
1529,0.958,34.849,38.42,47.211,29.659,7.946,5.893,6.797
1530,0.974,34.956,38.428,47.24,29.673,8.148,6.136,7.08
1531,0.987,34.266,38.39,47.24,29.67,8.191,6.057,7.002
1532,1.0,34.183,38.389,47.221,29.673,8.11,6.056,6.879
1533,1.017,34.345,38.432,47.23,29.673,8.191,6.097,6.918
1534,0.981,34.452,38.444,47.24,29.673,8.192,6.016,6.837
1535,0.958,34.961,38.437,47.192,29.659,8.151,6.015,6.837
1536,0.958,35.091,38.44,47.201,29.656,8.028,6.015,6.796
1537,0.971,35.255,38.343,47.22,29.677,8.149,6.137,6.877
1538,0.974,35.353,38.385,47.249,29.684,8.191,6.219,6.959
1539,0.968,34.529,38.424,47.202,29.67,8.07,6.098,6.756
1540,0.984,34.684,38.397,47.22,29.67,8.069,6.219,6.754
1541,0.978,34.801,38.374,47.211,29.67,8.069,6.18,6.754
1542,0.974,34.869,38.428,47.211,29.659,7.906,6.098,6.592
1543,0.981,35.042,38.471,47.211,29.659,7.985,6.138,6.712
1544,1.004,35.197,38.468,47.23,29.67,8.027,6.219,6.754
1545,1.014,35.324,38.437,47.24,29.68,8.027,6.302,6.714
1546,1.004,35.344,38.354,47.202,29.67,7.783,6.18,6.672
1547,1.017,34.481,38.377,47.211,29.663,7.822,6.179,6.631
1548,1.02,34.616,38.409,47.211,29.677,7.822,6.179,6.712
1549,1.004,34.694,38.397,47.192,29.666,7.659,6.057,6.672
1550,1.004,34.772,38.393,47.211,29.666,7.739,6.178,6.591
1551,1.027,34.629,38.44,47.201,29.673,7.699,6.139,6.59
1552,1.043,34.781,38.503,47.23,29.673,7.699,6.098,6.549
1553,1.04,34.859,38.433,47.182,29.663,7.577,6.097,6.508
1554,1.024,35.09,38.405,47.172,29.656,7.454,6.056,6.467
1555,1.007,34.622,38.413,47.22,29.666,7.493,6.219,6.629
1556,1.01,34.733,38.421,47.182,29.666,7.494,6.22,6.59
1557,1.017,34.878,38.428,47.182,29.673,7.453,6.139,6.509
1558,1.023,34.678,38.452,47.192,29.666,7.412,6.179,6.549
1559,1.027,34.724,38.401,47.192,29.663,7.411,6.139,6.468
1560,1.03,34.849,38.381,47.163,29.666,7.33,6.098,6.467
1561,1.024,34.936,38.455,47.153,29.656,7.248,6.056,6.467
1562,1.04,34.448,38.413,47.172,29.666,7.369,6.178,6.548
1563,1.05,34.587,38.296,47.22,29.68,7.37,6.301,6.63
1564,1.043,34.704,38.373,47.182,29.666,7.248,6.099,6.428
1565,1.056,34.81,38.448,47.192,29.666,7.288,6.097,6.466
1566,1.063,34.62,38.413,47.153,29.673,7.207,6.097,6.507
1567,1.063,34.762,38.452,47.143,29.663,7.084,6.097,6.386
1568,1.05,34.888,38.386,47.153,29.666,7.123,6.097,6.466
1569,1.073,34.994,38.42,47.143,29.673,7.165,6.219,6.467
1570,1.079,34.497,38.456,47.162,29.68,7.165,6.22,6.507
1571,1.073,34.616,38.394,47.115,29.663,7.002,6.058,6.305
1572,1.089,34.733,38.42,47.143,29.673,7.041,6.097,6.343
1573,1.092,34.82,38.386,47.124,29.673,7.042,6.097,6.384
1574,1.086,34.581,38.432,47.105,29.663,6.96,6.016,6.303
1575,1.089,34.732,38.448,47.114,29.67,7.0,6.137,6.343
1576,1.105,34.868,38.483,47.114,29.673,7.041,6.138,6.425
1577,1.115,34.946,38.41,47.124,29.673,7.042,6.138,6.344
1578,1.096,34.583,38.421,47.095,29.659,6.92,6.016,6.262
1579,1.096,34.704,38.413,47.085,29.659,6.837,5.934,6.18
1580,1.089,34.868,38.421,47.104,29.673,6.918,6.055,6.342
1581,1.089,34.879,38.421,47.095,29.673,6.959,6.015,6.343
1582,1.092,34.659,38.405,47.095,29.666,6.838,6.015,6.303
1583,1.112,34.8,38.452,47.095,29.68,6.999,6.096,6.384
1584,1.115,34.917,38.456,47.104,29.666,6.96,6.056,6.344
1585,1.112,34.659,38.401,47.066,29.659,6.838,5.975,6.181
1586,1.106,34.609,38.335,47.056,29.659,6.796,5.933,6.22
1587,1.122,34.771,38.424,47.094,29.673,6.917,6.096,6.342
1588,1.138,34.888,38.405,47.095,29.68,7.0,6.138,6.343
1589,1.135,34.553,38.389,47.066,29.666,6.96,6.098,6.221
1590,1.155,34.703,38.409,47.104,29.67,7.0,6.138,6.302
1591,1.148,34.81,38.393,47.066,29.666,6.96,6.098,6.221
1592,1.148,34.898,38.42,47.047,29.659,6.878,6.056,6.18
1593,1.142,34.515,38.405,47.046,29.659,6.918,6.056,6.22
1594,1.171,34.693,38.354,47.075,29.673,7.0,6.137,6.261
1595,1.168,34.839,38.373,47.104,29.677,7.082,6.26,6.343
1596,1.152,34.888,38.408,47.047,29.67,7.002,6.058,6.181
1597,1.158,34.649,38.421,47.056,29.67,7.001,6.137,6.261
1598,1.148,34.791,38.456,47.037,29.666,6.96,6.057,6.221
1599,1.155,34.926,38.401,47.037,29.666,6.96,6.015,6.18
1600,1.155,35.004,38.424,47.056,29.67,7.041,6.137,6.179
1601,1.155,34.698,38.471,47.047,29.673,7.042,6.138,6.301
1602,1.161,34.868,38.398,47.046,29.666,6.96,6.179,6.221
1603,1.152,34.975,38.331,47.037,29.656,6.919,6.017,6.139
1604,1.155,35.024,38.369,47.008,29.656,6.837,6.015,6.138
1605,1.174,34.881,38.42,47.046,29.67,6.918,6.178,6.219
1606,1.178,35.033,38.46,47.075,29.677,7.041,6.22,6.302
1607,1.175,35.12,38.456,47.028,29.66,6.879,6.058,6.18
1608,1.184,35.198,38.374,47.075,29.666,6.918,6.097,6.22
1609,1.181,34.997,38.401,47.047,29.663,6.878,6.178,6.22
1610,1.184,35.111,38.44,47.008,29.659,6.796,6.017,6.098
1611,1.188,35.217,38.413,47.017,29.663,6.877,6.056,6.138
1612,1.217,35.122,38.421,47.027,29.677,6.918,6.137,6.179
1613,1.214,35.073,38.413,47.056,29.684,7.0,6.219,6.301
1614,1.194,35.178,38.44,46.989,29.667,6.879,6.139,6.14
1615,1.194,35.295,38.444,47.008,29.673,6.796,5.976,6.098
1616,1.198,35.142,38.472,46.998,29.673,6.795,6.015,6.138
1617,1.191,35.265,38.347,46.998,29.663,6.755,6.015,6.098
1618,1.181,35.41,38.381,47.008,29.666,6.836,6.015,6.097
1619,1.178,35.527,38.467,47.008,29.67,6.837,6.056,6.219
1620,1.197,35.413,38.394,47.017,29.673,6.837,6.056,6.139
1621,1.175,35.546,38.409,46.989,29.663,6.755,5.975,6.098
1622,1.191,35.672,38.378,46.988,29.663,6.632,5.974,6.056
1623,1.191,35.76,38.444,47.008,29.673,6.753,6.015,6.178
1624,1.191,35.636,38.444,46.998,29.673,6.795,6.056,6.22
1625,1.194,35.769,38.456,46.988,29.666,6.714,6.015,6.098
1626,1.194,35.895,38.394,47.008,29.673,6.754,6.096,6.097
1627,1.188,35.954,38.401,46.989,29.663,6.714,5.975,6.056
1628,1.194,35.897,38.424,46.96,29.663,6.632,5.893,6.056
1629,1.185,36.03,38.405,46.95,29.663,6.672,5.973,6.097
1630,1.178,36.166,38.381,46.998,29.67,6.672,6.015,6.138
1631,1.197,36.244,38.401,47.027,29.68,6.835,6.218,6.179
1632,1.188,36.063,38.459,46.97,29.666,6.714,6.017,6.017
1633,1.204,36.205,38.39,46.979,29.673,6.713,6.015,6.096
1634,1.201,36.312,38.354,46.969,29.673,6.713,6.056,6.056
1635,1.185,36.332,38.315,46.959,29.656,6.713,5.934,6.015
1636,1.194,36.418,38.365,46.95,29.67,6.713,5.974,6.056
1637,1.194,36.553,38.428,46.978,29.67,6.754,6.096,6.137
1638,1.204,36.67,38.44,46.988,29.68,6.957,6.097,6.138
1639,1.181,36.642,38.405,46.931,29.663,6.797,5.975,6.057
1640,1.175,36.613,38.381,46.94,29.666,6.714,6.015,6.015
1641,1.152,36.728,38.444,46.95,29.67,6.794,5.974,5.974
1642,1.148,36.825,38.433,46.931,29.67,6.795,5.893,6.015
1643,1.155,36.721,38.358,46.949,29.673,6.877,5.851,6.096
1644,1.168,36.854,38.424,46.95,29.673,6.837,6.013,6.178
1645,1.184,36.999,38.44,46.959,29.677,6.958,5.974,6.057
1646,1.171,37.039,38.436,46.931,29.663,6.797,5.974,5.975
1647,1.171,36.991,38.456,46.902,29.656,6.673,5.811,5.933
1648,1.162,37.144,38.37,46.94,29.666,6.875,5.932,6.014
1649,1.135,37.261,38.373,46.93,29.666,6.796,5.974,6.056
1650,1.151,37.319,38.428,46.93,29.673,6.795,5.933,5.975
1651,1.152,37.128,38.432,46.921,29.677,6.836,5.892,5.974
1652,1.145,37.28,38.315,46.93,29.666,6.755,5.851,6.015
1653,1.132,37.387,38.377,46.911,29.663,6.795,5.769,5.934
1654,1.109,37.436,38.373,46.892,29.659,6.714,5.809,5.892
1655,1.115,37.513,38.467,46.93,29.677,6.794,5.932,6.054
1656,1.119,37.648,38.448,46.93,29.673,6.836,6.055,6.137
1657,1.096,37.745,38.417,46.911,29.67,6.796,5.853,5.894
1658,1.086,37.804,38.409,46.93,29.68,6.958,5.973,6.014
1659,1.076,38.054,38.397,46.902,29.666,6.838,5.893,5.974
1660,1.07,38.162,38.44,46.892,29.663,6.796,5.851,5.893
1661,1.06,38.278,38.323,46.911,29.666,6.877,5.81,5.973
1662,1.053,38.327,38.381,46.921,29.673,6.918,5.85,6.015
1663,1.06,37.599,38.412,46.949,29.68,6.959,5.932,6.056
1664,1.047,37.678,38.428,46.892,29.666,6.878,5.77,5.975
1665,1.063,37.793,38.39,46.892,29.659,6.755,5.85,5.893
1666,1.056,37.986,38.377,46.901,29.673,6.836,5.891,5.973
1667,1.043,38.027,38.373,46.882,29.666,6.877,5.77,6.015
1668,1.033,38.142,38.389,46.892,29.666,6.959,5.768,5.934
1669,1.03,38.239,38.452,46.892,29.673,7.0,5.85,6.055
1670,0.998,37.924,38.398,46.911,29.666,6.879,5.81,5.934
1671,0.997,37.988,38.397,46.863,29.659,6.877,5.728,5.892
1672,0.994,38.113,38.405,46.853,29.659,6.796,5.646,5.811
1673,0.997,38.21,38.448,46.872,29.67,6.917,5.767,6.013
1674,0.974,38.077,38.378,46.882,29.673,6.919,5.891,6.056
1675,0.958,38.219,38.311,46.872,29.673,6.837,5.811,5.934
1676,0.951,38.336,38.295,46.882,29.67,6.958,5.85,6.014
1677,0.945,38.414,38.369,46.872,29.67,6.878,5.81,5.974
1678,0.945,38.165,38.432,46.843,29.663,6.837,5.728,5.893
1679,0.932,38.287,38.343,46.834,29.666,6.877,5.768,5.851
1680,0.938,38.442,38.412,46.872,29.673,6.918,5.768,5.973
1681,0.935,38.53,38.452,46.911,29.684,7.081,5.891,6.055
1682,0.931,38.329,38.421,46.853,29.667,6.88,5.729,5.934
1683,0.922,38.49,38.393,46.872,29.666,7.0,5.687,5.933
1684,0.902,38.598,38.288,46.872,29.659,6.96,5.727,5.974
1685,0.892,38.627,38.365,46.853,29.663,6.919,5.727,5.893
1686,0.892,38.397,38.365,46.853,29.67,6.919,5.809,5.892
1687,0.892,38.52,38.44,46.882,29.673,7.0,5.769,5.973
1688,0.886,38.646,38.421,46.872,29.68,7.001,5.85,6.015
1689,0.876,38.657,38.378,46.853,29.663,6.838,5.688,5.974
1690,0.892,38.407,38.405,46.834,29.666,6.796,5.687,5.893
1691,0.886,38.539,38.432,46.853,29.666,6.877,5.768,5.892
1692,0.879,38.617,38.39,46.843,29.666,6.796,5.768,5.892
1693,0.872,38.791,38.373,46.834,29.67,6.836,5.728,5.933
1694,0.85,38.514,38.397,46.843,29.677,6.837,5.727,5.974
1695,0.846,38.626,38.389,46.843,29.666,6.999,5.768,5.933
1696,0.84,38.714,38.444,46.814,29.663,6.879,5.687,5.852
1697,0.826,38.513,38.421,46.805,29.656,6.755,5.646,5.769
1698,0.836,38.655,38.389,46.843,29.673,6.876,5.767,5.931
1699,0.83,38.753,38.397,46.843,29.67,6.959,5.768,5.933
1700,0.833,38.83,38.444,46.843,29.67,6.838,5.728,5.852
1701,0.817,38.543,38.382,46.853,29.68,6.918,5.85,5.932
1702,0.813,38.675,38.366,46.843,29.67,6.959,5.648,5.974
1703,0.8,38.772,38.369,46.814,29.663,6.878,5.686,5.811
1704,0.807,38.85,38.389,46.814,29.663,6.837,5.687,5.85
1705,0.82,38.448,38.459,46.833,29.673,6.958,5.809,5.973
1706,0.836,38.607,38.433,46.872,29.68,7.0,5.81,6.055
1707,0.81,38.685,38.347,46.815,29.666,6.797,5.728,5.893
1708,0.813,38.782,38.393,46.833,29.67,6.917,5.768,5.892
1709,0.816,38.648,38.424,46.824,29.663,6.837,5.809,5.892
1710,0.79,38.772,38.358,46.795,29.663,6.796,5.769,5.811
1711,0.8,38.888,38.369,46.833,29.673,6.836,5.809,5.85
1712,0.807,38.937,38.405,46.834,29.67,6.877,5.85,5.932
1713,0.82,38.516,38.436,46.843,29.684,6.959,5.891,5.933
1714,0.794,38.617,38.425,46.805,29.66,6.797,5.892,5.852
1715,0.78,38.704,38.421,46.804,29.659,6.755,5.77,5.769
1716,0.774,38.743,38.358,46.824,29.666,6.917,5.891,5.891
1717,0.761,38.619,38.358,46.814,29.666,6.919,5.933,5.892
1718,0.764,38.762,38.451,46.824,29.663,6.878,5.852,5.811
1719,0.764,38.888,38.409,46.833,29.673,7.0,5.932,5.972
1720,0.761,39.177,38.378,46.814,29.673,6.879,5.892,5.852
1721,0.754,38.595,38.432,46.814,29.666,6.837,5.892,5.851
1722,0.744,38.704,38.417,46.785,29.666,6.877,5.851,5.851
1723,0.744,38.839,38.405,46.804,29.666,7.0,5.891,5.932
1724,0.751,38.476,38.374,46.852,29.67,7.123,5.973,6.014
1725,0.761,38.482,38.327,46.815,29.663,7.002,5.893,5.852
1726,0.757,38.626,38.381,46.833,29.67,7.041,5.973,5.891
1727,0.764,38.695,38.381,46.814,29.666,7.001,5.974,5.851
1728,0.761,38.465,38.436,46.805,29.656,6.919,5.811,5.81
1729,0.767,38.607,38.378,46.814,29.663,6.959,5.891,5.85
1730,0.78,38.752,38.385,46.814,29.666,7.0,5.933,6.013
1731,0.79,38.849,38.459,46.843,29.677,7.082,6.096,6.015
1732,0.784,38.323,38.374,46.795,29.66,6.92,5.894,5.852
1733,0.78,38.481,38.287,46.824,29.67,6.959,5.892,5.851
1734,0.764,38.597,38.369,46.814,29.666,6.96,5.973,5.851
1735,0.751,38.647,38.373,46.785,29.666,6.838,5.811,5.81
1736,0.754,38.379,38.362,46.795,29.666,6.837,5.932,5.81
1737,0.754,38.51,38.455,46.814,29.67,6.958,5.974,5.932
1738,0.764,38.665,38.335,46.843,29.684,6.96,6.015,5.974
1739,0.751,38.686,38.353,46.786,29.663,6.838,5.812,5.811
1740,0.751,38.341,38.416,46.785,29.663,6.877,5.769,5.85
1741,0.767,38.471,38.393,46.804,29.673,6.877,5.85,5.891
1742,0.761,38.569,38.288,46.785,29.659,6.837,5.769,5.851
1743,0.751,38.627,38.372,46.814,29.67,6.796,5.85,5.891
1744,0.741,38.455,38.428,46.814,29.673,6.836,5.851,5.933
1745,0.757,38.607,38.444,46.824,29.68,6.877,5.851,5.933
1746,0.741,38.656,38.456,46.776,29.663,6.796,5.729,5.974
1747,0.757,38.743,38.437,46.785,29.663,6.673,5.646,5.811
1748,0.751,38.312,38.366,46.795,29.663,6.753,5.767,5.972
1749,0.748,38.433,38.397,46.795,29.67,6.714,5.768,5.933
1750,0.764,38.511,38.377,46.795,29.666,6.713,5.768,5.933
1751,0.764,38.329,38.381,46.871,29.67,6.794,5.85,5.974
1752,0.764,38.375,38.401,46.796,29.666,6.714,5.769,5.933
1753,0.761,38.453,38.409,46.776,29.67,6.713,5.728,5.852
1754,0.754,38.53,38.436,46.756,29.659,6.551,5.605,5.81
1755,0.751,38.109,38.405,46.794,29.673,6.63,5.808,5.972
1756,0.744,38.201,38.374,46.776,29.677,6.672,5.769,5.893
1757,0.741,38.345,38.358,46.775,29.673,6.631,5.728,5.892
1758,0.751,38.443,38.377,46.795,29.67,6.672,5.809,5.973
1759,0.741,38.175,38.424,46.766,29.666,6.672,5.728,5.933
1760,0.721,38.297,38.382,46.766,29.656,6.509,5.727,5.852
1761,0.718,38.413,38.37,46.737,29.659,6.549,5.768,5.851
1762,0.734,38.52,38.408,46.785,29.666,6.671,5.809,5.973
1763,0.741,38.07,38.483,46.804,29.68,6.713,5.932,6.015
1764,0.738,38.181,38.378,46.766,29.663,6.51,5.77,5.852
1765,0.757,38.316,38.323,46.766,29.67,6.63,5.809,5.891
1766,0.744,38.356,38.225,46.785,29.673,6.55,5.85,5.851
1767,0.744,38.078,38.356,46.737,29.659,6.468,5.729,5.81
1768,0.744,38.21,38.401,46.756,29.663,6.548,5.809,5.891
1769,0.744,38.317,38.374,46.775,29.67,6.508,5.85,5.892
1770,0.754,38.414,38.369,46.785,29.68,6.67,5.932,5.892
1771,0.761,38.041,38.412,46.737,29.663,6.509,5.811,5.851
1772,0.774,38.171,38.44,46.727,29.659,6.427,5.769,5.769
1773,0.777,38.287,38.37,46.746,29.67,6.548,5.891,5.891
1774,0.764,38.298,38.268,46.746,29.663,6.468,5.77,5.811
1775,0.774,38.03,38.349,46.737,29.666,6.548,5.809,5.891
1776,0.761,38.142,38.389,46.765,29.67,6.549,5.891,5.933
1777,0.77,38.239,38.37,46.756,29.673,6.468,5.729,5.852
1778,0.754,38.029,38.35,46.727,29.663,6.426,5.687,5.769
1779,0.744,37.989,38.354,46.708,29.659,6.385,5.687,5.768
1780,0.754,38.113,38.42,46.746,29.673,6.588,5.768,5.85
1781,0.741,38.21,38.444,46.737,29.666,6.509,5.768,5.851
1782,0.751,37.856,38.323,46.737,29.663,6.427,5.85,5.81
1783,0.754,37.977,38.377,46.756,29.673,6.548,5.81,5.932
1784,0.774,38.123,38.377,46.737,29.67,6.468,5.81,5.852
1785,0.767,38.162,38.397,46.727,29.659,6.386,5.769,5.81
1786,0.774,37.76,38.42,46.698,29.659,6.344,5.647,5.728
1787,0.774,37.9,38.413,46.727,29.673,6.506,5.767,5.85
1788,0.761,38.016,38.401,46.765,29.663,6.549,5.85,5.891
1789,0.767,38.123,38.397,46.737,29.673,6.508,5.729,5.811
1790,0.777,37.769,38.424,46.737,29.673,6.549,5.768,5.891
1791,0.78,37.919,38.343,46.727,29.67,6.508,5.728,5.851
1792,0.767,38.007,38.377,46.727,29.659,6.467,5.727,5.81
1793,0.77,38.056,38.366,46.717,29.659,6.345,5.768,5.769
1794,0.777,37.769,38.424,46.727,29.67,6.466,5.809,5.809
1795,0.758,37.948,38.44,46.737,29.68,6.589,5.932,5.972
1796,0.767,38.017,38.429,46.708,29.666,6.387,5.73,5.852
1797,0.777,38.094,38.304,46.727,29.67,6.425,5.809,5.81
1798,0.774,37.817,38.369,46.717,29.666,6.466,5.769,5.81
1799,0.767,37.929,38.451,46.679,29.666,6.386,5.728,5.728
1800,0.767,38.055,38.347,46.707,29.666,6.466,5.809,5.809
1801,0.767,38.123,38.389,46.746,29.677,6.467,5.81,5.891
1802,0.774,37.779,38.381,46.737,29.67,6.386,5.769,5.851
1803,0.777,37.842,38.42,46.718,29.67,6.344,5.728,5.729
1804,0.784,37.958,38.374,46.679,29.656,6.262,5.687,5.565
1805,0.797,37.854,38.377,46.698,29.666,6.343,5.768,5.807
1806,0.784,37.805,38.311,46.698,29.673,6.425,5.768,5.85
1807,0.78,37.929,38.388,46.688,29.67,6.344,5.728,5.81
1808,0.793,38.026,38.424,46.707,29.67,6.425,5.768,5.81
1809,0.79,37.644,38.374,46.689,29.663,6.466,5.728,5.81
1810,0.787,37.736,38.35,46.669,29.659,6.345,5.605,5.688
1811,0.787,37.823,38.4,46.659,29.656,6.343,5.686,5.687
1812,0.797,37.958,38.42,46.698,29.673,6.506,5.768,5.809
1813,0.803,37.691,38.382,46.727,29.677,6.508,5.891,5.891
1814,0.787,37.822,38.338,46.689,29.666,6.467,5.729,5.729
1815,0.774,37.948,38.295,46.698,29.673,6.426,5.687,5.768
1816,0.787,38.045,38.369,46.679,29.663,6.507,5.646,5.768
1817,0.777,37.605,38.385,46.65,29.659,6.345,5.645,5.728
1818,0.784,37.754,38.44,46.669,29.666,6.466,5.686,5.727
1819,0.784,37.89,38.401,46.679,29.666,6.426,5.687,5.85
1820,0.78,37.987,38.385,46.688,29.666,6.466,5.687,5.729
1821,0.774,37.653,38.416,46.64,29.666,6.426,5.687,5.727
1822,0.774,37.803,38.315,46.659,29.656,6.385,5.564,5.605
1823,0.771,37.939,38.353,46.678,29.666,6.507,5.685,5.767
1824,0.764,37.959,38.35,46.659,29.663,6.508,5.646,5.687
1825,0.77,37.691,38.389,46.659,29.663,6.427,5.686,5.727
1826,0.78,37.832,38.428,46.669,29.673,6.466,5.727,5.85
1827,0.787,37.929,38.444,46.65,29.67,6.507,5.646,5.729
1828,0.787,37.93,38.351,46.65,29.659,6.427,5.645,5.646
1829,0.777,37.652,38.346,46.63,29.656,6.304,5.605,5.645
1830,0.8,37.793,38.42,46.659,29.67,6.425,5.645,5.849
1831,0.803,37.891,38.382,46.64,29.673,6.426,5.767,5.81
1832,0.81,37.767,38.35,46.736,29.666,6.466,5.728,5.606
1833,0.816,37.641,38.381,46.65,29.673,6.467,5.687,5.767
1834,0.803,37.745,38.401,46.65,29.67,6.386,5.687,5.687
1835,0.784,37.813,38.409,46.611,29.656,6.303,5.605,5.564
1836,0.784,37.574,38.389,46.62,29.659,6.262,5.645,5.645
1837,0.793,37.697,38.393,46.64,29.666,6.424,5.727,5.727
1838,0.784,37.851,38.331,46.669,29.68,6.507,5.85,5.85
1839,0.784,37.91,38.408,46.631,29.666,6.305,5.688,5.729
1840,0.787,37.451,38.385,46.63,29.67,6.384,5.646,5.727
1841,0.784,37.628,38.346,46.669,29.666,6.385,5.727,5.727
1842,0.771,37.697,38.365,46.611,29.659,6.344,5.605,5.605
1843,0.774,37.794,38.412,46.62,29.67,6.303,5.645,5.726
1844,0.777,37.699,38.448,46.63,29.666,6.343,5.686,5.768
1845,0.803,37.861,38.401,46.669,29.684,6.425,5.727,5.768
1846,0.784,37.91,38.366,46.602,29.663,6.344,5.605,5.728
1847,0.793,37.988,38.358,46.601,29.663,6.262,5.604,5.646
1848,0.793,37.288,38.358,46.62,29.666,6.343,5.726,5.686
1849,0.787,37.368,38.412,46.601,29.663,6.303,5.605,5.687
1850,0.79,37.531,38.374,46.716,29.666,6.262,5.645,5.727
1851,0.803,37.591,38.389,46.612,29.666,6.384,5.767,5.687
1852,0.816,37.505,38.409,46.63,29.67,6.303,5.728,5.687
1853,0.807,37.629,38.413,46.582,29.666,6.221,5.646,5.646
1854,0.8,37.726,38.358,46.572,29.663,6.139,5.483,5.605
1855,0.794,37.765,38.311,46.611,29.663,6.26,5.684,5.726
1856,0.784,37.411,38.353,46.601,29.666,6.262,5.605,5.768
1857,0.793,37.541,38.338,46.592,29.666,6.302,5.564,5.647
1858,0.803,37.648,38.416,46.601,29.666,6.302,5.645,5.727
1859,0.79,37.621,38.315,46.601,29.67,6.221,5.686,5.727
1860,0.767,37.381,38.365,46.563,29.659,6.18,5.524,5.646
1861,0.751,37.484,38.389,46.562,29.659,6.22,5.482,5.727
1862,0.767,37.6,38.42,46.591,29.666,6.302,5.644,5.768
1863,0.764,37.313,38.358,46.62,29.677,6.343,5.727,5.85
1864,0.751,37.368,38.373,46.659,29.66,6.303,5.565,5.729
1865,0.787,37.522,38.381,46.602,29.666,6.302,5.523,5.809
1866,0.79,37.6,38.37,46.582,29.659,6.302,5.603,5.728
1867,0.79,37.189,38.381,46.563,29.666,6.221,5.523,5.687
1868,0.774,37.299,38.366,46.591,29.666,6.261,5.563,5.687
1869,0.79,37.454,38.326,46.582,29.666,6.343,5.645,5.727
1870,0.8,37.561,38.4,46.601,29.673,6.466,5.727,5.809
1871,0.797,37.15,38.385,46.563,29.659,6.223,5.524,5.647
1872,0.816,37.309,38.35,46.572,29.666,6.342,5.563,5.645
1873,0.807,37.425,38.33,46.572,29.67,6.384,5.645,5.686
1874,0.784,37.484,38.381,46.543,29.659,6.385,5.523,5.687
1875,0.784,37.101,38.409,46.562,29.663,6.466,5.563,5.646
1876,0.797,37.26,38.432,46.591,29.673,6.386,5.645,5.727
1877,0.8,37.377,38.436,46.601,29.677,6.507,5.605,5.809
1878,0.781,37.417,38.354,46.553,29.663,6.345,5.564,5.606
1879,0.774,37.12,38.377,46.553,29.659,6.384,5.523,5.604
1880,0.774,37.27,38.389,46.572,29.67,6.507,5.522,5.726
1881,0.748,37.329,38.342,46.553,29.659,6.345,5.522,5.727
1882,0.76,37.406,38.354,46.562,29.663,6.425,5.563,5.687
1883,0.77,37.158,38.365,46.582,29.67,6.507,5.604,5.727
1884,0.777,37.299,38.408,46.582,29.666,6.427,5.604,5.687
1885,0.777,37.387,38.417,46.553,29.659,6.344,5.482,5.646
1886,0.784,37.436,38.397,46.534,29.659,6.343,5.44,5.605
1887,0.787,37.043,38.245,46.591,29.666,6.466,5.562,5.726
1888,0.784,37.183,38.368,46.544,29.666,6.507,5.563,5.687
1889,0.771,37.29,38.397,46.543,29.663,6.386,5.523,5.687
1890,0.787,37.023,38.323,46.562,29.67,6.507,5.603,5.768
1891,0.79,37.087,38.373,46.553,29.67,6.467,5.564,5.687
1892,0.784,37.183,38.373,46.543,29.659,6.386,5.523,5.605
1893,0.787,37.271,38.393,46.495,29.659,6.303,5.4,5.564
1894,0.784,37.07,38.377,46.543,29.67,6.547,5.521,5.685
1895,0.777,37.174,38.358,46.543,29.673,6.549,5.522,5.768
1896,0.774,37.328,38.311,46.543,29.67,6.508,5.563,5.687
1897,0.78,37.426,38.384,46.572,29.673,6.549,5.604,5.768
1898,0.764,36.775,38.42,46.534,29.666,6.549,5.482,5.647
1899,0.761,36.873,38.304,46.533,29.666,6.468,5.44,5.686
1900,0.757,37.009,38.357,46.524,29.659,6.426,5.399,5.564
1901,0.757,37.116,38.373,46.562,29.67,6.548,5.48,5.766
1902,0.751,36.867,38.428,46.553,29.673,6.671,5.603,5.809
1903,0.751,36.999,38.358,46.543,29.659,6.509,5.482,5.728
1904,0.774,37.125,38.283,46.562,29.67,6.63,5.603,5.768
1905,0.761,37.184,38.329,46.639,29.663,6.631,5.482,5.728
1906,0.767,36.801,38.322,46.525,29.659,6.509,5.481,5.646
1907,0.774,36.922,38.396,46.533,29.666,6.549,5.44,5.645
1908,0.78,37.067,38.401,46.524,29.666,6.508,5.562,5.686
1909,0.79,37.135,38.374,46.581,29.684,6.63,5.645,5.809
1910,0.764,36.877,38.366,46.515,29.667,6.509,5.483,5.728
1911,0.767,37.018,38.412,46.533,29.666,6.549,5.481,5.687
1912,0.764,37.125,38.296,46.533,29.659,6.549,5.522,5.727
1913,0.767,37.433,38.345,46.514,29.659,6.427,5.441,5.687
1914,0.764,36.909,38.342,46.543,29.673,6.466,5.521,5.646
1915,0.757,37.057,38.35,46.543,29.673,6.548,5.522,5.727
1916,0.764,37.154,38.4,46.543,29.67,6.549,5.482,5.727
1917,0.751,36.801,38.397,46.505,29.659,6.468,5.359,5.605
1918,0.744,36.855,38.335,46.524,29.659,6.345,5.358,5.604
1919,0.76,36.97,38.365,46.505,29.666,6.343,5.439,5.726
1920,0.757,37.077,38.444,46.504,29.673,6.425,5.521,5.768
1921,0.738,36.761,38.331,46.514,29.663,6.344,5.4,5.728
1922,0.747,36.921,38.357,46.533,29.666,6.384,5.562,5.768
1923,0.754,37.028,38.381,46.505,29.666,6.385,5.441,5.728
1924,0.741,37.106,38.377,46.504,29.663,6.344,5.44,5.605
1925,0.741,36.781,38.362,46.485,29.659,6.303,5.399,5.645
1926,0.747,36.941,38.42,46.504,29.666,6.384,5.562,5.727
1927,0.754,37.077,38.335,46.533,29.673,6.507,5.685,5.85
1928,0.761,37.164,38.35,46.524,29.659,6.305,5.483,5.729
1929,0.757,36.782,38.42,46.524,29.673,6.384,5.522,5.768
1930,0.761,36.921,38.354,46.524,29.659,6.385,5.482,5.606
1931,0.761,37.019,38.354,46.495,29.666,6.263,5.4,5.604
1932,0.767,37.058,38.358,46.485,29.659,6.302,5.44,5.604
1933,0.787,36.809,38.42,46.504,29.67,6.384,5.521,5.686
1934,0.787,36.97,38.421,46.543,29.673,6.466,5.644,5.809
1935,0.771,37.058,38.397,46.524,29.659,6.304,5.442,5.688
1936,0.754,37.116,38.338,46.524,29.663,6.384,5.481,5.727
1937,0.751,36.819,38.373,46.505,29.663,6.344,5.481,5.727
1938,0.751,36.951,38.358,46.485,29.659,6.262,5.481,5.687
1939,0.748,37.067,38.381,46.495,29.663,6.343,5.481,5.687
1940,0.751,37.145,38.366,46.523,29.673,6.384,5.44,5.727
1941,0.754,36.887,38.35,46.533,29.68,6.425,5.562,5.768
1942,0.738,36.98,38.393,46.495,29.66,6.222,5.441,5.687
1943,0.741,37.106,38.393,46.504,29.663,6.261,5.399,5.646
1944,0.744,37.021,38.299,46.514,29.666,6.302,5.48,5.686
1945,0.741,37.068,38.291,46.495,29.659,6.221,5.4,5.646
1946,0.76,37.202,38.349,46.495,29.666,6.302,5.48,5.645
1947,0.754,37.338,38.365,46.533,29.67,6.343,5.522,5.767
1948,0.774,36.783,38.416,46.514,29.666,6.221,5.522,5.687
1949,0.748,36.854,38.245,46.524,29.659,6.18,5.319,5.605
1950,0.744,36.98,38.313,46.485,29.652,6.139,5.317,5.604
1951,0.757,37.058,38.377,46.495,29.67,6.219,5.48,5.686
1952,0.748,36.867,38.405,46.504,29.659,6.18,5.522,5.687
1953,0.731,37.009,38.307,46.476,29.663,6.22,5.441,5.646
1954,0.725,37.154,38.353,46.504,29.67,6.22,5.481,5.727
1955,0.731,37.213,38.342,46.495,29.666,6.302,5.481,5.605
1956,0.721,36.878,38.381,46.476,29.663,6.221,5.359,5.564
1957,0.708,37.028,38.366,46.475,29.659,6.18,5.399,5.563
1958,0.731,37.154,38.365,46.504,29.666,6.342,5.44,5.726
1959,0.725,37.261,38.358,46.524,29.673,6.466,5.603,5.768
1960,0.731,37.176,38.385,46.485,29.659,6.345,5.482,5.565
1961,0.754,37.338,38.412,46.504,29.67,6.466,5.481,5.726
1962,0.748,37.445,38.3,46.485,29.67,6.467,5.481,5.727
1963,0.741,37.456,38.357,46.475,29.659,6.386,5.359,5.687
1964,0.757,36.794,38.373,46.485,29.663,6.466,5.439,5.646
1965,0.761,36.95,38.412,46.504,29.673,6.507,5.44,5.767
1966,0.748,37.067,38.417,46.533,29.68,6.63,5.603,5.728
1967,0.734,37.059,38.389,46.476,29.666,6.468,5.401,5.646
1968,0.757,36.838,38.373,46.485,29.673,6.507,5.399,5.564
1969,0.744,36.951,38.362,46.495,29.663,6.589,5.44,5.726
1970,0.734,37.038,38.385,46.476,29.663,6.427,5.359,5.605
1971,0.754,36.876,38.323,46.533,29.666,6.466,5.399,5.564
1972,0.761,36.836,38.357,46.505,29.677,6.548,5.521,5.645
1973,0.764,36.999,38.389,46.524,29.673,6.468,5.441,5.645
1974,0.735,37.048,38.393,46.466,29.656,6.467,5.399,5.564
1975,0.728,36.857,38.37,46.475,29.652,6.386,5.399,5.563
1976,0.734,37.009,38.326,46.495,29.663,6.547,5.44,5.685
1977,0.734,37.135,38.365,46.495,29.663,6.386,5.44,5.687
1978,0.725,37.222,38.365,46.485,29.663,6.425,5.399,5.605
1979,0.718,36.753,38.393,46.495,29.67,6.466,5.44,5.686
1980,0.721,36.912,38.335,46.591,29.659,6.426,5.44,5.646
1981,0.705,37.0,38.346,46.486,29.659,6.385,5.359,5.564
1982,0.702,37.068,38.342,46.456,29.649,6.303,5.277,5.523
1983,0.731,36.953,38.385,46.485,29.663,6.465,5.398,5.644
1984,0.728,37.096,38.362,46.495,29.673,6.507,5.44,5.727
1985,0.731,37.184,38.268,46.485,29.663,6.386,5.399,5.565
1986,0.738,37.28,38.337,46.504,29.666,6.385,5.399,5.726
1987,0.734,36.811,38.334,46.466,29.666,6.344,5.399,5.646
1988,0.738,36.912,38.42,46.475,29.656,6.303,5.318,5.564
1989,0.708,37.038,38.3,46.485,29.656,6.262,5.317,5.523
1990,0.741,37.087,38.365,46.495,29.666,6.384,5.398,5.685
1991,0.764,36.925,38.436,46.504,29.673,6.425,5.521,5.687
1992,0.754,37.019,38.354,46.476,29.663,6.304,5.319,5.564
1993,0.761,37.154,38.338,46.485,29.67,6.302,5.398,5.645
1994,0.741,37.175,38.307,46.485,29.666,6.221,5.399,5.605
1995,0.731,36.925,38.334,46.456,29.663,6.22,5.277,5.523
1996,0.734,37.048,38.33,46.456,29.656,6.18,5.398,5.644
1997,0.741,37.174,38.4,46.475,29.673,6.22,5.399,5.727
1998,0.734,37.021,38.358,46.523,29.68,6.302,5.48,5.727
1999,0.725,36.866,38.334,46.476,29.656,6.18,5.318,5.565
2000,0.737,37.009,38.404,46.485,29.666,6.179,5.398,5.604
2001,0.725,37.087,38.37,46.495,29.67,6.261,5.44,5.686
2002,0.718,36.762,38.295,46.485,29.663,6.099,5.359,5.605
2003,0.721,36.873,38.361,46.475,29.663,6.138,5.317,5.604
2004,0.721,36.999,38.358,46.495,29.673,6.138,5.358,5.686
2005,0.731,37.135,38.404,46.514,29.677,6.179,5.439,5.687
2006,0.708,36.791,38.401,46.476,29.66,6.139,5.237,5.564
2007,0.718,36.941,38.331,46.456,29.656,6.138,5.316,5.563
2008,0.715,37.077,38.326,46.475,29.666,6.138,5.398,5.645
2009,0.708,37.116,38.361,46.466,29.659,6.138,5.358,5.686
2010,0.728,36.733,38.354,46.475,29.666,6.138,5.358,5.646
2011,0.734,36.902,38.342,46.59,29.666,6.219,5.439,5.645
2012,0.76,37.038,38.354,46.477,29.673,6.22,5.44,5.605
2013,0.751,37.068,38.381,46.447,29.659,6.22,5.359,5.564
2014,0.748,36.675,38.42,46.437,29.659,6.18,5.236,5.482
2015,0.721,36.815,38.393,46.485,29.67,6.383,5.316,5.603
2016,0.728,36.931,38.35,46.466,29.67,6.303,5.439,5.645
2017,0.721,36.99,38.326,46.475,29.666,6.384,5.399,5.605
2018,0.728,36.713,38.33,46.485,29.67,6.425,5.44,5.645
2019,0.728,36.844,38.377,46.466,29.663,6.344,5.318,5.605
2020,0.734,36.98,38.319,46.504,29.652,6.343,5.276,5.564
2021,0.721,36.962,38.349,46.456,29.652,6.262,5.316,5.604
2022,0.734,36.827,38.377,46.475,29.67,6.384,5.398,5.604
2023,0.721,36.96,38.409,46.495,29.68,6.425,5.48,5.686
2024,0.737,37.048,38.327,46.485,29.663,6.263,5.359,5.605
2025,0.734,37.001,38.291,46.475,29.663,6.384,5.399,5.686
2026,0.728,36.809,38.298,46.542,29.659,6.303,5.399,5.524
2027,0.734,36.922,38.326,46.457,29.656,6.262,5.318,5.563
2028,0.728,36.99,38.4,46.466,29.663,6.302,5.358,5.563
2029,0.738,36.569,38.342,46.485,29.67,6.302,5.521,5.685
2030,0.747,36.68,38.369,46.514,29.677,6.425,5.522,5.768
2031,0.731,36.748,38.358,46.457,29.663,6.222,5.36,5.565
2032,0.731,36.844,38.397,46.466,29.659,6.302,5.358,5.604
2033,0.734,36.51,38.28,46.456,29.663,6.262,5.399,5.604
2034,0.741,36.66,38.283,46.504,29.659,6.221,5.358,5.564
2035,0.741,36.805,38.361,46.485,29.666,6.22,5.358,5.645
2036,0.731,36.864,38.385,46.495,29.67,6.302,5.439,5.645
2037,0.721,36.635,38.409,46.476,29.663,6.221,5.359,5.645
2038,0.715,36.738,38.389,46.466,29.659,6.139,5.358,5.523
2039,0.718,36.864,38.334,46.447,29.656,6.098,5.195,5.522
2040,0.724,36.942,38.346,46.475,29.673,6.219,5.397,5.644
2041,0.715,36.52,38.408,46.475,29.663,6.302,5.562,5.686
2042,0.718,36.679,38.315,46.485,29.659,6.14,5.441,5.564
2043,0.731,36.805,38.318,46.485,29.663,6.219,5.521,5.685
2044,0.728,36.845,38.326,46.466,29.663,6.22,5.482,5.646
2045,0.721,36.587,38.385,46.466,29.659,6.058,5.44,5.605
2046,0.721,36.689,38.373,46.447,29.659,6.056,5.481,5.523
2047,0.731,36.834,38.381,46.485,29.663,6.178,5.522,5.644
2048,0.731,36.874,38.354,46.495,29.673,6.22,5.603,5.645
2049,0.738,36.577,38.334,46.466,29.663,6.098,5.523,5.645
2050,0.751,36.737,38.408,46.475,29.673,6.138,5.603,5.605
2051,0.748,36.835,38.315,46.466,29.67,6.098,5.604,5.564
2052,0.734,36.778,38.31,46.466,29.656,6.016,5.442,5.441
2053,0.731,36.385,38.345,46.456,29.659,6.056,5.562,5.562
2054,0.734,36.534,38.393,46.466,29.666,6.097,5.645,5.563
2055,0.721,36.67,38.428,46.494,29.68,6.219,5.645,5.766
2056,0.715,36.451,38.362,46.466,29.66,6.098,5.523,5.565
2057,0.728,36.563,38.346,46.466,29.659,6.097,5.522,5.523
2058,0.721,36.708,38.315,46.475,29.666,6.178,5.563,5.603
2059,0.711,36.758,38.373,46.456,29.659,6.057,5.523,5.564
2060,0.708,36.336,38.315,46.456,29.659,6.137,5.603,5.604
2061,0.711,36.476,38.365,46.475,29.666,6.179,5.645,5.686
2062,0.715,36.631,38.373,46.504,29.67,6.22,5.686,5.646
2063,0.708,36.69,38.369,46.456,29.666,6.098,5.524,5.605
2064,0.698,36.307,38.397,46.446,29.656,6.138,5.482,5.482
2065,0.718,36.447,38.358,46.475,29.666,6.219,5.562,5.603
2066,0.724,36.573,38.326,46.466,29.666,6.139,5.563,5.604
2067,0.734,36.661,38.314,46.466,29.659,6.26,5.563,5.564
2068,0.747,36.403,38.381,46.475,29.666,6.221,5.645,5.645
2069,0.757,36.505,38.315,46.466,29.67,6.261,5.564,5.645
2070,0.757,36.641,38.349,46.447,29.656,6.18,5.441,5.483
2071,0.748,36.68,38.35,46.427,29.652,6.301,5.481,5.522
2072,0.77,36.249,38.381,46.446,29.666,6.302,5.522,5.563
2073,0.787,36.398,38.37,46.466,29.673,6.384,5.685,5.645
2074,0.764,36.515,38.284,46.466,29.656,6.263,5.483,5.564
2075,0.757,36.564,38.341,46.523,29.67,6.384,5.562,5.604
2076,0.764,36.344,38.326,46.457,29.656,6.344,5.604,5.645
2077,0.764,36.486,38.381,46.437,29.656,6.262,5.482,5.523
2078,0.767,36.545,38.381,46.446,29.659,6.262,5.481,5.563
2079,0.774,36.756,38.37,46.466,29.673,6.384,5.603,5.523
2080,0.787,36.327,38.362,46.504,29.673,6.466,5.767,5.685
2081,0.79,36.418,38.381,46.456,29.666,6.386,5.443,5.524
2082,0.803,36.515,38.366,46.456,29.666,6.303,5.521,5.563
2083,0.8,36.305,38.362,46.466,29.666,6.343,5.563,5.645
2084,0.807,36.332,38.342,46.437,29.663,6.343,5.482,5.523
2085,0.816,36.476,38.326,46.456,29.663,6.343,5.522,5.563
2086,0.826,36.592,38.373,46.475,29.666,6.425,5.603,5.604
2087,0.846,36.085,38.35,46.485,29.673,6.426,5.564,5.564
2088,0.836,36.167,38.283,46.456,29.659,6.304,5.482,5.482
2089,0.833,36.302,38.322,46.427,29.649,6.302,5.4,5.44
2090,0.849,36.399,38.388,46.475,29.666,6.302,5.643,5.603
2091,0.853,36.016,38.373,46.427,29.663,6.384,5.564,5.564
2092,0.849,36.175,38.334,46.532,29.659,6.303,5.482,5.563
2093,0.836,36.302,38.373,46.476,29.67,6.343,5.644,5.604
2094,0.83,36.38,38.366,46.437,29.666,6.343,5.564,5.604
2095,0.817,36.083,38.369,46.427,29.663,6.221,5.441,5.482
2096,0.816,36.215,38.366,46.417,29.656,6.22,5.481,5.522
2097,0.839,36.36,38.283,46.465,29.666,6.424,5.562,5.644
2098,0.843,36.428,38.329,46.466,29.673,6.466,5.604,5.727
2099,0.846,36.122,38.338,46.447,29.659,6.304,5.523,5.524
2100,0.872,36.282,38.381,46.456,29.67,6.384,5.644,5.563
2101,0.869,36.408,38.319,46.523,29.673,6.385,5.523,5.685
2102,0.866,36.419,38.338,46.457,29.663,6.303,5.482,5.564
2103,0.872,36.064,38.393,46.456,29.666,6.384,5.481,5.645
2104,0.895,36.214,38.405,46.466,29.673,6.385,5.562,5.645
2105,0.895,36.36,38.417,46.466,29.673,6.425,5.604,5.686
2106,0.879,36.61,38.327,46.427,29.666,6.344,5.482,5.524
2107,0.879,36.076,38.346,46.446,29.652,6.343,5.4,5.522
2108,0.879,36.195,38.33,46.446,29.663,6.466,5.521,5.603
2109,0.885,36.283,38.381,46.437,29.652,6.386,5.522,5.564
2110,0.911,36.044,38.311,46.552,29.663,6.425,5.441,5.563
2111,0.918,36.061,38.357,46.457,29.666,6.507,5.562,5.604
2112,0.922,36.195,38.401,46.456,29.666,6.467,5.482,5.645
2113,0.915,36.292,38.366,46.427,29.663,6.467,5.44,5.523
2114,0.909,35.804,38.33,46.408,29.652,6.345,5.359,5.522
2115,0.895,35.943,38.307,46.456,29.659,6.466,5.521,5.603
2116,0.899,36.069,38.357,46.494,29.663,6.467,5.522,5.645
2117,0.905,36.166,38.322,46.456,29.663,6.426,5.522,5.605
2118,0.895,36.043,38.459,46.446,29.673,6.507,5.563,5.645
2119,0.886,36.185,38.335,46.446,29.659,6.386,5.523,5.605
2120,0.879,36.311,38.326,46.427,29.659,6.344,5.4,5.604
2121,0.872,36.351,38.361,46.427,29.652,6.343,5.44,5.645
2122,0.885,35.872,38.389,46.456,29.666,6.466,5.603,5.645
2123,0.885,36.04,38.295,46.475,29.677,6.548,5.645,5.767
2124,0.863,36.128,38.271,46.466,29.656,6.386,5.523,5.687
2125,0.859,36.205,38.337,46.456,29.666,6.466,5.563,5.605
2126,0.846,35.957,38.334,46.456,29.666,6.386,5.604,5.686
2127,0.84,36.069,38.361,46.427,29.663,6.303,5.482,5.564
2128,0.843,36.214,38.381,46.437,29.663,6.343,5.562,5.563
2129,0.846,36.264,38.33,46.465,29.673,6.384,5.563,5.726
2130,0.856,35.948,38.389,46.466,29.673,6.385,5.645,5.727
2131,0.84,36.021,38.389,46.427,29.666,6.222,5.564,5.687
2132,0.839,36.156,38.307,46.427,29.666,6.22,5.482,5.605
2133,0.82,36.196,38.306,46.456,29.67,6.302,5.522,5.686
2134,0.803,35.813,38.373,46.427,29.663,6.221,5.482,5.687
2135,0.79,35.943,38.354,46.446,29.659,6.261,5.603,5.687
2136,0.79,36.06,38.393,46.466,29.673,6.302,5.604,5.727
2137,0.787,35.936,38.405,46.447,29.663,6.18,5.564,5.768
2138,0.767,35.945,38.366,46.437,29.659,6.179,5.482,5.606
2139,0.757,36.079,38.338,46.408,29.652,6.098,5.522,5.442
2140,0.77,36.195,38.381,46.446,29.666,6.178,5.522,5.684
2141,0.757,35.794,38.315,46.446,29.663,6.261,5.644,5.768
2142,0.761,35.924,38.302,46.446,29.663,6.221,5.564,5.687
2143,0.757,36.06,38.338,46.456,29.666,6.302,5.604,5.768
2144,0.757,36.147,38.381,46.446,29.663,6.221,5.564,5.606
2145,0.751,35.774,38.389,46.418,29.659,6.22,5.482,5.686
2146,0.744,35.924,38.35,46.408,29.652,6.139,5.44,5.564
2147,0.738,36.079,38.299,46.465,29.666,6.341,5.603,5.685
2148,0.734,36.167,38.318,46.466,29.673,6.384,5.645,5.768
2149,0.728,35.966,38.373,46.427,29.666,6.303,5.564,5.687
2150,0.728,36.117,38.327,46.456,29.673,6.384,5.604,5.768
2151,0.721,36.244,38.287,46.427,29.656,6.303,5.564,5.647
2152,0.718,36.283,38.326,46.427,29.659,6.302,5.482,5.605
2153,0.718,35.612,38.381,46.446,29.652,6.343,5.481,5.726
2154,0.711,35.788,38.389,46.456,29.666,6.384,5.562,5.727
2155,0.705,35.905,38.35,46.475,29.68,6.466,5.726,5.85
