time,ecg,bvp,gsr,rsp,skt,emg_zygo,emg_coru,emg_trap
0,0.695,35.14,19.197,42.614,29.919,11.109,6.962,8.193
1,0.701,35.285,19.177,42.623,29.922,11.108,6.96,8.151
2,0.721,35.315,19.161,42.632,29.926,11.148,7.041,8.191
3,0.754,35.21,19.192,42.613,29.929,11.23,7.001,8.273
4,0.787,35.372,19.236,42.642,29.929,11.271,7.041,8.274
5,0.806,35.44,19.213,42.594,29.919,11.231,7.001,8.233
6,0.826,35.144,19.107,42.623,29.922,11.312,6.919,8.314
7,0.862,35.064,19.18,42.594,29.912,11.232,6.837,8.193
8,0.885,35.236,19.22,42.613,29.929,11.393,6.999,8.395
9,0.895,35.333,19.248,42.613,29.922,11.436,6.96,8.397
10,0.892,35.066,19.263,42.623,29.922,11.395,6.96,8.438
11,0.931,35.178,19.275,42.613,29.919,11.436,6.878,8.397
12,0.948,35.323,19.221,42.585,29.915,11.314,6.959,8.397
13,0.997,35.459,19.154,42.632,29.936,11.475,6.96,8.438
14,1.017,35.086,19.181,42.623,29.929,11.396,6.919,8.479
15,1.036,35.236,19.247,42.632,29.933,11.517,7.041,8.601
16,1.046,35.343,19.248,42.604,29.919,11.315,6.839,8.358
17,1.079,35.44,19.158,42.623,29.922,11.353,6.918,8.437
18,1.122,35.096,19.196,42.613,29.929,11.395,6.959,8.479
19,1.125,35.227,19.193,42.623,29.929,11.354,6.919,8.479
20,1.19,35.381,19.236,42.661,29.936,11.435,6.959,8.56
21,1.207,35.402,19.217,42.604,29.919,11.233,6.878,8.317
22,1.243,35.009,19.248,42.613,29.926,11.271,6.877,8.437
23,1.305,35.159,19.263,42.613,29.926,11.231,6.755,8.357
24,1.339,35.304,19.189,42.652,29.922,11.312,6.836,8.397
25,1.332,35.373,19.2,42.642,29.933,11.313,6.877,8.438
26,1.3,35.028,19.228,42.604,29.919,11.191,6.796,8.438
27,1.26,35.178,19.248,42.604,29.922,11.23,6.755,8.316
28,1.24,35.285,19.154,42.584,29.912,11.027,6.795,8.193
29,1.244,35.324,19.118,42.623,29.929,11.229,6.795,8.354
30,1.198,35.21,19.176,42.632,29.929,11.149,6.795,8.437
31,1.155,35.352,19.181,42.633,29.933,11.108,6.877,8.438
32,1.132,35.44,19.165,42.613,29.922,11.026,6.796,8.397
33,1.073,35.153,19.243,42.604,29.919,11.066,6.836,8.397
34,1.011,35.15,19.236,42.632,29.926,11.066,6.918,8.478
35,0.919,35.285,19.189,42.623,29.922,11.066,6.878,8.438
36,0.873,35.43,19.212,42.632,29.933,11.148,7.0,8.641
37,0.814,35.048,19.244,42.613,29.915,10.904,6.797,8.44
38,0.771,35.188,19.263,42.623,29.922,10.943,6.877,8.519
39,0.65,35.314,19.217,42.632,29.922,10.821,6.837,8.561
40,0.506,35.411,19.181,42.623,29.926,10.901,6.837,8.602
41,0.358,35.048,19.138,42.661,29.929,10.861,6.837,8.602
42,0.22,35.14,19.079,42.614,29.919,10.698,6.796,8.521
43,0.131,35.304,19.168,42.623,29.926,10.697,6.755,8.52
44,0.049,35.392,19.243,42.613,29.915,10.697,6.754,8.439
45,0.005,35.105,19.209,42.613,29.926,10.737,6.876,8.641
46,-0.07,35.246,19.189,42.652,29.929,10.738,6.837,8.521
47,-0.116,35.381,19.161,42.614,29.926,10.738,6.796,8.601
48,-0.149,35.45,19.22,42.613,29.926,10.657,6.755,8.521
49,-0.172,35.01,19.255,42.585,29.919,10.656,6.714,8.398
50,-0.172,35.178,19.26,42.613,29.929,10.778,6.794,8.6
51,-0.14,35.304,19.225,42.623,29.929,10.738,6.877,8.562
52,-0.081,35.382,19.201,42.652,29.936,10.779,6.837,8.602
53,-0.019,35.172,19.165,42.604,29.926,10.657,6.714,8.48
54,0.05,35.304,19.157,42.623,29.922,10.696,6.794,8.52
55,0.139,35.44,19.243,42.613,29.929,10.778,6.877,8.52
56,0.224,35.47,19.228,42.613,29.919,10.82,6.796,8.52
57,0.339,35.144,19.134,42.671,29.933,10.901,6.917,8.642
58,0.418,35.256,19.165,42.623,29.919,10.861,6.715,8.44
59,0.487,35.372,19.192,42.613,29.926,10.861,6.713,8.438
60,0.559,35.124,19.204,42.623,29.912,10.902,6.632,8.316
61,0.619,35.121,19.228,42.632,29.926,10.902,6.794,8.477
62,0.668,35.275,19.259,42.642,29.926,10.943,6.673,8.438
63,0.711,35.353,19.213,42.604,29.922,11.065,6.794,8.397
64,0.747,35.066,19.212,42.623,29.922,11.229,6.795,8.438
65,0.77,35.169,19.173,42.585,29.915,11.149,6.714,8.275
66,0.8,35.342,19.247,42.651,29.933,11.393,6.876,8.355
67,0.813,35.402,19.236,42.633,29.926,11.517,6.918,8.315
68,0.813,35.057,19.162,42.633,29.929,11.559,6.878,8.356
69,0.816,35.207,19.146,42.613,29.922,11.519,6.755,8.234
70,0.8,35.324,19.192,42.699,29.929,11.559,6.795,8.192
71,0.807,35.44,19.185,42.652,29.922,11.6,6.917,8.314
72,0.807,35.067,19.185,42.642,29.926,11.56,6.878,8.234
73,0.81,35.217,19.267,42.661,29.936,11.722,7.04,8.355
74,0.79,35.333,19.213,42.614,29.919,11.439,6.798,8.234
75,0.784,35.411,19.197,42.623,29.922,11.477,6.917,8.273
76,0.78,35.048,19.197,42.642,29.926,11.518,6.878,8.314
77,0.764,35.178,19.224,42.633,29.912,11.477,6.959,8.356
78,0.777,35.352,19.252,42.671,29.929,11.558,7.0,8.397
79,0.754,35.344,19.209,42.614,29.912,11.397,6.838,8.356
80,0.777,35.219,19.165,42.623,29.915,11.436,6.918,8.437
81,0.774,35.372,19.161,42.632,29.915,11.395,6.919,8.316
82,0.777,35.498,19.188,42.652,29.922,11.436,7.081,8.396
83,0.79,35.787,19.212,42.633,29.926,11.436,7.002,8.397
84,0.78,35.08,19.244,42.613,29.915,11.395,6.96,8.316
85,0.79,35.207,19.174,42.632,29.915,11.436,7.041,8.396
86,0.79,35.343,19.192,42.623,29.912,11.395,6.879,8.234
87,0.8,35.162,19.181,42.632,29.933,11.639,7.0,8.355
88,0.8,35.198,19.239,42.633,29.926,11.601,7.001,8.356
89,0.8,35.324,19.256,42.623,29.922,11.682,7.041,8.397
90,0.8,35.44,19.236,42.623,29.922,11.723,7.042,8.275
91,0.787,35.086,19.205,42.613,29.912,11.52,6.96,8.274
92,0.803,35.236,19.158,42.652,29.926,11.762,7.082,8.355
93,0.8,35.391,19.196,42.633,29.912,11.724,7.042,8.356
94,0.794,35.498,19.181,42.652,29.922,11.846,7.164,8.437
95,0.784,35.039,19.216,42.623,29.912,11.765,7.002,8.316
96,0.784,35.197,19.201,42.652,29.919,11.887,7.082,8.437
97,0.777,35.362,19.177,42.7,29.926,11.928,7.123,8.519
98,0.78,35.44,19.196,42.652,29.922,11.888,7.124,8.439
99,0.79,35.182,19.216,42.662,29.936,11.928,7.205,8.601
100,0.787,35.256,19.244,42.633,29.915,11.726,7.003,8.358
101,0.797,35.401,19.205,42.633,29.926,11.683,7.123,8.397
102,0.797,35.441,19.244,42.633,29.919,11.683,7.083,8.397
103,0.8,35.038,19.205,42.642,29.926,11.683,7.123,8.478
104,0.826,35.236,19.193,42.642,29.926,11.683,7.124,8.479
105,0.82,35.295,19.185,42.623,29.915,11.56,7.083,8.398
106,0.817,35.363,19.224,42.632,29.919,11.559,7.164,8.397
107,0.81,35.162,19.197,42.594,29.912,11.437,7.002,8.275
108,0.829,35.342,19.134,42.661,29.929,11.558,7.204,8.355
109,0.826,35.44,19.204,42.652,29.919,11.478,7.165,8.397
110,0.826,35.786,19.162,42.662,29.919,11.477,7.124,8.438
111,0.836,35.166,19.181,42.643,29.912,11.274,7.083,8.316
112,0.813,35.246,19.173,42.614,29.919,11.272,7.083,8.356
113,0.82,35.41,19.274,42.652,29.926,11.353,7.205,8.356
114,0.813,35.393,19.151,42.623,29.926,11.435,7.125,8.275
115,0.81,35.556,19.181,42.69,29.933,11.436,7.287,8.477
116,0.8,35.634,19.208,42.624,29.915,11.314,7.085,8.316
117,0.797,35.769,19.236,42.652,29.926,11.435,7.083,8.315
118,0.807,34.974,19.244,42.652,29.926,11.477,7.205,8.356
119,0.8,35.11,19.217,42.662,29.922,11.436,7.206,8.356
120,0.8,35.275,19.181,42.671,29.936,11.517,7.206,8.356
121,0.807,35.315,19.107,42.633,29.915,11.396,7.043,8.234
122,0.813,35.238,19.161,42.652,29.926,11.395,7.123,8.273
123,0.823,35.362,19.169,42.652,29.915,11.395,7.002,8.314
124,0.813,35.517,19.216,42.652,29.926,11.476,7.163,8.315
125,0.823,35.586,19.158,42.652,29.926,11.558,7.206,8.356
126,0.826,34.992,19.22,42.652,29.922,11.64,7.206,8.356
127,0.836,35.13,19.201,42.652,29.922,11.601,7.043,8.275
128,0.83,35.237,19.263,42.633,29.926,11.641,7.042,8.314
129,0.849,35.333,19.271,42.652,29.933,11.763,7.123,8.274
130,0.843,35.152,19.244,42.662,29.926,11.724,7.043,8.355
131,0.849,35.323,19.189,42.69,29.936,11.846,7.164,8.478
132,0.827,35.421,19.142,42.652,29.919,11.522,7.043,8.316
133,0.826,35.47,19.169,42.652,29.922,11.518,7.042,8.356
134,0.833,35.278,19.185,42.652,29.933,11.599,7.001,8.437
135,0.826,35.439,19.243,42.652,29.926,11.56,7.041,8.397
136,0.843,35.566,19.193,42.681,29.926,11.6,7.123,8.397
137,0.833,35.816,19.173,42.729,29.919,11.356,6.961,8.397
138,0.833,35.176,19.181,42.653,29.919,11.395,7.041,8.438
139,0.826,35.304,19.228,42.633,29.919,11.314,6.839,8.275
140,0.823,35.42,19.236,42.652,29.933,11.313,6.999,8.436
141,0.839,35.144,19.275,42.652,29.919,11.232,6.96,8.479
142,0.839,35.169,19.244,42.642,29.915,11.149,6.96,8.438
143,0.852,35.304,19.193,42.642,29.919,11.23,6.919,8.438
144,0.849,35.392,19.169,42.642,29.912,11.231,6.878,8.397
145,0.862,35.143,19.22,42.681,29.929,11.312,7.0,8.6
146,0.869,35.294,19.248,42.652,29.929,11.313,6.96,8.521
147,0.882,35.411,19.178,42.671,29.929,11.394,6.96,8.642
148,0.879,35.489,19.114,42.652,29.922,11.273,6.919,8.481
149,0.876,35.01,19.149,42.652,29.926,11.312,6.878,8.479
150,0.885,35.197,19.2,42.671,29.926,11.313,6.959,8.56
151,0.879,35.314,19.204,42.652,29.919,11.353,6.878,8.602
152,0.892,35.43,19.244,42.681,29.94,11.354,7.04,8.684
153,0.863,35.153,19.224,42.633,29.922,11.11,6.839,8.562
154,0.869,35.313,19.138,42.652,29.919,11.148,6.837,8.561
155,0.882,35.449,19.176,42.662,29.919,11.067,6.837,8.561
156,0.876,35.518,19.208,42.662,29.926,11.148,6.958,8.643
157,0.872,35.173,19.251,42.652,29.922,11.067,6.919,8.684
158,0.879,35.285,19.189,42.633,29.915,11.026,6.878,8.684
159,0.876,35.43,19.099,42.652,29.922,11.107,6.918,8.644
160,0.869,35.45,19.079,42.633,29.908,10.945,6.796,8.644
161,0.892,35.153,19.149,42.69,29.929,11.106,6.958,8.684
162,0.902,35.275,19.153,42.662,29.929,11.067,6.878,8.644
163,0.892,35.382,19.224,42.652,29.929,11.229,6.918,8.765
164,0.899,35.555,19.252,42.652,29.922,11.068,6.796,8.685
165,0.889,35.059,19.139,42.652,29.926,11.148,6.836,8.684
166,0.918,35.226,19.184,42.662,29.933,11.23,6.877,8.603
167,0.912,35.333,19.193,42.652,29.926,11.19,6.837,8.602
168,0.938,35.191,19.251,42.69,29.94,11.312,6.958,8.684
169,0.922,35.247,19.193,42.624,29.922,11.15,6.756,8.4
170,0.918,35.391,19.181,42.652,29.919,11.149,6.795,8.519
171,0.918,35.488,19.189,42.652,29.926,11.189,6.836,8.479
172,0.918,34.981,19.126,42.662,29.929,11.149,6.755,8.52
173,0.941,35.158,19.204,42.671,29.933,11.149,6.795,8.439
174,0.922,35.237,19.193,42.633,29.919,11.026,6.673,8.438
175,0.925,35.343,19.212,42.652,29.922,11.066,6.753,8.357
176,0.922,35.162,19.119,42.642,29.915,10.944,6.714,8.356
177,0.925,35.342,19.188,42.681,29.922,11.065,6.835,8.437
178,0.938,35.459,19.216,42.652,29.922,10.944,6.796,8.397
179,0.932,35.518,19.201,42.652,29.922,10.902,6.795,8.356
180,0.938,35.02,19.236,42.652,29.922,10.861,6.755,8.397
181,0.925,35.159,19.244,42.623,29.919,10.78,6.632,8.234
182,0.935,35.294,19.228,42.652,29.929,10.901,6.753,8.314
183,0.954,35.372,19.131,42.652,29.929,10.861,6.754,8.274
184,0.945,35.133,19.2,42.652,29.926,10.942,6.876,8.396
185,0.951,35.265,19.201,42.652,29.912,10.902,6.755,8.275
186,0.958,35.372,19.22,42.633,29.919,10.861,6.754,8.274
187,0.987,35.45,19.123,42.671,29.929,10.983,6.754,8.274
188,0.981,35.067,19.165,42.652,29.929,10.903,6.836,8.274
189,0.997,35.236,19.2,42.681,29.933,11.065,6.958,8.396
190,0.997,35.305,19.208,42.633,29.912,10.904,6.716,8.194
191,0.994,35.43,19.232,42.652,29.926,10.861,6.794,8.192
192,0.994,35.144,19.248,42.662,29.926,10.942,6.795,8.273
193,0.978,35.285,19.248,42.662,29.926,10.902,6.836,8.193
194,0.99,35.439,19.064,42.71,29.929,10.943,6.877,8.192
195,0.971,35.019,19.172,42.653,29.922,10.821,6.877,8.151
196,0.977,35.082,19.231,42.652,29.922,10.82,6.796,8.11
197,0.974,35.217,19.252,42.652,29.912,10.779,6.714,8.069
198,0.984,35.352,19.185,42.671,29.929,10.86,6.916,8.191
199,0.987,34.932,19.118,42.671,29.922,10.78,6.837,8.07
200,1.007,35.062,19.153,42.671,29.926,10.698,6.877,8.028
201,1.01,35.217,19.181,42.758,29.926,10.656,6.755,8.027
202,1.007,35.257,19.177,42.653,29.912,10.493,6.714,7.987
203,1.023,34.988,19.208,42.671,29.926,10.654,6.876,8.149
204,1.023,35.11,19.228,42.671,29.926,10.737,6.877,8.15
205,1.03,35.256,19.06,42.7,29.933,10.779,6.959,8.191
206,1.037,35.314,19.168,42.662,29.922,10.738,6.838,8.151
207,1.046,34.989,19.208,42.652,29.919,10.779,6.918,8.15
208,1.046,35.168,19.259,42.681,29.926,10.86,7.0,8.15
209,1.053,35.304,19.244,42.662,29.926,10.861,6.879,8.15
210,1.053,35.373,19.189,42.71,29.936,11.024,6.959,8.273
211,1.05,35.018,19.142,42.653,29.919,10.822,6.797,8.071
212,1.05,35.168,19.11,42.671,29.926,10.901,6.877,8.15
213,1.05,35.314,19.168,42.671,29.929,11.024,6.918,8.191
214,1.06,35.334,19.208,42.681,29.929,11.107,6.919,8.192
215,1.076,35.018,19.205,42.71,29.943,11.27,7.0,8.151
216,1.063,35.12,19.103,42.672,29.919,11.15,6.797,8.069
217,1.076,35.256,19.168,42.662,29.926,11.271,6.877,8.15
218,1.079,35.276,19.2,42.681,29.919,11.312,6.837,8.11
219,1.089,35.056,19.232,42.681,29.929,11.313,6.877,8.109
220,1.118,35.217,19.263,42.691,29.922,11.353,6.918,8.15
221,1.089,35.285,19.256,42.652,29.919,11.273,6.796,8.028
222,1.102,34.874,19.225,42.671,29.919,11.312,6.917,8.109
223,1.109,34.937,19.099,42.671,29.915,11.313,6.837,7.947
224,1.115,35.091,19.153,42.7,29.926,11.475,6.958,8.189
225,1.135,35.198,19.216,42.672,29.926,11.518,6.919,8.07
226,1.145,35.717,19.197,42.671,29.933,11.64,6.919,8.191
227,1.152,35.894,19.134,42.652,29.919,11.519,6.919,8.029
228,1.158,35.983,19.173,42.662,29.915,11.559,6.878,8.027
229,1.171,36.108,19.173,42.7,29.926,11.762,6.959,8.068
230,1.175,34.546,19.231,42.691,29.926,11.764,7.0,8.109
231,1.181,34.703,19.252,42.7,29.94,11.887,7.123,8.191
232,1.175,34.83,19.252,42.681,29.926,11.725,6.961,7.988
233,1.175,34.888,19.217,42.652,29.926,11.764,6.96,8.068
234,1.194,35.138,19.197,42.7,29.929,11.805,7.041,8.109
235,1.194,35.275,19.181,42.7,29.926,11.806,7.042,8.069
236,1.198,35.439,19.255,42.7,29.936,11.928,7.164,8.191
237,1.181,35.489,19.24,42.672,29.915,11.766,7.002,8.07
238,1.21,34.914,19.17,42.681,29.929,11.764,7.041,8.191
239,1.204,35.09,19.107,42.7,29.929,11.805,7.123,8.273
240,1.214,35.188,19.18,42.71,29.926,11.724,7.165,8.233
241,1.247,35.266,19.196,42.71,29.943,11.805,7.246,8.314
242,1.231,35.641,19.161,42.662,29.916,11.643,7.084,8.112
243,1.253,35.788,19.255,42.69,29.926,11.682,7.164,8.15
244,1.273,35.895,19.228,42.691,29.926,11.683,7.206,8.232
245,1.273,35.436,19.177,42.7,29.922,11.723,7.206,8.273
246,1.273,34.76,19.185,42.71,29.926,11.683,7.287,8.193
247,1.263,34.849,19.2,42.672,29.922,11.52,7.166,8.273
248,1.276,34.965,19.224,42.681,29.922,11.64,7.165,8.274
249,1.289,35.072,19.185,42.652,29.919,11.56,7.084,8.193
250,1.29,35.246,19.181,42.69,29.929,11.64,7.286,8.354
251,1.296,35.362,19.157,42.691,29.926,11.641,7.247,8.356
252,1.296,35.459,19.153,42.7,29.929,11.641,7.328,8.478
253,1.293,34.981,19.192,42.691,29.922,11.601,7.207,8.357
254,1.303,35.12,19.212,42.681,29.922,11.56,7.287,8.397
255,1.312,35.275,19.248,42.691,29.929,11.6,7.329,8.478
256,1.306,35.372,19.053,42.719,29.926,11.6,7.289,8.56
257,1.313,35.162,19.191,42.72,29.933,11.803,7.369,8.683
258,1.296,35.275,19.185,42.681,29.919,11.643,7.248,8.44
259,1.286,35.411,19.212,42.7,29.926,11.723,7.247,8.56
260,1.312,35.479,19.212,42.691,29.922,11.723,7.328,8.602
261,1.319,35.173,19.224,42.7,29.926,11.886,7.289,8.602
262,1.335,35.352,19.205,42.71,29.933,11.806,7.329,8.521
263,1.345,35.421,19.126,42.71,29.926,11.887,7.207,8.52
264,1.352,35.498,19.188,42.7,29.926,11.969,7.206,8.561
265,1.346,35.422,19.204,42.681,29.922,11.848,7.125,8.521
266,1.362,35.565,19.228,42.7,29.933,12.009,7.327,8.601
267,1.362,35.682,19.119,42.71,29.926,11.97,7.289,8.602
268,1.349,35.721,19.137,42.71,29.926,11.889,7.247,8.602
269,1.355,35.53,19.157,42.691,29.926,11.847,7.166,8.521
270,1.342,35.643,19.185,42.662,29.915,11.765,7.165,8.479
271,1.352,35.779,19.232,42.71,29.926,11.805,7.287,8.56
272,1.352,35.818,19.236,42.71,29.919,11.806,7.247,8.48
273,1.339,35.732,19.224,42.7,29.929,11.765,7.328,8.601
274,1.326,35.875,19.166,42.71,29.919,11.683,7.207,8.44
275,1.316,35.982,19.2,42.691,29.926,11.642,7.247,8.438
276,1.332,35.897,19.24,42.729,29.926,11.723,7.288,8.519
277,1.306,36.002,19.209,42.71,29.929,11.601,7.247,8.439
278,1.316,36.175,19.162,42.739,29.94,11.722,7.369,8.519
279,1.306,36.225,19.083,42.701,29.922,11.439,7.167,8.358
280,1.316,36.283,19.176,42.729,29.922,11.517,7.206,8.397
281,1.309,36.418,19.177,42.71,29.926,11.437,7.165,8.316
282,1.306,36.534,19.196,42.71,29.922,11.477,7.246,8.356
283,1.313,36.641,19.251,42.729,29.933,11.477,7.247,8.356
284,1.303,36.613,19.189,42.701,29.919,11.436,7.166,8.234
285,1.299,36.786,19.157,42.729,29.922,11.436,7.206,8.273
286,1.273,36.912,19.181,42.691,29.912,11.477,7.043,8.071
287,1.27,36.971,19.22,42.71,29.926,11.558,7.164,8.272
288,1.267,36.962,19.216,42.71,29.926,11.559,7.165,8.274
289,1.257,37.067,19.177,42.7,29.922,11.478,7.124,8.274
290,1.247,37.202,19.126,42.7,29.926,11.477,7.083,8.274
291,1.231,37.213,19.122,42.691,29.922,11.396,7.123,8.193
292,1.227,37.434,19.169,42.739,29.922,11.558,7.124,8.354
293,1.208,37.561,19.181,42.72,29.919,11.478,7.124,8.275
294,1.181,37.677,19.235,42.739,29.936,11.599,7.246,8.396
295,1.162,37.669,19.197,42.691,29.915,11.478,7.125,8.275
296,1.152,37.755,19.158,42.729,29.926,11.518,7.124,8.274
297,1.135,37.919,19.173,42.729,29.929,11.437,7.124,8.314
298,1.116,38.016,19.228,42.729,29.926,11.477,7.124,8.274
299,1.112,38.056,19.267,42.758,29.933,11.518,7.165,8.355
300,1.089,38.008,19.248,42.711,29.915,11.355,7.084,8.153
301,1.083,38.161,19.221,42.729,29.926,11.354,7.123,8.273
302,1.079,38.259,19.189,42.691,29.922,11.273,7.083,8.152
303,1.07,38.346,19.173,42.729,29.922,11.394,7.164,8.354
304,1.069,38.5,19.181,42.729,29.922,11.314,7.084,8.234
305,1.05,38.598,19.208,42.72,29.929,11.394,7.083,8.273
306,1.043,38.675,19.185,42.72,29.922,11.314,7.083,8.111
307,1.037,38.609,19.087,42.701,29.915,11.313,6.961,8.069
308,1.03,38.771,19.18,42.729,29.929,11.394,7.122,8.272
309,1.02,38.878,19.196,42.729,29.926,11.354,7.043,8.193
310,1.01,38.947,19.224,42.739,29.933,11.354,7.123,8.395
311,1.001,38.909,19.236,42.72,29.926,11.273,7.002,8.194
312,0.971,39.043,19.232,42.729,29.926,11.353,7.001,8.232
313,0.971,39.15,19.236,42.739,29.933,11.313,7.082,8.314
314,0.951,39.237,19.17,42.749,29.926,11.394,7.002,8.274
315,0.951,39.267,19.181,42.758,29.947,11.476,7.163,8.436
316,0.925,39.353,19.212,42.72,29.919,11.233,7.002,8.235
317,0.925,39.469,19.205,42.739,29.915,11.231,7.041,8.314
318,0.915,39.509,19.15,42.73,29.929,11.231,7.082,8.396
319,0.912,39.394,19.114,42.739,29.926,11.231,7.123,8.397
320,0.915,39.546,19.075,42.777,29.936,11.231,7.165,8.356
321,0.883,39.615,19.184,42.73,29.915,11.109,7.084,8.315
322,0.889,39.635,19.189,42.729,29.926,11.189,7.083,8.396
323,0.902,39.616,19.224,42.72,29.922,11.23,7.002,8.316
324,0.886,39.74,19.213,42.739,29.926,11.312,7.123,8.437
325,0.889,39.847,19.15,42.844,29.929,11.394,7.124,8.479
326,0.879,39.714,19.173,42.711,29.919,11.436,7.083,8.398
327,0.882,39.665,19.216,42.72,29.926,11.395,7.123,8.356
328,0.863,39.789,19.212,42.71,29.912,11.273,6.921,8.275
329,0.866,39.886,19.216,42.748,29.929,11.475,7.081,8.518
330,0.849,40.059,19.197,42.749,29.933,11.477,7.083,8.439
331,0.843,40.195,19.189,42.758,29.926,11.518,7.164,8.56
332,0.846,40.293,19.095,42.749,29.922,11.437,7.084,8.48
333,0.82,40.351,19.199,42.72,29.919,11.355,7.083,8.438
334,0.82,39.652,19.197,42.739,29.922,11.435,7.164,8.56
335,0.826,39.76,19.197,42.739,29.926,11.355,7.084,8.521
336,0.83,39.914,19.204,42.777,29.933,11.435,7.123,8.723
337,0.817,39.935,19.169,42.72,29.922,11.314,7.002,8.603
338,0.794,40.089,19.208,42.748,29.922,11.232,7.001,8.521
339,0.79,40.253,19.212,42.749,29.926,11.19,6.96,8.52
340,0.8,40.351,19.228,42.739,29.929,11.23,7.082,8.601
341,0.803,40.409,19.232,42.768,29.929,11.231,7.083,8.562
342,0.79,39.959,19.22,42.72,29.919,11.027,6.961,8.439
343,0.787,40.118,19.103,42.768,29.915,11.147,7.041,8.479
344,0.784,40.234,19.172,42.73,29.919,11.026,6.96,8.398
345,0.79,40.255,19.208,42.749,29.929,11.147,7.0,8.6
346,0.797,40.082,19.236,42.749,29.929,11.189,6.919,8.44
347,0.784,40.176,19.135,42.73,29.926,11.068,6.878,8.357
348,0.797,40.312,19.161,42.749,29.919,11.148,6.959,8.356
349,0.794,40.303,19.157,42.73,29.915,11.067,6.797,8.275
350,0.78,40.179,19.196,42.777,29.929,11.27,6.958,8.436
351,0.777,40.302,19.201,42.749,29.929,11.231,6.96,8.397
352,0.78,40.39,19.212,42.749,29.943,11.353,7.041,8.519
353,0.764,40.256,19.232,42.73,29.922,11.151,6.839,8.236
354,0.761,40.264,19.181,42.768,29.922,11.149,6.877,8.273
355,0.767,40.389,19.212,42.778,29.929,11.271,6.959,8.355
356,0.754,40.458,19.251,42.749,29.922,11.272,7.0,8.315
357,0.774,40.103,19.248,42.797,29.936,11.312,7.041,8.356
358,0.764,40.177,19.185,42.749,29.919,11.191,6.839,8.193
359,0.767,40.283,19.122,42.768,29.926,11.312,6.918,8.273
360,0.757,40.361,19.161,42.806,29.915,11.11,6.796,8.152
361,0.764,40.035,19.157,42.769,29.929,11.189,6.999,8.273
362,0.761,40.166,19.204,42.768,29.929,11.108,6.879,8.193
363,0.761,40.273,19.201,42.759,29.929,11.189,7.04,8.273
364,0.767,40.332,19.189,42.749,29.922,11.149,6.96,8.152
365,0.754,40.064,19.165,42.739,29.912,11.108,6.919,8.191
366,0.764,40.234,19.181,42.768,29.933,11.23,7.0,8.192
367,0.767,40.37,19.243,42.749,29.919,11.109,7.041,8.151
368,0.764,40.409,19.256,42.787,29.929,11.189,7.164,8.232
369,0.751,39.94,19.201,42.749,29.926,10.986,7.002,8.07
370,0.744,40.069,19.119,42.768,29.926,10.944,7.041,8.069
371,0.757,40.186,19.126,42.787,29.926,11.024,7.164,8.191
372,0.761,40.254,19.161,42.788,29.926,10.903,7.084,8.192
373,0.761,40.025,19.196,42.807,29.947,11.105,7.205,8.232
374,0.757,40.099,19.224,42.73,29.916,10.945,7.084,8.029
375,0.761,40.215,19.189,42.749,29.933,11.024,7.083,8.068
376,0.764,40.235,19.165,42.854,29.926,11.066,7.083,8.109
377,0.754,40.437,19.146,42.788,29.915,11.107,7.164,8.109
378,0.764,40.583,19.235,42.797,29.926,11.148,7.124,8.232
379,0.731,40.642,19.213,42.749,29.922,11.067,7.083,8.111
380,0.741,39.818,19.248,42.777,29.922,11.148,7.123,8.109
381,0.751,39.522,19.193,42.759,29.915,11.026,7.002,8.028
382,0.767,39.663,19.185,42.768,29.929,11.147,7.204,8.19
383,0.764,39.779,19.196,42.845,29.926,11.23,7.165,8.192
384,0.764,39.646,19.146,42.769,29.926,11.19,7.124,8.192
385,0.767,39.779,19.212,42.759,29.919,11.23,7.083,8.151
386,0.774,39.867,19.189,42.758,29.922,11.19,7.002,8.028
387,0.787,40.002,19.099,42.797,29.933,11.312,7.204,8.19
388,0.774,39.476,19.157,42.778,29.929,11.313,7.125,8.151
389,0.761,39.595,19.188,42.797,29.936,11.435,7.246,8.273
390,0.741,39.721,19.181,42.788,29.922,11.233,7.125,8.152
391,0.738,39.789,19.243,42.778,29.926,11.312,7.124,8.15
392,0.747,39.934,19.224,42.787,29.929,11.313,7.124,8.15
393,0.731,40.06,19.244,42.788,29.926,11.272,7.165,8.191
394,0.734,40.205,19.178,42.816,29.936,11.394,7.287,8.273
395,0.738,40.226,19.165,42.778,29.915,11.273,7.044,8.111
396,0.738,38.912,19.235,42.787,29.929,11.231,7.164,8.232
397,0.725,39.043,19.213,42.816,29.926,11.19,7.084,8.111
398,0.724,39.178,19.158,42.817,29.926,11.189,7.164,8.272
399,0.744,39.247,19.13,42.817,29.933,11.108,7.165,8.152
400,0.738,39.248,19.137,42.788,29.926,11.026,7.124,8.191
401,0.747,39.401,19.18,42.778,29.926,11.025,7.002,8.192
402,0.754,39.527,19.169,42.787,29.922,10.985,6.96,8.07
403,0.757,39.519,19.228,42.807,29.919,11.106,7.041,8.231
404,0.757,38.915,19.181,42.807,29.926,11.108,7.042,8.192
405,0.748,39.043,19.157,42.807,29.926,11.189,7.082,8.151
406,0.757,39.15,19.169,42.788,29.929,11.108,7.042,8.11
407,0.744,38.882,19.212,42.759,29.912,11.148,6.96,8.069
408,0.76,38.899,19.193,42.806,29.929,11.311,7.122,8.231
409,0.764,39.014,19.173,42.807,29.929,11.272,7.043,8.192
410,0.761,39.13,19.122,42.816,29.933,11.353,7.082,8.232
411,0.751,38.613,19.102,42.807,29.912,11.273,7.042,8.151
412,0.735,38.704,19.149,42.788,29.926,11.272,7.001,8.232
413,0.744,38.878,19.192,42.807,29.929,11.312,7.082,8.233
414,0.751,38.947,19.224,42.788,29.922,11.232,7.042,8.273
415,0.748,38.42,19.154,42.835,29.936,11.434,7.082,8.355
416,0.728,38.539,19.157,42.798,29.912,11.233,6.961,8.193
417,0.734,38.675,19.153,42.826,29.922,11.312,6.96,8.273
418,0.738,38.753,19.216,42.817,29.919,11.313,6.96,8.233
419,0.731,38.341,19.236,42.817,29.922,11.272,7.041,8.273
420,0.747,38.51,19.244,42.836,29.926,11.231,7.001,8.152
421,0.731,38.598,19.217,42.798,29.915,11.109,6.919,8.191
422,0.751,38.647,19.138,42.807,29.926,11.148,6.959,8.232
423,0.761,38.005,19.165,42.807,29.912,11.149,6.756,8.192
424,0.764,38.171,19.173,42.836,29.926,11.352,6.998,8.314
425,0.767,38.287,19.243,42.817,29.926,11.395,6.96,8.234
426,0.764,38.298,19.135,42.826,29.929,11.436,6.919,8.273
427,0.783,37.953,19.157,42.807,29.919,11.436,6.959,8.233
428,0.764,38.084,19.165,42.778,29.912,11.477,6.838,8.273
429,0.78,38.229,19.216,42.816,29.929,11.68,6.999,8.396
430,0.767,38.278,19.205,42.845,29.926,11.642,6.96,8.356
431,0.774,37.847,19.24,42.836,29.929,11.804,7.082,8.437
432,0.751,37.949,19.236,42.826,29.919,11.643,6.798,8.275
433,0.751,38.065,19.166,42.817,29.926,11.763,6.917,8.274
434,0.764,37.615,19.185,42.845,29.922,11.764,6.959,8.314
435,0.754,37.563,19.169,42.826,29.926,11.805,6.96,8.356
436,0.764,37.735,19.247,42.855,29.936,11.887,7.0,8.437
437,0.744,37.775,19.205,42.817,29.915,11.685,6.879,8.275
438,0.741,37.43,19.119,42.826,29.922,11.642,6.918,8.314
439,0.731,37.551,19.192,42.932,29.919,11.641,6.919,8.315
440,0.741,37.668,19.165,42.846,29.922,11.601,7.0,8.315
441,0.754,37.784,19.192,42.826,29.922,11.56,6.96,8.315
442,0.738,37.238,19.161,42.807,29.919,11.397,6.878,8.193
443,0.754,37.405,19.208,42.836,29.922,11.476,6.959,8.232
444,0.751,37.522,19.126,42.807,29.912,11.355,6.878,8.151
445,0.774,37.619,19.169,42.836,29.929,11.435,7.04,8.273
446,0.78,37.026,19.192,42.845,29.922,11.355,6.96,8.193
447,0.774,37.164,19.228,42.836,29.926,11.354,7.0,8.273
448,0.78,37.28,19.22,42.826,29.919,11.273,7.001,8.111
449,0.761,37.329,19.173,42.817,29.922,11.15,7.001,8.109
450,0.77,36.946,19.142,42.864,29.929,11.23,7.001,8.272
451,0.764,37.096,19.083,42.846,29.922,11.109,7.082,8.233
452,0.777,37.232,19.16,42.884,29.94,11.23,7.123,8.355
453,0.764,37.233,19.185,42.827,29.919,10.946,6.961,8.153
454,0.767,36.725,19.22,42.836,29.919,10.943,6.96,8.191
455,0.754,36.883,19.15,42.855,29.919,10.862,6.96,8.11
456,0.757,36.99,19.181,42.855,29.926,10.82,7.0,8.313
457,0.757,37.336,19.2,42.874,29.926,10.901,7.001,8.193
458,0.751,36.668,19.224,42.846,29.912,10.739,7.001,8.192
459,0.761,36.824,19.232,42.846,29.922,10.657,7.041,8.232
460,0.754,36.903,19.166,42.836,29.912,10.615,6.96,8.192
461,0.767,36.539,19.173,42.874,29.922,10.655,7.082,8.273
462,0.774,36.545,19.107,42.855,29.926,10.574,7.002,8.233
463,0.774,36.708,19.168,42.874,29.926,10.614,7.041,8.233
464,0.771,36.767,19.161,42.846,29.919,10.452,6.96,8.151
465,0.777,36.336,19.208,42.865,29.919,10.572,7.041,8.15
466,0.777,36.476,19.13,42.884,29.933,10.614,7.042,8.15
467,0.78,36.621,19.161,42.856,29.926,10.615,7.001,8.11
468,0.797,36.728,19.188,42.894,29.936,10.737,7.082,8.272
469,0.781,36.087,19.177,42.856,29.922,10.575,6.961,8.111
470,0.774,36.234,19.235,42.865,29.919,10.614,7.0,8.109
471,0.761,36.379,19.228,42.874,29.919,10.574,7.001,8.028
472,0.757,36.457,19.228,42.875,29.926,10.655,7.041,8.19
473,0.764,36.094,19.166,42.875,29.926,10.656,7.042,8.151
474,0.748,36.243,19.169,42.875,29.919,10.615,6.92,8.15
475,0.747,36.36,19.196,42.865,29.929,10.696,6.959,8.069
476,0.738,36.419,19.22,42.846,29.912,10.575,6.878,8.069
477,0.744,35.825,19.181,42.893,29.926,10.696,7.081,8.15
478,0.747,35.953,19.087,42.884,29.922,10.656,7.042,8.11
479,0.751,36.069,19.172,42.865,29.929,10.656,7.082,8.109
480,0.741,36.099,19.161,42.884,29.919,10.656,6.961,8.069
481,0.738,35.869,19.2,42.865,29.915,10.615,6.919,8.069
482,0.744,36.04,19.212,42.894,29.926,10.696,7.0,8.109
483,0.76,36.147,19.251,42.884,29.919,10.778,7.001,8.069
484,0.761,36.464,19.127,42.923,29.929,10.982,7.163,8.231
485,0.754,35.835,19.172,42.885,29.915,10.903,6.921,8.029
486,0.751,35.982,19.181,42.884,29.926,11.065,7.041,8.068
487,0.777,36.098,19.232,42.894,29.919,11.229,7.082,8.069
488,0.774,35.659,19.174,42.884,29.933,11.19,6.92,8.069
489,0.777,35.712,19.114,42.923,29.94,11.352,7.122,8.15
490,0.745,35.827,19.118,42.885,29.919,11.191,6.88,7.988
491,0.741,35.934,19.083,42.923,29.922,11.23,6.877,8.027
492,0.738,35.542,19.184,42.885,29.919,11.312,6.918,7.987
493,0.734,35.682,19.2,42.913,29.926,11.353,6.959,8.108
494,0.747,35.837,19.232,42.913,29.926,11.395,6.919,8.069
495,0.734,35.876,19.084,42.885,29.919,11.395,6.959,8.109
496,0.738,35.417,19.156,42.894,29.922,11.517,6.919,8.109
497,0.731,35.556,19.2,42.894,29.919,11.396,6.796,8.028
498,0.721,35.72,19.189,42.904,29.926,11.639,6.958,8.19
499,0.708,35.779,19.204,42.913,29.919,11.56,6.919,8.273
500,0.728,35.406,19.181,42.923,29.922,11.6,7.041,8.193
501,0.715,35.537,19.161,42.913,29.919,11.519,6.92,8.192
502,0.711,35.662,19.079,42.904,29.919,11.477,6.878,8.11
503,0.747,35.75,19.149,42.932,29.926,11.599,7.0,8.15
504,0.741,36.47,19.196,42.913,29.922,11.6,6.96,8.273
505,0.738,36.612,19.212,42.942,29.94,11.763,7.041,8.314
506,0.734,36.69,19.115,42.904,29.912,11.602,6.92,8.03
507,0.741,36.748,19.137,42.923,29.922,11.682,7.0,8.109
508,0.744,34.697,19.173,42.942,29.926,11.642,6.919,8.069
509,0.747,34.829,19.224,42.904,29.926,11.682,7.0,8.109
510,0.744,35.003,19.252,42.971,29.936,11.764,7.001,8.15
511,0.725,35.37,19.256,42.904,29.909,11.561,6.838,7.988
512,0.728,35.46,19.209,42.932,29.915,11.559,6.837,8.068
513,0.725,35.623,19.162,42.923,29.919,11.559,6.796,8.028
514,0.715,35.73,19.149,42.933,29.912,11.6,6.877,8.027
515,0.734,35.262,19.188,42.952,29.922,11.56,6.959,8.068
516,0.715,35.209,19.204,42.923,29.922,11.478,6.797,8.028
517,0.705,35.372,19.15,42.933,29.919,11.477,6.917,7.987
518,0.711,35.469,19.087,42.913,29.905,11.314,6.796,7.905
519,0.724,35.23,19.156,42.952,29.922,11.394,6.958,7.985
520,0.728,35.353,19.181,42.942,29.919,11.395,6.878,7.986
521,0.721,35.469,19.181,42.962,29.919,11.232,6.959,8.027
522,0.724,35.566,19.22,42.952,29.919,11.271,6.838,7.905
523,0.718,35.577,19.232,42.914,29.915,11.231,6.918,7.863
524,0.737,35.759,19.111,42.971,29.929,11.312,7.0,7.944
525,0.741,35.876,19.133,42.962,29.926,11.272,6.96,7.945
526,0.744,35.963,19.208,42.981,29.929,11.353,7.041,8.026
527,0.738,35.159,19.216,42.924,29.915,11.151,6.879,7.783
528,0.734,35.313,19.205,42.952,29.922,11.271,6.959,7.862
529,0.734,35.478,19.162,42.962,29.922,11.15,6.919,7.822
530,0.721,35.528,19.103,42.981,29.922,11.149,6.959,7.903
531,0.724,35.356,19.164,43.0,29.933,11.23,7.0,7.945
532,0.702,35.469,19.138,42.943,29.919,10.987,6.879,7.864
533,0.695,35.604,19.2,42.971,29.926,11.025,6.918,7.822
534,0.698,35.625,19.185,42.962,29.915,10.944,6.878,7.863
535,0.695,35.5,19.111,42.971,29.926,11.106,7.0,7.985
536,0.698,35.633,19.149,42.991,29.915,10.985,6.879,8.027
537,0.682,35.721,19.181,42.972,29.912,10.984,7.0,8.068
538,0.685,35.856,19.239,42.971,29.912,10.944,6.919,8.069
539,0.675,35.503,19.205,42.952,29.912,10.781,6.756,8.028
540,0.695,35.653,19.212,43.0,29.926,10.982,6.998,8.231
541,0.698,35.76,19.193,42.972,29.915,10.903,6.879,8.111
542,0.682,35.607,19.13,42.962,29.919,10.902,6.959,8.15
543,0.701,35.711,19.145,42.971,29.926,10.821,6.878,8.11
544,0.692,35.818,19.169,42.952,29.915,10.901,6.877,8.191
545,0.714,35.943,19.22,43.0,29.929,11.024,7.0,8.273
546,0.721,35.695,19.146,42.981,29.926,10.944,6.96,8.152
547,0.731,35.846,19.145,43.0,29.936,11.146,7.041,8.354
548,0.721,35.963,19.157,42.981,29.915,10.945,6.879,8.112
549,0.708,36.05,19.192,42.991,29.926,11.065,6.959,8.15
550,0.705,35.917,19.255,43.01,29.919,11.107,6.838,8.15
551,0.698,36.059,19.26,42.991,29.929,11.026,6.837,8.232
552,0.705,36.205,19.291,43.01,29.936,11.107,6.999,8.192
553,0.682,36.235,19.139,42.981,29.919,11.026,6.879,8.151
554,0.682,35.986,19.134,43.0,29.922,11.025,6.837,8.11
555,0.685,36.127,19.184,42.981,29.912,10.944,6.755,7.987
556,0.688,36.273,19.251,43.0,29.922,11.065,6.917,8.19
557,0.682,36.322,19.174,43.01,29.926,10.944,6.959,8.151
558,0.679,36.111,19.107,43.001,29.922,10.902,7.0,8.11
559,0.682,36.253,19.157,43.077,29.922,10.861,6.919,8.109
560,0.669,36.36,19.161,42.972,29.915,10.82,6.959,8.028
561,0.678,36.409,19.188,43.019,29.926,10.901,6.96,8.068
562,0.685,36.208,19.208,43.01,29.919,10.821,6.96,8.069
563,0.695,36.35,19.251,43.039,29.929,10.942,7.082,8.15
564,0.675,36.428,19.15,43.001,29.919,10.862,6.92,8.028
565,0.682,36.573,19.165,43.02,29.926,10.942,6.837,7.987
566,0.701,36.44,19.173,43.02,29.926,11.024,6.918,7.946
567,0.711,36.582,19.22,43.029,29.929,11.107,6.959,7.945
568,0.711,36.718,19.212,43.058,29.94,11.23,7.041,7.945
569,0.698,37.956,19.138,43.001,29.919,11.068,6.839,7.823
570,0.705,38.209,19.063,43.02,29.926,11.107,6.877,7.822
571,0.698,38.297,19.086,43.001,29.926,11.067,6.837,7.781
572,0.701,38.404,19.18,43.039,29.926,11.107,6.958,7.944
573,0.682,35.96,19.2,43.039,29.926,11.108,6.878,7.905
574,0.682,35.993,19.212,43.02,29.915,11.067,6.796,7.904
575,0.692,36.166,19.13,43.02,29.926,11.066,6.795,7.823
576,0.679,36.235,19.145,43.02,29.915,10.944,6.755,7.781
577,0.685,36.993,19.188,43.039,29.926,11.106,6.876,7.984
578,0.679,37.154,19.232,43.02,29.922,11.067,6.918,8.027
579,0.669,37.261,19.205,43.039,29.933,11.188,6.878,8.027
580,0.682,37.319,19.204,43.02,29.926,11.068,6.755,7.946
581,0.675,36.745,19.169,43.02,29.915,11.066,6.836,7.986
582,0.695,36.931,19.118,43.039,29.929,11.148,6.918,8.027
583,0.692,37.038,19.149,43.068,29.929,11.108,6.796,8.027
584,0.708,37.145,19.223,43.078,29.936,11.351,6.917,8.149
585,0.702,37.117,19.228,43.04,29.922,11.11,6.796,7.907
586,0.695,37.26,19.138,43.049,29.922,11.23,6.755,7.985
587,0.711,37.396,19.137,43.058,29.933,11.353,6.836,7.946
588,0.711,37.417,19.153,43.039,29.926,11.313,6.796,7.945
589,0.721,37.11,19.22,43.087,29.933,11.516,6.836,7.986
590,0.685,37.184,19.181,43.04,29.922,11.396,6.755,7.864
591,0.695,37.319,19.204,43.039,29.926,11.476,6.754,7.944
592,0.685,37.416,19.201,43.049,29.919,11.396,6.754,7.864
593,0.685,37.369,19.181,43.058,29.936,11.558,6.876,7.944
594,0.692,37.522,19.154,43.058,29.926,11.478,6.877,7.945
595,0.679,37.61,19.196,43.049,29.919,11.518,6.877,7.986
596,0.669,37.304,19.228,43.049,29.922,11.437,6.918,7.905
597,0.662,37.349,19.15,43.02,29.915,11.395,6.837,7.863
598,0.675,37.541,19.114,43.096,29.936,11.517,7.04,8.026
599,0.678,37.62,19.153,43.069,29.926,11.518,7.001,7.987
600,0.678,37.486,19.165,43.087,29.933,11.559,7.123,8.027
601,0.672,37.59,19.161,43.059,29.929,11.315,6.921,7.946
602,0.669,37.716,19.212,43.078,29.926,11.435,7.0,8.026
603,0.685,37.813,19.232,43.097,29.929,11.477,7.123,8.027
604,0.679,37.498,19.135,43.078,29.933,11.599,7.124,8.027
605,0.691,37.686,19.149,43.107,29.943,11.722,7.205,8.068
606,0.682,37.774,19.169,43.078,29.922,11.561,6.962,7.865
607,0.692,37.833,19.185,43.068,29.929,11.6,7.041,7.985
608,0.688,37.565,19.2,43.097,29.933,11.682,7.082,7.946
609,0.695,37.687,19.138,43.107,29.929,11.683,7.042,7.986
610,0.701,37.851,19.141,43.097,29.926,11.683,7.082,8.027
611,0.682,37.872,19.098,43.088,29.922,11.642,6.961,7.987
612,0.685,37.69,19.121,43.088,29.926,11.641,7.0,8.027
613,0.659,37.813,19.172,43.088,29.915,11.56,6.879,7.865
614,0.669,37.967,19.2,43.107,29.933,11.64,7.121,8.026
615,0.665,37.969,19.154,43.097,29.929,11.601,7.043,8.109
616,0.656,37.758,19.142,43.097,29.926,11.56,7.123,8.232
617,0.649,37.871,19.149,43.097,29.919,11.437,7.124,8.029
618,0.649,37.958,19.196,43.097,29.919,11.395,7.002,8.068
619,0.665,37.959,19.236,43.097,29.929,11.395,7.123,8.15
620,0.672,37.796,19.228,43.116,29.929,11.314,7.043,8.069
621,0.678,37.958,19.24,43.136,29.94,11.435,7.204,8.191
622,0.675,38.026,19.154,43.098,29.919,11.233,7.084,7.988
623,0.682,37.739,19.173,43.107,29.933,11.231,7.083,8.068
624,0.692,37.852,19.181,43.116,29.929,11.271,7.083,8.069
625,0.682,37.977,19.2,43.126,29.926,11.231,7.042,8.15
626,0.692,38.075,19.193,43.145,29.94,11.393,7.204,8.15
627,0.682,37.692,19.06,43.117,29.912,11.273,7.003,7.947
628,0.688,37.832,19.156,43.117,29.926,11.353,6.96,7.986
629,0.682,37.968,19.181,43.117,29.929,11.395,7.041,7.986
630,0.675,38.027,19.212,43.126,29.936,11.395,7.082,8.108
631,0.685,37.768,19.248,43.136,29.926,11.395,7.042,8.028
632,0.679,37.871,19.236,43.117,29.919,11.354,6.96,8.027
633,0.669,37.997,19.174,43.117,29.929,11.354,6.919,7.987
634,0.662,38.065,19.134,43.097,29.915,11.313,6.837,8.027
635,0.669,37.826,19.18,43.126,29.929,11.475,7.04,8.149
636,0.665,37.968,19.196,43.136,29.926,11.518,7.001,8.11
637,0.669,38.094,19.208,43.136,29.922,11.396,7.001,8.272
638,0.672,38.114,19.115,43.146,29.915,11.395,6.96,8.152
639,0.646,37.75,19.09,43.126,29.915,11.436,6.96,8.15
640,0.672,37.9,19.149,43.203,29.926,11.436,7.082,8.313
641,0.675,38.026,19.157,43.165,29.929,11.395,6.961,8.193
642,0.669,38.056,19.196,43.175,29.943,11.476,7.082,8.395
643,0.669,37.778,19.208,43.136,29.922,11.355,6.88,8.234
644,0.688,37.9,19.193,43.136,29.926,11.395,6.959,8.233
645,0.698,38.035,19.154,43.155,29.929,11.395,6.96,8.233
646,0.688,37.893,19.153,43.127,29.926,11.436,6.96,8.233
647,0.692,37.757,19.22,43.174,29.94,11.599,7.082,8.314
648,0.679,37.823,19.216,43.136,29.922,11.397,6.88,8.234
649,0.685,37.958,19.169,43.155,29.929,11.476,7.04,8.273
650,0.675,37.739,19.13,43.155,29.926,11.477,7.001,8.274
651,0.672,37.842,19.137,43.174,29.929,11.558,7.001,8.355
652,0.675,37.977,19.184,43.165,29.929,11.6,7.001,8.356
653,0.652,38.046,19.169,43.155,29.922,11.519,7.001,8.356
654,0.662,37.605,19.224,43.155,29.926,11.599,7.041,8.397
655,0.649,37.716,19.15,43.136,29.912,11.438,7.001,8.316
656,0.642,37.899,19.169,43.165,29.926,11.599,7.163,8.518
657,0.649,37.968,19.173,43.175,29.926,11.6,7.124,8.561
658,0.649,37.557,19.204,43.155,29.933,11.56,7.246,8.561
659,0.655,37.687,19.212,43.155,29.922,11.437,7.166,8.439
660,0.668,37.832,19.201,43.174,29.922,11.477,7.206,8.519
661,0.682,37.91,19.197,43.175,29.926,11.518,7.287,8.561
662,0.675,37.527,19.126,43.175,29.919,11.396,7.288,8.48
663,0.695,37.686,19.153,43.232,29.94,11.558,7.369,8.601
664,0.672,37.784,19.169,43.175,29.916,11.356,7.208,8.358
665,0.669,37.823,19.208,43.165,29.922,11.517,7.287,8.478
666,0.672,37.498,19.181,43.184,29.915,11.437,7.247,8.357
667,0.688,37.638,19.114,43.175,29.919,11.599,7.206,8.437
668,0.688,37.764,19.176,43.184,29.922,11.478,7.287,8.438
669,0.666,37.775,19.157,43.175,29.919,11.518,7.288,8.397
670,0.672,37.526,19.173,43.175,29.922,11.599,7.247,8.316
671,0.662,37.639,19.216,43.146,29.915,11.356,7.166,8.234
672,0.672,37.793,19.185,43.194,29.929,11.517,7.368,8.314
673,0.659,37.555,19.177,43.184,29.933,11.477,7.289,8.234
674,0.656,37.409,19.146,43.194,29.919,11.477,7.288,8.314
675,0.649,37.532,19.165,43.175,29.915,11.396,7.207,8.193
676,0.652,37.639,19.196,43.165,29.926,11.354,7.206,8.232
677,0.659,37.429,19.193,43.194,29.933,11.395,7.287,8.273
678,0.656,37.542,19.115,43.194,29.929,11.314,7.329,8.233
679,0.655,37.687,19.157,43.242,29.933,11.353,7.37,8.395
680,0.668,37.746,19.138,43.185,29.922,11.151,7.167,8.072
681,0.682,37.046,19.169,43.194,29.926,11.067,7.206,8.109
682,0.688,37.183,19.138,43.204,29.922,11.148,7.287,8.109
683,0.672,37.319,19.2,43.213,29.929,11.026,7.288,8.109
684,0.675,37.445,19.173,43.233,29.933,11.107,7.288,8.15
685,0.672,37.053,19.153,43.194,29.919,10.904,7.125,7.988
686,0.695,37.212,19.196,43.194,29.919,10.983,7.124,8.027
687,0.685,37.329,19.201,43.194,29.919,10.984,7.124,7.946
688,0.682,37.406,19.197,43.204,29.933,11.066,7.287,7.986
689,0.692,37.1,19.122,43.204,29.926,11.107,7.125,7.986
690,0.675,37.232,19.106,43.213,29.922,11.108,7.165,7.946
691,0.675,37.377,19.09,43.223,29.926,11.108,7.165,7.905
692,0.669,37.407,19.125,43.175,29.919,10.985,7.002,7.782
693,0.656,37.081,19.18,43.213,29.933,11.187,7.123,7.944
694,0.659,37.193,19.216,43.204,29.933,11.189,7.124,7.945
695,0.665,37.328,19.158,43.223,29.936,11.23,7.205,8.067
696,0.656,37.349,19.138,43.204,29.919,11.068,7.084,7.865
697,0.639,36.937,19.161,43.213,29.926,11.066,7.123,7.985
698,0.662,37.105,19.212,43.233,29.929,11.107,7.124,8.027
699,0.659,37.222,19.228,43.214,29.922,11.026,7.083,8.068
700,0.682,37.012,19.228,43.252,29.95,11.147,7.245,8.109
701,0.659,36.885,19.189,43.223,29.919,10.945,7.003,7.987
702,0.659,37.038,19.15,43.223,29.929,10.984,7.001,7.986
703,0.662,37.145,19.165,43.233,29.926,11.066,6.96,8.068
704,0.665,36.685,19.181,43.233,29.929,11.066,7.122,8.069
705,0.682,36.796,19.22,43.261,29.94,11.188,7.124,8.028
706,0.682,36.893,19.134,43.214,29.926,11.149,6.961,7.987
707,0.698,36.999,19.134,43.233,29.926,11.23,7.0,7.986
708,0.692,36.531,19.137,43.214,29.922,11.109,6.96,7.946
709,0.682,36.689,19.176,43.242,29.926,11.23,7.041,8.067
710,0.682,36.815,19.216,43.223,29.929,11.231,7.082,7.987
711,0.666,36.864,19.24,43.213,29.926,11.19,7.083,8.068
712,0.665,36.558,19.209,43.233,29.922,11.108,7.002,8.069
713,0.649,36.67,19.146,43.214,29.912,11.026,6.96,8.028
714,0.655,36.853,19.13,43.252,29.929,11.229,7.082,8.149
715,0.652,36.903,19.184,43.243,29.922,10.987,7.083,8.191
716,0.655,36.462,19.2,43.233,29.929,11.106,7.164,8.192
717,0.655,36.592,19.154,43.233,29.912,10.863,7.002,8.07
718,0.655,36.709,19.044,43.242,29.912,10.861,7.082,8.109
719,0.655,36.796,19.152,43.271,29.926,10.82,7.123,8.15
720,0.668,36.452,19.165,43.262,29.929,10.861,7.124,8.11
721,0.675,36.631,19.173,43.291,29.94,10.82,7.246,8.191
722,0.675,36.7,19.208,43.224,29.916,10.657,7.003,8.029
723,0.688,36.719,19.212,43.252,29.929,10.656,7.041,8.068
724,0.698,36.326,19.103,43.262,29.922,10.737,6.96,8.028
725,0.695,36.457,19.118,43.262,29.929,10.779,7.082,8.109
726,0.708,36.592,19.18,43.271,29.926,10.779,7.042,8.028
727,0.698,36.296,19.189,43.224,29.926,10.82,6.96,8.027
728,0.688,36.217,19.169,43.242,29.926,10.779,7.041,7.987
729,0.695,36.34,19.11,43.233,29.919,10.698,6.839,7.946
730,0.682,36.476,19.125,43.281,29.929,10.859,7.08,8.067
731,0.675,36.094,19.114,43.262,29.926,10.78,7.042,8.028
732,0.678,36.186,19.149,43.271,29.929,10.779,7.123,8.109
733,0.672,36.321,19.2,43.262,29.919,10.738,7.002,7.987
734,0.672,36.409,19.204,43.252,29.926,10.697,7.123,8.027
735,0.688,35.978,19.099,43.281,29.926,10.819,7.083,8.027
736,0.666,36.146,19.133,43.281,29.926,10.779,7.083,8.109
737,0.678,36.282,19.208,43.3,29.936,10.86,7.205,8.272
738,0.669,36.332,19.201,43.262,29.919,10.698,7.043,8.03
739,0.662,35.862,19.236,43.281,29.926,10.737,7.042,8.068
740,0.669,36.011,19.189,43.281,29.926,10.738,7.042,8.069
741,0.678,36.137,19.181,43.272,29.926,10.738,7.123,8.028
742,0.714,36.234,19.114,43.3,29.936,10.86,7.083,8.068
743,0.698,35.823,19.129,43.272,29.926,10.739,6.961,8.028
744,0.708,35.963,19.157,43.281,29.926,10.982,6.96,8.109
745,0.741,36.108,19.181,43.272,29.922,10.984,7.0,7.947
746,0.773,36.167,19.13,43.3,29.926,11.228,7.082,8.067
747,0.79,35.918,19.149,43.281,29.929,11.231,7.083,8.028
748,0.797,36.05,19.149,43.281,29.926,11.231,7.002,8.027
749,0.813,36.185,19.192,43.272,29.919,11.271,7.041,8.027
750,0.807,36.168,19.208,43.262,29.922,11.231,6.839,7.987
751,0.833,35.774,19.236,43.31,29.933,11.475,7.04,8.149
752,0.852,35.924,19.193,43.291,29.929,11.436,6.96,8.191
753,0.836,36.04,19.15,43.31,29.943,11.558,7.122,8.314
754,0.83,35.754,19.118,43.291,29.919,11.397,6.88,8.112
755,0.833,35.713,19.161,43.291,29.926,11.517,6.959,8.272
756,0.859,35.866,19.212,43.291,29.929,11.518,6.96,8.396
757,0.856,35.973,19.185,43.291,29.926,11.477,6.919,8.438
758,0.892,35.609,19.107,43.348,29.936,11.558,7.0,8.479
759,0.902,35.682,19.164,43.349,29.922,11.397,6.838,8.398
760,0.908,35.827,19.149,43.301,29.929,11.436,6.877,8.478
761,0.925,35.924,19.153,43.291,29.926,11.395,6.796,8.479
762,0.928,35.705,19.165,43.3,29.933,11.395,6.836,8.52
763,0.948,35.856,19.192,43.31,29.926,11.436,6.796,8.601
764,0.951,35.953,19.126,43.291,29.922,11.355,6.795,8.562
765,0.961,36.069,19.13,43.329,29.926,11.395,6.795,8.439
766,0.958,35.438,19.165,43.272,29.919,11.314,6.714,8.275
767,0.964,35.623,19.22,43.319,29.926,11.435,6.876,8.599
768,0.971,35.74,19.216,43.291,29.926,11.355,6.837,8.48
769,0.964,35.808,19.142,43.31,29.929,11.313,6.755,8.56
770,0.955,35.56,19.13,43.31,29.922,11.232,6.714,8.399
771,0.945,35.701,19.098,43.291,29.919,11.109,6.754,8.478
772,0.948,35.846,19.11,43.329,29.929,11.23,6.754,8.479
773,0.935,35.905,19.149,43.32,29.926,11.231,6.754,8.438
774,0.935,35.465,19.196,43.339,29.94,11.393,6.876,8.519
775,0.915,35.585,19.087,43.32,29.922,11.151,6.715,8.358
776,0.909,35.711,19.137,43.329,29.926,11.149,6.713,8.397
777,0.908,35.751,19.176,43.33,29.926,11.23,6.794,8.438
778,0.902,35.55,19.224,43.339,29.929,11.231,6.795,8.357
779,0.912,35.739,19.216,43.378,29.933,11.231,6.877,8.397
780,0.905,35.789,19.197,43.311,29.915,11.027,6.674,8.275
781,0.892,35.56,19.161,43.32,29.922,11.025,6.713,8.314
782,0.882,35.567,19.13,43.32,29.919,10.985,6.713,8.193
783,0.879,35.739,19.153,43.349,29.929,11.025,6.794,8.314
784,0.879,35.818,19.181,43.339,29.929,11.066,6.755,8.234
785,0.866,35.33,19.189,43.31,29.919,11.107,6.754,8.192
786,0.882,35.449,19.142,43.339,29.922,11.108,6.673,8.151
787,0.876,35.566,19.122,43.301,29.915,11.026,6.631,8.11
788,0.885,35.701,19.141,43.348,29.929,11.188,6.753,8.191
789,0.876,35.233,19.165,43.349,29.929,11.149,6.795,8.07
790,0.853,35.391,19.224,43.33,29.933,11.149,6.795,8.231
791,0.843,35.508,19.24,43.32,29.929,11.108,6.673,8.07
792,0.817,35.585,19.185,43.32,29.915,11.026,6.753,8.069
793,0.81,35.327,19.154,43.339,29.936,11.107,6.836,8.109
794,0.794,35.488,19.134,43.358,29.929,11.108,6.837,8.069
795,0.8,35.605,19.184,43.349,29.929,11.189,6.837,8.15
796,0.774,35.625,19.196,43.33,29.922,11.149,6.674,8.028
797,0.78,35.213,19.158,43.349,29.926,11.108,6.753,8.109
798,0.784,35.391,19.044,43.378,29.926,11.108,6.754,8.15
799,0.777,35.498,19.144,43.407,29.919,11.148,6.836,8.11
800,0.78,35.585,19.165,43.388,29.943,11.189,6.958,8.232
801,0.764,35.375,19.149,43.33,29.919,10.946,6.716,8.07
802,0.764,35.555,19.216,43.349,29.922,10.984,6.713,8.069
803,0.761,35.663,19.216,43.349,29.929,10.944,6.794,7.987
804,0.751,35.923,19.15,43.358,29.926,10.984,6.755,8.027
805,0.754,35.216,19.145,43.368,29.933,10.984,6.795,8.068
806,0.735,35.314,19.173,43.359,29.915,10.903,6.714,7.987
807,0.734,35.421,19.181,43.368,29.929,10.902,6.794,7.986
808,0.728,35.249,19.177,43.349,29.919,10.821,6.714,7.946
809,0.731,35.295,19.142,43.378,29.926,10.942,6.835,8.067
810,0.699,35.459,19.102,43.359,29.929,10.902,6.755,8.109
811,0.692,35.556,19.098,43.349,29.922,10.821,6.795,8.15
812,0.688,35.107,19.118,43.368,29.929,10.698,6.795,8.15
813,0.682,35.198,19.172,43.339,29.919,10.575,6.673,8.028
814,0.685,35.362,19.216,43.368,29.929,10.696,6.753,8.19
815,0.666,35.44,19.142,43.378,29.922,10.697,6.795,8.151
816,0.652,35.096,19.157,43.378,29.936,10.656,6.836,8.354
817,0.642,35.217,19.149,43.368,29.926,10.452,6.714,8.153
818,0.642,35.352,19.208,43.368,29.929,10.491,6.794,8.191
819,0.655,35.45,19.216,43.387,29.933,10.491,6.795,8.151
820,0.652,35.173,19.189,43.359,29.922,10.41,6.836,8.191
821,0.659,35.352,19.193,43.406,29.936,10.572,6.877,8.354
822,0.652,35.431,19.173,43.369,29.919,10.33,6.633,8.193
823,0.652,35.518,19.142,43.387,29.922,10.449,6.753,8.273
824,0.665,35.25,19.18,43.388,29.926,10.491,6.673,8.152
825,0.656,35.381,19.2,43.388,29.926,10.614,6.794,8.232
826,0.662,35.536,19.146,43.397,29.926,10.574,6.795,8.111
827,0.652,35.528,19.126,43.388,29.919,10.574,6.633,8.15
828,0.668,35.02,19.137,43.378,29.922,10.655,6.712,8.069
829,0.659,35.159,19.173,43.378,29.919,10.656,6.632,7.987
830,0.659,35.285,19.189,43.397,29.929,10.737,6.712,8.19
831,0.652,35.66,19.208,43.397,29.926,10.738,6.754,8.11
832,0.629,35.242,19.201,43.378,29.929,10.738,6.714,8.15
833,0.629,35.372,19.158,43.378,29.919,10.697,6.672,8.15
834,0.616,35.488,19.122,43.368,29.915,10.575,6.591,8.11
835,0.616,35.163,19.157,43.407,29.936,10.736,6.753,8.191
836,0.613,35.179,19.181,43.397,29.922,10.697,6.714,8.192
837,0.616,35.314,19.196,43.407,29.929,10.859,6.794,8.314
838,0.613,35.421,19.111,43.388,29.926,10.658,6.673,8.112
839,0.603,35.019,19.071,43.416,29.919,10.696,6.672,8.15
840,0.629,35.168,19.164,43.397,29.933,10.778,6.672,8.191
841,0.629,35.294,19.161,43.407,29.926,10.698,6.672,8.11
842,0.639,35.411,19.204,43.436,29.933,10.9,6.835,8.272
843,0.623,35.163,19.216,43.398,29.922,10.699,6.633,8.111
844,0.642,35.313,19.138,43.407,29.926,10.819,6.631,8.15
845,0.646,35.488,19.134,43.407,29.919,10.82,6.672,8.15
846,0.649,35.537,19.157,43.397,29.926,10.901,6.631,8.15
847,0.665,37.024,19.212,43.416,29.936,10.983,6.712,8.15
848,0.633,37.106,19.208,43.388,29.905,10.903,6.551,8.069
849,0.632,37.251,19.158,43.416,29.919,10.943,6.63,8.15
850,0.623,37.3,19.122,43.417,29.919,10.902,6.468,8.11
851,0.623,34.184,19.114,43.436,29.926,10.983,6.67,8.272
852,0.629,34.354,19.137,43.426,29.922,10.984,6.631,8.233
853,0.619,34.471,19.157,43.407,29.922,11.025,6.672,8.273
854,0.623,34.52,19.192,43.388,29.908,10.985,6.55,8.233
855,0.606,35.393,19.142,43.388,29.901,10.944,6.59,8.233
856,0.616,35.584,19.149,43.436,29.919,11.106,6.712,8.355
857,0.603,35.721,19.161,43.426,29.915,11.067,6.551,8.356
858,0.606,35.962,19.22,43.445,29.926,11.229,6.752,8.437
859,0.6,35.034,19.209,43.398,29.912,10.987,6.551,8.275
860,0.616,35.149,19.22,43.426,29.912,11.066,6.63,8.274
861,0.629,35.285,19.193,43.426,29.926,11.148,6.59,8.233
862,0.629,35.161,19.154,43.426,29.929,11.149,6.631,8.355
863,0.632,35.266,19.145,43.455,29.929,11.149,6.59,8.275
864,0.623,35.353,19.141,43.407,29.926,11.189,6.59,8.274
865,0.636,35.469,19.188,43.417,29.922,11.271,6.631,8.274
866,0.639,35.029,19.126,43.397,29.915,11.15,6.55,8.071
867,0.646,35.188,19.133,43.416,29.929,11.393,6.671,8.231
868,0.639,35.333,19.145,43.436,29.922,11.395,6.672,8.192
869,0.642,35.43,19.188,43.436,29.929,11.354,6.713,8.273
870,0.629,35.057,19.2,43.426,29.922,11.313,6.591,8.111
871,0.613,35.207,19.216,43.407,29.922,11.232,6.631,8.109
872,0.623,35.362,19.212,43.445,29.926,11.312,6.712,8.191
873,0.603,35.421,19.154,43.427,29.933,11.232,6.794,8.11
874,0.622,35.048,19.153,43.455,29.936,11.312,6.836,8.191
875,0.606,35.178,19.153,43.417,29.922,11.069,6.714,7.988
876,0.593,35.314,19.227,43.445,29.929,11.066,6.713,8.108
877,0.603,35.363,19.158,43.446,29.926,11.066,6.754,8.028
878,0.603,35.172,19.106,43.465,29.929,11.107,6.795,8.068
879,0.6,35.371,19.137,43.542,29.929,11.148,6.795,8.069
880,0.613,35.431,19.13,43.447,29.929,10.986,6.714,8.028
881,0.623,35.46,19.188,43.446,29.926,10.984,6.794,8.027
882,0.619,35.01,19.157,43.427,29.922,10.984,6.714,7.946
883,0.636,35.159,19.231,43.445,29.926,11.147,6.794,8.148
884,0.659,35.275,19.131,43.436,29.922,11.23,6.755,8.11
885,0.665,35.497,19.149,43.446,29.919,11.231,6.795,8.069
886,0.672,35.192,19.173,43.427,29.926,11.231,6.755,8.069
887,0.688,35.295,19.181,43.398,29.915,11.068,6.673,8.028
888,0.718,35.449,19.173,43.436,29.933,11.27,6.794,8.19
889,0.754,35.441,19.122,43.446,29.926,11.231,6.755,8.11
890,0.757,35.556,19.075,43.484,29.936,11.353,6.836,8.313
891,0.783,35.682,19.086,43.446,29.926,11.191,6.714,8.112
892,0.8,35.769,19.153,43.446,29.926,11.271,6.754,8.272
893,0.81,34.773,19.173,43.465,29.929,11.272,6.754,8.274
894,0.82,34.859,19.204,43.446,29.929,11.394,6.754,8.274
895,0.859,35.032,19.119,43.484,29.943,11.558,6.836,8.396
896,0.875,35.111,19.137,43.456,29.919,11.397,6.674,8.275
897,0.911,35.045,19.176,43.436,29.926,11.558,6.794,8.355
898,0.944,35.178,19.204,43.465,29.926,11.559,6.795,8.397
899,0.984,35.314,19.212,43.455,29.929,11.64,6.877,8.478
900,1.033,35.411,19.169,43.465,29.929,11.682,6.796,8.438
901,1.063,34.904,19.157,43.446,29.926,11.601,6.673,8.357
902,1.089,35.081,19.04,43.465,29.926,11.641,6.713,8.397
903,1.135,35.207,19.113,43.436,29.915,11.641,6.713,8.275
904,1.19,35.256,19.204,43.455,29.929,11.804,6.754,8.477
905,1.224,35.084,19.204,43.446,29.933,11.765,6.754,8.398
906,1.256,35.236,19.103,43.455,29.926,11.887,6.714,8.397
907,1.292,35.343,19.114,43.446,29.926,11.806,6.713,8.356
908,1.296,35.363,19.145,43.417,29.919,11.765,6.591,8.356
909,1.338,35.057,19.188,43.474,29.936,11.968,6.753,8.478
910,1.329,35.197,19.197,43.456,29.926,11.889,6.673,8.438
911,1.293,35.333,19.204,43.475,29.933,11.928,6.835,8.519
912,1.26,35.44,19.173,43.465,29.926,11.888,6.633,8.317
913,1.195,35.067,19.134,43.465,29.922,11.888,6.672,8.396
914,1.165,35.255,19.13,43.475,29.929,11.847,6.753,8.397
915,1.135,35.362,19.18,43.475,29.926,11.887,6.714,8.356
916,1.155,35.047,19.208,43.523,29.936,12.01,6.876,8.478
917,1.087,35.082,19.13,43.466,29.922,11.808,6.674,8.235
918,1.018,35.226,19.122,43.475,29.929,11.765,6.672,8.273
919,0.978,35.333,19.172,43.484,29.926,11.805,6.713,8.314
920,0.893,35.047,19.146,43.484,29.926,11.846,6.754,8.234
921,0.82,35.216,19.2,43.504,29.929,11.765,6.795,8.233
922,0.696,35.285,19.193,43.456,29.915,11.724,6.592,8.192
923,0.617,35.392,19.2,43.475,29.919,11.723,6.712,8.11
924,0.476,34.913,19.119,43.475,29.922,11.723,6.591,8.028
925,0.371,35.09,19.129,43.484,29.926,11.805,6.712,8.231
926,0.275,35.217,19.173,43.475,29.922,11.724,6.713,8.151
927,0.183,35.276,19.189,43.465,29.926,11.683,6.632,8.11
928,0.13,35.085,19.15,43.465,29.926,11.723,6.631,8.109
929,0.042,35.207,19.087,43.446,29.919,11.561,6.55,8.028
930,-0.05,35.391,19.086,43.484,29.936,11.762,6.671,8.149
931,-0.145,35.421,19.117,43.484,29.929,11.724,6.631,8.11
932,-0.159,35.009,19.141,43.494,29.933,11.723,6.753,8.15
933,-0.176,35.139,19.18,43.465,29.922,11.52,6.551,8.069
934,-0.159,35.246,19.189,43.455,29.926,11.559,6.59,8.028
935,-0.114,35.314,19.076,43.503,29.933,11.559,6.631,8.149
936,-0.097,35.181,19.121,43.485,29.926,11.478,6.59,8.15
937,-0.042,35.352,19.18,43.523,29.94,11.558,6.753,8.232
938,-0.009,35.421,19.208,43.456,29.912,11.356,6.551,8.029
939,0.034,35.45,19.197,43.494,29.919,11.313,6.549,8.027
940,0.103,35.144,19.177,43.475,29.926,11.394,6.63,8.068
941,0.149,35.294,19.146,43.494,29.926,11.354,6.672,8.028
942,0.205,35.42,19.118,43.523,29.94,11.476,6.753,8.149
943,0.257,35.038,19.118,43.485,29.922,11.396,6.673,7.947
944,0.316,35.149,19.188,43.504,29.926,11.436,6.631,8.026
945,0.366,35.256,19.177,43.494,29.929,11.436,6.631,7.946
946,0.435,35.382,19.118,43.504,29.933,11.558,6.712,8.026
947,0.51,35.028,19.122,43.494,29.933,11.559,6.754,8.027
948,0.537,35.14,19.137,43.475,29.919,11.519,6.673,7.987
949,0.573,35.285,19.196,43.484,29.929,11.437,6.672,7.986
950,0.596,35.372,19.201,43.456,29.915,11.477,6.509,7.864
951,0.635,35.344,19.22,43.503,29.929,11.599,6.792,8.107
952,0.642,35.488,19.166,43.504,29.929,11.6,6.714,8.109
953,0.642,35.624,19.091,43.513,29.936,11.519,6.835,8.109
954,0.655,35.692,19.106,43.494,29.926,11.355,6.714,8.069
955,0.649,35.252,19.168,43.484,29.926,11.354,6.794,8.109
956,0.659,35.41,19.177,43.532,29.933,11.395,6.836,8.109
957,0.662,35.556,19.091,43.523,29.926,11.314,6.877,8.232
958,0.672,35.605,19.133,43.542,29.936,11.313,6.959,8.273
959,0.669,34.973,19.145,43.485,29.919,11.11,6.756,8.111
960,0.678,35.139,19.188,43.504,29.926,11.067,6.795,8.109
961,0.678,35.256,19.185,43.523,29.929,10.985,6.836,8.109
962,0.672,35.286,19.181,43.523,29.926,11.025,6.877,8.15
963,0.688,35.2,19.181,43.523,29.926,11.025,6.877,8.191
964,0.675,35.276,19.154,43.514,29.919,11.025,6.796,8.07
965,0.669,35.43,19.149,43.504,29.926,11.066,6.795,8.191
966,0.678,35.345,19.173,43.485,29.922,10.985,6.714,8.07
967,0.695,35.056,19.185,43.513,29.933,11.187,6.835,8.191
968,0.695,35.188,19.118,43.513,29.922,11.23,6.877,8.151
969,0.698,35.314,19.079,43.523,29.933,11.231,6.959,8.15
970,0.695,35.104,19.117,43.504,29.926,11.231,6.919,8.15
971,0.682,35.179,19.102,43.485,29.915,11.19,6.796,8.15
972,0.692,35.362,19.141,43.513,29.926,11.393,6.917,8.232
973,0.682,35.44,19.188,43.504,29.929,11.354,6.837,8.151
974,0.669,35.125,19.157,43.513,29.929,11.273,6.958,8.273
975,0.688,35.294,19.134,43.523,29.919,11.272,6.878,8.152
976,0.679,35.382,19.137,43.504,29.919,11.231,6.918,8.232
977,0.682,35.508,19.188,43.542,29.929,11.231,6.919,8.314
978,0.669,35.125,19.228,43.523,29.926,11.19,6.878,8.274
979,0.669,35.275,19.174,43.542,29.936,11.23,7.04,8.314
980,0.669,35.372,19.146,43.504,29.922,11.027,6.879,8.152
981,0.665,35.431,19.056,43.494,29.919,11.025,6.877,8.191
982,0.678,35.144,19.133,43.523,29.929,11.066,6.918,8.232
983,0.685,35.285,19.126,43.514,29.929,11.066,6.919,8.273
984,0.708,35.449,19.196,43.552,29.943,11.27,7.0,8.314
985,0.695,35.46,19.13,43.495,29.916,11.109,6.797,8.03
986,0.708,35.144,19.149,43.513,29.922,11.189,6.877,8.149
987,0.711,35.304,19.169,43.504,29.926,11.189,6.877,8.15
988,0.708,35.411,19.185,43.523,29.929,11.271,6.877,8.15
989,0.715,35.479,19.247,43.542,29.943,11.312,6.877,8.191
990,0.695,35.202,19.182,43.504,29.922,11.272,6.796,8.11
991,0.695,35.333,19.165,43.513,29.926,11.272,6.836,8.15
992,0.698,35.459,19.114,43.485,29.915,11.272,6.755,7.988
993,0.695,35.403,19.141,43.523,29.929,11.434,6.917,8.19
994,0.698,35.182,19.138,43.542,29.929,11.395,6.878,8.232
995,0.685,35.295,19.196,43.504,29.922,11.395,6.959,8.07
996,0.688,35.42,19.173,43.504,29.922,11.395,6.96,8.109
997,0.672,35.124,19.079,43.504,29.915,11.273,6.919,8.069
998,0.695,35.246,19.164,43.523,29.933,11.434,7.081,8.191
999,0.701,35.391,19.153,43.523,29.933,11.355,7.002,8.11
1000,0.714,35.488,19.188,43.523,29.933,11.354,7.041,8.191
1001,0.711,35.106,19.173,43.504,29.926,11.273,6.96,8.029
1002,0.708,35.236,19.192,43.485,29.919,11.272,7.041,8.027
1003,0.711,35.401,19.161,43.542,29.926,11.394,7.082,8.109
1004,0.711,35.498,19.13,43.523,29.933,11.436,7.002,8.109
1005,0.721,35.211,19.169,43.571,29.94,11.599,7.163,8.191
1006,0.724,35.304,19.189,43.504,29.922,11.397,6.962,7.948
1007,0.744,35.449,19.165,43.523,29.926,11.436,7.082,7.945
1008,0.747,35.547,19.126,43.533,29.926,11.517,7.042,7.945
1009,0.744,35.174,19.028,43.552,29.926,11.599,7.123,7.986
1010,0.754,35.362,19.152,43.543,29.929,11.6,7.165,7.946
1011,0.738,35.44,19.13,43.514,29.919,11.478,7.002,7.905
1012,0.741,35.489,19.153,43.513,29.922,11.558,7.082,7.904
1013,0.738,35.163,19.22,43.504,29.915,11.559,6.961,7.863
1014,0.738,35.323,19.17,43.523,29.929,11.681,7.163,7.944
1015,0.728,35.459,19.138,43.523,29.933,11.764,7.165,7.986
1016,0.702,35.48,19.149,43.542,29.922,11.846,7.084,7.986
1017,0.708,35.163,19.204,43.514,29.922,11.847,7.083,7.864
1018,0.724,35.275,19.189,43.504,29.908,11.887,7.002,7.822
1019,0.721,35.439,19.15,43.542,29.926,11.969,7.123,8.025
1020,0.737,35.336,19.126,43.542,29.926,11.97,7.124,7.987
1021,0.734,35.219,19.075,43.542,29.929,12.051,7.205,8.027
1022,0.741,35.352,19.145,43.523,29.919,12.011,7.125,7.824
1023,0.744,35.469,19.13,43.504,29.922,12.133,7.124,7.822
1024,0.76,35.134,19.192,43.552,29.933,12.256,7.165,7.944
1025,0.748,35.227,19.126,43.543,29.922,12.298,7.124,7.905
1026,0.764,35.391,19.122,43.562,29.936,12.583,7.287,7.863
1027,0.77,35.45,19.137,43.514,29.919,12.383,7.004,7.741
1028,0.77,35.182,19.176,43.523,29.915,12.543,7.041,7.821
1029,0.774,35.333,19.204,43.533,29.929,12.586,7.082,7.781
1030,0.774,35.469,19.212,43.533,29.929,12.627,7.042,7.822
1031,0.777,35.576,19.181,43.552,29.933,12.708,7.123,7.822
1032,0.761,35.078,19.142,43.514,29.926,12.546,7.002,7.7
1033,0.761,35.246,19.161,43.533,29.919,12.545,7.123,7.699
1034,0.748,35.401,19.138,43.523,29.915,12.504,7.043,7.658
1035,0.76,35.46,19.2,43.533,29.929,12.626,7.204,7.739
1036,0.754,35.182,19.15,43.523,29.926,12.505,7.165,7.862
1037,0.741,35.352,19.06,43.523,29.926,12.423,7.124,7.782
1038,0.751,35.459,19.125,43.523,29.922,12.422,7.205,7.7
1039,0.744,35.508,19.118,43.514,29.919,12.3,7.084,7.74
1040,0.764,35.221,19.192,43.542,29.926,12.38,7.205,7.74
1041,0.754,35.352,19.197,43.542,29.922,12.258,7.125,7.699
1042,0.767,35.478,19.224,43.533,29.936,12.257,7.246,7.861
1043,0.757,35.499,19.177,43.523,29.919,12.135,7.084,7.66
1044,0.767,35.144,19.15,43.533,29.929,12.175,7.205,7.658
1045,0.78,35.304,19.134,43.542,29.933,12.175,7.206,7.78
1046,0.793,35.43,19.192,43.514,29.926,12.135,7.206,7.659
1047,0.806,35.326,19.208,43.561,29.943,12.215,7.287,7.78
1048,0.79,35.2,19.103,43.514,29.922,12.054,7.085,7.578
1049,0.8,35.343,19.082,43.523,29.926,12.011,7.164,7.616
1050,0.794,35.459,19.137,43.619,29.926,11.97,7.206,7.657
1051,0.79,35.086,19.141,43.534,29.926,11.889,7.247,7.739
1052,0.8,35.179,19.169,43.523,29.929,11.888,7.288,7.699
1053,0.781,35.314,19.192,43.504,29.926,11.725,7.288,7.699
1054,0.78,35.401,19.158,43.513,29.926,11.723,7.207,7.658
1055,0.787,35.067,19.118,43.485,29.912,11.561,7.125,7.617
1056,0.8,35.245,19.145,43.542,29.933,11.722,7.327,7.779
1057,0.797,35.391,19.177,43.523,29.926,11.561,7.289,7.74
1058,0.797,35.479,19.212,43.542,29.94,11.6,7.451,7.943
1059,0.79,35.067,19.162,43.514,29.916,11.397,7.249,7.701
1060,0.81,35.217,19.134,43.542,29.926,11.395,7.288,7.74
1061,0.807,35.352,19.102,43.533,29.929,11.273,7.329,7.781
1062,0.807,35.431,19.137,43.542,29.933,11.231,7.329,7.7
1063,0.816,35.115,19.165,43.571,29.943,11.353,7.451,7.821
1064,0.82,35.227,19.173,43.504,29.916,11.151,7.208,7.659
1065,0.839,35.343,19.15,43.513,29.926,11.108,7.287,7.698
1066,0.839,35.411,19.134,43.523,29.926,11.026,7.247,7.699
1067,0.843,35.076,19.141,43.523,29.929,11.107,7.288,7.74
1068,0.846,35.226,19.169,43.523,29.926,10.985,7.288,7.74
1069,0.84,35.324,19.22,43.485,29.926,10.944,7.166,7.659
1070,0.849,35.354,19.197,43.513,29.926,10.862,7.246,7.698
1071,0.83,35.104,19.173,43.494,29.912,10.739,7.084,7.618
1072,0.839,35.275,19.181,43.523,29.936,10.86,7.286,7.779
1073,0.83,35.391,19.142,43.504,29.926,10.739,7.207,7.7
1074,0.836,35.153,19.149,43.533,29.933,10.779,7.287,7.861
1075,0.839,35.035,19.184,43.494,29.926,10.616,7.166,7.782
1076,0.83,35.168,19.173,43.523,29.929,10.655,7.165,7.781
1077,0.836,35.294,19.114,43.552,29.929,10.696,7.287,7.903
1078,0.839,34.893,19.149,43.523,29.929,10.575,7.207,7.904
1079,0.856,35.023,19.173,43.561,29.936,10.614,7.369,7.945
1080,0.843,35.111,19.173,43.504,29.919,10.452,7.167,7.823
1081,0.856,35.246,19.192,43.523,29.919,10.491,7.206,7.903
1082,0.859,34.96,19.193,43.504,29.919,10.491,7.206,7.904
1083,0.869,35.101,19.165,43.533,29.929,10.491,7.206,7.985
1084,0.885,35.265,19.126,43.552,29.933,10.654,7.165,7.946
1085,0.876,35.324,19.149,43.514,29.922,10.615,7.165,7.945
1086,0.905,34.807,19.177,43.504,29.922,10.655,7.206,7.945
1087,0.899,34.974,19.142,43.485,29.922,10.615,7.043,7.783
1088,0.895,35.11,19.102,43.523,29.929,10.818,7.204,8.066
1089,0.892,35.198,19.125,43.514,29.922,10.779,7.206,7.946
1090,0.879,34.892,19.165,43.533,29.936,10.86,7.247,8.026
1091,0.882,35.042,19.146,43.523,29.922,10.78,7.125,7.946
1092,0.879,35.149,19.161,43.504,29.926,10.82,7.124,7.945
1093,0.895,35.246,19.2,43.523,29.926,10.901,7.165,8.026
1094,0.899,34.787,19.099,43.523,29.926,10.943,7.124,8.027
1095,0.908,34.965,19.145,43.552,29.933,11.065,7.287,8.19
1096,0.899,35.072,19.157,43.504,29.926,10.904,7.044,8.029
1097,0.892,35.102,19.216,43.504,29.929,11.024,7.204,8.068
1098,0.899,34.766,19.169,43.523,29.929,11.107,7.165,8.069
1099,0.908,34.897,19.138,43.523,29.922,11.108,7.206,8.109
1100,0.931,35.042,19.106,43.542,29.933,11.108,7.165,8.109
1101,0.915,34.862,19.094,43.504,29.919,11.067,7.124,7.987
1102,0.935,34.86,19.118,43.504,29.926,11.066,7.083,8.027
1103,0.951,34.994,19.18,43.504,29.926,11.107,7.002,7.987
1104,0.951,35.12,19.208,43.513,29.926,11.23,7.163,8.068
1105,0.964,34.747,19.091,43.523,29.926,11.353,7.165,8.028
1106,0.968,34.859,19.125,43.504,29.929,11.354,7.124,7.987
1107,0.968,34.994,19.133,43.504,29.926,11.395,7.083,7.946
1108,0.964,35.082,19.192,43.485,29.915,11.273,7.002,7.783
1109,0.987,34.699,19.189,43.504,29.929,11.516,7.123,7.944
1110,0.984,34.839,19.181,43.513,29.926,11.518,7.124,7.986
1111,0.984,34.984,19.146,43.504,29.929,11.559,7.165,7.946
1112,0.978,35.043,19.122,43.494,29.926,11.519,7.124,7.945
1113,0.984,34.699,19.133,43.504,29.922,11.559,7.043,7.945
1114,0.997,34.887,19.176,43.513,29.936,11.6,7.082,7.986
1115,1.0,35.033,19.208,43.494,29.926,11.6,7.042,7.946
1116,1.017,35.12,19.134,43.532,29.936,11.722,7.204,8.108
1117,1.004,34.709,19.11,43.494,29.915,11.561,6.962,7.947
1118,1.02,34.868,19.106,43.504,29.922,11.559,7.0,8.067
1119,1.023,35.004,19.157,43.504,29.922,11.64,7.001,7.946
1120,1.033,35.053,19.157,43.523,29.929,11.601,7.041,8.026
1121,1.056,34.718,19.212,43.514,29.933,11.6,7.082,8.068
1122,1.047,34.839,19.177,43.485,29.919,11.56,7.002,7.987
1123,1.063,34.975,19.157,43.504,29.922,11.6,6.919,8.068
1124,1.063,34.986,19.126,43.485,29.922,11.641,6.919,7.987
1125,1.079,34.689,19.18,43.484,29.929,11.682,7.081,8.149
1126,1.079,34.848,19.169,43.504,29.929,11.723,7.042,8.11
1127,1.076,34.927,19.138,43.475,29.926,11.764,7.042,8.109
1128,1.089,34.765,19.063,43.513,29.926,11.724,6.96,8.109
1129,1.089,34.715,19.09,43.466,29.919,11.601,6.797,8.028
1130,1.099,34.897,19.129,43.513,29.929,11.803,7.039,8.19
1131,1.102,35.004,19.161,43.504,29.929,11.765,6.96,8.11
1132,1.106,34.612,19.204,43.504,29.936,11.805,7.041,8.232
1133,1.099,34.704,19.224,43.465,29.922,11.643,6.879,8.111
1134,1.099,34.868,19.119,43.494,29.929,11.641,6.959,8.15
1135,1.099,34.985,19.149,43.504,29.926,11.723,6.96,8.069
1136,1.093,34.65,19.153,43.504,29.926,11.601,6.96,8.15
1137,1.118,34.839,19.2,43.523,29.94,11.763,7.082,8.273
1138,1.106,34.927,19.169,43.504,29.922,11.439,6.92,8.071
1139,1.128,35.024,19.122,43.494,29.926,11.517,7.0,8.109
1140,1.148,34.679,19.094,43.494,29.926,11.518,6.96,8.109
1141,1.152,34.82,19.051,43.494,29.933,11.437,7.041,8.15
1142,1.165,34.994,19.137,43.504,29.933,11.436,7.001,8.191
1143,1.158,35.024,19.165,43.494,29.926,11.355,6.919,8.192
1144,1.178,34.785,19.181,43.494,29.919,11.395,6.919,8.151
1145,1.168,34.945,19.095,43.465,29.919,11.395,6.837,8.069
1146,1.201,35.081,19.149,43.484,29.926,11.476,6.999,8.231
1147,1.201,35.131,19.138,43.494,29.929,11.436,6.96,8.192
1148,1.194,34.757,19.196,43.475,29.926,11.395,7.0,8.192
1149,1.207,34.907,19.189,43.484,29.926,11.354,6.838,8.11
1150,1.194,35.014,19.181,43.484,29.926,11.354,6.837,8.191
1151,1.207,35.082,19.154,43.504,29.933,11.354,6.958,8.232
1152,1.217,35.054,19.126,43.513,29.929,11.354,7.0,8.273
1153,1.204,35.217,19.141,43.523,29.943,11.395,7.001,8.355
1154,1.175,35.314,19.141,43.466,29.926,11.273,6.838,8.112
1155,1.178,35.123,19.208,43.475,29.922,11.312,6.918,8.191
1156,1.184,35.093,19.103,43.503,29.922,11.313,6.878,8.192
1157,1.191,35.246,19.149,43.571,29.922,11.313,6.918,8.273
1158,1.191,35.362,19.141,43.495,29.919,11.272,6.878,8.233
1159,1.178,35.2,19.18,43.475,29.926,11.231,6.877,8.273
1160,1.188,35.333,19.173,43.484,29.922,11.149,6.837,8.193
1161,1.181,35.43,19.2,43.456,29.919,11.026,6.796,8.192
1162,1.194,35.566,19.216,43.494,29.926,11.229,6.958,8.314
1163,1.191,35.404,19.119,43.494,29.922,11.271,6.878,8.274
1164,1.188,35.575,19.114,43.504,29.94,11.353,7.0,8.355
1165,1.194,35.653,19.141,43.475,29.926,11.232,6.797,8.112
1166,1.198,35.75,19.204,43.465,29.929,11.271,6.795,8.191
1167,1.188,35.636,19.146,43.484,29.933,11.312,6.836,8.232
1168,1.194,35.779,19.087,43.484,29.929,11.394,6.837,8.192
1169,1.194,35.943,19.133,43.58,29.94,11.517,6.877,8.273
1170,1.149,35.964,19.153,43.466,29.922,11.315,6.674,8.152
1171,1.135,35.954,19.145,43.494,29.922,11.394,6.753,8.232
1172,1.132,36.098,19.149,43.484,29.929,11.395,6.714,8.07
1173,1.122,36.215,19.2,43.475,29.929,11.395,6.835,8.15
1174,1.122,36.273,19.126,43.503,29.933,11.395,6.714,8.15
1175,1.099,36.312,19.122,43.465,29.922,11.395,6.713,8.15
1176,1.093,36.476,19.145,43.475,29.919,11.476,6.713,8.15
1177,1.073,36.564,19.212,43.465,29.922,11.396,6.591,8.028
1178,1.069,36.641,19.193,43.475,29.929,11.517,6.671,8.231
1179,1.06,36.671,19.126,43.475,29.919,11.396,6.713,8.192
1180,1.056,36.786,19.063,43.465,29.926,11.354,6.794,8.192
1181,1.053,36.893,19.047,43.475,29.922,11.313,6.673,8.07
1182,1.03,36.846,19.148,43.446,29.915,11.394,6.672,8.069
1183,1.024,36.961,19.161,43.484,29.929,11.558,6.713,8.191
1184,1.017,37.077,19.192,43.475,29.929,11.478,6.754,8.11
1185,1.004,37.212,19.091,43.503,29.936,11.721,6.836,8.191
1186,0.994,37.214,19.102,43.465,29.929,11.601,6.714,7.988
1187,0.984,37.367,19.137,43.475,29.929,11.641,6.754,8.027
1188,0.987,37.484,19.184,43.484,29.929,11.723,6.795,8.027
1189,0.981,37.561,19.177,43.475,29.922,11.683,6.755,8.027
1190,0.974,37.658,19.185,43.503,29.936,11.845,6.754,8.109
1191,0.945,37.755,19.154,43.465,29.919,11.684,6.592,7.947
1192,0.938,37.89,19.091,43.465,29.922,11.723,6.712,7.945
1193,0.928,37.949,19.137,43.465,29.912,11.642,6.632,7.945
1194,0.915,37.95,19.176,43.455,29.926,11.804,6.753,8.067
1195,0.899,38.084,19.196,43.465,29.919,11.806,6.795,8.028
1196,0.886,38.191,19.091,43.475,29.912,11.806,6.795,8.068
1197,0.879,38.259,19.11,43.475,29.922,11.887,6.795,8.028
1198,0.859,38.317,19.118,43.427,29.908,11.766,6.673,7.946
1199,0.853,38.462,19.165,43.465,29.929,11.927,6.875,8.067
1200,0.856,38.559,19.216,43.475,29.919,11.929,6.959,8.028
1201,0.859,38.608,19.197,43.484,29.926,11.97,7.0,8.149
1202,0.869,38.455,19.212,43.446,29.919,11.807,6.838,8.069
1203,0.85,38.578,19.084,43.465,29.919,11.846,6.958,8.069
1204,0.866,38.723,19.153,43.484,29.926,11.887,6.96,8.109
1205,0.849,39.06,19.165,43.465,29.926,11.888,7.041,8.109
1206,0.856,38.891,19.192,43.503,29.94,12.05,7.123,8.15
1207,0.83,38.975,19.126,43.465,29.912,11.727,6.961,7.947
1208,0.826,39.082,18.985,43.475,29.926,11.805,7.0,7.945
1209,0.826,38.939,19.128,43.446,29.926,11.765,6.919,7.986
1210,0.81,38.995,19.149,43.474,29.922,11.887,7.041,8.108
1211,0.81,39.12,19.149,43.475,29.929,11.766,6.96,8.15
1212,0.794,39.189,19.134,43.436,29.919,11.642,6.919,8.028
1213,0.787,39.209,19.188,43.446,29.922,11.723,7.0,8.027
1214,0.758,39.333,19.095,43.455,29.908,11.642,6.879,7.987
1215,0.761,39.469,19.141,43.475,29.926,11.804,7.0,8.149
1216,0.751,39.547,19.157,43.456,29.919,11.765,6.96,8.15
1217,0.735,39.74,19.2,43.446,29.926,11.764,7.0,8.11
1218,0.738,39.866,19.165,43.465,29.915,11.724,6.919,8.109
1219,0.721,39.944,19.067,43.427,29.915,11.601,6.878,8.028
1220,0.754,40.05,19.059,43.484,29.926,11.722,6.959,8.19
1221,0.751,39.246,18.981,43.475,29.926,11.642,7.0,8.07
1222,0.754,39.382,19.136,43.465,29.933,11.723,7.001,8.231
1223,0.754,39.498,19.141,43.436,29.926,11.642,6.838,8.07
1224,0.748,39.528,19.149,43.465,29.926,11.723,6.918,8.109
1225,0.76,39.73,19.153,43.503,29.933,11.805,6.959,8.15
1226,0.748,39.847,19.142,43.437,29.929,11.846,6.838,8.191
1227,0.754,40.002,19.169,43.503,29.947,11.928,6.999,8.314
1228,0.744,39.974,19.181,43.427,29.923,11.766,6.879,8.03
1229,0.741,39.705,19.193,43.465,29.926,11.805,6.796,8.109
1230,0.731,39.847,19.165,43.455,29.926,11.846,6.755,8.028
1231,0.728,39.934,19.146,43.465,29.926,11.847,6.836,8.109
1232,0.741,40.29,19.04,43.455,29.922,11.887,6.837,8.109
1233,0.715,39.91,19.121,43.427,29.922,11.847,6.796,8.232
1234,0.718,40.04,19.161,43.445,29.919,11.887,6.755,8.192
1235,0.698,40.128,19.173,43.427,29.908,11.725,6.754,8.232
1236,0.695,39.793,19.095,43.474,29.933,11.805,6.876,8.273
1237,0.695,39.819,19.141,43.465,29.919,11.846,6.877,8.477
1238,0.698,39.905,19.153,43.465,29.919,11.847,6.837,8.601
1239,0.701,40.002,19.173,43.446,29.915,11.643,6.755,8.562
1240,0.695,39.859,19.185,43.446,29.915,11.601,6.836,8.561
1241,0.714,40.002,19.196,43.465,29.929,11.641,6.877,8.561
1242,0.715,40.109,19.193,43.446,29.922,11.641,6.837,8.602
1243,0.721,40.225,19.111,43.494,29.936,11.723,6.918,8.806
1244,0.731,39.842,19.114,43.427,29.919,11.601,6.674,8.645
1245,0.734,39.982,19.18,43.455,29.919,11.6,6.713,8.806
1246,0.738,40.108,19.161,43.455,29.926,11.6,6.835,8.808
1247,0.734,40.148,19.095,43.446,29.926,11.641,6.837,8.848
1248,0.747,39.822,19.094,43.513,29.94,11.723,6.837,8.849
1249,0.715,39.896,19.133,43.446,29.919,11.52,6.633,8.767
1250,0.721,40.031,19.157,43.455,29.919,11.518,6.794,8.807
1251,0.715,40.099,19.181,43.436,29.915,11.477,6.714,8.808
1252,0.721,39.899,19.173,43.455,29.922,11.599,6.835,8.889
1253,0.711,40.021,19.189,43.446,29.919,11.56,6.755,8.809
1254,0.705,40.157,19.029,43.455,29.919,11.6,6.795,8.767
1255,0.705,40.168,19.109,43.436,29.919,11.6,6.673,8.726
1256,0.685,39.659,19.149,43.426,29.908,11.56,6.713,8.685
1257,0.708,39.827,19.169,43.465,29.919,11.559,6.794,8.847
1258,0.705,39.925,19.149,43.455,29.919,11.519,6.755,8.767
1259,0.708,40.252,19.087,43.484,29.926,11.762,6.876,8.929
1260,0.715,39.996,19.09,43.446,29.919,11.48,6.674,8.687
1261,0.721,40.156,19.141,43.474,29.922,11.477,6.713,8.644
1262,0.724,40.225,19.134,43.456,29.919,11.436,6.672,8.644
1263,0.731,39.708,19.188,43.455,29.926,11.517,6.794,8.644
1264,0.731,39.712,19.185,43.436,29.922,11.559,6.673,8.765
1265,0.728,39.818,19.15,43.503,29.919,11.478,6.672,8.604
1266,0.747,39.924,19.106,43.437,29.922,11.518,6.713,8.602
1267,0.744,39.552,19.161,43.407,29.912,11.437,6.591,8.44
1268,0.747,39.72,19.173,43.455,29.922,11.639,6.631,8.601
1269,0.731,39.808,19.15,43.446,29.929,11.56,6.59,8.562
1270,0.718,39.924,19.13,43.455,29.926,11.64,6.712,8.683
1271,0.721,39.398,19.133,43.436,29.915,11.519,6.632,8.481
1272,0.708,39.537,19.079,43.436,29.926,11.477,6.672,8.52
1273,0.708,39.692,19.145,43.446,29.926,11.518,6.753,8.52
1274,0.711,39.77,19.173,43.436,29.926,11.477,6.714,8.561
1275,0.724,39.397,19.15,43.474,29.936,11.558,6.876,8.643
1276,0.702,39.498,19.036,43.436,29.915,11.356,6.593,8.44
1277,0.711,39.624,19.117,43.446,29.922,11.313,6.631,8.56
1278,0.715,39.692,19.153,43.446,29.919,11.313,6.672,8.521
1279,0.711,39.175,19.196,43.427,29.922,11.313,6.672,8.601
1280,0.731,39.323,19.208,43.455,29.922,11.272,6.672,8.44
1281,0.712,39.402,19.193,43.427,29.915,11.109,6.631,8.397
1282,0.718,39.422,19.134,43.426,29.919,11.23,6.672,8.438
1283,0.721,39.211,19.055,43.426,29.915,11.109,6.672,8.357
1284,0.734,39.362,19.102,43.455,29.922,11.23,6.794,8.437
1285,0.738,39.479,19.18,43.446,29.915,11.231,6.755,8.397
1286,0.738,39.442,19.157,43.398,29.919,11.271,6.754,8.356
1287,0.747,38.981,19.071,43.426,29.919,11.231,6.754,8.275
1288,0.728,39.091,19.086,43.417,29.912,11.19,6.714,8.274
1289,0.747,39.227,19.129,43.436,29.922,11.23,6.876,8.314
1290,0.741,38.835,19.157,43.436,29.926,11.231,6.796,8.274
1291,0.747,38.889,19.2,43.455,29.94,11.312,6.917,8.477
1292,0.725,39.014,19.189,43.407,29.922,11.028,6.796,8.235
1293,0.721,39.101,19.2,43.426,29.926,10.985,6.836,8.233
1294,0.734,38.815,19.15,43.436,29.926,11.066,6.837,8.233
1295,0.725,38.946,19.122,43.417,29.922,10.944,6.796,8.192
1296,0.721,39.091,19.204,43.465,29.936,10.984,6.999,8.314
1297,0.711,39.14,19.185,43.427,29.922,10.74,6.757,8.193
1298,0.715,38.499,19.138,43.445,29.922,10.819,6.876,8.232
1299,0.721,38.645,19.067,43.427,29.922,10.698,6.837,8.111
1300,0.728,38.772,19.039,43.455,29.929,10.778,6.958,8.272
1301,0.741,38.859,19.133,43.427,29.929,10.738,6.878,8.152
1302,0.731,38.371,19.118,43.407,29.915,10.616,6.837,8.069
1303,0.747,38.529,19.169,43.417,29.919,10.777,6.877,8.15
1304,0.751,38.646,19.142,43.388,29.915,10.698,6.796,8.069
1305,0.757,38.733,19.134,43.426,29.929,10.9,6.958,8.191
1306,0.754,38.207,19.137,43.398,29.926,10.902,6.96,8.151
1307,0.761,38.307,19.173,43.407,29.929,10.902,7.0,8.191
1308,0.764,38.442,19.181,43.407,29.922,10.943,6.96,8.11
1309,0.751,38.463,19.173,43.397,29.922,10.862,6.96,8.15
1310,0.751,38.06,19.13,43.436,29.933,10.983,7.122,8.191
1311,0.748,38.162,19.083,43.426,29.926,10.944,7.124,8.192
1312,0.744,38.307,19.086,43.436,29.943,11.024,7.205,8.273
1313,0.741,38.183,19.11,43.407,29.919,10.903,7.125,8.111
1314,0.747,37.866,19.157,43.397,29.929,10.902,7.083,8.109
1315,0.721,38.006,19.149,43.416,29.929,10.943,7.164,8.191
1316,0.715,38.123,19.099,43.436,29.922,10.943,7.246,8.151
1317,0.731,37.625,19.125,43.455,29.936,10.984,7.288,8.232
1318,0.702,37.63,19.145,43.398,29.919,10.7,7.125,8.151
1319,0.714,37.774,19.208,43.397,29.926,10.778,7.165,8.11
1320,0.724,37.871,19.216,43.407,29.922,10.657,7.206,8.069
1321,0.731,37.431,19.201,43.407,29.919,10.696,7.287,8.109
1322,0.754,37.59,19.173,43.426,29.919,10.656,7.329,8.028
1323,0.738,37.687,19.091,43.407,29.919,10.696,7.248,8.109
1324,0.741,37.794,19.098,43.407,29.922,10.737,7.247,8.028
1325,0.741,37.239,19.164,43.378,29.912,10.697,7.125,7.946
1326,0.77,37.386,19.185,43.407,29.926,10.859,7.327,8.026
1327,0.764,37.532,19.103,43.397,29.922,10.861,7.289,8.068
1328,0.757,37.581,19.102,43.397,29.926,10.82,7.288,8.028
1329,0.761,37.045,19.129,43.388,29.915,10.901,7.247,7.987
1330,0.738,37.164,19.11,43.388,29.919,10.78,7.166,7.946
1331,0.747,37.328,19.18,43.407,29.933,10.901,7.246,8.026
1332,0.747,37.387,19.208,43.388,29.919,10.861,7.247,8.027
1333,0.757,36.908,19.208,43.426,29.936,10.983,7.369,8.149
1334,0.728,37.047,19.13,43.436,29.922,10.74,7.126,7.947
1335,0.731,37.183,19.133,43.388,29.922,10.819,7.205,7.945
1336,0.734,37.232,19.18,43.416,29.922,10.779,7.206,8.026
1337,0.718,36.849,19.157,43.407,29.922,10.82,7.165,8.109
1338,0.731,37.008,19.157,43.436,29.933,10.739,7.165,8.069
1339,0.721,37.077,19.048,43.388,29.915,10.697,7.043,7.946
1340,0.734,37.164,19.047,43.397,29.922,10.656,7.082,7.945
1341,0.734,37.127,19.09,43.426,29.915,10.534,7.042,7.864
1342,0.731,37.27,19.129,43.398,29.926,10.695,7.082,8.026
1343,0.741,37.358,19.192,43.407,29.922,10.697,7.083,7.987
1344,0.734,36.266,19.173,43.378,29.926,10.819,7.002,8.027
1345,0.747,36.255,19.15,43.416,29.919,10.739,7.001,7.946
1346,0.751,36.389,19.095,43.369,29.912,10.738,6.838,7.864
1347,0.761,36.524,19.172,43.378,29.929,10.941,7.04,7.985
1348,0.77,36.257,19.185,43.388,29.919,10.902,7.001,7.946
1349,0.78,36.427,19.15,43.407,29.933,11.065,7.082,7.986
1350,0.758,36.525,19.118,43.388,29.922,10.985,6.839,7.864
1351,0.744,36.641,19.071,43.378,29.922,11.066,6.877,7.944
1352,0.731,35.98,19.141,43.474,29.926,11.148,6.918,7.783
1353,0.721,36.146,19.153,43.398,29.936,11.149,6.959,7.944
1354,0.741,36.282,19.184,43.397,29.922,11.23,6.919,7.864
1355,0.712,36.332,19.111,43.378,29.915,11.19,6.837,7.822
1356,0.715,36.016,19.137,43.388,29.926,11.352,6.877,7.944
1357,0.715,36.147,19.13,43.359,29.912,11.232,6.755,7.701
1358,0.734,36.282,19.145,43.387,29.929,11.393,6.998,7.943
1359,0.725,36.341,19.173,43.407,29.919,11.395,6.919,7.864
1360,0.721,35.728,19.161,43.359,29.929,11.476,6.959,8.026
1361,0.711,35.866,19.204,43.368,29.919,11.396,6.919,7.824
1362,0.711,35.973,19.134,43.368,29.926,11.395,6.878,7.822
1363,0.741,36.031,19.126,43.387,29.926,11.558,6.918,7.985
1364,0.741,36.156,19.122,43.368,29.919,11.6,6.837,7.905
1365,0.744,36.33,19.2,43.426,29.936,11.803,6.999,7.945
1366,0.744,36.399,19.142,43.369,29.926,11.602,6.757,7.742
1367,0.744,35.834,19.067,43.359,29.922,11.722,6.795,7.821
1368,0.741,35.301,19.121,43.378,29.929,11.723,6.877,7.863
1369,0.721,35.44,19.13,43.388,29.926,11.764,6.877,7.863
1370,0.731,35.585,19.192,43.407,29.933,11.846,6.918,7.904
1371,0.708,35.442,19.158,43.359,29.915,11.603,6.837,7.782
1372,0.715,35.556,19.188,43.368,29.922,11.641,6.837,7.781
1373,0.708,35.701,19.142,43.368,29.919,11.641,6.837,7.74
1374,0.715,35.808,19.11,43.397,29.929,11.641,6.796,7.862
1375,0.715,35.157,19.141,43.359,29.926,11.601,6.917,7.944
1376,0.708,35.265,19.161,43.368,29.919,11.519,6.878,7.945
1377,0.711,35.401,19.196,43.378,29.919,11.518,6.796,7.945
1378,0.702,35.489,19.087,43.34,29.908,11.437,6.755,7.945
1379,0.705,35.115,19.028,43.387,29.926,11.517,6.957,8.026
1380,0.711,35.275,19.078,43.464,29.926,11.396,6.838,8.068
1381,0.721,35.401,19.113,43.369,29.929,11.476,6.958,8.191
1382,0.724,35.479,19.141,43.359,29.926,11.233,6.878,8.11
1383,0.731,35.029,19.18,43.339,29.922,11.393,6.837,8.15
1384,0.734,35.188,19.126,43.387,29.936,11.395,6.877,8.232
1385,0.731,35.323,19.114,43.368,29.929,11.354,6.877,8.233
1386,0.741,35.392,19.129,43.387,29.94,11.476,7.0,8.314
1387,0.725,34.894,19.157,43.359,29.916,11.233,6.838,8.152
1388,0.728,35.033,19.149,43.368,29.926,11.271,6.837,8.191
1389,0.731,35.168,19.13,43.368,29.929,11.272,6.918,8.232
1390,0.721,35.199,19.114,43.359,29.926,11.231,6.878,8.192
1391,0.724,34.95,19.059,43.387,29.933,11.271,7.0,8.273
1392,0.698,35.033,19.09,43.359,29.915,10.947,6.797,8.071
1393,0.708,35.168,19.125,43.359,29.922,10.984,6.795,8.191
1394,0.698,35.026,19.172,43.368,29.922,10.944,6.836,7.988
1395,0.708,34.957,19.06,43.378,29.936,11.024,6.877,8.19
1396,0.708,35.101,19.117,43.368,29.929,10.863,6.959,8.151
1397,0.689,35.198,19.126,43.349,29.922,10.942,6.878,8.191
1398,0.695,34.844,19.165,43.358,29.919,10.862,6.837,8.151
1399,0.685,34.908,19.196,43.33,29.905,10.739,6.796,8.028
1400,0.714,35.1,19.177,43.368,29.926,10.9,6.999,8.19
1401,0.702,35.198,19.169,43.368,29.919,10.821,6.879,8.11
1402,0.711,34.786,19.095,43.387,29.933,10.942,7.0,8.15
1403,0.708,34.926,19.11,43.359,29.919,10.781,6.879,8.069
1404,0.715,35.052,19.149,43.359,29.926,10.86,6.959,8.15
1405,0.728,35.159,19.181,43.359,29.926,10.983,6.96,8.15
1406,0.731,34.844,19.095,43.349,29.926,10.903,6.96,8.15
1407,0.744,35.023,19.121,43.387,29.933,11.024,7.082,8.273
1408,0.731,35.12,19.118,43.349,29.926,10.985,6.88,8.071
1409,0.734,35.188,19.153,43.349,29.933,10.903,6.877,8.15
1410,0.731,35.045,19.161,43.368,29.933,10.943,6.918,8.191
1411,0.721,35.207,19.173,43.359,29.933,10.984,6.959,8.192
1412,0.734,35.343,19.185,43.368,29.933,10.984,6.96,8.232
1413,0.689,35.363,19.103,43.339,29.922,10.822,6.838,8.07
1414,0.685,34.932,19.106,43.349,29.926,10.82,6.877,8.231
1415,0.688,35.062,19.153,43.339,29.915,10.739,6.877,8.111
1416,0.679,35.197,19.181,43.368,29.926,10.779,6.918,8.191
1417,0.688,35.228,19.142,43.359,29.929,10.738,6.959,8.273
1418,0.679,34.911,19.056,43.359,29.919,10.616,6.919,8.193
1419,0.678,35.052,19.094,43.397,29.919,10.493,6.878,8.151
1420,0.688,35.149,19.094,43.321,29.915,10.41,6.837,8.15
1421,0.698,35.15,19.16,43.358,29.929,10.45,6.877,8.191
1422,0.692,35.15,19.173,43.378,29.926,10.491,6.877,8.151
1423,0.708,35.275,19.2,43.368,29.936,10.573,7.0,8.232
1424,0.705,35.363,19.107,43.339,29.926,10.492,6.797,8.029
1425,0.705,35.21,19.122,43.349,29.929,10.573,6.836,8.027
1426,0.708,35.343,19.165,43.358,29.926,10.655,6.796,8.068
1427,0.721,35.459,19.173,43.349,29.922,10.656,6.795,7.987
1428,0.737,35.585,19.169,43.387,29.94,10.859,6.877,8.108
1429,0.712,35.222,19.068,43.33,29.926,10.698,6.674,7.947
1430,0.702,35.381,19.039,43.339,29.919,10.819,6.835,8.026
1431,0.708,35.527,19.019,43.358,29.926,10.82,6.755,7.987
1432,0.711,35.614,19.136,43.349,29.933,10.901,6.795,8.068
1433,0.718,35.472,19.165,43.349,29.926,10.983,6.755,8.069
1434,0.702,35.585,19.173,43.33,29.919,10.903,6.673,8.069
1435,0.701,35.73,19.099,43.339,29.922,10.943,6.713,8.109
1436,0.698,35.808,19.102,43.33,29.919,10.943,6.632,8.069
1437,0.698,35.598,19.137,43.358,29.922,11.146,6.794,8.231
1438,0.698,35.73,19.18,43.359,29.922,11.108,6.714,8.233
1439,0.705,35.847,19.157,43.349,29.926,11.108,6.794,8.151
1440,0.698,35.905,19.11,43.32,29.919,11.067,6.714,8.11
1441,0.698,35.733,19.157,43.301,29.915,11.026,6.713,8.191
1442,0.705,35.904,19.079,43.368,29.926,11.269,6.794,8.273
1443,0.711,36.031,19.129,43.339,29.922,11.15,6.714,8.193
1444,0.711,36.07,19.18,43.368,29.926,11.311,6.835,8.354
1445,0.702,35.86,19.185,43.32,29.915,11.191,6.714,8.153
1446,0.721,35.992,19.095,43.349,29.922,11.23,6.713,8.191
1447,0.728,36.127,19.11,43.339,29.926,11.231,6.754,8.151
1448,0.712,36.11,19.133,43.33,29.919,11.231,6.795,8.15
1449,0.721,36.167,19.13,43.387,29.933,11.231,6.795,8.191
1450,0.695,36.254,19.161,43.311,29.922,11.109,6.673,8.11
1451,0.705,36.379,19.177,43.339,29.922,11.148,6.753,8.109
1452,0.705,36.198,19.189,43.33,29.912,11.067,6.673,8.109
1453,0.695,36.321,19.099,43.33,29.926,11.188,6.835,8.272
1454,0.695,36.457,19.133,43.33,29.926,11.108,6.796,8.152
1455,0.701,36.535,19.157,43.33,29.926,11.026,6.755,8.273
1456,0.692,36.392,19.188,43.31,29.922,10.985,6.714,8.274
1457,0.679,36.534,19.13,43.32,29.922,10.903,6.672,8.233
1458,0.701,36.689,19.052,43.358,29.922,11.024,6.835,8.355
1459,0.692,36.758,19.101,43.349,29.929,10.903,6.796,8.315
1460,0.708,36.519,19.149,43.368,29.94,11.105,6.917,8.396
1461,0.705,36.622,19.134,43.33,29.919,10.863,6.674,8.194
1462,0.715,36.747,19.134,43.33,29.926,10.82,6.753,8.273
1463,0.718,36.816,19.18,43.33,29.922,10.861,6.754,8.233
1464,0.715,36.711,19.087,43.32,29.929,10.902,6.754,8.273
1465,0.728,36.892,19.106,43.368,29.936,10.983,6.836,8.314
1466,0.715,36.942,19.133,43.32,29.926,10.862,6.714,8.152
1467,0.718,37.009,19.169,43.32,29.929,10.983,6.754,8.191
1468,0.718,36.885,19.161,43.31,29.922,10.903,6.714,8.192
1469,0.721,37.018,19.106,43.329,29.929,11.065,6.794,8.232
1470,0.708,37.144,19.067,43.339,29.926,10.944,6.755,8.192
1471,0.698,37.165,19.07,43.32,29.922,11.024,6.754,8.232
1472,0.695,37.098,19.094,43.329,29.922,11.066,6.795,8.192
1473,0.685,37.203,19.137,43.301,29.915,10.904,6.673,8.07
1474,0.695,37.348,19.192,43.329,29.922,11.024,6.875,8.231
1475,0.692,37.397,19.115,43.32,29.919,10.944,6.837,8.111
1476,0.672,37.455,19.122,43.339,29.929,11.065,6.918,8.313
1477,0.682,37.59,19.126,43.32,29.919,10.904,6.715,8.193
1478,0.675,37.668,19.157,43.32,29.922,10.902,6.876,8.192
1479,0.682,37.237,19.188,43.329,29.926,10.943,6.877,8.314
1480,0.688,37.3,19.212,43.32,29.929,10.821,6.796,8.193
1481,0.711,37.464,19.193,43.349,29.936,10.983,6.958,8.354
1482,0.689,37.513,19.107,43.311,29.922,10.7,6.756,8.153
1483,0.705,37.408,19.122,43.32,29.922,10.737,6.836,8.191
1484,0.708,37.541,19.126,43.32,29.922,10.779,6.796,8.232
1485,0.698,37.677,19.18,43.31,29.926,10.82,6.877,8.273
1486,0.721,37.755,19.13,43.329,29.926,10.942,6.837,8.233
1487,0.724,37.43,19.063,43.31,29.926,10.862,6.796,8.151
1488,0.724,37.59,19.105,43.31,29.919,10.902,6.836,8.191
1489,0.721,37.706,19.125,43.31,29.908,10.861,6.674,8.11
1490,0.718,37.784,19.141,43.32,29.929,10.942,6.875,8.272
1491,0.708,37.689,19.173,43.31,29.926,10.943,6.918,8.193
1492,0.702,37.851,19.196,43.32,29.926,10.984,6.919,8.314
1493,0.698,37.949,19.169,43.31,29.926,10.903,6.919,8.234
1494,0.692,37.969,19.122,43.301,29.915,10.902,6.837,8.192
1495,0.695,37.777,19.126,43.32,29.919,10.983,6.877,8.192
1496,0.682,37.9,19.196,43.32,29.926,10.903,6.877,8.192
1497,0.695,38.026,19.165,43.339,29.936,11.024,7.0,8.273
1498,0.679,37.998,19.107,43.31,29.922,10.781,6.879,8.071
1499,0.682,37.787,19.063,43.31,29.922,10.82,6.837,8.109
1500,0.701,37.938,19.008,43.32,29.926,10.82,6.958,8.069
1501,0.701,38.026,19.007,43.329,29.929,10.861,6.96,8.109
1502,0.711,37.922,19.117,43.339,29.926,10.942,7.0,8.109
1503,0.698,37.921,19.161,43.31,29.922,10.902,6.919,8.028
1504,0.708,38.045,19.165,43.301,29.926,10.902,6.919,8.027
1505,0.715,38.181,19.091,43.31,29.912,10.943,6.796,7.987
1506,0.731,37.799,19.11,43.31,29.933,11.065,6.958,8.108
1507,0.721,37.91,19.149,43.31,29.926,11.148,6.919,8.069
1508,0.734,38.036,19.184,43.301,29.926,11.149,6.959,8.109
1509,0.741,38.113,19.15,43.31,29.926,11.189,6.919,8.069
1510,0.725,37.807,19.153,43.281,29.915,11.108,6.837,8.028
1511,0.718,37.977,19.122,43.31,29.933,11.148,6.958,8.231
1512,0.721,38.103,19.075,43.31,29.926,11.149,7.0,8.192
1513,0.708,38.191,19.106,43.31,29.933,11.271,6.96,8.273
1514,0.711,37.981,19.141,43.291,29.919,11.109,6.919,8.071
1515,0.698,38.094,19.161,43.291,29.919,11.108,6.919,8.191
1516,0.711,38.248,19.099,43.31,29.933,11.108,6.959,8.273
1517,0.715,38.298,19.11,43.31,29.922,11.108,6.96,8.274
1518,0.75,37.867,19.149,43.32,29.929,11.148,6.96,8.396
1519,0.754,37.958,19.149,43.282,29.922,10.986,6.838,8.194
1520,0.777,38.084,19.145,43.291,29.922,11.025,6.918,8.273
1521,0.8,38.133,19.165,43.31,29.929,11.066,6.959,8.233
1522,0.8,38.019,19.146,43.291,29.929,11.107,7.0,8.192
1523,0.842,38.18,19.134,43.339,29.936,11.189,6.96,8.314
1524,0.849,38.278,19.102,43.282,29.915,11.189,6.878,8.152
1525,0.862,38.279,19.133,43.291,29.926,11.271,6.918,8.232
1526,0.879,37.867,19.173,43.262,29.922,11.231,6.837,8.111
1527,0.911,37.987,19.15,43.3,29.926,11.393,6.918,8.232
1528,0.944,38.113,19.063,43.291,29.929,11.354,6.919,8.192
1529,0.971,37.903,19.078,43.291,29.926,11.273,6.837,8.192
1530,0.977,37.93,19.082,43.291,29.933,11.272,6.796,8.151
1531,0.984,38.045,19.102,43.272,29.915,11.15,6.795,8.069
1532,0.997,38.152,19.149,43.291,29.933,11.311,6.917,8.109
1533,0.994,37.779,19.169,43.291,29.926,11.232,6.837,8.15
1534,0.997,37.862,19.122,43.281,29.933,11.231,6.837,8.191
1535,1.007,38.006,19.098,43.281,29.919,11.271,6.837,8.151
1536,0.988,38.065,19.133,43.272,29.919,11.19,6.796,8.069
1537,0.997,37.759,19.176,43.3,29.929,11.312,6.958,8.231
1538,1.0,37.89,19.165,43.272,29.926,11.313,6.878,8.111
1539,1.0,38.026,19.142,43.291,29.936,11.272,7.0,8.191
1540,0.994,38.056,19.083,43.262,29.929,11.069,6.879,7.988
1541,0.984,37.807,19.032,43.281,29.926,11.107,6.959,7.986
1542,0.991,37.958,19.082,43.3,29.929,11.148,6.96,8.027
1543,1.004,38.084,19.137,43.291,29.926,11.108,7.0,8.027
1544,1.01,38.152,19.18,43.32,29.94,11.23,7.001,8.19
1545,0.994,37.568,19.095,43.282,29.919,10.987,6.879,7.907
1546,0.994,37.735,19.078,43.272,29.919,11.025,6.959,7.904
1547,0.991,37.871,19.133,43.271,29.926,11.025,6.96,7.823
1548,0.971,37.882,19.176,43.271,29.922,11.066,6.96,7.985
1549,0.984,37.805,19.169,43.319,29.929,11.066,7.041,7.864
1550,0.945,37.891,19.169,43.272,29.915,10.985,6.96,7.822
1551,0.948,38.007,19.153,43.271,29.926,10.984,7.122,7.822
1552,0.928,38.257,19.099,43.271,29.922,10.903,6.961,7.741
1553,0.905,37.569,19.125,43.281,29.926,10.943,7.122,7.862
1554,0.895,37.706,19.122,43.291,29.926,10.943,7.043,7.782
1555,0.899,37.784,19.153,43.272,29.926,10.862,7.082,7.822
1556,0.886,37.536,19.102,43.271,29.915,10.861,7.042,7.822
1557,0.872,37.533,19.028,43.281,29.908,10.698,7.042,7.741
1558,0.885,37.715,19.101,43.281,29.926,10.941,7.164,7.862
1559,0.869,37.803,19.129,43.281,29.929,10.821,7.165,7.741
1560,0.889,37.315,19.18,43.281,29.933,10.942,7.287,7.862
1561,0.876,37.425,19.196,43.262,29.919,10.862,7.085,7.7
1562,0.859,37.561,19.185,43.271,29.926,10.861,7.123,7.658
1563,0.859,37.658,19.161,43.271,29.929,11.024,7.124,7.78
1564,0.846,37.276,19.11,43.281,29.926,10.985,7.124,7.659
1565,0.853,37.444,19.133,43.31,29.947,11.228,7.205,7.78
1566,0.849,37.532,19.18,43.243,29.919,11.027,7.003,7.578
1567,0.83,37.61,19.142,43.252,29.929,11.147,7.082,7.616
1568,0.826,37.285,19.098,43.252,29.926,11.23,7.002,7.535
1569,0.826,37.444,19.012,43.271,29.936,11.231,7.123,7.657
1570,0.83,37.58,19.117,43.339,29.933,11.312,7.124,7.576
1571,0.807,37.61,19.098,43.263,29.922,11.15,7.043,7.494
1572,0.807,37.189,19.157,43.252,29.922,11.311,7.082,7.494
1573,0.768,37.319,19.212,43.252,29.926,11.191,6.961,7.412
1574,0.777,37.464,19.127,43.262,29.929,11.352,7.122,7.655
1575,0.761,37.523,19.114,43.271,29.929,11.435,7.083,7.576
1576,0.748,37.082,19.122,43.252,29.929,11.436,7.042,7.616
1577,0.731,37.222,19.161,43.262,29.929,11.477,7.042,7.617
1578,0.712,37.3,19.149,43.233,29.915,11.396,7.001,7.535
1579,0.702,37.675,19.126,43.271,29.929,11.598,7.123,7.697
1580,0.701,37.036,19.083,43.271,29.926,11.478,7.165,7.658
1581,0.705,37.173,19.071,43.291,29.933,11.599,7.165,7.698
1582,0.702,37.251,19.09,43.252,29.926,11.478,7.043,7.618
1583,0.705,36.917,19.114,43.252,29.929,11.599,7.001,7.657
1584,0.708,36.952,19.176,43.271,29.926,11.6,7.082,7.698
1585,0.708,37.077,19.099,43.271,29.929,11.722,7.042,7.74
1586,0.715,37.231,19.118,43.291,29.943,11.805,7.164,7.781
1587,0.695,36.734,19.083,43.214,29.919,11.643,6.962,7.659
1588,0.692,36.873,19.149,43.252,29.933,11.723,7.122,7.658
1589,0.695,37.018,19.181,43.252,29.929,11.683,7.043,7.658
1590,0.685,37.097,19.157,43.262,29.926,11.723,7.082,7.739
1591,0.695,36.685,19.169,43.271,29.933,11.683,7.083,7.74
1592,0.675,36.786,19.071,43.233,29.926,11.642,7.002,7.618
1593,0.675,36.941,19.094,43.242,29.926,11.682,7.082,7.657
1594,0.659,37.009,19.11,43.233,29.922,11.601,6.92,7.576
1595,0.669,36.703,19.172,43.252,29.933,11.763,7.122,7.779
1596,0.652,36.863,19.118,43.281,29.933,11.724,7.043,7.781
1597,0.659,36.97,19.016,43.252,29.922,11.723,7.082,7.74
1598,0.662,37.048,19.125,43.243,29.926,11.642,7.042,7.781
1599,0.652,36.521,19.11,43.214,29.919,11.519,6.96,7.659
1600,0.675,36.689,19.168,43.242,29.933,11.64,7.082,7.82
1601,0.678,36.815,19.157,43.242,29.922,11.56,7.042,7.741
1602,0.682,36.845,19.192,43.252,29.933,11.6,7.123,7.903
1603,0.685,36.404,19.095,43.233,29.922,11.56,7.002,7.782
1604,0.666,36.553,19.102,43.252,29.926,11.6,7.041,7.781
1605,0.669,36.689,19.118,43.271,29.936,11.641,7.123,7.862
1606,0.678,36.901,19.165,43.252,29.929,11.641,7.043,7.863
1607,0.695,36.482,19.181,43.262,29.943,11.804,7.164,7.985
1608,0.672,36.573,19.091,43.233,29.926,11.562,6.921,7.742
1609,0.678,36.708,19.043,43.233,29.926,11.6,7.0,7.821
1610,0.675,36.278,19.09,43.309,29.926,11.56,7.041,7.863
1611,0.682,36.303,19.117,43.233,29.929,11.559,7.001,7.822
1612,0.692,36.495,19.137,43.281,29.947,11.559,7.041,7.985
1613,0.659,36.535,19.157,43.205,29.923,11.397,6.879,7.864
1614,0.652,36.209,19.11,43.232,29.922,11.436,6.918,7.904
1615,0.652,36.35,19.114,43.233,29.922,11.436,6.919,7.945
1616,0.649,36.495,19.126,43.252,29.933,11.558,6.919,8.067
1617,0.652,36.602,19.153,43.243,29.926,11.519,6.959,8.15
1618,0.649,36.21,19.184,43.214,29.919,11.437,6.878,8.11
1619,0.649,36.379,19.154,43.233,29.926,11.436,6.837,8.109
1620,0.662,36.496,19.13,43.194,29.912,11.314,6.837,8.069
1621,0.659,36.593,19.083,43.232,29.929,11.516,6.877,8.231
1622,0.672,35.884,18.981,43.242,29.929,11.437,6.918,8.314
1623,0.675,36.04,19.089,43.233,29.929,11.477,6.959,8.315
1624,0.665,36.147,19.164,43.233,29.922,11.477,6.878,8.234
1625,0.665,36.196,19.107,43.194,29.912,11.396,6.755,8.273
1626,0.685,35.938,19.102,43.29,29.933,11.558,6.917,8.355
1627,0.682,36.06,19.11,43.224,29.933,11.478,6.919,8.275
1628,0.669,36.205,19.133,43.242,29.936,11.599,7.0,8.436
1629,0.678,36.225,19.169,43.223,29.926,11.438,6.879,8.275
1630,0.662,35.784,19.165,43.223,29.919,11.395,6.837,8.355
1631,0.662,35.972,19.165,43.252,29.933,11.558,6.837,8.356
1632,0.662,36.05,19.138,43.223,29.933,11.437,6.877,8.356
1633,0.659,36.243,19.13,43.319,29.936,11.558,7.04,8.559
1634,0.652,35.909,19.067,43.205,29.919,11.397,6.717,8.399
1635,0.659,36.05,19.172,43.213,29.926,11.476,6.794,8.478
1636,0.652,36.176,19.153,43.233,29.919,11.436,6.836,8.52
1637,0.649,35.659,19.071,43.233,29.929,11.477,6.877,8.601
1638,0.665,35.731,19.117,43.319,29.919,11.518,6.918,8.643
1639,0.649,35.827,19.11,43.205,29.915,11.355,6.796,8.562
1640,0.659,35.943,19.153,43.232,29.926,11.313,6.877,8.602
1641,0.659,35.686,19.126,43.214,29.922,11.232,6.877,8.602
1642,0.669,35.817,19.157,43.233,29.929,11.271,6.959,8.724
1643,0.678,35.943,19.153,43.223,29.926,11.353,6.878,8.603
1644,0.662,36.031,19.095,43.213,29.933,11.354,6.918,8.602
1645,0.678,35.572,19.082,43.204,29.922,11.313,6.919,8.684
1646,0.669,35.692,19.16,43.185,29.922,11.232,6.796,8.522
1647,0.669,35.856,19.138,43.232,29.929,11.353,6.999,8.683
1648,0.662,35.905,19.079,43.204,29.936,11.354,6.96,8.644
1649,0.665,35.532,19.024,43.232,29.929,11.395,7.041,8.684
1650,0.659,35.682,19.015,43.214,29.926,11.314,7.001,8.603
1651,0.662,35.817,19.125,43.204,29.929,11.272,7.001,8.643
1652,0.665,35.895,19.11,43.232,29.929,11.312,7.001,8.684
1653,0.652,35.599,19.207,43.214,29.929,11.313,7.001,8.684
1654,0.668,35.778,19.165,43.252,29.943,11.435,7.123,8.807
1655,0.646,35.866,19.107,43.204,29.922,11.273,6.961,8.604
1656,0.633,35.925,19.106,43.223,29.929,11.272,6.96,8.643
1657,0.642,35.455,19.137,43.213,29.926,11.231,6.878,8.562
1658,0.668,35.594,19.165,43.223,29.926,11.393,7.0,8.683
1659,0.675,35.74,19.134,43.223,29.933,11.314,6.96,8.562
1660,0.695,35.722,19.098,43.213,29.919,11.353,6.878,8.643
1661,0.711,35.463,19.086,43.204,29.926,11.313,6.959,8.521
1662,0.734,35.604,19.067,43.175,29.915,11.232,6.838,8.52
1663,0.783,35.74,19.137,43.223,29.933,11.475,7.04,8.601
1664,0.816,35.396,19.196,43.213,29.926,11.396,6.96,8.602
1665,0.833,35.479,19.138,43.233,29.936,11.517,7.0,8.643
1666,0.836,35.595,19.063,43.214,29.919,11.355,6.919,8.359
1667,0.865,35.721,19.086,43.194,29.922,11.313,6.959,8.519
1668,0.898,35.329,19.133,43.223,29.933,11.435,6.96,8.439
1669,0.925,35.459,19.157,43.194,29.929,11.395,6.878,8.438
1670,0.957,35.623,19.188,43.223,29.936,11.476,7.121,8.519
1671,0.971,35.663,19.177,43.185,29.915,11.274,6.88,8.276
1672,1.003,35.251,19.142,43.194,29.929,11.272,6.959,8.355
1673,1.046,35.42,19.009,43.232,29.912,11.231,6.878,8.315
1674,1.059,35.546,19.121,43.204,29.919,11.312,6.959,8.274
1675,1.099,35.634,19.184,43.213,29.926,11.272,6.919,8.355
1676,1.109,35.299,19.15,43.194,29.915,11.19,6.919,8.356
1677,1.148,35.459,19.056,43.194,29.926,11.189,6.919,8.315
1678,1.178,35.585,19.078,43.232,29.908,11.068,6.796,8.234
1679,1.207,35.673,19.09,43.214,29.929,11.107,6.917,8.355
1680,1.25,35.309,19.129,43.204,29.919,10.985,6.919,8.275
1681,1.279,35.449,19.126,43.165,29.929,11.066,6.878,8.355
1682,1.302,35.556,19.184,43.184,29.926,10.985,6.877,8.234
1683,1.299,35.567,19.161,43.165,29.922,10.944,6.837,8.192
1684,1.27,35.298,19.134,43.203,29.929,11.106,6.877,8.232
1685,1.224,35.42,19.094,43.194,29.929,11.108,6.837,8.314
1686,1.208,35.565,19.157,43.213,29.933,11.148,6.958,8.274
1687,1.188,35.509,19.145,43.185,29.926,11.108,6.756,8.152
1688,1.149,35.307,19.095,43.184,29.933,11.148,6.754,8.11
1689,1.129,35.478,19.043,43.184,29.933,11.271,6.917,8.191
1690,1.09,35.576,19.023,43.204,29.926,11.231,6.837,8.232
1691,1.037,35.241,19.125,43.213,29.947,11.312,6.918,8.314
1692,0.926,35.276,19.102,43.156,29.916,11.11,6.756,8.152
1693,0.834,35.42,19.157,43.184,29.933,11.148,6.795,8.191
1694,0.768,35.517,19.138,43.184,29.926,11.189,6.836,8.151
1695,0.728,35.25,19.13,43.271,29.926,11.23,6.796,8.232
1696,0.663,35.439,19.094,43.204,29.933,11.231,6.877,8.233
1697,0.506,35.527,19.145,43.146,29.919,11.027,6.715,8.111
1698,0.345,35.614,19.169,43.174,29.919,11.147,6.794,8.191
1699,0.213,35.155,19.177,43.165,29.915,11.067,6.836,8.11
1700,0.121,35.323,19.134,43.175,29.922,11.066,6.877,8.232
1701,0.042,35.449,19.114,43.184,29.926,11.026,6.837,8.151
1702,-0.021,35.527,18.993,43.165,29.919,11.025,6.796,8.15
1703,-0.103,35.125,19.089,43.155,29.926,10.944,6.755,8.191
1704,-0.172,35.256,19.133,43.136,29.912,10.902,6.795,8.029
1705,-0.202,35.42,19.153,43.174,29.915,11.146,6.917,8.19
1706,-0.212,35.47,19.036,43.175,29.919,11.067,6.878,8.192
1707,-0.205,35.23,19.082,43.155,29.919,11.148,6.918,8.232
1708,-0.179,35.362,19.129,43.155,29.922,11.067,6.756,8.151
1709,-0.137,35.479,19.169,43.155,29.919,10.985,6.795,8.232
1710,-0.084,35.556,19.177,43.184,29.929,11.066,6.917,8.151
1711,-0.015,35.25,19.165,43.165,29.929,11.026,6.878,8.15
1712,0.044,35.41,19.177,43.194,29.936,11.188,7.04,8.273
1713,0.1,35.508,19.087,43.146,29.919,11.027,6.839,8.111
1714,0.201,35.375,19.086,43.155,29.926,11.107,6.918,8.191
1715,0.287,35.153,19.149,43.165,29.926,11.148,6.796,8.151
1716,0.359,35.285,19.169,43.155,29.933,11.108,6.917,8.273
1717,0.454,35.449,19.091,43.194,29.936,11.27,6.878,8.233
1718,0.497,35.125,19.098,43.232,29.922,11.15,6.796,8.151
1719,0.563,35.246,19.086,43.166,29.926,11.23,6.836,8.191
1720,0.616,35.391,19.125,43.155,29.919,11.149,6.837,8.151
1721,0.668,35.508,19.126,43.174,29.933,11.271,6.958,8.273
1722,0.724,35.125,19.153,43.165,29.926,11.231,6.919,8.233
1723,0.734,35.236,19.138,43.155,29.922,11.312,6.919,8.192
1724,0.76,35.391,19.02,43.165,29.929,11.394,6.959,8.192
1725,0.777,35.469,19.078,43.146,29.919,11.436,6.756,8.07
1726,0.787,35.134,19.156,43.165,29.929,11.639,7.039,8.191
1727,0.8,35.275,19.169,43.165,29.926,11.682,6.96,8.151
1728,0.787,35.391,19.126,43.155,29.933,11.723,7.082,8.273
1729,0.787,35.488,19.051,43.155,29.933,11.683,6.961,8.111
1730,0.771,34.991,18.992,43.117,29.926,11.723,6.919,8.069
1731,0.787,35.187,18.976,43.184,29.929,11.805,7.0,8.109
1732,0.771,35.295,19.093,43.156,29.936,11.724,7.001,8.109
1733,0.77,35.363,19.196,43.184,29.94,11.886,7.123,8.15
1734,0.744,35.124,19.142,43.136,29.926,11.644,6.961,7.988
1735,0.744,35.284,19.059,43.165,29.919,11.641,7.082,7.986
1736,0.734,35.43,19.105,43.155,29.933,11.723,7.002,8.027
1737,0.738,35.441,19.137,43.155,29.929,11.723,7.082,8.027
1738,0.747,35.144,19.188,43.194,29.933,11.723,7.205,8.109
1739,0.728,35.237,19.161,43.127,29.919,11.561,7.043,7.947
1740,0.751,35.362,19.146,43.155,29.926,11.559,7.042,7.986
1741,0.744,35.277,19.141,43.127,29.929,11.559,7.042,7.824
1742,0.754,35.171,19.036,43.174,29.933,11.6,7.123,7.944
1743,0.767,35.323,19.105,43.165,29.929,11.641,7.083,7.986
1744,0.761,35.421,19.129,43.146,29.929,11.601,7.042,7.905
1745,0.77,35.019,19.133,43.136,29.929,11.56,7.082,7.863
1746,0.787,35.12,19.04,43.136,29.919,11.478,6.961,7.782
1747,0.787,35.294,19.113,43.165,29.933,11.64,7.163,7.984
1748,0.787,35.392,19.098,43.155,29.929,11.601,7.043,7.946
1749,0.78,35.009,19.125,43.146,29.929,11.682,7.082,7.945
1750,0.764,35.159,19.145,43.146,29.926,11.56,7.042,7.864
1751,0.757,35.275,19.18,43.117,29.929,11.519,7.082,7.985
1752,0.767,35.391,19.157,43.155,29.94,11.518,7.123,8.068
1753,0.764,35.076,19.067,43.146,29.926,11.396,7.165,8.069
1754,0.767,35.246,19.082,43.174,29.936,11.558,7.246,8.15
1755,0.761,35.334,19.153,43.117,29.922,11.356,7.084,7.988
1756,0.77,35.411,19.165,43.136,29.926,11.313,7.164,8.068
1757,0.774,35.095,19.079,43.146,29.926,11.272,7.124,8.109
1758,0.764,35.227,19.059,43.165,29.926,11.231,7.124,8.109
1759,0.783,35.391,19.117,43.165,29.94,11.19,7.124,8.15
1760,0.774,35.412,19.114,43.117,29.929,11.068,7.165,8.11
1761,0.777,35.163,19.094,43.136,29.929,11.107,7.124,8.15
1762,0.774,35.285,19.164,43.117,29.922,10.945,7.002,7.947
1763,0.787,35.401,19.149,43.145,29.926,11.065,7.163,8.189
1764,0.774,35.441,19.06,43.155,29.929,10.985,7.165,8.151
1765,0.78,35.029,19.094,43.146,29.933,10.984,7.165,8.191
1766,0.787,35.178,19.153,43.117,29.929,10.984,7.165,8.07
1767,0.78,35.266,19.138,43.088,29.919,10.862,7.084,8.069
1768,0.81,35.219,19.114,43.155,29.936,10.942,7.205,8.109
1769,0.81,35.151,19.075,43.127,29.929,10.943,7.084,8.109
1770,0.816,35.304,18.992,43.155,29.933,11.024,7.164,8.191
1771,0.813,35.401,19.07,43.194,29.926,10.903,7.043,8.029
1772,0.81,34.913,19.078,43.127,29.922,10.902,7.164,8.027
1773,0.81,35.023,19.164,43.136,29.933,10.902,7.206,8.068
1774,0.803,35.149,19.134,43.126,29.926,10.902,7.165,8.069
1775,0.816,35.285,19.141,43.203,29.943,11.024,7.328,8.272
1776,0.787,35.142,19.075,43.117,29.926,10.903,7.045,8.03
1777,0.784,35.304,19.164,43.145,29.929,10.821,7.164,8.109
1778,0.78,35.449,19.177,43.136,29.926,10.861,7.124,8.109
1779,0.78,35.527,19.146,43.136,29.926,10.902,7.124,8.069
1780,0.806,34.953,19.118,43.155,29.94,10.861,7.165,8.028
1781,0.787,35.052,19.083,43.107,29.922,10.82,7.043,7.946
1782,0.793,35.207,19.016,43.136,29.926,10.779,7.042,8.026
1783,0.806,35.295,19.086,43.107,29.926,10.779,6.96,7.946
1784,0.813,35.152,19.153,43.126,29.933,10.901,7.082,8.067
1785,0.816,35.294,19.114,43.126,29.922,10.943,7.042,8.069
1786,0.826,35.43,19.086,43.213,29.926,10.984,7.082,7.906
1787,0.836,35.498,19.078,43.098,29.926,11.025,6.961,7.945
1788,0.826,35.039,19.129,43.097,29.919,10.903,6.919,7.864
1789,0.839,35.197,19.133,43.145,29.919,11.146,7.041,8.026
1790,0.826,35.324,19.18,43.117,29.929,11.108,6.96,7.946
1791,0.826,35.354,19.189,43.126,29.926,11.23,7.041,8.026
1792,0.82,35.124,19.122,43.126,29.926,11.19,6.96,7.946
1793,0.813,35.236,19.102,43.184,29.926,11.149,7.0,7.945
1794,0.81,35.391,19.075,43.146,29.929,11.271,6.96,8.026
1795,0.813,35.182,19.133,43.107,29.936,11.353,6.96,7.987
1796,0.82,35.122,19.13,43.164,29.94,11.476,7.082,8.19
1797,0.803,35.256,19.044,43.117,29.926,11.396,6.88,8.029
1798,0.813,35.372,19.082,43.126,29.919,11.436,6.877,8.149
1799,0.82,35.066,19.094,43.136,29.922,11.517,6.877,8.11
1800,0.83,35.169,19.153,43.117,29.929,11.559,6.877,8.15
1801,0.849,35.352,19.169,43.145,29.94,11.6,7.0,8.15
1802,0.849,35.392,19.157,43.098,29.912,11.397,6.919,8.069
1803,0.856,34.961,19.126,43.116,29.915,11.517,6.878,8.15
1804,0.859,35.12,19.133,43.097,29.915,11.599,6.837,8.11
1805,0.859,35.256,19.067,43.116,29.933,11.641,6.958,8.15
1806,0.888,35.353,19.156,43.097,29.926,11.641,6.838,8.11
1807,0.863,34.999,19.126,43.088,29.926,11.519,6.837,8.109
1808,0.869,35.149,19.083,43.097,29.919,11.599,6.877,8.15
1809,0.863,35.285,19.063,43.107,29.912,11.56,6.715,8.028
1810,0.856,35.363,19.086,43.116,29.929,11.681,6.835,8.19
1811,0.872,35.057,19.129,43.126,29.926,11.683,6.837,8.232
1812,0.863,35.197,19.11,43.107,29.926,11.642,6.877,8.192
1813,0.862,35.343,19.176,43.097,29.926,11.641,6.796,8.11
1814,0.856,35.354,19.091,43.069,29.908,11.56,6.836,8.109
1815,0.859,35.124,19.094,43.116,29.936,11.722,6.837,8.191
1816,0.853,35.246,19.098,43.107,29.919,11.561,6.837,8.232
1817,0.856,35.362,19.164,43.136,29.94,11.681,6.877,8.314
1818,0.862,35.383,19.142,43.098,29.919,11.52,6.796,8.112
1819,0.866,35.134,19.126,43.078,29.926,11.477,6.755,8.15
1820,0.879,35.275,19.114,43.097,29.926,11.477,6.836,8.15
1821,0.872,35.382,19.098,43.088,29.926,11.436,6.796,8.15
1822,0.882,35.201,19.079,43.116,29.933,11.599,6.958,8.191
1823,0.885,35.103,19.09,43.078,29.919,11.397,6.716,8.07
1824,0.898,35.275,19.168,43.078,29.922,11.476,6.713,8.15
1825,0.905,35.382,19.11,43.078,29.922,11.477,6.713,8.069
1826,0.905,35.047,19.102,43.116,29.926,11.477,6.794,8.109
1827,0.921,35.159,19.106,43.117,29.933,11.518,6.795,8.15
1828,0.899,35.246,19.133,43.078,29.919,11.396,6.714,8.069
1829,0.908,35.343,19.149,43.059,29.926,11.476,6.713,8.069
1830,0.908,35.076,19.161,43.049,29.926,11.436,6.632,8.069
1831,0.905,35.236,19.169,43.087,29.926,11.477,6.712,8.191
1832,0.899,35.372,19.099,43.078,29.933,11.477,6.713,8.11
1833,0.892,35.44,19.11,43.087,29.926,11.477,6.713,8.191
1834,0.899,34.933,19.083,43.059,29.926,11.436,6.632,8.151
1835,0.899,35.071,19.141,43.039,29.908,11.395,6.631,8.15
1836,0.899,35.255,19.126,43.097,29.933,11.558,6.712,8.273
1837,0.905,35.286,19.059,43.088,29.929,11.478,6.754,8.233
1838,0.892,35.056,19.09,43.078,29.922,11.518,6.714,8.314
1839,0.905,35.207,19.11,43.059,29.922,11.355,6.672,8.193
1840,0.902,35.324,19.102,43.049,29.919,11.313,6.672,8.192
1841,0.934,35.392,19.145,43.078,29.929,11.353,6.713,8.273
1842,0.938,35.095,19.165,43.078,29.922,11.313,6.713,8.274
1843,0.961,35.246,19.157,43.087,29.936,11.475,6.835,8.396
1844,0.948,35.343,19.122,43.164,29.922,11.274,6.592,8.194
1845,0.964,35.354,19.098,43.079,29.929,11.312,6.712,8.232
1846,0.971,35.057,19.164,43.059,29.926,11.353,6.632,8.273
1847,0.987,35.178,19.138,43.068,29.933,11.354,6.712,8.314
1848,0.987,35.333,19.102,43.097,29.936,11.435,6.713,8.396
1849,0.978,35.651,19.04,43.049,29.919,11.233,6.632,8.194
1850,0.987,35.875,19.008,43.039,29.922,11.312,6.672,8.354
1851,0.984,35.992,19.082,43.087,29.919,11.15,6.672,8.193
1852,0.974,36.118,19.078,43.059,29.929,11.189,6.753,8.395
1853,0.974,34.642,19.137,43.058,29.926,11.068,6.754,8.234
1854,0.971,34.714,19.141,43.058,29.933,10.985,6.795,8.314
1855,0.958,34.849,19.11,43.068,29.922,10.944,6.714,8.274
1856,0.961,34.956,19.071,43.03,29.919,10.821,6.672,8.274
1857,0.977,35.158,19.145,43.068,29.936,10.942,6.835,8.314
1858,0.984,35.294,19.169,43.059,29.929,10.821,6.796,8.356
1859,0.997,35.44,19.196,43.097,29.933,10.942,6.917,8.397
1860,0.997,35.499,19.142,43.04,29.922,10.781,6.674,8.153
1861,1.017,34.972,19.095,43.049,29.926,10.82,6.713,8.15
1862,1.03,35.139,19.047,43.058,29.933,10.942,6.754,8.273
1863,1.03,35.265,19.078,43.078,29.926,10.943,6.714,8.193
1864,1.043,35.372,19.149,43.078,29.94,11.146,6.876,8.273
1865,1.037,34.855,19.095,43.03,29.916,11.108,6.633,8.193
1866,1.053,35.052,19.071,43.049,29.929,11.23,6.712,8.11
1867,1.056,35.159,19.086,43.039,29.926,11.231,6.632,8.069
1868,1.06,35.208,19.106,43.039,29.936,11.393,6.753,8.191
1869,1.076,35.036,19.161,43.039,29.919,11.395,6.714,8.151
1870,1.057,35.168,19.146,43.01,29.922,11.395,6.672,8.11
1871,1.073,35.294,19.184,43.029,29.919,11.476,6.672,8.15
1872,1.073,35.296,19.118,43.01,29.912,11.314,6.509,8.028
1873,1.069,35.046,19.071,43.039,29.929,11.516,6.752,8.19
1874,1.069,35.178,19.09,43.058,29.926,11.477,6.714,8.151
1875,1.073,35.295,19.141,43.049,29.933,11.599,6.794,8.191
1876,1.076,34.96,19.157,43.039,29.919,11.519,6.673,8.11
1877,1.066,34.899,19.021,43.03,29.919,11.559,6.794,8.15
1878,1.086,35.11,19.054,43.068,29.915,11.6,6.714,8.15
1879,1.089,35.179,19.086,43.039,29.919,11.56,6.754,8.191
1880,1.125,35.122,19.133,43.068,29.929,11.722,6.836,8.314
1881,1.119,35.208,19.153,43.02,29.915,11.52,6.674,8.152
1882,1.109,35.352,19.157,43.029,29.922,11.518,6.713,8.11
1883,1.135,35.44,19.196,43.029,29.915,11.64,6.713,8.191
1884,1.135,34.846,19.138,43.058,29.922,11.641,6.713,8.192
1885,1.168,35.023,19.11,43.068,29.936,11.723,6.835,8.151
1886,1.158,35.092,19.114,43.011,29.919,11.601,6.674,8.028
1887,1.168,35.188,19.172,43.02,29.922,11.682,6.713,8.027
1888,1.181,34.949,19.099,43.02,29.919,11.642,6.632,7.987
1889,1.188,35.11,19.067,43.039,29.929,11.723,6.753,8.108
1890,1.194,35.256,19.0,43.039,29.922,11.683,6.754,8.069
1891,1.188,35.295,19.023,43.03,29.919,11.601,6.714,8.069
1892,1.181,35.056,19.062,43.02,29.926,11.641,6.713,8.028
1893,1.181,35.188,19.152,43.001,29.915,11.56,6.551,7.987
1894,1.201,35.333,19.13,43.02,29.929,11.64,6.712,8.027
1895,1.204,35.382,19.052,43.039,29.922,11.56,6.794,8.027
1896,1.198,34.932,19.098,43.03,29.929,11.6,6.795,8.027
1897,1.211,35.091,19.121,43.029,29.926,11.519,6.755,7.946
1898,1.204,35.179,19.149,43.01,29.922,11.477,6.714,7.945
1899,1.217,35.419,19.169,43.029,29.929,11.477,6.835,7.986
1900,1.224,35.009,19.146,43.01,29.926,11.396,6.796,7.986
1901,1.23,35.159,19.102,43.039,29.933,11.476,6.795,8.149
1902,1.234,35.237,19.036,43.03,29.922,11.274,6.714,7.947
1903,1.253,35.094,19.093,43.01,29.919,11.312,6.713,7.945
1904,1.26,35.159,19.18,43.029,29.929,11.394,6.754,7.945
1905,1.26,35.275,19.15,43.029,29.926,11.395,6.714,8.026
1906,1.293,35.43,19.052,43.049,29.94,11.517,6.835,8.068
1907,1.29,34.933,19.09,43.001,29.916,11.315,6.714,7.824
1908,1.286,35.052,19.098,43.01,29.933,11.475,6.672,7.863
1909,1.283,35.207,19.133,43.001,29.929,11.355,6.753,7.863
1910,1.283,35.295,19.157,43.02,29.933,11.395,6.795,7.944
1911,1.293,35.008,19.142,43.02,29.933,11.395,6.836,7.945
1912,1.286,35.13,19.149,43.01,29.926,11.314,6.755,7.905
1913,1.286,35.275,19.071,42.991,29.926,11.272,6.795,7.904
1914,1.293,35.353,19.094,43.01,29.926,11.231,6.673,7.782
1915,1.306,35.085,19.129,43.001,29.933,11.271,6.794,7.862
1916,1.293,35.217,19.149,43.0,29.929,11.19,6.795,7.944
1917,1.293,35.343,19.063,43.0,29.926,11.068,6.795,7.945
1918,1.296,35.421,19.055,43.02,29.933,10.985,6.755,7.823
1919,1.286,35.115,19.09,42.981,29.912,10.862,6.673,7.781
1920,1.316,35.294,19.106,43.019,29.926,11.024,6.835,7.944
1921,1.319,35.401,19.125,42.991,29.926,10.903,6.796,7.905
1922,1.319,35.441,19.122,43.019,29.933,10.983,6.836,7.945
1923,1.335,35.278,19.149,43.001,29.926,10.984,6.796,7.864
1924,1.336,35.411,19.036,43.01,29.926,10.984,6.795,7.944
1925,1.345,35.546,19.101,43.001,29.933,11.106,6.877,7.986
1926,1.362,35.883,19.118,43.01,29.933,11.148,6.755,8.027
1927,1.368,35.484,19.149,43.02,29.947,11.23,6.957,8.068
1928,1.355,35.585,19.11,42.981,29.926,11.068,6.675,7.824
1929,1.362,35.701,19.075,43.0,29.926,11.148,6.753,7.863
1930,1.359,35.578,19.024,42.991,29.933,11.23,6.795,7.904
1931,1.342,35.653,19.004,43.0,29.936,11.19,6.755,7.863
1932,1.323,35.798,19.089,43.0,29.943,11.271,6.754,7.985
1933,1.287,35.876,19.098,42.991,29.926,11.15,6.673,7.824
1934,1.299,35.8,19.141,42.981,29.929,11.108,6.713,7.822
1935,1.299,35.924,19.036,43.0,29.919,11.067,6.672,7.822
1936,1.28,36.069,19.101,43.0,29.933,11.107,6.753,7.903
1937,1.27,36.166,19.106,43.02,29.929,11.189,6.714,7.945
1938,1.263,35.88,19.164,42.981,29.926,10.986,6.672,7.905
1939,1.257,36.021,19.177,42.981,29.919,11.025,6.672,7.782
1940,1.257,36.156,19.153,42.971,29.912,10.903,6.713,7.7
1941,1.257,36.234,19.138,43.0,29.929,11.024,6.835,7.902
1942,1.24,36.283,19.087,42.991,29.929,11.025,6.796,7.823
1943,1.234,36.447,19.11,42.991,29.929,11.066,6.836,7.944
1944,1.227,36.563,19.094,42.981,29.929,11.066,6.837,7.742
1945,1.214,36.584,19.149,42.962,29.915,11.107,6.837,7.821
1946,1.221,36.565,19.06,42.99,29.933,11.23,6.837,7.944
1947,1.208,36.718,19.102,43.087,29.933,11.271,6.837,7.783
1948,1.201,36.815,19.114,43.001,29.936,11.394,6.958,7.862
1949,1.185,36.855,19.137,42.981,29.922,11.314,6.838,7.741
1950,1.155,36.98,19.13,42.981,29.929,11.313,6.837,7.821
1951,1.161,37.134,19.173,42.991,29.933,11.313,6.958,7.863
1952,1.148,37.222,19.153,43.0,29.929,11.394,6.96,7.822
1953,1.148,37.597,19.122,43.01,29.94,11.517,7.0,7.822
1954,1.113,37.227,19.079,42.981,29.919,11.315,6.879,7.659
1955,1.109,37.377,19.129,42.981,29.922,11.394,6.918,7.78
1956,1.093,37.484,19.165,42.991,29.926,11.314,6.837,7.7
1957,1.089,37.542,19.122,42.991,29.933,11.435,6.958,7.78
1958,1.05,37.648,19.071,42.991,29.926,11.436,6.878,7.822
1959,1.03,37.745,18.973,42.981,29.926,11.355,6.877,7.822
1960,1.046,37.852,19.101,43.048,29.919,11.273,6.918,7.781
1961,1.03,37.795,19.082,42.963,29.912,11.109,6.837,7.781
1962,1.037,37.977,19.133,42.99,29.929,11.27,6.918,7.862
1963,1.03,38.065,19.18,43.0,29.933,11.231,6.919,7.822
1964,1.02,38.152,19.083,43.01,29.933,11.353,6.959,7.985
1965,1.004,38.163,19.098,42.962,29.926,11.232,6.838,7.905
1966,0.987,38.297,19.106,42.971,29.919,11.271,6.837,7.904
1967,0.987,38.442,19.153,42.991,29.933,11.312,6.877,7.985
1968,0.968,38.511,19.13,42.981,29.933,11.272,6.877,7.864
1969,0.971,38.435,19.091,43.0,29.947,11.394,7.0,8.066
1970,0.945,38.511,19.055,42.962,29.926,11.11,6.838,7.865
1971,0.945,38.636,19.051,42.962,29.929,11.27,6.837,7.944
1972,0.938,38.695,19.101,42.981,29.926,11.15,6.796,7.945
1973,0.912,38.753,19.145,42.991,29.933,11.23,6.958,8.026
1974,0.899,38.888,19.188,42.962,29.933,11.068,6.919,8.109
1975,0.886,38.956,19.072,42.962,29.929,11.107,6.878,8.15
1976,0.892,39.005,19.078,42.99,29.922,11.067,6.837,8.273
1977,0.86,39.044,19.067,42.933,29.919,10.985,6.796,8.193
1978,0.866,39.207,19.113,42.981,29.929,11.066,6.958,8.354
1979,0.853,39.276,19.153,42.981,29.929,11.026,6.96,8.397
1980,0.872,39.478,19.153,42.991,29.936,11.025,7.082,8.478
1981,0.853,39.164,19.169,42.952,29.929,10.903,6.92,8.438
1982,0.846,39.256,19.11,42.962,29.929,10.943,6.919,8.438
1983,0.859,39.382,19.11,42.981,29.933,10.984,7.041,8.479
1984,0.853,39.374,19.106,42.971,29.929,10.984,7.001,8.52
1985,0.872,39.498,19.172,42.991,29.94,11.025,7.082,8.642
1986,0.859,39.605,19.083,42.962,29.926,10.944,6.961,8.44
1987,0.846,39.683,19.067,42.971,29.929,10.984,6.96,8.479
1988,0.856,39.501,19.067,42.981,29.933,10.944,7.082,8.438
1989,0.856,39.624,19.067,42.962,29.933,10.862,7.042,8.397
1990,0.846,39.76,19.141,43.0,29.94,10.942,7.164,8.438
1991,0.827,39.799,19.118,42.943,29.926,10.699,6.962,8.357
1992,0.82,39.685,19.196,42.962,29.929,10.737,7.0,8.437
1993,0.817,39.856,19.115,42.962,29.929,10.657,7.001,8.357
1994,0.807,39.963,19.122,42.981,29.929,10.696,7.123,8.356
1995,0.813,40.041,19.106,42.981,29.926,10.737,7.083,8.356
1996,0.79,39.735,19.172,42.962,29.926,10.738,7.083,8.315
1997,0.767,39.866,19.13,42.962,29.929,10.657,7.123,8.315
1998,0.77,39.944,19.071,42.943,29.919,10.412,7.002,8.112
1999,0.783,40.022,19.051,42.99,29.926,10.694,7.123,8.272
2000,0.784,40.032,18.988,42.991,29.922,10.616,7.124,8.233
2001,0.79,40.157,19.062,42.972,29.929,10.574,7.083,8.233
2002,0.79,40.263,19.102,42.971,29.922,10.614,7.042,8.111
2003,0.787,40.255,19.137,42.924,29.919,10.615,7.042,8.069
2004,0.813,40.063,19.095,42.971,29.933,10.818,7.123,8.191
2005,0.81,40.195,19.102,42.971,29.929,10.901,7.083,8.151
2006,0.797,40.293,19.094,42.971,29.933,10.943,7.205,8.15
2007,0.816,40.332,19.141,42.933,29.922,10.821,7.043,7.947
2008,0.81,40.073,19.126,42.961,29.929,10.861,7.042,7.945
2009,0.816,40.215,19.153,42.962,29.933,10.902,7.123,7.986
2010,0.8,40.302,19.102,42.952,29.929,10.902,7.124,7.986
2011,0.794,40.064,19.043,42.981,29.94,11.065,7.205,8.108
2012,0.777,40.119,19.09,42.952,29.926,10.904,6.962,7.947
2013,0.767,40.254,19.086,42.962,29.926,10.943,7.082,7.986
2014,0.764,40.341,19.156,42.952,29.926,11.024,7.042,7.864
2015,0.764,40.083,19.095,42.952,29.929,11.025,7.082,7.944
2016,0.774,40.253,19.102,43.0,29.936,11.107,7.042,7.986
2017,0.754,40.312,19.075,42.933,29.919,11.026,6.92,7.946
2018,0.754,40.399,19.156,42.942,29.926,11.066,6.919,7.945
2019,0.754,40.141,19.169,42.942,29.929,11.066,6.959,7.945
2020,0.774,40.292,19.169,42.952,29.929,11.188,6.96,8.026
2021,0.78,40.38,19.165,42.942,29.926,11.149,6.96,7.987
2022,0.774,40.448,19.122,42.942,29.926,11.189,6.878,7.946
2023,0.774,40.055,19.083,42.971,29.929,11.312,6.877,7.986
2024,0.774,40.157,19.067,42.924,29.919,11.272,6.796,7.864
2025,0.784,40.292,19.148,42.961,29.929,11.516,6.958,7.985
2026,0.79,40.332,19.083,42.933,29.933,11.518,6.919,8.027
2027,0.8,40.093,19.028,42.952,29.933,11.599,6.959,8.068
2028,0.787,40.234,19.097,42.942,29.926,11.519,6.838,7.906
2029,0.777,40.312,19.102,42.904,29.926,11.559,6.918,7.904
2030,0.784,40.371,19.141,42.952,29.94,11.681,6.959,8.067
2031,0.777,40.064,19.165,42.942,29.926,11.764,6.919,7.946
2032,0.78,40.195,19.161,42.962,29.94,11.805,7.081,8.067
2033,0.767,40.283,19.134,42.914,29.926,11.765,6.92,7.824
2034,0.757,40.255,19.067,42.932,29.926,11.805,7.041,7.944
2035,0.774,40.025,19.125,42.942,29.933,11.887,7.082,7.945
2036,0.774,40.118,19.165,42.952,29.933,11.847,7.083,7.945
2037,0.764,40.273,19.153,42.981,29.947,11.969,7.286,8.148
2038,0.761,40.054,19.087,42.914,29.919,11.767,7.044,7.866
2039,0.761,40.176,18.989,42.942,29.933,11.805,7.123,7.985
2040,0.78,40.302,19.058,42.942,29.929,11.765,7.124,7.905
2041,0.777,40.38,19.098,42.981,29.926,11.805,7.205,7.985
2042,0.79,39.69,19.094,42.962,29.936,11.887,7.206,8.027
2043,0.78,39.741,19.121,42.923,29.919,11.644,7.125,7.865
2044,0.784,39.895,19.118,42.923,29.929,11.641,7.124,7.904
2045,0.79,39.964,19.09,42.933,29.926,11.641,7.043,7.823
2046,0.784,39.686,19.098,42.923,29.933,11.682,7.204,7.944
2047,0.793,39.856,19.125,42.942,29.933,11.683,7.165,7.945
2048,0.784,39.944,19.141,42.904,29.922,11.601,7.124,7.864
2049,0.793,39.993,19.095,42.923,29.929,11.56,7.124,7.904
2050,0.78,39.6,19.094,42.913,29.919,11.478,7.083,7.782
2051,0.787,39.74,19.102,42.952,29.936,11.599,7.245,7.944
2052,0.774,39.857,19.024,42.923,29.926,11.519,7.166,7.945
2053,0.764,39.915,19.093,42.933,29.926,11.559,7.165,7.945
2054,0.767,39.427,19.121,42.904,29.922,11.397,7.124,7.823
2055,0.761,39.527,19.137,42.894,29.922,11.354,7.043,7.822
2056,0.757,39.691,19.079,42.932,29.926,11.476,7.164,7.863
2057,0.754,39.722,19.098,42.923,29.926,11.436,7.043,7.904
2058,0.761,39.406,19.11,42.952,29.94,11.517,7.164,7.945
2059,0.754,39.527,19.106,42.904,29.919,11.355,7.002,7.864
2060,0.757,39.653,19.161,42.913,29.926,11.313,7.041,7.944
2061,0.764,39.453,19.138,42.913,29.926,11.394,7.082,7.905
2062,0.777,39.154,19.098,42.913,29.933,11.436,7.042,7.863
2063,0.797,39.333,19.086,42.961,29.943,11.517,7.164,8.066
2064,0.784,39.383,19.075,42.904,29.922,11.274,7.043,7.946
2065,0.797,39.019,19.149,42.904,29.922,11.434,7.042,7.905
2066,0.794,39.101,19.138,42.913,29.929,11.395,7.042,7.904
2067,0.803,39.217,19.063,42.913,29.926,11.436,7.123,8.026
2068,0.8,39.362,19.066,43.0,29.929,11.477,7.043,7.987
2069,0.784,38.865,19.09,42.895,29.926,11.396,7.042,8.068
2070,0.79,39.014,19.098,42.894,29.929,11.354,7.082,8.028
2071,0.79,39.121,19.125,42.875,29.922,11.273,6.961,7.946
2072,0.787,39.217,19.141,42.923,29.926,11.434,7.122,8.067
2073,0.784,38.739,19.149,42.904,29.922,11.395,7.124,8.069
2074,0.774,38.878,19.114,42.942,29.922,11.314,7.124,8.069
2075,0.771,39.023,19.09,42.894,29.915,11.313,7.043,8.109
2076,0.757,39.034,19.153,42.884,29.915,11.232,7.042,8.069
2077,0.777,38.584,19.149,42.913,29.929,11.271,7.123,8.231
2078,0.771,38.704,19.106,42.904,29.929,11.272,7.083,8.233
2079,0.767,38.811,19.028,42.904,29.926,11.272,7.164,8.273
2080,0.777,38.869,19.019,42.894,29.922,11.272,7.043,8.152
2081,0.774,38.467,19.058,42.961,29.915,11.231,7.042,8.191
2082,0.793,38.626,19.051,42.923,29.922,11.353,7.082,8.273
2083,0.813,38.743,19.129,42.904,29.926,11.395,7.164,8.274
2084,0.807,38.782,19.126,42.923,29.936,11.517,7.287,8.477
2085,0.79,38.274,19.087,42.961,29.922,11.355,7.004,8.316
2086,0.8,38.423,19.078,42.895,29.926,11.435,7.041,8.356
2087,0.807,38.539,19.117,42.913,29.929,11.558,7.082,8.356
2088,0.8,38.329,19.126,42.913,29.933,11.559,7.083,8.437
2089,0.803,38.136,19.137,42.932,29.936,11.681,7.123,8.479
2090,0.774,38.23,19.083,42.875,29.919,11.52,6.961,8.316
2091,0.787,38.336,19.067,42.884,29.922,11.559,7.041,8.437
2092,0.8,37.954,19.031,42.875,29.919,11.559,7.042,8.357
2093,0.781,38.026,19.051,42.903,29.929,11.64,7.042,8.437
2094,0.787,38.181,19.137,42.884,29.929,11.682,6.96,8.438
2095,0.784,38.249,19.149,42.875,29.926,11.642,6.96,8.397
2096,0.78,37.79,19.04,42.884,29.926,11.641,6.96,8.397
2097,0.774,37.91,19.07,42.865,29.912,11.601,6.878,8.316
2098,0.774,38.064,19.094,42.894,29.926,11.722,7.0,8.477
2099,0.774,38.143,19.137,42.884,29.926,11.642,6.96,8.438
2100,0.784,37.664,19.141,42.865,29.926,11.601,6.96,8.479
2101,0.784,37.803,19.157,42.865,29.915,11.519,6.919,8.438
2102,0.78,37.891,19.134,42.874,29.919,11.477,6.878,8.397
2103,0.8,37.997,19.032,42.894,29.929,11.599,6.959,8.438
2104,0.787,37.413,19.066,42.894,29.926,11.56,6.878,8.56
2105,0.797,37.541,19.133,42.894,29.929,11.722,7.0,8.683
2106,0.8,37.658,19.134,42.856,29.919,11.601,6.797,8.44
2107,0.803,37.688,19.044,42.884,29.933,11.56,6.795,8.519
2108,0.81,37.362,19.078,42.942,29.929,11.64,6.917,8.561
2109,0.81,37.483,19.082,42.866,29.929,11.641,6.796,8.439
2110,0.8,37.648,19.125,42.913,29.94,11.763,6.958,8.56
2111,0.787,37.621,19.102,42.856,29.926,11.521,6.756,8.439
2112,0.797,37.208,19.157,42.884,29.933,11.477,6.795,8.519
2113,0.79,37.348,19.153,42.875,29.929,11.477,6.795,8.52
2114,0.78,37.464,19.102,42.894,29.922,11.477,6.836,8.561
2115,0.803,37.226,19.102,42.894,29.933,11.558,6.755,8.561
2116,0.784,36.993,19.102,42.856,29.919,11.519,6.714,8.521
