time,ecg,bvp,gsr,rsp,skt,emg_zygo,emg_coru,emg_trap
0,0.675,37.126,13.701,31.627,22.637,4.824,6.631,6.837
1,0.669,36.768,13.693,31.646,22.634,4.906,6.631,6.877
2,0.672,36.894,13.709,31.656,22.637,4.988,6.713,6.877
3,0.672,37.02,13.697,31.675,22.641,4.988,6.713,6.96
4,0.695,37.107,13.756,31.666,22.648,4.988,6.713,6.96
5,0.692,36.69,13.677,31.675,22.648,5.03,6.837,6.919
6,0.695,36.845,13.697,31.685,22.648,5.03,6.754,6.96
7,0.711,36.962,13.716,31.695,22.644,5.03,6.754,6.96
8,0.715,37.059,13.713,31.695,22.655,5.07,6.713,6.877
9,0.721,36.749,13.724,31.714,22.651,5.03,6.713,6.837
10,0.715,36.913,13.724,31.695,22.648,4.988,6.754,6.795
11,0.728,37.02,13.756,31.695,22.644,4.988,6.59,6.795
12,0.728,37.107,13.732,31.675,22.644,4.988,6.631,6.713
13,0.724,36.749,13.689,31.666,22.641,4.865,6.59,6.672
14,0.708,36.874,13.732,31.675,22.634,4.906,6.631,6.672
15,0.692,37.0,13.665,31.685,22.641,4.947,6.549,6.672
16,0.678,37.049,13.673,31.685,22.634,4.906,6.549,6.672
17,0.669,36.71,13.709,31.685,22.644,4.988,6.631,6.631
18,0.669,36.865,13.697,31.666,22.641,4.865,6.59,6.672
19,0.662,36.981,13.693,31.695,22.634,4.906,6.631,6.631
20,0.665,37.029,13.685,31.675,22.634,4.865,6.549,6.631
21,0.659,36.816,13.74,31.675,22.637,4.906,6.631,6.713
22,0.665,36.971,13.72,31.714,22.641,4.947,6.631,6.672
23,0.669,37.078,13.685,31.685,22.637,4.947,6.59,6.672
24,0.682,37.078,13.744,31.675,22.641,4.865,6.508,6.672
25,0.685,36.613,13.701,31.685,22.634,4.947,6.549,6.631
26,0.688,36.768,13.705,31.685,22.637,4.865,6.549,6.631
27,0.705,36.874,13.713,31.695,22.641,4.906,6.549,6.672
28,0.701,36.797,13.724,31.675,22.637,4.865,6.508,6.713
29,0.705,36.797,13.744,31.685,22.637,4.906,6.549,6.631
30,0.701,36.952,13.697,31.695,22.637,4.906,6.549,6.713
31,0.708,37.029,13.764,31.685,22.637,4.906,6.508,6.672
32,0.705,36.671,13.709,31.695,22.641,4.865,6.549,6.631
33,0.711,36.758,13.709,31.695,22.641,4.906,6.508,6.713
34,0.698,36.865,13.76,31.685,22.641,4.947,6.59,6.672
35,0.695,36.981,13.669,31.695,22.637,4.988,6.467,6.672
36,0.682,36.72,13.716,31.695,22.641,4.865,6.549,6.795
37,0.672,36.865,13.685,31.695,22.634,4.988,6.549,6.631
38,0.659,36.981,13.728,31.714,22.634,4.824,6.467,6.631
39,0.649,37.078,13.713,31.704,22.641,4.947,6.549,6.672
40,0.655,36.7,13.705,31.695,22.644,4.947,6.549,6.672
41,0.652,36.855,13.748,31.704,22.637,4.906,6.508,6.713
42,0.649,36.981,13.724,31.714,22.637,4.947,6.549,6.754
43,0.669,37.039,13.709,31.714,22.641,4.906,6.508,6.672
44,0.692,36.787,13.744,31.714,22.644,4.906,6.467,6.631
45,0.659,36.913,13.685,31.704,22.641,4.906,6.467,6.508
46,0.669,37.059,13.705,31.704,22.644,4.824,6.343,6.549
47,0.682,37.097,13.709,31.704,22.637,4.824,6.426,6.508
48,0.678,36.69,13.732,31.714,22.634,4.865,6.385,6.549
49,0.678,36.836,13.724,31.695,22.63,4.865,6.426,6.467
50,0.685,36.942,13.713,31.695,22.627,4.865,6.302,6.467
51,0.688,36.981,13.72,31.675,22.623,4.742,6.302,6.426
52,0.688,36.69,13.697,31.695,22.627,4.742,6.302,6.426
53,0.685,36.836,13.709,31.685,22.627,4.701,6.385,6.385
54,0.675,36.923,13.724,31.675,22.627,4.701,6.343,6.385
55,0.665,36.942,13.634,31.695,22.627,4.824,6.302,6.467
56,0.655,36.807,13.673,31.685,22.627,4.824,6.385,6.508
57,0.649,36.942,13.689,31.695,22.634,4.783,6.426,6.549
58,0.652,37.049,13.693,31.704,22.63,4.906,6.467,6.549
59,0.642,36.807,13.716,31.704,22.634,4.865,6.467,6.549
60,0.646,36.758,13.689,31.714,22.637,4.865,6.385,6.549
61,0.636,36.913,13.756,31.714,22.634,4.906,6.385,6.549
62,0.632,37.029,13.732,31.714,22.634,4.865,6.426,6.59
63,0.629,36.71,13.709,31.724,22.641,4.865,6.426,6.631
64,0.652,36.787,13.752,31.724,22.634,4.865,6.385,6.631
65,0.662,36.923,13.673,31.734,22.637,4.824,6.385,6.713
66,0.662,37.02,13.689,31.724,22.634,4.947,6.467,6.754
67,0.669,36.69,13.705,31.734,22.637,4.865,6.426,6.795
68,0.669,36.826,13.701,31.724,22.637,4.906,6.385,6.795
69,0.675,36.962,13.709,31.714,22.634,4.906,6.467,6.837
70,0.675,37.029,13.693,31.724,22.637,4.783,6.467,6.837
71,0.688,36.681,13.716,31.714,22.63,4.824,6.385,6.837
72,0.682,36.865,13.713,31.734,22.637,4.906,6.467,6.877
73,0.678,36.971,13.701,31.734,22.637,4.824,6.467,6.919
74,0.678,37.039,13.752,31.714,22.63,4.906,6.467,6.919
75,0.662,36.613,13.665,31.734,22.634,4.783,6.426,7.001
76,0.669,36.768,13.716,31.714,22.634,4.865,6.467,6.96
77,0.655,36.884,13.724,31.734,22.634,4.783,6.426,6.919
78,0.649,36.962,13.701,31.724,22.627,4.906,6.508,6.837
79,0.642,36.816,13.709,31.714,22.627,4.865,6.467,6.877
80,0.646,36.981,13.713,31.714,22.634,4.824,6.467,6.837
81,0.646,37.078,13.716,31.734,22.627,4.783,6.508,6.96
82,0.632,37.126,13.713,31.724,22.63,4.783,6.549,6.877
83,0.632,36.749,13.681,31.743,22.63,4.824,6.549,6.877
84,0.646,36.874,13.713,31.734,22.627,4.824,6.467,6.837
85,0.662,36.991,13.673,31.734,22.63,4.742,6.549,6.877
86,0.659,37.165,13.697,31.734,22.627,4.783,6.508,6.837
87,0.665,36.72,13.72,31.743,22.634,4.783,6.508,6.877
88,0.662,36.865,13.709,31.734,22.627,4.824,6.467,6.919
89,0.675,36.962,13.697,31.734,22.627,4.824,6.59,6.919
90,0.672,36.768,13.709,31.743,22.63,4.824,6.549,6.919
91,0.688,36.72,13.681,31.724,22.63,4.783,6.631,6.877
92,0.682,36.874,13.693,31.743,22.63,4.824,6.631,6.877
93,0.682,37.01,13.716,31.753,22.641,4.906,6.672,6.96
94,0.672,36.69,13.716,31.734,22.637,4.906,6.713,6.96
95,0.672,36.807,13.618,31.772,22.641,4.947,6.672,7.042
96,0.665,36.962,13.693,31.772,22.641,4.947,6.672,6.919
97,0.659,37.039,13.744,31.763,22.648,4.988,6.713,7.083
98,0.649,36.603,13.732,31.763,22.648,5.03,6.754,6.96
99,0.646,36.758,13.716,31.772,22.648,4.988,6.672,6.96
100,0.639,36.894,13.74,31.782,22.644,5.03,6.754,6.877
101,0.642,37.0,13.736,31.801,22.648,4.988,6.754,6.919
102,0.652,36.807,13.728,31.792,22.648,5.03,6.672,6.795
103,0.659,36.923,13.728,31.792,22.641,4.865,6.631,6.795
104,0.665,37.029,13.756,31.772,22.641,4.865,6.672,6.795
105,0.669,37.107,13.657,31.763,22.641,4.824,6.672,6.713
106,0.669,36.623,13.701,31.763,22.634,4.865,6.631,6.713
107,0.669,36.729,13.701,31.763,22.634,4.906,6.631,6.837
108,0.669,36.865,13.724,31.753,22.641,4.906,6.631,6.754
109,0.678,36.923,13.709,31.782,22.637,4.865,6.631,6.672
110,0.682,36.71,13.709,31.772,22.637,4.824,6.59,6.754
111,0.682,36.855,13.716,31.753,22.637,4.865,6.672,6.631
112,0.685,36.991,13.705,31.772,22.641,4.865,6.713,6.672
113,0.682,37.02,13.716,31.782,22.634,4.906,6.672,6.631
114,0.669,36.72,13.716,31.792,22.634,4.906,6.672,6.59
115,0.659,36.845,13.642,31.782,22.637,4.906,6.713,6.631
116,0.659,36.981,13.685,31.792,22.634,4.906,6.672,6.672
117,0.655,37.252,13.669,31.782,22.637,4.865,6.672,6.631
118,0.642,36.758,13.72,31.792,22.634,4.906,6.672,6.549
119,0.649,36.894,13.697,31.782,22.637,4.947,6.713,6.631
120,0.639,37.0,13.732,31.782,22.644,4.906,6.631,6.549
121,0.632,36.729,13.736,31.792,22.641,4.906,6.713,6.631
122,0.629,36.69,13.701,31.83,22.644,5.03,6.672,6.631
123,0.626,36.826,13.709,31.801,22.641,4.865,6.713,6.59
124,0.639,36.933,13.732,31.801,22.641,4.947,6.672,6.549
125,0.665,36.603,13.701,31.801,22.63,4.947,6.713,6.549
126,0.669,36.739,13.677,31.801,22.641,4.947,6.672,6.549
127,0.659,36.845,13.693,31.792,22.634,4.947,6.672,6.508
128,0.672,36.942,13.716,31.801,22.641,4.947,6.713,6.631
129,0.695,36.652,13.705,31.811,22.637,4.947,6.631,6.631
130,0.701,36.797,13.709,31.821,22.644,4.906,6.672,6.59
131,0.721,36.913,13.74,31.782,22.644,4.947,6.672,6.59
132,0.695,37.01,13.728,31.811,22.637,4.906,6.631,6.549
133,0.662,36.565,13.716,31.811,22.637,4.906,6.672,6.59
134,0.675,36.72,13.744,31.801,22.637,4.865,6.713,6.631
135,0.672,36.836,13.677,31.801,22.634,4.906,6.549,6.672
136,0.665,36.913,13.697,31.801,22.641,4.865,6.549,6.631
137,0.646,36.632,13.673,31.811,22.634,4.865,6.549,6.672
138,0.649,36.787,13.693,31.782,22.637,4.906,6.508,6.672
139,0.646,36.894,13.685,31.792,22.634,4.783,6.549,6.631
140,0.642,36.962,13.697,31.792,22.634,4.783,6.549,6.713
141,0.632,36.574,13.764,31.792,22.63,4.824,6.508,6.754
142,0.636,36.739,13.709,31.792,22.627,4.701,6.549,6.795
143,0.623,36.855,13.689,31.801,22.63,4.742,6.549,6.837
144,0.636,36.855,13.744,31.772,22.627,4.742,6.508,6.837
145,0.642,36.526,13.677,31.792,22.623,4.783,6.508,6.837
146,0.655,36.681,13.693,31.772,22.63,4.783,6.467,6.877
147,0.665,36.768,13.669,31.782,22.623,4.783,6.59,6.837
148,0.662,37.136,13.681,31.782,22.627,4.783,6.631,6.877
149,0.662,36.594,13.677,31.792,22.63,4.783,6.59,6.919
150,0.669,36.729,13.673,31.811,22.63,4.865,6.59,6.919
151,0.682,36.845,13.744,31.811,22.634,4.824,6.631,6.919
152,0.669,36.565,13.716,31.801,22.634,4.824,6.59,6.96
153,0.678,36.555,13.709,31.821,22.63,4.906,6.549,6.877
154,0.672,36.71,13.748,31.84,22.634,4.865,6.549,6.919
155,0.655,36.807,13.653,31.811,22.63,4.865,6.631,6.96
156,0.652,36.545,13.693,31.821,22.634,4.783,6.631,7.042
157,0.652,36.681,13.669,31.811,22.634,4.824,6.549,7.001
158,0.649,36.807,13.705,31.811,22.637,4.824,6.549,6.96
159,0.642,36.904,13.724,31.821,22.637,4.824,6.59,7.001
160,0.646,36.487,13.697,31.83,22.63,4.865,6.549,7.042
161,0.646,36.623,13.756,31.83,22.627,4.865,6.59,7.001
162,0.642,36.749,13.701,31.898,22.627,4.824,6.508,7.124
163,0.629,36.826,13.685,31.83,22.63,4.824,6.59,7.001
164,0.646,36.845,13.756,31.811,22.637,4.783,6.59,6.96
165,0.652,36.971,13.689,31.84,22.637,4.865,6.549,7.083
166,0.662,37.117,13.716,31.83,22.63,4.865,6.549,7.083
167,0.672,37.155,13.72,31.83,22.637,4.824,6.549,7.042
168,0.669,36.303,13.716,31.83,22.641,4.865,6.508,7.083
169,0.662,36.477,13.72,31.821,22.63,4.865,6.59,7.042
170,0.672,36.574,13.701,31.83,22.634,4.865,6.549,7.083
171,0.685,36.642,13.728,31.84,22.627,4.783,6.508,7.042
172,0.688,36.497,13.713,31.85,22.637,4.824,6.59,7.001
173,0.695,36.632,13.677,31.811,22.63,4.865,6.508,7.001
174,0.685,36.758,13.716,31.83,22.634,4.783,6.426,7.042
175,0.659,36.787,13.614,31.83,22.637,4.824,6.467,7.042
176,0.662,36.555,13.665,31.84,22.627,4.824,6.549,7.001
177,0.655,36.661,13.713,31.83,22.634,4.824,6.508,6.96
178,0.649,36.797,13.701,31.85,22.637,4.824,6.508,6.96
179,0.632,37.155,13.74,31.84,22.634,4.742,6.549,6.96
180,0.629,36.439,13.677,31.821,22.634,4.742,6.508,6.96
181,0.636,36.545,13.736,31.84,22.63,4.742,6.467,6.96
182,0.636,36.671,13.697,31.83,22.634,4.824,6.631,6.919
183,0.639,36.439,13.693,31.821,22.627,4.783,6.59,6.96
184,0.646,36.429,13.72,31.85,22.63,4.742,6.631,6.919
185,0.655,36.584,13.638,31.85,22.634,4.865,6.59,6.96
186,0.649,36.681,13.701,31.859,22.634,4.824,6.631,7.001
187,0.659,36.448,13.72,31.85,22.634,4.824,6.672,6.96
188,0.662,36.603,13.728,31.879,22.641,4.906,6.713,6.96
189,0.672,36.729,13.724,31.869,22.641,4.906,6.672,7.001
190,0.675,36.836,13.689,31.888,22.648,4.988,6.713,7.042
191,0.705,36.361,13.74,31.879,22.641,4.947,6.713,6.919
192,0.698,36.506,13.709,31.888,22.648,4.947,6.754,6.96
193,0.692,36.642,13.72,31.898,22.648,4.988,6.795,6.96
194,0.685,36.72,13.748,31.888,22.651,4.988,6.795,6.877
195,0.682,36.429,13.614,31.908,22.651,4.988,6.672,6.877
196,0.685,36.574,13.681,31.908,22.648,5.07,6.713,6.919
197,0.678,36.7,13.665,31.908,22.644,4.947,6.713,6.877
198,0.682,36.787,13.709,31.908,22.644,4.988,6.631,6.877
199,0.682,36.487,13.732,31.898,22.648,4.906,6.631,6.877
200,0.678,36.642,13.701,31.888,22.648,4.947,6.631,6.877
201,0.682,36.72,13.76,31.898,22.637,4.906,6.631,6.96
202,0.675,36.787,13.736,31.879,22.637,4.824,6.631,7.042
203,0.672,36.39,13.697,31.888,22.634,4.906,6.59,7.001
204,0.688,36.526,13.74,31.879,22.634,4.824,6.59,7.124
205,0.701,36.632,13.673,31.888,22.641,4.824,6.549,7.042
206,0.701,36.671,13.681,31.888,22.637,4.865,6.631,7.042
207,0.718,36.351,13.705,31.888,22.641,4.947,6.549,7.124
208,0.734,36.497,13.685,31.888,22.634,4.906,6.631,7.124
209,0.738,36.613,13.681,31.898,22.637,4.824,6.59,7.124
210,0.741,36.981,13.697,31.898,22.637,4.865,6.59,7.165
211,0.757,36.342,13.724,31.908,22.634,4.906,6.631,7.206
212,0.777,36.477,13.724,31.898,22.641,4.906,6.631,7.165
213,0.78,36.584,13.693,31.888,22.637,4.906,6.631,7.206
214,0.774,36.4,13.76,31.888,22.637,4.865,6.631,7.206
215,0.767,36.419,13.701,31.908,22.641,4.947,6.672,7.206
216,0.764,36.555,13.693,31.898,22.641,4.906,6.631,7.206
217,0.751,36.661,13.724,31.898,22.637,4.906,6.672,7.247
218,0.747,36.235,13.689,31.898,22.641,4.947,6.631,7.165
219,0.747,36.332,13.697,31.898,22.637,4.865,6.672,7.124
220,0.751,36.477,13.72,31.908,22.641,4.865,6.631,7.206
221,0.767,36.555,13.744,31.898,22.641,4.906,6.713,7.206
222,0.78,36.4,13.622,31.927,22.641,4.906,6.754,7.247
223,0.754,36.535,13.709,31.898,22.644,4.824,6.713,7.247
224,0.77,36.681,13.748,31.898,22.644,4.988,6.795,7.165
225,0.79,36.72,13.724,31.917,22.637,4.906,6.754,7.165
226,0.797,36.138,13.693,31.908,22.641,4.906,6.754,7.165
227,0.816,36.274,13.701,31.908,22.637,4.865,6.713,7.206
228,0.82,36.4,13.701,31.927,22.634,4.988,6.713,7.288
229,0.826,36.506,13.724,31.917,22.644,4.906,6.713,7.411
230,0.836,36.255,13.716,31.917,22.634,4.865,6.754,7.37
231,0.853,36.4,13.736,31.908,22.641,4.865,6.754,7.329
232,0.856,36.526,13.72,31.908,22.63,4.824,6.754,7.288
233,0.872,36.584,13.72,31.908,22.637,4.824,6.713,7.37
234,0.853,36.293,13.724,31.908,22.634,4.783,6.59,7.329
235,0.853,36.448,13.693,31.917,22.634,4.783,6.631,7.37
236,0.839,36.565,13.693,31.917,22.63,4.783,6.631,7.37
237,0.846,36.603,13.693,31.898,22.627,4.742,6.631,7.329
238,0.856,36.274,13.693,31.898,22.623,4.742,6.672,7.452
239,0.853,36.429,13.681,31.898,22.627,4.742,6.631,7.494
240,0.846,36.516,13.697,31.898,22.627,4.742,6.549,7.534
241,0.826,36.826,13.709,31.908,22.63,4.865,6.672,7.658
242,0.81,36.177,13.705,31.976,22.623,4.742,6.631,7.534
243,0.8,36.322,13.693,31.937,22.634,4.865,6.713,7.575
244,0.813,36.429,13.728,31.927,22.63,4.865,6.754,7.575
245,0.81,36.371,13.693,31.927,22.634,4.865,6.672,7.534
246,0.816,36.439,13.709,31.946,22.634,4.906,6.713,7.494
247,0.816,36.555,13.716,31.937,22.641,4.906,6.754,7.534
248,0.83,36.69,13.724,31.946,22.637,4.824,6.713,7.534
249,0.826,36.012,13.689,31.937,22.634,4.824,6.713,7.494
250,0.81,36.1,13.713,31.946,22.634,4.865,6.713,7.452
251,0.83,36.235,13.748,31.946,22.634,4.865,6.672,7.494
252,0.813,36.342,13.744,31.946,22.634,4.865,6.672,7.452
253,0.81,36.226,13.685,31.927,22.637,4.906,6.754,7.452
254,0.803,36.361,13.74,31.946,22.641,4.947,6.672,7.411
255,0.797,36.468,13.681,31.946,22.637,4.906,6.672,7.411
256,0.79,36.574,13.669,31.956,22.637,4.947,6.631,7.37
257,0.774,36.167,13.693,31.937,22.634,4.947,6.631,7.37
258,0.767,36.332,13.732,31.937,22.634,4.865,6.672,7.37
259,0.757,36.458,13.724,31.966,22.637,4.824,6.672,7.329
260,0.757,36.535,13.724,31.937,22.634,4.906,6.713,7.288
261,0.731,36.071,13.713,31.937,22.634,4.824,6.631,7.329
262,0.734,36.264,13.681,31.985,22.637,4.865,6.754,7.247
263,0.734,36.342,13.701,31.966,22.634,4.906,6.672,7.247
264,0.731,36.41,13.74,31.927,22.634,4.865,6.713,7.206
265,0.734,36.226,13.693,31.946,22.634,4.783,6.672,7.247
266,0.744,36.4,13.685,31.956,22.634,4.906,6.672,7.165
267,0.754,36.506,13.716,31.937,22.637,4.824,6.549,7.042
268,0.754,36.545,13.72,31.946,22.634,4.906,6.672,7.083
269,0.738,36.167,13.716,31.946,22.634,4.824,6.713,7.042
270,0.728,36.322,13.709,31.966,22.634,4.824,6.672,7.001
271,0.724,36.419,13.724,31.956,22.627,4.865,6.631,7.001
272,0.724,36.671,13.713,31.937,22.637,4.824,6.631,6.96
273,0.724,36.119,13.697,31.956,22.634,4.783,6.672,6.96
274,0.718,36.255,13.724,31.946,22.634,4.865,6.549,6.96
275,0.711,36.361,13.685,31.946,22.627,4.783,6.631,6.96
276,0.688,36.187,13.685,31.956,22.634,4.824,6.631,6.919
277,0.669,36.206,13.649,31.946,22.627,4.824,6.631,6.837
278,0.665,36.351,13.697,31.946,22.627,4.824,6.672,6.877
279,0.655,36.448,13.685,31.937,22.637,4.865,6.713,6.919
280,0.652,36.032,13.705,31.937,22.63,4.865,6.672,6.877
281,0.639,36.148,13.756,31.956,22.634,4.906,6.754,6.837
282,0.636,36.293,13.709,31.956,22.634,4.824,6.754,6.96
283,0.626,36.4,13.716,31.976,22.634,4.865,6.795,6.877
284,0.626,36.177,13.756,31.976,22.634,4.906,6.795,6.919
285,0.632,36.332,13.657,31.976,22.641,4.865,6.837,6.877
286,0.636,36.458,13.685,31.976,22.641,4.906,6.96,6.837
287,0.632,36.545,13.693,31.976,22.641,4.906,6.919,6.919
288,0.632,36.1,13.72,31.995,22.641,4.947,6.919,6.919
289,0.642,36.255,13.697,31.985,22.648,4.947,6.919,6.837
290,0.639,36.371,13.716,31.985,22.644,4.988,6.96,6.837
291,0.646,36.448,13.728,31.995,22.644,5.03,6.96,6.837
292,0.642,36.08,13.709,31.995,22.644,4.988,7.042,6.795
293,0.655,36.235,13.728,31.995,22.644,5.03,7.001,6.795
294,0.632,36.371,13.764,32.005,22.644,4.988,7.001,6.795
295,0.629,36.429,13.685,32.014,22.655,4.988,7.001,6.795
296,0.639,36.167,13.701,32.014,22.648,4.988,7.001,6.754
297,0.623,36.313,13.724,32.024,22.648,4.906,6.919,6.713
298,0.623,36.448,13.72,32.014,22.644,4.906,7.001,6.631
299,0.623,36.487,13.709,32.005,22.641,4.906,6.837,6.59
300,0.609,36.177,13.701,32.005,22.641,4.865,6.837,6.672
301,0.606,36.313,13.74,32.005,22.637,4.906,6.795,6.59
302,0.596,36.419,13.72,32.005,22.637,4.906,6.877,6.672
303,0.593,36.661,13.701,31.995,22.634,4.906,6.837,6.549
304,0.593,36.216,13.768,32.005,22.634,4.824,6.877,6.549
305,0.609,36.342,13.716,32.014,22.637,4.865,6.877,6.508
306,0.613,36.448,13.701,32.005,22.63,4.865,6.795,6.508
307,0.623,36.1,13.713,32.024,22.637,4.824,6.837,6.549
308,0.623,36.09,13.724,32.014,22.637,4.783,6.754,6.549
309,0.626,36.245,13.681,32.005,22.641,4.906,6.877,6.549
310,0.629,36.332,13.709,32.005,22.637,4.906,6.754,6.508
311,0.636,36.051,13.713,32.014,22.637,4.906,6.795,6.508
312,0.632,36.196,13.709,32.014,22.637,4.865,6.795,6.467
313,0.632,36.322,13.665,32.005,22.637,4.906,6.795,6.508
314,0.623,36.41,13.736,32.024,22.637,4.906,6.837,6.59
315,0.613,36.071,13.72,32.014,22.634,4.906,6.795,6.549
316,0.609,36.226,13.705,32.014,22.637,4.906,6.795,6.549
317,0.603,36.361,13.74,32.014,22.644,4.865,6.754,6.549
318,0.606,36.448,13.732,32.014,22.641,4.865,6.713,6.508
319,0.6,36.003,13.705,32.014,22.648,4.906,6.795,6.508
320,0.6,36.158,13.728,32.014,22.637,4.865,6.754,6.508
321,0.593,36.274,13.732,32.014,22.637,4.988,6.754,6.549
322,0.583,36.351,13.709,32.111,22.641,4.947,6.754,6.59
323,0.586,36.129,13.681,32.014,22.634,4.865,6.795,6.508
324,0.606,36.255,13.728,32.034,22.644,4.947,6.754,6.59
325,0.613,36.381,13.701,32.024,22.644,4.906,6.754,6.467
326,0.629,36.429,13.701,32.043,22.641,4.947,6.713,6.59
327,0.636,36.109,13.701,32.043,22.644,4.947,6.837,6.549
328,0.639,36.235,13.728,32.034,22.641,4.947,6.754,6.508
329,0.639,36.4,13.701,32.024,22.648,4.906,6.754,6.508
330,0.639,36.41,13.716,32.043,22.637,4.947,6.795,6.508
331,0.652,36.138,13.752,32.034,22.641,4.865,6.795,6.385
332,0.655,36.284,13.709,32.043,22.634,4.865,6.713,6.549
333,0.659,36.41,13.713,32.034,22.641,4.824,6.672,6.549
334,0.642,36.555,13.72,32.024,22.637,4.865,6.713,6.467
335,0.626,36.061,13.677,32.014,22.634,4.783,6.754,6.549
336,0.606,36.206,13.689,32.024,22.63,4.865,6.631,6.713
337,0.603,36.313,13.673,32.024,22.63,4.783,6.631,6.713
338,0.596,36.167,13.697,32.005,22.623,4.701,6.59,6.795
339,0.6,36.187,13.693,32.014,22.634,4.783,6.59,6.919
340,0.609,36.342,13.689,32.005,22.627,4.701,6.631,7.001
341,0.603,36.419,13.724,32.014,22.62,4.824,6.59,7.124
342,0.596,35.974,13.693,32.005,22.623,4.742,6.631,7.206
343,0.59,36.09,13.685,32.014,22.627,4.742,6.713,7.206
344,0.603,36.206,13.693,32.024,22.627,4.783,6.631,7.329
345,0.6,36.293,13.661,32.024,22.63,4.824,6.631,7.329
346,0.623,36.051,13.677,32.024,22.634,4.865,6.549,7.37
347,0.629,36.177,13.681,32.024,22.637,4.906,6.59,7.37
348,0.639,36.322,13.697,32.024,22.637,4.865,6.713,7.37
349,0.642,36.419,13.709,32.053,22.63,4.865,6.631,7.452
350,0.642,36.012,13.724,32.043,22.641,4.865,6.549,7.411
351,0.642,36.158,13.764,32.024,22.63,4.824,6.549,7.37
352,0.632,36.284,13.713,32.034,22.641,4.865,6.631,7.411
353,0.636,36.381,13.72,32.034,22.641,4.783,6.631,7.411
354,0.652,36.129,13.744,32.024,22.637,4.865,6.631,7.37
355,0.682,36.284,13.661,32.034,22.641,4.906,6.549,7.452
356,0.718,36.419,13.693,32.043,22.634,4.865,6.631,7.452
357,0.761,36.448,13.701,32.034,22.634,4.865,6.549,7.494
358,0.8,36.119,13.689,32.043,22.634,4.865,6.549,7.534
359,0.849,36.245,13.713,32.043,22.641,4.824,6.549,7.534
360,0.892,36.371,13.705,32.034,22.637,4.824,6.59,7.575
361,0.931,36.4,13.756,32.043,22.637,4.824,6.549,7.575
362,0.987,36.109,13.713,32.053,22.63,4.783,6.508,7.699
363,1.05,36.274,13.685,32.034,22.641,4.783,6.508,7.699
364,1.119,36.361,13.748,32.034,22.641,4.824,6.549,7.617
365,1.201,36.535,13.649,32.034,22.634,4.824,6.508,7.617
366,1.276,36.206,13.685,32.043,22.63,4.865,6.467,7.658
367,1.345,36.342,13.689,32.034,22.63,4.824,6.467,7.699
368,1.401,36.458,13.697,32.053,22.634,4.824,6.467,7.74
369,1.46,36.071,13.701,32.034,22.634,4.824,6.426,7.658
370,1.526,36.071,13.689,32.034,22.63,4.865,6.426,7.658
371,1.612,36.216,13.736,32.024,22.637,4.824,6.426,7.617
372,1.707,36.332,13.709,32.043,22.634,4.824,6.426,7.617
373,1.776,36.032,13.713,32.024,22.63,4.865,6.467,7.575
374,1.819,36.138,13.744,32.014,22.634,4.824,6.426,7.617
375,1.842,36.284,13.63,32.034,22.634,4.824,6.385,7.575
376,1.897,36.4,13.693,32.034,22.627,4.906,6.385,7.575
377,1.97,36.129,13.665,32.014,22.627,4.906,6.385,7.534
378,2.012,36.284,13.685,32.053,22.63,4.906,6.426,7.452
379,2.035,36.39,13.701,32.024,22.637,4.824,6.385,7.534
380,2.065,36.506,13.697,32.024,22.63,4.824,6.426,7.575
381,2.072,36.022,13.732,32.034,22.63,4.947,6.508,7.617
382,2.091,36.167,13.677,32.043,22.634,4.824,6.467,7.658
383,2.078,36.293,13.693,32.034,22.637,4.906,6.508,7.781
384,2.078,36.351,13.732,32.024,22.641,4.947,6.59,7.904
385,2.095,36.109,13.681,32.043,22.637,4.988,6.549,7.945
386,2.065,36.245,13.701,32.043,22.644,4.947,6.549,8.109
387,1.96,36.381,13.693,32.063,22.648,5.03,6.631,8.274
388,1.838,36.429,13.713,32.072,22.641,4.988,6.672,8.438
389,1.687,36.109,13.701,32.063,22.644,4.947,6.713,8.479
390,1.5,36.264,13.693,32.072,22.651,5.112,6.631,8.644
391,1.299,36.371,13.709,32.072,22.651,5.07,6.713,8.849
392,1.109,36.419,13.677,32.092,22.648,5.07,6.631,9.095
393,1.004,36.196,13.732,32.063,22.648,5.07,6.713,9.259
394,0.899,36.322,13.709,32.072,22.648,4.988,6.672,9.506
395,0.816,36.429,13.72,32.121,22.648,5.03,6.672,9.629
396,0.764,36.497,13.72,32.072,22.644,4.947,6.713,9.876
397,0.685,36.119,13.744,32.072,22.641,5.03,6.59,9.999
398,0.629,36.255,13.728,32.063,22.637,4.988,6.59,10.163
399,0.6,36.361,13.724,32.034,22.637,4.947,6.672,10.286
400,0.567,36.119,13.689,32.043,22.637,4.988,6.672,10.45
401,0.55,36.167,13.744,32.063,22.634,4.947,6.59,10.574
402,0.541,36.332,13.697,32.053,22.634,4.947,6.672,10.697
403,0.547,36.41,13.685,32.053,22.637,4.947,6.672,10.697
404,0.577,36.071,13.744,32.034,22.634,4.947,6.754,10.902
405,0.609,36.196,13.642,32.043,22.634,4.947,6.713,10.984
406,0.629,36.322,13.697,32.053,22.634,4.988,6.672,11.149
407,0.619,36.41,13.72,32.053,22.637,4.988,6.672,11.354
408,0.632,35.964,13.716,32.043,22.637,4.906,6.754,11.477
409,0.662,36.109,13.705,32.043,22.637,4.988,6.672,11.641
410,0.678,36.255,13.713,32.043,22.637,4.988,6.672,11.847
411,0.711,36.313,13.724,32.043,22.641,5.07,6.631,12.052
412,0.734,36.148,13.705,32.024,22.641,4.906,6.713,12.298
413,0.754,36.293,13.705,32.053,22.641,4.988,6.713,12.381
414,0.761,36.4,13.728,32.043,22.637,4.988,6.713,12.545
415,0.761,36.487,13.661,32.053,22.637,4.947,6.713,12.668
416,0.767,35.896,13.665,32.053,22.634,4.947,6.631,12.709
417,0.761,36.032,13.677,32.043,22.641,4.988,6.672,12.627
418,0.751,36.177,13.724,32.053,22.641,4.988,6.713,12.627
419,0.724,36.235,13.709,32.072,22.641,5.03,6.672,12.668
420,0.715,36.177,13.709,32.072,22.637,4.988,6.713,12.545
421,0.705,36.322,13.724,32.053,22.641,4.988,6.672,12.586
422,0.701,36.429,13.594,32.072,22.644,4.947,6.713,12.422
423,0.698,36.487,13.709,32.053,22.648,4.988,6.672,12.339
424,0.705,36.032,13.728,32.053,22.641,5.07,6.754,12.298
425,0.728,36.206,13.709,32.063,22.641,4.947,6.672,12.134
426,0.731,36.313,13.709,32.063,22.641,4.988,6.672,11.97
427,0.734,36.361,13.701,32.053,22.637,4.988,6.631,11.888
428,0.738,36.119,13.724,32.063,22.634,4.988,6.713,11.683
429,0.747,36.274,13.709,32.043,22.637,4.947,6.631,11.477
430,0.751,36.371,13.705,32.043,22.637,4.947,6.59,11.395
431,0.757,36.051,13.74,32.043,22.63,4.906,6.508,11.231
432,0.764,36.1,13.697,32.043,22.637,4.906,6.549,11.108
433,0.767,36.216,13.724,32.014,22.634,4.865,6.549,11.066
434,0.747,36.322,13.76,32.014,22.627,4.824,6.467,10.902
435,0.731,36.032,13.657,32.043,22.62,4.865,6.508,10.779
436,0.724,36.148,13.669,32.005,22.623,4.865,6.467,10.738
437,0.724,36.284,13.677,32.014,22.627,4.824,6.467,10.574
438,0.711,36.381,13.677,32.024,22.623,4.783,6.467,10.615
439,0.701,36.012,13.693,32.005,22.623,4.783,6.508,10.491
440,0.692,36.158,13.677,32.005,22.62,4.906,6.508,10.368
441,0.698,36.264,13.736,32.005,22.627,4.906,6.59,10.368
442,0.692,36.361,13.705,32.005,22.63,4.824,6.59,10.245
443,0.698,36.022,13.697,32.014,22.634,4.906,6.549,10.163
444,0.708,36.148,13.732,32.043,22.634,4.906,6.549,10.081
445,0.728,36.303,13.677,32.043,22.641,4.906,6.508,10.04
446,0.728,36.381,13.681,32.043,22.637,4.947,6.508,9.957
447,0.724,35.935,13.689,32.034,22.637,4.906,6.59,9.916
448,0.728,36.08,13.693,32.043,22.634,4.947,6.59,9.752
449,0.734,36.216,13.716,32.043,22.637,4.947,6.59,9.711
450,0.744,36.264,13.736,32.034,22.634,4.947,6.59,9.67
451,0.751,36.1,13.72,32.034,22.634,4.865,6.59,9.547
452,0.747,36.245,13.713,32.024,22.637,4.947,6.508,9.506
453,0.751,36.371,13.685,32.024,22.637,4.988,6.508,9.424
454,0.731,36.371,13.736,32.024,22.637,4.906,6.549,9.465
455,0.728,35.954,13.677,32.024,22.634,4.906,6.508,9.342
456,0.724,36.119,13.693,32.024,22.637,4.947,6.549,9.342
457,0.724,36.235,13.693,32.034,22.63,4.906,6.549,9.382
458,0.711,36.274,13.689,32.024,22.634,4.988,6.549,9.301
459,0.708,36.042,13.701,32.024,22.634,4.865,6.549,9.259
460,0.721,36.196,13.709,32.024,22.634,4.906,6.631,9.259
461,0.715,36.322,13.752,32.043,22.634,4.906,6.508,9.177
462,0.718,35.974,13.732,32.024,22.63,4.947,6.549,9.136
463,0.715,36.022,13.685,32.024,22.634,4.906,6.549,9.136
464,0.734,36.158,13.744,32.034,22.641,4.865,6.549,9.095
465,0.741,36.235,13.653,32.005,22.63,4.947,6.59,9.054
466,0.741,35.993,13.634,32.024,22.634,4.865,6.549,9.013
467,0.747,36.109,13.669,32.014,22.634,4.947,6.467,8.972
468,0.738,36.245,13.685,32.014,22.63,4.865,6.59,8.849
469,0.747,36.342,13.713,32.005,22.63,4.947,6.549,8.808
470,0.754,35.945,13.709,32.014,22.634,4.865,6.549,8.726
471,0.761,36.09,13.709,32.014,22.637,4.824,6.549,8.644
472,0.761,36.226,13.705,32.005,22.634,4.865,6.508,8.684
473,0.767,36.303,13.689,32.005,22.63,4.865,6.508,8.602
474,0.741,35.916,13.728,31.995,22.634,4.865,6.549,8.561
475,0.744,36.08,13.665,32.005,22.634,4.865,6.508,8.561
476,0.738,36.196,13.685,32.005,22.634,4.824,6.508,8.479
477,0.731,36.264,13.72,32.005,22.63,4.824,6.549,8.438
478,0.724,35.935,13.693,32.005,22.63,4.824,6.549,8.397
479,0.724,36.08,13.701,32.005,22.63,4.906,6.59,8.356
480,0.731,36.206,13.705,32.005,22.634,4.906,6.631,8.274
481,0.724,36.255,13.713,32.014,22.63,4.906,6.713,8.356
482,0.724,36.003,13.705,32.024,22.634,4.988,6.713,8.356
483,0.724,36.167,13.697,32.005,22.637,4.988,6.795,8.315
484,0.738,36.264,13.728,32.014,22.641,4.906,6.713,8.274
485,0.741,36.303,13.697,32.024,22.637,4.988,6.795,8.274
486,0.757,35.993,13.685,32.024,22.648,5.07,6.837,8.274
487,0.764,36.138,13.724,32.024,22.651,5.07,6.795,8.274
488,0.777,36.264,13.72,32.043,22.648,5.07,6.877,8.192
489,0.777,36.293,13.716,32.034,22.644,5.07,6.877,8.15
490,0.793,36.109,13.74,32.043,22.648,5.03,6.795,8.027
491,0.797,36.226,13.693,32.034,22.651,5.07,6.877,7.986
492,0.797,36.342,13.724,32.053,22.651,5.03,6.754,7.904
493,0.803,35.993,13.744,32.024,22.648,5.03,6.713,7.863
494,0.787,36.042,13.724,32.034,22.644,4.988,6.754,7.822
495,0.787,36.177,13.709,32.043,22.641,4.988,6.672,7.781
496,0.784,36.293,13.677,32.043,22.644,4.988,6.713,7.699
497,0.777,36.061,13.677,32.034,22.637,4.906,6.631,7.74
498,0.777,36.196,13.72,32.005,22.637,4.947,6.713,7.617
499,0.774,36.322,13.709,32.024,22.641,4.947,6.672,7.617
500,0.774,36.41,13.724,32.005,22.634,4.906,6.672,7.617
501,0.764,35.819,13.709,32.005,22.634,4.906,6.672,7.617
502,0.764,35.983,13.713,32.005,22.637,4.906,6.713,7.575
503,0.764,36.109,13.724,32.005,22.641,4.947,6.754,7.534
504,0.774,36.177,13.744,31.995,22.641,4.906,6.713,7.452
505,0.784,35.906,13.657,32.005,22.634,4.988,6.672,7.452
506,0.784,36.051,13.685,31.995,22.641,4.988,6.672,7.494
507,0.793,36.167,13.72,31.995,22.634,4.824,6.631,7.37
508,0.803,36.245,13.716,32.014,22.637,4.906,6.631,7.452
509,0.816,35.848,13.689,31.995,22.644,4.988,6.631,7.288
510,0.816,35.974,13.697,31.995,22.637,4.906,6.713,7.288
511,0.816,36.109,13.74,31.985,22.644,4.988,6.672,7.329
512,0.823,36.148,13.72,32.005,22.641,4.947,6.672,7.288
513,0.83,36.003,13.724,31.985,22.641,4.947,6.672,7.247
514,0.82,36.167,13.756,31.995,22.637,4.988,6.672,7.247
515,0.81,36.264,13.685,32.005,22.637,4.988,6.672,7.206
516,0.807,36.303,13.701,32.014,22.63,4.988,6.631,7.288
517,0.797,35.877,13.638,31.995,22.644,4.988,6.672,7.165
518,0.79,36.032,13.685,32.005,22.644,4.988,6.631,7.206
519,0.793,36.138,13.693,31.985,22.637,4.947,6.672,7.165
520,0.8,36.148,13.705,32.005,22.641,4.947,6.631,7.124
521,0.797,35.983,13.768,32.005,22.644,4.988,6.631,7.165
522,0.787,36.119,13.697,32.005,22.641,4.988,6.631,7.124
523,0.8,36.245,13.72,31.995,22.641,4.947,6.672,7.124
524,0.803,35.945,13.74,31.995,22.641,4.947,6.631,7.124
525,0.82,36.012,13.724,31.976,22.637,4.906,6.549,7.083
526,0.833,36.129,13.736,31.995,22.634,4.865,6.508,7.001
527,0.836,36.226,13.713,31.976,22.634,4.865,6.549,7.042
528,0.836,35.741,13.716,31.966,22.637,4.906,6.467,7.083
529,0.846,35.877,13.681,31.966,22.627,4.865,6.508,7.042
530,0.859,35.993,13.697,31.966,22.627,4.824,6.508,7.001
531,0.853,36.08,13.728,31.966,22.627,4.824,6.508,7.001
532,0.849,35.896,13.689,31.946,22.627,4.783,6.467,7.001
533,0.853,36.022,13.693,31.956,22.627,4.824,6.508,7.083
534,0.846,36.158,13.736,31.946,22.627,4.865,6.549,7.042
535,0.836,36.245,13.673,31.927,22.62,4.865,6.549,7.124
536,0.836,35.819,13.685,31.937,22.634,4.906,6.549,7.124
537,0.82,35.964,13.661,31.956,22.634,4.865,6.508,7.124
538,0.83,36.08,13.705,31.956,22.634,4.988,6.549,7.124
539,0.83,36.148,13.677,31.946,22.63,4.906,6.549,7.083
540,0.833,35.751,13.673,31.966,22.637,4.947,6.549,7.042
541,0.836,35.896,13.713,31.966,22.634,4.865,6.549,7.165
542,0.826,36.051,13.701,31.966,22.637,4.947,6.549,7.083
543,0.833,36.08,13.697,31.966,22.634,4.865,6.508,7.042
544,0.839,35.799,13.728,31.966,22.634,4.906,6.59,7.042
545,0.853,35.935,13.673,31.976,22.627,4.947,6.508,7.042
546,0.866,36.051,13.716,31.976,22.63,4.988,6.59,7.001
547,0.879,36.09,13.713,31.966,22.63,4.947,6.549,7.124
548,0.882,35.702,13.716,31.966,22.634,4.865,6.549,7.042
549,0.885,35.867,13.693,31.966,22.634,4.906,6.508,7.083
550,0.889,35.964,13.681,31.956,22.634,4.906,6.508,7.083
551,0.895,35.935,13.728,31.956,22.634,4.865,6.549,7.124
552,0.899,35.77,13.701,31.956,22.637,4.947,6.549,7.124
553,0.895,35.925,13.724,31.946,22.634,4.906,6.508,7.042
554,0.889,36.022,13.732,31.937,22.634,4.906,6.59,7.001
555,0.879,35.906,13.673,31.956,22.63,4.906,6.508,7.001
556,0.882,36.012,13.713,31.946,22.634,4.824,6.508,7.042
557,0.872,36.119,13.661,31.946,22.634,4.865,6.508,7.001
558,0.882,36.226,13.709,31.956,22.634,4.906,6.549,6.919
559,0.876,35.702,13.705,31.927,22.634,4.865,6.426,6.96
560,0.879,35.828,13.709,31.937,22.63,4.824,6.508,6.919
561,0.866,35.954,13.756,31.946,22.634,4.865,6.508,6.919
562,0.872,36.061,13.697,31.946,22.627,4.865,6.467,6.96
563,0.872,35.751,13.705,31.937,22.627,4.824,6.549,7.001
564,0.892,35.896,13.713,31.908,22.634,4.865,6.508,6.96
565,0.899,36.022,13.665,31.927,22.63,4.824,6.508,7.001
566,0.915,36.109,13.665,31.937,22.627,4.906,6.549,7.042
567,0.918,35.732,13.677,31.927,22.634,4.865,6.508,7.083
568,0.918,35.887,13.701,31.927,22.634,4.865,6.631,7.165
569,0.925,36.003,13.713,31.946,22.634,4.906,6.631,7.206
570,0.935,36.09,13.713,31.937,22.637,4.906,6.672,7.37
571,0.941,35.683,13.728,31.946,22.637,4.947,6.713,7.452
572,0.954,35.848,13.709,31.946,22.644,5.03,6.713,7.452
573,0.954,35.974,13.728,31.946,22.644,4.988,6.877,7.494
574,0.951,36.032,13.74,31.956,22.641,4.988,6.837,7.534
575,0.961,35.722,13.665,31.956,22.651,5.07,6.837,7.575
576,0.954,35.867,13.673,31.966,22.648,4.988,6.877,7.575
577,0.951,36.012,13.709,31.956,22.648,4.988,6.919,7.575
578,0.945,36.042,13.716,31.966,22.655,5.07,6.919,7.617
579,0.954,35.809,13.709,31.956,22.651,5.03,6.877,7.534
580,0.958,35.954,13.74,31.966,22.651,5.07,6.919,7.658
581,0.958,36.042,13.74,31.956,22.651,4.988,6.795,7.658
582,0.961,35.974,13.705,31.966,22.651,5.03,6.877,7.534
583,0.964,35.79,13.724,31.956,22.648,5.03,6.795,7.575
584,0.971,35.925,13.713,31.946,22.644,4.947,6.795,7.575
585,0.987,36.042,13.709,32.024,22.641,4.947,6.754,7.452
586,1.0,35.819,13.701,31.937,22.637,4.865,6.713,7.534
587,1.01,35.877,13.693,31.937,22.641,4.906,6.795,7.411
588,1.004,36.003,13.713,31.927,22.641,4.988,6.754,7.534
589,1.017,36.109,13.673,31.917,22.634,4.906,6.754,7.534
590,1.017,35.693,13.716,31.917,22.637,4.906,6.795,7.617
591,1.027,35.79,13.705,31.908,22.634,4.865,6.795,7.534
592,1.023,35.935,13.72,31.908,22.641,4.865,6.795,7.534
593,1.043,36.032,13.732,31.908,22.641,4.906,6.795,7.575
594,1.03,35.77,13.685,31.908,22.634,4.906,6.754,7.534
595,1.04,35.925,13.693,31.917,22.634,4.865,6.837,7.617
596,1.04,36.061,13.693,31.917,22.644,4.906,6.877,7.534
597,1.023,36.138,13.653,31.908,22.637,4.783,6.877,7.617
598,1.043,35.654,13.713,31.908,22.634,4.906,6.877,7.617
599,1.043,35.809,13.693,31.898,22.637,4.824,6.877,7.575
600,1.04,35.916,13.716,31.898,22.637,4.906,6.877,7.575
601,1.03,35.993,13.705,31.908,22.634,4.824,6.919,7.534
602,1.04,35.799,13.705,31.917,22.637,4.906,6.919,7.617
603,1.046,35.925,13.744,31.917,22.641,4.906,6.919,7.575
604,1.066,36.051,13.72,31.908,22.637,4.906,6.919,7.534
605,1.086,36.09,13.705,31.946,22.641,4.947,7.001,7.494
606,1.092,35.819,13.697,31.908,22.641,4.865,6.96,7.534
607,1.099,35.954,13.732,31.888,22.641,4.865,6.919,7.534
608,1.106,36.08,13.724,31.908,22.644,4.865,6.877,7.494
609,1.115,36.1,13.701,31.898,22.637,4.906,6.96,7.534
610,1.129,35.78,13.709,31.888,22.644,4.906,7.001,7.452
611,1.135,35.916,13.74,31.888,22.644,4.906,6.877,7.411
612,1.138,36.042,13.705,31.917,22.637,4.947,6.96,7.411
613,1.148,36.003,13.697,31.888,22.637,4.865,6.877,7.37
614,1.145,35.857,13.724,31.879,22.637,4.824,6.96,7.329
615,1.142,36.012,13.701,31.898,22.637,4.865,6.837,7.37
616,1.138,36.109,13.693,31.888,22.634,4.824,6.837,7.329
617,1.122,35.828,13.72,31.869,22.627,4.824,6.795,7.37
618,1.132,35.916,13.744,31.85,22.63,4.783,6.877,7.288
619,1.132,36.061,13.705,31.85,22.623,4.783,6.754,7.37
620,1.145,36.158,13.705,31.869,22.627,4.783,6.837,7.329
621,1.135,35.906,13.72,31.859,22.62,4.742,6.795,7.37
622,1.132,36.032,13.685,31.908,22.627,4.742,6.754,7.329
623,1.142,36.177,13.681,31.83,22.623,4.701,6.877,7.329
624,1.161,36.226,13.693,31.83,22.623,4.783,6.877,7.37
625,1.168,35.78,13.689,31.84,22.627,4.783,6.877,7.329
626,1.171,35.935,13.689,31.859,22.627,4.824,6.837,7.37
627,1.188,36.051,13.697,31.85,22.634,4.865,6.919,7.37
628,1.188,36.158,13.716,31.869,22.634,4.865,6.919,7.288
629,1.194,35.954,13.685,31.859,22.634,4.906,6.877,7.288
630,1.207,36.109,13.701,31.859,22.637,4.865,6.877,7.288
631,1.221,36.245,13.748,31.859,22.634,4.865,6.877,7.247
632,1.224,36.313,13.693,31.85,22.634,4.824,6.795,7.288
633,1.224,36.071,13.709,31.859,22.637,4.865,6.837,7.206
634,1.221,36.216,13.724,31.84,22.637,4.865,6.877,7.288
635,1.211,36.342,13.661,31.859,22.637,4.865,6.837,7.206
636,1.214,36.39,13.673,31.859,22.634,4.865,6.877,7.165
637,1.211,36.167,13.716,31.84,22.634,4.824,6.795,7.124
638,1.204,36.322,13.72,31.84,22.637,4.783,6.837,7.083
639,1.204,36.429,13.701,31.84,22.634,4.824,6.754,7.083
640,1.204,36.439,13.709,31.85,22.634,4.865,6.795,7.124
641,1.184,36.255,13.744,31.85,22.634,4.865,6.795,7.124
642,1.188,36.41,13.701,31.84,22.634,4.906,6.754,7.124
643,1.194,36.535,13.728,31.85,22.634,4.865,6.795,7.042
644,1.201,36.4,13.744,31.84,22.634,4.865,6.837,7.042
645,1.201,36.274,13.645,31.85,22.634,4.865,6.837,7.042
646,1.201,36.419,13.649,31.83,22.634,4.783,6.795,7.042
647,1.211,36.516,13.701,31.84,22.634,4.824,6.754,7.001
648,1.211,36.381,13.705,31.83,22.634,4.865,6.754,6.96
649,1.211,36.458,13.693,31.83,22.627,4.742,6.754,7.001
650,1.204,36.613,13.705,31.83,22.627,4.783,6.754,6.919
651,1.211,36.7,13.709,31.83,22.63,4.783,6.754,6.919
652,1.204,36.39,13.681,31.821,22.627,4.783,6.672,6.919
653,1.188,36.506,13.72,31.821,22.623,4.783,6.631,6.919
654,1.161,36.632,13.709,31.83,22.63,4.742,6.713,6.877
655,1.145,36.729,13.697,31.888,22.63,4.824,6.795,6.877
656,1.138,36.603,13.701,31.811,22.627,4.783,6.713,6.877
657,1.129,36.739,13.713,31.801,22.634,4.783,6.754,6.96
658,1.119,36.894,13.681,31.821,22.634,4.824,6.795,6.877
659,1.099,36.962,13.693,31.821,22.634,4.865,6.877,7.001
660,1.089,36.768,13.701,31.821,22.641,4.865,6.837,6.96
661,1.089,36.884,13.744,31.84,22.641,4.906,6.919,7.001
662,1.076,37.02,13.701,31.85,22.648,4.947,6.919,6.96
663,1.06,37.097,13.72,31.85,22.644,4.947,7.001,6.96
664,1.06,36.729,13.732,31.85,22.648,4.988,6.96,6.96
665,1.063,36.894,13.642,31.859,22.644,4.988,6.96,6.919
666,1.056,37.02,13.701,31.879,22.641,5.03,6.919,6.877
667,1.05,37.049,13.705,31.869,22.648,5.03,7.042,6.837
668,1.043,36.962,13.716,31.879,22.644,4.988,6.96,6.795
669,1.033,37.097,13.724,31.859,22.644,4.988,6.837,6.754
670,1.03,37.214,13.724,31.84,22.641,4.947,6.837,6.754
671,1.037,37.233,13.72,31.821,22.637,4.906,6.795,6.672
672,1.017,37.029,13.701,31.83,22.637,4.865,6.754,6.672
673,1.014,37.165,13.736,31.811,22.63,4.824,6.837,6.631
674,0.984,37.252,13.74,31.811,22.634,4.865,6.795,6.672
675,0.958,37.223,13.681,31.801,22.637,4.783,6.837,6.754
676,0.945,37.117,13.693,31.83,22.627,4.865,6.837,6.713
677,0.925,37.252,13.709,31.811,22.634,4.824,6.795,6.672
678,0.912,37.359,13.713,31.811,22.63,4.865,6.754,6.713
679,0.905,37.155,13.713,31.801,22.63,4.865,6.754,6.631
680,0.892,37.252,13.709,31.811,22.634,4.824,6.837,6.672
681,0.866,37.359,13.728,31.821,22.641,4.824,6.837,6.631
682,0.866,37.465,13.693,31.811,22.637,4.906,6.754,6.631
683,0.859,37.039,13.724,31.821,22.641,4.865,6.837,6.713
684,0.859,37.146,13.713,31.811,22.641,4.865,6.877,6.713
685,0.859,37.31,13.705,31.859,22.641,4.824,6.837,6.672
686,0.859,37.398,13.709,31.811,22.634,4.906,6.877,6.672
687,0.853,37.359,13.701,31.801,22.641,4.865,6.837,6.672
688,0.853,37.485,13.72,31.792,22.637,4.865,6.877,6.672
689,0.843,37.601,13.713,31.811,22.641,4.865,6.877,6.631
690,0.839,37.688,13.705,31.811,22.634,4.824,6.877,6.672
691,0.839,37.272,13.74,31.792,22.637,4.865,6.877,6.631
692,0.843,37.436,13.693,31.801,22.637,4.824,6.919,6.631
693,0.83,37.543,13.701,31.811,22.648,4.865,6.877,6.631
694,0.82,37.611,13.736,31.792,22.637,4.865,6.837,6.672
695,0.793,37.272,13.571,31.83,22.634,4.824,6.877,6.672
696,0.79,37.427,13.697,31.821,22.634,4.906,6.877,6.631
697,0.77,37.514,13.665,31.811,22.634,4.865,6.837,6.631
698,0.764,37.582,13.716,31.782,22.637,4.865,6.877,6.713
699,0.764,37.349,13.709,31.811,22.641,4.824,6.837,6.672
700,0.774,37.514,13.724,31.811,22.634,4.988,6.837,6.631
701,0.754,37.62,13.748,31.792,22.644,4.906,6.877,6.713
702,0.744,37.659,13.701,31.801,22.644,4.906,6.877,6.672
703,0.744,37.388,13.693,31.811,22.644,4.906,6.837,6.713
704,0.754,37.504,13.705,31.811,22.637,4.783,6.795,6.672
705,0.761,37.649,13.653,31.792,22.634,4.865,6.837,6.631
706,0.751,37.562,13.693,31.782,22.637,4.742,6.795,6.631
707,0.751,37.465,13.732,31.792,22.637,4.824,6.754,6.631
708,0.751,37.611,13.697,31.782,22.634,4.783,6.795,6.631
709,0.751,37.698,13.713,31.772,22.644,4.742,6.672,6.631
710,0.761,37.398,13.709,31.772,22.634,4.742,6.713,6.672
711,0.757,37.456,13.709,31.743,22.623,4.701,6.713,6.713
712,0.757,37.601,13.685,31.753,22.627,4.66,6.754,6.754
713,0.764,37.688,13.665,31.743,22.627,4.701,6.631,6.837
714,0.738,37.33,13.693,31.734,22.634,4.701,6.713,6.877
715,0.721,37.494,13.701,31.772,22.63,4.742,6.672,6.96
716,0.724,37.591,13.649,31.753,22.63,4.783,6.754,7.001
717,0.715,37.688,13.701,31.753,22.627,4.742,6.713,7.042
718,0.721,37.368,13.693,31.753,22.634,4.783,6.795,7.206
719,0.718,37.514,13.697,31.772,22.644,4.824,6.754,7.165
720,0.711,37.649,13.732,31.763,22.641,4.783,6.754,7.165
721,0.711,37.688,13.724,31.792,22.637,4.824,6.795,7.247
722,0.705,37.359,13.713,31.763,22.634,4.824,6.795,7.206
723,0.701,37.504,13.716,31.753,22.637,4.824,6.795,7.247
724,0.708,37.62,13.724,31.753,22.63,4.742,6.795,7.329
725,0.728,37.678,13.665,31.763,22.634,4.865,6.795,7.288
726,0.731,37.388,13.661,31.753,22.634,4.783,6.754,7.37
727,0.734,37.523,13.681,31.772,22.641,4.742,6.672,7.288
728,0.721,37.64,13.697,31.772,22.63,4.824,6.795,7.288
729,0.724,37.678,13.693,31.753,22.634,4.783,6.754,7.329
730,0.734,37.446,13.705,31.753,22.634,4.742,6.837,7.288
731,0.738,37.572,13.724,31.743,22.634,4.742,6.795,7.288
732,0.731,37.698,13.685,31.763,22.637,4.783,6.713,7.247
733,0.747,37.717,13.709,31.743,22.634,4.824,6.754,7.288
734,0.734,37.359,13.716,31.753,22.627,4.783,6.837,7.288
735,0.715,37.514,13.638,31.743,22.634,4.783,6.754,7.206
736,0.728,37.63,13.705,31.743,22.63,4.783,6.795,7.288
737,0.711,37.523,13.685,31.743,22.623,4.783,6.795,7.206
738,0.705,37.465,13.685,31.734,22.63,4.783,6.754,7.247
739,0.705,37.601,13.661,31.753,22.634,4.742,6.672,7.165
740,0.695,37.698,13.677,31.743,22.627,4.783,6.713,7.247
741,0.678,37.31,13.72,31.734,22.63,4.742,6.713,7.247
742,0.695,37.407,13.693,31.734,22.627,4.783,6.754,7.329
743,0.688,37.533,13.713,31.724,22.63,4.701,6.795,7.288
744,0.701,37.62,13.72,31.734,22.627,4.742,6.837,7.206
745,0.695,37.146,13.606,31.743,22.627,4.742,6.837,7.247
746,0.705,37.281,13.701,31.753,22.63,4.783,6.795,7.288
747,0.718,37.427,13.689,31.743,22.641,4.865,6.877,7.288
748,0.721,37.504,13.72,31.753,22.644,4.865,6.877,7.329
749,0.728,37.194,13.693,31.753,22.637,4.865,6.919,7.329
750,0.741,37.349,13.693,31.763,22.641,4.947,6.919,7.37
751,0.747,37.485,13.701,31.753,22.644,4.947,6.96,7.288
752,0.747,37.582,13.701,31.772,22.644,4.947,6.96,7.329
753,0.754,37.291,13.728,31.763,22.648,4.947,6.96,7.206
754,0.747,37.446,13.74,31.753,22.655,4.947,6.919,7.165
755,0.734,37.562,13.724,31.83,22.648,4.865,6.877,7.124
756,0.741,37.63,13.728,31.753,22.648,4.906,6.837,7.083
757,0.721,37.136,13.681,31.753,22.644,4.783,6.754,7.124
758,0.724,37.301,13.705,31.753,22.641,4.824,6.795,7.001
759,0.721,37.388,13.705,31.743,22.637,4.783,6.795,7.083
760,0.718,37.446,13.709,31.734,22.634,4.824,6.837,7.042
761,0.701,37.194,13.728,31.753,22.637,4.865,6.837,7.083
762,0.708,37.359,13.701,31.743,22.634,4.824,6.837,7.083
763,0.708,37.475,13.705,31.734,22.63,4.865,6.919,7.042
764,0.715,37.465,13.736,31.734,22.63,4.865,6.877,7.001
765,0.705,37.136,13.669,31.743,22.63,4.824,6.877,6.96
766,0.724,37.252,13.701,31.734,22.63,4.865,6.877,6.877
767,0.728,37.359,13.693,31.743,22.637,4.824,6.877,6.96
768,0.734,37.252,13.716,31.743,22.634,4.824,6.877,6.919
769,0.738,37.184,13.716,31.743,22.634,4.906,6.96,6.96
770,0.747,37.339,13.693,31.734,22.637,4.865,6.96,6.877
771,0.754,37.417,13.732,31.724,22.637,4.906,6.96,6.877
772,0.754,37.029,13.713,31.714,22.63,4.865,6.96,6.837
773,0.764,37.097,13.728,31.734,22.637,4.947,6.96,6.795
774,0.751,37.223,13.728,31.734,22.634,4.865,7.001,6.795
775,0.734,37.32,13.677,31.724,22.637,4.865,6.96,6.754
776,0.721,37.068,13.697,31.714,22.641,4.865,6.96,6.795
777,0.718,37.194,13.681,31.734,22.641,4.906,6.96,6.795
778,0.721,37.339,13.693,31.724,22.644,4.947,6.96,6.795
779,0.715,37.427,13.709,31.724,22.637,4.906,6.96,6.754
780,0.724,36.981,13.685,31.724,22.637,4.988,6.96,6.713
781,0.715,37.117,13.689,31.734,22.641,4.865,6.96,6.713
782,0.718,37.272,13.681,31.743,22.648,4.865,6.919,6.672
783,0.721,37.33,13.693,31.743,22.637,4.988,6.877,6.754
784,0.724,37.0,13.713,31.734,22.637,4.906,6.96,6.672
785,0.734,37.146,13.697,31.734,22.637,4.947,6.919,6.672
786,0.738,37.272,13.685,31.734,22.637,4.947,6.919,6.631
787,0.744,37.349,13.728,31.714,22.641,4.824,6.877,6.672
788,0.754,36.942,13.705,31.724,22.637,4.865,6.877,6.672
789,0.761,37.068,13.724,31.714,22.634,4.865,6.877,6.631
790,0.761,37.194,13.724,31.714,22.637,4.865,6.795,6.549
791,0.774,37.233,13.685,31.695,22.637,4.824,6.795,6.467
792,0.767,36.952,13.689,31.685,22.63,4.783,6.795,6.467
793,0.761,37.097,13.732,31.666,22.627,4.824,6.713,6.385
794,0.751,37.204,13.685,31.685,22.63,4.824,6.795,6.385
795,0.741,37.214,13.693,31.675,22.627,4.742,6.713,6.508
796,0.728,36.933,13.689,31.666,22.623,4.742,6.713,6.549
797,0.724,37.049,13.689,31.675,22.627,4.742,6.837,6.467
798,0.721,37.165,13.709,31.666,22.627,4.865,6.837,6.508
799,0.721,37.059,13.705,31.666,22.63,4.824,6.837,6.508
800,0.718,37.02,13.697,31.656,22.63,4.947,6.877,6.508
801,0.708,37.146,13.697,31.666,22.634,4.906,6.919,6.508
802,0.724,37.272,13.709,31.704,22.637,4.824,6.96,6.467
803,0.734,36.807,13.732,31.704,22.634,4.783,6.877,6.508
804,0.738,36.894,13.713,31.685,22.637,4.865,6.96,6.467
805,0.734,37.029,13.709,31.753,22.634,4.865,6.919,6.426
806,0.747,37.136,13.665,31.675,22.637,4.865,6.96,6.426
807,0.744,36.991,13.724,31.666,22.63,4.865,6.96,6.508
808,0.761,37.107,13.713,31.666,22.637,4.906,6.96,6.467
809,0.767,37.252,13.705,31.675,22.634,4.824,6.919,6.467
810,0.77,37.339,13.72,31.695,22.637,4.824,6.919,6.467
811,0.767,36.826,13.693,31.666,22.63,4.906,7.001,6.467
812,0.761,36.971,13.689,31.666,22.63,4.824,6.96,6.385
813,0.774,37.097,13.713,31.666,22.637,4.865,7.001,6.385
814,0.767,37.165,13.701,31.666,22.634,4.824,6.919,6.385
815,0.754,36.904,13.685,31.666,22.634,4.865,6.96,6.467
816,0.764,37.049,13.677,31.656,22.63,4.783,6.96,6.343
817,0.754,37.146,13.705,31.666,22.634,4.824,6.919,6.385
818,0.747,37.223,13.685,31.646,22.637,4.783,6.919,6.426
819,0.751,36.913,13.705,31.656,22.634,4.824,6.877,6.426
820,0.751,37.059,13.705,31.656,22.634,4.865,6.96,6.385
821,0.741,37.175,13.74,31.656,22.627,4.824,6.96,6.343
822,0.731,37.223,13.713,31.627,22.63,4.783,6.877,6.426
823,0.744,36.904,13.697,31.656,22.623,4.865,6.877,6.385
824,0.741,37.01,13.732,31.637,22.627,4.783,6.877,6.343
825,0.747,37.136,13.665,31.646,22.634,4.783,6.919,6.385
826,0.751,37.155,13.673,31.627,22.623,4.783,6.919,6.426
827,0.757,36.855,13.677,31.627,22.63,4.742,6.877,6.385
828,0.757,36.991,13.705,31.637,22.637,4.742,6.919,6.426
829,0.77,37.107,13.685,31.627,22.627,4.824,6.877,6.385
830,0.78,37.0,13.713,31.637,22.63,4.783,6.877,6.467
831,0.78,36.923,13.677,31.656,22.634,4.906,6.96,6.508
832,0.787,37.088,13.681,31.656,22.634,4.865,6.96,6.467
833,0.797,37.175,13.701,31.666,22.644,4.947,7.001,6.508
834,0.787,36.826,13.72,31.646,22.641,4.906,7.042,6.508
835,0.78,36.933,13.724,31.656,22.648,4.988,6.96,6.508
836,0.78,37.059,13.716,31.675,22.644,4.988,7.001,6.549
837,0.77,37.175,13.72,31.656,22.644,5.03,6.96,6.508
838,0.764,36.826,13.74,31.685,22.644,4.988,7.001,6.508
839,0.761,36.962,13.697,31.666,22.644,4.988,7.001,6.467
840,0.757,37.097,13.72,31.675,22.651,4.947,7.001,6.467
841,0.747,37.184,13.732,31.675,22.644,4.947,6.96,6.426
842,0.751,36.787,13.701,31.666,22.644,4.906,6.96,6.385
843,0.754,36.942,13.74,31.675,22.644,4.865,6.837,6.508
844,0.757,37.049,13.724,31.656,22.63,4.865,6.96,6.343
845,0.764,37.136,13.716,31.646,22.641,4.865,6.919,6.385
846,0.761,36.71,13.736,31.637,22.634,4.824,6.919,6.426
847,0.774,36.855,13.728,31.637,22.634,4.824,6.877,6.343
848,0.767,36.981,13.724,31.656,22.63,4.906,7.001,6.467
849,0.78,37.029,13.716,31.646,22.637,4.824,6.919,6.508
850,0.787,36.807,13.693,31.627,22.637,4.824,6.96,6.549
851,0.787,36.942,13.701,31.627,22.63,4.824,6.919,6.508
852,0.79,37.049,13.689,31.617,22.634,4.824,6.96,6.672
853,0.797,37.107,13.716,31.627,22.641,4.783,6.919,6.631
854,0.777,36.652,13.689,31.627,22.634,4.865,6.877,6.713
855,0.761,36.807,13.693,31.617,22.634,4.865,6.919,6.713
856,0.774,36.923,13.693,31.617,22.637,4.865,6.919,6.713
857,0.757,36.913,13.693,31.617,22.637,4.824,6.877,6.795
858,0.757,36.807,13.713,31.627,22.637,4.865,6.877,6.795
859,0.747,36.942,13.716,31.627,22.634,4.783,6.877,6.754
860,0.747,37.068,13.693,31.617,22.641,4.824,6.919,6.795
861,0.741,36.826,13.685,31.637,22.637,4.865,6.877,6.837
862,0.731,36.739,13.657,31.627,22.634,4.824,6.96,6.754
863,0.738,36.884,13.72,31.617,22.641,4.865,6.919,6.837
864,0.741,36.971,13.713,31.617,22.634,4.824,6.837,6.877
865,0.767,36.661,13.681,31.617,22.634,4.865,6.877,6.837
866,0.761,36.787,13.709,31.608,22.634,4.824,6.837,6.795
867,0.767,36.874,13.693,31.627,22.634,4.865,6.877,6.795
868,0.767,36.962,13.713,31.617,22.641,4.906,6.877,6.837
869,0.764,36.516,13.74,31.608,22.634,4.865,6.919,6.837
870,0.774,36.642,13.701,31.617,22.641,4.865,6.877,6.837
871,0.784,36.787,13.705,31.617,22.634,4.824,6.837,6.877
872,0.784,36.874,13.689,31.608,22.637,4.906,6.837,6.837
873,0.78,36.526,13.736,31.617,22.641,4.824,6.877,6.795
874,0.764,36.652,13.728,31.617,22.634,4.906,6.837,6.837
875,0.757,36.797,13.705,31.627,22.637,4.783,6.837,6.837
876,0.764,36.874,13.701,31.608,22.641,4.865,6.795,6.877
877,0.757,36.661,13.693,31.608,22.637,4.906,6.795,6.837
878,0.744,36.816,13.709,31.608,22.634,4.947,6.795,6.754
879,0.751,36.942,13.709,31.608,22.637,4.865,6.795,6.754
880,0.741,36.991,13.724,31.608,22.637,4.988,6.795,6.877
881,0.728,36.477,13.701,31.608,22.637,4.865,6.795,6.754
882,0.741,36.642,13.693,31.598,22.641,4.865,6.754,6.754
883,0.728,36.749,13.744,31.608,22.637,4.906,6.713,6.672
884,0.741,36.797,13.705,31.608,22.63,4.906,6.631,6.672
885,0.744,36.574,13.673,31.598,22.63,4.865,6.672,6.672
886,0.747,36.71,13.693,31.598,22.63,4.865,6.631,6.59
887,0.754,36.826,13.713,31.579,22.641,4.865,6.59,6.631
888,0.754,36.816,13.693,31.588,22.63,4.824,6.59,6.549
889,0.751,36.632,13.697,31.559,22.63,4.824,6.631,6.631
890,0.751,36.787,13.677,31.559,22.62,4.783,6.549,6.59
891,0.761,36.874,13.63,31.559,22.623,4.742,6.549,6.549
892,0.767,36.661,13.669,31.55,22.623,4.824,6.59,6.672
893,0.764,36.594,13.736,31.55,22.627,4.906,6.549,6.59
894,0.751,36.729,13.645,31.54,22.623,4.783,6.59,6.631
895,0.734,36.865,13.673,31.55,22.627,4.865,6.549,6.549
896,0.734,36.497,13.701,31.55,22.627,4.824,6.631,6.631
897,0.731,36.594,13.673,31.569,22.63,4.906,6.631,6.631
898,0.724,36.749,13.685,31.569,22.634,4.906,6.631,6.549
899,0.721,36.826,13.701,31.569,22.63,4.865,6.672,6.631
900,0.721,36.555,13.701,31.569,22.63,4.947,6.713,6.631
901,0.724,36.681,13.677,31.588,22.63,4.947,6.631,6.549
902,0.721,36.826,13.701,31.559,22.644,4.906,6.631,6.631
903,0.724,36.894,13.724,31.579,22.641,4.865,6.754,6.59
904,0.728,36.477,13.685,31.588,22.641,4.906,6.631,6.59
905,0.741,36.613,13.657,31.579,22.634,4.906,6.672,6.549
906,0.734,36.749,13.701,31.579,22.627,4.947,6.672,6.549
907,0.751,36.816,13.744,31.579,22.637,4.906,6.631,6.549
908,0.747,36.594,13.697,31.579,22.63,4.906,6.59,6.508
909,0.747,36.72,13.716,31.569,22.634,4.824,6.672,6.549
910,0.761,36.865,13.732,31.569,22.634,4.906,6.713,6.549
911,0.757,36.913,13.673,31.569,22.637,4.988,6.59,6.549
912,0.757,36.477,13.681,31.559,22.63,4.906,6.631,6.467
913,0.764,36.632,13.713,31.559,22.637,4.824,6.59,6.508
914,0.751,36.729,13.693,31.559,22.627,4.824,6.631,6.426
915,0.744,36.797,13.709,31.559,22.634,4.865,6.672,6.549
916,0.741,36.749,13.693,31.559,22.627,4.906,6.631,6.508
917,0.734,36.884,13.705,31.559,22.623,4.906,6.59,6.467
918,0.721,37.01,13.685,31.559,22.63,4.865,6.549,6.59
919,0.721,37.01,13.705,31.559,22.63,4.906,6.549,6.426
920,0.715,36.506,13.701,31.559,22.627,4.865,6.549,6.549
921,0.715,36.632,13.728,31.559,22.627,4.824,6.672,6.59
922,0.708,36.758,13.705,31.569,22.627,4.824,6.631,6.549
923,0.715,36.652,13.701,31.55,22.63,4.824,6.59,6.672
924,0.718,36.603,13.72,31.559,22.634,4.865,6.631,6.59
925,0.728,36.768,13.634,31.55,22.63,4.865,6.631,6.549
926,0.728,36.845,13.677,31.55,22.634,4.906,6.672,6.631
927,0.738,36.565,13.701,31.55,22.627,4.947,6.713,6.672
928,0.751,36.681,13.685,31.569,22.634,4.947,6.795,6.713
929,0.747,36.816,13.716,31.588,22.637,4.988,6.837,6.754
930,0.751,36.933,13.709,31.569,22.641,5.03,6.795,6.795
931,0.754,36.448,13.697,31.579,22.641,4.988,6.837,6.754
932,0.754,36.632,13.693,31.579,22.648,5.07,6.877,6.713
933,0.764,36.739,13.709,31.579,22.641,5.07,6.795,6.713
934,0.761,36.816,13.74,31.579,22.651,5.07,6.877,6.754
935,0.741,36.632,13.697,31.646,22.648,4.988,6.795,6.754
936,0.741,36.787,13.716,31.598,22.651,5.07,6.754,6.672
937,0.741,36.904,13.736,31.579,22.651,5.03,6.877,6.672
938,0.728,36.981,13.716,31.608,22.648,5.07,6.837,6.631
939,0.734,36.506,13.716,31.579,22.641,4.988,6.795,6.631
940,0.728,36.661,13.72,31.588,22.641,5.03,6.754,6.508
941,0.721,36.768,13.716,31.598,22.63,4.988,6.713,6.631
942,0.715,36.826,13.724,31.569,22.634,4.947,6.713,6.631
943,0.708,36.671,13.72,31.569,22.634,4.906,6.795,6.672
944,0.715,36.797,13.716,31.55,22.637,4.988,6.754,6.59
945,0.734,36.923,13.685,31.55,22.637,4.947,6.754,6.59
946,0.731,36.942,13.657,31.55,22.627,4.906,6.672,6.631
947,0.734,36.623,13.673,31.559,22.634,4.947,6.754,6.59
948,0.738,36.778,13.701,31.559,22.634,4.988,6.754,6.508
949,0.738,36.874,13.705,31.559,22.637,4.906,6.713,6.549
950,0.744,36.904,13.713,31.55,22.634,4.947,6.672,6.631
951,0.751,36.555,13.63,31.559,22.634,4.906,6.754,6.508
952,0.754,36.71,13.693,31.55,22.63,4.947,6.754,6.549
953,0.751,36.807,13.705,31.55,22.641,4.988,6.754,6.508
954,0.741,37.107,13.681,31.559,22.634,4.906,6.795,6.508
955,0.731,37.233,13.685,31.559,22.634,4.865,6.795,6.508
956,0.728,37.368,13.677,31.559,22.634,4.906,6.754,6.467
957,0.721,37.446,13.709,31.559,22.641,4.947,6.795,6.467
958,0.715,36.255,13.693,31.559,22.634,4.906,6.754,6.385
959,0.721,36.303,13.709,31.569,22.634,4.906,6.754,6.467
960,0.721,36.429,13.732,31.55,22.637,4.947,6.877,6.385
961,0.708,36.545,13.657,31.559,22.634,4.988,6.837,6.508
962,0.711,36.758,13.693,31.55,22.637,4.906,6.837,6.385
963,0.701,36.904,13.756,31.55,22.634,4.947,6.877,6.343
964,0.701,37.02,13.709,31.55,22.634,4.906,6.837,6.426
965,0.724,37.107,13.685,31.55,22.641,4.906,6.837,6.426
966,0.721,36.468,13.669,31.559,22.634,4.947,6.877,6.385
967,0.734,36.603,13.736,31.55,22.641,4.947,6.837,6.426
968,0.734,36.72,13.697,31.559,22.634,4.988,6.877,6.508
969,0.738,36.807,13.673,31.559,22.637,4.947,6.877,6.508
970,0.731,36.584,13.701,31.559,22.641,4.988,6.837,6.549
971,0.738,36.739,13.642,31.55,22.637,4.988,6.877,6.385
972,0.738,36.845,13.685,31.559,22.637,4.988,6.877,6.508
973,0.741,36.904,13.748,31.55,22.641,4.906,6.837,6.508
974,0.738,36.594,13.677,31.55,22.637,4.906,6.919,6.549
975,0.724,36.768,13.705,31.559,22.641,4.906,6.877,6.672
976,0.728,36.874,13.716,31.55,22.637,4.947,6.837,6.713
977,0.715,36.904,13.716,31.54,22.634,4.865,6.837,6.631
978,0.708,36.652,13.693,31.559,22.627,4.865,6.837,6.672
979,0.715,36.787,13.701,31.55,22.634,4.824,6.795,6.59
980,0.708,36.923,13.72,31.54,22.634,4.906,6.837,6.631
981,0.705,36.942,13.634,31.54,22.63,4.783,6.713,6.672
982,0.701,36.72,13.685,31.55,22.627,4.742,6.713,6.631
983,0.701,36.836,13.756,31.53,22.623,4.783,6.754,6.672
984,0.698,36.942,13.638,31.521,22.627,4.783,6.672,6.672
985,0.708,36.71,13.681,31.521,22.623,4.824,6.672,6.795
986,0.705,36.642,13.677,31.53,22.62,4.824,6.754,6.672
987,0.724,36.787,13.728,31.511,22.627,4.865,6.795,6.754
988,0.724,36.884,13.705,31.511,22.627,4.783,6.713,6.795
989,0.718,36.526,13.673,31.521,22.63,4.865,6.754,6.877
990,0.721,36.632,13.697,31.54,22.634,4.865,6.754,6.795
991,0.724,36.778,13.661,31.55,22.634,4.865,6.795,6.837
992,0.734,36.874,13.661,31.53,22.637,4.865,6.795,6.795
993,0.741,36.487,13.732,31.54,22.637,4.906,6.713,6.754
994,0.724,36.642,13.657,31.54,22.641,4.824,6.754,6.754
995,0.721,36.778,13.685,31.54,22.634,4.824,6.672,6.672
996,0.708,36.845,13.728,31.55,22.634,4.906,6.713,6.837
997,0.715,36.671,13.724,31.521,22.634,4.865,6.795,6.837
998,0.715,36.826,13.724,31.54,22.637,4.865,6.713,6.837
999,0.701,36.962,13.705,31.54,22.634,4.824,6.672,6.877
1000,0.708,37.029,13.701,31.54,22.637,4.865,6.713,6.837
1001,0.698,36.487,13.693,31.55,22.637,4.906,6.713,6.96
1002,0.698,36.652,13.673,31.54,22.634,4.947,6.713,6.96
1003,0.692,36.768,13.736,31.53,22.637,4.865,6.631,6.919
1004,0.695,36.807,13.669,31.54,22.634,4.783,6.672,7.001
1005,0.705,36.642,13.673,31.521,22.63,4.865,6.59,6.96
1006,0.715,36.768,13.661,31.54,22.634,4.824,6.631,6.96
1007,0.721,36.904,13.705,31.521,22.63,4.824,6.631,6.96
1008,0.728,36.923,13.693,31.53,22.63,4.824,6.631,7.001
1009,0.724,36.632,13.705,31.54,22.63,4.865,6.631,6.919
1010,0.731,36.758,13.701,31.521,22.63,4.824,6.631,7.001
1011,0.738,36.874,13.685,31.53,22.637,4.783,6.549,6.919
1012,0.741,36.991,13.673,31.54,22.627,4.783,6.631,6.919
1013,0.734,36.574,13.72,31.521,22.63,4.865,6.631,6.919
1014,0.724,36.69,13.685,31.511,22.634,4.865,6.631,6.795
1015,0.721,36.826,13.685,31.53,22.63,4.824,6.549,6.877
1016,0.715,36.623,13.673,31.521,22.63,4.865,6.631,6.919
1017,0.708,36.594,13.685,31.511,22.63,4.824,6.549,7.001
1018,0.705,36.749,13.693,31.511,22.63,4.783,6.549,6.96
1019,0.695,36.845,13.713,31.511,22.627,4.783,6.549,6.877
1020,0.708,36.535,13.693,31.521,22.634,4.824,6.59,6.96
1021,0.688,36.632,13.709,31.511,22.634,4.947,6.59,7.042
1022,0.695,36.778,13.693,31.53,22.637,4.865,6.672,7.042
1023,0.695,36.845,13.72,31.54,22.634,4.947,6.672,7.083
1024,0.701,36.526,13.728,31.521,22.641,4.947,6.672,7.001
1025,0.718,36.671,13.693,31.598,22.641,5.03,6.631,7.001
1026,0.724,36.797,13.701,31.55,22.641,4.988,6.672,7.042
1027,0.731,36.874,13.693,31.55,22.648,4.947,6.713,7.001
1028,0.731,36.526,13.713,31.569,22.648,4.988,6.754,7.001
1029,0.724,36.681,13.72,31.55,22.644,5.03,6.795,7.042
1030,0.738,36.816,13.685,31.579,22.648,5.03,6.754,7.001
1031,0.751,36.865,13.661,31.559,22.644,4.988,6.713,6.919
1032,0.757,36.477,13.72,31.569,22.651,4.988,6.795,6.877
1033,0.757,36.623,13.74,31.55,22.644,5.03,6.713,6.877
1034,0.738,36.749,13.716,31.569,22.641,4.988,6.713,6.877
1035,0.731,36.826,13.709,31.569,22.637,4.947,6.754,6.837
1036,0.728,36.584,13.693,31.54,22.641,4.906,6.672,6.877
1037,0.721,36.71,13.724,31.55,22.637,4.906,6.672,6.877
1038,0.718,36.855,13.685,31.54,22.641,4.906,6.672,6.837
1039,0.708,36.884,13.697,31.521,22.637,4.906,6.713,6.837
1040,0.708,36.458,13.701,31.53,22.63,4.947,6.672,6.877
1041,0.705,36.584,13.673,31.521,22.637,4.906,6.754,6.837
1042,0.701,36.729,13.701,31.53,22.637,4.865,6.713,6.837
1043,0.705,36.971,13.724,31.54,22.637,4.906,6.754,6.877
1044,0.721,36.477,13.728,31.53,22.637,4.988,6.672,6.877
1045,0.728,36.603,13.693,31.521,22.637,4.906,6.754,6.795
1046,0.731,36.71,13.701,31.53,22.634,4.988,6.672,6.795
1047,0.734,36.526,13.72,31.521,22.641,4.865,6.713,6.837
1048,0.731,36.535,13.685,31.521,22.637,4.865,6.754,6.754
1049,0.728,36.661,13.713,31.521,22.634,4.988,6.754,6.754
1050,0.734,36.797,13.693,31.54,22.637,4.947,6.713,6.837
1051,0.738,36.381,13.661,31.521,22.634,4.906,6.672,6.754
1052,0.747,36.487,13.697,31.521,22.637,4.906,6.672,6.713
1053,0.747,36.642,13.716,31.511,22.637,4.906,6.713,6.795
1054,0.734,36.71,13.697,31.511,22.637,4.906,6.754,6.713
1055,0.718,36.332,13.709,31.501,22.637,4.988,6.713,6.754
1056,0.715,36.477,13.701,31.521,22.634,4.906,6.672,6.672
1057,0.718,36.594,13.716,31.521,22.634,4.906,6.672,6.713
1058,0.708,36.7,13.697,31.521,22.641,4.947,6.713,6.713
1059,0.708,36.439,13.709,31.511,22.641,4.865,6.631,6.713
1060,0.698,36.584,13.673,31.511,22.637,4.947,6.59,6.713
1061,0.695,36.72,13.649,31.53,22.637,4.906,6.713,6.672
1062,0.701,36.787,13.685,31.53,22.641,4.947,6.672,6.754
1063,0.695,36.361,13.713,31.521,22.63,4.906,6.672,6.713
1064,0.701,36.516,13.713,31.492,22.641,4.906,6.672,6.713
1065,0.718,36.652,13.716,31.521,22.637,4.988,6.631,6.672
1066,0.721,36.69,13.728,31.521,22.641,4.988,6.672,6.754
1067,0.731,36.255,13.736,31.511,22.641,4.865,6.754,6.713
1068,0.744,36.439,13.716,31.53,22.644,4.947,6.713,6.713
1069,0.754,36.526,13.72,31.511,22.644,4.906,6.672,6.795
1070,0.767,36.594,13.705,31.521,22.637,4.947,6.631,6.713
1071,0.784,36.351,13.677,31.511,22.644,4.906,6.631,6.754
1072,0.787,36.497,13.697,31.53,22.641,4.906,6.59,6.672
1073,0.807,36.613,13.724,31.492,22.637,4.947,6.672,6.713
1074,0.79,36.942,13.642,31.501,22.641,4.906,6.549,6.672
1075,0.784,36.313,13.665,31.501,22.634,4.906,6.549,6.631
1076,0.797,36.439,13.72,31.511,22.634,4.865,6.59,6.672
1077,0.793,36.535,13.713,31.501,22.63,4.783,6.508,6.631
1078,0.787,36.41,13.709,31.492,22.63,4.783,6.467,6.672
1079,0.787,36.448,13.701,31.472,22.63,4.824,6.467,6.672
1080,0.793,36.565,13.689,31.482,22.63,4.824,6.385,6.631
1081,0.79,36.661,13.622,31.492,22.623,4.742,6.467,6.631
1082,0.797,36.196,13.681,31.492,22.623,4.742,6.467,6.631
1083,0.797,36.293,13.713,31.472,22.623,4.824,6.508,6.631
1084,0.803,36.419,13.622,31.472,22.627,4.783,6.508,6.672
1085,0.813,36.516,13.673,31.492,22.623,4.824,6.549,6.754
1086,0.826,36.158,13.709,31.472,22.63,4.824,6.549,6.713
1087,0.833,36.293,13.74,31.472,22.634,4.783,6.672,6.713
1088,0.836,36.419,13.705,31.501,22.63,4.824,6.631,6.754
1089,0.836,36.526,13.713,31.501,22.637,4.865,6.631,6.631
1090,0.853,36.129,13.701,31.492,22.63,4.824,6.631,6.672
1091,0.856,36.284,13.634,31.511,22.634,4.824,6.631,6.713
1092,0.866,36.4,13.681,31.501,22.637,4.865,6.549,6.713
1093,0.876,36.487,13.685,31.482,22.634,4.865,6.631,6.672
1094,0.879,36.216,13.63,31.482,22.63,4.824,6.631,6.713
1095,0.872,36.361,13.709,31.511,22.634,4.824,6.631,6.754
1096,0.866,36.487,13.685,31.492,22.637,4.824,6.631,6.754
1097,0.872,36.555,13.705,31.482,22.637,4.865,6.672,6.795
1098,0.872,36.177,13.685,31.501,22.63,4.824,6.713,6.754
1099,0.876,36.332,13.709,31.492,22.634,4.824,6.713,6.795
1100,0.869,36.448,13.709,31.492,22.641,4.824,6.754,6.795
1101,0.869,36.497,13.665,31.501,22.637,4.906,6.795,6.96
1102,0.876,36.255,13.701,31.501,22.637,4.865,6.795,6.96
1103,0.889,36.371,13.728,31.501,22.634,4.783,6.837,7.124
1104,0.905,36.506,13.677,31.482,22.634,4.824,6.754,7.124
1105,0.922,36.865,13.665,31.501,22.63,4.824,6.795,7.206
1106,0.931,36.148,13.665,31.482,22.634,4.783,6.754,7.206
1107,0.941,36.284,13.713,31.492,22.634,4.824,6.795,7.206
1108,0.945,36.4,13.709,31.482,22.623,4.865,6.754,7.329
1109,0.935,36.167,13.685,31.482,22.63,4.824,6.795,7.288
1110,0.931,36.177,13.713,31.492,22.63,4.742,6.754,7.37
1111,0.945,36.322,13.681,31.472,22.63,4.824,6.672,7.288
1112,0.938,36.41,13.685,31.501,22.63,4.742,6.754,7.288
1113,0.925,36.148,13.74,31.472,22.63,4.824,6.713,7.452
1114,0.905,36.255,13.701,31.463,22.623,4.701,6.713,7.37
1115,0.892,36.4,13.677,31.472,22.634,4.742,6.754,7.411
1116,0.876,36.477,13.673,31.492,22.634,4.783,6.713,7.494
1117,0.876,36.022,13.693,31.482,22.63,4.824,6.672,7.452
1118,0.866,36.167,13.705,31.472,22.634,4.742,6.713,7.534
1119,0.866,36.303,13.677,31.463,22.634,4.742,6.754,7.534
1120,0.856,36.4,13.716,31.472,22.637,4.865,6.795,7.617
1121,0.849,36.129,13.697,31.482,22.641,4.906,6.795,7.658
1122,0.856,36.303,13.701,31.501,22.634,4.824,6.837,7.699
1123,0.853,36.439,13.732,31.511,22.641,4.906,6.837,7.74
1124,0.853,36.497,13.724,31.511,22.644,4.906,6.837,7.74
1125,0.859,36.08,13.705,31.511,22.644,4.947,6.795,7.74
1126,0.856,36.226,13.697,31.521,22.641,4.988,6.877,7.658
1127,0.859,36.342,13.713,31.521,22.648,4.988,6.754,7.74
1128,0.856,36.41,13.736,31.511,22.641,4.988,6.795,7.781
1129,0.859,36.196,13.701,31.53,22.651,4.988,6.795,7.781
1130,0.856,36.371,13.713,31.53,22.648,4.906,6.837,7.617
1131,0.866,36.468,13.673,31.521,22.644,4.906,6.713,7.617
1132,0.859,36.516,13.677,31.511,22.641,4.824,6.672,7.617
1133,0.853,36.09,13.748,31.492,22.637,4.824,6.754,7.534
1134,0.839,36.226,13.693,31.492,22.627,4.783,6.713,7.617
1135,0.816,36.342,13.681,31.492,22.641,4.824,6.754,7.534
1136,0.803,36.71,13.705,31.492,22.634,4.824,6.795,7.494
1137,0.797,36.167,13.689,31.492,22.637,4.824,6.672,7.534
1138,0.784,36.293,13.72,31.482,22.634,4.783,6.754,7.494
1139,0.79,36.41,13.713,31.482,22.637,4.865,6.795,7.37
1140,0.784,36.08,13.685,31.492,22.634,4.824,6.795,7.452
1141,0.774,36.071,13.677,31.501,22.634,4.906,6.877,7.411
1142,0.767,36.226,13.685,31.501,22.634,4.865,6.837,7.411
1143,0.761,36.303,13.732,31.482,22.637,4.865,6.837,7.411
1144,0.764,36.177,13.669,31.472,22.634,4.783,6.795,7.37
1145,0.774,36.303,13.681,31.482,22.641,4.906,6.837,7.288
1146,0.77,36.429,13.713,31.482,22.637,4.947,6.837,7.37
1147,0.774,36.526,13.709,31.492,22.637,4.906,6.837,7.288
1148,0.774,35.964,13.724,31.492,22.641,4.824,6.795,7.329
1149,0.761,36.109,13.72,31.501,22.641,4.865,6.837,7.206
1150,0.751,36.245,13.701,31.482,22.634,4.865,6.837,7.288
1151,0.764,36.293,13.653,31.501,22.634,4.865,6.877,7.165
1152,0.757,36.003,13.661,31.501,22.637,4.824,6.795,7.206
1153,0.764,36.138,13.713,31.472,22.637,4.906,6.795,7.165
1154,0.741,36.264,13.657,31.501,22.634,4.783,6.795,7.206
1155,0.734,36.332,13.685,31.492,22.641,4.824,6.837,7.083
1156,0.724,36.09,13.724,31.482,22.637,4.906,6.877,7.124
1157,0.715,36.226,13.701,31.482,22.641,4.906,6.877,7.124
1158,0.701,36.371,13.724,31.472,22.634,4.865,6.795,7.165
1159,0.688,36.41,13.728,31.482,22.637,4.906,6.837,7.124
1160,0.692,36.032,13.681,31.472,22.637,4.947,6.877,7.165
1161,0.688,36.187,13.673,31.482,22.63,4.906,6.877,7.124
1162,0.678,36.322,13.677,31.511,22.634,4.824,6.837,7.206
1163,0.675,36.342,13.756,31.501,22.63,4.947,6.96,7.124
1164,0.682,36.051,13.673,31.501,22.641,4.865,6.837,7.083
1165,0.692,36.206,13.685,31.501,22.644,4.865,6.795,7.042
1166,0.692,36.322,13.681,31.492,22.637,4.906,6.877,7.042
1167,0.708,36.661,13.677,31.492,22.637,4.906,6.795,7.083
1168,0.701,36.138,13.713,31.482,22.641,4.947,6.877,7.083
1169,0.698,36.274,13.724,31.492,22.644,4.947,6.877,7.042
1170,0.705,36.39,13.709,31.492,22.641,4.906,6.795,6.96
1171,0.695,36.109,13.614,31.482,22.641,4.865,6.795,6.96
1172,0.715,36.109,13.669,31.472,22.637,4.865,6.795,6.877
1173,0.721,36.245,13.752,31.463,22.634,4.865,6.837,6.837
1174,0.698,36.351,13.677,31.482,22.63,4.824,6.713,6.795
1175,0.692,35.935,13.653,31.472,22.63,4.783,6.672,6.837
1176,0.688,36.032,13.705,31.463,22.63,4.783,6.713,6.795
1177,0.678,36.148,13.685,31.463,22.623,4.783,6.672,6.754
1178,0.669,36.255,13.685,31.453,22.623,4.824,6.631,6.754
1179,0.669,36.051,13.677,31.443,22.627,4.742,6.631,6.754
1180,0.669,36.196,13.677,31.443,22.623,4.742,6.672,6.754
1181,0.652,36.313,13.645,31.463,22.623,4.742,6.59,6.795
1182,0.649,36.381,13.685,31.482,22.623,4.742,6.754,6.713
1183,0.646,35.935,13.72,31.453,22.627,4.742,6.754,6.754
1184,0.642,36.071,13.657,31.443,22.63,4.865,6.672,6.795
1185,0.659,36.216,13.669,31.453,22.63,4.906,6.795,6.754
1186,0.662,36.284,13.685,31.482,22.634,4.865,6.837,6.754
1187,0.672,35.974,13.697,31.472,22.634,4.824,6.713,6.713
1188,0.675,36.138,13.657,31.482,22.634,4.947,6.754,6.795
1189,0.675,36.255,13.697,31.472,22.637,4.947,6.837,6.754
1190,0.682,36.342,13.685,31.472,22.641,4.865,6.754,6.713
1191,0.692,35.993,13.713,31.472,22.637,4.906,6.754,6.631
1192,0.698,36.158,13.693,31.463,22.63,4.824,6.795,6.631
1193,0.705,36.245,13.748,31.472,22.641,4.783,6.713,6.672
1194,0.695,36.313,13.63,31.501,22.634,4.906,6.795,6.713
1195,0.678,36.042,13.669,31.463,22.634,4.906,6.795,6.672
1196,0.682,36.187,13.728,31.472,22.63,4.906,6.713,6.631
1197,0.675,36.322,13.693,31.463,22.634,4.906,6.754,6.631
1198,0.669,36.613,13.673,31.463,22.634,4.824,6.754,6.59
1199,0.682,36.109,13.72,31.463,22.634,4.906,6.672,6.59
1200,0.669,36.255,13.693,31.463,22.63,4.906,6.795,6.631
1201,0.662,36.361,13.673,31.472,22.63,4.865,6.795,6.631
1202,0.659,36.071,13.685,31.472,22.634,4.865,6.713,6.631
1203,0.655,36.051,13.72,31.482,22.634,4.783,6.713,6.631
1204,0.665,36.177,13.661,31.463,22.63,4.865,6.713,6.59
1205,0.682,36.303,13.669,31.463,22.63,4.824,6.713,6.672
1206,0.672,35.954,13.701,31.453,22.634,4.783,6.631,6.508
1207,0.688,36.061,13.697,31.472,22.63,4.865,6.713,6.631
1208,0.698,36.206,13.72,31.463,22.634,4.865,6.672,6.631
1209,0.701,36.313,13.705,31.463,22.627,4.824,6.672,6.713
1210,0.705,35.916,13.681,31.463,22.63,4.824,6.672,6.672
1211,0.708,36.051,13.661,31.463,22.63,4.824,6.631,6.672
1212,0.711,36.206,13.693,31.443,22.63,4.742,6.631,6.672
1213,0.711,36.264,13.724,31.434,22.63,4.701,6.631,6.795
1214,0.695,35.887,13.689,31.453,22.627,4.783,6.631,6.754
1215,0.678,36.051,13.681,31.463,22.627,4.783,6.672,6.837
1216,0.678,36.177,13.697,31.453,22.634,4.824,6.631,6.877
1217,0.675,36.245,13.701,31.453,22.637,4.824,6.754,6.919
1218,0.672,36.09,13.681,31.453,22.627,4.783,6.713,6.877
1219,0.669,36.235,13.681,31.443,22.634,4.824,6.713,7.001
1220,0.672,36.361,13.693,31.453,22.627,4.865,6.713,7.001
1221,0.669,36.41,13.693,31.472,22.637,4.906,6.754,7.124
1222,0.672,35.945,13.709,31.472,22.644,4.988,6.837,7.165
1223,0.655,36.08,13.724,31.482,22.644,4.906,6.877,7.206
1224,0.659,36.187,13.693,31.472,22.637,4.988,6.877,7.165
1225,0.695,36.226,13.677,31.472,22.644,4.988,6.877,7.206
1226,0.734,36.129,13.697,31.492,22.648,4.988,6.877,7.288
1227,0.787,36.255,13.724,31.492,22.655,4.988,6.877,7.329
1228,0.839,36.4,13.709,31.492,22.648,4.988,6.877,7.37
1229,0.892,36.594,13.72,31.501,22.641,4.988,6.877,7.329
1230,0.948,36.012,13.693,31.501,22.651,4.988,6.877,7.37
1231,0.997,36.177,13.653,31.501,22.655,5.03,6.877,7.329
1232,1.043,36.284,13.693,31.511,22.644,5.03,6.837,7.288
1233,1.096,36.1,13.74,31.501,22.648,4.988,6.877,7.247
1234,1.161,36.148,13.685,31.501,22.648,4.988,6.837,7.247
1235,1.234,36.293,13.673,31.501,22.641,4.947,6.754,7.288
1236,1.293,36.39,13.701,31.482,22.641,4.906,6.795,7.247
1237,1.352,36.012,13.724,31.472,22.637,4.906,6.713,7.288
1238,1.411,36.09,13.72,31.472,22.641,4.906,6.713,7.288
1239,1.47,36.255,13.724,31.463,22.641,4.906,6.795,7.165
1240,1.516,36.332,13.705,31.453,22.627,4.865,6.713,7.206
1241,1.572,35.945,13.661,31.463,22.634,4.947,6.795,7.165
1242,1.658,36.09,13.693,31.463,22.634,4.988,6.713,7.165
1243,1.71,36.196,13.716,31.443,22.637,4.947,6.795,7.247
1244,1.779,36.274,13.677,31.463,22.641,4.906,6.754,7.206
1245,1.842,36.012,13.705,31.463,22.634,4.947,6.754,7.206
1246,1.904,36.167,13.716,31.472,22.634,4.947,6.754,7.206
1247,1.963,36.274,13.701,31.463,22.637,4.906,6.795,7.206
1248,2.012,36.351,13.697,31.463,22.634,4.947,6.795,7.206
1249,2.065,35.954,13.732,31.463,22.634,4.865,6.754,7.206
1250,2.134,36.119,13.685,31.482,22.634,4.906,6.754,7.247
1251,2.193,36.226,13.661,31.453,22.637,4.865,6.795,7.165
1252,2.226,36.303,13.697,31.463,22.634,4.947,6.795,7.165
1253,2.279,36.022,13.728,31.463,22.634,4.906,6.754,7.288
1254,2.282,36.167,13.673,31.482,22.637,4.906,6.837,7.288
1255,2.272,36.322,13.661,31.482,22.634,4.988,6.754,7.329
1256,2.259,36.322,13.697,31.472,22.644,4.906,6.795,7.411
1257,2.206,36.022,13.713,31.453,22.634,4.906,6.795,7.452
1258,2.065,36.177,13.701,31.463,22.637,4.947,6.795,7.494
1259,1.92,36.274,13.709,31.472,22.637,4.906,6.713,7.617
1260,1.805,36.477,13.713,31.443,22.641,4.988,6.672,7.617
1261,1.602,36.032,13.653,31.472,22.641,4.988,6.713,7.699
1262,1.368,36.177,13.693,31.472,22.637,4.906,6.754,7.986
1263,1.138,36.303,13.748,31.463,22.641,4.906,6.713,8.027
1264,0.987,36.032,13.677,31.463,22.637,4.947,6.754,8.274
1265,0.892,36.051,13.697,31.463,22.637,4.906,6.713,8.397
1266,0.777,36.187,13.697,31.453,22.637,4.906,6.795,8.602
1267,0.705,36.284,13.728,31.463,22.641,4.947,6.754,8.849
1268,0.659,35.945,13.697,31.453,22.641,4.865,6.795,9.054
1269,0.616,36.071,13.701,31.472,22.641,4.947,6.754,9.218
1270,0.593,36.216,13.724,31.472,22.637,4.906,6.754,9.301
1271,0.596,36.322,13.622,31.482,22.637,4.906,6.754,9.342
1272,0.609,35.935,13.689,31.453,22.637,4.947,6.713,9.465
1273,0.616,36.061,13.724,31.453,22.634,4.865,6.713,9.547
1274,0.619,36.216,13.693,31.463,22.641,4.906,6.672,9.629
1275,0.619,36.293,13.72,31.443,22.627,4.906,6.672,9.67
1276,0.629,36.032,13.716,31.463,22.634,4.906,6.672,9.752
1277,0.655,36.167,13.697,31.443,22.634,4.783,6.631,9.834
1278,0.665,36.293,13.677,31.434,22.623,4.742,6.672,9.957
1279,0.692,36.351,13.677,31.424,22.623,4.742,6.631,10.081
1280,0.708,35.828,13.697,31.404,22.623,4.783,6.631,10.204
1281,0.715,35.983,13.665,31.424,22.627,4.783,6.672,10.409
1282,0.757,36.109,13.689,31.424,22.627,4.783,6.713,10.574
1283,0.767,36.158,13.732,31.414,22.63,4.824,6.754,10.738
1284,0.793,35.993,13.634,31.424,22.627,4.824,6.754,10.902
1285,0.833,36.158,13.701,31.443,22.63,4.865,6.754,10.984
1286,0.83,36.255,13.724,31.434,22.637,4.906,6.795,11.149
1287,0.833,36.284,13.685,31.443,22.634,4.865,6.795,11.231
1288,0.833,35.983,13.685,31.443,22.637,4.824,6.795,11.272
1289,0.83,36.129,13.689,31.463,22.634,4.824,6.713,11.313
1290,0.826,36.255,13.709,31.453,22.634,4.865,6.795,11.354
1291,0.826,36.468,13.63,31.443,22.63,4.824,6.795,11.354
1292,0.82,36.264,13.673,31.443,22.634,4.865,6.754,11.395
1293,0.826,36.41,13.709,31.443,22.63,4.783,6.754,11.395
1294,0.816,36.506,13.653,31.453,22.634,4.865,6.713,11.395
1295,0.797,35.877,13.713,31.453,22.634,4.824,6.713,11.354
1296,0.8,35.838,13.705,31.443,22.63,4.865,6.754,11.395
1297,0.79,35.974,13.728,31.434,22.634,4.865,6.795,11.354
1298,0.793,36.09,13.709,31.434,22.634,4.824,6.754,11.395
1299,0.787,36.003,13.709,31.434,22.63,4.865,6.713,11.436
1300,0.78,36.119,13.701,31.443,22.63,4.783,6.754,11.395
1301,0.774,36.245,13.661,31.453,22.634,4.824,6.713,11.518
1302,0.767,36.351,13.693,31.453,22.627,4.824,6.754,11.477
1303,0.774,35.877,13.716,31.434,22.634,4.824,6.713,11.477
1304,0.777,36.032,13.649,31.424,22.637,4.865,6.754,11.395
1305,0.79,36.167,13.697,31.424,22.634,4.824,6.672,11.395
1306,0.79,36.226,13.693,31.424,22.63,4.824,6.631,11.395
1307,0.8,35.954,13.693,31.434,22.623,4.824,6.631,11.313
1308,0.793,36.1,13.705,31.434,22.634,4.783,6.713,11.272
1309,0.803,36.235,13.673,31.414,22.627,4.865,6.631,11.066
1310,0.807,36.293,13.701,31.424,22.627,4.742,6.631,11.066
1311,0.81,35.809,13.669,31.424,22.63,4.824,6.713,10.943
1312,0.803,35.954,13.677,31.434,22.63,4.783,6.631,10.943
1313,0.8,36.061,13.72,31.395,22.634,4.906,6.672,10.82
1314,0.79,36.119,13.649,31.434,22.634,4.865,6.795,10.861
1315,0.784,35.916,13.669,31.414,22.634,4.906,6.754,10.697
1316,0.784,36.051,13.693,31.424,22.641,4.865,6.754,10.615
1317,0.784,36.177,13.673,31.443,22.634,4.906,6.795,10.532
1318,0.777,36.206,13.72,31.443,22.637,4.906,6.837,10.45
1319,0.78,36.022,13.705,31.434,22.641,4.947,6.837,10.327
1320,0.777,36.177,13.705,31.453,22.644,4.947,6.919,10.327
1321,0.754,36.284,13.697,31.472,22.641,4.988,6.837,10.245
1322,0.754,36.4,13.677,31.463,22.641,4.988,6.837,10.122
1323,0.77,36.071,13.728,31.463,22.644,4.988,6.837,10.04
1324,0.777,36.206,13.677,31.472,22.651,4.906,6.795,9.916
1325,0.78,36.322,13.693,31.482,22.648,4.988,6.795,9.752
1326,0.797,36.022,13.685,31.482,22.648,4.865,6.754,9.629
1327,0.8,36.032,13.693,31.472,22.637,4.865,6.713,9.465
1328,0.813,36.187,13.72,31.463,22.641,4.824,6.754,9.465
1329,0.813,36.284,13.716,31.453,22.641,4.824,6.754,9.382
1330,0.813,35.877,13.697,31.453,22.637,4.783,6.672,9.301
1331,0.82,35.974,13.697,31.434,22.634,4.783,6.631,9.177
1332,0.82,36.119,13.693,31.424,22.637,4.824,6.672,9.136
1333,0.816,36.206,13.724,31.424,22.634,4.824,6.713,8.972
1334,0.807,35.896,13.697,31.443,22.641,4.824,6.713,8.89
1335,0.787,36.032,13.681,31.434,22.634,4.865,6.631,8.849
1336,0.784,36.167,13.693,31.443,22.637,4.824,6.713,8.849
1337,0.777,36.245,13.693,31.434,22.634,4.865,6.672,8.767
1338,0.774,35.935,13.709,31.434,22.637,4.865,6.713,8.726
1339,0.767,36.071,13.705,31.424,22.637,4.824,6.713,8.644
1340,0.78,36.216,13.693,31.434,22.634,4.865,6.795,8.561
1341,0.764,36.264,13.697,31.414,22.634,4.865,6.713,8.561
1342,0.757,35.877,13.673,31.434,22.634,4.906,6.754,8.479
1343,0.764,36.012,13.732,31.434,22.634,4.824,6.795,8.479
1344,0.777,36.148,13.689,31.424,22.634,4.865,6.672,8.52
1345,0.784,36.206,13.681,31.434,22.641,4.906,6.713,8.52
1346,0.793,36.012,13.693,31.443,22.637,4.906,6.713,8.479
1347,0.797,36.167,13.693,31.424,22.637,4.865,6.754,8.52
1348,0.807,36.284,13.72,31.443,22.63,4.824,6.795,8.561
1349,0.803,36.332,13.716,31.443,22.641,4.824,6.713,8.561
1350,0.813,35.906,13.685,31.453,22.641,4.824,6.754,8.52
1351,0.826,36.042,13.693,31.414,22.641,4.865,6.754,8.479
1352,0.826,36.177,13.689,31.424,22.637,4.824,6.713,8.479
1353,0.826,36.206,13.724,31.424,22.63,4.906,6.713,8.479
1354,0.803,35.857,13.661,31.414,22.637,4.865,6.754,8.479
1355,0.807,35.993,13.693,31.424,22.634,4.824,6.713,8.479
1356,0.8,36.1,13.72,31.443,22.634,4.947,6.713,8.438
1357,0.807,35.925,13.716,31.443,22.634,4.865,6.713,8.438
1358,0.8,36.012,13.713,31.424,22.634,4.988,6.754,8.397
1359,0.797,36.119,13.693,31.443,22.641,4.865,6.795,8.356
1360,0.803,36.255,13.713,31.443,22.641,4.865,6.795,8.397
1361,0.79,35.78,13.673,31.424,22.641,4.906,6.754,8.438
1362,0.787,35.896,13.693,31.434,22.641,4.865,6.713,8.356
1363,0.8,36.032,13.74,31.443,22.641,4.906,6.713,8.315
1364,0.807,36.129,13.701,31.424,22.637,4.865,6.713,8.274
1365,0.807,35.857,13.689,31.434,22.634,4.865,6.672,8.315
1366,0.823,35.993,13.705,31.434,22.637,4.865,6.672,8.233
1367,0.83,36.109,13.72,31.434,22.637,4.906,6.631,8.233
1368,0.83,36.206,13.713,31.434,22.637,4.906,6.713,8.192
1369,0.846,35.877,13.705,31.443,22.641,4.865,6.631,8.027
1370,0.836,36.022,13.701,31.434,22.637,4.742,6.631,8.192
1371,0.843,36.148,13.673,31.424,22.637,4.783,6.631,7.986
1372,0.853,36.226,13.689,31.404,22.63,4.742,6.467,8.027
1373,0.853,35.906,13.732,31.395,22.634,4.742,6.59,7.986
1374,0.836,36.061,13.685,31.404,22.634,4.742,6.549,7.863
1375,0.836,36.177,13.665,31.395,22.616,4.783,6.467,7.945
1376,0.836,36.226,13.716,31.404,22.623,4.742,6.467,7.863
1377,0.826,35.828,13.724,31.395,22.627,4.742,6.549,7.945
1378,0.816,35.974,13.701,31.385,22.627,4.742,6.631,7.863
1379,0.816,36.09,13.709,31.385,22.63,4.742,6.59,7.945
1380,0.813,36.129,13.693,31.404,22.634,4.824,6.713,7.822
1381,0.797,35.857,13.693,31.395,22.627,4.824,6.631,7.822
1382,0.81,36.012,13.661,31.404,22.63,4.824,6.713,7.945
1383,0.816,36.119,13.697,31.404,22.634,4.824,6.713,7.74
1384,0.82,36.41,13.638,31.424,22.63,4.824,6.672,7.74
1385,0.836,36.361,13.673,31.404,22.637,4.783,6.672,7.781
1386,0.849,36.497,13.716,31.404,22.637,4.783,6.713,7.699
1387,0.862,36.603,13.701,31.404,22.637,4.824,6.713,7.699
1388,0.859,35.702,13.701,31.414,22.637,4.906,6.672,7.74
1389,0.856,35.654,13.716,31.395,22.634,4.824,6.672,7.699
1390,0.869,35.799,13.689,31.414,22.634,4.865,6.672,7.74
1391,0.882,35.906,13.693,31.395,22.634,4.906,6.672,7.699
1392,0.872,35.809,13.693,31.395,22.637,4.824,6.672,7.658
1393,0.885,35.945,13.732,31.404,22.634,4.824,6.713,7.658
1394,0.876,36.071,13.701,31.463,22.634,4.742,6.754,7.658
1395,0.866,36.167,13.661,31.404,22.634,4.865,6.672,7.658
1396,0.866,35.702,13.724,31.395,22.634,4.865,6.713,7.699
1397,0.859,35.828,13.705,31.404,22.63,4.824,6.713,7.658
1398,0.853,35.974,13.693,31.395,22.63,4.824,6.713,7.658
1399,0.853,36.051,13.716,31.424,22.63,4.742,6.631,7.617
1400,0.859,35.877,13.673,31.385,22.634,4.783,6.713,7.575
1401,0.853,36.012,13.645,31.404,22.634,4.865,6.713,7.617
1402,0.859,36.158,13.685,31.395,22.634,4.865,6.713,7.575
1403,0.853,36.206,13.732,31.395,22.634,4.742,6.672,7.575
1404,0.856,35.741,13.681,31.385,22.63,4.783,6.631,7.534
1405,0.876,35.896,13.689,31.385,22.623,4.701,6.713,7.494
1406,0.885,36.012,13.689,31.385,22.634,4.742,6.631,7.494
1407,0.889,36.061,13.681,31.395,22.627,4.742,6.631,7.494
1408,0.889,35.79,13.661,31.385,22.62,4.783,6.631,7.452
1409,0.905,35.935,13.701,31.395,22.63,4.742,6.713,7.494
1410,0.905,36.051,13.701,31.375,22.623,4.783,6.672,7.411
1411,0.912,36.061,13.681,31.375,22.63,4.742,6.672,7.452
1412,0.912,35.828,13.685,31.385,22.637,4.783,6.713,7.452
1413,0.922,35.954,13.724,31.395,22.634,4.783,6.795,7.452
1414,0.912,36.09,13.689,31.385,22.634,4.865,6.754,7.494
1415,0.895,36.071,13.701,31.395,22.648,4.906,6.754,7.494
1416,0.899,35.77,13.685,31.404,22.634,4.906,6.795,7.534
1417,0.905,35.906,13.693,31.414,22.644,4.988,6.837,7.494
1418,0.899,36.032,13.693,31.424,22.644,4.906,6.837,7.494
1419,0.902,35.741,13.705,31.414,22.644,4.906,6.837,7.494
1420,0.905,35.79,13.716,31.424,22.648,4.988,6.837,7.452
1421,0.895,35.925,13.705,31.434,22.648,4.906,6.795,7.452
1422,0.895,36.061,13.724,31.443,22.648,4.988,6.795,7.411
1423,0.895,35.78,13.74,31.434,22.644,4.988,6.795,7.37
1424,0.905,35.896,13.748,31.443,22.641,4.947,6.713,7.288
1425,0.931,36.051,13.72,31.434,22.641,4.906,6.672,7.329
1426,0.931,36.129,13.677,31.414,22.641,4.824,6.672,7.165
1427,0.941,35.673,13.709,31.414,22.637,4.865,6.631,7.288
1428,0.948,35.828,13.701,31.404,22.637,4.824,6.631,7.206
1429,0.958,35.954,13.693,31.414,22.641,4.865,6.672,7.206
1430,0.961,36.032,13.693,31.414,22.63,4.824,6.631,7.165
1431,0.971,35.712,13.653,31.385,22.634,4.865,6.59,7.124
1432,0.971,35.877,13.701,31.385,22.634,4.865,6.631,7.206
1433,0.961,35.983,13.705,31.395,22.637,4.824,6.549,7.124
1434,0.964,36.061,13.681,31.404,22.637,4.865,6.631,7.124
1435,0.951,35.644,13.713,31.414,22.634,4.906,6.508,7.083
1436,0.958,35.78,13.705,31.404,22.634,4.865,6.549,7.124
1437,0.954,35.906,13.72,31.414,22.637,4.865,6.508,7.042
1438,0.958,35.964,13.693,31.424,22.634,4.824,6.508,7.042
1439,0.954,35.809,13.705,31.404,22.637,4.906,6.59,7.042
1440,0.951,35.974,13.713,31.404,22.637,4.824,6.549,7.001
1441,0.948,36.08,13.642,31.404,22.637,4.824,6.549,7.001
1442,0.948,36.129,13.697,31.414,22.634,4.824,6.549,7.001
1443,0.971,35.635,13.685,31.404,22.63,4.783,6.59,6.96
1444,0.991,35.78,13.669,31.424,22.634,4.783,6.549,6.919
1445,0.991,35.896,13.693,31.404,22.634,4.865,6.549,6.877
1446,0.991,35.974,13.701,31.414,22.634,4.824,6.508,6.837
1447,1.004,35.819,13.697,31.424,22.637,4.824,6.508,6.877
1448,1.017,35.993,13.713,31.404,22.637,4.906,6.508,6.837
1449,1.017,36.09,13.713,31.404,22.634,4.824,6.549,6.837
1450,1.023,35.683,13.709,31.404,22.634,4.865,6.549,6.877
1451,1.023,35.702,13.661,31.404,22.637,4.865,6.59,6.795
1452,1.037,35.867,13.701,31.404,22.634,4.865,6.549,6.754
1453,1.04,35.925,13.72,31.404,22.637,4.906,6.549,6.837
1454,1.027,35.712,13.669,31.404,22.634,4.865,6.59,6.754
1455,1.03,35.857,13.681,31.404,22.634,4.824,6.508,6.795
1456,1.03,35.983,13.701,31.424,22.641,4.865,6.631,6.754
1457,1.037,36.09,13.724,31.414,22.637,4.865,6.631,6.713
1458,1.037,35.635,13.709,31.404,22.644,4.865,6.549,6.837
1459,1.037,35.79,13.72,31.404,22.637,4.906,6.631,6.795
1460,1.04,35.916,13.709,31.424,22.641,4.906,6.59,6.837
1461,1.04,35.993,13.681,31.404,22.641,4.865,6.631,6.877
1462,1.04,35.683,13.693,31.414,22.637,4.865,6.631,6.96
1463,1.043,35.838,13.709,31.414,22.637,4.865,6.631,7.001
1464,1.063,35.964,13.701,31.404,22.641,4.865,6.549,6.96
1465,1.076,36.051,13.701,31.395,22.634,4.824,6.549,7.001
1466,1.083,35.78,13.685,31.404,22.63,4.824,6.549,7.001
1467,1.102,35.925,13.709,31.404,22.637,4.865,6.508,7.001
1468,1.102,36.061,13.681,31.404,22.634,4.824,6.426,7.001
1469,1.112,36.1,13.709,31.395,22.627,4.783,6.508,7.001
1470,1.112,35.722,13.661,31.404,22.634,4.701,6.508,7.001
1471,1.138,35.838,13.645,31.395,22.634,4.742,6.467,7.001
1472,1.132,35.974,13.697,31.385,22.63,4.742,6.467,7.042
1473,1.129,35.993,13.72,31.375,22.623,4.783,6.467,7.042
1474,1.125,35.867,13.665,31.366,22.623,4.66,6.467,7.083
1475,1.122,36.022,13.661,31.395,22.627,4.701,6.385,7.083
1476,1.129,36.119,13.685,31.375,22.623,4.742,6.467,7.042
1477,1.115,36.051,13.713,31.356,22.627,4.701,6.508,7.165
1478,1.125,35.799,13.709,31.375,22.623,4.783,6.467,7.083
1479,1.145,35.935,13.697,31.375,22.62,4.701,6.549,7.165
1480,1.142,36.032,13.685,31.366,22.63,4.742,6.631,7.165
1481,1.129,35.828,13.669,31.385,22.627,4.742,6.467,7.247
1482,1.138,35.916,13.677,31.366,22.627,4.783,6.549,7.288
1483,1.142,36.042,13.716,31.375,22.627,4.742,6.59,7.288
1484,1.148,36.138,13.63,31.385,22.63,4.824,6.59,7.288
1485,1.165,35.693,13.673,31.385,22.634,4.824,6.631,7.329
1486,1.178,35.828,13.693,31.395,22.637,4.783,6.549,7.37
1487,1.198,35.964,13.693,31.404,22.63,4.783,6.59,7.494
1488,1.207,36.061,13.681,31.385,22.634,4.824,6.631,7.575
1489,1.211,35.887,13.716,31.414,22.634,4.783,6.631,7.617
1490,1.221,36.022,13.685,31.404,22.634,4.865,6.631,7.617
1491,1.24,36.158,13.685,31.395,22.637,4.906,6.631,7.658
1492,1.244,36.235,13.709,31.404,22.623,4.865,6.672,7.74
1493,1.247,35.954,13.728,31.385,22.641,4.742,6.631,7.74
1494,1.244,36.109,13.709,31.395,22.634,4.865,6.631,7.781
1495,1.234,36.226,13.685,31.395,22.63,4.783,6.672,7.822
1496,1.234,36.293,13.72,31.395,22.637,4.865,6.631,7.74
1497,1.23,36.071,13.709,31.375,22.627,4.824,6.549,7.904
1498,1.23,36.235,13.669,31.395,22.63,4.783,6.631,7.822
1499,1.23,36.361,13.693,31.395,22.63,4.783,6.59,7.863
1500,1.237,36.4,13.705,31.395,22.634,4.783,6.631,7.822
1501,1.227,36.051,13.645,31.395,22.634,4.824,6.631,7.863
1502,1.234,36.216,13.677,31.404,22.634,4.865,6.631,7.904
1503,1.24,36.322,13.748,31.395,22.634,4.783,6.631,7.863
1504,1.257,36.332,13.669,31.395,22.634,4.906,6.59,7.863
1505,1.267,36.264,13.716,31.385,22.627,4.783,6.631,7.781
1506,1.27,36.39,13.705,31.385,22.63,4.824,6.549,7.822
1507,1.273,36.497,13.728,31.395,22.627,4.701,6.549,7.74
1508,1.286,36.497,13.685,31.385,22.634,4.824,6.549,7.699
1509,1.286,36.361,13.669,31.395,22.63,4.824,6.59,7.74
1510,1.28,36.487,13.701,31.385,22.627,4.824,6.549,7.699
1511,1.286,36.603,13.657,31.385,22.634,4.742,6.508,7.658
1512,1.286,36.458,13.697,31.385,22.63,4.742,6.549,7.617
1513,1.293,36.526,13.701,31.375,22.627,4.783,6.549,7.575
1514,1.293,36.632,13.661,31.385,22.63,4.783,6.59,7.534
1515,1.273,36.758,13.693,31.385,22.63,4.783,6.549,7.534
1516,1.26,36.429,13.693,31.366,22.623,4.783,6.508,7.494
1517,1.253,36.535,13.709,31.366,22.63,4.742,6.59,7.494
1518,1.23,36.661,13.693,31.385,22.634,4.783,6.631,7.452
1519,1.234,36.768,13.689,31.375,22.63,4.824,6.713,7.411
1520,1.224,36.642,13.701,31.375,22.634,4.865,6.631,7.494
1521,1.221,36.768,13.634,31.414,22.634,4.906,6.754,7.534
1522,1.207,36.904,13.689,31.404,22.637,4.865,6.754,7.494
1523,1.194,36.981,13.728,31.385,22.634,4.906,6.713,7.494
1524,1.194,36.749,13.665,31.414,22.641,4.906,6.754,7.452
1525,1.207,36.904,13.693,31.414,22.644,4.988,6.795,7.452
1526,1.198,37.049,13.705,31.443,22.648,4.988,6.795,7.452
1527,1.198,37.107,13.728,31.414,22.644,4.947,6.795,7.411
1528,1.194,36.942,13.716,31.424,22.644,4.988,6.837,7.452
1529,1.191,37.107,13.72,31.443,22.648,4.988,6.795,7.288
1530,1.184,37.223,13.724,31.424,22.648,4.947,6.754,7.329
1531,1.181,37.272,13.677,31.424,22.648,4.947,6.713,7.165
1532,1.171,37.0,13.693,31.424,22.648,4.906,6.672,7.165
1533,1.168,37.126,13.736,31.395,22.641,4.824,6.713,7.124
1534,1.132,37.243,13.649,31.404,22.641,4.824,6.754,7.165
1535,1.109,37.243,13.689,31.404,22.63,4.824,6.713,7.124
1536,1.092,37.039,13.693,31.385,22.634,4.947,6.754,7.124
1537,1.069,37.184,13.685,31.395,22.637,4.865,6.713,7.083
1538,1.05,37.31,13.709,31.385,22.637,4.824,6.672,7.124
1539,1.03,37.31,13.705,31.385,22.634,4.824,6.672,7.083
1540,1.017,37.233,13.701,31.385,22.637,4.865,6.672,7.042
1541,1.0,37.349,13.661,31.395,22.634,4.865,6.672,7.001
1542,0.984,37.485,13.673,31.414,22.63,4.824,6.713,7.001
1543,0.968,37.184,13.716,31.424,22.637,4.906,6.713,7.042
1544,0.984,37.262,13.649,31.395,22.641,4.824,6.713,6.96
1545,0.971,37.388,13.657,31.404,22.637,4.865,6.713,7.042
1546,0.961,37.475,13.677,31.385,22.634,4.824,6.713,7.001
1547,0.954,37.204,13.685,31.385,22.63,4.824,6.672,7.001
1548,0.958,37.33,13.709,31.404,22.637,4.824,6.754,6.96
1549,0.951,37.485,13.697,31.395,22.634,4.865,6.754,6.877
1550,0.938,37.572,13.72,31.404,22.641,4.824,6.837,6.919
1551,0.935,37.281,13.653,31.385,22.634,4.824,6.672,6.919
1552,0.925,37.407,13.693,31.385,22.641,4.865,6.754,6.837
1553,0.918,37.514,13.736,31.385,22.634,4.906,6.672,6.837
1554,0.895,37.62,13.673,31.395,22.637,4.824,6.754,6.837
1555,0.879,37.31,13.673,31.404,22.637,4.865,6.672,6.837
1556,0.866,37.465,13.709,31.385,22.634,4.865,6.713,6.837
1557,0.862,37.572,13.701,31.404,22.637,4.865,6.754,6.795
1558,0.853,37.62,13.705,31.395,22.641,4.906,6.672,6.837
1559,0.839,37.407,13.732,31.404,22.637,4.865,6.713,6.754
1560,0.83,37.553,13.709,31.424,22.634,4.865,6.754,6.754
1561,0.82,37.669,13.665,31.404,22.634,4.906,6.672,6.713
1562,0.807,37.727,13.705,31.414,22.641,4.906,6.713,6.837
1563,0.787,37.494,13.744,31.385,22.641,4.906,6.713,6.754
1564,0.8,37.659,13.677,31.404,22.644,4.947,6.713,6.713
1565,0.81,37.804,13.661,31.395,22.637,4.865,6.795,6.713
1566,0.807,37.795,13.701,31.404,22.637,4.865,6.713,6.672
1567,0.807,37.398,13.716,31.395,22.637,4.824,6.713,6.631
1568,0.803,37.553,13.709,31.404,22.641,4.865,6.754,6.713
1569,0.803,37.669,13.713,31.404,22.641,4.906,6.672,6.672
1570,0.813,37.669,13.685,31.404,22.637,4.865,6.672,6.59
1571,0.8,37.591,13.653,31.395,22.644,4.865,6.672,6.59
1572,0.797,37.727,13.661,31.385,22.637,4.824,6.59,6.549
1573,0.8,37.804,13.732,31.385,22.641,4.742,6.59,6.426
1574,0.777,37.553,13.661,31.385,22.637,4.824,6.549,6.59
1575,0.77,37.64,13.661,31.385,22.623,4.742,6.549,6.59
1576,0.747,37.766,13.72,31.385,22.63,4.742,6.508,6.549
1577,0.747,37.843,13.716,31.366,22.623,4.742,6.467,6.549
1578,0.747,37.339,13.689,31.375,22.62,4.701,6.549,6.467
1579,0.728,37.465,13.685,31.366,22.62,4.701,6.467,6.631
1580,0.724,37.601,13.681,31.346,22.63,4.783,6.549,6.672
1581,0.708,37.678,13.645,31.366,22.63,4.701,6.549,6.672
1582,0.708,37.504,13.665,31.375,22.623,4.742,6.549,6.754
1583,0.708,37.63,13.716,31.366,22.627,4.783,6.549,6.795
1584,0.708,37.737,13.645,31.375,22.637,4.824,6.59,6.837
1585,0.731,37.814,13.677,31.385,22.634,4.906,6.631,6.837
1586,0.731,37.32,13.693,31.375,22.63,4.865,6.59,6.837
1587,0.728,37.475,13.701,31.385,22.634,4.865,6.672,6.96
1588,0.734,37.601,13.72,31.395,22.637,4.783,6.631,6.96
1589,0.741,37.678,13.701,31.404,22.637,4.824,6.508,7.001
1590,0.744,37.446,13.669,31.375,22.637,4.824,6.59,6.96
1591,0.757,37.591,13.705,31.453,22.634,4.824,6.631,6.96
1592,0.747,37.698,13.677,31.385,22.634,4.783,6.59,7.042
1593,0.757,37.746,13.709,31.375,22.634,4.824,6.508,7.042
1594,0.731,37.407,13.709,31.424,22.63,4.783,6.59,7.124
1595,0.715,37.543,13.689,31.385,22.634,4.865,6.549,7.124
1596,0.721,37.659,13.756,31.385,22.641,4.865,6.549,7.042
1597,0.715,37.678,13.709,31.385,22.634,4.824,6.508,7.042
1598,0.701,37.523,13.732,31.395,22.63,4.824,6.549,7.124
1599,0.698,37.659,13.709,31.385,22.63,4.865,6.549,7.083
1600,0.701,37.775,13.685,31.385,22.63,4.824,6.508,7.083
1601,0.682,37.582,13.582,31.404,22.627,4.824,6.508,7.083
1602,0.682,37.368,13.681,31.375,22.634,4.906,6.467,7.083
1603,0.678,37.485,13.72,31.395,22.63,4.783,6.467,7.124
1604,0.695,37.611,13.622,31.385,22.634,4.865,6.508,7.124
1605,0.705,37.417,13.657,31.375,22.634,4.783,6.508,7.083
1606,0.715,37.494,13.713,31.385,22.63,4.824,6.508,7.042
1607,0.711,37.63,13.705,31.395,22.63,4.824,6.467,7.001
1608,0.718,37.717,13.709,31.395,22.63,4.783,6.467,6.96
1609,0.718,37.417,13.709,31.375,22.634,4.824,6.385,6.96
1610,0.718,37.543,13.693,31.375,22.623,4.783,6.508,6.96
1611,0.724,37.678,13.642,31.385,22.63,4.865,6.385,6.877
1612,0.728,37.766,13.645,31.375,22.63,4.824,6.426,6.96
1613,0.731,37.281,13.709,31.385,22.63,4.824,6.467,7.001
1614,0.715,37.436,13.634,31.395,22.634,4.865,6.467,7.001
1615,0.708,37.562,13.669,31.385,22.634,4.865,6.467,6.919
1616,0.711,37.63,13.716,31.395,22.627,4.824,6.508,6.96
1617,0.701,37.204,13.701,31.395,22.634,4.947,6.59,7.001
1618,0.708,37.359,13.685,31.395,22.641,4.906,6.508,7.042
1619,0.695,37.485,13.716,31.395,22.648,4.988,6.59,7.042
1620,0.695,37.553,13.689,31.404,22.644,4.947,6.549,6.96
1621,0.695,37.281,13.693,31.414,22.644,5.03,6.631,7.001
1622,0.695,37.427,13.713,31.434,22.655,5.03,6.672,7.042
1623,0.695,37.553,13.756,31.424,22.648,5.03,6.59,6.96
1624,0.695,37.601,13.716,31.434,22.648,4.988,6.59,6.919
1625,0.715,37.252,13.685,31.404,22.648,4.947,6.59,6.877
1626,0.715,37.398,13.693,31.414,22.641,4.988,6.549,6.795
1627,0.724,37.514,13.701,31.424,22.644,4.906,6.549,6.795
1628,0.734,37.553,13.701,31.414,22.641,4.906,6.508,6.795
1629,0.724,37.417,13.701,31.424,22.641,4.906,6.549,6.713
1630,0.738,37.543,13.693,31.404,22.637,4.824,6.59,6.713
1631,0.734,37.649,13.677,31.385,22.634,4.824,6.549,6.672
1632,0.744,37.378,13.657,31.404,22.634,4.865,6.508,6.713
1633,0.747,37.126,13.748,31.385,22.644,4.865,6.549,6.672
1634,0.728,37.252,13.653,31.395,22.634,4.906,6.549,6.672
1635,0.721,37.398,13.665,31.385,22.637,4.906,6.549,6.713
1636,0.721,37.165,13.701,31.404,22.634,4.865,6.549,6.672
1637,0.705,37.223,13.669,31.385,22.637,4.865,6.59,6.672
1638,0.708,37.398,13.709,31.404,22.634,4.865,6.549,6.631
1639,0.705,37.456,13.697,31.395,22.641,4.865,6.549,6.672
1640,0.695,37.097,13.705,31.395,22.634,4.865,6.59,6.672
1641,0.698,37.204,13.669,31.404,22.634,4.865,6.549,6.713
1642,0.698,37.359,13.681,31.404,22.637,4.865,6.631,6.713
1643,0.698,37.436,13.74,31.395,22.634,4.906,6.508,6.713
1644,0.698,37.126,13.677,31.414,22.634,4.865,6.59,6.672
1645,0.718,37.291,13.677,31.395,22.637,4.824,6.631,6.713
1646,0.715,37.407,13.689,31.404,22.634,4.906,6.59,6.631
1647,0.715,37.446,13.701,31.404,22.637,4.906,6.631,6.631
1648,0.728,37.01,13.669,31.414,22.634,4.865,6.672,6.631
1649,0.728,37.155,13.693,31.424,22.634,4.865,6.631,6.59
1650,0.734,37.281,13.685,31.404,22.63,4.906,6.59,6.631
1651,0.744,37.33,13.681,31.404,22.634,4.865,6.631,6.631
1652,0.747,37.117,13.72,31.385,22.637,4.824,6.631,6.631
1653,0.754,37.262,13.752,31.404,22.644,4.824,6.631,6.549
1654,0.738,37.368,13.677,31.404,22.634,4.947,6.631,6.59
1655,0.728,37.417,13.645,31.395,22.637,4.947,6.631,6.631
1656,0.728,37.088,13.693,31.404,22.634,4.947,6.672,6.631
1657,0.724,37.233,13.724,31.414,22.644,4.865,6.631,6.549
1658,0.728,37.349,13.693,31.395,22.637,4.865,6.631,6.549
1659,0.708,37.359,13.709,31.414,22.641,4.906,6.713,6.508
1660,0.708,37.146,13.724,31.385,22.637,4.824,6.59,6.631
1661,0.711,37.262,13.645,31.424,22.641,4.865,6.713,6.508
1662,0.718,37.388,13.705,31.424,22.637,4.947,6.754,6.549
1663,0.715,37.214,13.728,31.424,22.641,4.906,6.631,6.549
1664,0.721,37.068,13.645,31.404,22.648,4.906,6.713,6.508
1665,0.734,37.223,13.705,31.404,22.63,4.824,6.672,6.508
1666,0.738,37.31,13.697,31.414,22.641,4.906,6.631,6.467
1667,0.741,37.107,13.72,31.404,22.637,4.865,6.672,6.467
1668,0.744,37.204,13.713,31.404,22.641,4.906,6.672,6.426
1669,0.744,37.31,13.709,31.404,22.637,4.865,6.631,6.343
1670,0.751,37.427,13.709,31.404,22.63,4.824,6.59,6.385
1671,0.764,37.029,13.693,31.404,22.627,4.742,6.549,6.302
1672,0.757,37.155,13.701,31.366,22.63,4.824,6.549,6.262
1673,0.757,37.262,13.716,31.356,22.627,4.783,6.508,6.262
1674,0.734,37.368,13.614,31.385,22.623,4.742,6.508,6.262
1675,0.738,36.942,13.693,31.375,22.627,4.701,6.549,6.262
1676,0.724,37.068,13.713,31.366,22.627,4.66,6.549,6.302
1677,0.724,37.204,13.709,31.375,22.627,4.742,6.508,6.22
1678,0.711,37.272,13.716,31.366,22.634,4.742,6.59,6.302
1679,0.705,37.02,13.677,31.356,22.62,4.824,6.631,6.302
1680,0.708,37.165,13.701,31.375,22.627,4.824,6.672,6.302
1681,0.708,37.301,13.657,31.434,22.634,4.824,6.672,6.343
1682,0.711,37.349,13.661,31.395,22.637,4.824,6.631,6.302
1683,0.708,37.039,13.72,31.375,22.637,4.824,6.713,6.426
1684,0.715,37.184,13.626,31.404,22.63,4.824,6.672,6.343
1685,0.728,37.31,13.693,31.395,22.634,4.824,6.672,6.22
1686,0.738,37.349,13.732,31.385,22.634,4.824,6.713,6.302
1687,0.747,37.029,13.701,31.375,22.634,4.824,6.631,6.302
1688,0.754,37.175,13.709,31.395,22.634,4.824,6.672,6.262
1689,0.751,37.281,13.689,31.375,22.634,4.865,6.672,6.302
1690,0.751,37.301,13.701,31.375,22.637,4.865,6.672,6.302
1691,0.757,37.02,13.693,31.385,22.634,4.906,6.631,6.302
1692,0.761,37.146,13.677,31.375,22.637,4.783,6.631,6.302
1693,0.767,37.233,13.74,31.375,22.637,4.865,6.672,6.426
1694,0.751,37.146,13.673,31.385,22.634,4.865,6.631,6.302
1695,0.744,37.059,13.673,31.385,22.637,4.824,6.672,6.343
1696,0.747,37.165,13.736,31.395,22.63,4.906,6.672,6.343
1697,0.734,37.281,13.709,31.375,22.63,4.783,6.672,6.385
1698,0.728,36.913,13.705,31.366,22.634,4.824,6.795,6.385
1699,0.731,37.029,13.709,31.366,22.634,4.742,6.672,6.426
1700,0.724,37.146,13.697,31.375,22.634,4.824,6.672,6.302
1701,0.701,37.233,13.681,31.395,22.634,4.865,6.672,6.343
1702,0.731,36.942,13.669,31.375,22.634,4.824,6.631,6.426
1703,0.718,37.039,13.732,31.375,22.63,4.783,6.631,6.385
1704,0.715,37.204,13.669,31.375,22.634,4.824,6.631,6.343
1705,0.728,37.272,13.642,31.375,22.63,4.783,6.631,6.302
1706,0.724,36.962,13.673,31.366,22.627,4.742,6.713,6.426
1707,0.747,37.088,13.665,31.375,22.627,4.742,6.754,6.426
1708,0.747,37.223,13.689,31.375,22.623,4.742,6.672,6.385
1709,0.761,37.291,13.709,31.375,22.634,4.783,6.795,6.467
1710,0.761,36.962,13.677,31.385,22.637,4.824,6.877,6.508
1711,0.764,37.107,13.653,31.385,22.634,4.824,6.837,6.508
1712,0.757,37.243,13.701,31.395,22.63,4.865,6.919,6.59
1713,0.764,37.301,13.752,31.404,22.644,4.947,6.919,6.631
1714,0.754,36.884,13.677,31.385,22.648,4.947,6.96,6.713
1715,0.741,37.049,13.685,31.414,22.644,5.03,7.001,6.795
1716,0.747,37.165,13.716,31.404,22.651,4.988,7.001,6.754
1717,0.744,37.214,13.716,31.404,22.644,4.988,6.96,6.837
1718,0.741,37.059,13.701,31.414,22.648,4.947,6.96,6.919
1719,0.741,37.204,13.713,31.414,22.641,4.988,6.919,7.042
1720,0.741,37.32,13.713,31.424,22.644,4.947,6.919,6.96
1721,0.738,37.349,13.673,31.424,22.644,4.988,6.877,7.042
1722,0.741,36.991,13.705,31.424,22.637,4.865,6.877,7.083
1723,0.721,37.117,13.732,31.404,22.641,4.906,6.877,7.124
1724,0.734,37.214,13.709,31.395,22.641,4.824,6.877,7.165
1725,0.747,37.117,13.701,31.385,22.634,4.824,6.837,7.206
1726,0.741,37.039,13.713,31.385,22.634,4.824,6.795,7.288
1727,0.751,37.165,13.689,31.395,22.637,4.783,6.837,7.288
1728,0.754,37.272,13.685,31.385,22.641,4.783,6.837,7.329
1729,0.757,36.826,13.697,31.395,22.634,4.865,6.837,7.329
1730,0.764,36.904,13.677,31.395,22.641,4.783,6.837,7.329
1731,0.751,37.039,13.724,31.385,22.63,4.824,6.795,7.37
1732,0.754,37.136,13.697,31.385,22.637,4.824,6.795,7.247
1733,0.761,36.874,13.744,31.385,22.641,4.865,6.754,7.288
1734,0.754,37.02,13.638,31.395,22.637,4.865,6.795,7.329
1735,0.734,37.155,13.665,31.395,22.634,4.906,6.795,7.37
1736,0.744,37.214,13.72,31.385,22.634,4.824,6.877,7.288
1737,0.724,36.845,13.713,31.385,22.637,4.783,6.754,7.37
1738,0.718,36.991,13.677,31.385,22.634,4.824,6.754,7.288
1739,0.721,37.117,13.689,31.385,22.637,4.865,6.795,7.37
1740,0.728,37.184,13.689,31.395,22.634,4.824,6.713,7.411
1741,0.705,36.865,13.685,31.414,22.634,4.865,6.713,7.37
1742,0.718,37.02,13.713,31.395,22.637,4.824,6.795,7.37
1743,0.711,37.146,13.724,31.404,22.637,4.865,6.795,7.329
1744,0.718,37.214,13.634,31.385,22.637,4.824,6.713,7.329
1745,0.734,36.826,13.705,31.385,22.634,4.783,6.713,7.329
1746,0.734,36.933,13.72,31.375,22.634,4.824,6.672,7.329
1747,0.747,37.078,13.724,31.404,22.634,4.824,6.754,7.288
1748,0.747,37.126,13.716,31.385,22.641,4.824,6.754,7.37
1749,0.754,36.865,13.689,31.395,22.641,4.865,6.754,7.288
1750,0.751,36.991,13.716,31.395,22.634,4.865,6.754,7.329
1751,0.754,37.107,13.586,31.395,22.637,4.783,6.795,7.329
1752,0.754,37.136,13.689,31.395,22.634,4.865,6.754,7.206
1753,0.757,36.768,13.716,31.375,22.641,4.865,6.713,7.247
1754,0.747,36.933,13.649,31.395,22.634,4.865,6.672,7.288
1755,0.728,37.039,13.697,31.395,22.641,4.865,6.672,7.247
1756,0.734,36.904,13.701,31.395,22.637,4.824,6.795,7.206
1757,0.734,36.836,13.705,31.404,22.641,4.865,6.754,7.206
1758,0.715,36.991,13.705,31.414,22.644,4.865,6.795,7.165
1759,0.711,37.097,13.701,31.395,22.641,4.906,6.754,7.206
1760,0.708,36.71,13.713,31.385,22.634,4.824,6.754,7.165
1761,0.688,36.826,13.689,31.404,22.641,4.906,6.795,7.165
1762,0.711,36.962,13.693,31.404,22.637,4.947,6.754,7.165
1763,0.708,37.029,13.744,31.395,22.641,4.906,6.713,7.165
1764,0.715,36.71,13.677,31.404,22.641,4.865,6.713,7.083
1765,0.731,36.845,13.681,31.395,22.634,4.906,6.672,7.042
1766,0.724,36.962,13.697,31.395,22.648,4.906,6.672,7.042
1767,0.734,37.059,13.713,31.404,22.637,4.865,6.672,7.042
1768,0.728,36.768,13.705,31.395,22.641,4.824,6.549,6.96
1769,0.734,36.894,13.697,31.404,22.627,4.865,6.549,6.877
1770,0.734,37.049,13.701,31.395,22.641,4.701,6.631,6.919
1771,0.744,37.107,13.697,31.395,22.63,4.824,6.426,6.877
1772,0.747,36.623,13.681,31.385,22.627,4.701,6.426,6.795
1773,0.751,36.768,13.716,31.366,22.627,4.701,6.508,6.837
1774,0.731,36.894,13.614,31.385,22.623,4.701,6.508,6.754
1775,0.721,36.962,13.669,31.356,22.634,4.701,6.467,6.795
1776,0.728,36.787,13.72,31.356,22.623,4.742,6.426,6.713
1777,0.721,36.952,13.697,31.356,22.623,4.742,6.467,6.795
1778,0.711,37.049,13.701,31.346,22.623,4.742,6.508,6.837
1779,0.701,37.107,13.705,31.366,22.623,4.701,6.59,6.754
1780,0.695,36.69,13.697,31.356,22.62,4.701,6.508,6.754
1781,0.695,36.836,13.681,31.404,22.627,4.742,6.549,6.795
1782,0.682,36.942,13.689,31.375,22.63,4.783,6.549,6.837
1783,0.688,36.933,13.74,31.356,22.63,4.783,6.59,6.713
1784,0.685,36.749,13.677,31.395,22.637,4.824,6.672,6.713
1785,0.695,36.874,13.685,31.375,22.634,4.824,6.631,6.754
1786,0.705,36.971,13.697,31.385,22.627,4.865,6.59,6.713
1787,0.711,36.855,13.716,31.385,22.634,4.824,6.672,6.795
1788,0.724,36.807,13.716,31.404,22.637,4.865,6.631,6.837
1789,0.724,36.942,13.693,31.395,22.634,4.865,6.631,6.754
1790,0.724,37.059,13.713,31.385,22.634,4.824,6.631,6.795
1791,0.738,36.555,13.673,31.385,22.634,4.947,6.631,6.713
1792,0.728,36.642,13.673,31.395,22.637,4.783,6.631,6.795
1793,0.734,36.758,13.74,31.366,22.641,4.865,6.631,6.795
1794,0.728,36.855,13.709,31.424,22.637,4.824,6.631,6.754
1795,0.711,36.807,13.705,31.385,22.634,4.783,6.631,6.713
1796,0.711,36.923,13.744,31.375,22.634,4.824,6.631,6.795
1797,0.705,37.049,13.736,31.395,22.634,4.824,6.631,6.754
1798,0.698,37.126,13.697,31.385,22.634,4.824,6.631,6.795
1799,0.695,36.613,13.693,31.375,22.634,4.824,6.631,6.713
1800,0.692,36.787,13.72,31.385,22.63,4.865,6.672,6.837
1801,0.682,36.923,13.685,31.453,22.634,4.824,6.59,6.795
1802,0.688,36.991,13.689,31.385,22.637,4.783,6.713,6.837
1803,0.685,36.71,13.744,31.385,22.634,4.783,6.631,6.795
1804,0.682,36.855,13.618,31.395,22.634,4.824,6.59,6.795
1805,0.705,36.991,13.693,31.385,22.634,4.824,6.631,6.795
1806,0.701,37.039,13.716,31.385,22.63,4.742,6.631,6.795
1807,0.708,36.797,13.716,31.375,22.63,4.824,6.631,6.713
1808,0.715,36.923,13.693,31.385,22.63,4.783,6.549,6.837
1809,0.718,37.059,13.677,31.366,22.63,4.783,6.631,6.754
1810,0.715,37.097,13.673,31.385,22.63,4.865,6.549,6.795
1811,0.711,36.72,13.653,31.366,22.63,4.742,6.549,6.672
1812,0.721,36.874,13.681,31.366,22.63,4.742,6.549,6.754
1813,0.724,36.991,13.728,31.366,22.637,4.742,6.59,6.713
1814,0.724,37.0,13.63,31.375,22.627,4.824,6.549,6.754
1815,0.701,36.816,13.693,31.375,22.627,4.824,6.59,6.754
1816,0.698,36.933,13.72,31.375,22.63,4.783,6.631,6.754
1817,0.695,37.068,13.705,31.385,22.634,4.824,6.631,6.795
1818,0.695,36.797,13.701,31.375,22.634,4.824,6.631,6.795
1819,0.682,36.71,13.693,31.375,22.644,4.783,6.713,6.795
1820,0.695,36.845,13.713,31.404,22.637,4.906,6.713,6.754
1821,0.688,36.962,13.681,31.414,22.648,4.947,6.713,6.919
1822,0.688,36.807,13.665,31.414,22.637,4.906,6.672,6.795
1823,0.682,36.942,13.709,31.404,22.648,4.906,6.631,6.795
1824,0.682,37.078,13.669,31.414,22.648,4.906,6.713,6.795
1825,0.711,37.165,13.701,31.424,22.648,4.865,6.672,6.795
1826,0.708,36.671,13.752,31.424,22.648,4.906,6.713,6.837
1827,0.718,36.807,13.732,31.434,22.648,4.906,6.713,6.713
1828,0.721,36.942,13.732,31.434,22.651,4.988,6.631,6.795
1829,0.728,37.049,13.701,31.434,22.648,4.906,6.631,6.754
1830,0.734,36.671,13.728,31.443,22.644,4.906,6.672,6.713
1831,0.744,36.826,13.669,31.414,22.644,4.947,6.549,6.754
1832,0.747,36.942,13.681,31.424,22.641,4.824,6.549,6.837
1833,0.741,37.02,13.756,31.414,22.641,4.906,6.549,6.713
1834,0.721,36.729,13.638,31.414,22.641,4.865,6.59,6.837
1835,0.715,36.865,13.685,31.395,22.637,4.824,6.508,6.877
1836,0.718,36.981,13.697,31.404,22.63,4.865,6.549,6.919
1837,0.701,37.039,13.728,31.385,22.63,4.824,6.631,6.96
1838,0.698,36.652,13.724,31.385,22.634,4.824,6.549,7.001
1839,0.688,36.797,13.728,31.385,22.634,4.783,6.59,6.96
1840,0.695,36.913,13.709,31.404,22.637,4.783,6.631,6.96
1841,0.675,36.952,13.716,31.414,22.634,4.783,6.549,7.083
1842,0.685,36.865,13.665,31.395,22.641,4.824,6.631,7.042
1843,0.682,37.01,13.709,31.395,22.634,4.824,6.631,7.083
1844,0.692,37.107,13.63,31.424,22.634,4.824,6.59,7.001
1845,0.701,37.126,13.657,31.395,22.634,4.865,6.631,7.083
1846,0.701,36.671,13.697,31.385,22.634,4.824,6.631,7.083
1847,0.708,36.787,13.697,31.395,22.641,4.865,6.59,7.083
1848,0.711,36.913,13.685,31.395,22.641,4.783,6.631,7.042
1849,0.711,36.778,13.697,31.395,22.63,4.783,6.549,7.083
1850,0.721,36.749,13.693,31.385,22.637,4.783,6.672,7.083
1851,0.734,36.884,13.713,31.385,22.634,4.824,6.631,7.042
1852,0.724,36.991,13.689,31.385,22.641,4.824,6.672,7.083
1853,0.721,36.642,13.72,31.395,22.634,4.865,6.631,7.001
1854,0.705,36.749,13.701,31.404,22.637,4.824,6.713,6.96
1855,0.701,36.904,13.649,31.395,22.637,4.865,6.631,7.083
1856,0.705,36.981,13.724,31.375,22.63,4.824,6.713,7.001
1857,0.688,36.758,13.709,31.395,22.634,4.906,6.713,7.042
1858,0.688,36.904,13.701,31.395,22.634,4.824,6.713,7.042
1859,0.685,37.02,13.728,31.395,22.637,4.824,6.713,7.042
1860,0.672,37.117,13.697,31.395,22.637,4.865,6.795,7.001
1861,0.662,36.69,13.72,31.434,22.637,4.906,6.754,7.001
1862,0.672,36.845,13.701,31.404,22.634,4.824,6.754,7.083
1863,0.672,36.952,13.736,31.404,22.637,4.783,6.672,7.042
1864,0.662,37.029,13.716,31.404,22.641,4.742,6.795,6.96
1865,0.685,36.671,13.689,31.404,22.637,4.906,6.713,7.042
1866,0.695,36.807,13.716,31.404,22.641,4.865,6.795,7.042
1867,0.705,36.923,13.669,31.414,22.634,4.824,6.713,7.042
1868,0.701,36.981,13.689,31.404,22.637,4.824,6.754,6.96
1869,0.715,36.574,13.701,31.424,22.641,4.824,6.754,7.001
1870,0.708,36.739,13.693,31.414,22.641,4.824,6.754,7.001
1871,0.701,36.845,13.618,31.404,22.634,4.783,6.672,6.877
1872,0.721,36.894,13.689,31.385,22.634,4.783,6.713,6.919
1873,0.718,36.739,13.736,31.395,22.63,4.783,6.713,6.877
1874,0.711,36.884,13.677,31.395,22.637,4.742,6.59,6.837
1875,0.701,37.0,13.681,31.395,22.63,4.742,6.631,6.837
1876,0.698,37.0,13.72,31.385,22.63,4.742,6.59,6.877
1877,0.678,36.652,13.709,31.375,22.627,4.742,6.631,6.837
1878,0.675,36.758,13.677,31.375,22.627,4.701,6.59,6.837
1879,0.672,36.874,13.697,31.366,22.63,4.701,6.549,6.877
1880,0.675,36.758,13.697,31.356,22.627,4.66,6.508,6.919
1881,0.662,36.758,13.681,31.424,22.627,4.619,6.59,6.96
1882,0.662,36.904,13.677,31.366,22.627,4.66,6.549,6.96
1883,0.655,36.962,13.697,31.356,22.63,4.66,6.549,6.96
1884,0.642,36.613,13.661,31.385,22.627,4.701,6.631,6.96
1885,0.662,36.72,13.673,31.366,22.627,4.701,6.631,7.042
1886,0.682,36.865,13.709,31.366,22.63,4.742,6.672,7.042
1887,0.685,36.942,13.685,31.356,22.637,4.701,6.631,7.042
1888,0.695,36.468,13.693,31.385,22.63,4.742,6.631,7.042
1889,0.708,36.613,13.701,31.404,22.637,4.783,6.631,7.001
1890,0.708,36.758,13.689,31.385,22.634,4.824,6.549,7.001
1891,0.718,36.845,13.701,31.395,22.637,4.742,6.631,7.001
1892,0.705,36.642,13.693,31.385,22.637,4.824,6.631,7.001
1893,0.715,36.787,13.724,31.385,22.634,4.742,6.631,6.96
1894,0.701,36.923,13.728,31.434,22.637,4.783,6.631,6.96
1895,0.692,36.981,13.693,31.395,22.634,4.824,6.631,6.96
1896,0.692,36.855,13.716,31.395,22.63,4.783,6.59,6.96
1897,0.692,37.01,13.716,31.404,22.641,4.824,6.59,6.877
1898,0.688,37.136,13.693,31.395,22.627,4.783,6.549,6.919
1899,0.692,37.194,13.701,31.395,22.637,4.701,6.672,6.837
1900,0.675,36.458,13.705,31.385,22.634,4.701,6.549,6.795
1901,0.665,36.632,13.693,31.424,22.634,4.742,6.631,6.837
1902,0.672,36.729,13.673,31.404,22.637,4.783,6.549,6.919
1903,0.672,36.758,13.701,31.385,22.63,4.742,6.508,6.837
1904,0.665,36.661,13.598,31.395,22.634,4.742,6.549,6.837
1905,0.688,36.797,13.673,31.385,22.63,4.783,6.467,6.837
1906,0.695,36.923,13.709,31.375,22.634,4.783,6.549,6.754
1907,0.695,36.991,13.724,31.395,22.63,4.742,6.508,6.877
1908,0.692,36.497,13.693,31.395,22.627,4.742,6.59,6.837
1909,0.695,36.623,13.701,31.385,22.634,4.783,6.508,6.713
1910,0.698,36.758,13.709,31.395,22.63,4.742,6.549,6.795
1911,0.698,36.69,13.638,31.395,22.634,4.783,6.508,6.713
1912,0.711,36.7,13.677,31.385,22.627,4.783,6.549,6.713
1913,0.711,36.836,13.713,31.385,22.63,4.701,6.467,6.713
1914,0.698,36.942,13.649,31.385,22.637,4.701,6.508,6.672
1915,0.685,36.322,13.653,31.385,22.634,4.783,6.508,6.754
1916,0.685,36.4,13.705,31.366,22.63,4.701,6.549,6.754
1917,0.685,36.535,13.716,31.395,22.634,4.783,6.549,6.713
1918,0.682,36.652,13.681,31.395,22.637,4.824,6.631,6.754
1919,0.685,36.526,13.716,31.404,22.641,4.783,6.672,6.754
1920,0.678,36.681,13.697,31.385,22.644,4.906,6.631,6.754
1921,0.669,36.797,13.638,31.404,22.641,4.947,6.713,6.795
1922,0.665,36.894,13.677,31.414,22.641,4.947,6.754,6.754
1923,0.669,36.574,13.72,31.424,22.641,4.865,6.754,6.795
1924,0.678,36.729,13.673,31.424,22.651,4.906,6.795,6.754
1925,0.688,36.855,13.685,31.424,22.644,4.988,6.837,6.754
1926,0.705,36.923,13.701,31.414,22.648,4.988,6.713,6.754
1927,0.708,36.448,13.697,31.424,22.648,4.906,6.754,6.713
1928,0.715,36.594,13.673,31.424,22.644,5.03,6.754,6.713
1929,0.724,36.739,13.705,31.424,22.655,4.988,6.795,6.631
1930,0.721,36.797,13.728,31.453,22.651,4.988,6.754,6.672
1931,0.728,36.516,13.567,31.434,22.644,4.947,6.795,6.59
1932,0.721,36.681,13.716,31.434,22.641,4.947,6.795,6.549
1933,0.724,36.787,13.736,31.414,22.648,4.988,6.754,6.549
1934,0.715,36.836,13.697,31.424,22.641,4.906,6.754,6.508
1935,0.711,36.477,13.697,31.424,22.644,4.947,6.672,6.508
1936,0.698,36.613,13.681,31.414,22.637,4.824,6.713,6.467
1937,0.695,36.71,13.697,31.395,22.634,4.865,6.713,6.508
1938,0.698,36.923,13.705,31.404,22.637,4.865,6.754,6.467
1939,0.692,36.535,13.685,31.404,22.634,4.865,6.795,6.549
1940,0.675,36.642,13.713,31.385,22.641,4.824,6.795,6.426
1941,0.669,36.768,13.669,31.395,22.637,4.865,6.837,6.508
1942,0.675,36.477,13.697,31.385,22.63,4.742,6.837,6.467
1943,0.682,36.429,13.716,31.395,22.634,4.865,6.877,6.467
1944,0.682,36.565,13.665,31.395,22.634,4.742,6.795,6.549
1945,0.678,36.661,13.697,31.385,22.641,4.865,6.877,6.467
1946,0.685,36.361,13.697,31.385,22.637,4.865,6.877,6.508
1947,0.692,36.439,13.697,31.404,22.637,4.865,6.877,6.426
1948,0.715,36.574,13.661,31.395,22.634,4.742,6.919,6.426
1949,0.698,36.671,13.693,31.395,22.634,4.865,6.877,6.426
1950,0.708,36.419,13.693,31.385,22.634,4.865,6.877,6.426
1951,0.701,36.545,13.649,31.395,22.634,4.865,6.837,6.385
1952,0.718,36.69,13.697,31.404,22.641,4.906,6.877,6.385
1953,0.721,36.749,13.748,31.395,22.634,4.824,6.96,6.426
1954,0.711,36.255,13.645,31.395,22.637,4.906,6.877,6.343
1955,0.692,36.419,13.705,31.414,22.637,4.865,6.877,6.385
1956,0.698,36.555,13.72,31.414,22.634,4.824,6.877,6.426
1957,0.698,36.603,13.697,31.404,22.637,4.865,6.877,6.302
1958,0.682,36.4,13.693,31.395,22.634,4.824,6.837,6.426
1959,0.678,36.535,13.689,31.395,22.641,4.824,6.919,6.343
1960,0.678,36.661,13.705,31.404,22.637,4.824,6.795,6.343
1961,0.662,36.7,13.634,31.404,22.634,4.824,6.837,6.467
1962,0.665,36.264,13.681,31.404,22.634,4.824,6.795,6.426
1963,0.665,36.39,13.756,31.395,22.634,4.906,6.837,6.385
1964,0.682,36.497,13.661,31.404,22.634,4.906,6.877,6.385
1965,0.692,36.545,13.716,31.395,22.637,4.865,6.837,6.385
1966,0.692,36.255,13.673,31.414,22.637,4.824,6.837,6.385
1967,0.688,36.39,13.681,31.424,22.634,4.906,6.837,6.385
1968,0.698,36.497,13.701,31.404,22.637,4.865,6.837,6.426
1969,0.698,36.826,13.689,31.404,22.634,4.906,6.837,6.302
1970,0.721,36.332,13.713,31.424,22.637,4.906,6.837,6.385
1971,0.721,36.477,13.716,31.453,22.637,4.824,6.837,6.343
1972,0.721,36.584,13.693,31.404,22.634,4.824,6.795,6.426
1973,0.721,36.255,13.756,31.404,22.641,4.824,6.877,6.426
1974,0.708,36.245,13.59,31.404,22.641,4.865,6.877,6.385
1975,0.698,36.39,13.677,31.404,22.634,4.906,6.837,6.385
1976,0.698,36.497,13.732,31.404,22.644,4.906,6.837,6.467
1977,0.685,36.322,13.705,31.395,22.641,4.865,6.877,6.343
1978,0.678,36.439,13.709,31.395,22.637,4.865,6.919,6.508
1979,0.682,36.574,13.705,31.385,22.637,4.865,6.877,6.508
1980,0.682,36.671,13.709,31.414,22.637,4.947,6.919,6.508
1981,0.672,36.09,13.713,31.414,22.644,4.824,6.877,6.549
1982,0.662,36.245,13.669,31.404,22.634,4.906,6.877,6.549
1983,0.662,36.361,13.724,31.404,22.637,4.906,6.837,6.631
1984,0.665,36.448,13.618,31.424,22.641,4.906,6.877,6.631
1985,0.685,36.206,13.669,31.395,22.641,4.824,6.877,6.713
1986,0.695,36.351,13.736,31.404,22.637,4.824,6.837,6.672
1987,0.695,36.477,13.709,31.395,22.637,4.824,6.795,6.713
1988,0.715,36.545,13.72,31.395,22.637,4.824,6.754,6.713
1989,0.724,36.148,13.705,31.385,22.634,4.742,6.754,6.754
1990,0.728,36.313,13.709,31.385,22.634,4.783,6.672,6.795
1991,0.738,36.448,13.689,31.375,22.63,4.742,6.713,6.754
1992,0.731,36.477,13.681,31.385,22.63,4.824,6.754,6.795
1993,0.747,36.129,13.709,31.375,22.627,4.701,6.672,6.795
1994,0.734,36.284,13.685,31.375,22.623,4.742,6.59,6.795
1995,0.728,36.41,13.677,31.356,22.627,4.701,6.672,6.919
1996,0.741,36.419,13.713,31.356,22.627,4.66,6.713,6.919
1997,0.731,36.109,13.685,31.375,22.623,4.66,6.672,6.877
1998,0.731,36.245,13.685,31.375,22.63,4.701,6.754,6.919
1999,0.734,36.351,13.677,31.356,22.627,4.783,6.754,6.96
2000,0.738,36.729,13.665,31.366,22.63,4.742,6.795,7.001
2001,0.721,36.226,13.677,31.453,22.63,4.783,6.754,7.042
2002,0.738,36.381,13.665,31.424,22.637,4.824,6.754,7.124
2003,0.754,36.506,13.744,31.404,22.634,4.865,6.754,7.165
2004,0.754,36.284,13.653,31.404,22.634,4.824,6.795,7.124
2005,0.79,36.293,13.665,31.385,22.634,4.865,6.795,7.165
2006,0.803,36.41,13.709,31.404,22.634,4.824,6.837,7.165
2007,0.813,36.506,13.689,31.424,22.63,4.865,6.754,7.206
2008,0.813,36.061,13.72,31.395,22.634,4.824,6.754,7.288
2009,0.803,36.158,13.685,31.385,22.627,4.865,6.795,7.288
2010,0.813,36.284,13.693,31.395,22.634,4.824,6.837,7.329
2011,0.826,36.4,13.59,31.395,22.637,4.824,6.795,7.411
2012,0.839,36.071,13.677,31.395,22.634,4.824,6.837,7.37
2013,0.839,36.206,13.756,31.375,22.634,4.865,6.837,7.411
2014,0.826,36.361,13.606,31.395,22.63,4.824,6.837,7.411
2015,0.81,36.448,13.665,31.385,22.634,4.865,6.713,7.329
2016,0.807,36.071,13.713,31.404,22.634,4.824,6.837,7.37
2017,0.833,36.226,13.685,31.404,22.63,4.865,6.837,7.452
2018,0.826,36.342,13.705,31.385,22.641,4.824,6.795,7.494
2019,0.833,36.4,13.685,31.385,22.63,4.824,6.754,7.452
2020,0.83,36.167,13.685,31.375,22.634,4.906,6.754,7.37
2021,0.82,36.303,13.638,31.385,22.637,4.865,6.837,7.411
2022,0.826,36.448,13.653,31.395,22.627,4.824,6.754,7.452
2023,0.83,36.468,13.736,31.385,22.63,4.783,6.754,7.494
2024,0.839,36.003,13.657,31.385,22.63,4.824,6.795,7.452
2025,0.866,36.148,13.677,31.385,22.634,4.783,6.713,7.494
2026,0.882,36.284,13.697,31.385,22.63,4.824,6.754,7.411
2027,0.902,36.303,13.693,31.375,22.634,4.824,6.754,7.37
2028,0.902,36.177,13.697,31.366,22.63,4.824,6.672,7.411
2029,0.912,36.322,13.673,31.385,22.63,4.865,6.795,7.37
2030,0.918,36.458,13.693,31.385,22.63,4.783,6.754,7.494
2031,0.928,36.787,13.705,31.366,22.627,4.783,6.672,7.411
2032,0.931,35.974,13.665,31.375,22.63,4.865,6.795,7.37
2033,0.925,36.1,13.697,31.385,22.63,4.742,6.754,7.329
2034,0.885,36.206,13.701,31.404,22.63,4.742,6.754,7.411
2035,0.885,36.167,13.685,31.395,22.627,4.865,6.795,7.411
2036,0.872,36.226,13.728,31.395,22.63,4.906,6.754,7.452
2037,0.853,36.361,13.673,31.385,22.634,4.906,6.795,7.37
2038,0.846,36.439,13.689,31.385,22.627,4.865,6.837,7.37
2039,0.833,36.032,13.697,31.395,22.641,4.865,6.837,7.452
2040,0.836,36.129,13.673,31.385,22.644,4.947,6.877,7.452
2041,0.83,36.274,13.634,31.414,22.641,4.947,6.919,7.494
2042,0.83,36.361,13.677,31.424,22.634,4.947,6.877,7.494
2043,0.826,36.003,13.728,31.414,22.641,4.906,6.877,7.494
2044,0.833,36.129,13.669,31.414,22.644,4.988,6.877,7.452
2045,0.853,36.284,13.685,31.404,22.644,4.988,6.877,7.494
2046,0.843,36.361,13.744,31.424,22.641,4.988,6.877,7.452
2047,0.853,36.012,13.713,31.424,22.651,5.03,6.877,7.494
2048,0.856,36.158,13.72,31.434,22.648,4.988,6.877,7.452
2049,0.849,36.303,13.716,31.443,22.655,5.07,6.837,7.411
2050,0.849,36.351,13.709,31.434,22.648,4.988,6.837,7.288
2051,0.849,36.129,13.724,31.424,22.644,4.988,6.795,7.37
2052,0.849,36.274,13.685,31.434,22.641,4.906,6.713,7.247
2053,0.853,36.371,13.724,31.424,22.641,4.947,6.754,7.247
2054,0.833,36.458,13.716,31.492,22.648,4.906,6.754,7.288
2055,0.826,36.051,13.685,31.395,22.634,4.824,6.713,7.206
2056,0.803,36.177,13.748,31.404,22.641,4.865,6.713,7.165
2057,0.784,36.293,13.716,31.395,22.634,4.865,6.672,7.206
2058,0.784,36.361,13.713,31.385,22.637,4.906,6.631,7.165
2059,0.77,36.071,13.716,31.385,22.637,4.865,6.713,7.083
2060,0.767,36.206,13.685,31.385,22.641,4.824,6.713,7.165
2061,0.757,36.332,13.685,31.443,22.641,4.906,6.672,7.165
2062,0.757,36.69,13.649,31.404,22.641,4.865,6.672,7.165
2063,0.751,36.051,13.724,31.385,22.634,4.824,6.672,7.165
2064,0.747,36.216,13.681,31.404,22.637,4.865,6.754,7.124
2065,0.757,36.322,13.661,31.395,22.63,4.824,6.672,7.001
2066,0.747,36.042,13.736,31.385,22.634,4.824,6.672,7.042
2067,0.754,36.042,13.728,31.414,22.637,4.824,6.631,7.042
2068,0.757,36.167,13.705,31.385,22.63,4.865,6.672,6.96
2069,0.761,36.284,13.716,31.424,22.637,4.783,6.672,7.124
2070,0.738,36.022,13.697,31.395,22.641,4.865,6.713,7.124
2071,0.744,36.119,13.701,31.395,22.637,4.824,6.631,7.042
2072,0.741,36.264,13.677,31.395,22.637,4.865,6.631,7.083
2073,0.734,36.351,13.716,31.385,22.634,4.824,6.672,7.042
2074,0.708,35.954,13.709,31.385,22.637,4.783,6.672,7.124
2075,0.708,36.1,13.665,31.385,22.637,4.865,6.672,7.165
2076,0.708,36.235,13.701,31.404,22.637,4.865,6.631,7.206
2077,0.695,36.313,13.677,31.404,22.641,4.824,6.631,7.206
2078,0.688,36.003,13.701,31.395,22.637,4.783,6.631,7.206
2079,0.685,36.148,13.713,31.395,22.637,4.906,6.631,7.206
2080,0.682,36.274,13.665,31.395,22.641,4.865,6.631,7.247
2081,0.672,36.381,13.693,31.414,22.634,4.824,6.631,7.288
2082,0.672,35.954,13.693,31.404,22.637,4.824,6.672,7.206
2083,0.652,36.09,13.728,31.404,22.637,4.906,6.672,7.247
2084,0.655,36.216,13.732,31.463,22.637,4.824,6.631,7.288
2085,0.669,36.264,13.669,31.404,22.634,4.824,6.631,7.206
2086,0.669,36.09,13.724,31.404,22.637,4.824,6.631,7.247
2087,0.672,36.216,13.713,31.395,22.634,4.824,6.672,7.288
2088,0.672,36.361,13.709,31.414,22.644,4.824,6.713,7.37
2089,0.685,36.4,13.724,31.404,22.63,4.906,6.754,7.37
2090,0.688,35.935,13.701,31.404,22.641,4.824,6.713,7.452
2091,0.688,36.1,13.705,31.395,22.637,4.906,6.713,7.411
2092,0.688,36.216,13.689,31.404,22.634,4.783,6.672,7.452
2093,0.692,36.545,13.713,31.404,22.641,4.783,6.631,7.494
2094,0.685,36.051,13.709,31.404,22.637,4.906,6.672,7.575
2095,0.675,36.167,13.689,31.385,22.634,4.865,6.59,7.575
2096,0.672,36.274,13.74,31.404,22.644,4.865,6.713,7.534
2097,0.655,36.08,13.685,31.404,22.641,4.906,6.672,7.575
2098,0.652,36.09,13.709,31.404,22.644,4.783,6.713,7.534
2099,0.649,36.226,13.716,31.395,22.641,4.824,6.59,7.575
2100,0.642,36.342,13.693,31.395,22.627,4.742,6.549,7.452
2101,0.636,36.022,13.701,31.404,22.634,4.783,6.508,7.452
2102,0.629,36.138,13.677,31.404,22.63,4.66,6.59,7.411
2103,0.623,36.245,13.716,31.375,22.627,4.701,6.549,7.452
2104,0.636,36.361,13.685,31.366,22.62,4.66,6.549,7.452
2105,0.652,35.838,13.669,31.366,22.623,4.742,6.631,7.494
2106,0.655,35.974,13.732,31.375,22.63,4.66,6.631,7.452
2107,0.659,36.09,13.697,31.366,22.627,4.742,6.549,7.494
2108,0.659,36.167,13.693,31.356,22.623,4.783,6.59,7.452
2109,0.659,35.925,13.673,31.375,22.63,4.742,6.631,7.452
2110,0.669,36.071,13.685,31.375,22.634,4.824,6.672,7.37
2111,0.662,36.216,13.713,31.453,22.637,4.783,6.672,7.411
2112,0.675,36.293,13.661,31.385,22.637,4.742,6.631,7.329
2113,0.669,35.906,13.724,31.385,22.634,4.783,6.631,7.329
2114,0.655,36.071,13.653,31.414,22.637,4.824,6.59,7.288
2115,0.655,36.187,13.677,31.395,22.634,4.824,6.59,7.329
2116,0.652,36.245,13.724,31.385,22.63,4.783,6.672,7.288
2117,0.642,36.012,13.728,31.395,22.637,4.742,6.672,7.288
2118,0.649,36.148,13.701,31.404,22.63,4.783,6.631,7.288
2119,0.636,36.274,13.716,31.385,22.634,4.783,6.549,7.288
2120,0.639,36.322,13.705,31.385,22.627,4.701,6.631,7.206
2121,0.629,36.071,13.622,31.424,22.634,4.742,6.631,7.288
2122,0.629,36.196,13.677,31.395,22.634,4.783,6.713,7.165
2123,0.632,36.313,13.701,31.404,22.634,4.783,6.631,7.206
2124,0.639,36.565,13.665,31.395,22.63,4.865,6.59,7.124
2125,0.655,36.051,13.681,31.385,22.637,4.783,6.59,7.165
2126,0.655,36.187,13.701,31.385,22.634,4.701,6.59,7.124
2127,0.655,36.303,13.713,31.395,22.634,4.742,6.631,7.083
2128,0.659,35.983,13.681,31.385,22.634,4.742,6.59,7.124
2129,0.672,35.993,13.693,31.366,22.637,4.742,6.549,7.042
2130,0.675,36.138,13.705,31.385,22.63,4.783,6.59,6.96
2131,0.665,36.235,13.642,31.385,22.63,4.742,6.549,6.96
2132,0.682,35.925,13.661,31.375,22.634,4.783,6.549,7.001
2133,0.688,36.042,13.693,31.385,22.634,4.701,6.549,6.919
2134,0.675,36.177,13.638,31.395,22.634,4.742,6.59,6.919
2135,0.672,36.264,13.693,31.385,22.63,4.742,6.59,6.919
2136,0.665,35.945,13.693,31.366,22.627,4.742,6.508,6.877
2137,0.659,36.09,13.72,31.385,22.627,4.783,6.549,6.877
2138,0.659,36.216,13.701,31.366,22.623,4.742,6.508,6.877
2139,0.652,36.293,13.705,31.385,22.627,4.783,6.508,6.877
2140,0.649,35.974,13.705,31.404,22.63,4.66,6.549,6.919
2141,0.642,36.109,13.653,31.395,22.63,4.783,6.549,6.837
2142,0.642,36.235,13.681,31.385,22.63,4.742,6.59,6.837
2143,0.642,36.293,13.709,31.385,22.634,4.742,6.549,6.837
2144,0.649,35.916,13.634,31.375,22.634,4.783,6.549,6.837
2145,0.652,36.08,13.649,31.385,22.637,4.742,6.549,6.877
2146,0.646,36.187,13.665,31.385,22.634,4.783,6.508,6.877
2147,0.642,36.255,13.677,31.395,22.637,4.865,6.672,6.837
