time,ecg,bvp,gsr,rsp,skt,emg_zygo,emg_coru,emg_trap
0,0.754,36.44,23.983,32.799,31.952,4.824,6.057,6.796
1,0.748,36.573,23.998,32.817,31.945,4.824,6.137,6.795
2,0.751,36.699,24.014,32.808,31.949,4.824,6.138,6.795
3,0.735,36.729,23.975,32.827,31.956,4.905,6.219,6.958
4,0.734,36.25,23.975,32.827,31.966,4.987,6.302,7.0
5,0.76,36.418,24.002,32.866,31.973,4.988,6.343,6.96
6,0.767,36.525,24.03,32.837,31.966,4.866,6.221,6.919
7,0.767,36.583,24.026,32.818,31.952,4.906,6.22,6.919
8,0.767,36.239,23.944,32.818,31.952,4.906,6.22,6.919
9,0.764,36.427,23.963,32.837,31.956,4.906,6.18,6.919
10,0.777,36.525,23.951,32.818,31.959,4.865,6.139,6.959
11,0.784,36.257,23.967,32.808,31.959,4.946,6.219,7.0
12,0.784,36.322,24.022,32.827,31.959,4.907,6.139,7.001
13,0.78,36.447,23.948,32.818,31.959,4.947,6.26,6.96
14,0.78,36.573,23.986,32.818,31.952,4.907,6.18,7.041
15,0.777,36.114,24.026,32.818,31.959,4.865,6.179,6.96
16,0.758,36.224,24.042,32.808,31.956,4.865,6.139,6.96
17,0.767,36.35,24.019,32.789,31.945,4.784,6.016,6.797
18,0.757,36.438,23.956,32.827,31.942,4.824,6.137,6.917
19,0.735,36.093,23.983,32.789,31.952,4.824,6.219,7.0
20,0.747,36.263,23.932,32.817,31.956,4.946,6.22,6.919
21,0.754,36.427,23.99,32.798,31.963,4.866,6.18,7.0
22,0.735,36.487,24.03,32.808,31.959,4.865,6.179,6.919
23,0.744,36.142,23.937,32.808,31.956,4.865,6.261,6.959
24,0.751,36.292,23.959,32.798,31.952,4.824,6.18,6.96
25,0.744,36.418,23.963,32.798,31.952,4.783,6.098,6.96
26,0.751,36.477,24.01,32.789,31.956,4.742,6.138,6.919
27,0.751,36.084,23.999,32.798,31.952,4.742,6.219,6.959
28,0.754,36.243,23.835,32.817,31.952,4.864,6.261,7.041
29,0.767,36.398,23.946,32.818,31.966,4.946,6.343,7.082
30,0.78,36.457,23.916,32.846,31.966,5.029,6.303,7.123
31,0.784,36.19,23.994,32.828,31.963,4.907,6.343,7.002
32,0.777,36.311,24.034,32.818,31.956,4.865,6.262,7.001
33,0.79,36.399,23.972,32.789,31.959,4.865,6.262,7.041
34,0.78,36.448,23.967,32.798,31.963,4.865,6.302,6.96
35,0.764,36.055,24.014,32.808,31.956,4.906,6.262,7.041
36,0.754,36.205,24.038,32.808,31.959,4.906,6.262,6.96
37,0.754,36.321,24.022,32.818,31.959,4.947,6.343,7.0
38,0.751,36.14,23.991,32.818,31.966,4.907,6.303,7.041
39,0.738,36.119,23.971,32.808,31.956,4.947,6.302,7.001
40,0.741,36.244,23.936,32.818,31.959,4.947,6.302,6.96
41,0.738,36.36,23.975,32.808,31.959,4.866,6.221,6.838
42,0.744,36.045,23.998,32.779,31.945,4.784,6.18,6.837
43,0.731,36.109,23.956,32.779,31.949,4.783,6.261,6.918
44,0.731,36.282,23.983,32.817,31.952,4.864,6.302,7.0
45,0.728,36.389,23.975,32.779,31.956,4.865,6.221,7.001
46,0.751,35.834,24.065,32.798,31.959,4.865,6.22,6.96
47,0.744,35.963,24.019,32.789,31.952,4.865,6.302,7.0
48,0.744,36.098,23.913,32.769,31.952,4.824,6.302,6.96
49,0.767,36.205,23.959,32.788,31.959,4.865,6.262,6.96
50,0.767,35.918,23.92,32.798,31.956,4.784,6.262,6.919
51,0.761,36.069,23.939,32.798,31.945,4.824,6.302,7.0
52,0.767,36.176,24.01,32.779,31.952,4.783,6.262,7.082
53,0.777,36.254,23.948,32.789,31.952,4.905,6.343,7.083
54,0.771,35.957,23.986,32.789,31.963,5.028,6.466,7.123
55,0.79,36.117,24.01,32.837,31.973,4.989,6.426,7.083
56,0.767,36.253,24.034,32.818,31.97,4.948,6.344,7.002
57,0.751,36.283,24.011,32.789,31.952,4.907,6.466,7.041
58,0.748,35.996,23.983,32.808,31.959,4.825,6.345,7.042
59,0.731,36.147,23.948,32.779,31.959,4.905,6.303,7.001
60,0.738,36.263,23.943,32.779,31.959,4.865,6.343,7.082
61,0.751,36.322,23.975,32.779,31.959,4.906,6.466,7.042
62,0.757,36.016,24.014,32.779,31.956,4.906,6.507,7.042
63,0.731,36.175,23.971,32.798,31.959,4.906,6.467,7.123
64,0.738,36.283,23.979,32.789,31.956,4.947,6.467,7.124
65,0.754,36.188,24.006,32.789,31.959,4.947,6.386,7.043
66,0.77,35.861,24.061,32.769,31.952,4.825,6.385,6.96
67,0.774,35.973,24.054,32.75,31.945,4.743,6.344,6.96
68,0.754,36.098,23.933,32.759,31.952,4.864,6.384,7.041
69,0.754,35.927,23.963,32.788,31.959,4.865,6.425,7.082
70,0.757,36.031,23.916,32.769,31.956,4.906,6.466,7.002
71,0.77,36.195,23.963,32.76,31.956,4.865,6.426,6.96
72,0.754,36.264,23.994,32.76,31.952,4.906,6.426,7.0
73,0.767,35.708,23.924,32.769,31.952,4.865,6.344,6.919
74,0.761,35.808,23.971,32.769,31.952,4.824,6.466,6.878
75,0.774,35.962,23.991,32.74,31.949,4.865,6.386,6.918
76,0.754,36.06,24.018,32.75,31.952,4.824,6.344,6.919
77,0.748,35.764,24.003,32.75,31.956,4.865,6.466,6.959
78,0.764,35.933,23.999,32.807,31.956,4.946,6.507,7.041
79,0.744,36.108,24.006,32.77,31.963,5.029,6.549,7.082
80,0.754,36.176,23.96,32.788,31.966,5.07,6.59,7.083
81,0.744,35.822,23.99,32.789,31.966,4.908,6.549,6.961
82,0.76,35.953,24.018,32.76,31.952,4.906,6.508,6.919
83,0.744,36.05,23.96,32.769,31.956,4.906,6.549,6.959
84,0.747,36.138,23.979,32.788,31.952,4.906,6.508,7.0
85,0.747,35.879,23.975,32.75,31.952,4.906,6.508,6.96
86,0.754,36.03,24.041,32.788,31.959,4.947,6.467,6.96
87,0.764,36.166,24.003,32.75,31.956,4.947,6.507,6.919
88,0.754,36.206,23.925,32.769,31.952,4.988,6.508,6.959
89,0.764,35.832,23.978,32.76,31.963,4.988,6.467,6.878
90,0.78,35.963,23.948,32.779,31.959,4.988,6.548,6.918
91,0.777,36.079,23.983,32.76,31.963,4.907,6.386,6.837
92,0.777,36.138,24.022,32.74,31.949,4.825,6.385,6.755
93,0.774,35.707,23.948,32.721,31.942,4.824,6.344,6.754
94,0.761,35.846,23.951,32.721,31.952,4.905,6.384,6.795
95,0.78,35.992,24.002,32.759,31.959,4.947,6.547,6.795
96,0.764,35.782,24.022,32.75,31.949,4.907,6.427,6.795
97,0.757,35.761,23.979,32.759,31.952,4.906,6.466,6.714
98,0.767,35.952,23.846,32.769,31.952,4.865,6.426,6.754
99,0.748,36.031,23.931,32.74,31.956,4.865,6.344,6.714
100,0.741,35.591,23.928,32.731,31.952,4.906,6.343,6.713
101,0.738,35.701,23.943,32.74,31.949,4.906,6.384,6.672
102,0.754,35.827,23.99,32.731,31.945,4.906,6.344,6.713
103,0.751,35.934,23.936,32.759,31.952,4.906,6.506,6.835
104,0.738,35.59,23.963,32.769,31.963,5.069,6.589,6.918
105,0.751,35.74,24.022,32.788,31.963,5.152,6.671,6.919
106,0.767,35.885,24.054,32.769,31.966,5.031,6.591,6.837
107,0.764,35.963,24.007,32.76,31.956,4.907,6.468,6.755
108,0.761,35.705,23.975,32.788,31.956,4.947,6.507,6.795
109,0.774,35.866,23.944,32.741,31.956,4.947,6.589,6.795
110,0.767,35.992,23.975,32.817,31.949,4.988,6.468,6.795
111,0.764,36.07,23.952,32.76,31.959,5.029,6.507,6.795
112,0.774,35.562,24.029,32.74,31.963,5.07,6.63,6.836
113,0.784,35.749,23.89,32.769,31.966,5.03,6.631,6.837
114,0.78,35.885,23.962,32.75,31.956,4.989,6.55,6.837
115,0.787,35.915,24.014,32.731,31.959,4.988,6.549,6.714
116,0.774,35.599,24.022,32.759,31.956,4.907,6.508,6.632
117,0.758,35.749,23.956,32.721,31.949,4.825,6.386,6.712
118,0.761,35.876,23.963,32.711,31.945,4.905,6.507,6.794
119,0.751,35.906,23.975,32.73,31.962,5.028,6.549,6.755
120,0.748,35.637,23.975,32.75,31.952,4.907,6.63,6.754
121,0.751,35.798,23.971,32.721,31.959,4.987,6.509,6.795
122,0.754,35.895,24.045,32.721,31.949,4.948,6.508,6.755
123,0.741,35.8,23.944,32.73,31.956,4.947,6.508,6.754
124,0.744,35.608,23.971,32.731,31.949,4.907,6.467,6.714
125,0.747,35.749,24.014,32.711,31.952,4.865,6.507,6.754
126,0.754,35.876,24.034,32.73,31.952,4.906,6.467,6.673
127,0.757,35.58,23.956,32.731,31.952,4.987,6.467,6.794
128,0.748,35.663,23.94,32.759,31.966,4.988,6.629,6.836
129,0.757,35.836,23.975,32.769,31.963,5.11,6.631,6.877
130,0.767,35.944,24.014,32.817,31.963,5.071,6.59,6.715
131,0.767,35.465,23.979,32.741,31.959,4.989,6.468,6.794
132,0.754,35.566,24.01,32.74,31.959,4.988,6.426,6.836
133,0.774,35.711,23.913,32.74,31.952,4.988,6.466,6.714
134,0.767,35.808,23.963,32.74,31.959,4.907,6.467,6.754
135,0.777,35.55,24.01,32.731,31.959,4.987,6.386,6.714
136,0.774,35.691,24.026,32.731,31.959,4.988,6.425,6.794
137,0.761,35.856,23.976,32.74,31.966,4.988,6.426,6.795
138,0.767,35.925,23.975,32.75,31.959,4.988,6.466,6.795
139,0.783,35.513,23.955,32.74,31.959,4.988,6.386,6.714
140,0.761,35.662,23.873,32.759,31.956,4.948,6.344,6.632
141,0.767,35.808,23.951,32.712,31.945,4.825,6.303,6.631
142,0.735,35.828,23.998,32.702,31.945,4.783,6.262,6.672
143,0.734,35.435,23.905,32.74,31.949,4.986,6.343,6.753
144,0.744,35.594,23.959,32.74,31.956,4.907,6.303,6.673
145,0.747,35.73,23.998,32.74,31.956,4.906,6.302,6.713
146,0.767,35.77,24.042,32.711,31.956,4.865,6.302,6.672
147,0.767,35.406,23.999,32.721,31.959,4.865,6.343,6.631
148,0.757,35.556,23.983,32.75,31.956,4.906,6.303,6.672
149,0.77,35.672,23.952,32.712,31.945,4.906,6.302,6.672
150,0.764,35.999,23.975,32.797,31.952,4.784,6.343,6.631
151,0.774,35.37,23.979,32.712,31.945,4.864,6.303,6.59
152,0.771,35.507,24.006,32.721,31.956,4.906,6.343,6.712
153,0.793,35.653,23.983,32.74,31.959,5.028,6.425,6.794
154,0.8,35.491,23.963,32.74,31.97,5.03,6.466,6.795
155,0.794,35.547,24.018,32.74,31.966,4.989,6.304,6.673
156,0.787,35.663,24.014,32.731,31.956,4.948,6.343,6.672
157,0.764,35.76,23.975,32.731,31.956,4.947,6.343,6.631
158,0.764,35.3,23.998,32.74,31.956,4.988,6.343,6.631
159,0.751,35.392,23.964,32.74,31.959,4.988,6.303,6.672
160,0.744,35.546,23.948,32.731,31.959,4.948,6.425,6.753
161,0.754,35.663,23.967,32.721,31.959,4.907,6.426,6.714
162,0.761,35.472,24.018,32.721,31.956,5.028,6.344,6.754
163,0.751,35.623,23.944,32.74,31.959,4.989,6.384,6.714
164,0.748,35.778,23.971,32.721,31.963,5.029,6.344,6.754
165,0.751,35.857,23.983,32.721,31.959,4.989,6.303,6.632
166,0.757,35.205,24.022,32.702,31.949,4.826,6.221,6.55
167,0.764,35.343,23.983,32.701,31.945,4.865,6.261,6.63
168,0.764,35.507,23.928,32.721,31.952,4.906,6.302,6.672
169,0.774,35.576,23.967,32.721,31.949,4.865,6.302,6.672
170,0.767,35.385,23.975,32.73,31.952,4.946,6.343,6.713
171,0.767,35.527,23.983,32.711,31.956,4.907,6.303,6.632
172,0.774,35.643,24.014,32.702,31.949,4.865,6.221,6.672
173,0.777,35.702,23.975,32.711,31.942,4.865,6.22,6.55
174,0.767,35.223,23.967,32.692,31.952,4.865,6.22,6.59
175,0.777,35.41,23.991,32.692,31.945,4.865,6.22,6.59
176,0.761,35.537,24.01,32.682,31.952,4.987,6.261,6.712
177,0.744,35.576,23.971,32.711,31.963,4.988,6.384,6.713
178,0.754,35.385,23.994,32.75,31.963,5.07,6.425,6.835
179,0.757,35.546,23.967,32.74,31.97,5.111,6.385,6.755
180,0.751,35.672,23.924,32.721,31.956,4.989,6.303,6.714
181,0.761,35.443,23.974,32.711,31.956,4.988,6.302,6.713
182,0.748,35.278,24.022,32.702,31.956,4.948,6.262,6.632
183,0.741,35.449,23.952,32.711,31.956,4.988,6.302,6.712
184,0.751,35.566,23.975,32.702,31.956,4.948,6.262,6.713
185,0.754,35.279,24.018,32.73,31.956,4.988,6.302,6.794
186,0.761,35.363,24.018,32.731,31.959,4.988,6.343,6.755
187,0.761,35.517,23.987,32.711,31.959,4.948,6.343,6.795
188,0.774,35.614,23.87,32.73,31.963,5.029,6.303,6.714
189,0.78,35.126,23.962,32.702,31.956,4.989,6.302,6.672
190,0.79,35.275,23.955,32.701,31.945,4.785,6.221,6.631
191,0.777,35.382,23.944,32.701,31.949,4.824,6.139,6.59
192,0.771,35.469,24.006,32.673,31.949,4.905,6.26,6.753
193,0.751,35.125,23.936,32.692,31.949,4.947,6.221,6.632
194,0.767,35.294,23.967,32.711,31.952,4.907,6.18,6.672
195,0.78,35.44,23.994,32.692,31.952,4.865,6.22,6.672
196,0.78,35.508,24.018,32.682,31.959,4.865,6.18,6.713
197,0.774,35.202,23.983,32.701,31.952,4.906,6.22,6.754
198,0.764,35.343,23.956,32.682,31.952,4.906,6.22,6.632
199,0.761,35.498,23.936,32.692,31.952,4.947,6.22,6.712
200,0.761,35.547,23.912,32.692,31.952,4.907,6.261,6.632
201,0.761,35.078,23.935,32.673,31.952,4.906,6.221,6.712
202,0.767,35.236,24.01,32.701,31.956,4.947,6.342,6.835
203,0.78,35.41,23.936,32.73,31.966,5.069,6.506,6.958
204,0.79,35.46,23.982,32.74,31.956,4.989,6.345,6.838
205,0.771,35.278,23.983,32.702,31.949,4.866,6.262,6.877
206,0.777,35.42,24.018,32.701,31.956,4.946,6.343,6.796
207,0.793,35.537,23.999,32.701,31.963,4.947,6.343,6.917
208,0.8,35.739,23.96,32.74,31.959,4.866,6.384,6.837
209,0.82,35.175,23.948,32.692,31.963,4.946,6.385,6.877
210,0.826,35.333,23.99,32.711,31.949,4.947,6.466,6.918
211,0.846,35.449,23.963,32.702,31.959,4.988,6.386,6.878
212,0.856,35.115,23.998,32.701,31.963,4.988,6.425,6.959
213,0.882,35.131,23.991,32.711,31.959,4.907,6.385,6.838
214,0.882,35.284,23.979,32.702,31.949,4.865,6.385,6.796
215,0.879,35.372,23.998,32.673,31.945,4.784,6.263,6.714
216,0.863,35.249,23.995,32.672,31.942,4.783,6.262,6.835
217,0.856,35.362,23.932,32.682,31.949,4.905,6.343,6.877
218,0.853,35.546,23.963,32.701,31.959,4.906,6.343,6.877
219,0.853,35.643,23.928,32.692,31.952,4.865,6.384,6.959
220,0.853,34.916,23.971,32.711,31.959,4.824,6.425,6.919
221,0.833,35.062,23.952,32.702,31.956,4.905,6.344,6.959
222,0.846,35.178,24.022,32.682,31.949,4.906,6.384,6.878
223,0.849,35.275,23.874,32.711,31.949,4.865,6.344,6.918
224,0.846,35.037,23.962,32.673,31.952,4.906,6.303,6.959
225,0.849,35.188,24.018,32.663,31.949,4.865,6.302,6.96
226,0.859,35.333,24.054,32.682,31.952,4.906,6.384,7.082
227,0.879,35.402,23.976,32.72,31.966,5.028,6.547,7.083
228,0.892,34.942,23.979,32.721,31.966,5.03,6.468,7.083
229,0.899,35.11,23.971,32.721,31.973,5.03,6.467,7.042
230,0.902,35.236,23.983,32.702,31.956,4.948,6.386,7.042
231,0.902,35.276,23.948,32.692,31.956,4.988,6.344,7.042
232,0.908,35.065,23.994,32.701,31.959,4.866,6.384,7.042
233,0.915,35.265,23.983,32.721,31.959,4.946,6.344,7.082
234,0.909,35.372,23.944,32.692,31.959,4.988,6.343,6.961
235,0.918,35.392,23.963,32.692,31.959,4.948,6.425,7.082
236,0.902,35.028,24.03,32.701,31.956,4.988,6.344,7.042
237,0.905,35.197,24.003,32.701,31.963,5.029,6.384,7.042
238,0.892,35.343,23.991,32.711,31.963,4.948,6.344,7.001
239,0.869,35.143,23.936,32.682,31.952,4.947,6.303,6.96
240,0.876,35.054,23.912,32.673,31.949,4.907,6.262,6.838
241,0.882,35.197,23.955,32.663,31.945,4.784,6.302,6.877
242,0.876,35.295,23.998,32.653,31.945,4.864,6.262,6.959
243,0.879,34.96,23.94,32.691,31.949,4.946,6.343,6.96
244,0.885,35.072,23.979,32.692,31.956,4.988,6.384,6.96
245,0.895,35.217,23.979,32.692,31.949,5.029,6.385,6.96
246,0.899,35.295,24.022,32.673,31.949,4.907,6.303,6.919
247,0.902,34.864,23.975,32.692,31.956,4.947,6.262,6.959
248,0.902,35.042,23.889,32.711,31.952,4.907,6.302,6.96
249,0.899,35.169,23.951,32.663,31.949,4.906,6.302,6.96
250,0.895,35.275,23.99,32.701,31.952,4.947,6.384,6.96
251,0.902,34.854,23.991,32.692,31.963,5.069,6.466,6.96
252,0.912,35.013,24.038,32.711,31.966,5.111,6.548,7.082
253,0.918,35.168,23.886,32.73,31.97,5.071,6.468,6.961
254,0.928,35.247,23.943,32.692,31.959,5.03,6.426,6.919
255,0.922,35.314,23.994,32.673,31.959,4.989,6.385,6.878
256,0.896,35.469,24.022,32.672,31.959,4.948,6.425,6.877
257,0.895,35.585,23.983,32.692,31.963,4.988,6.466,6.918
258,0.912,35.663,23.983,32.692,31.959,4.988,6.426,6.878
259,0.905,34.58,23.944,32.692,31.966,5.07,6.426,6.877
260,0.889,34.732,23.912,32.692,31.966,5.03,6.507,6.959
261,0.879,34.859,23.943,32.692,31.959,4.948,6.508,6.838
262,0.872,34.917,23.994,32.692,31.963,4.947,6.508,6.837
263,0.859,34.889,23.948,32.673,31.956,4.988,6.508,6.877
264,0.862,35.033,23.94,32.672,31.956,4.907,6.345,6.715
265,0.849,35.159,23.982,32.644,31.945,4.784,6.343,6.754
266,0.846,35.198,24.002,32.663,31.952,4.905,6.384,6.795
267,0.859,34.815,23.983,32.672,31.952,4.947,6.466,6.836
268,0.849,34.965,23.971,32.711,31.952,4.947,6.548,6.714
269,0.846,35.101,23.955,32.673,31.956,4.866,6.508,6.835
270,0.856,34.814,23.944,32.72,31.949,4.946,6.467,6.755
271,0.859,34.859,23.979,32.683,31.956,4.907,6.507,6.754
272,0.859,34.975,23.998,32.653,31.952,4.865,6.467,6.714
273,0.849,35.082,24.003,32.72,31.949,4.906,6.467,6.713
274,0.817,34.67,23.964,32.654,31.952,4.906,6.548,6.713
275,0.8,34.82,24.01,32.663,31.949,4.947,6.549,6.835
276,0.781,34.965,24.022,32.672,31.963,5.069,6.671,6.877
277,0.771,35.091,23.944,32.701,31.966,5.111,6.713,6.918
278,0.777,34.776,23.955,32.701,31.97,5.071,6.632,6.796
279,0.78,34.907,23.947,32.682,31.959,4.948,6.59,6.755
280,0.761,35.014,23.932,32.682,31.952,4.947,6.509,6.795
281,0.751,35.12,23.939,32.682,31.952,4.988,6.63,6.795
282,0.751,34.661,24.029,32.663,31.959,4.948,6.55,6.795
283,0.728,34.839,23.909,32.682,31.959,4.907,6.63,6.877
284,0.725,34.975,23.963,32.673,31.956,4.947,6.631,6.877
285,0.734,35.043,24.014,32.682,31.963,5.069,6.672,6.877
286,0.741,34.814,24.038,32.682,31.959,4.948,6.631,6.877
287,0.731,34.955,24.003,32.673,31.966,4.866,6.631,6.837
288,0.734,35.081,23.858,32.701,31.959,4.906,6.59,6.755
289,0.747,35.121,23.927,32.644,31.942,4.825,6.387,6.714
290,0.734,34.671,23.908,32.643,31.949,4.905,6.507,6.794
291,0.744,34.81,23.92,32.653,31.952,4.906,6.549,6.877
292,0.747,34.965,24.01,32.644,31.952,4.947,6.63,6.837
293,0.76,35.005,23.952,32.663,31.956,4.988,6.631,6.877
294,0.748,34.9,23.967,32.663,31.952,4.826,6.631,6.877
295,0.754,35.062,23.987,32.653,31.952,4.905,6.55,6.837
296,0.738,35.159,24.03,32.653,31.952,4.906,6.508,6.796
297,0.721,34.796,23.976,32.663,31.952,4.906,6.549,6.877
298,0.721,34.677,23.971,32.653,31.949,4.906,6.508,6.918
299,0.705,34.829,23.948,32.644,31.945,4.906,6.549,6.919
300,0.705,34.936,23.916,32.634,31.956,4.947,6.63,6.959
301,0.715,34.621,23.943,32.662,31.959,5.029,6.712,7.0
302,0.718,34.752,24.01,32.692,31.963,5.07,6.672,7.082
303,0.718,34.926,23.96,32.701,31.97,5.07,6.753,7.002
304,0.731,35.033,23.983,32.673,31.956,4.989,6.673,7.001
305,0.718,34.603,23.963,32.663,31.959,4.988,6.591,7.041
306,0.724,34.733,24.037,32.663,31.956,4.948,6.671,7.001
307,0.734,34.878,24.022,32.672,31.952,4.988,6.631,7.001
308,0.731,34.975,23.909,32.663,31.959,4.948,6.631,7.001
309,0.728,34.554,23.939,32.663,31.956,4.947,6.672,7.001
310,0.744,34.694,23.92,32.672,31.959,4.947,6.713,7.041
311,0.738,34.839,23.943,32.682,31.963,4.988,6.632,7.042
312,0.744,34.936,24.002,32.673,31.959,5.029,6.672,7.001
313,0.757,34.611,23.932,32.663,31.959,4.989,6.672,7.001
314,0.754,34.781,23.943,32.653,31.949,4.948,6.591,6.96
315,0.751,34.907,23.975,32.644,31.952,4.825,6.549,6.919
316,0.748,34.956,24.03,32.634,31.945,4.824,6.63,6.837
317,0.728,34.592,23.991,32.634,31.949,4.865,6.631,6.958
318,0.731,34.771,23.952,32.662,31.952,4.906,6.712,6.96
319,0.718,34.926,23.936,32.644,31.952,4.865,6.713,6.96
320,0.718,34.937,23.916,32.643,31.952,4.946,6.632,7.041
321,0.721,34.544,23.92,32.634,31.952,4.825,6.672,6.96
322,0.711,34.703,23.99,32.643,31.956,4.865,6.713,7.082
323,0.718,34.83,23.936,32.653,31.956,4.987,6.713,7.002
324,0.718,34.84,23.959,32.644,31.949,4.826,6.672,6.96
325,0.708,34.591,23.971,32.643,31.952,4.905,6.672,7.0
326,0.721,34.742,24.014,32.624,31.945,4.906,6.753,7.163
327,0.734,34.868,24.007,32.653,31.956,4.987,6.754,7.206
328,0.738,34.582,23.956,32.672,31.973,5.11,6.836,7.206
329,0.747,34.665,23.979,32.692,31.966,4.989,6.755,7.125
330,0.754,34.772,23.956,32.663,31.956,4.948,6.632,7.124
331,0.741,34.869,23.955,32.663,31.956,4.988,6.753,7.124
332,0.738,34.515,23.994,32.634,31.952,4.907,6.714,7.124
333,0.751,34.655,23.948,32.662,31.963,4.947,6.713,7.083
334,0.751,34.791,23.955,32.644,31.952,4.907,6.713,7.083
335,0.748,34.888,23.979,32.663,31.959,4.987,6.713,7.042
336,0.741,34.755,24.006,32.644,31.963,4.988,6.754,7.042
337,0.728,34.916,23.987,32.643,31.959,4.907,6.714,7.042
338,0.728,35.062,23.909,32.653,31.952,5.028,6.754,7.042
339,0.721,35.159,23.963,32.644,31.963,4.948,6.632,7.042
340,0.702,34.22,23.92,32.634,31.952,4.907,6.55,6.96
341,0.685,34.364,23.935,32.624,31.945,4.784,6.549,6.96
342,0.662,34.51,23.982,32.614,31.952,4.946,6.549,7.0
343,0.646,34.588,23.92,32.643,31.956,4.907,6.549,7.041
344,0.636,34.531,23.947,32.643,31.952,4.865,6.63,7.042
345,0.623,34.684,23.959,32.643,31.952,4.946,6.55,6.96
346,0.645,34.82,23.994,32.624,31.952,4.907,6.59,6.878
347,0.659,34.859,23.995,32.624,31.956,4.906,6.427,6.959
348,0.675,34.332,23.858,32.634,31.956,4.865,6.507,6.96
349,0.698,34.481,23.939,32.624,31.952,4.946,6.549,6.96
350,0.705,34.616,23.928,32.634,31.959,4.907,6.508,6.919
351,0.721,34.637,23.939,32.634,31.956,5.028,6.589,7.041
352,0.75,34.503,23.994,32.643,31.963,5.111,6.712,7.001
353,0.787,34.674,23.952,32.672,31.963,5.112,6.632,7.001
354,0.826,34.81,23.975,32.663,31.963,4.989,6.55,7.001
355,0.875,34.485,23.987,32.634,31.959,5.029,6.549,6.96
356,0.892,34.415,24.01,32.634,31.959,4.948,6.63,6.96
357,0.931,34.568,23.94,32.634,31.956,5.029,6.509,7.0
358,0.987,34.694,23.943,32.624,31.959,4.989,6.508,6.96
359,1.017,34.321,23.943,32.614,31.963,4.988,6.549,6.96
360,1.069,34.452,23.92,32.643,31.956,4.988,6.59,7.0
361,1.105,34.616,23.967,32.634,31.959,5.029,6.549,6.96
362,1.158,34.704,24.022,32.643,31.959,5.07,6.59,6.919
363,1.178,34.388,23.929,32.643,31.959,4.989,6.468,6.959
364,1.23,34.529,23.967,32.643,31.952,4.866,6.426,6.838
365,1.312,34.674,23.991,32.615,31.945,4.906,6.385,6.877
366,1.358,34.733,24.022,32.605,31.952,4.947,6.425,6.959
367,1.404,34.283,23.979,32.624,31.956,5.029,6.466,7.0
368,1.434,34.48,23.85,32.653,31.956,4.907,6.507,7.123
369,1.457,34.616,23.907,32.624,31.952,4.947,6.508,7.205
370,1.483,34.685,23.959,32.624,31.949,4.907,6.427,7.287
371,1.529,34.273,23.932,32.595,31.956,4.906,6.385,7.369
372,1.565,34.442,23.986,32.595,31.952,4.865,6.425,7.411
373,1.592,34.578,23.901,32.595,31.949,4.946,6.426,7.493
374,1.595,34.646,23.927,32.614,31.949,4.825,6.426,7.575
375,1.608,34.292,23.986,32.595,31.952,4.865,6.466,7.657
376,1.608,34.471,24.006,32.624,31.959,4.946,6.589,7.78
377,1.667,34.626,23.975,32.634,31.973,5.15,6.59,7.944
378,1.713,34.685,23.959,32.662,31.966,5.112,6.631,8.026
379,1.713,34.628,23.979,32.644,31.963,4.989,6.509,8.068
380,1.697,34.752,23.877,32.624,31.949,4.988,6.508,8.15
381,1.658,34.868,23.923,32.634,31.959,4.948,6.508,8.354
382,1.628,34.668,24.006,32.605,31.959,4.988,6.508,8.519
383,1.563,34.311,23.909,32.633,31.966,4.948,6.508,8.764
384,1.484,34.461,23.959,32.634,31.963,4.988,6.549,9.133
385,1.422,34.597,23.987,32.624,31.956,4.988,6.549,9.543
386,1.359,34.244,24.041,32.624,31.963,5.029,6.59,10.035
387,1.284,34.317,23.987,32.634,31.963,5.07,6.631,10.446
388,1.189,34.48,23.967,32.672,31.959,4.989,6.55,10.938
389,1.119,34.578,23.94,32.605,31.952,4.866,6.427,11.431
390,1.063,34.195,23.963,32.586,31.945,4.824,6.385,11.883
391,1.014,34.307,23.944,32.576,31.945,4.865,6.466,12.457
392,0.975,34.442,24.006,32.614,31.949,4.906,6.548,12.869
393,0.958,34.558,23.968,32.605,31.956,4.947,6.59,13.32
394,0.909,34.195,23.944,32.595,31.949,4.947,6.509,13.61
395,0.886,34.335,23.979,32.605,31.952,4.907,6.589,13.735
396,0.84,34.5,24.018,32.586,31.952,4.865,6.509,13.858
397,0.804,34.578,23.948,32.595,31.949,4.865,6.508,13.9
398,0.781,34.215,23.943,32.595,31.949,4.824,6.467,13.941
399,0.777,34.383,23.951,32.605,31.952,4.905,6.426,13.941
400,0.758,34.51,23.94,32.624,31.949,4.906,6.548,14.022
401,0.774,34.588,23.947,32.624,31.966,4.987,6.63,14.186
402,0.767,34.224,23.998,32.614,31.973,5.11,6.712,14.228
403,0.777,34.403,23.987,32.643,31.966,5.071,6.672,14.31
404,0.79,34.529,23.956,32.634,31.959,4.989,6.631,14.311
405,0.803,34.559,23.99,32.605,31.952,5.029,6.59,14.473
406,0.813,34.329,24.034,32.614,31.959,5.03,6.59,14.678
407,0.826,34.49,23.956,32.624,31.959,4.948,6.549,14.843
408,0.839,34.626,23.955,32.614,31.952,5.069,6.63,15.089
409,0.856,34.858,23.983,32.634,31.956,5.03,6.631,15.376
410,0.84,34.265,23.959,32.624,31.959,4.989,6.672,15.541
411,0.846,34.422,23.963,32.624,31.966,4.988,6.672,15.746
412,0.853,34.549,23.975,32.614,31.956,5.07,6.631,15.911
413,0.856,34.301,23.955,32.624,31.956,4.989,6.59,15.912
414,0.862,34.317,23.951,32.595,31.956,4.988,6.468,15.831
415,0.853,34.433,23.983,32.585,31.945,4.866,6.507,15.871
416,0.83,34.539,23.959,32.585,31.945,4.946,6.63,15.953
417,0.81,34.157,23.905,32.605,31.952,4.988,6.59,15.75
418,0.816,34.277,23.97,32.605,31.956,4.948,6.59,15.667
419,0.807,34.422,23.998,32.605,31.956,4.947,6.631,15.463
420,0.803,34.529,24.01,32.595,31.959,4.947,6.59,15.257
421,0.797,34.061,23.968,32.585,31.949,4.947,6.631,15.052
422,0.79,34.219,23.987,32.595,31.956,4.988,6.59,14.806
423,0.78,34.364,23.956,32.595,31.949,4.948,6.59,14.6
424,0.78,34.452,23.936,32.595,31.952,4.866,6.59,14.354
425,0.777,34.338,24.002,32.576,31.956,4.987,6.549,14.23
426,0.787,34.481,23.964,32.604,31.959,4.988,6.59,14.107
427,0.803,34.655,23.893,32.633,31.966,5.029,6.671,13.861
428,0.813,34.752,23.927,32.643,31.973,5.03,6.672,13.574
429,0.82,34.082,23.936,32.643,31.963,5.03,6.631,13.246
430,0.81,34.238,23.975,32.595,31.956,4.907,6.631,13.04
431,0.8,34.345,23.948,32.614,31.956,4.947,6.631,12.794
432,0.8,34.404,23.979,32.605,31.956,4.988,6.672,12.629
433,0.8,34.194,23.944,32.595,31.959,5.029,6.591,12.464
434,0.81,34.374,23.959,32.605,31.959,4.989,6.631,12.219
435,0.81,34.5,23.994,32.586,31.956,5.029,6.631,12.013
436,0.794,34.54,24.003,32.595,31.959,4.989,6.631,11.767
437,0.8,34.185,23.928,32.605,31.959,5.029,6.631,11.724
438,0.8,34.316,23.959,32.605,31.956,4.989,6.712,11.52
439,0.787,34.471,23.951,32.576,31.956,4.988,6.591,11.315
440,0.78,34.329,23.92,32.595,31.949,4.948,6.468,10.988
441,0.771,34.183,23.935,32.557,31.949,4.825,6.548,10.944
442,0.767,34.335,23.955,32.575,31.959,4.905,6.63,10.821
443,0.777,34.5,23.959,32.595,31.959,4.987,6.59,10.739
444,0.767,34.022,23.948,32.595,31.956,4.988,6.549,10.657
445,0.767,34.084,23.963,32.605,31.956,4.907,6.549,10.493
446,0.774,34.229,24.01,32.586,31.959,4.906,6.59,10.329
447,0.79,34.345,23.913,32.585,31.956,4.906,6.549,10.165
448,0.793,34.078,23.955,32.585,31.949,4.825,6.386,10.041
449,0.806,34.2,23.951,32.566,31.949,4.905,6.466,9.918
450,0.813,34.355,23.963,32.585,31.952,4.906,6.507,9.916
451,0.82,34.481,23.944,32.595,31.959,5.028,6.63,9.916
452,0.82,34.07,23.994,32.624,31.97,4.989,6.631,9.835
453,0.823,34.238,23.979,32.624,31.966,5.029,6.631,9.672
454,0.823,34.355,23.956,32.595,31.966,4.907,6.55,9.507
455,0.817,34.423,24.022,32.595,31.963,4.987,6.549,9.425
456,0.82,33.992,23.987,32.576,31.959,4.948,6.508,9.342
457,0.8,34.151,23.913,32.595,31.963,4.988,6.508,9.342
458,0.787,34.306,23.939,32.595,31.956,4.948,6.549,9.179
459,0.78,34.375,23.94,32.585,31.956,5.029,6.549,9.096
460,0.784,34.059,23.963,32.595,31.952,5.03,6.468,9.014
461,0.784,34.238,23.928,32.595,31.956,4.948,6.467,8.932
462,0.787,34.374,23.994,32.595,31.956,4.947,6.507,8.809
463,0.771,34.423,23.967,32.653,31.952,4.866,6.386,8.686
464,0.761,34.117,23.932,32.557,31.949,4.784,6.303,8.603
465,0.761,34.267,23.994,32.537,31.945,4.824,6.384,8.643
466,0.787,34.384,24.014,32.566,31.952,4.905,6.466,8.562
467,0.8,34.721,23.936,32.585,31.945,4.865,6.345,8.521
468,0.8,34.053,23.932,32.585,31.952,4.906,6.303,8.358
469,0.803,34.2,23.943,32.566,31.956,4.865,6.384,8.437
470,0.807,34.335,23.943,32.595,31.956,4.865,6.303,8.438
471,0.826,34.078,23.943,32.566,31.949,4.865,6.302,8.438
472,0.804,34.085,23.967,32.585,31.949,4.865,6.384,8.397
473,0.81,34.248,23.967,32.547,31.949,4.865,6.385,8.316
474,0.816,34.355,23.955,32.537,31.949,4.865,6.344,8.437
475,0.816,33.963,23.971,32.566,31.956,5.028,6.384,8.479
476,0.82,34.074,23.987,32.585,31.963,5.03,6.466,8.601
477,0.833,34.248,23.913,32.605,31.966,5.03,6.548,8.521
478,0.826,34.374,23.955,32.624,31.956,4.989,6.427,8.358
479,0.807,33.963,23.932,32.586,31.956,4.907,6.385,8.397
480,0.774,34.093,23.936,32.585,31.956,4.947,6.385,8.397
481,0.79,34.277,23.943,32.557,31.952,4.947,6.425,8.356
482,0.787,34.346,24.002,32.556,31.952,4.988,6.426,8.315
483,0.78,33.944,23.917,32.566,31.952,4.907,6.466,8.315
484,0.787,34.084,23.939,32.576,31.952,4.906,6.467,8.356
485,0.777,34.238,23.986,32.576,31.959,4.906,6.386,8.397
486,0.79,34.288,24.018,32.585,31.959,4.947,6.425,8.356
487,0.803,34.049,23.956,32.585,31.959,4.907,6.344,8.275
488,0.803,34.2,23.951,32.605,31.956,4.906,6.303,8.193
489,0.8,34.345,23.908,32.528,31.942,4.825,6.302,8.192
490,0.803,34.366,23.939,32.546,31.945,4.824,6.343,8.192
491,0.81,33.963,23.936,32.537,31.952,4.865,6.384,8.232
492,0.81,34.141,23.994,32.547,31.949,4.906,6.344,8.273
493,0.826,34.287,23.936,32.585,31.956,4.947,6.384,8.233
494,0.823,34.308,23.924,32.537,31.949,4.947,6.385,8.151
495,0.807,33.972,23.963,32.527,31.956,4.866,6.344,8.15
496,0.81,34.122,23.99,32.546,31.952,4.906,6.384,8.11
497,0.813,34.248,23.936,32.527,31.956,4.906,6.303,8.109
498,0.813,34.125,23.963,32.518,31.949,4.825,6.384,8.069
499,0.807,34.037,23.959,32.518,31.956,4.865,6.425,8.109
500,0.81,34.2,23.948,32.604,31.952,4.906,6.426,8.15
501,0.807,34.335,23.951,32.528,31.952,4.906,6.548,8.15
502,0.803,33.944,23.986,32.546,31.959,5.028,6.549,8.232
503,0.813,34.074,23.967,32.642,31.966,5.03,6.671,8.192
504,0.81,34.229,23.948,32.567,31.959,4.948,6.509,8.151
505,0.807,34.288,23.986,32.547,31.949,4.947,6.508,8.069
506,0.8,34.576,23.967,32.527,31.963,4.866,6.508,8.109
507,0.813,34.713,23.928,32.537,31.952,4.987,6.549,8.069
508,0.826,34.868,23.951,32.537,31.956,4.907,6.59,8.028
509,0.83,34.956,23.975,32.547,31.956,4.947,6.468,7.987
510,0.83,33.585,23.975,32.527,31.963,4.907,6.589,7.986
511,0.83,33.735,23.983,32.527,31.959,4.987,6.631,7.946
512,0.836,33.88,24.006,32.537,31.963,4.948,6.55,8.026
513,0.839,33.987,23.979,32.527,31.952,5.029,6.508,7.905
514,0.836,33.892,23.94,32.508,31.952,4.907,6.467,7.863
515,0.833,34.035,23.979,32.508,31.938,4.825,6.386,7.822
516,0.83,34.152,23.913,32.479,31.945,4.865,6.466,7.863
517,0.833,34.249,23.908,32.517,31.952,4.906,6.507,7.822
518,0.826,33.732,23.931,32.508,31.956,4.947,6.467,7.863
519,0.813,33.909,23.955,32.517,31.952,4.907,6.507,7.904
520,0.803,34.035,23.94,32.518,31.956,4.906,6.467,7.863
521,0.803,34.094,23.955,32.518,31.952,4.906,6.507,7.782
522,0.823,33.951,23.979,32.508,31.952,4.865,6.508,7.781
523,0.807,34.122,23.92,32.508,31.952,4.906,6.508,7.781
524,0.79,34.239,23.939,32.527,31.949,4.825,6.508,7.781
525,0.8,34.403,23.975,32.518,31.949,4.865,6.508,7.862
526,0.81,33.848,23.991,32.527,31.963,4.987,6.63,7.944
527,0.829,34.015,23.924,32.546,31.966,5.07,6.672,7.905
528,0.826,34.161,23.932,32.566,31.966,5.111,6.672,7.782
529,0.839,33.798,23.939,32.547,31.956,4.908,6.55,7.659
530,0.839,33.785,23.932,32.537,31.959,4.947,6.63,7.78
531,0.839,33.957,23.967,32.518,31.956,4.947,6.631,7.618
532,0.823,34.065,23.967,32.537,31.959,4.947,6.55,7.739
533,0.839,33.768,23.959,32.518,31.952,4.907,6.63,7.699
534,0.833,33.9,23.971,32.518,31.959,5.028,6.59,7.699
535,0.836,34.045,24.014,32.537,31.959,5.03,6.59,7.658
536,0.846,34.133,23.925,32.537,31.959,4.948,6.549,7.658
537,0.823,33.721,23.834,32.556,31.959,4.947,6.508,7.658
538,0.81,33.88,23.942,32.528,31.956,4.988,6.508,7.617
539,0.813,34.016,23.971,32.518,31.949,4.948,6.467,7.495
540,0.81,34.094,23.967,32.498,31.952,4.785,6.426,7.453
541,0.813,33.778,23.932,32.498,31.949,4.864,6.466,7.493
542,0.807,33.928,23.975,32.508,31.949,4.946,6.467,7.494
543,0.797,34.122,23.967,32.537,31.959,4.947,6.467,7.534
544,0.807,34.191,23.944,32.527,31.956,4.947,6.507,7.575
545,0.807,33.702,23.982,32.518,31.952,4.866,6.508,7.575
546,0.81,33.851,23.983,32.518,31.952,4.906,6.386,7.454
547,0.833,33.968,23.901,32.518,31.952,4.865,6.385,7.452
548,0.833,34.026,23.912,32.508,31.949,4.824,6.425,7.371
549,0.83,34.065,23.947,32.508,31.949,4.905,6.466,7.37
550,0.826,34.219,23.94,32.508,31.952,4.906,6.548,7.452
551,0.833,34.364,23.928,32.537,31.966,4.987,6.63,7.534
552,0.839,34.414,23.982,32.556,31.966,5.029,6.631,7.453
553,0.859,33.599,23.959,32.556,31.97,5.03,6.59,7.371
554,0.853,33.744,23.979,32.528,31.956,4.907,6.509,7.33
555,0.84,33.871,24.01,32.518,31.956,4.906,6.549,7.289
556,0.836,33.814,23.999,32.527,31.956,4.906,6.508,7.288
557,0.843,33.823,23.901,32.527,31.956,4.906,6.467,7.247
558,0.839,34.006,23.931,32.546,31.959,4.906,6.426,7.288
559,0.843,34.132,23.912,32.527,31.963,4.906,6.548,7.288
560,0.839,33.721,23.939,32.537,31.952,4.987,6.549,7.329
561,0.826,33.803,23.936,32.547,31.959,4.948,6.468,7.207
562,0.81,33.948,23.975,32.537,31.963,4.988,6.589,7.247
563,0.81,34.093,23.944,32.527,31.959,4.948,6.468,7.166
564,0.816,33.692,23.947,32.508,31.942,4.907,6.386,7.084
565,0.813,33.822,23.983,32.479,31.945,4.825,6.385,7.042
566,0.803,33.958,24.002,32.508,31.942,4.824,6.425,7.123
567,0.82,34.055,23.936,32.517,31.959,4.905,6.507,7.083
568,0.826,33.692,23.947,32.508,31.952,4.947,6.467,7.083
569,0.839,33.86,23.908,32.517,31.959,4.866,6.467,7.123
570,0.843,34.016,23.967,32.518,31.952,4.824,6.467,7.043
571,0.839,34.084,23.916,32.508,31.945,4.865,6.426,7.082
572,0.836,33.759,23.971,32.517,31.949,4.865,6.466,6.961
573,0.846,33.919,23.948,32.479,31.949,4.865,6.426,7.0
574,0.84,34.064,23.947,32.498,31.949,4.865,6.426,6.96
575,0.843,34.114,24.014,32.508,31.949,4.987,6.507,7.082
576,0.846,33.807,23.956,32.527,31.956,5.029,6.508,7.123
577,0.846,34.005,23.897,32.556,31.966,5.03,6.589,7.205
578,0.849,34.142,23.962,32.547,31.963,4.989,6.468,7.084
579,0.843,34.191,23.971,32.527,31.959,4.948,6.507,7.042
580,0.83,34.0,23.955,32.537,31.949,4.907,6.467,7.042
581,0.836,34.151,23.963,32.537,31.952,4.906,6.467,7.042
582,0.846,34.268,23.979,32.527,31.952,4.947,6.426,7.001
583,0.833,34.403,23.94,32.527,31.956,4.907,6.426,7.041
584,0.82,34.117,23.943,32.527,31.956,4.947,6.385,7.001
585,0.826,34.258,23.994,32.527,31.952,4.988,6.466,6.96
586,0.839,34.374,23.991,32.527,31.956,4.988,6.467,7.041
587,0.846,34.126,23.924,32.537,31.959,4.948,6.345,6.96
588,0.84,34.191,23.943,32.527,31.952,4.866,6.343,6.919
589,0.836,34.326,23.963,32.499,31.945,4.906,6.343,6.756
590,0.833,34.433,23.948,32.498,31.942,4.825,6.303,6.795
591,0.833,34.184,23.928,32.508,31.949,4.905,6.384,6.958
592,0.843,34.354,23.955,32.537,31.956,4.947,6.425,6.919
593,0.846,34.5,23.963,32.518,31.952,4.907,6.385,6.878
594,0.853,34.597,23.94,32.518,31.952,4.906,6.344,6.877
595,0.859,34.598,23.994,32.508,31.949,4.906,6.303,6.796
596,0.84,34.733,23.975,32.508,31.945,4.825,6.302,6.795
597,0.843,34.887,23.866,32.508,31.949,4.905,6.262,6.795
598,0.839,34.956,23.943,32.508,31.949,4.825,6.262,6.755
599,0.83,34.554,23.932,32.508,31.952,4.946,6.384,6.876
600,0.836,34.751,23.963,32.517,31.956,4.988,6.547,6.959
601,0.833,34.907,23.971,32.537,31.973,5.029,6.468,7.0
602,0.839,34.966,24.006,32.556,31.963,5.07,6.507,6.919
603,0.826,34.938,23.975,32.547,31.956,4.948,6.386,6.878
604,0.82,35.081,23.936,32.527,31.959,4.988,6.425,6.877
605,0.826,35.179,23.975,32.527,31.952,4.948,6.385,6.877
606,0.83,35.237,23.971,32.527,31.956,4.988,6.344,6.877
607,0.83,35.151,23.901,32.518,31.956,4.948,6.384,6.837
608,0.839,35.285,23.916,32.518,31.959,4.947,6.385,6.837
609,0.852,35.439,23.939,32.527,31.966,4.947,6.344,6.837
610,0.859,35.451,23.967,32.527,31.952,4.988,6.343,6.837
611,0.856,35.412,23.959,32.537,31.966,4.988,6.384,6.877
612,0.862,35.546,23.959,32.518,31.949,4.907,6.344,6.796
613,0.859,35.643,23.932,32.489,31.945,4.865,6.221,6.836
614,0.853,35.549,23.943,32.469,31.949,4.865,6.302,6.837
615,0.862,35.548,24.002,32.508,31.956,4.946,6.302,6.837
616,0.866,35.72,23.94,32.527,31.959,4.988,6.343,6.837
617,0.843,35.827,23.924,32.518,31.956,4.948,6.181,6.958
618,0.862,35.809,23.904,32.508,31.952,4.907,6.22,6.878
619,0.856,35.924,23.982,32.508,31.952,4.865,6.22,6.837
620,0.846,36.06,23.963,32.489,31.952,4.865,6.261,6.796
621,0.84,36.166,23.948,32.498,31.949,4.946,6.221,6.917
622,0.839,36.024,23.959,32.489,31.956,4.866,6.22,6.837
623,0.836,36.185,23.959,32.527,31.956,4.906,6.302,7.04
624,0.83,36.34,23.944,32.527,31.956,5.069,6.384,7.123
625,0.833,36.419,24.025,32.537,31.97,5.152,6.425,7.124
626,0.846,36.256,23.96,32.556,31.963,4.99,6.304,7.083
627,0.859,36.389,23.819,32.528,31.952,4.948,6.302,7.042
628,0.866,36.505,23.903,32.518,31.952,4.988,6.302,7.042
629,0.866,36.564,23.943,32.508,31.952,4.907,6.262,7.123
630,0.866,36.43,23.947,32.527,31.956,4.987,6.302,7.083
631,0.866,36.573,23.963,32.527,31.959,4.988,6.302,7.123
632,0.879,36.699,23.936,32.518,31.956,5.029,6.302,7.124
633,0.889,36.748,23.928,32.518,31.956,4.989,6.302,7.083
634,0.876,36.681,23.959,32.508,31.963,4.988,6.221,7.164
635,0.879,36.815,23.99,32.517,31.959,4.988,6.302,7.124
636,0.866,36.931,23.924,32.527,31.959,4.948,6.221,7.124
637,0.872,36.952,23.92,32.575,31.949,4.866,6.139,7.083
638,0.866,36.885,23.92,32.489,31.949,4.824,6.219,7.083
639,0.846,37.047,23.974,32.508,31.956,4.905,6.302,7.164
640,0.856,37.183,23.932,32.508,31.956,4.906,6.221,7.165
641,0.862,37.232,23.939,32.527,31.952,4.906,6.302,7.206
642,0.853,37.099,23.959,32.518,31.952,4.906,6.302,7.247
643,0.823,37.251,23.928,32.518,31.956,4.947,6.302,7.247
644,0.826,37.339,23.928,32.508,31.949,4.866,6.221,7.247
645,0.839,37.224,23.982,32.508,31.949,4.865,6.22,7.328
646,0.859,37.31,23.959,32.479,31.949,4.865,6.18,7.289
647,0.872,37.445,23.877,32.508,31.952,4.865,6.22,7.491
648,0.885,37.532,23.919,32.508,31.949,4.865,6.302,7.453
649,0.882,37.341,23.959,32.527,31.966,5.028,6.425,7.615
650,0.892,37.464,23.948,32.546,31.97,5.07,6.466,7.657
651,0.899,37.638,23.971,32.527,31.977,4.989,6.345,7.536
652,0.899,37.697,23.963,32.518,31.956,4.907,6.384,7.575
653,0.889,37.468,23.963,32.508,31.956,4.987,6.222,7.575
654,0.892,37.619,23.944,32.508,31.952,4.948,6.302,7.535
655,0.905,37.755,23.975,32.508,31.963,4.988,6.343,7.616
656,0.902,37.833,23.955,32.517,31.952,4.948,6.343,7.617
657,0.889,37.642,23.901,32.537,31.959,4.947,6.343,7.617
658,0.889,37.793,23.927,32.508,31.952,4.988,6.343,7.657
659,0.899,37.919,23.955,32.537,31.963,4.907,6.384,7.739
660,0.886,37.988,23.975,32.508,31.959,4.987,6.344,7.618
661,0.889,37.739,23.944,32.508,31.949,4.907,6.303,7.576
662,0.889,37.842,23.971,32.498,31.956,4.865,6.262,7.535
663,0.879,37.968,23.936,32.479,31.952,4.865,6.262,7.616
664,0.885,38.007,23.924,32.508,31.949,4.946,6.343,7.739
665,0.879,37.758,23.971,32.517,31.952,4.907,6.303,7.781
666,0.885,37.909,23.987,32.508,31.949,4.906,6.384,7.7
667,0.905,38.026,23.944,32.527,31.952,4.906,6.344,7.658
668,0.905,38.056,23.928,32.518,31.952,4.947,6.303,7.617
669,0.908,37.884,23.932,32.508,31.952,4.866,6.384,7.617
670,0.915,38.045,23.951,32.517,31.952,4.824,6.303,7.657
671,0.915,38.142,23.951,32.489,31.949,4.865,6.302,7.576
672,0.909,37.952,23.959,32.489,31.949,4.906,6.302,7.616
673,0.912,37.959,23.932,32.498,31.956,4.906,6.343,7.698
674,0.931,38.122,23.924,32.489,31.966,5.028,6.425,7.78
675,0.925,38.229,23.971,32.527,31.973,4.989,6.548,7.7
676,0.922,37.981,23.987,32.546,31.97,5.07,6.427,7.658
677,0.925,38.094,23.913,32.518,31.959,4.948,6.466,7.576
678,0.928,38.229,23.943,32.508,31.956,4.907,6.467,7.616
679,0.915,38.307,23.94,32.508,31.952,4.987,6.386,7.576
680,0.909,38.001,23.943,32.508,31.956,4.907,6.425,7.575
681,0.915,38.151,23.94,32.517,31.959,4.987,6.466,7.494
682,0.922,38.268,23.979,32.508,31.952,4.988,6.467,7.494
683,0.931,38.365,23.971,32.575,31.956,4.988,6.507,7.656
684,0.912,38.031,23.928,32.518,31.959,4.988,6.549,7.576
685,0.922,38.19,23.998,32.498,31.959,5.029,6.549,7.535
686,0.931,38.288,23.979,32.517,31.959,5.03,6.508,7.453
687,0.935,38.346,23.94,32.498,31.949,4.867,6.386,7.33
688,0.938,38.088,23.92,32.479,31.949,4.906,6.344,7.329
689,0.945,38.239,23.92,32.469,31.952,4.865,6.425,7.41
690,0.945,38.346,23.951,32.565,31.959,4.865,6.507,7.411
691,0.951,38.443,23.912,32.508,31.959,4.865,6.467,7.371
692,0.961,37.935,23.97,32.498,31.959,4.906,6.467,7.37
693,0.971,38.103,23.952,32.527,31.949,4.906,6.386,7.289
694,0.971,38.248,23.932,32.489,31.956,4.906,6.425,7.369
695,0.971,38.24,23.963,32.479,31.949,4.865,6.466,7.289
696,0.968,38.039,23.948,32.479,31.949,4.865,6.386,7.288
697,0.955,38.19,23.916,32.498,31.952,4.946,6.425,7.247
698,0.945,38.326,23.928,32.527,31.956,4.907,6.507,7.328
699,0.951,38.26,23.932,32.508,31.959,5.028,6.589,7.41
700,0.948,38.164,23.893,32.537,31.97,5.03,6.631,7.452
701,0.958,38.326,23.939,32.537,31.966,5.03,6.55,7.29
702,0.958,38.414,23.982,32.508,31.956,4.948,6.508,7.247
703,0.948,38.069,23.905,32.508,31.956,4.907,6.508,7.328
704,0.948,38.152,23.943,32.517,31.956,4.987,6.508,7.37
705,0.954,38.268,23.975,32.498,31.949,4.988,6.549,7.289
706,0.958,38.365,24.014,32.498,31.959,4.948,6.508,7.329
707,0.968,37.973,23.964,32.498,31.956,4.947,6.467,7.37
708,0.961,38.113,23.944,32.537,31.963,4.988,6.467,7.37
709,0.964,38.249,23.912,32.518,31.959,4.988,6.426,7.33
710,0.955,38.346,23.951,32.566,31.959,4.907,6.466,7.289
711,0.958,37.954,23.944,32.489,31.956,4.825,6.345,7.207
712,0.954,38.074,23.955,32.469,31.942,4.865,6.343,7.206
713,0.951,38.2,23.947,32.469,31.952,4.865,6.506,7.247
714,0.954,38.288,23.924,32.488,31.959,4.906,6.467,7.369
715,0.954,38.135,23.963,32.489,31.956,4.865,6.386,7.289
716,0.945,38.258,23.955,32.489,31.952,4.906,6.385,7.288
717,0.925,38.384,23.893,32.498,31.952,4.906,6.425,7.247
718,0.935,38.453,23.912,32.479,31.956,4.906,6.385,7.247
719,0.915,38.031,23.928,32.488,31.949,4.865,6.385,7.247
720,0.899,38.181,23.912,32.489,31.952,4.865,6.385,7.166
721,0.899,38.307,23.904,32.46,31.945,4.865,6.385,7.246
722,0.882,38.337,23.963,32.488,31.949,4.865,6.507,7.288
723,0.879,38.069,23.901,32.508,31.956,4.987,6.589,7.451
724,0.895,38.248,23.947,32.527,31.97,5.11,6.671,7.452
725,0.902,38.365,23.998,32.527,31.963,5.03,6.55,7.33
726,0.889,38.654,24.022,32.489,31.956,4.867,6.549,7.207
727,0.889,38.043,23.921,32.498,31.956,4.946,6.549,7.247
728,0.899,38.181,23.896,32.498,31.959,4.988,6.549,7.328
729,0.895,38.288,23.892,32.489,31.959,4.988,6.508,7.289
730,0.899,38.068,23.834,32.508,31.959,4.988,6.508,7.247
731,0.899,38.085,23.911,32.508,31.959,4.988,6.63,7.288
732,0.892,38.229,23.978,32.489,31.956,4.988,6.55,7.329
733,0.902,38.346,23.928,32.546,31.956,4.988,6.59,7.207
734,0.899,38.04,23.947,32.499,31.959,4.988,6.631,7.206
735,0.889,38.161,23.955,32.489,31.959,4.866,6.509,7.165
736,0.876,38.268,23.994,32.479,31.949,4.906,6.467,7.124
737,0.866,38.365,23.913,32.45,31.945,4.825,6.467,7.124
738,0.872,37.906,23.935,32.45,31.952,4.865,6.629,7.246
739,0.872,38.074,23.924,32.479,31.959,4.987,6.55,7.206
740,0.859,38.229,23.877,32.488,31.952,4.948,6.59,7.165
741,0.833,38.307,23.927,32.498,31.949,4.907,6.549,7.206
742,0.83,38.049,23.986,32.489,31.952,4.906,6.549,7.287
743,0.826,38.209,23.897,32.489,31.959,4.906,6.59,7.288
744,0.813,38.336,23.904,32.498,31.952,4.865,6.509,7.207
745,0.826,38.395,23.931,32.469,31.952,4.865,6.467,7.247
746,0.836,38.04,23.963,32.469,31.952,4.946,6.507,7.328
747,0.846,38.181,23.924,32.498,31.963,4.988,6.589,7.41
748,0.856,38.316,23.912,32.517,31.97,5.11,6.671,7.452
749,0.856,38.404,23.939,32.537,31.973,5.112,6.753,7.412
750,0.836,38.184,23.92,32.508,31.959,4.949,6.51,7.33
751,0.839,38.316,23.932,32.479,31.956,4.988,6.549,7.37
752,0.849,38.423,23.971,32.488,31.952,4.948,6.59,7.452
753,0.846,38.453,23.881,32.508,31.959,4.947,6.59,7.371
754,0.846,38.118,23.923,32.498,31.959,4.988,6.549,7.37
755,0.856,38.268,23.955,32.498,31.956,4.988,6.508,7.33
756,0.849,38.375,23.987,32.489,31.956,4.988,6.508,7.41
757,0.843,38.28,23.948,32.498,31.949,4.988,6.508,7.371
758,0.826,38.212,23.955,32.517,31.963,4.988,6.589,7.33
759,0.826,38.355,23.916,32.498,31.952,5.029,6.549,7.37
760,0.81,38.443,23.912,32.498,31.949,4.867,6.386,7.248
761,0.813,38.175,23.935,32.469,31.952,4.865,6.303,7.206
762,0.813,38.22,23.979,32.45,31.945,4.824,6.384,7.287
763,0.803,38.365,23.897,32.488,31.952,4.905,6.507,7.329
764,0.8,38.491,23.927,32.489,31.952,5.028,6.427,7.329
765,0.813,38.061,23.951,32.489,31.952,4.907,6.426,7.289
766,0.813,38.171,23.979,32.479,31.949,4.947,6.426,7.329
767,0.816,38.307,23.948,32.46,31.956,4.947,6.466,7.289
768,0.816,38.404,23.893,32.479,31.952,4.907,6.426,7.288
769,0.816,38.127,23.908,32.469,31.952,4.865,6.344,7.288
770,0.813,38.258,23.865,32.469,31.949,4.946,6.384,7.207
771,0.816,38.394,23.939,32.46,31.949,4.866,6.466,7.369
772,0.823,38.453,23.982,32.479,31.963,4.987,6.467,7.411
773,0.83,38.29,23.92,32.508,31.959,4.988,6.629,7.452
774,0.836,38.432,23.947,32.508,31.966,4.988,6.631,7.452
775,0.849,38.568,23.967,32.508,31.963,5.07,6.55,7.371
776,0.833,38.598,23.94,32.489,31.959,4.908,6.508,7.411
777,0.833,38.282,23.897,32.469,31.956,4.906,6.467,7.452
778,0.82,38.432,23.9,32.508,31.956,4.987,6.548,7.452
779,0.803,38.568,23.924,32.508,31.963,4.907,6.508,7.412
780,0.807,38.589,23.896,32.479,31.952,4.906,6.508,7.452
781,0.794,38.407,23.908,32.479,31.959,4.987,6.508,7.493
782,0.8,38.52,23.974,32.479,31.966,4.988,6.508,7.534
783,0.794,38.655,23.924,32.508,31.963,4.948,6.549,7.575
784,0.797,38.839,23.928,32.498,31.956,4.988,6.508,7.616
785,0.803,38.352,23.959,32.489,31.959,4.907,6.467,7.576
786,0.803,38.471,23.979,32.469,31.949,4.784,6.345,7.494
787,0.803,38.569,23.916,32.45,31.949,4.864,6.384,7.534
788,0.803,38.378,23.928,32.526,31.952,4.906,6.425,7.616
789,0.813,38.443,23.896,32.479,31.956,4.947,6.426,7.617
790,0.833,38.587,23.92,32.479,31.956,4.947,6.426,7.657
791,0.83,38.704,23.928,32.488,31.952,4.907,6.385,7.617
792,0.823,38.379,23.978,32.479,31.949,4.865,6.385,7.576
793,0.836,38.5,23.94,32.469,31.949,4.865,6.425,7.575
794,0.833,38.626,23.924,32.469,31.949,4.824,6.344,7.575
795,0.836,38.724,23.986,32.469,31.945,4.865,6.384,7.575
796,0.83,38.341,23.944,32.46,31.945,4.824,6.344,7.575
797,0.81,38.5,23.889,32.46,31.949,4.905,6.384,7.575
798,0.8,38.626,23.892,32.488,31.952,4.906,6.385,7.698
799,0.807,38.743,23.916,32.498,31.963,5.028,6.588,7.78
800,0.81,38.504,23.955,32.508,31.966,5.03,6.509,7.659
801,0.807,38.665,23.94,32.517,31.966,4.948,6.386,7.617
802,0.816,38.762,23.967,32.479,31.966,4.907,6.425,7.576
803,0.813,38.802,23.955,32.479,31.959,4.947,6.466,7.616
804,0.8,38.533,23.912,32.479,31.956,4.947,6.467,7.617
805,0.794,38.675,23.978,32.498,31.959,4.947,6.467,7.617
806,0.806,38.791,23.924,32.489,31.956,4.988,6.467,7.535
807,0.82,38.84,23.893,32.508,31.959,4.988,6.507,7.534
808,0.813,38.486,23.908,32.479,31.963,4.988,6.427,7.616
809,0.816,38.645,23.931,32.488,31.956,4.948,6.466,7.495
810,0.82,38.743,23.928,32.489,31.959,4.866,6.386,7.453
811,0.823,38.753,23.928,32.469,31.942,4.784,6.303,7.371
812,0.82,38.543,23.924,32.469,31.949,4.864,6.384,7.411
813,0.839,38.684,23.908,32.479,31.952,4.946,6.385,7.452
814,0.843,38.81,23.947,32.479,31.956,4.907,6.385,7.371
815,0.826,38.658,23.986,32.469,31.952,4.865,6.466,7.37
816,0.823,38.628,23.928,32.479,31.949,4.824,6.386,7.33
817,0.81,38.771,23.939,32.536,31.949,4.865,6.385,7.329
818,0.81,38.859,23.92,32.47,31.949,4.865,6.344,7.37
819,0.803,38.611,23.974,32.45,31.956,4.824,6.343,7.289
820,0.8,38.704,23.913,32.469,31.949,4.783,6.303,7.329
821,0.797,38.849,23.947,32.479,31.956,4.946,6.465,7.41
822,0.81,38.946,23.967,32.479,31.963,5.029,6.507,7.452
823,0.807,38.631,23.959,32.498,31.97,5.111,6.549,7.534
824,0.813,38.791,23.963,32.479,31.97,4.989,6.508,7.453
825,0.807,38.888,23.99,32.469,31.956,4.907,6.467,7.371
826,0.813,38.937,23.94,32.46,31.952,4.906,6.507,7.411
827,0.826,38.679,23.881,32.479,31.956,4.906,6.427,7.371
828,0.83,38.801,23.931,32.469,31.956,4.947,6.466,7.492
829,0.817,38.936,23.963,32.46,31.959,4.988,6.426,7.494
830,0.842,39.005,23.959,32.469,31.956,4.988,6.385,7.453
831,0.839,38.651,23.951,32.479,31.959,4.948,6.425,7.493
832,0.83,38.8,23.92,32.469,31.959,4.988,6.466,7.534
833,0.82,38.927,23.943,32.45,31.963,4.988,6.467,7.494
834,0.83,38.976,23.924,32.459,31.959,4.948,6.386,7.371
835,0.843,38.65,23.971,32.431,31.945,4.866,6.303,7.289
836,0.843,38.762,23.889,32.43,31.942,4.865,6.384,7.329
837,0.81,38.897,23.912,32.45,31.949,4.946,6.425,7.41
838,0.807,38.937,23.939,32.44,31.956,4.947,6.507,7.411
839,0.823,38.679,23.971,32.44,31.956,4.907,6.467,7.33
840,0.8,38.83,23.955,32.44,31.956,4.947,6.426,7.37
841,0.807,38.946,23.92,32.431,31.956,4.947,6.466,7.411
842,0.807,38.986,23.951,32.43,31.956,4.988,6.467,7.289
843,0.787,38.746,23.924,32.45,31.949,4.826,6.386,7.247
844,0.784,38.869,23.912,32.44,31.945,4.946,6.466,7.288
845,0.787,38.947,23.978,32.44,31.949,4.947,6.426,7.247
846,0.79,38.803,23.936,32.431,31.952,4.988,6.466,7.288
847,0.813,38.869,23.858,32.469,31.963,4.948,6.589,7.369
848,0.816,39.023,23.904,32.488,31.966,5.069,6.59,7.33
849,0.836,39.121,23.92,32.469,31.97,5.07,6.631,7.248
850,0.843,38.422,23.951,32.46,31.959,4.989,6.509,7.247
851,0.833,38.491,23.959,32.46,31.956,4.948,6.467,7.247
852,0.836,38.607,23.944,32.45,31.949,4.988,6.467,7.166
853,0.846,38.714,23.924,32.459,31.959,5.029,6.507,7.165
854,0.859,38.696,23.928,32.431,31.959,4.989,6.508,7.124
855,0.856,38.83,23.975,32.45,31.959,4.988,6.508,7.205
856,0.853,38.965,23.932,32.469,31.956,4.988,6.467,7.165
857,0.836,39.043,23.893,32.508,31.959,4.988,6.548,7.165
858,0.833,38.392,23.927,32.47,31.959,4.988,6.468,7.165
859,0.83,38.529,23.963,32.44,31.963,4.948,6.548,7.124
860,0.817,38.684,23.951,32.44,31.952,4.947,6.386,6.961
861,0.813,38.705,23.944,32.431,31.949,4.866,6.263,6.878
862,0.816,38.456,23.928,32.402,31.945,4.865,6.384,7.0
863,0.797,38.645,23.936,32.449,31.952,4.946,6.425,7.082
864,0.807,38.781,23.932,32.44,31.956,4.907,6.466,7.042
865,0.797,38.802,23.959,32.44,31.959,4.947,6.426,7.042
866,0.813,38.447,23.897,32.44,31.952,4.907,6.344,7.042
867,0.826,38.607,23.834,32.45,31.952,4.825,6.303,6.96
868,0.833,38.714,23.884,32.431,31.952,4.905,6.343,6.96
869,0.836,38.705,23.884,32.43,31.952,4.865,6.262,6.919
870,0.82,38.408,23.935,32.43,31.952,4.906,6.343,7.0
871,0.826,38.549,23.936,32.43,31.956,4.947,6.384,7.041
872,0.839,38.684,23.928,32.45,31.956,5.029,6.507,7.164
873,0.846,38.446,23.928,32.479,31.963,5.111,6.508,7.165
874,0.846,38.444,23.967,32.45,31.963,5.071,6.386,7.124
875,0.846,38.568,23.994,32.45,31.959,4.948,6.344,7.043
876,0.833,38.646,23.924,32.45,31.952,4.947,6.343,7.123
877,0.826,38.263,23.912,32.459,31.959,4.947,6.303,7.165
878,0.817,38.365,23.916,32.431,31.963,4.947,6.302,7.246
879,0.826,38.491,23.943,32.45,31.959,4.988,6.384,7.166
880,0.83,38.598,23.916,32.44,31.959,4.988,6.385,7.206
881,0.813,38.32,23.955,32.44,31.963,4.988,6.303,7.247
882,0.82,38.442,23.94,32.45,31.959,4.988,6.221,7.206
883,0.81,38.616,23.94,32.45,31.963,4.988,6.383,7.287
884,0.803,38.656,23.959,32.45,31.963,4.988,6.303,7.166
885,0.813,38.187,23.99,32.431,31.956,4.907,6.221,7.124
886,0.803,38.297,23.94,32.411,31.942,4.825,6.139,7.083
887,0.813,38.433,23.885,32.449,31.949,4.946,6.26,7.164
888,0.816,38.501,23.877,32.431,31.949,4.907,6.262,7.124
889,0.816,38.195,23.958,32.43,31.956,4.987,6.221,7.165
890,0.829,38.345,23.94,32.44,31.956,4.948,6.22,7.165
891,0.83,38.481,23.967,32.431,31.952,4.947,6.261,7.165
892,0.826,38.53,23.889,32.43,31.945,4.907,6.262,7.165
893,0.826,38.118,23.912,32.43,31.945,4.906,6.18,7.124
894,0.846,38.239,23.947,32.411,31.949,4.865,6.179,7.083
895,0.853,38.374,23.963,32.421,31.949,4.906,6.179,7.164
896,0.83,38.405,23.881,32.411,31.956,4.906,6.22,7.206
897,0.813,38.108,23.896,32.44,31.952,5.028,6.302,7.287
898,0.829,38.277,23.935,32.45,31.966,5.07,6.384,7.329
899,0.823,38.404,23.971,32.479,31.966,5.07,6.263,7.41
900,0.82,38.309,23.983,32.46,31.959,5.03,6.221,7.249
901,0.817,38.078,23.952,32.431,31.956,4.989,6.22,7.288
902,0.82,38.181,23.932,32.43,31.956,4.988,6.22,7.288
903,0.817,38.316,23.908,32.43,31.952,4.948,6.302,7.288
904,0.807,38.03,23.943,32.421,31.959,4.988,6.302,7.369
905,0.807,38.085,23.967,32.43,31.959,5.029,6.221,7.289
906,0.81,38.229,23.889,32.43,31.959,5.03,6.261,7.369
907,0.826,38.336,23.919,32.43,31.959,5.03,6.262,7.37
908,0.826,37.915,23.924,32.43,31.952,4.989,6.18,7.37
909,0.826,38.045,23.99,32.421,31.952,4.988,6.098,7.208
910,0.826,38.171,23.956,32.402,31.942,4.907,6.056,7.247
911,0.82,38.24,23.959,32.401,31.938,4.865,6.137,7.288
912,0.826,37.895,23.901,32.43,31.952,5.028,6.301,7.329
913,0.846,38.064,23.908,32.43,31.949,4.989,6.18,7.207
914,0.849,38.21,23.982,32.411,31.952,4.948,6.139,7.287
915,0.83,38.24,23.944,32.421,31.949,4.947,6.179,7.288
916,0.826,37.905,23.916,32.402,31.956,4.988,6.139,7.247
917,0.81,38.045,23.904,32.411,31.945,4.907,6.138,7.166
918,0.813,38.152,23.931,32.402,31.949,4.906,6.179,7.287
919,0.807,38.211,23.994,32.401,31.952,4.947,6.179,7.329
920,0.813,37.923,23.952,32.421,31.952,5.029,6.261,7.41
921,0.813,38.074,23.971,32.43,31.966,5.07,6.343,7.411
922,0.816,38.239,23.924,32.45,31.963,5.152,6.384,7.371
923,0.81,38.269,23.916,32.44,31.966,5.112,6.303,7.37
924,0.807,38.03,23.959,32.431,31.956,5.03,6.302,7.33
925,0.807,38.142,23.924,32.43,31.952,5.03,6.302,7.451
926,0.794,38.258,23.916,32.44,31.952,4.989,6.302,7.33
927,0.813,38.538,23.916,32.411,31.949,5.029,6.302,7.37
928,0.813,37.898,23.931,32.411,31.949,4.989,6.262,7.33
929,0.82,38.035,23.967,32.411,31.952,4.988,6.262,7.37
930,0.826,38.161,23.952,32.43,31.959,5.07,6.343,7.411
931,0.839,37.971,23.994,32.43,31.966,5.07,6.343,7.411
932,0.839,37.969,23.823,32.45,31.956,5.03,6.262,7.371
933,0.839,38.113,23.911,32.402,31.959,4.989,6.262,7.33
934,0.826,38.21,23.928,32.373,31.942,4.907,6.18,7.289
935,0.826,37.837,23.928,32.392,31.945,4.947,6.261,7.329
936,0.826,37.929,23.912,32.43,31.949,4.988,6.343,7.37
937,0.813,38.084,23.896,32.402,31.952,4.988,6.343,7.452
938,0.82,38.181,23.923,32.401,31.952,5.029,6.303,7.371
939,0.813,37.76,24.01,32.43,31.959,4.948,6.221,7.452
940,0.797,37.9,23.983,32.411,31.952,4.988,6.261,7.452
941,0.79,38.045,23.975,32.402,31.949,4.948,6.221,7.412
942,0.793,38.123,23.905,32.401,31.945,4.907,6.22,7.411
943,0.774,37.817,23.904,32.392,31.945,4.947,6.302,7.533
944,0.78,37.987,23.931,32.401,31.956,5.029,6.302,7.575
945,0.784,38.084,23.959,32.421,31.956,5.07,6.384,7.698
946,0.797,38.181,23.901,32.43,31.959,5.111,6.466,7.78
947,0.82,37.914,23.904,32.44,31.97,5.152,6.507,7.7
948,0.813,38.055,23.908,32.431,31.956,5.031,6.345,7.699
949,0.823,38.152,23.931,32.421,31.952,4.989,6.384,7.618
950,0.836,38.211,23.947,32.411,31.956,5.029,6.385,7.657
951,0.83,37.77,23.943,32.411,31.959,5.03,6.385,7.698
952,0.826,37.919,23.901,32.411,31.959,5.03,6.344,7.74
953,0.826,38.064,23.927,32.421,31.956,5.03,6.343,7.699
954,0.836,38.075,23.932,32.411,31.949,5.07,6.384,7.78
955,0.843,37.865,23.986,32.421,31.959,5.03,6.385,7.781
956,0.826,38.035,23.874,32.43,31.959,5.07,6.303,7.781
957,0.817,38.113,23.896,32.411,31.956,4.948,6.262,7.659
958,0.807,37.999,23.857,32.402,31.945,4.907,6.18,7.698
959,0.784,37.873,23.935,32.392,31.949,4.906,6.261,7.943
960,0.784,38.006,23.932,32.401,31.956,5.028,6.302,7.823
961,0.787,38.142,23.936,32.392,31.956,5.03,6.262,7.903
962,0.793,37.884,23.916,32.392,31.952,4.989,6.302,7.863
963,0.777,37.959,23.912,32.42,31.952,4.988,6.302,7.782
964,0.787,38.103,23.928,32.402,31.949,5.029,6.262,7.862
965,0.78,38.172,23.978,32.392,31.952,4.989,6.221,7.863
966,0.764,37.789,23.877,32.392,31.949,4.948,6.18,7.904
967,0.796,37.91,23.892,32.449,31.945,4.988,6.22,7.823
968,0.79,38.045,23.881,32.411,31.952,4.988,6.302,7.944
969,0.8,38.114,23.916,32.402,31.959,5.07,6.343,7.986
970,0.816,37.846,23.92,32.449,31.966,5.111,6.384,7.986
971,0.829,38.016,23.959,32.431,31.966,5.152,6.425,7.946
972,0.833,38.152,23.928,32.421,31.959,5.031,6.304,7.986
973,0.826,38.201,23.932,32.411,31.956,4.989,6.343,7.783
974,0.82,37.866,23.939,32.402,31.959,4.948,6.303,7.862
975,0.813,38.006,23.982,32.411,31.952,5.069,6.343,7.944
976,0.813,38.123,23.924,32.411,31.956,4.989,6.384,7.823
977,0.803,38.21,23.893,32.411,31.956,5.07,6.344,7.863
978,0.794,37.722,23.904,32.411,31.956,5.03,6.384,7.782
979,0.793,37.861,23.931,32.421,31.959,5.151,6.385,7.74
980,0.78,37.987,23.936,32.43,31.959,5.031,6.344,7.781
981,0.787,38.027,23.932,32.43,31.952,5.07,6.343,7.659
982,0.793,37.797,23.92,32.402,31.945,4.908,6.221,7.576
983,0.777,37.967,23.9,32.401,31.942,4.825,6.261,7.657
984,0.774,38.027,23.904,32.382,31.938,4.905,6.302,7.658
985,0.777,38.334,23.959,32.401,31.949,4.987,6.302,7.658
986,0.784,37.8,23.877,32.401,31.952,4.988,6.343,7.536
987,0.8,37.948,23.927,32.401,31.945,4.948,6.303,7.575
988,0.8,38.065,23.889,32.392,31.952,4.988,6.262,7.535
989,0.797,37.788,23.904,32.382,31.952,4.988,6.262,7.534
990,0.79,37.833,23.947,32.392,31.945,4.988,6.262,7.494
991,0.797,37.977,23.936,32.382,31.945,4.907,6.221,7.453
992,0.8,38.065,23.893,32.372,31.945,4.947,6.261,7.412
993,0.813,37.711,23.892,32.382,31.949,4.988,6.302,7.452
994,0.813,37.823,23.951,32.411,31.963,5.07,6.343,7.534
995,0.813,37.977,23.983,32.43,31.97,5.152,6.425,7.616
996,0.823,38.094,23.889,32.44,31.966,5.153,6.304,7.454
997,0.817,37.683,23.9,32.431,31.956,5.031,6.262,7.493
998,0.79,37.803,23.904,32.411,31.959,5.03,6.302,7.494
999,0.787,37.919,23.994,32.411,31.959,5.03,6.302,7.494
1000,0.777,38.016,23.936,32.402,31.963,5.07,6.262,7.575
1001,0.767,37.749,23.971,32.392,31.956,5.07,6.262,7.616
1002,0.774,37.88,23.885,32.42,31.956,5.03,6.302,7.657
1003,0.774,38.026,23.919,32.421,31.966,5.03,6.302,7.698
1004,0.774,38.094,23.959,32.411,31.966,5.07,6.384,7.74
1005,0.777,37.683,23.932,32.421,31.956,5.07,6.263,7.699
1006,0.774,37.832,23.885,32.402,31.952,4.867,6.18,7.658
1007,0.784,37.929,23.908,32.392,31.942,4.906,6.179,7.698
1008,0.777,37.959,23.912,32.373,31.945,4.947,6.301,7.78
1009,0.797,37.691,23.935,32.392,31.959,4.988,6.302,7.822
1010,0.807,37.822,23.928,32.43,31.952,4.988,6.302,7.781
1011,0.803,37.958,23.971,32.392,31.949,4.988,6.262,7.822
1012,0.8,37.979,23.92,32.392,31.952,4.988,6.302,7.822
1013,0.797,37.653,23.92,32.382,31.945,4.907,6.262,7.863
1014,0.803,37.774,23.959,32.382,31.949,4.987,6.221,7.904
1015,0.8,37.89,23.889,32.392,31.952,4.988,6.22,7.904
1016,0.787,37.7,23.892,32.382,31.945,4.907,6.302,7.985
1017,0.78,37.602,23.904,32.382,31.952,4.987,6.302,7.986
1018,0.774,37.754,23.974,32.401,31.952,5.07,6.343,8.108
1019,0.79,37.881,24.022,32.43,31.966,5.152,6.384,8.15
1020,0.797,37.594,23.96,32.44,31.97,5.193,6.344,8.11
1021,0.794,37.687,23.979,32.411,31.966,5.072,6.303,8.028
1022,0.784,37.822,23.932,32.469,31.956,4.989,6.343,8.109
1023,0.774,37.9,23.916,32.421,31.956,4.988,6.262,8.109
1024,0.777,37.527,23.974,32.402,31.956,4.988,6.343,8.232
1025,0.78,37.658,23.916,32.411,31.956,5.029,6.303,8.151
1026,0.784,37.812,23.92,32.411,31.959,5.07,6.262,8.15
1027,0.793,37.891,23.881,32.402,31.956,5.03,6.343,8.069
1028,0.793,37.527,23.935,32.401,31.959,5.07,6.343,8.069
1029,0.793,37.648,23.975,32.392,31.956,5.07,6.343,8.109
1030,0.8,37.793,23.955,32.411,31.959,5.03,6.343,8.109
1031,0.807,37.862,24.002,32.421,31.956,5.03,6.303,7.947
1032,0.797,37.412,23.932,32.382,31.952,4.907,6.221,7.945
1033,0.797,37.541,23.897,32.382,31.942,4.906,6.22,7.905
1034,0.803,37.677,23.966,32.382,31.952,4.987,6.383,7.985
1035,0.803,37.707,23.924,32.382,31.952,5.029,6.385,7.946
1036,0.8,37.391,23.889,32.392,31.956,5.03,6.385,7.945
1037,0.787,37.532,23.888,32.392,31.949,4.989,6.425,7.905
1038,0.787,37.648,23.943,32.392,31.949,4.988,6.344,7.782
1039,0.79,37.659,23.99,32.373,31.949,5.029,6.425,7.781
1040,0.78,37.458,23.956,32.372,31.956,4.948,6.304,7.781
1041,0.764,37.59,23.959,32.363,31.956,4.988,6.384,7.781
1042,0.774,37.716,23.893,32.401,31.956,4.907,6.385,7.781
1043,0.777,37.803,23.896,32.43,31.963,5.069,6.547,7.903
1044,0.774,37.44,23.978,32.43,31.977,5.111,6.63,7.904
1045,0.777,37.599,23.967,32.43,31.966,5.152,6.509,7.782
1046,0.784,37.716,23.901,32.478,31.956,4.99,6.467,7.74
1047,0.787,37.314,23.892,32.393,31.949,4.988,6.386,7.699
1048,0.793,37.33,23.892,32.392,31.959,5.029,6.385,7.618
1049,0.797,37.464,23.951,32.411,31.959,5.03,6.466,7.657
1050,0.794,37.561,23.904,32.402,31.952,5.07,6.467,7.617
1051,0.806,37.294,23.97,32.401,31.952,5.111,6.507,7.576
1052,0.803,37.416,23.94,32.401,31.956,5.071,6.508,7.535
1053,0.826,37.57,23.92,32.411,31.959,5.07,6.427,7.534
1054,0.826,37.649,23.978,32.402,31.959,5.111,6.426,7.453
1055,0.826,37.17,23.913,32.392,31.959,4.989,6.426,7.412
1056,0.807,37.29,23.908,32.392,31.945,4.907,6.304,7.249
1057,0.787,37.416,23.896,32.363,31.949,4.906,6.302,7.328
1058,0.784,37.494,23.904,32.382,31.949,5.028,6.425,7.37
1059,0.79,37.188,23.966,32.392,31.949,4.948,6.385,7.248
1060,0.774,37.338,23.897,32.392,31.952,5.029,6.425,7.247
1061,0.777,37.493,23.959,32.373,31.949,4.989,6.344,7.247
1062,0.774,37.552,23.951,32.401,31.945,5.029,6.384,7.166
1063,0.761,37.179,23.936,32.392,31.952,4.989,6.385,7.165
1064,0.757,37.328,23.939,32.392,31.952,4.988,6.344,7.165
1065,0.767,37.445,23.92,32.382,31.956,4.988,6.384,7.124
1066,0.77,37.494,23.943,32.382,31.945,4.948,6.385,7.165
1067,0.78,37.226,23.893,32.372,31.952,5.069,6.507,7.165
1068,0.79,37.386,23.97,32.382,31.956,5.193,6.549,7.206
1069,0.8,37.512,23.971,32.411,31.959,5.194,6.63,7.247
1070,0.803,37.514,23.952,32.43,31.973,5.072,6.55,7.166
1071,0.813,37.197,23.959,32.402,31.956,5.03,6.508,7.084
1072,0.81,37.348,23.936,32.392,31.959,4.907,6.508,7.083
1073,0.81,37.445,23.904,32.373,31.959,5.028,6.508,7.083
1074,0.813,37.13,23.927,32.392,31.956,4.989,6.508,7.083
1075,0.803,37.059,23.889,32.392,31.959,5.029,6.508,7.083
1076,0.803,37.193,23.9,32.392,31.952,5.07,6.508,7.083
1077,0.8,37.338,23.924,32.401,31.952,5.07,6.589,7.205
1078,0.803,37.071,23.967,32.401,31.963,4.989,6.59,7.125
1079,0.797,37.174,23.94,32.401,31.959,5.11,6.631,7.165
1080,0.771,37.347,23.943,32.401,31.959,5.071,6.672,7.124
1081,0.774,37.416,23.951,32.401,31.963,4.989,6.509,7.002
1082,0.758,36.918,23.92,32.373,31.952,4.907,6.508,6.96
1083,0.764,37.047,23.877,32.372,31.945,4.865,6.386,6.96
1084,0.754,37.174,23.947,32.363,31.952,4.987,6.629,7.041
1085,0.757,37.261,23.901,32.401,31.949,4.988,6.59,7.123
1086,0.767,36.974,23.892,32.382,31.949,4.988,6.631,7.083
1087,0.78,37.125,23.912,32.372,31.952,4.988,6.55,7.083
1088,0.777,37.261,23.931,32.372,31.952,4.988,6.549,7.042
1089,0.784,37.31,23.982,32.382,31.952,4.988,6.549,7.042
1090,0.79,36.869,23.932,32.363,31.949,4.907,6.508,7.001
1091,0.79,37.009,23.943,32.363,31.949,4.906,6.508,7.001
1092,0.8,37.144,23.904,32.372,31.942,4.906,6.549,7.001
1093,0.797,37.203,23.904,32.353,31.955,5.028,6.59,7.082
1094,0.79,36.887,23.959,32.391,31.956,5.03,6.671,7.123
1095,0.813,37.066,23.873,32.411,31.966,5.111,6.713,7.246
1096,0.81,37.202,23.904,32.421,31.966,5.071,6.672,7.125
1097,0.79,37.213,23.888,32.382,31.952,4.989,6.631,7.124
1098,0.784,36.907,23.959,32.392,31.952,4.948,6.59,7.083
1099,0.777,37.028,23.979,32.363,31.956,4.988,6.631,7.083
1100,0.764,37.164,23.92,32.391,31.952,4.988,6.631,7.042
1101,0.761,37.136,23.951,32.373,31.956,4.988,6.631,7.042
1102,0.78,36.887,23.908,32.382,31.959,5.029,6.631,7.082
1103,0.8,37.047,23.924,32.392,31.952,5.07,6.672,7.123
1104,0.787,37.174,23.955,32.401,31.966,5.07,6.631,7.083
1105,0.767,36.772,23.866,32.392,31.959,4.989,6.59,6.961
1106,0.77,36.825,23.892,32.382,31.952,4.866,6.468,6.919
1107,0.777,36.951,23.877,32.353,31.945,4.865,6.507,6.959
1108,0.787,37.019,23.947,32.343,31.949,5.028,6.549,6.96
1109,0.797,36.646,23.936,32.372,31.949,4.989,6.508,7.041
1110,0.794,36.805,23.924,32.372,31.952,4.948,6.508,7.042
1111,0.803,36.931,23.928,32.392,31.956,4.988,6.549,7.001
1112,0.81,37.019,23.916,32.382,31.952,4.948,6.508,7.041
1113,0.816,36.77,23.92,32.353,31.952,4.988,6.549,7.001
1114,0.8,36.883,23.912,32.353,31.945,4.866,6.468,6.879
1115,0.803,37.028,23.924,32.43,31.949,4.987,6.467,6.918
1116,0.79,37.097,23.896,32.373,31.949,4.948,6.589,7.041
1117,0.784,36.656,23.947,32.363,31.966,5.029,6.753,7.042
1118,0.797,36.815,23.99,32.401,31.977,5.111,6.673,7.042
1119,0.8,36.979,23.956,32.401,31.959,5.071,6.55,6.92
1120,0.787,37.01,23.928,32.373,31.956,4.989,6.508,6.919
1121,0.774,36.636,23.9,32.372,31.956,5.029,6.549,6.959
1122,0.78,36.795,23.943,32.382,31.956,5.07,6.59,6.878
1123,0.774,36.922,23.904,32.372,31.959,5.07,6.59,6.959
1124,0.774,36.98,23.904,32.392,31.952,5.07,6.59,6.96
1125,0.767,36.78,23.916,32.392,31.959,5.152,6.631,7.0
1126,0.767,36.902,23.971,32.382,31.952,5.031,6.59,6.919
1127,0.78,37.009,23.948,32.382,31.963,5.111,6.59,6.919
1128,0.787,37.068,23.842,32.382,31.959,5.03,6.59,6.959
1129,0.787,36.704,23.868,32.392,31.949,5.03,6.59,6.838
1130,0.78,36.854,23.88,32.363,31.945,4.948,6.427,6.796
1131,0.78,36.932,23.904,32.353,31.945,4.907,6.507,6.877
1132,0.777,36.626,23.885,32.372,31.952,5.069,6.549,6.877
1133,0.79,36.642,23.88,32.372,31.956,4.989,6.549,6.918
1134,0.806,36.786,23.935,32.353,31.949,5.07,6.468,6.919
1135,0.8,36.883,23.971,32.353,31.949,5.111,6.467,6.878
1136,0.803,36.481,23.893,32.372,31.952,5.071,6.467,6.918
1137,0.787,36.602,23.869,32.372,31.956,4.989,6.467,6.878
1138,0.774,36.728,23.888,32.372,31.949,4.988,6.467,6.877
1139,0.784,36.825,23.962,32.344,31.949,5.029,6.426,6.918
1140,0.787,36.481,23.92,32.353,31.952,5.111,6.426,6.959
1141,0.764,36.64,23.951,32.372,31.952,5.152,6.629,7.082
1142,0.764,36.795,23.897,32.401,31.959,5.234,6.631,7.123
1143,0.787,36.893,23.923,32.411,31.963,5.235,6.631,7.083
1144,0.803,36.549,23.971,32.392,31.959,5.153,6.55,7.083
1145,0.781,36.679,23.959,32.373,31.956,5.071,6.468,7.083
1146,0.777,36.805,23.877,32.372,31.952,5.07,6.467,7.083
1147,0.774,36.864,23.904,32.363,31.952,5.03,6.426,7.042
1148,0.78,36.414,23.881,32.363,31.956,5.111,6.466,7.042
1149,0.787,36.553,23.931,32.353,31.952,5.152,6.426,7.204
1150,0.8,36.708,23.92,32.382,31.956,5.153,6.548,7.165
1151,0.79,36.748,23.955,32.382,31.959,5.153,6.468,7.206
1152,0.79,36.499,23.905,32.392,31.959,5.193,6.507,7.287
1153,0.81,36.641,23.896,32.392,31.952,5.153,6.508,7.207
1154,0.813,36.757,23.955,32.373,31.959,5.112,6.467,7.084
1155,0.813,36.768,23.901,32.344,31.945,4.989,6.386,7.083
1156,0.8,36.49,23.904,32.353,31.945,4.988,6.425,7.164
1157,0.781,36.65,23.888,32.343,31.952,5.07,6.507,7.287
1158,0.784,36.805,23.966,32.372,31.952,5.07,6.467,7.247
1159,0.8,36.615,23.955,32.372,31.956,5.152,6.507,7.166
1160,0.781,36.373,23.92,32.363,31.949,5.031,6.508,7.206
1161,0.774,36.524,23.951,32.363,31.949,5.07,6.549,7.247
1162,0.774,36.631,23.916,32.363,31.949,5.07,6.468,7.288
1163,0.774,36.441,23.9,32.363,31.949,4.989,6.507,7.288
1164,0.764,36.535,23.966,32.344,31.949,4.988,6.427,7.247
1165,0.77,36.66,23.897,32.353,31.949,5.07,6.426,7.288
1166,0.77,36.767,23.881,32.363,31.952,5.111,6.507,7.329
1167,0.78,36.231,23.919,32.372,31.963,5.152,6.549,7.41
1168,0.784,36.379,23.955,32.401,31.966,5.234,6.63,7.493
1169,0.8,36.534,23.971,32.392,31.973,5.235,6.59,7.331
1170,0.816,36.631,23.948,32.382,31.963,5.072,6.509,7.37
1171,0.8,36.326,23.916,32.363,31.956,5.111,6.467,7.37
1172,0.794,36.485,23.904,32.372,31.956,5.112,6.507,7.33
1173,0.813,36.612,23.904,32.344,31.956,5.112,6.467,7.329
1174,0.803,36.671,23.947,32.334,31.952,5.112,6.467,7.329
1175,0.807,36.278,23.85,32.382,31.959,5.112,6.507,7.289
1176,0.807,36.408,23.896,32.382,31.959,5.152,6.549,7.369
1177,0.8,36.553,23.947,32.372,31.963,5.031,6.59,7.33
1178,0.803,36.612,23.975,32.363,31.959,5.111,6.549,7.37
1179,0.794,36.21,23.909,32.372,31.963,5.03,6.549,7.289
1180,0.767,36.36,23.916,32.372,31.956,5.03,6.468,7.247
1181,0.764,36.467,23.935,32.344,31.945,5.03,6.345,7.166
1182,0.751,36.516,23.885,32.334,31.942,4.989,6.425,7.206
1183,0.748,36.219,23.896,32.334,31.949,5.029,6.507,7.369
1184,0.767,36.398,23.92,32.362,31.959,5.07,6.589,7.37
1185,0.78,36.525,23.85,32.372,31.952,5.03,6.468,7.37
1186,0.774,36.861,23.88,32.363,31.949,5.07,6.548,7.33
1187,0.784,36.289,23.904,32.363,31.945,4.989,6.468,7.248
1188,0.79,36.447,23.963,32.344,31.952,4.988,6.426,7.288
1189,0.787,36.554,23.858,32.343,31.949,5.029,6.466,7.288
1190,0.79,36.238,23.907,32.343,31.949,5.03,6.507,7.288
1191,0.787,36.197,23.9,32.353,31.956,4.989,6.508,7.369
1192,0.797,36.369,23.892,32.372,31.952,5.192,6.549,7.492
1193,0.803,36.496,23.92,32.372,31.966,5.153,6.671,7.453
1194,0.816,36.871,23.939,32.392,31.963,5.153,6.591,7.412
1195,0.823,37.018,23.928,32.373,31.956,5.071,6.549,7.33
1196,0.8,37.125,23.877,32.372,31.956,5.07,6.549,7.289
1197,0.79,37.213,23.927,32.363,31.952,5.07,6.508,7.329
1198,0.787,35.909,23.959,32.353,31.956,5.07,6.467,7.37
1199,0.784,36.04,23.885,32.353,31.956,5.111,6.507,7.289
1200,0.774,36.205,23.896,32.353,31.956,5.071,6.467,7.329
1201,0.774,36.292,23.912,32.353,31.956,5.03,6.548,7.289
1202,0.771,36.092,23.912,32.372,31.959,5.07,6.549,7.329
1203,0.77,36.234,23.92,32.382,31.959,5.111,6.59,7.329
1204,0.78,36.369,23.951,32.363,31.956,5.071,6.509,7.248
1205,0.777,36.448,23.803,32.363,31.952,4.908,6.386,7.166
1206,0.78,35.988,23.852,32.324,31.945,4.987,6.385,7.246
1207,0.78,36.098,23.911,32.343,31.949,5.029,6.425,7.247
1208,0.767,36.272,23.947,32.353,31.952,5.07,6.466,7.247
1209,0.793,36.332,23.873,32.363,31.959,5.03,6.467,7.247
1210,0.813,36.083,23.88,32.353,31.949,5.03,6.467,7.206
1211,0.8,36.234,23.88,32.353,31.952,5.03,6.467,7.165
1212,0.807,36.369,23.884,32.343,31.949,4.907,6.467,7.206
1213,0.816,36.371,23.931,32.343,31.956,5.028,6.426,7.125
1214,0.82,35.997,23.889,32.324,31.952,5.03,6.426,7.124
1215,0.82,36.166,23.884,32.324,31.949,5.03,6.466,7.124
1216,0.81,36.283,23.904,32.353,31.956,5.151,6.467,7.246
1217,0.79,36.159,23.931,32.363,31.97,5.153,6.589,7.288
1218,0.8,36.091,23.947,32.391,31.973,5.193,6.631,7.247
1219,0.807,36.263,23.912,32.401,31.966,5.112,6.55,7.206
1220,0.79,36.341,23.912,32.354,31.952,5.071,6.549,7.165
1221,0.78,35.949,23.912,32.372,31.956,5.111,6.508,7.165
1222,0.777,36.031,23.951,32.353,31.956,5.112,6.427,7.165
1223,0.771,36.176,23.916,32.353,31.956,5.112,6.466,7.287
1224,0.767,36.283,23.9,32.372,31.956,5.152,6.507,7.329
1225,0.767,35.891,23.92,32.363,31.963,5.153,6.549,7.37
1226,0.77,36.021,23.967,32.363,31.956,5.153,6.59,7.411
1227,0.78,36.147,23.924,32.353,31.956,5.112,6.59,7.533
1228,0.78,36.263,23.896,32.372,31.956,5.112,6.468,7.372
1229,0.8,35.938,23.896,32.344,31.949,5.071,6.426,7.33
1230,0.79,36.088,23.896,32.343,31.945,4.989,6.385,7.37
1231,0.79,36.195,23.904,32.334,31.942,4.988,6.425,7.533
1232,0.793,36.283,23.924,32.343,31.959,5.07,6.466,7.453
1233,0.803,35.823,23.935,32.343,31.956,5.03,6.467,7.452
1234,0.794,35.991,23.912,32.343,31.952,5.07,6.426,7.493
1235,0.793,36.108,23.994,32.343,31.952,5.152,6.507,7.575
1236,0.793,36.176,23.921,32.324,31.952,5.031,6.467,7.575
1237,0.793,35.87,23.885,32.381,31.945,5.03,6.426,7.616
1238,0.774,36.001,23.88,32.353,31.949,4.989,6.466,7.657
1239,0.774,36.127,23.884,32.324,31.949,4.948,6.426,7.82
1240,0.784,36.186,23.919,32.343,31.949,5.029,6.466,7.903
1241,0.774,35.89,23.912,32.353,31.959,5.111,6.629,7.985
1242,0.774,36.05,23.9,32.382,31.959,5.193,6.631,8.108
1243,0.771,36.214,23.916,32.392,31.97,5.194,6.59,8.069
1244,0.78,36.427,23.928,32.373,31.956,5.072,6.468,8.069
1245,0.774,35.892,23.955,32.353,31.959,5.152,6.467,8.028
1246,0.767,36.03,23.877,32.363,31.963,5.071,6.548,8.109
1247,0.78,36.137,23.9,32.344,31.959,5.152,6.549,8.109
1248,0.784,35.774,23.904,32.363,31.963,5.153,6.59,8.109
1249,0.78,35.78,23.92,32.353,31.956,5.193,6.549,8.109
1250,0.797,35.943,23.932,32.353,31.959,5.153,6.549,8.15
1251,0.807,36.041,23.947,32.363,31.956,5.112,6.59,8.15
1252,0.8,35.792,23.943,32.42,31.959,5.112,6.468,8.069
1253,0.803,35.914,23.881,32.354,31.956,5.112,6.386,8.028
1254,0.803,36.031,23.939,32.334,31.949,5.03,6.385,7.905
1255,0.797,36.109,23.928,32.314,31.945,4.989,6.303,8.026
1256,0.784,35.582,23.896,32.333,31.949,5.07,6.465,7.987
1257,0.787,35.74,23.923,32.334,31.956,5.07,6.386,8.027
1258,0.784,35.885,23.92,32.343,31.952,5.111,6.344,7.987
1259,0.787,35.954,23.959,32.353,31.956,4.989,6.384,7.986
1260,0.78,35.763,23.94,32.324,31.956,5.07,6.303,8.027
1261,0.784,35.924,23.959,32.334,31.949,5.111,6.343,7.946
1262,0.78,36.05,23.897,32.362,31.952,4.989,6.303,7.945
1263,0.751,36.109,23.896,32.324,31.952,5.029,6.384,7.945
1264,0.757,35.716,23.959,32.343,31.952,5.111,6.425,8.067
1265,0.767,35.856,23.897,32.353,31.952,5.112,6.466,8.109
1266,0.754,36.02,23.927,32.372,31.959,5.274,6.629,8.191
1267,0.783,36.089,23.924,32.372,31.966,5.195,6.59,8.11
1268,0.78,35.678,23.955,32.363,31.956,5.153,6.509,7.987
1269,0.784,35.817,23.955,32.344,31.952,5.153,6.549,7.986
1270,0.8,35.934,23.975,32.343,31.956,5.153,6.508,7.946
1271,0.8,35.945,23.991,32.343,31.952,5.153,6.549,7.986
1272,0.803,35.762,23.913,32.353,31.959,5.153,6.549,7.864
1273,0.82,35.933,23.896,32.353,31.956,5.153,6.508,7.863
1274,0.81,36.05,23.931,32.353,31.963,5.153,6.549,7.863
1275,0.794,36.07,23.885,32.353,31.956,5.153,6.549,7.863
1276,0.79,36.08,23.869,32.363,31.963,5.153,6.549,7.782
1277,0.787,36.205,23.896,32.344,31.959,5.112,6.508,7.74
1278,0.79,36.321,23.951,32.343,31.949,5.03,6.386,7.577
1279,0.78,35.44,23.944,32.315,31.945,4.989,6.385,7.535
1280,0.774,35.479,23.94,32.324,31.942,4.988,6.466,7.616
1281,0.774,35.614,23.963,32.343,31.955,5.11,6.507,7.617
1282,0.793,35.75,23.928,32.343,31.959,5.071,6.508,7.576
1283,0.797,35.511,23.889,32.343,31.949,5.111,6.508,7.616
1284,0.781,35.681,23.951,32.334,31.952,5.03,6.508,7.535
1285,0.767,35.827,23.901,32.343,31.952,5.03,6.427,7.453
1286,0.78,35.896,23.873,32.334,31.949,5.07,6.426,7.412
1287,0.784,35.417,23.869,32.314,31.949,5.03,6.385,7.371
1288,0.79,35.556,23.911,32.324,31.952,5.07,6.385,7.37
1289,0.79,35.711,23.982,32.334,31.949,5.111,6.588,7.452
1290,0.8,35.798,23.932,32.353,31.959,5.152,6.59,7.493
1291,0.807,35.646,23.955,32.363,31.963,5.275,6.631,7.453
1292,0.82,35.836,23.944,32.391,31.966,5.154,6.55,7.33
1293,0.826,35.934,23.897,32.353,31.956,5.153,6.427,7.289
1294,0.807,35.973,23.951,32.343,31.956,5.112,6.507,7.247
1295,0.794,35.446,23.854,32.343,31.956,5.03,6.467,7.288
1296,0.787,35.614,23.9,32.343,31.956,5.151,6.507,7.247
1297,0.784,35.721,23.896,32.343,31.956,5.112,6.467,7.206
1298,0.78,35.789,23.931,32.353,31.956,5.152,6.589,7.206
1299,0.764,35.646,23.978,32.353,31.952,5.112,6.509,7.125
1300,0.757,35.798,23.916,32.343,31.952,5.112,6.508,7.205
1301,0.774,35.924,23.974,32.353,31.959,5.112,6.467,7.165
1302,0.774,35.973,23.92,32.353,31.956,5.071,6.548,7.084
1303,0.761,35.485,23.889,32.334,31.949,4.989,6.386,6.961
1304,0.754,35.595,23.923,32.314,31.952,5.029,6.466,7.041
1305,0.767,35.721,23.873,32.333,31.952,5.07,6.467,7.082
1306,0.774,35.501,23.892,32.334,31.952,5.03,6.467,7.083
1307,0.793,35.566,23.873,32.353,31.952,5.07,6.467,7.042
1308,0.79,35.692,23.947,32.334,31.945,5.03,6.467,7.001
1309,0.774,35.779,23.943,32.334,31.949,4.989,6.345,6.96
1310,0.79,35.435,23.912,32.343,31.949,4.988,6.425,7.0
1311,0.793,35.546,23.92,32.315,31.952,4.907,6.466,6.96
1312,0.78,35.701,23.892,32.333,31.949,4.987,6.386,7.0
1313,0.784,35.789,23.92,32.314,31.945,5.07,6.507,7.041
1314,0.8,35.32,23.928,32.353,31.966,5.152,6.589,7.123
1315,0.81,35.497,23.947,32.42,31.963,5.153,6.631,7.124
1316,0.807,35.653,23.904,32.354,31.966,5.031,6.428,6.961
1317,0.794,35.712,23.947,32.334,31.956,5.03,6.385,7.0
1318,0.771,35.415,23.975,32.324,31.956,5.03,6.425,6.96
1319,0.78,35.556,23.881,32.334,31.952,5.07,6.507,6.96
1320,0.777,35.711,23.904,32.343,31.956,5.03,6.427,7.0
1321,0.787,35.779,23.904,32.334,31.959,5.07,6.426,7.041
1322,0.777,35.387,23.92,32.334,31.963,5.111,6.466,7.042
1323,0.774,35.546,23.939,32.372,31.952,5.112,6.467,7.082
1324,0.764,35.682,23.92,32.344,31.956,5.112,6.426,7.083
1325,0.764,35.741,23.9,32.42,31.959,5.03,6.385,6.961
1326,0.764,35.319,23.888,32.325,31.949,4.948,6.303,6.878
1327,0.787,35.459,23.912,32.305,31.945,4.866,6.302,6.837
1328,0.78,35.566,23.947,32.295,31.945,4.987,6.343,6.918
1329,0.78,35.577,23.904,32.324,31.952,4.988,6.343,6.919
1330,0.797,35.404,23.888,32.334,31.956,5.029,6.303,6.878
1331,0.794,35.527,23.884,32.334,31.952,5.03,6.302,6.959
1332,0.79,35.643,23.888,32.343,31.945,4.989,6.302,6.838
1333,0.813,35.376,23.919,32.324,31.952,4.988,6.302,6.877
1334,0.813,35.306,23.896,32.305,31.952,4.948,6.302,6.837
1335,0.797,35.459,23.896,32.314,31.945,4.907,6.221,6.837
1336,0.807,35.566,23.881,32.305,31.959,4.947,6.302,6.877
1337,0.794,35.26,23.935,32.314,31.949,5.069,6.343,6.918
1338,0.787,35.391,23.967,32.333,31.959,5.111,6.384,7.081
1339,0.793,35.546,23.893,32.362,31.97,5.112,6.425,7.083
1340,0.774,35.643,23.912,32.363,31.963,5.112,6.344,7.083
1341,0.774,35.242,23.908,32.353,31.959,4.989,6.343,6.961
1342,0.771,35.391,23.904,32.324,31.952,5.029,6.303,6.96
1343,0.764,35.508,23.943,32.334,31.963,4.948,6.343,7.082
1344,0.761,35.585,23.94,32.334,31.952,5.029,6.384,7.002
1345,0.77,35.222,23.924,32.372,31.956,5.03,6.303,7.001
1346,0.774,35.391,23.9,32.334,31.949,4.989,6.343,6.96
1347,0.793,35.517,23.951,32.334,31.959,5.029,6.303,7.0
1348,0.787,35.586,23.986,32.353,31.959,5.03,6.343,7.041
1349,0.793,35.222,23.94,32.334,31.959,5.03,6.343,6.92
1350,0.803,35.381,23.92,32.324,31.956,5.03,6.181,6.919
1351,0.8,35.508,23.935,32.334,31.945,4.907,6.098,6.837
1352,0.803,35.557,23.889,32.305,31.942,4.865,6.178,6.877
1353,0.8,35.241,23.88,32.295,31.949,4.906,6.261,6.918
1354,0.807,35.381,23.943,32.314,31.956,4.947,6.262,6.919
1355,0.813,35.546,23.838,32.333,31.952,4.947,6.302,6.878
1356,0.816,35.586,23.876,32.324,31.952,4.988,6.302,6.877
1357,0.797,35.164,23.912,32.314,31.952,4.988,6.18,6.837
1358,0.8,35.313,23.943,32.324,31.956,4.948,6.261,6.877
1359,0.794,35.43,23.947,32.305,31.945,4.907,6.302,6.918
1360,0.787,35.45,23.916,32.285,31.945,4.947,6.18,6.919
1361,0.787,35.201,23.947,32.295,31.949,4.947,6.22,6.959
1362,0.787,35.371,23.893,32.324,31.949,5.069,6.302,7.082
1363,0.8,35.507,23.927,32.362,31.963,5.193,6.465,7.286
1364,0.8,35.154,23.928,32.372,31.973,5.112,6.345,7.085
1365,0.82,35.208,23.865,32.353,31.956,4.949,6.262,7.083
1366,0.813,35.324,23.857,32.343,31.956,5.029,6.262,7.123
1367,0.823,35.43,23.857,32.334,31.952,4.989,6.302,7.083
1368,0.83,35.077,23.927,32.324,31.956,5.029,6.302,7.083
1369,0.817,35.178,23.916,32.334,31.952,5.03,6.302,7.164
1370,0.842,35.342,23.928,32.334,31.959,4.907,6.302,7.206
1371,0.856,35.45,23.955,32.334,31.959,5.028,6.343,7.165
1372,0.866,35.058,23.92,32.353,31.959,4.989,6.303,7.165
1373,0.879,35.217,23.916,32.334,31.956,5.029,6.302,7.124
1374,0.889,35.343,23.943,32.314,31.952,5.03,6.343,7.083
1375,0.876,35.421,23.85,32.324,31.956,4.948,6.303,6.961
1376,0.879,35.057,23.861,32.314,31.949,4.866,6.18,6.96
1377,0.866,35.197,23.9,32.305,31.942,4.906,6.22,7.082
1378,0.862,35.371,23.931,32.314,31.952,4.987,6.302,7.083
1379,0.859,35.421,23.92,32.333,31.945,4.988,6.302,7.164
1380,0.866,34.952,23.912,32.324,31.959,4.988,6.343,7.124
1381,0.866,35.11,23.959,32.305,31.949,4.948,6.384,7.043
1382,0.866,35.246,23.908,32.324,31.956,4.947,6.385,7.082
1383,0.872,35.286,23.873,32.334,31.956,4.907,6.385,7.123
1384,0.872,35.152,23.931,32.305,31.952,4.906,6.303,7.205
1385,0.866,35.294,23.857,32.295,31.949,4.906,6.343,7.165
1386,0.866,35.411,23.884,32.305,31.945,4.947,6.466,7.124
1387,0.885,35.421,23.884,32.324,31.949,5.11,6.548,7.246
1388,0.892,34.952,23.923,32.334,31.959,5.152,6.508,7.328
1389,0.915,35.12,23.932,32.353,31.97,5.153,6.589,7.289
1390,0.922,35.256,23.932,32.343,31.959,5.031,6.468,7.166
1391,0.909,35.094,23.947,32.324,31.956,4.989,6.426,7.206
1392,0.918,35.102,23.897,32.314,31.956,5.029,6.466,7.206
1393,0.935,35.275,23.92,32.333,31.952,4.989,6.426,7.206
1394,0.941,35.363,23.939,32.324,31.956,5.029,6.466,7.165
1395,0.919,34.961,23.932,32.324,31.959,4.989,6.507,7.084
1396,0.915,35.081,23.893,32.324,31.959,5.029,6.549,7.083
1397,0.918,35.226,23.888,32.324,31.956,5.03,6.508,7.123
1398,0.909,35.324,23.927,32.343,31.959,4.989,6.508,7.165
1399,0.912,34.865,23.904,32.324,31.963,4.988,6.427,7.124
1400,0.882,35.013,23.912,32.353,31.952,4.907,6.344,7.002
1401,0.872,35.159,23.904,32.286,31.949,4.906,6.303,6.96
1402,0.872,35.208,23.9,32.295,31.945,4.825,6.384,7.122
1403,0.889,34.892,23.912,32.314,31.949,4.987,6.466,7.124
1404,0.892,35.081,23.943,32.324,31.956,5.029,6.426,7.205
1405,0.899,35.236,23.881,32.314,31.952,4.907,6.385,7.165
1406,0.905,35.305,23.865,32.324,31.949,4.865,6.303,7.124
1407,0.915,34.999,23.931,32.314,31.956,4.865,6.302,7.083
1408,0.912,35.149,23.947,32.295,31.945,4.946,6.302,7.002
1409,0.931,35.265,23.92,32.295,31.949,4.907,6.384,7.041
1410,0.912,35.343,23.9,32.305,31.945,4.906,6.303,7.042
1411,0.918,34.855,23.884,32.305,31.956,4.947,6.425,7.164
1412,0.925,35.032,23.888,32.333,31.963,5.069,6.507,7.246
1413,0.931,35.178,23.908,32.343,31.966,5.03,6.508,7.125
1414,0.938,35.227,23.924,32.334,31.959,4.948,6.427,7.043
1415,0.935,34.911,23.885,32.324,31.949,4.947,6.426,7.123
1416,0.948,35.043,23.88,32.324,31.952,4.988,6.507,7.083
1417,0.915,35.188,23.927,32.305,31.952,4.948,6.427,7.083
1418,0.912,35.103,23.963,32.314,31.952,4.988,6.466,7.083
1419,0.902,34.939,23.858,32.333,31.959,4.948,6.507,7.042
1420,0.905,35.1,23.876,32.362,31.956,5.029,6.589,7.042
1421,0.905,35.217,23.912,32.324,31.952,5.03,6.387,7.042
1422,0.895,34.902,23.885,32.334,31.952,4.989,6.507,7.001
1423,0.892,34.975,23.896,32.324,31.949,4.948,6.386,6.96
1424,0.879,35.101,23.916,32.295,31.945,4.947,6.344,6.838
1425,0.866,35.179,23.889,32.285,31.935,4.866,6.343,6.877
1426,0.859,34.729,23.853,32.304,31.952,4.865,6.425,7.0
1427,0.872,34.878,23.911,32.314,31.952,4.987,6.426,6.879
1428,0.876,35.033,23.97,32.305,31.959,4.988,6.385,6.877
1429,0.866,35.111,23.885,32.324,31.949,4.988,6.385,6.959
1430,0.866,34.747,23.908,32.305,31.956,4.988,6.385,6.838
1431,0.872,34.887,23.873,32.314,31.945,4.948,6.385,6.837
1432,0.866,35.033,23.896,32.305,31.942,4.866,6.425,6.837
1433,0.856,35.101,23.916,32.285,31.945,4.906,6.344,6.877
1434,0.862,34.709,23.896,32.276,31.949,4.865,6.384,6.837
1435,0.859,34.868,23.892,32.314,31.952,4.906,6.385,6.918
1436,0.846,35.023,23.884,32.295,31.952,4.987,6.507,6.919
1437,0.827,35.101,23.935,32.333,31.973,5.07,6.549,7.041
1438,0.823,34.814,23.936,32.343,31.973,5.07,6.549,6.96
1439,0.826,34.965,23.9,32.324,31.952,4.948,6.508,6.838
1440,0.804,35.081,23.888,32.305,31.952,4.907,6.427,6.877
1441,0.787,35.121,23.9,32.314,31.956,4.947,6.507,6.918
1442,0.761,34.709,23.9,32.324,31.952,4.947,6.467,6.878
1443,0.767,34.858,23.924,32.314,31.952,4.947,6.548,7.0
1444,0.754,34.975,23.924,32.295,31.952,4.907,6.549,6.879
1445,0.748,35.321,23.896,32.305,31.956,4.987,6.468,6.877
1446,0.747,34.778,23.888,32.324,31.959,4.907,6.548,6.877
1447,0.754,34.907,23.939,32.324,31.963,4.987,6.549,6.877
1448,0.751,35.033,23.979,32.295,31.956,4.866,6.508,6.715
1449,0.748,34.727,23.866,32.285,31.945,4.824,6.305,6.754
1450,0.751,34.705,23.869,32.295,31.942,4.783,6.425,6.754
1451,0.741,34.839,23.837,32.295,31.945,4.986,6.426,6.836
1452,0.767,34.994,23.857,32.314,31.956,4.907,6.426,6.877
1453,0.774,34.554,23.919,32.314,31.949,4.906,6.466,6.877
1454,0.774,34.665,23.869,32.295,31.959,4.906,6.426,6.877
1455,0.774,34.839,23.888,32.295,31.949,4.906,6.344,6.837
1456,0.764,34.898,23.873,32.295,31.949,4.825,6.343,6.958
1457,0.754,34.592,23.912,32.295,31.949,4.905,6.343,6.919
1458,0.757,34.742,23.951,32.305,31.949,4.825,6.303,6.919
1459,0.757,34.887,23.877,32.314,31.959,4.946,6.425,7.122
1460,0.735,34.994,23.912,32.314,31.963,5.069,6.426,7.205
1461,0.741,34.65,23.861,32.333,31.966,5.03,6.507,7.206
1462,0.751,34.839,23.896,32.334,31.966,4.989,6.467,7.043
1463,0.751,34.975,23.959,32.314,31.956,4.948,6.345,7.164
1464,0.731,35.014,23.897,32.324,31.956,4.907,6.425,7.165
1465,0.738,34.583,23.896,32.334,31.956,4.906,6.385,7.124
1466,0.741,34.752,23.873,32.324,31.959,4.947,6.385,7.165
1467,0.744,34.888,23.923,32.314,31.956,4.988,6.385,7.165
1468,0.741,34.927,23.912,32.324,31.959,4.988,6.466,7.246
1469,0.754,34.611,23.896,32.314,31.959,4.866,6.426,7.206
1470,0.764,34.781,23.908,32.362,31.959,4.987,6.466,7.247
1471,0.767,34.926,23.885,32.315,31.959,4.948,6.426,7.206
1472,0.774,34.947,23.947,32.314,31.959,4.988,6.385,7.247
1473,0.784,34.602,23.885,32.305,31.949,4.866,6.344,7.125
1474,0.771,34.742,23.88,32.276,31.949,4.824,6.262,7.083
1475,0.761,34.839,23.931,32.276,31.949,4.865,6.343,7.164
1476,0.748,34.716,23.885,32.285,31.952,4.824,6.425,7.165
1477,0.741,34.619,23.756,32.333,31.956,4.946,6.426,7.246
1478,0.754,34.781,23.848,32.305,31.956,4.947,6.466,7.247
1479,0.751,34.907,23.884,32.314,31.952,4.907,6.467,7.206
1480,0.744,34.553,23.865,32.295,31.952,4.906,6.386,7.165
1481,0.751,34.646,23.923,32.295,31.952,4.947,6.385,7.165
1482,0.754,34.771,23.865,32.314,31.949,4.907,6.425,7.246
1483,0.738,34.907,23.88,32.286,31.942,4.906,6.426,7.206
1484,0.725,34.477,23.923,32.295,31.949,4.865,6.344,7.247
1485,0.728,34.635,23.935,32.295,31.949,4.906,6.425,7.288
1486,0.734,34.781,23.861,32.324,31.956,4.987,6.548,7.329
1487,0.738,34.888,23.876,32.314,31.963,5.029,6.59,7.41
1488,0.751,34.515,23.888,32.324,31.963,5.111,6.549,7.289
1489,0.764,34.684,23.931,32.324,31.959,5.071,6.427,7.207
1490,0.764,34.801,23.912,32.314,31.959,4.948,6.507,7.206
1491,0.77,34.859,23.935,32.314,31.959,4.988,6.467,7.206
1492,0.764,34.371,23.912,32.314,31.952,4.988,6.467,7.287
1493,0.767,34.538,23.892,32.324,31.959,4.988,6.467,7.207
1494,0.783,34.684,23.959,32.314,31.952,4.988,6.467,7.206
1495,0.764,34.772,23.869,32.295,31.956,4.988,6.548,7.165
1496,0.761,34.523,23.9,32.314,31.956,4.988,6.386,7.165
1497,0.748,34.674,23.896,32.324,31.959,5.029,6.466,7.165
1498,0.747,34.82,23.927,32.324,31.952,5.03,6.467,7.084
1499,0.744,34.859,23.963,32.305,31.952,5.07,6.386,7.002
1500,0.728,34.467,23.901,32.285,31.945,4.908,6.303,7.001
1501,0.702,34.616,23.92,32.276,31.942,4.865,6.384,6.96
1502,0.685,34.723,23.889,32.285,31.949,4.946,6.425,7.0
1503,0.675,35.041,23.865,32.304,31.952,4.988,6.426,7.041
1504,0.672,34.545,23.923,32.324,31.959,5.029,6.426,7.001
1505,0.649,34.694,23.861,32.305,31.959,4.989,6.385,6.96
1506,0.646,34.82,23.865,32.314,31.945,4.988,6.425,6.96
1507,0.668,34.447,23.896,32.295,31.949,4.907,6.466,6.838
1508,0.695,34.443,23.935,32.295,31.949,4.987,6.426,6.877
1509,0.701,34.587,23.916,32.276,31.945,4.988,6.466,6.918
1510,0.714,34.713,23.9,32.285,31.952,5.029,6.548,7.0
1511,0.734,34.504,23.939,32.314,31.952,5.07,6.59,7.001
1512,0.751,34.674,23.908,32.333,31.966,5.111,6.671,7.082
1513,0.78,34.829,23.896,32.334,31.963,5.112,6.631,7.002
1514,0.81,34.927,23.935,32.324,31.952,5.03,6.55,6.96
1515,0.839,34.295,23.834,32.295,31.956,4.948,6.59,6.838
1516,0.885,34.451,23.876,32.314,31.949,5.069,6.549,6.877
1517,0.908,34.597,23.892,32.314,31.952,4.989,6.63,6.918
1518,0.954,34.694,23.955,32.295,31.956,5.029,6.631,6.878
1519,1.013,34.446,23.932,32.295,31.959,5.07,6.672,6.918
1520,1.049,34.606,23.924,32.314,31.956,5.111,6.631,6.919
1521,1.095,34.733,23.935,32.305,31.959,5.071,6.55,6.919
1522,1.141,34.82,23.9,32.305,31.952,4.989,6.63,6.919
1523,1.178,34.351,23.896,32.314,31.959,4.988,6.59,6.796
1524,1.204,34.51,23.927,32.286,31.945,4.988,6.468,6.714
1525,1.263,34.636,23.846,32.276,31.938,4.948,6.426,6.794
1526,1.332,34.675,23.853,32.285,31.952,5.029,6.588,6.795
1527,1.407,34.369,23.919,32.295,31.956,5.03,6.549,6.795
1528,1.44,34.519,23.943,32.276,31.959,5.03,6.508,6.877
1529,1.463,34.646,23.912,32.304,31.949,4.989,6.508,6.877
1530,1.464,34.675,23.92,32.285,31.949,5.029,6.508,6.918
1531,1.49,34.446,23.9,32.285,31.952,4.948,6.508,6.959
1532,1.542,34.616,23.865,32.295,31.952,4.947,6.549,6.96
1533,1.569,34.742,23.872,32.285,31.945,4.907,6.508,7.041
1534,1.592,34.446,23.904,32.285,31.949,5.069,6.508,7.123
1535,1.628,34.319,23.775,32.324,31.959,5.07,6.63,7.205
1536,1.644,34.509,23.875,32.334,31.966,5.193,6.631,7.409
1537,1.661,34.636,23.927,32.324,31.963,4.99,6.59,7.411
1538,1.7,34.321,23.982,32.314,31.956,4.948,6.549,7.452
1539,1.704,34.394,23.928,32.314,31.959,4.988,6.59,7.493
1540,1.694,34.548,23.92,32.305,31.949,4.988,6.549,7.575
1541,1.668,34.655,23.912,32.295,31.952,5.07,6.549,7.657
1542,1.648,34.225,23.904,32.305,31.952,5.03,6.59,7.78
1543,1.589,34.364,23.9,32.305,31.956,4.989,6.59,7.822
1544,1.517,34.519,23.947,32.324,31.956,5.029,6.631,8.066
1545,1.458,34.607,23.901,32.314,31.959,5.07,6.631,8.353
1546,1.415,34.157,23.884,32.295,31.963,5.07,6.59,8.722
1547,1.349,34.316,23.888,32.295,31.952,4.989,6.549,9.091
1548,1.248,34.423,23.939,32.285,31.938,4.948,6.468,9.624
1549,1.156,34.491,23.893,32.276,31.938,4.907,6.548,10.239
1550,1.103,34.31,23.896,32.295,31.955,5.069,6.468,10.774
1551,1.063,34.461,23.908,32.295,31.949,4.948,6.507,11.429
1552,1.014,34.626,23.896,32.285,31.952,4.947,6.508,12.005
1553,0.975,34.666,23.912,32.285,31.956,4.988,6.549,12.458
1554,0.951,34.148,23.92,32.295,31.952,4.948,6.468,12.747
1555,0.935,34.325,23.877,32.352,31.949,4.907,6.467,13.116
1556,0.896,34.452,23.849,32.305,31.949,4.987,6.386,13.404
1557,0.856,34.482,23.907,32.285,31.945,4.948,6.466,13.692
1558,0.83,34.271,23.912,32.285,31.952,4.988,6.507,13.857
1559,0.839,34.442,23.92,32.304,31.963,5.029,6.63,13.981
1560,0.826,34.587,23.896,32.314,31.97,5.07,6.59,13.982
1561,0.823,34.665,23.904,32.314,31.963,5.07,6.427,13.982
1562,0.797,34.177,23.904,32.305,31.952,4.989,6.507,13.942
1563,0.797,34.326,23.896,32.295,31.956,5.029,6.508,14.022
1564,0.803,34.442,23.943,32.295,31.956,4.989,6.467,14.186
1565,0.807,34.223,23.881,32.305,31.952,4.988,6.467,14.228
1566,0.82,34.288,23.9,32.305,31.956,4.988,6.548,14.432
1567,0.846,34.461,23.904,32.305,31.956,5.029,6.508,14.759
1568,0.869,34.539,23.931,32.305,31.959,4.989,6.549,15.088
1569,0.863,34.569,23.916,32.314,31.963,5.07,6.468,15.416
1570,0.875,34.742,23.885,32.324,31.956,5.03,6.467,15.826
1571,0.853,34.859,23.908,32.295,31.949,4.948,6.345,15.993
1572,0.849,34.946,23.885,32.285,31.949,4.866,6.262,16.239
1573,0.83,33.844,23.9,32.276,31.949,4.906,6.424,16.526
1574,0.843,34.015,23.908,32.295,31.949,4.987,6.385,16.732
1575,0.853,34.18,23.927,32.362,31.956,4.948,6.385,16.774
1576,0.859,34.259,23.881,32.286,31.949,4.907,6.385,16.856
1577,0.853,34.163,23.939,32.285,31.949,4.906,6.303,16.816
1578,0.827,34.325,23.955,32.295,31.952,4.947,6.302,16.694
1579,0.83,34.452,23.881,32.305,31.949,4.907,6.302,16.571
1580,0.81,34.539,23.896,32.285,31.949,4.825,6.302,16.325
1581,0.816,34.061,23.865,32.276,31.949,4.905,6.343,16.242
1582,0.797,34.238,23.865,32.304,31.949,4.987,6.466,16.16
1583,0.8,34.403,23.915,32.333,31.959,5.07,6.548,15.956
1584,0.803,34.472,23.928,32.324,31.966,5.07,6.549,15.709
1585,0.8,34.185,23.916,32.372,31.952,5.03,6.468,15.341
1586,0.803,34.335,23.881,32.286,31.959,4.989,6.426,15.175
1587,0.8,34.433,23.951,32.314,31.952,4.988,6.466,14.848
1588,0.807,34.462,23.971,32.305,31.959,4.948,6.467,14.641
1589,0.803,34.175,23.905,32.295,31.949,4.988,6.467,14.477
1590,0.8,34.335,23.888,32.314,31.959,4.988,6.386,14.19
1591,0.807,34.471,23.912,32.305,31.959,4.988,6.466,14.025
1592,0.807,34.242,23.873,32.314,31.959,4.988,6.507,13.698
1593,0.81,34.154,23.904,32.314,31.952,4.907,6.467,13.492
1594,0.826,34.306,23.931,32.295,31.952,4.865,6.386,13.286
1595,0.82,34.432,23.893,32.285,31.945,4.865,6.303,12.959
1596,0.813,34.108,23.884,32.257,31.942,4.743,6.302,12.711
1597,0.797,34.2,23.939,32.275,31.949,4.905,6.384,12.668
1598,0.794,34.383,23.947,32.295,31.956,4.947,6.425,12.505
1599,0.797,34.491,23.885,32.295,31.949,4.947,6.426,12.26
1600,0.797,34.003,23.877,32.295,31.952,4.907,6.344,12.176
1601,0.781,34.151,23.892,32.285,31.952,4.865,6.466,11.931
1602,0.78,34.297,23.857,32.276,31.945,4.946,6.345,11.848
1603,0.784,34.394,23.896,32.295,31.945,4.866,6.384,11.643
1604,0.771,34.136,23.892,32.285,31.945,4.865,6.385,11.519
1605,0.78,34.277,23.873,32.285,31.945,4.906,6.425,11.477
1606,0.78,34.442,23.865,32.314,31.956,5.028,6.507,11.396
1607,0.79,34.539,23.923,32.324,31.966,5.07,6.589,11.273
1608,0.806,34.042,23.963,32.343,31.959,5.07,6.549,11.109
1609,0.803,34.228,23.924,32.343,31.959,4.989,6.427,10.863
1610,0.807,34.336,23.889,32.295,31.956,4.907,6.344,10.82
1611,0.813,34.385,23.861,32.305,31.952,4.906,6.384,10.657
1612,0.81,34.107,23.876,32.305,31.952,4.947,6.385,10.493
1613,0.807,34.258,23.915,32.314,31.952,4.947,6.425,10.491
1614,0.826,34.403,23.896,32.305,31.952,4.988,6.385,10.369
1615,0.813,34.443,23.873,32.305,31.959,4.907,6.425,10.206
1616,0.81,34.012,23.865,32.314,31.956,4.987,6.385,10.163
1617,0.807,34.18,23.931,32.314,31.956,4.948,6.344,10.0
1618,0.81,34.316,23.928,32.295,31.949,4.825,6.221,9.755
1619,0.803,34.404,23.857,32.266,31.938,4.865,6.22,9.671
1620,0.79,34.261,23.88,32.266,31.942,4.824,6.342,9.629
1621,0.777,34.432,23.88,32.295,31.952,4.946,6.262,9.588
1622,0.787,34.558,23.884,32.295,31.952,4.947,6.302,9.507
1623,0.803,34.051,23.916,32.295,31.952,4.907,6.302,9.425
1624,0.787,34.085,23.912,32.295,31.952,4.906,6.262,9.342
1625,0.78,34.248,23.888,32.314,31.949,4.865,6.302,9.26
1626,0.774,34.346,23.88,32.295,31.949,4.865,6.262,9.097
1627,0.793,33.934,23.908,32.285,31.945,4.824,6.262,9.014
1628,0.79,34.055,23.912,32.285,31.949,4.905,6.302,9.013
1629,0.8,34.209,23.873,32.304,31.956,5.028,6.384,9.054
1630,0.813,34.336,23.865,32.314,31.959,5.03,6.466,9.054
1631,0.826,34.107,23.841,32.343,31.963,5.03,6.467,8.932
1632,0.83,34.258,23.88,32.324,31.952,4.989,6.345,8.768
1633,0.833,34.374,23.908,32.286,31.952,4.907,6.303,8.685
1634,0.83,34.462,23.873,32.295,31.956,4.987,6.262,8.684
1635,0.817,33.878,23.869,32.305,31.952,4.948,6.302,8.562
1636,0.829,34.025,23.876,32.285,31.952,4.988,6.343,8.521
1637,0.817,34.18,23.915,32.295,31.956,4.988,6.343,8.52
1638,0.797,34.23,23.951,32.295,31.956,4.948,6.343,8.479
1639,0.803,33.981,23.865,32.305,31.956,4.988,6.384,8.479
1640,0.8,34.161,23.88,32.305,31.956,4.907,6.425,8.276
1641,0.8,34.297,23.861,32.295,31.949,4.987,6.304,8.274
1642,0.807,34.336,23.865,32.295,31.945,4.866,6.262,8.111
1643,0.807,34.059,23.896,32.257,31.942,4.865,6.221,8.191
1644,0.774,34.2,23.884,32.295,31.945,4.946,6.342,8.11
1645,0.784,34.374,23.888,32.285,31.945,4.907,6.303,8.069
1646,0.8,34.385,23.861,32.295,31.952,4.865,6.302,7.987
1647,0.803,33.973,23.927,32.285,31.952,4.865,6.302,7.986
1648,0.803,34.122,23.932,32.285,31.945,4.906,6.343,7.905
1649,0.803,34.229,23.857,32.266,31.949,4.906,6.343,7.823
1650,0.813,33.981,23.884,32.256,31.938,4.784,6.262,7.863
1651,0.829,33.95,23.865,32.256,31.945,4.864,6.302,7.782
1652,0.826,34.122,23.865,32.295,31.949,4.906,6.384,7.862
1653,0.826,34.258,23.908,32.285,31.959,5.028,6.507,7.904
1654,0.836,33.972,23.892,32.304,31.963,5.111,6.508,7.863
1655,0.849,34.122,23.908,32.314,31.966,5.03,6.345,7.741
1656,0.836,34.248,23.896,32.295,31.956,4.948,6.343,7.74
1657,0.804,34.346,23.927,32.285,31.952,4.947,6.303,7.659
1658,0.803,33.81,23.9,32.285,31.952,4.947,6.343,7.617
1659,0.81,33.948,23.818,32.295,31.956,4.988,6.262,7.698
1660,0.807,34.112,23.86,32.285,31.959,4.948,6.302,7.658
1661,0.797,34.191,23.868,32.276,31.956,4.988,6.302,7.698
1662,0.803,33.913,23.869,32.285,31.956,5.029,6.343,7.658
1663,0.807,34.045,23.927,32.276,31.952,5.03,6.303,7.617
1664,0.8,34.19,23.904,32.304,31.959,4.989,6.262,7.576
1665,0.794,34.268,23.877,32.285,31.956,4.948,6.262,7.494
1666,0.8,33.818,23.873,32.266,31.945,4.825,6.18,7.371
1667,0.807,33.958,23.912,32.237,31.942,4.824,6.179,7.452
1668,0.823,34.074,23.924,32.266,31.949,4.946,6.22,7.452
1669,0.813,34.162,23.826,32.266,31.956,4.947,6.261,7.452
1670,0.82,33.904,23.868,32.275,31.949,4.988,6.262,7.371
1671,0.82,34.045,23.841,32.266,31.945,4.907,6.221,7.33
1672,0.826,34.2,23.876,32.266,31.949,4.906,6.261,7.329
1673,0.83,34.22,23.904,32.256,31.945,4.906,6.262,7.329
1674,0.836,33.875,23.873,32.256,31.945,4.906,6.262,7.248
1675,0.83,34.044,23.872,32.247,31.945,4.987,6.221,7.288
1676,0.82,34.171,23.876,32.247,31.945,4.907,6.18,7.288
1677,0.807,34.115,23.951,32.256,31.952,5.028,6.301,7.369
1678,0.81,33.941,23.959,32.285,31.963,5.03,6.465,7.492
1679,0.813,34.103,23.858,32.295,31.966,5.07,6.426,7.371
1680,0.82,34.239,23.88,32.285,31.959,5.03,6.304,7.289
1681,0.82,34.154,23.853,32.257,31.959,4.989,6.302,7.288
1682,0.817,34.229,23.861,32.275,31.952,5.029,6.302,7.288
1683,0.823,34.403,23.911,32.276,31.952,4.989,6.343,7.288
1684,0.804,34.501,23.892,32.256,31.956,4.988,6.384,7.369
1685,0.803,33.6,23.869,32.295,31.959,4.948,6.303,7.33
1686,0.807,33.725,23.869,32.257,31.952,4.988,6.343,7.37
1687,0.829,33.851,23.915,32.285,31.952,4.948,6.343,7.37
1688,0.826,33.939,23.943,32.276,31.956,5.029,6.303,7.289
1689,0.83,33.786,23.897,32.276,31.949,4.989,6.262,7.207
1690,0.836,33.919,23.904,32.256,31.949,4.907,6.18,7.084
1691,0.81,34.055,23.869,32.237,31.938,4.865,6.139,7.083
1692,0.823,34.152,23.861,32.237,31.945,4.906,6.219,7.164
1693,0.83,33.836,23.904,32.256,31.945,4.906,6.22,7.206
1694,0.856,34.006,23.865,32.266,31.956,4.906,6.302,7.165
1695,0.849,34.142,23.869,32.247,31.952,4.987,6.262,7.084
1696,0.853,34.21,23.845,32.256,31.945,4.988,6.262,7.164
1697,0.84,33.693,23.911,32.237,31.952,4.866,6.18,7.124
1698,0.826,33.86,23.955,32.256,31.949,4.865,6.22,7.124
1699,0.81,33.996,23.866,32.256,31.945,4.946,6.22,7.083
1700,0.803,34.046,23.888,32.256,31.949,4.907,6.261,7.123
1701,0.816,33.835,23.892,32.247,31.956,4.906,6.262,7.246
1702,0.816,34.006,23.881,32.294,31.963,5.109,6.384,7.206
1703,0.826,34.161,23.892,32.314,31.966,5.071,6.303,7.287
1704,0.81,34.278,23.916,32.295,31.959,4.989,6.262,7.207
1705,0.803,33.79,23.885,32.276,31.956,4.988,6.262,7.328
1706,0.8,33.938,23.873,32.276,31.956,4.988,6.302,7.248
1707,0.816,34.064,23.904,32.285,31.956,4.988,6.302,7.166
1708,0.829,33.787,23.927,32.276,31.952,4.988,6.262,7.287
1709,0.833,33.804,23.869,32.285,31.956,4.948,6.262,7.166
1710,0.833,33.967,23.896,32.276,31.956,4.988,6.302,7.124
1711,0.839,34.065,23.908,32.295,31.956,5.029,6.302,7.287
1712,0.846,33.586,23.892,32.295,31.949,4.948,6.302,7.085
1713,0.84,33.687,23.892,32.257,31.952,4.907,6.14,7.042
1714,0.839,33.822,23.869,32.227,31.942,4.865,6.138,7.042
1715,0.836,33.919,23.865,32.237,31.952,4.906,6.179,7.082
1716,0.846,33.7,23.869,32.275,31.949,4.906,6.139,7.083
1717,0.817,33.861,23.904,32.276,31.949,4.906,6.219,7.042
1718,0.826,33.977,23.935,32.276,31.949,4.906,6.18,7.001
1719,0.83,34.093,23.83,32.285,31.949,4.947,6.179,7.041
1720,0.817,33.625,23.872,32.276,31.952,4.825,6.22,7.001
1721,0.81,33.773,23.865,32.276,31.949,4.905,6.139,7.001
1722,0.81,33.928,23.876,32.256,31.952,4.865,6.219,6.96
1723,0.81,34.016,23.884,32.275,31.945,4.906,6.18,6.96
1724,0.803,33.71,23.892,32.285,31.959,4.906,6.261,7.041
1725,0.816,33.909,23.912,32.372,31.963,5.069,6.384,7.164
1726,0.816,34.054,23.873,32.315,31.963,4.989,6.344,7.124
1727,0.833,34.123,23.931,32.305,31.956,4.907,6.262,6.921
1728,0.826,33.75,23.932,32.285,31.949,4.906,6.262,7.0
1729,0.823,33.899,23.893,32.295,31.956,4.987,6.262,6.919
1730,0.83,34.026,23.912,32.295,31.952,4.907,6.221,6.919
1731,0.839,34.065,23.877,32.295,31.959,4.987,6.302,6.919
1732,0.836,33.826,23.884,32.295,31.959,4.907,6.262,6.959
1733,0.83,33.996,23.877,32.305,31.956,4.987,6.302,7.0
1734,0.849,34.122,23.915,32.295,31.959,4.948,6.221,7.001
1735,0.862,34.037,23.873,32.276,31.956,4.988,6.261,6.96
1736,0.853,33.893,23.88,32.285,31.949,4.907,6.18,6.797
1737,0.827,34.035,23.912,32.285,31.949,4.825,6.139,6.755
1738,0.813,34.113,23.935,32.276,31.938,4.824,6.098,6.836
1739,0.82,34.066,23.912,32.276,31.942,4.824,6.26,6.837
1740,0.826,34.219,23.857,32.295,31.949,4.946,6.262,6.837
1741,0.823,34.345,23.9,32.276,31.945,4.988,6.139,6.877
1742,0.823,34.49,23.877,32.285,31.952,4.948,6.219,6.755
1743,0.833,33.811,23.888,32.276,31.945,4.907,6.22,6.836
1744,0.82,33.938,23.904,32.285,31.945,4.825,6.18,6.837
1745,0.813,34.093,23.818,32.295,31.945,4.865,6.139,6.796
1746,0.826,34.181,23.876,32.276,31.942,4.824,6.179,6.795
1747,0.833,34.153,23.88,32.276,31.945,4.905,6.179,6.795
1748,0.83,34.306,23.912,32.285,31.952,4.947,6.261,6.917
1749,0.846,34.461,23.885,32.314,31.959,4.988,6.302,6.919
1750,0.859,34.559,23.892,32.333,31.956,5.029,6.343,6.959
1751,0.866,34.195,23.912,32.314,31.966,4.948,6.303,6.878
1752,0.866,34.364,23.904,32.305,31.952,4.907,6.262,6.877
1753,0.859,34.471,23.885,32.314,31.945,4.947,6.221,6.796
1754,0.862,34.53,23.908,32.295,31.952,4.947,6.22,6.795
1755,0.853,34.396,23.885,32.295,31.952,4.947,6.261,6.755
1756,0.862,34.567,23.877,32.295,31.956,4.907,6.302,6.836
1757,0.856,34.703,23.912,32.305,31.956,4.987,6.221,6.877
1758,0.853,34.743,23.928,32.305,31.959,5.07,6.22,6.877
1759,0.833,34.696,23.881,32.305,31.959,4.989,6.302,6.837
1760,0.83,34.829,23.892,32.305,31.956,4.948,6.221,6.837
1761,0.843,34.946,23.916,32.295,31.956,4.907,6.302,6.714
1762,0.839,35.302,23.881,32.285,31.945,4.825,6.221,6.713
1763,0.83,34.97,23.876,32.266,31.952,4.824,6.18,6.713
1764,0.817,35.11,23.931,32.275,31.949,5.027,6.342,6.835
1765,0.842,35.256,23.857,32.295,31.952,4.907,6.303,6.796
1766,0.843,35.161,23.88,32.285,31.952,4.906,6.425,6.755
1767,0.846,35.227,23.892,32.285,31.952,4.947,6.426,6.714
1768,0.859,35.333,23.935,32.285,31.959,4.907,6.344,6.835
1769,0.849,35.44,23.924,32.276,31.952,4.865,6.384,6.714
1770,0.859,35.249,23.9,32.276,31.945,4.865,6.425,6.754
1771,0.859,35.353,23.908,32.276,31.945,4.906,6.385,6.836
1772,0.859,35.507,23.869,32.295,31.945,4.865,6.344,6.837
1773,0.859,35.605,23.872,32.285,31.949,4.987,6.466,6.958
1774,0.862,35.51,23.896,32.295,31.956,4.988,6.629,6.919
1775,0.879,35.691,23.9,32.362,31.97,5.07,6.59,6.959
1776,0.889,35.846,23.861,32.334,31.959,4.989,6.549,6.878
1777,0.876,35.915,23.911,32.305,31.952,4.948,6.508,6.796
1778,0.853,35.724,23.994,32.285,31.952,4.947,6.508,6.877
1779,0.843,35.885,23.928,32.304,31.959,4.947,6.549,6.877
1780,0.846,36.03,23.912,32.305,31.952,4.988,6.508,6.877
1781,0.846,36.07,23.912,32.314,31.959,4.988,6.467,6.877
1782,0.843,36.128,23.896,32.314,31.956,4.988,6.507,6.918
1783,0.839,36.292,23.904,32.295,31.959,4.948,6.508,6.959
1784,0.846,36.399,23.927,32.305,31.959,4.988,6.508,6.878
1785,0.859,36.467,23.854,32.314,31.952,4.948,6.427,6.959
1786,0.846,36.238,23.829,32.295,31.949,4.866,6.304,6.797
1787,0.846,36.36,23.884,32.266,31.942,4.865,6.343,6.836
1788,0.84,36.467,23.931,32.275,31.952,4.865,6.466,6.837
1789,0.846,36.496,23.947,32.295,31.945,4.906,6.386,6.837
1790,0.866,36.487,23.908,32.295,31.949,4.906,6.344,6.837
1791,0.879,36.621,23.943,32.305,31.949,4.906,6.384,6.877
1792,0.869,36.728,23.912,32.295,31.949,4.947,6.425,6.796
1793,0.872,36.691,23.877,32.305,31.949,4.866,6.385,6.836
1794,0.885,36.633,23.908,32.295,31.952,4.824,6.385,6.714
1795,0.869,36.786,23.81,32.285,31.949,4.824,6.385,6.713
1796,0.885,36.883,23.802,32.276,31.949,4.865,6.344,6.754
1797,0.869,36.884,23.864,32.304,31.949,4.865,6.425,6.876
1798,0.876,37.018,23.908,32.295,31.959,4.987,6.507,6.877
1799,0.879,37.173,23.935,32.333,31.966,5.07,6.508,6.918
1800,0.879,37.29,23.916,32.334,31.97,5.07,6.508,6.796
1801,0.876,37.138,23.916,32.295,31.952,4.948,6.508,6.795
1802,0.859,37.27,23.892,32.305,31.949,4.907,6.427,6.795
1803,0.862,37.377,23.888,32.295,31.956,4.906,6.426,6.714
1804,0.866,37.484,23.927,32.314,31.952,4.987,6.466,6.794
1805,0.859,37.101,23.834,32.324,31.949,4.907,6.467,6.795
1806,0.849,37.222,23.876,32.314,31.959,4.906,6.426,6.755
1807,0.872,37.338,23.857,32.305,31.966,4.947,6.426,6.754
1808,0.869,37.416,23.931,32.324,31.959,4.947,6.466,6.754
1809,0.856,37.465,23.916,32.314,31.959,4.907,6.386,6.714
1810,0.879,37.6,23.896,32.305,31.959,4.906,6.303,6.632
1811,0.879,37.716,23.869,32.276,31.945,4.784,6.262,6.55
1812,0.885,37.756,23.872,32.266,31.945,4.824,6.343,6.59
1813,0.885,37.487,23.912,32.295,31.949,4.824,6.343,6.671
1814,0.905,37.657,23.9,32.285,31.952,4.905,6.425,6.672
1815,0.899,37.803,23.873,32.314,31.952,4.865,6.344,6.591
1816,0.915,37.795,23.861,32.295,31.949,4.906,6.343,6.671
1817,0.899,37.689,23.896,32.285,31.952,4.906,6.303,6.672
1818,0.889,37.813,23.935,32.285,31.949,4.906,6.262,6.631
1819,0.895,37.948,23.865,32.285,31.945,4.865,6.262,6.712
1820,0.889,38.189,23.849,32.276,31.949,4.824,6.302,6.591
1821,0.892,37.818,23.857,32.285,31.945,4.824,6.302,6.712
1822,0.889,37.987,23.888,32.295,31.956,4.946,6.425,6.794
1823,0.889,38.084,23.892,32.314,31.963,5.029,6.466,6.877
1824,0.885,37.932,23.931,32.343,31.963,5.03,6.467,6.755
1825,0.889,37.997,23.861,32.324,31.952,4.907,6.386,6.754
1826,0.895,38.132,23.865,32.324,31.959,4.906,6.385,6.754
1827,0.892,38.201,23.904,32.314,31.952,4.906,6.344,6.714
1828,0.879,37.847,23.927,32.305,31.956,4.987,6.384,6.794
1829,0.889,37.968,23.92,32.314,31.949,4.948,6.425,6.673
1830,0.905,38.103,23.873,32.305,31.949,4.947,6.385,6.753
1831,0.908,38.201,23.904,32.305,31.956,4.988,6.385,6.836
1832,0.915,38.048,23.881,32.314,31.959,4.988,6.466,6.837
1833,0.925,38.2,23.88,32.324,31.959,4.907,6.386,6.837
1834,0.931,38.317,23.916,32.324,31.959,4.865,6.385,6.796
1835,0.938,38.414,23.795,32.314,31.949,4.906,6.344,6.714
1836,0.932,37.945,23.856,32.286,31.949,4.865,6.303,6.672
1837,0.902,38.074,23.868,32.276,31.938,4.824,6.302,6.794
1838,0.908,38.162,23.919,32.285,31.952,4.865,6.384,6.877
1839,0.915,38.249,23.912,32.304,31.956,4.987,6.425,6.918
1840,0.909,38.106,23.881,32.305,31.952,4.907,6.426,6.959
1841,0.915,38.248,23.912,32.305,31.956,4.825,6.385,7.0
1842,0.935,38.375,23.896,32.305,31.952,4.905,6.385,7.001
1843,0.938,38.414,23.884,32.285,31.949,4.825,6.385,7.082
1844,0.922,38.136,23.916,32.295,31.949,4.905,6.425,7.083
1845,0.915,38.277,23.842,32.305,31.945,4.906,6.385,7.123
1846,0.925,38.394,23.864,32.295,31.952,4.865,6.425,7.205
1847,0.931,38.414,23.884,32.305,31.952,4.987,6.466,7.328
1848,0.951,38.29,23.966,32.333,31.963,5.151,6.589,7.37
1849,0.958,38.432,23.932,32.343,31.963,5.031,6.549,7.289
1850,0.964,38.559,23.897,32.324,31.959,4.989,6.468,7.329
1851,0.961,38.32,23.916,32.305,31.952,4.907,6.426,7.329
1852,0.958,38.231,23.873,32.295,31.949,4.947,6.466,7.329
1853,0.968,38.374,23.849,32.314,31.949,4.947,6.507,7.41
1854,0.987,38.481,23.915,32.314,31.949,4.907,6.467,7.411
1855,0.974,38.176,23.85,32.314,31.959,4.906,6.507,7.33
1856,0.971,38.259,23.868,32.305,31.952,5.028,6.508,7.451
1857,0.958,38.394,23.896,32.314,31.959,5.03,6.508,7.452
1858,0.964,38.501,23.931,32.314,31.956,5.03,6.549,7.493
1859,0.971,38.185,23.943,32.305,31.956,4.989,6.468,7.453
1860,0.958,38.336,23.865,32.314,31.949,4.826,6.467,7.412
1861,0.948,38.433,23.915,32.295,31.938,4.824,6.304,7.33
1862,0.941,38.52,23.869,32.266,31.945,4.865,6.465,7.41
1863,0.951,38.032,23.888,32.295,31.959,4.906,6.426,7.452
1864,0.945,38.2,23.931,32.324,31.945,4.947,6.426,7.452
1865,0.948,38.326,23.854,32.305,31.952,4.907,6.385,7.452
1866,0.941,38.385,23.864,32.314,31.945,4.865,6.385,7.371
1867,0.948,38.232,23.88,32.314,31.952,4.906,6.385,7.37
1868,0.951,38.394,23.9,32.305,31.945,4.825,6.344,7.33
1869,0.951,38.51,23.888,32.305,31.942,4.865,6.343,7.329
1870,0.951,38.54,23.9,32.295,31.952,4.865,6.343,7.37
1871,0.945,38.099,23.892,32.305,31.949,4.946,6.466,7.492
1872,0.954,38.277,23.9,32.314,31.966,4.988,6.548,7.494
1873,0.967,38.423,23.896,32.343,31.963,5.07,6.549,7.453
1874,0.977,38.434,23.927,32.334,31.959,5.03,6.468,7.29
1875,0.958,38.146,23.889,32.353,31.949,4.907,6.426,7.369
1876,0.951,38.278,23.865,32.315,31.952,4.987,6.466,7.33
1877,0.951,38.394,23.896,32.314,31.956,4.948,6.426,7.41
1878,0.935,38.51,23.935,32.314,31.945,4.988,6.426,7.33
1879,0.925,38.291,23.9,32.286,31.952,4.988,6.466,7.329
1880,0.922,38.442,23.869,32.324,31.959,4.907,6.507,7.207
1881,0.909,38.549,23.892,32.324,31.956,4.987,6.386,7.206
1882,0.912,38.186,23.892,32.324,31.963,4.988,6.466,7.247
1883,0.905,38.201,23.857,32.334,31.959,4.988,6.426,7.206
1884,0.889,38.345,23.9,32.324,31.952,4.826,6.385,7.165
1885,0.866,38.414,23.845,32.305,31.942,4.824,6.303,7.124
1886,0.882,38.156,23.833,32.295,31.938,4.824,6.384,7.124
1887,0.895,38.278,23.864,32.314,31.959,4.946,6.425,7.165
1888,0.899,38.413,23.892,32.324,31.952,4.988,6.385,7.084
1889,0.895,38.501,23.92,32.305,31.952,4.907,6.344,7.164
1890,0.899,38.185,23.881,32.314,31.945,4.947,6.384,7.124
1891,0.889,38.316,23.892,32.295,31.945,4.907,6.385,7.002
1892,0.899,38.471,23.865,32.305,31.949,4.906,6.385,7.041
1893,0.889,38.53,23.876,32.305,31.942,4.947,6.344,7.001
1894,0.895,38.118,23.884,32.314,31.945,4.947,6.303,7.001
1895,0.899,38.277,23.88,32.305,31.949,4.947,6.384,7.041
1896,0.899,38.413,23.865,32.305,31.956,5.029,6.466,7.123
1897,0.882,38.491,23.911,32.343,31.963,5.03,6.548,7.205
1898,0.879,38.128,23.928,32.363,31.963,5.07,6.468,7.125
1899,0.872,38.249,23.857,32.334,31.956,4.989,6.345,7.043
1900,0.859,38.346,23.88,32.314,31.945,4.907,6.384,7.082
1901,0.856,38.385,23.869,32.314,31.956,4.987,6.385,7.123
1902,0.846,38.165,23.869,32.333,31.956,4.988,6.385,7.124
1903,0.84,38.326,23.888,32.334,31.959,4.948,6.385,7.165
1904,0.833,38.442,23.884,32.334,31.956,4.947,6.466,7.124
1905,0.836,38.463,23.888,32.324,31.956,5.029,6.467,7.246
1906,0.836,38.185,23.873,32.334,31.956,4.989,6.467,7.166
1907,0.843,38.326,23.919,32.324,31.952,4.948,6.426,7.043
1908,0.846,38.433,23.916,32.324,31.942,4.907,6.304,6.96
1909,0.849,38.271,23.869,32.305,31.938,4.784,6.262,7.041
1910,0.836,38.26,23.826,32.295,31.942,4.864,6.384,7.123
1911,0.833,38.413,23.864,32.333,31.949,4.906,6.466,7.083
1912,0.852,38.539,23.888,32.324,31.956,4.987,6.426,7.042
1913,0.853,38.186,23.904,32.314,31.956,4.907,6.466,7.082
1914,0.862,38.259,23.885,32.314,31.956,4.947,6.426,7.083
1915,0.84,38.423,23.849,32.324,31.952,4.825,6.426,7.002
1916,0.839,38.511,23.857,32.314,31.942,4.865,6.385,6.96
1917,0.826,38.272,23.923,32.305,31.945,4.865,6.425,6.96
1918,0.836,38.394,23.92,32.314,31.949,4.865,6.507,7.041
1919,0.823,38.529,23.889,32.343,31.956,4.906,6.589,7.082
1920,0.817,38.655,23.853,32.334,31.959,5.069,6.631,7.164
1921,0.816,38.12,23.876,32.353,31.966,5.07,6.631,7.084
1922,0.803,38.297,23.873,32.363,31.963,4.989,6.509,7.002
1923,0.794,38.385,23.904,32.324,31.949,4.907,6.549,7.001
1924,0.78,38.453,23.9,32.314,31.952,4.906,6.59,7.041
1925,0.793,38.367,23.861,32.343,31.949,4.906,6.549,7.082
1926,0.787,38.52,23.861,32.334,31.956,4.906,6.508,7.002
1927,0.816,38.627,23.904,32.353,31.952,4.987,6.63,7.041
1928,0.833,38.656,23.935,32.334,31.952,4.988,6.631,7.001
1929,0.833,38.235,23.858,32.334,31.956,4.988,6.631,7.001
1930,0.839,38.384,23.861,32.362,31.959,4.948,6.59,7.001
1931,0.826,38.501,23.829,32.353,31.952,4.947,6.549,7.041
1932,0.839,38.54,23.829,32.334,31.952,4.866,6.508,6.92
1933,0.839,38.397,23.868,32.334,31.938,4.784,6.427,6.878
1934,0.833,38.539,23.849,32.295,31.945,4.824,6.426,6.877
1935,0.83,38.646,23.857,32.324,31.952,4.905,6.507,6.959
1936,0.843,38.618,23.857,32.334,31.952,4.947,6.467,6.96
1937,0.83,38.407,23.919,32.324,31.952,4.947,6.507,6.919
1938,0.81,38.51,23.928,32.334,31.949,4.907,6.427,6.959
1939,0.816,38.636,23.826,32.324,31.945,4.865,6.385,6.878
1940,0.794,38.35,23.841,32.334,31.949,4.824,6.425,6.959
1941,0.797,38.423,23.806,32.314,31.949,4.865,6.426,6.919
1942,0.794,38.578,23.86,32.324,31.945,4.946,6.466,6.919
1943,0.797,38.656,23.919,32.324,31.945,4.907,6.507,7.0
1944,0.777,38.34,23.857,32.362,31.952,5.069,6.549,7.082
1945,0.787,38.49,23.865,32.382,31.963,5.03,6.549,7.123
1946,0.803,38.636,23.869,32.382,31.963,5.111,6.59,7.124
1947,0.82,38.724,23.927,32.363,31.966,4.989,6.387,6.961
1948,0.826,38.437,23.943,32.344,31.949,4.948,6.425,6.96
1949,0.804,38.568,23.897,32.343,31.956,4.947,6.426,7.0
1950,0.816,38.704,23.873,32.353,31.952,5.029,6.385,6.96
1951,0.82,38.772,23.841,32.343,31.949,5.03,6.425,7.0
1952,0.82,38.38,23.864,32.363,31.949,4.989,6.426,7.041
1953,0.826,38.529,23.896,32.353,31.952,4.988,6.466,7.001
1954,0.826,38.646,23.861,32.353,31.956,4.988,6.426,6.96
1955,0.83,38.733,23.868,32.343,31.952,5.07,6.507,6.919
1956,0.823,38.61,23.876,32.343,31.952,5.07,6.386,6.959
1957,0.82,38.762,23.915,32.353,31.949,5.03,6.385,6.919
1958,0.81,38.859,23.92,32.353,31.945,4.907,6.385,6.878
1959,0.8,38.908,23.826,32.343,31.942,4.865,6.263,6.837
1960,0.787,38.467,23.825,32.315,31.942,4.906,6.343,6.958
1961,0.784,38.607,23.817,32.343,31.952,4.987,6.343,6.919
1962,0.787,38.752,23.864,32.363,31.956,4.948,6.343,6.878
1963,0.793,38.993,23.904,32.353,31.949,4.988,6.384,6.918
1964,0.8,38.66,23.869,32.353,31.949,4.948,6.303,6.878
1965,0.797,38.801,23.841,32.363,31.949,4.988,6.384,6.837
1966,0.784,38.888,23.857,32.353,31.945,4.907,6.303,6.837
1967,0.78,38.678,23.892,32.353,31.949,4.906,6.302,6.877
1968,0.8,38.647,23.923,32.343,31.945,4.947,6.302,6.877
1969,0.807,38.8,23.846,32.353,31.945,4.947,6.343,6.959
1970,0.823,38.917,23.864,32.363,31.959,5.069,6.466,7.082
1971,0.83,38.631,23.818,32.372,31.963,5.193,6.589,7.083
1972,0.843,38.762,23.849,32.382,31.963,5.112,6.387,7.042
1973,0.836,38.878,23.896,32.372,31.952,4.989,6.344,6.96
1974,0.839,38.937,23.849,32.363,31.952,5.029,6.303,6.96
1975,0.833,38.496,23.853,32.363,31.952,4.989,6.343,6.96
1976,0.833,38.626,23.888,32.372,31.949,4.988,6.303,7.0
1977,0.817,38.771,23.904,32.353,31.952,4.988,6.302,7.041
1978,0.813,38.83,23.908,32.372,31.952,5.07,6.343,7.001
1979,0.82,38.726,23.807,32.372,31.952,5.07,6.303,7.082
1980,0.803,38.868,23.848,32.382,31.956,5.03,6.343,7.042
1981,0.803,39.004,23.841,32.372,31.956,5.03,6.303,7.001
1982,0.784,39.044,23.868,32.372,31.949,4.907,6.221,6.879
1983,0.797,38.689,23.9,32.344,31.945,4.865,6.18,6.877
1984,0.787,38.82,23.857,32.353,31.938,4.906,6.22,7.0
1985,0.787,38.936,23.868,32.363,31.949,5.028,6.302,6.96
1986,0.797,39.014,23.88,32.372,31.956,4.948,6.262,7.0
1987,0.81,38.785,23.923,32.353,31.949,4.988,6.18,7.001
1988,0.81,38.917,23.893,32.363,31.945,4.988,6.22,6.96
1989,0.816,39.024,23.826,32.353,31.952,4.988,6.18,6.919
1990,0.816,39.044,23.845,32.363,31.949,4.948,6.139,6.959
1991,0.81,38.814,23.818,32.353,31.945,4.947,6.098,6.96
1992,0.82,38.946,23.852,32.372,31.949,4.907,6.219,7.0
1993,0.83,39.053,23.896,32.344,31.956,4.906,6.22,7.123
1994,0.83,38.881,23.873,32.372,31.959,5.069,6.302,7.165
1995,0.83,38.774,23.876,32.401,31.966,5.111,6.302,7.165
1996,0.852,38.907,23.876,32.401,31.956,5.03,6.18,7.124
1997,0.833,39.004,23.923,32.373,31.949,4.948,6.22,7.043
1998,0.826,38.766,23.939,32.363,31.952,4.947,6.261,7.082
1999,0.807,38.821,23.881,32.382,31.952,4.988,6.221,7.123
2000,0.803,38.975,23.845,32.382,31.952,4.988,6.302,7.083
2001,0.8,39.082,23.857,32.372,31.956,4.988,6.343,7.123
2002,0.8,38.709,23.857,32.372,31.952,5.029,6.262,7.124
2003,0.81,38.82,23.88,32.363,31.956,5.03,6.302,7.205
2004,0.8,38.956,23.916,32.391,31.959,5.03,6.302,7.165
2005,0.797,39.053,23.877,32.382,31.956,4.948,6.18,7.043
2006,0.8,38.689,23.865,32.363,31.938,4.907,6.139,6.96
2007,0.794,38.81,23.892,32.344,31.938,4.865,6.219,6.96
2008,0.803,38.946,23.9,32.353,31.952,4.987,6.261,7.082
2009,0.807,39.034,23.865,32.372,31.945,5.029,6.262,7.042
2010,0.826,38.651,23.853,32.372,31.952,4.989,6.18,7.042
2011,0.826,38.791,23.853,32.382,31.956,4.988,6.22,7.001
2012,0.826,38.927,23.829,32.372,31.945,4.948,6.18,6.96
2013,0.823,38.976,23.888,32.363,31.938,4.866,6.179,6.919
2014,0.826,38.574,23.841,32.353,31.945,4.906,6.22,6.959
2015,0.833,38.733,23.86,32.363,31.942,4.865,6.302,6.96
2016,0.83,38.859,23.857,32.382,31.952,5.028,6.221,7.082
2017,0.833,38.908,23.943,32.392,31.963,5.07,6.424,7.164
2018,0.826,38.659,23.943,32.411,31.959,5.07,6.426,7.165
2019,0.83,38.81,23.881,32.43,31.959,5.03,6.344,7.043
2020,0.82,38.917,23.857,32.392,31.956,5.03,6.303,7.123
2021,0.813,39.168,23.833,32.392,31.956,4.989,6.262,7.124
2022,0.803,38.614,23.86,32.401,31.952,5.029,6.302,7.124
2023,0.8,38.752,23.884,32.401,31.956,5.03,6.302,7.165
2024,0.794,38.84,23.88,32.411,31.956,4.989,6.302,7.206
2025,0.79,38.582,23.869,32.411,31.952,5.029,6.343,7.206
2026,0.79,38.589,23.833,32.411,31.956,4.989,6.384,7.287
2027,0.806,38.723,23.927,32.411,31.952,4.988,6.344,7.247
2028,0.816,38.84,23.908,32.402,31.949,4.948,6.343,7.206
2029,0.823,38.39,23.853,32.382,31.945,4.988,6.221,7.165
2030,0.826,38.501,23.853,32.372,31.935,4.866,6.18,7.043
2031,0.817,38.607,23.849,32.372,31.945,4.906,6.261,7.204
2032,0.813,38.723,23.841,32.392,31.959,4.987,6.262,7.165
2033,0.823,38.331,23.88,32.382,31.952,4.988,6.302,7.206
2034,0.852,38.471,23.861,32.401,31.949,4.988,6.262,7.165
2035,0.833,38.597,23.833,32.392,31.945,4.988,6.262,7.084
2036,0.826,38.685,23.833,32.382,31.945,4.907,6.221,7.083
2037,0.826,38.408,23.884,32.372,31.949,4.906,6.22,7.123
2038,0.83,38.549,23.943,32.382,31.942,4.865,6.261,7.124
2039,0.823,38.675,23.877,32.401,31.945,4.946,6.262,7.165
2040,0.804,38.753,23.849,32.392,31.956,4.988,6.384,7.206
2041,0.803,38.36,23.872,32.411,31.956,5.07,6.466,7.369
2042,0.8,38.519,23.849,32.43,31.963,5.111,6.386,7.289
2043,0.82,38.655,23.9,32.44,31.959,5.03,6.263,7.288
2044,0.807,38.685,23.884,32.421,31.956,4.989,6.302,7.288
2045,0.8,38.273,23.857,32.411,31.952,4.907,6.384,7.288
2046,0.803,38.432,23.857,32.402,31.952,4.947,6.344,7.369
2047,0.829,38.549,23.896,32.421,31.956,5.029,6.343,7.289
2048,0.826,38.55,23.935,32.43,31.952,5.03,6.343,7.369
2049,0.807,38.272,23.842,32.421,31.952,5.03,6.384,7.33
2050,0.826,38.423,23.872,32.421,31.952,4.989,6.303,7.329
2051,0.833,38.511,23.845,32.421,31.956,4.988,6.384,7.289
2052,0.826,38.358,23.872,32.43,31.945,4.948,6.263,7.288
2053,0.826,38.28,23.904,32.402,31.942,4.907,6.302,7.125
2054,0.826,38.384,23.857,32.392,31.942,4.865,6.18,7.165
2055,0.826,38.501,23.845,32.373,31.945,4.946,6.301,7.165
2056,0.839,38.128,23.849,32.42,31.952,4.988,6.384,7.165
2057,0.826,38.22,23.892,32.402,31.949,4.907,6.303,7.124
2058,0.82,38.374,23.931,32.421,31.945,4.947,6.343,7.124
2059,0.817,38.462,23.838,32.43,31.945,4.907,6.303,7.083
2060,0.813,38.031,23.817,32.411,31.945,4.987,6.302,7.123
2061,0.823,38.152,23.825,32.411,31.949,4.948,6.302,7.083
2062,0.807,38.316,23.825,32.392,31.942,4.907,6.302,7.123
2063,0.8,38.366,23.884,32.401,31.945,4.906,6.302,7.124
2064,0.79,38.031,23.873,32.411,31.945,4.987,6.343,7.246
2065,0.797,38.2,23.872,32.44,31.959,5.07,6.425,7.328
2066,0.81,38.345,23.88,32.459,31.963,5.07,6.548,7.289
2067,0.816,38.414,23.916,32.469,31.959,4.989,6.346,7.329
2068,0.826,38.127,23.912,32.45,31.945,4.988,6.303,7.248
2069,0.813,38.229,23.865,32.431,31.949,4.988,6.262,7.288
2070,0.826,38.394,23.857,32.44,31.952,5.029,6.302,7.369
2071,0.83,38.424,23.849,32.45,31.956,5.03,6.343,7.33
2072,0.82,37.993,23.837,32.45,31.952,4.989,6.303,7.37
2073,0.813,38.142,23.911,32.44,31.956,4.988,6.262,7.492
2074,0.829,38.278,23.849,32.45,31.952,5.029,6.302,7.494
2075,0.836,38.308,23.876,32.44,31.949,5.03,6.302,7.534
2076,0.833,38.145,23.88,32.45,31.956,5.03,6.302,7.534
2077,0.82,38.278,23.912,32.44,31.952,4.907,6.18,7.372
2078,0.817,38.375,23.904,32.431,31.942,4.865,6.179,7.411
2079,0.803,38.472,23.799,32.411,31.945,4.865,6.179,7.533
2080,0.794,38.147,23.813,32.44,31.949,4.987,6.261,7.575
2081,0.806,38.297,23.817,32.44,31.945,4.907,6.302,7.535
2082,0.81,38.423,23.849,32.45,31.945,4.947,6.302,7.534
2083,0.8,37.954,23.903,32.431,31.949,4.947,6.221,7.453
2084,0.794,37.959,23.865,32.43,31.949,4.907,6.261,7.493
2085,0.79,38.113,23.865,32.45,31.949,4.947,6.262,7.453
2086,0.787,38.21,23.841,32.44,31.945,4.947,6.262,7.452
2087,0.8,37.885,23.942,32.44,31.938,4.907,6.262,7.534
2088,0.813,38.016,23.912,32.45,31.945,4.987,6.343,7.534
2089,0.816,38.161,23.853,32.479,31.952,5.07,6.425,7.616
2090,0.833,38.259,23.861,32.498,31.959,5.03,6.466,7.617
2091,0.849,37.905,23.794,32.469,31.959,4.989,6.345,7.495
2092,0.84,38.035,23.84,32.469,31.949,4.988,6.343,7.494
2093,0.833,38.161,23.888,32.469,31.956,4.948,6.343,7.453
2094,0.839,38.239,23.849,32.45,31.949,4.947,6.303,7.452
2095,0.833,37.895,23.853,32.459,31.956,4.988,6.425,7.452
2096,0.823,38.055,23.884,32.469,31.956,4.988,6.385,7.493
2097,0.82,38.181,23.927,32.469,31.949,5.029,6.385,7.453
2098,0.8,38.249,23.893,32.488,31.956,5.03,6.344,7.412
2099,0.803,37.943,23.841,32.479,31.956,5.03,6.384,7.452
2100,0.807,38.103,23.806,32.469,31.949,4.989,6.303,7.29
2101,0.787,38.201,23.833,32.45,31.945,4.826,6.262,7.247
2102,0.79,38.24,23.821,32.431,31.938,4.905,6.343,7.369
2103,0.793,37.972,23.907,32.469,31.952,4.987,6.384,7.37
2104,0.797,38.132,23.842,32.479,31.952,4.988,6.385,7.33
2105,0.797,38.258,23.853,32.479,31.952,5.029,6.303,7.248
2106,0.797,38.26,23.896,32.488,31.949,4.948,6.302,7.328
2107,0.807,37.943,23.888,32.469,31.952,4.947,6.384,7.207
2108,0.79,38.074,23.912,32.46,31.949,4.866,6.303,7.206
2109,0.8,38.191,23.822,32.469,31.942,4.906,6.302,7.125
2110,0.813,38.038,23.845,32.479,31.949,4.947,6.302,7.327
2111,0.81,38.008,23.821,32.488,31.952,5.029,6.425,7.329
2112,0.803,38.19,23.864,32.527,31.966,5.151,6.385,7.329
2113,0.823,38.278,23.911,32.527,31.963,5.071,6.344,7.329
2114,0.82,37.819,23.838,32.508,31.956,4.989,6.343,7.248
2115,0.807,37.881,23.853,32.479,31.952,5.07,6.303,7.288
2116,0.82,38.035,23.857,32.498,31.952,5.07,6.302,7.247
2117,0.807,38.123,23.915,32.489,31.949,5.03,6.302,7.206
2118,0.803,37.942,23.912,32.489,31.952,5.111,6.343,7.206
2119,0.8,38.065,23.834,32.508,31.949,5.03,6.303,7.206
2120,0.797,38.219,23.853,32.517,31.952,5.07,6.384,7.206
2121,0.784,38.298,23.829,32.518,31.956,5.07,6.344,7.165
2122,0.79,37.876,23.849,32.518,31.956,4.989,6.384,7.206
2123,0.8,38.006,23.884,32.508,31.945,5.029,6.263,7.043
2124,0.774,38.132,23.857,32.489,31.945,4.948,6.18,7.082
2125,0.767,38.182,23.829,32.498,31.938,4.866,6.139,7.123
2126,0.767,37.914,23.825,32.508,31.949,4.906,6.301,7.165
2127,0.777,38.064,23.892,32.517,31.952,5.028,6.302,7.165
2128,0.79,38.191,23.92,32.518,31.949,4.989,6.221,7.206
2129,0.803,38.23,23.834,32.508,31.956,4.988,6.261,7.206
2130,0.797,37.847,23.845,32.517,31.945,4.948,6.262,7.165
2131,0.787,37.997,23.845,32.527,31.952,4.947,6.302,7.165
2132,0.806,38.123,23.853,32.518,31.945,4.988,6.221,7.124
2133,0.79,38.134,23.892,32.498,31.949,4.988,6.22,7.165
2134,0.8,37.98,23.826,32.517,31.945,5.029,6.261,7.124
2135,0.8,38.142,23.833,32.527,31.956,4.989,6.343,7.246
2136,0.81,38.268,23.856,32.546,31.959,5.029,6.384,7.369
2137,0.813,38.231,23.923,32.566,31.963,5.151,6.385,7.411
2138,0.813,37.981,23.924,32.556,31.959,5.071,6.385,7.289
2139,0.803,38.094,23.842,32.547,31.956,4.989,6.344,7.247
2140,0.787,38.181,23.864,32.547,31.952,4.988,6.343,7.288
2141,0.787,38.0,23.857,32.537,31.952,5.029,6.343,7.288
2142,0.784,38.094,23.865,32.537,31.952,4.989,6.303,7.247
2143,0.787,38.239,23.872,32.547,31.956,4.988,6.302,7.369
2144,0.767,38.326,23.876,32.585,31.956,4.948,6.302,7.452
2145,0.761,37.829,23.873,32.557,31.959,4.988,6.343,7.371
2146,0.761,37.948,23.849,32.566,31.959,5.029,6.343,7.452
2147,0.774,38.065,23.861,32.566,31.949,4.907,6.181,7.249
2148,0.777,38.133,23.884,32.537,31.935,4.825,6.139,7.247
2149,0.78,37.808,23.837,32.518,31.945,4.865,6.26,7.369
2150,0.793,37.977,23.833,32.566,31.945,4.987,6.262,7.37
2151,0.81,38.132,23.853,32.556,31.949,5.029,6.262,7.411
2152,0.8,38.201,23.845,32.566,31.945,4.989,6.262,7.452
2153,0.803,37.856,23.864,32.566,31.949,4.907,6.221,7.412
2154,0.803,37.977,23.88,32.566,31.945,4.906,6.261,7.371
