time,ecg,bvp,gsr,rsp,skt,emg_zygo,emg_coru,emg_trap
0,0.705,35.701,5.835,27.223,27.1,7.944,6.631,5.233
1,0.627,35.808,5.839,27.223,27.093,7.864,6.509,5.072
2,0.577,36.567,5.808,27.223,27.09,7.944,6.63,5.07
3,0.528,37.408,5.804,27.252,27.107,7.986,6.59,5.07
4,0.453,37.503,5.819,27.233,27.1,7.986,6.549,5.07
5,0.387,37.581,5.851,27.261,27.18,8.027,6.671,5.233
6,0.334,35.031,5.828,27.223,27.091,7.946,6.509,5.113
7,0.301,34.526,5.788,27.223,27.09,7.945,6.549,5.112
8,0.288,34.713,5.808,27.252,27.104,8.026,6.63,5.152
9,0.281,34.801,5.808,27.242,27.093,8.027,6.631,5.071
10,0.287,35.54,5.823,27.271,27.11,8.109,6.672,5.314
11,0.239,35.691,5.831,27.214,27.09,7.947,6.428,5.154
12,0.163,35.827,5.8,27.232,27.093,7.986,6.507,5.153
13,0.133,35.915,5.808,27.252,27.1,8.108,6.508,5.153
14,0.097,35.196,5.816,27.252,27.093,8.028,6.589,5.153
15,0.087,35.381,5.847,27.271,27.11,8.231,6.671,5.275
16,0.029,35.431,5.835,27.214,27.086,8.029,6.428,5.113
17,-0.011,35.508,5.816,27.223,27.09,8.068,6.466,5.112
18,-0.021,35.49,5.823,27.252,27.104,8.15,6.507,5.152
19,-0.008,35.624,5.808,27.252,27.093,8.191,6.467,5.153
20,0.024,35.73,5.831,27.262,27.11,8.354,6.67,5.315
21,0.044,35.77,5.82,27.233,27.086,8.193,6.469,5.114
22,0.077,35.473,5.82,27.242,27.097,8.314,6.467,5.193
23,0.139,35.633,5.82,27.261,27.093,8.437,6.507,5.234
24,0.182,35.731,5.816,27.243,27.104,8.519,6.386,5.235
25,0.234,35.78,5.823,27.29,27.111,8.723,6.588,5.438
26,0.264,35.473,5.827,27.252,27.083,8.522,6.346,5.237
27,0.3,35.604,5.82,27.262,27.097,8.561,6.466,5.275
28,0.333,35.74,5.835,27.281,27.09,8.683,6.426,5.235
29,0.36,36.0,5.82,27.252,27.097,8.644,6.466,5.316
30,0.392,35.581,5.839,27.29,27.1,8.684,6.548,5.439
31,0.402,35.653,5.831,27.233,27.086,8.603,6.346,5.237
32,0.438,35.76,5.824,27.252,27.097,8.521,6.425,5.275
33,0.461,35.578,5.816,27.309,27.093,8.601,6.466,5.357
34,0.468,35.634,5.808,27.253,27.097,8.562,6.467,5.317
35,0.514,35.779,5.819,27.281,27.107,8.602,6.548,5.439
36,0.527,35.847,5.823,27.243,27.093,8.48,6.386,5.277
37,0.54,35.34,5.835,27.242,27.086,8.357,6.385,5.316
38,0.593,35.517,5.761,27.281,27.097,8.478,6.466,5.439
39,0.6,35.624,5.811,27.262,27.093,8.357,6.426,5.318
40,0.609,35.721,5.816,27.281,27.1,8.437,6.548,5.48
41,0.636,35.712,5.82,27.262,27.093,8.316,6.346,5.318
42,0.655,35.856,5.812,27.252,27.086,8.274,6.384,5.358
43,0.685,36.011,5.816,27.281,27.097,8.355,6.425,5.399
44,0.682,36.07,5.831,27.281,27.1,8.315,6.385,5.399
45,0.698,35.351,5.812,27.291,27.1,8.315,6.466,5.562
46,0.718,35.478,5.831,27.281,27.093,8.112,6.345,5.401
47,0.721,35.566,5.843,27.271,27.093,8.069,6.384,5.399
48,0.737,35.663,5.824,27.291,27.11,8.15,6.425,5.48
49,0.754,35.424,5.816,27.272,27.093,8.069,6.466,5.4
50,0.774,35.585,5.8,27.3,27.1,8.109,6.467,5.48
51,0.764,35.663,5.788,27.243,27.083,7.987,6.386,5.318
52,0.767,35.683,5.811,27.271,27.09,7.946,6.385,5.439
53,0.754,35.501,5.808,27.271,27.104,7.986,6.466,5.399
54,0.754,35.633,5.816,27.271,27.093,7.986,6.386,5.44
55,0.764,35.74,5.812,27.271,27.097,8.027,6.507,5.44
56,0.764,35.77,5.823,27.262,27.09,7.946,6.427,5.277
57,0.757,35.444,5.827,27.271,27.083,7.823,6.385,5.398
58,0.77,35.633,5.831,27.291,27.1,7.944,6.466,5.399
59,0.777,35.731,5.82,27.291,27.093,7.864,6.467,5.358
60,0.767,35.358,5.808,27.3,27.145,7.863,6.467,5.48
61,0.774,35.431,5.823,27.272,27.094,7.782,6.386,5.44
62,0.78,35.518,5.831,27.262,27.086,7.618,6.385,5.318
63,0.793,35.672,5.835,27.3,27.103,7.779,6.425,5.439
64,0.787,35.405,5.808,27.291,27.093,7.7,6.385,5.44
65,0.78,35.537,5.816,27.3,27.093,7.699,6.425,5.481
66,0.793,35.662,5.823,27.281,27.09,7.577,6.344,5.4
67,0.777,35.712,5.816,27.262,27.086,7.454,6.221,5.399
68,0.797,35.492,5.835,27.281,27.093,7.615,6.464,5.48
69,0.79,35.633,5.827,27.31,27.093,7.617,6.386,5.481
70,0.793,35.759,5.792,27.281,27.093,7.576,6.385,5.44
71,0.787,35.799,5.804,27.281,27.086,7.454,6.263,5.399
72,0.784,35.416,5.823,27.243,27.086,7.371,6.221,5.236
73,0.787,35.556,5.835,27.309,27.103,7.492,6.424,5.438
74,0.784,35.701,5.796,27.3,27.093,7.494,6.344,5.399
75,0.787,35.712,5.823,27.262,27.093,7.412,6.384,5.399
76,0.784,35.434,5.808,27.262,27.086,7.33,6.222,5.358
77,0.787,35.556,5.816,27.262,27.086,7.329,6.18,5.317
78,0.8,35.701,5.839,27.3,27.097,7.451,6.342,5.439
79,0.794,35.741,5.831,27.3,27.1,7.452,6.262,5.44
80,0.777,35.386,5.808,27.281,27.097,7.371,6.343,5.44
81,0.79,35.536,5.823,27.281,27.09,7.37,6.262,5.359
82,0.797,35.643,5.827,27.281,27.086,7.289,6.221,5.236
83,0.797,35.606,5.843,27.31,27.093,7.41,6.342,5.397
84,0.8,35.481,5.792,27.31,27.1,7.452,6.262,5.399
85,0.8,35.604,5.792,27.272,27.083,7.452,6.221,5.399
86,0.797,35.702,5.788,27.3,27.093,7.452,6.22,5.399
87,0.79,35.396,5.811,27.3,27.09,7.452,6.18,5.318
88,0.8,35.488,5.843,27.32,27.1,7.493,6.301,5.358
89,0.81,35.633,5.816,27.32,27.097,7.453,6.302,5.358
90,0.8,35.673,5.827,27.291,27.086,7.371,6.14,5.358
91,0.8,35.434,5.82,27.3,27.11,7.452,6.138,5.358
92,0.807,35.546,5.827,27.31,27.09,7.452,6.179,5.317
93,0.81,35.682,5.839,27.3,27.097,7.493,6.301,5.439
94,0.807,35.789,5.839,27.339,27.1,7.494,6.262,5.399
95,0.787,35.31,5.808,27.282,27.093,7.412,6.139,5.236
96,0.793,35.478,5.819,27.319,27.093,7.452,6.138,5.235
97,0.81,35.585,5.808,27.31,27.093,7.412,6.219,5.235
98,0.807,35.644,5.839,27.32,27.1,7.411,6.261,5.357
99,0.82,35.338,5.828,27.329,27.104,7.574,6.221,5.358
100,0.794,35.44,5.82,27.291,27.086,7.332,6.139,5.277
101,0.79,35.566,5.82,27.31,27.097,7.492,6.179,5.357
102,0.8,35.624,5.839,27.3,27.09,7.412,6.098,5.277
103,0.813,35.462,5.82,27.32,27.121,7.493,6.178,5.357
104,0.813,35.604,5.851,27.339,27.104,7.453,6.22,5.317
105,0.794,35.682,5.812,27.368,27.086,7.33,5.976,5.358
106,0.813,35.731,5.804,27.311,27.097,7.37,6.096,5.317
107,0.807,35.358,5.815,27.339,27.093,7.37,6.097,5.317
108,0.813,35.469,5.839,27.33,27.1,7.289,6.219,5.398
109,0.823,35.585,5.839,27.32,27.093,7.369,6.18,5.358
110,0.82,35.481,5.742,27.31,27.09,7.208,6.098,5.277
111,0.81,35.432,5.799,27.32,27.093,7.287,6.056,5.276
112,0.813,35.556,5.819,27.31,27.093,7.288,6.097,5.235
113,0.813,35.653,5.831,27.32,27.1,7.329,6.178,5.357
114,0.82,35.654,5.843,27.329,27.104,7.248,6.139,5.317
115,0.817,35.74,5.8,27.291,27.086,7.166,6.016,5.236
116,0.82,35.875,5.819,27.319,27.09,7.246,6.056,5.275
117,0.817,35.963,5.823,27.329,27.093,7.166,6.097,5.235
118,0.829,35.12,5.843,27.32,27.097,7.206,6.138,5.316
119,0.833,35.275,5.847,27.349,27.104,7.328,6.138,5.398
120,0.807,35.343,5.808,27.301,27.086,7.248,6.016,5.277
121,0.813,35.43,5.827,27.32,27.093,7.288,6.015,5.357
122,0.833,35.374,5.82,27.32,27.1,7.288,6.056,5.317
123,0.833,35.507,5.827,27.32,27.097,7.369,6.056,5.358
124,0.843,35.643,5.847,27.339,27.104,7.411,6.137,5.317
125,0.833,35.664,5.812,27.31,27.09,7.289,6.057,5.236
126,0.843,35.232,5.823,27.31,27.093,7.41,6.137,5.357
127,0.83,35.362,5.8,27.329,27.093,7.533,6.098,5.317
128,0.836,35.488,5.831,27.329,27.097,7.616,6.178,5.317
129,0.833,35.547,5.863,27.358,27.111,7.617,6.179,5.398
130,0.817,35.432,5.812,27.301,27.09,7.454,6.057,5.196
131,0.826,35.575,5.823,27.32,27.09,7.615,6.097,5.316
132,0.82,35.72,5.808,27.329,27.093,7.698,6.056,5.317
133,0.826,35.712,5.835,27.32,27.1,7.658,6.137,5.317
134,0.836,35.29,5.843,27.358,27.111,7.698,6.219,5.317
135,0.813,35.372,5.812,27.32,27.083,7.577,6.017,5.195
136,0.826,35.507,5.816,27.32,27.093,7.575,6.137,5.316
137,0.836,35.413,5.808,27.329,27.1,7.657,6.138,5.195
138,0.836,35.354,5.835,27.329,27.093,7.658,6.138,5.316
139,0.839,35.546,5.859,27.368,27.1,7.861,6.138,5.358
140,0.833,35.576,5.824,27.32,27.093,7.578,6.057,5.195
141,0.833,35.241,5.843,27.329,27.093,7.616,6.137,5.316
142,0.833,35.372,5.831,27.339,27.093,7.657,6.138,5.236
143,0.836,35.498,5.812,27.358,27.097,7.617,6.138,5.357
144,0.846,35.605,5.839,27.358,27.107,7.698,6.26,5.358
145,0.833,35.308,5.831,27.339,27.083,7.496,6.099,5.236
146,0.839,35.449,5.824,27.358,27.093,7.575,6.178,5.275
147,0.859,35.594,5.816,27.339,27.093,7.535,6.179,5.316
148,0.853,35.644,5.823,27.349,27.093,7.657,6.179,5.358
149,0.856,35.29,5.835,27.368,27.107,7.617,6.301,5.48
150,0.836,35.372,5.831,27.32,27.09,7.413,6.14,5.237
151,0.843,35.517,5.816,27.339,27.093,7.533,6.138,5.275
152,0.849,35.576,5.831,27.358,27.093,7.494,6.138,5.276
153,0.846,35.337,5.824,27.349,27.09,7.494,6.179,5.357
154,0.853,35.478,5.839,27.358,27.107,7.616,6.22,5.399
155,0.84,35.556,5.851,27.339,27.086,7.413,5.976,5.236
156,0.849,35.615,5.82,27.339,27.09,7.452,6.137,5.275
157,0.856,35.308,5.823,27.349,27.097,7.412,6.179,5.276
158,0.853,35.43,5.808,27.349,27.107,7.452,6.139,5.235
159,0.853,35.566,5.839,27.377,27.107,7.452,6.26,5.357
160,0.84,35.548,5.828,27.33,27.086,7.29,6.058,5.195
161,0.849,35.298,5.82,27.339,27.097,7.329,6.097,5.316
162,0.853,35.468,5.843,27.377,27.097,7.329,6.138,5.398
163,0.849,35.566,5.808,27.359,27.097,7.329,6.098,5.318
164,0.856,35.27,5.823,27.368,27.107,7.492,6.26,5.398
165,0.84,35.2,5.827,27.349,27.093,7.29,6.058,5.236
166,0.849,35.333,5.812,27.368,27.09,7.329,6.015,5.316
167,0.849,35.478,5.808,27.368,27.097,7.37,6.137,5.358
168,0.856,35.288,5.796,27.368,27.097,7.33,6.057,5.358
169,0.853,35.43,5.827,27.397,27.104,7.451,6.178,5.439
170,0.859,35.518,5.827,27.349,27.128,7.249,6.017,5.237
171,0.856,35.605,5.82,27.349,27.097,7.328,6.056,5.275
172,0.859,35.241,5.823,27.368,27.097,7.492,6.056,5.316
173,0.849,35.353,5.823,27.349,27.097,7.371,6.056,5.317
174,0.862,35.526,5.812,27.387,27.1,7.452,6.137,5.398
175,0.859,35.547,5.808,27.34,27.086,7.29,5.976,5.196
176,0.859,35.231,5.819,27.368,27.093,7.288,6.015,5.194
177,0.853,35.391,5.761,27.378,27.1,7.288,6.015,5.316
178,0.849,35.488,5.811,27.359,27.097,7.288,6.015,5.236
179,0.866,35.595,5.827,27.397,27.107,7.369,6.137,5.397
180,0.84,35.289,5.835,27.349,27.09,7.126,5.894,5.196
181,0.846,35.459,5.82,27.377,27.093,7.246,5.933,5.153
182,0.859,35.575,5.808,27.387,27.097,7.125,5.974,5.275
183,0.869,35.625,5.808,27.359,27.097,7.205,5.974,5.195
184,0.882,35.404,5.808,27.397,27.107,7.369,6.096,5.316
185,0.863,35.508,5.8,27.359,27.093,7.126,5.853,5.236
186,0.862,35.605,5.827,27.378,27.093,7.205,5.973,5.235
187,0.872,35.999,5.808,27.378,27.097,7.247,5.974,5.397
188,0.863,35.61,5.816,27.368,27.093,7.247,6.015,5.277
189,0.872,35.74,5.835,27.397,27.11,7.328,6.096,5.398
190,0.859,35.818,5.831,27.34,27.09,7.126,6.016,5.196
191,0.856,35.301,5.835,27.358,27.093,7.124,6.015,5.234
192,0.866,35.286,5.824,27.378,27.1,7.205,6.015,5.275
193,0.869,35.43,5.82,27.368,27.093,7.165,6.096,5.316
194,0.872,35.546,5.82,27.387,27.11,7.287,6.138,5.398
195,0.863,35.26,5.812,27.349,27.09,7.125,5.935,5.155
196,0.856,35.401,5.827,27.349,27.086,7.165,6.055,5.234
197,0.862,35.546,5.824,27.377,27.103,7.165,6.137,5.235
198,0.869,35.634,5.82,27.378,27.093,7.124,6.057,5.275
199,0.869,35.27,5.816,27.397,27.107,7.246,6.219,5.357
200,0.863,35.401,5.82,27.359,27.09,7.084,5.976,5.114
201,0.872,35.527,5.831,27.378,27.1,7.123,6.096,5.193
202,0.879,35.614,5.835,27.368,27.097,7.165,6.097,5.316
203,0.866,35.366,5.839,27.368,27.093,7.084,6.097,5.276
204,0.869,35.526,5.824,27.397,27.107,7.205,6.219,5.398
205,0.869,35.624,5.812,27.368,27.086,6.962,6.058,5.155
206,0.869,35.673,5.827,27.359,27.097,7.041,6.056,5.275
207,0.889,35.434,5.824,27.368,27.093,7.082,6.137,5.276
208,0.869,35.623,5.812,27.397,27.097,7.083,6.138,5.316
209,0.863,35.692,5.816,27.407,27.104,7.164,6.301,5.358
210,0.862,35.702,5.808,27.369,27.083,6.962,6.058,5.195
211,0.869,35.616,5.823,27.378,27.093,7.0,6.097,5.234
212,0.859,35.769,5.831,27.387,27.097,7.123,6.138,5.235
213,0.875,35.895,5.808,27.368,27.1,7.083,6.138,5.316
214,0.879,36.27,5.831,27.397,27.111,7.123,6.26,5.358
215,0.866,35.804,5.808,27.349,27.09,7.002,6.017,5.195
216,0.876,35.905,5.839,27.349,27.1,7.041,6.096,5.194
217,0.872,36.021,5.843,27.387,27.097,7.082,6.178,5.194
218,0.866,35.782,5.816,27.388,27.1,7.164,6.179,5.234
219,0.866,35.885,5.808,27.397,27.104,7.287,6.261,5.397
220,0.862,35.973,5.792,27.378,27.1,7.044,6.058,5.236
221,0.872,36.06,5.827,27.368,27.097,7.082,6.137,5.153
222,0.882,36.281,5.831,27.387,27.097,7.123,6.179,5.275
223,0.882,36.418,5.824,27.388,27.1,7.002,6.179,5.235
224,0.882,36.553,5.823,27.407,27.097,7.163,6.261,5.316
225,0.869,36.593,5.804,27.378,27.117,6.962,6.099,5.195
226,0.859,35.663,5.823,27.378,27.093,7.041,6.178,5.316
227,0.875,35.827,5.839,27.397,27.093,7.123,6.139,5.317
228,0.879,35.934,5.831,27.397,27.1,7.043,6.138,5.236
229,0.879,36.031,5.831,27.407,27.1,7.123,6.341,5.316
230,0.859,36.243,5.804,27.359,27.086,7.002,6.1,5.114
231,0.856,36.389,5.823,27.378,27.093,7.041,6.138,5.234
232,0.882,36.505,5.816,27.397,27.093,7.123,6.179,5.235
233,0.869,36.545,5.843,27.378,27.093,7.124,6.22,5.235
234,0.869,36.334,5.828,27.416,27.104,7.165,6.342,5.397
235,0.856,36.447,5.8,27.369,27.093,7.084,6.1,5.155
236,0.856,36.554,5.819,27.368,27.093,7.083,6.138,5.193
237,0.869,36.603,5.831,27.387,27.128,7.205,6.26,5.234
238,0.866,36.411,5.812,27.388,27.093,7.206,6.139,5.235
239,0.869,36.553,5.823,27.416,27.1,7.247,6.301,5.397
240,0.859,36.641,5.812,27.378,27.093,7.125,6.058,5.114
241,0.853,36.795,5.808,27.378,27.093,7.124,6.097,5.234
242,0.866,36.624,5.851,27.397,27.097,7.165,6.219,5.235
243,0.866,36.719,5.839,27.388,27.09,7.246,6.098,5.194
244,0.866,36.815,5.8,27.416,27.104,7.206,6.219,5.316
245,0.869,36.711,5.792,27.388,27.09,7.125,6.139,5.195
246,0.866,36.767,5.788,27.378,27.086,7.205,6.098,5.153
247,0.882,36.931,5.827,27.416,27.103,7.287,6.097,5.275
248,0.879,36.99,5.827,27.397,27.104,7.247,6.097,5.235
249,0.879,36.77,5.816,27.407,27.097,7.288,6.138,5.194
250,0.872,36.902,5.808,27.388,27.086,7.125,6.098,5.194
251,0.856,36.99,5.792,27.368,27.083,7.205,6.016,5.153
252,0.869,37.096,5.831,27.406,27.103,7.287,6.178,5.315
253,0.859,36.905,5.839,27.407,27.093,7.207,6.139,5.195
254,0.875,37.038,5.812,27.397,27.097,7.328,6.138,5.275
255,0.869,37.145,5.808,27.397,27.097,7.289,6.057,5.154
256,0.872,37.194,5.8,27.368,27.086,7.166,5.975,5.153
257,0.859,37.079,5.815,27.406,27.1,7.368,6.137,5.153
258,0.872,37.222,5.843,27.397,27.093,7.33,6.098,5.234
259,0.879,37.31,5.831,27.407,27.097,7.41,6.178,5.235
260,0.869,37.378,5.831,27.397,27.093,7.33,6.098,5.235
261,0.866,36.966,5.808,27.368,27.086,7.207,6.016,5.153
262,0.869,37.106,5.816,27.416,27.097,7.369,6.137,5.275
263,0.889,37.212,5.835,27.397,27.093,7.411,6.138,5.276
264,0.889,37.223,5.839,27.407,27.1,7.411,6.179,5.154
265,0.869,37.031,5.839,27.416,27.09,7.411,6.139,5.193
266,0.866,37.135,5.816,27.388,27.093,7.452,6.057,5.072
267,0.882,37.27,5.839,27.416,27.093,7.656,6.178,5.233
268,0.879,37.339,5.847,27.417,27.097,7.658,6.139,5.235
269,0.876,37.272,5.824,27.407,27.093,7.739,6.138,5.235
270,0.876,37.415,5.8,27.416,27.09,7.781,6.138,5.194
271,0.879,37.465,5.819,27.397,27.09,7.781,5.976,5.031
272,0.885,37.082,5.82,27.407,27.093,7.984,6.177,5.192
273,0.885,37.155,5.843,27.416,27.097,8.027,6.179,5.153
274,0.869,37.251,5.816,27.397,27.086,7.946,6.139,5.153
275,0.856,37.358,5.816,27.416,27.103,8.026,6.138,5.193
276,0.862,37.138,5.808,27.417,27.093,7.946,6.016,5.031
277,0.866,37.289,5.819,27.417,27.093,8.067,6.218,5.233
278,0.872,37.406,5.835,27.426,27.093,8.028,6.18,5.194
279,0.879,37.446,5.82,27.417,27.086,8.027,6.139,5.153
280,0.889,36.928,5.812,27.436,27.097,8.027,6.179,5.193
281,0.879,37.086,5.8,27.407,27.093,7.946,6.139,5.153
282,0.889,37.222,5.815,27.416,27.097,8.108,6.341,5.234
283,0.902,37.271,5.839,27.426,27.097,7.987,6.221,5.194
284,0.882,37.329,5.831,27.388,27.083,7.946,6.22,5.112
285,0.882,37.483,5.804,27.435,27.093,7.864,6.261,5.152
286,0.895,37.6,5.831,27.407,27.09,7.822,6.343,5.153
287,0.905,37.649,5.839,27.416,27.1,7.944,6.425,5.275
288,0.915,37.16,5.835,27.464,27.1,7.823,6.426,5.154
289,0.873,37.251,5.824,27.398,27.083,7.741,6.344,5.193
290,0.882,37.367,5.816,27.426,27.093,7.821,6.425,5.234
291,0.902,37.397,5.816,27.436,27.093,7.781,6.466,5.113
292,0.892,37.254,5.827,27.407,27.114,7.822,6.507,5.193
293,0.902,37.386,5.827,27.464,27.104,7.903,6.549,5.153
294,0.886,37.455,5.82,27.417,27.086,7.66,6.386,5.153
295,0.898,37.456,5.808,27.417,27.093,7.739,6.466,5.071
296,0.886,37.417,5.816,27.445,27.09,7.659,6.548,5.111
297,0.889,37.542,5.812,27.417,27.097,7.658,6.549,5.274
298,0.905,37.629,5.819,27.464,27.104,7.78,6.63,5.195
299,0.869,37.007,5.82,27.407,27.093,7.496,6.468,5.072
300,0.879,37.096,5.827,27.436,27.097,7.494,6.548,5.111
301,0.885,37.241,5.835,27.493,27.097,7.534,6.59,5.193
302,0.879,37.329,5.824,27.446,27.097,7.575,6.59,5.153
303,0.882,37.109,5.851,27.465,27.1,7.616,6.671,5.193
304,0.866,37.212,5.835,27.427,27.083,7.373,6.509,5.194
305,0.872,37.319,5.835,27.445,27.086,7.452,6.508,5.194
306,0.863,37.406,5.82,27.455,27.09,7.452,6.589,5.234
307,0.879,36.985,5.831,27.455,27.1,7.452,6.549,5.194
308,0.898,37.144,5.824,27.474,27.104,7.493,6.671,5.275
309,0.873,37.232,5.82,27.427,27.093,7.29,6.469,5.113
310,0.859,37.29,5.835,27.426,27.093,7.369,6.548,5.112
311,0.859,37.013,5.827,27.455,27.104,7.411,6.549,5.193
312,0.846,37.135,5.812,27.455,27.093,7.371,6.59,5.153
313,0.872,37.27,5.827,27.465,27.104,7.573,6.631,5.315
314,0.846,37.262,5.835,27.417,27.097,7.372,6.468,5.073
315,0.846,37.022,5.816,27.436,27.09,7.452,6.548,5.152
316,0.846,37.164,5.812,27.465,27.097,7.452,6.549,5.153
317,0.84,37.28,5.823,27.455,27.093,7.493,6.549,5.153
318,0.833,37.31,5.831,27.484,27.107,7.616,6.63,5.275
319,0.82,36.927,5.824,27.446,27.086,7.495,6.509,5.154
320,0.82,37.076,5.839,27.455,27.093,7.575,6.467,5.112
321,0.836,37.193,5.816,27.474,27.104,7.616,6.548,5.234
322,0.83,37.098,5.831,27.455,27.093,7.657,6.549,5.235
323,0.826,37.097,5.824,27.474,27.19,7.739,6.63,5.316
324,0.817,37.174,5.831,27.436,27.094,7.537,6.387,5.114
325,0.81,37.29,5.851,27.465,27.093,7.534,6.547,5.193
326,0.826,36.907,5.839,27.474,27.097,7.616,6.549,5.234
327,0.817,36.99,5.816,27.455,27.086,7.576,6.508,5.235
328,0.823,37.144,5.827,27.503,27.11,7.616,6.63,5.235
329,0.81,37.184,5.82,27.456,27.083,7.454,6.428,5.113
330,0.813,37.884,5.839,27.446,27.097,7.534,6.426,5.152
331,0.813,38.026,5.843,27.484,27.09,7.494,6.507,5.193
332,0.803,38.133,5.824,27.456,27.097,7.616,6.467,5.234
333,0.807,38.22,5.82,27.494,27.111,7.739,6.67,5.397
334,0.784,36.255,5.812,27.456,27.086,7.618,6.347,5.074
335,0.784,36.398,5.827,27.446,27.159,7.657,6.506,5.03
336,0.803,36.496,5.827,27.465,27.097,7.698,6.427,5.192
337,0.787,36.602,5.816,27.455,27.093,7.699,6.344,5.194
338,0.79,37.025,5.816,27.474,27.107,7.861,6.628,5.316
339,0.784,37.135,5.796,27.455,27.086,7.7,6.346,5.114
340,0.784,37.232,5.827,27.446,27.093,7.699,6.384,5.193
341,0.777,37.29,5.847,27.465,27.093,7.861,6.466,5.275
342,0.777,36.658,5.777,27.465,27.093,7.822,6.426,5.195
343,0.78,36.776,5.839,27.474,27.097,7.985,6.507,5.275
344,0.774,36.874,5.808,27.465,27.086,7.783,6.386,5.073
345,0.771,36.865,5.827,27.455,27.093,7.903,6.385,5.233
346,0.767,37.037,5.824,27.494,27.097,7.945,6.466,5.316
347,0.777,37.154,5.812,27.484,27.097,7.986,6.426,5.236
348,0.78,37.261,5.812,27.494,27.1,8.027,6.548,5.316
349,0.774,36.821,5.8,27.456,27.083,7.865,6.386,5.073
350,0.754,36.711,5.823,27.474,27.097,7.944,6.425,5.07
351,0.78,36.873,5.851,27.475,27.097,7.945,6.466,5.152
352,0.777,36.98,5.816,27.484,27.093,7.986,6.507,5.234
353,0.764,36.885,5.831,27.475,27.097,7.986,6.63,5.235
354,0.767,37.018,5.824,27.436,27.093,7.864,6.428,5.113
355,0.761,37.116,5.823,27.445,27.086,7.822,6.507,5.152
356,0.783,37.232,5.851,27.474,27.09,7.863,6.549,5.193
357,0.784,36.763,5.812,27.465,27.093,7.863,6.508,5.153
358,0.78,36.931,5.823,27.474,27.093,7.944,6.589,5.234
359,0.774,37.019,5.788,27.465,27.086,7.661,6.427,5.153
360,0.78,37.068,5.8,27.455,27.093,7.78,6.466,5.193
361,0.784,36.838,5.839,27.474,27.097,7.781,6.507,5.153
362,0.777,36.97,5.839,27.475,27.097,7.74,6.508,5.193
363,0.78,37.106,5.824,27.475,27.093,7.699,6.63,5.194
364,0.774,37.145,5.808,27.475,27.093,7.577,6.468,5.234
365,0.767,36.848,5.812,27.455,27.083,7.535,6.426,5.032
366,0.77,37.028,5.847,27.494,27.103,7.616,6.548,5.151
367,0.777,37.135,5.816,27.475,27.097,7.617,6.549,5.112
368,0.771,37.165,5.831,27.484,27.097,7.576,6.549,5.234
369,0.774,36.992,5.808,27.465,27.093,7.535,6.549,5.032
370,0.761,37.096,5.8,27.436,27.086,7.494,6.427,5.07
371,0.78,37.222,5.823,27.484,27.1,7.738,6.548,5.193
372,0.774,37.492,5.82,27.475,27.093,7.699,6.508,5.153
373,0.777,36.785,5.823,27.484,27.093,7.618,6.508,5.193
374,0.78,36.912,5.82,27.484,27.086,7.657,6.467,5.112
375,0.777,36.98,5.82,27.446,27.079,7.617,6.345,5.03
376,0.784,36.789,5.839,27.493,27.096,7.779,6.506,5.151
377,0.787,36.797,5.835,27.484,27.093,7.74,6.427,5.193
378,0.771,36.912,5.812,27.475,27.1,7.699,6.385,5.112
379,0.787,37.019,5.823,27.484,27.093,7.618,6.425,5.112
380,0.793,36.694,5.82,27.456,27.083,7.657,6.344,5.071
381,0.787,36.834,5.82,27.484,27.097,7.82,6.466,5.193
382,0.787,36.932,5.839,27.484,27.093,7.741,6.426,5.153
383,0.78,37.019,5.808,27.465,27.09,7.781,6.385,5.153
384,0.777,36.588,5.812,27.484,27.093,7.822,6.385,5.071
385,0.784,36.718,5.796,27.484,27.086,7.741,6.263,5.111
386,0.79,36.863,5.819,27.494,27.097,7.821,6.384,5.193
387,0.79,36.932,5.827,27.523,27.086,7.781,6.344,5.194
388,0.771,36.645,5.812,27.485,27.079,7.7,6.262,5.072
389,0.783,36.805,5.835,27.484,27.09,7.78,6.384,5.111
390,0.78,36.912,5.82,27.494,27.086,7.659,6.263,5.071
391,0.774,36.961,5.839,27.494,27.093,7.739,6.343,5.193
392,0.79,36.703,5.839,27.504,27.093,7.781,6.343,5.194
393,0.774,36.796,5.808,27.475,27.093,7.659,6.262,5.112
394,0.79,36.931,5.796,27.475,27.086,7.698,6.302,5.112
395,0.787,36.952,5.819,27.494,27.093,7.577,6.221,5.112
396,0.797,36.674,5.839,27.475,27.093,7.616,6.342,5.193
397,0.797,36.853,5.859,27.523,27.104,7.657,6.303,5.194
398,0.777,36.903,5.816,27.475,27.086,7.495,6.221,5.153
399,0.79,37.278,5.82,27.475,27.093,7.453,6.302,5.153
400,0.787,36.581,5.82,27.494,27.1,7.452,6.302,5.153
401,0.803,36.699,5.835,27.504,27.093,7.452,6.262,5.193
402,0.807,36.806,5.839,27.504,27.1,7.412,6.343,5.194
403,0.781,37.459,5.828,27.475,27.09,7.371,6.262,5.112
404,0.784,37.705,5.812,27.484,27.097,7.33,6.302,5.152
405,0.793,37.823,5.808,27.513,27.09,7.329,6.262,5.153
406,0.787,37.9,5.812,27.513,27.1,7.289,6.384,5.193
407,0.793,35.83,5.847,27.513,27.104,7.451,6.303,5.234
408,0.78,35.857,5.832,27.475,27.079,7.249,6.262,5.113
409,0.793,36.001,5.827,27.503,27.1,7.288,6.302,5.152
410,0.803,36.089,5.824,27.504,27.09,7.247,6.302,5.112
411,0.794,36.502,5.816,27.504,27.097,7.288,6.343,5.152
412,0.806,36.66,5.859,27.513,27.1,7.288,6.343,5.234
413,0.781,36.748,5.828,27.494,27.086,7.125,6.181,5.032
414,0.78,36.854,5.824,27.513,27.097,7.205,6.139,5.151
415,0.793,36.261,5.816,27.475,27.097,7.165,6.219,5.031
416,0.79,36.379,5.812,27.494,27.097,7.206,6.261,5.151
417,0.803,36.515,5.839,27.523,27.107,7.328,6.343,5.193
418,0.794,36.535,5.839,27.494,27.086,7.085,6.221,5.072
419,0.8,36.229,5.792,27.513,27.093,7.205,6.302,5.111
420,0.807,36.369,5.808,27.504,27.09,7.165,6.262,5.152
421,0.79,36.486,5.808,27.513,27.128,7.206,6.302,5.193
422,0.806,36.525,5.843,27.532,27.097,7.287,6.384,5.275
423,0.787,36.315,5.82,27.494,27.093,7.004,6.222,5.113
424,0.793,36.447,5.804,27.494,27.093,7.082,6.22,5.112
425,0.803,36.573,5.823,27.523,27.093,7.083,6.22,5.193
426,0.794,36.68,5.812,27.504,27.097,7.042,6.22,5.234
427,0.803,36.278,5.843,27.542,27.107,7.164,6.342,5.275
428,0.787,36.379,5.828,27.485,27.093,6.921,6.181,5.032
429,0.784,36.486,5.816,27.513,27.097,7.041,6.139,5.192
430,0.793,36.219,5.827,27.504,27.097,7.082,6.26,5.234
431,0.774,36.283,5.804,27.523,27.097,6.961,6.221,5.153
432,0.78,36.418,5.827,27.552,27.107,7.122,6.383,5.275
433,0.78,36.477,5.827,27.495,27.138,7.002,6.141,5.073
434,0.79,36.276,5.804,27.504,27.09,6.96,6.179,5.193
435,0.793,36.427,5.815,27.523,27.097,7.0,6.22,5.112
436,0.793,36.525,5.8,27.513,27.093,7.001,6.18,5.112
437,0.806,36.631,5.827,27.532,27.097,7.082,6.342,5.234
438,0.803,36.105,5.835,27.513,27.097,6.92,6.181,5.113
439,0.781,36.224,5.812,27.513,27.093,6.959,6.179,5.071
440,0.8,36.389,5.808,27.532,27.1,6.96,6.261,5.193
441,0.803,36.438,5.816,27.523,27.093,6.96,6.221,5.112
442,0.816,36.688,5.816,27.533,27.093,7.041,6.302,5.274
443,0.813,36.786,5.835,27.513,27.09,6.879,6.221,5.113
444,0.781,36.902,5.808,27.504,27.086,6.877,6.18,5.152
445,0.793,36.99,5.816,27.552,27.1,7.04,6.22,5.193
446,0.8,35.83,5.808,27.523,27.09,7.001,6.22,5.194
447,0.803,35.953,5.823,27.523,27.093,6.96,6.261,5.234
448,0.79,36.069,5.835,27.523,27.093,6.919,6.18,5.072
449,0.787,36.071,5.82,27.513,27.086,6.878,6.057,5.07
450,0.81,36.32,5.816,27.532,27.1,7.04,6.219,5.233
451,0.797,36.418,5.808,27.533,27.093,6.96,6.22,5.153
452,0.784,36.515,5.804,27.533,27.097,7.0,6.22,5.193
453,0.787,36.43,5.823,27.523,27.093,6.96,6.18,5.112
454,0.777,36.093,5.8,27.513,27.083,6.919,6.098,5.071
455,0.8,36.253,5.808,27.552,27.1,7.0,6.26,5.233
456,0.794,36.36,5.808,27.523,27.086,7.082,6.262,5.113
457,0.774,36.15,5.804,27.513,27.097,7.042,6.262,5.071
458,0.787,36.244,5.819,27.523,27.093,7.042,6.221,5.07
459,0.774,36.341,5.816,27.513,27.083,6.96,6.098,5.07
460,0.78,36.476,5.843,27.552,27.1,7.163,6.3,5.111
461,0.784,36.113,5.824,27.552,27.093,7.165,6.18,5.152
462,0.777,36.244,5.816,27.523,27.09,7.124,6.179,5.193
463,0.79,36.379,5.823,27.533,27.083,7.205,6.22,5.112
464,0.793,36.438,5.847,27.523,27.097,7.165,6.139,5.03
465,0.78,36.266,5.843,27.552,27.097,7.328,6.219,5.192
466,0.787,36.418,5.824,27.552,27.093,7.329,6.18,5.112
467,0.787,36.506,5.804,27.523,27.093,7.329,6.179,5.071
468,0.784,36.583,5.819,27.542,27.083,7.37,6.179,5.111
469,0.787,36.133,5.823,27.533,27.086,7.33,6.139,5.071
470,0.79,36.301,5.8,27.561,27.093,7.532,6.301,5.193
471,0.8,36.428,5.827,27.552,27.104,7.494,6.302,5.072
472,0.774,36.41,5.796,27.533,27.086,7.371,6.099,5.111
473,0.787,36.266,5.823,27.533,27.093,7.452,6.26,5.112
474,0.787,36.399,5.835,27.552,27.093,7.534,6.262,5.071
475,0.777,36.505,5.82,27.542,27.093,7.657,6.302,5.111
476,0.78,36.583,5.835,27.59,27.11,7.739,6.384,5.152
477,0.767,36.239,5.808,27.533,27.093,7.577,6.141,5.071
478,0.764,36.389,5.827,27.542,27.086,7.698,6.26,5.111
479,0.774,36.496,5.831,27.552,27.1,7.861,6.343,5.071
480,0.777,36.573,5.804,27.552,27.093,7.822,6.262,5.193
481,0.793,36.603,5.839,27.59,27.107,8.066,6.343,5.316
482,0.771,36.69,5.812,27.533,27.09,7.865,6.1,5.073
483,0.761,36.786,5.816,27.552,27.093,7.944,6.138,5.152
484,0.777,36.193,5.831,27.552,27.1,7.986,6.26,5.193
485,0.774,36.244,5.827,27.562,27.097,8.027,6.262,5.194
486,0.787,36.408,5.843,27.571,27.111,8.149,6.302,5.194
487,0.767,36.458,5.824,27.543,27.086,8.028,6.221,5.072
488,0.764,36.18,5.827,27.542,27.093,8.068,6.22,5.111
489,0.774,36.331,5.839,27.562,27.1,8.109,6.302,5.152
490,0.78,36.438,5.824,27.571,27.093,8.069,6.262,5.112
491,0.774,36.515,5.823,27.638,27.104,8.191,6.343,5.274
492,0.761,36.152,5.82,27.553,27.083,8.07,6.221,5.073
493,0.767,36.282,5.823,27.552,27.093,8.069,6.261,5.111
494,0.764,36.418,5.851,27.552,27.097,8.109,6.424,5.234
495,0.77,36.486,5.843,27.542,27.097,8.069,6.304,5.153
496,0.767,36.305,5.773,27.581,27.097,8.109,6.384,5.234
497,0.777,36.437,5.819,27.552,27.083,7.987,6.222,4.991
498,0.751,36.525,5.804,27.542,27.09,7.946,6.342,5.07
499,0.751,36.603,5.827,27.562,27.093,8.026,6.384,5.233
500,0.764,36.249,5.843,27.552,27.1,7.946,6.385,5.194
501,0.774,36.389,5.816,27.581,27.1,8.026,6.466,5.194
502,0.761,36.486,5.82,27.562,27.09,7.946,6.304,5.072
503,0.767,36.477,5.796,27.552,27.093,7.905,6.343,5.152
504,0.777,36.391,5.819,27.581,27.097,8.026,6.466,5.153
505,0.774,36.515,5.835,27.552,27.093,7.987,6.386,5.193
506,0.774,36.631,5.816,27.59,27.1,8.027,6.507,5.316
507,0.758,36.469,5.796,27.572,27.086,7.987,6.345,5.114
508,0.741,36.372,5.811,27.562,27.093,7.986,6.384,5.112
509,0.747,36.505,5.835,27.581,27.09,8.108,6.507,5.193
510,0.754,36.602,5.835,27.562,27.093,8.069,6.467,5.153
511,0.754,36.249,5.82,27.571,27.097,8.069,6.467,5.275
512,0.754,36.331,5.816,27.552,27.097,7.946,6.386,5.113
513,0.751,36.438,5.788,27.533,27.093,7.986,6.344,5.071
514,0.757,36.563,5.823,27.571,27.097,8.068,6.466,5.233
515,0.748,36.402,5.835,27.552,27.09,8.028,6.426,5.153
516,0.738,36.505,5.808,27.571,27.09,7.987,6.344,5.153
517,0.747,36.631,5.812,27.552,27.097,7.946,6.384,5.112
518,0.747,36.69,5.792,27.542,27.086,7.864,6.263,4.989
519,0.747,36.422,5.819,27.581,27.097,8.026,6.465,5.151
520,0.76,36.534,5.827,27.581,27.097,8.027,6.386,5.071
521,0.754,36.651,5.827,27.572,27.093,7.987,6.385,5.152
522,0.757,36.738,5.808,27.571,27.086,7.946,6.303,5.112
523,0.757,36.25,5.808,27.552,27.079,7.864,6.221,5.071
524,0.764,36.398,5.823,27.59,27.107,7.985,6.342,5.193
525,0.764,36.505,5.855,27.591,27.09,7.986,6.384,5.194
526,0.764,36.535,5.816,27.552,27.086,7.905,6.303,5.153
527,0.767,36.305,5.808,27.59,27.097,7.904,6.343,5.153
528,0.774,36.437,5.812,27.572,27.086,7.782,6.262,5.071
529,0.764,36.535,5.819,27.581,27.1,7.903,6.302,5.193
530,0.77,36.555,5.835,27.591,27.093,7.823,6.302,5.153
531,0.741,36.238,5.812,27.572,27.09,7.7,6.262,5.071
532,0.751,36.408,5.827,27.581,27.093,7.74,6.221,5.07
533,0.751,36.515,5.816,27.581,27.086,7.74,6.261,5.03
534,0.744,36.324,5.827,27.591,27.1,7.699,6.302,5.07
535,0.76,36.342,5.847,27.591,27.1,7.74,6.221,5.152
536,0.741,36.39,5.82,27.572,27.097,7.577,6.261,5.031
537,0.744,36.524,5.835,27.6,27.093,7.616,6.302,5.111
538,0.747,36.19,5.812,27.591,27.093,7.657,6.343,5.112
539,0.754,36.302,5.812,27.572,27.093,7.576,6.343,5.152
540,0.764,36.466,5.855,27.629,27.104,7.657,6.425,5.071
541,0.744,36.487,5.836,27.572,27.09,7.495,6.222,5.07
542,0.741,36.247,5.843,27.591,27.093,7.616,6.302,5.111
543,0.754,36.398,5.82,27.61,27.097,7.617,6.343,5.152
544,0.754,36.486,5.816,27.601,27.097,7.698,6.425,5.153
545,0.754,36.612,5.843,27.629,27.104,7.78,6.426,5.275
546,0.748,36.22,5.831,27.582,27.093,7.618,6.222,5.154
547,0.767,36.379,5.812,27.581,27.09,7.617,6.342,5.193
548,0.761,36.505,5.812,27.61,27.176,7.698,6.384,5.153
549,0.757,36.564,5.819,27.581,27.097,7.74,6.344,5.153
550,0.764,36.162,5.843,27.639,27.107,7.821,6.547,5.234
551,0.744,36.263,5.835,27.582,27.093,7.619,6.305,5.032
552,0.751,36.399,5.796,27.591,27.09,7.739,6.343,5.151
553,0.748,36.457,5.819,27.61,27.097,7.74,6.425,5.153
554,0.747,36.247,5.827,27.601,27.097,7.74,6.385,5.112
555,0.754,36.389,5.835,27.6,27.104,7.781,6.507,5.193
556,0.741,36.467,5.82,27.581,27.093,7.659,6.305,4.99
557,0.741,36.592,5.823,27.581,27.093,7.617,6.343,5.029
558,0.754,36.296,5.823,27.6,27.1,7.698,6.425,5.151
559,0.754,36.408,5.812,27.6,27.097,7.699,6.385,5.112
560,0.761,36.525,5.812,27.6,27.18,7.78,6.466,5.234
561,0.751,36.161,5.816,27.581,27.087,7.7,6.345,5.113
562,0.735,36.158,5.816,27.581,27.09,7.78,6.303,5.152
563,0.767,36.311,5.827,27.619,27.1,7.781,6.384,5.153
564,0.748,36.399,5.82,27.61,27.097,7.862,6.385,5.112
565,0.76,36.093,5.82,27.601,27.104,7.944,6.507,5.274
566,0.751,36.215,5.827,27.591,27.086,7.783,6.305,5.073
567,0.754,36.331,5.824,27.591,27.093,7.903,6.302,5.111
568,0.757,36.447,5.835,27.667,27.1,7.945,6.343,5.193
569,0.757,36.055,5.843,27.611,27.093,7.905,6.343,5.153
570,0.764,36.195,5.831,27.61,27.097,7.945,6.466,5.193
571,0.761,36.312,5.831,27.591,27.09,7.783,6.345,5.072
572,0.761,36.361,5.816,27.572,27.093,7.74,6.384,5.07
573,0.748,36.102,5.831,27.619,27.097,7.821,6.385,5.193
574,0.78,36.243,5.8,27.61,27.093,7.781,6.303,5.112
575,0.767,36.35,5.804,27.591,27.097,7.74,6.384,5.03
576,0.77,36.39,5.831,27.591,27.086,7.659,6.303,4.989
577,0.761,36.131,5.816,27.562,27.09,7.617,6.221,4.988
578,0.79,36.33,5.816,27.61,27.093,7.779,6.302,5.192
579,0.777,36.428,5.816,27.601,27.1,7.659,6.302,5.112
580,0.784,36.448,5.816,27.572,27.086,7.698,6.302,5.112
581,0.79,36.141,5.839,27.6,27.09,7.618,6.221,5.071
582,0.79,36.244,5.831,27.581,27.093,7.495,6.18,4.989
583,0.806,36.36,5.804,27.619,27.093,7.575,6.342,5.192
584,0.813,36.783,5.796,27.61,27.097,7.494,6.262,5.112
585,0.8,36.116,5.792,27.591,27.093,7.412,6.221,5.03
586,0.81,36.244,5.811,27.581,27.086,7.533,6.302,5.03
587,0.826,36.331,5.827,27.6,27.086,7.412,6.262,5.03
588,0.833,36.064,5.831,27.61,27.093,7.533,6.221,5.151
589,0.852,36.118,5.827,27.61,27.093,7.494,6.302,5.112
590,0.849,36.205,5.781,27.601,27.086,7.412,6.221,5.03
591,0.849,36.292,5.811,27.6,27.1,7.452,6.22,5.07
592,0.853,36.13,5.839,27.61,27.093,7.452,6.22,5.07
593,0.853,36.282,5.831,27.601,27.09,7.452,6.261,5.111
594,0.843,36.447,5.831,27.629,27.104,7.534,6.302,5.112
595,0.83,36.477,5.8,27.601,27.086,7.331,6.14,4.989
596,0.852,35.768,5.815,27.61,27.097,7.41,6.138,5.11
597,0.859,35.924,5.831,27.61,27.097,7.33,6.179,5.071
598,0.866,36.04,5.827,27.601,27.093,7.41,6.22,5.07
599,0.882,36.137,5.835,27.648,27.107,7.452,6.342,5.193
600,0.882,36.052,5.812,27.582,27.086,7.208,6.14,5.112
601,0.882,36.195,5.812,27.591,27.097,7.206,6.219,5.112
602,0.898,36.312,5.831,27.619,27.093,7.287,6.18,5.112
603,0.899,36.361,5.835,27.601,27.104,7.288,6.261,5.112
604,0.918,36.016,5.847,27.687,27.104,7.288,6.343,5.234
605,0.902,36.118,5.812,27.611,27.086,7.044,6.221,4.991
606,0.908,36.224,5.816,27.62,27.097,7.204,6.22,5.07
607,0.918,36.283,5.851,27.639,27.086,7.165,6.261,5.152
608,0.915,35.958,5.82,27.62,27.097,7.084,6.262,5.112
609,0.918,36.117,5.788,27.658,27.1,7.205,6.343,5.193
610,0.886,36.186,5.796,27.591,27.09,6.962,6.059,5.112
611,0.872,36.369,5.823,27.6,27.09,7.041,6.178,5.112
612,0.876,35.987,5.831,27.6,27.1,7.042,6.139,5.071
613,0.882,36.108,5.831,27.6,27.093,7.001,6.138,5.111
614,0.882,36.224,5.812,27.629,27.1,7.082,6.301,5.234
615,0.872,35.947,5.823,27.591,27.131,7.002,6.14,5.032
616,0.869,36.021,5.823,27.6,27.094,6.838,6.138,5.111
617,0.902,36.176,5.843,27.61,27.09,6.958,6.219,5.071
618,0.892,36.244,5.847,27.62,27.097,6.919,6.18,5.07
619,0.902,35.919,5.82,27.639,27.1,7.0,6.261,5.152
620,0.905,36.021,5.8,27.601,27.09,6.797,6.017,5.031
621,0.908,36.128,5.808,27.6,27.086,6.877,6.137,5.111
622,0.902,36.225,5.847,27.62,27.103,6.918,6.138,5.071
623,0.908,35.928,5.828,27.62,27.1,6.959,6.179,5.111
624,0.908,36.069,5.808,27.62,27.104,7.082,6.22,5.234
625,0.908,36.195,5.8,27.61,27.09,7.002,6.017,4.991
626,0.876,36.244,5.796,27.61,27.093,7.123,6.137,5.11
627,0.892,35.919,5.831,27.629,27.093,7.246,6.138,5.112
628,0.879,36.05,5.847,27.61,27.093,7.206,6.098,5.112
629,0.872,36.166,5.835,27.601,27.1,7.287,6.219,5.234
630,0.869,36.225,5.816,27.6,27.093,7.207,6.017,5.072
631,0.872,35.756,5.788,27.591,27.09,7.247,6.015,5.03
632,0.889,35.924,5.831,27.61,27.097,7.369,6.137,5.111
633,0.872,36.021,5.827,27.61,27.093,7.33,5.976,5.112
634,0.856,36.061,5.812,27.61,27.1,7.41,6.096,5.152
635,0.843,35.965,5.808,27.591,27.097,7.371,6.056,5.071
636,0.823,36.108,5.8,27.581,27.079,7.289,5.934,4.989
637,0.81,36.215,5.819,27.619,27.1,7.41,6.055,5.11
638,0.8,36.225,5.835,27.61,27.097,7.33,6.015,5.112
639,0.797,35.986,5.796,27.62,27.1,7.451,6.096,5.152
640,0.781,36.108,5.808,27.601,27.09,7.29,6.056,5.031
641,0.761,36.196,5.788,27.572,27.079,7.207,5.975,4.948
642,0.78,35.813,5.819,27.629,27.1,7.328,6.015,5.11
643,0.771,35.847,5.816,27.61,27.093,7.329,6.015,5.112
644,0.761,35.992,5.808,27.61,27.093,7.329,6.015,5.152
645,0.767,36.099,5.816,27.648,27.093,7.289,5.934,5.071
646,0.757,35.745,5.812,27.591,27.09,7.166,5.892,5.03
647,0.757,35.895,5.816,27.629,27.1,7.287,6.054,5.192
648,0.754,36.011,5.823,27.61,27.093,7.247,5.975,5.072
649,0.741,36.07,5.823,27.601,27.1,7.166,5.933,5.111
650,0.738,35.773,5.808,27.648,27.093,7.084,5.933,5.03
651,0.734,35.895,5.792,27.601,27.086,7.042,5.892,4.989
652,0.741,36.021,5.808,27.629,27.097,7.204,6.054,5.11
653,0.725,36.099,5.827,27.591,27.097,7.165,5.975,5.112
654,0.708,35.841,5.816,27.572,27.083,7.084,5.974,4.989
655,0.711,35.982,5.8,27.6,27.086,7.083,6.015,5.07
656,0.708,36.108,5.808,27.61,27.093,7.083,5.893,4.948
657,0.718,36.167,5.808,27.62,27.09,7.164,6.095,5.069
658,0.724,35.841,5.812,27.629,27.1,7.165,6.056,5.07
659,0.705,35.934,5.827,27.591,27.093,7.206,6.015,5.07
660,0.698,36.069,5.812,27.61,27.093,7.165,6.096,5.07
661,0.688,36.08,5.808,27.591,27.093,7.124,6.056,5.03
662,0.685,35.917,5.823,27.619,27.097,7.205,6.097,5.111
663,0.701,36.059,5.843,27.62,27.1,7.247,6.056,5.071
664,0.685,36.099,5.835,27.591,27.083,7.125,6.056,5.07
665,0.695,36.013,5.812,27.61,27.093,7.205,6.056,5.111
666,0.701,35.849,5.808,27.62,27.097,7.206,6.097,5.03
667,0.695,35.963,5.808,27.591,27.093,7.165,6.178,5.151
668,0.708,36.108,5.839,27.639,27.1,7.287,6.179,5.071
669,0.682,35.553,5.828,27.582,27.086,7.085,6.098,4.948
670,0.685,35.672,5.831,27.591,27.135,7.164,6.178,5.11
671,0.701,35.808,5.82,27.6,27.094,7.206,6.179,5.03
672,0.692,35.895,5.796,27.61,27.093,7.125,6.139,5.111
673,0.695,35.82,5.839,27.639,27.107,7.287,6.301,5.234
674,0.688,35.915,5.82,27.582,27.083,7.044,6.058,4.991
675,0.692,36.059,5.823,27.619,27.093,7.123,6.178,4.988
676,0.698,36.138,5.831,27.601,27.097,7.165,6.179,5.151
677,0.692,35.649,5.816,27.6,27.097,7.124,6.22,5.112
678,0.685,35.836,5.823,27.639,27.104,7.246,6.261,5.193
679,0.672,35.896,5.839,27.591,27.086,7.084,6.099,5.031
680,0.678,35.954,5.831,27.6,27.1,7.042,6.097,5.07
681,0.688,35.59,5.831,27.62,27.093,7.164,6.219,5.111
682,0.679,35.711,5.796,27.601,27.121,7.002,6.22,5.112
683,0.685,35.846,5.839,27.629,27.107,7.204,6.342,5.274
684,0.688,35.867,5.835,27.591,27.086,6.962,6.14,4.991
685,0.682,35.81,5.831,27.6,27.097,7.0,6.219,5.11
686,0.685,35.972,5.824,27.629,27.09,7.082,6.22,5.152
687,0.688,36.06,5.816,27.63,27.097,6.961,6.22,5.071
688,0.679,36.109,5.823,27.63,27.1,7.122,6.383,5.233
689,0.675,35.62,5.827,27.591,27.1,6.921,6.1,5.072
690,0.672,35.75,5.827,27.572,27.1,6.919,6.178,5.111
691,0.675,35.876,5.808,27.61,27.093,6.959,6.22,5.152
692,0.685,35.858,5.804,27.62,27.093,6.919,6.22,5.153
693,0.688,35.877,5.815,27.61,27.1,7.0,6.342,5.275
694,0.672,35.992,5.835,27.572,27.086,6.838,6.1,4.951
695,0.672,36.06,5.839,27.581,27.09,6.796,6.178,5.069
696,0.678,35.677,5.828,27.6,27.097,6.795,6.179,5.07
697,0.682,35.75,5.824,27.6,27.097,6.795,6.139,5.07
698,0.692,35.895,5.835,27.629,27.104,6.877,6.301,5.274
699,0.669,35.963,5.812,27.582,27.097,6.715,6.058,5.032
700,0.682,35.705,5.823,27.581,27.097,6.713,6.137,5.07
701,0.695,35.866,5.816,27.61,27.1,6.794,6.219,5.111
702,0.688,35.982,5.816,27.62,27.097,6.755,6.139,5.03
703,0.695,36.07,5.82,27.61,27.107,6.795,6.301,5.233
704,0.685,35.745,5.82,27.601,27.086,6.633,6.099,5.032
705,0.679,35.885,5.839,27.6,27.09,6.631,6.138,5.111
706,0.682,36.03,5.831,27.6,27.093,6.672,6.179,5.152
707,0.675,36.08,5.827,27.62,27.093,6.631,6.139,5.112
708,0.691,35.764,5.82,27.61,27.104,6.672,6.301,5.274
709,0.685,35.866,5.831,27.591,27.1,6.469,5.977,5.154
710,0.685,35.982,5.827,27.591,27.093,6.548,6.096,5.071
711,0.701,36.041,5.835,27.61,27.1,6.549,6.219,5.111
712,0.685,35.6,5.808,27.591,27.093,6.508,6.139,5.112
713,0.698,35.73,5.823,27.61,27.107,6.67,6.219,5.274
714,0.685,35.808,5.8,27.562,27.086,6.469,6.017,4.991
715,0.682,35.819,5.819,27.562,27.093,6.467,6.096,5.029
716,0.688,35.723,5.816,27.6,27.104,6.507,6.097,5.07
717,0.692,35.856,5.831,27.6,27.093,6.508,6.097,5.07
718,0.698,35.973,5.816,27.61,27.107,6.67,6.26,5.314
719,0.685,35.715,5.808,27.572,27.09,6.469,5.977,5.073
720,0.698,35.674,5.827,27.571,27.086,6.507,6.055,5.07
721,0.711,35.808,5.831,27.591,27.097,6.549,6.097,5.111
722,0.715,35.905,5.769,27.591,27.09,6.549,6.097,5.152
723,0.734,35.618,5.819,27.61,27.107,6.508,6.219,5.153
724,0.738,35.702,5.808,27.581,27.086,6.467,6.058,5.071
725,0.757,35.827,5.839,27.61,27.121,6.548,6.097,5.152
726,0.793,35.905,5.851,27.591,27.1,6.63,6.097,5.112
727,0.81,35.609,5.808,27.6,27.093,6.509,6.097,5.112
728,0.839,35.769,5.819,27.61,27.1,6.589,6.219,5.193
729,0.869,35.876,5.8,27.572,27.086,6.427,6.058,5.072
730,0.885,35.934,5.808,27.591,27.097,6.548,6.056,5.03
731,0.911,35.542,5.827,27.6,27.097,6.63,6.097,5.151
732,0.931,35.662,5.788,27.581,27.097,6.509,6.097,5.112
733,0.944,35.788,5.811,27.6,27.1,6.549,6.178,5.152
734,0.951,35.838,5.808,27.562,27.09,6.468,6.057,5.031
735,0.961,35.57,5.819,27.533,27.086,6.426,6.015,5.07
736,1.026,35.759,5.851,27.581,27.097,6.629,6.096,5.152
737,1.04,35.866,5.824,27.591,27.173,6.55,6.138,5.071
738,1.03,35.915,5.823,27.581,27.097,6.63,6.179,5.152
739,1.027,36.884,5.812,27.562,27.09,6.59,6.057,5.071
740,1.023,36.999,5.827,27.552,27.093,6.468,6.056,4.989
741,1.033,37.115,5.855,27.59,27.097,6.711,6.097,5.192
742,1.027,37.126,5.824,27.591,27.1,6.754,6.138,5.112
743,0.984,34.988,5.812,27.562,27.086,6.754,6.057,5.071
744,0.952,35.11,5.808,27.571,27.093,6.836,6.137,5.111
745,0.912,35.208,5.816,27.562,27.079,6.714,5.976,4.989
746,0.869,35.554,5.843,27.562,27.093,6.916,6.137,5.151
747,0.804,35.749,5.82,27.581,27.097,7.0,6.057,5.193
748,0.732,35.847,5.823,27.572,27.086,6.96,6.056,5.112
749,0.673,35.963,5.8,27.562,27.173,6.96,6.137,4.989
750,0.649,35.283,5.8,27.543,27.084,6.878,5.976,4.988
751,0.564,35.401,5.835,27.562,27.093,7.121,6.137,5.07
752,0.524,35.527,5.827,27.59,27.093,7.043,6.016,5.152
753,0.453,35.634,5.788,27.552,27.09,7.042,6.015,5.031
754,0.393,35.616,5.788,27.552,27.093,7.082,5.974,4.989
755,0.292,35.74,5.811,27.542,27.086,6.961,5.893,4.948
756,0.258,35.875,5.827,27.581,27.097,7.122,6.054,5.069
757,0.235,35.934,5.843,27.562,27.097,7.124,6.056,5.111
758,0.219,35.503,5.804,27.581,27.086,7.124,6.015,5.112
759,0.232,35.653,5.812,27.572,27.086,7.165,6.015,5.071
760,0.225,35.75,5.816,27.552,27.079,7.084,5.934,4.948
761,0.219,35.837,5.839,27.571,27.093,7.164,6.014,5.11
762,0.183,35.579,5.82,27.581,27.093,7.165,6.015,5.112
763,0.121,35.701,5.808,27.562,27.083,7.084,5.974,5.112
764,0.091,35.827,5.831,27.581,27.086,7.123,6.015,5.152
765,0.068,35.867,5.804,27.572,27.086,7.165,6.015,5.071
766,0.032,35.57,5.827,27.562,27.103,7.206,6.056,5.233
767,-0.014,35.701,5.831,27.581,27.097,7.287,6.056,5.235
768,-0.047,35.779,5.804,27.552,27.093,7.207,5.975,5.113
769,-0.015,36.259,5.815,27.562,27.083,7.328,5.974,5.193
770,0.002,35.67,5.816,27.533,27.09,7.289,5.974,5.072
771,0.034,35.817,5.82,27.571,27.093,7.329,6.015,5.193
772,0.08,35.924,5.847,27.571,27.097,7.329,6.056,5.234
773,0.103,35.686,5.804,27.533,27.093,7.289,5.934,5.153
774,0.169,35.741,5.819,27.552,27.09,7.288,6.014,5.153
775,0.212,35.875,5.804,27.533,27.086,7.329,5.934,5.153
776,0.251,35.973,5.808,27.571,27.093,7.37,6.014,5.234
777,0.3,35.686,5.839,27.591,27.1,7.452,6.056,5.235
778,0.301,35.76,5.808,27.543,27.09,7.29,5.934,5.194
779,0.343,35.904,5.816,27.562,27.093,7.451,6.014,5.275
780,0.386,35.992,5.816,27.571,27.114,7.412,6.015,5.235
781,0.415,35.542,5.812,27.571,27.097,7.493,6.015,5.275
782,0.438,35.72,5.839,27.591,27.1,7.616,6.056,5.316
783,0.422,35.76,5.812,27.543,27.09,7.535,5.975,5.195
784,0.461,35.857,5.819,27.571,27.09,7.534,6.015,5.316
785,0.501,35.541,5.812,27.571,27.093,7.616,6.137,5.276
786,0.508,35.682,5.816,27.562,27.093,7.617,6.057,5.316
787,0.556,35.837,5.851,27.581,27.097,7.739,6.178,5.317
788,0.56,35.838,5.816,27.533,27.097,7.496,6.017,5.195
789,0.58,35.368,5.827,27.561,27.093,7.534,6.137,5.275
790,0.612,35.517,5.827,27.562,27.1,7.616,6.138,5.316
791,0.639,35.624,5.816,27.562,27.097,7.617,6.057,5.317
792,0.652,35.692,5.862,27.6,27.176,7.779,6.178,5.358
793,0.652,35.511,5.824,27.533,27.087,7.537,5.976,5.236
794,0.672,35.672,5.761,27.561,27.09,7.575,6.137,5.235
795,0.695,35.779,5.819,27.562,27.097,7.657,6.138,5.357
796,0.698,36.058,5.827,27.552,27.097,7.617,6.057,5.317
797,0.727,35.696,5.839,27.571,27.107,7.739,6.219,5.398
798,0.725,35.75,5.839,27.533,27.09,7.618,6.017,5.318
799,0.731,35.856,5.8,27.561,27.097,7.535,6.056,5.317
800,0.744,35.551,5.812,27.562,27.1,7.616,6.097,5.398
801,0.76,35.615,5.812,27.562,27.093,7.698,6.097,5.358
802,0.764,35.74,5.843,27.6,27.11,7.699,6.219,5.399
803,0.754,35.799,5.82,27.553,27.09,7.536,6.058,5.277
804,0.761,35.425,5.804,27.562,27.093,7.575,6.097,5.316
805,0.78,35.565,5.804,27.59,27.097,7.575,6.138,5.398
806,0.787,35.682,5.808,27.562,27.097,7.535,6.179,5.399
807,0.79,35.789,5.823,27.59,27.107,7.657,6.261,5.521
808,0.777,35.598,5.827,27.524,27.076,7.414,6.058,5.36
809,0.777,35.74,5.804,27.552,27.093,7.411,6.097,5.399
810,0.774,35.875,5.812,27.562,27.093,7.411,6.138,5.318
811,0.774,35.934,5.804,27.552,27.097,7.411,6.179,5.398
812,0.79,36.06,5.831,27.581,27.107,7.533,6.22,5.48
813,0.771,36.166,5.812,27.533,27.093,7.331,6.058,5.318
814,0.787,36.283,5.816,27.542,27.097,7.289,6.056,5.236
815,0.8,36.351,5.804,27.552,27.093,7.329,6.178,5.397
816,0.787,35.134,5.808,27.552,27.09,7.37,6.098,5.318
817,0.777,35.294,5.823,27.571,27.097,7.492,6.219,5.52
818,0.777,35.372,5.816,27.543,27.083,7.331,6.017,5.197
819,0.774,35.421,5.831,27.542,27.09,7.451,6.056,5.275
820,0.78,35.594,5.824,27.552,27.093,7.452,6.097,5.357
821,0.793,35.721,5.82,27.552,27.1,7.452,6.097,5.358
822,0.8,35.847,5.796,27.552,27.097,7.452,6.219,5.439
823,0.794,35.809,5.808,27.514,27.093,7.452,6.058,5.277
824,0.777,35.416,5.823,27.532,27.086,7.412,6.056,5.316
825,0.78,35.604,5.847,27.581,27.093,7.533,6.097,5.439
826,0.797,35.673,5.828,27.552,27.097,7.534,6.056,5.318
827,0.794,35.539,5.812,27.533,27.093,7.534,6.137,5.398
828,0.803,35.624,5.827,27.542,27.093,7.412,6.057,5.236
829,0.797,35.74,5.827,27.523,27.083,7.33,5.975,5.235
830,0.797,35.856,5.8,27.542,27.097,7.492,6.096,5.316
831,0.8,35.33,5.819,27.542,27.093,7.494,6.056,5.317
832,0.8,35.449,5.827,27.533,27.097,7.453,6.097,5.398
833,0.8,35.604,5.824,27.533,27.093,7.452,6.016,5.236
834,0.794,35.654,5.823,27.504,27.076,7.29,5.852,5.194
835,0.803,35.472,5.831,27.552,27.117,7.491,6.095,5.316
836,0.8,35.604,5.827,27.533,27.093,7.453,6.016,5.317
837,0.797,35.721,5.816,27.533,27.093,7.412,6.056,5.317
838,0.79,35.779,5.827,27.533,27.093,7.371,6.015,5.276
839,0.79,35.435,5.835,27.504,27.079,7.33,5.934,5.154
840,0.8,35.623,5.816,27.532,27.1,7.492,6.096,5.356
841,0.807,35.73,5.82,27.542,27.09,7.331,6.138,5.317
842,0.807,35.77,5.792,27.523,27.093,7.329,6.016,5.317
843,0.813,35.416,5.815,27.533,27.09,7.289,6.056,5.276
844,0.797,35.546,5.835,27.523,27.083,7.329,6.056,5.316
845,0.807,35.663,5.808,27.552,27.097,7.451,6.178,5.358
846,0.82,35.712,5.823,27.552,27.093,7.452,6.22,5.399
847,0.813,35.501,5.796,27.514,27.156,7.452,6.18,5.236
848,0.81,35.633,5.815,27.532,27.087,7.452,6.261,5.316
849,0.816,35.74,5.839,27.533,27.086,7.412,6.262,5.195
850,0.82,35.703,5.82,27.542,27.093,7.615,6.343,5.316
851,0.823,35.549,5.823,27.552,27.093,7.657,6.466,5.236
852,0.82,35.672,5.8,27.514,27.086,7.617,6.548,5.275
853,0.803,35.779,5.808,27.513,27.097,7.617,6.671,5.235
854,0.807,35.262,5.827,27.504,27.086,7.617,6.713,5.153
855,0.81,35.334,5.824,27.542,27.097,7.779,6.876,5.315
856,0.813,35.478,5.823,27.533,27.093,7.74,7.0,5.276
857,0.803,35.556,5.808,27.513,27.093,7.659,7.001,5.235
858,0.82,35.394,5.812,27.513,27.086,7.739,7.204,5.316
859,0.817,35.517,5.827,27.513,27.083,7.618,7.165,5.154
860,0.82,35.662,5.827,27.523,27.093,7.779,7.368,5.356
861,0.817,35.731,5.816,27.561,27.093,7.7,7.37,5.236
862,0.81,35.348,5.804,27.495,27.093,7.74,7.37,5.194
863,0.823,35.498,5.823,27.523,27.083,7.74,7.452,5.275
864,0.823,35.614,5.839,27.523,27.093,7.74,7.452,5.235
865,0.83,35.692,5.824,27.533,27.1,7.74,7.615,5.316
866,0.843,35.367,5.812,27.533,27.1,7.781,7.576,5.317
867,0.826,35.469,5.808,27.504,27.09,7.618,7.575,5.236
868,0.81,35.604,5.808,27.523,27.086,7.698,7.616,5.235
869,0.823,35.654,5.839,27.523,27.097,7.658,7.576,5.235
870,0.823,35.414,5.824,27.513,27.093,7.739,7.738,5.357
871,0.843,35.556,5.816,27.532,27.1,7.699,7.781,5.236
872,0.823,35.644,5.808,27.494,27.086,7.699,7.618,5.235
873,0.826,35.664,5.812,27.513,27.086,7.74,7.698,5.235
874,0.817,35.338,5.819,27.504,27.097,7.781,7.658,5.194
875,0.82,35.469,5.831,27.523,27.093,7.903,7.78,5.275
876,0.836,35.585,5.824,27.533,27.1,7.945,7.781,5.235
877,0.82,35.471,5.804,27.494,27.09,7.783,7.618,5.113
878,0.82,35.374,5.796,27.504,27.097,7.944,7.657,5.315
879,0.826,35.507,5.811,27.504,27.093,7.986,7.658,5.154
880,0.82,35.614,5.831,27.504,27.093,8.108,7.78,5.315
881,0.839,35.452,5.824,27.552,27.104,8.109,7.74,5.276
882,0.826,35.527,5.788,27.495,27.083,8.109,7.537,5.154
883,0.817,35.672,5.811,27.513,27.1,8.109,7.575,5.315
884,0.836,35.75,5.827,27.523,27.093,8.109,7.616,5.317
885,0.826,36.307,5.824,27.523,27.09,8.15,7.535,5.317
886,0.843,36.495,5.851,27.542,27.104,8.273,7.575,5.317
887,0.833,36.545,5.816,27.485,27.086,8.193,7.454,5.317
888,0.839,36.632,5.808,27.513,27.093,8.232,7.534,5.317
889,0.836,34.676,5.823,27.504,27.086,8.273,7.453,5.236
890,0.843,34.81,5.839,27.513,27.093,8.355,7.534,5.275
891,0.859,34.974,5.839,27.532,27.104,8.519,7.534,5.276
892,0.84,35.005,5.812,27.533,27.086,8.317,7.331,5.195
893,0.836,35.417,5.8,27.494,27.093,8.477,7.451,5.275
894,0.852,35.565,5.823,27.504,27.09,8.438,7.371,5.235
895,0.84,35.663,5.831,27.513,27.093,8.56,7.37,5.194
896,0.846,35.721,5.851,27.523,27.1,8.643,7.452,5.316
897,0.836,35.185,5.753,27.485,27.093,8.44,7.208,5.195
898,0.843,35.352,5.811,27.513,27.09,8.519,7.287,5.234
899,0.839,35.469,5.816,27.523,27.093,8.561,7.247,5.316
900,0.843,35.489,5.831,27.504,27.1,8.643,7.206,5.276
901,0.849,35.413,5.859,27.542,27.104,8.725,7.369,5.357
902,0.843,35.489,5.812,27.494,27.097,8.522,7.045,5.236
903,0.846,35.614,5.827,27.494,27.093,8.439,7.164,5.235
904,0.853,35.395,5.824,27.513,27.097,8.56,7.165,5.275
905,0.843,35.306,5.831,27.513,27.1,8.48,7.124,5.316
906,0.859,35.449,5.831,27.542,27.104,8.601,7.165,5.398
907,0.849,35.508,5.804,27.504,27.09,8.399,7.002,5.277
908,0.846,35.202,5.808,27.494,27.093,8.356,7.041,5.235
909,0.866,35.324,5.823,27.513,27.104,8.356,7.082,5.316
910,0.862,35.44,5.831,27.513,27.097,8.315,7.042,5.276
911,0.866,35.566,5.839,27.513,27.107,8.477,7.164,5.357
912,0.853,35.193,5.816,27.485,27.09,8.154,6.921,5.155
913,0.849,35.381,5.823,27.503,27.093,8.191,6.959,5.193
914,0.866,35.488,5.816,27.484,27.104,8.314,6.96,5.234
915,0.853,35.557,5.808,27.484,27.093,8.193,6.96,5.235
916,0.862,35.279,5.835,27.523,27.104,8.273,7.0,5.316
917,0.866,35.382,5.812,27.475,27.086,8.071,6.797,5.195
918,0.856,35.527,5.816,27.494,27.093,8.109,6.877,5.194
919,0.869,35.605,5.808,27.513,27.1,8.069,6.959,5.234
920,0.859,35.299,5.823,27.494,27.093,8.109,6.838,5.194
921,0.866,35.459,5.843,27.513,27.107,8.15,6.918,5.356
922,0.859,35.537,5.816,27.475,27.093,8.028,6.674,5.155
923,0.859,35.576,5.831,27.503,27.086,8.027,6.794,5.193
924,0.866,35.126,5.82,27.504,27.097,7.987,6.836,5.316
925,0.866,35.217,5.812,27.513,27.097,7.905,6.837,5.317
926,0.882,35.352,5.819,27.513,27.128,8.067,6.877,5.439
927,0.869,35.335,5.827,27.475,27.09,7.946,6.674,5.155
928,0.846,35.373,5.753,27.475,27.09,7.864,6.794,5.193
929,0.866,35.507,5.811,27.494,27.097,7.944,6.795,5.316
930,0.866,35.605,5.8,27.494,27.093,7.905,6.795,5.276
931,0.859,35.356,5.831,27.494,27.097,7.904,6.917,5.316
932,0.869,35.296,5.827,27.456,27.086,7.782,6.796,5.195
933,0.863,35.411,5.788,27.474,27.086,7.74,6.673,5.194
934,0.875,35.546,5.819,27.484,27.1,7.821,6.875,5.234
935,0.859,35.202,5.816,27.484,27.097,7.781,6.755,5.194
936,0.849,35.324,5.843,27.484,27.097,7.862,6.795,5.275
937,0.869,35.44,5.824,27.465,27.086,7.741,6.673,5.195
938,0.863,35.518,5.796,27.446,27.114,7.699,6.713,5.112
939,0.862,35.24,5.808,27.493,27.097,7.861,6.794,5.234
940,0.869,35.372,5.812,27.484,27.09,7.822,6.795,5.275
941,0.863,35.498,5.839,27.465,27.097,7.863,6.795,5.316
942,0.856,35.557,5.835,27.474,27.09,7.782,6.714,5.073
943,0.869,35.279,5.8,27.446,27.083,7.781,6.632,5.111
944,0.879,35.449,5.815,27.493,27.093,7.862,6.712,5.274
945,0.853,35.585,5.804,27.484,27.093,7.904,6.713,5.276
946,0.862,35.615,5.815,27.475,27.093,7.863,6.632,5.235
947,0.866,35.193,5.823,27.465,27.086,7.782,6.672,5.113
948,0.856,35.323,5.8,27.455,27.086,7.7,6.591,5.071
949,0.882,35.469,5.812,27.484,27.097,7.821,6.753,5.233
950,0.879,35.508,5.808,27.475,27.156,7.781,6.714,5.194
951,0.876,35.509,5.808,27.455,27.087,7.74,6.713,5.194
952,0.869,35.653,5.823,27.484,27.086,7.74,6.672,5.112
953,0.866,35.75,5.827,27.446,27.083,7.659,6.631,5.193
954,0.872,36.067,5.847,27.465,27.093,7.739,6.794,5.194
955,0.863,35.428,5.824,27.474,27.093,7.659,6.714,5.194
956,0.853,35.546,5.82,27.436,27.086,7.536,6.672,5.153
957,0.862,35.634,5.843,27.465,27.1,7.616,6.672,5.153
958,0.866,36.066,5.828,27.446,27.083,7.535,6.631,5.112
959,0.879,36.224,5.831,27.493,27.086,7.616,6.753,5.193
960,0.885,36.379,5.827,27.475,27.093,7.617,6.714,5.234
961,0.872,36.438,5.82,27.446,27.083,7.413,6.672,5.194
962,0.859,35.144,5.823,27.465,27.093,7.411,6.713,5.153
963,0.879,35.237,5.816,27.455,27.093,7.452,6.632,5.071
964,0.869,35.372,5.831,27.474,27.093,7.493,6.753,5.314
965,0.889,35.488,5.827,27.475,27.097,7.453,6.714,5.236
966,0.879,35.576,5.82,27.455,27.083,7.33,6.672,5.153
967,0.889,35.74,5.839,27.465,27.097,7.329,6.672,5.234
968,0.869,35.866,5.812,27.455,27.09,7.289,6.631,5.072
969,0.869,35.944,5.827,27.503,27.097,7.41,6.712,5.314
970,0.885,35.657,5.827,27.475,27.1,7.371,6.632,5.236
971,0.872,35.769,5.788,27.455,27.09,7.289,6.59,5.072
972,0.869,35.895,5.827,27.446,27.1,7.288,6.549,5.233
973,0.863,35.935,5.827,27.446,27.09,7.369,6.59,5.113
974,0.872,35.858,5.784,27.484,27.104,7.452,6.631,5.234
975,0.876,36.001,5.811,27.475,27.097,7.371,6.631,5.153
976,0.853,36.06,5.8,27.446,27.086,7.37,6.55,5.112
977,0.862,36.109,5.827,27.455,27.097,7.452,6.549,5.152
978,0.869,36.013,5.839,27.474,27.093,7.493,6.63,5.153
979,0.863,36.147,5.792,27.465,27.097,7.534,6.59,5.193
980,0.875,36.282,5.827,27.465,27.1,7.616,6.549,5.194
981,0.866,36.648,5.808,27.446,27.09,7.495,6.468,5.112
982,0.862,36.23,5.827,27.455,27.1,7.494,6.507,5.193
983,0.872,36.369,5.82,27.455,27.079,7.453,6.549,5.153
984,0.879,36.457,5.812,27.474,27.093,7.574,6.549,5.234
985,0.892,36.372,5.839,27.513,27.1,7.616,6.549,5.275
986,0.866,36.409,5.82,27.437,27.093,7.495,6.346,5.154
987,0.866,36.525,5.823,27.455,27.097,7.494,6.466,5.315
988,0.882,36.641,5.843,27.455,27.093,7.575,6.467,5.154
989,0.879,36.335,5.82,27.474,27.097,7.575,6.507,5.234
990,0.889,36.505,5.827,27.484,27.097,7.657,6.467,5.235
991,0.869,36.583,5.804,27.446,27.093,7.576,6.426,5.113
992,0.872,36.641,5.815,27.446,27.086,7.698,6.426,5.193
993,0.872,36.546,5.835,27.465,27.097,7.74,6.466,5.194
994,0.876,36.67,5.82,27.455,27.097,7.74,6.467,5.194
995,0.892,36.825,5.823,27.484,27.104,7.943,6.507,5.275
996,0.86,36.836,5.82,27.446,27.093,7.823,6.386,5.113
997,0.869,36.903,5.812,27.436,27.09,7.944,6.425,5.193
998,0.869,37.047,5.835,27.445,27.104,7.986,6.385,5.194
999,0.872,37.164,5.816,27.455,27.09,7.986,6.385,5.194
1000,0.869,37.232,5.831,27.503,27.114,8.19,6.547,5.234
1001,0.866,36.562,5.808,27.446,27.09,7.948,6.305,5.153
1002,0.866,36.727,5.812,27.455,27.09,8.026,6.425,5.153
1003,0.872,36.816,5.851,27.455,27.1,8.027,6.385,5.275
1004,0.869,36.845,5.832,27.474,27.093,7.987,6.425,5.235
1005,0.882,36.903,5.835,27.484,27.117,8.149,6.426,5.275
1006,0.876,36.999,5.808,27.456,27.093,7.907,6.385,5.154
1007,0.882,37.096,5.819,27.436,27.083,7.985,6.425,5.193
1008,0.876,37.241,5.831,27.455,27.097,8.149,6.344,5.153
1009,0.882,36.869,5.831,27.446,27.097,8.069,6.425,5.234
1010,0.885,36.989,5.839,27.513,27.1,8.109,6.344,5.194
1011,0.863,37.058,5.808,27.437,27.083,7.947,6.343,5.112
1012,0.872,36.886,5.796,27.436,27.093,8.067,6.303,5.193
1013,0.866,36.961,5.827,27.455,27.09,8.109,6.302,5.112
1014,0.879,37.077,5.82,27.446,27.086,8.109,6.384,5.193
1015,0.882,37.193,5.796,27.484,27.103,8.232,6.425,5.275
1016,0.872,36.868,5.792,27.417,27.083,8.029,6.304,5.113
1017,0.859,36.999,5.811,27.436,27.097,7.946,6.302,5.112
1018,0.869,37.135,5.831,27.445,27.093,8.108,6.302,5.234
1019,0.869,37.213,5.831,27.446,27.097,8.109,6.343,5.194
1020,0.882,37.003,5.839,27.484,27.107,8.191,6.466,5.275
1021,0.869,37.115,5.812,27.427,27.09,8.029,6.182,5.113
1022,0.876,37.222,5.827,27.445,27.097,8.027,6.301,5.193
1023,0.892,37.29,5.827,27.446,27.093,8.027,6.343,5.234
1024,0.886,37.023,5.824,27.446,27.1,7.987,6.303,5.235
1025,0.898,37.183,5.823,27.493,27.107,8.149,6.425,5.357
1026,0.892,37.29,5.792,27.417,27.09,7.785,6.222,5.155
1027,0.892,37.31,5.804,27.445,27.093,7.903,6.22,5.234
1028,0.905,37.205,5.823,27.436,27.1,7.945,6.22,5.194
1029,0.892,37.319,5.823,27.426,27.093,7.864,6.302,5.112
1030,0.895,37.464,5.827,27.474,27.11,7.985,6.343,5.356
1031,0.879,37.446,5.808,27.417,27.09,7.702,6.221,5.073
1032,0.885,37.12,5.8,27.436,27.093,7.699,6.261,5.193
1033,0.902,37.27,5.819,27.455,27.093,7.78,6.302,5.234
1034,0.889,37.377,5.855,27.427,27.093,7.659,6.262,5.113
1035,0.879,37.397,5.832,27.445,27.104,7.739,6.384,5.274
1036,0.892,37.244,5.82,27.417,27.121,7.577,6.263,5.073
1037,0.895,37.329,5.8,27.426,27.09,7.535,6.262,5.193
1038,0.902,37.464,5.823,27.455,27.093,7.697,6.302,5.234
1039,0.895,36.986,5.831,27.436,27.1,7.577,6.262,5.235
1040,0.905,37.048,5.831,27.436,27.09,7.616,6.302,5.275
1041,0.892,37.174,5.808,27.426,27.09,7.535,6.262,5.154
1042,0.892,37.232,5.796,27.407,27.083,7.494,6.221,5.193
1043,0.902,37.07,5.811,27.426,27.097,7.534,6.261,5.275
1044,0.895,37.202,5.827,27.436,27.093,7.494,6.302,5.195
1045,0.895,37.281,5.82,27.445,27.097,7.534,6.343,5.316
1046,0.899,37.387,5.823,27.474,27.093,7.494,6.262,5.154
1047,0.892,36.985,5.784,27.417,27.079,7.371,6.221,5.153
1048,0.895,37.163,5.807,27.455,27.121,7.614,6.342,5.234
1049,0.879,37.271,5.823,27.436,27.097,7.576,6.303,5.153
1050,0.876,37.339,5.835,27.417,27.097,7.575,6.302,5.234
1051,0.876,36.975,5.796,27.436,27.093,7.575,6.221,5.113
1052,0.876,37.086,5.808,27.388,27.079,7.454,6.18,5.152
1053,0.885,37.203,5.808,27.455,27.103,7.615,6.301,5.193
1054,0.879,37.252,5.839,27.436,27.097,7.535,6.221,5.194
1055,0.869,37.08,5.831,27.417,27.093,7.494,6.261,5.275
1056,0.863,37.212,5.808,27.407,27.09,7.453,6.18,5.154
1057,0.859,37.3,5.8,27.397,27.083,7.371,6.098,5.153
1058,0.869,37.349,5.819,27.435,27.1,7.492,6.3,5.193
1059,0.872,36.908,5.82,27.436,27.09,7.453,6.221,5.153
1060,0.869,37.038,5.839,27.417,27.11,7.452,6.302,5.234
1061,0.872,37.154,5.804,27.397,27.093,7.371,6.221,5.153
1062,0.846,37.098,5.812,27.388,27.086,7.289,6.22,5.031
1063,0.849,37.04,5.816,27.416,27.103,7.41,6.22,5.151
1064,0.84,37.135,5.823,27.436,27.097,7.33,6.22,5.193
1065,0.843,37.232,5.839,27.426,27.093,7.289,6.261,5.153
1066,0.836,36.916,5.816,27.426,27.09,7.207,6.18,5.112
1067,0.83,37.0,5.792,27.397,27.079,7.165,6.098,5.03
1068,0.836,37.154,5.796,27.416,27.1,7.206,6.219,5.233
1069,0.826,37.232,5.811,27.445,27.097,7.125,6.18,5.194
1070,0.813,37.137,5.827,27.426,27.093,7.124,6.22,5.153
1071,0.82,37.289,5.82,27.417,27.097,7.124,6.139,5.112
1072,0.82,37.396,5.8,27.388,27.114,6.921,6.098,5.071
1073,0.83,37.484,5.815,27.435,27.1,7.041,6.178,5.233
1074,0.823,36.545,5.812,27.407,27.093,7.042,6.22,5.153
1075,0.804,36.67,5.819,27.407,27.1,7.001,6.098,5.234
1076,0.807,36.796,5.816,27.397,27.086,6.879,6.097,5.153
1077,0.79,36.855,5.812,27.426,27.093,6.877,6.056,5.071
1078,0.81,36.874,5.808,27.407,27.1,7.04,6.137,5.193
1079,0.803,37.018,5.816,27.416,27.093,7.001,6.138,5.153
1080,0.797,37.116,5.839,27.388,27.086,6.96,6.098,5.193
1081,0.807,37.155,5.831,27.407,27.09,7.041,6.138,5.153
1082,0.79,36.772,5.8,27.407,27.086,6.96,5.976,5.031
1083,0.806,36.921,5.808,27.416,27.093,7.041,6.137,5.151
1084,0.81,37.028,5.804,27.417,27.124,7.123,6.138,5.193
1085,0.8,37.02,5.808,27.397,27.087,7.124,6.057,5.194
1086,0.797,36.924,5.831,27.416,27.093,7.205,6.137,5.112
1087,0.8,37.048,5.796,27.397,27.093,7.165,6.016,5.071
1088,0.794,37.164,5.811,27.426,27.093,7.328,6.218,5.152
1089,0.803,37.002,5.8,27.426,27.097,7.37,6.18,5.193
1090,0.781,36.847,5.796,27.378,27.086,7.289,6.098,5.031
1091,0.787,36.989,5.827,27.407,27.093,7.41,6.097,5.111
1092,0.777,37.096,5.796,27.407,27.093,7.452,6.138,5.152
1093,0.777,36.925,5.811,27.407,27.09,7.574,6.138,5.193
1094,0.793,37.076,5.816,27.426,27.1,7.616,6.138,5.153
1095,0.767,37.126,5.812,27.378,27.086,7.535,6.057,5.071
1096,0.78,37.213,5.823,27.397,27.142,7.575,6.097,5.111
1097,0.784,36.763,5.827,27.407,27.094,7.616,6.056,5.071
1098,0.777,36.921,5.82,27.407,27.1,7.576,6.137,5.193
1099,0.793,37.057,5.823,27.445,27.104,7.698,6.138,5.153
1100,0.767,37.087,5.804,27.398,27.083,7.577,6.057,5.031
1101,0.777,36.838,5.831,27.397,27.097,7.535,6.097,5.111
1102,0.78,36.941,5.827,27.388,27.093,7.534,6.056,5.152
1103,0.787,37.077,5.831,27.397,27.093,7.575,6.137,5.234
1104,0.803,37.174,5.816,27.416,27.097,7.616,6.057,5.153
1105,0.781,36.695,5.812,27.397,27.086,7.495,6.015,5.071
1106,0.793,36.844,5.839,27.407,27.093,7.494,6.056,5.193
1107,0.787,36.961,5.82,27.407,27.09,7.494,6.015,5.031
1108,0.784,37.019,5.82,27.397,27.093,7.616,6.015,5.233
1109,0.793,36.953,5.812,27.416,27.1,7.617,6.096,5.194
1110,0.777,37.048,5.808,27.378,27.093,7.454,5.975,5.112
1111,0.777,37.174,5.823,27.387,27.09,7.534,6.015,5.152
1112,0.774,37.175,5.827,27.397,27.086,7.534,5.974,5.071
1113,0.784,36.782,5.816,27.397,27.097,7.657,6.015,5.193
1114,0.787,36.921,5.812,27.397,27.093,7.658,5.934,5.031
1115,0.777,36.99,5.812,27.359,27.086,7.617,5.933,5.03
1116,0.787,36.674,5.827,27.368,27.093,7.739,5.933,5.111
1117,0.784,36.642,5.812,27.378,27.086,7.74,5.933,5.03
1118,0.78,36.786,5.792,27.416,27.1,7.821,5.974,5.151
1119,0.79,36.883,5.804,27.426,27.097,7.822,6.015,5.153
1120,0.771,36.712,5.808,27.369,27.086,7.863,5.893,5.234
1121,0.78,36.844,5.831,27.378,27.093,7.904,6.054,5.113
1122,0.784,36.961,5.827,27.397,27.086,7.945,5.893,5.071
1123,0.771,37.048,5.812,27.397,27.093,7.986,5.973,5.152
1124,0.787,36.675,5.819,27.435,27.104,7.986,5.974,5.193
1125,0.787,36.767,5.788,27.369,27.09,7.783,5.893,5.072
1126,0.787,36.902,5.823,27.397,27.093,7.862,5.973,5.111
1127,0.797,36.971,5.843,27.368,27.097,7.863,5.893,5.03
1128,0.8,36.521,5.82,27.378,27.097,7.863,5.973,5.192
1129,0.8,36.698,5.839,27.407,27.104,7.985,6.096,5.234
1130,0.787,36.758,5.839,27.369,27.086,7.702,5.935,5.113
1131,0.784,36.825,5.835,27.387,27.09,7.74,5.974,5.152
1132,0.793,36.653,5.839,27.368,27.093,7.781,5.974,5.153
1133,0.793,36.776,5.82,27.387,27.09,7.781,5.974,5.234
1134,0.803,36.921,5.835,27.397,27.107,7.822,6.055,5.235
1135,0.794,36.923,5.792,27.349,27.09,7.619,5.853,5.072
1136,0.797,36.731,5.808,27.368,27.09,7.698,5.932,5.111
1137,0.8,36.883,5.827,27.378,27.1,7.699,5.933,5.152
1138,0.784,36.97,5.812,27.387,27.093,7.699,6.055,5.153
1139,0.803,37.192,5.823,27.407,27.117,7.861,6.056,5.275
1140,0.797,36.504,5.808,27.369,27.09,7.619,5.893,5.032
1141,0.8,36.641,5.804,27.368,27.09,7.617,5.892,5.07
1142,0.803,36.748,5.827,27.378,27.097,7.779,6.014,5.152
1143,0.807,46.203,5.824,27.368,27.097,7.781,6.015,5.193
1144,0.807,48.792,5.839,27.406,27.111,7.862,6.096,5.316
1145,0.79,48.769,5.808,27.369,27.093,7.782,5.935,5.154
1146,0.793,48.702,5.819,27.378,27.093,7.822,5.974,5.234
1147,0.806,32.054,5.839,27.387,27.097,7.822,6.015,5.153
1148,0.81,31.292,5.828,27.378,27.093,7.863,5.934,5.193
1149,0.8,31.554,5.835,27.435,27.104,7.944,6.055,5.275
1150,0.787,31.71,5.8,27.359,27.083,7.905,5.853,5.073
1151,0.78,37.974,5.812,27.349,27.1,7.945,5.932,5.111
1152,0.8,38.257,5.823,27.377,27.093,8.067,5.892,5.152
1153,0.807,38.327,5.823,27.378,27.093,8.069,5.892,5.153
1154,0.797,38.414,5.796,27.387,27.104,8.191,6.014,5.234
1155,0.797,35.452,5.792,27.359,27.079,8.11,5.852,5.032
1156,0.79,35.565,5.808,27.33,27.093,8.15,5.891,5.111
1157,0.803,35.711,5.823,27.358,27.1,8.273,5.933,5.152
1158,0.807,35.77,5.823,27.349,27.097,8.274,5.892,5.112
1159,0.803,36.394,5.82,27.377,27.104,8.355,5.933,5.315
1160,0.8,36.505,5.804,27.359,27.083,8.234,5.852,5.114
1161,0.79,36.612,5.812,27.349,27.086,8.314,5.851,5.071
1162,0.81,36.671,5.827,27.377,27.093,8.396,5.932,5.193
1163,0.8,36.086,5.827,27.378,27.097,8.316,5.933,5.112
1164,0.807,36.224,5.812,27.359,27.097,8.477,5.933,5.193
1165,0.81,36.321,5.812,27.339,27.093,8.276,5.811,5.112
1166,0.797,36.773,5.796,27.339,27.086,8.314,5.891,5.071
1167,0.803,36.289,5.831,27.368,27.093,8.518,6.054,5.193
1168,0.813,36.38,5.82,27.359,27.1,8.52,5.934,5.194
1169,0.803,36.476,5.808,27.358,27.093,8.52,5.933,5.194
1170,0.803,36.123,5.816,27.358,27.086,8.479,5.974,5.112
1171,0.794,36.109,5.796,27.311,27.083,8.398,5.893,5.03
1172,0.813,36.253,5.823,27.358,27.093,8.56,6.014,5.192
1173,0.797,36.351,5.812,27.358,27.1,8.48,5.974,5.112
1174,0.8,35.987,5.812,27.32,27.093,8.56,5.974,5.071
1175,0.81,36.127,5.808,27.339,27.1,8.602,5.893,5.07
1176,0.797,36.225,5.792,27.32,27.086,8.48,5.892,4.989
1177,0.82,36.341,5.827,27.358,27.097,8.642,6.014,5.151
1178,0.817,36.083,5.847,27.339,27.097,8.644,6.015,5.153
1179,0.813,36.215,5.832,27.358,27.086,8.603,5.974,5.112
1180,0.82,36.331,5.835,27.339,27.097,8.602,6.015,5.112
1181,0.817,36.399,5.812,27.32,27.086,8.562,5.974,4.989
1182,0.823,36.141,5.816,27.358,27.1,8.764,6.055,5.192
1183,0.82,36.273,5.827,27.368,27.093,8.645,6.015,5.112
1184,0.81,36.37,5.824,27.339,27.086,8.644,6.015,5.112
1185,0.816,36.438,5.82,27.406,27.093,8.603,5.974,5.152
1186,0.803,36.055,5.808,27.34,27.083,8.48,5.933,4.99
1187,0.82,36.243,5.819,27.358,27.121,8.56,6.014,5.192
1188,0.817,36.341,5.827,27.339,27.09,8.561,5.974,5.112
1189,0.807,36.351,5.82,27.33,27.086,8.48,5.974,5.152
1190,0.81,36.083,5.761,27.339,27.093,8.479,5.933,5.031
1191,0.81,36.224,5.807,27.32,27.09,8.357,5.892,5.03
1192,0.807,36.341,5.808,27.339,27.1,8.437,6.014,5.151
1193,0.813,36.553,5.819,27.339,27.097,8.479,5.974,5.153
1194,0.813,36.027,5.82,27.32,27.093,8.316,5.974,5.112
1195,0.81,36.185,5.788,27.329,27.086,8.356,6.055,5.112
1196,0.81,36.292,5.811,27.32,27.086,8.356,5.975,5.03
1197,0.813,36.092,5.812,27.339,27.1,8.356,6.055,5.192
1198,0.823,36.167,5.843,27.358,27.097,8.397,6.015,5.112
1199,0.797,36.254,5.82,27.32,27.09,8.194,5.974,5.03
1200,0.816,36.379,5.823,27.349,27.09,8.314,6.055,5.111
1201,0.826,36.007,5.812,27.33,27.093,8.274,6.015,5.152
1202,0.813,36.118,5.827,27.339,27.1,8.274,6.056,5.193
1203,0.826,36.263,5.824,27.358,27.097,8.274,6.056,5.153
1204,0.82,36.312,5.839,27.33,27.09,8.152,6.015,5.112
1205,0.817,36.035,5.824,27.349,27.09,8.11,6.056,5.152
1206,0.82,36.176,5.823,27.33,27.093,8.069,5.975,5.071
1207,0.82,36.302,5.804,27.339,27.1,8.191,6.055,5.111
1208,0.817,36.389,5.835,27.349,27.093,8.11,6.056,5.112
1209,0.803,36.131,5.82,27.32,27.086,8.028,5.975,5.03
1210,0.81,36.282,5.8,27.32,27.093,8.068,6.015,5.03
1211,0.807,36.399,5.812,27.32,27.086,7.946,5.974,4.989
1212,0.8,36.467,5.804,27.349,27.093,7.986,6.096,5.192
1213,0.803,36.017,5.815,27.339,27.093,8.027,5.975,5.072
1214,0.797,36.108,5.816,27.31,27.086,7.946,5.974,5.03
1215,0.8,36.234,5.816,27.339,27.086,8.026,6.096,5.03
1216,0.803,36.274,5.804,27.368,27.086,8.027,5.894,4.989
1217,0.8,36.427,5.8,27.33,27.093,8.109,6.054,5.11
1218,0.8,36.544,5.815,27.339,27.097,8.15,6.056,5.152
1219,0.784,36.632,5.823,27.33,27.086,8.11,5.975,5.071
1220,0.803,36.489,5.812,27.339,27.093,8.109,5.974,5.03
1221,0.813,35.94,5.788,27.339,27.09,8.191,5.893,5.03
1222,0.803,36.098,5.815,27.339,27.093,8.273,6.054,5.151
1223,0.807,36.205,5.812,27.339,27.1,8.314,6.015,5.112
1224,0.794,36.062,5.843,27.31,27.086,8.315,5.974,5.03
1225,0.8,36.186,5.82,27.339,27.093,8.396,5.974,5.111
1226,0.794,36.331,5.808,27.33,27.09,8.397,5.974,5.03
1227,0.803,36.418,5.812,27.339,27.093,8.438,5.974,5.111
1228,0.81,35.969,5.816,27.339,27.104,8.479,6.055,5.112
1229,0.79,36.05,5.831,27.31,27.083,8.398,5.893,5.03
1230,0.793,36.195,5.839,27.329,27.103,8.438,5.973,5.03
1231,0.8,36.273,5.82,27.339,27.097,8.397,5.974,5.111
1232,0.797,36.159,5.804,27.33,27.097,8.397,5.974,5.112
1233,0.816,36.33,5.827,27.358,27.104,8.478,6.096,5.193
1234,0.79,36.399,5.831,27.32,27.09,8.235,5.935,5.072
1235,0.793,36.477,5.824,27.329,27.093,8.314,5.974,5.03
1236,0.797,36.065,5.808,27.32,27.097,8.356,5.974,5.111
1237,0.79,36.214,5.808,27.329,27.1,8.315,6.015,5.071
1238,0.797,36.331,5.816,27.349,27.107,8.396,6.137,5.355
1239,0.787,36.37,5.792,27.301,27.086,8.153,5.894,5.073
1240,0.79,36.122,5.823,27.329,27.1,8.232,5.973,5.111
1241,0.81,36.253,5.812,27.339,27.1,8.314,6.015,5.112
1242,0.794,36.37,5.804,27.33,27.111,8.356,6.015,5.152
1243,0.793,36.419,5.819,27.358,27.107,8.519,6.137,5.234
1244,0.78,36.132,5.816,27.32,27.086,8.439,5.976,5.072
1245,0.79,36.282,5.839,27.329,27.097,8.479,5.974,5.152
1246,0.793,36.389,5.828,27.339,27.097,8.642,6.096,5.153
1247,0.803,36.333,5.82,27.32,27.104,8.644,6.056,5.112
1248,0.8,36.246,5.812,27.329,27.1,8.806,6.097,5.234
1249,0.784,36.331,5.808,27.32,27.093,8.726,5.975,5.032
1250,0.777,36.418,5.831,27.31,27.093,8.807,5.974,5.07
1251,0.787,36.18,5.82,27.339,27.093,8.889,6.055,5.193
1252,0.784,36.263,5.8,27.397,27.097,8.809,6.056,5.072
1253,0.784,36.389,5.812,27.349,27.097,8.97,6.097,5.233
1254,0.777,36.467,5.804,27.291,27.111,8.809,6.016,5.032
1255,0.767,36.027,5.819,27.291,27.086,8.808,6.056,5.03
1256,0.787,36.195,5.839,27.319,27.097,8.889,6.097,5.192
1257,0.777,36.321,5.831,27.368,27.097,8.809,6.016,5.153
1258,0.784,36.418,5.816,27.339,27.1,8.848,6.178,5.193
1259,0.784,36.17,5.835,27.291,27.09,8.767,5.976,5.072
1260,0.764,36.292,5.82,27.291,27.09,8.604,5.974,5.03
1261,0.796,36.437,5.831,27.329,27.097,8.765,6.137,5.151
1262,0.781,36.515,5.824,27.32,27.097,8.645,6.057,5.153
1263,0.787,36.133,5.796,27.32,27.097,8.684,6.097,5.193
1264,0.787,36.253,5.8,27.32,27.09,8.603,5.975,5.031
1265,0.777,36.351,5.808,27.291,27.079,8.521,5.974,5.111
1266,0.777,36.419,5.835,27.329,27.1,8.561,6.096,5.152
1267,0.777,36.112,5.796,27.31,27.09,8.521,6.056,5.153
1268,0.774,36.244,5.815,27.329,27.097,8.52,6.056,5.234
1269,0.78,36.341,5.796,27.301,27.09,8.358,5.975,5.032
1270,0.764,36.332,5.823,27.272,27.079,8.356,5.852,5.07
1271,0.783,36.294,5.827,27.31,27.096,8.437,6.013,5.152
1272,0.774,36.408,5.82,27.32,27.093,8.357,5.974,5.071
1273,0.774,36.525,5.808,27.32,27.107,8.315,6.055,5.193
1274,0.774,36.363,5.804,27.291,27.093,8.234,5.893,5.031
1275,0.767,36.256,5.808,27.262,27.079,8.233,5.933,5.03
1276,0.78,36.379,5.839,27.319,27.1,8.355,6.096,5.151
1277,0.78,36.476,5.816,27.31,27.09,8.275,6.016,5.112
1278,0.777,36.132,5.82,27.3,27.097,8.152,6.015,5.071
1279,0.787,36.225,5.808,27.3,27.09,8.232,5.893,5.111
1280,0.78,36.341,5.808,27.281,27.079,8.07,5.892,4.989
1281,0.784,36.447,5.831,27.319,27.096,8.272,6.014,5.151
1282,0.787,36.141,5.82,27.32,27.097,8.193,5.974,5.112
1283,0.787,36.292,5.812,27.301,27.09,8.11,5.974,5.071
1284,0.787,36.408,5.808,27.32,27.083,8.069,5.893,5.111
1285,0.793,36.477,5.819,27.281,27.09,7.987,5.811,4.949
1286,0.797,36.142,5.831,27.329,27.1,8.149,5.972,5.15
1287,0.784,36.263,5.82,27.32,27.093,8.028,5.933,5.153
1288,0.774,36.379,5.808,27.32,27.09,8.027,5.933,5.071
1289,0.797,36.438,5.792,27.31,27.086,7.987,5.852,5.07
1290,0.777,36.247,5.8,27.281,27.086,7.864,5.851,4.948
1291,0.777,36.398,5.839,27.319,27.093,7.944,5.973,5.11
1292,0.78,36.534,5.839,27.301,27.093,7.945,5.893,5.071
1293,0.771,36.526,5.773,27.281,27.083,7.864,5.933,5.07
1294,0.767,36.046,5.807,27.3,27.086,7.863,5.892,5.03
1295,0.783,36.195,5.816,27.291,27.093,7.782,5.811,4.989
1296,0.78,36.302,5.827,27.291,27.086,7.862,5.891,5.11
1297,0.787,36.341,5.843,27.3,27.169,7.822,5.973,5.112
1298,0.777,36.035,5.796,27.3,27.08,7.781,5.811,5.03
1299,0.78,36.176,5.815,27.3,27.09,7.781,5.932,5.111
1300,0.787,36.292,5.808,27.3,27.093,7.659,5.811,5.112
1301,0.78,36.159,5.819,27.32,27.093,7.78,5.932,5.152
1302,0.79,36.158,5.851,27.32,27.1,7.74,5.892,5.193
1303,0.787,36.244,5.796,27.281,27.086,7.537,5.811,5.031
1304,0.787,36.36,5.796,27.3,27.097,7.657,5.85,5.151
1305,0.787,35.92,5.815,27.32,27.1,7.617,5.851,5.071
1306,0.793,36.021,5.823,27.31,27.086,7.617,5.932,5.193
1307,0.8,36.147,5.859,27.32,27.103,7.779,5.974,5.112
1308,0.787,36.225,5.808,27.291,27.086,7.496,5.811,5.071
1309,0.793,35.976,5.819,27.291,27.159,7.616,5.891,5.03
1310,0.793,36.137,5.8,27.31,27.094,7.617,5.851,5.111
1311,0.771,36.244,5.823,27.3,27.093,7.617,5.973,5.152
1312,0.777,36.35,5.847,27.339,27.107,7.698,6.055,5.234
1313,0.758,35.939,5.792,27.282,27.083,7.536,5.893,4.991
1314,0.774,36.098,5.808,27.291,27.093,7.534,5.892,5.07
1315,0.771,36.215,5.808,27.3,27.093,7.534,5.973,5.03
1316,0.774,36.264,5.812,27.291,27.097,7.575,5.933,5.03
1317,0.78,36.092,5.839,27.339,27.111,7.657,6.055,5.192
1318,0.767,36.167,5.812,27.291,27.083,7.414,5.812,4.99
1319,0.774,36.302,5.816,27.281,27.086,7.493,5.932,5.11
1320,0.78,36.361,5.808,27.291,27.1,7.494,5.933,5.112
1321,0.777,36.035,5.808,27.291,27.097,7.453,5.974,5.152
1322,0.797,36.176,5.843,27.319,27.1,7.574,6.055,5.234
1323,0.787,36.263,5.812,27.272,27.093,7.332,5.853,5.113
1324,0.787,36.293,5.816,27.291,27.093,7.329,5.932,5.152
1325,0.803,36.169,5.808,27.3,27.093,7.451,5.974,5.193
1326,0.794,36.292,5.819,27.281,27.097,7.33,5.974,5.112
1327,0.81,36.399,5.843,27.3,27.104,7.329,5.974,5.234
1328,0.797,36.141,5.816,27.272,27.097,7.248,5.852,4.991
1329,0.79,36.119,5.847,27.3,27.09,7.247,5.891,5.11
1330,0.803,36.263,5.808,27.3,27.093,7.288,6.014,5.152
1331,0.79,36.36,5.808,27.3,27.097,7.207,5.974,5.071
1332,0.806,35.872,5.827,27.3,27.1,7.165,6.055,5.233
1333,0.81,35.973,5.827,27.281,27.093,7.084,5.853,5.032
1334,0.816,36.079,5.765,27.262,27.086,7.002,5.851,5.03
1335,0.82,36.215,5.811,27.29,27.1,7.082,5.973,5.151
1336,0.813,35.823,5.816,27.281,27.1,7.042,5.974,5.071
1337,0.829,35.953,5.831,27.281,27.097,7.042,5.974,5.193
1338,0.839,36.05,5.827,27.271,27.093,7.001,5.893,5.031
1339,0.843,36.109,5.784,27.262,27.093,6.838,5.811,5.03
1340,0.859,36.023,5.796,27.3,27.121,6.999,6.013,5.111
1341,0.862,36.166,5.808,27.281,27.093,6.879,5.974,5.112
1342,0.856,36.263,5.819,27.281,27.09,6.918,6.055,5.152
1343,0.862,36.322,5.831,27.271,27.097,6.796,5.934,5.031
1344,0.859,35.814,5.8,27.252,27.079,6.755,5.811,5.07
1345,0.879,36.001,5.819,27.29,27.096,6.917,5.972,5.152
1346,0.882,36.099,5.816,27.291,27.097,6.878,6.015,5.153
1347,0.879,36.119,5.839,27.3,27.097,6.918,6.015,5.153
1348,0.889,36.052,5.824,27.272,27.093,6.878,5.934,5.071
1349,0.879,36.176,5.796,27.262,27.083,6.837,5.892,4.989
1350,0.902,36.321,5.815,27.281,27.097,6.958,6.014,5.151
1351,0.895,36.696,5.812,27.281,27.097,6.96,5.893,5.112
1352,0.902,35.808,5.812,27.271,27.1,7.041,5.973,5.152
1353,0.892,35.924,5.823,27.262,27.086,7.042,5.852,5.031
1354,0.895,36.012,5.808,27.252,27.086,7.001,5.891,5.03
1355,0.905,36.012,5.812,27.271,27.097,7.204,5.973,5.151
1356,0.915,36.07,5.804,27.262,27.097,7.247,5.893,5.031
1357,0.922,36.186,5.812,27.262,27.097,7.206,5.933,5.03
1358,0.912,36.283,5.823,27.262,27.083,7.247,5.892,5.111
1359,0.902,35.737,5.808,27.243,27.09,7.044,5.811,4.989
1360,0.931,35.885,5.796,27.29,27.097,7.286,5.972,5.151
1361,0.948,35.992,5.808,27.281,27.093,7.288,5.893,5.071
1362,0.938,36.06,5.808,27.271,27.093,7.166,5.933,5.07
1363,0.951,35.85,5.816,27.271,27.086,7.287,5.892,4.989
1364,0.948,35.992,5.812,27.262,27.083,7.207,5.811,4.988
1365,0.958,36.127,5.827,27.31,27.097,7.328,5.891,5.151
1366,0.948,36.196,5.808,27.281,27.093,7.289,6.014,5.153
1367,0.938,35.707,5.808,27.262,27.09,7.207,5.934,5.112
1368,0.948,35.856,5.827,27.262,27.086,7.206,5.892,5.03
1369,0.932,35.963,5.827,27.262,27.093,7.247,5.811,4.867
1370,0.925,36.041,5.835,27.319,27.097,7.247,5.932,5.068
1371,0.935,35.85,5.808,27.262,27.093,7.206,5.852,5.152
1372,0.931,35.963,5.8,27.252,27.093,7.084,5.851,5.031
1373,0.928,36.089,5.827,27.262,27.093,7.123,5.891,5.07
1374,0.941,36.109,5.812,27.243,27.09,7.083,5.851,5.03
1375,0.941,35.793,5.749,27.281,27.097,7.164,5.891,5.111
1376,0.954,35.934,5.823,27.291,27.1,7.084,5.892,5.071
1377,0.941,36.012,5.82,27.262,27.093,7.042,5.851,5.03
1378,0.958,36.3,5.808,27.262,27.093,7.082,5.932,5.07
1379,0.964,35.843,5.823,27.262,27.09,7.042,5.852,5.07
1380,0.955,36.001,5.831,27.281,27.093,7.082,5.973,5.152
1381,0.967,36.108,5.812,27.291,27.1,7.123,5.974,5.071
1382,0.945,35.812,5.8,27.243,27.09,6.921,5.852,5.07
1383,0.951,35.886,5.812,27.242,27.097,6.919,5.891,5.07
1384,0.958,36.002,5.831,27.281,27.093,7.0,5.851,4.989
1385,0.954,36.099,5.788,27.281,27.097,6.96,5.932,5.151
1386,0.954,35.85,5.823,27.3,27.104,7.082,5.974,5.153
1387,0.935,35.944,5.792,27.243,27.079,6.92,5.893,4.99
1388,0.935,36.069,5.819,27.252,27.096,7.0,5.933,5.029
1389,0.938,36.147,5.827,27.271,27.09,6.919,5.933,5.07
1390,0.925,35.755,5.808,27.262,27.1,7.0,5.974,5.07
1391,0.928,35.952,5.823,27.271,27.104,7.082,5.974,5.152
1392,0.909,35.993,5.788,27.243,27.086,6.839,5.811,5.031
1393,0.892,36.079,5.804,27.252,27.097,6.918,5.891,5.03
1394,0.882,35.678,5.823,27.252,27.093,6.959,5.892,5.03
1395,0.866,35.817,5.808,27.252,27.093,6.96,5.973,5.151
1396,0.859,35.963,5.823,27.262,27.107,7.082,6.015,5.193
1397,0.846,35.974,5.804,27.223,27.086,6.839,5.893,5.031
1398,0.846,35.868,5.839,27.242,27.097,6.918,5.933,5.07
1399,0.84,36.021,5.839,27.261,27.093,6.959,5.933,5.152
1400,0.839,36.137,5.812,27.271,27.097,6.919,5.974,5.112
1401,0.833,36.177,5.812,27.291,27.107,7.041,6.096,5.234
1402,0.826,38.651,5.8,27.252,27.093,6.839,5.813,5.032
1403,0.82,38.791,5.823,27.242,27.09,6.877,5.891,5.07
1404,0.833,38.879,5.843,27.281,27.097,7.0,5.973,5.111
1405,0.813,37.336,5.82,27.281,27.093,6.96,5.974,5.112
1406,0.816,34.338,5.816,27.281,27.107,6.96,6.055,5.315
1407,0.816,34.442,5.796,27.243,27.093,6.878,5.853,4.992
1408,0.81,34.578,5.815,27.261,27.093,6.918,5.932,5.07
1409,0.816,35.806,5.823,27.262,27.093,6.959,5.974,5.152
1410,0.8,36.097,5.804,27.243,27.097,6.919,5.893,5.153
1411,0.797,36.243,5.827,27.338,27.104,7.041,5.973,5.193
1412,0.767,36.293,5.808,27.234,27.086,6.879,5.893,5.031
1413,0.767,35.421,5.812,27.261,27.086,6.959,5.892,5.07
1414,0.783,35.556,5.843,27.262,27.107,6.96,5.892,5.111
1415,0.774,35.672,5.828,27.252,27.1,6.919,5.892,5.03
1416,0.774,35.789,5.753,27.281,27.107,7.0,5.933,5.192
1417,0.751,35.636,5.807,27.262,27.09,6.879,5.852,4.99
1418,0.748,35.769,5.816,27.243,27.093,6.877,5.973,5.029
1419,0.751,35.905,5.847,27.271,27.1,7.0,5.933,5.07
1420,0.748,35.963,5.828,27.252,27.093,6.96,5.852,5.03
1421,0.751,35.6,5.808,27.281,27.107,7.122,6.013,5.192
1422,0.735,35.701,5.819,27.243,27.093,6.88,5.812,4.99
1423,0.738,35.818,5.808,27.252,27.086,6.918,5.891,5.07
1424,0.754,35.876,5.831,27.262,27.097,7.122,5.973,5.193
1425,0.741,35.733,5.824,27.262,27.093,7.002,5.893,5.153
1426,0.751,35.875,5.82,27.281,27.18,7.163,5.973,5.234
1427,0.741,35.963,5.823,27.243,27.094,7.043,5.811,5.032
1428,0.738,35.983,5.808,27.242,27.093,7.123,5.85,5.03
1429,0.738,35.801,5.823,27.252,27.1,7.124,5.891,5.151
1430,0.728,35.934,5.82,27.252,27.093,7.043,5.851,5.153
1431,0.728,36.04,5.831,27.271,27.1,7.164,6.013,5.193
1432,0.731,35.984,5.824,27.243,27.09,7.043,5.771,4.99
1433,0.734,35.724,5.804,27.252,27.093,7.082,5.891,5.07
1434,0.734,35.894,5.827,27.262,27.093,7.083,5.851,5.07
1435,0.731,35.944,5.851,27.243,27.093,7.123,5.891,5.07
1436,0.731,35.609,5.82,27.261,27.104,7.124,6.014,5.111
1437,0.721,35.682,5.816,27.252,27.083,7.083,5.893,5.03
1438,0.721,35.789,5.788,27.242,27.169,7.042,5.933,4.989
1439,0.747,35.914,5.808,27.271,27.097,7.164,5.933,5.151
1440,0.728,35.733,5.839,27.262,27.093,7.043,5.974,5.071
1441,0.738,35.885,5.816,27.271,27.097,7.204,5.974,5.111
1442,0.728,36.011,5.823,27.243,27.093,7.043,5.852,5.03
1443,0.728,36.06,5.808,27.223,27.086,7.042,5.81,5.111
1444,0.734,35.706,5.816,27.261,27.09,7.042,5.972,5.112
1445,0.734,35.837,5.831,27.252,27.093,7.001,5.893,5.152
1446,0.728,35.953,5.843,27.271,27.1,7.041,5.973,5.193
1447,0.712,36.031,5.816,27.291,27.086,7.042,5.852,5.072
1448,0.711,35.639,5.8,27.224,27.09,6.879,5.851,5.03
1449,0.728,35.817,5.823,27.252,27.09,7.04,5.973,5.151
1450,0.725,35.915,5.839,27.242,27.097,7.082,5.974,5.153
1451,0.718,35.944,5.839,27.252,27.09,7.164,5.933,5.071
1452,0.721,35.599,5.812,27.242,27.09,7.084,5.974,5.111
1453,0.711,35.74,5.808,27.223,27.083,7.164,5.852,4.949
1454,0.721,35.885,5.812,27.252,27.097,7.409,5.973,5.11
1455,0.724,35.877,5.812,27.242,27.097,7.452,5.974,5.03
1456,0.728,35.695,5.812,27.242,27.09,7.534,5.974,5.07
1457,0.715,35.827,5.812,27.252,27.097,7.657,5.893,4.989
1458,0.728,35.905,5.808,27.233,27.086,7.658,5.851,4.907
1459,0.741,35.868,5.808,27.252,27.093,7.942,6.054,5.15
1460,0.738,35.723,5.823,27.252,27.097,8.067,6.015,5.071
1461,0.734,35.837,5.823,27.233,27.09,8.109,5.974,5.07
1462,0.728,35.944,5.784,27.242,27.173,8.15,5.974,5.03
1463,0.728,35.542,5.788,27.223,27.077,8.11,5.893,4.907
1464,0.731,35.662,5.808,27.28,27.096,8.313,6.014,5.15
1465,0.738,35.779,5.823,27.262,27.097,8.315,5.974,5.071
1466,0.741,35.838,5.823,27.262,27.083,8.274,5.974,5.111
1467,0.747,35.742,5.788,27.243,27.097,8.314,5.974,5.03
1468,0.738,35.866,5.788,27.223,27.083,8.234,5.811,4.907
1469,0.738,36.001,5.804,27.242,27.1,8.355,5.972,5.028
1470,0.738,36.079,5.815,27.233,27.097,8.356,5.893,5.07
1471,0.734,35.658,5.816,27.252,27.083,8.275,5.973,5.07
1472,0.744,35.788,5.808,27.252,27.093,8.193,5.893,5.111
1473,0.744,35.924,5.819,27.233,27.079,8.11,5.851,4.949
1474,0.741,35.992,5.827,27.242,27.152,8.232,6.054,5.069
1475,0.744,35.677,5.82,27.242,27.09,8.151,5.975,4.989
1476,0.731,35.808,5.827,27.233,27.086,8.11,5.852,4.907
1477,0.731,35.934,5.816,27.242,27.083,8.069,5.932,5.028
1478,0.738,35.983,5.804,27.233,27.086,7.946,5.852,4.948
1479,0.747,35.677,5.808,27.261,27.093,8.067,6.013,5.069
1480,0.764,35.836,5.812,27.243,27.093,7.946,5.934,5.07
1481,0.774,35.905,5.823,27.233,27.086,7.864,5.974,5.03
1482,0.79,35.935,5.823,27.242,27.097,7.863,5.893,5.07
1483,0.803,35.714,5.796,27.252,27.093,7.863,5.933,5.03
1484,0.813,35.846,5.811,27.262,27.097,7.863,5.974,5.151
1485,0.852,35.972,5.819,27.262,27.1,7.904,5.974,5.071
1486,0.856,35.676,5.812,27.223,27.166,7.742,5.893,4.989
1487,0.905,35.587,5.812,27.242,27.094,7.74,5.892,4.988
1488,0.934,35.711,5.8,27.261,27.086,7.781,5.851,5.029
1489,0.945,35.808,5.808,27.252,27.097,7.822,5.891,5.07
1490,0.98,35.588,5.823,27.271,27.1,7.822,5.973,5.07
1491,0.991,35.644,5.816,27.233,27.093,7.7,5.893,5.07
1492,1.007,35.779,5.812,27.242,27.097,7.861,5.933,5.03
1493,1.03,35.895,5.792,27.242,27.093,7.863,5.974,5.03
1494,1.053,35.57,5.8,27.242,27.1,7.863,5.974,5.111
1495,1.092,35.749,5.815,27.281,27.104,8.026,6.096,5.112
1496,1.083,35.808,5.831,27.224,27.093,7.865,5.813,5.03
1497,1.092,35.895,5.827,27.233,27.093,7.863,5.972,4.989
1498,1.083,35.656,5.82,27.261,27.097,7.985,5.933,5.11
1499,1.086,35.817,5.816,27.243,27.093,8.027,5.892,5.112
1500,1.099,35.934,5.839,27.281,27.107,8.149,6.095,5.234
1501,1.093,35.964,5.816,27.243,27.09,7.947,5.853,4.991
1502,1.076,35.628,5.82,27.233,27.097,7.986,5.891,5.07
1503,1.037,35.788,5.812,27.261,27.093,7.986,5.973,5.07
1504,1.007,35.895,5.816,27.243,27.093,7.986,5.974,5.111
1505,0.984,35.983,5.816,27.29,27.1,8.027,6.015,5.193
1506,0.906,35.542,5.823,27.224,27.09,7.865,5.893,4.95
1507,0.847,35.691,5.823,27.242,27.086,7.944,5.851,5.029
1508,0.807,35.827,5.804,27.252,27.093,7.986,5.932,5.07
1509,0.748,35.819,5.815,27.252,27.093,7.905,5.974,5.07
1510,0.679,35.838,5.82,27.271,27.169,8.067,6.055,5.111
1511,0.6,35.915,5.8,27.204,27.08,7.865,5.853,4.949
1512,0.544,36.04,5.827,27.232,27.09,7.863,5.891,5.029
1513,0.446,35.811,5.82,27.252,27.097,7.863,5.973,5.111
1514,0.357,35.771,5.812,27.242,27.086,7.944,5.974,5.071
1515,0.308,35.924,5.816,27.261,27.11,8.067,6.055,5.152
1516,0.268,35.973,5.788,27.214,27.079,7.865,5.893,4.99
1517,0.248,35.408,5.819,27.232,27.096,7.944,6.014,5.07
1518,0.261,35.527,5.843,27.223,27.097,7.986,6.015,5.152
1519,0.232,35.662,5.812,27.261,27.093,8.068,6.056,5.153
1520,0.186,35.779,5.843,27.271,27.104,8.15,6.178,5.275
1521,0.121,35.607,5.812,27.233,27.086,7.988,6.057,5.032
1522,0.091,35.759,5.831,27.242,27.1,8.068,6.097,5.111
1523,0.09,35.895,5.816,27.242,27.093,8.231,6.097,5.112
1524,0.058,35.944,5.765,27.261,27.093,8.273,6.138,5.152
1525,0.045,35.484,5.799,27.252,27.104,8.477,6.26,5.356
1526,0.009,35.576,5.792,27.223,27.086,8.316,6.139,5.073
1527,-0.018,35.692,5.819,27.242,27.097,8.315,6.179,5.111
1528,0.008,35.779,5.835,27.261,27.1,8.477,6.301,5.193
1529,0.031,35.559,5.808,27.233,27.093,8.438,6.221,5.153
1530,0.08,35.73,5.827,27.261,27.1,8.56,6.302,5.315
1531,0.113,35.818,5.796,27.233,27.086,8.521,6.14,5.073
1532,0.165,35.857,5.815,27.223,27.097,8.561,6.219,5.111
1533,0.221,35.56,5.823,27.252,27.1,8.683,6.261,5.193
1534,0.267,35.701,5.816,27.223,27.176,8.562,6.302,5.153
1535,0.3,35.818,5.827,27.261,27.101,8.683,6.425,5.315
1536,0.323,36.049,5.808,27.204,27.09,8.522,6.222,5.073
1537,0.369,35.668,5.804,27.223,27.09,8.561,6.261,5.274
1538,0.405,35.817,5.831,27.242,27.093,8.683,6.302,5.235
1539,0.432,35.905,5.808,27.252,27.1,8.603,6.343,5.235
1540,0.471,35.647,5.812,27.252,27.1,8.765,6.384,5.397
1541,0.485,35.644,5.796,27.223,27.086,8.604,6.222,5.155
1542,0.504,35.759,5.8,27.233,27.09,8.643,6.302,5.234
1543,0.547,35.857,5.847,27.242,27.097,8.765,6.302,5.235
1544,0.567,35.589,5.816,27.242,27.097,8.726,6.343,5.357
1545,0.599,35.74,5.816,27.261,27.1,8.888,6.466,5.399
1546,0.616,35.828,5.812,27.223,27.093,8.646,6.264,5.196
1547,0.639,35.896,5.823,27.242,27.09,8.725,6.302,5.316
1548,0.668,35.599,5.835,27.261,27.093,8.807,6.384,5.276
1549,0.688,35.73,5.82,27.223,27.093,8.767,6.344,5.235
1550,0.724,35.875,5.839,27.261,27.1,8.889,6.466,5.357
1551,0.728,35.934,5.812,27.223,27.086,8.687,6.264,5.155
1552,0.734,35.388,5.8,27.223,27.09,8.766,6.302,5.315
1553,0.767,35.536,5.843,27.261,27.104,8.848,6.384,5.276
1554,0.764,35.653,5.843,27.223,27.09,8.808,6.303,5.235
1555,0.787,35.721,5.777,27.252,27.104,8.808,6.384,5.357
1556,0.784,35.664,5.796,27.214,27.093,8.767,6.222,5.195
1557,0.8,35.779,5.8,27.213,27.086,8.807,6.22,5.194
1558,0.829,35.924,5.847,27.223,27.1,8.848,6.383,5.316
1559,0.817,35.935,5.828,27.252,27.097,8.767,6.303,5.317
1560,0.816,35.484,5.812,27.252,27.097,8.807,6.343,5.398
1561,0.826,35.614,5.816,27.233,27.086,8.726,6.221,5.236
1562,0.813,35.702,5.777,27.204,27.086,8.685,6.18,5.235
1563,0.826,36.153,5.823,27.223,27.1,8.766,6.301,5.397
1564,0.839,35.65,5.823,27.233,27.097,8.767,6.302,5.318
1565,0.836,35.779,5.816,27.242,27.1,8.685,6.302,5.398
1566,0.839,35.876,5.82,27.233,27.09,8.481,6.18,5.236
1567,0.836,35.532,5.808,27.213,27.086,8.52,6.139,5.235
1568,0.852,35.576,5.835,27.252,27.103,8.52,6.301,5.357
1569,0.843,35.692,5.839,27.223,27.09,8.52,6.262,5.277
1570,0.836,35.789,5.808,27.233,27.097,8.479,6.302,5.357
1571,0.843,35.56,5.812,27.233,27.086,8.398,6.18,5.236
1572,0.839,35.701,5.788,27.213,27.09,8.194,6.139,5.194
1573,0.849,35.818,5.811,27.242,27.097,8.314,6.301,5.316
1574,0.843,35.915,5.831,27.214,27.097,8.234,6.221,5.276
1575,0.839,35.503,5.816,27.223,27.097,8.273,6.261,5.316
1576,0.843,35.653,5.808,27.213,27.09,8.111,6.139,5.236
1577,0.833,35.76,5.8,27.204,27.097,8.069,6.057,5.153
1578,0.856,35.837,5.827,27.232,27.093,8.191,6.259,5.356
1579,0.862,35.675,5.824,27.233,27.09,8.192,6.221,5.277
1580,0.859,35.789,5.804,27.233,27.097,8.151,6.139,5.235
1581,0.859,35.924,5.823,27.223,27.086,8.11,6.138,5.194
1582,0.853,35.964,5.796,27.194,27.09,8.028,6.098,5.153
1583,0.866,35.561,5.811,27.242,27.093,8.149,6.26,5.275
1584,0.866,35.663,5.835,27.233,27.09,8.11,6.18,5.276
1585,0.866,35.779,5.808,27.223,27.086,8.028,6.139,5.235
1586,0.859,35.809,5.804,27.223,27.083,8.027,6.138,5.275
1587,0.869,35.742,5.8,27.223,27.09,8.027,6.016,5.154
1588,0.869,35.895,5.815,27.242,27.093,8.109,6.218,5.315
1589,0.872,35.983,5.827,27.233,27.142,7.947,6.139,5.317
1590,0.866,35.983,5.8,27.213,27.094,7.945,6.138,5.276
1591,0.872,35.427,5.796,27.223,27.086,7.986,6.098,5.154
1592,0.869,35.527,5.808,27.213,27.086,7.783,5.975,5.112
1593,0.869,35.643,5.816,27.223,27.093,7.944,6.177,5.315
1594,0.879,35.52,5.843,27.233,27.097,7.864,6.098,5.195
1595,0.869,35.566,5.812,27.204,27.086,7.7,6.056,5.194
1596,0.866,35.72,5.823,27.213,27.093,7.78,6.097,5.234
1597,0.869,35.808,5.808,27.223,27.083,7.659,6.056,5.153
1598,0.885,35.397,5.816,27.233,27.093,7.78,6.097,5.315
1599,0.882,35.517,5.816,27.213,27.093,7.74,6.097,5.276
1600,0.879,35.634,5.827,27.204,27.086,7.659,6.097,5.235
1601,0.892,35.731,5.8,27.232,27.169,7.698,6.056,5.235
1602,0.879,35.434,5.815,27.213,27.084,7.577,5.975,5.153
1603,0.885,35.594,5.808,27.242,27.09,7.657,6.137,5.315
1604,0.889,35.711,5.823,27.223,27.097,7.576,6.098,5.317
1605,0.889,35.751,5.82,27.233,27.09,7.535,6.056,5.236
1606,0.889,35.463,5.823,27.223,27.093,7.534,5.975,5.194
1607,0.879,35.585,5.808,27.204,27.086,7.453,5.974,5.112
1608,0.879,35.721,5.819,27.242,27.103,7.574,6.096,5.274
1609,0.876,35.77,5.823,27.223,27.093,7.535,6.056,5.195
1610,0.872,35.55,5.82,27.213,27.093,7.453,6.056,5.234
1611,0.882,35.701,5.808,27.232,27.093,7.452,6.015,5.194
1612,0.879,35.779,5.804,27.204,27.076,7.371,5.974,5.194
1613,0.892,35.838,5.788,27.232,27.142,7.452,6.096,5.275
1614,0.882,35.541,5.815,27.213,27.087,7.452,6.056,5.195
1615,0.876,35.662,5.831,27.204,27.09,7.452,5.975,5.112
1616,0.885,35.779,5.808,27.213,27.093,7.493,5.974,5.193
1617,0.872,35.761,5.8,27.213,27.083,7.412,5.974,5.153
1618,0.892,35.521,5.808,27.213,27.093,7.493,6.015,5.315
1619,0.899,35.662,5.808,27.223,27.086,7.453,6.056,5.236
1620,0.892,35.721,5.819,27.204,27.09,7.452,5.975,5.235
1621,0.892,35.52,5.804,27.204,27.093,7.493,6.055,5.194
1622,0.895,35.624,5.819,27.213,27.09,7.412,5.975,5.194
1623,0.905,35.75,5.812,27.223,27.097,7.493,6.055,5.275
1624,0.912,35.885,5.827,27.252,27.1,7.534,6.015,5.276
1625,0.899,35.206,5.835,27.214,27.1,7.412,5.974,5.195
1626,0.899,35.343,5.82,27.232,27.097,7.452,5.974,5.234
1627,0.905,35.478,5.823,27.233,27.093,7.452,5.893,5.235
1628,0.905,35.556,5.8,27.233,27.097,7.534,6.054,5.275
1629,0.908,35.5,5.827,27.233,27.1,7.494,5.975,5.276
1630,0.892,35.595,5.808,27.204,27.093,7.371,5.974,5.113
1631,0.905,35.74,5.831,27.204,27.09,7.37,5.933,5.234
1632,0.905,35.808,5.753,27.213,27.097,7.37,5.974,5.194
1633,0.899,35.301,5.827,27.232,27.093,7.492,5.974,5.316
1634,0.915,35.497,5.812,27.242,27.1,7.412,6.015,5.195
1635,0.896,35.528,5.816,27.175,27.093,7.371,5.934,5.112
1636,0.908,35.586,5.835,27.213,27.09,7.37,5.933,5.152
1637,0.899,35.471,5.8,27.242,27.152,7.37,5.974,5.153
1638,0.899,35.614,5.815,27.204,27.097,7.33,6.015,5.356
1639,0.912,35.75,5.823,27.251,27.097,7.37,5.974,5.317
1640,0.899,35.722,5.827,27.204,27.09,7.208,5.811,5.154
1641,0.899,35.405,5.824,27.213,27.09,7.328,5.972,5.112
1642,0.905,35.546,5.812,27.213,27.09,7.289,5.893,5.274
1643,0.908,35.663,5.819,27.213,27.093,7.247,5.973,5.235
1644,0.918,35.635,5.827,27.261,27.104,7.369,6.055,5.316
1645,0.905,35.462,5.808,27.204,27.097,7.208,5.893,5.154
1646,0.912,35.595,5.827,27.232,27.09,7.206,5.851,5.234
1647,0.918,35.711,5.827,27.213,27.097,7.328,5.891,5.235
1648,0.918,35.377,5.804,27.213,27.093,7.37,5.892,5.235
1649,0.931,35.498,5.819,27.252,27.114,7.492,6.014,5.235
1650,0.909,35.585,5.796,27.194,27.09,7.371,5.852,5.113
1651,0.915,35.682,5.811,27.213,27.093,7.411,5.891,5.274
1652,0.918,35.415,5.831,27.232,27.097,7.411,5.892,5.235
1653,0.902,35.546,5.808,27.213,27.097,7.411,5.892,5.316
1654,0.925,35.701,5.819,27.261,27.111,7.533,5.973,5.276
1655,0.918,35.722,5.808,27.195,27.083,7.453,5.771,5.154
1656,0.918,35.425,5.823,27.204,27.1,7.534,5.768,5.234
1657,0.905,35.585,5.8,27.232,27.09,7.697,5.891,5.316
1658,0.915,35.73,5.827,27.213,27.093,7.78,5.892,5.276
1659,0.931,35.818,5.839,27.252,27.11,7.984,5.933,5.316
1660,0.928,37.085,5.824,27.194,27.083,7.986,5.811,5.154
1661,0.922,37.232,5.831,27.223,27.09,8.19,5.85,5.193
1662,0.922,37.329,5.827,27.223,27.093,8.436,5.851,5.234
1663,0.918,37.368,5.816,27.28,27.093,8.601,5.932,5.235
1664,0.938,34.405,5.823,27.262,27.107,8.806,6.014,5.357
1665,0.941,34.491,5.804,27.204,27.086,8.767,5.771,5.195
1666,0.932,34.607,5.839,27.213,27.093,8.929,5.809,5.234
1667,0.935,34.666,5.82,27.213,27.093,8.931,5.85,5.235
1668,0.931,35.548,5.808,27.223,27.097,9.012,5.891,5.316
1669,0.938,35.711,5.843,27.242,27.107,9.257,6.014,5.398
1670,0.922,35.779,5.785,27.204,27.083,9.015,5.812,5.196
1671,0.935,35.329,5.815,27.194,27.1,9.013,5.81,5.194
1672,0.941,35.114,5.816,27.213,27.093,9.135,5.85,5.234
1673,0.938,35.236,5.804,27.232,27.097,9.095,5.891,5.275
1674,0.938,35.343,5.819,27.242,27.1,9.176,5.973,5.316
1675,0.928,35.325,5.808,27.194,27.086,9.015,5.73,5.154
1676,0.931,35.43,5.812,27.204,27.093,9.013,5.809,5.234
1677,0.941,35.585,5.827,27.232,27.093,9.054,5.891,5.235
1678,0.932,35.682,5.808,27.204,27.097,8.932,5.851,5.275
1679,0.935,35.165,5.812,27.223,27.107,9.053,5.973,5.398
1680,0.938,35.285,5.816,27.213,27.1,8.891,5.73,5.155
1681,0.941,35.401,5.816,27.213,27.09,8.93,5.85,5.193
1682,0.954,35.498,5.851,27.213,27.097,8.931,5.891,5.234
1683,0.945,35.298,5.808,27.232,27.097,8.809,5.892,5.316
1684,0.954,35.44,5.816,27.233,27.097,8.93,6.054,5.398
1685,0.951,35.546,5.808,27.223,27.093,8.687,5.893,5.196
1686,0.948,35.567,5.792,27.194,27.093,8.684,5.973,5.194
1687,0.958,35.509,5.823,27.213,27.097,8.725,6.137,5.194
1688,0.951,35.624,5.82,27.213,27.093,8.522,6.098,5.234
1689,0.935,35.75,5.808,27.204,27.093,8.683,6.26,5.316
1690,0.931,35.799,5.8,27.204,27.093,8.603,6.262,5.154
1691,0.935,35.339,5.812,27.175,27.079,8.48,6.262,5.153
1692,0.951,35.478,5.823,27.213,27.114,8.601,6.424,5.275
1693,0.951,35.576,5.82,27.204,27.09,8.48,6.507,5.276
1694,0.945,35.596,5.82,27.242,27.086,8.438,6.549,5.195
1695,0.945,35.452,5.812,27.185,27.093,8.316,6.59,5.194
1696,0.941,35.556,5.816,27.165,27.079,8.274,6.468,5.072
1697,0.954,35.691,5.843,27.222,27.096,8.355,6.751,5.233
1698,0.964,35.444,5.82,27.213,27.1,8.275,6.754,5.194
1699,0.935,35.393,5.816,27.213,27.086,8.233,6.795,5.194
1700,0.961,35.508,5.816,27.194,27.09,8.192,6.755,5.234
1701,0.958,35.633,5.808,27.184,27.083,8.07,6.795,5.113
1702,0.964,35.433,5.819,27.213,27.1,8.191,6.917,5.234
1703,0.964,35.556,5.823,27.223,27.093,8.07,6.919,5.194
1704,0.964,35.682,5.8,27.233,27.11,8.028,6.878,5.234
1705,0.958,35.76,5.808,27.223,27.086,7.987,6.837,5.194
1706,0.958,35.559,5.792,27.194,27.076,7.864,6.837,5.153
1707,0.961,35.739,5.823,27.223,27.096,8.026,6.958,5.193
1708,0.961,35.866,5.804,27.223,27.09,7.905,6.919,5.153
1709,0.968,35.915,5.808,27.233,27.1,7.863,6.959,5.234
1710,0.964,35.561,5.804,27.204,27.083,7.822,6.919,5.194
1711,0.958,35.682,5.792,27.184,27.079,7.7,6.837,5.112
1712,0.951,35.837,5.811,27.213,27.096,7.78,7.04,5.193
1713,0.958,35.876,5.823,27.204,27.093,7.74,7.001,5.275
1714,0.961,35.791,5.796,27.213,27.097,7.74,7.041,5.195
1715,0.958,35.914,5.811,27.194,27.093,7.659,6.96,5.153
1716,0.958,36.021,5.808,27.165,27.163,7.617,6.919,5.031
1717,0.971,36.089,5.823,27.213,27.097,7.779,7.0,5.233
1718,0.971,35.898,5.839,27.204,27.097,7.659,6.96,5.194
1719,0.951,36.021,5.812,27.204,27.097,7.658,7.0,5.234
1720,0.964,36.137,5.827,27.213,27.093,7.78,6.919,5.194
1721,0.971,36.167,5.812,27.185,27.083,7.618,6.919,5.031
1722,0.974,36.081,5.823,27.223,27.093,7.82,7.0,5.192
1723,0.968,36.205,5.831,27.213,27.097,7.863,6.96,5.194
1724,0.961,36.292,5.808,27.204,27.093,7.822,6.919,5.153
1725,0.968,36.188,5.804,27.204,27.09,7.781,6.919,5.153
1726,0.971,36.206,5.796,27.194,27.086,7.7,6.837,4.99
1727,0.968,36.331,5.815,27.213,27.093,7.943,6.999,5.232
1728,0.971,36.409,5.839,27.204,27.093,7.864,6.879,5.153
1729,0.974,36.477,5.816,27.204,27.093,7.822,6.877,5.153
1730,0.971,36.631,5.812,27.251,27.093,7.863,6.877,5.153
1731,0.964,36.738,5.8,27.194,27.086,7.741,6.796,4.99
1732,0.968,36.835,5.815,27.223,27.097,7.943,6.917,5.232
1733,0.958,36.529,5.82,27.204,27.097,7.864,6.837,5.235
1734,0.951,36.622,5.831,27.184,27.083,7.863,6.837,5.113
1735,0.954,36.757,5.831,27.203,27.1,7.822,6.837,5.071
1736,0.964,36.835,5.8,27.184,27.086,7.781,6.755,5.03
1737,0.971,36.663,5.815,27.213,27.097,7.862,6.876,5.192
1738,0.968,36.805,5.82,27.223,27.097,7.863,6.837,5.194
1739,0.961,36.883,5.827,27.185,27.09,7.741,6.796,5.153
1740,0.968,36.961,5.808,27.213,27.093,7.781,6.755,5.153
1741,0.964,36.664,5.816,27.194,27.093,7.7,6.714,5.031
1742,0.974,36.824,5.82,27.213,27.1,7.821,6.835,5.233
1743,0.981,36.932,5.82,27.204,27.097,7.781,6.837,5.194
1744,0.971,36.933,5.82,27.184,27.09,7.74,6.674,5.112
1745,0.977,36.894,5.8,27.203,27.09,7.74,6.713,5.152
1746,0.981,37.019,5.8,27.194,27.09,7.74,6.713,5.112
1747,0.974,37.135,5.815,27.223,27.1,7.821,6.794,5.234
1748,0.977,37.596,5.831,27.233,27.1,7.863,6.755,5.194
1749,0.961,37.016,5.824,27.166,27.086,7.904,6.714,5.153
1750,0.958,37.164,5.8,27.213,27.1,7.945,6.754,5.153
1751,0.968,37.271,5.8,27.204,27.086,8.026,6.754,5.071
1752,0.964,37.157,5.804,27.223,27.093,8.149,6.795,5.152
1753,0.974,37.261,5.823,27.233,27.1,8.273,6.836,5.275
1754,0.964,37.3,5.816,27.185,27.086,8.152,6.633,4.991
1755,0.958,37.425,5.823,27.194,27.093,8.191,6.712,5.151
1756,0.961,37.081,5.812,27.204,27.093,8.273,6.672,5.112
1757,0.961,37.193,5.812,27.204,27.104,8.314,6.794,5.112
1758,0.971,37.328,5.835,27.213,27.1,8.315,6.755,5.234
1759,0.945,37.368,5.827,27.185,27.093,8.152,6.632,5.153
1760,0.974,37.33,5.816,27.203,27.086,8.191,6.712,5.193
1761,0.984,37.512,5.827,27.213,27.097,8.192,6.672,5.234
1762,0.965,37.59,5.82,27.194,27.093,8.232,6.713,5.153
1763,0.971,37.697,5.831,27.242,27.107,8.273,6.794,5.315
1764,0.964,37.353,5.827,27.185,27.09,8.152,6.551,5.114
1765,0.964,37.493,5.835,27.213,27.086,8.191,6.671,5.152
1766,0.968,37.629,5.835,27.28,27.097,8.395,6.631,5.275
1767,0.958,37.659,5.812,27.224,27.093,8.438,6.59,5.154
1768,0.961,37.467,5.823,27.242,27.1,8.601,6.834,5.315
1769,0.951,37.561,5.823,27.204,27.093,8.44,6.592,5.154
1770,0.961,37.658,5.823,27.184,27.086,8.519,6.631,5.153
1771,0.971,37.726,5.765,27.223,27.173,8.601,6.672,5.153
1772,0.974,37.372,5.827,27.204,27.094,8.602,6.631,5.193
1773,0.971,37.522,5.824,27.223,27.104,8.684,6.753,5.275
1774,0.958,37.571,5.812,27.194,27.093,8.603,6.551,5.113
1775,0.968,37.85,5.804,27.194,27.09,8.684,6.63,5.112
1776,0.984,37.584,5.796,27.194,27.104,8.807,6.59,5.152
1777,0.974,37.697,5.808,27.223,27.09,8.808,6.549,5.153
1778,0.984,37.794,5.823,27.213,27.104,8.93,6.671,5.234
1779,0.974,37.401,5.82,27.204,27.09,8.809,6.469,5.072
1780,0.974,37.436,5.831,27.204,27.086,8.97,6.548,5.152
1781,0.981,37.571,5.812,27.223,27.103,8.931,6.63,5.153
1782,0.987,37.668,5.819,27.223,27.093,8.931,6.59,5.193
1783,0.991,37.477,5.808,27.233,27.156,8.972,6.712,5.275
1784,0.984,37.571,5.823,27.185,27.09,8.809,6.51,5.113
1785,0.974,37.668,5.843,27.194,27.093,8.767,6.508,5.152
1786,0.984,37.774,5.816,27.223,27.1,8.929,6.63,5.234
1787,0.978,37.536,5.827,27.194,27.097,8.809,6.631,5.275
1788,0.987,37.677,5.831,27.223,27.104,8.889,6.753,5.316
1789,0.987,37.755,5.812,27.194,27.086,8.687,6.51,5.032
1790,0.974,37.794,5.831,27.194,27.103,8.725,6.67,5.151
1791,0.977,37.497,5.82,27.204,27.1,8.726,6.672,5.153
1792,0.977,37.638,5.823,27.194,27.093,8.685,6.631,5.153
1793,0.99,37.745,5.823,27.223,27.1,8.766,6.712,5.315
1794,0.978,37.756,5.816,27.175,27.086,8.563,6.551,5.073
1795,0.977,37.411,5.808,27.194,27.093,8.602,6.59,5.111
1796,0.977,37.58,5.808,27.223,27.1,8.643,6.671,5.193
1797,0.987,37.677,5.808,27.194,27.097,8.521,6.55,5.153
1798,0.991,37.717,5.812,27.213,27.104,8.764,6.671,5.275
1799,0.974,37.535,5.784,27.165,27.086,8.523,6.509,5.032
1800,0.964,37.639,5.811,27.184,27.093,8.561,6.549,5.07
1801,0.977,37.774,5.823,27.203,27.097,8.602,6.63,5.233
1802,0.971,37.804,5.816,27.223,27.1,8.602,6.509,5.153
1803,0.987,37.603,5.816,27.223,27.107,8.643,6.63,5.275
1804,0.974,37.668,5.8,27.194,27.083,8.481,6.468,5.113
1805,0.961,37.755,5.827,27.184,27.086,8.438,6.548,5.112
1806,0.974,37.602,5.831,27.223,27.1,8.397,6.549,5.234
1807,0.948,37.687,5.812,27.213,27.093,8.356,6.508,5.113
1808,0.977,37.832,5.808,27.204,27.104,8.437,6.63,5.274
1809,0.968,37.9,5.796,27.184,27.093,8.194,6.468,5.073
1810,0.964,37.316,5.831,27.194,27.086,8.192,6.467,5.152
1811,0.971,37.464,5.831,27.213,27.086,8.232,6.507,5.234
1812,0.958,37.58,5.808,27.204,27.1,8.111,6.549,5.153
1813,0.954,37.706,5.827,27.223,27.097,8.232,6.549,5.315
1814,0.938,37.487,5.796,27.165,27.097,7.989,6.386,5.073
1815,0.938,37.629,5.804,27.184,27.093,8.149,6.425,5.111
1816,0.948,37.755,5.827,27.194,27.097,8.11,6.466,5.112
1817,0.941,37.794,5.8,27.184,27.097,7.987,6.386,5.193
1818,0.948,37.334,5.823,27.213,27.1,7.986,6.547,5.275
1819,0.935,37.426,5.812,27.185,27.09,7.824,6.305,4.991
1820,0.938,37.551,5.819,27.184,27.086,7.822,6.302,5.151
1821,0.938,37.61,5.847,27.194,27.1,7.903,6.384,5.153
1822,0.932,37.275,5.812,27.194,27.093,7.782,6.385,5.153
1823,0.938,37.454,5.823,27.223,27.1,7.903,6.507,5.234
1824,0.925,37.513,5.808,27.175,27.097,7.66,6.264,5.153
1825,0.928,37.533,5.812,27.194,27.093,7.658,6.302,5.153
1826,0.925,37.456,5.823,27.223,27.104,7.739,6.302,5.193
1827,0.918,37.58,5.816,27.204,27.093,7.74,6.343,5.194
1828,0.922,37.697,5.831,27.223,27.104,7.821,6.466,5.316
1829,0.905,37.544,5.796,27.194,27.083,7.619,6.223,5.032
1830,0.902,37.37,5.819,27.175,27.09,7.657,6.302,5.07
1831,0.908,37.503,5.835,27.184,27.1,7.617,6.262,5.193
1832,0.902,37.59,5.824,27.203,27.097,7.617,6.302,5.112
1833,0.902,37.352,5.843,27.223,27.1,7.698,6.425,5.152
1834,0.886,37.435,5.812,27.175,27.093,7.496,6.263,5.031
1835,0.889,37.532,5.816,27.165,27.086,7.494,6.302,5.07
1836,0.895,37.658,5.839,27.184,27.097,7.575,6.343,5.152
1837,0.886,37.41,5.816,27.184,27.09,7.535,6.343,5.071
1838,0.882,37.57,5.816,27.251,27.107,7.534,6.425,5.274
1839,0.876,37.649,5.788,27.185,27.083,7.453,6.263,5.113
1840,0.859,37.726,5.792,27.184,27.09,7.493,6.302,5.112
1841,0.869,37.295,5.831,27.184,27.093,7.494,6.343,5.193
1842,0.869,37.425,5.808,27.184,27.093,7.412,6.343,5.153
1843,0.885,37.542,5.819,27.213,27.1,7.452,6.384,5.234
1844,0.872,37.61,5.812,27.194,27.093,7.33,6.263,5.072
1845,0.859,37.342,5.8,27.184,27.093,7.329,6.343,5.111
1846,0.882,37.502,5.823,27.194,27.097,7.41,6.303,5.193
1847,0.879,37.61,5.827,27.194,27.093,7.33,6.302,5.153
1848,0.869,37.668,5.827,27.213,27.104,7.451,6.384,5.193
1849,0.856,37.314,5.812,27.185,27.083,7.29,6.222,5.072
1850,0.849,37.425,5.804,27.194,27.11,7.329,6.302,5.111
1851,0.859,37.561,5.827,27.204,27.093,7.207,6.302,5.193
1852,0.859,37.562,5.843,27.204,27.09,7.247,6.302,5.153
1853,0.856,37.399,5.808,27.204,27.1,7.369,6.425,5.234
1854,0.84,37.493,5.816,27.175,27.093,7.126,6.222,5.072
1855,0.849,37.571,5.792,27.146,27.093,7.205,6.302,5.07
1856,0.859,37.438,5.808,27.174,27.093,7.206,6.302,5.152
1857,0.846,37.312,5.827,27.194,27.09,7.206,6.302,5.071
1858,0.853,37.454,5.82,27.213,27.104,7.287,6.384,5.233
1859,0.846,37.523,5.816,27.185,27.09,7.125,6.181,5.072
1860,0.843,37.226,5.804,27.175,27.093,7.287,6.261,5.193
1861,0.853,37.348,5.827,27.194,27.097,7.247,6.221,5.112
1862,0.856,37.464,5.824,27.184,27.114,7.288,6.261,5.152
1863,0.856,37.552,5.827,27.203,27.097,7.451,6.384,5.234
1864,0.856,37.361,5.812,27.184,27.093,7.29,6.181,5.113
1865,0.849,37.483,5.792,27.175,27.09,7.329,6.22,5.152
1866,0.862,37.6,5.827,27.222,27.097,7.37,6.342,5.234
1867,0.862,37.678,5.839,27.194,27.1,7.37,6.221,5.153
1868,0.859,37.266,5.831,27.213,27.1,7.411,6.261,5.315
1869,0.856,37.387,5.816,27.232,27.093,7.249,6.221,5.114
1870,0.849,37.512,5.792,27.194,27.086,7.369,6.302,5.152
1871,0.859,37.59,5.815,27.184,27.093,7.37,6.262,5.153
1872,0.849,37.39,5.827,27.184,27.093,7.33,6.221,5.234
1873,0.866,37.532,5.839,27.203,27.093,7.492,6.302,5.235
1874,0.853,37.629,5.824,27.204,27.093,7.29,6.221,4.991
1875,0.846,37.659,5.796,27.175,27.093,7.329,6.261,5.07
1876,0.859,37.438,5.819,27.184,27.097,7.492,6.384,5.193
1877,0.849,37.542,5.835,27.175,27.093,7.453,6.344,5.153
1878,0.853,37.648,5.847,27.203,27.093,7.534,6.343,5.193
1879,0.843,37.649,5.832,27.165,27.093,7.372,6.221,5.031
1880,0.843,37.63,5.792,27.165,27.083,7.452,6.22,5.111
1881,0.856,37.783,5.792,27.203,27.097,7.452,6.342,5.193
1882,0.862,37.852,5.815,27.184,27.097,7.452,6.303,5.112
1883,0.856,37.393,5.831,27.184,27.097,7.493,6.384,5.274
1884,0.862,37.263,5.808,27.184,27.093,7.412,6.263,5.154
1885,0.859,37.377,5.796,27.155,27.083,7.371,6.18,5.071
1886,0.859,37.503,5.808,27.193,27.093,7.533,6.261,5.193
1887,0.853,37.216,5.823,27.156,27.093,7.494,6.221,5.194
1888,0.856,37.3,5.823,27.174,27.104,7.534,6.342,5.194
1889,0.859,37.425,5.812,27.155,27.097,7.494,6.181,5.112
1890,0.849,37.503,5.792,27.136,27.079,7.412,6.098,5.071
1891,0.859,37.226,5.804,27.174,27.1,7.574,6.26,5.111
1892,0.856,37.329,5.804,27.175,27.093,7.657,6.221,5.112
1893,0.853,37.426,5.815,27.175,27.093,7.658,6.261,5.112
1894,0.862,37.522,5.804,27.165,27.093,7.698,6.18,5.071
1895,0.843,37.169,5.796,27.146,27.076,7.658,6.179,4.989
1896,0.853,37.338,5.808,27.184,27.093,7.82,6.301,5.192
1897,0.853,37.464,5.816,27.175,27.09,7.863,6.18,5.112
1898,0.853,37.494,5.827,27.175,27.093,7.782,6.22,5.193
1899,0.859,37.216,5.808,27.184,27.093,7.781,6.18,5.072
1900,0.856,37.338,5.808,27.136,27.086,7.7,6.098,5.03
1901,0.862,37.464,5.812,27.184,27.1,7.943,6.26,5.07
1902,0.862,37.494,5.812,27.184,27.093,7.905,6.302,5.111
1903,0.862,37.216,5.831,27.165,27.1,7.945,6.262,5.112
1904,0.862,37.367,5.808,27.174,27.09,7.864,6.139,5.112
1905,0.859,37.426,5.796,27.146,27.086,7.822,6.057,5.03
1906,0.882,37.494,5.815,27.193,27.097,7.944,6.259,5.192
1907,0.872,37.178,5.823,27.165,27.093,7.945,6.221,5.153
1908,0.856,37.299,5.827,27.165,27.1,7.905,6.261,5.193
1909,0.859,37.406,5.82,27.165,27.09,7.863,6.139,5.072
1910,0.846,37.273,5.8,27.146,27.086,7.741,6.057,5.03
1911,0.875,37.339,5.8,27.184,27.1,7.862,6.259,5.151
1912,0.869,37.445,5.808,27.175,27.093,7.822,6.18,5.153
1913,0.863,37.532,5.831,27.175,27.093,7.741,6.179,5.153
1914,0.872,37.006,5.812,27.155,27.093,7.781,6.098,4.99
1915,0.853,37.106,5.812,27.184,27.083,7.618,6.097,5.029
1916,0.872,37.251,5.816,27.184,27.093,7.739,6.178,5.151
1917,0.872,37.339,5.82,27.155,27.093,7.577,6.139,5.112
1918,0.872,37.128,5.823,27.174,27.097,7.698,6.219,5.152
1919,0.872,37.261,5.827,27.165,27.093,7.618,6.139,5.071
1920,0.866,37.358,5.82,27.146,27.086,7.535,6.057,5.03
1921,0.889,37.474,5.823,27.184,27.093,7.616,6.137,5.111
1922,0.882,36.842,5.823,27.184,27.097,7.657,6.219,5.234
1923,0.885,36.97,5.823,27.175,27.093,7.698,6.139,5.194
1924,0.879,37.086,5.827,27.165,27.093,7.78,6.138,5.072
1925,0.872,37.136,5.792,27.146,27.086,7.822,6.057,5.07
1926,0.879,37.04,5.823,27.203,27.097,8.025,6.219,5.111
1927,0.872,37.135,5.808,27.175,27.09,8.149,6.139,5.071
1928,0.879,37.232,5.804,27.184,27.086,8.232,6.26,5.111
1929,0.879,37.29,5.819,27.146,27.149,8.273,6.221,5.112
1930,0.882,36.764,5.792,27.136,27.08,8.355,6.139,4.989
1931,0.882,36.94,5.815,27.193,27.093,8.559,6.382,5.151
1932,0.872,37.029,5.808,27.175,27.093,8.683,6.303,5.153
1933,0.859,37.471,5.808,27.165,27.09,8.725,6.384,5.153
1934,0.869,36.948,5.823,27.155,27.093,8.726,6.303,5.071
1935,0.856,37.048,5.8,27.136,27.079,8.766,6.262,4.989
1936,0.872,37.183,5.823,27.184,27.096,8.929,6.384,5.11
1937,0.863,36.935,5.82,27.175,27.097,8.931,6.385,5.03
1938,0.872,36.99,5.823,27.194,27.086,8.89,6.425,5.151
1939,0.872,37.077,5.816,27.165,27.093,8.93,6.385,5.031
1940,0.872,37.155,5.808,27.155,27.076,8.809,6.344,5.07
1941,0.889,36.791,5.808,27.174,27.103,8.93,6.547,5.274
1942,0.885,36.902,5.792,27.175,27.093,8.931,6.549,5.113
1943,0.882,37.028,5.808,27.175,27.097,8.89,6.468,5.112
1944,0.885,37.077,5.816,27.165,27.093,8.849,6.426,5.112
1945,0.872,36.79,5.808,27.136,27.079,8.767,6.426,4.989
1946,0.889,36.941,5.819,27.193,27.093,8.929,6.588,5.11
1947,0.899,37.067,5.808,27.184,27.093,8.809,6.509,5.152
1948,0.869,37.107,5.808,27.165,27.097,8.767,6.549,5.153
1949,0.879,36.771,5.812,27.165,27.093,8.685,6.508,5.071
1950,0.869,36.873,5.804,27.136,27.079,8.603,6.386,5.03
1951,0.889,37.038,5.815,27.222,27.096,8.765,6.507,5.151
1952,0.876,37.087,5.816,27.175,27.09,8.767,6.549,5.112
1953,0.869,36.781,5.8,27.175,27.09,8.767,6.549,5.112
1954,0.872,36.941,5.843,27.146,27.086,8.767,6.468,4.989
1955,0.879,37.019,5.82,27.146,27.083,8.685,6.467,4.948
1956,0.879,37.077,5.831,27.222,27.097,8.928,6.548,5.191
1957,0.876,36.637,5.82,27.185,27.097,8.931,6.549,5.153
1958,0.872,36.767,5.796,27.175,27.097,9.053,6.468,5.153
1959,0.859,36.854,5.835,27.175,27.086,9.135,6.426,5.031
1960,0.862,37.095,5.824,27.155,27.097,9.095,6.304,5.03
1961,0.872,36.867,5.812,27.193,27.097,9.42,6.425,5.07
1962,0.872,36.989,5.812,27.175,27.09,9.424,6.466,5.111
1963,0.872,37.067,5.796,27.165,27.093,9.464,6.467,5.152
1964,0.872,36.665,5.808,27.155,27.079,9.465,6.467,5.071
1965,0.866,36.69,5.804,27.165,27.086,9.465,6.345,5.03
1966,0.879,36.834,5.792,27.184,27.097,9.587,6.466,5.07
1967,0.879,36.932,5.808,27.165,27.086,9.669,6.467,5.03
1968,0.872,36.607,5.804,27.165,27.093,9.589,6.345,5.111
1969,0.872,36.747,5.823,27.174,27.086,9.588,6.466,5.112
1970,0.869,36.864,5.808,27.146,27.086,9.425,6.264,4.989
1971,0.872,36.932,5.816,27.184,27.086,9.586,6.424,5.151
1972,0.869,36.779,5.808,27.175,27.097,9.547,6.426,5.112
1973,0.866,36.912,5.792,27.175,27.086,9.425,6.385,5.071
1974,0.859,37.038,5.808,27.165,27.086,9.424,6.344,5.03
1975,0.866,37.078,5.831,27.165,27.086,9.383,6.303,5.03
1976,0.862,36.694,5.824,27.174,27.097,9.423,6.506,5.151
1977,0.869,36.853,5.812,27.165,27.093,9.261,6.427,5.071
1978,0.863,36.951,5.796,27.155,27.086,9.219,6.385,5.03
1979,0.866,36.99,5.808,27.174,27.09,9.096,6.344,5.03
1980,0.862,36.856,5.816,27.155,27.093,8.973,6.221,4.989
1981,0.869,36.961,5.82,27.174,27.086,9.013,6.383,5.151
1982,0.885,37.115,5.823,27.194,27.093,8.932,6.385,5.071
1983,0.859,37.097,5.8,27.156,27.09,8.768,6.303,4.989
1984,0.862,36.819,5.819,27.165,27.104,8.807,6.302,5.11
1985,0.856,36.941,5.816,27.165,27.09,8.645,6.221,4.989
1986,0.866,37.057,5.823,27.184,27.1,8.725,6.383,5.151
1987,0.872,37.059,5.835,27.184,27.097,8.603,6.263,5.112
1988,0.853,36.78,5.816,27.136,27.083,8.44,6.18,4.989
1989,0.862,36.902,5.812,27.145,27.093,8.479,6.22,5.11
1990,0.859,37.019,5.823,27.174,27.086,8.52,6.139,4.989
1991,0.862,37.02,5.823,27.165,27.097,8.642,6.382,5.11
1992,0.866,37.144,5.823,27.194,27.1,8.684,6.344,5.071
1993,0.856,37.213,5.812,27.146,27.083,8.603,6.14,4.989
1994,0.856,37.329,5.804,27.146,27.093,8.684,6.219,5.029
1995,0.862,36.563,5.815,27.155,27.09,8.725,6.139,4.989
1996,0.853,36.699,5.831,27.184,27.11,8.929,6.301,5.07
1997,0.862,36.825,5.816,27.194,27.097,8.972,6.262,5.111
1998,0.84,36.864,5.796,27.146,27.086,8.891,6.139,4.949
1999,0.843,36.836,5.792,27.165,27.1,8.971,6.219,5.029
2000,0.856,36.98,5.831,27.165,27.093,9.013,6.22,5.07
2001,0.853,37.096,5.812,27.165,27.1,8.972,6.261,5.111
2002,0.862,37.184,5.819,27.194,27.1,8.972,6.262,5.112
2003,0.849,36.657,5.804,27.165,27.083,8.931,6.139,4.989
2004,0.856,36.796,5.796,27.174,27.093,8.972,6.179,5.11
2005,0.859,36.931,5.823,27.165,27.09,8.891,6.22,5.071
2006,0.862,36.961,5.835,27.165,27.1,8.89,6.302,5.111
2007,0.869,36.847,5.82,27.184,27.097,8.89,6.262,5.112
2008,0.84,36.932,5.788,27.155,27.104,8.768,6.18,4.989
2009,0.856,37.067,5.792,27.165,27.097,8.767,6.261,5.07
2010,0.853,37.078,5.815,27.146,27.09,8.685,6.18,4.989
2011,0.853,36.752,5.823,27.174,27.093,8.684,6.342,5.07
2012,0.859,36.892,5.82,27.175,27.093,8.684,6.343,5.07
2013,0.833,36.971,5.808,27.165,27.093,8.603,6.303,5.07
2014,0.839,36.943,5.812,27.146,27.097,8.602,6.302,4.989
2015,0.843,36.827,5.808,27.146,27.093,8.48,6.221,4.907
2016,0.843,36.951,5.847,27.174,27.097,8.52,6.383,5.069
2017,0.853,37.057,5.816,27.165,27.093,8.52,6.344,5.07
2018,0.849,36.742,5.823,27.146,27.09,8.398,6.303,5.07
2019,0.843,36.844,5.808,27.165,27.093,8.397,6.343,5.111
2020,0.862,36.941,5.808,27.136,27.09,8.316,6.384,4.949
2021,0.853,37.048,5.808,27.174,27.09,8.437,6.466,5.11
2022,0.862,36.79,5.816,27.175,27.093,8.438,6.386,5.03
2023,0.849,36.893,5.792,27.155,27.093,8.397,6.344,5.03
2024,0.846,37.038,5.792,27.136,27.086,8.438,6.303,4.989
2025,0.856,37.106,5.815,27.165,27.093,8.479,6.384,5.029
2026,0.846,36.81,5.816,27.165,27.093,8.642,6.425,5.111
2027,0.862,36.979,5.823,27.194,27.107,8.644,6.466,5.152
2028,0.843,37.058,5.816,27.184,27.093,8.562,6.386,5.031
2029,0.843,37.116,5.804,27.146,27.086,8.602,6.344,5.111
2030,0.846,36.934,5.819,27.165,27.097,8.643,6.425,5.03
2031,0.84,37.038,5.831,27.146,27.093,8.684,6.426,5.07
2032,0.846,37.173,5.831,27.184,27.107,8.766,6.548,5.152
2033,0.833,37.204,5.808,27.146,27.09,8.604,6.386,4.99
2034,0.846,36.676,5.812,27.155,27.086,8.684,6.344,5.029
2035,0.846,36.805,5.812,27.165,27.097,8.684,6.384,5.03
2036,0.836,36.903,5.816,27.136,27.1,8.725,6.385,5.07
2037,0.846,36.952,5.843,27.193,27.104,8.848,6.507,5.152
2038,0.83,36.703,5.816,27.156,27.086,8.605,6.305,5.031
2039,0.843,36.834,5.808,27.155,27.093,8.643,6.384,5.07
2040,0.859,36.951,5.819,27.174,27.093,8.644,6.344,5.111
2041,0.84,36.808,5.827,27.175,27.09,8.644,6.384,5.112
2042,0.852,36.778,5.847,27.194,27.107,8.725,6.507,5.193
2043,0.84,36.883,5.789,27.136,27.09,8.522,6.223,4.99
2044,0.843,36.98,5.811,27.155,27.11,8.561,6.342,5.151
2045,0.849,36.77,5.812,27.174,27.104,8.521,6.384,5.153
2046,0.843,36.873,5.835,27.175,27.093,8.52,6.303,5.153
2047,0.846,37.028,5.831,27.194,27.107,8.601,6.506,5.234
2048,0.843,37.058,5.816,27.146,27.09,8.399,6.264,5.072
2049,0.833,36.627,5.8,27.136,27.097,8.316,6.384,5.03
2050,0.836,36.757,5.815,27.165,27.093,8.396,6.385,5.07
2051,0.833,36.893,5.82,27.165,27.097,8.316,6.303,5.07
2052,0.846,36.98,5.839,27.184,27.104,8.437,6.506,5.193
2053,0.836,36.655,5.796,27.155,27.083,8.153,6.264,4.99
2054,0.833,36.796,5.8,27.165,27.093,8.15,6.384,5.11
2055,0.846,36.941,5.812,27.165,27.097,8.11,6.385,5.112
2056,0.833,37.0,5.8,27.165,27.097,8.15,6.303,5.071
2057,0.833,36.674,5.835,27.174,27.104,8.191,6.506,5.152
2058,0.839,36.786,5.827,27.146,27.09,7.948,6.305,4.99
2059,0.826,36.902,5.82,27.136,27.09,7.986,6.343,5.029
2060,0.849,36.952,5.827,27.174,27.09,7.946,6.466,5.111
2061,0.843,36.751,5.82,27.155,27.097,7.905,6.548,5.071
2062,0.839,36.883,5.831,27.165,27.093,7.945,6.508,5.111
2063,0.849,36.98,5.831,27.165,27.097,7.742,6.427,5.112
2064,0.84,36.991,5.816,27.174,27.083,7.659,6.385,5.071
2065,0.856,57.252,5.823,27.194,27.1,7.82,6.629,5.193
2066,0.849,57.313,5.816,27.175,27.097,7.7,6.55,5.194
2067,0.836,57.177,5.827,27.165,27.093,7.658,6.63,5.153
2068,0.843,37.288,5.824,27.146,27.093,7.576,6.55,5.031
2069,0.839,28.103,5.8,27.126,27.083,7.413,6.427,4.907
2070,0.852,28.396,5.796,27.164,27.097,7.574,6.67,5.069
2071,0.836,28.639,5.808,27.155,27.093,7.535,6.55,5.07
2072,0.83,38.595,5.823,27.146,27.09,7.453,6.508,5.07
2073,0.83,39.472,5.839,27.165,27.093,7.452,6.508,4.989
2074,0.833,39.576,5.8,27.127,27.086,7.452,6.427,4.988
2075,0.839,39.654,5.812,27.155,27.107,7.493,6.588,5.11
2076,0.839,34.985,5.788,27.136,27.1,7.575,6.549,5.112
2077,0.836,35.052,5.808,27.155,27.086,7.454,6.549,5.112
2078,0.83,35.197,5.831,27.136,27.09,7.493,6.468,5.03
2079,0.839,35.285,5.8,27.155,27.083,7.494,6.426,4.948
2080,0.852,36.772,5.808,27.165,27.103,7.697,6.588,5.15
2081,0.856,36.941,5.816,27.146,27.093,7.699,6.549,5.071
2082,0.853,37.009,5.823,27.136,27.093,7.699,6.468,5.03
2083,0.853,37.077,5.827,27.145,27.097,7.74,6.507,5.07
2084,0.856,36.177,5.796,27.165,27.086,7.781,6.549,4.989
2085,0.869,36.33,5.819,27.165,27.097,7.903,6.63,5.151
2086,0.866,36.447,5.812,27.165,27.093,7.945,6.55,5.153
2087,0.853,36.467,5.812,27.146,27.1,7.823,6.427,5.071
2088,0.866,36.477,5.823,27.155,27.097,7.944,6.466,5.03
2089,0.882,36.621,5.808,27.155,27.083,7.945,6.386,4.948
2090,0.882,36.747,5.816,27.222,27.1,8.108,6.669,5.069
2091,0.902,36.758,5.8,27.175,27.093,7.987,6.55,5.07
2092,0.886,36.327,5.8,27.127,27.097,7.946,6.468,5.03
2093,0.898,36.466,5.819,27.164,27.093,7.986,6.507,5.03
2094,0.912,36.554,5.808,27.146,27.086,7.905,6.305,4.989
2095,0.895,36.401,5.816,27.174,27.093,7.985,6.465,5.11
2096,0.931,36.429,5.816,27.165,27.093,7.986,6.467,4.949
2097,0.915,36.515,5.808,27.174,27.086,7.783,6.386,4.988
2098,0.931,36.631,5.827,27.165,27.09,7.862,6.425,5.029
2099,0.938,36.23,5.824,27.155,27.142,7.863,6.385,4.989
2100,0.938,36.36,5.777,27.174,27.09,7.863,6.547,5.11
2101,0.948,36.495,5.815,27.155,27.097,7.863,6.468,5.071
2102,0.945,36.545,5.792,27.155,27.093,7.782,6.426,5.07
2103,0.951,36.2,5.815,27.155,27.093,7.781,6.385,4.989
2104,0.967,36.321,5.827,27.165,27.086,7.659,6.263,4.988
2105,0.974,36.457,5.804,27.184,27.097,7.698,6.384,5.151
2106,0.968,36.535,5.808,27.146,27.1,7.699,6.303,5.112
2107,0.958,36.257,5.792,27.146,27.093,7.618,6.302,5.071
2108,0.961,36.408,5.796,27.155,27.093,7.657,6.302,4.989
2109,0.971,36.515,5.808,27.136,27.086,7.576,6.221,4.907
2110,0.977,36.602,5.808,27.165,27.09,7.616,6.383,5.15
2111,0.984,36.249,5.808,27.146,27.1,7.576,6.385,5.071
2112,0.974,36.37,5.796,27.146,27.09,7.535,6.303,5.07
2113,0.984,36.496,5.815,27.136,27.097,7.412,6.384,5.07
2114,0.978,36.516,5.827,27.126,27.083,7.33,6.263,4.867
2115,0.99,36.315,5.804,27.174,27.093,7.532,6.465,5.068
2116,0.987,36.418,5.823,27.175,27.097,7.453,6.426,4.989
2117,1.004,36.506,5.788,27.146,27.093,7.412,6.385,5.07
2118,1.007,36.948,5.8,27.155,27.097,7.33,6.385,5.03
2119,0.994,36.3,5.819,27.126,27.079,7.289,6.222,4.948
2120,1.004,36.466,5.831,27.174,27.093,7.41,6.464,5.15
2121,1.007,36.554,5.82,27.146,27.093,7.371,6.386,5.112
2122,1.004,36.286,5.788,27.146,27.083,7.289,6.425,5.071
2123,0.997,36.312,5.811,27.146,27.093,7.41,6.385,5.111
2124,0.991,36.437,5.816,27.136,27.083,7.289,6.263,5.03
2125,0.987,36.535,5.823,27.165,27.093,7.451,6.424,5.07
2126,0.987,36.382,5.831,27.155,27.093,7.371,6.385,5.07
2127,0.978,36.486,5.808,27.146,27.093,7.411,6.385,5.03
2128,0.99,36.593,5.812,27.146,27.093,7.452,6.344,4.989
2129,0.991,36.651,5.816,27.126,27.079,7.371,6.221,4.948
2130,1.0,36.201,5.843,27.164,27.103,7.492,6.342,5.029
2131,1.007,36.302,5.812,27.165,27.09,7.453,6.343,5.111
2132,1.004,36.428,5.808,27.146,27.083,7.452,6.303,5.112
2133,1.0,36.496,5.812,27.165,27.09,7.493,6.221,5.071
2134,1.01,36.171,5.827,27.117,27.083,7.412,6.22,4.989
2135,1.017,36.33,5.839,27.164,27.097,7.615,6.383,5.029
2136,1.01,36.457,5.808,27.146,27.1,7.576,6.303,5.03
2137,1.007,36.487,5.796,27.136,27.09,7.616,6.302,5.07
2138,1.01,36.525,5.792,27.126,27.093,7.617,6.302,4.989
2139,1.01,36.641,5.815,27.126,27.083,7.576,6.221,4.866
2140,0.994,36.748,5.831,27.155,27.103,7.657,6.342,5.15
2141,0.994,36.787,5.808,27.155,27.093,7.698,6.343,5.071
2142,0.987,36.039,5.784,27.146,27.1,7.618,6.343,5.03
2143,0.984,36.176,5.796,27.165,27.09,7.657,6.262,5.07
2144,0.987,36.273,5.808,27.136,27.083,7.576,6.221,5.07
2145,0.987,36.629,5.827,27.174,27.1,7.738,6.424,5.152
2146,0.978,36.162,5.82,27.175,27.086,7.618,6.263,5.031
2147,0.971,36.254,5.816,27.136,27.093,7.617,6.262,5.03
2148,0.961,36.389,5.8,27.126,27.093,7.576,6.302,5.03
2149,0.935,36.112,5.812,27.145,27.09,7.535,6.262,4.948
2150,0.922,36.167,5.812,27.174,27.097,7.657,6.343,5.15
2151,0.931,36.33,5.812,27.165,27.093,7.617,6.262,5.031
2152,0.899,36.37,5.812,27.127,27.086,7.535,6.18,5.03
2153,0.899,36.093,5.804,27.136,27.09,7.494,6.301,5.03
2154,0.889,36.215,5.835,27.145,27.097,7.575,6.262,4.907
2155,0.879,36.35,5.851,27.165,27.1,7.616,6.221,5.028
2156,0.892,36.467,5.832,27.165,27.093,7.657,6.302,5.03
2157,0.876,36.199,5.808,27.174,27.086,7.536,6.221,4.989
2158,0.872,36.35,5.796,27.146,27.093,7.697,6.261,5.07
2159,0.866,36.486,5.815,27.136,27.086,7.699,6.221,5.03
2160,0.856,36.535,5.816,27.165,27.093,7.74,6.261,5.07
2161,0.866,36.19,5.827,27.184,27.097,7.821,6.302,5.111
2162,0.846,36.273,5.808,27.155,27.09,7.781,6.18,4.949
2163,0.866,36.427,5.819,27.155,27.09,7.862,6.22,5.029
2164,0.849,36.477,5.812,27.165,27.097,7.904,6.22,5.03
2165,0.843,35.988,5.816,27.165,27.086,7.863,6.261,5.151
2166,0.849,36.146,5.823,27.203,27.107,8.026,6.343,5.153
2167,0.827,36.225,5.788,27.146,27.086,7.905,6.181,4.99
2168,0.823,36.274,5.808,27.165,27.09,7.904,6.098,5.07
2169,0.83,36.379,5.816,27.165,27.093,7.945,6.26,4.908
2170,0.817,36.515,5.823,27.165,27.09,7.945,6.302,5.069
2171,0.829,36.631,5.839,27.174,27.107,8.026,6.302,5.07
2172,0.797,37.054,5.824,27.136,27.079,7.987,6.18,4.989
2173,0.803,37.27,5.8,27.155,27.093,7.986,6.22,5.029
2174,0.813,37.396,5.808,27.146,27.093,8.027,6.22,4.989
2175,0.803,37.455,5.812,27.146,27.093,8.068,6.302,5.029
2176,0.794,35.576,5.831,27.184,27.107,8.109,6.343,5.03
2177,0.774,35.375,5.808,27.136,27.083,7.947,6.14,4.948
2178,0.787,35.536,5.812,27.155,27.097,7.986,6.179,5.029
2179,0.787,35.624,5.808,27.155,27.1,7.986,6.22,5.111
2180,0.793,36.143,5.808,27.146,27.093,8.027,6.261,5.03
2181,0.8,36.301,5.831,27.174,27.107,8.109,6.384,5.151
2182,0.797,36.38,5.816,27.136,27.079,7.947,6.1,4.949
2183,0.8,36.486,5.816,27.136,27.093,7.986,6.178,5.029
2184,0.8,35.825,5.796,27.165,27.086,7.986,6.261,5.111
2185,0.794,35.953,5.811,27.165,27.097,8.027,6.221,5.071
2186,0.806,36.079,5.835,27.194,27.104,8.068,6.342,5.152
2187,0.797,36.138,5.812,27.136,27.083,7.987,6.181,4.99
2188,0.794,36.033,5.808,27.136,27.093,7.986,6.301,5.029
2189,0.803,36.185,5.804,27.165,27.1,8.068,6.221,5.07
2190,0.787,36.283,5.804,27.146,27.107,7.946,6.342,4.989
2191,0.784,36.341,5.835,27.165,27.1,8.067,6.466,5.192
2192,0.767,35.977,5.831,27.127,27.086,7.865,6.223,4.99
2193,0.774,36.108,5.831,27.164,27.09,7.944,6.302,5.07
2194,0.777,36.234,5.812,27.165,27.1,8.026,6.302,5.03
2195,0.774,36.264,5.808,27.146,27.097,8.027,6.302,4.989
2196,0.774,36.053,5.843,27.184,27.1,8.109,6.425,5.192
2197,0.774,36.166,5.835,27.127,27.097,7.947,6.222,4.95
2198,0.767,36.254,5.788,27.145,27.086,8.026,6.261,5.069
2199,0.787,36.264,5.811,27.146,27.093,8.109,6.302,5.152
2200,0.78,36.092,5.819,27.155,27.093,8.028,6.262,5.031
2201,0.79,36.263,5.827,27.193,27.107,8.19,6.424,5.233
2202,0.787,36.322,5.816,27.146,27.086,8.07,6.222,5.032
2203,0.787,36.016,5.8,27.146,27.086,8.028,6.302,5.07
2204,0.787,36.118,5.808,27.155,27.09,8.109,6.302,5.03
2205,0.787,36.234,5.796,27.146,27.093,8.028,6.343,5.111
2206,0.793,36.341,5.827,27.174,27.1,8.109,6.343,5.234
2207,0.784,35.929,5.824,27.146,27.093,7.947,6.221,4.991
2208,0.78,36.06,5.812,27.146,27.093,7.986,6.22,5.07
