time,ecg,bvp,gsr,rsp,skt,emg_zygo,emg_coru,emg_trap
0,0.468,35.972,27.318,30.572,24.106,17.639,9.999,5.81
1,0.497,36.06,27.357,30.582,24.106,17.556,10.08,5.769
2,0.504,36.607,27.373,30.553,24.103,17.392,9.999,5.728
3,0.527,36.757,27.327,30.572,24.11,17.269,10.039,5.85
4,0.531,36.845,27.287,30.553,24.11,16.983,9.877,5.769
5,0.544,36.941,27.279,30.572,24.11,16.818,9.794,5.809
6,0.563,35.303,27.349,30.61,24.12,16.938,9.956,5.891
7,0.56,35.372,27.248,30.582,24.106,16.695,9.714,5.811
8,0.602,35.517,27.298,30.572,24.106,16.855,9.711,5.81
9,0.619,35.576,27.334,30.572,24.106,17.02,9.589,5.769
10,0.652,35.883,27.357,30.591,24.11,17.306,9.629,5.85
11,0.655,36.011,27.35,30.572,24.106,17.349,9.548,5.729
12,0.672,36.147,27.291,30.591,24.113,17.634,9.628,5.89
13,0.682,36.196,27.213,30.591,24.11,17.8,9.629,5.933
14,0.701,35.602,27.259,30.553,24.103,17.761,9.588,5.689
15,0.721,35.778,27.341,30.581,24.117,18.086,9.913,5.89
16,0.721,35.885,27.28,30.572,24.11,18.089,9.957,5.811
17,0.734,35.915,27.279,30.562,24.11,18.089,10.08,5.81
18,0.734,35.839,27.302,30.572,24.103,18.008,10.121,5.85
19,0.744,35.982,27.345,30.601,24.106,17.966,10.244,5.891
20,0.754,36.07,27.33,30.572,24.096,17.722,10.286,5.811
21,0.764,36.119,27.24,30.591,24.11,17.679,10.449,5.891
22,0.774,35.918,27.204,30.62,24.12,17.597,10.654,6.014
23,0.764,35.973,27.266,30.553,24.103,17.149,10.493,5.852
24,0.787,36.098,27.302,30.591,24.106,17.104,10.614,5.851
25,0.784,35.649,27.345,30.591,24.11,16.9,10.615,5.851
26,0.79,35.692,27.322,30.63,24.106,16.695,10.737,5.932
27,0.78,35.808,27.299,30.582,24.103,16.449,10.697,5.811
28,0.793,35.934,27.361,30.601,24.11,16.365,10.737,5.972
29,0.797,35.734,27.33,30.582,24.103,16.039,10.738,5.893
30,0.79,35.866,27.24,30.572,24.106,15.832,10.697,5.77
31,0.806,36.03,27.302,30.61,24.12,15.83,10.9,5.972
32,0.787,36.089,27.279,30.582,24.113,15.708,10.861,5.893
33,0.797,35.658,27.294,30.601,24.11,15.585,10.78,5.973
34,0.777,35.779,27.349,30.572,24.106,15.503,10.738,5.893
35,0.777,35.905,27.295,30.601,24.11,15.583,10.738,5.973
36,0.774,35.983,27.271,30.591,24.106,15.421,10.697,5.852
37,0.787,35.878,27.318,30.582,24.103,15.501,10.819,5.891
38,0.787,36.049,27.346,30.62,24.127,15.542,10.861,6.054
39,0.764,36.099,27.264,30.572,24.099,15.34,10.495,5.812
40,0.764,36.196,27.271,30.582,24.113,15.419,10.532,5.891
41,0.774,35.583,27.287,30.582,24.099,15.42,10.573,5.933
42,0.784,35.749,27.291,30.61,24.11,15.379,10.451,5.892
43,0.78,35.837,27.33,30.563,24.103,15.419,10.328,5.811
44,0.8,35.915,27.35,30.61,24.106,15.46,10.368,5.891
45,0.774,35.753,27.311,30.611,24.11,15.42,10.328,5.851
46,0.8,35.885,27.267,30.572,24.099,15.501,10.083,5.81
47,0.813,36.03,27.326,30.62,24.117,15.786,10.203,5.972
48,0.816,36.022,27.307,30.582,24.106,15.667,10.082,5.893
49,0.81,35.744,27.31,30.61,24.103,15.788,9.999,5.892
50,0.81,35.866,27.275,30.601,24.106,15.87,9.917,5.851
51,0.803,35.973,27.322,30.601,24.12,15.953,9.916,5.973
52,0.797,35.868,27.338,30.582,24.106,15.913,9.916,5.852
53,0.8,35.819,27.369,30.601,24.117,16.034,9.998,5.973
54,0.81,35.943,27.331,30.639,24.12,16.117,10.324,6.015
55,0.774,35.993,27.291,30.573,24.099,15.915,10.205,5.812
56,0.78,35.705,27.31,30.601,24.113,15.953,10.448,5.932
57,0.79,35.77,27.342,30.601,24.11,15.913,10.613,5.892
58,0.784,35.895,27.248,30.611,24.113,15.912,10.859,5.933
59,0.764,35.992,27.286,30.601,24.099,15.79,10.902,5.811
60,0.787,35.734,27.306,30.611,24.11,15.992,11.146,5.972
61,0.797,35.827,27.334,30.592,24.092,15.954,11.189,5.893
62,0.794,35.963,27.338,30.572,24.092,15.913,11.108,5.77
63,0.8,36.079,27.365,30.639,24.106,16.034,11.311,5.891
64,0.807,35.716,27.272,30.611,24.103,15.873,11.272,5.892
65,0.81,35.856,27.279,30.611,24.103,15.79,11.312,5.892
66,0.803,35.953,27.357,30.601,24.11,15.627,11.191,5.811
67,0.813,36.041,27.295,30.601,24.11,15.625,11.189,5.891
68,0.807,35.687,27.291,30.572,24.103,15.422,11.068,5.77
69,0.813,35.837,27.291,30.562,24.11,15.42,11.026,5.768
70,0.833,35.992,27.345,30.629,24.131,15.42,11.229,6.013
71,0.807,36.003,27.35,30.582,24.106,15.257,11.068,5.852
72,0.813,35.801,27.283,30.591,24.106,15.337,11.066,5.851
73,0.8,35.924,27.24,30.582,24.106,15.46,11.066,5.81
74,0.787,36.04,27.286,30.61,24.113,15.583,11.188,5.891
75,0.784,36.061,27.287,30.582,24.106,15.543,11.108,5.77
76,0.787,35.792,27.341,30.591,24.106,15.583,11.311,5.931
77,0.793,35.943,27.303,30.63,24.11,15.625,11.394,5.892
78,0.767,36.002,27.283,30.563,24.106,15.422,11.151,5.77
79,0.783,36.415,27.334,30.61,24.11,15.501,11.393,5.85
80,0.784,35.681,27.365,30.592,24.106,15.461,11.517,5.81
81,0.784,35.817,27.311,30.601,24.11,15.501,11.559,5.932
82,0.793,35.905,27.24,30.572,24.106,15.542,11.6,5.77
83,0.81,35.772,27.22,30.61,24.117,15.624,11.803,5.809
84,0.8,35.761,27.235,30.572,24.099,15.584,11.765,5.81
85,0.813,35.933,27.314,30.582,24.113,15.747,11.805,5.85
86,0.813,36.031,27.283,30.62,24.12,15.992,12.009,5.932
87,0.797,35.62,27.275,30.563,24.103,15.832,11.726,5.73
88,0.81,35.74,27.306,30.572,24.106,16.074,11.764,5.85
89,0.833,35.866,27.353,30.591,24.113,16.239,11.724,5.81
90,0.82,35.963,27.338,30.582,24.11,16.444,11.723,5.85
91,0.797,35.734,27.237,30.582,24.106,16.731,11.561,5.688
92,0.81,35.895,27.263,30.62,24.106,16.896,11.6,5.809
93,0.823,36.011,27.283,30.582,24.103,17.02,11.519,5.769
94,0.807,36.08,27.291,30.582,24.099,17.103,11.315,5.687
95,0.803,35.773,27.357,30.61,24.12,17.225,11.313,5.89
96,0.8,35.885,27.334,30.62,24.103,17.145,11.232,5.77
97,0.8,36.011,27.287,30.572,24.113,17.104,11.068,5.768
98,0.803,36.07,27.326,30.582,24.106,16.859,10.985,5.728
99,0.807,35.62,27.326,30.582,24.11,16.776,10.944,5.85
100,0.79,35.74,27.233,30.553,24.103,16.531,10.74,5.648
101,0.806,35.875,27.278,30.591,24.117,16.447,10.697,5.767
102,0.816,35.934,27.271,30.591,24.117,16.324,10.656,5.809
103,0.8,35.801,27.283,30.543,24.099,15.917,10.412,5.606
104,0.82,35.953,27.334,30.572,24.106,15.953,10.45,5.726
105,0.82,36.079,27.307,30.572,24.106,15.831,10.45,5.727
106,0.826,36.109,27.283,30.582,24.106,15.912,10.491,5.809
107,0.826,35.802,27.291,30.563,24.103,15.831,10.573,5.647
108,0.83,35.934,27.353,30.591,24.113,16.074,10.655,5.767
109,0.833,36.031,27.256,30.543,24.103,16.036,10.778,5.647
110,0.826,36.022,27.271,30.572,24.103,15.995,10.779,5.645
111,0.846,35.821,27.275,30.62,24.124,16.117,10.982,5.808
112,0.836,35.924,27.31,30.563,24.106,15.996,10.903,5.728
113,0.836,36.012,27.334,30.582,24.113,15.872,10.983,5.687
114,0.826,35.696,27.346,30.563,24.106,15.912,10.903,5.646
115,0.82,35.741,27.264,30.591,24.117,15.79,10.943,5.727
116,0.81,35.866,27.283,30.572,24.103,15.708,10.862,5.687
117,0.813,35.973,27.337,30.582,24.11,15.666,10.942,5.687
118,0.813,35.657,27.322,30.591,24.113,15.788,11.024,5.89
119,0.79,35.721,27.271,30.553,24.096,15.423,10.822,5.607
120,0.806,35.875,27.279,30.572,24.106,15.42,10.779,5.726
121,0.823,35.944,27.294,30.572,24.11,15.379,10.738,5.727
122,0.813,35.628,27.357,30.582,24.11,15.338,10.738,5.727
123,0.81,35.73,27.342,30.553,24.106,15.215,10.616,5.646
124,0.823,35.895,27.319,30.581,24.113,15.174,10.615,5.767
125,0.82,35.963,27.264,30.572,24.103,15.092,10.574,5.647
126,0.836,35.696,27.275,30.543,24.099,14.928,10.451,5.605
127,0.849,35.885,27.326,30.6,24.117,15.089,10.491,5.808
128,0.833,35.963,27.162,30.572,24.106,15.05,10.329,5.647
129,0.833,36.041,27.27,30.572,24.113,15.172,10.368,5.686
130,0.846,35.955,27.283,30.553,24.103,15.417,10.246,5.687
131,0.84,36.108,27.341,30.562,24.11,15.582,10.367,5.727
132,0.83,36.196,27.346,30.562,24.106,15.747,10.368,5.646
133,0.833,36.244,27.334,30.591,24.11,15.992,10.571,5.686
134,0.836,35.507,27.276,30.611,24.113,16.198,10.655,5.809
135,0.817,35.576,27.271,30.544,24.096,16.078,10.534,5.606
136,0.826,35.711,27.326,30.562,24.106,16.199,10.655,5.726
137,0.82,35.741,27.24,30.543,24.113,16.2,10.656,5.687
138,0.82,35.847,27.259,30.572,24.106,16.159,10.696,5.809
139,0.813,35.963,27.29,30.553,24.099,16.037,10.737,5.688
140,0.816,36.079,27.338,30.572,24.11,16.117,10.86,5.768
141,0.82,35.831,27.319,30.543,24.106,15.955,10.739,5.687
142,0.836,35.685,27.279,30.533,24.106,15.831,10.738,5.646
143,0.865,35.856,27.236,30.6,24.127,15.993,10.9,5.808
144,0.843,35.915,27.286,30.582,24.11,15.872,10.699,5.728
145,0.849,35.59,27.33,30.563,24.106,15.993,10.697,5.768
146,0.856,35.673,27.264,30.553,24.106,16.076,10.616,5.728
147,0.849,35.836,27.298,30.572,24.113,16.28,10.655,5.809
148,0.853,35.896,27.283,30.543,24.099,16.404,10.534,5.566
149,0.869,35.637,27.326,30.572,24.113,16.608,10.492,5.766
150,0.879,35.759,27.279,30.572,24.106,16.773,10.532,5.768
151,0.84,35.876,27.213,30.524,24.103,16.694,10.288,5.606
152,0.852,35.973,27.266,30.552,24.106,16.855,10.408,5.726
153,0.833,35.619,27.263,30.562,24.11,16.776,10.369,5.727
154,0.833,35.769,27.298,30.572,24.11,16.856,10.409,5.687
155,0.836,35.847,27.326,30.534,24.099,16.816,10.247,5.646
156,0.826,35.934,27.311,30.572,24.11,16.979,10.408,5.767
157,0.852,35.647,27.295,30.572,24.113,17.061,10.247,5.728
158,0.849,35.779,27.326,30.553,24.103,17.022,10.164,5.727
159,0.846,35.933,27.322,30.591,24.12,17.224,10.366,5.768
160,0.827,35.945,27.256,30.553,24.103,17.308,10.124,5.728
161,0.833,35.647,27.298,30.553,24.106,17.431,10.244,5.727
162,0.849,35.769,27.283,30.543,24.106,17.391,10.123,5.687
163,0.849,35.895,27.341,30.572,24.117,17.554,10.203,5.727
164,0.843,35.906,27.342,30.543,24.096,17.514,10.001,5.646
165,0.866,35.666,27.268,30.572,24.106,17.717,9.958,5.727
166,0.869,35.846,27.298,30.601,24.12,17.923,10.039,5.809
167,0.859,35.886,27.314,30.534,24.099,17.843,9.877,5.688
168,0.872,36.289,27.33,30.552,24.106,18.046,9.835,5.646
169,0.872,35.756,27.213,30.543,24.099,18.089,9.794,5.645
170,0.869,35.885,27.278,30.572,24.11,18.17,9.712,5.727
171,0.866,35.963,27.255,30.534,24.103,18.009,9.67,5.646
172,0.859,35.772,27.31,30.572,24.11,18.129,9.792,5.727
173,0.859,35.78,27.326,30.553,24.11,17.967,9.915,5.768
174,0.862,35.857,27.311,30.505,24.096,17.763,9.754,5.525
175,0.853,35.992,27.295,30.552,24.103,17.842,10.037,5.685
176,0.849,35.61,27.271,30.524,24.103,17.721,10.243,5.646
177,0.843,35.73,27.341,30.552,24.11,17.638,10.408,5.727
178,0.839,35.847,27.252,30.543,24.106,17.475,10.531,5.646
179,0.843,35.953,27.294,30.533,24.11,17.554,10.777,5.686
180,0.839,35.638,27.279,30.543,24.106,17.392,10.82,5.687
181,0.843,35.769,27.318,30.533,24.099,17.269,10.942,5.646
182,0.859,35.924,27.392,30.572,24.12,17.349,11.268,5.808
183,0.856,35.954,27.339,30.524,24.106,17.065,11.19,5.647
184,0.859,35.715,27.248,30.543,24.11,16.859,11.189,5.686
185,0.856,35.875,27.271,30.533,24.103,16.735,11.149,5.646
186,0.859,36.002,27.333,30.552,24.113,16.571,11.23,5.686
187,0.859,36.051,27.287,30.533,24.103,16.447,11.068,5.646
188,0.872,35.533,27.283,30.543,24.117,16.446,11.107,5.686
189,0.879,35.682,27.291,30.533,24.113,16.487,11.148,5.809
190,0.876,35.731,27.31,30.495,24.096,16.365,10.864,5.606
191,0.869,35.837,27.361,30.533,24.11,16.73,10.902,5.686
192,0.856,35.8,27.319,30.533,24.106,16.653,10.821,5.646
193,0.856,35.934,27.283,30.514,24.106,16.855,10.739,5.767
194,0.859,36.031,27.263,30.533,24.106,17.02,10.616,5.647
195,0.856,36.099,27.259,30.533,24.113,17.224,10.737,5.686
196,0.849,35.822,27.302,30.505,24.103,17.186,10.575,5.646
197,0.849,35.963,27.279,30.591,24.11,17.348,10.655,5.645
198,0.849,36.137,27.283,30.572,24.12,17.472,10.859,5.849
199,0.84,35.995,27.295,30.515,24.103,17.229,10.698,5.607
200,0.843,35.753,27.318,30.524,24.106,17.145,10.9,5.645
201,0.839,35.876,27.31,30.524,24.11,17.145,10.943,5.645
202,0.852,35.982,27.244,30.524,24.113,16.982,11.106,5.767
203,0.84,35.801,27.169,30.514,24.103,16.858,11.067,5.606
204,0.856,35.876,27.293,30.533,24.113,16.938,11.229,5.726
205,0.866,35.992,27.33,30.524,24.11,16.98,11.231,5.727
206,0.849,36.06,27.256,30.504,24.103,16.899,11.19,5.646
207,0.869,35.869,27.279,30.543,24.113,17.101,11.393,5.849
208,0.863,35.953,27.279,30.495,24.106,17.144,11.192,5.648
209,0.872,36.069,27.345,30.504,24.11,17.104,11.23,5.727
210,0.869,36.166,27.303,30.495,24.106,16.981,11.149,5.605
211,0.866,35.899,27.228,30.514,24.11,16.899,11.149,5.726
212,0.862,36.03,27.255,30.571,24.11,16.613,10.986,5.727
213,0.869,36.176,27.286,30.534,24.12,16.692,11.106,5.809
214,0.853,36.235,27.314,30.514,24.113,16.693,11.067,5.81
215,0.833,36.053,27.334,30.495,24.096,16.449,10.741,5.606
216,0.843,36.205,27.287,30.571,24.113,16.568,10.9,5.726
217,0.836,36.321,27.256,30.495,24.11,16.61,10.861,5.727
218,0.836,36.38,27.298,30.514,24.106,16.773,11.024,5.727
219,0.83,35.882,27.287,30.495,24.106,17.059,11.229,5.687
220,0.826,36.049,27.244,30.523,24.117,17.347,11.475,5.809
221,0.817,36.157,27.255,30.533,24.106,17.553,11.64,5.769
222,0.833,36.196,27.255,30.495,24.106,17.84,11.926,5.728
223,0.852,36.35,27.31,30.533,24.12,18.371,12.376,5.89
224,0.84,36.438,27.318,30.505,24.106,18.336,12.503,5.729
225,0.83,36.554,27.35,30.514,24.113,18.579,12.788,5.687
226,0.826,36.574,27.295,30.495,24.103,18.704,12.913,5.687
227,0.843,36.104,27.283,30.514,24.11,18.908,13.118,5.727
228,0.833,36.224,27.314,30.476,24.099,18.91,13.16,5.687
229,0.843,36.36,27.275,30.504,24.11,19.032,13.323,5.768
230,0.839,36.265,27.279,30.504,24.106,19.156,13.406,5.85
231,0.826,36.178,27.244,30.456,24.096,19.035,13.204,5.648
232,0.83,36.34,27.279,30.504,24.106,19.196,13.283,5.727
233,0.8,36.428,27.322,30.495,24.11,19.076,13.203,5.727
234,0.81,36.16,27.35,30.495,24.11,19.034,13.121,5.727
235,0.787,36.225,27.221,30.495,24.103,18.871,12.876,5.687
236,0.797,36.379,27.267,30.504,24.106,18.829,12.833,5.768
237,0.794,36.448,27.314,30.485,24.113,18.503,12.67,5.687
238,0.79,36.285,27.299,30.494,24.11,18.459,12.505,5.727
239,0.79,36.447,27.291,30.552,24.12,18.296,12.585,5.89
240,0.78,36.506,27.252,30.486,24.106,17.847,12.301,5.729
241,0.793,36.612,27.29,30.494,24.113,17.721,12.217,5.687
242,0.79,36.229,27.326,30.475,24.106,17.435,12.216,5.809
243,0.8,36.36,27.338,30.485,24.106,17.31,12.257,5.769
244,0.79,36.457,27.291,30.456,24.099,16.984,12.257,5.687
245,0.8,36.564,27.287,30.504,24.106,16.858,12.379,5.809
246,0.794,36.306,27.283,30.476,24.11,16.654,12.421,5.769
247,0.787,36.437,27.314,30.485,24.099,16.286,12.3,5.647
248,0.797,36.592,27.248,30.514,24.117,16.363,12.461,5.767
249,0.787,36.622,27.286,30.485,24.106,15.998,12.341,5.687
250,0.784,36.891,27.306,30.475,24.106,15.832,12.421,5.768
251,0.774,37.028,27.334,30.466,24.106,15.586,12.259,5.728
252,0.774,37.135,27.346,30.485,24.113,15.462,12.379,5.809
253,0.764,37.136,27.315,30.456,24.103,15.176,12.258,5.688
254,0.754,36.158,27.228,30.494,24.11,14.97,12.257,5.727
255,0.761,36.311,27.282,30.514,24.12,14.846,12.379,5.85
256,0.748,36.361,27.322,30.466,24.103,14.519,11.974,5.688
257,0.751,36.802,27.26,30.485,24.113,14.557,12.051,5.727
258,0.738,36.471,27.244,30.475,24.106,14.638,11.93,5.646
259,0.751,36.612,27.282,30.485,24.106,14.761,11.888,5.767
260,0.735,36.68,27.318,30.466,24.103,14.681,11.603,5.687
261,0.744,36.412,27.342,30.494,24.113,14.884,11.641,5.768
262,0.741,36.4,27.28,30.466,24.106,14.926,11.519,5.728
263,0.738,36.505,27.244,30.456,24.103,14.927,11.396,5.605
264,0.77,36.66,27.271,30.504,24.117,15.089,11.558,5.808
265,0.757,36.45,27.287,30.466,24.106,14.969,11.478,5.728
266,0.757,36.525,27.298,30.475,24.11,14.887,11.599,5.727
267,0.748,36.67,27.287,30.475,24.106,14.764,11.56,5.605
268,0.76,36.777,27.283,30.485,24.11,14.803,11.722,5.726
269,0.761,36.5,27.326,30.437,24.103,14.519,11.642,5.646
270,0.761,36.65,27.318,30.465,24.106,14.516,11.682,5.645
271,0.761,36.786,27.26,30.504,24.12,14.475,11.845,5.808
272,0.735,36.807,27.189,30.456,24.099,14.15,11.684,5.688
273,0.751,36.366,27.258,30.456,24.11,14.106,11.642,5.727
274,0.744,36.505,27.271,30.446,24.103,14.024,11.519,5.687
275,0.734,36.631,27.349,30.465,24.103,14.023,11.518,5.646
276,0.734,36.652,27.268,30.446,24.103,14.023,11.396,5.605
277,0.741,36.527,27.287,30.475,24.113,14.105,11.436,5.645
278,0.738,36.631,27.302,30.475,24.113,14.146,11.233,5.727
279,0.731,36.728,27.342,30.437,24.096,13.984,11.109,5.565
280,0.747,36.806,27.295,30.475,24.117,14.104,11.148,5.766
281,0.741,36.596,27.22,30.466,24.106,13.983,10.986,5.647
282,0.754,36.728,27.263,30.456,24.11,13.901,10.944,5.645
283,0.741,36.816,27.248,30.456,24.106,13.778,10.821,5.686
284,0.764,36.845,27.306,30.465,24.113,13.696,10.861,5.646
285,0.764,36.5,27.291,30.446,24.099,13.451,10.617,5.564
286,0.77,36.669,27.279,30.456,24.113,13.326,10.574,5.685
287,0.793,36.796,27.275,30.485,24.12,13.406,10.614,5.809
288,0.793,36.749,27.306,30.427,24.106,13.285,10.33,5.647
289,0.793,36.557,27.271,30.446,24.103,13.406,10.408,5.605
290,0.8,36.708,27.232,30.456,24.106,13.61,10.287,5.604
291,0.803,36.806,27.278,30.465,24.113,13.938,10.408,5.645
292,0.794,36.49,27.283,30.437,24.099,14.104,10.369,5.605
293,0.803,36.564,27.322,30.446,24.113,14.512,10.571,5.686
294,0.8,36.689,27.338,30.456,24.106,14.638,10.655,5.646
295,0.797,36.748,27.279,30.418,24.099,14.761,10.574,5.564
296,0.807,36.48,27.287,30.484,24.11,15.088,10.858,5.685
297,0.803,36.573,27.295,30.437,24.106,15.172,10.942,5.605
298,0.807,36.699,27.31,30.456,24.11,15.254,10.984,5.645
299,0.787,36.758,27.283,30.446,24.106,15.377,10.944,5.605
300,0.806,36.49,27.255,30.465,24.113,15.663,11.065,5.726
301,0.816,36.602,27.263,30.437,24.099,15.829,10.904,5.605
302,0.833,36.747,27.326,30.465,24.11,16.237,11.065,5.604
303,0.833,36.825,27.33,30.446,24.113,16.648,11.066,5.726
304,0.826,36.423,27.322,30.427,24.092,16.814,10.741,5.605
305,0.849,36.582,27.283,30.446,24.113,17.304,10.9,5.686
306,0.853,36.699,27.279,30.456,24.106,17.553,10.78,5.646
307,0.859,36.748,27.33,30.437,24.11,17.88,10.779,5.686
308,0.846,36.375,27.229,30.427,24.103,17.965,10.657,5.605
309,0.866,36.524,27.239,30.436,24.11,18.128,10.615,5.645
310,0.872,36.631,27.243,30.437,24.11,18.008,10.493,5.564
311,0.866,36.68,27.271,30.417,24.11,17.926,10.369,5.604
312,0.869,36.7,27.353,30.465,24.12,18.006,10.49,5.808
313,0.85,36.786,27.319,30.437,24.11,17.804,10.329,5.647
314,0.853,36.893,27.256,30.437,24.106,17.761,10.286,5.686
315,0.856,36.903,27.29,30.437,24.103,17.679,10.245,5.605
316,0.856,36.434,27.306,30.446,24.11,17.719,10.286,5.645
317,0.84,36.534,27.295,30.417,24.103,17.557,10.286,5.645
318,0.839,36.679,27.291,30.455,24.113,17.636,10.571,5.645
319,0.849,36.556,27.275,30.446,24.12,17.637,10.736,5.727
320,0.849,36.459,27.298,30.408,24.099,17.393,10.657,5.524
321,0.853,36.621,27.365,30.436,24.106,17.513,10.981,5.685
322,0.872,36.69,27.323,30.427,24.11,17.392,11.187,5.646
323,0.879,36.863,27.264,30.427,24.106,17.31,11.393,5.645
324,0.879,36.989,27.259,30.436,24.099,17.268,11.517,5.523
325,0.879,37.135,27.271,30.446,24.113,17.227,11.721,5.644
326,0.866,37.174,27.33,30.417,24.11,17.023,11.886,5.564
327,0.882,36.091,27.201,30.436,24.11,17.062,12.132,5.645
328,0.892,36.215,27.278,30.456,24.127,17.022,12.297,5.767
329,0.886,36.312,27.302,30.408,24.106,16.818,12.258,5.606
330,0.879,36.399,27.334,30.427,24.103,16.857,12.542,5.604
331,0.872,36.544,27.276,30.417,24.11,16.857,12.748,5.604
332,0.879,36.689,27.205,30.427,24.113,16.979,12.872,5.645
333,0.863,36.796,27.122,30.456,24.106,16.899,12.955,5.564
334,0.869,36.874,27.238,30.418,24.11,16.898,13.159,5.685
335,0.856,36.711,27.298,30.398,24.103,16.857,13.364,5.646
336,0.853,36.863,27.244,30.417,24.103,16.938,13.366,5.564
337,0.862,37.028,27.275,30.455,24.127,17.102,13.569,5.726
338,0.866,37.02,27.275,30.427,24.113,16.941,13.612,5.646
339,0.856,36.205,27.326,30.417,24.113,16.98,13.613,5.686
340,0.84,36.321,27.287,30.408,24.103,16.939,13.572,5.524
341,0.852,36.457,27.217,30.427,24.11,16.939,13.653,5.725
342,0.853,36.477,27.263,30.417,24.103,16.817,13.45,5.605
343,0.862,36.554,27.255,30.417,24.113,16.857,13.367,5.645
344,0.869,36.718,27.302,30.436,24.12,16.979,13.447,5.767
345,0.859,36.767,27.314,30.369,24.103,16.696,13.123,5.525
346,0.875,37.161,27.287,30.397,24.103,16.896,13.201,5.685
347,0.863,36.36,27.271,30.398,24.106,16.898,13.08,5.646
348,0.892,36.476,27.314,30.398,24.11,16.979,13.119,5.645
349,0.882,36.583,27.271,30.388,24.103,16.899,13.079,5.605
350,0.882,36.469,27.255,30.455,24.106,16.979,13.201,5.686
351,0.879,36.458,27.24,30.379,24.103,16.818,13.121,5.564
352,0.866,36.611,27.255,30.398,24.103,16.735,13.242,5.604
353,0.879,36.747,27.322,30.446,24.12,16.815,13.365,5.848
354,0.866,36.384,27.307,30.408,24.106,16.572,13.204,5.648
355,0.859,36.486,27.256,30.398,24.106,16.407,13.202,5.605
356,0.846,36.612,27.267,30.388,24.11,16.243,13.08,5.645
357,0.862,36.699,27.31,30.388,24.11,16.078,13.079,5.564
358,0.856,36.259,27.295,30.379,24.103,15.752,12.997,5.645
359,0.843,36.446,27.271,30.426,24.113,15.707,12.996,5.686
360,0.866,36.554,27.255,30.398,24.106,15.463,12.956,5.646
361,0.866,36.612,27.259,30.369,24.092,15.095,12.793,5.523
362,0.872,36.46,27.318,30.407,24.11,15.01,12.913,5.725
363,0.876,36.564,27.342,30.388,24.106,14.765,12.833,5.605
364,0.876,36.699,27.307,30.388,24.11,14.722,12.873,5.604
365,0.876,36.767,27.279,30.388,24.103,14.64,12.751,5.645
366,0.889,36.48,27.259,30.388,24.11,14.558,12.913,5.686
367,0.885,36.592,27.306,30.359,24.096,14.395,12.874,5.564
368,0.889,36.737,27.225,30.388,24.11,14.312,12.995,5.563
369,0.895,36.816,27.267,30.398,24.113,14.351,13.2,5.645
370,0.886,37.478,27.275,30.359,24.103,14.027,13.121,5.523
371,0.892,37.629,27.33,30.388,24.11,14.023,13.16,5.644
372,0.889,37.716,27.346,30.388,24.11,13.861,13.161,5.645
373,0.899,37.717,27.303,30.388,24.106,13.696,13.202,5.605
374,0.892,35.876,27.201,30.369,24.099,13.451,13.039,5.523
375,0.879,36.03,27.243,30.378,24.11,13.448,13.038,5.644
376,0.892,36.118,27.286,30.359,24.106,13.286,12.997,5.605
377,0.879,36.435,27.248,30.349,24.106,13.203,12.875,5.482
378,0.895,36.717,27.263,30.397,24.117,13.283,12.914,5.603
379,0.889,36.806,27.248,30.379,24.106,13.162,12.67,5.564
380,0.882,36.912,27.29,30.378,24.106,13.242,12.587,5.604
381,0.879,36.347,27.341,30.35,24.106,13.202,12.383,5.523
382,0.882,36.361,27.326,30.359,24.106,13.365,12.218,5.644
383,0.885,36.457,27.283,30.349,24.103,13.366,12.013,5.483
384,0.892,36.573,27.255,30.388,24.11,13.569,12.052,5.603
385,0.912,36.392,27.279,30.388,24.117,13.938,11.971,5.686
386,0.892,36.448,27.318,30.331,24.099,13.941,11.726,5.483
387,0.905,36.592,27.221,30.359,24.106,14.307,11.723,5.562
388,0.902,36.699,27.251,30.359,24.11,14.392,11.764,5.482
389,0.925,36.278,27.302,30.378,24.106,14.556,11.846,5.562
390,0.915,36.399,27.326,30.34,24.11,14.598,11.928,5.482
391,0.918,36.553,27.291,30.378,24.106,14.679,12.01,5.603
392,0.899,36.584,27.24,30.34,24.113,14.558,11.97,5.645
393,0.912,36.344,27.181,30.368,24.106,14.638,12.092,5.564
394,0.912,36.514,27.262,30.378,24.124,14.599,12.337,5.726
395,0.895,36.583,27.302,30.359,24.099,14.436,12.136,5.565
396,0.882,36.651,27.271,30.369,24.106,14.271,12.215,5.523
397,0.892,36.479,27.255,30.35,24.106,14.188,12.094,5.563
398,0.905,36.621,27.267,30.349,24.11,14.025,12.134,5.645
399,0.892,36.728,27.322,30.34,24.106,13.983,11.931,5.523
400,0.892,36.768,27.307,30.368,24.11,13.901,11.97,5.603
401,0.889,36.394,27.178,30.359,24.11,13.697,11.807,5.564
402,0.899,36.544,27.161,30.349,24.099,13.532,11.562,5.482
403,0.915,36.679,27.223,30.397,24.113,13.693,11.681,5.644
404,0.915,36.652,27.255,30.359,24.106,13.573,11.479,5.564
405,0.918,36.441,27.333,30.34,24.11,13.653,11.355,5.523
406,0.909,36.544,27.244,30.359,24.103,13.654,11.273,5.522
407,0.905,36.67,27.267,30.349,24.106,13.898,11.312,5.644
408,0.921,36.47,27.283,30.34,24.103,14.185,11.191,5.483
409,0.918,36.42,27.326,30.359,24.11,14.594,11.393,5.562
410,0.912,36.544,27.248,30.369,24.113,14.883,11.639,5.685
411,0.912,36.622,27.24,30.35,24.099,14.926,11.723,5.442
412,0.922,36.306,27.239,30.349,24.11,15.293,12.049,5.562
413,0.892,36.37,27.271,30.349,24.106,15.378,12.337,5.523
414,0.892,36.496,27.287,30.34,24.103,15.46,12.584,5.563
415,0.895,36.564,27.318,30.33,24.106,15.501,12.749,5.482
416,0.899,36.306,27.279,30.359,24.106,15.624,12.953,5.562
417,0.895,36.418,27.24,30.33,24.099,15.462,12.996,5.401
418,0.905,36.573,27.321,30.349,24.11,15.42,13.119,5.562
419,0.895,36.67,27.287,30.378,24.12,15.46,13.242,5.645
420,0.879,36.335,27.15,30.321,24.086,15.176,13.08,5.523
421,0.895,36.495,27.266,30.34,24.103,15.376,13.079,5.563
422,0.895,36.621,27.263,30.34,24.106,15.134,12.957,5.523
423,0.902,36.699,27.287,30.34,24.11,15.132,12.996,5.563
424,0.908,36.297,27.334,30.33,24.106,14.929,12.834,5.523
425,0.918,36.466,27.252,30.34,24.106,14.927,12.751,5.644
426,0.902,36.583,27.24,30.34,24.103,14.886,12.628,5.523
427,0.918,36.632,27.31,30.33,24.103,14.723,12.424,5.482
428,0.925,36.383,27.326,30.359,24.113,14.925,12.462,5.603
429,0.925,36.476,27.201,30.34,24.099,14.642,12.178,5.523
430,0.931,36.612,27.255,30.33,24.113,14.639,12.053,5.441
431,0.918,36.642,27.263,30.33,24.103,14.599,11.808,5.481
432,0.899,36.287,27.29,30.33,24.103,14.558,11.765,5.481
433,0.902,36.389,27.302,30.311,24.099,14.598,11.521,5.44
434,0.895,36.544,27.322,30.33,24.106,14.679,11.477,5.562
435,0.886,36.938,27.275,30.388,24.113,14.762,11.436,5.563
436,0.882,36.348,27.244,30.311,24.099,14.681,11.273,5.401
437,0.885,36.505,27.306,30.339,24.106,14.762,11.394,5.562
438,0.889,36.593,27.279,30.33,24.099,14.844,11.354,5.523
439,0.892,36.354,27.271,30.32,24.103,14.845,11.354,5.482
440,0.889,36.361,27.24,30.32,24.11,14.763,11.313,5.481
441,0.882,36.495,27.278,30.34,24.12,14.681,11.313,5.603
442,0.889,36.545,27.314,30.321,24.103,14.518,11.232,5.482
443,0.895,36.238,27.322,30.34,24.103,14.516,11.271,5.44
444,0.905,36.35,27.311,30.368,24.12,14.557,11.312,5.643
445,0.895,36.438,27.256,30.302,24.106,14.313,11.232,5.523
446,0.908,36.535,27.271,30.33,24.11,14.229,11.109,5.522
447,0.899,36.277,27.283,30.32,24.103,14.147,11.067,5.482
448,0.889,36.427,27.244,30.33,24.113,14.228,10.944,5.44
449,0.908,36.525,27.251,30.311,24.099,14.269,10.862,5.481
450,0.899,36.612,27.279,30.339,24.113,14.432,10.902,5.562
451,0.899,36.776,27.334,30.321,24.103,14.434,10.821,5.523
452,0.889,36.883,27.307,30.292,24.089,14.515,10.698,5.36
453,0.899,37.047,27.33,30.32,24.106,14.719,10.9,5.561
454,0.889,37.058,27.194,30.32,24.11,14.884,10.902,5.563
455,0.872,35.946,27.27,30.32,24.113,15.089,11.024,5.482
456,0.866,36.079,27.302,30.32,24.099,15.335,11.107,5.481
457,0.869,36.224,27.271,30.33,24.113,15.825,11.27,5.562
458,0.872,36.264,27.259,30.33,24.106,16.237,11.231,5.441
459,0.863,36.408,27.251,30.32,24.11,16.648,11.353,5.521
460,0.859,36.563,27.31,30.349,24.127,17.18,11.598,5.644
461,0.853,36.622,27.295,30.321,24.103,17.348,11.438,5.442
462,0.885,36.671,27.283,30.311,24.11,17.553,11.558,5.44
463,0.879,36.182,27.209,30.311,24.106,17.677,11.519,5.521
464,0.885,36.34,27.243,30.32,24.11,17.8,11.64,5.522
465,0.885,36.428,27.255,30.301,24.106,17.842,11.519,5.522
466,0.889,36.439,27.298,30.32,24.113,17.842,11.559,5.522
467,0.889,36.247,27.279,30.349,24.11,17.802,11.519,5.644
468,0.889,36.35,27.236,30.292,24.092,17.639,11.355,5.361
469,0.899,36.495,27.286,30.32,24.113,17.637,11.517,5.561
470,0.892,36.199,27.291,30.301,24.113,17.475,11.355,5.441
471,0.892,36.244,27.256,30.301,24.106,17.392,11.354,5.562
472,0.882,36.379,27.201,30.301,24.103,17.269,11.273,5.482
473,0.872,36.486,27.251,30.311,24.11,17.268,11.231,5.562
474,0.866,36.132,27.243,30.301,24.106,17.227,11.109,5.482
475,0.866,36.282,27.341,30.291,24.113,17.186,11.026,5.481
476,0.859,36.428,27.268,30.349,24.12,17.43,11.107,5.603
477,0.846,36.448,27.255,30.301,24.11,17.147,10.904,5.523
478,0.856,36.257,27.286,30.301,24.106,17.145,10.861,5.563
479,0.846,36.389,27.326,30.301,24.11,17.063,10.698,5.482
480,0.856,36.505,27.279,30.301,24.11,17.062,10.697,5.562
481,0.853,36.554,27.174,30.301,24.103,16.9,10.616,5.482
482,0.859,36.037,27.235,30.32,24.099,16.898,10.859,5.562
483,0.866,36.166,27.247,30.32,24.11,16.776,10.942,5.563
484,0.862,36.263,27.236,30.282,24.103,16.49,11.024,5.401
485,0.879,36.351,27.317,30.31,24.113,16.609,11.391,5.562
486,0.882,36.227,27.264,30.301,24.103,16.773,11.354,5.482
487,0.872,36.398,27.263,30.301,24.106,16.734,11.638,5.44
488,0.866,36.477,27.287,30.291,24.103,16.815,11.641,5.481
489,0.882,36.525,27.279,30.301,24.113,16.938,11.804,5.522
490,0.866,36.248,27.201,30.291,24.106,17.02,11.806,5.441
491,0.866,36.398,27.239,30.301,24.11,17.184,11.887,5.481
492,0.876,36.544,27.267,30.32,24.127,17.47,12.05,5.684
493,0.859,36.507,27.267,30.272,24.099,17.31,11.93,5.483
494,0.843,36.305,27.31,30.301,24.103,17.471,12.051,5.522
495,0.839,36.418,27.307,30.282,24.103,17.392,12.052,5.482
496,0.852,36.553,27.256,30.291,24.11,17.432,12.255,5.522
497,0.83,36.315,27.263,30.282,24.106,17.31,12.217,5.482
498,0.843,36.255,27.322,30.31,24.113,17.349,12.541,5.644
499,0.849,36.37,27.229,30.301,24.11,17.309,12.504,5.564
500,0.836,36.438,27.228,30.282,24.099,17.146,12.504,5.441
501,0.839,36.304,27.251,30.33,24.12,17.307,12.626,5.562
502,0.839,36.37,27.279,30.292,24.113,17.268,12.627,5.482
503,0.849,36.496,27.287,30.301,24.113,17.349,12.668,5.603
504,0.859,36.554,27.31,30.282,24.106,17.431,12.668,5.482
505,0.862,36.2,27.232,30.282,24.113,17.554,12.627,5.522
506,0.853,36.312,27.232,30.282,24.106,17.392,12.546,5.482
507,0.859,36.457,27.282,30.291,24.11,17.432,12.504,5.603
508,0.869,36.544,27.279,30.301,24.12,17.595,12.585,5.686
509,0.859,36.152,27.131,30.263,24.103,17.312,12.261,5.524
510,0.859,36.292,27.242,30.291,24.113,17.431,12.217,5.563
511,0.846,36.428,27.263,30.291,24.106,17.229,12.176,5.482
512,0.859,36.487,27.298,30.301,24.106,17.227,12.094,5.644
513,0.84,36.247,27.303,30.272,24.099,17.064,11.93,5.523
514,0.839,36.418,27.318,30.301,24.113,17.022,11.888,5.644
515,0.826,36.515,27.287,30.282,24.106,16.859,11.725,5.605
516,0.813,36.554,27.256,30.234,24.099,16.694,11.561,5.482
517,0.846,36.267,27.333,30.3,24.117,16.815,11.559,5.603
518,0.836,36.389,27.244,30.282,24.113,16.735,11.397,5.564
519,0.833,36.515,27.247,30.291,24.11,16.734,11.395,5.645
520,0.82,36.526,27.279,30.282,24.103,16.734,11.314,5.564
521,0.826,36.161,27.318,30.291,24.113,17.018,11.394,5.604
522,0.833,36.254,27.342,30.263,24.099,17.103,11.314,5.564
523,0.839,36.379,27.315,30.301,24.103,17.347,11.516,5.685
524,0.852,36.812,27.236,30.32,24.12,17.634,11.721,5.687
525,0.84,36.346,27.236,30.263,24.103,17.719,11.642,5.483
526,0.843,36.505,27.278,30.281,24.106,18.085,11.804,5.562
527,0.849,36.593,27.244,30.272,24.113,18.252,11.887,5.563
528,0.856,36.431,27.232,30.282,24.11,18.416,11.969,5.645
529,0.843,36.448,27.232,30.262,24.106,18.458,11.889,5.605
530,0.856,36.583,27.286,30.291,24.113,18.499,12.01,5.645
531,0.856,36.661,27.31,30.263,24.106,18.459,11.97,5.645
532,0.836,36.585,27.299,30.253,24.103,18.174,11.889,5.483
533,0.849,36.728,27.256,30.301,24.113,18.171,11.888,5.644
534,0.843,36.835,27.255,30.272,24.103,18.13,11.847,5.645
535,0.833,36.932,27.275,30.272,24.106,17.967,11.847,5.645
536,0.83,36.693,27.306,30.262,24.113,17.925,11.725,5.564
537,0.839,36.834,27.193,30.291,24.12,18.006,11.764,5.685
538,0.83,36.951,27.239,30.263,24.096,17.926,11.642,5.605
539,0.813,37.019,27.29,30.262,24.106,18.047,11.723,5.564
540,0.829,35.955,27.334,30.301,24.127,17.967,11.764,5.766
541,0.813,36.031,27.272,30.253,24.11,17.885,11.521,5.565
542,0.813,36.185,27.209,30.272,24.113,17.965,11.559,5.523
543,0.823,36.263,27.239,30.301,24.106,17.925,11.559,5.603
544,0.836,36.264,27.228,30.272,24.106,17.965,11.519,5.645
545,0.833,36.389,27.321,30.253,24.106,17.925,11.559,5.564
546,0.836,36.544,27.248,30.281,24.11,17.965,11.64,5.685
547,0.843,36.564,27.24,30.262,24.099,17.844,11.723,5.605
548,0.833,36.277,27.259,30.253,24.106,17.68,11.723,5.523
549,0.856,36.475,27.322,30.291,24.12,17.678,11.968,5.685
550,0.859,36.535,27.244,30.243,24.106,17.353,11.767,5.605
551,0.84,36.564,27.204,30.281,24.11,17.228,11.846,5.564
552,0.846,36.286,27.223,30.262,24.113,16.901,11.765,5.604
553,0.843,36.437,27.259,30.272,24.113,16.776,11.805,5.686
554,0.833,36.515,27.251,30.253,24.103,16.572,11.684,5.564
555,0.83,36.478,27.333,30.272,24.11,16.732,11.804,5.604
556,0.83,36.257,27.291,30.291,24.12,17.059,11.846,5.726
557,0.797,36.351,27.244,30.243,24.099,17.144,11.562,5.524
558,0.813,36.476,27.306,30.291,24.103,17.47,11.6,5.685
559,0.829,36.343,27.267,30.272,24.106,17.636,11.56,5.605
560,0.823,36.447,27.209,30.262,24.106,17.881,11.437,5.645
561,0.81,36.554,27.251,30.262,24.106,17.884,11.395,5.564
562,0.829,36.66,27.259,30.272,24.113,18.046,11.395,5.726
563,0.833,36.105,27.283,30.243,24.113,18.007,11.232,5.565
564,0.83,36.205,27.306,30.243,24.099,17.926,11.068,5.563
565,0.859,36.36,27.252,30.272,24.113,18.047,11.229,5.645
566,0.843,36.419,27.255,30.272,24.113,17.845,11.19,5.605
567,0.839,36.247,27.267,30.272,24.11,17.68,11.23,5.645
568,0.836,36.36,27.271,30.243,24.103,17.556,11.231,5.523
569,0.852,36.515,27.201,30.272,24.113,17.555,11.393,5.644
570,0.846,36.574,27.227,30.243,24.099,17.352,11.476,5.523
571,0.84,36.325,27.271,30.281,24.106,17.39,11.518,5.563
572,0.856,36.476,27.306,30.291,24.124,17.513,11.721,5.726
573,0.823,36.544,27.287,30.253,24.099,17.27,11.561,5.605
574,0.83,36.632,27.31,30.272,24.106,17.39,11.6,5.645
575,0.826,36.095,27.26,30.282,24.106,17.269,11.56,5.564
576,0.813,36.253,27.24,30.262,24.106,17.186,11.559,5.604
577,0.81,36.331,27.298,30.224,24.099,17.063,11.397,5.564
578,0.829,36.37,27.256,30.281,24.113,17.022,11.436,5.726
579,0.813,36.332,27.24,30.272,24.106,16.981,11.395,5.605
580,0.813,36.457,27.228,30.224,24.106,17.021,11.192,5.442
581,0.836,36.602,27.278,30.271,24.113,17.428,11.189,5.684
582,0.83,36.565,27.337,30.243,24.113,17.676,11.027,5.605
583,0.833,36.123,27.326,30.252,24.11,18.166,11.025,5.645
584,0.833,36.224,27.272,30.253,24.11,18.7,10.903,5.605
585,0.833,36.36,27.279,30.262,24.113,19.274,10.821,5.686
586,0.83,36.275,27.259,30.243,24.103,19.808,10.739,5.564
587,0.843,36.303,27.298,30.252,24.113,20.22,10.738,5.604
588,0.849,36.456,27.224,30.262,24.12,20.469,10.819,5.686
589,0.83,36.525,27.228,30.234,24.099,20.43,10.617,5.483
590,0.839,36.133,27.271,30.243,24.106,20.511,10.737,5.562
591,0.839,36.196,27.314,30.233,24.11,20.471,10.779,5.563
592,0.833,36.331,27.287,30.252,24.11,20.268,10.86,5.604
593,0.823,36.418,27.283,30.243,24.099,20.062,10.861,5.564
594,0.826,36.218,27.185,30.272,24.11,19.898,10.902,5.645
595,0.81,36.34,27.227,30.224,24.103,19.611,10.943,5.564
596,0.816,36.457,27.286,30.233,24.106,19.324,10.902,5.523
597,0.836,36.592,27.248,30.272,24.124,19.158,11.105,5.685
598,0.81,35.98,27.255,30.234,24.106,18.913,10.945,5.564
599,0.816,36.127,27.259,30.262,24.11,18.585,10.902,5.604
600,0.82,36.234,27.286,30.253,24.106,18.257,10.821,5.604
601,0.823,36.312,27.298,30.272,24.11,17.928,10.82,5.645
602,0.82,36.169,27.252,30.214,24.099,17.518,10.657,5.564
603,0.833,36.33,27.197,30.252,24.113,17.189,10.696,5.685
604,0.833,36.457,27.231,30.262,24.113,16.901,10.737,5.687
605,0.813,36.458,27.216,30.214,24.085,16.451,10.413,5.483
606,0.829,36.19,27.302,30.243,24.109,16.243,10.45,5.603
607,0.839,36.331,27.267,30.31,24.11,16.16,10.45,5.645
608,0.83,36.438,27.24,30.244,24.106,16.037,10.369,5.564
609,0.836,36.458,27.29,30.224,24.103,15.873,10.409,5.482
610,0.846,36.094,27.322,30.262,24.113,15.871,10.572,5.603
611,0.82,36.176,27.248,30.243,24.11,15.831,10.655,5.604
612,0.817,36.321,27.204,30.243,24.099,15.871,10.696,5.564
613,0.829,36.754,27.216,30.31,24.12,16.075,10.981,5.726
614,0.813,36.193,27.227,30.234,24.106,15.995,10.944,5.565
615,0.82,36.331,27.286,30.224,24.11,15.954,11.065,5.645
616,0.81,36.409,27.24,30.224,24.106,15.872,11.107,5.564
617,0.794,36.103,27.243,30.252,24.106,15.953,11.27,5.685
618,0.787,36.1,27.236,30.243,24.096,15.831,11.231,5.564
619,0.8,36.234,27.29,30.243,24.103,15.871,11.434,5.685
620,0.797,36.322,27.259,30.252,24.11,15.749,11.477,5.646
621,0.8,36.054,27.162,30.195,24.092,15.504,11.314,5.523
622,0.813,36.214,27.239,30.252,24.11,15.502,11.516,5.644
623,0.81,36.312,27.239,30.233,24.106,15.299,11.518,5.564
624,0.813,36.399,27.259,30.252,24.11,15.174,11.559,5.645
625,0.829,36.083,27.318,30.224,24.099,14.929,11.478,5.523
626,0.833,36.224,27.283,30.243,24.106,14.846,11.477,5.603
627,0.826,36.341,27.248,30.243,24.103,14.519,11.396,5.564
628,0.846,36.419,27.31,30.243,24.106,14.435,11.354,5.645
629,0.866,35.94,27.256,30.262,24.12,14.393,11.435,5.767
630,0.84,36.05,27.111,30.224,24.096,13.946,11.192,5.484
631,0.862,36.185,27.23,30.243,24.106,13.9,11.23,5.603
632,0.859,36.263,27.255,30.233,24.099,13.656,11.271,5.645
633,0.879,36.322,27.294,30.233,24.11,13.491,11.394,5.564
634,0.879,36.437,27.318,30.233,24.103,13.286,11.395,5.563
635,0.898,36.573,27.271,30.262,24.106,13.203,11.639,5.604
636,0.892,36.593,27.255,30.234,24.106,12.958,11.845,5.523
637,0.905,35.922,27.267,30.224,24.096,12.874,11.887,5.482
638,0.944,36.079,27.306,30.271,24.113,12.873,12.091,5.766
639,0.928,36.167,27.201,30.243,24.103,12.629,12.093,5.647
640,0.931,36.187,27.231,30.252,24.106,12.627,12.174,5.605
641,0.944,36.12,27.239,30.233,24.103,12.627,12.216,5.564
642,0.958,36.272,27.271,30.252,24.103,12.708,12.257,5.604
643,0.941,36.341,27.291,30.214,24.096,12.709,12.095,5.482
644,0.964,36.284,27.306,30.233,24.11,12.953,12.296,5.603
645,0.968,36.082,27.287,30.243,24.106,13.078,12.258,5.604
646,0.971,36.186,27.232,30.214,24.099,12.957,12.054,5.482
647,0.997,36.321,27.29,30.233,24.103,13.281,12.215,5.603
648,1.013,36.054,27.217,30.214,24.099,13.406,12.135,5.523
649,1.03,36.128,27.224,30.233,24.106,13.407,12.297,5.603
650,1.037,36.234,27.239,30.224,24.092,13.489,12.339,5.564
651,1.046,36.35,27.302,30.243,24.11,13.611,12.665,5.685
652,1.027,35.997,27.318,30.224,24.103,13.653,12.709,5.605
653,1.053,36.118,27.303,30.243,24.106,13.654,12.912,5.604
654,1.056,36.282,27.24,30.272,24.124,13.857,13.158,5.726
655,1.03,36.332,27.267,30.205,24.106,13.656,13.039,5.524
656,1.043,35.987,27.271,30.223,24.106,13.816,13.2,5.563
657,1.043,36.108,27.263,30.233,24.11,13.94,13.202,5.482
658,1.043,36.244,27.248,30.252,24.106,14.348,13.202,5.644
659,1.04,36.302,27.232,30.214,24.099,14.596,13.039,5.523
660,1.053,36.121,27.29,30.233,24.106,15.045,13.078,5.644
661,1.043,36.244,27.31,30.224,24.103,15.335,13.079,5.686
662,1.046,36.36,27.248,30.204,24.092,15.581,12.754,5.564
663,1.066,36.438,27.232,30.243,24.117,15.95,12.872,5.604
664,1.053,35.844,27.251,30.233,24.106,16.157,12.629,5.564
665,1.069,36.001,27.251,30.252,24.099,16.443,12.627,5.563
666,1.069,36.089,27.279,30.224,24.106,16.568,12.464,5.563
667,1.063,36.195,27.224,30.233,24.113,16.732,12.463,5.645
668,1.053,36.12,27.216,30.214,24.103,16.937,12.219,5.523
669,1.063,36.272,27.274,30.223,24.103,17.183,12.216,5.563
670,1.069,36.418,27.314,30.262,24.12,17.389,12.257,5.685
671,1.034,36.352,27.248,30.205,24.106,17.35,11.932,5.564
672,1.017,36.083,27.181,30.214,24.106,17.472,11.888,5.645
673,1.01,36.195,27.094,30.233,24.106,17.432,11.725,5.605
674,1.014,36.302,27.222,30.252,24.106,17.432,11.683,5.604
675,1.001,36.054,27.298,30.205,24.106,17.31,11.601,5.523
676,1.01,35.994,27.24,30.233,24.113,17.39,11.722,5.644
677,0.994,36.108,27.243,30.214,24.106,17.35,11.764,5.645
678,0.994,36.196,27.236,30.195,24.103,17.147,11.642,5.564
679,1.023,35.995,27.314,30.262,24.117,17.226,11.804,5.563
680,1.001,36.051,27.279,30.243,24.106,17.105,11.724,5.523
681,1.0,36.185,27.181,30.214,24.11,17.144,11.805,5.563
682,0.984,36.283,27.2,30.233,24.099,17.145,11.765,5.563
683,1.017,35.996,27.212,30.233,24.113,17.145,11.887,5.563
684,0.994,36.089,27.231,30.204,24.103,17.145,11.888,5.482
685,1.004,36.243,27.306,30.214,24.11,17.063,12.01,5.603
686,1.004,36.35,27.158,30.262,24.113,17.184,12.214,5.726
687,0.965,35.805,27.2,30.186,24.103,16.779,12.054,5.484
688,0.974,35.943,27.259,30.223,24.103,16.734,12.215,5.562
689,0.958,36.088,27.286,30.195,24.103,16.49,12.257,5.604
690,0.948,36.157,27.205,30.214,24.106,16.325,12.339,5.564
691,0.928,35.908,27.216,30.185,24.103,15.998,12.258,5.482
692,0.915,36.069,27.231,30.223,24.11,15.872,12.339,5.603
693,0.883,36.176,27.232,30.214,24.106,15.709,12.258,5.564
694,0.869,36.196,27.275,30.185,24.099,15.544,12.095,5.523
695,0.882,35.986,27.279,30.242,24.12,15.583,12.174,5.725
696,0.863,36.079,27.255,30.224,24.106,15.462,12.053,5.565
697,0.866,36.195,27.244,30.214,24.11,15.42,11.93,5.563
698,0.849,36.216,27.318,30.214,24.103,15.257,11.848,5.563
699,0.84,35.976,27.248,30.233,24.106,15.215,11.806,5.685
700,0.833,36.098,27.154,30.214,24.11,15.052,11.643,5.524
701,0.836,36.205,27.246,30.223,24.106,15.213,11.723,5.563
702,0.852,36.542,27.251,30.233,24.113,15.417,11.805,5.726
703,0.836,35.979,27.263,30.185,24.096,15.42,11.562,5.524
704,0.849,36.137,27.31,30.223,24.106,15.826,11.64,5.563
705,0.843,36.244,27.248,30.195,24.103,16.277,11.56,5.563
706,0.849,35.938,27.247,30.223,24.11,16.729,11.559,5.563
707,0.853,35.906,27.271,30.185,24.103,17.181,11.356,5.441
708,0.849,36.059,27.279,30.214,24.113,17.552,11.395,5.562
709,0.833,36.147,27.166,30.214,24.099,17.799,11.232,5.482
710,0.833,35.889,27.207,30.185,24.099,17.883,11.149,5.481
711,0.839,36.03,27.231,30.252,24.113,18.087,11.23,5.644
712,0.817,36.147,27.271,30.214,24.11,17.967,11.027,5.564
713,0.816,36.225,27.287,30.214,24.103,17.966,11.066,5.523
714,0.816,36.993,27.318,30.195,24.106,17.844,11.026,5.563
715,0.81,37.154,27.275,30.233,24.106,17.721,11.147,5.563
716,0.803,37.251,27.244,30.195,24.103,17.597,11.23,5.482
717,0.807,37.339,27.298,30.195,24.11,17.556,11.475,5.562
718,0.797,35.259,27.287,30.223,24.12,17.555,11.721,5.766
719,0.774,35.343,27.24,30.243,24.096,17.189,11.764,5.525
720,0.79,35.488,27.236,30.205,24.103,17.185,11.968,5.644
721,0.787,35.557,27.228,30.214,24.106,16.86,12.051,5.564
722,0.793,36.085,27.282,30.214,24.11,16.776,12.255,5.604
723,0.784,36.205,27.287,30.185,24.096,16.368,12.257,5.482
724,0.79,36.35,27.287,30.214,24.117,16.283,12.42,5.644
725,0.787,36.38,27.267,30.185,24.106,15.957,12.381,5.564
726,0.8,35.767,27.236,30.194,24.103,15.669,12.34,5.523
727,0.81,35.924,27.314,30.242,24.12,15.666,12.543,5.725
728,0.794,36.002,27.197,30.214,24.106,15.259,12.342,5.565
729,0.803,36.06,27.223,30.195,24.106,15.174,12.299,5.563
730,0.807,35.994,27.212,30.185,24.106,14.929,12.176,5.563
731,0.8,36.137,27.29,30.194,24.106,14.927,12.216,5.726
732,0.787,36.206,27.287,30.185,24.103,14.764,11.972,5.524
733,0.793,36.11,27.283,30.194,24.106,14.803,12.011,5.644
734,0.793,35.86,27.216,30.214,24.106,14.641,11.93,5.686
735,0.78,36.001,27.235,30.185,24.099,14.477,11.726,5.483
736,0.79,36.127,27.263,30.223,24.117,14.597,11.927,5.603
737,0.767,35.946,27.24,30.195,24.103,14.517,11.766,5.564
738,0.767,36.05,27.232,30.214,24.106,14.597,11.764,5.685
739,0.764,36.166,27.216,30.204,24.103,14.72,11.805,5.646
740,0.777,36.254,27.27,30.214,24.106,14.844,11.928,5.686
741,0.78,35.746,27.283,30.195,24.099,15.048,11.807,5.564
742,0.793,35.866,27.279,30.204,24.113,15.335,11.887,5.604
743,0.813,36.011,27.244,30.195,24.113,15.419,11.928,5.645
744,0.81,36.07,27.161,30.195,24.096,15.379,11.766,5.483
745,0.846,35.783,27.223,30.204,24.099,15.623,11.927,5.644
746,0.853,35.905,27.294,30.185,24.106,15.706,12.051,5.645
747,0.862,36.05,27.209,30.194,24.106,15.788,12.215,5.645
748,0.879,36.128,27.204,30.175,24.103,15.749,12.176,5.564
749,0.905,35.946,27.255,30.194,24.11,15.829,12.297,5.604
750,0.905,36.079,27.255,30.175,24.103,15.83,12.38,5.523
751,0.928,36.205,27.244,30.213,24.11,15.912,12.462,5.644
752,0.951,36.302,27.216,30.223,24.12,15.994,12.544,5.727
753,0.932,35.776,27.212,30.166,24.096,15.832,12.423,5.605
754,0.951,35.943,27.188,30.194,24.106,15.749,12.422,5.604
755,0.977,36.069,27.266,30.166,24.106,15.707,12.34,5.604
756,1.013,36.109,27.248,30.204,24.113,15.91,12.339,5.645
757,1.043,35.841,27.232,30.166,24.103,15.872,12.177,5.523
758,1.102,36.001,27.255,30.185,24.113,16.156,12.216,5.644
759,1.106,36.089,27.29,30.166,24.103,16.159,12.054,5.605
760,1.148,36.1,27.259,30.185,24.099,16.24,12.052,5.564
761,1.194,36.013,27.205,30.242,24.12,16.444,12.255,5.766
762,1.194,36.08,27.106,30.185,24.11,16.284,12.217,5.565
763,1.201,36.215,27.203,30.194,24.11,16.241,12.257,5.685
764,1.224,35.909,27.235,30.175,24.103,16.16,12.379,5.605
765,1.24,35.791,27.317,30.194,24.113,16.159,12.584,5.645
766,1.221,35.895,27.178,30.175,24.099,16.078,12.586,5.564
767,1.224,36.03,27.239,30.204,24.11,16.239,12.708,5.645
768,1.188,35.84,27.286,30.195,24.12,16.363,12.75,5.645
769,1.168,35.886,27.256,30.156,24.096,16.202,12.628,5.401
770,1.197,36.05,27.212,30.185,24.106,16.363,12.708,5.643
771,1.194,36.147,27.22,30.185,24.11,16.364,12.668,5.645
772,1.181,35.736,27.224,30.194,24.103,16.202,12.587,5.645
773,1.184,35.856,27.208,30.166,24.099,16.2,12.464,5.605
774,1.188,35.992,27.255,30.194,24.113,16.241,12.463,5.645
775,1.132,36.041,27.267,30.166,24.106,16.119,12.219,5.564
776,1.122,35.869,27.24,30.185,24.106,16.118,12.216,5.685
777,1.135,36.021,27.236,30.214,24.113,16.077,12.257,5.768
778,1.109,36.099,27.259,30.156,24.092,15.711,11.891,5.565
779,1.083,36.176,27.232,30.185,24.099,15.829,11.888,5.645
780,1.034,35.746,27.224,30.233,24.11,15.668,11.928,5.564
781,0.978,35.875,27.231,30.195,24.106,15.666,12.173,5.726
782,0.909,36.011,27.247,30.166,24.099,15.463,12.216,5.565
783,0.895,36.06,27.267,30.194,24.103,15.501,12.541,5.726
784,0.834,35.86,27.279,30.175,24.11,15.38,12.707,5.605
785,0.817,36.011,27.232,30.175,24.099,15.297,12.912,5.604
786,0.81,36.166,27.247,30.204,24.117,15.378,13.321,5.808
787,0.755,36.148,27.243,30.175,24.106,15.094,13.284,5.688
788,0.722,35.832,27.263,30.166,24.11,15.05,13.406,5.646
789,0.679,35.991,27.201,30.185,24.106,14.969,13.529,5.686
790,0.652,36.079,27.208,30.175,24.103,14.805,13.531,5.687
791,0.613,36.368,27.216,30.166,24.106,14.803,13.449,5.605
792,0.574,35.796,27.267,30.185,24.11,14.844,13.53,5.726
793,0.538,35.914,27.294,30.166,24.106,14.845,13.368,5.687
794,0.501,36.011,27.291,30.165,24.103,14.845,13.163,5.646
795,0.482,35.811,27.275,30.213,24.117,14.967,13.283,5.727
796,0.449,35.79,27.201,30.166,24.099,14.887,13.081,5.687
797,0.406,35.924,27.247,30.156,24.103,14.886,12.957,5.687
798,0.354,35.992,27.22,30.175,24.106,14.804,12.752,5.605
799,0.314,35.83,27.224,30.185,24.106,14.763,12.628,5.726
800,0.281,35.915,27.2,30.175,24.103,14.6,12.424,5.646
801,0.248,36.069,27.262,30.194,24.106,14.558,12.3,5.727
802,0.238,36.166,27.287,30.185,24.12,14.516,12.298,5.768
803,0.212,36.762,27.263,30.127,24.089,14.191,11.851,5.606
804,0.244,36.941,27.22,30.175,24.11,14.188,11.887,5.726
805,0.274,37.029,27.228,30.156,24.106,14.188,11.806,5.646
806,0.313,37.116,27.243,30.165,24.106,14.228,11.806,5.767
807,0.353,35.17,27.232,30.146,24.099,14.025,11.765,5.687
808,0.392,35.333,27.232,30.165,24.106,14.105,11.927,5.809
809,0.406,35.449,27.224,30.146,24.099,14.024,11.888,5.647
810,0.412,35.537,27.255,30.156,24.11,13.983,12.091,5.727
811,0.425,35.893,27.302,30.185,24.12,14.185,12.296,5.809
812,0.426,35.973,27.271,30.156,24.096,13.944,12.217,5.647
813,0.448,36.137,27.224,30.175,24.099,13.9,12.338,5.767
814,0.471,36.167,27.228,30.223,24.103,13.819,12.421,5.768
815,0.485,35.755,27.22,30.166,24.11,13.777,12.462,5.768
816,0.501,35.866,27.278,30.156,24.103,13.655,12.463,5.687
817,0.514,36.011,27.158,30.165,24.106,13.776,12.503,5.727
818,0.54,36.012,27.196,30.156,24.106,13.858,12.504,5.727
819,0.557,35.83,27.227,30.156,24.106,14.062,12.666,5.687
820,0.602,35.991,27.286,30.185,24.12,14.552,12.953,5.809
821,0.626,36.041,27.259,30.156,24.096,14.679,12.956,5.728
822,0.671,36.013,27.208,30.165,24.106,14.924,13.078,5.809
823,0.688,35.849,27.153,30.165,24.103,15.089,13.16,5.81
824,0.721,35.982,27.227,30.146,24.106,15.294,13.283,5.81
825,0.715,36.07,27.235,30.156,24.099,15.5,13.162,5.769
826,0.747,35.706,27.263,30.185,24.11,15.746,13.283,5.85
827,0.764,35.76,27.232,30.175,24.103,15.829,13.162,5.891
828,0.777,35.876,27.216,30.127,24.099,15.79,12.998,5.648
829,0.793,36.011,27.278,30.175,24.113,15.952,13.119,5.889
830,0.803,36.751,27.263,30.146,24.106,15.831,12.998,5.77
831,0.81,36.912,27.197,30.156,24.106,15.749,12.875,5.809
832,0.81,37.028,27.126,30.165,24.103,15.626,12.67,5.81
833,0.807,37.106,27.215,30.156,24.106,15.544,12.668,5.85
834,0.8,35.007,27.2,30.127,24.099,15.543,12.465,5.769
835,0.794,35.149,27.309,30.156,24.106,15.583,12.463,5.809
836,0.816,35.313,27.213,30.165,24.113,15.625,12.381,5.932
837,0.787,35.353,27.224,30.137,24.096,15.584,12.055,5.689
838,0.797,35.939,27.271,30.156,24.103,15.706,12.011,5.849
839,0.787,36.079,27.275,30.156,24.103,15.707,11.889,5.81
840,0.8,36.186,27.185,30.175,24.11,15.951,11.806,5.891
841,0.797,36.254,27.192,30.213,24.103,16.076,11.765,5.811
842,0.794,35.612,27.192,30.166,24.106,16.158,11.805,5.891
843,0.8,35.73,27.18,30.137,24.099,16.2,11.684,5.77
844,0.807,35.856,27.235,30.165,24.106,16.241,11.723,5.85
845,0.826,35.915,27.278,30.185,24.124,16.363,11.805,6.013
846,0.813,35.714,27.224,30.146,24.099,16.161,11.602,5.771
847,0.826,35.866,27.239,30.156,24.11,15.996,11.641,5.809
848,0.82,35.992,27.278,30.156,24.106,15.995,11.56,5.81
849,0.833,35.993,27.228,30.156,24.11,15.872,11.559,5.81
850,0.823,35.753,27.216,30.146,24.099,15.709,11.437,5.85
851,0.82,35.924,27.216,30.165,24.11,15.544,11.436,5.891
852,0.823,35.992,27.239,30.165,24.106,15.34,11.273,5.892
853,0.823,35.859,27.263,30.127,24.096,15.053,11.109,5.729
854,0.82,35.848,27.271,30.184,24.106,15.009,11.23,5.931
855,0.813,35.953,27.185,30.146,24.106,14.765,11.068,5.77
856,0.816,36.05,27.184,30.146,24.11,14.64,11.148,5.809
857,0.803,35.716,27.247,30.137,24.103,14.477,10.986,5.81
858,0.797,35.808,27.243,30.175,24.11,14.353,10.984,5.81
859,0.803,35.934,27.208,30.156,24.099,14.108,10.822,5.769
860,0.81,36.021,27.22,30.175,24.106,14.024,10.861,5.85
861,0.81,35.754,27.259,30.175,24.113,13.983,10.82,5.932
862,0.813,35.837,27.267,30.118,24.092,13.779,10.576,5.77
863,0.826,35.972,27.31,30.155,24.103,13.94,10.614,5.809
864,0.826,36.05,27.24,30.146,24.103,13.982,10.655,5.769
865,0.843,35.706,27.228,30.156,24.106,14.104,10.696,5.809
866,0.833,35.837,27.212,30.127,24.099,14.309,10.656,5.85
867,0.83,35.972,27.274,30.165,24.11,14.677,10.94,5.851
868,0.839,36.031,27.15,30.137,24.099,14.762,10.984,5.851
869,0.852,35.706,27.211,30.156,24.103,14.925,11.147,5.729
870,0.859,35.866,27.251,30.175,24.113,15.293,11.555,5.931
871,0.83,35.934,27.271,30.137,24.099,15.215,11.478,5.77
872,0.833,35.993,27.271,30.136,24.106,15.377,11.68,5.768
873,0.82,35.763,27.263,30.136,24.103,15.501,11.723,5.809
874,0.826,35.914,27.169,30.165,24.11,15.624,11.846,5.81
875,0.82,36.011,27.231,30.137,24.099,15.625,11.806,5.769
876,0.826,36.051,27.271,30.184,24.11,15.706,11.968,5.809
877,0.817,35.648,27.22,30.137,24.106,15.707,12.011,5.769
878,0.816,35.798,27.231,30.156,24.103,15.666,11.93,5.809
879,0.839,35.953,27.255,30.175,24.12,15.829,12.173,5.972
880,0.813,36.252,27.267,30.127,24.106,15.668,12.053,5.811
881,0.82,35.871,27.279,30.146,24.106,15.707,11.971,5.769
882,0.833,35.963,27.24,30.146,24.099,15.585,11.929,5.728
883,0.833,36.098,27.193,30.165,24.103,15.625,11.929,5.85
884,0.826,35.774,27.204,30.175,24.103,15.462,11.807,5.729
885,0.839,35.818,27.208,30.156,24.113,15.542,11.684,5.85
886,0.833,35.905,27.263,30.127,24.106,15.299,11.56,5.851
887,0.836,35.992,27.154,30.136,24.099,15.093,11.437,5.688
888,0.862,35.715,27.219,30.165,24.12,15.091,11.599,5.89
889,0.84,35.789,27.224,30.127,24.11,14.928,11.397,5.77
890,0.852,35.914,27.278,30.136,24.103,14.886,11.436,5.768
891,0.843,35.983,27.255,30.127,24.11,14.764,11.436,5.728
892,0.843,35.715,27.181,30.136,24.106,14.844,11.517,5.809
893,0.836,35.818,27.133,30.127,24.096,14.763,11.396,5.728
894,0.846,35.982,27.184,30.146,24.11,14.925,11.598,5.809
895,0.827,36.022,27.247,30.137,24.113,15.211,11.56,5.81
896,0.82,35.696,27.228,30.108,24.096,15.255,11.437,5.688
897,0.83,35.894,27.232,30.146,24.113,15.824,11.599,5.727
898,0.817,35.973,27.216,30.127,24.103,16.196,11.478,5.687
899,0.813,36.041,27.255,30.146,24.11,16.484,11.477,5.768
900,0.816,35.629,27.263,30.127,24.106,16.731,11.396,5.809
901,0.833,35.778,27.205,30.146,24.113,17.018,11.436,5.81
902,0.82,35.885,27.134,30.108,24.103,17.143,11.233,5.688
903,0.826,35.963,27.211,30.146,24.106,17.348,11.271,5.768
904,0.826,35.705,27.231,30.146,24.11,17.39,11.231,5.728
905,0.83,35.798,27.251,30.098,24.096,17.31,10.946,5.605
906,0.846,35.934,27.197,30.136,24.106,17.39,10.943,5.686
907,0.853,35.945,27.204,30.127,24.103,17.472,10.943,5.809
908,0.846,35.772,27.235,30.127,24.11,17.473,10.902,5.728
909,0.853,35.876,27.247,30.127,24.103,17.473,10.821,5.727
910,0.862,36.002,27.193,30.136,24.11,17.514,10.901,5.727
911,0.849,35.955,27.091,30.136,24.103,17.392,11.024,5.646
912,0.846,35.839,27.179,30.127,24.11,17.35,11.229,5.686
913,0.853,36.011,27.212,30.165,24.113,17.512,11.637,5.849
914,0.84,36.032,27.227,30.108,24.092,17.189,11.641,5.688
915,0.836,35.639,27.298,30.117,24.11,17.145,11.885,5.687
916,0.83,35.692,27.248,30.117,24.099,17.063,12.01,5.687
917,0.817,35.817,27.224,30.127,24.106,16.981,12.133,5.768
918,0.826,35.905,27.282,30.127,24.099,16.818,12.215,5.728
919,0.833,35.676,27.252,30.127,24.11,16.816,12.338,5.768
920,0.826,35.789,27.154,30.117,24.103,16.572,12.217,5.728
921,0.826,35.905,27.215,30.117,24.106,16.529,12.176,5.646
922,0.852,36.021,27.227,30.155,24.12,16.732,12.46,5.767
923,0.833,35.619,27.232,30.108,24.096,16.368,12.259,5.647
924,0.836,35.75,27.251,30.117,24.106,16.364,12.217,5.686
925,0.852,35.885,27.251,30.117,24.106,16.323,12.176,5.727
926,0.849,35.992,27.22,30.117,24.103,16.364,12.216,5.727
927,0.853,35.744,27.231,30.107,24.103,16.283,12.298,5.687
928,0.872,35.885,27.259,30.127,24.11,16.363,12.421,5.727
929,0.879,36.002,27.181,30.127,24.106,16.323,12.544,5.687
930,0.869,36.051,27.2,30.098,24.103,16.242,12.667,5.564
931,0.879,35.725,27.243,30.126,24.12,16.322,12.993,5.766
932,0.856,35.818,27.255,30.098,24.099,15.998,12.956,5.728
933,0.846,35.924,27.263,30.107,24.106,15.913,13.078,5.727
934,0.853,35.973,27.259,30.117,24.103,15.912,13.079,5.646
935,0.843,35.705,27.236,30.117,24.099,15.912,13.16,5.686
936,0.839,35.846,27.173,30.088,24.099,15.831,13.039,5.646
937,0.843,35.972,27.254,30.117,24.117,16.033,13.119,5.727
938,0.846,35.974,27.193,30.117,24.11,16.076,13.039,5.809
939,0.84,35.792,27.204,30.088,24.092,16.077,12.753,5.606
940,0.852,35.934,27.239,30.126,24.117,16.361,12.913,5.767
941,0.846,36.031,27.29,30.108,24.106,16.242,12.711,5.647
942,0.859,35.763,27.287,30.107,24.106,16.282,12.628,5.686
943,0.853,35.674,27.263,30.098,24.103,16.201,12.383,5.646
944,0.866,35.817,27.162,30.117,24.106,16.119,12.299,5.727
945,0.856,35.886,27.184,30.107,24.103,15.915,12.136,5.646
946,0.869,35.589,27.247,30.117,24.113,15.831,11.972,5.727
947,0.872,35.673,27.208,30.127,24.113,15.708,11.889,5.727
948,0.866,35.769,27.188,30.05,24.092,15.382,11.481,5.565
949,0.869,35.905,27.219,30.107,24.099,15.297,11.599,5.685
950,0.879,35.772,27.255,30.107,24.106,15.093,11.56,5.646
951,0.872,35.885,27.29,30.107,24.106,15.01,11.519,5.727
952,0.863,36.011,27.224,30.088,24.103,14.765,11.559,5.646
953,0.866,36.089,27.192,30.126,24.11,14.763,11.681,5.767
954,0.853,35.486,27.208,30.098,24.113,14.763,11.683,5.606
955,0.846,35.633,27.192,30.098,24.106,14.722,11.683,5.645
956,0.866,35.798,27.274,30.136,24.12,14.925,11.967,5.767
957,0.833,35.838,27.193,30.108,24.099,14.886,11.726,5.728
958,0.843,35.723,27.219,30.127,24.106,15.048,11.805,5.727
959,0.846,35.875,27.231,30.088,24.106,15.091,11.765,5.687
960,0.862,35.973,27.275,30.107,24.106,15.172,11.764,5.727
961,0.859,36.012,27.244,30.098,24.103,15.173,11.561,5.565
962,0.882,35.648,27.177,30.107,24.11,15.254,11.681,5.766
963,0.866,35.769,27.118,30.107,24.11,15.296,11.56,5.687
964,0.869,35.866,27.191,30.079,24.099,15.174,11.356,5.524
965,0.879,35.953,27.262,30.117,24.11,15.336,11.476,5.725
966,0.885,35.686,27.208,30.107,24.11,15.256,11.355,5.646
967,0.882,35.827,27.22,30.117,24.106,15.337,11.273,5.686
968,0.872,35.924,27.216,30.098,24.099,15.256,11.272,5.605
969,0.885,36.184,27.27,30.107,24.103,15.296,11.353,5.645
970,0.872,35.573,27.224,30.059,24.103,15.093,11.151,5.645
971,0.872,35.739,27.142,30.107,24.106,15.091,11.352,5.645
972,0.879,35.866,27.199,30.117,24.12,15.172,11.435,5.808
973,0.869,35.675,27.192,30.079,24.099,14.929,11.233,5.566
974,0.872,35.731,27.204,30.107,24.106,15.171,11.353,5.563
975,0.872,35.875,27.263,30.088,24.103,15.376,11.313,5.645
976,0.846,35.982,27.228,30.117,24.113,15.541,11.353,5.645
977,0.862,35.542,27.185,30.079,24.103,15.787,11.232,5.605
978,0.862,35.653,27.266,30.117,24.113,15.87,11.312,5.645
979,0.866,35.769,27.248,30.088,24.106,15.912,11.232,5.605
980,0.869,35.866,27.154,30.078,24.096,15.953,11.109,5.564
981,0.882,35.675,27.227,30.126,24.12,16.198,11.23,5.726
982,0.872,35.769,27.196,30.088,24.11,16.078,11.027,5.605
983,0.866,35.885,27.223,30.088,24.099,15.995,11.025,5.604
984,0.872,35.973,27.247,30.088,24.103,16.035,10.822,5.604
985,0.879,35.59,27.255,30.107,24.106,15.914,10.901,5.686
986,0.879,35.701,27.228,30.069,24.103,15.79,10.658,5.564
987,0.885,35.866,27.22,30.097,24.11,15.87,10.737,5.726
988,0.905,35.886,27.255,30.069,24.106,15.749,10.575,5.565
989,0.889,35.666,27.177,30.05,24.103,15.585,10.492,5.523
990,0.905,35.846,27.227,30.116,24.12,15.625,10.614,5.725
991,0.882,35.915,27.204,30.079,24.11,15.503,10.533,5.646
992,0.889,35.983,27.22,30.098,24.106,15.258,10.573,5.564
993,0.885,35.705,27.255,30.088,24.103,15.215,10.574,5.563
994,0.895,35.856,27.263,30.098,24.099,14.97,10.614,5.645
995,0.873,35.944,27.201,30.069,24.103,14.846,10.655,5.483
996,0.879,35.983,27.22,30.078,24.106,14.885,10.778,5.603
997,0.876,35.724,27.247,30.088,24.113,14.845,10.779,5.686
998,0.869,35.808,27.224,30.05,24.092,14.56,10.657,5.564
999,0.869,35.972,27.15,30.088,24.11,14.638,10.737,5.685
1000,0.876,35.897,27.196,30.078,24.106,14.436,10.657,5.564
1001,0.885,35.772,27.216,30.078,24.106,14.353,10.656,5.604
1002,0.882,35.895,27.243,30.078,24.103,14.189,10.534,5.523
1003,0.882,36.011,27.247,30.078,24.106,14.147,10.573,5.685
1004,0.879,35.715,27.271,30.05,24.103,14.106,10.411,5.564
1005,0.892,35.827,27.24,30.107,24.113,14.065,10.409,5.645
1006,0.899,35.963,27.224,30.107,24.113,14.024,10.491,5.727
1007,0.886,36.002,27.259,30.05,24.092,13.779,10.247,5.484
1008,0.892,35.715,27.208,30.078,24.106,13.858,10.408,5.562
1009,0.886,35.827,27.208,30.069,24.106,13.737,10.369,5.563
1010,0.905,35.982,27.204,30.078,24.106,13.736,10.571,5.563
1011,0.882,36.022,27.255,30.059,24.096,13.533,10.655,5.563
1012,0.885,35.85,27.279,30.078,24.106,13.653,10.859,5.645
1013,0.879,35.963,27.271,30.069,24.106,13.45,10.902,5.605
1014,0.879,36.089,27.216,30.069,24.106,13.367,10.983,5.564
1015,0.885,36.205,27.227,30.088,24.117,13.61,11.269,5.726
1016,0.869,35.871,27.196,30.059,24.106,13.369,11.19,5.565
1017,0.885,36.001,27.235,30.069,24.103,13.325,11.23,5.604
1018,0.833,36.127,27.216,30.078,24.099,13.366,11.231,5.564
1019,0.865,36.196,27.188,30.078,24.103,13.488,11.231,5.685
1020,0.866,36.781,27.223,30.05,24.096,13.449,11.19,5.564
1021,0.872,36.931,27.259,30.078,24.106,13.611,11.189,5.645
1022,0.872,37.009,27.255,30.069,24.106,13.572,11.189,5.686
1023,0.879,37.029,27.216,30.04,24.096,13.531,10.986,5.524
1024,0.898,35.361,27.181,30.088,24.113,13.815,11.066,5.725
1025,0.892,35.469,27.2,30.05,24.106,13.737,11.026,5.565
1026,0.889,35.576,27.247,30.068,24.099,13.858,10.944,5.685
1027,0.882,35.577,27.204,30.059,24.099,13.859,10.821,5.564
1028,0.889,36.257,27.184,30.069,24.11,14.062,10.82,5.645
1029,0.895,36.389,27.212,30.04,24.092,14.105,10.739,5.564
1030,0.889,36.496,27.278,30.068,24.099,14.349,10.697,5.726
1031,0.885,36.113,27.267,30.078,24.113,14.514,10.819,5.809
1032,0.876,35.956,27.197,30.03,24.092,14.272,10.535,5.525
1033,0.885,36.089,27.169,30.059,24.103,14.432,10.736,5.644
1034,0.866,36.215,27.172,30.059,24.103,14.312,10.819,5.605
1035,0.866,35.995,27.219,30.059,24.099,14.351,10.983,5.686
1036,0.856,36.07,27.247,30.069,24.099,14.271,10.984,5.646
1037,0.856,36.224,27.24,30.126,24.103,14.351,10.984,5.727
1038,0.853,36.283,27.2,30.05,24.092,14.189,11.025,5.646
1039,0.862,36.082,27.247,30.049,24.099,14.147,11.066,5.645
1040,0.856,36.215,27.255,30.068,24.113,14.269,11.188,5.767
1041,0.83,36.293,27.201,30.03,24.089,13.985,10.905,5.525
1042,0.852,36.38,27.126,30.059,24.099,14.023,10.943,5.603
1043,0.856,36.131,27.199,30.059,24.103,13.983,10.902,5.645
1044,0.849,36.282,27.188,30.049,24.103,14.104,10.902,5.605
1045,0.866,36.389,27.27,30.03,24.099,14.227,10.739,5.564
1046,0.869,36.476,27.162,30.049,24.099,14.554,10.697,5.645
1047,0.856,36.19,27.172,30.04,24.096,14.882,10.575,5.605
1048,0.875,36.34,27.223,30.02,24.099,15.292,10.451,5.645
1049,0.882,36.486,27.278,30.087,24.117,15.825,10.532,5.727
1050,0.859,36.487,27.17,30.031,24.103,15.993,10.288,5.605
1051,0.866,36.343,27.192,30.068,24.106,16.279,10.367,5.645
1052,0.862,36.476,27.184,30.04,24.103,16.485,10.328,5.645
1053,0.853,36.573,27.212,30.068,24.106,16.65,10.652,5.645
1054,0.856,36.584,27.247,30.04,24.096,16.733,10.737,5.605
1055,0.833,36.363,27.29,30.068,24.11,16.815,10.982,5.686
1056,0.826,36.495,27.228,30.069,24.103,16.979,11.391,5.727
1057,0.81,36.554,27.181,30.03,24.099,16.736,11.314,5.524
1058,0.826,36.833,27.266,30.04,24.11,16.815,11.801,5.603
1059,0.813,36.414,27.193,30.04,24.106,16.735,11.806,5.645
1060,0.797,36.553,27.169,30.078,24.106,16.612,12.05,5.605
1061,0.813,36.612,27.168,30.03,24.099,16.407,12.052,5.564
1062,0.813,36.44,27.208,30.049,24.11,16.324,12.215,5.645
1063,0.803,36.439,27.227,30.03,24.106,16.12,12.135,5.523
1064,0.816,36.582,27.228,30.049,24.11,16.118,12.134,5.522
1065,0.839,36.709,27.228,30.078,24.124,16.077,12.256,5.766
1066,0.817,36.518,27.216,30.04,24.106,15.833,12.095,5.606
1067,0.826,36.65,27.227,30.059,24.11,15.79,12.012,5.564
1068,0.823,36.748,27.224,30.011,24.11,15.667,11.93,5.563
1069,0.826,36.854,27.153,30.03,24.113,15.666,12.01,5.604
1070,0.823,36.51,27.176,30.02,24.106,15.544,11.848,5.523
1071,0.826,36.679,27.204,30.039,24.11,15.583,11.806,5.685
1072,0.797,36.777,27.212,30.03,24.103,15.503,11.765,5.646
1073,0.797,36.826,27.247,30.02,24.106,15.258,11.724,5.483
1074,0.816,36.462,27.302,30.068,24.12,15.418,12.171,5.684
1075,0.787,36.573,27.217,30.04,24.113,15.216,12.256,5.564
1076,0.793,36.699,27.204,30.049,24.11,15.052,12.461,5.645
1077,0.787,36.739,27.235,30.03,24.106,14.847,12.666,5.523
1078,0.771,36.518,27.189,30.04,24.106,14.845,12.912,5.644
1079,0.77,36.67,27.2,30.03,24.106,14.601,12.955,5.483
1080,0.787,36.796,27.2,30.049,24.11,14.639,13.159,5.644
1081,0.774,36.835,27.231,30.059,24.11,14.517,13.283,5.645
1082,0.754,36.596,27.22,30.001,24.099,14.191,13.081,5.483
1083,0.787,36.747,27.255,30.049,24.106,14.228,13.241,5.562
1084,0.784,36.864,27.224,30.03,24.106,14.066,13.202,5.523
1085,0.787,36.903,27.22,30.049,24.106,13.983,13.121,5.563
1086,0.793,36.597,27.185,30.011,24.106,13.82,13.039,5.523
1087,0.8,36.747,27.27,30.039,24.103,13.696,13.038,5.603
1088,0.8,36.825,27.158,30.02,24.103,13.451,12.875,5.482
1089,0.807,36.769,27.18,30.039,24.11,13.408,12.995,5.562
1090,0.81,36.662,27.223,30.049,24.12,13.407,12.956,5.685
1091,0.79,36.748,27.224,29.992,24.099,13.082,12.711,5.483
1092,0.793,36.883,27.259,30.01,24.11,13.079,12.912,5.522
1093,0.806,36.568,27.22,30.02,24.103,12.997,12.833,5.522
1094,0.797,36.651,27.149,30.03,24.103,12.875,12.954,5.563
1095,0.784,36.767,27.176,30.011,24.106,12.711,12.874,5.523
1096,0.8,36.873,27.219,30.03,24.11,12.709,12.873,5.603
1097,0.777,36.424,27.204,30.001,24.106,12.465,12.873,5.564
1098,0.784,36.563,27.2,30.049,24.099,12.544,12.833,5.604
1099,0.813,36.718,27.223,30.049,24.117,12.504,12.995,5.686
1100,0.794,36.758,27.231,30.021,24.106,12.382,12.712,5.524
1101,0.8,36.595,27.278,30.02,24.106,12.421,12.628,5.563
1102,0.81,36.728,27.236,30.02,24.106,12.462,12.627,5.523
1103,0.816,36.844,27.204,30.02,24.11,12.869,12.546,5.522
1104,0.82,36.903,27.177,30.02,24.099,13.239,12.423,5.482
1105,0.846,36.252,27.215,30.03,24.113,13.812,12.381,5.562
1106,0.836,36.36,27.235,30.02,24.106,14.387,12.299,5.482
1107,0.849,36.495,27.083,30.02,24.099,14.718,12.054,5.44
1108,0.885,36.593,27.172,30.039,24.117,15.291,12.133,5.562
1109,0.859,36.632,27.215,30.011,24.11,15.581,11.89,5.523
1110,0.866,36.795,27.239,30.03,24.106,15.95,11.847,5.482
1111,0.866,36.893,27.197,30.02,24.11,16.076,11.725,5.481
1112,0.866,36.932,27.149,30.03,24.113,16.361,11.723,5.603
1113,0.843,36.53,27.18,30.04,24.106,16.405,11.561,5.482
1114,0.862,36.698,27.169,30.049,24.113,16.568,11.681,5.562
1115,0.859,36.786,27.235,30.021,24.106,16.814,11.642,5.604
1116,0.846,36.759,27.181,29.992,24.103,17.019,11.56,5.442
1117,0.862,36.605,27.208,30.049,24.11,17.468,11.722,5.562
1118,0.853,36.709,27.239,30.011,24.103,17.676,11.683,5.523
1119,0.859,36.787,27.275,30.02,24.11,17.882,11.642,5.644
1120,0.859,36.605,27.216,29.992,24.103,17.843,11.56,5.523
1121,0.866,36.584,27.114,30.02,24.117,18.087,11.559,5.603
1122,0.879,36.689,27.184,29.992,24.106,17.926,11.478,5.482
1123,0.882,36.806,27.176,30.01,24.106,18.006,11.477,5.603
1124,0.892,36.452,27.235,30.02,24.11,17.885,11.355,5.686
1125,0.882,36.515,27.236,30.001,24.096,17.721,11.191,5.442
1126,0.895,36.698,27.208,30.03,24.117,17.76,11.23,5.521
1127,0.892,36.748,27.208,30.02,24.11,17.476,11.068,5.522
1128,0.895,36.653,27.263,30.011,24.099,17.432,11.026,5.522
1129,0.889,36.767,27.197,30.001,24.106,17.391,10.863,5.482
1130,0.905,36.912,27.2,30.02,24.117,17.31,10.861,5.603
1131,0.902,36.971,27.177,29.992,24.106,17.187,10.698,5.482
1132,0.886,36.377,27.204,30.03,24.113,17.145,10.859,5.644
1133,0.885,36.524,27.239,30.03,24.117,16.982,10.902,5.645
1134,0.869,36.593,27.22,29.982,24.099,16.736,10.821,5.401
1135,0.866,36.689,27.185,30.01,24.106,16.896,10.901,5.562
1136,0.879,36.451,27.169,29.982,24.113,16.776,11.065,5.563
1137,0.876,36.583,27.215,30.001,24.106,16.816,11.066,5.604
1138,0.846,36.699,27.212,30.011,24.099,16.735,11.066,5.604
1139,0.859,36.758,27.196,30.03,24.106,16.774,11.148,5.604
1140,0.859,36.432,27.18,29.992,24.103,16.612,11.067,5.523
1141,0.862,36.582,27.231,30.01,24.11,16.651,11.188,5.644
1142,0.872,36.709,27.271,30.039,24.124,16.652,11.189,5.686
1143,0.863,36.691,27.263,29.973,24.096,16.408,10.946,5.442
1144,0.872,36.499,27.267,30.001,24.11,16.446,11.065,5.643
1145,0.879,36.65,27.224,30.001,24.106,16.202,10.985,5.564
1146,0.879,36.757,27.216,29.991,24.113,16.119,10.984,5.563
1147,0.879,36.902,27.224,29.991,24.106,15.996,11.066,5.563
1148,0.892,36.53,27.169,30.01,24.11,15.751,11.107,5.604
1149,0.886,36.641,27.168,29.972,24.103,15.545,10.945,5.442
1150,0.889,36.757,27.215,30.001,24.11,15.502,11.065,5.562
1151,0.889,36.519,27.263,30.03,24.12,15.502,11.229,5.766
1152,0.869,36.516,27.236,29.972,24.096,15.339,10.987,5.565
1153,0.869,36.66,27.216,30.001,24.11,15.5,11.066,5.604
1154,0.859,36.738,27.118,30.001,24.106,15.583,10.985,5.523
1155,0.856,36.538,27.176,29.991,24.103,15.828,11.066,5.563
1156,0.853,36.622,27.239,29.991,24.106,15.83,11.066,5.523
1157,0.853,36.757,27.2,30.02,24.113,16.033,11.188,5.644
1158,0.84,36.835,27.173,29.992,24.106,16.158,11.23,5.564
1159,0.856,36.414,27.192,29.991,24.11,16.362,11.515,5.563
1160,0.849,36.563,27.247,30.039,24.12,16.73,11.843,5.766
1161,0.833,36.641,27.24,29.973,24.099,16.734,11.765,5.484
1162,0.865,36.728,27.154,29.981,24.11,16.896,12.049,5.684
1163,0.862,36.576,27.133,29.991,24.103,16.939,12.174,5.605
1164,0.853,36.718,27.176,29.982,24.11,17.142,12.338,5.645
1165,0.869,36.844,27.208,30.001,24.103,17.267,12.38,5.564
1166,0.866,36.884,27.259,29.991,24.11,17.39,12.503,5.645
1167,0.866,36.481,27.208,29.991,24.11,17.472,12.626,5.605
1168,0.889,36.631,27.169,29.962,24.096,17.473,12.464,5.523
1169,0.892,36.757,27.254,30.01,24.113,17.676,12.625,5.685
1170,0.873,36.777,27.267,29.972,24.106,17.638,12.464,5.605
1171,0.879,36.576,27.185,29.981,24.103,17.556,12.544,5.604
1172,0.876,36.728,27.11,29.991,24.103,17.433,12.342,5.604
1173,0.869,36.835,27.16,30.001,24.113,17.229,12.421,5.645
1174,0.879,36.845,27.141,29.972,24.099,17.023,12.137,5.523
1175,0.863,36.577,27.227,29.981,24.11,16.899,12.256,5.685
1176,0.853,36.699,27.161,29.982,24.106,16.613,12.135,5.564
1177,0.853,36.834,27.184,29.962,24.099,16.326,12.134,5.523
1178,0.869,36.721,27.212,30.001,24.12,16.323,12.419,5.766
1179,0.846,36.518,27.227,29.982,24.103,15.998,12.3,5.606
1180,0.856,36.679,27.196,29.982,24.11,15.872,12.421,5.604
1181,0.872,36.767,27.134,29.972,24.103,15.831,12.381,5.604
1182,0.866,36.643,27.18,29.981,24.106,15.668,12.421,5.604
1183,0.866,36.719,27.157,29.953,24.103,15.422,12.462,5.523
1184,0.882,36.854,27.196,29.962,24.106,15.338,12.463,5.563
1185,0.876,36.932,27.243,29.962,24.106,15.134,12.422,5.685
1186,0.882,36.626,27.197,29.962,24.106,14.888,12.3,5.524
1187,0.898,36.786,27.204,29.991,24.117,15.008,12.38,5.725
1188,0.882,36.854,27.235,29.953,24.11,14.684,12.218,5.565
1189,0.892,36.941,27.212,29.962,24.113,14.64,12.054,5.604
1190,0.899,36.53,27.188,30.02,24.099,14.395,12.052,5.564
1191,0.895,36.641,27.192,29.963,24.11,14.312,11.93,5.645
1192,0.876,36.767,27.192,29.953,24.099,14.067,11.726,5.564
1193,0.889,36.864,27.223,29.981,24.113,13.983,11.764,5.645
1194,0.882,36.529,27.274,29.972,24.12,13.901,11.724,5.645
1195,0.869,36.641,27.173,29.943,24.096,13.494,11.479,5.442
1196,0.885,36.795,27.204,29.962,24.113,13.571,11.68,5.643
1197,0.869,36.807,27.216,29.962,24.106,13.449,11.845,5.564
1198,0.856,36.567,27.216,29.962,24.11,13.448,12.091,5.645
1199,0.872,36.689,27.103,29.962,24.099,13.367,12.337,5.564
1200,0.879,36.815,27.176,29.953,24.117,13.447,12.665,5.685
1201,0.869,36.836,27.192,29.943,24.099,13.408,12.79,5.605
1202,0.892,36.596,27.219,29.952,24.106,13.732,13.035,5.686
1203,0.902,36.728,27.231,29.972,24.117,14.061,13.363,5.809
1204,0.886,36.787,27.228,29.914,24.092,14.227,13.244,5.485
1205,0.911,36.902,27.212,29.943,24.106,14.879,13.365,5.603
1206,0.908,36.616,27.188,29.943,24.106,15.414,13.325,5.523
1207,0.912,36.728,27.243,29.962,24.103,15.867,13.447,5.603
1208,0.908,36.816,27.169,29.933,24.106,16.359,13.326,5.482
1209,0.925,36.692,27.176,29.943,24.11,16.893,13.366,5.644
1210,0.912,36.652,27.188,29.933,24.106,17.305,13.163,5.523
1211,0.912,36.796,27.231,29.943,24.106,17.837,13.202,5.522
1212,0.922,36.912,27.267,29.972,24.12,18.331,13.202,5.766
1213,0.899,36.539,27.244,29.943,24.099,18.295,12.877,5.484
1214,0.902,36.651,27.154,29.933,24.103,18.579,12.873,5.522
1215,0.895,36.757,27.184,29.952,24.106,18.744,12.833,5.482
1216,0.899,36.864,27.215,29.953,24.11,18.827,12.832,5.562
1217,0.899,36.596,27.204,29.933,24.099,18.788,12.588,5.482
1218,0.912,36.737,27.177,29.952,24.113,18.909,12.627,5.644
1219,0.905,36.844,27.176,29.933,24.106,18.666,12.505,5.605
1220,0.889,36.922,27.211,29.933,24.103,18.542,12.382,5.482
1221,0.912,36.491,27.251,29.971,24.113,18.663,12.34,5.603
1222,0.915,36.583,27.24,29.943,24.103,18.42,12.217,5.645
1223,0.922,36.709,27.2,29.952,24.11,18.295,12.176,5.564
1224,0.925,36.787,27.044,29.953,24.099,18.132,11.972,5.523
1225,0.931,36.452,27.167,29.953,24.106,17.967,11.929,5.563
1226,0.925,36.583,27.219,29.914,24.106,17.763,11.766,5.523
1227,0.922,36.709,27.149,29.933,24.113,17.72,11.683,5.644
1228,0.938,36.758,27.188,29.952,24.106,17.557,11.642,5.645
1229,0.928,36.586,27.184,29.905,24.096,17.108,11.357,5.401
1230,0.931,36.757,27.251,29.933,24.11,17.063,11.395,5.521
1231,0.931,36.845,27.22,29.914,24.106,16.859,11.354,5.522
1232,0.931,36.874,27.177,29.933,24.103,16.694,11.191,5.644
1233,0.909,36.501,27.11,29.933,24.103,16.489,11.068,5.483
1234,0.915,36.65,27.168,29.952,24.11,16.447,10.985,5.644
1235,0.896,36.748,27.219,29.914,24.099,16.243,10.781,5.483
1236,0.899,36.883,27.22,29.943,24.106,16.078,10.779,5.644
1237,0.915,36.635,27.196,29.981,24.117,16.036,10.901,5.686
1238,0.879,36.719,27.169,29.905,24.106,15.792,10.78,5.524
1239,0.898,36.815,27.235,29.914,24.106,15.708,10.901,5.563
1240,0.895,36.519,27.216,29.914,24.113,15.666,10.983,5.523
1241,0.905,36.554,27.107,29.933,24.11,15.666,10.984,5.603
1242,0.905,36.651,27.183,29.962,24.106,15.503,10.984,5.564
1243,0.905,36.767,27.169,29.953,24.11,15.461,11.147,5.645
1244,0.902,36.442,27.184,29.905,24.103,15.501,11.026,5.564
1245,0.908,36.525,27.239,29.923,24.103,15.786,11.066,5.563
1246,0.928,36.727,27.216,30.019,24.12,16.277,11.31,5.766
1247,0.915,36.748,27.181,29.924,24.099,16.363,11.069,5.606
1248,0.928,36.394,27.231,29.923,24.106,16.771,11.148,5.523
1249,0.918,36.496,27.196,29.923,24.103,16.978,11.067,5.563
1250,0.941,36.65,27.11,29.933,24.11,17.265,11.066,5.604
1251,0.925,36.719,27.152,29.904,24.103,17.349,10.904,5.482
1252,0.909,36.346,27.188,29.933,24.113,17.472,11.024,5.562
1253,0.921,36.486,27.204,29.924,24.11,17.432,10.822,5.563
1254,0.902,36.554,27.212,29.895,24.096,17.31,10.739,5.482
1255,0.912,36.66,27.188,29.923,24.106,17.309,10.779,5.603
1256,0.895,36.422,27.176,29.923,24.106,17.146,10.657,5.564
1257,0.892,36.553,27.227,29.923,24.106,17.063,10.656,5.563
1258,0.869,36.651,27.216,29.914,24.11,16.9,10.656,5.523
1259,0.885,36.719,27.173,29.981,24.113,16.776,10.615,5.603
1260,0.885,36.48,27.169,29.905,24.103,16.572,10.615,5.482
1261,0.879,36.621,27.211,29.914,24.11,16.407,10.696,5.562
1262,0.898,36.738,27.216,29.933,24.11,16.243,10.778,5.645
1263,0.895,36.71,27.231,29.885,24.092,15.794,10.657,5.361
1264,0.889,36.365,27.216,29.923,24.106,15.749,10.859,5.561
1265,0.908,36.515,27.181,29.923,24.106,15.585,10.942,5.563
1266,0.905,36.593,27.173,29.923,24.11,15.503,11.024,5.563
1267,0.908,36.498,27.211,29.914,24.099,15.38,11.025,5.441
1268,0.915,36.43,27.099,29.923,24.11,15.46,11.229,5.562
1269,0.905,36.563,27.164,29.895,24.096,15.461,11.068,5.523
1270,0.912,36.66,27.196,29.914,24.106,15.664,11.229,5.522
1271,0.912,36.393,27.247,29.933,24.12,16.073,11.475,5.685
1272,0.889,36.419,27.216,29.885,24.103,16.036,11.355,5.605
1273,0.899,36.553,27.216,29.914,24.113,16.239,11.476,5.564
1274,0.886,36.66,27.118,29.895,24.11,16.363,11.436,5.523
1275,0.885,36.278,27.156,29.904,24.11,16.486,11.558,5.603
1276,0.879,36.379,27.215,29.885,24.106,16.487,11.519,5.482
1277,0.879,36.524,27.177,29.923,24.11,16.528,11.721,5.603
1278,0.869,36.593,27.188,29.904,24.106,16.488,11.642,5.604
1279,0.872,36.248,27.188,29.904,24.106,16.609,11.56,5.523
1280,0.872,36.408,27.255,29.952,24.124,16.692,11.803,5.725
1281,0.863,36.486,27.22,29.895,24.099,16.449,11.684,5.484
1282,0.879,36.573,27.177,29.904,24.11,16.446,11.764,5.44
1283,0.866,36.21,27.133,29.895,24.103,16.284,11.683,5.521
1284,0.882,36.36,27.133,29.904,24.11,16.241,11.723,5.563
1285,0.879,36.447,27.156,29.885,24.103,16.078,11.683,5.482
1286,0.889,36.535,27.211,29.904,24.106,15.955,11.723,5.562
1287,0.879,36.372,27.177,29.904,24.106,15.831,11.601,5.523
1288,0.898,36.496,27.153,29.885,24.106,15.546,11.56,5.441
1289,0.895,36.65,27.235,29.923,24.127,15.705,11.64,5.643
1290,0.889,36.642,27.236,29.885,24.11,15.382,11.397,5.523
1291,0.892,36.258,27.169,29.894,24.106,15.256,11.476,5.522
1292,0.873,36.379,27.114,29.894,24.11,15.133,11.396,5.441
1293,0.863,36.505,27.168,29.914,24.11,15.091,11.395,5.603
1294,0.862,36.698,27.149,29.885,24.106,14.928,11.314,5.482
1295,0.856,36.384,27.223,29.904,24.11,14.927,11.394,5.44
1296,0.853,36.496,27.181,29.875,24.106,14.764,11.395,5.481
1297,0.859,36.612,27.165,29.885,24.103,14.763,11.395,5.4
1298,0.866,36.364,27.219,29.923,24.113,14.844,11.761,5.643
1299,0.843,36.294,27.228,29.885,24.113,14.723,11.683,5.564
1300,0.859,36.447,27.212,29.904,24.11,14.762,11.804,5.523
1301,0.853,36.544,27.13,29.885,24.103,14.763,11.887,5.482
1302,0.856,36.296,27.172,29.894,24.099,14.763,12.05,5.562
1303,0.856,36.37,27.165,29.885,24.096,14.763,12.133,5.441
1304,0.866,36.524,27.207,29.894,24.106,14.885,12.337,5.562
1305,0.859,36.593,27.263,29.894,24.106,14.886,12.339,5.563
1306,0.862,36.153,27.193,29.923,24.103,14.804,12.339,5.401
1307,0.882,36.33,27.192,29.923,24.117,14.926,12.624,5.562
1308,0.869,36.428,27.212,29.885,24.106,14.805,12.505,5.482
1309,0.872,36.506,27.192,29.885,24.11,14.763,12.626,5.522
1310,0.872,36.219,27.145,29.894,24.103,14.681,12.505,5.441
1311,0.876,36.369,27.153,29.894,24.106,14.558,12.504,5.562
1312,0.853,36.496,27.161,29.875,24.106,14.435,12.382,5.441
1313,0.856,36.564,27.192,29.885,24.11,14.515,12.421,5.562
1314,0.853,36.382,27.247,29.885,24.12,14.475,12.34,5.563
1315,0.84,36.486,27.228,29.856,24.096,14.272,12.258,5.482
1316,0.849,36.66,27.212,29.894,24.11,14.392,12.298,5.522
1317,0.836,36.681,27.185,29.875,24.11,14.352,12.339,5.482
1318,0.836,36.278,27.231,29.885,24.106,14.352,12.299,5.562
1319,0.833,36.427,27.122,29.875,24.11,14.271,12.38,5.523
1320,0.846,36.554,27.16,29.894,24.11,14.392,12.584,5.563
1321,0.836,36.574,27.165,29.866,24.099,14.19,12.586,5.401
1322,0.849,36.219,27.207,29.875,24.106,14.269,12.708,5.643
1323,0.849,36.369,27.247,29.894,24.11,14.392,12.872,5.605
1324,0.836,36.428,27.224,29.847,24.099,14.149,12.751,5.401
1325,0.836,36.563,27.134,29.884,24.103,14.35,12.831,5.562
1326,0.849,36.382,27.164,29.885,24.103,14.23,12.832,5.441
1327,0.846,36.515,27.235,29.856,24.11,14.228,12.832,5.562
1328,0.853,36.593,27.157,29.875,24.106,14.269,12.71,5.401
1329,0.856,36.421,27.164,29.885,24.113,14.31,12.709,5.643
1330,0.846,36.429,27.168,29.856,24.106,14.27,12.587,5.483
1331,0.853,36.573,27.227,29.875,24.106,14.432,12.545,5.481
1332,0.862,36.708,27.251,29.894,24.12,14.759,12.667,5.684
1333,0.84,36.221,27.208,29.856,24.103,14.64,12.465,5.524
1334,0.839,36.34,27.173,29.875,24.103,14.843,12.463,5.522
1335,0.833,36.495,27.176,29.875,24.103,15.048,12.422,5.441
1336,0.826,36.545,27.18,29.856,24.113,15.253,12.422,5.562
1337,0.826,36.248,27.176,29.856,24.103,15.296,12.381,5.482
1338,0.833,36.398,27.184,29.923,24.113,15.622,12.462,5.603
1339,0.823,36.525,27.145,29.856,24.11,15.747,12.463,5.604
1340,0.81,36.593,27.203,29.856,24.103,15.87,12.544,5.523
1341,0.826,36.277,27.243,29.884,24.124,16.075,12.707,5.603
1342,0.82,36.36,27.212,29.846,24.11,15.995,12.587,5.482
1343,0.826,36.495,27.181,29.884,24.106,16.117,12.667,5.562
1344,0.836,36.554,27.11,29.856,24.106,15.915,12.546,5.482
1345,0.839,36.258,27.172,29.884,24.11,15.872,12.586,5.562
1346,0.839,36.36,27.2,29.856,24.106,15.79,12.464,5.482
1347,0.839,36.505,27.161,29.875,24.11,15.87,12.463,5.522
1348,0.843,36.535,27.145,29.856,24.106,15.749,12.341,5.441
1349,0.843,36.334,27.16,29.856,24.103,15.789,12.258,5.399
1350,0.856,36.495,27.227,29.904,24.117,15.992,12.217,5.684
1351,0.84,36.564,27.224,29.866,24.106,15.872,12.054,5.564
1352,0.839,36.593,27.153,29.865,24.103,15.831,11.971,5.563
1353,0.843,36.296,27.106,29.856,24.11,15.749,11.807,5.523
1354,0.836,36.437,27.141,29.865,24.113,15.667,11.684,5.563
1355,0.82,36.525,27.168,29.846,24.099,15.585,11.52,5.401
1356,0.826,36.372,27.184,29.875,24.103,15.503,11.559,5.521
1357,0.82,36.285,27.173,29.894,24.113,15.38,11.478,5.644
1358,0.813,36.36,27.157,29.837,24.089,15.134,11.192,5.401
1359,0.8,36.495,27.227,29.875,24.106,15.051,11.149,5.521
1360,0.816,36.516,27.177,29.856,24.106,14.928,11.108,5.563
1361,0.82,36.631,27.114,29.865,24.106,14.846,11.189,5.523
1362,0.81,36.747,27.148,29.837,24.103,14.601,11.23,5.482
1363,0.813,36.844,27.168,29.865,24.106,14.598,11.271,5.562
1364,0.813,36.04,27.157,29.846,24.106,14.314,11.15,5.441
1365,0.839,36.185,27.239,29.856,24.103,14.108,11.271,5.481
1366,0.839,36.359,27.212,29.961,24.117,14.146,11.475,5.644
1367,0.833,36.39,27.169,29.866,24.11,13.821,11.355,5.564
1368,0.826,36.342,27.239,29.856,24.11,13.655,11.395,5.482
1369,0.836,36.466,27.185,29.846,24.103,13.45,11.354,5.481
1370,0.833,36.602,27.075,29.856,24.113,13.448,11.354,5.522
1371,0.833,36.661,27.171,29.837,24.106,13.326,11.313,5.4
1372,0.82,36.259,27.204,29.875,24.117,13.406,11.313,5.562
1373,0.826,36.398,27.204,29.875,24.113,13.326,11.353,5.645
1374,0.81,36.477,27.208,29.827,24.106,13.122,11.191,5.361
1375,0.816,36.564,27.177,29.865,24.103,13.404,11.149,5.48
1376,0.816,36.306,27.145,29.865,24.113,13.651,11.189,5.481
1377,0.813,36.437,27.184,29.846,24.099,13.857,11.068,5.522
1378,0.807,36.535,27.188,29.846,24.099,14.062,10.985,5.482
1379,0.81,36.612,27.11,29.875,24.106,14.349,11.025,5.562
1380,0.8,36.287,27.152,29.837,24.099,14.352,10.863,5.441
1381,0.803,36.456,27.184,29.827,24.106,14.555,10.942,5.521
1382,0.823,36.583,27.247,29.865,24.117,14.801,10.984,5.644
1383,0.817,36.824,27.232,29.808,24.099,14.681,10.862,5.401
1384,0.816,36.212,27.235,29.846,24.113,14.965,10.861,5.562
1385,0.836,36.34,27.185,29.846,24.106,15.334,10.739,5.482
1386,0.833,36.457,27.184,29.865,24.113,15.785,10.738,5.522
1387,0.82,36.305,27.208,29.837,24.099,15.952,10.657,5.441
1388,0.833,36.341,27.13,29.846,24.11,16.198,10.696,5.44
1389,0.83,36.438,27.141,29.827,24.103,16.403,10.534,5.481
1390,0.83,36.554,27.156,29.846,24.106,16.568,10.492,5.44
1391,0.839,36.181,27.243,29.875,24.12,16.854,10.573,5.603
1392,0.82,36.235,27.22,29.818,24.099,16.776,10.289,5.482
1393,0.82,36.379,27.185,29.836,24.106,16.856,10.245,5.522
1394,0.797,36.467,27.165,29.865,24.106,16.857,10.123,5.482
1395,0.797,36.228,27.165,29.846,24.106,16.857,10.081,5.562
1396,0.8,36.35,27.219,29.827,24.096,16.776,9.999,5.482
1397,0.813,36.505,27.146,29.855,24.106,16.816,10.039,5.522
1398,0.813,36.554,27.137,29.837,24.103,16.653,9.918,5.563
1399,0.803,36.152,27.18,29.817,24.099,16.53,9.754,5.401
1400,0.803,36.359,27.219,29.875,24.12,16.651,9.915,5.602
1401,0.8,36.428,27.185,29.846,24.106,16.57,9.754,5.564
1402,0.82,36.506,27.114,29.856,24.11,16.488,9.752,5.523
1403,0.82,36.113,27.078,29.846,24.103,16.406,9.63,5.522
1404,0.823,36.292,27.156,29.837,24.11,16.324,9.792,5.522
1405,0.823,36.37,27.188,29.836,24.099,16.079,9.753,5.482
1406,0.83,36.457,27.196,29.846,24.106,16.117,9.996,5.522
1407,0.826,36.132,27.204,29.856,24.11,16.158,10.121,5.603
1408,0.826,36.225,27.169,29.808,24.099,15.956,10.081,5.36
1409,0.836,36.36,27.239,29.846,24.106,16.157,10.325,5.521
1410,0.833,36.39,27.165,29.837,24.099,16.159,10.408,5.482
1411,0.833,36.246,27.083,29.836,24.113,16.2,10.491,5.481
1412,0.82,36.398,27.16,29.827,24.106,16.037,10.491,5.481
1413,0.823,36.525,27.161,29.846,24.113,16.035,10.573,5.481
1414,0.813,36.487,27.161,29.817,24.103,15.873,10.492,5.481
1415,0.803,36.219,27.207,29.855,24.11,15.831,10.654,5.481
1416,0.81,36.388,27.196,29.865,24.117,15.79,10.778,5.684
1417,0.794,36.429,27.138,29.808,24.099,15.464,10.494,5.402
1418,0.8,36.103,27.223,29.826,24.103,15.542,10.654,5.562
1419,0.79,36.148,27.165,29.827,24.099,15.665,10.574,5.482
1420,0.787,36.273,27.172,29.846,24.106,15.829,10.533,5.522
1421,0.8,36.351,27.145,29.827,24.099,15.952,10.451,5.441
1422,0.803,36.16,27.153,29.846,24.106,16.157,10.491,5.562
1423,0.8,36.244,27.207,29.837,24.106,16.24,10.491,5.523
1424,0.813,36.389,27.231,29.817,24.103,16.363,10.369,5.482
1425,0.82,36.515,27.185,29.875,24.113,16.567,10.571,5.644
1426,0.813,36.046,27.169,29.837,24.11,16.529,10.492,5.523
1427,0.826,36.166,27.208,29.827,24.103,16.61,10.41,5.563
1428,0.817,36.283,27.184,29.817,24.099,16.651,10.45,5.563
1429,0.82,36.37,27.169,29.836,24.113,16.692,10.572,5.523
1430,0.817,35.959,27.153,29.808,24.096,16.652,10.492,5.441
1431,0.82,36.127,27.2,29.836,24.11,16.774,10.735,5.521
1432,0.807,36.234,27.227,29.846,24.106,16.816,10.9,5.563
1433,0.8,36.274,27.224,29.817,24.099,16.694,10.821,5.401
1434,0.81,36.063,27.212,29.827,24.106,16.774,11.186,5.643
1435,0.803,36.186,27.161,29.836,24.113,16.734,11.312,5.483
1436,0.8,36.321,27.149,29.827,24.106,16.896,11.435,5.603
1437,0.787,36.332,27.203,29.798,24.103,16.979,11.477,5.442
1438,0.787,36.207,27.161,29.846,24.113,17.102,11.721,5.562
1439,0.79,36.34,27.149,29.798,24.103,17.104,11.683,5.441
1440,0.8,36.466,27.168,29.846,24.106,17.225,11.926,5.562
1441,0.794,36.487,27.204,29.837,24.113,17.308,12.051,5.645
1442,0.784,35.998,27.177,29.798,24.096,16.984,11.971,5.361
1443,0.806,36.147,27.188,29.826,24.113,17.143,12.336,5.521
1444,0.803,36.244,27.091,29.827,24.106,17.145,12.584,5.441
1445,0.816,36.245,27.136,29.827,24.106,17.226,12.789,5.521
1446,0.807,36.207,27.184,29.817,24.106,17.227,12.994,5.482
1447,0.826,36.35,27.122,29.836,24.11,17.511,13.241,5.562
1448,0.813,36.438,27.145,29.817,24.106,17.433,13.365,5.482
1449,0.829,36.017,27.18,29.817,24.106,17.513,13.407,5.562
1450,0.826,36.08,27.227,29.846,24.12,17.636,13.57,5.645
1451,0.81,36.157,27.192,29.798,24.096,17.434,13.368,5.442
1452,0.81,36.292,27.137,29.836,24.11,17.554,13.488,5.521
1453,0.8,36.13,27.106,29.827,24.11,17.474,13.327,5.482
1454,0.797,36.253,27.183,29.836,24.11,17.473,13.325,5.644
1455,0.797,36.351,27.188,29.808,24.106,17.31,13.122,5.483
1456,0.797,36.457,27.204,29.817,24.113,17.349,13.079,5.481
1457,0.79,35.959,27.138,29.817,24.103,17.39,12.876,5.481
1458,0.787,36.089,27.164,29.817,24.11,17.35,12.67,5.44
1459,0.806,36.253,27.223,29.846,24.12,17.431,12.749,5.643
1460,0.8,36.283,27.216,29.808,24.106,17.188,12.466,5.523
1461,0.816,36.034,27.122,29.817,24.11,17.063,12.3,5.482
1462,0.836,36.185,27.043,29.817,24.103,16.859,12.095,5.44
1463,0.839,36.302,27.14,29.827,24.11,16.776,12.012,5.562
1464,0.852,36.351,27.149,29.798,24.103,16.531,11.686,5.401
1465,0.875,36.112,27.227,29.836,24.11,16.488,11.642,5.562
1466,0.869,36.253,27.134,29.836,24.11,16.243,11.519,5.523
1467,0.876,36.341,27.121,29.798,24.103,15.997,11.274,5.36
1468,0.908,36.399,27.168,29.807,24.106,15.913,11.394,5.48
1469,0.918,36.064,27.184,29.798,24.11,15.912,11.273,5.481
1470,0.915,36.214,27.118,29.826,24.11,15.953,11.353,5.481
1471,0.935,36.331,27.145,29.808,24.106,16.035,11.435,5.4
1472,0.931,36.687,27.153,29.817,24.113,16.158,11.517,5.562
1473,0.918,36.019,27.172,29.798,24.099,16.078,11.477,5.401
1474,0.925,36.166,27.223,29.807,24.11,16.28,11.64,5.521
1475,0.931,36.283,27.243,29.855,24.113,16.445,11.763,5.603
1476,0.912,36.13,27.181,29.789,24.096,16.202,11.561,5.36
1477,0.944,36.186,27.173,29.817,24.106,16.322,11.6,5.48
1478,0.941,36.302,27.2,29.807,24.106,16.201,11.6,5.481
1479,0.938,36.399,27.122,29.817,24.113,16.2,11.641,5.522
1480,0.938,35.968,27.141,29.798,24.103,16.037,11.56,5.441
1481,0.958,36.089,27.164,29.817,24.113,15.995,11.64,5.521
1482,0.971,36.186,27.161,29.798,24.106,15.872,11.519,5.441
1483,0.984,36.263,27.215,29.807,24.106,15.831,11.437,5.44
1484,1.017,36.475,27.239,29.836,24.124,15.83,11.517,5.643
1485,1.01,36.554,27.169,29.817,24.106,15.668,11.477,5.483
1486,1.01,36.689,27.137,29.807,24.113,15.625,11.436,5.522
1487,1.01,36.748,27.188,29.817,24.106,15.462,11.314,5.441
1488,1.017,35.684,27.145,29.817,24.113,15.42,11.394,5.44
1489,1.023,35.798,27.133,29.798,24.106,15.176,11.354,5.399
1490,1.049,35.953,27.145,29.807,24.106,15.214,11.517,5.48
1491,1.046,36.021,27.176,29.807,24.113,15.092,11.599,5.481
1492,1.027,36.061,27.204,29.779,24.099,14.888,11.56,5.318
1493,1.04,36.214,27.216,29.807,24.11,14.967,11.803,5.48
1494,1.033,36.321,27.185,29.798,24.103,14.927,11.887,5.44
1495,1.027,36.361,27.169,29.807,24.106,14.886,11.888,5.481
1496,1.027,36.189,27.153,29.798,24.113,14.886,11.888,5.481
1497,1.023,36.34,27.2,29.798,24.11,15.048,11.928,5.481
1498,1.001,36.419,27.134,29.778,24.106,15.091,11.929,5.481
1499,1.004,36.467,27.153,29.817,24.103,15.213,11.929,5.481
1500,1.014,35.921,27.192,29.846,24.12,15.458,12.051,5.644
1501,0.988,35.992,27.212,29.779,24.099,15.42,11.808,5.483
1502,1.01,36.108,27.216,29.797,24.11,15.542,11.765,5.481
1503,1.01,36.148,27.188,29.778,24.106,15.624,11.561,5.481
1504,1.004,35.937,27.141,29.807,24.113,15.869,11.559,5.481
1505,1.01,36.069,27.153,29.798,24.103,16.034,11.397,5.44
1506,1.02,36.186,27.203,29.798,24.11,16.564,11.395,5.481
1507,1.01,36.637,27.145,29.807,24.11,16.854,11.314,5.481
1508,1.01,36.795,27.121,29.779,24.096,17.264,11.028,5.318
1509,1.023,36.941,27.16,29.817,24.113,18.081,11.066,5.52
1510,1.01,37.0,27.215,29.798,24.11,18.78,10.985,5.522
1511,1.017,35.543,27.2,29.807,24.106,19.641,10.944,5.522
1512,1.004,35.605,27.13,29.779,24.106,20.3,10.984,5.482
1513,1.017,35.74,27.11,29.817,24.11,21.039,11.269,5.562
1514,1.01,35.837,27.09,29.769,24.099,21.656,11.353,5.482
1515,1.004,35.867,27.164,29.807,24.113,22.312,11.638,5.562
1516,0.994,36.011,27.215,29.817,24.117,22.888,12.088,5.685
1517,0.974,36.128,27.161,29.788,24.099,22.975,11.971,5.361
1518,0.99,36.196,27.149,29.807,24.11,23.301,12.336,5.521
1519,0.981,35.813,27.2,29.788,24.106,23.549,12.38,5.522
1520,0.951,35.962,27.216,29.807,24.106,23.632,12.665,5.563
1521,0.951,36.079,27.161,29.798,24.103,23.714,12.627,5.441
1522,0.951,36.157,27.086,29.807,24.117,23.715,12.749,5.521
1523,0.925,35.908,27.035,29.798,24.099,23.593,12.588,5.4
1524,0.918,36.031,27.136,29.798,24.11,23.429,12.586,5.521
1525,0.928,36.156,27.192,29.826,24.113,23.55,12.708,5.685
1526,0.905,36.139,27.157,29.76,24.092,23.429,12.425,5.402
1527,0.912,35.899,27.164,29.788,24.11,23.428,12.422,5.48
1528,0.895,36.021,27.18,29.788,24.106,23.428,12.3,5.481
1529,0.886,36.147,27.227,29.778,24.11,23.347,12.217,5.481
1530,0.879,36.138,27.161,29.759,24.096,23.021,12.094,5.4
1531,0.889,36.052,27.083,29.797,24.113,22.814,12.134,5.562
1532,0.85,36.176,27.129,29.798,24.103,22.527,12.093,5.482
1533,0.856,36.273,27.113,29.788,24.103,22.24,12.093,5.4
1534,0.866,36.092,27.172,29.836,24.113,22.156,12.134,5.562
1535,0.83,35.917,27.215,29.769,24.103,21.708,12.012,5.523
1536,0.826,36.069,27.146,29.826,24.106,21.378,11.97,5.482
1537,0.817,36.157,27.137,29.779,24.106,21.008,11.848,5.481
1538,0.82,35.851,27.184,29.797,24.113,20.639,11.887,5.562
1539,0.8,35.905,27.169,29.769,24.103,20.188,11.685,5.523
1540,0.816,36.069,27.098,29.817,24.113,19.858,11.723,5.522
1541,0.807,36.147,27.144,29.798,24.106,19.611,11.601,5.482
1542,0.807,35.86,27.153,29.769,24.099,19.161,11.316,5.44
1543,0.816,36.011,27.207,29.817,24.117,19.116,11.475,5.562
1544,0.81,36.108,27.212,29.779,24.106,18.628,11.233,5.441
1545,0.81,36.176,27.173,29.797,24.103,18.42,11.149,5.481
1546,0.803,35.861,27.157,29.778,24.099,18.092,10.945,5.481
1547,0.81,36.011,27.18,29.797,24.106,17.886,10.943,5.562
1548,0.784,36.099,27.18,29.788,24.099,17.559,10.781,5.482
1549,0.806,36.205,27.11,29.807,24.11,17.474,10.86,5.522
1550,0.81,35.909,27.152,29.798,24.12,17.27,10.942,5.685
1551,0.781,36.011,27.161,29.74,24.096,16.821,10.781,5.483
1552,0.78,36.147,27.215,29.797,24.11,16.897,11.064,5.481
1553,0.774,36.196,27.208,29.778,24.11,16.735,11.107,5.522
1554,0.764,35.88,27.212,29.788,24.11,16.896,11.27,5.563
1555,0.77,36.021,27.161,29.769,24.106,17.061,11.272,5.482
1556,0.774,36.147,27.137,29.797,24.11,17.469,11.353,5.562
1557,0.767,36.148,27.18,29.769,24.103,17.88,11.395,5.482
1558,0.764,35.832,27.102,29.769,24.106,18.534,11.314,5.522
1559,0.777,36.03,27.16,29.826,24.127,19.435,11.516,5.644
1560,0.758,36.089,27.153,29.788,24.106,20.013,11.355,5.523
1561,0.751,36.483,27.168,29.778,24.103,20.629,11.313,5.563
1562,0.764,35.95,27.2,29.778,24.099,21.164,11.272,5.563
1563,0.777,36.098,27.184,29.788,24.11,21.535,11.231,5.523
1564,0.767,36.148,27.098,29.769,24.096,21.742,11.068,5.482
1565,0.78,35.947,27.152,29.797,24.113,21.947,11.148,5.522
1566,0.777,35.916,27.161,29.807,24.117,21.99,11.067,5.644
1567,0.771,36.011,27.161,29.74,24.092,21.665,10.741,5.442
1568,0.777,36.156,27.161,29.787,24.103,21.621,10.819,5.521
1569,0.784,35.832,27.153,29.769,24.106,21.336,10.779,5.522
1570,0.777,35.915,27.192,29.778,24.11,21.13,10.698,5.522
1571,0.764,36.011,27.212,29.769,24.103,20.64,10.616,5.441
1572,0.767,36.128,27.181,29.778,24.113,20.351,10.655,5.521
1573,0.754,35.889,27.102,29.769,24.099,19.86,10.615,5.522
1574,0.754,36.05,27.129,29.778,24.103,19.611,10.818,5.603
1575,0.761,36.185,27.145,29.807,24.124,19.243,11.064,5.686
1576,0.761,36.216,27.192,29.759,24.093,18.629,11.026,5.483
1577,0.774,35.775,27.106,29.778,24.11,18.338,11.31,5.481
1578,0.784,35.914,27.137,29.769,24.103,17.969,11.557,5.562
1579,0.793,36.031,27.172,29.788,24.106,17.6,11.762,5.604
1580,0.797,36.099,27.196,29.759,24.106,17.23,11.927,5.482
1581,0.81,35.86,27.169,29.769,24.117,16.983,12.091,5.603
1582,0.833,35.982,27.071,29.769,24.106,16.574,12.174,5.564
1583,0.849,36.137,27.082,29.778,24.103,16.325,12.216,5.523
1584,0.872,36.196,27.129,29.797,24.124,16.16,12.541,5.685
1585,0.866,35.861,27.172,29.759,24.103,15.63,12.464,5.646
1586,0.895,35.982,27.176,29.769,24.103,15.3,12.422,5.605
1587,0.921,36.137,27.149,29.769,24.11,15.052,12.381,5.523
1588,0.931,36.138,27.16,29.759,24.11,14.806,12.381,5.603
1589,0.954,35.726,27.192,29.759,24.099,14.6,12.258,5.523
1590,0.964,35.894,27.192,29.797,24.11,14.679,12.298,5.522
1591,0.99,35.992,27.098,29.769,24.11,14.68,12.298,5.441
1592,1.017,36.051,27.152,29.769,24.106,14.802,12.136,5.521
1593,1.059,35.917,27.149,29.807,24.117,15.17,12.215,5.685
1594,1.086,35.992,27.149,29.75,24.106,15.173,12.013,5.524
1595,1.118,36.089,27.18,29.749,24.106,15.458,12.092,5.563
1596,1.138,35.937,27.11,29.768,24.106,15.542,11.93,5.563
1597,1.148,35.993,27.152,29.778,24.106,15.705,12.01,5.563
1598,1.145,36.108,27.172,29.759,24.106,15.748,11.848,5.482
1599,1.155,36.224,27.211,29.778,24.11,15.992,11.928,5.644
1600,1.181,35.708,27.11,29.769,24.106,16.198,11.766,5.564
1601,1.168,35.808,27.129,29.749,24.099,16.281,11.602,5.482
1602,1.162,35.972,27.113,29.797,24.11,16.485,11.641,5.603
1603,1.109,36.022,27.133,29.759,24.103,16.528,11.479,5.564
1604,1.112,35.84,27.176,29.759,24.113,16.488,11.396,5.563
1605,1.125,35.972,27.165,29.769,24.099,16.406,11.273,5.523
1606,1.135,36.108,27.165,29.778,24.113,16.486,11.109,5.603
1607,1.116,36.167,27.165,29.75,24.103,16.162,10.945,5.442
1608,1.132,35.851,27.219,29.778,24.11,16.159,10.984,5.521
1609,1.135,35.992,27.134,29.769,24.11,16.078,10.822,5.644
1610,1.116,36.099,27.121,29.74,24.096,15.873,10.576,5.361
1611,1.115,36.196,27.176,29.759,24.11,15.993,10.574,5.561
1612,1.102,36.733,27.196,29.759,24.106,15.995,10.451,5.604
1613,1.096,36.864,27.216,29.778,24.11,16.035,10.369,5.604
1614,1.053,36.951,27.192,29.769,24.106,16.076,10.206,5.564
1615,1.001,37.0,27.114,29.778,24.113,16.117,10.204,5.563
1616,0.952,35.255,27.113,29.75,24.106,15.996,10.204,5.523
1617,0.902,35.41,27.187,29.768,24.106,16.076,10.326,5.644
1618,0.86,35.508,27.165,29.778,24.117,16.077,10.408,5.727
1619,0.784,35.518,27.129,29.73,24.092,15.873,10.247,5.524
1620,0.777,36.036,27.133,29.778,24.106,15.912,10.448,5.603
1621,0.764,36.147,27.18,29.769,24.096,15.831,10.41,5.564
1622,0.741,36.263,27.227,29.759,24.11,15.708,10.531,5.523
1623,0.699,35.852,27.208,29.74,24.103,15.585,10.492,5.563
1624,0.662,35.637,27.192,29.759,24.11,15.665,10.695,5.685
1625,0.639,35.75,27.153,29.74,24.099,15.544,10.534,5.564
1626,0.613,35.876,27.121,29.749,24.11,15.583,10.573,5.604
1627,0.593,35.886,27.195,29.797,24.117,15.706,10.736,5.726
1628,0.557,35.944,27.063,29.75,24.103,15.666,10.616,5.524
1629,0.534,36.098,27.144,29.749,24.103,15.991,10.493,5.644
1630,0.495,36.186,27.149,29.74,24.106,16.279,10.451,5.605
1631,0.468,35.688,27.192,29.749,24.103,16.932,10.45,5.686
1632,0.416,35.789,27.2,29.73,24.103,17.549,10.41,5.646
1633,0.347,35.934,27.161,29.778,24.11,18.287,10.491,5.645
1634,0.288,36.012,27.047,29.75,24.106,18.701,10.369,5.605
1635,0.248,35.715,27.128,29.74,24.103,18.99,10.287,5.645
1636,0.222,35.914,27.211,29.807,24.12,19.277,10.489,5.727
1637,0.189,35.964,27.134,29.75,24.103,19.361,10.369,5.646
1638,0.195,36.06,27.153,29.768,24.103,19.362,10.49,5.645
1639,0.199,35.879,27.161,29.73,24.106,19.199,10.532,5.564
1640,0.225,36.002,27.192,29.759,24.099,19.117,10.695,5.645
1641,0.254,36.118,27.173,29.73,24.099,18.75,10.737,5.605
1642,0.313,36.177,27.137,29.768,24.106,18.583,10.9,5.645
1643,0.333,35.746,27.082,29.778,24.113,18.419,11.024,5.727
1644,0.347,35.856,27.129,29.721,24.092,18.011,10.903,5.605
1645,0.363,36.011,27.152,29.759,24.106,17.804,11.065,5.645
1646,0.389,36.012,27.164,29.749,24.103,17.761,10.985,5.564
1647,0.406,35.878,27.141,29.759,24.106,17.842,10.984,5.645
1648,0.422,36.002,27.137,29.759,24.103,18.005,10.903,5.645
1649,0.458,36.118,27.199,29.749,24.113,18.413,10.983,5.686
1650,0.481,36.474,27.165,29.73,24.103,18.621,10.822,5.605
1651,0.507,35.892,27.086,29.768,24.103,19.07,10.779,5.686
1652,0.537,36.069,27.175,29.817,24.12,19.522,10.901,5.809
1653,0.54,36.119,27.13,29.75,24.096,19.527,10.577,5.647
1654,0.576,35.831,27.16,29.73,24.106,19.608,10.492,5.605
1655,0.58,35.809,27.196,29.739,24.103,19.609,10.451,5.604
1656,0.635,35.934,27.114,29.749,24.106,19.649,10.491,5.604
1657,0.649,36.012,27.137,29.72,24.099,19.568,10.491,5.564
1658,0.675,35.859,27.188,29.759,24.113,19.527,10.695,5.645
1659,0.672,35.934,27.196,29.749,24.106,19.445,11.022,5.686
1660,0.691,36.069,27.114,29.74,24.096,19.2,11.066,5.524
1661,0.721,36.195,27.145,29.778,24.113,19.279,11.514,5.603
1662,0.728,35.746,27.129,29.74,24.11,19.077,11.64,5.604
1663,0.731,35.895,27.164,29.759,24.106,18.912,11.885,5.604
1664,0.751,35.992,27.196,29.74,24.099,18.707,11.969,5.564
1665,0.77,36.079,27.196,29.74,24.103,18.542,12.173,5.726
1666,0.777,35.62,27.149,29.74,24.103,18.297,12.175,5.605
1667,0.787,35.778,27.149,29.759,24.106,18.172,12.256,5.604
1668,0.8,35.895,27.188,29.778,24.12,18.009,12.298,5.726
1669,0.787,35.915,27.091,29.702,24.096,17.56,12.176,5.565
1670,0.793,35.848,27.121,29.749,24.11,17.474,12.216,5.685
1671,0.79,35.992,27.145,29.74,24.106,17.27,12.054,5.605
1672,0.79,36.099,27.16,29.759,24.11,17.146,12.093,5.686
1673,0.78,36.138,27.219,29.749,24.106,16.86,11.93,5.646
1674,0.787,35.745,27.224,29.768,24.103,16.654,11.929,5.645
1675,0.767,35.885,27.103,29.73,24.106,16.489,11.685,5.605
1676,0.783,36.011,27.148,29.73,24.106,16.243,11.601,5.604
1677,0.79,36.07,27.211,29.787,24.124,16.2,11.56,5.767
1678,0.771,35.821,27.118,29.74,24.096,15.712,11.356,5.647
1679,0.783,35.991,27.137,29.749,24.106,15.626,11.232,5.727
1680,0.771,36.089,27.129,29.749,24.106,15.34,11.149,5.646
1681,0.783,36.09,27.176,29.768,24.103,15.175,11.149,5.686
1682,0.78,35.85,27.18,29.749,24.106,14.848,11.067,5.646
1683,0.793,35.992,27.192,29.759,24.113,14.723,11.107,5.767
1684,0.787,36.06,27.13,29.749,24.106,14.396,11.148,5.647
1685,0.793,35.821,27.137,29.74,24.099,14.108,11.23,5.564
1686,0.8,35.895,27.137,29.797,24.106,13.983,11.434,5.766
1687,0.803,35.983,27.172,29.75,24.106,13.657,11.395,5.687
1688,0.81,36.079,27.067,29.778,24.11,13.45,11.354,5.727
1689,0.816,35.716,27.121,29.73,24.106,13.164,11.476,5.646
1690,0.813,35.818,27.148,29.749,24.11,13.039,11.436,5.645
1691,0.803,35.924,27.184,29.73,24.099,12.753,11.355,5.605
1692,0.803,36.031,27.184,29.759,24.113,12.669,11.476,5.726
1693,0.807,35.811,27.145,29.749,24.11,12.668,11.314,5.727
1694,0.79,35.915,27.071,29.73,24.092,12.424,11.15,5.646
1695,0.797,36.088,27.132,29.749,24.11,12.706,11.149,5.645
1696,0.794,36.128,27.156,29.73,24.103,12.709,11.149,5.686
1697,0.793,35.716,27.098,29.749,24.11,12.831,11.108,5.687
1698,0.78,35.866,27.133,29.73,24.099,12.792,11.067,5.564
1699,0.797,36.001,27.156,29.759,24.11,12.873,11.229,5.685
1700,0.787,36.032,27.204,29.721,24.103,12.833,11.149,5.687
1701,0.79,35.744,27.212,29.768,24.103,13.117,11.271,5.727
1702,0.81,35.904,27.146,29.759,24.113,13.282,11.434,5.809
1703,0.784,35.954,27.063,29.711,24.099,13.284,11.355,5.566
1704,0.793,36.012,27.101,29.739,24.113,13.609,11.435,5.685
1705,0.8,36.166,27.117,29.74,24.103,13.775,11.395,5.646
1706,0.82,36.302,27.164,29.759,24.103,14.102,11.476,5.686
1707,0.817,36.408,27.137,29.759,24.099,14.268,11.314,5.646
1708,0.816,36.448,27.125,29.769,24.113,14.636,11.435,5.686
1709,0.813,35.509,27.172,29.73,24.099,14.843,11.273,5.687
1710,0.82,35.643,27.18,29.739,24.103,15.089,11.19,5.605
1711,0.833,35.788,27.149,29.778,24.12,15.416,11.312,5.726
1712,0.807,35.828,27.082,29.74,24.103,15.379,11.15,5.687
1713,0.81,35.876,27.125,29.749,24.113,15.623,11.026,5.687
1714,0.816,35.992,27.098,29.74,24.103,15.706,10.903,5.605
1715,0.803,36.089,27.179,29.749,24.11,15.829,10.821,5.686
1716,0.787,35.706,27.13,29.74,24.106,15.83,10.657,5.605
1717,0.793,35.798,27.141,29.759,24.11,15.993,10.737,5.645
1718,0.784,35.895,27.141,29.73,24.103,15.995,10.616,5.645
1719,0.79,35.992,27.211,29.739,24.106,16.32,10.655,5.645
1720,0.813,35.773,27.157,29.778,24.117,16.811,10.9,5.849
1721,0.794,35.837,27.051,29.74,24.099,17.06,10.861,5.688
1722,0.797,35.982,27.128,29.749,24.106,17.55,11.024,5.646
1723,0.803,36.06,27.133,29.73,24.103,17.962,11.31,5.605
1724,0.807,35.725,27.195,29.711,24.11,18.535,11.516,5.604
1725,0.813,35.818,27.2,29.73,24.103,19.191,11.681,5.604
1726,0.82,35.963,27.181,29.739,24.117,19.97,11.886,5.726
1727,0.813,36.041,27.137,29.74,24.096,20.629,12.05,5.605
1728,0.813,35.696,27.192,29.73,24.103,21.327,12.093,5.564
1729,0.829,35.875,27.13,29.759,24.124,22.228,12.296,5.685
1730,0.82,35.963,27.121,29.73,24.106,22.847,12.217,5.687
1731,0.826,36.012,27.141,29.739,24.11,23.422,12.257,5.687
1732,0.82,36.482,27.129,29.72,24.106,23.875,12.257,5.605
1733,0.817,36.631,27.172,29.739,24.11,24.083,12.339,5.645
1734,0.803,36.709,27.192,29.72,24.099,24.126,12.217,5.564
1735,0.803,36.748,27.118,29.739,24.113,24.004,12.216,5.645
1736,0.797,35.281,27.117,29.711,24.106,23.8,12.094,5.605
1737,0.807,35.41,27.148,29.711,24.099,23.472,12.012,5.523
1738,0.823,35.585,27.168,29.749,24.124,23.225,12.092,5.725
1739,0.81,36.018,27.129,29.74,24.106,22.735,11.93,5.687
1740,0.794,35.955,27.125,29.74,24.099,22.364,11.97,5.687
1741,0.793,36.069,27.16,29.74,24.106,22.035,11.97,5.687
1742,0.816,36.186,27.18,29.74,24.113,21.666,12.173,5.646
1743,0.823,35.669,27.2,29.711,24.103,21.296,12.094,5.564
1744,0.826,35.635,27.157,29.73,24.11,21.089,12.296,5.685
1745,0.833,35.769,27.157,29.749,24.106,20.965,12.38,5.687
1746,0.823,35.847,27.133,29.701,24.099,20.761,12.299,5.483
1747,0.839,35.809,27.203,29.758,24.117,20.84,12.502,5.766
1748,0.826,35.895,27.06,29.74,24.106,20.678,12.463,5.687
1749,0.843,36.011,27.105,29.73,24.106,20.636,12.463,5.605
1750,0.836,36.099,27.156,29.701,24.11,20.554,12.381,5.604
1751,0.839,35.601,27.207,29.73,24.106,20.512,12.421,5.645
1752,0.83,35.701,27.161,29.72,24.099,20.187,12.3,5.605
1753,0.83,35.856,27.141,29.73,24.117,20.021,12.258,5.645
1754,0.82,35.934,27.071,29.759,24.12,19.897,12.176,5.767
1755,0.807,35.58,27.117,29.682,24.092,19.367,11.891,5.565
1756,0.826,35.778,27.18,29.72,24.106,19.199,11.847,5.604
1757,0.81,35.885,27.098,29.72,24.103,18.832,11.684,5.604
1758,0.82,35.954,27.117,29.72,24.11,18.625,11.601,5.645
1759,0.81,35.763,27.121,29.701,24.099,18.379,11.438,5.564
1760,0.816,35.933,27.191,29.73,24.106,18.417,11.436,5.685
1761,0.81,36.012,27.169,29.692,24.106,18.417,11.355,5.605
1762,0.823,36.06,27.087,29.701,24.106,18.702,11.273,5.564
1763,0.836,35.677,27.051,29.768,24.12,19.152,11.475,5.766
1764,0.817,35.779,27.089,29.692,24.096,19.482,11.314,5.565
1765,0.839,35.895,27.152,29.72,24.113,19.932,11.353,5.726
1766,0.833,35.925,27.172,29.72,24.11,20.262,11.313,5.646
1767,0.843,35.733,27.153,29.72,24.106,20.591,11.435,5.686
1768,0.826,35.866,27.133,29.72,24.103,20.797,11.314,5.564
1769,0.846,35.973,27.192,29.73,24.113,21.165,11.394,5.604
1770,0.859,35.974,27.188,29.739,24.113,21.332,11.436,5.604
1771,0.853,35.734,27.075,29.682,24.099,21.252,11.233,5.482
1772,0.846,35.914,27.117,29.797,24.11,21.333,11.271,5.725
1773,0.83,36.002,27.106,29.721,24.106,21.293,11.19,5.605
1774,0.846,35.638,27.113,29.72,24.106,21.13,11.108,5.645
1775,0.83,35.654,27.176,29.72,24.103,20.884,11.067,5.605
1776,0.846,35.817,27.091,29.73,24.11,20.719,11.107,5.564
1777,0.82,35.876,27.101,29.701,24.099,20.433,10.945,5.523
1778,0.826,35.512,27.16,29.739,24.106,20.105,10.984,5.603
1779,0.826,35.653,27.184,29.749,24.124,19.857,11.106,5.686
1780,0.81,35.74,27.094,29.701,24.096,19.408,10.782,5.483
1781,0.826,35.847,27.121,29.73,24.106,19.119,10.86,5.644
1782,0.823,35.579,27.133,29.72,24.106,18.791,10.82,5.605
1783,0.833,35.72,27.145,29.72,24.103,18.584,10.901,5.604
1784,0.826,35.827,27.149,29.701,24.103,18.419,10.983,5.523
1785,0.839,35.915,27.176,29.739,24.106,18.336,11.187,5.644
1786,0.849,35.551,27.137,29.72,24.106,18.01,11.23,5.564
1787,0.846,35.701,27.145,29.72,24.096,17.844,11.353,5.523
1788,0.859,35.866,27.192,29.759,24.117,17.802,11.679,5.685
1789,0.856,35.877,27.11,29.711,24.103,17.395,11.56,5.483
1790,0.862,35.532,27.133,29.72,24.103,17.188,11.681,5.562
1791,0.849,35.701,27.129,29.72,24.099,16.86,11.683,5.523
1792,0.843,35.808,27.18,29.73,24.113,16.572,11.723,5.644
1793,0.846,35.857,27.208,29.701,24.106,16.285,11.683,5.564
1794,0.859,35.589,27.216,29.739,24.113,16.038,11.886,5.726
1795,0.849,35.721,27.099,29.73,24.113,15.71,11.888,5.605
1796,0.833,35.818,27.117,29.682,24.092,15.26,11.603,5.442
1797,0.836,35.867,27.176,29.72,24.106,14.971,11.682,5.521
1798,0.839,35.637,27.145,29.711,24.106,14.724,11.642,5.603
1799,0.849,35.779,27.118,29.73,24.103,14.477,11.519,5.564
1800,0.843,35.866,27.109,29.72,24.103,14.19,11.477,5.563
1801,0.833,35.848,27.148,29.73,24.11,13.984,11.314,5.604
1802,0.833,35.781,27.184,29.692,24.099,13.576,11.191,5.523
1803,0.849,35.933,27.196,29.72,24.113,13.531,11.189,5.603
1804,0.859,36.04,27.145,29.73,24.103,13.286,11.068,5.686
1805,0.84,35.552,27.11,29.692,24.092,12.837,10.822,5.402
1806,0.865,35.643,27.144,29.72,24.106,12.873,10.82,5.562
1807,0.859,35.769,27.176,29.711,24.113,12.67,10.698,5.563
1808,0.872,35.876,27.091,29.72,24.106,12.627,10.656,5.563
1809,0.872,35.628,27.109,29.711,24.11,12.464,10.412,5.482
1810,0.885,35.778,27.152,29.72,24.103,12.503,10.491,5.644
1811,0.853,35.857,27.196,29.701,24.103,12.423,10.288,5.483
1812,0.862,35.982,27.192,29.701,24.106,12.381,10.327,5.562
1813,0.866,35.581,27.161,29.749,24.12,12.543,10.49,5.726
1814,0.849,35.682,27.079,29.701,24.099,12.464,10.491,5.524
1815,0.846,35.827,27.136,29.72,24.106,12.544,10.695,5.563
1816,0.849,35.886,27.156,29.72,24.106,12.707,10.941,5.563
1817,0.846,35.647,27.106,29.711,24.11,13.034,11.228,5.563
1818,0.853,35.779,27.117,29.682,24.103,13.241,11.434,5.523
1819,0.853,35.914,27.121,29.729,24.113,13.69,11.761,5.644
1820,0.846,35.944,27.168,29.72,24.106,13.979,11.887,5.605
1821,0.849,35.58,27.161,29.711,24.099,14.389,12.05,5.482
1822,0.872,35.768,27.129,29.749,24.12,14.881,12.337,5.684
1823,0.866,35.847,27.074,29.711,24.106,15.13,12.38,5.524
1824,0.876,35.896,27.117,29.701,24.11,15.579,12.462,5.563
1825,0.879,35.724,27.117,29.72,24.099,15.828,12.503,5.482
1826,0.863,35.847,27.18,29.692,24.106,16.155,12.544,5.603
1827,0.879,35.944,27.137,29.691,24.103,16.2,12.545,5.523
1828,0.885,36.328,27.106,29.73,24.11,16.484,12.707,5.563
1829,0.879,35.613,27.168,29.711,24.113,16.731,12.831,5.523
1830,0.872,35.721,27.161,29.663,24.096,16.653,12.792,5.4
1831,0.902,35.866,27.114,29.72,24.113,17.018,13.076,5.562
1832,0.873,35.723,27.055,29.711,24.11,17.224,13.16,5.563
1833,0.853,35.789,27.121,29.72,24.106,17.43,13.283,5.523
1834,0.862,35.924,27.129,29.701,24.106,17.554,13.365,5.522
1835,0.856,36.012,27.192,29.71,24.106,17.84,13.447,5.563
1836,0.849,35.696,27.118,29.672,24.106,17.802,13.448,5.482
1837,0.853,35.837,27.145,29.71,24.11,18.005,13.448,5.644
1838,0.859,35.972,27.184,29.72,24.12,18.129,13.53,5.645
1839,0.843,35.974,27.173,29.682,24.099,17.886,13.246,5.483
1840,0.856,35.744,27.114,29.72,24.106,17.924,13.284,5.522
1841,0.849,35.866,27.117,29.749,24.099,17.803,13.121,5.482
1842,0.846,36.021,27.094,29.711,24.103,17.72,13.12,5.603
1843,0.862,36.051,27.113,29.701,24.103,17.394,12.917,5.482
1844,0.866,35.783,27.168,29.701,24.11,17.269,12.833,5.522
1845,0.866,35.895,27.161,29.691,24.11,17.064,12.71,5.522
1846,0.879,36.03,27.137,29.71,24.103,16.859,12.587,5.482
1847,0.895,36.137,27.149,29.73,24.117,16.898,12.545,5.684
1848,0.866,35.822,27.172,29.682,24.096,16.573,12.26,5.483
1849,0.872,36.011,27.098,29.71,24.113,16.488,12.176,5.481
1850,0.882,36.128,27.101,29.682,24.106,16.284,12.013,5.481
1851,0.889,36.177,27.117,29.691,24.11,16.282,11.93,5.562
1852,0.866,35.803,27.148,29.701,24.103,16.201,11.766,5.482
1853,0.869,35.972,27.188,29.71,24.113,16.241,11.805,5.603
1854,0.866,36.06,27.192,29.711,24.099,16.282,11.724,5.523
1855,0.856,36.051,27.067,29.653,24.089,16.038,11.52,5.4
1856,0.875,36.051,27.125,29.71,24.11,16.239,11.721,5.521
1857,0.846,36.185,27.18,29.682,24.11,16.282,11.601,5.563
1858,0.853,36.273,27.141,29.701,24.11,16.282,11.56,5.563
1859,0.856,36.236,27.129,29.691,24.099,16.201,11.437,5.523
1860,0.846,36.072,27.141,29.71,24.103,16.2,11.477,5.603
1861,0.83,36.166,27.153,29.672,24.099,16.241,11.355,5.482
1862,0.856,36.311,27.192,29.71,24.113,16.404,11.354,5.562
1863,0.859,36.063,27.212,29.72,24.12,16.486,11.435,5.645
1864,0.843,36.09,27.13,29.672,24.092,16.162,11.151,5.442
1865,0.859,36.243,27.117,29.701,24.113,16.362,11.23,5.603
1866,0.866,36.331,27.117,29.72,24.103,16.364,11.231,5.564
1867,0.876,36.486,27.16,29.711,24.106,16.242,11.149,5.563
1868,0.866,36.612,27.001,29.72,24.103,16.16,10.986,5.482
1869,0.872,36.738,27.112,29.701,24.113,16.281,11.066,5.603
1870,0.859,36.806,27.137,29.701,24.106,16.323,10.944,5.442
1871,0.879,36.03,27.16,29.701,24.106,16.567,10.781,5.521
1872,0.879,36.195,27.18,29.73,24.12,17.017,10.942,5.725
1873,0.856,36.264,27.141,29.682,24.103,16.981,10.74,5.484
1874,0.862,36.379,27.102,29.691,24.106,17.346,10.697,5.522
1875,0.849,36.093,27.109,29.691,24.11,17.472,10.575,5.522
1876,0.84,36.243,27.168,29.691,24.11,17.514,10.574,5.603
1877,0.833,36.35,27.106,29.682,24.099,17.514,10.574,5.482
1878,0.843,36.447,27.125,29.701,24.11,17.636,10.655,5.562
1879,0.83,36.304,27.121,29.672,24.103,17.556,10.737,5.523
1880,0.813,36.437,27.172,29.691,24.099,17.474,10.819,5.482
1881,0.849,36.602,27.204,29.73,24.117,17.554,11.186,5.644
1882,0.827,36.575,27.118,29.692,24.103,17.271,11.23,5.523
1883,0.826,36.162,27.09,29.691,24.106,17.146,11.434,5.482
1884,0.813,36.292,27.129,29.691,24.106,16.982,11.517,5.481
1885,0.829,36.408,27.113,29.691,24.11,16.858,11.64,5.603
1886,0.83,36.4,27.176,29.672,24.103,16.572,11.641,5.523
1887,0.849,36.438,27.106,29.72,24.106,16.529,11.804,5.563
1888,0.836,36.535,27.133,29.701,24.106,16.244,11.806,5.645
1889,0.82,36.603,27.156,29.653,24.096,15.997,11.643,5.401
1890,0.856,36.546,27.192,29.7,24.113,15.995,11.723,5.562
1891,0.849,36.478,27.122,29.682,24.11,15.832,11.561,5.523
1892,0.83,36.612,27.07,29.701,24.11,15.749,11.559,5.522
1893,0.813,36.709,27.097,29.682,24.103,15.626,11.397,5.522
1894,0.826,36.441,27.109,29.691,24.11,15.625,11.395,5.563
1895,0.797,36.496,27.129,29.682,24.099,15.462,11.273,5.441
1896,0.807,36.631,27.129,29.681,24.11,15.583,11.231,5.562
1897,0.803,36.738,27.117,29.701,24.113,15.747,11.19,5.604
1898,0.784,36.432,27.125,29.653,24.092,15.829,10.905,5.36
1899,0.793,36.573,27.199,29.7,24.11,16.481,10.983,5.602
1900,0.79,36.689,27.134,29.691,24.11,17.138,10.944,5.523
1901,0.777,36.767,27.067,29.701,24.099,17.795,10.902,5.563
1902,0.787,36.442,27.121,29.682,24.099,18.371,10.821,5.482
1903,0.793,36.582,27.129,29.681,24.11,18.946,10.901,5.603
1904,0.787,36.68,27.156,29.681,24.099,19.236,10.983,5.442
1905,0.79,36.757,27.204,29.691,24.11,19.605,11.106,5.562
1906,0.803,36.48,27.149,29.71,24.117,19.771,11.27,5.645
1907,0.784,36.544,27.121,29.663,24.099,19.529,11.069,5.442
1908,0.803,36.689,27.156,29.681,24.106,19.608,11.188,5.562
1909,0.8,36.729,27.129,29.681,24.113,19.446,11.189,5.563
1910,0.807,36.566,27.117,29.739,24.106,19.2,11.108,5.523
1911,0.794,36.699,27.094,29.682,24.103,18.995,11.026,5.441
1912,0.79,36.806,27.144,29.691,24.11,18.748,11.066,5.603
1913,0.79,36.826,27.145,29.682,24.11,18.38,10.944,5.523
1914,0.78,36.577,27.196,29.681,24.11,18.173,10.902,5.522
1915,0.777,36.699,27.134,29.72,24.12,17.927,11.024,5.644
1916,0.774,36.786,27.106,29.653,24.096,17.478,10.7,5.401
1917,0.771,37.161,27.144,29.672,24.113,17.392,10.656,5.521
1918,0.77,36.58,27.145,29.681,24.106,17.31,10.615,5.563
1919,0.744,36.708,27.118,29.701,24.106,17.309,10.493,5.604
1920,0.76,36.815,27.098,29.663,24.099,17.349,10.451,5.482
1921,0.764,36.653,27.129,29.71,24.11,17.39,10.491,5.644
1922,0.764,36.68,27.149,29.663,24.103,17.31,10.41,5.564
1923,0.783,36.786,27.192,29.681,24.11,17.39,10.45,5.523
1924,0.793,36.902,27.188,29.701,24.12,17.594,10.694,5.685
1925,0.787,36.434,27.134,29.663,24.099,17.23,10.656,5.483
1926,0.787,36.573,27.129,29.691,24.106,17.267,10.737,5.522
1927,0.79,36.68,27.195,29.682,24.106,17.105,10.86,5.563
1928,0.813,36.767,27.122,29.681,24.103,16.981,11.064,5.604
1929,0.813,36.442,27.117,29.672,24.099,16.736,11.066,5.523
1930,0.794,36.592,27.156,29.672,24.113,16.693,11.31,5.522
1931,0.8,36.689,27.192,29.662,24.099,16.489,11.313,5.482
1932,0.813,36.806,27.153,29.672,24.106,16.528,11.435,5.522
1933,0.803,36.672,27.121,29.71,24.12,16.61,11.639,5.644
1934,0.79,36.767,27.012,29.663,24.106,16.285,11.438,5.523
1935,0.797,36.902,27.081,29.691,24.106,16.282,11.558,5.522
1936,0.8,36.961,27.156,29.682,24.099,16.16,11.64,5.563
1937,0.8,36.434,27.102,29.672,24.106,16.118,11.601,5.523
1938,0.803,36.563,27.098,29.662,24.103,15.915,11.56,5.482
1939,0.803,36.689,27.129,29.7,24.106,15.912,11.6,5.644
1940,0.803,36.719,27.164,29.682,24.099,15.79,11.478,5.564
1941,0.813,36.576,27.153,29.681,24.106,15.789,11.396,5.482
1942,0.826,36.747,27.141,29.701,24.124,15.911,11.476,5.684
1943,0.817,36.806,27.055,29.663,24.103,15.75,11.355,5.564
1944,0.829,36.864,27.109,29.672,24.11,15.951,11.313,5.604
1945,0.843,36.5,27.129,29.672,24.106,16.076,11.272,5.523
1946,0.839,36.631,27.164,29.672,24.11,16.199,11.231,5.644
1947,0.849,36.747,27.122,29.681,24.103,16.363,11.109,5.483
1948,0.846,36.768,27.133,29.701,24.106,16.567,11.189,5.522
1949,0.846,36.595,27.176,29.663,24.103,16.488,11.149,5.482
1950,0.862,36.737,27.149,29.643,24.106,16.487,11.067,5.44
1951,0.888,36.892,27.09,29.719,24.117,16.691,11.188,5.725
1952,0.866,36.53,27.105,29.692,24.11,16.53,11.108,5.565
1953,0.866,36.564,27.109,29.672,24.103,16.488,11.108,5.604
1954,0.856,36.66,27.121,29.672,24.11,16.325,11.067,5.564
1955,0.853,36.786,27.164,29.691,24.11,16.282,11.107,5.563
1956,0.862,36.471,27.11,29.662,24.096,15.997,10.985,5.482
1957,0.859,36.583,27.113,29.681,24.106,16.076,11.025,5.562
1958,0.846,36.718,27.176,29.681,24.113,16.28,11.025,5.645
1959,0.84,36.758,27.098,29.662,24.096,16.404,10.822,5.483
1960,0.872,36.423,27.105,29.7,24.106,16.852,10.942,5.644
1961,0.856,36.534,27.109,29.682,24.106,17.385,10.74,5.523
1962,0.862,36.67,27.129,29.672,24.106,17.96,10.697,5.563
1963,0.869,36.738,27.152,29.662,24.106,18.576,10.616,5.523
1964,0.879,36.518,27.196,29.672,24.113,19.232,10.533,5.563
1965,0.866,36.641,27.13,29.653,24.11,19.889,10.41,5.523
1966,0.889,36.786,27.129,29.7,24.11,20.709,10.369,5.644
1967,0.889,36.835,27.188,29.701,24.12,21.49,10.328,5.686
1968,0.872,36.443,27.13,29.653,24.092,21.864,10.002,5.524
1969,0.885,36.64,27.121,29.672,24.11,22.477,10.039,5.603
1970,0.889,36.719,27.113,29.662,24.106,22.849,9.918,5.564
1971,0.892,36.777,27.16,29.672,24.106,23.016,9.916,5.523
1972,0.879,36.528,27.192,29.681,24.103,22.936,9.835,5.563
1973,0.885,36.67,27.18,29.681,24.113,23.016,9.916,5.604
1974,0.866,36.748,27.149,29.643,24.099,22.692,9.794,5.442
1975,0.866,36.768,27.106,29.681,24.113,22.607,9.915,5.603
1976,0.869,36.528,27.109,29.701,24.11,22.444,10.079,5.645
1977,0.846,36.641,27.137,29.643,24.096,21.954,9.959,5.401
1978,0.862,36.776,27.067,29.681,24.103,21.827,10.161,5.602
1979,0.869,36.615,27.113,29.662,24.11,21.623,10.204,5.604
1980,0.853,36.584,27.137,29.672,24.099,21.255,10.245,5.645
1981,0.84,36.689,27.18,29.672,24.106,21.048,10.164,5.605
1982,0.856,36.806,27.161,29.681,24.106,20.761,10.244,5.645
1983,0.843,36.855,27.114,29.653,24.099,20.392,10.164,5.442
1984,0.859,37.009,27.02,29.672,24.11,20.023,10.285,5.562
1985,0.879,37.144,27.112,29.691,24.113,19.775,10.327,5.726
1986,0.859,37.155,27.133,29.643,24.099,19.204,10.043,5.443
1987,0.879,36.292,27.082,29.672,24.11,18.995,10.162,5.562
1988,0.882,36.418,27.113,29.662,24.106,18.627,10.122,5.523
1989,0.889,36.534,27.133,29.653,24.106,18.46,10.163,5.563
1990,0.876,36.593,27.172,29.662,24.099,18.174,10.082,5.482
1991,0.872,36.527,27.149,29.672,24.113,18.049,10.121,5.684
1992,0.859,36.65,27.079,29.662,24.099,17.885,10.081,5.442
1993,0.862,36.776,27.035,29.662,24.106,17.762,10.04,5.521
1994,0.875,36.874,27.136,29.7,24.12,17.923,10.162,5.685
1995,0.837,36.472,27.114,29.643,24.099,17.803,9.96,5.524
1996,0.839,36.631,27.168,29.662,24.103,17.883,9.917,5.522
1997,0.856,36.747,27.141,29.662,24.103,17.965,10.039,5.522
1998,0.849,36.806,27.09,29.662,24.11,18.047,9.999,5.522
1999,0.856,36.538,27.16,29.653,24.096,18.048,10.039,5.563
2000,0.849,36.679,27.168,29.672,24.11,18.129,10.162,5.604
2001,0.846,36.786,27.087,29.662,24.106,18.049,10.163,5.523
2002,0.856,36.835,27.074,29.681,24.099,18.129,10.326,5.563
2003,0.879,36.634,27.113,29.691,24.12,18.333,10.652,5.685
2004,0.856,36.709,27.098,29.653,24.099,18.173,10.656,5.442
2005,0.869,36.834,27.133,29.662,24.11,18.293,10.9,5.521
2006,0.859,37.162,27.117,29.653,24.103,18.376,10.902,5.563
2007,0.875,36.628,27.106,29.672,24.113,18.417,11.065,5.563
2008,0.866,36.728,27.129,29.653,24.103,18.458,11.107,5.523
2009,0.876,36.825,27.184,29.652,24.11,18.337,11.27,5.482
2010,0.876,36.586,27.083,29.643,24.106,18.213,11.109,5.481
2011,0.895,36.594,27.109,29.652,24.099,18.09,11.189,5.44
2012,0.895,36.757,27.117,29.691,24.12,18.13,11.352,5.684
2013,0.86,36.825,27.121,29.643,24.103,17.845,11.11,5.483
2014,0.866,36.375,27.16,29.662,24.106,17.721,11.108,5.562
2015,0.859,36.486,27.161,29.653,24.11,17.638,11.026,5.563
2016,0.859,36.631,27.141,29.672,24.11,17.597,11.025,5.482
2017,0.843,36.7,27.114,29.643,24.103,17.596,10.944,5.481
2018,0.849,36.767,27.18,29.681,24.113,17.556,10.984,5.522
2019,0.84,36.902,27.091,29.653,24.099,17.596,10.822,5.563
2020,0.852,37.028,27.113,29.643,24.099,17.515,10.698,5.401
2021,0.862,37.135,27.117,29.691,24.12,17.677,10.737,5.562
2022,0.859,36.436,27.121,29.653,24.106,17.597,10.494,5.523
2023,0.862,36.582,27.133,29.662,24.106,17.474,10.491,5.482
2024,0.866,36.689,27.153,29.653,24.103,17.392,10.451,5.522
2025,0.872,36.729,27.098,29.662,24.103,17.35,10.328,5.482
2026,0.872,36.518,27.09,29.643,24.106,17.228,10.165,5.44
2027,0.892,36.66,27.148,29.652,24.12,17.145,10.244,5.521
2028,0.892,36.767,27.145,29.652,24.106,17.145,10.286,5.563
2029,0.892,36.825,27.114,29.672,24.096,16.9,10.245,5.36
2030,0.895,36.586,27.113,29.643,24.113,17.02,10.408,5.561
2031,0.889,36.67,27.152,29.643,24.11,17.062,10.45,5.482
2032,0.879,36.805,27.18,29.662,24.106,17.591,10.572,5.562
2033,0.879,36.797,27.18,29.653,24.106,18.043,10.655,5.523
2034,0.885,36.557,27.137,29.643,24.106,18.658,10.737,5.563
2035,0.872,36.689,27.075,29.633,24.096,18.989,10.738,5.401
2036,0.879,36.815,27.105,29.652,24.117,19.44,10.86,5.521
2037,0.872,36.74,27.164,29.652,24.117,19.769,10.902,5.603
2038,0.876,36.557,27.075,29.614,24.099,19.732,10.902,5.401
2039,0.882,36.718,27.093,29.671,24.113,19.894,11.065,5.562
2040,0.863,36.806,27.121,29.653,24.106,19.855,11.066,5.523
2041,0.866,36.567,27.172,29.652,24.11,19.733,11.066,5.563
2042,0.876,36.612,27.157,29.633,24.099,19.569,11.107,5.441
2043,0.876,36.757,27.137,29.643,24.106,19.69,11.067,5.521
2044,0.872,36.835,27.028,29.643,24.099,19.528,11.026,5.522
2045,0.889,36.539,27.081,29.652,24.106,19.648,11.147,5.522
2046,0.892,36.641,27.156,29.662,24.11,19.649,11.189,5.603
2047,0.895,36.748,27.098,29.624,24.089,19.528,10.905,5.442
2048,0.908,36.892,27.14,29.662,24.116,19.73,10.983,5.562
2049,0.918,36.472,27.145,29.624,24.106,19.691,10.903,5.482
2050,0.905,36.612,27.184,29.643,24.099,19.772,10.902,5.562
2051,0.902,36.728,27.165,29.633,24.106,19.732,10.861,5.482
2052,0.905,36.816,27.102,29.662,24.11,19.894,10.942,5.603
2053,0.895,36.51,27.059,29.624,24.103,19.815,10.943,5.523
2054,0.899,36.65,27.097,29.652,24.11,19.855,11.106,5.563
2055,0.912,36.796,27.129,29.691,24.117,19.977,11.351,5.645
2056,0.882,36.787,27.152,29.624,24.096,19.815,11.354,5.483
2057,0.879,36.567,27.129,29.652,24.11,19.936,11.557,5.522
2058,0.885,36.718,27.113,29.652,24.106,19.856,11.6,5.522
2059,0.892,36.854,27.152,29.672,24.113,19.936,11.722,5.603
2060,0.882,36.846,27.145,29.643,24.099,19.856,11.723,5.482
2061,0.895,36.452,27.067,29.672,24.106,19.855,11.723,5.562
2062,0.892,36.583,27.117,29.672,24.103,19.652,11.723,5.482
2063,0.899,36.699,27.109,29.624,24.106,19.528,11.683,5.481
2064,0.918,36.748,27.129,29.681,24.12,19.486,11.804,5.725
2065,0.909,36.509,27.145,29.653,24.106,19.119,11.602,5.524
2066,0.905,36.65,27.094,29.652,24.11,18.872,11.641,5.563
2067,0.908,36.767,27.101,29.652,24.106,18.503,11.56,5.523
2068,0.915,36.557,27.14,29.643,24.106,18.256,11.437,5.644
2069,0.902,36.459,27.149,29.624,24.103,17.806,11.395,5.442
2070,0.905,36.64,27.075,29.652,24.11,17.639,11.395,5.562
2071,0.912,36.728,27.089,29.652,24.113,17.475,11.354,5.563
2072,0.895,36.413,27.082,29.614,24.096,17.066,11.069,5.441
2073,0.921,36.525,27.14,29.681,24.113,17.062,11.107,5.521
2074,0.889,36.65,27.184,29.653,24.11,16.818,10.945,5.522
2075,0.889,36.738,27.184,29.643,24.106,16.653,10.943,5.522
2076,0.889,36.413,27.149,29.633,24.106,16.489,10.781,5.482
2077,0.902,36.563,27.133,29.671,24.11,16.203,10.779,5.562
2078,0.876,36.651,27.168,29.624,24.106,15.956,10.657,5.482
2079,0.882,36.757,27.114,29.662,24.11,15.75,10.737,5.644
2080,0.898,36.403,27.113,29.691,24.12,15.585,10.86,5.686
2081,0.873,36.496,27.086,29.634,24.096,15.218,10.658,5.442
2082,0.889,36.669,27.125,29.662,24.103,15.174,10.94,5.521
2083,0.902,36.719,27.152,29.643,24.106,15.011,11.065,5.522
2084,0.908,36.413,27.161,29.652,24.11,14.887,11.351,5.563
2085,0.899,36.544,27.094,29.643,24.103,14.642,11.435,5.482
2086,0.915,36.689,27.105,29.652,24.117,14.599,11.639,5.562
2087,0.899,36.71,27.152,29.624,24.096,14.436,11.682,5.482
