time,ecg,bvp,gsr,rsp,skt,emg_zygo,emg_coru,emg_trap
0,0.662,35.964,27.385,44.356,33.943,5.522,5.768,10.82
1,0.678,36.022,27.46,44.365,33.95,5.522,5.727,10.697
2,0.678,35.528,27.527,44.404,33.961,5.687,5.892,10.82
3,0.672,35.741,27.496,44.365,33.954,5.645,5.768,10.615
4,0.678,35.925,27.5,44.375,33.947,5.604,5.727,10.656
5,0.682,35.867,27.484,44.336,33.943,5.563,5.727,10.491
6,0.708,35.412,27.444,44.385,33.95,5.645,5.81,10.532
7,0.688,35.596,27.472,44.356,33.947,5.563,5.81,10.491
8,0.711,35.799,27.48,44.356,33.94,5.399,5.604,10.286
9,0.711,35.548,27.472,44.385,33.95,5.604,5.687,10.327
10,0.685,35.354,27.405,44.375,33.947,5.522,5.768,10.286
11,0.678,35.625,27.433,44.375,33.943,5.604,5.727,10.368
12,0.672,35.77,27.527,44.365,33.943,5.44,5.727,10.286
13,0.662,35.364,27.472,44.365,33.954,5.604,5.768,10.327
14,0.652,35.354,27.476,44.346,33.947,5.522,5.81,10.409
15,0.662,35.606,27.492,44.356,33.936,5.358,5.645,10.163
16,0.669,35.78,27.405,44.394,33.947,5.481,5.768,10.286
17,0.655,35.16,27.452,44.385,33.95,5.522,5.687,10.286
18,0.655,35.296,27.476,44.385,33.947,5.481,5.81,10.245
19,0.659,35.489,27.496,44.336,33.94,5.399,5.645,10.122
20,0.682,35.683,27.405,44.385,33.95,5.481,5.727,10.122
21,0.672,34.976,27.417,44.394,33.947,5.481,5.81,10.163
22,0.682,35.16,27.46,44.346,33.94,5.317,5.645,10.04
23,0.695,35.431,27.437,44.385,33.95,5.44,5.727,9.957
24,0.688,35.557,27.472,44.365,33.947,5.44,5.727,10.04
25,0.698,34.947,27.5,44.385,33.947,5.44,5.768,10.081
26,0.695,35.189,27.417,44.365,33.94,5.358,5.645,9.957
27,0.695,35.431,27.468,44.375,33.947,5.399,5.768,10.081
28,0.695,35.557,27.496,44.365,33.947,5.522,5.851,10.163
29,0.695,34.879,27.5,44.356,33.936,5.358,5.687,10.04
30,0.695,35.16,27.393,44.375,33.947,5.44,5.81,10.081
31,0.682,35.364,27.444,44.375,33.95,5.399,5.768,9.999
32,0.682,35.48,27.452,44.394,33.947,5.522,5.727,10.081
33,0.669,34.773,27.464,44.365,33.95,5.399,5.645,9.999
34,0.662,35.083,27.452,44.404,33.95,5.481,5.768,10.04
35,0.659,35.247,27.437,44.394,33.947,5.522,5.933,10.163
36,0.652,35.364,27.425,44.356,33.94,5.358,5.727,10.04
37,0.669,34.85,27.46,44.394,33.947,5.481,5.81,10.122
38,0.649,35.083,27.476,44.385,33.947,5.399,5.81,9.999
39,0.652,35.305,27.519,44.394,33.943,5.481,5.851,10.122
40,0.665,35.393,27.401,44.394,33.947,5.399,5.768,9.957
41,0.662,34.656,27.452,44.404,33.954,5.44,5.851,10.04
42,0.672,34.899,27.5,44.404,33.95,5.481,5.933,10.122
43,0.672,35.102,27.433,44.356,33.936,5.44,5.768,9.999
44,0.688,35.228,27.464,44.404,33.95,5.481,5.851,9.957
45,0.678,34.647,27.48,44.385,33.94,5.522,5.81,10.081
46,0.685,34.928,27.397,44.385,33.954,5.481,5.81,10.327
47,0.688,35.121,27.444,44.365,33.936,5.44,5.81,10.532
48,0.701,35.218,27.476,44.414,33.95,5.522,5.892,10.902
49,0.682,34.705,27.464,44.394,33.954,5.563,5.974,11.436
50,0.675,34.966,27.358,44.365,33.936,5.44,5.933,11.641
51,0.682,35.199,27.46,44.394,33.943,5.522,5.933,12.011
52,0.682,35.238,27.504,44.404,33.947,5.481,5.933,12.339
53,0.675,34.579,27.488,44.404,33.947,5.481,5.974,12.873
54,0.672,34.85,27.46,44.394,33.943,5.44,5.892,13.079
55,0.682,35.034,27.472,44.414,33.95,5.604,5.892,13.366
56,0.669,35.092,27.417,44.423,33.957,5.604,6.056,13.9
57,0.672,34.618,27.433,44.365,33.936,5.399,5.892,13.859
58,0.688,34.899,27.468,44.433,33.95,5.522,5.974,14.105
59,0.682,35.092,27.48,44.414,33.95,5.481,5.851,14.146
60,0.685,35.121,27.338,44.404,33.954,5.563,5.933,14.311
61,0.695,34.569,27.421,44.394,33.936,5.44,5.851,14.393
62,0.711,34.86,27.5,44.414,33.954,5.604,5.892,14.393
63,0.708,35.024,27.484,44.433,33.957,5.604,6.015,14.557
64,0.711,34.976,27.468,44.385,33.94,5.481,5.892,14.352
65,0.744,34.53,27.48,44.394,33.947,5.522,5.892,14.311
66,0.744,34.773,27.381,44.414,33.95,5.604,5.81,14.27
67,0.754,34.937,27.421,44.423,33.947,5.563,5.974,14.188
68,0.767,34.637,27.492,44.394,33.947,5.522,5.851,13.941
69,0.774,34.482,27.456,44.423,33.954,5.687,5.892,13.982
70,0.764,34.753,27.444,44.51,33.964,5.768,6.015,13.941
71,0.774,34.889,27.433,44.394,33.947,5.604,5.851,13.818
72,0.784,34.55,27.5,44.404,33.947,5.645,5.892,13.777
73,0.784,34.598,27.492,44.414,33.947,5.563,5.81,13.613
74,0.78,34.821,27.441,44.433,33.95,5.687,5.851,13.654
75,0.774,34.966,27.508,44.394,33.936,5.563,5.81,13.448
76,0.767,34.424,27.421,44.433,33.95,5.645,5.727,13.366
77,0.761,34.55,27.409,44.462,33.961,5.768,5.933,13.366
78,0.754,34.734,27.5,44.414,33.943,5.604,5.851,13.243
79,0.77,34.899,27.437,44.414,33.95,5.687,5.81,13.079
80,0.767,34.346,27.441,44.423,33.95,5.604,5.768,12.873
81,0.774,34.501,27.444,44.404,33.954,5.604,5.81,12.873
82,0.78,34.734,27.425,44.394,33.943,5.604,5.727,12.75
83,0.8,34.879,27.46,44.423,33.947,5.604,5.727,12.627
84,0.807,34.192,27.437,44.443,33.968,5.768,5.81,12.586
85,0.79,34.385,27.488,44.414,33.95,5.604,5.727,12.504
86,0.813,34.647,27.429,44.404,33.95,5.645,5.851,12.339
87,0.826,34.763,27.405,44.404,33.95,5.645,5.768,12.134
88,0.846,34.192,27.488,44.385,33.957,5.687,5.892,12.216
89,0.839,34.453,27.441,44.394,33.954,5.563,5.81,12.052
90,0.846,34.695,27.377,44.414,33.95,5.563,5.687,11.888
91,0.843,34.84,27.452,44.452,33.954,5.645,5.892,11.806
92,0.816,34.153,27.46,44.404,33.954,5.645,5.81,11.723
93,0.81,34.443,27.5,44.414,33.957,5.645,5.892,11.641
94,0.793,34.656,27.452,44.404,33.947,5.604,5.851,11.518
95,0.777,34.782,27.511,44.404,33.954,5.727,5.892,11.518
96,0.751,34.124,27.492,44.472,33.947,5.645,5.892,11.518
97,0.751,34.424,27.397,44.404,33.94,5.481,5.687,11.231
98,0.761,34.656,27.515,44.423,33.954,5.645,5.768,11.313
99,0.734,34.724,27.444,44.414,33.954,5.687,5.81,11.108
100,0.744,34.114,27.444,44.404,33.947,5.645,5.851,11.066
101,0.741,34.366,27.476,44.394,33.947,5.563,5.851,10.902
102,0.757,34.608,27.425,44.414,33.954,5.727,5.933,10.943
103,0.767,34.686,27.464,44.414,33.957,5.727,6.015,10.943
104,0.767,34.075,27.472,44.375,33.943,5.563,5.768,10.697
105,0.78,34.395,27.48,44.423,33.957,5.645,5.851,10.656
106,0.761,34.56,27.433,44.404,33.95,5.645,5.851,10.574
107,0.754,34.647,27.401,44.385,33.954,5.645,5.933,10.491
108,0.741,33.998,27.452,44.385,33.947,5.645,5.81,10.409
109,0.734,34.308,27.496,44.404,33.957,5.687,5.851,10.409
110,0.724,34.482,27.381,44.414,33.961,5.81,6.015,10.45
111,0.705,34.55,27.401,44.375,33.943,5.687,5.81,10.286
112,0.718,34.046,27.429,44.394,33.954,5.687,5.768,10.327
113,0.701,34.308,27.484,44.404,33.954,5.687,5.727,10.327
114,0.695,34.501,27.452,44.414,33.954,5.645,5.851,10.327
115,0.695,34.55,27.472,44.385,33.94,5.604,5.768,10.286
116,0.692,33.998,27.429,44.423,33.954,5.768,5.892,10.245
117,0.685,34.24,27.405,44.443,33.961,5.851,5.974,10.409
118,0.675,34.405,27.496,44.385,33.95,5.645,5.81,10.286
119,0.682,34.463,27.508,44.414,33.947,5.687,5.81,10.245
120,0.678,34.027,27.381,44.404,33.947,5.604,5.768,10.081
121,0.685,34.279,27.46,44.404,33.954,5.727,5.851,10.286
122,0.682,34.443,27.437,44.394,33.943,5.645,5.768,10.327
123,0.688,34.511,27.488,44.404,33.95,5.727,5.768,10.45
124,0.685,34.104,27.444,44.433,33.961,5.851,5.933,10.861
125,0.672,34.308,27.476,44.375,33.95,5.604,5.768,11.066
126,0.692,34.53,27.374,44.414,33.961,5.687,5.81,11.641
127,0.685,34.153,27.409,44.385,33.954,5.645,5.768,12.216
128,0.675,33.92,27.504,44.433,33.957,5.687,5.81,13.202
129,0.672,34.153,27.472,44.394,33.943,5.687,5.81,13.982
130,0.665,34.385,27.437,44.433,33.957,5.645,5.768,14.598
131,0.665,34.066,27.464,44.433,33.968,5.851,5.851,15.42
132,0.642,34.056,27.46,44.404,33.954,5.727,5.81,16.035
133,0.649,34.327,27.476,44.414,33.95,5.81,5.768,16.528
134,0.642,34.492,27.452,44.385,33.954,5.687,5.687,16.816
135,0.639,33.833,27.476,44.404,33.957,5.768,5.81,17.145
136,0.626,33.92,27.381,44.394,33.943,5.687,5.768,17.268
137,0.623,34.201,27.381,44.404,33.95,5.645,5.645,17.227
138,0.642,34.346,27.508,44.433,33.964,5.851,5.851,17.309
139,0.609,33.814,27.472,44.404,33.954,5.645,5.81,17.185
140,0.632,33.998,27.381,44.394,33.957,5.81,5.768,16.98
141,0.636,34.24,27.425,44.394,33.95,5.604,5.81,16.775
142,0.632,34.395,27.468,44.394,33.957,5.768,5.974,16.734
143,0.646,33.736,27.484,44.375,33.943,5.727,5.892,16.528
144,0.649,34.027,27.472,44.394,33.95,5.687,5.687,16.2
145,0.662,34.23,27.488,44.433,33.964,5.727,5.892,16.077
146,0.652,34.337,27.456,44.51,33.954,5.645,5.892,15.83
147,0.669,33.823,27.425,44.394,33.95,5.768,5.81,15.707
148,0.665,34.095,27.496,44.375,33.95,5.645,5.768,15.378
149,0.655,34.308,27.464,44.394,33.961,5.687,5.974,15.255
150,0.642,34.414,27.397,44.404,33.95,5.687,5.892,15.009
151,0.649,33.746,27.429,44.385,33.947,5.604,5.727,14.68
152,0.655,34.027,27.496,44.433,33.961,5.727,5.892,14.68
153,0.619,34.201,27.464,44.394,33.954,5.645,5.974,14.516
154,0.626,34.346,27.464,44.394,33.95,5.687,5.933,14.352
155,0.619,33.668,27.472,44.375,33.947,5.645,5.81,14.105
156,0.603,33.949,27.425,44.414,33.961,5.687,5.974,14.105
157,0.619,34.162,27.413,44.385,33.95,5.604,5.974,13.982
158,0.619,34.259,27.48,44.385,33.943,5.481,5.768,13.571
159,0.632,33.736,27.444,44.443,33.957,5.727,5.974,13.49
160,0.616,33.969,27.381,44.433,33.954,5.645,5.974,13.325
161,0.632,34.182,27.405,44.394,33.954,5.687,5.851,13.12
162,0.639,34.288,27.452,44.394,33.954,5.645,5.851,12.915
163,0.649,33.698,27.444,44.394,33.954,5.687,5.933,12.791
164,0.646,33.959,27.468,44.375,33.947,5.604,5.933,12.668
165,0.659,34.182,27.504,44.404,33.95,5.604,5.81,12.381
166,0.669,34.288,27.425,44.414,33.954,5.687,5.892,12.298
167,0.649,33.717,27.444,44.404,33.954,5.645,5.933,12.134
168,0.669,34.017,27.472,44.385,33.961,5.645,5.974,12.052
169,0.662,34.192,27.484,44.385,33.95,5.563,5.892,11.888
170,0.642,34.269,27.393,44.404,33.954,5.645,5.974,11.806
171,0.639,33.717,27.385,44.356,33.95,5.604,6.015,11.764
172,0.636,34.008,27.456,44.365,33.943,5.481,5.81,11.477
173,0.646,34.221,27.441,44.423,33.954,5.645,5.892,11.477
174,0.623,34.25,27.444,44.385,33.95,5.645,5.892,11.313
175,0.629,33.794,27.515,44.375,33.954,5.604,5.974,11.272
176,0.632,34.056,27.433,44.433,33.95,5.522,5.892,11.108
177,0.636,34.259,27.452,44.394,33.957,5.645,5.933,11.108
178,0.636,34.279,27.46,44.385,33.95,5.604,5.974,11.066
179,0.649,33.707,27.444,44.375,33.947,5.522,5.81,10.861
180,0.655,34.017,27.437,44.404,33.961,5.645,5.933,10.902
181,0.642,34.153,27.393,44.385,33.95,5.563,5.892,10.738
182,0.646,34.211,27.448,44.394,33.954,5.604,5.974,10.738
183,0.662,33.814,27.421,44.394,33.943,5.563,5.81,10.615
184,0.672,34.075,27.448,44.385,33.961,5.645,5.974,10.615
185,0.662,34.23,27.5,44.375,33.954,5.522,6.015,10.615
186,0.678,33.94,27.433,44.356,33.947,5.522,5.851,10.409
187,0.698,33.765,27.456,44.404,33.957,5.563,5.892,10.409
188,0.672,33.988,27.496,44.356,33.954,5.522,5.892,10.368
189,0.669,34.172,27.385,44.365,33.957,5.604,5.933,10.368
190,0.662,33.746,27.413,44.365,33.95,5.563,5.974,10.245
191,0.665,33.775,27.393,44.385,33.964,5.604,6.015,10.327
192,0.652,34.008,27.429,44.356,33.947,5.563,5.974,10.286
193,0.649,34.172,27.484,44.375,33.943,5.481,5.768,10.081
194,0.652,33.707,27.448,44.365,33.961,5.522,5.933,10.245
195,0.642,33.785,27.492,44.365,33.957,5.522,5.974,10.122
196,0.636,34.027,27.385,44.365,33.961,5.522,5.974,10.245
197,0.636,34.182,27.409,44.356,33.95,5.522,5.974,10.122
198,0.646,33.678,27.496,44.394,33.957,5.563,6.015,10.204
199,0.646,33.852,27.429,44.365,33.957,5.563,6.015,10.163
200,0.665,34.085,27.346,44.365,33.943,5.481,5.933,9.916
201,0.682,34.269,27.417,44.375,33.954,5.522,6.015,10.04
202,0.682,33.552,27.444,44.375,33.947,5.522,5.974,9.957
203,0.678,33.794,27.472,44.356,33.947,5.481,5.974,10.04
204,0.678,34.027,27.417,44.356,33.95,5.481,5.892,9.916
205,0.688,34.182,27.496,44.375,33.954,5.522,6.015,9.916
206,0.688,33.63,27.374,44.365,33.957,5.645,6.138,9.999
207,0.695,33.901,27.409,44.327,33.94,5.399,5.974,9.876
208,0.708,34.143,27.484,44.356,33.947,5.563,6.015,9.876
209,0.692,34.221,27.437,44.356,33.943,5.44,5.933,9.752
210,0.678,33.562,27.381,44.375,33.957,5.481,5.974,9.876
211,0.701,33.823,27.405,44.356,33.957,5.44,5.892,9.752
212,0.715,34.066,27.444,44.365,33.961,5.563,5.974,9.834
213,0.721,34.162,27.492,44.365,33.964,5.563,6.097,10.081
214,0.728,33.581,27.413,44.327,33.94,5.481,5.974,9.916
215,0.757,33.882,27.496,44.336,33.957,5.563,6.015,9.916
216,0.751,34.085,27.37,44.365,33.95,5.522,5.974,9.876
217,0.764,34.211,27.425,44.365,33.954,5.604,6.015,9.916
218,0.767,33.552,27.488,44.336,33.95,5.522,5.974,9.834
219,0.793,33.843,27.429,44.346,33.957,5.604,5.892,9.793
220,0.8,34.056,27.425,44.423,33.971,5.645,6.097,9.916
221,0.787,34.114,27.429,44.317,33.954,5.645,5.974,9.834
222,0.816,33.572,27.429,44.356,33.954,5.604,6.015,9.876
223,0.833,33.862,27.48,44.336,33.954,5.604,5.974,9.752
224,0.83,34.066,27.429,44.356,33.961,5.645,6.097,9.834
225,0.846,34.133,27.444,44.327,33.947,5.645,5.974,9.793
226,0.879,33.591,27.413,44.336,33.95,5.563,5.974,9.588
227,0.889,33.882,27.405,44.394,33.968,5.768,6.097,9.711
228,0.902,34.037,27.452,44.346,33.954,5.645,5.974,9.629
229,0.954,34.133,27.429,44.346,33.95,5.727,6.056,9.629
230,0.994,33.543,27.346,44.336,33.957,5.687,5.933,9.588
231,1.089,33.823,27.437,44.365,33.961,5.768,6.056,9.711
232,1.142,33.998,27.46,44.336,33.95,5.687,5.974,9.67
233,1.204,34.095,27.492,44.336,33.957,5.687,5.974,9.752
234,1.234,33.649,27.464,44.365,33.971,5.892,6.097,10.163
235,1.257,33.862,27.5,44.327,33.961,5.81,6.056,10.409
236,1.313,34.085,27.405,44.356,33.95,5.892,6.097,10.738
237,1.385,34.114,27.417,44.336,33.947,5.851,5.974,11.066
238,1.47,33.698,27.488,44.365,33.954,5.933,6.056,11.518
239,1.516,33.92,27.409,44.327,33.95,5.892,6.015,12.011
240,1.598,34.153,27.413,44.346,33.943,5.81,5.892,12.257
241,1.677,34.221,27.409,44.365,33.964,6.015,6.056,12.75
242,1.681,33.649,27.409,44.336,33.961,5.892,5.974,13.161
243,1.733,33.911,27.46,44.346,33.95,5.974,5.974,13.613
244,1.75,34.085,27.429,44.317,33.947,5.974,5.933,13.859
245,1.72,33.785,27.496,44.336,33.961,6.056,6.097,14.27
246,1.677,33.572,27.303,44.317,33.957,5.974,6.056,14.598
247,1.651,33.862,27.417,44.317,33.947,5.892,5.892,14.639
248,1.592,34.037,27.492,44.356,33.971,5.974,6.015,14.845
249,1.513,33.717,27.405,44.307,33.957,5.974,5.974,15.009
250,1.431,33.746,27.385,44.375,33.957,6.015,6.056,15.05
251,1.359,33.998,27.37,44.317,33.957,5.933,6.015,15.05
252,1.286,34.153,27.46,44.336,33.961,6.056,6.015,15.091
253,1.191,33.543,27.468,44.307,33.964,6.015,6.097,15.132
254,1.138,33.668,27.401,44.297,33.957,5.892,5.892,14.886
255,1.066,33.93,27.504,44.356,33.961,5.892,6.056,14.763
256,0.994,34.056,27.48,44.336,33.954,5.933,5.974,14.68
257,0.984,33.523,27.433,44.317,33.957,5.974,6.056,14.639
258,1.004,33.707,27.492,44.307,33.95,5.892,5.974,14.27
259,1.027,33.949,27.397,44.327,33.957,5.974,6.056,14.27
260,1.01,34.095,27.413,44.327,33.968,6.056,6.179,14.188
261,0.968,33.426,27.393,44.297,33.95,5.851,5.933,13.9
262,0.918,33.668,27.381,44.327,33.964,5.974,6.056,13.777
263,0.833,33.882,27.425,44.297,33.961,5.892,5.933,13.613
264,0.711,34.027,27.417,44.336,33.95,5.933,6.056,13.613
265,0.577,33.581,27.484,44.288,33.954,5.81,6.015,13.284
266,0.518,33.843,27.377,44.336,33.964,5.851,6.097,13.243
267,0.472,34.056,27.393,44.336,33.968,6.056,6.179,13.325
268,0.439,34.143,27.496,44.288,33.954,5.851,6.056,13.366
269,0.452,33.3,27.417,44.317,33.957,5.851,6.097,13.49
270,0.439,33.562,27.429,44.394,33.954,5.768,6.056,13.571
271,0.462,33.804,27.429,44.327,33.961,5.851,6.015,13.777
272,0.485,33.891,27.429,44.288,33.95,5.81,5.974,13.859
273,0.491,33.504,27.429,44.327,33.954,5.768,6.015,13.818
274,0.498,33.775,27.405,44.336,33.971,5.933,6.138,13.941
275,0.498,33.949,27.484,44.288,33.954,5.768,6.015,13.859
276,0.531,34.085,27.476,44.317,33.964,5.81,6.015,13.982
277,0.567,33.494,27.405,44.307,33.95,5.727,6.056,13.9
278,0.619,33.756,27.492,44.317,33.957,5.768,6.138,14.105
279,0.669,33.949,27.366,44.297,33.954,5.687,6.056,14.105
280,0.721,34.104,27.413,44.297,33.957,5.687,5.933,14.188
281,0.761,33.475,27.425,44.336,33.971,5.851,6.138,14.434
282,0.784,33.717,27.409,44.327,33.957,5.727,6.138,14.516
283,0.816,33.92,27.437,44.307,33.954,5.727,6.097,14.68
284,0.833,34.027,27.405,44.288,33.95,5.727,6.015,14.722
285,0.853,33.533,27.484,44.297,33.961,5.81,6.056,14.886
286,0.869,33.785,27.448,44.268,33.957,5.768,6.056,15.009
287,0.879,34.017,27.374,44.288,33.957,5.645,5.933,14.927
288,0.895,34.104,27.508,44.317,33.968,5.851,6.056,15.05
289,0.872,33.378,27.35,44.268,33.961,5.81,6.015,14.927
290,0.876,33.688,27.437,44.297,33.954,5.81,6.056,15.009
291,0.866,33.843,27.425,44.278,33.95,5.768,6.097,14.722
292,0.872,33.92,27.429,44.297,33.957,5.851,6.056,14.886
293,0.859,33.455,27.444,44.268,33.95,5.768,6.179,14.68
294,0.856,33.746,27.401,44.268,33.95,5.645,5.933,14.393
295,0.856,33.969,27.488,44.288,33.957,5.768,6.097,14.434
296,0.846,33.988,27.437,44.288,33.954,5.687,6.015,14.188
297,0.839,33.543,27.385,44.278,33.964,5.768,6.097,14.023
298,0.843,33.804,27.472,44.268,33.95,5.645,6.015,13.777
299,0.856,33.998,27.437,44.288,33.964,5.768,6.097,13.695
300,0.846,34.085,27.401,44.278,33.964,5.727,6.179,13.654
301,0.869,33.484,27.381,44.259,33.95,5.645,5.974,13.325
302,0.872,33.756,27.417,44.297,33.964,5.81,6.097,13.284
303,0.869,33.92,27.464,44.268,33.957,5.727,6.056,13.12
304,0.872,33.688,27.46,44.278,33.954,5.81,6.056,13.038
305,0.879,33.523,27.448,44.259,33.954,5.768,6.015,12.791
306,0.889,33.775,27.46,44.278,33.957,5.81,6.015,12.627
307,0.885,33.949,27.381,44.278,33.968,5.974,6.138,12.709
308,0.872,33.484,27.464,44.239,33.957,5.851,6.015,12.463
309,0.882,33.484,27.417,44.278,33.957,5.81,6.097,12.381
310,0.882,33.736,27.385,44.259,33.954,5.768,5.933,12.257
311,0.879,33.92,27.413,44.268,33.957,5.851,6.097,12.216
312,0.866,33.397,27.456,44.239,33.943,5.768,5.974,12.216
313,0.869,33.533,27.468,44.278,33.957,5.81,5.933,11.929
314,0.869,33.794,27.472,44.278,33.968,5.974,6.056,11.97
315,0.853,33.901,27.464,44.259,33.954,5.851,6.015,11.847
316,0.853,33.436,27.444,44.278,33.961,5.851,5.974,11.888
317,0.853,33.62,27.362,44.259,33.954,5.727,5.892,11.683
318,0.856,33.862,27.468,44.268,33.964,5.851,6.056,11.723
319,0.869,33.998,27.393,44.249,33.957,5.81,6.015,11.641
320,0.879,33.271,27.37,44.23,33.95,5.687,5.892,11.354
321,0.882,33.543,27.444,44.249,33.954,5.81,5.974,11.395
322,0.895,33.717,27.425,44.239,33.954,5.81,5.974,11.272
323,0.892,33.872,27.472,44.249,33.954,5.851,5.892,11.231
324,0.899,33.262,27.444,44.239,33.94,5.768,5.851,11.066
325,0.905,33.504,27.46,44.259,33.95,5.851,5.933,10.984
326,0.912,33.746,27.358,44.249,33.95,5.81,6.056,11.108
327,0.912,33.843,27.362,44.22,33.94,5.645,5.892,10.902
328,0.915,33.233,27.476,44.239,33.95,5.768,5.892,10.82
329,0.915,33.475,27.437,44.249,33.954,5.768,5.892,10.738
330,0.905,33.717,27.401,44.259,33.957,5.768,5.933,10.738
331,0.899,33.823,27.401,44.239,33.957,5.687,5.892,10.574
332,0.899,33.184,27.441,44.249,33.961,5.851,5.892,10.574
333,0.889,33.455,27.46,44.268,33.971,5.892,6.015,10.697
334,0.879,33.649,27.444,44.22,33.954,5.727,5.933,10.615
335,0.882,33.775,27.444,44.23,33.954,5.727,5.892,10.491
336,0.889,33.194,27.452,44.317,33.954,5.727,5.851,10.45
337,0.892,33.484,27.385,44.239,33.954,5.768,5.851,10.491
338,0.885,33.688,27.468,44.22,33.95,5.727,5.81,10.409
339,0.895,33.804,27.437,44.239,33.957,5.768,5.81,10.327
340,0.908,33.194,27.377,44.268,33.968,5.933,5.974,10.286
341,0.892,33.417,27.417,44.22,33.954,5.768,5.81,10.204
342,0.915,33.649,27.437,44.23,33.954,5.768,5.851,10.163
343,0.922,33.736,27.401,44.239,33.95,5.687,5.727,10.163
344,0.925,33.145,27.433,44.23,33.957,5.727,5.892,10.163
345,0.925,33.407,27.433,44.22,33.947,5.687,5.851,10.204
346,0.945,33.639,27.389,44.22,33.957,5.687,5.727,9.916
347,0.945,33.736,27.429,44.278,33.975,5.851,5.851,10.04
348,0.935,33.242,27.437,44.23,33.957,5.687,5.851,9.999
349,0.935,33.533,27.476,44.22,33.961,5.768,5.81,9.957
350,0.925,33.727,27.35,44.23,33.947,5.687,5.81,9.957
351,0.931,33.804,27.385,44.239,33.954,5.81,5.851,9.999
352,0.912,33.078,27.441,44.22,33.954,5.687,5.933,10.04
353,0.922,33.388,27.413,44.22,33.954,5.687,5.768,9.834
354,0.935,33.591,27.46,44.249,33.961,5.727,5.892,10.04
355,0.905,33.591,27.511,44.201,33.954,5.768,5.81,9.916
356,0.918,33.184,27.421,44.23,33.954,5.81,5.892,9.999
357,0.918,33.436,27.417,44.22,33.954,5.645,5.768,9.916
358,0.925,33.649,27.456,44.22,33.957,5.892,5.892,10.04
359,0.928,33.746,27.429,44.21,33.947,5.768,5.851,9.999
360,0.941,33.223,27.413,44.201,33.943,5.645,5.727,9.752
361,0.964,33.533,27.417,44.249,33.957,5.768,5.892,9.876
362,0.951,33.659,27.433,44.201,33.947,5.727,5.81,9.876
363,0.971,33.388,27.385,44.21,33.954,5.687,5.81,9.876
364,0.981,33.136,27.421,44.201,33.947,5.645,5.768,9.793
365,0.974,33.397,27.488,44.21,33.954,5.851,5.933,9.876
366,0.987,33.533,27.318,44.181,33.943,5.727,5.851,9.916
367,0.997,33.204,27.437,44.181,33.94,5.645,5.727,9.711
368,1.0,33.204,27.46,44.201,33.957,5.81,5.81,9.834
369,0.994,33.407,27.413,44.201,33.954,5.768,5.81,9.752
370,0.994,33.601,27.433,44.288,33.954,5.81,5.892,9.876
371,0.984,32.971,27.362,44.172,33.95,5.687,5.81,9.793
372,0.981,33.087,27.456,44.21,33.957,5.81,5.851,9.916
373,0.981,33.31,27.413,44.181,33.957,5.81,5.933,9.999
374,0.971,33.484,27.417,44.143,33.943,5.645,5.768,9.834
375,0.984,32.99,27.496,44.172,33.954,5.687,5.851,9.916
376,0.971,33.174,27.401,44.181,33.954,5.768,5.768,9.957
377,0.974,33.426,27.413,44.181,33.961,5.727,5.768,10.286
378,0.974,33.552,27.441,44.181,33.947,5.687,5.768,10.491
379,0.981,32.845,27.366,44.191,33.95,5.727,5.851,11.025
380,0.987,33.087,27.397,44.191,33.957,5.81,5.933,11.641
381,0.997,33.31,27.385,44.152,33.94,5.687,5.768,12.011
382,1.014,33.475,27.456,44.162,33.95,5.768,5.81,12.791
383,1.014,32.797,27.472,44.172,33.957,5.727,5.768,13.407
384,1.02,33.078,27.421,44.172,33.961,5.81,5.851,14.105
385,1.027,33.291,27.492,44.162,33.954,5.687,5.727,14.639
386,1.05,33.426,27.409,44.191,33.961,5.768,5.768,15.05
387,1.04,32.806,27.409,44.172,33.961,5.851,5.892,15.543
388,1.037,33.049,27.448,44.114,33.947,5.604,5.768,15.666
389,1.05,33.3,27.354,44.143,33.954,5.768,5.768,15.83
390,1.037,33.407,27.381,44.152,33.957,5.687,5.727,15.83
391,1.037,32.816,27.381,44.162,33.957,5.727,5.851,15.953
392,1.037,33.087,27.46,44.152,33.95,5.687,5.687,15.789
393,1.027,33.33,27.456,44.181,33.961,5.687,5.768,15.748
394,1.033,33.436,27.413,44.162,33.961,5.851,5.851,15.748
395,1.033,32.787,27.46,44.133,33.947,5.687,5.727,15.543
396,1.037,33.087,27.433,44.181,33.957,5.687,5.81,15.42
397,1.037,33.3,27.393,44.143,33.964,5.645,5.768,15.255
398,1.037,33.407,27.46,44.162,33.961,5.687,5.81,15.173
399,1.04,32.671,27.326,44.133,33.954,5.604,5.687,14.763
400,1.069,32.981,27.401,44.162,33.95,5.687,5.645,14.639
401,1.066,33.174,27.425,44.172,33.968,5.851,5.81,14.475
402,1.063,33.242,27.397,44.162,33.961,5.687,5.727,14.27
403,1.089,32.826,27.421,44.152,33.947,5.687,5.81,14.105
404,1.099,33.107,27.393,44.143,33.954,5.604,5.687,13.9
405,1.106,33.32,27.472,44.143,33.954,5.687,5.768,13.736
406,1.119,33.349,27.421,44.143,33.95,5.604,5.81,13.613
407,1.135,32.681,27.377,44.143,33.954,5.522,5.645,13.243
408,1.142,32.961,27.492,44.172,33.961,5.645,5.892,13.284
409,1.125,33.107,27.393,44.133,33.954,5.563,5.851,13.079
410,1.119,33.213,27.389,44.152,33.954,5.645,5.81,12.956
411,1.129,32.836,27.417,44.123,33.95,5.645,5.768,12.75
412,1.129,33.116,27.452,44.133,33.957,5.645,5.851,12.75
413,1.112,33.271,27.444,44.114,33.954,5.645,5.81,12.668
414,1.135,33.378,27.425,44.143,33.95,5.481,5.727,12.339
415,1.145,32.719,27.488,44.152,33.961,5.687,5.851,12.339
416,1.109,32.952,27.362,44.143,33.957,5.645,5.81,12.257
417,1.125,33.126,27.377,44.133,33.957,5.727,5.851,12.257
418,1.135,33.291,27.468,44.114,33.95,5.604,5.727,11.97
419,1.148,32.739,27.385,44.143,33.964,5.727,5.81,11.929
420,1.148,32.971,27.397,44.23,33.957,5.687,5.851,12.011
421,1.158,33.155,27.417,44.104,33.947,5.645,5.768,11.6
422,1.194,32.923,27.444,44.143,33.957,5.81,5.81,11.6
423,1.184,32.671,27.444,44.123,33.954,5.727,5.81,11.559
424,1.194,32.913,27.413,44.123,33.954,5.768,5.81,11.477
425,1.207,33.078,27.448,44.114,33.954,5.687,5.727,11.395
426,1.217,32.71,27.444,44.123,33.964,5.727,5.892,11.272
427,1.214,32.681,27.366,44.114,33.961,5.81,5.974,11.354
428,1.221,32.913,27.472,44.085,33.936,5.645,5.687,11.108
429,1.234,33.116,27.37,44.133,33.957,5.727,5.727,11.149
430,1.221,32.545,27.385,44.094,33.95,5.687,5.727,11.025
431,1.221,32.622,27.437,44.123,33.961,5.727,5.81,11.025
432,1.221,32.855,27.464,44.104,33.954,5.687,5.727,10.82
433,1.217,33.039,27.464,44.123,33.964,5.81,5.768,10.861
434,1.221,32.467,27.421,44.114,33.964,5.851,5.892,10.984
435,1.221,32.651,27.437,44.065,33.947,5.645,5.727,10.779
436,1.227,32.952,27.444,44.172,33.954,5.81,5.727,10.738
437,1.224,33.078,27.374,44.114,33.954,5.81,5.727,10.779
438,1.234,32.467,27.476,44.094,33.957,5.727,5.81,10.697
439,1.24,32.69,27.362,44.075,33.95,5.727,5.687,10.615
440,1.267,32.952,27.401,44.104,33.971,5.892,5.727,10.532
441,1.267,33.087,27.405,44.114,33.961,5.892,5.892,10.615
442,1.276,32.351,27.358,44.065,33.95,5.727,5.727,10.491
443,1.303,32.661,27.429,44.085,33.957,5.768,5.687,10.409
444,1.299,32.884,27.37,44.075,33.954,5.727,5.645,10.327
445,1.309,33.02,27.456,44.104,33.95,5.768,5.687,10.368
446,1.316,32.371,27.429,44.056,33.954,5.687,5.604,10.163
447,1.332,32.671,27.37,44.104,33.961,5.81,5.687,10.122
448,1.332,32.874,27.472,44.085,33.978,5.892,5.81,10.204
449,1.326,32.971,27.421,44.056,33.957,5.768,5.687,10.122
450,1.322,32.351,27.417,44.094,33.964,5.81,5.727,10.081
451,1.326,32.622,27.409,44.094,33.957,5.727,5.645,10.04
452,1.319,32.845,27.46,44.085,33.957,5.768,5.727,10.081
453,1.313,32.952,27.441,44.075,33.954,5.687,5.563,9.999
454,1.322,32.555,27.433,44.075,33.954,5.727,5.645,9.999
455,1.316,32.836,27.456,44.123,33.968,5.851,5.768,10.04
456,1.306,33.02,27.425,44.085,33.961,5.687,5.687,9.999
457,1.316,33.145,27.389,44.085,33.957,5.727,5.687,10.04
458,1.316,32.535,27.444,44.046,33.954,5.727,5.645,9.957
459,1.319,32.836,27.413,44.075,33.964,5.81,5.727,9.957
460,1.329,33.029,27.381,44.046,33.954,5.645,5.645,9.916
461,1.336,33.145,27.444,44.056,33.954,5.645,5.604,9.793
462,1.339,32.719,27.433,44.104,33.968,5.687,5.645,9.834
463,1.342,32.923,27.413,44.065,33.95,5.687,5.645,9.834
464,1.355,33.155,27.437,44.065,33.964,5.727,5.727,9.752
465,1.359,33.242,27.429,44.046,33.957,5.645,5.687,9.67
466,1.372,32.7,27.295,44.085,33.964,5.687,5.727,9.793
467,1.365,32.952,27.397,44.036,33.957,5.645,5.687,9.793
468,1.372,33.165,27.444,44.026,33.954,5.604,5.563,9.588
469,1.388,33.271,27.405,44.075,33.961,5.727,5.687,9.752
470,1.368,33.078,27.35,44.046,33.961,5.604,5.645,9.67
471,1.365,33.349,27.413,44.056,33.961,5.687,5.727,9.752
472,1.362,33.514,27.468,44.026,33.954,5.604,5.687,9.67
473,1.342,33.581,27.417,44.056,33.968,5.687,5.727,9.752
474,1.336,33.417,27.433,44.046,33.961,5.687,5.727,9.876
475,1.326,33.659,27.417,43.988,33.95,5.563,5.645,9.752
476,1.322,33.901,27.421,44.046,33.95,5.768,5.687,9.834
477,1.316,34.046,27.393,44.026,33.954,5.687,5.645,9.752
478,1.309,33.639,27.444,44.046,33.961,5.727,5.768,9.834
479,1.303,33.901,27.37,44.026,33.954,5.687,5.645,9.711
480,1.313,34.085,27.374,44.036,33.964,5.727,5.727,9.752
481,1.309,34.095,27.417,44.046,33.964,5.892,5.851,9.834
482,1.313,34.056,27.37,43.988,33.947,5.687,5.727,9.752
483,1.316,34.356,27.425,44.026,33.957,5.768,5.768,9.793
484,1.309,34.482,27.448,44.017,33.961,5.81,5.645,9.67
485,1.296,34.511,27.444,44.026,33.961,5.81,5.768,9.752
486,1.299,34.569,27.409,44.017,33.95,5.727,5.645,9.629
487,1.299,34.831,27.35,44.026,33.961,5.768,5.687,9.588
488,1.276,34.966,27.456,44.026,33.968,5.974,5.851,9.67
489,1.263,34.947,27.33,43.997,33.954,5.81,5.768,9.67
490,1.247,35.131,27.385,44.017,33.961,5.892,5.727,9.629
491,1.23,35.354,27.389,43.997,33.954,5.768,5.727,9.629
492,1.221,35.489,27.437,44.007,33.964,5.851,5.81,9.711
493,1.194,35.373,27.425,43.997,33.954,5.768,5.727,9.629
494,1.184,35.577,27.397,44.017,33.964,5.81,5.727,9.629
495,1.168,35.79,27.464,44.036,33.975,5.974,5.851,9.629
496,1.135,35.896,27.413,43.997,33.954,5.892,5.768,9.67
497,1.135,35.877,27.362,44.007,33.961,5.851,5.81,9.711
498,1.122,36.09,27.456,44.007,33.957,5.81,5.727,9.629
499,1.115,36.322,27.354,44.007,33.961,5.892,5.81,9.711
500,1.112,36.4,27.346,43.978,33.943,5.768,5.727,9.629
501,1.106,36.293,27.405,44.007,33.954,5.851,5.727,9.588
502,1.092,36.565,27.401,44.056,33.968,5.933,5.81,9.793
503,1.076,36.72,27.421,44.007,33.957,5.81,5.727,9.752
504,1.076,36.845,27.433,43.988,33.954,5.727,5.768,9.793
505,1.069,36.836,27.421,43.988,33.957,5.81,5.687,9.752
506,1.076,37.117,27.366,43.997,33.964,5.851,5.768,9.793
507,1.053,37.291,27.322,43.978,33.957,5.768,5.768,9.876
508,1.046,37.407,27.437,43.968,33.954,5.727,5.645,9.67
509,1.04,37.281,27.452,44.017,33.971,5.768,5.727,9.752
510,0.997,37.514,27.366,44.075,33.961,5.768,5.687,9.711
511,0.997,37.698,27.397,44.007,33.961,5.81,5.727,9.752
512,0.974,37.785,27.429,43.978,33.957,5.687,5.687,9.752
513,0.958,37.717,27.425,43.988,33.968,5.81,5.768,9.793
514,0.941,37.921,27.413,43.959,33.961,5.81,5.81,9.876
515,0.938,38.124,27.405,43.968,33.95,5.645,5.645,9.629
516,0.928,38.24,27.413,44.085,33.957,5.768,5.727,9.876
517,0.895,38.201,27.385,43.997,33.961,5.768,5.768,9.834
518,0.892,38.434,27.413,43.978,33.957,5.727,5.768,9.876
519,0.889,38.599,27.405,43.968,33.954,5.727,5.687,9.67
520,0.889,38.705,27.385,43.978,33.968,5.727,5.768,9.752
521,0.879,38.521,27.393,43.978,33.964,5.851,5.768,9.916
522,0.879,38.754,27.472,43.93,33.94,5.645,5.645,9.752
523,0.892,38.976,27.417,43.978,33.954,5.727,5.727,9.793
524,0.876,39.025,27.417,43.978,33.95,5.645,5.645,9.67
525,0.876,38.86,27.433,43.968,33.957,5.687,5.727,9.793
526,0.869,39.112,27.389,43.959,33.954,5.604,5.687,9.67
527,0.872,39.306,27.413,43.968,33.968,5.645,5.727,9.711
528,0.859,39.315,27.433,43.978,33.971,5.81,5.892,9.916
529,0.849,39.257,27.358,43.93,33.95,5.645,5.727,9.752
530,0.843,39.538,27.35,43.959,33.957,5.687,5.81,9.999
531,0.823,39.683,27.381,43.959,33.964,5.645,5.687,10.204
532,0.82,39.693,27.448,43.968,33.957,5.687,5.768,10.532
533,0.8,39.519,27.393,43.939,33.957,5.563,5.645,10.984
534,0.793,39.79,27.421,43.968,33.968,5.687,5.727,11.641
535,0.78,39.926,27.444,43.968,33.975,5.768,5.892,12.545
536,0.774,40.09,27.381,43.968,33.954,5.563,5.687,13.243
537,0.774,39.761,27.381,43.949,33.954,5.727,5.727,14.023
538,0.77,39.974,27.413,43.939,33.957,5.645,5.687,14.598
539,0.78,40.139,27.397,43.968,33.957,5.645,5.687,15.338
540,0.777,40.11,27.362,43.939,33.95,5.604,5.645,15.707
541,0.784,40.042,27.409,43.949,33.957,5.645,5.645,16.035
542,0.787,40.284,27.484,43.978,33.982,5.81,5.81,16.323
543,0.777,40.371,27.389,43.939,33.957,5.604,5.687,16.487
544,0.787,40.323,27.417,43.959,33.961,5.604,5.81,16.57
545,0.784,40.332,27.401,43.939,33.954,5.604,5.645,16.487
546,0.79,40.555,27.381,43.959,33.964,5.727,5.727,16.405
547,0.78,40.671,27.393,43.93,33.954,5.522,5.687,16.364
548,0.78,40.255,27.405,43.93,33.961,5.522,5.604,16.077
549,0.797,40.342,27.385,43.988,33.971,5.687,5.727,16.077
550,0.774,40.526,27.37,43.939,33.964,5.645,5.687,15.953
551,0.764,40.671,27.389,43.949,33.957,5.645,5.727,15.748
552,0.751,40.526,27.496,43.91,33.95,5.645,5.604,15.584
553,0.754,40.72,27.397,43.939,33.971,5.727,5.768,15.502
554,0.741,40.913,27.381,43.92,33.961,5.727,5.768,15.42
555,0.747,41.039,27.448,43.91,33.954,5.522,5.645,15.091
556,0.751,40.478,27.401,43.959,33.964,5.645,5.81,15.009
557,0.734,40.633,27.393,43.939,33.961,5.645,5.768,14.845
558,0.741,40.836,27.405,43.949,33.964,5.645,5.81,14.722
559,0.738,40.933,27.358,43.91,33.957,5.645,5.687,14.434
560,0.751,40.642,27.381,43.93,33.964,5.727,5.81,14.393
561,0.741,40.855,27.362,43.92,33.961,5.727,5.851,14.352
562,0.747,41.039,27.444,43.891,33.95,5.563,5.727,14.023
563,0.757,41.185,27.374,43.92,33.961,5.687,5.768,13.9
564,0.754,40.604,27.405,43.91,33.961,5.645,5.727,13.695
565,0.757,40.846,27.444,43.92,33.961,5.645,5.81,13.613
566,0.774,41.03,27.366,43.91,33.954,5.522,5.687,13.284
567,0.764,41.156,27.389,43.92,33.961,5.687,5.768,13.243
568,0.764,40.604,27.401,43.93,33.968,5.727,5.974,13.284
569,0.761,40.846,27.326,43.891,33.95,5.563,5.727,12.956
570,0.757,41.068,27.35,43.92,33.964,5.645,5.727,12.873
571,0.754,41.156,27.397,43.91,33.961,5.563,5.687,12.668
572,0.747,40.691,27.452,43.891,33.957,5.604,5.81,12.709
573,0.734,40.933,27.401,43.901,33.957,5.604,5.727,12.545
574,0.724,41.156,27.421,43.93,33.964,5.645,5.768,12.422
575,0.721,41.243,27.405,43.93,33.975,5.768,5.892,12.422
576,0.721,40.575,27.389,43.891,33.957,5.645,5.687,12.257
577,0.728,40.884,27.409,43.92,33.964,5.645,5.687,12.093
578,0.734,41.03,27.429,43.91,33.964,5.604,5.768,11.97
579,0.728,41.127,27.374,43.92,33.964,5.645,5.81,11.888
580,0.741,40.575,27.35,43.891,33.957,5.604,5.727,11.764
581,0.738,40.846,27.358,43.91,33.968,5.604,5.727,11.6
582,0.751,41.001,27.401,43.939,33.978,5.727,5.851,11.641
583,0.751,41.01,27.334,43.881,33.957,5.604,5.727,11.436
584,0.774,40.575,27.389,43.891,33.964,5.645,5.687,11.395
585,0.77,40.797,27.401,43.881,33.957,5.645,5.687,11.313
586,0.774,40.991,27.405,43.891,33.957,5.687,5.768,11.231
587,0.774,41.02,27.413,43.872,33.954,5.645,5.687,11.108
588,0.774,40.449,27.433,43.891,33.964,5.604,5.604,10.984
589,0.78,40.71,27.37,43.91,33.971,5.892,5.851,10.984
590,0.761,40.846,27.334,43.872,33.961,5.727,5.687,10.82
591,0.757,40.904,27.385,43.891,33.957,5.768,5.727,10.861
592,0.761,40.41,27.433,43.862,33.961,5.687,5.768,10.738
593,0.757,40.642,27.381,43.901,33.961,5.727,5.727,10.861
594,0.744,40.788,27.377,43.862,33.954,5.687,5.727,10.738
595,0.741,40.788,27.433,43.872,33.957,5.727,5.687,10.532
596,0.747,40.294,27.401,43.949,33.975,5.892,5.768,10.615
597,0.734,40.516,27.397,43.872,33.961,5.81,5.768,10.574
598,0.741,40.691,27.405,43.881,33.943,5.851,5.727,10.574
599,0.747,40.565,27.358,43.891,33.957,5.81,5.645,10.368
600,0.757,40.313,27.381,43.891,33.964,5.81,5.768,10.491
601,0.757,40.545,27.358,43.852,33.964,5.851,5.727,10.409
602,0.774,40.729,27.417,43.872,33.957,5.81,5.563,10.245
603,0.787,40.168,27.374,43.91,33.964,5.851,5.687,10.327
604,0.784,39.993,27.389,43.891,33.964,5.851,5.645,10.245
605,0.787,40.206,27.456,43.862,33.961,5.892,5.687,10.245
606,0.787,40.342,27.326,43.862,33.961,5.81,5.645,10.081
607,0.787,39.964,27.385,43.872,33.968,5.892,5.645,10.163
608,0.777,40.003,27.389,43.881,33.971,5.974,5.727,10.286
609,0.787,40.235,27.385,43.843,33.947,5.727,5.563,10.122
610,0.79,40.429,27.405,43.862,33.957,5.851,5.687,10.122
611,0.761,39.693,27.374,43.862,33.957,5.851,5.645,10.122
612,0.774,39.838,27.421,43.862,33.964,5.851,5.645,10.122
613,0.757,40.061,27.37,43.843,33.961,5.768,5.645,10.04
614,0.764,40.216,27.401,43.872,33.968,5.851,5.687,10.122
615,0.744,39.47,27.429,43.852,33.964,5.933,5.727,10.204
616,0.757,39.674,27.283,43.862,33.95,5.727,5.604,10.081
617,0.757,39.935,27.366,43.862,33.964,5.81,5.645,10.122
618,0.754,40.013,27.405,43.843,33.961,5.768,5.645,10.081
619,0.754,39.412,27.35,43.862,33.964,5.892,5.687,10.122
620,0.751,39.625,27.385,43.833,33.954,5.81,5.563,9.999
621,0.77,39.858,27.354,43.862,33.964,5.851,5.727,10.122
622,0.77,39.964,27.437,43.852,33.968,6.015,5.727,10.245
623,0.777,39.18,27.374,43.843,33.954,5.81,5.645,10.04
624,0.777,39.48,27.401,43.833,33.961,5.892,5.645,10.081
625,0.784,39.674,27.429,43.833,33.954,5.933,5.604,9.999
626,0.797,39.8,27.374,43.843,33.964,5.933,5.604,10.04
627,0.793,38.899,27.385,43.823,33.961,5.892,5.522,9.957
628,0.793,39.18,27.385,43.833,33.957,5.933,5.645,9.916
629,0.787,39.393,27.338,43.862,33.971,6.138,5.768,10.04
630,0.764,39.461,27.346,43.823,33.957,6.015,5.687,9.916
631,0.767,38.87,27.393,43.823,33.964,5.974,5.687,9.999
632,0.774,39.131,27.433,43.823,33.961,5.974,5.645,9.957
633,0.757,39.335,27.377,43.833,33.961,6.015,5.645,10.081
634,0.754,39.403,27.358,43.804,33.957,5.974,5.604,10.04
635,0.754,38.628,27.429,43.804,33.954,5.974,5.563,9.957
636,0.754,38.918,27.354,43.872,33.971,6.097,5.727,10.163
637,0.731,39.063,27.35,43.814,33.957,6.015,5.687,10.122
638,0.741,39.151,27.448,43.814,33.947,6.015,5.727,10.163
639,0.741,38.579,27.318,43.814,33.95,6.015,5.604,10.04
640,0.764,38.841,27.377,43.814,33.957,6.056,5.687,10.081
641,0.761,38.996,27.342,43.775,33.947,6.056,5.604,10.163
642,0.767,39.093,27.397,43.814,33.943,5.974,5.563,9.999
643,0.78,38.444,27.413,43.852,33.964,6.056,5.687,10.04
644,0.767,38.647,27.346,43.794,33.954,5.974,5.645,9.999
645,0.78,38.841,27.429,43.804,33.957,6.056,5.645,10.04
646,0.774,38.879,27.275,43.823,33.95,6.015,5.645,9.999
647,0.79,38.356,27.362,43.814,33.954,6.179,5.645,10.081
648,0.777,38.589,27.421,43.784,33.943,6.056,5.687,10.04
649,0.787,38.773,27.346,43.765,33.947,5.974,5.563,9.916
650,0.787,38.86,27.389,43.823,33.964,6.097,5.687,10.04
651,0.764,38.25,27.385,43.784,33.964,6.015,5.645,9.916
652,0.767,38.511,27.405,43.804,33.961,6.056,5.687,10.04
653,0.754,38.676,27.417,43.775,33.954,6.015,5.563,9.916
654,0.757,38.637,27.366,43.794,33.968,6.015,5.727,9.999
655,0.741,37.94,27.437,43.784,33.964,6.138,5.727,10.122
656,0.747,38.201,27.401,43.755,33.957,5.974,5.481,9.957
657,0.754,38.415,27.35,43.794,33.957,6.056,5.687,9.916
658,0.744,38.201,27.437,43.775,33.957,5.974,5.563,9.916
659,0.757,37.872,27.306,43.784,33.957,6.015,5.645,9.876
660,0.761,38.143,27.334,43.775,33.957,5.933,5.563,9.752
661,0.761,38.289,27.366,43.784,33.968,6.138,5.687,9.793
662,0.761,37.853,27.385,43.794,33.968,6.179,5.81,9.876
663,0.764,37.707,27.413,43.736,33.95,5.974,5.522,9.711
664,0.774,37.979,27.362,43.775,33.968,6.056,5.645,9.752
665,0.764,38.124,27.389,43.765,33.957,5.933,5.563,9.752
666,0.777,37.543,27.389,43.765,33.968,5.974,5.604,9.629
667,0.777,37.591,27.366,43.746,33.957,5.892,5.522,9.506
668,0.78,37.814,27.437,43.784,33.971,5.974,5.645,9.588
669,0.77,37.959,27.295,43.775,33.971,6.015,5.768,9.711
670,0.761,37.31,27.326,43.736,33.95,5.81,5.563,9.547
671,0.767,37.494,27.397,43.755,33.961,5.933,5.645,9.547
672,0.761,37.688,27.385,43.755,33.964,5.892,5.563,9.588
673,0.761,37.862,27.393,43.755,33.971,5.974,5.604,9.588
674,0.747,37.126,27.338,43.736,33.957,5.892,5.481,9.547
675,0.741,37.33,27.409,43.755,33.971,5.974,5.604,9.588
676,0.744,37.553,27.405,43.784,33.971,6.056,5.727,9.752
677,0.731,37.659,27.346,43.717,33.95,5.892,5.563,9.547
678,0.738,37.01,27.452,43.736,33.961,5.933,5.563,9.629
679,0.734,37.233,27.31,43.746,33.961,5.933,5.481,9.547
680,0.738,37.475,27.318,43.755,33.968,5.974,5.563,9.547
681,0.747,37.562,27.358,43.726,33.961,5.851,5.481,9.465
682,0.741,36.768,27.346,43.765,33.971,5.974,5.604,9.506
683,0.744,37.029,27.381,43.765,33.968,6.138,5.727,9.629
684,0.751,37.214,27.362,43.726,33.957,5.933,5.563,9.506
685,0.767,37.349,27.377,43.746,33.964,6.015,5.563,9.629
686,0.774,36.787,27.381,43.726,33.964,6.015,5.563,9.547
687,0.78,37.059,27.346,43.736,33.964,6.056,5.563,9.752
688,0.767,37.243,27.374,43.736,33.957,5.974,5.481,9.752
689,0.774,37.378,27.267,43.775,33.964,6.056,5.522,9.916
690,0.767,36.526,27.354,43.765,33.971,6.179,5.645,10.245
691,0.747,36.787,27.409,43.717,33.961,6.056,5.563,10.286
692,0.757,37.01,27.35,43.736,33.964,6.056,5.604,10.615
693,0.741,37.117,27.366,43.717,33.957,5.974,5.522,10.943
694,0.738,36.477,27.397,43.736,33.964,6.056,5.481,11.436
695,0.724,36.72,27.389,43.697,33.954,5.974,5.481,11.888
696,0.738,36.971,27.389,43.784,33.964,5.974,5.399,12.257
697,0.728,37.049,27.374,43.755,33.975,6.138,5.645,12.791
698,0.711,36.264,27.397,43.707,33.957,5.974,5.481,13.079
699,0.728,36.565,27.35,43.717,33.964,5.974,5.563,13.49
700,0.738,36.758,27.295,43.717,33.957,5.974,5.481,13.736
701,0.744,36.826,27.358,43.717,33.964,5.974,5.563,13.982
702,0.741,36.303,27.452,43.717,33.957,5.933,5.563,14.188
703,0.754,36.603,27.389,43.717,33.954,5.851,5.399,14.146
704,0.767,36.826,27.413,43.755,33.964,5.974,5.563,14.311
705,0.747,36.836,27.346,43.697,33.954,5.892,5.604,14.311
706,0.757,36.216,27.374,43.697,33.968,5.974,5.563,14.311
707,0.764,36.468,27.401,43.688,33.957,5.892,5.563,14.146
708,0.757,36.652,27.37,43.707,33.968,5.933,5.645,14.105
709,0.754,36.7,27.334,43.726,33.968,5.892,5.645,14.064
710,0.751,36.284,27.31,43.678,33.947,5.81,5.481,13.9
711,0.744,36.565,27.385,43.736,33.968,5.933,5.563,13.941
712,0.734,36.72,27.37,43.697,33.957,5.892,5.604,13.9
713,0.721,36.671,27.37,43.707,33.954,5.892,5.645,13.859
714,0.711,36.032,27.385,43.688,33.957,5.933,5.563,13.777
715,0.718,36.303,27.437,43.707,33.968,5.933,5.687,13.818
716,0.715,36.477,27.271,43.688,33.954,5.933,5.687,13.818
717,0.708,36.381,27.338,43.688,33.943,5.768,5.522,13.571
718,0.721,36.138,27.389,43.697,33.964,6.015,5.604,13.531
719,0.711,36.342,27.377,43.697,33.957,5.974,5.645,13.407
720,0.721,36.516,27.354,43.765,33.964,5.974,5.645,13.366
721,0.724,36.167,27.338,43.688,33.954,5.892,5.522,13.12
722,0.728,36.061,27.456,43.697,33.964,6.056,5.645,13.161
723,0.721,36.303,27.37,43.688,33.975,6.015,5.727,13.161
724,0.731,36.477,27.366,43.639,33.954,5.892,5.563,12.873
725,0.761,36.032,27.421,43.668,33.964,5.892,5.645,12.791
726,0.754,36.051,27.358,43.688,33.957,5.974,5.604,12.668
727,0.751,36.284,27.377,43.659,33.964,6.015,5.645,12.627
728,0.751,36.419,27.362,43.659,33.957,5.974,5.563,12.422
729,0.751,35.945,27.358,43.668,33.968,6.056,5.687,12.463
730,0.731,36.109,27.377,43.678,33.961,6.056,5.768,12.545
731,0.724,36.293,27.346,43.62,33.957,5.851,5.604,12.381
732,0.741,36.448,27.429,43.688,33.964,5.974,5.687,12.339
733,0.721,35.983,27.362,43.668,33.964,5.933,5.604,12.175
734,0.701,36.206,27.35,43.659,33.964,6.056,5.645,12.216
735,0.705,36.41,27.405,43.639,33.957,5.892,5.563,12.175
736,0.708,36.574,27.35,43.678,33.968,6.015,5.645,12.052
737,0.692,35.935,27.401,43.697,33.968,6.097,5.727,12.093
738,0.688,36.148,27.358,43.62,33.95,5.933,5.604,11.888
739,0.701,36.4,27.306,43.668,33.964,5.974,5.645,11.806
740,0.705,36.516,27.346,43.639,33.968,5.974,5.563,11.641
741,0.708,35.935,27.381,43.659,33.968,6.015,5.687,11.641
742,0.708,36.187,27.393,43.639,33.961,5.974,5.563,11.436
743,0.724,36.419,27.366,43.659,33.964,6.056,5.604,11.354
744,0.724,36.535,27.397,43.668,33.975,6.138,5.768,11.395
745,0.724,36.022,27.385,43.63,33.964,6.015,5.645,11.231
746,0.738,36.332,27.37,43.649,33.964,6.015,5.604,11.066
747,0.734,36.535,27.385,43.63,33.961,5.974,5.645,10.902
748,0.738,36.642,27.405,43.649,33.964,6.056,5.727,10.984
749,0.724,36.032,27.334,43.62,33.957,5.933,5.604,10.82
750,0.731,36.342,27.35,43.649,33.964,6.056,5.645,10.738
751,0.728,36.545,27.374,43.659,33.975,6.097,5.687,10.779
752,0.711,36.594,27.413,43.62,33.957,5.974,5.604,10.697
753,0.708,36.313,27.342,43.639,33.964,5.974,5.687,10.738
754,0.701,36.565,27.354,43.62,33.957,5.974,5.687,10.615
755,0.698,36.787,27.397,43.63,33.971,6.097,5.768,10.697
756,0.692,36.845,27.346,43.62,33.961,6.015,5.727,10.656
757,0.695,36.274,27.393,43.601,33.957,5.974,5.563,10.491
758,0.708,36.565,27.401,43.63,33.968,6.056,5.727,10.574
759,0.692,36.72,27.354,43.63,33.971,6.056,5.687,10.574
760,0.715,36.816,27.346,43.62,33.968,6.056,5.727,10.574
761,0.708,36.429,27.35,43.591,33.961,6.015,5.645,10.409
762,0.705,36.71,27.381,43.63,33.964,6.097,5.687,10.491
763,0.708,36.865,27.326,43.601,33.968,6.097,5.81,10.491
764,0.715,36.933,27.354,43.581,33.954,5.933,5.645,10.245
765,0.734,36.516,27.429,43.61,33.968,6.138,5.727,10.327
766,0.721,36.768,27.366,43.581,33.964,6.056,5.727,10.245
767,0.731,36.933,27.385,43.601,33.964,6.097,5.727,10.245
768,0.724,36.962,27.405,43.572,33.964,6.015,5.645,10.081
769,0.711,36.603,27.334,43.63,33.971,6.138,5.687,10.163
770,0.711,36.845,27.342,43.601,33.975,6.138,5.892,10.286
771,0.705,37.0,27.318,43.562,33.961,5.974,5.645,10.081
772,0.711,36.981,27.417,43.572,33.964,6.138,5.645,10.122
773,0.692,36.71,27.35,43.572,33.961,6.056,5.645,10.04
774,0.695,36.962,27.342,43.591,33.964,6.097,5.687,10.122
775,0.695,37.097,27.385,43.562,33.957,5.974,5.604,9.916
776,0.692,37.068,27.334,43.61,33.964,6.097,5.727,10.081
777,0.682,36.826,27.405,43.601,33.978,6.22,5.892,10.122
778,0.682,37.02,27.389,43.533,33.961,6.015,5.768,9.916
779,0.701,37.233,27.338,43.63,33.964,6.056,5.687,9.916
780,0.701,36.933,27.377,43.581,33.961,5.933,5.687,9.834
781,0.701,36.826,27.366,43.581,33.964,6.056,5.687,9.876
782,0.698,37.068,27.377,43.562,33.964,6.015,5.645,9.711
783,0.708,37.223,27.397,43.581,33.961,6.097,5.687,9.67
784,0.708,36.962,27.37,43.572,33.971,6.138,5.851,9.834
785,0.711,36.991,27.385,43.542,33.964,6.056,5.687,9.711
786,0.731,37.272,27.342,43.562,33.957,6.056,5.727,9.711
787,0.734,37.398,27.366,43.542,33.968,5.974,5.645,9.588
788,0.731,36.923,27.389,43.562,33.971,6.056,5.768,9.629
789,0.718,37.068,27.338,43.63,33.961,5.974,5.727,9.547
790,0.721,37.31,27.354,43.581,33.964,6.097,5.687,9.588
791,0.708,37.446,27.385,43.61,33.978,6.138,5.892,9.793
792,0.701,36.923,27.401,43.552,33.957,6.015,5.768,9.67
793,0.701,37.155,27.413,43.552,33.961,6.015,5.81,9.711
794,0.692,37.359,27.362,43.562,33.961,6.015,5.687,9.588
795,0.692,37.504,27.433,43.542,33.964,6.015,5.81,9.752
796,0.688,37.0,27.33,43.542,33.95,5.974,5.81,9.588
797,0.685,37.252,27.37,43.552,33.964,6.015,5.727,9.506
798,0.688,37.475,27.37,43.572,33.978,6.138,5.933,9.67
799,0.682,37.562,27.267,43.533,33.957,5.974,5.81,9.67
800,0.695,37.029,27.31,43.542,33.964,5.974,5.81,9.67
801,0.698,37.281,27.322,43.533,33.957,5.974,5.768,9.506
802,0.708,37.485,27.385,43.562,33.964,5.974,5.81,9.588
803,0.705,37.582,27.354,43.523,33.964,6.056,5.851,9.67
804,0.721,37.233,27.381,43.533,33.95,5.892,5.687,9.382
805,0.734,37.523,27.425,43.542,33.964,6.015,5.81,9.506
806,0.724,37.717,27.358,43.533,33.964,6.015,5.81,9.547
807,0.734,37.804,27.354,43.523,33.961,5.974,5.81,9.465
808,0.724,37.097,27.342,43.513,33.961,5.974,5.81,9.342
809,0.731,37.378,27.279,43.552,33.964,6.015,5.851,9.424
810,0.708,37.591,27.295,43.542,33.968,6.056,5.974,9.588
811,0.711,37.659,27.322,43.484,33.95,5.933,5.768,9.342
812,0.715,37.214,27.444,43.523,33.957,5.974,5.851,9.342
813,0.698,37.465,27.35,43.523,33.957,5.933,5.81,9.424
814,0.692,37.659,27.377,43.523,33.964,6.015,5.851,9.465
815,0.688,37.717,27.385,43.513,33.954,5.892,5.727,9.382
816,0.695,37.301,27.358,43.523,33.964,6.056,5.768,9.506
817,0.685,37.514,27.366,43.542,33.964,6.056,5.892,9.547
818,0.682,37.727,27.366,43.494,33.95,5.851,5.727,9.382
819,0.695,37.833,27.306,43.523,33.964,6.056,5.768,9.465
820,0.695,37.368,27.31,43.504,33.957,6.015,5.727,9.342
821,0.698,37.63,27.338,43.523,33.957,6.056,5.768,9.506
822,0.701,37.804,27.393,43.523,33.961,5.933,5.81,9.424
823,0.711,37.872,27.354,43.533,33.964,6.056,5.768,9.424
824,0.715,37.349,27.37,43.552,33.975,6.22,5.851,9.465
825,0.711,37.572,27.358,43.484,33.957,6.056,5.727,9.382
826,0.721,37.775,27.362,43.62,33.957,6.056,5.727,9.424
827,0.728,37.804,27.334,43.494,33.961,6.097,5.687,9.342
828,0.734,37.349,27.35,43.513,33.964,6.138,5.851,9.382
829,0.724,37.572,27.342,43.484,33.957,6.138,5.687,9.382
830,0.711,37.804,27.299,43.504,33.964,6.097,5.727,9.301
831,0.705,37.756,27.37,43.523,33.978,6.302,5.851,9.465
832,0.695,37.368,27.377,43.465,33.961,6.22,5.768,9.424
833,0.695,37.62,27.338,43.504,33.964,6.302,5.768,9.382
834,0.685,37.795,27.362,43.484,33.961,6.262,5.727,9.424
835,0.682,37.707,27.401,43.484,33.968,6.343,5.851,9.465
836,0.678,37.359,27.35,43.581,33.964,6.302,5.768,9.424
837,0.678,37.63,27.358,43.504,33.964,6.22,5.687,9.342
838,0.688,37.814,27.397,43.523,33.982,6.426,5.851,9.465
839,0.662,37.504,27.342,43.475,33.961,6.302,5.727,9.342
840,0.695,37.436,27.354,43.484,33.971,6.385,5.768,9.301
841,0.688,37.669,27.326,43.475,33.961,6.302,5.727,9.301
842,0.698,37.833,27.421,43.484,33.968,6.385,5.768,9.382
843,0.688,37.388,27.334,43.465,33.961,6.302,5.768,9.424
844,0.708,37.446,27.334,43.484,33.961,6.262,5.687,9.177
845,0.718,37.717,27.425,43.504,33.968,6.343,5.81,9.382
846,0.705,37.824,27.334,43.484,33.964,6.302,5.727,9.177
847,0.715,37.301,27.334,43.475,33.961,6.426,5.768,9.259
848,0.708,37.407,27.37,43.455,33.961,6.426,5.645,9.177
849,0.721,37.669,27.33,43.494,33.968,6.631,5.851,9.259
850,0.701,37.775,27.306,43.475,33.964,6.713,5.851,9.382
851,0.705,37.146,27.338,43.436,33.95,6.631,5.687,9.301
852,0.711,37.368,27.417,43.475,33.964,6.877,5.727,9.301
853,0.698,37.572,27.35,43.465,33.968,6.919,5.727,9.259
854,0.685,37.707,27.362,43.465,33.964,7.001,5.81,9.342
855,0.682,37.117,27.413,43.446,33.964,6.919,5.727,9.259
856,0.685,37.349,27.362,43.475,33.961,7.124,5.727,9.382
857,0.682,37.562,27.362,43.494,33.964,7.288,5.892,9.465
858,0.669,37.659,27.358,43.436,33.957,7.124,5.727,9.382
859,0.688,37.136,27.314,43.475,33.964,7.165,5.81,9.382
860,0.688,37.378,27.287,43.455,33.961,7.124,5.645,9.301
861,0.695,37.601,27.338,43.446,33.961,7.247,5.727,9.342
862,0.695,37.688,27.413,43.436,33.957,7.206,5.645,9.301
863,0.715,36.923,27.37,43.465,33.964,7.247,5.727,9.424
864,0.708,37.204,27.377,43.484,33.971,7.329,5.851,9.834
865,0.705,37.388,27.338,43.436,33.957,7.288,5.727,10.04
866,0.724,37.514,27.346,43.455,33.964,7.206,5.768,10.45
867,0.734,36.884,27.358,43.426,33.961,7.124,5.687,10.861
868,0.728,37.165,27.374,43.426,33.968,7.206,5.727,11.559
869,0.724,37.359,27.291,43.426,33.961,7.083,5.687,12.257
870,0.721,37.485,27.279,43.436,33.968,7.165,5.645,13.038
871,0.715,36.981,27.385,43.465,33.978,7.247,5.687,13.859
872,0.695,37.194,27.417,43.446,33.971,7.165,5.727,14.639
873,0.708,37.427,27.338,43.436,33.964,7.083,5.687,15.214
874,0.695,37.523,27.35,43.426,33.964,7.042,5.604,15.502
875,0.692,36.894,27.409,43.426,33.964,7.206,5.81,16.035
876,0.692,37.155,27.318,43.436,33.961,7.001,5.727,16.241
877,0.682,37.368,27.358,43.436,33.964,6.96,5.563,16.159
878,0.695,37.465,27.362,43.475,33.971,7.001,5.727,16.282
879,0.675,36.739,27.322,43.436,33.954,6.96,5.645,16.2
880,0.692,37.02,27.342,43.436,33.968,6.96,5.727,16.2
881,0.705,37.175,27.326,43.407,33.964,6.877,5.645,15.995
882,0.708,37.252,27.409,43.446,33.971,6.96,5.768,15.995
883,0.715,36.904,27.338,43.436,33.968,6.919,5.727,15.953
884,0.724,37.175,27.35,43.397,33.954,6.754,5.563,15.584
885,0.734,37.378,27.429,43.436,33.968,6.837,5.645,15.502
886,0.724,37.407,27.322,43.426,33.964,6.795,5.687,15.338
887,0.734,36.942,27.342,43.426,33.968,6.837,5.727,15.173
888,0.724,37.175,27.342,43.417,33.957,6.754,5.645,14.845
889,0.728,37.368,27.318,43.426,33.968,6.837,5.727,14.763
890,0.715,37.368,27.291,43.426,33.971,6.96,5.851,14.68
891,0.718,36.448,27.326,43.368,33.957,6.754,5.727,14.393
892,0.715,36.749,27.417,43.417,33.968,6.795,5.768,14.311
893,0.701,36.904,27.35,43.407,33.957,6.713,5.645,14.105
894,0.695,36.874,27.381,43.407,33.961,6.837,5.727,14.146
895,0.695,36.594,27.354,43.397,33.957,6.795,5.687,13.9
896,0.695,36.884,27.318,43.407,33.968,6.795,5.645,13.777
897,0.685,37.049,27.366,43.426,33.978,6.877,5.851,13.818
898,0.688,36.623,27.314,43.397,33.964,6.713,5.768,13.571
899,0.685,36.506,27.239,43.426,33.968,6.795,5.768,13.366
900,0.698,36.72,27.303,43.407,33.968,6.754,5.645,13.161
901,0.711,36.904,27.334,43.417,33.964,6.795,5.727,13.161
902,0.715,36.526,27.366,43.397,33.961,6.713,5.687,13.038
903,0.724,36.623,27.342,43.388,33.95,6.672,5.604,12.832
904,0.738,36.874,27.354,43.426,33.975,6.754,5.81,12.832
905,0.715,36.981,27.362,43.407,33.964,6.754,5.645,12.709
906,0.731,36.274,27.358,43.397,33.957,6.713,5.687,12.709
907,0.734,36.371,27.35,43.388,33.957,6.631,5.687,12.463
908,0.734,36.613,27.37,43.388,33.971,6.754,5.768,12.422
909,0.734,36.749,27.33,43.388,33.971,6.713,5.768,12.339
910,0.731,36.206,27.287,43.359,33.961,6.631,5.645,12.093
911,0.738,36.448,27.322,43.397,33.968,6.672,5.727,12.052
912,0.715,36.642,27.413,43.388,33.964,6.631,5.727,11.97
913,0.718,36.778,27.334,43.388,33.968,6.672,5.687,11.929
914,0.708,36.042,27.338,43.368,33.957,6.631,5.604,11.723
915,0.698,36.284,27.397,43.397,33.971,6.672,5.81,11.723
916,0.695,36.497,27.291,43.388,33.971,6.672,5.81,11.764
917,0.685,36.632,27.306,43.368,33.957,6.549,5.687,11.559
918,0.695,36.167,27.366,43.378,33.968,6.631,5.687,11.518
919,0.698,36.41,27.303,43.378,33.968,6.59,5.604,11.354
920,0.708,36.642,27.354,43.388,33.968,6.549,5.768,11.313
921,0.701,36.758,27.31,43.368,33.954,6.467,5.645,11.149
922,0.711,35.916,27.405,43.368,33.968,6.59,5.727,11.066
923,0.718,36.187,27.334,43.397,33.971,6.672,5.933,11.108
924,0.708,36.361,27.33,43.368,33.964,6.467,5.81,10.902
925,0.724,36.497,27.397,43.378,33.971,6.467,5.81,10.861
926,0.728,35.877,27.314,43.359,33.961,6.385,5.768,10.697
927,0.734,36.158,27.338,43.359,33.971,6.467,5.768,10.656
928,0.724,36.322,27.35,43.33,33.961,6.426,5.81,10.615
929,0.734,36.477,27.314,43.388,33.968,6.426,5.768,10.409
930,0.728,35.857,27.338,43.397,33.971,6.467,5.851,10.491
931,0.698,36.08,27.31,43.359,33.968,6.385,5.81,10.45
932,0.711,36.303,27.405,43.359,33.971,6.343,5.851,10.409
933,0.695,36.41,27.358,43.349,33.968,6.302,5.768,10.327
934,0.688,35.78,27.326,43.359,33.971,6.343,5.892,10.327
935,0.685,36.051,27.393,43.349,33.968,6.343,5.892,10.327
936,0.695,36.255,27.306,43.455,33.964,6.138,5.687,10.122
937,0.692,36.361,27.322,43.397,33.975,6.343,5.892,10.245
938,0.692,35.683,27.401,43.349,33.971,6.262,5.81,10.122
939,0.692,35.935,27.314,43.339,33.968,6.302,5.81,10.163
940,0.698,36.148,27.346,43.339,33.971,6.22,5.768,9.999
941,0.705,36.226,27.279,43.359,33.971,6.302,5.851,10.04
942,0.701,35.596,27.374,43.33,33.964,6.262,5.851,10.081
943,0.718,35.857,27.358,43.349,33.957,6.138,5.687,9.876
944,0.728,36.09,27.314,43.359,33.968,6.22,5.851,9.999
945,0.721,36.071,27.37,43.339,33.954,6.302,5.851,9.876
946,0.731,35.567,27.334,43.339,33.971,6.179,5.851,9.916
947,0.734,35.79,27.306,43.33,33.961,6.138,5.768,9.752
948,0.734,36.003,27.397,43.33,33.971,6.262,5.851,9.834
949,0.731,35.993,27.271,43.349,33.971,6.302,6.015,9.916
950,0.721,35.606,27.318,43.31,33.957,6.097,5.768,9.752
951,0.721,35.896,27.322,43.33,33.964,6.22,5.851,9.711
952,0.715,36.032,27.381,43.32,33.964,6.138,5.768,9.67
953,0.711,35.906,27.362,43.339,33.968,6.179,5.851,9.711
954,0.692,35.412,27.279,43.291,33.961,6.138,5.768,9.67
955,0.695,35.702,27.374,43.32,33.975,6.097,5.851,9.67
956,0.698,35.848,27.326,43.349,33.971,6.302,5.933,9.752
957,0.675,35.606,27.326,43.3,33.964,6.138,5.81,9.67
958,0.698,35.528,27.397,43.32,33.964,6.179,5.851,9.67
959,0.688,35.78,27.263,43.31,33.975,6.138,5.81,9.588
960,0.701,35.954,27.318,43.32,33.968,6.138,5.851,9.67
961,0.711,35.393,27.291,43.31,33.961,6.097,5.81,9.588
962,0.715,35.412,27.381,43.31,33.964,6.056,5.727,9.465
963,0.718,35.664,27.362,43.339,33.978,6.138,5.851,9.629
964,0.705,35.79,27.31,43.31,33.968,6.097,5.851,9.588
965,0.721,35.305,27.35,43.3,33.964,6.097,5.851,9.506
966,0.728,35.441,27.299,43.3,33.968,6.056,5.768,9.506
967,0.741,35.683,27.346,43.31,33.971,6.056,5.851,9.588
968,0.724,35.819,27.362,43.291,33.968,6.056,5.892,9.629
969,0.738,35.054,27.299,43.281,33.957,5.974,5.727,9.424
970,0.728,35.286,27.338,43.33,33.968,6.056,5.892,9.506
971,0.695,35.48,27.334,43.3,33.964,6.056,5.768,9.506
972,0.708,35.615,27.401,43.3,33.968,6.015,5.81,9.588
973,0.698,35.16,27.354,43.281,33.964,5.933,5.768,9.424
974,0.701,35.412,27.318,43.31,33.968,6.097,5.81,9.506
975,0.688,35.615,27.37,43.291,33.968,6.097,5.933,9.588
976,0.692,35.741,27.326,43.271,33.957,5.933,5.727,9.424
977,0.698,34.986,27.338,43.291,33.968,6.056,5.81,9.465
978,0.692,35.218,27.37,43.291,33.968,5.974,5.727,9.424
979,0.688,35.422,27.295,43.31,33.964,6.097,5.81,9.506
980,0.705,35.548,27.287,43.281,33.968,6.015,5.687,9.259
981,0.715,35.044,27.374,43.291,33.964,6.097,5.768,9.382
982,0.715,35.315,27.338,43.281,33.982,6.22,5.933,9.465
983,0.721,35.489,27.342,43.262,33.954,5.933,5.768,9.342
984,0.728,35.635,27.326,43.291,33.961,6.015,5.768,9.382
985,0.728,34.87,27.374,43.271,33.968,5.974,5.768,9.218
986,0.724,35.131,27.358,43.281,33.971,6.056,5.727,9.342
987,0.724,35.344,27.303,43.252,33.964,6.015,5.687,9.136
988,0.721,35.451,27.397,43.271,33.968,6.097,5.768,9.136
989,0.721,34.753,27.295,43.281,33.982,6.22,5.892,9.301
990,0.711,34.995,27.259,43.252,33.954,6.015,5.727,9.136
991,0.715,35.238,27.362,43.271,33.964,6.056,5.81,9.095
992,0.711,35.315,27.326,43.252,33.961,6.097,5.727,9.095
993,0.705,34.84,27.326,43.271,33.964,6.056,5.81,9.136
994,0.708,35.121,27.35,43.252,33.961,5.974,5.687,9.136
995,0.715,35.334,27.306,43.271,33.978,6.056,5.687,9.095
996,0.715,35.422,27.354,43.291,33.985,6.179,5.851,9.218
997,0.695,34.792,27.338,43.262,33.968,6.056,5.768,9.177
998,0.718,35.073,27.346,43.262,33.964,5.974,5.768,9.177
999,0.715,35.267,27.299,43.31,33.961,5.974,5.727,9.013
1000,0.731,35.334,27.275,43.262,33.968,6.056,5.768,9.177
1001,0.734,34.744,27.342,43.242,33.961,5.974,5.727,9.095
1002,0.754,35.024,27.358,43.252,33.961,5.933,5.687,9.054
1003,0.764,35.257,27.31,43.281,33.971,6.056,5.727,9.095
1004,0.751,35.276,27.342,43.252,33.975,6.015,5.768,9.136
1005,0.767,34.705,27.401,43.233,33.971,6.015,5.727,9.136
1006,0.764,34.957,27.326,43.223,33.968,5.892,5.727,8.972
1007,0.793,35.15,27.342,43.252,33.968,5.974,5.768,9.095
1008,0.8,35.16,27.342,43.233,33.971,5.974,5.768,9.218
1009,0.807,34.647,27.283,43.223,33.954,5.851,5.604,9.054
1010,0.813,34.937,27.346,43.262,33.978,5.974,5.687,9.177
1011,0.807,35.083,27.33,43.242,33.971,5.851,5.727,9.177
1012,0.823,35.015,27.405,43.252,33.971,5.933,5.727,9.259
1013,0.813,34.637,27.31,43.223,33.964,5.851,5.604,9.177
1014,0.816,34.928,27.318,43.252,33.975,5.851,5.768,9.382
1015,0.81,35.063,27.377,43.242,33.964,5.933,5.81,9.465
1016,0.82,34.744,27.287,43.204,33.954,5.768,5.645,9.301
1017,0.816,34.666,27.346,43.252,33.964,5.892,5.687,9.342
1018,0.803,34.86,27.334,43.242,33.968,5.933,5.645,9.382
1019,0.8,35.005,27.267,43.242,33.968,5.933,5.727,9.382
1020,0.813,34.579,27.334,43.213,33.964,5.851,5.645,9.259
1021,0.81,34.618,27.35,43.242,33.975,5.974,5.727,9.424
1022,0.813,34.831,27.377,43.233,33.971,6.097,5.768,9.465
1023,0.826,34.986,27.342,43.194,33.957,5.851,5.604,9.259
1024,0.849,34.385,27.334,43.233,33.968,5.974,5.727,9.342
1025,0.843,34.463,27.366,43.223,33.968,5.974,5.687,9.259
1026,0.856,34.715,27.287,43.242,33.978,6.056,5.687,9.342
1027,0.866,34.85,27.314,43.204,33.964,5.933,5.645,9.177
1028,0.869,34.569,27.381,43.223,33.971,5.974,5.645,9.095
1029,0.879,34.782,27.326,43.291,33.975,6.22,5.727,9.177
1030,0.862,34.966,27.334,43.213,33.968,6.056,5.687,9.136
1031,0.882,35.141,27.346,43.213,33.968,6.138,5.687,9.177
1032,0.879,34.501,27.385,43.213,33.968,6.056,5.604,9.054
1033,0.869,34.753,27.33,43.223,33.968,6.179,5.727,9.136
1034,0.849,34.966,27.322,43.194,33.957,6.179,5.604,9.177
1035,0.833,35.121,27.37,43.213,33.964,6.262,5.563,8.972
1036,0.81,34.037,27.303,43.242,33.978,6.426,5.727,9.095
1037,0.777,34.269,27.33,43.223,33.971,6.343,5.563,9.136
1038,0.78,34.511,27.31,43.213,33.968,6.467,5.645,9.095
1039,0.761,34.637,27.334,43.213,33.968,6.467,5.645,9.013
1040,0.761,34.346,27.322,43.223,33.971,6.549,5.727,9.095
1041,0.767,34.598,27.334,43.194,33.964,6.549,5.645,9.095
1042,0.774,34.831,27.413,43.184,33.964,6.549,5.563,8.89
1043,0.787,34.976,27.295,43.233,33.975,6.754,5.687,9.095
1044,0.777,34.211,27.314,43.204,33.971,6.672,5.727,9.054
1045,0.793,34.501,27.342,43.213,33.961,6.754,5.727,9.013
1046,0.787,34.705,27.283,43.194,33.964,6.713,5.604,9.013
1047,0.78,34.84,27.346,43.194,33.971,6.795,5.727,9.013
1048,0.764,34.133,27.322,43.184,33.971,6.713,5.687,9.136
1049,0.77,34.443,27.318,43.281,33.964,6.672,5.522,8.89
1050,0.767,34.695,27.346,43.223,33.982,6.795,5.727,9.054
1051,0.751,34.715,27.346,43.204,33.964,6.754,5.604,9.054
1052,0.744,34.114,27.366,43.194,33.978,6.795,5.645,9.177
1053,0.731,34.405,27.275,43.194,33.964,6.713,5.481,9.054
1054,0.734,34.618,27.31,43.194,33.971,6.837,5.768,9.136
1055,0.721,34.666,27.362,43.175,33.964,6.795,5.687,9.218
1056,0.741,34.114,27.299,43.194,33.957,6.631,5.481,9.013
1057,0.741,34.414,27.381,43.213,33.975,6.795,5.645,9.177
1058,0.728,34.56,27.342,43.184,33.964,6.795,5.604,9.136
1059,0.718,34.647,27.314,43.204,33.964,6.837,5.645,9.136
1060,0.728,34.095,27.303,43.175,33.971,6.672,5.522,9.013
1061,0.721,34.366,27.31,43.194,33.975,6.877,5.645,9.218
1062,0.718,34.53,27.405,43.165,33.971,6.713,5.687,9.259
1063,0.721,34.589,27.31,43.175,33.957,6.631,5.522,9.095
1064,0.724,34.192,27.334,43.194,33.971,6.713,5.687,9.136
1065,0.711,34.405,27.35,43.175,33.964,6.672,5.604,9.136
1066,0.715,34.618,27.275,43.204,33.968,6.713,5.727,9.177
1067,0.711,34.627,27.358,43.155,33.964,6.672,5.604,9.013
1068,0.715,34.027,27.322,43.194,33.978,6.754,5.645,9.218
1069,0.708,34.269,27.318,43.271,33.975,6.713,5.687,9.301
1070,0.711,34.453,27.314,43.155,33.957,6.508,5.563,9.136
1071,0.708,34.453,27.334,43.184,33.971,6.672,5.645,9.259
1072,0.695,34.085,27.358,43.194,33.968,6.631,5.645,9.136
1073,0.675,34.356,27.31,43.204,33.968,6.631,5.645,9.259
1074,0.678,34.521,27.318,43.175,33.964,6.549,5.604,9.259
1075,0.682,34.24,27.318,43.175,33.978,6.631,5.687,9.259
1076,0.672,34.133,27.318,43.155,33.978,6.672,5.81,9.424
1077,0.665,34.356,27.354,43.146,33.964,6.426,5.604,9.342
1078,0.669,34.56,27.31,43.165,33.968,6.508,5.687,9.301
1079,0.659,33.998,27.326,43.175,33.968,6.508,5.563,9.136
1080,0.669,33.988,27.334,43.184,33.975,6.467,5.645,9.301
1081,0.672,34.211,27.33,43.155,33.964,6.426,5.522,9.177
1082,0.675,34.405,27.35,43.194,33.975,6.467,5.645,9.177
1083,0.675,33.94,27.322,43.184,33.978,6.549,5.768,9.342
1084,0.685,34.056,27.322,43.146,33.961,6.385,5.645,9.259
1085,0.695,34.317,27.362,43.165,33.971,6.467,5.563,9.218
1086,0.695,34.463,27.314,43.165,33.964,6.343,5.563,9.054
1087,0.715,33.891,27.342,43.155,33.971,6.385,5.604,9.095
1088,0.695,34.046,27.318,43.146,33.968,6.302,5.604,9.054
1089,0.688,34.308,27.192,43.194,33.971,6.385,5.604,9.013
1090,0.675,34.453,27.322,43.184,33.985,6.59,5.727,9.259
1091,0.669,33.698,27.322,43.146,33.964,6.426,5.563,9.136
1092,0.688,33.959,27.374,43.155,33.964,6.467,5.687,9.136
1093,0.672,34.172,27.279,43.155,33.964,6.549,5.604,9.095
1094,0.665,34.327,27.31,43.175,33.971,6.672,5.645,9.301
1095,0.665,33.736,27.334,43.136,33.957,6.549,5.563,9.177
1096,0.659,34.037,27.306,43.175,33.968,6.631,5.563,9.259
1097,0.659,34.259,27.366,43.194,33.975,6.877,5.81,9.465
1098,0.652,34.346,27.31,43.136,33.968,6.672,5.645,9.342
1099,0.665,33.852,27.306,43.155,33.971,6.713,5.687,9.342
1100,0.669,34.114,27.326,43.165,33.971,6.672,5.604,9.301
1101,0.675,34.317,27.334,43.165,33.971,6.713,5.604,9.382
1102,0.672,34.434,27.334,43.155,33.964,6.754,5.563,9.301
1103,0.685,33.698,27.318,43.155,33.968,6.713,5.604,9.259
1104,0.678,33.978,27.326,43.194,33.985,6.877,5.727,9.342
1105,0.675,34.153,27.358,43.136,33.971,6.713,5.604,9.342
1106,0.695,34.288,27.306,43.155,33.971,6.672,5.687,9.342
1107,0.698,33.804,27.322,43.165,33.971,6.631,5.563,9.177
1108,0.692,34.085,27.326,43.155,33.982,6.795,5.645,9.424
1109,0.692,34.279,27.247,43.136,33.971,6.713,5.645,9.342
1110,0.688,34.405,27.314,43.155,33.964,6.549,5.522,9.177
1111,0.695,33.746,27.346,43.194,33.975,6.672,5.645,9.301
1112,0.669,33.949,27.405,43.146,33.964,6.631,5.604,9.259
1113,0.672,34.172,27.322,43.146,33.975,6.672,5.645,9.382
1114,0.665,34.25,27.31,43.136,33.964,6.549,5.563,9.301
1115,0.659,33.862,27.362,43.136,33.975,6.672,5.645,9.382
1116,0.655,34.114,27.287,43.136,33.971,6.59,5.604,9.424
1117,0.662,34.327,27.322,43.126,33.95,6.467,5.44,9.259
1118,0.669,34.424,27.358,43.175,33.975,6.631,5.563,9.382
1119,0.659,33.717,27.2,43.155,33.964,6.549,5.522,9.382
1120,0.669,33.998,27.314,43.146,33.964,6.631,5.563,9.342
1121,0.678,34.172,27.318,43.117,33.961,6.467,5.522,9.301
1122,0.685,34.23,27.421,43.146,33.971,6.508,5.645,9.342
1123,0.685,33.814,27.31,43.117,33.968,6.549,5.687,9.382
1124,0.695,34.095,27.322,43.136,33.957,6.385,5.44,9.136
1125,0.721,34.327,27.299,43.155,33.975,6.508,5.645,9.342
1126,0.705,34.327,27.287,43.136,33.968,6.426,5.563,9.259
1127,0.715,33.707,27.326,43.136,33.964,6.426,5.604,9.259
1128,0.711,33.959,27.31,43.117,33.968,6.385,5.604,9.136
1129,0.711,34.162,27.2,43.155,33.971,6.549,5.687,9.301
1130,0.701,34.095,27.283,43.117,33.975,6.467,5.604,9.301
1131,0.698,33.765,27.326,43.117,33.943,6.385,5.522,9.259
1132,0.701,34.037,27.437,43.146,33.968,6.426,5.563,9.259
1133,0.682,34.172,27.342,43.126,33.968,6.385,5.604,9.218
1134,0.678,33.911,27.326,43.136,33.971,6.467,5.645,9.259
1135,0.669,33.794,27.346,43.107,33.961,6.385,5.563,9.136
1136,0.672,34.046,27.283,43.136,33.975,6.467,5.645,9.259
1137,0.659,34.201,27.33,43.136,33.975,6.549,5.727,9.424
1138,0.665,33.775,27.306,43.097,33.95,6.343,5.563,9.218
1139,0.685,33.833,27.263,43.126,33.971,6.467,5.645,9.177
1140,0.675,34.046,27.299,43.126,33.975,6.426,5.604,9.177
1141,0.682,34.211,27.314,43.136,33.975,6.508,5.645,9.259
1142,0.695,33.698,27.37,43.097,33.961,6.426,5.604,9.095
1143,0.701,33.843,27.346,43.136,33.964,6.631,5.687,9.259
1144,0.695,34.085,27.303,43.136,33.971,6.754,5.727,9.382
1145,0.698,34.201,27.31,43.117,33.964,6.631,5.563,9.136
1146,0.721,33.504,27.287,43.136,33.975,6.672,5.604,9.177
1147,0.728,33.688,27.362,43.107,33.975,6.672,5.687,9.136
1148,0.721,33.94,27.291,43.117,33.968,6.837,5.687,9.177
1149,0.734,34.056,27.306,43.107,33.968,6.754,5.604,9.054
1150,0.724,33.717,27.299,43.126,33.978,6.877,5.645,9.095
1151,0.721,33.94,27.358,43.126,33.982,6.96,5.81,9.342
1152,0.731,34.153,27.342,43.078,33.957,6.877,5.645,9.095
1153,0.741,34.327,27.279,43.126,33.971,6.877,5.727,9.177
1154,0.764,33.465,27.299,43.117,33.971,6.837,5.687,9.095
1155,0.77,33.736,27.362,43.126,33.978,6.96,5.727,9.095
1156,0.79,33.949,27.283,43.097,33.968,6.877,5.645,9.095
1157,0.807,34.095,27.346,43.126,33.971,6.919,5.687,9.054
1158,0.816,33.698,27.33,43.136,33.978,6.96,5.851,9.177
1159,0.813,33.969,27.299,43.136,33.971,6.877,5.727,9.177
1160,0.836,34.192,27.279,43.097,33.971,6.919,5.768,9.177
1161,0.846,34.279,27.322,43.097,33.975,6.795,5.768,9.177
1162,0.866,33.591,27.385,43.117,33.975,6.837,5.81,9.259
1163,0.869,33.862,27.247,43.117,33.964,6.795,5.727,9.218
1164,0.885,34.085,27.303,43.126,33.964,6.754,5.645,9.095
1165,0.895,34.211,27.334,43.146,33.978,6.919,5.81,9.218
1166,0.908,33.523,27.287,43.097,33.975,6.795,5.727,9.177
1167,0.945,33.814,27.338,43.097,33.968,6.795,5.768,9.218
1168,0.984,34.008,27.314,43.097,33.964,6.672,5.768,9.095
1169,1.033,34.133,27.326,43.184,33.971,6.795,5.892,9.177
1170,1.069,33.61,27.291,43.097,33.968,6.713,5.768,9.177
1171,1.125,33.92,27.318,43.117,33.968,6.672,5.645,9.054
1172,1.158,34.133,27.397,43.146,33.985,6.754,5.768,9.218
1173,1.155,34.172,27.287,43.107,33.968,6.713,5.81,9.095
1174,1.181,33.63,27.31,43.097,33.975,6.837,5.81,9.136
1175,1.214,33.882,27.346,43.097,33.964,6.713,5.727,9.095
1176,1.253,34.104,27.287,43.117,33.971,6.837,5.851,9.177
1177,1.306,34.162,27.334,43.097,33.971,6.795,5.81,9.301
1178,1.375,33.698,27.346,43.088,33.961,6.631,5.645,9.054
1179,1.451,33.998,27.31,43.136,33.971,6.713,5.727,9.177
1180,1.52,34.143,27.303,43.107,33.971,6.754,5.727,9.259
1181,1.602,34.201,27.306,43.117,33.975,6.795,5.81,9.259
1182,1.628,33.552,27.314,43.088,33.964,6.713,5.687,9.095
1183,1.644,33.843,27.338,43.117,33.975,6.754,5.81,9.259
1184,1.618,33.998,27.287,43.117,33.975,6.754,5.851,9.424
1185,1.582,34.046,27.33,43.078,33.954,6.631,5.604,9.259
1186,1.549,33.707,27.271,43.117,33.978,6.754,5.768,9.218
1187,1.497,33.93,27.31,43.097,33.968,6.713,5.727,9.259
1188,1.477,34.104,27.358,43.107,33.971,6.672,5.768,9.301
1189,1.441,34.066,27.271,43.155,33.964,6.508,5.687,9.136
1190,1.395,33.678,27.287,43.117,33.968,6.672,5.768,9.259
1191,1.28,33.92,27.295,43.088,33.978,6.754,5.851,9.424
1192,1.181,34.085,27.35,43.088,33.968,6.508,5.687,9.259
1193,1.096,33.843,27.35,43.097,33.971,6.672,5.727,9.301
1194,1.007,33.717,27.279,43.088,33.968,6.549,5.727,9.301
1195,0.948,33.949,27.322,43.078,33.968,6.59,5.768,9.342
1196,0.922,34.124,27.287,43.088,33.975,6.467,5.645,9.342
1197,0.879,33.62,27.303,43.117,33.968,6.59,5.768,9.629
1198,0.853,33.581,27.322,43.117,33.982,6.59,5.81,9.834
1199,0.843,33.833,27.251,43.068,33.961,6.467,5.727,9.793
1200,0.853,34.037,27.299,43.097,33.968,6.508,5.687,9.876
1201,0.83,33.591,27.389,43.097,33.971,6.508,5.687,9.957
1202,0.797,33.727,27.326,43.097,33.971,6.549,5.768,10.245
1203,0.77,33.959,27.322,43.088,33.971,6.426,5.727,10.286
1204,0.754,34.124,27.295,43.107,33.968,6.549,5.645,10.409
1205,0.688,33.455,27.358,43.117,33.985,6.59,5.851,10.82
1206,0.593,33.63,27.291,43.078,33.964,6.385,5.645,10.861
1207,0.541,33.872,27.243,43.078,33.971,6.508,5.727,10.943
1208,0.501,34.017,27.346,43.078,33.971,6.343,5.727,11.025
1209,0.465,33.426,27.232,43.088,33.971,6.426,5.768,11.313
1210,0.455,33.659,27.279,43.068,33.968,6.385,5.727,11.272
1211,0.452,33.92,27.306,43.126,33.978,6.426,5.727,11.477
1212,0.475,34.027,27.35,43.117,33.989,6.508,5.933,11.723
1213,0.488,33.426,27.35,43.058,33.968,6.343,5.687,11.641
1214,0.541,33.727,27.306,43.097,33.978,6.343,5.727,11.723
1215,0.573,33.94,27.374,43.088,33.968,6.302,5.727,11.683
1216,0.606,34.075,27.295,43.097,33.971,6.302,5.727,11.847
1217,0.642,33.349,27.295,43.088,33.961,6.22,5.687,11.723
1218,0.711,33.649,27.346,43.088,33.975,6.262,5.687,11.764
1219,0.754,33.862,27.192,43.117,33.985,6.467,5.851,11.888
1220,0.8,33.949,27.251,43.078,33.968,6.22,5.687,11.97
1221,0.833,33.368,27.267,43.068,33.978,6.302,5.687,11.97
1222,0.853,33.63,27.346,43.078,33.975,6.22,5.645,12.011
1223,0.879,33.862,27.31,43.088,33.975,6.262,5.768,12.216
1224,0.889,33.949,27.306,43.088,33.964,6.22,5.645,12.257
1225,0.902,33.436,27.314,43.068,33.975,6.138,5.645,12.175
1226,0.922,33.765,27.259,43.117,33.985,6.302,5.81,12.463
1227,0.915,33.93,27.322,43.058,33.968,6.22,5.727,12.463
1228,0.908,34.037,27.279,43.078,33.975,6.262,5.768,12.586
1229,0.912,33.33,27.299,43.068,33.971,6.138,5.645,12.463
1230,0.908,33.63,27.295,43.088,33.975,6.302,5.768,12.627
1231,0.892,33.814,27.318,43.068,33.971,6.22,5.81,12.709
1232,0.895,33.911,27.366,43.039,33.964,6.138,5.563,12.463
1233,0.905,33.543,27.291,43.097,33.968,6.302,5.645,12.586
1234,0.876,33.785,27.287,43.078,33.971,6.302,5.645,12.545
1235,0.882,33.978,27.346,43.068,33.975,6.302,5.727,12.545
1236,0.885,34.046,27.259,43.058,33.968,6.302,5.645,12.381
1237,0.882,33.426,27.318,43.068,33.975,6.385,5.687,12.463
1238,0.879,33.688,27.338,43.097,33.978,6.426,5.81,12.545
1239,0.876,33.891,27.279,43.155,33.964,6.302,5.563,12.216
1240,0.905,33.969,27.299,43.068,33.971,6.385,5.727,12.175
1241,0.892,33.436,27.322,43.068,33.971,6.302,5.687,12.052
1242,0.905,33.707,27.33,43.078,33.971,6.385,5.645,12.011
1243,0.902,33.911,27.279,43.058,33.968,6.426,5.563,11.764
1244,0.908,33.94,27.259,43.088,33.978,6.549,5.645,11.723
1245,0.905,33.417,27.303,43.088,33.978,6.713,5.81,11.764
1246,0.905,33.668,27.243,43.049,33.964,6.549,5.645,11.559
1247,0.925,33.882,27.334,43.058,33.975,6.672,5.687,11.477
1248,0.912,33.823,27.322,43.068,33.975,6.713,5.563,11.354
1249,0.922,33.455,27.275,43.058,33.982,6.795,5.727,11.313
1250,0.902,33.698,27.303,43.029,33.971,6.795,5.604,11.149
1251,0.905,33.891,27.299,43.068,33.975,6.877,5.687,11.025
1252,0.895,33.659,27.322,43.088,33.985,7.042,5.81,11.149
1253,0.882,33.533,27.267,43.058,33.971,6.96,5.645,10.984
1254,0.892,33.823,27.255,43.058,33.971,6.919,5.727,10.943
1255,0.885,33.988,27.342,43.068,33.975,6.877,5.727,10.779
1256,0.882,33.475,27.287,43.058,33.978,6.96,5.81,10.82
1257,0.879,33.465,27.303,43.049,33.968,6.919,5.687,10.738
1258,0.892,33.727,27.358,43.058,33.978,6.919,5.727,10.574
1259,0.866,33.891,27.236,43.136,33.982,7.042,5.81,10.697
1260,0.882,33.281,27.287,43.049,33.971,6.919,5.768,10.615
1261,0.902,33.426,27.31,43.058,33.968,6.919,5.768,10.532
1262,0.905,33.668,27.362,43.049,33.971,6.877,5.727,10.45
1263,0.918,33.823,27.318,43.068,33.971,7.042,5.851,10.491
1264,0.918,33.165,27.271,43.039,33.968,6.877,5.727,10.368
1265,0.931,33.378,27.318,43.058,33.975,6.877,5.687,10.245
1266,0.935,33.668,27.263,43.088,33.985,7.042,5.851,10.245
1267,0.925,33.746,27.303,43.049,33.975,6.96,5.851,10.122
1268,0.931,33.223,27.334,43.058,33.968,6.877,5.851,10.122
1269,0.938,33.484,27.283,43.078,33.957,6.877,5.81,9.999
1270,0.925,33.707,27.287,43.078,33.975,6.96,5.933,10.081
1271,0.925,33.843,27.271,43.049,33.968,6.877,5.851,9.999
1272,0.928,33.223,27.35,43.039,33.964,6.754,5.687,9.834
1273,0.918,33.514,27.306,43.117,33.985,6.919,5.892,9.916
1274,0.905,33.707,27.263,43.058,33.975,6.837,5.851,9.916
1275,0.902,33.843,27.31,43.068,33.975,6.795,5.892,9.876
1276,0.912,33.116,27.271,43.049,33.968,6.754,5.81,9.711
1277,0.912,33.397,27.342,43.078,33.978,6.877,5.892,9.834
1278,0.918,33.591,27.314,43.049,33.964,6.795,5.892,9.834
1279,0.912,33.736,27.243,43.049,33.961,6.713,5.687,9.629
1280,0.931,33.213,27.295,43.078,33.975,6.754,5.851,9.711
1281,0.915,33.446,27.291,43.058,33.971,6.713,5.851,9.629
1282,0.935,33.668,27.299,43.078,33.978,6.754,5.851,9.67
1283,0.941,33.765,27.314,43.058,33.968,6.672,5.81,9.588
1284,0.945,33.194,27.279,43.058,33.978,6.713,5.892,9.588
1285,0.945,33.426,27.299,43.049,33.975,6.713,5.851,9.67
1286,0.951,33.668,27.259,43.049,33.961,6.59,5.727,9.506
1287,0.981,33.785,27.314,43.078,33.978,6.672,5.851,9.547
1288,0.954,33.174,27.31,43.058,33.971,6.631,5.81,9.506
1289,0.961,33.465,27.259,43.049,33.975,6.631,5.933,9.465
1290,0.951,33.678,27.291,43.02,33.971,6.549,5.81,9.465
1291,0.954,33.765,27.306,43.049,33.975,6.631,5.892,9.465
1292,0.958,33.145,27.299,43.039,33.971,6.59,5.892,9.629
1293,0.941,33.426,27.31,43.049,33.961,6.467,5.727,9.424
1294,0.948,33.688,27.306,43.068,33.975,6.549,5.851,9.506
1295,0.935,33.736,27.287,43.039,33.975,6.549,5.892,9.465
1296,0.945,33.145,27.255,43.039,33.971,6.631,5.851,9.465
1297,0.935,33.397,27.342,43.029,33.968,6.508,5.768,9.424
1298,0.941,33.601,27.275,43.058,33.978,6.59,5.81,9.424
1299,0.945,33.659,27.271,43.058,33.975,6.59,5.933,9.506
1300,0.951,33.174,27.287,43.02,33.961,6.467,5.81,9.259
1301,0.974,33.446,27.322,43.058,33.971,6.59,5.892,9.424
1302,0.971,33.639,27.342,43.039,33.971,6.549,5.81,9.259
1303,0.981,33.678,27.291,43.068,33.978,6.59,5.81,9.424
1304,0.984,33.155,27.271,43.02,33.971,6.549,5.768,9.301
1305,0.997,33.436,27.366,43.068,33.975,6.59,5.851,9.177
1306,1.004,33.62,27.287,43.068,33.989,6.713,5.933,9.342
1307,1.0,33.562,27.295,43.02,33.964,6.631,5.81,9.136
1308,1.01,33.107,27.306,43.029,33.975,6.631,5.892,9.136
1309,1.023,33.359,27.224,43.039,33.971,6.549,5.81,9.095
1310,1.014,33.552,27.275,43.058,33.975,6.672,5.892,9.177
1311,1.007,33.31,27.271,43.01,33.961,6.59,5.768,9.259
1312,1.02,33.213,27.354,43.049,33.971,6.59,5.768,9.136
1313,1.007,33.484,27.342,43.078,33.985,6.713,5.851,9.259
1314,0.991,33.62,27.271,43.02,33.971,6.59,5.81,9.259
1315,0.997,33.039,27.326,43.029,33.971,6.631,5.851,9.301
1316,1.004,33.049,27.255,43.01,33.964,6.549,5.727,9.259
1317,1.004,33.3,27.287,43.058,33.975,6.713,5.851,9.342
1318,1.0,33.455,27.334,43.02,33.968,6.713,5.81,9.465
1319,1.007,33.029,27.255,43.117,33.961,6.631,5.687,9.259
1320,1.03,33.194,27.279,43.039,33.975,6.713,5.851,9.259
1321,1.027,33.388,27.279,43.039,33.968,6.754,5.768,9.259
1322,1.033,33.523,27.354,43.039,33.975,6.837,5.892,9.342
1323,1.037,32.894,27.303,43.029,33.968,6.837,5.81,9.218
1324,1.05,33.126,27.247,43.039,33.971,6.919,5.892,9.382
1325,1.05,33.339,27.31,43.029,33.975,7.001,5.892,9.382
1326,1.053,33.484,27.279,43.01,33.961,6.877,5.768,9.218
1327,1.076,32.777,27.306,43.02,33.975,7.001,5.851,9.177
1328,1.069,32.981,27.322,43.029,33.971,7.042,5.727,9.218
1329,1.089,33.233,27.267,43.029,33.975,7.042,5.81,9.177
1330,1.069,33.388,27.287,43.02,33.971,6.96,5.727,9.095
1331,1.069,32.816,27.342,43.029,33.978,7.124,5.851,9.177
1332,1.069,33.049,27.314,43.039,33.992,7.124,6.015,9.342
1333,1.066,33.262,27.271,43.0,33.968,7.001,5.81,9.218
1334,1.079,33.417,27.232,43.029,33.975,7.083,5.81,9.177
1335,1.073,32.816,27.259,43.02,33.975,7.124,5.81,9.095
1336,1.069,33.097,27.275,43.02,33.978,7.124,5.851,9.259
1337,1.066,33.31,27.255,43.02,33.971,7.042,5.768,9.136
1338,1.076,33.436,27.31,43.029,33.971,7.124,5.81,9.136
1339,1.073,32.729,27.314,43.039,33.989,7.165,5.892,9.259
1340,1.079,32.971,27.243,42.991,33.968,7.042,5.81,9.054
1341,1.109,33.204,27.354,43.02,33.975,7.042,5.851,9.136
1342,1.099,33.291,27.295,43.029,33.971,7.042,5.81,9.095
1343,1.119,32.787,27.271,43.039,33.975,7.083,5.851,9.095
1344,1.119,33.049,27.283,43.01,33.968,6.96,5.768,9.013
1345,1.132,33.291,27.263,43.02,33.982,7.083,5.81,8.972
1346,1.129,33.388,27.291,43.039,33.982,7.165,5.933,9.136
1347,1.145,32.632,27.275,43.0,33.975,7.001,5.768,9.013
1348,1.152,32.952,27.291,43.02,33.971,7.001,5.81,9.013
1349,1.161,33.165,27.303,43.02,33.978,6.96,5.768,8.931
1350,1.161,33.233,27.275,43.029,33.971,7.042,5.851,9.013
1351,1.148,32.671,27.37,43.0,33.971,6.877,5.81,9.013
1352,1.158,32.952,27.342,43.029,33.978,6.919,5.81,9.013
1353,1.152,33.165,27.295,43.039,33.992,7.042,5.974,9.177
1354,1.155,33.184,27.291,43.02,33.971,6.919,5.81,9.095
1355,1.161,32.7,27.251,43.01,33.971,6.877,5.81,9.301
1356,1.165,32.99,27.255,43.01,33.968,6.795,5.81,9.177
1357,1.168,33.155,27.322,43.029,33.975,6.919,5.892,9.301
1358,1.168,33.223,27.271,43.01,33.971,6.795,5.851,9.382
1359,1.175,32.671,27.299,43.029,33.971,6.837,5.81,9.382
1360,1.188,32.942,27.255,43.049,33.985,6.96,6.015,9.588
1361,1.191,33.078,27.306,43.029,33.971,6.754,5.851,9.629
1362,1.201,33.145,27.354,43.02,33.971,6.877,5.851,9.588
1363,1.221,32.632,27.279,43.01,33.971,6.795,5.81,9.629
1364,1.23,32.903,27.314,43.029,33.978,6.837,5.851,9.793
1365,1.234,33.078,27.247,43.01,33.968,6.754,5.851,9.711
1366,1.253,33.145,27.291,43.02,33.975,6.713,5.727,9.67
1367,1.267,32.748,27.314,43.049,33.985,6.795,5.892,9.834
1368,1.26,32.942,27.279,43.01,33.968,6.837,5.851,9.793
1369,1.273,33.155,27.299,43.029,33.975,6.795,5.851,9.834
1370,1.26,32.816,27.224,43.0,33.968,6.672,5.768,9.834
1371,1.273,32.651,27.326,43.029,33.971,6.754,5.974,9.999
1372,1.273,32.894,27.326,43.01,33.971,6.713,5.892,10.122
1373,1.273,33.087,27.275,43.0,33.964,6.549,5.768,9.916
1374,1.299,32.69,27.318,43.049,33.978,6.631,5.81,10.122
1375,1.273,32.651,27.283,43.01,33.975,6.549,5.851,10.204
1376,1.28,32.923,27.275,43.0,33.975,6.672,5.851,10.327
1377,1.283,33.068,27.279,43.01,33.968,6.549,5.851,10.327
1378,1.293,32.622,27.303,43.039,33.982,6.631,5.892,10.532
1379,1.286,32.748,27.279,43.02,33.975,6.631,5.892,10.656
1380,1.309,33.01,27.208,42.991,33.964,6.385,5.768,10.409
1381,1.336,33.184,27.322,43.01,33.975,6.549,5.81,10.574
1382,1.336,32.496,27.346,43.01,33.982,6.508,5.851,10.532
1383,1.349,32.71,27.283,43.0,33.975,6.467,5.892,10.656
1384,1.352,32.952,27.299,43.0,33.975,6.426,5.81,10.532
1385,1.365,33.097,27.239,43.039,33.978,6.631,5.892,10.697
1386,1.368,32.429,27.255,43.0,33.978,6.631,5.892,10.779
1387,1.388,32.661,27.322,42.971,33.961,6.385,5.768,10.615
1388,1.405,32.923,27.216,43.0,33.975,6.467,5.851,10.574
1389,1.398,33.058,27.243,43.0,33.975,6.549,5.851,10.491
1390,1.391,32.448,27.236,43.01,33.971,6.508,5.892,10.574
1391,1.388,32.719,27.322,42.981,33.971,6.426,5.768,10.45
1392,1.391,32.942,27.271,43.01,33.975,6.385,5.892,10.45
1393,1.385,33.068,27.216,43.0,33.978,6.508,5.974,10.574
1394,1.391,32.545,27.279,42.971,33.964,6.343,5.892,10.45
1395,1.408,32.855,27.283,43.01,33.975,6.426,5.81,10.491
1396,1.405,33.068,27.236,43.0,33.975,6.385,5.892,10.409
1397,1.391,33.184,27.334,43.02,33.985,6.467,5.892,10.491
1398,1.391,32.758,27.228,42.991,33.964,6.385,5.727,10.327
1399,1.405,33.078,27.267,43.01,33.975,6.508,5.851,10.409
1400,1.411,33.271,27.291,43.0,33.982,6.631,6.056,10.491
1401,1.421,33.359,27.295,42.962,33.971,6.467,5.81,10.286
1402,1.444,32.923,27.287,43.0,33.975,6.631,5.851,10.286
1403,1.444,33.184,27.236,42.991,33.964,6.59,5.81,10.204
1404,1.451,33.426,27.303,43.0,33.978,6.672,5.933,10.204
1405,1.454,33.475,27.295,42.981,33.968,6.59,5.727,10.122
1406,1.457,33.3,27.243,43.0,33.975,6.631,5.81,9.999
1407,1.464,33.581,27.33,43.029,33.989,6.877,5.974,10.04
1408,1.457,33.736,27.216,42.971,33.968,6.754,5.851,10.04
1409,1.47,33.852,27.239,42.981,33.975,6.672,5.851,9.999
1410,1.457,33.61,27.263,42.971,33.968,6.713,5.768,9.957
1411,1.451,33.882,27.299,43.0,33.978,6.795,5.892,10.081
1412,1.431,34.056,27.334,42.981,33.968,6.713,5.768,10.04
1413,1.424,34.133,27.247,42.981,33.975,6.754,5.768,9.876
1414,1.428,34.153,27.287,43.02,33.982,6.877,5.892,9.916
1415,1.398,34.366,27.33,42.981,33.975,6.795,5.81,9.957
1416,1.411,34.598,27.255,43.0,33.978,6.754,5.892,9.957
1417,1.405,34.627,27.31,42.981,33.968,6.713,5.768,9.834
1418,1.388,34.598,27.314,42.981,33.975,6.795,5.892,9.916
1419,1.375,34.831,27.255,42.991,33.975,6.713,5.768,9.834
1420,1.398,35.024,27.271,42.981,33.968,6.631,5.727,9.711
1421,1.411,35.073,27.275,43.039,33.978,6.795,5.81,9.711
1422,1.382,35.073,27.354,42.971,33.968,6.631,5.81,9.67
1423,1.391,35.325,27.259,43.0,33.978,6.672,5.851,9.711
1424,1.382,35.509,27.267,42.981,33.968,6.631,5.727,9.588
1425,1.378,35.693,27.287,42.991,33.975,6.754,5.81,9.67
1426,1.352,35.635,27.22,42.981,33.975,6.672,5.851,9.67
1427,1.362,35.867,27.287,42.962,33.961,6.508,5.727,9.465
1428,1.362,36.071,27.306,43.01,33.978,6.59,5.81,9.506
1429,1.339,36.09,27.275,42.981,33.978,6.549,5.768,9.465
1430,1.326,36.119,27.303,42.981,33.975,6.549,5.851,9.465
1431,1.299,36.342,27.31,42.971,33.971,6.467,5.687,9.342
1432,1.286,36.487,27.346,43.0,33.978,6.672,5.851,9.382
1433,1.25,36.7,27.271,42.981,33.975,6.549,5.892,9.424
1434,1.244,36.865,27.243,42.942,33.964,6.385,5.687,9.342
1435,1.244,37.117,27.318,43.0,33.982,6.467,5.851,9.301
1436,1.214,37.233,27.232,42.981,33.978,6.385,5.81,9.301
1437,1.188,37.097,27.299,42.981,33.975,6.508,5.81,9.382
1438,1.178,37.223,27.303,42.981,33.971,6.385,5.81,9.218
1439,1.161,37.456,27.243,43.02,33.978,6.426,5.892,9.342
1440,1.148,37.572,27.263,42.981,33.978,6.467,5.851,9.342
1441,1.152,37.737,27.299,42.942,33.961,6.22,5.645,9.177
1442,1.155,37.969,27.358,42.981,33.978,6.343,5.81,9.259
1443,1.135,38.143,27.306,42.962,33.978,6.22,5.768,9.136
1444,1.132,38.269,27.271,42.981,33.978,6.343,5.892,9.259
1445,1.112,38.163,27.239,42.962,33.964,6.302,5.768,9.054
1446,1.112,38.424,27.204,42.991,33.978,6.343,5.851,9.095
1447,1.089,38.618,27.295,42.971,33.975,6.343,5.933,9.177
1448,1.076,38.725,27.275,42.952,33.957,6.179,5.81,9.054
1449,1.083,38.647,27.247,42.962,33.975,6.302,5.974,9.013
1450,1.043,38.85,27.295,42.981,33.975,6.179,5.851,9.013
1451,1.037,39.034,27.303,42.981,33.978,6.302,5.892,9.095
1452,1.017,39.131,27.295,42.962,33.971,6.138,5.892,8.931
1453,0.994,39.17,27.299,42.971,33.975,6.302,5.892,9.013
1454,0.968,39.403,27.228,43.0,33.985,6.302,6.097,9.177
1455,0.958,39.557,27.275,42.923,33.964,6.097,5.933,9.013
1456,0.974,39.722,27.232,42.981,33.978,6.22,5.933,9.013
1457,0.945,39.664,27.303,42.962,33.975,6.138,5.974,8.931
1458,0.931,39.887,27.306,42.981,33.978,6.138,5.974,9.013
1459,0.918,40.081,27.228,42.962,33.968,6.056,5.892,8.89
1460,0.912,40.197,27.247,42.991,33.978,6.179,6.056,8.972
1461,0.905,40.032,27.334,42.981,33.982,6.22,6.138,9.054
1462,0.899,40.235,27.295,42.933,33.968,6.056,5.974,8.89
1463,0.912,40.468,27.275,42.962,33.975,6.138,5.933,8.849
1464,0.902,40.526,27.243,42.952,33.968,6.138,5.933,8.849
1465,0.892,40.381,27.263,42.962,33.982,6.179,5.974,8.931
1466,0.889,40.604,27.212,42.942,33.971,6.015,5.892,8.849
1467,0.892,40.797,27.291,42.971,33.982,6.056,5.933,8.767
1468,0.882,40.855,27.295,42.991,33.985,6.262,6.015,8.89
1469,0.866,40.662,27.224,42.933,33.964,6.097,5.974,8.849
1470,0.862,40.933,27.271,42.962,33.975,6.138,6.056,8.89
1471,0.846,41.107,27.306,42.971,33.978,6.056,5.933,8.89
1472,0.843,41.136,27.318,42.952,33.978,6.056,5.974,9.013
1473,0.82,41.146,27.275,42.942,33.968,6.056,5.892,8.931
1474,0.83,41.417,27.243,42.962,33.978,6.097,5.892,8.89
1475,0.813,41.553,27.291,42.981,33.985,6.179,6.015,9.095
1476,0.8,41.562,27.259,42.933,33.975,6.056,5.974,8.972
1477,0.797,41.32,27.279,42.962,33.978,6.179,5.974,9.013
1478,0.787,41.553,27.279,42.962,33.971,6.138,5.974,9.054
1479,0.78,41.708,27.247,42.962,33.971,6.22,5.974,9.095
1480,0.787,41.717,27.232,42.952,33.971,6.179,5.933,8.972
1481,0.8,41.64,27.326,42.952,33.978,6.22,5.892,8.89
1482,0.8,41.882,27.271,42.962,33.982,6.467,6.097,9.095
1483,0.787,41.979,27.267,42.942,33.971,6.467,5.974,9.054
1484,0.797,42.173,27.236,42.971,33.978,6.549,5.933,9.054
1485,0.8,41.785,27.192,42.942,33.971,6.549,5.974,9.054
1486,0.807,42.018,27.263,42.971,33.975,6.631,5.974,9.136
1487,0.807,42.134,27.263,42.942,33.971,6.672,5.851,9.013
1488,0.803,42.192,27.239,42.962,33.971,6.713,5.851,8.931
1489,0.8,42.144,27.279,42.971,33.985,7.001,5.974,9.095
1490,0.774,42.318,27.275,42.942,33.975,6.795,5.892,9.013
1491,0.774,42.483,27.354,42.933,33.978,6.837,5.933,9.095
1492,0.77,42.153,27.267,42.952,33.968,6.877,5.81,8.972
1493,0.761,42.115,27.287,42.962,33.978,7.001,5.933,9.095
1494,0.744,42.328,27.22,42.942,33.961,6.96,5.892,9.095
1495,0.751,42.502,27.31,42.942,33.968,6.919,5.727,8.972
1496,0.757,42.26,27.251,42.981,33.982,7.124,5.933,9.136
1497,0.738,42.337,27.251,42.942,33.968,7.001,5.933,9.136
1498,0.747,42.56,27.33,42.952,33.968,7.042,5.892,9.136
1499,0.738,42.667,27.188,42.962,33.968,6.96,5.81,9.054
1500,0.751,42.289,27.243,42.962,33.971,7.042,5.851,9.177
1501,0.764,42.405,27.279,42.942,33.961,6.96,5.81,9.177
1502,0.77,42.618,27.318,42.952,33.961,6.96,5.81,9.095
1503,0.78,42.773,27.31,42.981,33.971,7.042,5.851,9.177
1504,0.751,42.153,27.239,42.952,33.964,7.083,5.768,9.136
1505,0.774,42.366,27.224,42.952,33.971,7.083,5.851,9.095
1506,0.774,42.57,27.232,42.942,33.964,7.042,5.81,9.095
1507,0.777,42.667,27.303,42.942,33.975,7.124,5.892,9.136
1508,0.77,42.221,27.255,42.923,33.975,7.124,5.892,9.259
1509,0.777,42.483,27.224,42.952,33.968,7.001,5.727,8.931
1510,0.77,42.734,27.271,42.971,33.985,7.165,5.892,9.054
1511,0.757,42.763,27.318,42.942,33.982,7.124,5.851,9.013
1512,0.747,42.231,27.255,42.952,33.978,7.124,5.851,9.095
1513,0.747,42.463,27.259,42.933,33.975,7.124,5.727,9.013
1514,0.741,42.676,27.239,42.962,33.989,7.124,5.851,9.095
1515,0.724,42.734,27.228,42.923,33.978,7.124,5.851,9.259
1516,0.734,42.085,27.239,42.923,33.968,7.042,5.687,9.054
1517,0.744,42.376,27.255,42.933,33.982,7.124,5.851,9.095
1518,0.738,42.521,27.287,42.933,33.978,7.042,5.81,9.136
1519,0.734,42.618,27.271,42.952,33.982,7.042,5.892,9.095
1520,0.754,42.25,27.239,42.913,33.968,7.001,5.768,8.972
1521,0.757,42.521,27.338,42.942,33.985,7.124,5.851,9.013
1522,0.747,42.686,27.31,42.942,33.982,7.124,5.974,9.259
1523,0.754,42.725,27.271,42.913,33.971,6.919,5.81,9.054
1524,0.774,42.095,27.259,42.942,33.978,6.919,5.81,9.095
1525,0.761,42.308,27.239,42.923,33.978,6.837,5.768,9.013
1526,0.774,42.521,27.259,42.942,33.982,6.96,5.892,9.136
1527,0.767,42.55,27.236,42.904,33.975,6.837,5.727,8.972
1528,0.78,42.037,27.255,42.952,33.978,6.877,5.81,9.013
1529,0.787,42.269,27.255,42.933,33.992,6.96,5.974,9.177
1530,0.77,42.415,27.232,42.913,33.968,6.795,5.851,9.054
1531,0.77,42.483,27.334,42.933,33.978,6.837,5.892,9.054
1532,0.754,41.96,27.291,42.923,33.975,6.795,5.81,9.095
1533,0.751,42.202,27.287,42.952,33.982,6.795,5.892,9.136
1534,0.738,42.386,27.236,42.933,33.968,6.713,5.851,9.013
1535,0.747,42.434,27.247,42.942,33.985,6.795,5.81,9.013
1536,0.757,41.834,27.267,42.981,33.992,6.877,6.056,9.259
1537,0.738,42.037,27.224,42.913,33.971,6.754,5.892,9.136
1538,0.741,42.221,27.275,42.933,33.975,6.713,5.851,9.136
1539,0.754,42.25,27.192,42.942,33.975,6.631,5.851,9.054
1540,0.754,41.747,27.255,42.952,33.971,6.713,5.933,9.177
1541,0.757,41.95,27.342,42.933,33.971,6.59,5.892,9.095
1542,0.764,42.124,27.295,42.952,33.978,6.754,5.892,9.054
1543,0.767,42.289,27.303,42.971,33.992,6.754,6.015,9.218
1544,0.761,41.591,27.224,42.904,33.971,6.631,5.851,9.177
1545,0.784,41.863,27.212,42.942,33.978,6.59,5.933,9.177
1546,0.784,42.008,27.255,42.962,33.982,6.508,5.892,9.054
1547,0.793,41.679,27.255,42.942,33.985,6.59,5.974,9.136
1548,0.784,41.359,27.224,42.913,33.971,6.508,5.851,9.054
1549,0.787,41.621,27.251,42.923,33.978,6.508,5.851,8.972
1550,0.787,41.766,27.263,42.971,33.985,6.672,5.974,9.136
1551,0.764,41.427,27.306,42.923,33.975,6.467,5.892,9.136
1552,0.777,41.437,27.228,42.933,33.978,6.467,5.974,9.177
1553,0.774,41.64,27.228,42.913,33.975,6.426,5.892,9.095
1554,0.757,41.795,27.243,42.933,33.978,6.508,5.974,9.136
1555,0.761,41.098,27.232,42.904,33.971,6.385,5.974,9.177
1556,0.767,41.185,27.255,42.933,33.975,6.262,5.892,8.931
1557,0.761,41.427,27.303,42.962,33.978,6.385,5.974,9.136
1558,0.754,41.533,27.263,42.933,33.982,6.385,5.892,9.095
1559,0.754,41.001,27.208,42.923,33.971,6.385,5.974,9.136
1560,0.77,41.146,27.255,42.923,33.971,6.302,5.892,9.095
1561,0.777,41.359,27.31,42.933,33.978,6.385,5.933,9.177
1562,0.767,41.456,27.22,42.933,33.971,6.343,5.974,9.177
1563,0.784,40.584,27.243,42.904,33.971,6.22,5.851,9.054
1564,0.793,40.826,27.2,42.942,33.975,6.343,5.974,9.054
1565,0.793,40.972,27.22,42.913,33.975,6.302,6.015,9.095
1566,0.793,41.136,27.255,42.923,33.978,6.343,6.015,9.177
1567,0.793,40.497,27.291,42.894,33.971,6.302,5.974,9.013
1568,0.79,40.749,27.259,42.952,33.982,6.426,6.097,9.177
1569,0.803,40.933,27.216,42.923,33.978,6.426,6.138,9.301
1570,0.793,41.059,27.255,42.884,33.964,6.262,5.974,9.054
1571,0.79,40.449,27.326,42.923,33.985,6.302,6.056,9.136
1572,0.78,40.652,27.22,42.904,33.971,6.262,6.056,9.095
1573,0.774,40.875,27.212,42.923,33.978,6.302,6.097,9.218
1574,0.767,40.972,27.212,42.894,33.968,6.179,5.974,9.177
1575,0.767,40.148,27.208,42.933,33.971,6.343,6.138,9.177
1576,0.764,40.381,27.255,42.933,33.985,6.426,6.262,9.301
1577,0.741,40.575,27.239,42.884,33.964,6.22,6.097,9.218
1578,0.757,40.691,27.259,42.923,33.975,6.343,6.056,9.259
1579,0.754,40.013,27.247,42.933,33.978,6.262,6.056,9.177
1580,0.764,40.265,27.22,42.913,33.978,6.262,6.179,9.259
1581,0.767,40.449,27.279,42.894,33.968,6.22,6.056,9.259
1582,0.78,40.516,27.247,42.923,33.971,6.22,6.015,9.218
1583,0.787,39.955,27.236,42.942,33.989,6.385,6.179,9.301
1584,0.777,40.187,27.224,42.894,33.968,6.22,6.015,9.259
1585,0.79,40.39,27.145,42.913,33.971,6.22,6.097,9.382
1586,0.793,40.458,27.263,42.913,33.964,6.262,5.974,9.342
1587,0.81,39.79,27.279,42.913,33.982,6.22,6.056,9.342
1588,0.807,40.013,27.172,42.913,33.975,6.22,6.056,9.342
1589,0.81,40.226,27.239,42.913,33.975,6.262,5.892,9.136
1590,0.803,40.284,27.271,42.933,33.985,6.385,6.097,9.342
1591,0.777,39.596,27.287,42.904,33.978,6.262,5.933,9.301
1592,0.777,39.877,27.267,42.904,33.975,6.302,6.138,9.301
1593,0.767,40.042,27.204,42.904,33.975,6.262,5.892,9.259
1594,0.78,40.11,27.243,42.904,33.982,6.262,6.056,9.342
1595,0.757,39.49,27.251,42.884,33.975,6.262,5.974,9.301
1596,0.767,39.78,27.228,42.894,33.975,6.179,5.892,9.177
1597,0.767,39.974,27.271,42.942,33.992,6.302,6.097,9.342
1598,0.751,39.955,27.236,42.923,33.982,6.302,6.015,9.259
1599,0.757,39.393,27.243,42.913,33.982,6.22,6.015,9.342
1600,0.761,39.645,27.236,42.904,33.968,6.22,5.974,9.218
1601,0.774,39.809,27.255,42.923,33.982,6.262,6.056,9.259
1602,0.77,39.955,27.318,42.904,33.978,6.302,6.097,9.301
1603,0.777,39.267,27.22,42.875,33.968,6.056,5.933,9.259
1604,0.797,39.528,27.255,42.904,33.975,6.138,6.015,9.259
1605,0.79,39.674,27.224,42.904,33.975,6.179,5.974,9.177
1606,0.793,39.412,27.216,42.913,33.975,6.262,6.015,9.301
1607,0.79,39.17,27.287,42.894,33.975,6.138,5.892,9.095
1608,0.793,39.412,27.2,42.904,33.982,6.22,5.974,9.095
1609,0.793,39.548,27.228,42.904,33.985,6.262,6.056,9.218
1610,0.774,39.102,27.259,42.884,33.971,6.138,5.933,9.136
1611,0.78,39.073,27.291,42.884,33.975,6.138,5.933,9.095
1612,0.767,39.306,27.236,42.894,33.978,6.179,5.974,9.095
1613,0.767,39.451,27.192,42.904,33.982,6.22,5.933,9.136
1614,0.754,38.909,27.236,42.884,33.975,6.179,5.892,9.054
1615,0.764,39.015,27.255,42.904,33.975,6.22,5.851,9.013
1616,0.757,39.228,27.239,42.923,33.985,6.343,6.015,9.095
1617,0.741,39.335,27.255,42.884,33.964,6.138,5.851,9.095
1618,0.754,38.695,27.216,42.894,33.978,6.22,5.892,9.095
1619,0.747,38.87,27.228,42.913,33.971,6.22,5.892,9.013
1620,0.77,39.093,27.239,42.904,33.978,6.262,5.933,9.095
1621,0.761,39.189,27.291,42.884,33.968,6.138,5.892,9.013
1622,0.767,38.453,27.306,42.904,33.975,6.22,5.727,8.89
1623,0.774,38.676,27.247,42.942,33.992,6.302,5.892,8.972
1624,0.767,38.87,27.251,42.913,33.975,6.179,5.851,8.972
1625,0.774,38.986,27.208,42.904,33.978,6.179,5.851,8.931
1626,0.777,38.395,27.224,42.884,33.975,6.22,5.81,8.849
1627,0.787,38.647,27.279,42.913,33.978,6.262,5.892,8.89
1628,0.78,38.831,27.224,42.884,33.975,6.179,5.851,8.89
1629,0.793,38.986,27.251,42.894,33.975,6.138,5.727,8.726
1630,0.787,38.192,27.216,42.923,33.989,6.22,5.892,8.89
1631,0.764,38.424,27.271,42.913,33.975,6.22,5.851,8.849
1632,0.767,38.647,27.306,42.904,33.978,6.138,5.851,8.931
1633,0.761,38.754,27.236,42.894,33.975,6.138,5.81,8.849
1634,0.754,38.114,27.243,42.884,33.978,6.138,5.851,9.013
1635,0.747,38.347,27.22,42.884,33.975,6.179,5.892,8.972
1636,0.751,38.589,27.216,42.904,33.971,6.015,5.727,8.808
1637,0.747,38.715,27.295,42.942,33.989,6.097,5.851,9.013
1638,0.738,38.076,27.255,42.884,33.975,6.097,5.81,8.972
1639,0.741,38.376,27.243,42.913,33.975,6.056,5.892,9.013
1640,0.741,38.56,27.176,42.884,33.975,5.974,5.81,8.931
1641,0.754,38.647,27.275,42.913,33.982,6.097,5.851,8.972
1642,0.751,37.95,27.291,42.884,33.971,5.974,5.892,9.054
1643,0.757,38.269,27.2,42.884,33.964,5.851,5.727,8.89
1644,0.761,38.473,27.239,42.923,33.982,6.015,5.851,9.013
1645,0.761,38.511,27.129,42.894,33.975,5.933,5.851,8.972
1646,0.764,37.872,27.208,42.894,33.975,6.015,5.892,9.013
1647,0.774,38.124,27.299,42.865,33.975,5.933,5.81,8.972
1648,0.77,38.308,27.176,42.904,33.985,6.015,5.851,9.013
1649,0.767,38.376,27.216,42.904,33.978,6.056,5.974,9.013
1650,0.757,37.804,27.224,42.855,33.964,5.851,5.727,8.972
1651,0.767,38.095,27.31,42.894,33.978,6.015,5.851,9.054
1652,0.751,38.24,27.228,42.884,33.978,5.974,5.81,9.013
1653,0.744,38.308,27.161,42.884,33.975,5.974,5.851,9.054
1654,0.734,37.737,27.228,42.884,33.964,5.851,5.81,9.013
1655,0.744,38.008,27.184,42.913,33.978,5.892,5.933,9.095
1656,0.731,38.182,27.243,42.904,33.982,6.015,6.015,9.259
1657,0.724,38.192,27.271,42.855,33.964,5.81,5.81,9.095
1658,0.734,37.766,27.239,42.884,33.978,5.851,5.892,9.177
1659,0.728,38.027,27.259,42.904,33.971,5.851,5.892,9.095
1660,0.728,38.182,27.216,42.904,33.978,5.851,5.974,9.177
1661,0.731,38.356,27.295,42.894,33.968,5.768,5.892,9.013
1662,0.738,37.795,27.224,42.894,33.978,5.892,5.892,8.972
1663,0.738,38.037,27.2,42.923,33.992,5.974,6.015,9.218
1664,0.731,38.153,27.224,42.865,33.975,5.81,5.933,9.095
1665,0.747,38.066,27.165,42.884,33.975,5.81,5.974,9.136
1666,0.751,37.892,27.228,42.884,33.978,5.768,5.851,9.095
1667,0.767,38.124,27.259,42.894,33.978,5.851,5.933,9.095
1668,0.764,38.269,27.204,42.884,33.975,5.768,5.892,9.013
1669,0.761,37.756,27.22,42.894,33.975,5.727,5.81,8.931
1670,0.764,37.659,27.255,42.933,33.982,5.892,5.974,9.095
1671,0.731,37.843,27.326,42.884,33.978,5.727,5.892,9.095
1672,0.734,38.027,27.2,42.894,33.978,5.81,5.933,9.136
1673,0.721,37.775,27.196,42.865,33.971,5.687,5.892,8.972
1674,0.724,37.882,27.224,42.904,33.978,5.81,5.933,9.259
1675,0.718,38.105,27.153,42.875,33.975,5.687,5.892,9.177
1676,0.721,38.279,27.247,42.884,33.968,5.645,5.851,8.972
1677,0.715,37.649,27.299,42.923,33.982,5.81,5.933,9.177
1678,0.708,37.766,27.2,42.884,33.975,5.81,5.892,9.095
1679,0.701,38.008,27.192,42.894,33.978,5.768,5.933,9.177
1680,0.715,38.114,27.259,42.884,33.968,5.727,5.851,9.054
1681,0.721,37.64,27.275,42.894,33.978,5.81,6.015,9.136
1682,0.724,37.824,27.232,42.884,33.968,5.81,5.933,9.095
1683,0.734,38.076,27.259,42.884,33.961,5.645,5.768,9.013
1684,0.734,38.231,27.232,42.942,33.982,5.81,5.974,9.136
1685,0.738,37.659,27.208,42.904,33.968,5.768,5.974,9.136
1686,0.738,37.911,27.236,42.884,33.978,5.768,6.015,9.136
1687,0.741,38.124,27.279,42.875,33.971,5.727,5.933,9.095
1688,0.747,38.24,27.176,42.904,33.982,5.851,6.056,9.095
1689,0.747,37.659,27.168,42.884,33.978,5.81,5.933,9.136
1690,0.738,37.921,27.247,42.884,33.961,5.687,5.81,8.972
1691,0.738,38.153,27.275,42.913,33.975,5.768,5.974,9.013
1692,0.718,38.201,27.196,42.894,33.968,5.81,5.892,9.054
1693,0.715,37.766,27.216,42.884,33.975,5.81,5.974,9.095
1694,0.711,38.037,27.208,42.875,33.964,5.81,5.933,8.931
1695,0.711,38.231,27.184,42.913,33.982,5.933,5.974,9.095
1696,0.695,38.318,27.228,42.875,33.975,5.974,6.056,9.218
1697,0.695,37.892,27.251,42.865,33.961,5.81,5.81,8.972
1698,0.708,38.201,27.188,42.913,33.978,6.015,5.974,9.054
1699,0.695,38.366,27.184,42.884,33.971,6.056,5.974,9.054
1700,0.698,38.444,27.259,42.884,33.971,6.097,5.933,9.013
1701,0.708,37.843,27.291,42.875,33.964,6.097,5.81,8.972
1702,0.711,38.124,27.247,42.913,33.985,6.179,5.974,9.013
1703,0.715,38.298,27.255,42.894,33.985,6.343,6.138,9.177
1704,0.715,38.356,27.212,42.865,33.964,6.179,5.933,9.013
1705,0.734,37.988,27.255,42.884,33.975,6.302,5.933,9.013
1706,0.728,38.26,27.204,42.894,33.975,6.302,5.851,8.89
1707,0.734,38.434,27.263,42.884,33.975,6.385,5.974,8.972
1708,0.738,38.482,27.243,42.855,33.971,6.262,5.81,8.931
1709,0.744,37.979,27.204,42.894,33.978,6.343,5.892,8.89
1710,0.731,38.231,27.224,42.923,33.989,6.467,6.015,9.013
1711,0.718,38.366,27.239,42.846,33.961,6.385,5.892,8.931
1712,0.718,38.434,27.259,42.884,33.982,6.385,5.851,8.972
1713,0.701,38.114,27.228,42.884,33.971,6.343,5.851,8.849
1714,0.701,38.385,27.196,42.894,33.982,6.385,5.892,9.013
1715,0.698,38.531,27.224,42.865,33.968,6.302,5.851,8.972
1716,0.701,38.608,27.236,42.884,33.978,6.385,5.892,8.931
1717,0.695,38.318,27.255,42.923,33.985,6.467,5.974,9.013
1718,0.688,38.502,27.228,42.894,33.978,6.385,5.851,8.931
1719,0.695,38.705,27.2,42.904,33.975,6.343,5.933,8.972
1720,0.705,38.879,27.228,42.875,33.975,6.302,5.81,8.931
1721,0.711,38.279,27.299,42.884,33.978,6.343,5.892,8.972
1722,0.715,38.473,27.251,42.884,33.971,6.302,5.851,9.054
1723,0.724,38.676,27.255,42.875,33.971,6.262,5.81,8.808
1724,0.738,38.579,27.2,42.913,33.978,6.426,5.81,8.931
1725,0.731,38.385,27.18,42.894,33.961,6.302,5.892,8.931
1726,0.741,38.647,27.228,42.904,33.975,6.385,5.892,8.931
1727,0.741,38.773,27.243,42.875,33.971,6.302,5.81,8.808
1728,0.734,38.502,27.2,42.894,33.978,6.343,5.933,8.89
1729,0.744,38.453,27.172,42.875,33.964,6.302,5.892,8.931
1730,0.734,38.695,27.247,42.865,33.964,6.179,5.81,8.767
1731,0.731,38.879,27.299,42.904,33.978,6.385,5.933,8.808
1732,0.711,38.879,27.224,42.884,33.978,6.302,5.81,8.808
1733,0.715,39.015,27.196,42.894,33.978,6.302,5.851,8.931
1734,0.708,39.228,27.172,42.875,33.975,6.262,5.768,8.726
1735,0.705,39.373,27.18,42.904,33.975,6.302,5.892,8.89
1736,0.708,38.221,27.224,42.884,33.971,6.385,5.892,8.931
1737,0.698,38.337,27.228,42.875,33.957,6.179,5.81,8.808
1738,0.715,38.608,27.224,42.904,33.975,6.22,5.81,8.849
1739,0.698,38.725,27.228,42.884,33.975,6.22,5.851,8.849
1740,0.705,38.521,27.224,42.894,33.971,6.385,5.892,8.89
1741,0.705,38.715,27.303,42.884,33.968,6.385,5.768,8.808
1742,0.718,38.957,27.18,42.894,33.978,6.467,5.892,8.89
1743,0.711,39.063,27.192,42.875,33.975,6.467,6.015,8.931
1744,0.728,38.444,27.204,42.875,33.964,6.262,5.81,8.808
1745,0.747,38.725,27.141,42.904,33.982,6.467,5.81,8.931
1746,0.731,38.889,27.216,42.884,33.975,6.467,5.892,8.808
1747,0.738,39.005,27.279,42.884,33.975,6.508,5.892,8.89
1748,0.728,38.57,27.184,42.875,33.971,6.508,5.851,8.767
1749,0.734,38.831,27.216,42.894,33.985,6.549,5.974,8.931
1750,0.724,39.025,27.291,42.884,33.978,6.59,6.015,9.054
1751,0.721,39.131,27.295,42.884,33.968,6.426,5.851,8.931
1752,0.724,38.463,27.188,42.884,33.975,6.508,5.974,9.013
1753,0.708,38.686,27.168,42.884,33.982,6.549,5.933,9.013
1754,0.715,38.918,27.188,42.894,33.982,6.549,5.974,9.095
1755,0.708,38.996,27.176,42.875,33.975,6.549,5.892,9.013
1756,0.711,38.511,27.224,42.904,33.982,6.631,5.933,9.136
1757,0.701,38.754,27.283,42.904,33.985,6.59,6.056,9.259
1758,0.695,38.947,27.176,42.875,33.964,6.467,5.892,9.136
1759,0.715,39.073,27.2,42.894,33.975,6.508,5.974,9.136
1760,0.701,38.666,27.255,42.884,33.975,6.508,5.933,9.054
1761,0.721,38.918,27.291,42.884,33.985,6.549,6.015,9.095
1762,0.721,39.083,27.216,42.884,33.968,6.508,5.933,9.095
1763,0.734,39.189,27.224,42.894,33.978,6.549,6.015,9.095
1764,0.724,38.628,27.192,42.904,33.978,6.631,6.097,9.259
1765,0.728,38.87,27.196,42.855,33.975,6.426,5.974,9.054
1766,0.741,39.083,27.216,42.894,33.975,6.467,6.015,9.013
1767,0.741,39.122,27.236,42.875,33.971,6.508,5.933,9.013
1768,0.741,38.579,27.216,42.894,33.975,6.549,6.056,9.054
1769,0.741,38.831,27.192,42.875,33.971,6.343,5.892,9.054
1770,0.728,39.025,27.212,42.904,33.975,6.59,6.056,9.013
1771,0.711,39.044,27.303,42.894,33.989,6.59,6.22,9.259
1772,0.718,38.695,27.232,42.855,33.964,6.385,5.974,9.013
1773,0.724,38.986,27.208,42.894,33.975,6.508,5.974,9.136
1774,0.708,39.151,27.236,42.894,33.964,6.467,5.933,9.054
1775,0.705,39.199,27.153,42.884,33.978,6.508,5.974,9.177
1776,0.708,38.589,27.216,42.884,33.968,6.426,5.933,9.054
1777,0.701,38.821,27.232,42.894,33.989,6.508,5.974,9.095
1778,0.698,38.996,27.196,42.904,33.978,6.59,6.015,9.301
1779,0.695,39.141,27.204,42.875,33.957,6.343,5.974,9.136
1780,0.705,38.657,27.239,42.894,33.975,6.426,5.974,9.136
1781,0.708,38.879,27.271,42.894,33.978,6.467,5.933,9.013
1782,0.715,39.044,27.216,42.894,33.975,6.426,5.974,9.177
1783,0.721,38.85,27.239,42.884,33.961,6.467,5.81,9.013
1784,0.734,38.637,27.259,42.923,33.982,6.467,5.974,9.054
1785,0.728,38.831,27.161,42.894,33.975,6.467,6.056,9.136
1786,0.738,39.015,27.192,42.894,33.961,6.179,5.851,8.972
1787,0.757,38.628,27.271,42.894,33.985,6.385,5.892,8.972
1788,0.738,38.492,27.184,42.894,33.978,6.343,5.933,9.013
1789,0.747,38.754,27.224,42.913,33.982,6.426,5.974,9.095
1790,0.734,38.889,27.204,42.884,33.968,6.343,5.892,8.972
1791,0.724,38.473,27.287,42.884,33.982,6.385,5.933,9.136
1792,0.718,38.521,27.141,42.884,33.978,6.385,5.933,9.095
1793,0.705,38.773,27.192,42.884,33.964,6.22,5.81,8.972
1794,0.721,38.938,27.192,42.904,33.978,6.262,5.933,9.095
1795,0.705,38.434,27.176,42.884,33.978,6.302,5.851,9.054
1796,0.698,38.608,27.224,42.884,33.982,6.302,5.851,9.095
1797,0.695,38.812,27.22,42.875,33.978,6.262,5.851,9.136
1798,0.695,38.967,27.157,42.923,33.978,6.343,5.974,9.177
1799,0.682,38.289,27.208,42.894,33.978,6.262,6.056,9.136
1800,0.711,38.511,27.212,42.875,33.975,6.097,5.81,8.972
1801,0.734,38.754,27.31,42.904,33.982,6.262,5.974,9.054
1802,0.708,38.86,27.18,42.884,33.985,6.138,5.933,9.054
1803,0.728,38.211,27.208,42.884,33.982,6.22,5.933,9.054
1804,0.724,38.434,27.228,42.884,33.971,6.097,5.81,8.972
1805,0.724,38.666,27.153,42.913,33.985,6.22,5.933,9.054
1806,0.731,38.783,27.196,42.894,33.982,6.262,6.015,9.095
1807,0.741,38.172,27.216,42.855,33.968,6.056,5.81,8.972
1808,0.751,38.492,27.172,42.904,33.982,6.138,5.933,8.931
1809,0.744,38.676,27.2,42.884,33.985,6.097,5.851,8.972
1810,0.731,38.763,27.239,42.904,33.978,6.138,5.892,9.013
1811,0.731,38.105,27.291,42.865,33.975,6.015,5.81,8.931
1812,0.724,38.385,27.204,42.904,33.982,6.097,5.892,9.013
1813,0.711,38.579,27.204,42.913,33.992,6.097,6.015,9.095
1814,0.711,38.657,27.208,42.846,33.968,5.892,5.851,9.013
1815,0.711,38.105,27.18,42.894,33.978,6.015,5.81,9.054
1816,0.698,38.356,27.22,42.894,33.975,5.974,5.851,9.013
1817,0.695,38.55,27.216,42.894,33.978,6.056,5.851,9.054
1818,0.695,38.628,27.208,42.884,33.978,5.933,5.81,8.931
1819,0.695,37.872,27.212,42.904,33.982,6.015,5.892,9.013
1820,0.711,38.143,27.208,42.923,33.989,6.138,5.892,9.095
1821,0.692,38.279,27.279,42.875,33.975,5.933,5.851,8.972
1822,0.715,38.395,27.22,42.884,33.978,5.933,5.851,8.972
1823,0.708,37.921,27.212,42.875,33.975,5.892,5.727,8.972
1824,0.721,38.201,27.232,42.894,33.978,5.974,5.851,8.972
1825,0.734,38.356,27.168,42.875,33.975,5.851,5.81,9.013
1826,0.734,38.463,27.204,42.894,33.971,5.892,5.727,8.89
1827,0.738,37.853,27.283,42.913,33.992,6.056,6.015,9.054
1828,0.728,38.076,27.113,42.865,33.968,5.892,5.81,8.931
1829,0.747,38.298,27.204,42.875,33.975,5.974,5.768,8.931
1830,0.728,38.337,27.216,42.875,33.964,5.892,5.851,8.931
1831,0.718,37.833,27.295,42.904,33.978,5.974,5.81,9.013
1832,0.718,38.056,27.212,42.875,33.978,5.892,5.81,8.972
1833,0.711,38.298,27.176,42.904,33.978,5.892,5.727,8.972
1834,0.701,38.308,27.228,42.913,33.992,6.097,5.933,9.054
1835,0.695,37.669,27.129,42.875,33.978,5.974,5.768,9.095
1836,0.701,37.979,27.188,42.894,33.968,6.056,5.768,9.095
1837,0.698,38.143,27.216,42.884,33.971,6.015,5.768,9.013
1838,0.695,38.26,27.165,42.894,33.975,6.097,5.81,9.136
1839,0.698,37.659,27.184,42.884,33.978,6.056,5.727,9.054
1840,0.705,37.921,27.196,42.904,33.971,6.138,5.687,8.972
1841,0.715,38.076,27.31,42.923,33.992,6.302,5.851,9.095
1842,0.708,37.814,27.176,42.875,33.975,6.179,5.81,9.054
1843,0.721,37.572,27.192,42.913,33.971,6.22,5.851,8.972
1844,0.728,37.804,27.208,42.884,33.982,6.22,5.768,8.972
1845,0.734,37.979,27.121,42.904,33.985,6.262,5.81,9.013
1846,0.728,37.601,27.2,42.884,33.968,6.179,5.768,8.931
1847,0.751,37.572,27.279,42.875,33.978,6.097,5.645,8.849
1848,0.741,37.775,27.117,42.942,33.989,6.343,5.81,8.931
1849,0.731,37.911,27.2,42.884,33.978,6.179,5.81,8.972
1850,0.738,37.407,27.212,42.884,33.982,6.179,5.81,8.931
1851,0.721,37.436,27.267,42.894,33.975,6.179,5.768,8.808
1852,0.721,37.698,27.18,42.904,33.982,6.179,5.81,8.972
1853,0.701,37.824,27.172,42.884,33.975,6.179,5.81,8.972
1854,0.715,37.243,27.239,42.875,33.978,6.138,5.687,8.849
1855,0.715,37.398,27.133,42.923,33.982,6.302,5.851,8.972
1856,0.701,37.601,27.192,42.894,33.978,6.179,5.768,8.931
1857,0.705,37.737,27.224,42.884,33.982,6.179,5.892,8.972
1858,0.701,37.097,27.153,42.894,33.975,6.097,5.768,8.849
1859,0.705,37.32,27.212,42.904,33.982,6.262,5.892,8.972
1860,0.708,37.504,27.196,42.884,33.975,6.138,5.81,8.89
1861,0.721,37.659,27.287,42.894,33.975,6.056,5.687,8.726
1862,0.731,37.059,27.184,42.913,33.982,6.179,5.851,8.849
1863,0.728,37.291,27.192,42.894,33.982,6.097,5.81,8.849
1864,0.738,37.504,27.232,42.894,33.982,6.179,5.768,8.89
1865,0.731,37.62,27.129,42.884,33.978,6.056,5.727,8.767
1866,0.734,36.845,27.204,42.884,33.985,6.138,5.851,8.767
1867,0.738,37.088,27.22,42.875,33.978,6.097,5.892,8.849
1868,0.741,37.32,27.161,42.884,33.975,5.974,5.687,8.644
1869,0.754,37.465,27.2,42.904,33.982,6.056,5.81,8.767
1870,0.728,36.942,27.196,42.875,33.982,6.056,5.81,8.684
1871,0.721,37.194,27.275,42.894,33.985,6.138,5.892,8.808
1872,0.728,37.407,27.133,42.884,33.975,5.974,5.81,8.726
1873,0.718,37.523,27.204,42.894,33.985,6.056,5.81,8.808
1874,0.701,36.71,27.184,42.884,33.978,6.015,5.851,8.931
1875,0.715,36.981,27.165,42.884,33.978,5.892,5.645,8.767
1876,0.711,37.233,27.239,42.913,33.978,6.015,5.768,8.849
1877,0.705,37.31,27.247,42.884,33.985,6.015,5.727,8.849
1878,0.701,36.671,27.216,42.913,33.982,6.015,5.768,8.972
1879,0.698,36.952,27.141,42.904,33.975,6.015,5.727,8.931
1880,0.718,37.165,27.212,42.904,33.982,6.056,5.851,8.931
1881,0.715,37.223,27.243,42.884,33.982,6.138,5.892,9.013
1882,0.731,36.72,27.192,42.865,33.971,5.974,5.687,8.808
1883,0.741,37.02,27.232,42.904,33.982,6.138,5.81,8.931
1884,0.734,37.204,27.192,42.894,33.978,6.056,5.81,8.89
1885,0.741,37.252,27.18,42.904,33.982,6.179,5.768,8.931
1886,0.747,36.448,27.2,42.894,33.975,6.138,5.687,8.89
1887,0.754,36.7,27.247,42.894,33.989,6.343,5.727,8.931
1888,0.747,36.904,27.157,42.904,33.978,6.302,5.81,9.013
1889,0.757,36.942,27.121,42.884,33.968,6.179,5.687,8.89
1890,0.754,36.526,27.243,42.894,33.982,6.302,5.768,8.931
1891,0.738,36.768,27.247,42.875,33.975,6.262,5.727,8.89
1892,0.744,36.962,27.113,42.884,33.982,6.302,5.768,8.972
1893,0.721,37.0,27.168,42.884,33.975,6.385,5.727,8.808
1894,0.728,36.458,27.157,42.894,33.985,6.467,5.768,8.972
1895,0.711,36.71,27.216,42.952,33.978,6.426,5.768,8.972
1896,0.711,36.904,27.2,42.884,33.971,6.302,5.604,8.931
1897,0.708,37.029,27.247,42.933,33.989,6.426,5.727,9.054
1898,0.698,36.458,27.224,42.923,33.985,6.426,5.727,9.013
1899,0.705,36.729,27.165,42.884,33.975,6.467,5.81,9.013
1900,0.708,36.874,27.251,42.884,33.978,6.426,5.687,8.972
1901,0.715,36.642,27.275,42.894,33.978,6.508,5.81,8.972
1902,0.718,36.313,27.2,42.894,33.978,6.508,5.851,9.136
1903,0.724,36.555,27.204,42.855,33.975,6.302,5.645,8.931
1904,0.744,36.768,27.172,42.904,33.978,6.385,5.727,9.013
1905,0.728,36.739,27.172,42.884,33.978,6.343,5.727,9.013
1906,0.738,36.816,27.176,42.904,33.978,6.426,5.727,9.054
1907,0.741,37.029,27.255,42.875,33.971,6.302,5.727,8.972
1908,0.747,37.184,27.172,42.904,33.978,6.385,5.727,8.931
1909,0.751,35.974,27.161,42.884,33.971,6.385,5.81,9.054
1910,0.744,35.974,27.208,42.875,33.961,6.179,5.645,8.931
1911,0.751,36.235,27.247,42.913,33.978,6.302,5.727,8.931
1912,0.734,36.361,27.212,42.884,33.975,6.302,5.687,8.89
1913,0.724,36.235,27.192,42.894,33.982,6.343,5.687,8.931
1914,0.721,36.4,27.172,42.884,33.978,6.22,5.687,8.849
1915,0.721,36.642,27.157,42.904,33.982,6.343,5.727,8.972
1916,0.718,36.758,27.192,42.913,33.989,6.302,5.851,9.013
1917,0.715,35.877,27.216,42.865,33.971,6.097,5.645,8.972
1918,0.724,36.109,27.129,42.923,33.982,6.262,5.768,8.931
1919,0.718,36.322,27.137,42.894,33.982,6.22,5.645,8.89
1920,0.715,36.458,27.232,42.913,33.989,6.262,5.645,8.931
1921,0.734,35.896,27.287,42.855,33.978,6.138,5.604,8.931
1922,0.738,36.167,27.161,42.904,33.978,6.22,5.645,8.931
1923,0.731,36.371,27.2,42.904,33.989,6.262,5.81,9.136
1924,0.738,36.506,27.172,42.855,33.975,6.179,5.604,8.972
1925,0.754,35.741,27.149,42.884,33.975,6.22,5.727,9.013
1926,0.747,36.003,27.168,42.884,33.971,6.22,5.727,8.972
1927,0.751,36.216,27.204,42.894,33.978,6.179,5.727,9.095
1928,0.747,36.322,27.161,42.894,33.968,6.138,5.645,8.972
1929,0.761,35.683,27.153,42.884,33.982,6.22,5.727,9.013
1930,0.751,35.954,27.255,42.894,33.989,6.302,5.892,9.218
1931,0.738,36.138,27.232,42.855,33.971,6.097,5.727,9.095
1932,0.741,36.264,27.196,42.894,33.975,6.138,5.687,9.136
1933,0.728,35.683,27.192,42.884,33.982,6.138,5.687,9.177
1934,0.728,35.954,27.176,42.913,33.982,6.179,5.687,9.218
1935,0.718,36.138,27.161,42.894,33.968,6.097,5.645,9.177
1936,0.728,36.274,27.161,42.904,33.978,6.138,5.727,9.177
1937,0.708,35.644,27.263,42.913,33.992,6.22,5.81,9.342
1938,0.698,35.896,27.165,42.875,33.971,6.179,5.727,9.259
1939,0.724,36.138,27.141,42.904,33.978,6.179,5.687,9.259
1940,0.721,36.196,27.224,42.904,33.978,6.22,5.645,9.218
1941,0.734,35.644,27.239,42.904,33.982,6.302,5.727,9.301
1942,0.724,35.887,27.176,42.884,33.978,6.22,5.563,9.259
1943,0.738,36.109,27.18,42.933,33.985,6.302,5.687,9.259
1944,0.728,36.167,27.184,42.933,33.992,6.508,5.851,9.382
1945,0.738,35.489,27.165,42.904,33.971,6.302,5.727,9.382
1946,0.761,35.799,27.161,42.894,33.978,6.302,5.687,9.424
1947,0.751,35.954,27.228,42.894,33.975,6.343,5.563,9.259
1948,0.761,36.032,27.149,42.923,33.989,6.426,5.687,9.382
1949,0.764,35.509,27.161,42.875,33.975,6.343,5.563,9.259
1950,0.764,35.79,27.263,42.913,33.982,6.426,5.604,9.218
1951,0.764,35.974,27.263,42.952,33.985,6.508,5.727,9.342
1952,0.747,35.974,27.176,42.913,33.978,6.508,5.604,9.382
1953,0.751,35.48,27.165,42.904,33.978,6.467,5.645,9.382
1954,0.747,35.77,27.157,42.894,33.978,6.426,5.687,9.342
1955,0.744,35.935,27.129,42.923,33.985,6.549,5.687,9.382
1956,0.754,36.051,27.137,42.884,33.975,6.467,5.687,9.424
1957,0.761,35.431,27.236,42.884,33.978,6.385,5.522,9.259
1958,0.774,35.722,27.2,42.942,33.989,6.549,5.687,9.382
1959,0.754,35.857,27.165,42.913,33.985,6.467,5.563,9.301
1960,0.77,35.664,27.236,42.904,33.985,6.508,5.645,9.382
1961,0.784,35.364,27.22,42.904,33.982,6.508,5.522,9.218
1962,0.8,35.644,27.125,42.923,33.989,6.467,5.687,9.301
1963,0.813,35.79,27.18,42.894,33.978,6.467,5.645,9.342
1964,0.83,35.451,27.188,42.884,33.968,6.302,5.481,9.177
1965,0.856,35.451,27.232,42.971,33.982,6.508,5.645,9.301
1966,0.839,35.625,27.161,42.894,33.978,6.385,5.563,9.218
1967,0.849,35.78,27.255,42.894,33.978,6.467,5.604,9.136
1968,0.853,35.238,27.196,42.971,33.975,6.385,5.522,9.095
1969,0.866,35.315,27.176,42.904,33.985,6.385,5.645,9.177
1970,0.856,35.557,27.216,42.884,33.978,6.343,5.645,9.218
1971,0.846,35.712,27.188,42.884,33.978,6.302,5.563,9.013
1972,0.846,35.16,27.153,42.923,33.978,6.467,5.604,9.136
1973,0.816,35.296,27.153,42.904,33.968,6.343,5.645,9.054
1974,0.813,35.557,27.161,42.913,33.975,6.302,5.645,9.095
1975,0.8,35.693,27.07,42.923,33.968,6.343,5.522,9.054
1976,0.8,35.063,27.161,42.904,33.982,6.343,5.687,9.095
1977,0.8,35.257,27.255,42.894,33.978,6.343,5.687,9.136
1978,0.813,35.509,27.204,42.942,33.975,6.179,5.563,8.931
1979,0.823,35.673,27.204,42.933,33.989,6.262,5.687,9.054
1980,0.803,34.976,27.251,42.913,33.978,6.22,5.604,8.931
1981,0.83,35.209,27.228,42.884,33.978,6.302,5.645,8.89
1982,0.833,35.441,27.204,42.894,33.971,6.179,5.563,8.89
1983,0.846,35.586,27.176,42.913,33.978,6.262,5.604,8.931
1984,0.839,34.966,27.18,42.904,33.975,6.262,5.687,9.013
1985,0.853,35.238,27.188,42.894,33.968,6.015,5.563,8.808
1986,0.872,35.489,27.161,42.933,33.982,6.179,5.645,8.931
1987,0.853,35.567,27.267,42.884,33.975,6.138,5.727,8.808
1988,0.843,34.899,27.168,42.923,33.982,6.22,5.687,8.89
1989,0.846,35.189,27.165,42.894,33.968,6.056,5.645,8.684
1990,0.83,35.393,27.243,42.904,33.978,6.097,5.727,8.808
1991,0.816,35.48,27.224,42.894,33.985,6.056,5.687,8.89
1992,0.81,34.889,27.101,42.884,33.968,6.015,5.563,8.684
1993,0.797,35.17,27.117,42.942,33.982,6.138,5.687,8.808
1994,0.767,35.344,27.172,42.904,33.985,6.138,5.687,8.808
1995,0.761,35.451,27.216,42.981,33.978,6.22,5.645,8.849
1996,0.754,34.87,27.165,42.884,33.978,6.138,5.687,8.849
1997,0.751,35.141,27.255,42.923,33.985,6.22,5.687,8.931
1998,0.744,35.354,27.212,42.981,33.982,6.22,5.727,9.054
1999,0.751,35.441,27.153,42.875,33.971,6.056,5.604,8.849
2000,0.777,34.899,27.259,42.904,33.985,6.179,5.645,8.931
2001,0.777,35.112,27.247,42.894,33.982,6.138,5.687,8.849
2002,0.774,35.344,27.196,42.923,33.985,6.22,5.768,8.849
2003,0.764,35.402,27.204,42.904,33.971,6.056,5.727,8.849
2004,0.77,34.753,27.18,42.933,33.982,6.22,5.727,8.89
2005,0.77,35.015,27.121,42.913,33.992,6.22,5.81,9.013
2006,0.77,35.199,27.161,42.875,33.978,6.097,5.645,8.849
2007,0.78,35.286,27.247,42.904,33.978,6.22,5.687,8.849
2008,0.774,34.84,27.137,42.894,33.978,6.138,5.604,8.726
2009,0.774,35.121,27.149,42.904,33.982,6.22,5.727,8.849
2010,0.757,35.296,27.196,42.884,33.978,6.138,5.604,8.808
2011,0.751,35.354,27.267,42.904,33.978,6.262,5.645,8.726
2012,0.754,34.724,27.18,42.942,33.992,6.385,5.892,8.972
2013,0.724,34.957,27.176,42.884,33.975,6.22,5.768,8.849
2014,0.731,35.179,27.149,42.913,33.978,6.302,5.727,8.89
2015,0.721,35.315,27.109,42.913,33.985,6.22,5.645,8.89
2016,0.721,34.831,27.153,42.923,33.978,6.302,5.727,9.013
2017,0.698,35.054,27.216,42.904,33.978,6.302,5.768,8.972
2018,0.685,35.257,27.125,42.923,33.982,6.302,5.645,8.931
2019,0.682,35.034,27.192,42.942,33.989,6.508,5.81,8.972
2020,0.692,34.695,27.228,42.894,33.978,6.385,5.687,8.931
2021,0.701,34.966,27.247,42.913,33.985,6.426,5.727,8.972
2022,0.688,35.131,27.184,42.904,33.964,6.343,5.645,8.89
2023,0.711,34.86,27.145,42.933,33.978,6.426,5.727,9.013
2024,0.715,34.821,27.168,42.884,33.975,6.426,5.768,9.054
2025,0.724,35.092,27.196,42.971,33.964,6.385,5.604,8.89
2026,0.724,35.276,27.153,42.962,33.978,6.426,5.687,9.013
2027,0.705,34.579,27.239,42.904,33.975,6.426,5.687,8.931
2028,0.715,34.705,27.204,42.942,33.985,6.426,5.727,8.89
2029,0.721,34.899,27.137,42.913,33.978,6.467,5.645,8.849
2030,0.705,35.063,27.236,42.904,33.985,6.426,5.727,8.931
2031,0.688,34.656,27.192,42.894,33.978,6.508,5.687,8.972
2032,0.692,34.86,27.133,42.894,33.968,6.262,5.604,8.849
2033,0.688,35.121,27.18,42.933,33.978,6.385,5.687,9.054
2034,0.662,35.238,27.188,42.913,33.985,6.385,5.727,8.972
2035,0.662,34.511,27.137,42.923,33.985,6.467,5.727,9.013
2036,0.669,34.715,27.129,42.904,33.975,6.343,5.645,8.972
2037,0.662,34.957,27.196,42.933,33.992,6.467,5.687,9.095
2038,0.655,35.083,27.105,42.923,33.992,6.467,5.81,9.177
2039,0.662,34.424,27.129,42.884,33.971,6.302,5.604,9.013
2040,0.701,34.715,27.255,42.923,33.978,6.343,5.727,9.095
2041,0.685,34.899,27.267,42.923,33.985,6.343,5.687,9.013
2042,0.688,35.044,27.137,42.923,33.978,6.302,5.727,9.095
2043,0.685,34.443,27.168,42.904,33.975,6.22,5.563,9.054
2044,0.695,34.724,27.153,42.923,33.985,6.385,5.687,9.013
2045,0.682,34.937,27.188,42.923,33.989,6.467,5.81,9.177
2046,0.701,35.015,27.137,42.894,33.975,6.302,5.687,8.972
2047,0.718,34.414,27.204,42.904,33.985,6.426,5.727,8.931
2048,0.715,34.676,27.196,42.913,33.982,6.302,5.604,9.013
2049,0.715,34.899,27.168,42.923,33.978,6.426,5.687,9.095
2050,0.698,34.986,27.247,42.913,33.978,6.302,5.563,8.931
2051,0.692,34.463,27.168,42.933,33.978,6.467,5.687,8.972
2052,0.692,34.734,27.18,42.962,33.992,6.631,5.81,9.054
2053,0.682,34.908,27.176,42.884,33.975,6.426,5.768,9.013
2054,0.685,35.063,27.176,42.923,33.982,6.385,5.645,9.013
2055,0.675,34.414,27.137,42.904,33.978,6.385,5.645,8.972
2056,0.678,34.686,27.137,42.913,33.978,6.508,5.727,9.013
2057,0.665,34.879,27.228,42.904,33.982,6.343,5.563,9.013
2058,0.675,35.005,27.145,42.942,33.989,6.426,5.604,8.931
2059,0.665,34.346,27.161,42.962,33.999,6.631,5.81,9.054
2060,0.665,34.579,27.2,42.904,33.982,6.467,5.645,8.931
2061,0.682,34.802,27.216,42.904,33.989,6.549,5.687,9.013
2062,0.692,34.85,27.172,42.913,33.982,6.508,5.604,8.931
2063,0.705,34.366,27.137,42.913,33.985,6.549,5.645,9.054
2064,0.701,34.618,27.133,42.904,33.975,6.467,5.645,8.931
2065,0.721,34.831,27.196,42.933,33.978,6.426,5.563,8.89
2066,0.718,34.947,27.168,42.962,33.992,6.672,5.727,8.89
2067,0.718,34.23,27.236,42.913,33.982,6.508,5.687,8.808
2068,0.711,34.511,27.184,42.923,33.982,6.508,5.687,8.849
2069,0.715,34.705,27.18,42.894,33.978,6.467,5.645,8.767
2070,0.715,34.753,27.255,42.923,33.989,6.631,5.645,8.931
2071,0.698,34.405,27.168,42.894,33.978,6.549,5.645,8.849
2072,0.701,34.686,27.105,42.923,33.978,6.385,5.481,8.849
2073,0.708,34.879,27.121,42.962,33.985,6.508,5.645,8.89
2074,0.688,34.966,27.149,42.913,33.978,6.467,5.563,8.89
2075,0.688,34.414,27.208,42.923,33.982,6.467,5.687,8.972
2076,0.688,34.666,27.125,42.923,33.982,6.426,5.604,8.849
2077,0.685,34.831,27.243,42.933,33.992,6.549,5.687,8.972
2078,0.682,34.627,27.192,42.923,33.982,6.467,5.645,9.013
2079,0.688,34.395,27.141,42.933,33.968,6.302,5.481,8.808
2080,0.705,34.666,27.259,42.942,33.985,6.467,5.645,8.849
2081,0.698,34.811,27.212,42.923,33.978,6.426,5.645,8.808
2082,0.715,34.463,27.192,42.942,33.978,6.467,5.645,8.931
2083,0.721,34.395,27.176,42.913,33.978,6.343,5.563,8.849
2084,0.718,34.666,27.157,42.942,33.978,6.343,5.645,8.972
2085,0.724,34.811,27.066,42.933,33.975,6.467,5.687,8.972
2086,0.734,34.356,27.137,42.904,33.975,6.262,5.604,8.808
2087,0.744,34.434,27.239,42.933,33.982,6.426,5.645,8.931
2088,0.724,34.666,27.2,43.01,33.971,6.385,5.645,8.931
2089,0.741,34.792,27.141,42.923,33.975,6.385,5.687,8.89
2090,0.721,34.211,27.243,42.913,33.971,6.262,5.563,8.849
2091,0.718,34.385,27.232,42.933,33.978,6.426,5.687,8.931
2092,0.718,34.618,27.109,42.923,33.978,6.426,5.687,9.013
2093,0.715,34.763,27.137,42.904,33.968,6.262,5.522,8.89
2094,0.724,34.269,27.165,42.942,33.985,6.343,5.687,8.972
2095,0.701,34.453,27.204,42.923,33.975,6.343,5.645,8.972
2096,0.701,34.666,27.161,42.923,33.975,6.262,5.687,8.972
2097,0.695,34.792,27.2,42.913,33.964,6.262,5.563,8.931
2098,0.701,34.211,27.184,42.933,33.985,6.343,5.645,9.054
2099,0.695,34.443,27.137,42.923,33.978,6.302,5.768,9.095
2100,0.715,34.656,27.224,42.913,33.971,6.138,5.522,8.931
2101,0.731,34.811,27.239,42.933,33.985,6.262,5.687,9.013
2102,0.728,34.104,27.172,42.923,33.978,6.22,5.604,8.931
2103,0.747,34.376,27.212,42.923,33.985,6.262,5.645,8.972
2104,0.747,34.598,27.165,42.904,33.978,6.22,5.604,8.931
2105,0.77,34.715,27.176,42.952,33.985,6.262,5.727,8.972
2106,0.78,34.153,27.192,42.923,33.989,6.343,5.727,9.095
2107,0.813,34.405,27.212,42.865,33.971,6.179,5.687,8.972
2108,0.849,34.637,27.165,42.933,33.982,6.179,5.645,8.972
2109,0.862,34.753,27.109,42.942,33.982,6.179,5.645,8.972
2110,0.849,34.066,27.176,42.933,33.982,6.22,5.687,9.095
2111,0.862,34.337,27.208,42.913,33.971,6.097,5.645,8.972
2112,0.866,34.56,27.228,42.923,33.982,6.22,5.687,9.095
2113,0.856,34.647,27.18,42.942,33.992,6.302,5.768,9.259
2114,0.853,34.143,27.133,42.904,33.971,6.179,5.645,9.136
2115,0.876,34.424,27.121,42.942,33.985,6.179,5.645,9.177
2116,0.869,34.627,27.133,42.913,33.971,6.056,5.645,9.136
2117,0.872,34.734,27.236,42.923,33.982,6.179,5.727,9.259
2118,0.879,34.104,27.129,42.913,33.975,6.056,5.645,9.095
2119,0.905,34.424,27.137,42.942,33.982,6.097,5.645,9.177
2120,0.938,34.589,27.224,42.942,33.992,6.179,5.768,9.259
2121,0.977,34.637,27.22,42.894,33.978,6.138,5.645,9.136
2122,1.037,34.143,27.188,42.933,33.975,6.056,5.645,9.177
2123,1.099,34.414,27.105,42.933,33.975,5.974,5.687,9.136
2124,1.158,34.618,27.184,42.942,33.985,6.056,5.687,9.136
2125,1.188,34.666,27.145,42.913,33.975,5.974,5.563,9.095
2126,1.217,34.259,27.188,42.933,33.982,5.974,5.563,9.013
2127,1.26,34.511,27.271,42.952,33.992,6.097,5.727,9.095
2128,1.28,34.686,27.157,42.923,33.982,6.056,5.645,9.095
2129,1.332,34.724,27.161,42.913,33.982,6.015,5.687,9.136
2130,1.401,34.075,27.208,42.904,33.982,5.974,5.645,9.013
2131,1.46,34.346,27.208,42.923,33.992,6.056,5.768,9.218
2132,1.529,34.511,27.196,42.991,33.978,5.974,5.645,9.177
2133,1.605,34.627,27.078,42.942,33.978,6.056,5.604,9.095
2134,1.658,34.182,27.192,42.962,33.992,6.179,5.645,9.301
2135,1.664,34.414,27.18,43.02,33.992,6.097,5.645,9.301
2136,1.687,34.589,27.145,42.923,33.985,6.179,5.687,9.424
2137,1.654,34.376,27.216,42.933,33.975,6.056,5.563,9.342
