time,ecg,bvp,gsr,rsp,skt,emg_zygo,emg_coru,emg_trap
0,0.833,40.652,18.644,27.329,33.474,6.055,10.779,-70.413
1,0.82,40.278,18.59,27.282,33.46,5.975,10.576,-70.534
2,0.826,40.428,18.636,27.3,33.463,6.015,10.614,-70.902
3,0.826,40.506,18.629,27.3,33.46,5.974,10.493,-71.23
4,0.823,40.746,18.598,27.291,33.46,5.893,10.288,-71.437
5,0.82,40.289,18.609,27.281,33.456,5.933,10.164,-71.358
6,0.823,40.418,18.617,27.291,33.46,5.892,10.122,-71.032
7,0.82,40.487,18.613,27.272,33.453,5.933,10.041,-70.988
8,0.81,40.123,18.594,27.252,33.449,5.77,9.918,-71.028
9,0.82,40.177,18.597,27.262,33.46,6.013,9.876,-70.906
10,0.81,40.292,18.613,27.262,33.46,5.974,9.876,-70.905
11,0.82,40.351,18.605,27.252,33.46,5.893,9.753,-70.864
12,0.826,39.987,18.617,27.281,33.463,5.973,9.671,-70.417
13,0.82,40.099,18.617,27.262,33.463,5.974,9.67,-70.209
14,0.817,40.215,18.609,27.262,33.463,5.974,9.589,-70.044
15,0.813,40.274,18.613,27.271,33.467,6.055,9.547,-70.083
16,0.82,40.034,18.625,27.319,33.48,6.097,9.588,-70.206
17,0.817,40.147,18.613,27.272,33.46,5.975,9.425,-70.532
18,0.82,40.254,18.613,27.3,33.467,6.015,9.464,-70.535
19,0.833,40.322,18.633,27.32,33.47,6.056,9.424,-70.454
20,0.813,39.977,18.609,27.281,33.453,5.934,9.342,-70.576
21,0.823,40.137,18.613,27.3,33.47,5.974,9.382,-70.536
22,0.826,40.215,18.613,27.291,33.46,5.893,9.22,-70.942
23,0.817,40.245,18.601,27.272,33.453,5.811,9.218,-71.312
24,0.836,39.919,18.601,27.291,33.46,5.891,9.259,-71.397
25,0.836,40.041,18.609,27.3,33.463,5.933,9.259,-71.276
26,0.817,40.128,18.597,27.262,33.46,5.811,9.219,-71.072
27,0.813,40.129,18.605,27.252,33.449,5.728,9.178,-71.07
28,0.82,39.908,18.601,27.29,33.46,5.89,9.34,-70.785
29,0.81,40.031,18.597,27.262,33.46,5.77,9.26,-70.945
30,0.81,40.08,18.601,27.252,33.449,5.768,9.178,-71.028
31,0.826,39.87,18.621,27.281,33.463,5.809,9.218,-70.825
32,0.82,39.8,18.605,27.271,33.46,5.81,9.178,-70.498
33,0.826,39.915,18.597,27.262,33.453,5.769,9.137,-70.21
34,0.817,40.002,18.613,27.29,33.463,5.85,9.095,-70.085
35,0.833,39.735,18.625,27.281,33.47,5.769,9.176,-70.084
36,0.823,39.828,18.602,27.271,33.46,5.85,9.055,-70.368
37,0.83,39.953,18.617,27.3,33.46,5.851,9.013,-70.412
38,0.833,40.041,18.613,27.32,33.473,6.013,9.094,-70.412
39,0.83,39.582,18.605,27.272,33.46,5.812,8.932,-70.616
40,0.823,39.73,18.617,27.291,33.467,5.932,8.89,-70.536
41,0.849,39.856,18.617,27.3,33.463,5.933,8.89,-70.535
42,0.827,39.886,18.617,27.291,33.456,5.892,8.768,-70.983
43,0.833,39.724,18.613,27.291,33.46,5.933,8.97,-71.191
44,0.826,39.847,18.597,27.291,33.463,5.933,8.931,-71.396
45,0.823,39.934,18.609,27.281,33.46,5.974,8.85,-71.357
46,0.826,39.974,18.613,27.271,33.446,5.852,8.808,-71.154
47,0.833,39.533,18.597,27.271,33.459,6.013,8.97,-70.908
48,0.83,39.615,18.617,27.262,33.456,5.893,8.931,-70.986
49,0.81,39.702,18.601,27.252,33.453,5.892,8.972,-70.987
50,0.826,39.77,18.601,27.281,33.463,6.014,9.094,-70.865
51,0.817,39.54,18.597,27.281,33.463,6.015,9.095,-70.864
52,0.826,39.682,18.59,27.271,33.467,6.056,9.136,-70.417
53,0.836,39.779,18.609,27.271,33.463,6.056,9.217,-70.209
54,0.823,39.732,18.613,27.281,33.48,6.178,9.259,-69.963
55,0.823,39.387,18.617,27.281,33.46,6.057,9.137,-70.164
56,0.833,39.508,18.613,27.291,33.47,6.137,9.217,-70.288
57,0.843,39.634,18.613,27.329,33.47,6.26,9.259,-70.411
58,0.83,39.232,18.601,27.262,33.46,6.18,9.137,-70.575
59,0.836,39.353,18.593,27.3,33.46,6.22,9.177,-70.495
60,0.833,39.44,18.613,27.281,33.47,6.139,9.177,-70.495
61,0.826,39.528,18.597,27.271,33.463,6.098,9.055,-70.535
62,0.826,39.164,18.617,27.281,33.46,6.138,9.054,-71.024
63,0.826,39.285,18.613,27.281,33.46,6.179,9.095,-71.313
64,0.826,39.382,18.605,27.271,33.453,6.098,9.095,-71.397
65,0.817,39.45,18.597,27.243,33.453,6.056,9.014,-71.439
66,0.82,39.01,18.601,27.281,33.466,6.178,9.176,-71.033
67,0.807,39.13,18.593,27.262,33.456,6.098,9.096,-70.988
68,0.807,39.246,18.578,27.262,33.453,6.056,9.014,-71.028
69,0.823,39.315,18.601,27.281,33.46,6.137,9.176,-70.784
70,0.813,39.028,18.601,27.271,33.453,6.016,9.137,-70.904
71,0.813,39.149,18.597,27.271,33.46,6.137,9.136,-70.905
72,0.82,39.275,18.609,27.262,33.463,6.138,9.177,-70.458
73,0.803,39.315,18.601,27.29,33.467,6.179,9.299,-70.128
74,0.807,38.884,18.609,27.272,33.46,6.139,9.138,-70.084
75,0.807,39.014,18.605,27.281,33.467,6.098,9.299,-70.125
76,0.813,39.14,18.621,27.319,33.474,6.26,9.301,-70.288
77,0.803,39.122,18.598,27.262,33.456,6.017,9.26,-70.533
78,0.816,38.844,18.613,27.29,33.47,6.137,9.341,-70.535
79,0.81,38.956,18.605,27.291,33.463,6.016,9.382,-70.495
80,0.8,39.043,18.594,27.272,33.453,6.015,9.382,-70.617
81,0.81,38.756,18.601,27.281,33.46,6.056,9.342,-70.577
82,0.81,38.754,18.597,27.291,33.463,6.097,9.423,-70.983
83,0.81,38.859,18.59,27.291,33.453,6.016,9.383,-71.272
84,0.807,38.956,18.582,27.252,33.449,5.934,9.261,-71.519
85,0.807,38.621,18.617,27.281,33.463,6.055,9.463,-71.277
86,0.797,38.723,18.605,27.243,33.456,5.975,9.343,-71.194
87,0.8,38.801,18.59,27.261,33.446,5.974,9.423,-71.071
88,0.807,38.927,18.613,27.271,33.463,6.055,9.505,-70.947
89,0.8,38.506,18.609,27.262,33.453,6.097,9.506,-70.946
90,0.79,38.646,18.601,27.271,33.46,6.056,9.465,-70.946
91,0.803,38.752,18.597,27.3,33.46,6.097,9.627,-70.824
92,0.807,38.83,18.613,27.281,33.46,6.138,9.588,-70.416
93,0.8,38.38,18.601,27.262,33.456,6.016,9.547,-70.25
94,0.8,38.539,18.605,27.281,33.46,6.137,9.628,-70.045
95,0.813,38.684,18.601,27.319,33.473,6.301,9.71,-70.083
96,0.8,38.686,18.597,27.272,33.467,6.018,9.589,-70.368
97,0.81,38.494,18.586,27.271,33.463,6.096,9.547,-70.453
98,0.813,38.626,18.601,27.3,33.463,6.056,9.547,-70.535
99,0.8,38.724,18.609,27.272,33.46,6.015,9.466,-70.576
100,0.807,38.744,18.597,27.271,33.463,6.056,9.505,-70.577
101,0.807,38.226,18.613,27.291,33.463,6.056,9.465,-70.617
102,0.8,38.317,18.601,27.262,33.46,6.056,9.343,-71.065
103,0.8,38.414,18.574,27.262,33.449,5.975,9.26,-71.395
104,0.803,38.395,18.578,27.29,33.46,6.055,9.463,-71.398
105,0.797,38.299,18.605,27.281,33.453,6.015,9.465,-71.398
106,0.794,38.413,18.601,27.281,33.46,6.015,9.424,-71.113
107,0.806,38.51,18.609,27.281,33.463,6.137,9.546,-71.029
108,0.803,38.166,18.59,27.281,33.467,6.016,9.547,-70.866
109,0.807,38.278,18.601,27.271,33.463,5.934,9.466,-70.945
110,0.8,38.394,18.613,27.262,33.467,5.974,9.546,-70.865
111,0.807,38.501,18.613,27.3,33.474,6.137,9.669,-70.823
112,0.794,38.08,18.586,27.262,33.46,5.976,9.467,-70.498
113,0.797,38.219,18.589,27.281,33.47,6.055,9.465,-70.169
114,0.807,38.365,18.625,27.291,33.467,6.056,9.465,-70.044
115,0.79,38.385,18.605,27.272,33.46,6.056,9.343,-70.205
116,0.806,38.031,18.605,27.271,33.463,6.056,9.382,-70.37
117,0.8,38.142,18.613,27.3,33.46,6.137,9.301,-70.453
118,0.794,38.258,18.605,27.272,33.46,6.057,9.138,-70.535
119,0.793,38.327,18.597,27.252,33.453,6.015,9.095,-70.576
120,0.806,37.973,18.593,27.281,33.466,6.096,9.136,-70.577
121,0.807,38.103,18.589,27.262,33.463,5.975,8.974,-70.658
122,0.8,38.181,18.57,27.252,33.453,6.015,8.809,-71.025
123,0.794,38.22,18.593,27.29,33.46,6.096,9.011,-71.232
124,0.797,38.106,18.589,27.262,33.46,6.056,8.891,-71.437
125,0.797,38.22,18.593,27.281,33.46,6.097,8.809,-71.317
126,0.8,38.326,18.597,27.281,33.467,6.138,8.808,-71.072
127,0.803,38.596,18.605,27.271,33.47,6.301,8.767,-70.907
128,0.8,37.956,18.594,27.271,33.46,6.18,8.604,-70.905
129,0.794,38.074,18.613,27.291,33.46,6.261,8.643,-70.905
130,0.8,38.2,18.601,27.319,33.48,6.343,8.644,-70.824
131,0.79,37.991,18.574,27.262,33.46,6.221,8.521,-70.945
132,0.78,38.084,18.597,27.271,33.467,6.302,8.479,-70.499
133,0.777,38.219,18.578,27.271,33.463,6.302,8.398,-70.291
134,0.777,38.259,18.601,27.262,33.456,6.262,8.356,-70.086
135,0.784,37.838,18.613,27.271,33.453,6.343,8.315,-70.246
136,0.777,37.968,18.597,27.291,33.463,6.384,8.477,-70.329
137,0.777,38.065,18.578,27.272,33.453,6.303,8.601,-70.533
138,0.784,38.104,18.582,27.243,33.449,6.221,8.765,-70.576
139,0.79,37.894,18.582,27.281,33.466,6.424,9.173,-70.455
140,0.787,38.016,18.593,27.252,33.453,6.344,9.38,-70.657
141,0.784,38.142,18.589,27.262,33.456,6.384,9.667,-70.537
142,0.787,38.21,18.589,27.29,33.463,6.344,9.914,-70.983
143,0.793,37.981,18.609,27.291,33.47,6.547,10.161,-71.15
144,0.78,38.084,18.609,27.291,33.463,6.305,10.285,-71.396
145,0.784,38.219,18.601,27.291,33.46,6.425,10.53,-71.317
146,0.793,38.269,18.617,27.319,33.473,6.426,10.736,-70.909
147,0.787,37.914,18.601,27.272,33.463,6.304,10.779,-71.027
148,0.79,38.064,18.601,27.291,33.46,6.384,10.982,-70.906
149,0.787,38.143,18.601,27.3,33.46,6.344,10.984,-70.905
150,0.774,38.163,18.605,27.252,33.456,6.303,10.903,-70.986
151,0.787,37.933,18.609,27.281,33.463,6.262,11.024,-70.906
152,0.797,38.084,18.601,27.281,33.46,6.302,11.107,-70.499
153,0.771,38.181,18.59,27.262,33.456,6.262,10.985,-70.25
154,0.761,38.0,18.586,27.243,33.446,6.221,10.903,-70.167
155,0.777,38.027,18.617,27.261,33.459,6.302,10.983,-70.166
156,0.764,38.123,18.594,27.281,33.46,6.262,10.862,-70.329
157,0.764,38.21,18.578,27.271,33.46,6.221,10.861,-70.493
158,0.767,37.914,18.589,27.291,33.46,6.261,10.902,-70.576
159,0.78,37.997,18.605,27.281,33.467,6.343,10.983,-70.455
160,0.777,38.113,18.574,27.281,33.46,6.221,10.944,-70.535
161,0.774,38.21,18.589,27.291,33.46,6.261,10.984,-70.535
162,0.777,37.914,18.613,27.319,33.473,6.343,11.147,-70.82
163,0.771,38.007,18.597,27.291,33.46,6.14,11.067,-71.27
164,0.774,38.142,18.605,27.291,33.463,6.219,11.392,-71.397
165,0.784,38.191,18.601,27.291,33.47,6.18,11.558,-71.317
166,0.774,37.933,18.593,27.262,33.46,6.098,11.762,-71.072
167,0.774,38.065,18.586,27.29,33.463,6.097,12.131,-71.029
168,0.777,38.181,18.601,27.281,33.463,6.178,12.297,-70.906
169,0.761,38.23,18.578,27.271,33.46,6.098,12.461,-70.986
170,0.764,37.799,18.585,27.252,33.446,6.056,12.585,-70.987
171,0.77,37.948,18.586,27.281,33.459,6.219,12.789,-70.906
172,0.761,38.065,18.586,27.271,33.46,6.139,12.873,-70.499
173,0.751,38.066,18.574,27.243,33.456,6.138,12.955,-70.25
174,0.764,38.056,18.593,27.271,33.467,6.26,12.996,-70.085
175,0.764,38.171,18.578,27.271,33.463,6.221,12.834,-70.084
176,0.761,38.268,18.605,27.281,33.463,6.139,12.792,-70.246
177,0.767,38.231,18.582,27.291,33.463,6.26,12.832,-70.37
178,0.761,37.876,18.593,27.31,33.474,6.302,12.832,-70.493
179,0.767,37.968,18.574,27.281,33.463,6.14,12.548,-70.535
180,0.767,38.074,18.589,27.3,33.46,6.219,12.586,-70.495
181,0.78,37.845,18.609,27.3,33.47,6.22,12.464,-70.454
182,0.767,37.92,18.59,27.252,33.463,6.098,12.259,-70.982
183,0.774,38.036,18.609,27.309,33.467,6.219,12.095,-71.231
184,0.767,38.123,18.605,27.291,33.46,6.22,12.012,-71.356
185,0.767,37.836,18.594,27.262,33.463,6.139,11.889,-71.398
186,0.77,37.968,18.578,27.271,33.449,6.057,11.725,-71.154
187,0.774,38.094,18.578,27.291,33.46,6.178,11.805,-70.948
188,0.764,38.152,18.593,27.252,33.46,6.098,11.684,-70.987
189,0.764,37.789,18.586,27.242,33.453,6.016,11.56,-70.987
190,0.77,37.967,18.597,27.271,33.453,6.178,11.681,-70.947
191,0.764,38.055,18.586,27.271,33.453,6.139,11.642,-70.946
192,0.761,38.123,18.582,27.252,33.453,6.138,11.641,-70.58
193,0.767,37.894,18.585,27.281,33.47,6.219,11.682,-70.251
194,0.764,38.035,18.582,27.271,33.467,6.22,11.723,-70.085
195,0.764,38.133,18.597,27.281,33.46,6.22,11.601,-70.165
196,0.774,38.191,18.582,27.281,33.463,6.261,11.722,-70.329
197,0.793,37.885,18.597,27.319,33.48,6.302,11.723,-70.371
198,0.774,37.959,18.601,27.281,33.463,6.14,11.52,-70.534
199,0.774,38.074,18.597,27.291,33.467,6.219,11.559,-70.495
200,0.777,38.124,18.593,27.291,33.47,6.22,11.478,-70.576
201,0.767,37.865,18.582,27.272,33.46,6.139,11.314,-70.577
202,0.777,38.025,18.574,27.3,33.46,6.138,11.232,-70.983
203,0.774,38.113,18.589,27.3,33.463,6.098,11.19,-71.231
204,0.767,37.884,18.589,27.272,33.456,6.138,11.027,-71.396
205,0.764,37.891,18.57,27.252,33.446,5.976,10.822,-71.398
206,0.78,38.055,18.57,27.281,33.459,6.137,10.779,-70.991
207,0.751,38.104,18.574,27.262,33.46,6.057,10.779,-71.028
208,0.757,37.731,18.574,27.271,33.453,6.097,10.698,-70.866
209,0.764,37.871,18.574,27.271,33.463,6.138,10.778,-70.905
210,0.757,38.006,18.597,27.281,33.456,6.138,10.738,-70.864
211,0.757,38.065,18.586,27.281,33.46,6.138,10.697,-70.864
212,0.77,37.721,18.586,27.271,33.463,6.138,10.778,-70.539
213,0.774,37.871,18.589,27.3,33.474,6.26,10.82,-70.129
214,0.761,37.987,18.586,27.272,33.46,6.221,10.698,-70.125
215,0.767,38.046,18.597,27.291,33.467,6.302,10.737,-70.166
216,0.777,37.749,18.597,27.329,33.477,6.343,10.86,-70.247
217,0.774,37.842,18.582,27.272,33.463,6.14,10.698,-70.533
218,0.78,37.958,18.582,27.3,33.467,6.301,10.656,-70.454
219,0.774,38.026,18.597,27.3,33.463,6.343,10.574,-70.494
220,0.777,37.711,18.562,27.262,33.46,6.221,10.451,-70.576
221,0.774,37.851,18.593,27.3,33.463,6.342,10.532,-70.536
222,0.771,37.958,18.593,27.272,33.46,6.343,10.451,-70.942
223,0.764,37.95,18.586,27.271,33.449,6.303,10.369,-71.271
224,0.761,37.604,18.586,27.262,33.456,6.302,10.287,-71.519
225,0.767,37.735,18.586,27.29,33.456,6.302,10.449,-71.318
226,0.774,37.813,18.574,27.262,33.456,6.302,10.369,-71.194
227,0.767,37.785,18.57,27.243,33.449,6.221,10.328,-71.071
228,0.777,37.737,18.581,27.281,33.463,6.424,10.53,-70.907
229,0.764,37.842,18.578,27.252,33.453,6.263,10.492,-71.027
230,0.751,37.92,18.585,27.262,33.46,6.465,10.654,-70.906
231,0.764,37.451,18.582,27.281,33.463,6.426,10.615,-70.824
232,0.761,37.523,18.593,27.271,33.463,6.466,10.655,-70.416
233,0.764,37.648,18.582,27.271,33.46,6.507,10.656,-70.209
234,0.767,37.745,18.582,27.262,33.463,6.508,10.696,-70.044
235,0.774,37.593,18.593,27.29,33.47,6.67,10.697,-70.002
236,0.767,37.687,18.582,27.281,33.456,6.55,10.575,-70.368
237,0.77,37.832,18.597,27.291,33.467,6.63,10.655,-70.412
238,0.787,37.92,18.586,27.31,33.474,6.672,10.656,-70.494
239,0.771,37.316,18.558,27.253,33.46,6.509,10.574,-70.576
240,0.774,37.483,18.585,27.281,33.467,6.589,10.574,-70.536
241,0.774,37.571,18.589,27.281,33.46,6.549,10.574,-70.535
242,0.771,37.649,18.57,27.262,33.453,6.468,10.492,-70.983
243,0.777,37.467,18.585,27.271,33.453,6.548,10.41,-71.272
244,0.774,37.58,18.589,27.281,33.46,6.59,10.531,-71.356
245,0.764,37.697,18.57,27.281,33.449,6.468,10.41,-71.316
246,0.77,37.707,18.574,27.252,33.453,6.426,10.247,-71.194
247,0.767,37.343,18.581,27.29,33.463,6.548,10.448,-70.989
248,0.767,37.464,18.574,27.252,33.46,6.468,10.328,-71.028
249,0.754,37.552,18.57,27.252,33.46,6.426,10.327,-70.947
250,0.767,37.917,18.585,27.281,33.463,6.507,10.449,-70.906
251,0.77,37.374,18.574,27.262,33.46,6.508,10.41,-70.905
252,0.764,37.503,18.566,27.271,33.467,6.508,10.45,-70.539
253,0.767,37.61,18.57,27.271,33.463,6.508,10.572,-70.251
254,0.767,37.16,18.597,27.291,33.474,6.711,10.736,-69.963
255,0.77,37.175,18.574,27.272,33.463,6.51,10.575,-70.164
256,0.764,37.29,18.574,27.281,33.463,6.508,10.655,-70.329
257,0.783,37.416,18.585,27.3,33.474,6.63,10.696,-70.411
258,0.771,37.148,18.589,27.262,33.46,6.509,10.616,-70.575
259,0.777,37.309,18.578,27.29,33.467,6.508,10.696,-70.536
260,0.767,37.425,18.558,27.272,33.467,6.549,10.656,-70.576
261,0.757,37.475,18.558,27.271,33.46,6.468,10.615,-70.577
262,0.767,36.996,18.574,27.291,33.456,6.467,10.452,-71.065
263,0.77,37.125,18.578,27.291,33.463,6.467,10.491,-71.273
264,0.774,37.232,18.574,27.281,33.453,6.386,10.41,-71.478
265,0.774,37.29,18.55,27.262,33.453,6.344,10.328,-71.439
266,0.774,36.955,18.581,27.281,33.46,6.466,10.408,-71.073
267,0.764,37.086,18.558,27.281,33.46,6.426,10.287,-71.029
268,0.761,37.183,18.57,27.252,33.46,6.426,10.286,-70.947
269,0.774,37.252,18.566,27.29,33.463,6.507,10.286,-70.865
270,0.767,36.859,18.566,27.272,33.463,6.427,10.164,-70.864
271,0.761,36.989,18.558,27.281,33.46,6.426,10.204,-70.945
272,0.761,37.106,18.574,27.271,33.467,6.548,10.123,-70.458
273,0.764,37.126,18.578,27.281,33.47,6.549,10.163,-70.169
274,0.761,36.848,18.582,27.271,33.46,6.346,9.96,-70.085
275,0.767,36.98,18.566,27.281,33.467,6.466,10.039,-70.084
276,0.77,37.106,18.589,27.319,33.474,6.467,10.121,-70.246
277,0.774,36.848,18.578,27.262,33.463,6.345,9.837,-70.492
278,0.767,36.797,18.585,27.3,33.463,6.384,9.997,-70.535
279,0.77,36.922,18.586,27.281,33.46,6.385,9.999,-70.576
280,0.761,36.98,18.574,27.271,33.46,6.303,9.999,-70.577
281,0.777,36.636,18.574,27.271,33.46,6.343,10.039,-70.577
282,0.771,36.747,18.578,27.291,33.456,6.343,10.162,-70.902
283,0.77,36.854,18.578,27.262,33.453,6.181,10.163,-71.312
284,0.761,36.922,18.558,27.252,33.453,6.139,10.082,-71.56
285,0.761,36.549,18.581,27.29,33.463,6.301,10.243,-71.318
286,0.757,36.679,18.578,27.262,33.453,6.14,10.082,-71.113
287,0.751,36.757,18.574,27.252,33.449,6.138,10.162,-71.029
288,0.761,36.873,18.581,27.271,33.46,6.219,10.326,-70.825
289,0.764,36.51,18.558,27.271,33.456,6.18,10.246,-70.904
290,0.764,36.65,18.566,27.291,33.456,6.139,10.245,-70.946
291,0.764,36.767,18.581,27.281,33.46,6.179,10.326,-70.906
292,0.764,36.825,18.574,27.281,33.473,6.301,10.408,-70.336
293,0.751,36.49,18.574,27.262,33.46,6.14,10.206,-70.249
294,0.767,36.621,18.597,27.262,33.467,6.26,10.285,-70.045
295,0.77,36.766,18.578,27.319,33.474,6.262,10.327,-70.083
296,0.744,36.768,18.566,27.272,33.463,6.139,10.165,-70.368
297,0.757,36.451,18.562,27.3,33.463,6.219,10.163,-70.412
298,0.754,36.563,18.574,27.272,33.46,6.139,10.163,-70.534
299,0.754,36.66,18.566,27.271,33.463,6.098,10.0,-70.576
300,0.767,36.681,18.574,27.281,33.46,6.138,10.039,-70.536
301,0.774,36.268,18.578,27.262,33.46,6.098,9.958,-70.535
302,0.754,36.379,18.57,27.271,33.46,6.056,9.754,-70.983
303,0.757,36.448,18.55,27.262,33.449,6.056,9.712,-71.312
304,0.767,36.266,18.57,27.271,33.463,6.137,9.833,-71.357
305,0.764,36.36,18.562,27.262,33.456,6.138,9.59,-71.316
306,0.774,36.476,18.566,27.271,33.46,6.098,9.629,-71.072
307,0.764,36.573,18.585,27.291,33.46,6.219,9.548,-70.907
308,0.767,36.143,18.574,27.281,33.467,6.18,9.506,-70.824
309,0.764,36.292,18.574,27.281,33.46,6.179,9.384,-70.945
310,0.767,36.408,18.566,27.281,33.46,6.261,9.342,-70.865
311,0.774,36.505,18.585,27.3,33.47,6.343,9.382,-70.783
312,0.767,36.037,18.574,27.272,33.46,6.181,9.179,-70.538
313,0.761,36.176,18.57,27.281,33.467,6.22,9.299,-70.251
314,0.77,36.311,18.593,27.31,33.474,6.383,9.26,-69.963
315,0.764,36.361,18.578,27.272,33.46,6.222,9.137,-70.123
316,0.761,36.073,18.585,27.291,33.47,6.302,9.095,-70.369
317,0.767,36.243,18.597,27.291,33.463,6.302,9.054,-70.534
318,0.751,36.35,18.582,27.281,33.453,6.221,8.973,-70.576
319,0.767,36.39,18.574,27.291,33.463,6.302,9.013,-70.495
320,0.767,36.035,18.562,27.262,33.46,6.262,8.972,-70.576
321,0.764,36.166,18.554,27.271,33.46,6.18,8.891,-70.617
322,0.764,36.273,18.577,27.281,33.46,6.301,8.768,-71.065
323,0.767,36.284,18.585,27.291,33.463,6.302,8.848,-71.151
324,0.767,35.929,18.566,27.262,33.453,6.262,8.727,-71.396
325,0.757,36.05,18.566,27.262,33.456,6.139,8.685,-71.479
326,0.764,36.185,18.581,27.281,33.46,6.26,8.888,-71.114
327,0.761,35.813,18.57,27.262,33.46,6.221,8.809,-71.111
328,0.754,35.771,18.558,27.262,33.456,6.22,8.848,-70.988
329,0.761,35.914,18.577,27.271,33.467,6.261,8.93,-70.865
330,0.761,36.002,18.542,27.271,33.46,6.262,8.931,-70.864
331,0.767,35.705,18.569,27.262,33.453,6.262,8.85,-70.945
332,0.767,35.827,18.597,27.281,33.466,6.221,8.93,-70.458
333,0.767,35.963,18.578,27.31,33.474,6.342,9.134,-70.087
334,0.764,36.022,18.582,27.272,33.46,6.221,9.095,-70.084
335,0.774,35.687,18.566,27.3,33.467,6.261,9.258,-70.165
336,0.787,35.865,18.585,27.31,33.47,6.343,9.381,-70.288
337,0.767,35.925,18.57,27.272,33.46,6.181,9.423,-70.533
338,0.774,36.021,18.581,27.281,33.463,6.261,9.627,-70.576
339,0.774,35.571,18.554,27.281,33.463,6.221,9.792,-70.495
340,0.764,35.692,18.57,27.262,33.463,6.058,9.875,-70.576
341,0.77,35.817,18.57,27.271,33.463,6.137,10.038,-70.617
342,0.767,35.876,18.566,27.281,33.463,6.179,10.162,-70.902
343,0.764,35.608,18.562,27.281,33.456,6.179,10.204,-71.271
344,0.774,35.73,18.57,27.252,33.456,6.057,10.163,-71.519
345,0.771,35.866,18.585,27.281,33.46,6.178,10.326,-71.318
346,0.767,35.877,18.57,27.252,33.46,6.098,10.286,-71.113
347,0.764,35.512,18.566,27.242,33.453,6.056,10.327,-71.07
348,0.774,35.691,18.578,27.281,33.456,6.137,10.408,-70.907
349,0.764,35.789,18.566,27.262,33.456,6.098,10.369,-70.905
350,0.77,35.627,18.554,27.271,33.463,6.138,10.287,-70.864
351,0.777,35.404,18.558,27.271,33.46,6.138,10.327,-70.905
352,0.787,35.517,18.566,27.291,33.456,6.179,10.408,-70.417
353,0.787,35.624,18.574,27.272,33.46,6.139,10.247,-70.25
354,0.8,35.337,18.558,27.271,33.46,6.098,10.286,-70.126
355,0.82,35.459,18.566,27.291,33.473,6.219,10.408,-70.003
356,0.826,35.566,18.554,27.272,33.46,6.098,10.206,-70.368
357,0.83,35.653,18.566,27.291,33.467,6.097,10.245,-70.412
358,0.846,35.338,18.574,27.31,33.477,6.178,10.245,-70.412
359,0.849,35.449,18.554,27.281,33.463,6.057,10.123,-70.616
360,0.866,35.585,18.57,27.281,33.463,6.137,10.122,-70.536
361,0.872,35.653,18.589,27.271,33.463,6.098,10.041,-70.495
362,0.872,35.155,18.562,27.252,33.46,6.016,9.958,-70.982
363,0.898,35.323,18.558,27.3,33.46,6.056,9.998,-71.231
364,0.892,35.43,18.558,27.272,33.463,6.015,9.877,-71.396
365,0.889,35.479,18.542,27.252,33.46,5.934,9.835,-71.398
366,0.895,35.25,18.558,27.252,33.46,5.933,9.753,-71.235
367,0.899,35.401,18.542,27.29,33.46,6.055,9.752,-70.949
368,0.892,35.508,18.558,27.272,33.453,5.934,9.752,-71.028
369,0.879,35.518,18.55,27.252,33.449,5.852,9.712,-71.029
370,0.895,35.049,18.573,27.271,33.46,5.973,9.914,-70.947
371,0.879,35.169,18.57,27.281,33.449,5.811,9.916,-70.987
372,0.872,35.294,18.57,27.252,33.456,5.891,9.998,-70.54
373,0.879,35.622,18.558,27.271,33.463,5.973,10.121,-70.251
374,0.885,35.117,18.57,27.271,33.463,5.852,10.163,-70.045
375,0.889,35.275,18.562,27.271,33.46,5.973,10.122,-70.083
376,0.885,35.391,18.55,27.291,33.463,5.893,10.325,-70.368
377,0.895,35.038,18.57,27.281,33.467,5.973,10.286,-70.331
378,0.905,35.034,18.558,27.262,33.463,5.974,10.205,-70.574
379,0.921,35.188,18.574,27.281,33.467,5.893,10.204,-70.495
380,0.931,35.304,18.574,27.319,33.477,6.014,10.326,-70.454
381,0.931,34.893,18.554,27.262,33.453,5.893,10.205,-70.576
382,0.948,35.033,18.55,27.3,33.463,5.933,10.367,-70.983
383,0.948,35.159,18.562,27.281,33.46,5.892,10.449,-71.272
384,0.945,35.237,18.562,27.262,33.46,5.851,10.45,-71.397
385,0.954,34.931,18.574,27.281,33.463,5.81,10.45,-71.317
386,0.938,35.071,18.558,27.281,33.46,5.891,10.572,-71.072
387,0.938,35.188,18.562,27.262,33.463,5.892,10.533,-71.029
388,0.932,35.247,18.554,27.252,33.446,5.851,10.573,-70.988
389,0.931,34.864,18.558,27.271,33.463,6.013,10.696,-70.906
390,0.925,34.994,18.55,27.262,33.453,5.974,10.616,-70.905
391,0.922,35.091,18.538,27.243,33.449,5.974,10.615,-70.986
392,0.931,35.179,18.562,27.271,33.463,6.137,10.655,-70.499
393,0.931,34.786,18.55,27.243,33.46,6.057,10.615,-70.169
394,0.922,34.936,18.546,27.271,33.453,6.137,10.493,-70.085
395,0.922,35.062,18.569,27.281,33.466,6.138,10.614,-70.084
396,0.931,35.092,18.554,27.3,33.467,6.26,10.615,-70.246
397,0.931,34.92,18.566,27.272,33.46,6.139,10.452,-70.492
398,0.931,35.062,18.574,27.281,33.463,6.138,10.491,-70.495
399,0.951,35.197,18.57,27.3,33.477,6.26,10.573,-70.454
400,0.938,34.902,18.554,27.262,33.456,6.139,10.574,-70.576
401,0.941,34.774,18.562,27.29,33.467,6.138,10.614,-70.495
402,0.935,34.916,18.562,27.291,33.463,6.179,10.655,-70.86
403,0.925,34.985,18.558,27.281,33.46,6.139,10.656,-71.271
404,0.925,34.669,18.558,27.271,33.46,6.219,10.696,-71.397
405,0.918,34.762,18.558,27.271,33.46,6.18,10.697,-71.357
406,0.905,34.888,18.558,27.252,33.456,6.017,10.737,-71.154
407,0.905,34.966,18.558,27.242,33.446,6.056,10.697,-71.07
408,0.902,34.66,18.57,27.29,33.463,6.219,10.859,-70.866
409,0.886,34.8,18.554,27.252,33.453,6.098,10.82,-71.027
410,0.876,34.898,18.554,27.242,33.453,6.016,10.698,-70.947
411,0.882,35.014,18.573,27.271,33.463,6.137,10.819,-70.906
412,0.866,34.516,18.55,27.243,33.46,6.138,10.82,-70.58
413,0.872,34.655,18.542,27.261,33.46,6.098,10.861,-70.251
414,0.885,34.81,18.558,27.281,33.46,6.097,10.861,-70.126
415,0.882,34.85,18.558,27.281,33.467,6.138,10.902,-70.084
416,0.889,34.639,18.574,27.271,33.46,6.138,10.821,-70.409
417,0.895,34.791,18.558,27.281,33.467,6.179,10.861,-70.412
418,0.886,34.907,18.566,27.31,33.477,6.22,10.861,-70.372
419,0.872,34.937,18.57,27.281,33.46,6.139,10.658,-70.493
420,0.872,34.506,18.574,27.291,33.467,6.179,10.778,-70.454
421,0.866,34.664,18.574,27.31,33.474,6.179,10.738,-70.535
422,0.84,34.724,18.574,27.281,33.453,6.098,10.697,-70.983
423,0.83,34.974,18.57,27.3,33.463,6.138,10.737,-71.231
424,0.836,34.602,18.558,27.291,33.46,6.057,10.779,-71.315
425,0.813,34.733,18.55,27.262,33.463,6.056,10.738,-71.357
426,0.81,34.849,18.558,27.271,33.453,6.056,10.86,-71.072
427,0.816,34.505,18.562,27.262,33.463,6.056,11.186,-70.988
428,0.81,34.559,18.55,27.271,33.453,6.015,11.352,-70.987
429,0.794,34.655,18.55,27.243,33.446,5.974,11.435,-70.947
430,0.8,34.8,18.566,27.281,33.463,6.096,11.802,-70.865
431,0.777,34.313,18.558,27.262,33.46,6.016,11.968,-70.986
432,0.771,34.442,18.538,27.252,33.456,6.056,12.133,-70.581
433,0.777,34.606,18.546,27.271,33.467,6.137,12.256,-70.251
434,0.767,34.685,18.55,27.271,33.463,6.219,12.42,-70.004
435,0.757,34.359,18.546,27.262,33.46,6.139,12.34,-70.083
436,0.751,34.538,18.55,27.281,33.467,6.219,12.38,-70.287
437,0.757,34.665,18.57,27.31,33.474,6.342,12.543,-70.289
438,0.748,34.704,18.562,27.262,33.46,6.221,12.301,-70.614
439,0.741,34.379,18.55,27.29,33.463,6.342,12.258,-70.496
440,0.757,34.567,18.57,27.291,33.474,6.343,12.217,-70.535
441,0.744,34.636,18.558,27.262,33.46,6.262,12.054,-70.535
442,0.747,34.714,18.55,27.281,33.467,6.343,11.971,-70.902
443,0.751,34.35,18.554,27.291,33.46,6.303,11.889,-71.23
444,0.748,34.481,18.55,27.281,33.453,6.384,11.766,-71.396
445,0.738,34.607,18.55,27.271,33.453,6.303,11.642,-71.398
446,0.741,34.637,18.55,27.291,33.463,6.384,11.641,-71.073
447,0.738,34.349,18.542,27.272,33.456,6.303,11.479,-70.988
448,0.728,34.462,18.538,27.243,33.456,6.221,11.274,-71.028
449,0.725,34.607,18.55,27.281,33.467,6.342,11.312,-70.906
450,0.721,34.32,18.55,27.262,33.453,6.343,11.232,-71.027
451,0.711,34.289,18.546,27.252,33.456,6.343,11.068,-70.906
452,0.721,34.432,18.542,27.281,33.467,6.466,10.985,-70.458
453,0.721,34.51,18.538,27.262,33.456,6.386,10.862,-70.25
454,0.715,34.262,18.554,27.252,33.46,6.466,10.861,-70.085
455,0.715,34.394,18.562,27.271,33.463,6.467,10.78,-70.125
456,0.718,34.539,18.57,27.3,33.47,6.507,10.86,-70.247
457,0.702,34.607,18.539,27.262,33.463,6.427,10.658,-70.492
458,0.708,34.167,18.566,27.3,33.46,6.466,10.818,-70.495
459,0.724,34.345,18.57,27.3,33.467,6.548,10.861,-70.413
460,0.705,34.423,18.539,27.281,33.46,6.386,10.739,-70.616
461,0.708,34.52,18.562,27.281,33.47,6.425,10.819,-70.536
462,0.715,34.252,18.554,27.291,33.463,6.466,10.901,-70.902
463,0.695,34.374,18.55,27.272,33.46,6.345,10.78,-71.23
464,0.708,34.491,18.558,27.3,33.456,6.384,10.86,-71.396
465,0.705,34.568,18.562,27.281,33.456,6.507,10.861,-71.357
466,0.708,34.08,18.538,27.262,33.453,6.264,10.82,-71.072
467,0.698,34.219,18.55,27.252,33.456,6.262,10.698,-71.07
468,0.698,34.326,18.562,27.281,33.467,6.302,10.697,-70.947
469,0.685,34.365,18.542,27.262,33.456,6.302,10.575,-70.946
470,0.685,34.222,18.511,27.243,33.446,6.221,10.492,-70.987
471,0.695,34.384,18.557,27.271,33.463,6.342,10.532,-70.906
472,0.701,34.5,18.546,27.262,33.449,6.262,10.41,-70.499
473,0.685,34.415,18.558,27.262,33.463,6.302,10.328,-70.291
474,0.698,34.107,18.55,27.271,33.46,6.302,10.246,-70.167
475,0.688,34.248,18.55,27.271,33.463,6.302,10.164,-70.085
476,0.698,34.346,18.55,27.271,33.463,6.302,10.082,-70.409
477,0.698,34.059,18.542,27.271,33.467,6.302,10.04,-70.453
478,0.708,34.152,18.558,27.281,33.477,6.384,10.08,-70.413
479,0.708,34.249,18.542,27.262,33.463,6.303,9.878,-70.494
480,0.708,34.365,18.558,27.281,33.463,6.384,9.835,-70.454
481,0.721,34.126,18.562,27.319,33.474,6.425,9.916,-70.454
482,0.711,34.258,18.542,27.291,33.463,6.263,9.672,-70.982
483,0.715,34.384,18.542,27.291,33.463,6.384,9.751,-71.191
484,0.728,34.462,18.546,27.31,33.467,6.303,9.63,-71.315
485,0.718,33.974,18.538,27.272,33.456,6.221,9.588,-71.357
486,0.718,34.132,18.558,27.3,33.463,6.22,9.547,-71.032
487,0.698,34.258,18.562,27.291,33.46,6.261,9.547,-71.029
488,0.714,34.317,18.535,27.272,33.456,6.139,9.466,-70.947
489,0.715,34.011,18.538,27.262,33.453,6.179,9.465,-70.987
490,0.718,34.17,18.53,27.281,33.463,6.261,9.587,-70.906
491,0.721,34.249,18.523,27.271,33.449,6.139,9.425,-70.905
492,0.708,34.288,18.526,27.233,33.449,6.057,9.261,-70.661
493,0.728,34.029,18.53,27.281,33.46,6.137,9.463,-70.252
494,0.715,34.171,18.534,27.252,33.46,6.138,9.343,-70.167
495,0.718,34.268,18.538,27.271,33.456,6.138,9.26,-70.085
496,0.724,34.317,18.554,27.281,33.46,6.138,9.341,-70.409
497,0.721,34.02,18.55,27.262,33.463,6.219,9.26,-70.494
498,0.721,34.171,18.55,27.271,33.467,6.098,9.178,-70.454
499,0.734,34.306,18.55,27.271,33.467,6.138,9.259,-70.535
500,0.744,34.02,18.546,27.3,33.474,6.219,9.259,-70.413
501,0.728,34.017,18.53,27.272,33.46,6.139,9.137,-70.494
502,0.725,34.171,18.546,27.291,33.463,6.179,9.217,-70.901
503,0.737,34.258,18.55,27.281,33.46,6.057,9.096,-71.19
504,0.734,33.943,18.542,27.281,33.46,6.015,9.014,-71.355
505,0.728,34.103,18.554,27.281,33.46,6.056,9.054,-71.398
506,0.734,34.21,18.531,27.271,33.463,6.097,9.013,-71.154
507,0.741,34.307,18.526,27.271,33.463,6.016,8.932,-71.07
508,0.725,33.79,18.538,27.271,33.456,5.974,8.85,-71.07
509,0.724,33.967,18.55,27.281,33.463,6.055,8.971,-70.866
510,0.721,34.074,18.542,27.252,33.453,5.975,8.809,-70.905
511,0.711,34.123,18.534,27.252,33.456,5.893,8.686,-70.986
512,0.721,33.865,18.542,27.281,33.46,6.095,8.766,-70.499
513,0.711,34.006,18.542,27.252,33.46,5.975,8.685,-70.25
514,0.708,34.103,18.546,27.262,33.46,6.015,8.644,-70.085
515,0.705,34.181,18.542,27.271,33.463,6.096,8.725,-70.084
516,0.708,33.875,18.55,27.291,33.46,6.138,8.685,-70.409
517,0.721,34.035,18.554,27.281,33.453,6.057,8.603,-70.494
518,0.724,34.152,18.542,27.3,33.463,6.097,8.643,-70.535
519,0.744,34.22,18.55,27.3,33.474,6.178,8.765,-70.454
520,0.751,33.895,18.546,27.262,33.46,6.017,8.604,-70.576
521,0.757,34.054,18.546,27.281,33.47,6.137,8.684,-70.495
522,0.813,34.2,18.546,27.319,33.467,6.138,8.847,-70.86
523,0.836,34.029,18.538,27.281,33.46,6.016,8.93,-71.23
524,0.869,33.902,18.546,27.291,33.46,6.096,9.012,-71.437
525,0.882,34.006,18.534,27.281,33.46,6.178,9.135,-71.317
526,0.889,34.113,18.534,27.271,33.46,6.057,9.095,-71.153
527,0.905,33.73,18.542,27.252,33.463,6.015,9.095,-71.03
528,0.947,33.851,18.538,27.281,33.463,6.137,9.258,-70.906
529,0.987,33.977,18.53,27.271,33.456,6.057,9.259,-70.905
530,1.02,34.036,18.542,27.243,33.449,6.015,9.178,-71.027
531,1.079,33.758,18.542,27.281,33.456,6.056,9.299,-70.906
532,1.109,33.9,18.55,27.262,33.449,5.975,9.301,-70.58
533,1.158,34.026,18.527,27.243,33.456,6.015,9.382,-70.251
534,1.226,34.123,18.554,27.271,33.463,6.096,9.545,-70.045
535,1.279,33.702,18.55,27.271,33.463,6.056,9.669,-70.083
536,1.325,33.861,18.554,27.281,33.463,6.015,9.67,-70.368
537,1.391,33.996,18.546,27.271,33.463,6.056,9.873,-70.412
538,1.443,34.075,18.542,27.319,33.477,6.137,10.079,-70.412
539,1.477,33.682,18.53,27.272,33.46,6.057,9.999,-70.494
540,1.5,33.822,18.55,27.291,33.463,6.056,10.08,-70.413
541,1.523,33.977,18.55,27.319,33.474,6.137,10.203,-70.453
542,1.536,33.998,18.554,27.281,33.463,6.016,10.123,-70.941
543,1.588,33.796,18.534,27.281,33.46,6.056,10.203,-71.19
544,1.634,33.909,18.55,27.262,33.467,5.975,10.245,-71.274
545,1.67,34.007,18.519,27.252,33.453,5.974,10.204,-71.356
546,1.713,34.353,18.542,27.281,33.46,5.974,10.326,-71.072
547,1.733,33.714,18.542,27.262,33.46,6.096,10.408,-70.907
548,1.772,33.832,18.515,27.271,33.46,5.894,10.409,-70.986
549,1.821,33.939,18.515,27.271,33.446,5.892,10.369,-70.987
550,1.854,33.671,18.554,27.281,33.463,6.054,10.571,-70.906
551,1.903,33.707,18.511,27.271,33.453,5.975,10.736,-70.905
552,1.923,33.822,18.534,27.252,33.463,5.974,10.9,-70.58
553,1.93,33.958,18.538,27.29,33.46,6.055,11.146,-70.211
554,1.92,33.547,18.534,27.272,33.467,6.015,11.352,-70.085
555,1.907,33.696,18.538,27.281,33.463,5.974,11.557,-70.084
556,1.803,33.841,18.554,27.281,33.463,6.055,11.762,-70.328
557,1.705,33.948,18.542,27.31,33.47,6.056,12.009,-70.33
558,1.616,33.537,18.527,27.272,33.463,5.975,11.93,-70.452
559,1.543,33.696,18.542,27.291,33.463,6.055,12.051,-70.454
560,1.481,33.851,18.562,27.3,33.474,6.137,12.093,-70.494
561,1.379,33.891,18.527,27.272,33.46,6.057,12.052,-70.617
562,1.297,33.546,18.534,27.281,33.463,6.137,12.093,-70.943
563,1.182,33.706,18.542,27.281,33.46,6.057,12.093,-71.231
564,1.093,33.813,18.515,27.271,33.463,6.056,11.971,-71.437
565,0.998,33.871,18.522,27.262,33.453,6.015,11.97,-71.398
566,0.909,33.594,18.538,27.271,33.46,6.137,11.929,-71.032
567,0.83,33.725,18.526,27.262,33.453,6.016,11.726,-71.029
568,0.771,33.842,18.53,27.243,33.446,6.015,11.642,-71.069
569,0.718,33.891,18.534,27.281,33.466,6.178,11.682,-70.988
570,0.676,33.594,18.519,27.252,33.449,6.057,11.56,-71.028
571,0.646,33.744,18.503,27.242,33.453,6.097,11.397,-70.906
572,0.616,33.871,18.538,27.271,33.463,6.138,11.354,-70.499
573,0.584,33.671,18.53,27.252,33.463,6.138,11.273,-70.21
574,0.58,33.621,18.534,27.262,33.46,6.179,11.19,-70.166
575,0.59,33.764,18.538,27.281,33.463,6.22,11.149,-70.085
576,0.593,33.871,18.542,27.291,33.47,6.22,11.23,-70.246
577,0.603,33.479,18.542,27.272,33.453,6.18,11.109,-70.492
578,0.616,33.619,18.546,27.291,33.47,6.179,11.148,-70.454
579,0.636,33.764,18.554,27.31,33.474,6.342,11.271,-70.372
580,0.642,33.813,18.538,27.262,33.46,6.221,11.15,-70.575
581,0.668,33.421,18.534,27.29,33.456,6.18,11.311,-70.536
582,0.701,33.58,18.546,27.3,33.47,6.139,11.272,-70.861
583,0.701,33.668,18.542,27.272,33.453,6.057,11.272,-71.271
584,0.721,33.745,18.538,27.291,33.463,6.178,11.312,-71.397
585,0.737,33.535,18.53,27.281,33.463,6.057,11.272,-71.357
586,0.757,33.667,18.526,27.262,33.456,6.056,11.231,-71.154
587,0.767,33.803,18.522,27.262,33.456,6.015,11.109,-71.07
588,0.79,33.881,18.55,27.271,33.467,6.056,11.189,-70.866
589,0.79,33.402,18.531,27.252,33.449,6.097,11.068,-70.905
590,0.8,33.522,18.523,27.252,33.446,5.975,10.944,-71.027
591,0.82,33.686,18.542,27.281,33.466,6.096,10.984,-70.906
592,0.813,33.707,18.53,27.243,33.463,6.056,10.944,-70.58
593,0.816,33.467,18.526,27.261,33.46,6.015,10.902,-70.211
594,0.833,33.609,18.519,27.281,33.456,6.096,10.943,-70.126
595,0.83,33.725,18.534,27.271,33.463,6.016,10.902,-70.044
596,0.83,33.803,18.53,27.262,33.46,6.096,10.861,-70.368
597,0.836,33.411,18.538,27.281,33.47,6.056,10.861,-70.412
598,0.839,33.57,18.542,27.291,33.47,6.137,10.82,-70.453
599,0.83,33.668,18.534,27.281,33.46,6.016,10.779,-70.616
600,0.839,33.362,18.542,27.281,33.463,6.056,10.86,-70.496
601,0.846,33.464,18.542,27.319,33.474,6.178,10.82,-70.454
602,0.833,33.561,18.53,27.272,33.46,5.976,10.698,-71.023
603,0.836,33.687,18.53,27.3,33.467,6.137,10.656,-71.232
604,0.852,33.352,18.534,27.291,33.46,6.057,10.696,-71.315
605,0.84,33.483,18.515,27.272,33.46,5.893,10.494,-71.397
606,0.826,33.619,18.522,27.252,33.46,6.014,10.573,-71.113
607,0.826,33.697,18.538,27.281,33.456,6.056,10.614,-70.907
608,0.833,33.324,18.526,27.252,33.453,5.934,10.574,-70.986
609,0.826,33.473,18.53,27.252,33.449,5.892,10.533,-71.028
610,0.839,33.619,18.523,27.281,33.46,6.054,10.614,-70.866
611,0.826,33.668,18.526,27.262,33.453,5.975,10.574,-70.945
612,0.813,33.39,18.534,27.243,33.456,5.933,10.492,-70.621
613,0.833,33.57,18.526,27.271,33.463,6.055,10.532,-70.252
614,0.826,33.687,18.534,27.262,33.46,6.015,10.573,-70.167
615,0.833,33.745,18.53,27.281,33.463,6.056,10.574,-70.125
616,0.833,33.324,18.519,27.281,33.463,6.056,10.574,-70.328
617,0.839,33.483,18.53,27.31,33.474,6.137,10.574,-70.33
618,0.836,33.58,18.507,27.281,33.463,6.057,10.37,-70.533
619,0.839,33.61,18.514,27.291,33.467,6.056,10.449,-70.495
620,0.846,33.467,18.542,27.31,33.477,6.137,10.41,-70.495
621,0.836,33.571,18.53,27.281,33.453,6.016,10.247,-70.617
622,0.846,33.687,18.538,27.291,33.463,6.096,10.204,-70.902
623,0.853,33.381,18.523,27.281,33.467,6.138,10.163,-71.23
624,0.843,33.34,18.542,27.271,33.46,5.976,10.041,-71.396
625,0.849,33.483,18.534,27.281,33.46,6.137,10.08,-71.357
626,0.84,33.571,18.519,27.281,33.456,6.138,10.081,-71.072
627,0.833,33.169,18.511,27.271,33.456,5.976,9.959,-71.07
628,0.836,33.289,18.503,27.271,33.453,6.015,9.876,-70.947
629,0.843,33.444,18.526,27.281,33.463,6.137,10.038,-70.906
630,0.846,33.532,18.511,27.262,33.46,6.057,9.877,-71.027
631,0.836,33.121,18.503,27.262,33.453,6.015,9.835,-70.988
632,0.849,33.289,18.53,27.281,33.466,6.096,9.997,-70.54
633,0.84,33.415,18.526,27.252,33.456,6.016,9.917,-70.251
634,0.836,33.484,18.538,27.262,33.46,6.096,9.957,-70.126
635,0.833,33.235,18.526,27.281,33.46,6.138,10.161,-70.084
636,0.833,33.386,18.53,27.281,33.463,6.098,10.285,-70.328
637,0.846,33.531,18.53,27.281,33.467,6.056,10.489,-70.533
638,0.846,33.581,18.546,27.3,33.467,6.137,10.735,-70.495
639,0.846,33.169,18.534,27.32,33.47,6.179,11.022,-70.372
640,0.849,33.27,18.523,27.291,33.46,6.017,11.025,-70.534
641,0.843,33.415,18.53,27.3,33.473,6.096,11.229,-70.495
642,0.859,33.455,18.538,27.3,33.467,6.138,11.434,-70.82
643,0.836,33.244,18.534,27.262,33.453,6.057,11.395,-71.23
644,0.856,33.405,18.53,27.3,33.466,6.097,11.598,-71.315
645,0.849,33.493,18.523,27.281,33.463,6.056,11.682,-71.397
646,0.849,33.437,18.534,27.271,33.46,6.056,11.683,-71.113
647,0.846,33.215,18.515,27.262,33.453,6.015,11.723,-71.029
648,0.846,33.357,18.522,27.271,33.466,6.096,11.968,-70.906
649,0.843,33.454,18.503,27.262,33.449,6.097,11.929,-70.986
650,0.839,33.101,18.503,27.262,33.449,5.975,11.929,-71.028
651,0.852,33.222,18.534,27.29,33.473,6.137,12.051,-70.906
652,0.849,33.338,18.511,27.252,33.456,6.098,11.971,-70.499
653,0.843,33.435,18.503,27.242,33.46,6.097,12.011,-70.25
654,0.846,33.043,18.518,27.281,33.46,6.138,12.052,-70.126
655,0.849,33.192,18.503,27.281,33.46,6.138,11.93,-70.084
656,0.853,33.319,18.534,27.271,33.46,6.057,11.807,-70.368
657,0.853,33.406,18.534,27.281,33.47,6.056,11.765,-70.453
658,0.862,33.091,18.526,27.3,33.474,6.178,11.764,-70.454
659,0.846,33.231,18.534,27.262,33.463,6.057,11.48,-70.535
660,0.849,33.376,18.542,27.281,33.47,6.137,11.477,-70.495
661,0.866,33.474,18.538,27.3,33.477,6.179,11.558,-70.535
662,0.856,33.005,18.519,27.272,33.463,6.017,11.315,-70.983
663,0.859,33.163,18.518,27.291,33.474,6.056,11.272,-71.231
664,0.866,33.289,18.53,27.281,33.46,6.015,11.231,-71.315
665,0.869,33.31,18.523,27.271,33.463,5.934,11.027,-71.357
666,0.872,33.128,18.519,27.271,33.463,5.933,10.985,-71.113
667,0.856,33.26,18.542,27.281,33.46,5.974,10.984,-70.988
668,0.853,33.367,18.519,27.252,33.46,5.974,10.903,-71.028
669,0.859,33.493,18.518,27.242,33.456,5.852,10.861,-70.988
670,0.856,33.072,18.515,27.281,33.467,6.013,10.902,-70.865
671,0.866,33.212,18.507,27.262,33.456,5.812,10.739,-70.945
672,0.859,33.271,18.526,27.243,33.456,5.81,10.779,-70.662
673,0.866,33.041,18.519,27.271,33.467,5.972,10.86,-70.252
674,0.849,33.049,18.495,27.262,33.46,5.893,10.658,-70.167
675,0.853,33.183,18.518,27.271,33.46,5.973,10.696,-70.085
676,0.859,33.299,18.518,27.3,33.463,5.933,10.737,-70.368
677,0.869,32.879,18.542,27.291,33.467,6.055,10.697,-70.371
678,0.872,32.98,18.515,27.262,33.463,5.893,10.534,-70.534
679,0.872,33.125,18.538,27.271,33.463,5.973,10.573,-70.535
680,0.889,33.241,18.53,27.3,33.477,6.055,10.655,-70.373
681,0.872,32.849,18.511,27.272,33.456,5.975,10.412,-70.575
682,0.876,33.008,18.534,27.291,33.463,5.974,10.409,-70.861
683,0.892,33.163,18.53,27.319,33.467,5.974,10.328,-71.23
684,0.876,33.222,18.519,27.281,33.46,5.974,10.083,-71.396
685,0.879,32.916,18.526,27.281,33.463,5.974,10.121,-71.357
686,0.879,33.066,18.519,27.271,33.467,5.974,10.081,-71.113
687,0.876,33.173,18.503,27.262,33.453,5.933,9.999,-71.07
688,0.885,33.242,18.514,27.281,33.46,5.892,9.877,-70.988
689,0.889,32.993,18.526,27.281,33.456,5.973,9.876,-70.906
690,0.879,33.115,18.519,27.271,33.456,5.933,9.753,-70.986
691,0.866,33.212,18.515,27.252,33.456,5.892,9.59,-71.028
692,0.872,33.28,18.53,27.262,33.467,6.014,9.629,-70.54
693,0.885,32.917,18.507,27.243,33.456,5.974,9.507,-70.251
694,0.872,33.038,18.53,27.281,33.463,5.974,9.465,-70.167
695,0.879,33.183,18.534,27.291,33.467,6.055,9.465,-70.125
696,0.882,33.069,18.507,27.272,33.467,6.056,9.505,-70.288
697,0.889,32.982,18.514,27.262,33.46,5.975,9.384,-70.411
698,0.892,33.115,18.518,27.29,33.47,6.055,9.505,-70.453
699,0.902,33.231,18.518,27.31,33.474,6.178,9.668,-70.372
700,0.892,32.629,18.526,27.272,33.46,6.057,9.548,-70.575
701,0.895,32.709,18.526,27.3,33.47,6.056,9.71,-70.536
702,0.908,32.873,18.538,27.291,33.474,6.137,9.792,-70.82
703,0.915,32.932,18.538,27.281,33.46,6.138,9.793,-71.27
704,0.912,32.769,18.534,27.291,33.463,6.057,9.875,-71.315
705,0.902,32.912,18.519,27.3,33.463,6.015,9.876,-71.357
706,0.908,33.028,18.511,27.262,33.453,6.015,9.835,-71.113
707,0.895,33.106,18.518,27.262,33.46,5.974,9.875,-71.07
708,0.899,32.656,18.515,27.271,33.463,6.015,9.957,-70.907
709,0.895,32.805,18.507,27.252,33.46,5.974,9.998,-70.946
710,0.892,32.893,18.511,27.252,33.449,5.974,9.958,-71.028
711,0.912,33.018,18.518,27.3,33.466,6.015,10.08,-70.906
712,0.908,32.761,18.495,27.252,33.46,6.015,9.959,-70.58
713,0.905,32.892,18.518,27.271,33.46,6.015,9.998,-70.292
714,0.921,33.028,18.518,27.281,33.463,5.974,10.08,-70.086
715,0.928,33.087,18.503,27.281,33.467,6.096,9.999,-70.003
716,0.918,32.608,18.518,27.262,33.467,5.975,9.917,-70.368
717,0.925,32.756,18.526,27.281,33.467,6.055,9.916,-70.371
718,0.928,32.902,18.515,27.3,33.477,6.137,9.916,-70.453
719,0.922,33.201,18.507,27.272,33.467,6.016,9.754,-70.576
720,0.935,32.772,18.522,27.3,33.467,6.137,9.712,-70.577
721,0.945,32.921,18.538,27.3,33.47,6.26,9.752,-70.495
722,0.932,32.99,18.519,27.272,33.463,6.099,9.508,-70.982
723,0.941,32.636,18.526,27.3,33.463,6.219,9.506,-71.231
724,0.935,32.69,18.499,27.291,33.46,6.139,9.465,-71.315
725,0.931,32.815,18.514,27.262,33.463,6.138,9.465,-71.438
726,0.941,32.912,18.518,27.271,33.456,6.138,9.505,-71.114
727,0.935,32.644,18.495,27.281,33.467,6.219,9.668,-70.988
728,0.941,32.776,18.487,27.262,33.46,6.22,9.548,-70.987
729,0.938,32.873,18.491,27.252,33.453,6.139,9.547,-71.109
730,0.945,32.999,18.522,27.271,33.46,6.219,9.791,-70.866
731,0.945,32.492,18.507,27.262,33.453,6.18,9.793,-70.986
732,0.945,32.631,18.511,27.271,33.46,6.179,9.753,-70.662
733,0.954,32.795,18.53,27.281,33.46,6.22,9.874,-70.212
734,0.951,32.864,18.503,27.271,33.473,6.22,9.876,-70.166
735,0.958,32.481,18.507,27.281,33.46,6.18,9.794,-70.166
736,0.958,32.631,18.499,27.262,33.467,6.179,9.834,-70.288
737,0.971,32.786,18.522,27.319,33.477,6.301,9.956,-70.37
738,0.974,32.806,18.515,27.281,33.463,6.14,9.673,-70.615
739,0.971,32.5,18.511,27.281,33.467,6.26,9.751,-70.455
740,0.987,32.669,18.507,27.31,33.47,6.302,9.752,-70.494
741,0.968,32.738,18.514,27.262,33.467,6.099,9.59,-70.576
742,0.987,32.787,18.526,27.3,33.467,6.219,9.588,-70.861
743,0.984,32.509,18.522,27.291,33.463,6.18,9.466,-71.189
744,0.974,32.64,18.507,27.281,33.46,6.139,9.262,-71.355
745,0.984,32.776,18.511,27.262,33.463,6.138,9.259,-71.398
746,0.987,32.624,18.507,27.262,33.463,6.179,9.3,-71.032
747,0.978,32.574,18.495,27.252,33.456,6.098,9.219,-71.029
748,0.997,32.689,18.495,27.252,33.449,5.975,9.096,-71.029
749,1.007,32.824,18.495,27.271,33.463,6.055,9.298,-70.906
750,0.991,32.25,18.522,27.262,33.456,6.056,9.341,-70.986
751,1.0,32.36,18.511,27.243,33.46,6.015,9.301,-70.947
752,1.013,32.533,18.511,27.271,33.467,6.096,9.463,-70.58
753,1.01,32.612,18.522,27.252,33.46,6.016,9.587,-70.251
754,1.01,32.392,18.507,27.262,33.463,6.056,9.588,-70.126
755,1.014,32.563,18.518,27.29,33.467,6.097,9.791,-70.044
756,1.02,32.699,18.503,27.281,33.467,6.178,9.793,-70.246
757,1.027,32.757,18.507,27.262,33.463,6.098,9.875,-70.492
758,1.03,32.374,18.503,27.3,33.46,6.097,9.957,-70.535
759,1.037,32.553,18.53,27.32,33.48,6.26,10.161,-70.373
760,1.037,32.641,18.503,27.272,33.453,6.099,9.96,-70.615
761,1.043,32.728,18.514,27.281,33.463,6.097,10.12,-70.577
762,1.053,32.393,18.53,27.3,33.47,6.138,10.122,-70.821
763,1.037,32.534,18.526,27.281,33.46,6.016,10.122,-71.23
764,1.046,32.65,18.503,27.281,33.463,6.096,10.244,-71.315
765,1.053,32.69,18.495,27.281,33.467,6.016,10.204,-71.316
766,1.06,32.479,18.499,27.252,33.453,5.934,10.123,-71.113
767,1.066,32.621,18.51,27.262,33.456,5.974,10.041,-71.07
768,1.066,32.737,18.503,27.29,33.463,6.055,10.202,-70.907
769,1.056,32.787,18.526,27.262,33.453,5.975,10.163,-70.905
770,1.066,32.499,18.503,27.243,33.46,6.015,10.163,-70.905
771,1.073,32.66,18.518,27.281,33.463,6.056,10.244,-70.946
772,1.073,32.757,18.515,27.271,33.467,6.015,10.123,-70.621
773,1.079,32.547,18.511,27.271,33.456,6.056,10.041,-70.252
774,1.086,32.679,18.511,27.281,33.47,6.015,10.162,-70.085
775,1.079,32.824,18.526,27.3,33.474,6.178,10.244,-70.043
776,1.092,32.893,18.503,27.281,33.46,6.057,10.082,-70.368
777,1.089,32.711,18.514,27.291,33.463,6.056,10.203,-70.453
778,1.096,32.873,18.522,27.31,33.474,6.178,10.245,-70.454
779,1.099,32.999,18.503,27.272,33.456,6.017,10.082,-70.657
780,1.106,33.067,18.507,27.281,33.47,6.056,10.162,-70.537
781,1.122,32.934,18.514,27.291,33.47,6.097,10.122,-70.535
782,1.109,33.067,18.503,27.272,33.453,6.056,10.122,-70.902
783,1.125,33.193,18.522,27.319,33.463,6.015,10.122,-71.271
784,1.119,33.271,18.511,27.272,33.46,6.056,10.163,-71.397
785,1.122,33.338,18.499,27.281,33.453,6.056,10.204,-71.398
786,1.119,33.483,18.495,27.252,33.449,5.975,10.204,-71.235
787,1.135,33.609,18.503,27.271,33.466,6.096,10.367,-70.99
788,1.129,33.639,18.507,27.252,33.456,5.975,10.368,-70.947
789,1.122,33.63,18.483,27.242,33.453,5.974,10.409,-70.987
790,1.135,33.783,18.503,27.281,33.466,6.096,10.572,-70.906
791,1.135,33.89,18.491,27.271,33.46,6.016,10.533,-70.905
792,1.132,33.92,18.51,27.262,33.463,6.096,10.573,-70.661
793,1.145,34.15,18.491,27.262,33.474,6.138,10.574,-70.171
794,1.155,34.287,18.526,27.271,33.47,6.179,10.655,-70.044
795,1.148,34.384,18.491,27.262,33.467,6.098,10.574,-70.083
796,1.148,34.567,18.487,27.281,33.467,6.178,10.574,-70.287
797,1.168,34.723,18.499,27.3,33.48,6.22,10.655,-70.33
798,1.171,34.791,18.503,27.262,33.467,6.058,10.412,-70.574
799,1.171,34.917,18.507,27.281,33.467,6.178,10.491,-70.536
800,1.175,35.033,18.518,27.262,33.463,6.139,10.451,-70.535
801,1.171,35.178,18.507,27.262,33.46,6.057,10.247,-70.535
802,1.175,35.295,18.503,27.281,33.456,6.097,10.326,-70.983
803,1.184,35.382,18.495,27.291,33.467,6.26,10.286,-71.191
804,1.181,35.642,18.499,27.243,33.456,6.139,10.245,-71.396
805,1.181,35.75,18.507,27.242,33.449,6.057,10.204,-71.479
806,1.181,35.904,18.499,27.261,33.466,6.219,10.326,-71.114
807,1.184,35.925,18.499,27.271,33.46,6.22,10.246,-71.07
808,1.184,36.251,18.479,27.262,33.463,6.261,10.367,-70.907
809,1.188,36.408,18.502,27.281,33.467,6.302,10.449,-70.905
810,1.194,36.515,18.514,27.281,33.467,6.343,10.45,-70.824
811,1.198,36.554,18.495,27.281,33.46,6.343,10.491,-70.904
812,1.211,36.747,18.522,27.271,33.467,6.384,10.614,-70.58
813,1.224,36.883,18.522,27.3,33.474,6.425,10.737,-70.089
814,1.198,36.942,18.519,27.262,33.46,6.222,10.575,-70.165
815,1.214,36.971,18.503,27.29,33.46,6.383,10.655,-70.044
816,1.221,37.345,18.514,27.281,33.467,6.385,10.615,-70.327
817,1.211,37.445,18.503,27.262,33.456,6.344,10.574,-70.493
818,1.207,37.542,18.499,27.271,33.467,6.384,10.533,-70.535
819,1.214,37.773,18.507,27.271,33.463,6.466,10.573,-70.576
820,1.201,37.91,18.503,27.271,33.463,6.426,10.451,-70.617
821,1.201,38.016,18.487,27.262,33.453,6.344,10.328,-70.699
822,1.217,38.104,18.514,27.271,33.463,6.384,10.368,-70.741
823,1.204,38.201,18.503,27.262,33.46,6.385,10.287,-71.269
824,1.204,38.297,18.487,27.262,33.456,6.385,10.123,-71.356
825,1.211,38.452,18.487,27.281,33.463,6.425,10.163,-71.316
826,1.198,38.511,18.503,27.262,33.456,6.426,10.041,-71.113
827,1.204,38.742,18.503,27.271,33.467,6.466,9.999,-70.988
828,1.198,38.897,18.503,27.281,33.463,6.467,9.917,-70.865
829,1.194,38.985,18.495,27.3,33.474,6.467,9.876,-70.783
830,1.188,39.053,18.495,27.262,33.47,6.467,9.794,-70.945
831,1.201,39.131,18.487,27.281,33.467,6.467,9.834,-70.865
832,1.204,39.275,18.514,27.3,33.48,6.629,9.875,-70.417
833,1.175,39.334,18.483,27.272,33.463,6.387,9.713,-70.331
834,1.181,39.402,18.503,27.271,33.47,6.385,9.833,-70.086
835,1.178,39.566,18.503,27.281,33.463,6.385,9.753,-70.084
836,1.162,39.663,18.503,27.291,33.46,6.344,9.833,-70.328
837,1.145,39.77,18.511,27.272,33.46,6.343,9.997,-70.493
838,1.145,39.78,18.499,27.271,33.467,6.384,10.08,-70.535
839,1.145,39.867,18.499,27.252,33.463,6.263,10.04,-70.576
840,1.142,39.963,18.491,27.262,33.453,6.18,10.04,-70.699
841,1.148,40.079,18.522,27.281,33.47,6.301,10.243,-70.537
842,1.129,40.368,18.499,27.271,33.453,6.18,10.204,-70.902
843,1.116,40.179,18.475,27.262,33.456,6.179,10.367,-71.23
844,1.122,40.321,18.499,27.29,33.467,6.22,10.368,-71.274
845,1.102,40.38,18.499,27.262,33.463,6.22,10.449,-71.315
846,1.093,40.352,18.51,27.262,33.463,6.22,10.41,-71.153
847,1.092,40.438,18.503,27.29,33.47,6.302,10.45,-70.948
848,1.083,40.554,18.503,27.3,33.47,6.302,10.45,-70.784
849,1.079,40.603,18.487,27.281,33.467,6.262,10.288,-70.904
850,1.076,40.613,18.499,27.281,33.467,6.302,10.408,-70.864
851,1.083,40.738,18.51,27.319,33.48,6.343,10.45,-70.783
852,1.053,40.825,18.499,27.253,33.453,6.262,10.125,-70.66
853,1.043,40.884,18.507,27.271,33.466,6.343,10.244,-70.171
854,1.046,40.789,18.511,27.281,33.467,6.384,10.164,-70.125
855,1.03,40.893,18.499,27.262,33.456,6.344,9.96,-70.166
856,1.017,40.971,18.487,27.29,33.463,6.384,9.998,-70.329
857,1.01,41.048,18.51,27.281,33.46,6.385,9.917,-70.411
858,1.007,41.001,18.499,27.271,33.463,6.385,9.835,-70.616
859,0.994,41.106,18.487,27.262,33.456,6.425,9.712,-70.618
860,0.991,41.213,18.51,27.29,33.46,6.548,9.752,-70.536
861,0.971,41.223,18.491,27.262,33.456,6.549,9.63,-70.617
862,0.958,41.118,18.491,27.243,33.453,6.63,9.67,-71.065
863,0.968,41.28,18.518,27.281,33.463,6.753,9.873,-71.192
864,0.948,41.339,18.499,27.271,33.456,6.714,9.876,-71.315
865,0.951,41.349,18.479,27.271,33.46,6.794,10.038,-71.438
866,0.945,41.33,18.502,27.291,33.467,6.836,10.121,-71.114
867,0.948,41.455,18.503,27.291,33.47,6.958,10.325,-70.907
868,0.935,41.523,18.495,27.281,33.467,6.838,10.286,-70.864
869,0.925,41.533,18.487,27.281,33.467,6.877,10.449,-70.905
870,0.931,41.533,18.499,27.319,33.474,7.04,10.572,-70.743
871,0.915,41.62,18.491,27.272,33.467,6.879,10.411,-70.904
872,0.905,41.697,18.483,27.271,33.47,6.918,10.572,-70.58
873,0.908,41.478,18.499,27.281,33.474,6.878,10.574,-70.211
874,0.892,41.562,18.499,27.271,33.46,6.877,10.451,-70.207
875,0.889,41.668,18.51,27.291,33.463,6.959,10.491,-70.085
876,0.885,41.717,18.511,27.281,33.463,6.878,10.451,-70.328
877,0.879,41.535,18.487,27.271,33.46,6.837,10.41,-70.533
878,0.879,41.658,18.487,27.262,33.46,6.837,10.328,-70.658
879,0.872,41.765,18.495,27.281,33.473,6.837,10.449,-70.537
880,0.853,41.814,18.475,27.243,33.456,6.796,10.41,-70.698
881,0.859,41.546,18.471,27.252,33.456,6.755,10.287,-70.7
882,0.866,41.677,18.491,27.281,33.467,6.917,10.408,-70.741
883,0.84,41.765,18.495,27.271,33.463,6.796,10.369,-71.269
884,0.843,41.775,18.487,27.262,33.46,6.795,10.328,-71.397
885,0.846,41.747,18.503,27.29,33.467,6.877,10.327,-71.276
886,0.836,41.842,18.499,27.272,33.46,6.796,10.286,-71.072
887,0.839,41.93,18.499,27.281,33.463,6.755,10.286,-71.029
888,0.843,41.959,18.499,27.271,33.474,6.714,10.408,-70.906
889,0.833,41.643,18.503,27.3,33.481,6.876,10.572,-70.743
890,0.83,41.745,18.507,27.272,33.463,6.796,10.451,-70.904
891,0.839,41.862,18.495,27.291,33.474,6.755,10.735,-70.864
892,0.839,42.035,18.518,27.291,33.477,6.876,10.9,-70.498
893,0.823,41.73,18.499,27.262,33.463,6.674,10.861,-70.291
894,0.833,41.842,18.503,27.29,33.467,6.753,10.983,-70.208
895,0.823,41.92,18.507,27.272,33.467,6.754,11.066,-70.085
896,0.817,41.633,18.503,27.271,33.467,6.673,11.107,-70.45
897,0.82,41.745,18.495,27.271,33.46,6.713,11.189,-70.494
898,0.826,41.833,18.51,27.271,33.46,6.632,11.23,-70.495
899,0.817,41.901,18.475,27.262,33.463,6.672,11.149,-70.576
900,0.81,41.527,18.479,27.252,33.453,6.591,11.067,-70.658
901,0.803,41.677,18.487,27.281,33.466,6.712,11.188,-70.537
902,0.807,41.755,18.491,27.262,33.46,6.632,11.027,-70.861
903,0.807,41.814,18.456,27.271,33.463,6.631,11.025,-71.311
904,0.803,41.613,18.491,27.281,33.467,6.631,10.985,-71.275
905,0.8,41.755,18.499,27.281,33.467,6.631,10.984,-71.315
906,0.803,41.833,18.479,27.271,33.46,6.631,10.862,-71.235
907,0.803,41.862,18.495,27.271,33.463,6.631,10.861,-70.949
908,0.813,41.556,18.507,27.31,33.474,6.712,10.983,-70.824
909,0.8,41.658,18.487,27.262,33.46,6.51,10.74,-70.986
910,0.803,41.755,18.499,27.281,33.467,6.63,10.738,-70.906
911,0.82,41.795,18.51,27.3,33.47,6.672,10.779,-70.864
912,0.807,41.536,18.483,27.272,33.46,6.591,10.576,-70.701
913,0.803,41.668,18.479,27.262,33.467,6.631,10.655,-70.253
914,0.81,41.746,18.499,27.262,33.463,6.672,10.534,-70.126
915,0.807,41.737,18.487,27.252,33.46,6.672,10.451,-70.125
916,0.807,41.487,18.506,27.281,33.47,6.672,10.491,-70.369
917,0.797,41.581,18.503,27.281,33.463,6.672,10.573,-70.493
918,0.794,41.668,18.487,27.243,33.46,6.591,10.736,-70.657
919,0.8,41.42,18.491,27.252,33.453,6.549,10.738,-70.699
920,0.797,41.417,18.491,27.252,33.463,6.63,11.022,-70.537
921,0.787,41.523,18.495,27.252,33.46,6.55,11.066,-70.658
922,0.787,41.572,18.483,27.252,33.453,6.549,11.148,-71.065
923,0.793,41.39,18.499,27.281,33.466,6.712,11.393,-71.151
924,0.8,41.465,18.495,27.281,33.46,6.632,11.354,-71.396
925,0.797,41.59,18.487,27.281,33.46,6.631,11.435,-71.439
926,0.803,41.678,18.491,27.281,33.463,6.672,11.558,-71.114
927,0.79,41.209,18.487,27.262,33.47,6.672,11.519,-70.988
928,0.793,41.338,18.471,27.262,33.463,6.713,11.518,-70.987
929,0.793,41.445,18.495,27.271,33.463,6.754,11.559,-70.906
930,0.797,41.523,18.503,27.3,33.48,6.836,11.64,-70.743
931,0.8,41.207,18.483,27.272,33.463,6.674,11.479,-70.944
932,0.8,41.329,18.487,27.271,33.47,6.794,11.477,-70.54
933,0.816,41.445,18.518,27.291,33.474,6.836,11.477,-70.17
934,0.787,41.475,18.495,27.262,33.46,6.674,11.233,-70.207
935,0.79,41.082,18.51,27.271,33.473,6.794,11.271,-70.044
936,0.793,41.232,18.495,27.281,33.474,6.714,11.109,-70.327
937,0.8,41.3,18.479,27.281,33.46,6.672,11.067,-70.493
938,0.803,41.31,18.506,27.291,33.467,6.753,11.148,-70.535
939,0.797,41.08,18.507,27.281,33.467,6.714,10.945,-70.576
940,0.79,41.164,18.495,27.271,33.467,6.632,10.902,-70.658
941,0.787,41.29,18.503,27.281,33.463,6.59,10.739,-70.618
942,0.784,41.176,18.507,27.3,33.463,6.631,10.779,-70.74
943,0.79,40.935,18.483,27.281,33.463,6.631,10.698,-71.269
944,0.787,41.019,18.479,27.252,33.46,6.509,10.616,-71.437
945,0.79,41.126,18.491,27.281,33.463,6.711,10.574,-71.317
946,0.793,40.829,18.475,27.262,33.46,6.51,10.574,-71.113
947,0.78,40.922,18.479,27.262,33.46,6.63,10.574,-71.029
948,0.8,41.038,18.487,27.29,33.467,6.631,10.614,-70.947
949,0.807,41.107,18.479,27.272,33.463,6.59,10.533,-70.865
950,0.797,40.81,18.483,27.271,33.46,6.509,10.451,-70.905
951,0.79,40.941,18.475,27.291,33.467,6.589,10.45,-70.905
952,0.806,41.077,18.502,27.291,33.474,6.671,10.491,-70.417
953,0.79,41.107,18.495,27.272,33.46,6.509,10.247,-70.25
954,0.787,40.637,18.491,27.262,33.473,6.589,10.326,-70.126
955,0.81,40.776,18.491,27.31,33.47,6.631,10.165,-70.003
956,0.794,40.835,18.483,27.272,33.46,6.428,10.041,-70.408
957,0.8,40.913,18.483,27.291,33.47,6.548,10.04,-70.494
958,0.794,40.645,18.479,27.262,33.463,6.508,9.877,-70.535
959,0.793,40.767,18.475,27.271,33.463,6.467,9.713,-70.617
960,0.8,40.883,18.467,27.291,33.46,6.507,9.63,-70.577
961,0.79,40.894,18.487,27.281,33.46,6.549,9.629,-70.536
962,0.79,40.52,18.479,27.252,33.463,6.508,9.466,-70.902
963,0.8,40.631,18.467,27.271,33.456,6.427,9.343,-71.393
964,0.807,40.748,18.479,27.271,33.467,6.548,9.504,-71.317
965,0.79,41.046,18.491,27.262,33.46,6.427,9.303,-71.479
966,0.78,40.608,18.479,27.252,33.453,6.466,9.219,-71.236
967,0.797,40.757,18.51,27.271,33.466,6.548,9.34,-70.949
968,0.79,40.826,18.487,27.271,33.46,6.508,9.26,-70.987
969,0.803,40.472,18.487,27.271,33.463,6.63,9.137,-70.947
970,0.803,40.506,18.479,27.3,33.463,6.59,9.177,-70.906
971,0.797,40.612,18.479,27.291,33.474,6.631,9.259,-70.783
972,0.794,40.68,18.479,27.272,33.46,6.55,9.097,-70.701
973,0.806,40.345,18.487,27.271,33.47,6.671,9.054,-70.253
974,0.803,40.457,18.495,27.31,33.477,6.713,9.217,-70.085
975,0.784,40.545,18.479,27.272,33.46,6.51,9.015,-70.125
976,0.793,40.632,18.499,27.281,33.473,6.589,9.135,-70.409
977,0.813,40.259,18.495,27.3,33.47,6.712,9.095,-70.453
978,0.8,40.332,18.475,27.281,33.46,6.551,9.014,-70.576
979,0.813,40.457,18.479,27.291,33.467,6.59,9.094,-70.536
980,0.81,40.506,18.483,27.272,33.463,6.509,9.054,-70.535
981,0.81,40.181,18.463,27.271,33.46,6.467,9.095,-70.658
982,0.81,40.34,18.475,27.271,33.46,6.467,9.136,-70.943
983,0.807,40.419,18.487,27.281,33.463,6.467,9.177,-71.231
984,0.813,40.448,18.464,27.262,33.449,6.507,9.096,-71.478
985,0.8,40.17,18.471,27.233,33.453,6.467,8.973,-71.602
986,0.8,40.312,18.475,27.281,33.466,6.467,9.135,-71.115
987,0.794,40.39,18.471,27.252,33.46,6.426,9.055,-71.07
988,0.787,40.39,18.475,27.252,33.46,6.344,9.054,-70.988
989,0.803,40.026,18.499,27.281,33.463,6.506,9.095,-70.906
990,0.807,40.128,18.495,27.281,33.463,6.467,9.136,-70.905
991,0.807,40.244,18.487,27.271,33.463,6.507,9.217,-70.905
992,0.813,40.159,18.479,27.271,33.47,6.467,9.259,-70.539
993,0.81,40.12,18.475,27.281,33.47,6.467,9.341,-70.129
994,0.813,40.215,18.475,27.252,33.46,6.386,9.26,-70.166
995,0.807,40.322,18.479,27.271,33.473,6.466,9.3,-70.085
996,0.82,39.929,18.487,27.319,33.477,6.548,9.382,-70.246
997,0.81,40.002,18.495,27.272,33.463,6.386,9.139,-70.492
998,0.8,40.118,18.487,27.281,33.47,6.385,9.258,-70.535
999,0.82,40.215,18.487,27.3,33.474,6.385,9.259,-70.495
1000,0.803,39.928,18.467,27.272,33.46,6.344,9.219,-70.576
1001,0.813,40.089,18.487,27.291,33.467,6.384,9.259,-70.455
1002,0.803,40.196,18.471,27.291,33.47,6.303,9.341,-70.738
1003,0.807,40.235,18.475,27.272,33.46,6.262,9.219,-71.229
1004,0.803,39.756,18.456,27.243,33.453,6.221,9.178,-71.437
1005,0.82,39.914,18.467,27.261,33.46,6.302,9.259,-71.317
1006,0.82,39.983,18.456,27.262,33.46,6.18,9.178,-71.194
1007,0.81,40.012,18.444,27.252,33.46,6.139,9.218,-71.111
1008,0.816,39.85,18.483,27.271,33.463,6.301,9.3,-70.907
1009,0.813,39.954,18.456,27.281,33.456,6.14,9.341,-70.986
1010,0.813,40.05,18.471,27.262,33.46,6.301,9.301,-70.947
1011,0.816,40.09,18.467,27.271,33.467,6.221,9.423,-70.865
1012,0.807,39.774,18.471,27.271,33.467,6.22,9.383,-70.62
1013,0.81,39.905,18.459,27.281,33.463,6.302,9.423,-70.293
1014,0.816,40.012,18.479,27.281,33.456,6.343,9.342,-70.167
1015,0.826,40.118,18.491,27.291,33.48,6.303,9.545,-69.963
1016,0.82,39.64,18.483,27.262,33.456,6.262,9.303,-70.408
1017,0.82,39.769,18.495,27.271,33.47,6.221,9.463,-70.372
1018,0.82,39.886,18.495,27.3,33.481,6.383,9.465,-70.534
1019,0.817,39.58,18.471,27.262,33.463,6.222,9.302,-70.617
1020,0.816,39.682,18.479,27.29,33.474,6.261,9.423,-70.536
1021,0.826,39.808,18.467,27.281,33.463,6.262,9.424,-70.535
1022,0.82,39.857,18.483,27.262,33.46,6.221,9.383,-70.861
1023,0.826,39.56,18.46,27.29,33.46,6.342,9.545,-71.271
1024,0.813,39.673,18.479,27.281,33.46,6.384,9.588,-71.275
1025,0.82,39.76,18.452,27.252,33.46,6.222,9.588,-71.437
1026,0.82,39.828,18.471,27.252,33.46,6.261,9.547,-71.236
1027,0.826,39.378,18.479,27.252,33.46,6.384,9.669,-70.99
1028,0.81,39.508,18.463,27.242,33.46,6.344,9.67,-70.987
1029,0.81,39.576,18.471,27.242,33.449,6.343,9.67,-71.028
1030,0.803,39.673,18.479,27.281,33.463,6.384,9.751,-70.906
1031,0.81,39.415,18.475,27.243,33.46,6.385,9.752,-70.946
1032,0.807,39.537,18.463,27.271,33.46,6.344,9.833,-70.743
1033,0.813,39.663,18.463,27.271,33.47,6.466,9.753,-70.172
1034,0.807,39.683,18.479,27.252,33.47,6.426,9.915,-70.125
1035,0.81,39.262,18.463,27.271,33.463,6.385,9.835,-70.166
1036,0.81,39.411,18.483,27.281,33.47,6.507,9.875,-70.288
1037,0.823,39.498,18.491,27.281,33.47,6.508,9.876,-70.33
1038,0.813,39.49,18.475,27.281,33.463,6.345,9.672,-70.615
1039,0.816,39.298,18.459,27.281,33.467,6.384,9.751,-70.536
1040,0.813,39.459,18.463,27.291,33.48,6.425,9.752,-70.373
1041,0.81,39.499,18.479,27.262,33.456,6.385,9.549,-70.575
1042,0.813,39.212,18.487,27.3,33.473,6.385,9.547,-70.78
1043,0.813,39.17,18.479,27.3,33.467,6.303,9.588,-71.229
1044,0.813,39.266,18.444,27.272,33.46,6.262,9.466,-71.396
1045,0.807,39.353,18.479,27.271,33.463,6.262,9.424,-71.398
1046,0.807,38.923,18.471,27.271,33.47,6.302,9.505,-71.154
1047,0.803,39.014,18.456,27.252,33.453,6.18,9.465,-71.111
1048,0.81,39.111,18.459,27.252,33.46,6.098,9.465,-71.029
1049,0.816,39.227,18.463,27.262,33.463,6.219,9.668,-70.906
1050,0.81,38.95,18.471,27.252,33.463,6.22,9.629,-70.986
1051,0.807,39.062,18.471,27.242,33.456,6.18,9.67,-70.906
1052,0.816,39.198,18.475,27.261,33.47,6.261,9.751,-70.621
1053,0.803,39.266,18.467,27.252,33.463,6.221,9.793,-70.211
1054,0.803,38.797,18.471,27.262,33.467,6.139,9.834,-70.207
1055,0.81,38.936,18.487,27.271,33.467,6.26,9.916,-70.044
1056,0.813,39.043,18.483,27.281,33.47,6.262,9.998,-70.165
1057,0.813,39.083,18.471,27.271,33.463,6.18,9.877,-70.41
1058,0.82,38.766,18.463,27.281,33.47,6.22,9.916,-70.453
1059,0.826,38.917,18.495,27.31,33.481,6.302,9.957,-70.413
1060,0.82,38.995,18.475,27.253,33.46,6.14,9.835,-70.616
1061,0.81,39.015,18.479,27.271,33.467,6.138,9.916,-70.536
1062,0.826,38.622,18.495,27.291,33.474,6.179,9.916,-70.698
1063,0.817,38.695,18.471,27.272,33.467,6.057,9.835,-71.188
1064,0.813,38.811,18.471,27.281,33.463,6.178,9.834,-71.315
1065,0.81,38.745,18.463,27.271,33.463,6.098,9.875,-71.397
1066,0.797,38.523,18.459,27.271,33.46,6.056,9.713,-71.195
1067,0.797,38.646,18.471,27.262,33.463,6.015,9.67,-71.071
1068,0.8,38.743,18.463,27.281,33.467,6.096,9.711,-70.947
1069,0.797,38.418,18.448,27.262,33.46,6.056,9.63,-71.028
1070,0.79,38.472,18.463,27.243,33.46,5.975,9.588,-71.029
1071,0.8,38.617,18.455,27.271,33.46,6.055,9.669,-70.906
1072,0.79,38.685,18.463,27.252,33.463,5.975,9.589,-70.743
1073,0.774,38.197,18.475,27.242,33.456,6.015,9.588,-70.253
1074,0.79,38.364,18.479,27.261,33.463,6.096,9.751,-70.085
1075,0.784,38.452,18.46,27.262,33.463,6.138,9.63,-70.043
1076,0.79,38.549,18.467,27.281,33.46,6.016,9.588,-70.327
1077,0.79,38.234,18.475,27.271,33.467,6.096,9.669,-70.452
1078,0.793,38.346,18.491,27.271,33.474,6.056,9.629,-70.413
1079,0.793,38.462,18.471,27.252,33.463,6.056,9.548,-70.575
1080,0.797,38.521,18.479,27.281,33.467,6.137,9.588,-70.495
1081,0.81,38.32,18.487,27.3,33.477,6.26,9.629,-70.413
1082,0.79,38.414,18.464,27.291,33.463,6.099,9.426,-70.9
1083,0.8,38.53,18.475,27.281,33.47,6.056,9.424,-71.149
1084,0.807,38.588,18.487,27.3,33.481,6.219,9.424,-71.355
1085,0.794,38.081,18.456,27.262,33.46,6.058,9.22,-71.438
1086,0.8,38.219,18.467,27.29,33.467,6.259,9.259,-71.114
1087,0.803,38.317,18.483,27.272,33.463,6.221,9.259,-70.988
1088,0.79,38.529,18.475,27.252,33.453,6.139,9.219,-71.028
1089,0.79,38.118,18.467,27.262,33.463,6.219,9.3,-70.947
1090,0.787,38.229,18.471,27.252,33.463,6.302,9.341,-70.946
1091,0.784,38.317,18.459,27.252,33.46,6.262,9.342,-71.028
1092,0.79,38.068,18.452,27.252,33.453,6.343,9.342,-70.784
1093,0.793,38.123,18.471,27.271,33.466,6.384,9.464,-70.335
1094,0.793,38.21,18.456,27.252,33.456,6.303,9.343,-70.249
1095,0.784,38.288,18.463,27.242,33.456,6.18,9.423,-70.167
1096,0.787,37.943,18.487,27.281,33.463,6.423,9.708,-70.329
1097,0.78,38.045,18.46,27.252,33.453,6.344,9.63,-70.533
1098,0.78,38.142,18.463,27.252,33.456,6.303,9.792,-70.576
1099,0.784,38.249,18.475,27.271,33.467,6.425,9.956,-70.536
1100,0.777,37.953,18.459,27.243,33.463,6.466,9.876,-70.576
1101,0.774,38.122,18.459,27.271,33.46,6.426,9.957,-70.577
1102,0.784,38.239,18.467,27.3,33.47,6.426,10.12,-70.739
1103,0.797,38.317,18.506,27.291,33.477,6.507,10.325,-71.066
1104,0.79,37.905,18.487,27.272,33.46,6.386,10.205,-71.313
1105,0.793,38.064,18.475,27.281,33.473,6.425,10.326,-71.357
1106,0.803,38.181,18.471,27.3,33.467,6.507,10.449,-71.032
1107,0.794,38.182,18.463,27.252,33.463,6.345,10.45,-71.069
1108,0.787,37.875,18.491,27.271,33.474,6.425,10.532,-70.907
1109,0.78,37.997,18.471,27.281,33.46,6.385,10.614,-70.946
1110,0.777,38.084,18.459,27.262,33.46,6.303,10.615,-70.987
1111,0.774,38.104,18.463,27.243,33.46,6.343,10.574,-70.987
1112,0.777,37.961,18.471,27.261,33.467,6.384,10.696,-70.703
1113,0.784,38.074,18.459,27.233,33.456,6.263,10.616,-70.253
1114,0.764,38.143,18.448,27.223,33.453,6.221,10.574,-70.248
1115,0.783,38.028,18.459,27.271,33.466,6.342,10.655,-70.085
1116,0.764,37.922,18.455,27.252,33.463,6.303,10.656,-70.368
1117,0.764,38.045,18.471,27.281,33.467,6.262,10.696,-70.575
1118,0.764,38.142,18.467,27.271,33.463,6.343,10.616,-70.495
1119,0.767,37.865,18.448,27.281,33.467,6.343,10.696,-70.495
1120,0.774,37.968,18.463,27.271,33.463,6.221,10.575,-70.535
1121,0.774,38.103,18.467,27.281,33.47,6.302,10.574,-70.576
1122,0.777,38.181,18.483,27.319,33.481,6.343,10.655,-70.495
1123,0.764,37.789,18.46,27.262,33.463,6.181,10.534,-71.226
1124,0.767,37.929,18.455,27.29,33.463,6.261,10.492,-71.315
1125,0.78,38.074,18.471,27.281,33.47,6.262,10.41,-71.316
1126,0.771,38.104,18.456,27.262,33.453,6.262,10.328,-71.194
1127,0.774,37.884,18.475,27.252,33.466,6.18,10.327,-70.989
1128,0.767,38.035,18.471,27.262,33.463,6.22,10.408,-70.906
1129,0.757,38.133,18.448,27.252,33.46,6.18,10.369,-70.946
1130,0.761,38.201,18.459,27.262,33.456,6.139,10.449,-70.987
1131,0.764,37.741,18.463,27.271,33.467,6.219,10.572,-70.906
1132,0.764,37.871,18.448,27.252,33.46,6.098,10.614,-70.743
1133,0.754,37.968,18.44,27.242,33.453,6.056,10.818,-70.375
1134,0.764,38.007,18.475,27.271,33.463,6.178,11.023,-70.127
1135,0.757,37.931,18.44,27.262,33.467,6.098,11.107,-70.125
1136,0.764,38.065,18.447,27.271,33.46,6.138,11.23,-70.328
1137,0.764,38.162,18.471,27.262,33.467,6.219,11.393,-70.452
1138,0.761,38.364,18.459,27.3,33.467,6.139,11.395,-70.454
1139,0.774,37.887,18.471,27.281,33.467,6.219,11.314,-70.535
1140,0.758,38.016,18.463,27.271,33.467,6.261,11.475,-70.576
1141,0.77,38.104,18.448,27.31,33.477,6.424,11.64,-70.455
1142,0.767,37.913,18.44,27.262,33.463,6.304,11.519,-70.819
1143,0.774,37.997,18.483,27.29,33.47,6.343,11.477,-71.189
1144,0.784,38.123,18.499,27.3,33.477,6.506,11.558,-71.193
1145,0.771,38.181,18.475,27.281,33.463,6.386,11.397,-71.477
1146,0.767,37.76,18.448,27.281,33.474,6.425,11.395,-71.114
1147,0.757,37.89,18.459,27.281,33.46,6.426,11.395,-71.029
1148,0.757,37.987,18.463,27.262,33.453,6.426,11.314,-70.988
1149,0.751,38.084,18.448,27.252,33.456,6.385,11.272,-71.028
1150,0.751,37.817,18.463,27.262,33.467,6.507,11.272,-70.906
1151,0.754,37.948,18.444,27.243,33.456,6.427,11.069,-70.946
1152,0.751,38.055,18.451,27.242,33.453,6.304,11.107,-70.865
1153,0.751,38.142,18.448,27.271,33.46,6.547,11.148,-70.295
1154,0.754,37.76,18.451,27.252,33.46,6.427,11.067,-70.208
1155,0.741,37.881,18.44,27.252,33.456,6.426,10.985,-70.126
1156,0.744,38.045,18.455,27.281,33.46,6.507,11.025,-70.328
1157,0.744,38.056,18.448,27.262,33.46,6.467,10.863,-70.411
1158,0.751,37.893,18.463,27.271,33.467,6.467,10.902,-70.534
1159,0.754,38.026,18.463,27.281,33.463,6.548,10.861,-70.576
1160,0.757,38.133,18.459,27.3,33.474,6.549,10.861,-70.455
1161,0.748,38.124,18.463,27.272,33.46,6.468,10.739,-70.616
1162,0.754,37.798,18.463,27.271,33.463,6.467,10.697,-70.699
1163,0.761,37.948,18.467,27.31,33.474,6.548,10.819,-71.106
1164,0.751,37.988,18.452,27.281,33.463,6.468,10.535,-71.395
1165,0.754,37.921,18.459,27.281,33.47,6.467,10.655,-71.357
1166,0.764,37.94,18.463,27.291,33.467,6.467,10.534,-71.154
1167,0.748,38.036,18.455,27.262,33.46,6.345,10.451,-71.03
1168,0.754,38.142,18.463,27.281,33.473,6.425,10.491,-70.947
1169,0.748,37.721,18.455,27.271,33.463,6.385,10.451,-70.906
1170,0.751,37.803,18.455,27.243,33.456,6.303,10.41,-70.986
1171,0.741,37.948,18.471,27.261,33.46,6.302,10.247,-71.028
1172,0.76,38.026,18.459,27.262,33.463,6.302,10.326,-70.662
1173,0.751,37.797,18.444,27.252,33.463,6.262,10.165,-70.334
1174,0.748,37.919,18.447,27.242,33.453,6.302,10.204,-70.249
1175,0.751,38.064,18.455,27.271,33.463,6.343,10.326,-70.045
1176,0.748,38.123,18.452,27.252,33.46,6.343,10.205,-70.327
1177,0.757,37.75,18.444,27.252,33.463,6.343,10.123,-70.493
1178,0.761,37.871,18.459,27.271,33.463,6.425,10.203,-70.495
1179,0.751,37.987,18.455,27.291,33.47,6.426,10.123,-70.495
1180,0.748,38.056,18.44,27.272,33.463,6.385,10.0,-70.617
1181,0.754,37.778,18.467,27.262,33.47,6.385,9.917,-70.577
1182,0.757,37.929,18.463,27.329,33.474,6.507,10.079,-70.536
1183,0.751,38.017,18.455,27.282,33.46,6.345,9.837,-71.186
1184,0.757,38.046,18.475,27.291,33.467,6.384,9.916,-71.233
1185,0.767,37.701,18.479,27.3,33.477,6.425,9.835,-71.315
1186,0.751,37.794,18.448,27.272,33.46,6.304,9.753,-71.153
1187,0.764,37.9,18.455,27.291,33.467,6.343,9.752,-70.989
1188,0.764,37.94,18.448,27.281,33.463,6.303,9.59,-70.906
1189,0.761,37.767,18.432,27.252,33.456,6.302,9.547,-70.905
1190,0.757,37.9,18.432,27.271,33.46,6.221,9.547,-70.986
1191,0.748,37.997,18.44,27.252,33.47,6.342,9.506,-70.906
1192,0.741,37.682,18.44,27.252,33.456,6.303,9.465,-70.783
1193,0.741,37.726,18.451,27.242,33.453,6.18,9.343,-70.416
1194,0.751,37.88,18.432,27.261,33.466,6.423,9.545,-70.128
1195,0.735,37.959,18.44,27.262,33.46,6.304,9.466,-70.166
1196,0.738,37.576,18.451,27.252,33.456,6.425,9.505,-70.329
1197,0.751,37.716,18.455,27.281,33.463,6.426,9.587,-70.452
1198,0.741,37.832,18.455,27.262,33.467,6.385,9.629,-70.535
1199,0.754,37.929,18.448,27.281,33.467,6.425,9.548,-70.576
1200,0.748,37.556,18.455,27.271,33.47,6.466,9.588,-70.577
1201,0.76,37.744,18.455,27.31,33.474,6.548,9.629,-70.414
1202,0.751,37.813,18.452,27.3,33.467,6.386,9.548,-70.778
1203,0.751,37.881,18.471,27.291,33.47,6.466,9.547,-71.229
1204,0.77,37.623,18.459,27.291,33.47,6.467,9.466,-71.315
1205,0.757,37.716,18.428,27.262,33.46,6.345,9.383,-71.438
1206,0.757,37.842,18.447,27.281,33.47,6.425,9.505,-71.154
1207,0.744,37.872,18.448,27.262,33.467,6.344,9.465,-71.07
1208,0.747,37.489,18.455,27.252,33.456,6.303,9.383,-71.029
1209,0.741,37.619,18.448,27.242,33.463,6.302,9.382,-70.988
1210,0.741,37.735,18.459,27.271,33.474,6.343,9.423,-70.906
1211,0.734,37.756,18.467,27.271,33.456,6.262,9.383,-70.986
1212,0.731,37.497,18.436,27.223,33.456,6.18,9.342,-70.825
1213,0.741,37.667,18.455,27.252,33.47,6.383,9.504,-70.295
1214,0.731,37.745,18.432,27.252,33.46,6.303,9.384,-70.248
1215,0.734,37.506,18.432,27.262,33.456,6.343,9.505,-70.167
1216,0.744,37.514,18.447,27.271,33.467,6.384,9.546,-70.247
1217,0.741,37.648,18.455,27.271,33.463,6.507,9.425,-70.411
1218,0.747,37.726,18.444,27.291,33.463,6.345,9.464,-70.534
1219,0.751,37.276,18.447,27.272,33.467,6.466,9.383,-70.535
1220,0.754,37.435,18.483,27.3,33.477,6.507,9.586,-70.413
1221,0.738,37.503,18.436,27.272,33.463,6.427,9.425,-70.575
1222,0.747,37.6,18.455,27.271,33.467,6.466,9.586,-70.699
1223,0.764,37.39,18.475,27.31,33.474,6.507,9.588,-71.106
1224,0.744,37.484,18.432,27.272,33.46,6.427,9.629,-71.395
1225,0.754,37.609,18.436,27.281,33.47,6.466,9.832,-71.398
1226,0.754,37.659,18.44,27.271,33.467,6.467,9.794,-71.195
1227,0.748,37.323,18.436,27.252,33.456,6.386,9.915,-71.071
1228,0.741,37.435,18.432,27.252,33.456,6.385,9.957,-71.029
1229,0.747,37.561,18.44,27.271,33.467,6.466,10.202,-70.906
1230,0.731,37.591,18.436,27.252,33.456,6.304,10.163,-70.946
1231,0.728,37.093,18.436,27.223,33.453,6.302,10.204,-71.068
1232,0.738,37.231,18.459,27.261,33.466,6.302,10.285,-70.663
1233,0.731,37.338,18.436,27.252,33.46,6.302,10.408,-70.374
1234,0.728,37.368,18.443,27.271,33.463,6.343,10.531,-70.209
1235,0.728,37.177,18.451,27.291,33.467,6.384,10.614,-70.085
1236,0.738,37.319,18.448,27.291,33.477,6.425,10.737,-70.206
1237,0.734,37.397,18.455,27.272,33.46,6.344,10.697,-70.451
1238,0.747,37.263,18.444,27.281,33.473,6.303,10.737,-70.535
1239,0.741,37.166,18.463,27.31,33.474,6.425,10.819,-70.413
1240,0.751,37.232,18.463,27.272,33.467,6.222,10.779,-70.575
1241,0.748,37.348,18.455,27.281,33.47,6.302,10.82,-70.536
1242,0.754,37.042,18.463,27.291,33.477,6.384,10.82,-70.658
1243,0.748,37.125,18.459,27.262,33.463,6.344,10.779,-71.269
1244,0.751,37.251,18.444,27.3,33.463,6.384,10.779,-71.315
1245,0.741,37.329,18.436,27.262,33.47,6.385,10.779,-71.357
1246,0.738,36.841,18.44,27.262,33.463,6.344,10.82,-71.235
1247,0.747,36.999,18.432,27.262,33.46,6.384,10.82,-71.152
1248,0.738,37.115,18.447,27.262,33.467,6.466,10.779,-70.948
1249,0.734,37.155,18.42,27.262,33.453,6.426,10.738,-70.946
1250,0.725,36.791,18.432,27.233,33.453,6.344,10.616,-71.068
1251,0.731,36.97,18.463,27.271,33.466,6.506,10.737,-70.866
1252,0.731,37.067,18.448,27.252,33.456,6.467,10.657,-70.864
1253,0.738,37.078,18.448,27.242,33.46,6.386,10.615,-70.417
1254,0.741,36.809,18.448,27.281,33.467,6.507,10.696,-70.168
1255,0.734,36.941,18.448,27.262,33.47,6.508,10.575,-70.085
1256,0.747,37.057,18.444,27.281,33.467,6.508,10.614,-70.368
1257,0.747,37.106,18.444,27.262,33.47,6.63,10.574,-70.371
1258,0.754,36.829,18.447,27.281,33.477,6.59,10.533,-70.453
1259,0.744,36.941,18.44,27.281,33.46,6.509,10.41,-70.576
1260,0.747,37.057,18.444,27.3,33.473,6.549,10.409,-70.617
1261,0.76,37.356,18.451,27.3,33.474,6.63,10.409,-70.536
1262,0.735,36.678,18.428,27.252,33.463,6.59,10.165,-70.78
1263,0.741,36.805,18.428,27.29,33.463,6.631,10.244,-71.229
1264,0.744,36.903,18.447,27.281,33.463,6.55,10.042,-71.356
1265,0.747,36.549,18.432,27.262,33.46,6.549,9.918,-71.479
1266,0.741,36.632,18.436,27.271,33.46,6.59,9.876,-71.196
1267,0.741,36.738,18.451,27.262,33.467,6.631,9.835,-70.989
1268,0.731,36.825,18.44,27.271,33.453,6.631,9.672,-71.028
1269,0.738,36.423,18.44,27.233,33.453,6.509,9.629,-71.069
1270,0.734,36.553,18.436,27.281,33.463,6.67,9.629,-70.947
1271,0.731,36.68,18.424,27.252,33.46,6.55,9.507,-70.987
1272,0.728,36.748,18.416,27.233,33.449,6.549,9.465,-70.906
1273,0.728,36.432,18.439,27.261,33.463,6.671,9.424,-70.336
1274,0.728,36.554,18.432,27.262,33.463,6.672,9.424,-70.208
1275,0.734,36.689,18.436,27.281,33.463,6.631,9.383,-70.126
1276,0.728,36.767,18.455,27.281,33.47,6.672,9.342,-70.409
1277,0.734,36.356,18.424,27.281,33.474,6.631,9.342,-70.372
1278,0.738,36.476,18.424,27.281,33.46,6.509,9.179,-70.575
1279,0.734,36.602,18.443,27.281,33.47,6.63,9.259,-70.455
1280,0.751,36.68,18.455,27.319,33.481,6.712,9.3,-70.494
1281,0.728,36.345,18.432,27.262,33.467,6.51,9.097,-70.617
1282,0.734,36.495,18.451,27.29,33.463,6.549,9.258,-70.618
1283,0.757,36.612,18.455,27.319,33.477,6.63,9.3,-71.106
1284,0.738,36.623,18.424,27.262,33.46,6.428,9.219,-71.355
1285,0.738,36.143,18.439,27.29,33.467,6.466,9.503,-71.438
1286,0.751,36.282,18.432,27.281,33.467,6.467,9.506,-71.114
1287,0.744,36.36,18.455,27.252,33.463,6.426,9.546,-71.07
1288,0.744,36.236,18.44,27.262,33.463,6.426,9.669,-71.07
1289,0.741,36.235,18.447,27.281,33.463,6.344,9.833,-70.907
1290,0.734,36.331,18.432,27.271,33.46,6.384,9.834,-70.946
1291,0.731,36.428,18.432,27.252,33.456,6.303,9.834,-71.068
1292,0.731,35.959,18.443,27.281,33.463,6.343,10.038,-70.703
1293,0.738,36.05,18.44,27.262,33.456,6.303,9.958,-70.375
1294,0.725,36.157,18.444,27.243,33.46,6.221,9.917,-70.249
1295,0.731,36.273,18.451,27.281,33.473,6.261,10.079,-70.045
1296,0.731,36.015,18.44,27.262,33.463,6.262,10.081,-70.368
1297,0.741,36.166,18.432,27.281,33.463,6.302,9.959,-70.493
1298,0.741,36.311,18.447,27.271,33.463,6.384,9.998,-70.535
1299,0.741,36.38,18.444,27.281,33.467,6.425,9.999,-70.535
1300,0.734,35.882,18.432,27.271,33.46,6.263,9.877,-70.617
1301,0.747,36.059,18.44,27.291,33.473,6.343,9.876,-70.577
1302,0.754,36.205,18.447,27.319,33.477,6.425,9.916,-70.577
1303,0.735,36.187,18.42,27.281,33.463,6.263,9.713,-71.308
1304,0.744,35.851,18.436,27.291,33.47,6.302,9.711,-71.275
1305,0.744,35.972,18.443,27.262,33.467,6.262,9.589,-71.397
1306,0.734,36.05,18.428,27.271,33.467,6.302,9.507,-71.235
1307,0.738,36.118,18.447,27.271,33.449,6.262,9.425,-71.112
1308,0.734,35.774,18.424,27.291,33.463,6.302,9.464,-71.029
1309,0.734,35.876,18.424,27.262,33.46,6.343,9.302,-71.069
1310,0.738,35.982,18.412,27.262,33.456,6.221,9.26,-71.07
1311,0.741,36.051,18.447,27.262,33.467,6.342,9.341,-70.866
1312,0.734,35.764,18.412,27.262,33.456,6.303,9.301,-70.864
1313,0.731,35.885,18.408,27.243,33.456,6.18,9.341,-70.458
1314,0.734,36.011,18.435,27.29,33.467,6.301,9.423,-70.209
1315,0.725,35.591,18.42,27.252,33.463,6.302,9.424,-70.085
1316,0.734,35.634,18.416,27.262,33.463,6.343,9.464,-70.328
1317,0.741,35.807,18.424,27.271,33.463,6.384,9.627,-70.452
1318,0.738,35.886,18.439,27.271,33.463,6.344,9.67,-70.576
1319,0.747,35.513,18.436,27.271,33.467,6.343,9.67,-70.617
1320,0.741,35.672,18.432,27.291,33.47,6.343,9.792,-70.577
1321,0.747,35.808,18.443,27.31,33.47,6.466,9.956,-70.495
1322,0.734,35.876,18.436,27.262,33.463,6.304,9.876,-70.739
1323,0.747,35.484,18.447,27.3,33.47,6.384,9.916,-71.188
1324,0.754,35.643,18.463,27.339,33.481,6.466,9.998,-71.233
1325,0.738,35.731,18.444,27.282,33.46,6.304,9.958,-71.437
1326,0.741,35.789,18.432,27.291,33.467,6.384,10.08,-71.154
1327,0.741,35.435,18.44,27.291,33.46,6.344,10.04,-71.07
1328,0.734,35.546,18.444,27.262,33.46,6.262,10.04,-71.07
1329,0.741,35.672,18.424,27.262,33.46,6.302,10.04,-71.07
1330,0.747,35.702,18.447,27.29,33.467,6.302,10.121,-70.907
1331,0.744,35.367,18.424,27.281,33.46,6.262,10.081,-71.027
1332,0.747,35.488,18.428,27.252,33.453,6.262,9.959,-70.906
1333,0.773,35.633,18.447,27.271,33.463,6.384,10.08,-70.255
1334,0.767,35.625,18.424,27.281,33.463,6.303,10.121,-70.167
1335,0.79,35.347,18.42,27.291,33.47,6.343,10.081,-70.125
1336,0.806,35.469,18.428,27.291,33.467,6.384,10.162,-70.328
1337,0.816,35.595,18.443,27.31,33.474,6.425,10.204,-70.411
1338,0.82,35.327,18.428,27.281,33.463,6.344,10.245,-70.616
1339,0.839,35.315,18.424,27.291,33.463,6.303,10.245,-70.577
1340,0.859,35.478,18.428,27.319,33.477,6.425,10.326,-70.455
1341,0.846,35.556,18.424,27.281,33.46,6.222,10.246,-70.576
1342,0.856,35.212,18.439,27.291,33.47,6.342,10.408,-70.577
1343,0.872,35.352,18.447,27.281,33.463,6.303,10.328,-71.187
1344,0.882,35.431,18.444,27.281,33.456,6.262,10.327,-71.396
1345,0.866,35.537,18.432,27.281,33.467,6.262,10.368,-71.479
1346,0.879,35.068,18.436,27.281,33.467,6.302,10.368,-71.114
1347,0.866,35.197,18.412,27.281,33.46,6.221,10.328,-71.07
1348,0.859,35.295,18.432,27.243,33.456,6.18,10.205,-71.07
1349,0.872,35.401,18.443,27.29,33.467,6.383,10.367,-70.866
1350,0.863,35.038,18.42,27.262,33.453,6.222,10.246,-71.027
1351,0.866,35.197,18.424,27.271,33.46,6.261,10.245,-70.947
1352,0.869,35.324,18.424,27.291,33.463,6.302,10.245,-70.784
1353,0.872,35.373,18.424,27.272,33.47,6.302,10.164,-70.294
1354,0.869,34.97,18.443,27.271,33.467,6.302,10.122,-70.248
1355,0.869,35.12,18.428,27.281,33.467,6.343,10.163,-70.085
1356,0.892,35.236,18.463,27.31,33.474,6.506,10.122,-70.165
1357,0.902,35.257,18.44,27.272,33.46,6.386,9.919,-70.491
1358,0.905,34.988,18.436,27.281,33.467,6.385,9.957,-70.576
1359,0.931,35.187,18.432,27.319,33.474,6.507,9.998,-70.455
1360,0.922,35.237,18.42,27.281,33.46,6.386,9.755,-70.576
1361,0.928,35.151,18.428,27.291,33.463,6.507,9.752,-70.536
1362,0.931,34.987,18.447,27.281,33.463,6.427,9.671,-70.617
1363,0.931,35.091,18.424,27.291,33.463,6.385,9.507,-71.309
1364,0.931,35.207,18.42,27.281,33.463,6.425,9.506,-71.275
1365,0.931,34.787,18.424,27.291,33.467,6.507,9.546,-71.397
1366,0.931,34.869,18.447,27.262,33.46,6.467,9.466,-71.195
1367,0.925,35.023,18.424,27.271,33.453,6.345,9.465,-71.111
1368,0.915,35.092,18.428,27.271,33.463,6.506,9.668,-70.988
1369,0.915,34.69,18.432,27.271,33.46,6.345,9.629,-70.987
1370,0.905,34.82,18.424,27.252,33.456,6.466,9.67,-70.987
1371,0.915,34.975,18.428,27.29,33.46,6.507,9.833,-70.987
1372,0.899,35.043,18.443,27.262,33.46,6.427,9.956,-70.865
1373,0.905,34.766,18.436,27.281,33.463,6.507,9.998,-70.336
1374,0.908,34.926,18.428,27.281,33.463,6.549,10.08,-70.127
1375,0.902,35.033,18.432,27.281,33.467,6.508,10.243,-70.044
1376,0.915,35.082,18.428,27.281,33.463,6.427,10.245,-70.287
1377,0.912,34.776,18.424,27.3,33.463,6.507,10.326,-70.452
1378,0.918,34.916,18.432,27.3,33.47,6.549,10.408,-70.413
1379,0.912,35.033,18.428,27.281,33.467,6.468,10.328,-70.575
1380,0.908,35.082,18.436,27.291,33.467,6.507,10.327,-70.495
1381,0.915,34.661,18.443,27.319,33.474,6.589,10.49,-70.413
1382,0.892,34.781,18.42,27.281,33.46,6.468,10.288,-70.616
1383,0.892,34.897,18.424,27.31,33.467,6.467,10.367,-71.146
1384,0.889,35.253,18.439,27.3,33.467,6.467,10.206,-71.314
1385,0.876,34.701,18.424,27.281,33.456,6.386,10.245,-71.438
1386,0.869,34.858,18.428,27.291,33.467,6.466,10.204,-71.276
1387,0.869,34.946,18.44,27.291,33.463,6.426,10.163,-71.031
1388,0.863,34.563,18.432,27.272,33.463,6.426,10.082,-70.988
1389,0.853,34.617,18.424,27.271,33.453,6.385,9.999,-71.028
1390,0.856,34.762,18.432,27.281,33.47,6.385,10.121,-70.906
1391,0.849,34.821,18.428,27.271,33.46,6.385,9.919,-71.027
1392,0.853,34.533,18.416,27.252,33.449,6.263,9.876,-71.029
1393,0.866,34.694,18.416,27.271,33.47,6.384,9.997,-70.297
1394,0.856,34.801,18.412,27.243,33.453,6.344,9.877,-70.289
1395,0.846,34.859,18.428,27.261,33.46,6.262,9.753,-70.208
1396,0.859,34.39,18.432,27.29,33.46,6.424,9.793,-70.329
1397,0.84,34.519,18.42,27.272,33.463,6.385,9.712,-70.533
1398,0.83,34.655,18.436,27.271,33.463,6.303,9.752,-70.576
1399,0.83,34.743,18.436,27.291,33.463,6.425,9.793,-70.577
1400,0.83,34.523,18.42,27.281,33.463,6.385,9.712,-70.577
1401,0.813,34.665,18.42,27.271,33.463,6.344,9.792,-70.658
1402,0.803,34.81,18.408,27.3,33.474,6.506,9.915,-70.578
1403,0.79,34.888,18.432,27.31,33.477,6.549,9.916,-71.024
1404,0.78,34.371,18.424,27.291,33.46,6.346,9.916,-71.354
1405,0.787,34.491,18.439,27.3,33.47,6.466,9.998,-71.438
1406,0.784,34.655,18.444,27.32,33.474,6.467,10.121,-71.114
1407,0.777,34.647,18.408,27.262,33.456,6.345,10.0,-71.07
1408,0.774,34.436,18.424,27.3,33.47,6.425,10.202,-70.907
1409,0.758,34.568,18.428,27.281,33.463,6.385,10.123,-70.986
1410,0.748,34.656,18.424,27.262,33.46,6.344,10.122,-70.987
1411,0.757,34.513,18.432,27.281,33.47,6.384,10.041,-70.987
1412,0.738,34.463,18.408,27.291,33.467,6.425,10.162,-70.865
1413,0.718,34.568,18.42,27.272,33.46,6.263,10.041,-70.376
1414,0.708,34.656,18.412,27.243,33.456,6.302,10.04,-70.249
1415,0.708,34.235,18.42,27.29,33.467,6.465,10.121,-70.085
1416,0.702,34.336,18.424,27.262,33.46,6.386,9.959,-70.328
1417,0.688,34.452,18.432,27.262,33.46,6.385,9.957,-70.533
1418,0.695,34.568,18.44,27.271,33.47,6.425,10.039,-70.576
1419,0.688,34.224,18.428,27.281,33.463,6.385,9.958,-70.577
1420,0.692,34.384,18.436,27.281,33.474,6.466,9.876,-70.617
1421,0.698,34.5,18.412,27.281,33.467,6.467,9.916,-70.658
1422,0.708,34.588,18.424,27.291,33.47,6.507,9.957,-70.496
1423,0.695,34.301,18.428,27.3,33.467,6.345,9.795,-71.226
1424,0.705,34.471,18.432,27.3,33.47,6.425,9.834,-71.274
1425,0.708,34.597,18.432,27.32,33.481,6.507,9.875,-71.234
1426,0.695,34.637,18.424,27.301,33.463,6.345,9.631,-71.234
1427,0.688,34.158,18.412,27.281,33.463,6.425,9.67,-70.99
1428,0.692,34.306,18.4,27.291,33.463,6.385,9.548,-70.987
1429,0.688,34.394,18.42,27.281,33.463,6.303,9.506,-71.028
1430,0.695,34.462,18.436,27.291,33.467,6.302,9.506,-70.906
1431,0.685,34.309,18.424,27.291,33.463,6.384,9.425,-70.905
1432,0.688,34.432,18.432,27.272,33.463,6.222,9.383,-70.986
1433,0.675,34.539,18.416,27.252,33.46,6.22,9.301,-70.418
1434,0.678,34.665,18.412,27.29,33.47,6.342,9.423,-70.168
1435,0.678,34.12,18.396,27.272,33.456,6.221,9.302,-70.085
1436,0.669,34.248,18.4,27.262,33.456,6.342,9.26,-70.368
1437,0.685,34.384,18.42,27.3,33.47,6.303,9.422,-70.412
1438,0.669,34.155,18.428,27.281,33.46,6.302,9.342,-70.534
1439,0.685,34.268,18.408,27.291,33.463,6.221,9.423,-70.576
1440,0.679,34.394,18.424,27.281,33.467,6.261,9.464,-70.577
1441,0.685,34.5,18.428,27.3,33.48,6.384,9.587,-70.495
1442,0.675,34.041,18.416,27.281,33.46,6.222,9.425,-70.617
1443,0.688,34.19,18.416,27.319,33.47,6.22,9.505,-71.187
1444,0.695,34.345,18.435,27.329,33.477,6.383,9.668,-71.193
1445,0.682,34.404,18.401,27.272,33.46,6.141,9.507,-71.437
1446,0.688,34.05,18.424,27.3,33.47,6.219,9.587,-71.114
1447,0.688,34.228,18.443,27.3,33.467,6.22,9.588,-71.029
1448,0.682,34.336,18.405,27.272,33.463,6.18,9.547,-71.029
1449,0.685,34.394,18.424,27.281,33.46,6.179,9.547,-71.029
1450,0.685,33.992,18.428,27.291,33.467,6.179,9.547,-70.988
1451,0.682,34.113,18.424,27.262,33.46,6.179,9.506,-71.028
1452,0.679,34.239,18.4,27.271,33.456,6.139,9.506,-70.988
1453,0.682,34.297,18.416,27.281,33.467,6.219,9.546,-70.296
1454,0.679,34.01,18.396,27.262,33.456,6.098,9.425,-70.37
1455,0.672,34.151,18.408,27.262,33.463,6.097,9.342,-70.168
1456,0.685,34.297,18.404,27.281,33.474,6.219,9.423,-70.288
1457,0.679,34.317,18.4,27.281,33.46,6.139,9.302,-70.492
1458,0.678,34.011,18.396,27.291,33.46,6.26,9.341,-70.576
1459,0.688,34.161,18.416,27.291,33.463,6.262,9.26,-70.617
1460,0.682,34.268,18.408,27.281,33.47,6.384,9.3,-70.496
1461,0.692,34.039,18.424,27.291,33.467,6.425,9.138,-70.576
1462,0.692,34.046,18.408,27.281,33.467,6.466,9.217,-70.536
1463,0.705,34.2,18.428,27.329,33.48,6.629,9.259,-71.024
1464,0.698,34.288,18.397,27.301,33.46,6.55,9.056,-71.354
1465,0.701,33.876,18.42,27.291,33.47,6.671,9.176,-71.357
1466,0.708,34.044,18.424,27.3,33.481,6.713,9.259,-71.072
1467,0.692,34.113,18.404,27.281,33.467,6.551,9.097,-71.11
1468,0.695,34.22,18.431,27.281,33.467,6.712,9.339,-70.988
1469,0.698,33.933,18.416,27.291,33.463,6.672,9.301,-70.987
1470,0.682,34.055,18.408,27.281,33.456,6.631,9.341,-71.028
1471,0.698,34.2,18.408,27.281,33.46,6.672,9.382,-70.988
1472,0.692,34.268,18.424,27.3,33.46,6.672,9.464,-70.947
1473,0.688,33.79,18.393,27.262,33.46,6.631,9.424,-70.458
1474,0.695,33.948,18.412,27.252,33.453,6.59,9.342,-70.372
1475,0.698,34.084,18.408,27.271,33.466,6.712,9.423,-70.127
1476,0.701,34.142,18.404,27.262,33.456,6.672,9.302,-70.409
1477,0.695,33.855,18.396,27.262,33.46,6.631,9.382,-70.494
1478,0.701,34.044,18.408,27.29,33.463,6.753,9.382,-70.576
1479,0.698,34.152,18.416,27.281,33.47,6.673,9.301,-70.617
1480,0.705,34.201,18.4,27.281,33.474,6.631,9.382,-70.577
1481,0.705,33.827,18.404,27.291,33.467,6.712,9.342,-70.577
1482,0.708,33.967,18.412,27.3,33.47,6.713,9.423,-70.455
1483,0.708,34.084,18.408,27.281,33.46,6.632,9.302,-71.226
1484,0.715,34.066,18.408,27.3,33.467,6.631,9.382,-71.234
1485,0.715,33.931,18.424,27.329,33.474,6.753,9.505,-71.315
1486,0.702,34.016,18.416,27.282,33.467,6.632,9.343,-71.235
1487,0.711,34.132,18.408,27.3,33.47,6.631,9.423,-71.031
1488,0.721,33.827,18.428,27.291,33.47,6.631,9.505,-70.988
1489,0.705,33.9,18.412,27.3,33.463,6.509,9.425,-70.987
1490,0.698,34.035,18.4,27.3,33.467,6.589,9.505,-70.906
1491,0.698,34.132,18.424,27.291,33.463,6.59,9.506,-70.986
1492,0.688,33.587,18.408,27.281,33.46,6.468,9.425,-71.028
1493,0.688,33.744,18.412,27.271,33.46,6.386,9.424,-70.5
1494,0.682,33.89,18.412,27.291,33.463,6.507,9.546,-70.25
1495,0.672,33.949,18.416,27.262,33.453,6.467,9.547,-70.167
1496,0.662,33.671,18.404,27.252,33.46,6.345,9.547,-70.329
1497,0.685,33.87,18.416,27.281,33.463,6.466,9.791,-70.452
1498,0.688,33.968,18.416,27.271,33.463,6.426,9.875,-70.657
1499,0.708,34.036,18.42,27.291,33.46,6.466,9.997,-70.578
1500,0.728,33.701,18.416,27.281,33.467,6.386,10.121,-70.577
1501,0.747,33.88,18.412,27.319,33.48,6.507,10.284,-70.495
1502,0.773,33.977,18.404,27.291,33.467,6.345,10.245,-70.657
1503,0.803,34.046,18.424,27.319,33.467,6.425,10.286,-71.147
1504,0.842,33.72,18.424,27.32,33.463,6.507,10.245,-71.314
1505,0.846,33.813,18.404,27.291,33.46,6.386,10.204,-71.479
1506,0.862,33.948,18.408,27.319,33.467,6.385,10.245,-71.236
1507,0.879,33.978,18.404,27.291,33.467,6.385,10.204,-71.071
1508,0.908,33.672,18.392,27.281,33.456,6.385,10.163,-71.07
1509,0.951,33.803,18.408,27.281,33.46,6.344,10.0,-70.988
1510,1.0,33.929,18.408,27.281,33.467,6.466,10.161,-70.987
1511,1.049,33.623,18.392,27.271,33.46,6.386,10.122,-71.028
1512,1.086,33.649,18.392,27.262,33.456,6.303,9.959,-71.069
1513,1.138,33.803,18.404,27.281,33.463,6.425,9.998,-70.297
1514,1.184,33.91,18.4,27.262,33.463,6.385,9.917,-70.248
1515,1.24,33.537,18.4,27.262,33.463,6.507,9.957,-70.085
1516,1.305,33.705,18.42,27.3,33.467,6.508,9.957,-70.246
1517,1.358,33.822,18.424,27.291,33.47,6.589,9.917,-70.492
1518,1.404,33.929,18.408,27.281,33.467,6.427,9.835,-70.576
1519,1.447,33.537,18.412,27.31,33.467,6.548,9.753,-70.495
1520,1.47,33.725,18.412,27.32,33.48,6.63,9.833,-70.495
1521,1.474,33.832,18.396,27.281,33.467,6.428,9.672,-70.617
1522,1.513,33.9,18.392,27.291,33.47,6.548,9.629,-70.536
1523,1.575,33.652,18.408,27.329,33.477,6.549,9.629,-71.064
1524,1.588,33.764,18.404,27.282,33.463,6.427,9.426,-71.395
1525,1.647,33.88,18.408,27.31,33.467,6.466,9.464,-71.439
1526,1.674,33.929,18.404,27.291,33.463,6.467,9.383,-71.114
1527,1.69,33.46,18.392,27.281,33.463,6.386,9.261,-71.111
1528,1.729,33.618,18.385,27.3,33.463,6.466,9.341,-70.988
1529,1.772,33.745,18.416,27.291,33.467,6.426,9.382,-70.947
1530,1.818,33.756,18.416,27.272,33.46,6.344,9.261,-70.987
1531,1.854,33.641,18.408,27.252,33.456,6.303,9.259,-71.028
1532,1.887,33.774,18.412,27.3,33.47,6.384,9.381,-70.947
1533,1.881,33.871,18.4,27.262,33.456,6.303,9.342,-70.377
1534,1.865,33.68,18.408,27.271,33.463,6.343,9.464,-70.249
1535,1.835,33.534,18.408,27.291,33.467,6.384,9.505,-70.045
1536,1.734,33.648,18.412,27.291,33.467,6.344,9.506,-70.205
1537,1.629,33.745,18.408,27.272,33.467,6.343,9.425,-70.532
1538,1.547,33.516,18.408,27.31,33.467,6.343,9.546,-70.535
1539,1.474,33.667,18.404,27.32,33.477,6.466,9.669,-70.413
1540,1.402,33.774,18.408,27.272,33.463,6.264,9.467,-70.616
1541,1.323,33.88,18.412,27.291,33.47,6.384,9.587,-70.577
1542,1.215,33.488,18.424,27.319,33.47,6.344,9.588,-70.536
1543,1.09,33.59,18.408,27.301,33.463,6.221,9.547,-71.145
1544,1.021,33.744,18.408,27.3,33.47,6.342,9.71,-71.355
1545,0.932,33.813,18.404,27.281,33.46,6.262,9.63,-71.398
1546,0.84,33.44,18.385,27.271,33.456,6.302,9.588,-71.235
1547,0.765,33.58,18.4,27.291,33.463,6.302,9.588,-71.112
1548,0.709,33.716,18.404,27.281,33.47,6.343,9.71,-71.029
1549,0.65,33.784,18.4,27.281,33.456,6.262,9.67,-71.069
1550,0.613,33.411,18.389,27.252,33.456,6.262,9.711,-71.07
1551,0.597,33.599,18.4,27.281,33.467,6.384,9.874,-70.947
1552,0.554,33.697,18.396,27.291,33.46,6.263,9.835,-70.987
1553,0.537,33.726,18.396,27.281,33.463,6.343,9.834,-70.418
1554,0.537,33.401,18.4,27.291,33.463,6.384,9.956,-70.209
1555,0.54,33.532,18.412,27.272,33.474,6.466,9.917,-70.044
1556,0.537,33.667,18.412,27.3,33.463,6.386,9.916,-70.368
1557,0.55,33.985,18.416,27.31,33.474,6.425,9.916,-70.534
1558,0.57,33.394,18.412,27.31,33.481,6.548,9.998,-70.454
1559,0.573,33.541,18.408,27.3,33.463,6.468,9.917,-70.576
1560,0.596,33.648,18.432,27.281,33.47,6.548,10.039,-70.536
1561,0.616,33.534,18.404,27.329,33.477,6.59,10.121,-70.495
1562,0.623,33.562,18.4,27.282,33.46,6.468,9.959,-70.617
1563,0.655,33.706,18.412,27.291,33.467,6.548,10.039,-71.146
1564,0.662,33.794,18.408,27.291,33.463,6.59,9.958,-71.314
1565,0.675,33.133,18.396,27.281,33.456,6.427,9.835,-71.438
1566,0.691,33.279,18.396,27.291,33.46,6.466,9.794,-71.276
1567,0.701,33.425,18.392,27.291,33.467,6.467,9.875,-71.072
1568,0.721,33.503,18.4,27.272,33.463,6.426,9.713,-71.11
1569,0.721,33.389,18.385,27.262,33.453,6.344,9.63,-71.111
1570,0.741,33.541,18.396,27.3,33.466,6.506,9.792,-70.948
1571,0.741,33.667,18.396,27.281,33.463,6.427,9.631,-71.028
1572,0.744,33.697,18.381,27.262,33.453,6.385,9.588,-71.029
1573,0.767,33.276,18.392,27.29,33.463,6.507,9.751,-70.256
1574,0.761,33.415,18.396,27.272,33.467,6.427,9.671,-70.248
1575,0.774,33.532,18.396,27.291,33.467,6.466,9.711,-70.126
1576,0.774,33.61,18.4,27.3,33.467,6.467,9.752,-70.247
1577,0.767,33.284,18.408,27.32,33.47,6.467,9.752,-70.289
1578,0.774,33.434,18.412,27.291,33.463,6.467,9.63,-70.533
1579,0.777,33.532,18.4,27.3,33.47,6.507,9.71,-70.576
1580,0.777,33.61,18.4,27.329,33.474,6.508,9.833,-70.414
1581,0.771,33.342,18.4,27.282,33.474,6.386,9.631,-70.656
1582,0.774,33.512,18.385,27.3,33.47,6.466,9.629,-70.578
1583,0.771,33.629,18.392,27.31,33.47,6.426,9.629,-71.146
1584,0.764,33.342,18.396,27.281,33.463,6.466,9.548,-71.396
1585,0.774,33.262,18.392,27.3,33.46,6.426,9.588,-71.398
1586,0.764,33.396,18.392,27.281,33.47,6.466,9.507,-71.235
1587,0.754,33.484,18.388,27.291,33.46,6.386,9.506,-71.071
1588,0.751,33.149,18.377,27.272,33.46,6.344,9.425,-71.07
1589,0.754,33.27,18.388,27.3,33.467,6.425,9.627,-70.907
1590,0.764,33.406,18.396,27.272,33.46,6.426,9.67,-71.027
1591,0.761,33.474,18.388,27.271,33.46,6.426,9.833,-70.988
1592,0.767,33.158,18.412,27.291,33.463,6.548,9.997,-70.865
1593,0.761,33.309,18.404,27.281,33.463,6.549,10.121,-70.376
1594,0.761,33.435,18.408,27.281,33.467,6.468,10.163,-70.29
1595,0.767,33.542,18.408,27.291,33.467,6.507,10.244,-70.045
1596,0.774,33.169,18.4,27.31,33.477,6.508,10.408,-70.246
1597,0.774,33.309,18.389,27.281,33.463,6.467,10.328,-70.492
1598,0.771,33.435,18.396,27.3,33.467,6.467,10.408,-70.454
1599,0.79,33.532,18.416,27.329,33.477,6.629,10.572,-70.454
1600,0.771,33.14,18.412,27.291,33.467,6.468,10.33,-70.576
1601,0.78,33.308,18.389,27.31,33.47,6.507,10.49,-70.577
1602,0.78,33.444,18.404,27.32,33.467,6.467,10.329,-70.577
1603,0.777,33.465,18.392,27.281,33.46,6.386,10.246,-71.268
1604,0.78,33.091,18.396,27.3,33.46,6.425,10.245,-71.315
1605,0.78,33.26,18.388,27.291,33.467,6.304,10.204,-71.397
1606,0.774,33.348,18.377,27.291,33.463,6.343,10.123,-71.317
1607,0.771,33.435,18.38,27.281,33.449,6.303,10.0,-71.153
1608,0.777,33.148,18.369,27.31,33.466,6.384,10.08,-70.989
1609,0.774,33.28,18.388,27.291,33.453,6.303,10.04,-71.028
1610,0.767,33.367,18.388,27.272,33.46,6.302,9.999,-70.988
1611,0.78,33.109,18.424,27.291,33.467,6.384,10.039,-70.906
1612,0.774,33.183,18.385,27.281,33.46,6.385,10.08,-70.986
1613,0.784,33.309,18.404,27.291,33.473,6.425,9.999,-70.377
1614,0.79,33.435,18.392,27.291,33.47,6.344,9.999,-70.168
1615,0.797,32.976,18.412,27.31,33.477,6.506,9.999,-70.003
1616,0.781,33.115,18.393,27.281,33.463,6.264,9.836,-70.286
1617,0.787,33.222,18.392,27.3,33.47,6.424,9.916,-70.411
1618,0.803,33.338,18.42,27.32,33.477,6.507,9.957,-70.453
1619,0.787,33.099,18.408,27.301,33.47,6.305,9.835,-70.657
1620,0.793,33.279,18.396,27.32,33.467,6.465,10.038,-70.578
1621,0.793,33.387,18.388,27.301,33.467,6.386,10.121,-70.577
1622,0.787,33.464,18.377,27.291,33.463,6.385,10.203,-70.699
1623,0.79,32.976,18.384,27.3,33.46,6.425,10.326,-71.228
1624,0.806,33.105,18.396,27.3,33.463,6.466,10.408,-71.315
1625,0.8,33.241,18.4,27.281,33.463,6.386,10.409,-71.56
1626,0.79,33.271,18.381,27.262,33.449,6.303,10.409,-71.4
1627,0.79,32.993,18.396,27.31,33.473,6.465,10.531,-71.032
1628,0.8,33.115,18.396,27.31,33.456,6.345,10.532,-71.069
1629,0.797,33.222,18.396,27.3,33.463,6.466,10.532,-70.988
1630,0.81,33.28,18.4,27.291,33.467,6.467,10.614,-70.906
1631,0.803,33.07,18.385,27.31,33.477,6.467,10.574,-70.824
1632,0.807,33.202,18.396,27.291,33.463,6.386,10.492,-70.904
1633,0.8,33.328,18.4,27.3,33.467,6.466,10.614,-70.295
1634,0.81,33.013,18.408,27.32,33.48,6.507,10.615,-70.127
1635,0.8,32.952,18.377,27.272,33.467,6.427,10.533,-70.084
1636,0.803,33.105,18.416,27.291,33.467,6.507,10.614,-70.287
1637,0.813,33.231,18.408,27.319,33.47,6.427,10.696,-70.411
1638,0.81,32.926,18.377,27.281,33.46,6.385,10.656,-70.534
1639,0.813,33.066,18.396,27.291,33.463,6.385,10.737,-70.658
1640,0.81,33.183,18.396,27.3,33.463,6.385,10.697,-70.618
1641,0.81,33.29,18.385,27.281,33.456,6.303,10.616,-70.658
1642,0.807,32.878,18.384,27.262,33.46,6.18,10.574,-70.699
1643,0.813,33.066,18.381,27.29,33.467,6.383,10.655,-71.147
1644,0.803,33.173,18.38,27.281,33.453,6.303,10.574,-71.396
1645,0.8,33.232,18.369,27.31,33.46,6.262,10.533,-71.439
1646,0.81,32.839,18.388,27.291,33.46,6.343,10.573,-71.236
1647,0.8,32.989,18.377,27.3,33.47,6.303,10.492,-71.031
1648,0.81,33.125,18.392,27.3,33.46,6.302,10.491,-71.029
1649,0.807,33.174,18.4,27.32,33.47,6.302,10.451,-70.947
1650,0.813,32.829,18.404,27.329,33.474,6.384,10.572,-70.824
1651,0.813,32.97,18.381,27.282,33.463,6.222,10.411,-70.904
1652,0.82,33.096,18.392,27.319,33.474,6.22,10.491,-70.905
1653,0.83,33.183,18.404,27.32,33.481,6.342,10.573,-70.295
1654,0.807,32.858,18.381,27.291,33.463,6.181,10.37,-70.33
1655,0.82,33.027,18.396,27.3,33.467,6.301,10.49,-70.005
1656,0.83,33.125,18.377,27.3,33.467,6.302,10.451,-70.286
1657,0.817,33.04,18.38,27.291,33.463,6.18,10.491,-70.533
1658,0.826,32.838,18.396,27.281,33.46,6.22,10.451,-70.535
1659,0.823,32.97,18.388,27.31,33.47,6.302,10.45,-70.617
1660,0.826,33.086,18.384,27.291,33.453,6.221,10.369,-70.658
1661,0.823,32.704,18.365,27.281,33.456,6.139,10.287,-70.699
1662,0.833,32.815,18.384,27.291,33.467,6.341,10.367,-70.619
1663,0.839,32.912,18.369,27.291,33.46,6.262,10.328,-71.35
1664,0.82,33.009,18.365,27.291,33.453,6.302,10.286,-71.398
1665,0.839,32.761,18.384,27.291,33.47,6.384,10.286,-71.398
1666,0.843,32.902,18.4,27.3,33.456,6.385,10.286,-71.235
1667,0.839,33.038,18.392,27.281,33.463,6.425,10.286,-71.031
1668,0.839,33.135,18.381,27.3,33.474,6.385,10.245,-70.988
1669,0.843,32.704,18.4,27.329,33.477,6.588,10.245,-70.825
1670,0.839,32.825,18.385,27.291,33.47,6.468,10.123,-70.904
1671,0.839,32.96,18.392,27.291,33.47,6.629,10.163,-70.905
1672,0.846,33.076,18.404,27.319,33.474,6.672,10.163,-70.905
1673,0.833,32.665,18.369,27.262,33.46,6.631,10.122,-70.458
1674,0.839,32.815,18.396,27.31,33.46,6.631,10.122,-70.209
1675,0.843,32.941,18.381,27.3,33.467,6.672,10.041,-70.085
1676,0.839,32.971,18.373,27.291,33.463,6.672,9.918,-70.409
1677,0.839,32.655,18.365,27.291,33.463,6.631,9.916,-70.534
1678,0.843,32.795,18.373,27.291,33.463,6.753,9.998,-70.535
1679,0.843,32.902,18.377,27.272,33.463,6.673,10.039,-70.658
1680,0.846,33.047,18.361,27.262,33.453,6.631,10.121,-70.781
1681,0.856,32.703,18.404,27.31,33.463,6.794,10.447,-70.619
1682,0.856,32.815,18.389,27.291,33.467,6.714,10.572,-70.658
1683,0.853,32.922,18.388,27.3,33.463,6.713,10.858,-71.228
1684,0.866,32.625,18.396,27.329,33.467,6.794,10.983,-71.234
1685,0.866,32.632,18.385,27.301,33.463,6.795,11.228,-71.478
1686,0.856,32.795,18.373,27.291,33.463,6.714,11.271,-71.277
1687,0.866,32.912,18.38,27.3,33.47,6.835,11.394,-70.99
1688,0.866,32.462,18.396,27.32,33.481,6.837,11.517,-70.865
1689,0.866,32.563,18.381,27.301,33.463,6.714,11.518,-70.986
1690,0.872,32.727,18.392,27.31,33.47,6.713,11.518,-70.906
1691,0.882,32.834,18.385,27.32,33.477,6.754,11.559,-70.905
1692,0.872,32.548,18.384,27.281,33.47,6.632,11.437,-70.986
1693,0.879,32.708,18.388,27.31,33.467,6.59,11.517,-70.337
1694,0.879,32.834,18.392,27.281,33.463,6.671,11.477,-70.249
1695,0.869,32.903,18.385,27.281,33.467,6.55,11.355,-70.167
1696,0.879,32.462,18.396,27.291,33.467,6.549,11.313,-70.41
1697,0.885,32.611,18.385,27.3,33.46,6.712,11.313,-70.494
1698,0.882,32.737,18.377,27.281,33.46,6.632,11.272,-70.617
1699,0.866,32.787,18.388,27.271,33.456,6.468,11.109,-70.699
1700,0.885,32.557,18.392,27.319,33.467,6.67,11.148,-70.619
1701,0.889,32.679,18.369,27.301,33.463,6.631,10.945,-70.658
1702,0.892,32.834,18.392,27.3,33.467,6.712,10.984,-70.578
1703,0.892,32.874,18.4,27.3,33.47,6.754,10.862,-71.146
1704,0.905,32.577,18.385,27.32,33.474,6.876,10.82,-71.192
1705,0.899,32.679,18.384,27.32,33.456,6.755,10.617,-71.477
1706,0.905,32.824,18.377,27.301,33.47,6.795,10.574,-71.155
1707,0.912,32.653,18.388,27.329,33.474,6.917,10.614,-71.03
1708,0.899,32.45,18.377,27.301,33.47,6.796,10.33,-70.988
1709,0.902,32.621,18.373,27.32,33.474,6.836,10.327,-70.947
1710,0.915,32.737,18.377,27.31,33.47,6.837,10.246,-70.946
1711,0.899,32.259,18.361,27.281,33.467,6.796,10.164,-71.028
1712,0.899,32.369,18.388,27.31,33.467,6.836,10.244,-71.029
1713,0.902,32.505,18.381,27.291,33.463,6.755,10.245,-70.378
1714,0.905,32.612,18.377,27.272,33.463,6.714,10.286,-70.29
1715,0.908,32.306,18.38,27.262,33.46,6.672,10.286,-70.167
1716,0.912,32.475,18.38,27.319,33.463,6.794,10.449,-70.247
1717,0.905,32.592,18.365,27.291,33.46,6.673,10.41,-70.573
1718,0.912,32.66,18.369,27.281,33.449,6.631,10.45,-70.617
1719,0.922,32.258,18.369,27.319,33.463,6.672,10.613,-70.618
1720,0.912,32.389,18.376,27.281,33.46,6.631,10.574,-70.618
1721,0.922,32.534,18.392,27.291,33.46,6.631,10.533,-70.577
1722,0.931,32.612,18.369,27.31,33.473,6.672,10.695,-70.536
1723,0.938,32.325,18.396,27.329,33.474,6.672,10.656,-71.145
1724,0.941,32.485,18.369,27.291,33.467,6.55,10.574,-71.355
1725,0.945,32.602,18.376,27.319,33.467,6.59,10.574,-71.438
1726,0.948,32.689,18.396,27.329,33.474,6.671,10.655,-71.154
1727,0.945,32.364,18.381,27.301,33.47,6.469,10.493,-71.07
1728,0.945,32.514,18.361,27.32,33.47,6.629,10.41,-70.947
1729,0.958,32.66,18.408,27.339,33.481,6.59,10.45,-70.946
1730,0.951,32.891,18.385,27.291,33.463,6.468,10.247,-71.028
1731,0.954,32.251,18.392,27.319,33.46,6.589,10.286,-70.906
1732,0.958,32.398,18.388,27.291,33.47,6.509,10.286,-70.946
1733,0.954,32.515,18.377,27.291,33.467,6.467,10.123,-70.458
1734,0.967,32.247,18.384,27.291,33.46,6.386,10.0,-70.331
1735,0.961,32.312,18.373,27.3,33.463,6.466,10.08,-70.086
1736,0.958,32.447,18.377,27.281,33.456,6.345,9.959,-70.368
1737,0.964,32.534,18.361,27.271,33.46,6.303,9.835,-70.575
1738,0.981,32.2,18.38,27.31,33.47,6.425,9.834,-70.536
1739,0.991,32.311,18.38,27.281,33.463,6.304,9.753,-70.617
1740,0.984,32.456,18.38,27.291,33.467,6.384,9.793,-70.618
1741,0.991,32.563,18.392,27.291,33.474,6.385,9.631,-70.577
1742,0.994,32.123,18.385,27.31,33.474,6.425,9.67,-70.536
1743,0.997,32.301,18.388,27.31,33.463,6.385,9.589,-71.267
1744,0.997,32.437,18.361,27.32,33.467,6.466,9.588,-71.275
1745,1.004,32.534,18.376,27.339,33.474,6.548,9.588,-71.397
1746,1.007,32.267,18.377,27.301,33.467,6.468,9.385,-71.235
1747,1.014,32.417,18.384,27.31,33.47,6.548,9.382,-70.99
1748,1.02,32.582,18.392,27.32,33.47,6.59,9.342,-70.947
1749,1.001,32.584,18.388,27.291,33.463,6.549,9.179,-70.946
1750,1.017,32.306,18.388,27.319,33.47,6.59,9.177,-70.906
1751,1.023,32.427,18.373,27.301,33.467,6.671,9.177,-70.905
1752,1.023,32.534,18.365,27.291,33.46,6.631,9.096,-70.986
1753,1.027,32.583,18.369,27.3,33.47,6.631,9.014,-70.499
1754,1.03,32.306,18.38,27.291,33.47,6.672,9.013,-70.21
1755,1.03,32.437,18.38,27.291,33.456,6.672,9.013,-70.207
1756,1.033,32.525,18.357,27.262,33.453,6.672,8.932,-70.41
1757,1.053,32.506,18.369,27.3,33.466,6.713,9.012,-70.453
1758,1.043,32.506,18.376,27.291,33.463,6.713,8.81,-70.576
1759,1.046,32.631,18.388,27.3,33.467,6.713,8.93,-70.536
1760,1.063,32.786,18.373,27.3,33.47,6.835,9.012,-70.535
1761,1.069,32.538,18.365,27.32,33.47,6.918,9.013,-70.535
1762,1.063,32.679,18.361,27.301,33.467,6.796,8.972,-70.617
1763,1.073,32.805,18.376,27.3,33.474,6.877,9.053,-71.146
1764,1.089,32.912,18.384,27.339,33.477,6.918,9.217,-71.192
1765,1.089,32.884,18.357,27.31,33.456,6.796,9.178,-71.477
1766,1.083,33.066,18.392,27.32,33.47,6.836,9.259,-71.196
1767,1.099,33.202,18.392,27.329,33.474,6.958,9.463,-70.989
1768,1.093,33.261,18.349,27.282,33.467,6.756,9.424,-71.069
1769,1.096,33.137,18.376,27.319,33.47,6.836,9.627,-70.947
1770,1.102,33.299,18.365,27.301,33.467,6.796,9.588,-71.028
1771,1.089,33.406,18.365,27.281,33.463,6.714,9.669,-70.906
1772,1.102,33.455,18.38,27.31,33.47,6.794,9.711,-71.027
1773,1.102,33.695,18.377,27.3,33.463,6.795,9.711,-70.418
1774,1.102,33.841,18.373,27.281,33.46,6.836,9.63,-70.331
1775,1.102,33.929,18.365,27.291,33.449,6.755,9.629,-70.168
1776,1.115,33.997,18.404,27.31,33.47,6.876,9.751,-70.207
1777,1.102,34.046,18.365,27.291,33.46,6.837,9.671,-70.573
1778,1.106,34.171,18.361,27.262,33.46,6.796,9.67,-70.617
1779,1.122,34.306,18.369,27.3,33.47,6.958,9.751,-70.618
1780,1.119,34.586,18.361,27.3,33.467,6.919,9.752,-70.577
1781,1.115,34.694,18.376,27.3,33.467,6.878,9.752,-70.617
1782,1.128,34.839,18.388,27.31,33.47,6.959,9.793,-70.577
1783,1.142,34.908,18.388,27.32,33.474,7.041,9.875,-71.065
1784,1.132,35.004,18.377,27.32,33.467,6.92,9.835,-71.395
1785,1.142,35.159,18.38,27.31,33.47,6.919,9.753,-71.357
1786,1.148,35.275,18.384,27.329,33.477,7.041,9.915,-71.113
1787,1.145,35.343,18.377,27.291,33.46,6.92,9.672,-71.07
1788,1.148,35.661,18.392,27.31,33.467,6.919,9.792,-70.907
1789,1.155,35.836,18.381,27.32,33.467,6.878,9.753,-70.946
1790,1.145,35.915,18.38,27.32,33.463,6.755,9.549,-70.987
1791,1.155,36.002,18.38,27.32,33.467,6.836,9.628,-70.947
1792,1.155,36.281,18.38,27.291,33.467,6.837,9.67,-70.946
1793,1.155,36.418,18.369,27.281,33.463,6.714,9.589,-70.499
1794,1.161,36.515,18.373,27.291,33.467,6.672,9.588,-70.332
1795,1.165,36.574,18.373,27.3,33.47,6.835,9.751,-70.086
1796,1.155,36.795,18.373,27.31,33.46,6.674,9.712,-70.368
1797,1.158,36.902,18.365,27.272,33.46,6.631,9.792,-70.534
1798,1.168,37.047,18.384,27.281,33.47,6.672,9.915,-70.576
1799,1.165,37.058,18.361,27.3,33.467,6.672,9.835,-70.617
1800,1.165,37.442,18.376,27.31,33.467,6.713,9.916,-70.618
1801,1.168,37.571,18.377,27.3,33.47,6.713,9.957,-70.536
1802,1.175,37.677,18.377,27.339,33.474,6.835,10.08,-70.495
1803,1.175,37.669,18.38,27.31,33.467,6.674,9.918,-71.226
1804,1.162,37.928,18.373,27.329,33.47,6.713,9.916,-71.234
1805,1.174,38.065,18.396,27.349,33.487,6.794,10.039,-71.437
1806,1.165,38.104,18.361,27.301,33.467,6.714,9.877,-71.276
1807,1.168,38.296,18.372,27.31,33.467,6.713,9.916,-71.031
1808,1.168,38.433,18.38,27.31,33.467,6.794,9.916,-70.988
1809,1.148,38.53,18.373,27.291,33.467,6.633,9.713,-71.028
1810,1.155,38.607,18.377,27.3,33.467,6.753,9.63,-71.029
1811,1.145,38.79,18.369,27.291,33.467,6.795,9.71,-70.906
1812,1.142,38.898,18.345,27.281,33.46,6.673,9.67,-70.986
1813,1.135,38.995,18.368,27.291,33.453,6.672,9.507,-70.459
1814,1.132,39.072,18.361,27.3,33.473,6.713,9.668,-70.25
1815,1.119,39.121,18.353,27.281,33.467,6.632,9.507,-70.167
1816,1.112,39.237,18.361,27.281,33.46,6.631,9.465,-70.288
1817,1.119,39.382,18.38,27.3,33.47,6.794,9.546,-70.452
1818,1.109,39.421,18.361,27.291,33.47,6.714,9.384,-70.576
1819,1.115,39.47,18.365,27.281,33.474,6.754,9.342,-70.577
1820,1.112,39.614,18.373,27.31,33.474,6.754,9.342,-70.577
1821,1.102,39.711,18.361,27.32,33.477,6.754,9.342,-70.414
1822,1.096,39.712,18.361,27.31,33.47,6.754,9.26,-70.616
1823,1.089,39.962,18.353,27.32,33.47,6.754,9.178,-71.106
1824,1.089,40.118,18.384,27.349,33.481,6.876,9.259,-71.192
1825,1.076,40.129,18.365,27.301,33.467,6.633,9.097,-71.396
1826,1.066,40.167,18.376,27.32,33.47,6.753,9.095,-71.195
1827,1.066,40.225,18.369,27.339,33.477,6.714,9.054,-71.071
1828,1.053,40.303,18.353,27.301,33.463,6.591,9.013,-70.988
1829,1.043,40.39,18.361,27.329,33.47,6.671,8.972,-70.906
1830,1.03,40.429,18.353,27.329,33.467,6.631,8.931,-70.946
1831,1.02,40.381,18.365,27.301,33.456,6.59,8.85,-70.987
1832,1.017,40.477,18.353,27.31,33.463,6.509,8.808,-70.987
1833,1.007,40.574,18.361,27.32,33.463,6.63,8.889,-70.337
1834,0.994,40.584,18.361,27.281,33.463,6.509,8.89,-70.33
1835,0.974,40.661,18.353,27.291,33.463,6.508,8.849,-70.086
1836,0.981,40.815,18.361,27.31,33.47,6.589,9.011,-70.246
1837,0.971,40.855,18.384,27.31,33.47,6.549,8.932,-70.492
1838,0.968,40.798,18.381,27.32,33.47,6.508,9.093,-70.535
1839,0.968,40.922,18.361,27.32,33.47,6.549,9.014,-70.576
1840,0.964,41.029,18.372,27.329,33.477,6.712,9.094,-70.495
1841,0.948,41.058,18.369,27.301,33.463,6.551,9.014,-70.535
1842,0.948,40.905,18.373,27.32,33.474,6.63,9.094,-70.535
1843,0.941,41.067,18.377,27.358,33.481,6.631,9.136,-71.145
1844,0.919,41.126,18.373,27.311,33.467,6.428,9.014,-71.314
1845,0.922,41.184,18.377,27.329,33.467,6.588,9.094,-71.397
1846,0.909,41.137,18.377,27.32,33.463,6.549,9.014,-71.235
1847,0.895,41.251,18.361,27.301,33.467,6.468,9.094,-71.152
1848,0.879,41.348,18.349,27.31,33.463,6.386,9.054,-71.07
1849,0.882,41.359,18.372,27.32,33.474,6.547,9.257,-70.988
1850,0.872,41.234,18.369,27.291,33.467,6.468,9.381,-71.028
1851,0.863,41.339,18.361,27.272,33.453,6.426,9.464,-70.988
1852,0.869,41.455,18.372,27.319,33.466,6.588,9.749,-70.947
1853,0.853,41.772,18.369,27.301,33.463,6.509,9.712,-70.458
1854,0.853,41.392,18.373,27.32,33.463,6.549,9.914,-70.25
1855,0.853,41.522,18.365,27.31,33.474,6.549,9.957,-70.085
1856,0.849,41.61,18.373,27.32,33.481,6.63,10.08,-70.165
1857,0.846,41.41,18.373,27.32,33.467,6.468,9.999,-70.451
1858,0.846,41.455,18.369,27.31,33.47,6.589,10.08,-70.494
1859,0.856,41.609,18.38,27.339,33.481,6.712,10.284,-70.454
1860,0.836,41.64,18.365,27.32,33.47,6.51,10.042,-70.576
1861,0.836,41.419,18.361,27.329,33.474,6.63,10.08,-70.536
1862,0.843,41.58,18.372,27.329,33.474,6.631,10.04,-70.576
1863,0.826,41.63,18.365,27.31,33.467,6.55,9.999,-71.187
1864,0.823,41.697,18.365,27.329,33.474,6.59,9.999,-71.315
1865,0.826,41.487,18.353,27.339,33.463,6.631,9.999,-71.479
1866,0.813,41.571,18.369,27.291,33.467,6.55,10.039,-71.277
1867,0.797,41.687,18.357,27.3,33.463,6.468,9.958,-71.153
1868,0.803,41.727,18.365,27.32,33.474,6.548,10.08,-70.989
1869,0.79,41.507,18.361,27.301,33.463,6.549,9.959,-71.028
1870,0.79,41.61,18.361,27.291,33.46,6.508,10.08,-70.988
1871,0.803,41.736,18.372,27.3,33.473,6.549,10.081,-70.906
1872,0.794,41.746,18.353,27.291,33.467,6.549,9.999,-70.986
1873,0.797,41.526,18.353,27.31,33.47,6.549,10.161,-70.377
1874,0.797,41.668,18.365,27.32,33.474,6.59,10.244,-70.249
1875,0.79,41.765,18.365,27.329,33.477,6.631,10.367,-69.963
1876,0.793,41.756,18.373,27.31,33.463,6.55,10.368,-70.245
1877,0.8,41.612,18.361,27.31,33.474,6.59,10.653,-70.37
1878,0.803,41.755,18.38,27.348,33.481,6.671,10.859,-70.412
1879,0.787,41.795,18.388,27.32,33.467,6.469,10.902,-70.575
1880,0.793,41.622,18.392,27.339,33.48,6.548,11.146,-70.536
1881,0.8,41.553,18.388,27.339,33.474,6.549,11.271,-70.576
1882,0.79,41.62,18.369,27.32,33.467,6.508,11.353,-70.658
1883,0.797,41.726,18.365,27.329,33.47,6.467,11.517,-71.065
1884,0.794,41.593,18.353,27.31,33.463,6.467,11.64,-71.273
1885,0.793,41.687,18.357,27.31,33.467,6.345,11.601,-71.478
1886,0.787,41.784,18.357,27.3,33.463,6.343,11.641,-71.317
1887,0.787,41.852,18.369,27.32,33.47,6.466,11.804,-71.072
1888,0.79,41.316,18.361,27.301,33.463,6.386,11.724,-71.029
1889,0.777,41.407,18.353,27.281,33.46,6.303,11.764,-71.069
1890,0.787,41.542,18.365,27.31,33.463,6.425,11.968,-70.907
1891,0.774,41.581,18.349,27.31,33.467,6.426,11.929,-70.946
1892,0.767,41.4,18.368,27.32,33.467,6.466,11.97,-70.987
1893,0.777,41.551,18.369,27.339,33.474,6.467,12.011,-70.377
1894,0.774,41.629,18.365,27.32,33.474,6.467,11.97,-70.127
1895,0.774,41.669,18.353,27.31,33.467,6.467,11.929,-70.044
1896,0.774,41.324,18.357,27.32,33.474,6.507,11.97,-70.205
1897,0.78,41.455,18.361,27.349,33.481,6.67,12.133,-70.288
1898,0.777,41.513,18.361,27.32,33.47,6.509,11.89,-70.533
1899,0.78,41.552,18.361,27.329,33.474,6.549,11.928,-70.576
1900,0.787,41.332,18.353,27.349,33.477,6.59,11.929,-70.536
1901,0.774,41.397,18.353,27.31,33.467,6.509,11.807,-70.576
1902,0.78,41.484,18.361,27.329,33.48,6.549,11.806,-70.577
1903,0.758,41.6,18.361,27.339,33.474,6.549,11.684,-71.146
1904,0.764,41.314,18.341,27.32,33.467,6.468,11.56,-71.355
1905,0.767,41.416,18.353,27.32,33.463,6.467,11.559,-71.479
1906,0.761,41.523,18.369,27.32,33.467,6.426,11.64,-71.236
1907,0.757,41.131,18.361,27.291,33.463,6.385,11.601,-71.152
1908,0.751,41.175,18.361,27.272,33.453,6.303,11.478,-71.111
1909,0.761,41.3,18.365,27.319,33.466,6.465,11.599,-70.948
1910,0.761,41.358,18.349,27.31,33.463,6.386,11.56,-71.028
1911,0.748,41.043,18.365,27.3,33.467,6.344,11.559,-70.947
1912,0.754,41.212,18.369,27.32,33.47,6.425,11.64,-70.865
1913,0.754,41.3,18.357,27.32,33.467,6.385,11.682,-70.376
1914,0.751,41.358,18.365,27.31,33.467,6.425,11.56,-70.331
1915,0.748,41.033,18.353,27.32,33.474,6.385,11.64,-70.086
1916,0.757,41.174,18.349,27.368,33.477,6.466,11.682,-70.125
1917,0.754,41.252,18.333,27.33,33.467,6.386,11.479,-70.409
1918,0.761,41.3,18.349,27.339,33.477,6.344,11.477,-70.494
1919,0.767,40.956,18.365,27.368,33.484,6.466,11.518,-70.413
1920,0.761,41.019,18.357,27.311,33.463,6.345,11.274,-70.575
1921,0.767,41.135,18.369,27.32,33.47,6.343,11.272,-70.495
1922,0.767,41.146,18.357,27.31,33.463,6.343,11.069,-70.617
1923,0.754,40.868,18.357,27.329,33.463,6.262,10.944,-71.187
1924,0.767,41.009,18.349,27.339,33.47,6.221,10.862,-71.355
1925,0.761,41.116,18.341,27.339,33.47,6.302,10.861,-71.398
1926,0.754,41.069,18.349,27.301,33.46,6.221,10.617,-71.317
1927,0.751,40.771,18.349,27.291,33.453,6.22,10.493,-71.153
1928,0.757,40.893,18.365,27.3,33.466,6.424,10.614,-70.989
1929,0.744,40.98,18.345,27.31,33.467,6.304,10.533,-70.987
1930,0.741,40.713,18.341,27.291,33.467,6.343,10.492,-70.987
1931,0.754,40.729,18.357,27.319,33.46,6.425,10.654,-70.947
1932,0.754,40.825,18.353,27.301,33.467,6.466,10.656,-70.906
1933,0.757,40.903,18.345,27.31,33.47,6.467,10.737,-70.336
1934,0.751,40.52,18.353,27.32,33.467,6.507,10.982,-70.249
1935,0.754,40.66,18.369,27.339,33.48,6.67,11.187,-69.963
1936,0.761,40.71,18.353,27.31,33.47,6.591,11.271,-70.286
1937,0.761,40.816,18.357,27.339,33.47,6.671,11.434,-70.37
1938,0.767,40.587,18.365,27.358,33.481,6.672,11.68,-70.493
1939,0.751,40.69,18.357,27.33,33.463,6.631,11.642,-70.576
1940,0.77,40.806,18.357,27.339,33.474,6.712,11.763,-70.577
1941,0.757,40.855,18.357,27.32,33.47,6.632,11.724,-70.617
1942,0.751,40.347,18.333,27.31,33.467,6.631,11.764,-70.618
1943,0.754,40.505,18.361,27.329,33.46,6.631,11.764,-71.146
1944,0.761,40.622,18.365,27.339,33.47,6.712,11.724,-71.274
1945,0.751,40.632,18.337,27.32,33.46,6.632,11.601,-71.437
1946,0.754,40.316,18.333,27.291,33.46,6.55,11.478,-71.398
1947,0.774,40.486,18.341,27.329,33.477,6.712,11.64,-71.073
1948,0.758,40.535,18.345,27.31,33.463,6.713,11.479,-71.029
1949,0.754,40.555,18.345,27.3,33.463,6.713,11.558,-70.988
1950,0.764,40.21,18.357,27.32,33.47,6.794,11.559,-70.906
1951,0.764,40.331,18.349,27.329,33.474,6.795,11.64,-70.864
1952,0.77,40.428,18.353,27.329,33.474,6.755,11.519,-70.905
1953,0.767,40.343,18.361,27.32,33.467,6.795,11.559,-70.336
1954,0.77,40.227,18.361,27.358,33.48,6.877,11.64,-70.127
1955,0.751,40.312,18.361,27.311,33.474,6.755,11.438,-70.084
1956,0.767,40.409,18.361,27.358,33.467,6.795,11.517,-70.206
1957,0.767,40.103,18.369,27.339,33.48,6.836,11.559,-70.41
1958,0.754,40.138,18.341,27.32,33.463,6.633,11.6,-70.575
1959,0.774,40.292,18.345,27.339,33.474,6.794,11.641,-70.577
1960,0.771,40.332,18.361,27.32,33.47,6.714,11.641,-70.617
1961,0.767,39.901,18.349,27.301,33.463,6.713,11.641,-70.658
1962,0.764,40.05,18.349,27.32,33.46,6.551,11.641,-70.699
1963,0.767,40.138,18.345,27.329,33.467,6.712,11.804,-71.147
1964,0.764,40.196,18.349,27.32,33.463,6.632,11.846,-71.355
1965,0.77,39.938,18.337,27.291,33.453,6.509,11.725,-71.479
1966,0.78,40.098,18.361,27.319,33.47,6.711,11.886,-71.277
1967,0.767,40.196,18.345,27.31,33.467,6.551,11.766,-71.031
1968,0.757,40.216,18.333,27.31,33.46,6.59,11.724,-70.947
1969,0.774,39.89,18.337,27.32,33.47,6.59,11.805,-70.906
1970,0.767,40.011,18.341,27.32,33.467,6.549,11.724,-70.905
1971,0.774,40.099,18.353,27.32,33.463,6.549,11.642,-70.986
1972,0.774,40.148,18.349,27.329,33.467,6.63,11.56,-70.906
1973,0.784,39.832,18.353,27.339,33.48,6.712,11.519,-70.295
1974,0.771,39.944,18.365,27.32,33.47,6.551,11.315,-70.248
1975,0.77,40.041,18.361,27.329,33.477,6.63,11.191,-70.045
1976,0.777,40.397,18.361,27.368,33.481,6.59,11.149,-70.165
1977,0.767,39.671,18.337,27.33,33.467,6.549,11.026,-70.41
1978,0.767,39.779,18.341,27.339,33.474,6.508,10.944,-70.453
1979,0.774,39.876,18.372,27.33,33.47,6.467,10.821,-70.535
1980,0.777,39.676,18.353,27.301,33.463,6.426,10.657,-70.576
1981,0.78,39.75,18.345,27.339,33.467,6.385,10.574,-70.617
1982,0.774,39.828,18.341,27.32,33.474,6.466,10.574,-70.577
1983,0.777,39.905,18.345,27.32,33.463,6.264,10.33,-71.187
1984,0.78,39.542,18.329,27.31,33.467,6.302,10.205,-71.355
1985,0.78,39.672,18.341,27.329,33.477,6.384,10.204,-71.479
1986,0.771,39.76,18.349,27.31,33.463,6.303,10.001,-71.317
1987,0.764,39.828,18.345,27.3,33.467,6.262,9.999,-71.113
1988,0.777,39.531,18.329,27.31,33.47,6.343,10.039,-70.988
1989,0.777,39.653,18.349,27.329,33.467,6.303,9.958,-70.947
1990,0.777,39.75,18.345,27.32,33.47,6.262,9.998,-70.987
1991,0.777,39.818,18.337,27.329,33.467,6.302,9.999,-70.906
1992,0.784,39.445,18.372,27.349,33.477,6.343,10.121,-70.864
1993,0.78,39.556,18.353,27.31,33.467,6.303,10.122,-70.336
1994,0.784,39.682,18.357,27.329,33.474,6.302,10.325,-70.168
1995,0.8,39.75,18.376,27.358,33.488,6.343,10.571,-69.963
1996,0.794,39.473,18.338,27.32,33.46,6.181,10.533,-70.327
1997,0.793,39.605,18.345,27.358,33.48,6.301,10.695,-70.411
1998,0.8,39.731,18.368,27.358,33.47,6.221,10.819,-70.494
1999,0.787,39.713,18.361,27.33,33.467,6.139,10.861,-70.657
2000,0.8,39.31,18.357,27.329,33.474,6.179,10.983,-70.618
2001,0.784,39.392,18.357,27.32,33.47,6.139,10.984,-70.536
2002,0.787,39.498,18.341,27.301,33.467,6.057,10.822,-70.617
2003,0.78,39.432,18.333,27.31,33.46,6.056,10.82,-71.309
2004,0.79,39.422,18.333,27.339,33.467,6.178,10.942,-71.357
2005,0.797,39.537,18.337,27.32,33.456,6.057,10.821,-71.52
2006,0.777,39.596,18.333,27.301,33.46,6.056,10.739,-71.318
2007,0.79,39.107,18.337,27.339,33.463,6.097,10.779,-71.072
2008,0.777,39.189,18.322,27.32,33.467,6.056,10.657,-71.07
2009,0.78,39.304,18.333,27.329,33.47,6.097,10.615,-70.907
2010,0.777,39.382,18.353,27.329,33.474,6.097,10.574,-70.905
2011,0.784,39.067,18.345,27.339,33.474,6.097,10.574,-70.783
2012,0.784,39.169,18.341,27.32,33.47,6.097,10.33,-70.863
2013,0.774,39.295,18.345,27.32,33.474,6.178,10.286,-70.417
2014,0.79,39.382,18.349,27.368,33.481,6.22,10.327,-70.087
2015,0.777,38.961,18.314,27.32,33.467,6.017,10.124,-70.084
2016,0.78,39.101,18.345,27.32,33.474,6.096,10.122,-70.165
2017,0.78,39.256,18.349,27.339,33.47,6.097,9.959,-70.451
2018,0.784,39.238,18.326,27.33,33.463,6.016,9.917,-70.576
2019,0.79,38.969,18.345,27.32,33.477,6.096,9.794,-70.617
2020,0.774,39.091,18.353,27.339,33.467,6.138,9.793,-70.536
2021,0.784,39.188,18.341,27.31,33.467,6.057,9.59,-70.658
2022,0.774,39.209,18.341,27.31,33.463,6.015,9.588,-70.659
2023,0.78,38.854,18.345,27.32,33.467,6.056,9.669,-71.147
2024,0.774,38.965,18.345,27.31,33.467,6.137,9.589,-71.314
2025,0.774,39.053,18.337,27.31,33.46,5.976,9.547,-71.438
2026,0.79,39.15,18.322,27.339,33.467,6.137,9.628,-71.236
2027,0.771,38.738,18.31,27.32,33.467,6.016,9.548,-71.031
2028,0.777,38.849,18.329,27.32,33.47,6.056,9.506,-70.906
2029,0.777,38.985,18.353,27.329,33.474,6.137,9.546,-70.905
2030,0.777,38.66,18.361,27.329,33.477,6.138,9.628,-70.783
2031,0.774,38.733,18.349,27.339,33.467,6.057,9.466,-70.904
2032,0.777,38.859,18.337,27.33,33.474,6.137,9.465,-70.824
2033,0.777,38.966,18.357,27.358,33.488,6.179,9.627,-70.254
2034,0.764,38.439,18.345,27.33,33.474,6.017,9.344,-70.248
2035,0.777,38.578,18.349,27.339,33.463,6.137,9.423,-70.085
2036,0.777,38.685,18.341,27.339,33.467,6.098,9.342,-70.246
2037,0.771,38.743,18.349,27.32,33.463,5.975,9.26,-70.411
2038,0.77,38.475,18.337,27.329,33.474,6.015,9.219,-70.575
2039,0.78,38.617,18.333,27.329,33.463,6.015,9.218,-70.658
2040,0.767,38.723,18.333,27.32,33.463,6.056,9.096,-70.659
2041,0.77,38.772,18.333,27.301,33.456,5.893,8.973,-70.699
2042,0.774,38.313,18.341,27.32,33.47,6.014,9.094,-70.578
2043,0.771,38.433,18.333,27.32,33.46,6.015,8.973,-71.187
2044,0.767,38.539,18.325,27.32,33.46,6.015,8.931,-71.315
2045,0.78,38.588,18.337,27.349,33.473,6.096,8.931,-71.479
2046,0.774,38.215,18.322,27.33,33.463,6.056,8.85,-71.317
2047,0.777,38.336,18.337,27.329,33.47,6.015,8.727,-71.072
2048,0.777,38.452,18.329,27.32,33.47,6.096,8.807,-70.907
2049,0.777,38.453,18.364,27.339,33.474,6.097,8.848,-70.864
2050,0.774,38.194,18.345,27.339,33.463,5.975,8.727,-70.986
2051,0.774,38.336,18.341,27.339,33.47,6.055,8.766,-70.947
2052,0.784,38.462,18.345,27.368,33.484,6.219,8.848,-70.743
2053,0.767,38.137,18.341,27.33,33.47,6.058,8.767,-70.375
2054,0.774,38.095,18.349,27.339,33.474,6.137,8.889,-70.168
2055,0.771,38.248,18.349,27.33,33.474,6.057,8.93,-70.085
2056,0.764,38.307,18.329,27.32,33.467,6.056,8.89,-70.328
2057,0.77,37.982,18.333,27.339,33.47,6.097,9.093,-70.411
2058,0.761,38.084,18.337,27.339,33.474,6.056,9.136,-70.534
2059,0.751,38.191,18.322,27.32,33.463,6.015,9.258,-70.617
2060,0.748,38.278,18.321,27.32,33.46,6.015,9.341,-70.699
2061,0.754,37.905,18.329,27.329,33.463,6.096,9.464,-70.578
2062,0.754,38.026,18.329,27.329,33.46,6.056,9.587,-70.658
2063,0.744,38.123,18.31,27.31,33.456,5.975,9.588,-71.147
2064,0.76,38.22,18.337,27.339,33.47,6.137,9.832,-71.233
2065,0.751,37.722,18.333,27.33,33.47,6.098,9.834,-71.478
2066,0.754,37.861,18.329,27.339,33.467,6.219,9.794,-71.277
2067,0.744,37.997,18.341,27.339,33.463,6.139,9.956,-71.072
2068,0.751,38.056,18.329,27.33,33.477,6.219,10.039,-70.947
2069,0.748,37.826,18.345,27.349,33.47,6.18,9.958,-70.906
2070,0.747,37.968,18.345,27.339,33.47,6.22,10.039,-70.946
2071,0.767,38.103,18.353,27.368,33.481,6.342,10.202,-70.824
2072,0.754,38.076,18.345,27.32,33.463,6.181,10.041,-70.986
2073,0.751,37.788,18.333,27.339,33.47,6.22,10.121,-70.337
2074,0.754,37.91,18.353,27.349,33.477,6.261,10.041,-70.249
2075,0.744,37.968,18.345,27.32,33.467,6.099,10.04,-70.045
2076,0.747,37.959,18.337,27.339,33.474,6.219,10.08,-70.205
