time,ecg,bvp,gsr,rsp,skt,emg_zygo,emg_coru,emg_trap
0,0.639,34.569,27.606,38.974,33.056,5.687,11.478,15.585
1,0.649,34.147,27.54,38.974,33.05,5.727,11.558,15.625
2,0.629,34.306,27.555,38.964,33.053,5.687,11.478,15.788
3,0.606,34.413,27.567,38.983,33.049,5.727,11.436,15.952
4,0.564,34.558,27.551,38.983,33.049,5.687,11.314,16.238
5,0.573,34.253,27.606,38.974,33.049,5.687,11.353,16.607
6,0.583,34.374,27.622,38.974,33.042,5.646,11.232,16.855
7,0.599,34.5,27.587,38.964,33.046,5.727,11.231,17.06
8,0.619,34.051,27.575,38.955,33.053,5.646,11.068,17.387
9,0.652,34.133,27.614,39.002,33.056,5.808,11.148,17.594
10,0.652,34.277,27.606,39.012,33.067,5.85,11.108,17.799
11,0.649,34.403,27.532,39.041,33.06,5.851,11.067,17.964
12,0.688,33.983,27.57,39.042,33.06,5.81,10.782,18.047
13,0.701,34.113,27.563,39.022,33.053,5.728,10.738,18.211
14,0.721,34.2,27.594,38.993,33.053,5.727,10.616,18.415
15,0.76,34.307,27.594,39.003,33.049,5.727,10.493,18.54
16,0.783,33.838,27.602,39.012,33.049,5.809,10.41,18.703
17,0.79,34.015,27.598,39.003,33.049,5.728,10.328,18.746
18,0.797,34.132,27.547,39.003,33.046,5.646,10.368,18.868
19,0.826,34.191,27.637,39.012,33.046,5.727,10.206,19.073
20,0.807,33.875,27.564,39.003,33.042,5.646,10.204,19.4
21,0.807,34.044,27.555,39.06,33.06,5.686,10.163,19.769
22,0.787,34.161,27.547,39.032,33.053,5.727,10.122,20.017
23,0.803,34.22,27.586,39.022,33.049,5.687,10.041,20.304
24,0.807,33.808,27.594,39.013,33.049,5.687,9.999,20.307
25,0.829,33.948,27.614,39.012,33.039,5.564,9.877,20.429
26,0.81,34.045,27.587,38.984,33.035,5.563,9.753,20.43
27,0.722,34.075,27.536,38.993,33.042,5.645,9.712,20.43
28,0.708,33.883,27.57,38.984,33.049,5.645,9.792,20.389
29,0.731,34.054,27.621,39.012,33.053,5.808,9.793,20.226
30,0.734,34.152,27.556,39.022,33.053,5.728,9.834,20.021
31,0.777,33.875,27.567,39.022,33.056,5.809,9.834,19.897
32,0.78,33.651,27.543,39.013,33.05,5.891,9.753,19.611
33,0.748,33.774,27.559,39.022,33.053,5.851,9.793,19.283
34,0.773,33.89,27.613,39.003,33.049,5.851,9.712,19.036
35,0.803,33.556,27.606,39.003,33.046,5.891,9.67,18.79
36,0.81,33.677,27.555,39.022,33.049,5.973,9.751,18.543
37,0.813,33.803,27.547,39.022,33.046,5.933,9.59,18.338
38,0.816,33.89,27.586,39.022,33.056,5.974,9.669,18.091
39,0.833,33.469,27.625,39.022,33.06,6.015,9.67,17.845
40,0.833,33.619,27.532,39.041,33.063,6.178,9.751,17.599
41,0.859,33.783,27.578,39.061,33.07,6.22,9.712,17.352
42,0.859,33.881,27.563,39.08,33.067,6.261,9.63,17.147
43,0.853,33.575,27.606,39.061,33.057,6.139,9.548,17.022
44,0.849,33.735,27.591,39.061,33.053,6.138,9.506,17.103
45,0.84,33.842,27.633,39.042,33.056,6.138,9.506,17.144
46,0.836,33.92,27.505,39.07,33.053,6.138,9.425,17.185
47,0.81,33.431,27.55,39.061,33.053,6.179,9.383,17.226
48,0.807,33.58,27.621,39.061,33.053,6.139,9.342,17.227
49,0.807,33.687,27.579,39.061,33.056,6.138,9.342,17.308
50,0.774,33.774,27.59,39.08,33.056,6.138,9.301,17.227
51,0.78,33.497,27.54,39.08,33.06,6.179,9.26,17.145
52,0.774,33.657,27.598,39.09,33.06,6.179,9.178,16.982
53,0.79,33.764,27.614,39.09,33.056,6.139,9.137,16.777
54,0.819,33.765,27.602,39.061,33.053,6.138,9.014,16.653
55,0.823,33.286,27.61,39.051,33.046,6.057,8.972,16.489
56,0.833,33.425,27.544,39.09,33.039,6.015,8.972,16.487
57,0.813,33.551,27.551,39.052,33.053,6.056,9.013,16.365
58,0.81,33.293,27.582,39.061,33.053,6.056,8.932,16.202
59,0.8,33.3,27.582,39.051,33.053,6.056,8.931,16.037
60,0.81,33.444,27.547,39.051,33.053,6.056,8.931,15.914
61,0.803,33.542,27.551,39.051,33.053,6.097,8.972,15.831
62,0.82,33.149,27.586,39.042,33.053,5.975,8.891,15.79
63,0.82,33.28,27.625,39.042,33.049,6.015,8.971,15.789
64,0.817,33.415,27.649,39.032,33.049,5.974,9.053,15.749
65,0.826,33.493,27.603,39.051,33.053,5.974,9.135,15.748
66,0.817,33.005,27.594,39.022,33.049,6.015,9.217,15.707
67,0.826,33.163,27.547,39.022,33.053,5.974,9.3,15.829
68,0.839,33.299,27.621,39.041,33.067,6.015,9.463,15.83
69,0.823,33.396,27.575,39.061,33.07,6.137,9.587,15.912
70,0.826,33.11,27.578,39.07,33.067,6.138,9.507,15.831
71,0.875,33.26,27.582,39.071,33.06,6.057,9.425,15.83
72,0.869,33.367,27.579,39.051,33.053,5.975,9.383,15.83
73,0.866,33.407,27.633,39.042,33.063,6.015,9.505,15.83
74,0.898,32.995,27.63,39.022,33.057,6.056,9.425,15.912
75,0.895,33.144,27.61,39.032,33.056,6.056,9.464,15.872
76,0.895,33.28,27.571,39.032,33.056,6.015,9.343,15.871
77,0.873,33.31,27.551,39.032,33.056,5.974,9.382,15.831
78,0.846,32.936,27.609,39.022,33.056,6.055,9.342,15.83
79,0.862,33.105,27.536,39.032,33.063,6.097,9.382,15.708
80,0.862,33.193,27.566,39.013,33.06,6.056,9.261,15.748
81,0.888,33.414,27.532,39.022,33.06,6.056,9.259,15.748
82,0.882,32.908,27.586,38.993,33.056,5.975,9.097,15.748
83,0.876,33.028,27.579,38.974,33.046,5.893,9.176,15.951
84,0.859,33.144,27.621,38.983,33.046,5.851,9.259,16.279
85,0.866,32.915,27.598,38.974,33.056,6.013,9.259,16.607
86,0.846,33.047,27.571,38.983,33.053,6.015,9.381,16.814
87,0.862,33.164,27.586,38.983,33.06,5.974,9.261,16.979
88,0.862,33.27,27.582,38.974,33.05,5.974,9.341,17.143
89,0.833,32.667,27.524,38.993,33.053,5.974,9.26,17.267
90,0.839,32.795,27.531,38.964,33.046,5.974,9.219,17.268
91,0.879,32.931,27.547,38.964,33.049,5.974,9.178,17.186
92,0.876,33.028,27.598,38.964,33.053,5.933,9.218,17.104
93,0.872,32.732,27.59,38.955,33.053,5.892,9.137,17.022
94,0.889,32.873,27.606,38.954,33.046,5.933,9.177,16.94
95,0.892,33.018,27.509,38.974,33.046,6.014,9.137,16.858
96,0.879,33.115,27.543,38.993,33.053,6.015,9.177,16.857
97,0.895,32.857,27.59,38.984,33.067,6.096,9.218,16.857
98,0.899,33.018,27.575,39.003,33.06,6.138,9.259,16.816
99,0.938,33.163,27.578,39.012,33.056,6.138,9.097,16.572
100,0.928,33.222,27.52,38.974,33.056,6.098,9.095,16.529
101,0.915,32.446,27.59,38.974,33.053,6.097,9.095,16.528
102,0.925,32.582,27.606,38.964,33.053,6.178,9.176,16.488
103,0.912,32.728,27.591,38.974,33.056,6.139,9.259,16.528
104,0.908,32.758,27.575,38.974,33.053,6.098,9.3,16.528
105,0.918,32.777,27.497,38.964,33.056,6.138,9.423,16.569
106,0.912,32.931,27.554,38.964,33.053,6.219,9.546,16.529
107,0.905,33.038,27.598,38.964,33.06,6.18,9.588,16.488
108,0.869,32.857,27.555,38.983,33.06,6.261,9.669,16.406
109,0.866,32.625,27.531,38.993,33.06,6.221,9.711,16.243
110,0.869,32.766,27.547,38.993,33.06,6.302,9.792,16.2
111,0.872,32.873,27.57,38.984,33.06,6.18,9.875,16.078
112,0.885,32.539,27.61,38.974,33.053,6.139,9.876,15.955
113,0.902,32.631,27.598,38.955,33.046,6.057,9.916,15.872
114,0.889,32.747,27.544,38.935,33.039,6.097,10.039,15.912
115,0.882,32.854,27.449,38.954,33.049,6.138,10.08,15.872
116,0.898,32.289,27.491,38.964,33.053,6.179,10.162,15.79
117,0.918,32.446,27.593,38.955,33.053,6.22,10.244,15.789
118,0.905,32.563,27.512,38.945,33.049,6.18,10.164,15.749
119,0.944,32.679,27.543,38.954,33.053,6.098,10.163,15.626
120,0.958,32.345,27.574,38.954,33.049,6.178,10.204,15.503
121,0.948,32.495,27.582,38.964,33.049,6.139,10.245,15.461
122,0.954,32.631,27.614,38.945,33.049,6.057,10.245,15.461
123,0.954,32.699,27.544,38.964,33.042,6.097,10.286,15.42
124,0.964,32.259,27.504,38.935,33.049,6.097,10.327,15.501
125,1.003,32.408,27.554,38.964,33.049,6.219,10.408,15.624
126,0.991,32.553,27.512,38.955,33.053,6.22,10.45,15.584
127,0.987,32.612,27.617,38.964,33.06,6.302,10.613,15.747
128,0.994,32.383,27.458,39.022,33.067,6.343,10.615,15.667
129,0.961,32.534,27.558,39.003,33.067,6.303,10.574,15.503
130,0.958,32.65,27.598,38.984,33.06,6.302,10.37,15.42
131,0.951,32.661,27.614,38.974,33.056,6.302,10.409,15.338
132,0.974,32.306,27.594,38.955,33.06,6.18,10.409,15.175
133,0.987,32.456,27.532,38.964,33.053,6.22,10.369,15.295
134,0.987,32.563,27.48,38.964,33.056,6.302,10.246,15.418
135,0.965,32.373,27.515,38.964,33.056,6.302,10.286,15.786
136,0.964,32.351,27.554,38.964,33.053,6.384,10.205,15.992
137,0.984,32.485,27.594,38.964,33.053,6.263,10.123,16.157
138,0.991,32.602,27.567,38.983,33.056,6.302,10.041,16.362
139,1.013,32.172,27.567,38.945,33.063,6.343,10.04,16.323
140,1.027,32.282,27.586,38.964,33.06,6.303,9.958,16.404
141,1.007,32.418,27.614,38.955,33.056,6.262,9.876,16.405
142,0.984,32.515,27.536,38.945,33.046,6.139,9.713,16.324
143,0.981,32.151,27.481,38.935,33.042,6.138,9.67,16.364
144,0.984,32.301,27.535,38.993,33.042,6.138,9.67,16.649
145,0.997,32.437,27.5,38.945,33.053,6.301,9.67,16.936
146,1.01,32.525,27.597,38.954,33.053,6.221,9.711,17.346
147,1.04,32.295,27.532,38.954,33.053,6.18,9.63,17.553
148,1.037,32.466,27.562,38.954,33.053,6.22,9.67,17.718
149,1.004,32.602,27.539,38.945,33.06,6.261,9.67,18.085
150,0.984,32.689,27.609,38.945,33.05,6.18,9.589,18.17
151,0.994,32.412,27.575,38.945,33.042,6.22,9.507,18.293
152,0.991,32.563,27.485,38.926,33.049,6.22,9.465,18.376
153,1.004,32.66,27.437,38.954,33.049,6.139,9.424,18.417
154,1.007,32.728,27.507,38.916,33.046,6.179,9.505,18.54
155,1.004,32.46,27.531,38.935,33.049,6.22,9.587,18.622
156,1.017,32.611,27.59,38.945,33.06,6.302,9.751,18.786
157,1.059,32.757,27.555,38.964,33.067,6.343,9.915,19.072
158,1.069,33.151,27.531,38.974,33.07,6.384,9.957,19.197
159,1.076,33.05,27.582,38.955,33.06,6.303,9.957,19.279
160,1.076,33.183,27.618,38.945,33.056,6.221,10.08,19.402
161,1.07,33.27,27.54,38.926,33.05,6.22,10.243,19.525
162,1.063,33.252,27.563,38.983,33.056,6.261,10.326,19.527
163,1.034,33.357,27.516,38.936,33.053,6.18,10.408,19.527
164,1.024,33.483,27.547,38.935,33.056,6.261,10.491,19.445
165,1.053,33.59,27.57,38.945,33.053,6.221,10.532,19.241
166,1.079,33.792,27.625,38.916,33.053,6.261,10.532,19.117
167,1.073,33.938,27.595,39.012,33.056,6.221,10.573,18.872
168,1.03,34.064,27.54,38.936,33.06,6.22,10.614,18.625
169,1.04,34.161,27.605,38.935,33.056,6.261,10.655,18.46
170,1.066,34.412,27.587,38.935,33.06,6.302,10.574,18.215
171,1.092,34.558,27.512,38.954,33.053,6.262,10.533,18.09
172,1.07,34.665,27.547,38.993,33.053,6.18,10.451,17.967
173,1.102,34.714,27.5,38.897,33.049,6.098,10.41,17.803
174,1.096,35.06,27.539,38.896,33.053,6.138,10.409,17.842
175,1.106,35.207,27.559,38.906,33.053,6.179,10.328,17.68
176,1.109,35.333,27.613,38.935,33.053,6.139,10.286,17.597
177,1.102,35.392,27.559,38.925,33.053,6.138,10.245,17.474
178,1.119,35.862,27.535,38.906,33.056,6.138,10.245,17.31
179,1.132,35.973,27.598,38.916,33.053,6.138,10.245,17.146
180,1.132,36.089,27.559,38.916,33.056,6.057,10.286,16.982
181,1.103,36.119,27.477,38.897,33.05,6.056,10.245,16.899
182,1.102,36.704,27.492,38.916,33.042,6.097,10.286,16.857
183,1.099,36.825,27.511,38.897,33.049,6.138,10.327,16.776
184,1.083,36.922,27.511,38.906,33.053,6.098,10.327,16.694
185,1.07,37.278,27.605,38.906,33.046,6.138,10.327,16.652
186,1.053,37.521,27.637,38.916,33.053,6.179,10.408,16.733
187,1.053,37.677,27.591,38.935,33.06,6.261,10.369,16.693
188,1.082,37.774,27.579,38.935,33.063,6.302,10.449,16.611
189,1.063,38.188,27.594,38.964,33.063,6.221,10.247,16.529
190,1.105,38.336,27.586,38.926,33.053,6.139,10.245,16.488
191,1.135,38.423,27.473,38.906,33.063,6.179,10.245,16.447
192,1.116,38.491,27.523,38.896,33.057,6.098,10.164,16.365
193,1.135,39.019,27.543,38.906,33.053,6.138,10.204,16.283
194,1.099,39.149,27.524,38.916,33.053,6.138,10.123,16.241
195,1.115,39.247,27.578,38.916,33.056,6.098,10.041,16.2
196,1.135,39.295,27.571,38.887,33.053,6.097,10.08,16.159
197,1.171,39.727,27.559,38.915,33.053,6.097,9.999,15.996
198,1.162,39.837,27.524,38.906,33.06,6.138,9.999,15.832
199,1.184,39.925,27.594,38.916,33.063,6.138,9.999,15.708
200,1.207,39.974,27.567,38.897,33.057,6.057,9.999,15.585
201,1.188,40.415,27.539,38.916,33.056,6.097,9.836,15.584
202,1.178,40.525,27.57,38.897,33.053,6.016,9.834,15.503
203,1.145,40.622,27.532,38.877,33.046,5.974,9.712,15.624
204,1.148,40.632,27.547,38.877,33.046,5.893,9.63,15.828
205,1.116,40.911,27.543,38.858,33.053,5.973,9.67,16.155
206,1.096,41.009,27.574,38.867,33.063,6.015,9.67,16.443
207,1.089,41.125,27.536,38.896,33.057,6.015,9.67,16.69
208,1.102,41.117,27.547,38.896,33.056,6.056,9.589,17.099
209,1.096,41.347,27.594,38.896,33.046,6.056,9.507,17.347
210,1.102,41.445,27.52,38.868,33.053,5.975,9.465,17.634
211,1.112,41.552,27.48,38.906,33.049,6.015,9.383,17.719
212,1.141,41.745,27.515,38.896,33.049,5.974,9.301,17.76
213,1.171,41.852,27.539,38.868,33.056,5.974,9.341,17.801
214,1.165,41.93,27.539,38.877,33.046,6.015,9.26,17.72
215,1.158,41.998,27.563,38.858,33.046,5.974,9.137,17.76
216,1.155,42.094,27.539,38.858,33.053,5.893,9.177,17.72
217,1.142,42.249,27.547,38.867,33.053,6.014,9.177,17.679
218,1.178,42.327,27.52,38.877,33.056,5.974,9.218,17.556
219,1.201,42.404,27.59,38.896,33.063,6.096,9.218,17.555
220,1.194,42.386,27.555,38.896,33.067,6.097,9.218,17.433
221,1.211,42.501,27.551,38.983,33.067,6.138,9.137,17.31
222,1.207,42.598,27.559,38.897,33.063,5.976,9.014,17.227
223,1.178,42.637,27.524,38.887,33.05,5.893,9.054,17.227
224,1.162,42.657,27.57,38.867,33.06,5.973,8.973,17.267
225,1.145,42.772,27.602,38.877,33.056,5.974,9.013,17.186
226,1.119,42.859,27.54,38.887,33.053,5.974,8.932,17.185
227,1.122,42.889,27.547,38.867,33.053,5.893,9.012,17.063
228,1.109,43.004,27.543,38.877,33.053,5.851,9.054,16.981
229,1.115,43.092,27.602,38.896,33.06,5.891,9.013,16.818
230,1.132,43.198,27.536,38.877,33.06,5.933,9.094,16.735
231,1.116,43.238,27.523,38.867,33.06,5.974,9.217,16.693
232,1.112,43.008,27.523,38.877,33.06,5.933,9.218,16.489
233,1.132,43.102,27.527,38.877,33.056,5.811,9.34,16.447
234,1.151,43.179,27.578,38.848,33.046,5.769,9.342,16.243
235,1.171,43.401,27.543,38.858,33.042,5.728,9.301,16.2
236,1.142,43.115,27.508,38.819,33.046,5.768,9.463,16.119
237,1.142,43.218,27.523,38.848,33.053,5.809,9.587,16.036
238,1.155,43.334,27.535,38.858,33.06,5.85,9.588,15.914
239,1.142,43.172,27.594,38.858,33.05,5.81,9.629,15.872
240,1.155,43.209,27.497,38.858,33.053,5.891,9.588,15.831
241,1.148,43.334,27.55,38.838,33.053,5.851,9.588,15.912
242,1.145,43.383,27.524,38.838,33.049,5.81,9.588,15.872
243,1.148,43.22,27.531,38.857,33.053,5.81,9.547,15.831
244,1.155,43.343,27.578,38.829,33.046,5.81,9.547,15.912
245,1.152,43.431,27.575,38.819,33.049,5.769,9.466,15.872
246,1.119,43.48,27.532,38.828,33.053,5.809,9.424,15.912
247,1.073,43.202,27.516,38.829,33.049,5.891,9.424,15.994
248,1.053,43.353,27.601,38.838,33.053,5.933,9.546,15.995
249,1.047,43.441,27.59,38.877,33.063,6.055,9.506,16.035
250,1.03,43.499,27.512,38.867,33.07,6.056,9.546,15.995
251,1.02,43.241,27.551,38.877,33.06,6.015,9.384,15.872
252,1.007,43.344,27.524,38.867,33.056,5.974,9.382,15.831
253,1.01,43.431,27.582,38.839,33.056,5.893,9.301,15.83
254,1.017,43.432,27.575,38.848,33.056,5.973,9.301,15.83
255,1.036,43.163,27.602,38.829,33.06,5.933,9.301,15.871
256,1.102,43.295,27.466,38.838,33.06,5.892,9.301,15.871
257,1.115,43.373,27.538,38.848,33.056,5.973,9.341,15.79
258,1.128,43.374,27.582,38.829,33.056,5.974,9.301,15.83
259,1.119,43.019,27.563,38.829,33.056,5.974,9.301,15.668
260,1.109,43.121,27.532,38.857,33.053,5.974,9.301,15.625
261,1.099,43.208,27.508,38.838,33.056,5.974,9.26,15.544
262,1.079,43.199,27.527,38.848,33.05,6.015,9.259,15.462
263,1.057,42.96,27.531,38.838,33.056,6.015,9.178,15.379
264,1.06,43.044,27.59,38.829,33.053,5.893,9.096,15.378
265,1.03,43.102,27.598,38.8,33.046,5.851,9.014,15.338
266,1.004,42.757,27.438,38.809,33.046,5.81,9.054,15.5
267,0.997,42.802,27.538,38.8,33.046,5.891,9.135,15.583
268,1.0,42.917,27.566,38.809,33.046,5.973,9.177,15.665
269,0.994,43.014,27.571,38.828,33.056,5.933,9.137,15.666
270,0.978,42.68,27.551,38.876,33.053,5.892,9.095,15.707
271,0.99,42.782,27.508,38.81,33.053,5.973,9.176,15.707
272,0.958,42.869,27.531,38.819,33.043,5.933,9.177,15.829
273,0.971,42.918,27.547,38.809,33.049,5.974,9.177,16.074
274,0.984,42.449,27.598,38.79,33.046,5.893,9.177,16.565
275,1.0,42.549,27.571,38.79,33.049,5.851,9.259,17.179
276,0.997,42.694,27.536,38.809,33.042,5.851,9.259,17.795
277,0.978,42.705,27.484,38.8,33.049,5.851,9.3,18.493
278,0.987,42.437,27.574,38.809,33.053,5.973,9.341,19.191
279,1.026,42.578,27.532,38.8,33.06,6.015,9.423,19.686
280,1.02,42.704,27.547,38.838,33.063,6.096,9.546,20.179
281,1.036,42.744,27.547,38.838,33.067,6.097,9.425,20.428
282,1.02,42.082,27.535,38.819,33.053,5.975,9.424,20.674
283,0.988,42.172,27.562,38.781,33.046,6.015,9.505,20.92
284,0.945,42.259,27.555,38.799,33.06,5.934,9.506,21.085
285,0.925,42.279,27.594,38.79,33.056,5.892,9.546,21.209
286,0.928,42.087,27.536,38.799,33.06,5.973,9.628,21.291
287,0.951,42.21,27.523,38.8,33.053,5.974,9.751,21.211
288,0.941,42.298,27.597,38.78,33.056,5.933,9.752,21.088
289,0.948,41.953,27.528,38.799,33.053,5.933,9.752,20.924
290,0.941,41.806,27.539,38.8,33.056,5.892,9.874,20.801
291,0.945,41.929,27.527,38.8,33.056,5.892,9.835,20.718
292,0.99,42.007,27.57,38.79,33.056,5.973,9.712,20.636
293,0.987,41.634,27.59,38.79,33.056,5.893,9.792,20.554
294,0.997,41.736,27.61,38.78,33.056,5.933,9.712,20.35
295,0.971,41.842,27.563,38.771,33.046,5.77,9.63,20.185
296,0.942,41.901,27.516,38.751,33.046,5.687,9.67,20.102
297,0.951,41.355,27.523,38.761,33.046,5.809,9.751,20.061
298,0.974,41.474,27.539,38.761,33.056,5.891,9.833,19.979
299,1.013,41.59,27.488,38.761,33.053,5.77,9.794,19.856
300,1.033,41.659,27.507,38.77,33.049,5.85,9.793,19.774
301,0.972,41.218,27.539,38.761,33.046,5.851,9.834,19.529
302,0.961,41.338,27.566,38.761,33.046,5.81,9.753,19.364
303,0.964,41.445,27.594,38.77,33.049,5.769,9.752,19.159
304,0.974,41.494,27.602,38.742,33.049,5.809,9.671,18.913
305,0.977,41.015,27.52,38.751,33.049,5.81,9.711,18.748
306,0.951,41.145,27.539,38.77,33.046,5.769,9.589,18.543
307,0.935,41.251,27.512,38.723,33.039,5.768,9.507,18.459
308,0.922,41.262,27.57,38.741,33.053,5.768,9.506,18.459
309,0.909,40.927,27.454,38.751,33.056,5.931,9.587,18.459
310,0.915,41.067,27.507,38.751,33.063,5.974,9.507,18.459
311,0.957,41.184,27.543,38.789,33.06,5.974,9.506,18.337
312,0.964,41.444,27.57,38.78,33.06,6.015,9.546,18.213
313,0.948,40.794,27.617,38.79,33.053,5.974,9.384,18.131
314,0.961,40.874,27.587,38.752,33.056,5.893,9.342,17.927
315,0.958,40.961,27.54,38.742,33.05,5.811,9.464,17.884
316,0.938,40.588,27.543,38.741,33.049,5.85,9.505,17.884
317,0.961,40.594,27.543,38.761,33.053,5.973,9.668,17.802
318,0.977,40.69,27.555,38.742,33.056,5.852,9.792,17.639
319,0.99,40.796,27.41,38.77,33.053,5.973,9.915,17.515
320,0.965,40.366,27.522,38.723,33.046,5.933,10.039,17.311
321,0.977,40.467,27.539,38.722,33.049,5.974,10.162,17.227
322,0.961,40.593,27.555,38.741,33.06,5.974,10.244,17.064
323,0.938,40.671,27.606,38.761,33.053,5.933,10.326,16.981
324,0.928,40.259,27.563,38.732,33.053,5.974,10.408,16.939
325,0.961,40.38,27.528,38.751,33.053,5.974,10.247,16.898
326,0.987,40.486,27.539,38.742,33.046,5.893,10.245,16.857
327,1.004,40.545,27.547,38.713,33.042,5.77,10.164,16.776
328,0.968,40.076,27.531,38.693,33.042,5.809,10.204,16.734
329,0.903,40.195,27.512,38.703,33.046,5.85,10.204,16.693
330,0.921,40.331,27.504,38.722,33.046,5.973,10.204,16.571
331,0.925,40.38,27.508,38.722,33.049,5.893,10.163,16.366
332,0.941,39.968,27.574,38.732,33.049,5.973,10.041,16.202
333,0.967,40.079,27.567,38.713,33.042,5.974,9.999,16.078
334,0.994,40.186,27.571,38.703,33.046,5.974,9.917,15.752
335,0.991,40.197,27.5,38.712,33.049,5.893,9.876,15.667
336,1.0,39.852,27.5,38.712,33.046,5.973,9.794,15.381
337,1.007,39.963,27.558,38.703,33.042,5.852,9.671,15.175
338,1.023,40.06,27.555,38.693,33.049,5.932,9.711,14.97
339,1.036,40.023,27.528,38.703,33.042,5.933,9.63,14.805
340,1.004,39.764,27.496,38.693,33.053,5.974,9.67,14.844
341,0.991,39.905,27.554,38.693,33.053,5.974,9.792,14.885
342,0.997,39.983,27.574,38.712,33.053,6.015,9.834,14.845
343,1.0,39.581,27.563,38.732,33.06,6.096,9.834,14.926
344,1.023,39.673,27.559,38.741,33.067,6.056,9.794,14.927
345,1.01,39.779,27.485,38.732,33.057,6.015,9.793,15.13
346,0.991,39.847,27.527,38.693,33.056,5.974,9.834,15.254
347,1.007,39.378,27.543,38.712,33.053,5.974,9.834,15.418
348,0.994,39.489,27.531,38.703,33.053,5.974,9.834,15.42
349,0.968,39.634,27.488,38.712,33.056,5.974,9.997,15.501
350,0.958,39.702,27.503,38.703,33.053,6.015,10.121,15.542
351,0.964,39.242,27.543,38.722,33.056,5.934,10.163,15.746
352,0.974,39.353,27.57,38.722,33.056,6.014,10.366,15.87
353,0.977,39.498,27.594,38.713,33.063,5.974,10.328,15.993
354,0.971,39.538,27.536,38.712,33.057,5.974,10.49,16.157
355,0.984,39.049,27.43,38.732,33.06,5.974,10.491,16.159
356,0.974,39.188,27.487,38.722,33.053,5.893,10.369,16.281
357,0.984,39.276,27.539,38.693,33.046,5.892,10.368,16.323
358,0.965,39.305,27.492,38.674,33.046,5.892,10.328,16.404
359,0.951,38.98,27.507,38.655,33.042,5.811,10.368,16.527
360,0.951,39.111,27.515,38.664,33.049,5.891,10.368,16.651
361,0.971,39.227,27.558,38.702,33.049,6.014,10.368,16.733
362,1.003,39.238,27.586,38.693,33.049,5.974,10.287,16.856
363,0.981,38.826,27.493,38.693,33.06,5.974,10.245,16.898
364,0.938,38.965,27.468,38.693,33.05,6.015,10.204,17.02
365,0.945,39.053,27.46,38.683,33.042,5.974,10.163,17.143
366,0.964,38.757,27.488,38.683,33.046,5.974,10.082,17.185
367,0.948,38.638,27.546,38.693,33.049,5.933,9.959,17.185
368,0.945,38.772,27.477,38.683,33.046,6.014,10.08,17.226
369,0.958,38.859,27.488,38.674,33.046,5.974,10.04,17.389
370,0.951,38.534,27.523,38.674,33.042,5.974,9.958,17.472
371,0.961,38.636,27.57,38.664,33.053,5.933,9.917,17.473
372,0.948,38.762,27.543,38.674,33.046,6.055,9.998,17.636
373,0.98,38.869,27.496,38.702,33.053,6.015,10.039,17.678
374,1.0,38.275,27.484,38.712,33.067,6.137,10.08,17.8
375,1.013,38.423,27.496,38.722,33.06,6.138,10.121,17.761
376,0.997,38.549,27.531,38.713,33.053,6.098,10.041,17.801
377,0.981,38.608,27.527,38.703,33.049,6.056,9.958,17.802
378,1.004,38.177,27.535,38.684,33.042,6.056,10.08,17.72
379,0.994,38.316,27.516,38.703,33.053,6.056,10.04,17.679
380,0.958,38.423,27.527,38.674,33.049,5.975,10.08,17.556
381,0.945,38.472,27.578,38.693,33.053,6.096,10.081,17.636
382,0.971,38.022,27.528,38.703,33.053,6.097,10.081,17.597
383,0.951,38.171,27.523,38.703,33.049,6.097,10.121,17.881
384,0.954,38.268,27.449,38.712,33.056,6.097,10.0,18.331
385,0.938,38.327,27.507,38.703,33.053,6.097,10.08,18.783
386,0.925,37.992,27.55,38.684,33.06,6.056,9.999,19.275
387,0.948,38.103,27.543,38.683,33.053,6.097,9.999,19.605
388,0.935,38.22,27.5,38.674,33.043,5.975,9.836,19.853
389,0.925,38.451,27.465,38.674,33.039,5.893,9.834,20.261
390,0.909,37.84,27.554,38.655,33.039,5.892,9.753,20.632
391,0.886,37.977,27.539,38.654,33.042,5.973,9.793,20.879
392,0.889,38.084,27.516,38.664,33.046,5.974,9.753,21.085
393,0.895,37.769,27.461,38.683,33.049,5.974,9.671,21.046
394,0.931,37.766,27.499,38.731,33.046,5.974,9.629,21.005
395,0.97,37.9,27.507,38.684,33.049,5.974,9.548,20.924
396,0.951,37.997,27.519,38.683,33.049,5.974,9.547,20.963
397,0.941,37.528,27.5,38.674,33.046,5.893,9.506,21.126
398,0.948,37.648,27.468,38.674,33.046,5.933,9.425,21.169
399,0.954,37.745,27.499,38.664,33.046,5.852,9.342,21.21
400,0.977,37.833,27.558,38.654,33.042,5.851,9.301,21.169
401,0.994,37.517,27.52,38.664,33.046,5.932,9.301,21.006
402,0.968,37.648,27.453,38.664,33.042,5.933,9.341,21.005
403,0.942,37.793,27.445,38.693,33.049,5.974,9.382,20.924
404,0.954,37.871,27.507,38.683,33.056,6.015,9.423,20.882
405,0.954,37.393,27.515,38.703,33.053,6.056,9.505,20.719
406,1.01,37.541,27.597,38.703,33.06,6.056,9.506,20.473
407,0.968,37.648,27.512,38.712,33.056,5.975,9.303,20.146
408,0.951,37.697,27.508,38.664,33.053,6.015,9.423,19.898
409,0.922,37.391,27.511,38.674,33.053,5.934,9.505,19.693
410,0.909,37.522,27.547,38.683,33.046,5.933,9.506,19.325
411,0.941,37.619,27.531,38.664,33.053,5.974,9.587,18.996
412,0.932,37.668,27.422,38.674,33.049,5.974,9.629,18.83
413,0.918,37.458,27.472,38.741,33.053,6.015,9.751,18.503
414,0.915,37.58,27.503,38.674,33.053,5.974,9.671,18.256
415,0.922,37.677,27.5,38.683,33.053,5.974,9.711,18.05
416,0.951,37.659,27.574,38.683,33.049,5.974,9.67,17.763
417,0.977,37.343,27.524,38.703,33.049,5.974,9.67,17.557
418,0.968,37.474,27.488,38.684,33.053,5.933,9.629,17.311
419,0.958,37.561,27.511,38.674,33.049,5.892,9.548,17.065
420,0.954,37.322,27.558,38.655,33.042,5.811,9.466,17.062
421,0.938,37.368,27.477,38.635,33.039,5.728,9.424,17.469
422,0.915,37.484,27.476,38.645,33.049,5.89,9.464,17.798
423,0.909,37.59,27.496,38.673,33.049,5.892,9.465,18.168
424,0.921,37.294,27.484,38.674,33.046,5.892,9.343,18.374
425,0.928,37.444,27.515,38.664,33.042,5.933,9.342,18.539
426,0.915,37.532,27.57,38.635,33.039,5.852,9.26,18.663
427,0.915,37.639,27.536,38.654,33.042,5.81,9.219,18.705
428,0.931,37.333,27.481,38.664,33.049,5.81,9.137,18.664
429,0.909,37.435,27.535,38.664,33.042,5.81,9.055,18.501
430,0.892,37.571,27.539,38.654,33.042,5.81,9.054,18.459
431,0.895,37.639,27.457,38.654,33.046,5.81,8.973,18.215
432,0.892,37.266,27.48,38.664,33.046,5.81,9.013,18.09
433,0.895,37.406,27.472,38.654,33.053,5.85,8.972,18.008
434,0.895,37.532,27.495,38.674,33.053,5.851,9.094,17.926
435,0.908,37.581,27.531,38.683,33.056,5.932,9.176,17.803
436,0.925,37.466,27.555,38.693,33.063,5.974,9.177,17.558
437,0.918,37.648,27.5,38.703,33.06,5.974,9.096,17.352
438,0.909,37.736,27.5,38.674,33.056,5.811,9.054,17.065
439,0.974,37.737,27.578,38.664,33.056,5.81,8.973,16.859
440,0.971,37.43,27.512,38.664,33.05,5.769,8.972,16.654
441,0.935,37.532,27.414,38.664,33.053,5.891,8.931,16.57
442,0.918,37.639,27.487,38.664,33.049,5.77,8.931,16.488
443,0.931,37.563,27.515,38.664,33.046,5.809,8.931,16.406
444,0.889,37.505,27.508,38.674,33.053,5.85,8.85,16.324
445,0.885,37.638,27.558,38.674,33.053,5.932,8.889,16.242
446,0.885,37.726,27.524,38.674,33.056,5.892,8.849,16.2
447,0.898,37.516,27.496,38.664,33.053,5.933,8.727,16.078
448,0.915,37.6,27.535,38.664,33.053,5.892,8.726,15.995
449,0.928,37.716,27.523,38.664,33.049,5.892,8.644,15.832
450,0.899,37.784,27.469,38.654,33.039,5.811,8.521,15.708
451,0.866,37.507,27.464,38.645,33.042,5.728,8.561,15.87
452,0.882,37.61,27.476,38.645,33.039,5.85,8.643,15.953
453,0.902,37.754,27.515,38.664,33.049,5.891,8.603,15.913
454,0.879,37.823,27.554,38.674,33.049,5.892,8.602,15.912
455,0.882,37.469,27.555,38.655,33.046,5.973,8.643,15.912
456,0.892,37.609,27.43,38.674,33.049,5.893,8.644,15.872
457,0.931,37.754,27.495,38.674,33.042,5.892,8.644,15.831
458,0.938,37.775,27.511,38.674,33.049,5.892,8.644,15.749
459,0.925,37.612,27.535,38.635,33.039,5.933,8.644,15.667
460,0.912,37.735,27.395,38.645,33.042,5.892,8.644,15.585
461,0.941,37.852,27.483,38.645,33.042,5.892,8.725,15.625
462,0.967,37.862,27.499,38.664,33.053,5.933,8.807,15.544
463,0.984,37.604,27.519,38.654,33.043,6.055,8.889,15.583
464,0.974,37.754,27.578,38.674,33.06,6.137,8.93,15.584
465,0.994,37.871,27.555,38.693,33.063,6.098,8.931,15.503
466,1.004,37.901,27.508,38.703,33.057,6.097,8.89,15.502
467,1.033,37.844,27.5,38.664,33.046,6.056,8.89,15.461
468,1.043,37.939,27.531,38.664,33.049,6.056,8.809,15.583
469,1.011,38.055,27.539,38.664,33.046,6.015,8.848,15.665
470,1.01,37.73,27.367,38.683,33.053,6.056,8.849,15.707
471,1.007,37.717,27.483,38.674,33.046,6.056,8.849,15.788
472,1.04,37.832,27.472,38.693,33.053,6.056,8.889,15.789
473,1.056,37.929,27.558,38.664,33.053,6.137,8.849,15.789
474,1.047,37.691,27.571,38.664,33.053,6.098,8.849,15.83
475,1.03,37.803,27.567,38.664,33.053,6.138,8.889,15.871
476,1.063,37.939,27.543,38.693,33.056,6.138,8.809,15.871
477,1.06,38.026,27.484,38.683,33.056,6.098,8.767,15.749
478,1.011,37.787,27.558,38.693,33.05,6.097,8.767,15.585
479,1.017,37.91,27.469,38.655,33.039,5.894,8.685,15.503
480,1.027,38.007,27.495,38.645,33.032,5.973,8.725,15.583
481,1.037,38.084,27.449,38.645,33.042,5.974,8.848,15.665
482,1.043,37.711,27.515,38.645,33.049,6.137,8.93,15.829
483,1.063,37.861,27.554,38.664,33.046,6.098,8.931,15.952
484,1.079,37.958,27.555,38.664,33.049,6.097,8.89,16.076
485,1.047,38.026,27.551,38.674,33.039,6.016,8.89,16.077
486,1.043,37.749,27.504,38.655,33.042,6.056,8.971,16.117
487,1.043,37.861,27.527,38.664,33.042,6.015,8.85,16.036
488,1.017,37.978,27.523,38.645,33.042,6.056,8.889,16.035
489,0.997,37.998,27.488,38.664,33.049,6.015,8.971,15.995
490,0.997,37.749,27.445,38.654,33.042,6.015,8.891,15.832
491,1.0,37.88,27.441,38.664,33.046,6.015,8.93,15.79
492,1.017,37.987,27.507,38.664,33.046,6.015,8.931,15.789
493,1.023,38.046,27.547,38.654,33.049,6.056,9.053,15.749
494,1.043,37.692,27.582,38.693,33.06,6.137,9.095,15.748
495,1.069,37.822,27.5,38.693,33.06,6.179,9.176,15.667
496,1.092,37.948,27.515,38.703,33.053,6.139,9.096,15.503
497,1.096,37.595,27.508,38.712,33.053,6.098,8.973,15.42
498,1.079,37.639,27.531,38.693,33.039,6.016,9.013,15.338
499,1.105,37.764,27.488,38.703,33.056,6.137,9.094,15.256
500,1.128,37.852,27.484,38.684,33.053,6.016,9.095,15.174
501,1.125,37.613,27.531,38.683,33.046,6.056,9.136,15.173
502,1.129,37.735,27.527,38.674,33.049,6.015,9.217,15.214
503,1.158,37.852,27.555,38.693,33.042,6.056,9.178,15.296
504,1.181,37.939,27.52,38.703,33.035,6.056,9.218,15.337
505,1.184,37.585,27.457,38.703,33.056,6.097,9.218,15.622
506,1.178,37.725,27.476,38.712,33.046,6.097,9.178,15.91
507,1.175,37.842,27.546,38.703,33.056,6.056,9.177,15.994
508,1.188,37.92,27.539,38.712,33.046,6.056,9.177,16.198
509,1.191,37.527,27.492,38.703,33.049,5.975,9.137,16.281
510,1.178,37.648,27.488,38.712,33.042,5.893,8.974,16.201
511,1.158,37.755,27.488,38.684,33.035,5.892,8.891,16.119
512,1.152,37.775,27.546,38.674,33.035,5.811,8.809,16.24
513,1.158,37.421,27.563,38.664,33.039,5.85,8.848,16.282
514,1.139,37.551,27.492,38.702,33.049,5.973,8.889,16.485
515,1.158,37.677,27.414,38.703,33.046,5.974,8.809,16.528
516,1.155,37.717,27.456,38.703,33.042,5.893,8.808,16.651
517,1.142,37.535,27.499,38.693,33.049,6.014,8.767,16.733
518,1.135,37.677,27.5,38.703,33.046,5.934,8.767,16.653
519,1.145,37.774,27.48,38.712,33.042,5.892,8.807,16.652
520,1.132,37.459,27.499,38.703,33.046,5.811,8.848,16.57
521,1.132,37.225,27.515,38.703,33.046,5.81,8.808,16.57
522,1.106,37.357,27.566,38.684,33.039,5.81,8.93,16.407
523,1.083,37.464,27.528,38.693,33.039,5.81,9.053,16.446
524,1.105,37.312,27.449,38.712,33.046,5.891,9.257,16.365
525,1.112,37.445,27.487,38.712,33.053,5.933,9.503,16.567
526,1.073,37.59,27.457,38.741,33.053,6.014,9.75,16.651
527,1.047,37.687,27.55,38.741,33.063,6.015,9.996,16.692
528,1.05,37.074,27.461,38.78,33.063,5.974,10.121,16.652
529,1.027,37.193,27.476,38.751,33.05,5.893,10.284,16.57
530,0.988,37.3,27.499,38.722,33.053,5.892,10.571,16.61
531,0.971,37.358,27.523,38.732,33.043,5.851,10.777,16.448
532,0.968,37.052,27.562,38.732,33.046,5.891,10.901,16.446
533,0.994,37.193,27.5,38.741,33.053,5.811,11.065,16.568
534,1.03,37.319,27.484,38.761,33.053,5.891,11.27,16.814
535,1.014,37.406,27.476,38.751,33.046,5.811,11.475,17.101
536,0.994,37.004,27.476,38.742,33.049,5.932,11.599,17.429
537,0.991,37.115,27.527,38.751,33.049,5.892,11.722,17.717
538,0.994,37.26,27.5,38.828,33.053,5.811,11.846,18.004
539,0.965,37.3,27.515,38.762,33.053,5.891,11.928,18.129
540,0.942,36.86,27.512,38.751,33.053,5.851,11.888,18.374
541,0.932,36.999,27.57,38.742,33.046,5.81,11.725,18.458
542,0.925,37.106,27.489,38.741,33.046,5.688,11.764,18.581
543,0.909,37.088,27.433,38.732,33.042,5.646,11.764,18.663
544,0.908,36.886,27.362,38.741,33.046,5.686,11.683,18.786
545,0.882,37.038,27.448,38.761,33.046,5.768,11.764,18.746
546,0.866,37.145,27.476,38.761,33.039,5.728,11.602,18.583
547,0.895,36.858,27.456,38.761,33.046,5.85,11.519,18.46
548,0.908,36.874,27.488,38.77,33.042,5.769,11.396,18.337
549,0.912,36.999,27.461,38.79,33.049,5.768,11.273,18.091
550,0.889,37.077,27.534,38.761,33.046,5.768,11.231,17.926
551,0.885,36.723,27.527,38.78,33.039,5.728,11.149,17.925
552,0.898,36.844,27.449,38.79,33.046,5.727,11.026,17.722
553,0.899,36.97,27.437,38.771,33.042,5.727,11.066,17.638
554,0.886,37.058,27.452,38.78,33.035,5.727,11.188,17.515
555,0.866,36.406,27.487,38.78,33.046,5.768,11.149,17.392
556,0.869,36.534,27.539,38.79,33.046,5.809,11.23,17.432
557,0.882,36.67,27.484,38.819,33.053,5.891,11.149,17.432
558,0.866,36.786,27.488,38.848,33.063,5.851,11.23,17.229
559,0.898,36.509,27.507,38.838,33.06,5.851,11.068,17.023
560,0.925,36.621,27.547,38.819,33.056,5.81,10.985,16.94
561,0.899,36.719,27.481,38.819,33.046,5.728,10.862,16.898
562,0.886,36.787,27.437,38.819,33.046,5.768,10.902,16.898
563,0.859,36.241,27.46,38.896,33.053,5.809,10.821,16.898
564,0.856,36.389,27.48,38.829,33.053,5.688,10.779,16.939
565,0.853,36.486,27.46,38.838,33.046,5.687,10.698,16.898
566,0.869,36.525,27.542,38.819,33.046,5.727,10.616,16.898
567,0.882,36.219,27.457,38.848,33.022,5.768,10.574,16.857
568,0.885,36.36,27.476,38.848,33.035,5.768,10.533,16.816
569,0.846,36.476,27.531,38.858,33.046,5.768,10.451,16.694
570,0.797,36.631,27.539,38.858,33.049,5.687,10.328,16.652
571,0.813,36.249,27.488,38.858,33.049,5.687,10.246,16.57
572,0.826,36.37,27.398,38.867,33.049,5.687,10.245,16.407
573,0.839,36.476,27.471,38.848,33.039,5.564,10.123,16.283
574,0.856,35.998,27.449,38.838,33.032,5.563,10.081,16.16
575,0.859,35.993,27.48,38.838,33.042,5.645,10.121,16.118
576,0.846,36.137,27.527,38.848,33.042,5.686,10.163,16.036
577,0.856,36.244,27.5,38.867,33.049,5.646,10.082,15.954
578,0.843,35.919,27.48,38.867,33.042,5.605,10.04,15.791
579,0.856,36.031,27.523,38.858,33.046,5.645,10.08,15.708
580,0.856,36.166,27.508,38.867,33.046,5.686,10.081,15.626
581,0.849,36.244,27.429,38.858,33.042,5.524,9.999,15.544
582,0.856,35.737,27.464,38.877,33.046,5.603,10.039,15.502
583,0.849,35.875,27.441,38.877,33.042,5.564,9.958,15.542
584,0.833,36.011,27.464,38.877,33.039,5.563,9.998,15.421
585,0.81,36.06,27.507,38.877,33.042,5.604,9.917,15.542
586,0.81,35.773,27.527,38.887,33.039,5.564,9.998,15.624
587,0.797,35.905,27.508,38.906,33.042,5.604,10.08,15.706
588,0.79,36.031,27.461,38.935,33.053,5.686,10.243,15.748
589,0.803,36.109,27.534,38.954,33.049,5.768,10.367,15.707
590,0.81,35.668,27.488,38.954,33.056,5.768,10.409,15.544
591,0.807,35.798,27.418,38.964,33.056,5.687,10.328,15.38
592,0.794,35.924,27.483,38.955,33.05,5.646,10.368,15.338
593,0.787,35.925,27.476,38.935,33.046,5.645,10.449,15.297
594,0.793,35.647,27.496,38.935,33.046,5.645,10.41,15.256
595,0.816,35.779,27.507,38.935,33.046,5.605,10.531,15.215
596,0.836,35.876,27.508,38.935,33.046,5.686,10.573,15.255
597,0.862,35.666,27.453,38.964,33.049,5.646,10.574,15.215
598,0.879,35.443,27.491,38.955,33.049,5.645,10.492,15.214
599,0.895,35.556,27.554,38.964,33.053,5.605,10.451,15.174
600,0.882,35.672,27.473,38.964,33.049,5.645,10.491,15.132
601,0.879,35.395,27.48,38.974,33.053,5.686,10.41,15.213
602,0.889,35.508,27.464,38.983,33.049,5.687,10.409,15.214
603,0.879,35.633,27.492,38.974,33.042,5.646,10.206,15.296
604,0.882,35.711,27.464,38.974,33.042,5.483,10.163,15.256
605,0.856,35.242,27.507,38.945,33.046,5.481,10.0,15.337
606,0.84,35.343,27.453,38.945,33.036,5.522,9.999,15.419
607,0.826,35.488,27.445,38.973,33.042,5.522,9.958,15.582
608,0.813,35.576,27.511,38.983,33.049,5.563,9.876,15.543
609,0.774,35.222,27.496,38.993,33.046,5.563,9.835,15.665
610,0.771,35.372,27.457,39.003,33.049,5.563,9.753,15.625
611,0.79,35.498,27.452,39.012,33.042,5.523,9.671,15.706
612,0.774,35.576,27.472,38.993,33.042,5.563,9.629,15.626
613,0.797,35.116,27.488,39.012,33.035,5.523,9.466,15.666
614,0.8,35.256,27.507,38.993,33.039,5.522,9.465,15.503
615,0.81,35.362,27.531,38.993,33.039,5.482,9.302,15.42
616,0.826,35.421,27.43,38.993,33.032,5.562,9.341,15.46
617,0.846,34.99,27.452,39.031,33.039,5.482,9.342,15.501
618,0.862,35.12,27.507,39.032,33.039,5.603,9.504,15.664
619,0.908,35.236,27.511,39.032,33.042,5.604,9.546,15.747
620,0.928,35.286,27.457,39.07,33.053,5.686,9.588,15.789
621,0.935,35.056,27.448,39.08,33.053,5.646,9.669,15.708
622,0.938,35.197,27.472,39.042,33.043,5.523,9.67,15.707
623,0.922,35.276,27.495,39.051,33.042,5.563,9.751,15.829
624,0.964,34.912,27.523,39.061,33.039,5.523,9.833,15.993
625,1.003,34.87,27.547,39.061,33.049,5.563,9.875,16.117
626,1.053,34.994,27.406,39.08,33.036,5.563,9.916,16.28
627,1.047,35.101,27.475,39.061,33.042,5.604,9.957,16.323
628,1.059,34.834,27.492,39.07,33.046,5.645,10.039,16.486
629,1.112,34.955,27.507,39.09,33.046,5.645,9.999,16.528
630,1.154,35.11,27.437,39.119,33.046,5.605,9.999,16.488
631,1.174,35.188,27.483,39.109,33.042,5.604,10.039,16.569
632,1.204,34.7,27.488,39.09,33.042,5.645,9.958,16.488
633,1.269,34.839,27.507,39.109,33.042,5.645,9.917,16.406
634,1.306,34.965,27.547,39.1,33.039,5.564,9.916,16.486
635,1.286,35.024,27.492,39.08,33.035,5.441,9.835,16.528
636,1.286,34.698,27.492,39.071,33.025,5.481,9.794,16.772
637,1.351,34.839,27.445,39.08,33.032,5.562,9.915,16.816
638,1.398,34.984,27.542,39.109,33.042,5.604,9.835,16.735
639,1.44,35.043,27.442,39.109,33.042,5.645,9.753,16.856
640,1.454,34.555,27.46,39.1,33.032,5.686,9.793,16.735
641,1.451,34.703,27.429,39.119,33.035,5.646,9.753,16.734
642,1.483,34.83,27.487,39.119,33.039,5.686,9.712,16.693
643,1.49,34.85,27.55,39.129,33.039,5.646,9.752,16.652
644,1.542,34.447,27.543,39.109,33.035,5.686,9.833,16.692
645,1.578,34.578,27.492,39.128,33.035,5.646,9.834,16.53
646,1.588,34.694,27.449,39.129,33.039,5.605,9.834,16.528
647,1.615,34.935,27.499,39.1,33.039,5.645,9.916,16.447
648,1.66,34.439,27.504,39.148,33.035,5.686,10.039,16.324
649,1.651,34.587,27.465,39.167,33.046,5.768,10.243,16.282
650,1.644,34.694,27.48,39.187,33.056,5.809,10.326,16.404
651,1.592,34.427,27.484,39.196,33.056,5.81,10.327,16.771
652,1.537,34.491,27.542,39.196,33.046,5.769,10.368,17.385
653,1.461,34.616,27.516,39.177,33.042,5.687,10.287,18.163
654,1.366,34.694,27.515,39.167,33.046,5.768,10.327,18.862
655,1.281,34.264,27.445,39.187,33.046,5.687,10.246,19.601
656,1.205,34.403,27.448,39.177,33.039,5.809,10.286,20.3
657,1.12,34.529,27.519,39.196,33.046,5.769,10.286,20.998
658,1.07,34.617,27.461,39.196,33.036,5.768,10.286,22.143
659,0.988,34.196,27.48,39.187,33.049,5.809,10.245,23.374
660,0.912,34.326,27.457,39.196,33.053,5.81,10.245,24.728
661,0.899,34.442,27.491,39.196,33.046,5.891,10.245,26.043
662,0.882,34.539,27.531,39.187,33.042,5.892,10.245,27.195
663,0.837,34.137,27.496,39.215,33.042,5.851,10.204,28.06
664,0.791,34.277,27.507,39.206,33.039,5.891,10.245,28.76
665,0.725,34.394,27.398,39.206,33.035,5.811,10.123,29.173
666,0.682,34.443,27.44,39.187,33.035,5.728,10.163,29.462
667,0.646,33.983,27.507,39.206,33.039,5.809,10.204,29.668
668,0.642,34.132,27.453,39.196,33.032,5.85,10.204,29.467
669,0.629,34.277,27.468,39.244,33.042,5.891,10.285,29.343
670,0.645,34.346,27.46,39.245,33.039,5.892,10.245,28.976
671,0.655,34.059,27.511,39.245,33.046,5.811,10.326,28.565
672,0.698,34.2,27.511,39.245,33.036,5.81,10.368,28.073
673,0.718,34.288,27.504,39.245,33.039,5.85,10.531,27.581
674,0.731,34.145,27.437,39.245,33.039,5.81,10.573,26.966
675,0.715,33.923,27.437,39.245,33.035,5.769,10.696,26.635
676,0.744,34.045,27.444,39.235,33.039,5.809,10.819,26.347
677,0.767,34.133,27.476,39.245,33.039,5.81,11.064,26.262
678,0.767,33.827,27.394,39.264,33.039,5.891,11.107,26.343
679,0.803,33.939,27.444,39.283,33.039,5.851,11.27,26.384
680,0.823,34.084,27.491,39.303,33.049,5.973,11.353,26.344
681,0.846,34.19,27.535,39.322,33.053,6.015,11.395,26.181
682,0.892,33.77,27.5,39.303,33.043,5.893,11.314,25.895
683,0.886,33.88,27.468,39.303,33.042,5.851,11.272,25.567
684,0.902,34.016,27.386,39.312,33.039,5.851,11.231,25.279
685,0.895,34.113,27.459,39.313,33.032,5.851,11.19,24.951
686,0.886,33.654,27.468,39.313,33.046,5.891,11.108,24.581
687,0.895,33.793,27.484,39.322,33.036,5.851,11.067,24.253
688,0.905,33.938,27.488,39.332,33.042,5.81,10.863,23.924
689,0.882,34.026,27.421,39.342,33.046,5.81,10.861,23.636
690,0.85,33.682,27.514,39.332,33.046,5.85,10.78,23.349
691,0.888,33.812,27.508,39.351,33.049,5.891,10.657,22.939
692,0.912,33.938,27.48,39.361,33.042,5.811,10.656,22.65
693,0.925,33.997,27.429,39.361,33.046,5.85,10.574,22.241
694,0.892,33.499,27.433,39.361,33.039,5.81,10.37,21.79
695,0.912,33.638,27.437,39.361,33.042,5.769,10.165,21.338
696,0.918,33.764,27.456,39.361,33.032,5.728,10.082,21.008
697,0.931,33.765,27.452,39.342,33.028,5.646,9.959,20.639
698,0.918,33.478,27.433,39.342,33.032,5.767,9.917,20.391
699,0.915,33.619,27.46,39.342,33.035,5.768,9.876,19.901
700,0.905,33.735,27.476,39.37,33.046,5.768,9.916,19.611
701,0.925,33.487,27.492,39.371,33.039,5.728,9.835,19.324
702,0.915,33.456,27.449,39.399,33.046,5.727,9.712,19.036
703,0.899,33.609,27.402,39.381,33.042,5.768,9.63,18.708
704,0.879,33.697,27.448,39.39,33.042,5.687,9.507,18.42
705,0.885,33.247,27.46,39.39,33.042,5.687,9.425,18.133
706,0.866,33.377,27.515,39.4,33.042,5.768,9.383,17.967
707,0.856,33.522,27.437,39.4,33.042,5.728,9.464,17.722
708,0.849,33.6,27.429,39.4,33.035,5.727,9.383,17.475
709,0.83,33.198,27.472,39.409,33.046,5.727,9.423,17.351
710,0.817,33.366,27.495,39.438,33.046,5.727,9.505,17.147
711,0.846,33.502,27.476,39.448,33.053,5.85,9.465,17.063
712,0.882,33.609,27.363,39.477,33.056,5.932,9.546,16.818
713,0.928,33.14,27.448,39.515,33.056,5.852,9.425,16.531
714,0.922,33.289,27.472,39.468,33.046,5.81,9.464,16.284
715,0.918,33.396,27.476,39.448,33.039,5.688,9.424,16.079
716,0.922,33.436,27.542,39.458,33.046,5.687,9.505,15.995
717,0.931,33.187,27.426,39.487,33.046,5.687,9.506,15.791
718,0.918,33.299,27.444,39.487,33.042,5.727,9.506,15.789
719,0.944,33.425,27.46,39.477,33.046,5.768,9.506,15.586
720,0.928,33.474,27.499,39.487,33.049,5.768,9.587,15.421
721,0.915,33.015,27.426,39.496,33.053,5.728,9.547,15.338
722,0.905,33.173,27.436,39.516,33.049,5.768,9.588,15.297
723,0.921,33.29,27.444,39.506,33.046,5.809,9.547,15.215
724,0.928,33.588,27.456,39.506,33.049,5.769,9.506,15.377
725,0.928,32.996,27.523,39.516,33.053,5.809,9.587,15.378
726,0.941,33.115,27.508,39.516,33.046,5.769,9.466,15.378
727,0.932,33.241,27.469,39.506,33.042,5.728,9.383,15.378
728,0.918,32.878,27.449,39.487,33.039,5.646,9.301,15.378
729,0.889,32.893,27.484,39.487,33.032,5.645,9.341,15.419
730,0.872,33.057,27.46,39.496,33.039,5.686,9.342,15.501
731,0.879,33.145,27.413,39.535,33.049,5.768,9.342,15.42
732,0.892,32.81,27.444,39.526,33.042,5.728,9.301,15.298
733,0.915,32.941,27.433,39.526,33.046,5.687,9.341,15.337
734,0.925,33.076,27.464,39.535,33.042,5.687,9.342,15.297
735,0.938,33.164,27.511,39.545,33.042,5.727,9.342,15.297
736,0.912,32.705,27.457,39.535,33.049,5.727,9.382,15.337
737,0.902,32.882,27.476,39.545,33.032,5.687,9.342,15.256
738,0.899,32.999,27.437,39.526,33.035,5.646,9.342,15.255
739,0.918,33.067,27.507,39.526,33.035,5.645,9.342,15.093
740,0.909,32.627,27.39,39.535,33.032,5.645,9.342,15.05
741,0.905,32.785,27.436,39.545,33.042,5.564,9.301,15.05
742,0.921,32.912,27.394,39.535,33.035,5.685,9.301,15.091
743,0.918,32.98,27.448,39.564,33.046,5.727,9.341,15.172
744,0.918,32.636,27.487,39.583,33.053,5.85,9.382,15.214
745,0.922,32.805,27.515,39.584,33.049,5.891,9.342,15.214
746,0.915,32.922,27.469,39.603,33.053,5.892,9.26,15.133
747,0.915,33.009,27.46,39.603,33.046,5.811,9.137,14.969
748,0.909,32.617,27.488,39.565,33.046,5.728,9.055,15.009
749,0.873,32.728,27.488,39.555,33.042,5.768,9.054,14.968
750,0.869,32.873,27.425,39.583,33.039,5.728,8.973,14.927
751,0.892,32.807,27.456,39.584,33.042,5.809,9.013,14.886
752,0.912,32.576,27.452,39.574,33.039,5.81,8.972,14.926
753,0.922,32.699,27.491,39.574,33.039,5.81,9.013,15.008
754,0.925,32.815,27.48,39.583,33.035,5.85,8.972,15.05
755,0.915,32.433,27.523,39.584,33.042,5.851,9.135,15.091
756,0.928,32.534,27.461,39.67,33.053,5.81,9.177,15.091
757,0.974,32.669,27.464,39.584,33.043,5.891,9.299,15.05
758,0.997,32.786,27.511,39.584,33.046,5.892,9.341,14.969
759,1.017,32.413,27.469,39.574,33.042,5.811,9.382,14.805
760,1.004,32.553,27.46,39.564,33.035,5.728,9.423,14.681
761,0.974,32.679,27.409,39.555,33.032,5.768,9.464,14.762
762,0.958,32.748,27.452,39.555,33.032,5.768,9.627,14.885
763,0.948,32.192,27.46,39.574,33.046,5.728,9.71,14.926
764,1.0,32.359,27.515,39.574,33.049,5.89,9.711,14.927
765,0.984,32.505,27.457,39.574,33.046,5.811,9.792,14.886
766,0.958,32.573,27.46,39.574,33.042,5.769,9.793,14.967
767,0.945,32.382,27.464,39.583,33.046,5.809,9.875,14.927
768,0.945,32.515,27.495,39.584,33.039,5.769,9.916,14.846
769,0.941,32.66,27.429,39.574,33.039,5.768,9.957,14.845
770,0.935,32.719,27.44,39.574,33.039,5.728,9.835,14.763
771,0.948,32.297,27.433,39.574,33.039,5.768,9.916,14.681
772,0.945,32.437,27.472,39.583,33.029,5.728,9.916,14.721
773,0.945,32.553,27.538,39.555,33.039,5.85,9.998,14.844
774,0.993,32.612,27.5,39.602,33.046,5.851,10.08,14.926
775,1.033,32.277,27.476,39.632,33.056,5.973,10.04,15.089
776,1.03,32.446,27.488,39.642,33.05,5.893,9.958,15.172
777,1.027,32.525,27.457,39.603,33.042,5.77,9.917,15.254
778,1.03,32.267,27.495,39.593,33.046,5.809,9.876,15.377
779,1.03,32.178,27.371,39.603,33.042,5.728,9.957,15.419
780,1.001,32.302,27.428,39.593,33.042,5.768,10.039,15.46
781,0.968,32.427,27.437,39.622,33.039,5.728,10.04,15.461
782,0.984,32.189,27.507,39.603,33.046,5.768,10.121,15.501
783,1.01,32.33,27.527,39.613,33.042,5.768,10.163,15.664
784,0.978,32.456,27.508,39.622,33.046,5.809,10.122,15.91
785,0.958,32.573,27.445,39.632,33.053,5.728,10.122,16.075
786,0.977,31.941,27.433,39.613,33.046,5.727,10.081,16.321
787,0.974,32.079,27.487,39.622,33.042,5.687,10.081,16.526
788,0.987,32.224,27.429,39.603,33.039,5.687,9.999,16.569
789,0.955,32.302,27.429,39.593,33.029,5.564,10.08,16.732
790,0.919,32.025,27.405,39.593,33.032,5.645,10.284,16.978
791,0.935,32.175,27.467,39.622,33.046,5.727,10.652,17.061
792,0.948,32.33,27.515,39.622,33.046,5.687,10.9,17.144
793,0.99,32.399,27.496,39.622,33.039,5.646,11.146,17.145
794,1.023,31.882,27.464,39.632,33.046,5.645,11.393,17.022
795,1.033,32.02,27.382,39.651,33.039,5.645,11.558,17.062
796,1.059,32.166,27.444,39.632,33.039,5.645,11.722,17.184
797,1.063,32.215,27.476,39.632,33.042,5.605,11.846,17.348
798,1.056,31.89,27.425,39.632,33.039,5.645,11.969,17.431
799,1.073,32.049,27.421,39.632,33.032,5.645,12.011,17.473
800,1.092,32.195,27.421,39.622,33.039,5.605,12.052,17.88
801,1.096,32.426,27.487,39.641,33.042,5.686,12.133,18.494
802,1.073,31.978,27.48,39.651,33.046,5.646,12.256,19.232
803,1.04,32.136,27.507,39.651,33.053,5.808,12.257,19.767
804,1.027,32.272,27.469,39.68,33.06,5.769,12.257,20.098
805,1.037,31.938,27.468,39.69,33.05,5.647,12.135,20.264
806,1.03,31.954,27.437,39.661,33.049,5.645,11.972,20.428
807,1.004,32.069,27.507,39.661,33.049,5.605,12.051,20.43
808,1.01,32.185,27.414,39.671,33.042,5.645,11.971,20.349
809,0.994,31.908,27.421,39.69,33.042,5.645,11.889,20.226
810,0.994,32.05,27.468,39.671,33.039,5.645,11.888,19.981
811,1.03,32.185,27.468,39.68,33.049,5.645,11.806,19.734
812,1.024,32.254,27.499,39.69,33.042,5.686,11.684,19.447
813,1.04,31.909,27.422,39.69,33.049,5.687,11.56,19.2
814,1.043,32.078,27.386,39.7,33.053,5.646,11.478,18.913
815,1.066,32.195,27.417,39.709,33.046,5.645,11.396,18.666
816,1.079,32.292,27.452,39.69,33.049,5.605,11.273,18.339
817,1.073,31.823,27.476,39.69,33.042,5.564,11.272,18.132
818,1.076,32.001,27.449,39.69,33.032,5.563,11.19,17.967
819,1.076,32.098,27.421,39.652,33.032,5.441,11.149,17.641
820,1.066,32.147,27.452,39.661,33.032,5.521,11.23,17.637
821,1.076,32.081,27.503,39.68,33.035,5.603,11.312,17.434
822,1.06,32.243,27.418,39.69,33.039,5.564,11.313,17.229
823,1.063,32.379,27.39,39.719,33.039,5.645,11.475,17.267
824,1.073,32.399,27.284,39.71,33.039,5.645,11.436,17.146
825,1.06,32.313,27.392,39.7,33.039,5.605,11.558,17.307
826,1.06,32.447,27.448,39.7,33.039,5.604,11.519,17.268
827,1.063,32.563,27.445,39.69,33.042,5.645,11.559,17.268
828,1.063,32.718,27.437,39.7,33.042,5.605,11.681,17.146
829,1.063,32.585,27.417,39.7,33.032,5.604,11.683,17.104
830,1.053,32.737,27.491,39.69,33.039,5.604,11.683,17.022
831,1.073,32.835,27.449,39.69,33.042,5.645,11.764,16.94
832,1.086,32.883,27.409,39.709,33.042,5.645,11.764,16.858
833,1.07,33.018,27.358,39.738,33.049,5.727,11.724,16.857
834,1.056,33.163,27.408,39.748,33.056,5.727,11.805,16.816
835,1.066,33.27,27.436,39.739,33.056,5.687,11.724,16.775
836,1.115,33.396,27.452,39.748,33.05,5.768,11.683,16.612
837,1.135,33.532,27.406,39.748,33.042,5.647,11.479,16.529
838,1.142,33.629,27.425,39.748,33.046,5.645,11.396,16.447
839,1.171,33.687,27.444,39.729,33.042,5.645,11.354,16.324
840,1.136,33.928,27.507,39.738,33.039,5.686,11.232,16.201
841,1.135,34.083,27.441,39.738,33.046,5.727,11.231,16.119
842,1.129,34.21,27.405,39.738,33.036,5.646,11.027,16.158
843,1.103,34.259,27.425,39.748,33.032,5.686,10.985,16.078
844,1.109,34.691,27.409,39.748,33.046,5.646,10.944,16.117
845,1.132,34.829,27.46,39.758,33.046,5.686,10.821,16.077
846,1.151,34.936,27.511,39.729,33.049,5.727,10.739,16.117
847,1.135,34.985,27.476,39.748,33.049,5.809,10.738,16.036
848,1.132,35.436,27.433,39.758,33.046,5.728,10.616,15.954
849,1.125,35.566,27.479,39.758,33.046,5.687,10.533,15.872
850,1.116,35.663,27.445,39.758,33.039,5.646,10.41,15.709
851,1.122,35.673,27.402,39.739,33.035,5.605,10.287,15.585
852,1.119,36.316,27.421,39.738,33.032,5.523,10.205,15.462
853,1.122,36.428,27.421,39.758,33.035,5.644,10.326,15.501
854,1.129,36.534,27.456,39.767,33.049,5.605,10.368,15.339
855,1.151,36.871,27.445,39.758,33.039,5.645,10.328,15.134
856,1.165,37.047,27.448,39.748,33.046,5.605,10.327,15.051
857,1.207,37.174,27.429,39.777,33.046,5.726,10.408,15.05
858,1.22,37.271,27.429,39.777,33.046,5.646,10.409,14.887
859,1.201,37.847,27.499,39.748,33.039,5.564,10.369,14.845
860,1.175,37.987,27.422,39.758,33.039,5.604,10.368,14.763
861,1.165,38.113,27.448,39.825,33.039,5.564,10.368,14.722
862,1.171,38.181,27.413,39.768,33.032,5.645,10.287,14.762
863,1.171,38.47,27.436,39.768,33.042,5.645,10.327,14.885
864,1.175,38.617,27.444,39.796,33.049,5.645,10.327,15.13
865,1.184,38.743,27.53,39.816,33.053,5.767,10.286,15.132
866,1.175,38.801,27.43,39.816,33.053,5.728,10.286,15.213
867,1.097,39.31,27.452,39.835,33.053,5.727,10.205,15.214
868,1.112,39.43,27.456,39.816,33.049,5.646,10.041,15.255
869,1.141,39.499,27.48,39.787,33.039,5.645,9.999,15.337
870,1.187,39.519,27.394,39.825,33.046,5.564,9.917,15.297
871,1.21,39.874,27.405,39.806,33.042,5.685,9.916,15.297
872,1.149,39.992,27.425,39.797,33.042,5.646,9.916,15.174
873,1.135,40.08,27.452,39.806,33.042,5.523,9.835,15.173
874,1.171,40.1,27.472,39.806,33.056,5.685,9.875,15.214
875,1.178,40.474,27.507,39.816,33.053,5.646,9.916,15.214
876,1.162,40.583,27.469,39.845,33.053,5.564,9.916,15.214
877,1.161,40.68,27.433,39.835,33.049,5.604,9.957,15.174
878,1.174,40.681,27.468,39.835,33.049,5.645,9.835,15.092
879,1.197,41.074,27.464,39.835,33.049,5.605,9.875,14.928
880,1.198,41.164,27.39,39.874,33.042,5.564,9.835,14.805
881,1.172,41.232,27.413,39.807,33.039,5.482,9.875,14.722
882,1.165,41.214,27.413,39.797,33.039,5.481,9.876,14.722
883,1.174,41.262,27.46,39.797,33.032,5.522,10.079,14.762
884,1.171,41.396,27.499,39.835,33.046,5.563,10.162,14.681
885,1.178,41.455,27.496,39.835,33.039,5.645,10.163,14.599
886,1.201,41.676,27.449,39.845,33.042,5.605,10.244,14.517
887,1.188,41.784,27.409,39.826,33.046,5.604,10.326,14.475
888,1.197,41.872,27.491,39.826,33.039,5.523,10.286,14.434
889,1.204,41.94,27.386,39.845,33.039,5.603,10.327,14.393
890,1.142,41.892,27.42,39.845,33.035,5.564,10.286,14.271
891,1.142,42.007,27.409,39.845,33.035,5.563,10.245,14.229
892,1.165,42.094,27.444,39.807,33.039,5.523,10.286,14.147
893,1.184,42.124,27.472,39.845,33.039,5.563,10.245,14.228
894,1.194,42.153,27.492,39.835,33.035,5.645,10.245,14.188
895,1.188,42.288,27.48,39.874,33.039,5.767,10.326,14.188
896,1.207,42.394,27.445,39.893,33.053,5.687,10.246,14.188
897,1.207,42.453,27.448,39.884,33.053,5.687,10.123,14.147
898,1.201,42.463,27.484,39.874,33.046,5.564,10.041,14.065
899,1.178,42.559,27.398,39.855,33.053,5.604,9.999,13.983
900,1.165,42.637,27.424,39.874,33.039,5.523,9.917,13.982
901,1.178,42.647,27.405,39.864,33.046,5.603,9.876,14.023
902,1.194,42.532,27.456,39.864,33.046,5.604,9.916,14.023
903,1.211,42.656,27.472,39.883,33.046,5.604,9.876,14.064
904,1.185,42.734,27.515,39.884,33.046,5.604,9.794,14.227
905,1.181,42.869,27.43,39.884,33.053,5.604,9.793,14.391
906,1.168,42.717,27.425,39.884,33.046,5.564,9.834,14.515
907,1.155,42.84,27.444,39.884,33.046,5.645,9.834,14.557
908,1.168,42.889,27.491,39.884,33.049,5.564,9.834,14.598
909,1.165,42.707,27.418,39.912,33.046,5.563,9.753,14.558
910,1.148,42.792,27.39,39.903,33.042,5.482,9.671,14.516
911,1.148,42.86,27.44,39.865,33.039,5.44,9.711,14.435
912,1.142,42.889,27.448,39.874,33.035,5.44,9.589,14.475
913,1.158,42.64,27.468,39.864,33.039,5.562,9.71,14.516
914,1.161,42.781,27.456,39.903,33.046,5.563,9.63,14.557
915,1.152,42.86,27.413,39.903,33.042,5.563,9.588,14.516
916,1.161,42.937,27.429,39.903,33.039,5.441,9.588,14.679
917,1.148,42.756,27.444,39.903,33.032,5.521,9.629,14.64
918,1.122,42.85,27.468,39.913,33.039,5.482,9.588,14.599
919,1.135,42.947,27.347,39.903,33.042,5.522,9.588,14.598
920,1.151,42.995,27.432,39.903,33.039,5.482,9.588,14.517
921,1.161,42.66,27.425,39.893,33.032,5.4,9.629,14.475
922,1.126,42.782,27.487,39.903,33.028,5.48,9.71,14.516
923,1.109,42.879,27.484,39.903,33.039,5.44,9.833,14.557
924,1.115,42.908,27.484,39.903,33.046,5.603,9.875,14.72
925,1.102,42.775,27.386,39.941,33.049,5.686,9.957,14.681
926,1.057,42.927,27.405,39.942,33.056,5.687,9.998,14.68
927,1.056,43.014,27.495,39.951,33.053,5.605,9.877,14.599
928,1.073,42.996,27.437,39.932,33.046,5.482,9.957,14.558
929,1.089,42.603,27.448,39.942,33.046,5.481,9.957,14.598
930,1.096,42.714,27.417,39.932,33.046,5.562,9.917,14.598
931,1.076,42.792,27.456,39.942,33.042,5.482,9.916,14.679
932,1.053,42.61,27.503,39.942,33.053,5.562,9.835,14.762
933,1.043,42.493,27.496,39.961,33.046,5.563,9.753,14.844
934,1.059,42.607,27.461,39.961,33.039,5.604,9.752,15.048
935,1.047,42.695,27.363,39.952,33.046,5.604,9.752,15.213
936,1.076,42.283,27.409,39.951,33.046,5.604,9.833,15.255
937,1.07,42.327,27.468,39.951,33.046,5.564,9.794,15.418
938,1.04,42.452,27.402,39.971,33.046,5.563,9.753,15.379
939,1.033,42.54,27.436,39.942,33.039,5.563,9.752,15.256
940,1.059,42.253,27.421,39.913,33.039,5.482,9.833,15.133
941,1.115,42.365,27.472,39.903,33.025,5.522,9.956,15.173
942,1.125,42.453,27.476,39.932,33.035,5.522,10.08,15.417
943,1.037,42.54,27.48,39.951,33.039,5.563,10.203,15.623
944,1.011,41.965,27.421,39.951,33.039,5.563,10.245,16.153
945,1.027,42.084,27.429,39.951,33.042,5.604,10.326,16.85
946,1.007,42.191,27.425,39.932,33.042,5.604,10.286,17.507
947,0.968,42.24,27.46,39.951,33.039,5.564,10.327,17.961
948,0.99,41.982,27.406,39.942,33.032,5.482,10.327,18.454
949,0.984,42.132,27.397,39.951,33.042,5.603,10.327,18.947
950,0.997,42.211,27.413,39.942,33.039,5.523,10.286,19.195
951,1.007,42.211,27.487,39.942,33.039,5.522,10.286,19.36
952,1.017,41.694,27.445,39.932,33.039,5.563,10.245,19.565
953,1.023,41.813,27.444,39.961,33.049,5.645,10.326,19.608
954,1.046,41.939,27.382,39.99,33.06,5.767,10.449,19.649
955,1.092,42.007,27.444,40.0,33.06,5.687,10.41,19.528
956,1.092,41.577,27.437,39.981,33.05,5.646,10.287,19.527
957,1.031,41.678,27.444,39.99,33.042,5.605,10.367,19.567
958,1.011,41.755,27.437,39.981,33.042,5.645,10.328,19.486
959,1.04,41.401,27.394,39.971,33.042,5.564,10.408,19.445
960,1.053,41.35,27.463,39.942,33.042,5.645,10.409,19.404
961,1.017,41.493,27.46,39.97,33.042,5.645,10.491,19.322
962,1.014,41.562,27.445,39.98,33.032,5.645,10.451,19.28
963,1.017,41.15,27.382,39.98,33.039,5.686,10.532,19.28
964,0.988,41.271,27.381,39.99,33.042,5.646,10.573,19.28
965,0.945,41.387,27.413,39.981,33.039,5.727,10.574,19.199
966,0.954,41.455,27.444,39.98,33.042,5.687,10.533,19.117
967,0.958,40.881,27.452,39.952,33.029,5.687,10.41,18.994
968,0.951,41.038,27.413,39.971,33.032,5.646,10.369,18.708
969,0.935,41.107,27.409,39.942,33.018,5.564,10.409,18.461
970,0.928,41.136,27.425,39.942,33.039,5.645,10.409,18.337
971,0.944,40.906,27.456,39.961,33.042,5.645,10.491,18.132
972,0.961,41.048,27.402,39.98,33.039,5.645,10.491,17.886
973,1.003,41.174,27.335,39.971,33.049,5.645,10.491,17.64
974,1.066,41.194,27.412,39.98,33.039,5.686,10.573,17.434
975,1.082,40.581,27.382,39.971,33.039,5.646,10.574,17.269
976,1.034,40.709,27.467,39.961,33.035,5.686,10.574,16.983
977,1.024,40.816,27.39,39.952,33.035,5.646,10.574,16.777
978,1.046,40.826,27.413,39.961,33.039,5.645,10.574,16.653
979,1.066,40.529,27.432,39.952,33.032,5.686,10.492,16.367
980,1.063,40.622,27.464,39.961,33.042,5.646,10.654,16.364
981,1.053,40.728,27.464,39.971,33.046,5.727,10.656,16.486
982,1.056,40.787,27.382,40.0,33.056,5.809,10.737,16.528
983,1.04,40.481,27.319,40.029,33.056,5.81,10.697,16.569
984,1.053,40.621,27.389,40.0,33.053,5.85,10.575,16.61
985,1.011,40.671,27.405,39.981,33.046,5.688,10.37,16.61
986,1.007,40.201,27.44,39.98,33.039,5.687,10.449,16.651
987,1.04,40.254,27.386,40.0,33.046,5.687,10.41,16.57
988,1.063,40.399,27.389,39.99,33.046,5.687,10.287,16.651
989,1.034,40.448,27.413,40.009,33.046,5.727,10.205,16.489
990,1.02,40.008,27.479,39.99,33.049,5.727,10.163,16.528
991,1.023,40.128,27.414,40.009,33.049,5.687,10.082,16.569
992,1.001,40.244,27.374,40.038,33.036,5.687,10.081,16.692
993,1.01,40.322,27.381,40.029,33.046,5.687,10.121,16.693
994,1.03,39.891,27.397,40.019,33.042,5.727,10.0,16.652
995,1.053,40.011,27.424,40.01,33.042,5.687,9.958,16.57
996,1.063,40.118,27.448,40.0,33.032,5.646,9.795,16.692
997,1.073,40.158,27.421,39.981,33.021,5.564,9.753,16.652
998,1.073,39.659,27.405,39.98,33.028,5.563,9.752,16.733
999,1.076,39.769,27.421,39.98,33.039,5.645,9.712,16.734
1000,1.06,39.895,27.436,40.009,33.039,5.605,9.67,16.734
1001,1.06,39.964,27.366,40.009,33.039,5.604,9.589,16.693
1002,1.086,39.466,27.405,40.0,33.035,5.645,9.507,16.611
1003,1.089,39.595,27.397,40.0,33.039,5.645,9.384,16.61
1004,1.04,39.683,27.413,40.0,33.039,5.605,9.342,16.529
1005,0.998,39.693,27.46,40.019,33.032,5.645,9.26,16.447
1006,1.01,39.501,27.437,40.01,33.035,5.645,9.137,16.406
1007,1.02,39.634,27.433,40.0,33.035,5.605,9.014,16.365
1008,1.03,39.731,27.39,40.009,33.032,5.604,9.054,16.283
1009,1.02,39.473,27.46,39.99,33.032,5.645,9.013,16.363
1010,1.033,39.317,27.433,40.0,33.039,5.727,8.972,16.323
1011,1.05,39.469,27.398,40.029,33.046,5.809,8.972,16.323
1012,1.089,39.576,27.393,40.038,33.056,5.85,8.972,16.201
1013,1.079,39.222,27.401,40.067,33.053,5.851,8.85,16.078
1014,1.037,39.305,27.417,40.058,33.046,5.769,8.767,15.873
1015,1.076,39.402,27.429,40.01,33.042,5.728,8.767,15.831
1016,1.07,39.45,27.46,40.029,33.039,5.727,8.848,15.79
1017,1.05,38.885,27.386,40.029,33.039,5.768,8.849,15.749
1018,1.05,39.004,27.413,40.019,33.039,5.768,8.93,15.667
1019,1.073,39.12,27.421,40.019,33.046,5.809,9.012,15.503
1020,1.083,39.198,27.433,40.029,33.042,5.769,9.013,15.461
1021,1.066,38.863,27.429,40.058,33.035,5.809,9.135,15.501
1022,1.086,38.994,27.394,40.058,33.042,5.81,9.217,15.664
1023,1.06,39.092,27.417,40.029,33.046,5.81,9.34,15.666
1024,1.069,39.15,27.432,40.048,33.039,5.81,9.504,15.829
1025,1.069,38.758,27.476,40.029,33.042,5.85,9.628,15.871
1026,1.05,38.878,27.406,40.058,33.035,5.769,9.792,15.912
1027,1.056,38.985,27.401,40.02,33.032,5.687,9.956,15.953
1028,1.053,39.005,27.413,40.019,33.028,5.727,10.161,15.953
1029,1.03,38.478,27.436,40.019,33.035,5.768,10.366,15.994
1030,1.017,38.636,27.398,40.048,33.035,5.809,10.612,15.954
1031,1.017,38.743,27.374,40.058,33.042,5.769,10.696,15.831
1032,1.01,38.773,27.385,40.039,33.042,5.809,10.859,15.749
1033,1.056,38.428,27.417,40.058,33.039,5.85,10.861,15.707
1034,1.079,38.539,27.448,40.039,33.032,5.688,10.983,15.829
1035,1.102,38.646,27.499,40.039,33.039,5.768,10.903,15.993
1036,1.106,38.283,27.371,40.048,33.039,5.687,10.902,16.076
1037,1.089,38.279,27.393,40.058,33.039,5.727,10.902,16.077
1038,1.092,38.375,27.417,40.039,33.035,5.809,10.861,16.117
1039,1.07,38.462,27.452,40.048,33.039,5.688,10.902,16.118
1040,1.082,38.031,27.331,40.077,33.039,5.687,10.983,16.158
1041,1.096,38.161,27.393,40.068,33.053,5.849,11.106,16.362
1042,1.07,38.278,27.432,40.087,33.049,5.891,11.148,16.405
1043,1.05,38.384,27.452,40.106,33.056,5.811,11.108,16.405
1044,1.066,37.954,27.515,40.097,33.039,5.81,10.985,16.365
1045,1.05,38.045,27.461,40.077,33.042,5.728,10.944,16.405
1046,1.033,38.162,27.445,40.068,33.032,5.727,10.984,16.324
1047,1.079,38.239,27.402,40.068,33.042,5.687,10.822,16.364
1048,1.096,37.722,27.456,40.068,33.042,5.768,10.82,16.283
1049,1.063,37.871,27.413,40.087,33.046,5.728,10.779,16.323
1050,1.073,37.978,27.393,40.087,33.039,5.687,10.698,16.242
1051,1.069,38.036,27.413,40.106,33.042,5.768,10.737,16.16
1052,1.047,37.567,27.409,40.097,33.046,5.768,10.738,16.159
1053,1.046,37.706,27.444,40.116,33.042,5.728,10.697,16.118
1054,1.056,37.813,27.46,40.126,33.046,5.809,10.656,16.077
1055,1.053,37.872,27.456,40.106,33.039,5.81,10.574,15.873
1056,1.05,37.527,27.445,40.097,33.029,5.688,10.533,15.871
1057,1.024,37.629,27.398,40.077,33.035,5.646,10.41,15.709
1058,1.023,37.697,27.452,40.077,33.035,5.605,10.409,15.788
1059,1.053,37.736,27.355,40.087,33.032,5.645,10.369,15.749
1060,1.063,37.401,27.401,40.116,33.042,5.686,10.368,15.707
1061,1.092,37.522,27.405,40.106,33.039,5.727,10.287,15.544
1062,1.089,37.639,27.428,40.106,33.039,5.687,10.245,15.583
1063,1.066,37.227,27.46,40.106,33.039,5.646,10.204,15.625
1064,1.056,37.252,27.452,40.106,33.039,5.686,10.082,15.666
1065,1.063,37.406,27.413,40.106,33.039,5.687,10.04,15.707
1066,1.03,37.494,27.39,40.116,33.039,5.646,9.999,15.707
1067,1.043,37.14,27.417,40.087,33.029,5.605,9.917,15.707
1068,1.011,37.261,27.409,40.116,33.032,5.564,9.835,15.788
1069,1.01,37.387,27.347,40.135,33.035,5.604,9.794,15.708
1070,1.02,37.474,27.389,40.135,33.039,5.686,9.753,15.748
1071,1.014,37.005,27.393,40.135,33.042,5.687,9.833,15.707
1072,1.004,37.135,27.444,40.154,33.039,5.768,9.794,15.666
1073,1.036,37.299,27.444,40.155,33.042,5.728,9.671,15.585
1074,1.076,37.349,27.507,40.183,33.039,5.687,9.589,15.421
1075,1.073,36.994,27.383,40.165,33.032,5.687,9.507,15.379
1076,1.096,37.135,27.381,40.155,33.039,5.605,9.425,15.338
1077,1.109,37.251,27.424,40.164,33.032,5.645,9.383,15.215
1078,1.109,37.271,27.425,40.155,33.039,5.605,9.382,15.174
1079,1.109,36.936,27.413,40.155,33.039,5.686,9.301,15.011
1080,1.119,37.076,27.374,40.174,33.039,5.564,9.301,15.009
1081,1.096,37.174,27.42,40.174,33.042,5.645,9.26,14.887
1082,1.079,37.204,27.444,40.174,33.042,5.564,9.259,15.008
1083,1.073,36.916,27.46,40.184,33.046,5.645,9.259,14.968
1084,1.083,37.047,27.425,40.174,33.039,5.605,9.178,15.009
1085,1.099,37.135,27.378,40.174,33.039,5.564,9.137,15.172
1086,1.089,37.05,27.397,40.164,33.039,5.482,9.014,14.97
1087,1.034,36.943,27.421,40.174,33.029,5.4,8.972,15.049
1088,0.985,37.057,27.417,40.145,33.032,5.358,8.931,15.091
1089,0.974,37.164,27.397,40.155,33.021,5.561,9.012,15.254
1090,0.997,36.762,27.397,40.183,33.039,5.563,8.932,15.215
1091,1.007,36.864,27.417,40.174,33.042,5.523,8.972,15.214
1092,1.004,36.98,27.46,40.184,33.032,5.482,8.891,15.255
1093,1.01,37.096,27.452,40.174,33.032,5.44,8.849,15.174
1094,1.007,36.877,27.441,40.184,33.032,5.481,8.971,15.173
1095,1.03,37.028,27.347,40.203,33.039,5.4,9.013,15.132
1096,1.033,37.164,27.373,40.174,33.032,5.48,9.013,15.01
1097,1.063,37.213,27.455,40.174,33.039,5.481,9.054,14.887
1098,1.047,36.772,27.382,40.193,33.032,5.4,9.095,14.845
1099,1.03,36.921,27.362,40.184,33.039,5.399,9.176,14.723
1100,1.053,37.028,27.393,40.184,33.039,5.48,9.259,14.762
1101,1.079,37.097,27.424,40.212,33.042,5.522,9.341,14.885
1102,1.063,36.858,27.46,40.222,33.046,5.563,9.464,15.048
1103,1.04,36.999,27.452,40.242,33.056,5.604,9.505,14.969
1104,1.079,37.135,27.429,40.242,33.053,5.564,9.384,14.968
1105,1.053,37.174,27.386,40.309,33.043,5.482,9.382,15.009
1106,1.053,37.012,27.393,40.214,33.042,5.481,9.342,14.968
1107,1.03,37.116,27.421,40.213,33.042,5.522,9.382,15.049
1108,1.024,37.251,27.39,40.222,33.039,5.563,9.423,14.969
1109,1.027,37.243,27.409,40.242,33.042,5.523,9.464,15.009
1110,1.04,37.022,27.409,40.232,33.039,5.522,9.587,15.009
1111,1.024,37.144,27.448,40.232,33.039,5.563,9.629,14.968
1112,1.023,37.251,27.429,40.232,33.039,5.563,9.67,15.09
1113,1.03,37.108,27.429,40.242,33.049,5.563,9.792,15.091
1114,1.014,37.145,27.366,40.242,33.039,5.604,9.834,15.091
1115,1.053,37.27,27.401,40.251,33.032,5.564,9.956,15.091
1116,1.053,37.358,27.397,40.261,33.039,5.604,9.998,15.172
1117,1.066,37.023,27.448,40.252,33.039,5.645,10.039,15.132
1118,1.066,37.135,27.413,40.271,33.029,5.483,10.08,14.969
1119,1.092,37.251,27.374,40.223,33.025,5.481,10.121,14.927
1120,1.092,37.291,27.424,40.203,33.025,5.481,10.203,15.008
1121,1.083,37.166,27.468,40.232,33.032,5.562,10.285,14.968
1122,1.07,37.309,27.417,40.242,33.032,5.523,10.205,15.009
1123,1.079,37.445,27.378,40.251,33.039,5.522,10.245,15.05
1124,1.053,37.513,27.295,40.261,33.035,5.603,10.286,15.05
1125,1.011,37.063,27.369,40.252,33.039,5.564,10.286,15.213
1126,1.027,37.183,27.373,40.242,33.032,5.482,10.205,15.214
1127,1.043,37.309,27.413,40.242,33.032,5.522,10.204,15.214
1128,1.066,37.378,27.382,40.261,33.032,5.563,10.163,15.255
1129,1.063,37.148,27.366,40.232,33.035,5.482,10.163,15.255
1130,1.063,37.28,27.428,40.242,33.028,5.522,10.204,15.255
1131,1.086,37.368,27.433,40.271,33.032,5.482,10.245,15.255
1132,1.135,37.407,27.409,40.271,33.039,5.562,10.326,15.296
1133,1.125,37.225,27.331,40.271,33.046,5.645,10.449,15.297
1134,1.119,37.367,27.322,40.319,33.049,5.727,10.572,15.174
1135,1.142,37.493,27.381,40.3,33.053,5.565,10.492,15.092
1136,1.135,37.657,27.436,40.29,33.039,5.523,10.491,14.969
1137,1.132,37.381,27.39,40.271,33.039,5.563,10.491,14.887
1138,1.135,37.484,27.381,40.271,33.042,5.523,10.573,14.845
1139,1.207,37.6,27.409,40.271,33.039,5.563,10.492,14.682
1140,1.168,37.371,27.421,40.28,33.039,5.523,10.491,14.721
1141,1.158,37.426,27.452,40.281,33.039,5.563,10.532,14.762
1142,1.145,37.561,27.382,40.281,33.042,5.645,10.492,14.803
1143,1.139,37.648,27.307,40.3,33.039,5.564,10.491,14.803
1144,1.158,37.266,27.353,40.3,33.042,5.563,10.41,14.885
1145,1.187,37.387,27.326,40.3,33.042,5.523,10.369,14.886
1146,1.184,37.512,27.424,40.281,33.039,5.603,10.287,14.967
1147,1.178,37.6,27.339,40.281,33.039,5.564,10.164,15.049
1148,1.201,37.313,27.4,40.29,33.032,5.523,10.163,15.05
1149,1.188,37.454,27.378,40.309,33.032,5.482,9.96,15.091
1150,1.194,37.542,27.436,40.262,33.032,5.4,9.917,15.254
1151,1.172,37.6,27.405,40.261,33.035,5.48,9.916,15.418
1152,1.178,37.342,27.331,40.29,33.042,5.562,9.916,15.46
1153,1.184,37.493,27.377,40.376,33.035,5.523,9.835,15.542
1154,1.188,37.59,27.342,40.31,33.046,5.603,9.672,15.502
1155,1.178,37.61,27.381,40.3,33.032,5.564,9.629,15.583
1156,1.175,37.428,27.417,40.281,33.035,5.523,9.588,15.543
1157,1.197,37.57,27.409,40.348,33.028,5.522,9.425,15.421
1158,1.253,37.658,27.374,40.291,33.032,5.482,9.383,15.42
1159,1.283,37.669,27.432,40.281,33.035,5.44,9.261,15.257
1160,1.273,37.304,27.448,40.281,33.032,5.521,9.178,15.215
1161,1.27,37.425,27.363,40.281,33.035,5.482,9.096,15.174
1162,1.263,37.57,27.358,40.319,33.042,5.603,9.176,15.132
1163,1.257,37.486,27.369,40.348,33.046,5.686,9.137,15.213
1164,1.253,37.408,27.401,40.339,33.049,5.687,9.095,15.133
1165,1.302,37.522,27.385,40.329,33.056,5.605,8.932,15.173
1166,1.28,37.61,27.409,40.319,33.039,5.564,8.85,15.092
1167,1.267,37.333,27.401,40.31,33.039,5.563,8.767,15.172
1168,1.267,37.426,27.37,40.31,33.018,5.563,8.726,15.092
1169,1.27,37.561,27.44,40.329,33.039,5.645,8.644,15.091
1170,1.267,37.629,27.429,40.329,33.035,5.605,8.644,15.01
1171,1.286,37.237,27.374,40.319,33.042,5.523,8.521,14.928
1172,1.277,37.386,27.389,40.405,33.039,5.563,8.52,14.846
1173,1.296,37.503,27.37,40.32,33.039,5.563,8.479,14.763
1174,1.332,37.571,27.381,40.329,33.039,5.645,8.642,14.681
1175,1.326,37.14,27.385,40.348,33.039,5.645,8.562,14.599
1176,1.287,37.251,27.413,40.329,33.042,5.645,8.439,14.436
1177,1.316,37.377,27.374,40.329,33.029,5.523,8.479,14.353
1178,1.316,37.417,27.389,40.31,33.028,5.482,8.398,14.271
1179,1.313,37.053,27.417,40.29,33.032,5.522,8.478,14.27
1180,1.319,37.183,27.405,40.328,33.039,5.603,8.52,14.229
1181,1.335,37.328,27.319,40.329,33.035,5.564,8.479,14.351
1182,1.352,37.368,27.365,40.329,33.035,5.604,8.438,14.433
1183,1.332,37.273,27.389,40.319,33.042,5.645,8.601,14.475
1184,1.313,37.387,27.393,40.358,33.039,5.645,8.643,14.556
1185,1.306,37.512,27.44,40.329,33.039,5.564,8.603,14.679
1186,1.286,37.504,27.401,40.329,33.022,5.645,8.724,14.802
1187,1.273,37.015,27.389,40.329,33.025,5.686,8.726,14.844
1188,1.27,37.135,27.366,40.319,33.021,5.646,8.766,14.845
1189,1.276,37.242,27.412,40.319,33.032,5.645,8.807,14.967
1190,1.263,37.099,27.397,40.329,33.032,5.645,8.848,15.049
1191,1.224,37.126,27.257,40.367,33.039,5.686,8.93,15.05
1192,1.211,37.261,27.38,40.348,33.039,5.809,9.012,15.009
1193,1.211,37.367,27.389,40.377,33.039,5.81,9.013,14.968
1194,1.214,36.899,27.421,40.368,33.046,5.81,8.972,14.927
1195,1.201,37.009,27.433,40.358,33.032,5.728,8.931,14.967
1196,1.188,37.096,27.374,40.348,33.032,5.727,8.89,14.887
1197,1.227,37.184,27.389,40.348,33.032,5.687,8.849,14.804
1198,1.214,36.772,27.393,40.348,33.025,5.768,8.849,14.763
1199,1.198,36.893,27.424,40.348,33.035,5.728,8.849,14.681
1200,1.207,37.038,27.331,40.329,33.028,5.687,8.808,14.68
1201,1.201,37.116,27.369,40.348,33.035,5.727,8.808,14.558
1202,1.162,36.647,27.373,40.348,33.039,5.809,8.686,14.516
1203,1.135,36.786,27.385,40.358,33.039,5.85,8.684,14.597
1204,1.135,36.902,27.428,40.348,33.032,5.81,8.684,14.679
1205,1.132,36.98,27.46,40.348,33.039,5.728,8.725,14.924
1206,1.09,36.684,27.37,40.348,33.039,5.809,8.685,15.008
1207,1.063,36.834,27.366,40.339,33.039,5.647,8.562,14.968
1208,1.056,36.922,27.389,40.329,33.032,5.645,8.764,15.09
1209,1.03,36.933,27.409,40.319,33.032,5.686,8.848,15.254
1210,0.984,36.568,27.335,40.348,33.039,5.727,8.971,15.255
1211,1.01,36.747,27.381,40.367,33.039,5.687,9.053,15.255
1212,1.017,36.844,27.346,40.358,33.032,5.687,9.095,15.255
1213,1.027,37.018,27.397,40.368,33.028,5.605,9.258,15.215
1214,1.02,36.444,27.428,40.358,33.028,5.686,9.341,15.174
1215,1.036,36.535,27.448,40.368,33.035,5.646,9.423,15.132
1216,1.033,36.66,27.378,40.358,33.035,5.605,9.464,15.132
1217,1.098,36.297,27.362,40.358,33.028,5.686,9.587,15.173
1218,1.083,36.341,27.42,40.339,33.028,5.605,9.629,15.132
1219,1.063,36.457,27.401,40.358,33.028,5.645,9.629,15.051
1220,1.024,36.583,27.382,40.377,33.039,5.686,9.832,15.091
1221,1.049,36.181,27.362,40.387,33.042,5.768,9.916,15.294
1222,1.056,36.34,27.381,40.425,33.049,5.728,9.998,15.297
1223,1.043,36.476,27.448,40.407,33.049,5.85,9.917,15.297
1224,1.04,36.564,27.421,40.387,33.039,5.688,9.794,15.337
1225,1.043,36.123,27.448,40.377,33.029,5.809,9.834,15.419
1226,1.04,36.263,27.378,40.387,33.039,5.688,9.794,15.46
1227,1.017,36.399,27.381,40.387,33.032,5.727,9.915,15.542
1228,1.01,36.448,27.409,40.397,33.032,5.727,9.835,15.543
1229,1.01,36.17,27.358,40.397,33.039,5.727,9.834,15.624
1230,1.004,36.311,27.35,40.387,33.039,5.85,9.834,15.584
1231,1.014,36.428,27.373,40.406,33.042,5.729,9.753,15.421
1232,1.02,36.477,27.416,40.406,33.042,5.809,9.752,15.501
1233,1.023,35.988,27.44,40.406,33.042,5.769,9.915,15.42
1234,1.03,36.137,27.468,40.406,33.039,5.85,9.754,15.216
1235,1.04,36.234,27.421,40.387,33.042,5.769,9.712,15.174
1236,1.027,36.274,27.39,40.397,33.029,5.768,9.589,15.011
1237,1.03,35.862,27.358,40.378,33.028,5.687,9.547,14.968
1238,1.011,35.963,27.389,40.368,33.025,5.687,9.506,14.887
1239,1.01,36.079,27.342,40.387,33.032,5.809,9.587,14.764
1240,1.049,35.984,27.358,40.397,33.035,5.81,9.588,14.681
1241,1.066,35.811,27.385,40.397,33.028,5.769,9.547,14.68
1242,1.066,35.934,27.397,40.397,33.028,5.768,9.425,14.558
1243,1.011,36.031,27.452,40.387,33.025,5.809,9.505,14.557
1244,0.971,35.667,27.394,40.406,33.028,5.769,9.546,14.516
1245,0.958,35.75,27.339,40.387,33.028,5.768,9.547,14.435
1246,0.958,35.895,27.346,40.397,33.025,5.728,9.588,14.393
1247,0.954,35.973,27.385,40.387,33.035,5.809,9.71,14.393
1248,0.928,35.581,27.385,40.397,33.032,5.769,9.874,14.352
1249,0.954,35.74,27.35,40.416,33.032,5.809,9.997,14.311
1250,1.01,35.885,27.373,40.416,33.039,5.891,10.243,14.311
1251,1.046,35.973,27.37,40.435,33.046,6.014,10.448,14.27
1252,1.056,35.437,27.463,40.445,33.053,5.974,10.532,14.148
1253,1.034,35.594,27.46,40.464,33.046,5.933,10.573,14.024
1254,1.027,35.701,27.413,40.417,33.022,5.852,10.696,13.942
1255,1.007,35.741,27.374,40.445,33.025,5.891,10.737,13.9
1256,1.046,35.425,27.35,40.435,33.039,5.811,10.9,13.859
1257,1.066,35.575,27.412,40.435,33.042,5.85,10.902,13.818
1258,1.108,35.701,27.319,40.416,33.032,5.851,10.943,13.777
1259,1.106,35.741,27.365,40.435,33.042,5.932,11.024,13.696
1260,1.089,35.339,27.35,40.435,33.046,5.892,10.985,13.695
1261,1.04,35.478,27.408,40.416,33.036,5.892,11.025,13.735
1262,1.03,35.576,27.471,40.426,33.039,5.933,11.025,13.858
1263,1.024,35.615,27.406,40.435,33.039,5.892,11.025,13.778
1264,1.059,35.241,27.358,40.416,33.035,5.851,10.985,13.696
1265,1.056,35.333,27.35,40.406,33.028,5.769,10.903,13.776
1266,1.021,35.44,27.365,40.416,33.025,5.809,10.943,13.858
1267,0.991,35.211,27.381,40.406,33.035,5.891,10.943,14.022
1268,1.0,35.237,27.331,40.464,33.028,5.892,10.943,14.064
1269,0.984,35.362,27.357,40.445,33.039,5.892,10.781,14.227
1270,1.017,35.459,27.358,40.426,33.032,5.933,10.82,14.269
1271,1.043,34.923,27.428,40.435,33.032,5.852,10.739,14.31
1272,1.017,35.033,27.405,40.435,33.028,5.891,10.657,14.351
1273,1.04,35.14,27.366,40.426,33.032,5.851,10.574,14.352
1274,1.037,35.237,27.295,40.416,33.032,5.851,10.492,14.352
1275,1.007,34.902,27.361,40.416,33.028,5.81,10.491,14.352
1276,1.004,35.071,27.381,40.435,33.039,5.85,10.451,14.474
1277,0.987,35.169,27.397,40.455,33.042,5.891,10.491,14.516
1278,0.991,35.285,27.389,40.474,33.046,6.014,10.491,14.557
1279,1.017,34.787,27.358,40.455,33.049,6.056,10.532,14.598
1280,1.03,34.945,27.42,40.455,33.046,6.015,10.451,14.395
1281,1.04,35.091,27.433,40.474,33.042,5.893,10.328,14.352
1282,1.027,35.111,27.382,40.445,33.042,5.892,10.327,14.352
1283,1.023,34.882,27.323,40.455,33.032,5.933,10.368,14.555
1284,1.049,35.013,27.299,40.464,33.039,5.892,10.409,14.801
1285,1.092,35.149,27.342,40.445,33.039,5.892,10.45,15.21
1286,1.112,35.179,27.381,40.445,33.039,5.933,10.491,15.499
1287,1.119,34.738,27.385,40.445,33.042,5.892,10.491,15.786
1288,1.145,34.897,27.381,40.455,33.042,5.892,10.491,15.952
1289,1.148,35.014,27.381,40.464,33.046,5.973,10.491,16.076
1290,1.174,35.274,27.428,40.464,33.042,5.974,10.491,16.321
1291,1.22,34.711,27.433,40.484,33.039,5.933,10.532,16.404
1292,1.279,34.849,27.374,40.474,33.035,5.892,10.451,16.365
1293,1.329,34.956,27.288,40.465,33.039,5.811,10.328,16.364
1294,1.293,34.544,27.334,40.436,33.029,5.728,10.205,16.364
1295,1.338,34.55,27.299,40.426,33.025,5.768,10.123,16.405
1296,1.391,34.675,27.388,40.426,33.032,5.809,10.203,16.405
1297,1.45,34.791,27.327,40.483,33.042,5.85,10.163,16.324
1298,1.49,34.389,27.35,40.474,33.039,5.81,10.204,16.242
1299,1.526,34.5,27.397,40.465,33.032,5.81,10.001,16.119
1300,1.533,34.645,27.382,40.455,33.032,5.769,9.999,15.996
1301,1.562,34.743,27.397,40.455,33.025,5.809,9.836,16.035
1302,1.585,34.418,27.288,40.455,33.028,5.769,9.916,16.117
1303,1.608,34.577,27.232,40.483,33.018,5.809,9.754,16.158
1304,1.657,34.704,27.325,40.484,33.025,5.769,9.671,16.2
1305,1.674,34.762,27.361,40.445,33.028,5.728,9.589,16.2
1306,1.697,34.312,27.401,40.474,33.032,5.809,9.629,16.322
1307,1.697,34.461,27.331,40.455,33.035,5.769,9.548,16.323
1308,1.713,34.578,27.365,40.493,33.039,5.809,9.628,16.364
1309,1.736,34.656,27.381,40.513,33.042,5.891,9.629,16.283
1310,1.769,34.321,27.444,40.494,33.053,5.933,9.629,16.201
1311,1.838,34.471,27.351,40.522,33.049,5.892,9.507,15.997
1312,1.92,34.578,27.323,40.503,33.039,5.77,9.465,15.832
1313,1.917,34.589,27.361,40.57,33.039,5.728,9.383,15.708
1314,1.868,34.195,27.334,40.485,33.035,5.768,9.382,15.626
1315,1.832,34.355,27.369,40.493,33.032,5.85,9.301,15.503
1316,1.789,34.462,27.373,40.503,33.039,5.81,9.219,15.38
1317,1.737,34.367,27.393,40.58,33.039,5.769,9.178,15.256
1318,1.649,34.174,27.358,40.514,33.042,5.728,9.259,15.174
1319,1.553,34.306,27.401,40.503,33.039,5.809,9.178,15.051
1320,1.426,34.404,27.421,40.494,33.039,5.81,9.137,14.969
1321,1.307,34.031,27.323,40.503,33.039,5.81,9.177,14.968
1322,1.202,34.123,27.35,40.609,33.049,5.85,9.137,15.049
1323,1.136,34.268,27.35,40.495,33.039,5.729,9.177,15.009
1324,1.077,34.365,27.346,40.503,33.032,5.687,9.096,14.968
1325,1.03,33.982,27.369,40.484,33.028,5.646,9.095,15.009
1326,1.03,34.093,27.377,40.474,33.028,5.686,9.095,15.131
1327,1.027,34.238,27.389,40.484,33.028,5.768,9.258,15.091
1328,1.043,34.345,27.366,40.503,33.039,5.728,9.219,15.05
1329,1.056,34.299,27.409,40.513,33.039,5.768,9.34,15.009
1330,1.03,34.451,27.409,40.513,33.032,5.687,9.26,14.928
1331,1.004,34.587,27.296,40.522,33.039,5.727,9.259,14.805
1332,1.007,34.637,27.365,40.503,33.039,5.727,9.219,14.763
1333,1.001,33.678,27.327,40.503,33.032,5.727,9.218,14.681
1334,0.939,33.812,27.365,40.494,33.025,5.646,9.178,14.518
1335,0.906,33.929,27.385,40.493,33.028,5.645,9.218,14.475
1336,0.947,33.978,27.366,40.513,33.032,5.686,9.137,14.516
1337,0.967,33.815,27.381,40.522,33.032,5.687,9.258,14.597
1338,0.932,33.967,27.358,40.523,33.046,5.727,9.259,14.598
1339,0.928,34.093,27.412,40.542,33.046,5.809,9.341,14.679
1340,0.935,34.162,27.343,40.551,33.046,5.81,9.382,14.558
1341,0.954,33.76,27.389,40.609,33.053,5.81,9.261,14.476
1342,0.967,33.89,27.339,40.533,33.036,5.728,9.3,14.434
1343,0.968,33.997,27.373,40.532,33.039,5.646,9.341,14.393
1344,0.987,33.758,27.393,40.532,33.039,5.605,9.301,14.556
1345,0.968,33.689,27.413,40.532,33.039,5.645,9.341,14.76
1346,0.974,33.832,27.366,40.532,33.039,5.686,9.382,14.844
1347,0.997,33.939,27.346,40.532,33.039,5.646,9.301,14.926
1348,1.0,33.547,27.389,40.532,33.035,5.645,9.301,15.008
1349,1.01,33.667,27.405,40.551,33.039,5.727,9.341,14.968
1350,1.036,33.822,27.339,40.542,33.039,5.687,9.382,14.927
1351,1.04,33.929,27.361,40.561,33.039,5.727,9.505,14.886
1352,1.043,33.441,27.338,40.542,33.039,5.727,9.425,14.886
1353,1.082,33.589,27.404,40.551,33.039,5.646,9.424,14.764
1354,1.076,33.706,27.374,40.542,33.029,5.605,9.342,14.559
1355,1.076,33.765,27.428,40.513,33.032,5.604,9.342,14.395
1356,1.109,33.363,27.327,40.522,33.021,5.604,9.342,14.515
1357,1.119,33.541,27.357,40.561,33.032,5.645,9.464,14.353
1358,1.119,33.658,27.393,40.552,33.032,5.686,9.465,14.311
1359,1.135,33.736,27.362,40.561,33.042,5.564,9.465,14.351
1360,1.135,33.334,27.28,40.561,33.039,5.604,9.424,14.433
1361,1.158,33.454,27.314,40.552,33.035,5.564,9.342,14.719
1362,1.155,33.59,27.338,40.542,33.032,5.645,9.423,14.965
1363,1.142,33.629,27.389,40.542,33.039,5.645,9.424,15.293
1364,1.129,33.313,27.424,40.551,33.025,5.645,9.383,15.54
1365,1.112,33.464,27.444,40.561,33.025,5.564,9.382,15.746
1366,1.112,33.59,27.366,40.561,33.018,5.645,9.423,15.87
1367,1.102,33.907,27.366,40.561,33.028,5.605,9.383,16.034
1368,1.132,33.297,27.428,40.561,33.039,5.604,9.464,16.158
1369,1.116,33.435,27.347,40.58,33.039,5.726,9.505,16.24
1370,1.141,33.57,27.381,40.6,33.046,5.768,9.628,16.241
1371,1.155,33.284,27.358,40.609,33.049,5.687,9.507,16.16
1372,1.158,33.329,27.373,40.61,33.029,5.605,9.384,16.037
1373,1.174,33.445,27.381,40.571,33.032,5.645,9.423,15.995
1374,1.142,33.532,27.397,40.571,33.021,5.645,9.424,15.872
1375,1.142,33.149,27.397,40.571,33.039,5.645,9.383,15.79
1376,1.142,33.299,27.339,40.6,33.039,5.605,9.382,15.789
1377,1.142,33.425,27.377,40.59,33.025,5.686,9.423,15.708
1378,1.142,33.532,27.397,40.6,33.042,5.605,9.383,15.666
1379,1.165,32.948,27.343,40.619,33.039,5.645,9.464,15.544
1380,1.168,33.124,27.346,40.619,33.042,5.564,9.424,15.502
1381,1.162,33.232,27.365,40.61,33.042,5.604,9.505,15.42
1382,1.187,33.329,27.397,40.61,33.032,5.645,9.506,15.298
1383,1.204,33.128,27.405,40.59,33.028,5.564,9.506,15.174
1384,1.152,33.279,27.436,40.59,33.025,5.523,9.465,15.092
1385,1.119,33.396,27.359,40.571,33.014,5.482,9.505,15.091
1386,1.132,33.455,27.366,40.571,33.025,5.522,9.587,15.172
1387,1.158,33.331,27.338,40.581,33.021,5.603,9.71,15.132
1388,1.132,33.492,27.42,40.6,33.011,5.645,9.67,15.173
1389,1.145,33.619,27.331,40.619,33.011,5.605,9.629,14.97
1390,1.142,33.658,27.361,40.6,33.018,5.645,9.67,14.968
1391,1.132,32.882,27.366,40.6,33.011,5.564,9.751,14.887
1392,1.145,33.009,27.393,40.609,33.014,5.563,9.915,14.845
1393,1.181,33.134,27.409,40.61,33.011,5.563,9.957,14.804
1394,1.214,33.155,27.389,40.6,33.007,5.604,9.998,14.803
1395,1.181,32.935,27.346,40.581,33.014,5.523,10.121,14.803
1396,1.126,33.086,27.326,40.59,33.014,5.522,10.163,14.803
1397,1.168,33.202,27.381,40.6,33.011,5.603,10.285,14.844
1398,1.181,32.82,27.354,40.609,33.021,5.645,10.367,14.845
1399,1.175,32.912,27.369,40.61,33.025,5.605,10.49,14.845
1400,1.181,33.066,27.334,40.638,33.039,5.726,10.654,15.007
1401,1.171,33.202,27.369,40.639,33.032,5.727,10.615,15.212
1402,1.194,32.83,27.448,40.629,33.032,5.768,10.574,15.336
1403,1.214,32.97,27.413,40.61,33.025,5.647,10.574,15.541
1404,1.194,33.067,27.397,40.6,33.025,5.645,10.574,15.746
1405,1.204,33.154,27.335,40.619,33.032,5.645,10.574,15.951
1406,1.198,32.714,27.35,40.591,33.032,5.645,10.533,16.116
1407,1.185,32.882,27.408,40.6,33.025,5.645,10.492,16.321
1408,1.171,33.018,27.347,40.609,33.032,5.645,10.451,16.404
1409,1.181,33.106,27.369,40.619,33.025,5.645,10.45,16.324
1410,1.155,32.656,27.334,40.61,33.028,5.605,10.45,16.364
1411,1.174,32.824,27.389,40.61,33.039,5.645,10.41,16.364
1412,1.175,32.931,27.432,40.619,33.039,5.686,10.409,16.283
1413,1.184,32.99,27.398,40.619,33.042,5.727,10.247,16.079
1414,1.178,32.703,27.37,40.61,33.039,5.727,10.082,15.995
1415,1.204,32.844,27.28,40.619,33.032,5.605,9.999,15.832
1416,1.227,32.941,27.341,40.581,33.028,5.564,9.917,15.708
1417,1.214,32.971,27.365,40.561,33.025,5.604,9.998,15.748
1418,1.224,32.578,27.295,40.6,33.028,5.604,10.08,15.667
1419,1.221,32.756,27.318,40.6,33.032,5.645,10.121,15.503
1420,1.211,32.873,27.361,40.581,33.035,5.645,10.203,15.339
1421,1.217,32.682,27.389,40.581,33.032,5.645,10.326,15.256
1422,1.185,32.585,27.397,40.6,33.039,5.645,10.408,15.133
1423,1.197,32.737,27.397,40.581,33.029,5.645,10.531,15.213
1424,1.191,32.844,27.323,40.59,33.025,5.523,10.532,15.214
1425,1.175,32.519,27.35,40.6,33.032,5.644,10.573,15.255
1426,1.181,32.641,27.319,40.581,33.032,5.523,10.574,15.255
1427,1.188,32.766,27.396,40.571,33.021,5.603,10.614,15.377
1428,1.194,32.854,27.292,40.619,33.035,5.564,10.696,15.297
1429,1.207,32.356,27.31,40.61,33.039,5.645,10.859,15.5
1430,1.207,32.514,27.381,40.629,33.042,5.767,10.942,15.38
1431,1.22,32.669,27.397,40.629,33.053,5.728,11.065,15.297
1432,1.224,32.767,27.424,40.648,33.049,5.768,11.107,15.215
1433,1.234,32.451,27.394,40.61,33.039,5.606,11.067,15.133
1434,1.214,32.573,27.307,40.61,33.035,5.604,11.188,15.091
1435,1.191,32.708,27.349,40.59,33.032,5.604,11.189,15.091
1436,1.201,32.777,27.334,40.609,33.032,5.686,11.149,15.132
1437,1.214,32.317,27.393,40.6,33.032,5.605,11.271,15.01
1438,1.237,32.495,27.342,40.609,33.035,5.604,11.312,14.968
1439,1.299,32.631,27.338,40.6,33.028,5.604,11.11,14.887
1440,1.325,32.68,27.385,40.619,33.039,5.645,11.148,14.845
1441,1.309,32.249,27.397,40.629,33.039,5.645,11.149,14.763
1442,1.29,32.388,27.378,40.619,33.039,5.564,11.067,14.64
1443,1.293,32.534,27.319,40.619,33.042,5.726,11.026,14.68
1444,1.26,32.574,27.271,40.638,33.039,5.605,10.903,14.721
1445,1.254,32.488,27.341,40.61,33.032,5.564,10.821,14.64
1446,1.253,32.631,27.377,40.61,33.025,5.563,10.698,14.558
1447,1.247,32.757,27.366,40.581,33.025,5.523,10.575,14.557
1448,1.253,32.259,27.323,40.581,33.025,5.482,10.574,14.557
1449,1.247,32.197,27.342,40.59,33.025,5.603,10.614,14.598
1450,1.237,32.369,27.373,40.6,33.035,5.604,10.574,14.517
1451,1.27,32.476,27.428,40.629,33.032,5.604,10.492,14.557
1452,1.28,32.103,27.351,40.61,33.032,5.645,10.451,14.354
1453,1.276,32.243,27.287,40.61,33.032,5.605,10.41,14.352
1454,1.286,32.379,27.322,40.677,33.032,5.564,10.328,14.393
1455,1.309,32.467,27.342,40.62,33.025,5.563,10.286,14.312
1456,1.316,32.026,27.385,40.6,33.025,5.523,10.327,14.229
1457,1.254,32.175,27.327,40.581,33.032,5.482,10.286,14.31
1458,1.234,32.33,27.326,40.6,33.028,5.522,10.245,14.311
1459,1.273,32.409,27.33,40.59,33.032,5.522,10.367,14.229
1460,1.267,31.987,27.404,40.609,33.032,5.644,10.287,14.391
1461,1.299,32.137,27.366,40.619,33.042,5.686,10.408,14.434
1462,1.296,32.301,27.342,40.638,33.046,5.727,10.369,14.719
1463,1.283,32.399,27.244,40.639,33.046,5.687,10.246,14.925
1464,1.26,32.131,27.325,40.62,33.039,5.646,10.164,15.415
1465,1.26,32.263,27.322,40.638,33.029,5.523,10.204,15.867
1466,1.283,32.389,27.369,40.61,33.039,5.563,10.245,16.359
1467,1.299,32.428,27.327,40.619,33.032,5.645,10.204,16.811
1468,1.273,32.007,27.314,40.6,33.035,5.645,10.245,17.263
1469,1.263,32.137,27.361,40.619,33.039,5.686,10.245,17.715
1470,1.28,32.253,27.405,40.629,33.032,5.646,10.367,18.207
1471,1.325,32.35,27.335,40.619,33.039,5.605,10.287,18.537
1472,1.316,31.968,27.291,40.619,33.042,5.604,10.286,18.825
1473,1.358,32.108,27.302,40.619,33.042,5.604,10.286,19.072
1474,1.372,32.234,27.326,40.638,33.039,5.645,10.286,19.278
1475,1.362,31.947,27.33,40.61,33.032,5.686,10.286,19.483
1476,1.342,32.021,27.385,40.619,33.032,5.646,10.123,19.404
1477,1.368,32.147,27.35,40.619,33.025,5.564,10.041,19.484
1478,1.378,32.244,27.315,40.591,33.021,5.441,9.999,19.485
1479,1.388,31.794,27.381,40.571,33.028,5.562,10.08,19.485
1480,1.375,31.943,27.366,40.6,33.035,5.645,10.081,19.323
1481,1.382,32.098,27.342,40.619,33.039,5.564,10.04,19.24
1482,1.365,32.214,27.33,40.61,33.039,5.685,10.04,19.036
1483,1.349,31.957,27.346,40.6,33.035,5.605,9.999,18.952
1484,1.326,32.117,27.342,40.6,33.032,5.604,9.917,18.911
1485,1.348,32.234,27.326,40.609,33.028,5.645,9.916,18.87
1486,1.352,32.331,27.365,40.61,33.032,5.645,9.835,18.747
1487,1.352,31.977,27.338,40.59,33.028,5.605,9.794,18.705
1488,1.336,32.146,27.354,40.6,33.028,5.645,9.753,18.624
1489,1.332,32.263,27.369,40.6,33.028,5.605,9.752,18.542
1490,1.326,32.302,27.373,40.619,33.028,5.645,9.793,18.622
1491,1.348,32.178,27.288,40.619,33.042,5.727,9.753,18.826
1492,1.365,32.34,27.361,40.638,33.046,5.809,9.833,18.909
1493,1.362,32.466,27.327,40.648,33.042,5.85,9.794,19.032
1494,1.375,32.515,27.373,40.667,33.046,5.81,9.753,19.074
1495,1.359,32.487,27.405,40.639,33.032,5.688,9.63,19.075
1496,1.359,32.602,27.358,40.61,33.028,5.646,9.629,19.156
1497,1.372,32.728,27.366,40.619,33.028,5.645,9.588,19.076
1498,1.385,32.786,27.338,40.61,33.028,5.605,9.547,18.953
1499,1.391,32.768,27.397,40.619,33.039,5.645,9.466,18.789
1500,1.391,32.931,27.358,40.619,33.039,5.686,9.383,18.828
1501,1.398,32.999,27.338,40.638,33.039,5.646,9.382,18.869
1502,1.424,33.106,27.338,40.629,33.039,5.686,9.342,18.829
1503,1.431,33.241,27.322,40.629,33.039,5.646,9.423,18.95
1504,1.434,33.386,27.361,40.639,33.039,5.727,9.424,18.952
1505,1.405,33.474,27.369,40.639,33.042,5.687,9.505,18.911
1506,1.421,33.551,27.35,40.62,33.039,5.605,9.587,18.707
1507,1.444,33.706,27.346,40.61,33.032,5.564,9.629,18.624
1508,1.418,33.822,27.346,40.6,33.025,5.482,9.67,18.542
1509,1.392,33.891,27.365,40.59,33.021,5.562,9.833,18.419
1510,1.372,34.284,27.288,40.619,33.028,5.563,9.875,18.295
1511,1.388,34.461,27.334,40.734,33.039,5.645,10.038,18.05
1512,1.395,34.559,27.283,40.62,33.032,5.645,10.08,17.926
1513,1.404,34.617,27.337,40.619,33.032,5.605,10.203,17.559
1514,1.444,34.925,27.361,40.629,33.035,5.645,10.245,17.352
1515,1.454,35.052,27.381,40.6,33.028,5.564,10.245,17.187
1516,1.434,35.149,27.358,40.609,33.028,5.604,10.245,17.063
1517,1.428,35.179,27.342,40.61,33.025,5.645,10.286,16.94
1518,1.46,35.63,27.369,40.6,33.028,5.564,10.245,16.98
1519,1.49,35.74,27.381,40.619,33.021,5.563,10.245,16.939
1520,1.457,35.847,27.307,40.61,33.032,5.645,10.245,17.224
1521,1.421,35.877,27.342,40.629,33.039,5.686,10.286,17.633
1522,1.431,36.443,27.319,40.658,33.042,5.727,10.327,18.003
1523,1.441,36.583,27.396,40.668,33.046,5.727,10.205,18.129
1524,1.454,36.67,27.374,40.658,33.046,5.687,10.041,18.415
1525,1.444,37.035,27.401,40.62,33.039,5.564,10.04,18.621
1526,1.398,37.212,27.292,40.638,33.032,5.604,9.999,18.664
1527,1.385,37.348,27.334,40.639,33.042,5.645,9.999,18.705
1528,1.404,37.416,27.385,40.639,33.029,5.645,9.917,18.664
1529,1.418,38.529,27.35,40.629,33.035,5.645,9.957,18.623
1530,1.447,38.723,27.26,40.648,33.042,5.645,10.039,18.501
1531,1.415,38.82,27.31,40.648,33.039,5.645,9.999,18.418
1532,1.388,38.869,27.326,40.648,33.042,5.645,10.161,18.377
1533,1.43,38.39,27.385,40.648,33.035,5.645,10.163,18.214
1534,1.437,38.501,27.397,40.629,33.039,5.564,10.366,18.05
1535,1.431,38.588,27.424,40.639,33.039,5.604,10.49,17.804
1536,1.431,38.646,27.351,40.62,33.025,5.523,10.614,17.598
1537,1.431,39.357,27.338,40.61,33.025,5.4,10.777,17.556
1538,1.418,39.45,27.397,40.6,33.028,5.521,11.064,17.555
1539,1.431,39.576,27.331,40.629,33.028,5.522,11.27,17.392
1540,1.444,39.615,27.361,40.639,33.032,5.563,11.312,17.269
1541,1.464,39.798,27.319,40.639,33.032,5.523,11.394,17.146
1542,1.454,39.915,27.357,40.62,33.032,5.522,11.395,17.022
1543,1.441,40.002,27.373,40.619,33.032,5.482,11.436,16.94
1544,1.428,40.013,27.389,40.629,33.032,5.481,11.477,16.939
1545,1.415,40.368,27.385,40.619,33.032,5.481,11.396,16.898
1546,1.405,40.505,27.331,40.629,33.028,5.4,11.314,16.817
1547,1.431,40.593,27.35,40.619,33.025,5.399,11.353,16.816
1548,1.418,40.872,27.35,40.619,33.039,5.399,11.273,16.775
1549,1.414,40.798,27.315,40.619,33.032,5.48,11.272,16.775
1550,1.427,40.912,27.346,40.677,33.039,5.522,11.231,16.694
1551,1.441,41.0,27.33,40.668,33.049,5.603,11.19,16.571
1552,1.434,41.145,27.396,40.677,33.042,5.564,11.108,16.325
1553,1.428,41.261,27.374,40.658,33.035,5.482,11.026,16.201
1554,1.402,41.32,27.424,40.639,33.039,5.522,11.025,16.241
1555,1.427,41.387,27.343,40.629,33.039,5.482,10.985,16.2
1556,1.431,41.474,27.338,40.648,33.032,5.44,10.984,16.2
1557,1.431,41.59,27.338,40.648,33.035,5.481,10.944,16.2
1558,1.415,41.687,27.397,40.639,33.039,5.481,10.984,16.037
1559,1.388,41.746,27.303,40.667,33.032,5.481,11.066,15.995
1560,1.411,41.747,27.334,40.629,33.046,5.481,11.066,15.995
1561,1.434,41.862,27.361,40.658,33.036,5.522,11.107,15.832
1562,1.437,41.978,27.373,40.639,33.046,5.482,11.026,15.871
1563,1.454,42.008,27.409,40.639,33.032,5.481,10.903,15.871
1564,1.428,41.96,27.37,40.629,33.028,5.4,10.821,15.871
1565,1.415,42.084,27.323,40.619,33.021,5.358,10.657,15.912
1566,1.411,42.172,27.322,40.638,33.021,5.317,10.737,16.075
1567,1.401,42.173,27.35,40.639,33.028,5.398,10.616,16.199
1568,1.411,42.058,27.369,40.639,33.042,5.44,10.655,16.078
1569,1.424,42.191,27.334,40.734,33.035,5.481,10.574,16.117
1570,1.415,42.259,27.338,40.649,33.032,5.44,10.451,16.036
1571,1.453,42.269,27.354,40.658,33.039,5.481,10.41,15.873
1572,1.473,42.375,27.42,40.629,33.032,5.359,10.328,15.831
1573,1.467,42.482,27.409,40.639,33.028,5.439,10.286,15.668
1574,1.444,42.559,27.397,40.639,33.032,5.399,10.286,15.585
1575,1.437,42.464,27.257,40.62,33.032,5.44,10.164,15.543
1576,1.431,42.358,27.31,40.619,33.028,5.399,10.244,15.827
1577,1.431,42.443,27.392,40.638,33.025,5.44,10.286,16.155
1578,1.431,42.549,27.311,40.648,33.046,5.481,10.408,16.565
1579,1.431,42.397,27.357,40.667,33.046,5.562,10.409,16.854
1580,1.418,42.501,27.315,40.668,33.046,5.563,10.45,17.182
1581,1.418,42.627,27.373,40.677,33.046,5.523,10.41,17.592
1582,1.414,42.666,27.377,40.649,33.039,5.36,10.287,18.043
1583,1.385,42.437,27.393,40.648,33.029,5.439,10.327,18.454
1584,1.378,42.559,27.35,40.658,33.032,5.44,10.246,18.906
1585,1.395,42.675,27.334,40.658,33.035,5.481,10.204,19.114
1586,1.362,42.715,27.311,40.639,33.039,5.481,10.245,19.36
1587,1.346,42.37,27.373,40.648,33.035,5.44,10.164,19.484
1588,1.342,42.501,27.315,40.667,33.039,5.481,10.082,19.526
1589,1.339,42.607,27.326,40.658,33.035,5.481,10.162,19.608
1590,1.319,42.637,27.354,40.668,33.039,5.44,10.163,19.649
1591,1.264,42.388,27.381,40.658,33.042,5.562,10.122,19.69
1592,1.26,42.51,27.374,40.639,33.035,5.401,10.163,19.731
1593,1.28,42.579,27.374,40.62,33.032,5.358,10.082,19.691
1594,1.332,42.599,27.331,40.629,33.025,5.317,10.081,19.569
1595,1.358,42.273,27.35,40.619,33.028,5.317,10.203,19.649
1596,1.326,42.385,27.326,40.629,33.025,5.358,10.204,19.568
1597,1.303,42.491,27.385,40.648,33.025,5.399,10.245,19.486
1598,1.309,42.492,27.397,40.725,33.039,5.399,10.245,19.241
1599,1.355,42.627,27.331,40.64,33.032,5.44,10.326,19.076
1600,1.352,42.733,27.365,40.639,33.035,5.399,10.286,18.871
1601,1.332,42.811,27.362,40.639,33.032,5.318,10.205,18.747
1602,1.313,42.083,27.346,40.62,33.032,5.317,10.245,18.421
1603,1.316,41.884,27.311,40.619,33.028,5.317,10.204,18.295
1604,1.303,42.016,27.279,40.619,33.025,5.317,10.245,18.335
1605,1.286,42.094,27.326,40.619,33.025,5.317,10.245,18.335
1606,1.26,41.855,27.314,40.6,33.032,5.317,10.164,18.376
1607,1.24,41.949,27.357,40.619,33.028,5.317,10.285,18.377
1608,1.234,42.084,27.319,40.619,33.039,5.358,10.408,18.377
1609,1.24,42.181,27.342,40.638,33.046,5.439,10.45,18.377
1610,1.253,41.703,27.397,40.639,33.053,5.481,10.45,18.214
1611,1.24,41.842,27.374,40.648,33.043,5.481,10.41,17.887
1612,1.237,41.93,27.37,40.61,33.025,5.359,10.328,17.802
1613,1.283,41.959,27.292,40.61,33.018,5.399,10.368,17.842
1614,1.267,41.461,27.248,40.619,33.032,5.318,10.368,18.087
1615,1.25,41.6,27.302,40.619,33.032,5.317,10.449,18.292
1616,1.247,41.678,27.353,40.6,33.039,5.358,10.328,18.416
1617,1.253,41.727,27.338,40.609,33.035,5.358,10.49,18.499
1618,1.26,41.372,27.334,40.61,33.039,5.399,10.451,18.5
1619,1.27,41.493,27.35,40.61,33.032,5.318,10.491,18.5
1620,1.293,41.6,27.381,40.59,33.039,5.398,10.491,18.378
1621,1.27,41.62,27.405,40.609,33.039,5.358,10.451,18.295
1622,1.263,41.199,27.323,40.59,33.042,5.439,10.491,18.213
1623,1.257,41.319,27.279,40.609,33.035,5.318,10.491,18.131
1624,1.253,41.426,27.22,40.619,33.028,5.398,10.369,18.049
1625,1.247,41.561,27.31,40.571,33.028,5.318,10.328,17.926
1626,1.211,41.083,27.361,40.561,33.025,5.236,10.327,17.925
1627,1.191,41.174,27.311,40.561,33.028,5.316,10.368,17.925
1628,1.198,41.3,27.31,40.58,33.035,5.398,10.328,17.722
1629,1.214,40.841,27.307,40.581,33.035,5.358,10.327,17.72
1630,1.247,40.894,27.392,40.581,33.028,5.358,10.286,17.597
1631,1.273,40.971,27.374,40.561,33.028,5.358,10.327,17.312
1632,1.267,41.068,27.327,40.571,33.028,5.399,10.286,17.268
1633,1.247,40.637,27.272,40.561,33.032,5.399,10.164,17.146
1634,1.257,40.767,27.298,40.571,33.032,5.399,10.163,17.185
1635,1.253,40.864,27.334,40.552,33.028,5.318,10.122,17.226
1636,1.266,40.903,27.365,40.561,33.028,5.317,10.081,17.308
1637,1.273,40.386,27.319,40.542,33.028,5.358,10.081,17.187
1638,1.26,40.544,27.291,40.561,33.032,5.358,10.081,17.226
1639,1.289,40.66,27.373,40.571,33.039,5.48,10.04,17.227
1640,1.322,40.719,27.377,40.581,33.049,5.522,10.08,17.145
1641,1.329,40.288,27.362,40.59,33.046,5.522,9.918,17.022
1642,1.316,40.428,27.288,40.571,33.039,5.441,9.794,16.859
1643,1.293,40.506,27.298,40.571,33.035,5.44,9.834,16.816
1644,1.251,40.535,27.326,40.561,33.032,5.44,9.753,16.735
1645,1.224,40.095,27.318,40.542,33.032,5.44,9.712,16.653
1646,1.253,40.215,27.392,40.551,33.032,5.399,9.833,16.489
1647,1.247,40.322,27.241,40.542,33.039,5.44,9.956,16.406
1648,1.244,40.332,27.325,40.551,33.039,5.481,10.08,16.324
1649,1.26,39.968,27.35,40.552,33.039,5.481,10.243,16.16
1650,1.273,40.079,27.377,40.561,33.039,5.522,10.408,15.915
1651,1.247,40.176,27.323,40.561,33.039,5.522,10.531,15.75
1652,1.237,39.966,27.264,40.561,33.032,5.4,10.614,15.585
1653,1.244,39.725,27.318,40.532,33.039,5.48,10.655,15.381
1654,1.253,39.818,27.299,40.513,33.025,5.318,10.656,15.256
1655,1.247,39.896,27.326,40.513,33.025,5.439,10.778,15.133
1656,1.26,39.532,27.365,40.513,33.032,5.481,10.942,15.173
1657,1.273,39.653,27.338,40.542,33.025,5.522,10.821,15.051
1658,1.296,39.769,27.346,40.513,33.025,5.482,10.861,15.009
1659,1.312,39.847,27.365,40.513,33.028,5.44,10.861,14.846
1660,1.287,39.254,27.358,40.503,33.032,5.481,10.82,14.804
1661,1.286,39.401,27.26,40.503,33.025,5.44,10.779,14.763
1662,1.27,39.518,27.302,40.494,33.032,5.44,10.738,14.803
1663,1.289,39.576,27.303,40.493,33.021,5.481,10.779,14.844
1664,1.299,39.28,27.322,40.484,33.025,5.4,10.698,14.926
1665,1.306,39.411,27.361,40.503,33.025,5.358,10.656,15.252
1666,1.264,39.518,27.319,40.484,33.025,5.439,10.656,15.58
1667,1.247,39.576,27.326,40.484,33.032,5.44,10.656,15.909
1668,1.247,39.126,27.334,40.503,33.042,5.562,10.737,16.197
1669,1.221,39.265,27.385,40.522,33.046,5.604,10.697,16.484
1670,1.204,39.401,27.358,40.523,33.042,5.604,10.616,16.406
1671,1.207,39.431,27.311,40.523,33.035,5.523,10.411,16.405
1672,1.246,38.875,27.318,40.503,33.035,5.563,10.369,16.568
1673,1.25,38.975,27.322,40.474,33.039,5.523,10.287,16.814
1674,1.25,39.082,27.353,40.484,33.032,5.563,10.286,17.304
1675,1.247,39.092,27.401,40.493,33.039,5.523,10.205,17.553
1676,1.247,38.853,27.319,40.484,33.025,5.644,10.163,18.084
1677,1.253,38.994,27.338,40.493,33.032,5.686,10.082,18.333
1678,1.26,39.072,27.334,40.484,33.032,5.646,10.081,18.62
1679,1.26,38.699,27.397,40.474,33.039,5.645,10.121,18.745
1680,1.27,38.638,27.288,40.474,33.035,5.686,9.959,18.909
1681,1.299,38.772,27.341,40.474,33.035,5.687,9.835,19.073
1682,1.273,38.878,27.295,40.493,33.032,5.687,9.794,19.075
1683,1.283,38.4,27.326,40.455,33.025,5.646,9.631,19.075
1684,1.277,38.491,27.346,40.445,33.018,5.483,9.588,18.993
1685,1.237,38.588,27.373,40.435,33.018,5.603,9.588,18.992
1686,1.208,38.694,27.295,40.435,33.028,5.645,9.669,18.83
1687,1.224,38.264,27.31,40.455,33.039,5.686,9.589,18.625
1688,1.273,38.375,27.353,40.455,33.035,5.727,9.629,18.46
1689,1.247,38.52,27.334,40.474,33.032,5.727,9.507,18.215
1690,1.227,38.579,27.264,40.455,33.032,5.687,9.628,17.928
1691,1.195,38.129,27.31,40.464,33.021,5.646,9.629,17.64
1692,1.201,38.249,27.295,40.445,33.028,5.645,9.629,17.393
1693,1.214,38.384,27.326,40.445,33.025,5.645,9.67,17.228
1694,1.224,38.414,27.334,40.435,33.025,5.645,9.67,17.023
1695,1.253,37.945,27.4,40.416,33.021,5.645,9.711,16.818
1696,1.27,38.103,27.3,40.435,33.025,5.686,9.711,16.816
1697,1.286,38.239,27.318,40.455,33.035,5.768,9.833,16.857
1698,1.296,38.259,27.361,40.464,33.039,5.809,9.794,16.898
1699,1.319,37.886,27.354,40.455,33.042,5.769,9.915,16.817
1700,1.348,38.006,27.272,40.474,33.039,5.647,9.754,16.735
1701,1.349,38.094,27.31,40.426,33.035,5.645,9.63,16.815
1702,1.319,38.248,27.322,40.435,33.035,5.686,9.71,16.816
1703,1.3,37.636,27.322,40.407,33.032,5.687,9.711,16.857
1704,1.267,37.764,27.35,40.435,33.032,5.646,9.589,16.816
1705,1.263,37.871,27.365,40.426,33.028,5.727,9.629,16.938
1706,1.254,37.469,27.327,40.445,33.035,5.727,9.548,16.898
1707,1.247,37.485,27.283,40.435,33.039,5.768,9.506,16.857
1708,1.227,37.638,27.373,40.416,33.039,5.687,9.506,16.898
1709,1.224,37.697,27.342,40.426,33.039,5.687,9.425,16.979
1710,1.23,37.353,27.322,40.426,33.032,5.727,9.302,16.98
1711,1.227,37.455,27.326,40.435,33.032,5.687,9.26,17.021
1712,1.208,37.561,27.318,40.407,33.018,5.564,9.137,17.143
1713,1.227,37.639,27.346,40.397,33.025,5.563,9.055,17.226
1714,1.224,37.131,27.358,40.387,33.018,5.563,9.176,17.471
1715,1.217,37.241,27.338,40.406,33.025,5.685,9.218,17.676
1716,1.237,37.415,27.326,40.435,33.039,5.605,9.3,17.841
1717,1.234,37.474,27.307,40.407,33.025,5.604,9.423,17.924
1718,1.234,36.967,27.369,40.387,33.025,5.523,9.505,17.803
1719,1.256,37.125,27.307,40.397,33.032,5.644,9.546,17.802
1720,1.319,37.232,27.322,40.387,33.032,5.605,9.628,17.679
1721,1.313,37.3,27.291,40.387,33.032,5.564,9.629,17.638
1722,1.261,36.936,27.361,40.377,33.025,5.563,9.67,17.556
1723,1.237,37.067,27.381,40.406,33.025,5.604,9.67,17.474
1724,1.231,37.174,27.35,40.378,33.021,5.604,9.711,17.392
1725,1.25,37.175,27.323,40.396,33.028,5.564,9.752,17.31
1726,1.253,36.791,27.295,40.406,33.032,5.563,9.793,17.309
1727,1.273,36.95,27.334,40.416,33.039,5.685,9.834,17.146
1728,1.254,37.048,27.377,40.426,33.032,5.768,9.956,17.104
1729,1.263,36.934,27.28,40.435,33.042,5.647,9.876,16.819
1730,1.273,36.731,27.306,40.426,33.022,5.645,9.753,16.613
1731,1.247,36.825,27.33,40.416,33.032,5.564,9.712,16.529
1732,1.247,36.903,27.342,40.406,33.018,5.523,9.752,16.284
1733,1.26,36.597,27.377,40.397,33.035,5.563,9.671,16.16
1734,1.289,36.699,27.413,40.397,33.028,5.523,9.792,15.996
1735,1.264,36.825,27.323,40.387,33.032,5.603,9.753,15.832
1736,1.202,36.912,27.322,40.406,33.039,5.645,9.874,15.83
1737,1.23,36.472,27.33,40.416,33.032,5.564,9.876,15.627
1738,1.253,36.592,27.342,40.406,33.035,5.604,9.957,15.584
1739,1.25,36.718,27.319,40.406,33.035,5.604,10.039,15.503
1740,1.257,36.806,27.291,40.387,33.039,5.645,10.04,15.42
1741,1.253,36.452,27.326,40.406,33.039,5.605,10.162,15.42
1742,1.276,36.592,27.369,40.387,33.029,5.645,10.082,15.257
1743,1.276,36.689,27.385,40.377,33.021,5.442,10.081,15.174
1744,1.234,36.729,27.342,40.368,33.018,5.521,10.081,15.376
1745,1.169,36.528,27.276,40.377,33.025,5.603,10.203,15.338
1746,1.181,36.698,27.287,40.387,33.032,5.645,10.204,15.378
1747,1.184,36.806,27.373,40.377,33.025,5.605,10.204,15.378
1748,1.181,36.874,27.299,40.377,33.032,5.645,10.245,15.378
1749,1.184,36.433,27.318,40.377,33.032,5.564,10.245,15.256
1750,1.171,36.582,27.291,40.368,33.025,5.645,10.245,15.255
1751,1.171,36.68,27.334,40.377,33.028,5.605,10.286,15.052
1752,1.175,36.7,27.385,40.368,33.018,5.564,10.286,14.928
1753,1.201,36.499,27.354,40.368,33.025,5.523,10.327,14.764
1754,1.201,36.612,27.342,40.358,33.025,5.563,10.368,14.763
1755,1.227,36.718,27.291,40.358,33.032,5.604,10.449,14.763
1756,1.243,36.537,27.302,40.387,33.035,5.645,10.572,14.803
1757,1.266,36.526,27.349,40.406,33.042,5.686,10.574,14.763
1758,1.289,36.679,27.299,40.416,33.046,5.727,10.574,14.681
1759,1.277,36.757,27.303,40.378,33.036,5.646,10.451,14.599
1760,1.241,36.375,27.31,40.349,33.032,5.645,10.45,14.517
1761,1.247,36.476,27.369,40.377,33.028,5.645,10.45,14.597
1762,1.247,36.602,27.381,40.377,33.032,5.645,10.45,14.639
1763,1.234,36.699,27.358,40.387,33.028,5.645,10.328,14.721
1764,1.214,36.537,27.303,40.368,33.032,5.645,10.368,14.681
1765,1.208,36.699,27.326,40.377,33.025,5.605,10.368,14.843
1766,1.201,36.806,27.33,40.377,33.014,5.564,10.328,14.926
1767,1.198,36.893,27.334,40.358,33.028,5.726,10.408,14.886
1768,1.181,36.568,27.26,40.377,33.039,5.646,10.491,14.967
1769,1.158,36.728,27.294,40.387,33.035,5.645,10.532,15.009
1770,1.158,36.835,27.338,40.358,33.032,5.605,10.492,14.968
1771,1.174,36.874,27.334,40.348,33.018,5.523,10.451,14.927
1772,1.188,36.644,27.354,40.329,33.018,5.522,10.41,14.886
1773,1.227,36.738,27.334,40.329,33.021,5.482,10.45,14.845
1774,1.23,36.873,27.279,40.339,33.032,5.644,10.613,14.845
1775,1.221,36.922,27.294,40.348,33.028,5.645,10.574,14.804
1776,1.224,36.635,27.271,40.339,33.021,5.605,10.574,14.722
1777,1.204,36.719,27.341,40.348,33.028,5.604,10.533,14.681
1778,1.207,36.844,27.213,40.367,33.032,5.604,10.492,14.599
1779,1.217,37.143,27.306,40.348,33.028,5.604,10.41,14.476
1780,1.204,36.791,27.346,40.339,33.025,5.564,10.328,14.475
1781,1.211,36.912,27.358,40.329,33.021,5.604,10.286,14.516
1782,1.194,37.019,27.358,40.329,33.021,5.604,10.205,14.516
1783,1.188,36.886,27.284,40.339,33.021,5.604,10.204,14.719
1784,1.201,36.97,27.232,40.348,33.028,5.564,10.163,14.925
1785,1.233,37.115,27.259,40.358,33.032,5.685,10.122,15.089
1786,1.266,37.222,27.322,40.368,33.046,5.809,10.163,15.213
1787,1.28,37.108,27.377,40.368,33.053,5.81,10.0,15.255
1788,1.286,37.27,27.315,40.387,33.032,5.647,9.917,15.215
1789,1.254,37.367,27.326,40.349,33.039,5.645,9.713,15.296
1790,1.253,37.426,27.33,40.348,33.025,5.645,9.711,15.418
1791,1.27,37.235,27.389,40.339,33.032,5.645,9.63,15.542
1792,1.283,37.377,27.346,40.339,33.032,5.564,9.548,15.827
1793,1.306,37.493,27.319,40.339,33.032,5.523,9.425,15.912
1794,1.286,37.552,27.268,40.367,33.039,5.563,9.383,15.953
1795,1.309,36.929,27.29,40.368,33.032,5.645,9.342,16.076
1796,1.326,37.076,27.318,40.339,33.028,5.605,9.301,16.28
1797,1.319,37.193,27.31,40.339,33.035,5.686,9.219,16.567
1798,1.342,37.271,27.338,40.358,33.032,5.646,9.096,16.773
1799,1.352,37.157,27.307,40.339,33.032,5.605,8.973,17.019
1800,1.352,37.309,27.361,40.319,33.035,5.523,8.972,17.143
1801,1.362,37.368,27.362,40.29,33.018,5.441,8.809,17.307
1802,1.349,37.397,27.315,40.29,33.021,5.44,8.889,17.593
1803,1.345,37.187,27.275,40.29,33.025,5.481,8.89,17.637
1804,1.332,37.328,27.24,40.338,33.032,5.522,8.93,17.678
1805,1.3,37.445,27.29,40.319,33.032,5.522,8.931,17.719
1806,1.286,37.417,27.318,40.329,33.028,5.522,8.931,17.882
1807,1.322,37.283,27.31,40.31,33.039,5.482,9.053,17.924
1808,1.335,37.425,27.291,40.31,33.029,5.522,9.054,18.047
1809,1.31,37.513,27.322,40.319,33.028,5.482,9.095,18.048
1810,1.29,37.226,27.33,40.3,33.028,5.481,9.176,18.048
1811,1.303,37.31,27.365,40.3,33.018,5.522,9.259,18.048
1812,1.312,37.425,27.327,40.3,33.025,5.482,9.381,18.007
1813,1.345,37.503,27.256,40.29,33.025,5.44,9.423,18.129
1814,1.3,37.216,27.29,40.367,33.021,5.521,9.505,18.171
1815,1.312,37.367,27.279,40.32,33.032,5.563,9.668,18.293
1816,1.332,37.493,27.353,40.338,33.042,5.563,9.751,18.335
1817,1.378,37.581,27.311,40.348,33.042,5.563,9.671,18.213
1818,1.391,37.351,27.326,40.329,33.032,5.482,9.629,18.09
1819,1.44,37.464,27.318,40.329,33.028,5.44,9.588,17.926
1820,1.421,37.561,27.342,40.31,33.018,5.481,9.547,17.722
1821,1.405,37.61,27.373,40.3,33.032,5.44,9.588,17.557
1822,1.418,37.361,27.303,40.309,33.025,5.481,9.507,17.352
1823,1.414,37.503,27.26,40.31,33.028,5.481,9.465,17.309
1824,1.457,37.619,27.29,40.3,33.028,5.44,9.505,17.268
1825,1.438,37.668,27.299,40.3,33.028,5.481,9.425,17.268
1826,1.437,37.343,27.369,40.3,33.025,5.44,9.342,17.268
1827,1.444,37.483,27.292,40.29,33.032,5.44,9.342,17.227
1828,1.434,37.59,27.322,40.309,33.028,5.521,9.26,17.145
1829,1.421,37.601,27.314,40.319,33.032,5.522,9.259,17.104
1830,1.431,37.342,27.377,40.31,33.032,5.482,9.259,16.9
1831,1.418,37.454,27.303,40.281,33.025,5.4,9.137,16.654
1832,1.392,37.523,27.244,40.281,33.018,5.318,9.095,16.57
1833,1.382,37.313,27.212,40.271,33.018,5.317,9.095,16.529
1834,1.391,37.243,27.266,40.28,33.028,5.48,9.095,16.366
1835,1.427,37.386,27.302,40.281,33.025,5.44,9.014,16.202
1836,1.447,37.474,27.373,40.29,33.032,5.44,8.972,15.997
1837,1.47,37.207,27.272,40.29,33.025,5.399,8.891,15.872
1838,1.461,37.319,27.275,40.3,33.025,5.399,8.849,15.668
1839,1.473,37.426,27.318,40.271,33.025,5.399,8.849,15.422
1840,1.464,37.513,27.326,40.271,33.028,5.399,8.808,15.42
1841,1.451,37.025,27.291,40.271,33.021,5.358,8.93,15.379
1842,1.418,37.154,27.248,40.28,33.025,5.317,9.012,15.338
1843,1.405,37.28,27.271,40.3,33.025,5.236,9.298,15.5
1844,1.405,37.358,27.302,40.262,33.025,5.397,9.544,15.664
1845,1.369,37.1,27.306,40.271,33.028,5.48,9.913,15.788
1846,1.359,37.232,27.385,40.28,33.035,5.481,10.161,15.911
1847,1.355,37.386,27.315,40.376,33.042,5.522,10.326,15.994
1848,1.339,37.455,27.322,40.301,33.035,5.482,10.408,15.995
1849,1.329,37.072,27.322,40.271,33.032,5.359,10.572,16.157
1850,1.319,37.174,27.353,40.271,33.025,5.358,10.655,16.159
1851,1.287,37.28,27.326,40.261,33.028,5.317,10.778,16.159
1852,1.286,37.3,27.217,40.28,33.039,5.398,10.698,16.159
1853,1.309,36.984,27.298,40.281,33.025,5.399,10.819,16.2
1854,1.306,37.106,27.295,40.271,33.028,5.399,10.901,16.281
1855,1.329,37.212,27.306,40.29,33.028,5.358,10.861,16.323
1856,1.339,37.511,27.342,40.281,33.032,5.439,10.902,16.364
1857,1.319,36.833,27.334,40.29,33.035,5.481,10.821,16.242
1858,1.28,36.979,27.318,40.29,33.032,5.481,10.739,16.322
1859,1.293,37.048,27.346,40.271,33.032,5.359,10.657,16.079
1860,1.303,36.828,27.346,40.242,33.015,5.317,10.493,15.995
1861,1.28,36.864,27.276,40.251,33.018,5.317,10.41,15.872
1862,1.254,37.009,27.294,40.328,33.018,5.358,10.409,15.831
1863,1.234,37.096,27.279,40.262,33.021,5.399,10.328,15.749
1864,1.227,36.579,27.326,40.261,33.021,5.358,10.246,15.707
1865,1.201,36.708,27.346,40.252,33.028,5.439,10.123,15.585
1866,1.175,36.806,27.338,40.261,33.025,5.44,10.041,15.543
1867,1.142,36.912,27.326,40.242,33.021,5.44,9.918,15.543
1868,1.129,36.616,27.291,40.223,33.018,5.44,9.835,15.502
1869,1.122,36.757,27.357,40.251,33.025,5.359,9.794,15.542
1870,1.089,36.883,27.315,40.232,33.021,5.358,9.671,15.421
1871,1.112,36.951,27.24,40.251,33.018,5.358,9.548,15.379
1872,1.115,36.559,27.271,40.232,33.025,5.358,9.466,15.378
1873,1.122,36.718,27.275,40.251,33.028,5.439,9.505,15.378
1874,1.116,36.835,27.322,40.271,33.035,5.521,9.546,15.419
1875,1.128,36.922,27.338,40.28,33.042,5.563,9.506,15.338
1876,1.158,36.415,27.322,40.271,33.039,5.482,9.425,15.256
1877,1.155,36.544,27.279,40.261,33.025,5.481,9.302,15.215
1878,1.139,36.641,27.302,40.242,33.028,5.44,9.26,15.174
1879,1.132,36.661,27.361,40.251,33.025,5.44,9.178,15.173
1880,1.145,36.393,27.291,40.242,33.028,5.44,9.218,15.173
1881,1.129,36.563,27.201,40.28,33.028,5.481,9.3,15.132
1882,1.132,36.67,27.27,40.242,33.025,5.481,9.26,15.173
1883,1.129,36.546,27.314,40.271,33.028,5.481,9.341,15.254
1884,1.132,36.277,27.338,40.261,33.032,5.522,9.423,15.499
1885,1.161,36.399,27.365,40.252,33.032,5.482,9.505,15.664
1886,1.152,36.525,27.303,40.261,33.025,5.522,9.546,15.829
1887,1.103,36.066,27.291,40.242,33.014,5.522,9.506,15.871
1888,1.08,36.128,27.338,40.223,33.014,5.4,9.506,15.831
1889,1.07,36.244,27.334,40.213,32.99,5.358,9.465,15.993
1890,1.079,36.341,27.299,40.203,33.004,5.399,9.546,16.035
1891,1.079,36.045,27.291,40.318,33.018,5.48,9.588,16.158
1892,1.092,36.176,27.287,40.214,33.021,5.481,9.669,16.2
1893,1.109,36.302,27.31,40.242,33.028,5.522,9.629,16.2
1894,1.135,36.389,27.318,40.232,33.021,5.4,9.629,16.281
1895,1.155,35.949,27.35,40.223,33.021,5.48,9.71,16.241
1896,1.161,36.088,27.28,40.232,33.021,5.44,9.752,16.16
1897,1.148,36.224,27.294,40.213,33.021,5.521,9.833,16.118
1898,1.126,36.274,27.302,40.194,33.021,5.441,9.794,15.996
1899,1.112,35.718,27.349,40.213,33.018,5.399,9.834,15.832
1900,1.119,35.875,27.252,40.213,33.021,5.399,9.956,15.79
1901,1.155,35.982,27.279,40.299,33.028,5.44,9.998,15.83
1902,1.126,36.051,27.302,40.223,33.035,5.562,10.08,15.912
1903,1.077,36.166,27.33,40.242,33.039,5.645,10.081,15.953
1904,1.063,36.292,27.354,40.261,33.039,5.564,10.04,15.831
1905,1.05,36.418,27.354,40.232,33.029,5.523,9.999,15.871
1906,1.046,36.41,27.315,40.213,33.028,5.482,9.958,15.749
1907,1.079,35.441,27.307,40.194,33.021,5.481,9.917,15.789
1908,1.044,35.566,27.318,40.193,33.035,5.481,9.916,15.708
1909,1.037,35.672,27.369,40.213,33.025,5.481,9.876,15.626
1910,1.056,35.789,27.264,40.222,33.025,5.4,9.835,15.503
1911,1.063,35.866,27.302,40.232,33.028,5.521,9.753,15.42
1912,1.056,36.001,27.267,40.232,33.039,5.441,9.793,15.379
1913,1.066,36.089,27.33,40.194,33.029,5.521,9.712,15.256
1914,1.063,35.246,27.369,40.213,33.021,5.482,9.752,15.255
1915,1.06,35.324,27.381,40.222,33.025,5.522,9.793,15.174
1916,1.066,35.478,27.303,40.203,33.018,5.4,9.712,15.011
1917,1.069,35.566,27.279,40.194,33.001,5.358,9.711,15.09
1918,1.079,35.308,27.341,40.174,33.004,5.358,9.792,15.132
1919,1.118,35.449,27.326,40.164,33.007,5.399,9.793,15.254
1920,1.099,35.575,27.24,40.184,33.018,5.48,9.834,15.255
1921,1.122,35.692,27.275,40.203,33.014,5.4,9.834,15.255
1922,1.122,35.175,27.291,40.194,33.035,5.44,9.875,15.215
1923,1.096,35.333,27.318,40.203,33.025,5.318,9.835,15.174
1924,1.04,35.469,27.326,40.194,33.025,5.358,9.875,15.173
1925,1.02,35.518,27.365,40.174,33.021,5.317,9.835,15.173
1926,1.033,35.183,27.241,40.184,33.028,5.398,9.753,15.376
1927,1.063,35.323,27.302,40.174,33.021,5.318,9.712,15.623
1928,1.021,35.43,27.345,40.174,33.021,5.317,9.711,16.072
1929,1.001,35.47,27.326,40.155,33.018,5.317,9.711,16.483
1930,1.026,35.067,27.24,40.174,33.028,5.439,9.752,16.934
1931,1.01,35.226,27.263,40.212,33.028,5.44,9.671,17.305
1932,1.027,35.362,27.29,40.232,33.032,5.481,9.751,17.593
1933,1.066,35.632,27.295,40.213,33.042,5.522,9.59,17.637
1934,1.089,35.002,27.357,40.213,33.042,5.482,9.466,17.556
1935,1.073,35.12,27.369,40.194,33.025,5.318,9.383,17.555
1936,1.086,35.208,27.319,40.241,33.028,5.398,9.301,17.555
1937,1.066,34.969,27.307,40.175,33.032,5.399,9.26,17.474
1938,1.092,35.005,27.357,40.184,33.032,5.399,9.178,17.31
1939,1.096,35.12,27.319,40.165,33.032,5.399,9.055,17.146
1940,1.096,35.256,27.295,40.212,33.032,5.358,9.095,17.022
1941,1.119,34.682,27.299,40.174,33.028,5.439,9.095,16.981
1942,1.112,34.8,27.306,40.184,33.025,5.521,9.136,16.818
1943,1.119,34.946,27.334,40.203,33.028,5.482,9.095,16.857
1944,1.142,35.033,27.377,40.174,33.035,5.522,9.176,17.02
1945,1.165,34.699,27.335,40.155,33.032,5.522,9.259,17.143
1946,1.207,34.849,27.315,40.174,33.035,5.482,9.259,17.267
1947,1.237,34.984,27.275,40.145,33.022,5.44,9.219,17.308
1948,1.257,35.015,27.341,40.135,33.011,5.359,9.259,17.349
1949,1.27,34.631,27.272,40.135,33.018,5.358,9.3,17.512
1950,1.289,34.781,27.279,40.145,33.014,5.439,9.382,17.595
1951,1.316,34.907,27.287,40.174,33.025,5.481,9.545,17.677
1952,1.339,34.975,27.302,40.155,33.021,5.481,9.588,17.597
1953,1.384,34.612,27.381,40.155,33.025,5.44,9.791,17.637
1954,1.398,34.742,27.374,40.164,33.021,5.481,9.915,17.8
1955,1.427,34.859,27.338,40.155,33.025,5.481,9.916,17.761
1956,1.463,34.908,27.326,40.155,33.021,5.481,9.998,17.801
1957,1.483,34.506,27.307,40.155,33.021,5.4,10.08,17.761
1958,1.49,34.645,27.342,40.136,33.021,5.44,10.081,17.598
1959,1.516,34.752,27.24,40.135,33.018,5.399,10.081,17.596
1960,1.533,34.734,27.271,40.145,33.014,5.48,10.203,17.637
1961,1.568,34.417,27.302,40.145,33.028,5.44,10.285,17.637
1962,1.605,34.577,27.349,40.174,33.042,5.521,10.327,17.719
1963,1.641,34.704,27.369,40.174,33.042,5.644,10.327,17.801
1964,1.631,34.446,27.373,40.174,33.039,5.523,10.246,17.72
1965,1.664,34.52,27.307,40.155,33.029,5.482,10.204,17.516
1966,1.736,34.617,27.279,40.126,33.032,5.481,10.163,17.514
1967,1.73,34.742,27.318,40.135,33.025,5.44,10.204,17.473
1968,1.749,34.226,27.322,40.145,33.021,5.521,10.163,17.432
1969,1.811,34.364,27.283,40.155,33.028,5.482,10.122,17.351
1970,1.838,34.51,27.271,40.155,33.025,5.4,10.081,17.35
1971,1.864,34.597,27.294,40.145,33.025,5.48,10.121,17.228
1972,1.839,34.311,27.334,40.145,33.032,5.44,10.081,17.227
1973,1.806,34.461,27.365,40.145,33.039,5.481,10.081,17.389
1974,1.773,34.587,27.389,40.155,33.032,5.562,10.081,17.35
1975,1.665,34.665,27.307,40.145,33.028,5.563,9.999,17.39
1976,1.593,34.148,27.295,40.145,33.021,5.401,9.917,17.432
1977,1.491,34.277,27.318,40.116,33.011,5.358,9.754,17.391
1978,1.353,34.384,27.326,40.078,33.014,5.358,9.752,17.594
1979,1.277,34.443,27.287,40.116,33.018,5.48,9.874,17.637
1980,1.156,34.117,27.295,40.126,33.025,5.481,9.794,17.678
1981,1.087,34.277,27.322,40.116,33.028,5.522,9.834,17.963
1982,1.031,34.403,27.357,40.126,33.021,5.482,9.834,18.25
1983,0.994,34.414,27.373,40.126,33.021,5.44,9.794,18.375
1984,0.984,34.175,27.342,40.116,33.018,5.44,9.834,18.539
1985,0.955,34.306,27.264,40.126,33.018,5.44,9.916,18.581
1986,0.928,34.404,27.275,40.106,33.021,5.399,9.835,18.623
1987,0.931,34.203,27.345,40.087,33.014,5.358,9.875,18.623
1988,0.902,34.115,27.311,40.077,33.018,5.48,9.835,18.623
1989,0.882,34.258,27.291,40.116,33.021,5.481,9.916,18.582
1990,0.879,34.374,27.295,40.126,33.025,5.562,9.916,18.501
1991,0.879,33.915,27.31,40.135,33.035,5.563,9.957,18.378
1992,0.895,34.045,27.385,40.174,33.032,5.645,9.957,18.295
1993,0.899,34.18,27.37,40.155,33.028,5.564,9.917,18.05
1994,0.856,34.259,27.366,40.136,33.032,5.441,9.916,17.845
1995,0.833,33.876,27.272,40.107,33.021,5.521,9.998,17.761
1996,0.849,34.035,27.287,40.106,33.021,5.482,10.243,17.598
1997,0.859,34.142,27.361,40.106,33.021,5.481,10.448,17.556
1998,0.872,34.229,27.295,40.116,33.021,5.522,10.613,17.433
1999,0.885,33.78,27.306,40.126,33.021,5.4,10.818,17.31
2000,0.911,33.919,27.279,40.116,33.032,5.48,10.983,17.146
2001,0.912,34.055,27.357,40.126,33.025,5.481,11.147,17.145
2002,0.925,34.133,27.366,40.116,33.028,5.522,11.352,17.022
2003,0.951,33.779,27.35,40.116,33.028,5.522,11.435,17.224
2004,0.951,33.928,27.326,40.126,33.028,5.563,11.477,17.43
2005,0.938,34.074,27.182,40.145,33.018,5.401,11.396,17.757
2006,0.932,34.114,27.301,40.088,33.018,5.399,11.436,17.923
2007,0.948,33.769,27.326,40.097,33.011,5.399,11.477,18.128
2008,0.935,33.9,27.291,40.097,33.014,5.48,11.558,18.333
2009,0.967,34.064,27.318,40.106,33.021,5.481,11.64,18.376
2010,0.968,34.142,27.299,40.116,33.025,5.562,11.601,18.377
2011,0.958,33.635,27.342,40.116,33.018,5.523,11.519,18.254
2012,0.984,33.764,27.35,40.116,33.021,5.522,11.518,18.131
2013,1.023,33.871,27.35,40.116,33.021,5.603,11.518,18.171
2014,1.004,33.623,27.311,40.106,33.025,5.482,11.396,18.049
2015,1.007,33.668,27.283,40.212,33.014,5.481,11.314,18.007
2016,1.03,33.822,27.259,40.117,33.014,5.522,11.232,17.926
2017,1.069,33.891,27.353,40.097,33.014,5.482,11.231,17.843
2018,1.073,33.508,27.264,40.106,33.018,5.562,11.149,17.761
2019,1.063,33.648,27.29,40.106,33.018,5.523,11.189,17.516
2020,1.082,33.793,27.295,40.116,33.025,5.603,11.189,17.717
2021,1.092,33.9,27.357,40.135,33.028,5.645,11.149,17.801
2022,1.102,33.479,27.366,40.145,33.039,5.767,11.189,17.883
2023,1.054,33.628,27.334,40.164,33.029,5.647,11.068,17.802
2024,1.056,33.764,27.295,40.145,33.025,5.564,10.904,17.802
2025,1.05,33.842,27.267,40.126,33.025,5.563,10.902,17.842
2026,1.014,33.392,27.287,40.126,33.021,5.563,10.739,17.802
2027,1.001,33.541,27.349,40.126,33.018,5.563,10.616,17.72
2028,0.984,33.686,27.291,40.145,33.025,5.645,10.655,17.638
2029,0.971,33.745,27.302,40.145,33.028,5.605,10.656,17.556
2030,0.961,33.832,27.314,40.145,33.025,5.564,10.615,17.352
2031,0.945,33.958,27.373,40.145,33.025,5.604,10.615,17.147
2032,0.938,34.093,27.358,40.155,33.025,5.645,10.655,16.982
2033,0.99,34.123,27.354,40.164,33.025,5.605,10.656,16.818
2034,0.978,33.088,27.264,40.164,33.028,5.645,10.615,16.613
2035,1.003,33.25,27.279,40.145,33.028,5.645,10.655,16.407
2036,1.046,33.357,27.259,40.155,33.018,5.564,10.534,16.202
2037,1.046,33.541,27.337,40.116,33.018,5.523,10.451,15.997
2038,1.04,33.408,27.326,40.193,33.011,5.441,10.45,15.954
2039,1.063,33.541,27.268,40.136,33.018,5.603,10.572,15.831
2040,1.073,33.686,27.333,40.145,33.021,5.645,10.451,15.912
2041,1.069,33.151,27.342,40.135,33.025,5.564,10.369,15.79
2042,1.043,33.213,27.33,40.154,33.025,5.563,10.287,15.83
2043,1.037,33.357,27.303,40.145,33.018,5.563,10.286,15.83
2044,1.04,33.445,27.24,40.145,33.018,5.523,10.164,15.912
2045,1.03,33.101,27.29,40.135,33.018,5.522,10.041,15.912
2046,1.011,33.222,27.283,40.135,33.014,5.563,9.999,15.831
2047,0.994,33.367,27.341,40.116,33.011,5.604,9.917,15.871
2048,1.0,33.464,27.295,40.116,33.018,5.564,9.916,15.831
2049,0.984,32.919,27.306,40.145,33.018,5.604,9.957,15.749
2050,0.984,33.076,27.349,40.135,33.021,5.604,9.998,15.748
2051,0.978,33.231,27.362,40.135,33.039,5.686,10.08,15.829
2052,1.016,33.3,27.369,40.183,33.039,5.768,10.162,15.708
2053,1.053,33.08,27.315,40.155,33.039,5.728,10.041,15.666
2054,1.011,33.222,27.256,40.145,33.025,5.646,9.999,15.585
2055,1.007,33.338,27.298,40.107,33.021,5.523,10.08,15.787
2056,1.001,33.387,27.342,40.116,33.018,5.644,10.081,16.236
2057,1.023,32.994,27.28,40.135,33.028,5.605,10.081,16.891
2058,1.023,33.144,27.322,40.126,33.028,5.604,10.203,17.508
2059,0.997,33.27,27.299,40.116,33.025,5.564,10.245,18.165
2060,1.033,33.291,27.342,40.097,33.018,5.563,10.245,18.74
2061,1.03,32.898,27.369,40.116,33.025,5.604,10.245,19.275
2062,1.024,33.047,27.315,40.106,33.028,5.482,10.204,19.687
2063,1.043,33.183,27.303,40.097,33.025,5.603,10.163,19.975
2064,1.011,33.06,27.197,40.116,33.025,5.564,10.163,20.222
2065,1.004,32.934,27.286,40.097,33.025,5.482,9.96,20.224
2066,0.997,33.067,27.287,40.058,33.014,5.4,9.957,20.184
2067,1.023,33.145,27.287,40.058,33.014,5.44,10.039,20.224
2068,0.971,32.819,27.318,40.067,33.0,5.521,9.999,20.062
2069,0.974,32.96,27.283,40.077,33.018,5.522,10.039,19.938
2070,1.007,33.105,27.334,40.087,33.018,5.563,10.121,19.693
2071,0.988,33.203,27.334,40.068,33.018,5.482,10.041,19.487
2072,0.974,32.743,27.315,40.077,33.014,5.522,10.162,19.241
2073,1.01,32.882,27.287,40.068,33.014,5.522,10.163,19.117
2074,1.043,33.009,27.256,40.096,33.014,5.563,10.163,18.953
2075,1.046,33.115,27.318,40.068,33.011,5.482,10.204,18.952
2076,1.027,32.666,27.334,40.048,33.011,5.562,10.204,18.87
2077,1.023,32.805,27.318,40.058,33.014,5.523,10.326,18.747
2078,1.04,32.95,27.291,40.077,33.018,5.644,10.327,18.583
2079,1.043,33.048,27.31,40.068,33.028,5.727,10.408,18.419
2080,1.056,32.627,27.369,40.077,33.021,5.768,10.491,18.295
2081,1.063,32.795,27.358,40.106,33.035,5.809,10.41,18.01
2082,1.06,32.931,27.334,40.097,33.025,5.688,10.287,17.885
2083,1.03,32.961,27.244,40.087,33.025,5.687,10.367,17.762
2084,1.027,32.75,27.169,40.097,33.021,5.646,10.246,17.679
2085,1.014,32.911,27.286,40.068,33.021,5.686,10.326,17.556
2086,1.001,33.028,27.31,40.058,33.025,5.605,10.327,17.514
2087,0.987,33.058,27.318,40.058,33.021,5.645,10.327,17.473
2088,0.987,32.473,27.291,40.058,33.028,5.686,10.327,17.432
2089,0.974,32.65,27.31,40.058,33.028,5.727,10.286,17.229
2090,0.984,32.767,27.349,40.048,33.032,5.687,10.367,17.227
2091,1.02,32.624,27.373,40.067,33.032,5.727,10.287,17.023
2092,1.03,32.642,27.331,40.068,33.028,5.727,10.408,16.859
2093,1.04,32.786,27.248,40.058,33.015,5.687,10.328,16.694
2094,1.046,32.902,27.286,40.058,33.021,5.605,10.327,16.449
2095,1.066,32.376,27.256,40.039,33.011,5.604,10.246,16.202
2096,1.076,32.476,27.322,40.029,33.025,5.564,10.286,16.241
2097,1.027,32.602,27.299,40.038,33.021,5.604,10.367,16.241
2098,1.014,32.728,27.306,40.058,33.025,5.645,10.449,16.282
2099,1.04,32.403,27.318,40.039,33.032,5.727,10.288,16.282
