time,ecg,bvp,gsr,rsp,skt,emg_zygo,emg_coru,emg_trap
0,1.089,35.682,10.873,35.779,19.983,6.095,6.343,10.163
1,1.092,36.057,10.776,35.78,19.987,6.056,6.262,10.082
2,1.112,35.495,10.799,35.78,19.99,6.056,6.302,9.999
3,1.102,35.605,10.799,35.78,19.984,6.056,6.262,9.836
4,1.122,35.721,10.83,35.77,19.98,6.097,6.18,9.753
5,1.125,35.473,10.819,35.751,19.987,6.056,6.261,9.63
6,1.129,35.499,10.881,35.798,19.99,6.178,6.302,9.751
7,1.142,35.605,10.745,35.789,19.987,6.139,6.302,9.59
8,1.151,35.74,10.814,35.789,19.99,6.219,6.302,9.507
9,1.152,35.396,10.815,35.751,19.977,6.058,6.14,9.262
10,1.168,35.527,10.846,35.76,19.983,6.178,6.179,9.178
11,1.171,35.653,10.764,35.751,19.983,6.098,6.179,9.096
12,1.181,35.807,10.803,35.818,19.997,6.26,6.383,9.258
13,1.175,35.406,10.842,35.761,19.98,6.18,6.181,9.056
14,1.171,35.584,10.835,35.789,19.994,6.22,6.301,9.095
15,1.175,35.673,10.893,35.77,19.97,6.098,6.18,8.892
16,1.175,35.76,10.819,35.779,19.987,6.178,6.261,8.89
17,1.171,35.521,10.854,35.78,19.977,6.179,6.262,8.727
18,1.178,35.681,10.757,35.789,19.99,6.179,6.343,8.807
19,1.162,35.808,10.841,35.789,19.99,6.098,6.343,8.726
20,1.181,35.886,10.819,35.808,19.987,6.219,6.425,8.766
21,1.184,35.56,10.799,35.799,19.987,6.22,6.344,8.726
22,1.188,35.682,10.818,35.799,19.984,6.098,6.343,8.644
23,1.194,35.808,10.772,35.78,19.98,6.097,6.425,8.603
24,1.207,35.876,10.838,35.77,19.987,6.056,6.304,8.521
25,1.217,35.589,10.862,35.808,19.99,6.137,6.384,8.642
26,1.224,35.721,10.846,35.789,19.987,6.057,6.425,8.562
27,1.224,35.837,10.792,35.808,19.987,6.137,6.466,8.521
28,1.224,35.838,10.795,35.77,19.984,6.016,6.223,8.317
29,1.237,35.8,10.822,35.799,19.987,5.974,6.383,8.396
30,1.257,35.934,10.745,35.789,19.98,5.974,6.385,8.275
31,1.257,36.088,10.83,35.837,19.997,6.259,6.547,8.436
32,1.231,36.378,10.791,35.79,19.994,6.017,6.427,8.275
33,1.243,35.786,10.83,35.799,19.991,6.137,6.466,8.233
34,1.218,35.895,10.85,35.78,19.973,5.976,6.386,8.029
35,1.217,36.011,10.87,35.799,19.987,6.055,6.385,8.027
36,1.224,35.897,10.71,35.799,19.984,5.975,6.344,8.027
37,1.221,35.983,10.814,35.837,19.997,6.055,6.384,8.068
38,1.224,36.079,10.865,35.79,19.987,6.056,6.385,8.069
39,1.227,36.186,10.827,35.808,19.987,6.015,6.425,8.069
40,1.211,35.87,10.854,35.818,19.987,6.015,6.426,8.069
41,1.211,35.963,10.784,35.799,19.987,5.974,6.426,7.946
42,1.214,36.079,10.818,35.809,19.984,5.974,6.344,7.864
43,1.227,36.167,10.787,35.799,19.99,5.974,6.384,7.863
44,1.224,36.024,10.818,35.818,19.987,6.055,6.425,7.944
45,1.217,36.166,10.791,35.818,19.984,5.975,6.507,7.823
46,1.224,36.321,10.791,35.885,19.99,5.974,6.508,7.822
47,1.221,36.342,10.76,35.8,19.977,5.893,6.305,7.619
48,1.211,36.083,10.838,35.809,19.983,6.014,6.384,7.698
49,1.214,36.224,10.764,35.809,19.98,5.893,6.385,7.618
50,1.227,36.389,10.81,35.847,19.994,6.095,6.629,7.861
51,1.208,36.419,10.826,35.828,19.984,5.975,6.428,7.619
52,1.204,36.112,10.846,35.838,19.99,6.015,6.466,7.698
53,1.181,36.253,10.823,35.79,19.984,6.015,6.467,7.536
54,1.181,36.37,10.741,35.818,19.983,5.974,6.426,7.534
55,1.152,36.419,10.713,35.818,19.973,5.974,6.426,7.453
56,1.161,36.343,10.771,35.837,19.99,6.096,6.588,7.574
57,1.142,36.447,10.834,35.818,19.987,6.097,6.631,7.535
58,1.142,36.573,10.792,35.828,19.984,6.016,6.509,7.494
59,1.125,36.603,10.846,35.828,19.99,6.096,6.549,7.494
60,1.096,36.498,10.784,35.818,19.98,6.056,6.468,7.412
61,1.099,36.612,10.846,35.818,19.98,5.975,6.467,7.411
62,1.093,36.718,10.881,35.809,19.983,6.015,6.507,7.289
63,1.086,37.074,10.819,35.847,19.99,6.137,6.63,7.491
64,1.086,36.455,10.784,35.838,19.987,6.098,6.59,7.29
65,1.079,36.592,10.811,35.905,19.987,6.178,6.549,7.329
66,1.063,36.67,10.776,35.8,19.973,6.017,6.468,7.207
67,1.063,36.422,10.791,35.818,19.973,6.178,6.548,7.287
68,1.05,36.41,10.807,35.799,19.973,6.139,6.508,7.166
69,1.056,36.592,10.799,35.866,19.997,6.26,6.752,7.328
70,1.043,36.661,10.818,35.838,19.984,6.221,6.673,7.207
71,1.037,36.594,10.858,35.838,19.987,6.261,6.631,7.247
72,1.017,36.718,10.8,35.838,19.984,6.18,6.712,7.247
73,1.001,36.844,10.783,35.828,19.987,6.22,6.672,7.247
74,0.978,36.932,10.756,35.838,19.984,6.22,6.672,7.41
75,0.984,36.511,10.787,35.838,19.983,6.261,6.631,7.493
76,0.961,36.621,10.791,35.838,19.98,6.302,6.712,7.616
77,0.961,36.747,10.877,35.838,19.987,6.262,6.754,7.698
78,0.945,36.835,10.776,35.857,19.99,6.302,6.673,7.943
79,0.941,36.577,10.814,35.819,19.984,6.18,6.672,7.986
80,0.932,36.718,10.862,35.847,19.983,6.261,6.672,8.271
81,0.922,36.835,10.827,35.838,19.98,6.262,6.631,8.396
82,0.925,36.951,10.807,35.876,19.994,6.384,6.875,8.885
83,0.912,36.789,10.783,35.857,19.987,6.222,6.715,8.971
84,0.925,36.922,10.818,35.847,19.99,6.302,6.672,9.257
85,0.899,37.019,10.811,35.838,19.973,6.18,6.631,9.341
86,0.908,37.068,10.83,35.847,19.98,6.22,6.712,9.586
87,0.905,36.704,10.827,35.838,19.987,6.139,6.672,9.751
88,0.905,36.863,10.827,35.876,19.997,6.341,6.753,10.077
89,0.892,36.942,10.803,35.867,19.984,6.221,6.673,10.081
90,0.905,37.009,10.846,35.857,19.983,6.18,6.672,10.243
91,0.895,36.761,10.764,35.847,19.987,6.261,6.672,10.286
92,0.889,36.902,10.799,35.924,19.984,6.18,6.631,10.286
93,0.876,36.999,10.744,35.858,19.98,6.139,6.59,10.286
94,0.866,37.355,10.81,35.847,19.983,6.179,6.671,10.327
95,0.866,36.985,10.819,35.867,19.983,6.261,6.753,10.49
96,0.869,37.125,10.815,35.876,19.983,6.18,6.592,10.41
97,0.85,37.222,10.819,35.867,19.987,6.179,6.671,10.45
98,0.827,36.83,10.768,35.838,19.973,6.057,6.509,10.247
99,0.836,36.836,10.838,35.838,19.98,6.137,6.589,10.408
100,0.826,36.96,10.784,35.857,19.98,6.098,6.509,10.409
101,0.833,37.106,10.791,35.895,19.997,6.3,6.67,10.572
102,0.826,36.867,10.756,35.896,19.987,6.099,6.55,10.451
103,0.826,36.999,10.814,35.886,19.99,6.138,6.508,10.491
104,0.813,37.068,10.85,35.838,19.977,6.057,6.386,10.247
105,0.82,37.183,10.854,35.876,19.983,6.097,6.547,10.326
106,0.81,37.386,10.878,35.867,19.98,6.097,6.427,10.246
107,0.836,37.541,10.78,35.924,19.99,6.219,6.548,10.326
108,0.823,37.667,10.834,35.896,19.984,6.18,6.508,10.286
109,0.82,37.726,10.807,35.877,19.997,6.139,6.549,10.164
110,0.817,36.509,10.799,35.867,19.987,6.138,6.468,10.082
111,0.82,36.66,10.74,35.876,19.99,6.138,6.467,9.999
112,0.83,36.776,10.791,35.867,19.98,6.057,6.345,9.836
113,0.836,36.845,10.775,35.876,19.99,6.178,6.466,9.956
114,0.807,36.999,10.83,35.867,19.987,6.179,6.386,9.917
115,0.807,37.125,10.873,35.876,19.984,6.22,6.425,9.876
116,0.803,37.251,10.815,35.895,19.99,6.18,6.385,9.835
117,0.8,37.31,10.862,35.867,19.984,6.179,6.344,9.672
118,0.797,36.86,10.776,35.876,19.983,6.139,6.425,9.548
119,0.787,36.97,10.869,35.867,19.977,6.057,6.304,9.547
120,0.784,37.096,10.761,35.905,19.987,6.219,6.506,9.669
121,0.797,37.155,10.81,35.896,19.984,6.18,6.386,9.548
122,0.797,37.021,10.807,35.896,19.99,6.179,6.385,9.506
123,0.777,37.106,10.811,35.877,19.977,6.017,6.263,9.262
124,0.797,37.232,10.869,35.895,19.98,6.056,6.221,9.3
125,0.794,37.521,10.796,35.877,19.98,6.056,6.302,9.219
126,0.81,36.891,10.807,35.934,19.997,6.178,6.384,9.259
127,0.807,36.999,10.772,35.906,19.984,6.139,6.303,9.097
128,0.807,37.125,10.865,35.905,19.987,6.138,6.343,9.136
129,0.787,37.002,10.807,35.867,19.987,6.098,6.221,9.014
130,0.806,37.087,10.83,35.895,19.984,6.097,6.261,8.891
131,0.807,37.193,10.811,35.896,19.983,6.016,6.18,8.849
132,0.807,37.319,10.846,35.896,19.99,6.056,6.22,8.808
133,0.8,36.831,10.917,35.886,19.987,6.097,6.261,8.767
134,0.787,36.941,10.804,35.905,19.99,6.097,6.221,8.685
135,0.793,37.077,10.815,35.915,19.984,6.056,6.22,8.644
136,0.787,37.155,10.69,35.915,19.983,5.975,6.139,8.562
137,0.787,36.868,10.794,35.886,19.98,6.015,6.138,8.399
138,0.78,36.989,10.791,35.896,19.98,5.934,6.098,8.356
139,0.787,37.144,10.811,35.934,19.99,6.014,6.26,8.519
140,0.787,37.232,10.764,35.915,19.987,6.015,6.221,8.358
141,0.784,36.926,10.799,35.915,19.99,5.974,6.302,8.397
142,0.777,37.028,10.815,35.877,19.977,5.811,6.018,8.112
143,0.79,37.154,10.85,35.905,19.987,5.891,6.137,8.191
144,0.787,37.203,10.85,35.867,19.98,5.892,6.098,8.07
145,0.806,36.868,10.788,35.943,19.99,6.014,6.219,8.191
146,0.8,36.999,10.779,35.925,19.987,5.934,6.139,8.07
147,0.794,37.135,10.779,35.934,19.987,5.933,6.098,8.069
148,0.793,37.136,10.838,35.915,19.984,5.933,6.178,7.987
149,0.803,36.925,10.706,35.925,19.98,5.852,6.057,7.905
150,0.803,37.057,10.798,35.915,19.98,5.891,6.056,7.782
151,0.8,37.174,10.791,35.915,19.983,5.851,6.137,7.74
152,0.8,37.213,10.869,35.915,19.983,5.851,6.098,7.699
153,0.803,36.859,10.85,35.925,19.99,5.891,6.138,7.699
154,0.79,36.989,10.799,35.944,19.987,5.933,6.179,7.78
155,0.79,37.096,10.764,35.925,19.984,5.73,5.976,7.578
156,0.8,37.404,10.787,35.925,19.983,5.85,6.055,7.535
157,0.784,36.928,10.842,35.906,19.983,5.81,6.015,7.494
158,0.79,37.076,10.772,35.963,19.994,5.932,6.218,7.697
159,0.78,37.174,10.806,35.935,19.987,5.852,6.098,7.536
160,0.78,36.887,10.756,35.944,19.99,5.932,6.178,7.494
161,0.767,36.884,10.841,35.906,19.984,5.73,6.057,7.331
162,0.78,37.018,10.776,35.934,19.987,5.809,6.137,7.41
163,0.787,37.106,10.76,35.915,19.98,5.81,6.098,7.249
164,0.8,36.867,10.76,35.973,19.99,5.891,6.178,7.369
165,0.787,36.951,10.767,35.935,19.984,5.892,6.22,7.248
166,0.787,37.057,10.767,35.954,19.987,5.892,6.139,7.288
167,0.797,37.135,10.857,35.935,19.984,5.851,6.179,7.329
168,0.8,36.81,10.764,35.954,19.987,5.851,6.057,7.167
169,0.794,36.912,10.775,35.925,19.98,5.891,6.097,7.124
170,0.803,37.047,10.861,35.915,19.987,5.851,6.097,7.043
171,0.8,37.145,10.854,35.934,19.99,5.891,6.178,7.204
172,0.803,36.8,10.803,35.944,19.987,5.892,6.139,7.043
173,0.8,36.95,10.772,36.03,19.987,5.851,6.26,7.123
174,0.787,37.038,10.814,35.935,19.984,5.729,6.099,7.002
175,0.784,37.125,10.787,35.954,19.98,5.85,6.178,7.041
176,0.787,36.896,10.826,35.944,19.973,5.729,6.057,6.96
177,0.8,37.066,10.889,35.982,19.997,6.053,6.3,7.122
178,0.787,37.174,10.804,35.945,19.991,5.934,6.18,7.083
179,0.777,37.242,10.83,35.963,19.994,5.852,6.22,7.083
180,0.761,36.821,10.819,35.935,19.98,5.81,6.139,7.042
181,0.774,36.96,10.842,35.963,19.99,5.81,6.138,7.123
182,0.774,37.077,10.663,35.954,19.98,5.769,6.138,7.165
183,0.787,37.135,10.794,35.973,19.99,5.809,6.179,7.368
184,0.79,36.762,10.772,35.964,19.984,5.769,6.179,7.452
185,0.787,36.902,10.803,35.963,19.99,5.768,6.22,7.574
186,0.79,36.999,10.826,35.954,19.984,5.809,6.139,7.657
187,0.8,37.307,10.803,35.963,19.983,5.688,6.179,7.739
188,0.8,36.898,10.776,35.954,19.983,5.605,6.098,7.943
189,0.8,37.028,10.822,35.944,19.98,5.686,6.097,8.026
190,0.81,37.125,10.846,35.963,19.99,5.809,6.219,8.271
191,0.8,36.906,10.745,35.973,19.987,5.769,6.18,8.396
192,0.8,36.942,10.81,35.992,19.99,5.728,6.22,8.519
193,0.787,37.048,10.799,35.935,19.977,5.646,6.058,8.601
194,0.787,37.164,10.842,35.944,19.983,5.645,6.137,8.846
195,0.784,36.772,10.835,35.954,19.98,5.645,6.098,8.808
196,0.806,36.941,10.909,36.021,20.001,5.767,6.382,9.174
197,0.79,37.048,10.82,35.993,19.991,5.687,6.141,9.137
198,0.784,37.116,10.854,35.993,19.987,5.687,6.179,9.217
199,0.777,36.81,10.831,35.945,19.98,5.605,6.179,9.178
200,0.787,36.97,10.823,35.973,19.983,5.564,6.139,9.34
201,0.777,37.067,10.76,35.964,19.98,5.604,6.179,9.26
202,0.793,37.202,10.826,35.992,19.997,5.808,6.301,9.422
203,0.787,36.715,10.788,35.993,19.984,5.647,6.221,9.383
204,0.797,36.854,10.83,35.993,19.98,5.686,6.22,9.423
205,0.8,36.97,10.862,35.973,19.98,5.605,6.22,9.302
206,0.8,37.038,10.784,35.992,19.987,5.604,6.139,9.504
207,0.79,36.751,10.818,35.993,19.984,5.482,6.179,9.587
208,0.803,36.912,10.807,35.993,19.99,5.644,6.261,9.751
209,0.803,37.019,10.842,35.993,19.984,5.523,6.302,9.996
210,0.82,37.068,10.71,36.012,19.983,5.685,6.384,10.283
211,0.803,36.761,10.79,35.974,19.99,5.524,6.344,10.652
212,0.813,36.883,10.791,35.983,19.987,5.563,6.343,11.022
213,0.8,36.99,10.838,35.983,19.98,5.482,6.303,11.31
214,0.807,37.02,10.815,36.002,19.983,5.644,6.384,11.557
215,0.781,36.886,10.823,35.993,19.987,5.645,6.425,11.884
216,0.793,37.028,10.764,36.002,19.99,5.645,6.426,12.132
217,0.784,37.164,10.814,35.993,19.984,5.645,6.426,12.378
218,0.784,37.347,10.854,35.973,19.983,5.564,6.385,12.381
219,0.777,36.755,10.78,35.992,19.983,5.645,6.344,12.503
220,0.764,36.892,10.83,35.973,19.98,5.564,6.303,12.504
221,0.777,37.019,10.791,36.002,19.994,5.685,6.465,12.626
222,0.78,36.818,10.877,35.993,19.991,5.646,6.507,12.546
223,0.784,36.864,10.827,36.012,19.994,5.727,6.467,12.545
224,0.777,36.951,10.866,35.974,19.973,5.565,6.345,12.342
225,0.784,37.067,10.78,36.002,19.983,5.685,6.384,12.38
226,0.777,36.771,10.775,35.983,19.983,5.605,6.303,12.299
227,0.8,36.941,10.81,36.031,19.994,5.767,6.587,12.421
228,0.794,37.019,10.819,36.012,19.984,5.606,6.468,12.3
229,0.797,37.135,10.791,36.069,19.99,5.686,6.467,12.217
230,0.787,36.705,10.779,35.974,19.98,5.605,6.345,12.013
231,0.793,36.844,10.803,35.992,19.98,5.645,6.425,11.889
232,0.79,36.941,10.83,35.983,19.977,5.645,6.344,11.806
233,0.803,37.057,10.831,36.031,19.987,5.727,6.384,11.806
234,0.794,36.637,10.768,36.031,19.987,5.646,6.344,11.643
235,0.8,36.786,10.826,36.041,19.987,5.686,6.425,11.519
236,0.797,36.893,10.772,36.022,19.987,5.646,6.385,11.437
237,0.784,36.961,10.857,36.002,19.98,5.605,6.303,11.314
238,0.774,36.703,10.772,36.021,19.98,5.645,6.343,11.15
239,0.774,36.834,10.806,36.022,19.983,5.686,6.303,11.067
240,0.761,36.951,10.768,36.031,19.987,5.687,6.465,10.944
241,0.77,37.0,10.845,36.041,19.984,5.646,6.345,10.862
242,0.783,36.789,10.831,36.031,19.987,5.686,6.384,10.739
243,0.771,36.883,10.749,36.022,19.987,5.564,6.385,10.575
244,0.783,36.999,10.845,36.022,19.98,5.563,6.344,10.451
245,0.78,37.029,10.796,36.002,19.983,5.523,6.343,10.288
246,0.793,36.675,10.861,36.05,19.997,5.725,6.547,10.367
247,0.797,36.767,10.831,36.022,19.984,5.646,6.427,10.206
248,0.79,36.912,10.823,36.108,19.99,5.686,6.426,10.041
249,0.784,37.134,10.768,36.003,19.977,5.605,6.304,9.958
250,0.8,36.791,10.822,36.012,19.983,5.645,6.384,9.876
251,0.797,36.902,10.834,36.002,19.98,5.645,6.385,9.753
252,0.8,37.057,10.745,36.041,19.987,5.727,6.425,9.793
253,0.781,36.617,10.806,36.012,19.984,5.646,6.466,9.631
254,0.767,36.613,10.78,36.031,19.987,5.686,6.426,9.629
255,0.777,36.728,10.826,36.031,19.987,5.727,6.426,9.588
256,0.784,36.835,10.811,36.041,19.987,5.687,6.304,9.425
257,0.78,36.663,10.823,36.022,19.98,5.687,6.343,9.261
258,0.777,36.834,10.811,36.031,19.983,5.687,6.343,9.219
259,0.774,36.96,10.826,36.041,19.983,5.727,6.425,9.178
260,0.774,37.058,10.858,36.06,19.983,5.809,6.385,9.218
261,0.771,36.454,10.784,36.051,19.987,5.769,6.385,9.137
262,0.761,36.573,10.807,36.031,19.984,5.606,6.344,9.014
263,0.774,36.718,10.748,36.041,19.987,5.686,6.303,8.932
264,0.78,36.787,10.845,36.051,19.98,5.727,6.302,8.89
265,0.793,36.691,10.811,36.06,19.99,5.89,6.506,9.052
266,0.787,36.806,10.842,36.041,19.984,5.77,6.386,8.769
267,0.793,36.941,10.776,36.07,19.987,5.728,6.466,8.807
268,0.774,36.971,10.764,36.032,19.963,5.646,6.264,8.645
269,0.797,36.588,10.857,36.041,19.983,5.767,6.343,8.644
270,0.8,36.709,10.784,36.012,19.983,5.647,6.303,8.603
271,0.803,36.882,10.822,36.069,19.99,5.889,6.425,8.684
272,0.784,36.903,10.752,36.051,19.99,5.811,6.385,8.522
273,0.79,36.645,10.814,36.06,19.987,5.85,6.425,8.561
274,0.774,36.767,10.819,36.041,19.984,5.769,6.426,8.48
275,0.787,36.873,10.83,36.06,19.987,5.809,6.385,8.438
276,0.767,36.894,10.784,36.051,19.98,5.728,6.385,8.397
277,0.774,36.549,10.799,36.06,19.983,5.727,6.344,8.316
278,0.774,36.689,10.83,36.051,19.987,5.809,6.384,8.356
279,0.771,36.806,10.834,36.051,19.984,5.769,6.385,8.315
280,0.767,36.96,10.745,36.079,19.99,5.809,6.385,8.315
281,0.757,36.31,10.767,36.041,19.977,5.769,6.303,8.193
282,0.767,36.447,10.818,36.041,19.98,5.768,6.384,8.192
283,0.77,36.535,10.819,36.06,19.977,5.768,6.385,8.151
284,0.783,36.718,10.924,36.108,19.99,5.972,6.547,8.313
285,0.774,36.815,10.808,36.061,19.987,5.852,6.427,8.152
286,0.78,36.951,10.752,36.06,19.99,5.81,6.426,8.15
287,0.78,37.019,10.806,36.041,19.98,5.728,6.344,7.988
288,0.793,36.425,10.846,36.051,19.983,5.85,6.303,8.027
289,0.787,36.515,10.823,36.06,19.98,5.769,6.262,7.946
290,0.8,36.679,10.823,36.07,19.987,5.85,6.465,7.945
291,0.79,36.748,10.83,36.06,19.987,5.81,6.386,7.864
292,0.797,36.576,10.823,36.07,19.984,5.81,6.425,7.944
293,0.79,36.708,10.854,36.099,19.987,5.85,6.426,7.945
294,0.78,36.834,10.768,36.061,19.984,5.81,6.385,8.026
295,0.777,36.912,10.775,36.07,19.983,5.728,6.344,7.987
296,0.774,36.501,10.814,36.051,19.973,5.727,6.343,8.19
297,0.767,36.669,10.756,36.079,19.987,5.809,6.384,8.395
298,0.78,36.748,10.838,36.06,19.987,5.85,6.303,8.438
299,0.78,36.844,10.815,36.099,19.994,5.81,6.425,8.641
300,0.754,36.567,10.83,36.07,19.973,5.688,6.263,8.684
301,0.77,36.766,10.838,36.07,19.987,5.727,6.343,8.928
302,0.764,36.854,10.846,36.08,19.984,5.809,6.343,8.931
303,0.787,36.961,10.819,36.118,19.997,5.891,6.506,9.256
304,0.784,36.473,10.776,36.08,19.991,5.811,6.305,9.219
305,0.784,36.602,10.658,36.108,19.99,5.85,6.343,9.3
306,0.784,36.709,10.786,36.07,19.984,5.769,6.262,9.219
307,0.8,36.748,10.775,36.07,19.983,5.809,6.302,9.218
308,0.794,36.595,10.783,36.07,19.98,5.769,6.302,9.259
309,0.793,36.795,10.814,36.089,19.983,5.85,6.302,9.341
310,0.793,36.864,10.826,36.089,19.983,5.769,6.343,9.342
311,0.803,37.057,10.885,36.118,19.994,5.85,6.384,9.342
312,0.781,36.483,10.808,36.109,19.991,5.851,6.303,9.26
313,0.78,36.631,10.776,36.099,19.984,5.81,6.262,9.259
314,0.764,36.719,10.775,36.089,19.98,5.769,6.221,9.219
315,0.761,36.585,10.814,36.089,19.99,5.809,6.22,9.056
316,0.767,36.651,10.768,36.099,19.98,5.891,6.302,9.217
317,0.764,36.786,10.869,36.089,19.99,5.811,6.302,9.178
318,0.761,36.902,10.737,36.118,19.984,5.891,6.302,9.137
319,0.754,36.53,10.798,36.07,19.977,5.729,6.221,8.933
320,0.761,36.66,10.846,36.108,19.98,5.85,6.22,9.053
321,0.751,36.776,10.819,36.09,19.98,5.81,6.18,8.932
322,0.77,36.893,10.803,36.147,19.997,5.972,6.464,9.134
323,0.764,36.434,10.764,36.128,19.984,5.852,6.304,8.974
324,0.79,36.582,10.799,36.118,19.994,5.851,6.343,9.013
325,0.767,36.651,10.783,36.08,19.98,5.729,6.221,8.769
326,0.774,36.767,10.853,36.108,19.983,5.85,6.302,8.889
327,0.777,36.461,10.776,36.099,19.977,5.81,6.262,8.768
328,0.793,36.688,10.834,36.137,19.99,5.972,6.424,8.97
329,0.787,36.767,10.768,36.109,19.997,5.811,6.385,8.809
330,0.813,36.825,10.877,36.109,19.984,5.81,6.385,8.889
331,0.794,36.423,10.808,36.109,19.987,5.932,6.344,8.89
332,0.797,36.553,10.76,36.109,19.99,5.852,6.343,8.727
333,0.784,36.66,10.81,36.099,19.984,5.81,6.303,8.807
334,0.767,36.719,10.799,36.109,19.98,5.728,6.302,8.93
335,0.774,36.566,10.893,36.118,19.987,5.85,6.343,9.012
336,0.774,36.689,10.831,36.118,19.987,5.81,6.343,9.216
337,0.774,36.825,10.854,36.147,19.994,5.891,6.384,9.422
338,0.758,36.836,10.823,36.099,19.973,5.689,6.222,9.586
339,0.767,36.5,10.838,36.089,19.983,5.768,6.261,9.994
340,0.757,36.621,10.834,36.099,19.977,5.809,6.262,10.365
341,0.767,36.786,10.78,36.147,19.99,5.972,6.424,10.897
342,0.757,36.941,10.795,36.128,19.99,5.811,6.385,11.024
343,0.764,36.463,10.783,36.147,19.987,5.891,6.344,11.31
344,0.761,36.544,10.838,36.09,19.977,5.729,6.221,11.475
345,0.767,36.67,10.795,36.118,19.983,5.768,6.342,11.64
346,0.761,36.575,10.83,36.099,19.977,5.728,6.221,11.723
347,0.787,36.689,10.834,36.156,19.99,5.931,6.464,12.049
348,0.78,36.777,10.803,36.138,19.987,5.77,6.345,12.093
349,0.78,36.883,10.861,36.147,19.994,5.768,6.466,12.052
350,0.767,36.405,10.753,36.128,19.984,5.728,6.264,11.971
351,0.78,36.534,10.853,36.128,19.987,5.809,6.384,12.051
352,0.777,36.641,10.8,36.118,19.98,5.769,6.303,11.93
353,0.79,36.748,10.881,36.118,19.99,5.768,6.302,11.97
354,0.774,36.394,10.827,36.128,19.984,5.728,6.343,11.848
355,0.774,36.534,10.842,36.138,19.983,5.768,6.343,11.765
356,0.774,36.67,10.737,36.157,19.983,5.809,6.384,11.642
357,0.771,36.729,10.802,36.119,19.983,5.728,6.466,11.56
358,0.754,36.451,10.822,36.137,19.977,5.687,6.386,11.356
359,0.761,36.592,10.811,36.147,19.983,5.768,6.344,11.313
360,0.748,36.699,10.826,36.128,19.983,5.768,6.466,11.272
361,0.76,36.786,10.784,36.147,19.99,5.768,6.467,11.15
362,0.774,36.452,10.869,36.147,19.987,5.809,6.467,10.986
363,0.761,36.573,10.811,36.128,19.98,5.647,6.386,10.781
364,0.77,36.68,10.795,36.138,19.98,5.727,6.425,10.738
365,0.77,36.738,10.729,36.128,19.977,5.646,6.426,10.575
366,0.787,36.528,10.814,36.176,19.99,5.849,6.588,10.655
367,0.787,36.631,10.764,36.138,19.984,5.688,6.468,10.452
368,0.787,36.757,10.822,36.166,19.983,5.727,6.426,10.369
369,0.771,36.749,10.827,36.128,19.973,5.565,6.344,10.084
370,0.796,36.509,10.772,36.138,19.976,5.726,6.466,10.081
371,0.79,36.631,10.838,36.128,19.976,5.565,6.386,10.04
372,0.79,36.805,10.838,36.157,19.994,5.726,6.466,10.04
373,0.774,36.922,10.803,36.167,19.98,5.565,6.467,9.918
374,0.777,36.453,10.764,36.167,19.987,5.645,6.507,9.916
375,0.771,36.554,10.779,36.157,19.984,5.645,6.467,9.754
376,0.774,36.67,10.768,36.148,19.987,5.727,6.426,9.712
377,0.771,36.441,10.826,36.147,19.977,5.646,6.385,9.589
378,0.777,36.515,10.768,36.157,19.983,5.686,6.425,9.547
379,0.774,36.65,10.806,36.167,19.987,5.605,6.426,9.384
380,0.774,36.738,10.822,36.176,19.984,5.686,6.426,9.423
381,0.774,36.432,10.862,36.176,19.987,5.646,6.466,9.424
382,0.761,36.525,10.827,36.157,19.98,5.564,6.304,9.139
383,0.767,36.65,10.663,36.186,19.98,5.523,6.343,9.095
384,0.777,36.738,10.782,36.167,19.97,5.522,6.384,9.054
385,0.78,36.413,10.771,36.186,19.997,5.725,6.507,9.257
386,0.78,36.525,10.822,36.157,19.984,5.646,6.386,9.015
387,0.78,36.66,10.795,36.195,19.987,5.645,6.466,8.972
388,0.777,36.7,10.799,36.148,19.977,5.564,6.304,8.85
389,0.79,36.393,10.807,36.176,19.987,5.604,6.384,8.808
390,0.8,36.496,10.819,36.138,19.977,5.564,6.344,8.767
391,0.803,36.669,10.834,36.195,19.997,5.604,6.506,8.807
392,0.781,36.7,10.792,36.215,19.98,5.564,6.427,8.645
393,0.78,36.374,10.838,36.196,19.99,5.604,6.426,8.562
394,0.78,36.515,10.799,36.186,19.973,5.645,6.466,8.602
395,0.774,36.641,10.826,36.157,19.983,5.564,6.386,8.48
396,0.771,36.661,10.807,36.157,19.973,5.523,6.344,8.357
397,0.757,36.307,10.822,36.167,19.983,5.563,6.262,8.397
398,0.764,36.456,10.76,36.176,19.98,5.563,6.384,8.316
399,0.761,36.583,10.814,36.186,19.99,5.563,6.385,8.274
400,0.761,36.622,10.869,36.196,19.987,5.604,6.385,8.274
401,0.748,36.354,10.753,36.177,19.973,5.523,6.303,8.071
402,0.767,36.495,10.806,36.167,19.983,5.522,6.343,8.069
403,0.764,36.583,10.764,36.186,19.98,5.522,6.262,8.028
404,0.787,36.804,10.877,36.224,19.994,5.685,6.424,8.19
405,0.774,36.423,10.827,36.196,19.984,5.524,6.344,8.029
406,0.784,36.534,10.905,36.196,19.994,5.644,6.425,7.987
407,0.78,36.631,10.792,36.205,19.973,5.483,6.222,7.783
408,0.787,36.297,10.791,36.186,19.987,5.562,6.342,7.944
409,0.771,36.303,10.799,36.167,19.984,5.482,6.303,7.945
410,0.8,36.495,10.822,36.224,19.994,5.725,6.465,8.026
411,0.79,36.545,10.776,36.196,19.991,5.646,6.386,8.027
412,0.803,36.296,10.791,36.196,19.994,5.645,6.425,8.068
413,0.777,36.399,10.744,36.186,19.977,5.483,6.263,8.028
414,0.784,36.525,10.822,36.186,19.98,5.644,6.302,8.109
415,0.787,36.612,10.827,36.186,19.977,5.564,6.262,8.109
416,0.803,36.354,10.799,36.224,19.997,5.645,6.424,8.394
417,0.794,36.476,10.854,36.196,19.984,5.645,6.304,8.275
418,0.797,36.602,10.807,36.215,19.99,5.605,6.384,8.355
419,0.79,36.67,10.854,36.215,19.98,5.604,6.385,8.397
420,0.787,36.259,10.803,36.244,19.983,5.604,6.344,8.397
421,0.793,36.398,10.807,36.196,19.98,5.564,6.303,8.356
422,0.803,36.534,10.791,36.205,19.983,5.604,6.343,8.437
423,0.8,36.603,10.857,36.215,19.98,5.645,6.384,8.438
424,0.816,36.421,10.819,36.206,19.983,5.645,6.344,8.397
425,0.813,36.534,10.842,36.225,19.994,5.645,6.303,8.397
426,0.803,36.66,10.799,36.206,19.977,5.645,6.262,8.275
427,0.833,36.719,10.807,36.205,19.98,5.605,6.343,8.314
428,0.839,36.24,10.865,36.205,19.983,5.523,6.303,8.274
429,0.856,36.417,10.784,36.234,19.997,5.766,6.425,8.436
430,0.866,36.506,10.842,36.234,19.991,5.647,6.385,8.275
431,0.859,36.535,10.792,36.234,19.994,5.727,6.344,8.274
432,0.833,36.181,10.826,36.167,19.973,5.524,6.221,8.03
433,0.846,36.331,10.815,36.215,19.98,5.644,6.302,8.149
434,0.84,36.438,10.744,36.196,19.983,5.605,6.302,8.11
435,0.869,36.678,10.736,36.272,19.997,5.808,6.425,8.272
436,0.856,36.431,10.744,36.225,19.991,5.688,6.304,8.152
437,0.846,36.554,10.826,36.244,19.987,5.687,6.343,8.232
438,0.84,36.632,10.78,36.206,19.973,5.564,6.303,8.151
439,0.849,36.22,10.838,36.234,19.98,5.604,6.343,8.11
440,0.846,36.225,10.76,36.215,19.983,5.564,6.303,8.069
441,0.853,36.389,10.842,36.234,19.98,5.685,6.425,8.028
442,0.846,36.476,10.87,36.225,19.977,5.564,6.344,8.068
443,0.862,36.228,10.792,36.225,19.987,5.604,6.343,8.109
444,0.862,36.35,10.736,36.234,19.987,5.645,6.384,8.109
445,0.862,36.486,10.755,36.234,19.99,5.605,6.303,7.947
446,0.856,36.535,10.791,36.225,19.987,5.604,6.302,7.986
447,0.869,36.209,10.818,36.234,19.98,5.564,6.262,7.905
448,0.879,36.379,10.83,36.273,19.99,5.645,6.384,7.985
449,0.882,36.486,10.795,36.254,19.987,5.605,6.344,7.946
450,0.892,36.573,10.846,36.244,19.984,5.604,6.466,7.945
451,0.879,36.095,10.831,36.206,19.977,5.442,6.182,7.742
452,0.885,36.272,10.78,36.244,19.983,5.603,6.261,7.74
453,0.882,36.351,10.818,36.244,19.973,5.523,6.262,7.659
454,0.872,36.486,10.784,36.273,19.994,5.685,6.465,7.861
455,0.853,36.084,10.818,36.244,19.984,5.564,6.386,7.822
456,0.843,36.215,10.795,36.263,19.987,5.604,6.385,7.863
457,0.817,36.321,10.815,36.235,19.987,5.482,6.303,7.7
458,0.823,36.399,10.784,36.244,19.984,5.562,6.302,7.74
459,0.826,36.256,10.795,36.225,19.977,5.482,6.302,7.618
460,0.807,36.418,10.838,36.263,19.99,5.644,6.384,7.739
461,0.8,36.496,10.792,36.254,19.99,5.605,6.385,7.659
462,0.8,36.554,10.822,36.331,19.99,5.523,6.385,7.698
463,0.81,36.229,10.795,36.264,19.994,5.563,6.425,7.699
464,0.807,36.369,10.811,36.254,19.984,5.563,6.344,7.618
465,0.794,36.467,10.764,36.244,19.987,5.482,6.303,7.576
466,0.777,36.564,10.838,36.263,19.98,5.481,6.384,7.494
467,0.79,36.219,10.807,36.283,19.987,5.562,6.425,7.697
468,0.787,36.34,10.783,36.264,19.987,5.604,6.385,7.536
469,0.79,36.457,10.873,36.264,19.987,5.564,6.425,7.534
470,0.787,36.151,10.784,36.225,19.984,5.441,6.263,7.412
471,0.803,36.225,10.768,36.273,19.983,5.481,6.343,7.493
472,0.797,36.36,10.783,36.254,19.98,5.522,6.221,7.331
473,0.81,36.505,10.877,36.283,19.997,5.766,6.464,7.614
474,0.79,36.037,10.835,36.264,19.991,5.565,6.345,7.535
475,0.78,36.156,10.846,36.283,19.99,5.563,6.384,7.575
476,0.78,36.244,10.831,36.245,19.984,5.482,6.344,7.454
477,0.774,36.37,10.799,36.263,19.983,5.562,6.343,7.452
478,0.787,36.026,10.795,36.244,19.983,5.523,6.221,7.412
479,0.793,36.176,10.811,36.282,19.987,5.644,6.383,7.533
480,0.767,36.302,10.795,36.283,19.987,5.605,6.303,7.575
481,0.783,36.399,10.799,36.264,19.984,5.564,6.343,7.535
482,0.784,36.122,10.799,36.283,19.99,5.563,6.303,7.534
483,0.777,36.244,10.815,36.283,19.987,5.604,6.262,7.575
484,0.777,36.35,10.873,36.254,19.98,5.645,6.262,7.535
485,0.78,36.419,10.835,36.263,19.98,5.564,6.221,7.453
486,0.79,36.036,10.831,36.321,19.99,5.685,6.342,7.574
487,0.8,36.156,10.807,36.274,19.98,5.605,6.303,7.575
488,0.794,36.302,10.834,36.302,19.983,5.686,6.384,7.616
489,0.784,36.284,10.788,36.245,19.97,5.483,6.181,7.617
490,0.806,35.986,10.818,36.282,19.983,5.562,6.301,7.861
491,0.8,36.098,10.78,36.254,19.98,5.563,6.221,7.944
492,0.797,36.243,10.81,36.321,19.997,5.685,6.383,8.474
493,0.79,36.245,10.846,36.283,19.991,5.564,6.303,8.723
494,0.784,36.111,10.846,36.302,19.984,5.645,6.343,9.132
495,0.774,36.234,10.838,36.302,19.98,5.645,6.262,9.543
496,0.754,36.35,10.784,36.312,19.994,5.564,6.384,9.872
497,0.757,36.419,10.834,36.274,19.98,5.645,6.344,10.282
498,0.754,36.017,10.831,36.292,19.99,5.605,6.303,10.571
499,0.751,36.175,10.76,36.302,19.984,5.604,6.343,10.858
500,0.748,36.273,10.767,36.302,19.99,5.564,6.384,11.146
501,0.738,36.063,10.783,36.312,19.987,5.685,6.385,11.311
502,0.738,36.118,10.838,36.302,19.987,5.646,6.425,11.353
503,0.751,36.234,10.838,36.302,19.98,5.645,6.344,11.476
504,0.741,36.322,10.807,36.274,19.98,5.523,6.221,11.558
505,0.754,35.862,10.737,36.312,19.99,5.685,6.424,11.64
506,0.754,35.963,10.826,36.302,19.984,5.687,6.426,11.641
507,0.748,36.117,10.764,36.331,19.99,5.687,6.385,11.682
508,0.744,36.138,10.83,36.274,19.973,5.564,6.141,11.601
509,0.747,35.947,10.776,36.312,19.987,5.685,6.341,11.763
510,0.754,36.108,10.83,36.264,19.977,5.564,6.303,11.642
511,0.754,36.253,10.85,36.34,19.997,5.888,6.506,11.885
512,0.744,36.274,10.823,36.322,19.987,5.811,6.386,11.725
513,0.738,35.9,10.807,36.322,19.99,5.81,6.385,11.805
514,0.715,36.002,10.67,36.302,19.973,5.688,6.303,11.602
515,0.728,36.175,10.817,36.302,19.983,5.768,6.302,11.6
516,0.712,36.215,10.764,36.283,19.977,5.809,6.302,11.6
517,0.728,36.072,10.857,36.34,19.99,5.85,6.343,11.6
518,0.718,36.195,10.753,36.322,19.984,5.851,6.343,11.519
519,0.728,36.321,10.779,36.322,19.99,5.891,6.384,11.477
520,0.721,36.351,10.834,36.312,19.984,5.973,6.385,11.477
521,0.718,35.891,10.823,36.331,19.987,5.893,6.344,11.396
522,0.715,36.021,10.799,36.312,19.98,5.811,6.221,11.273
523,0.721,36.147,10.783,36.341,19.99,5.85,6.302,11.15
524,0.721,36.167,10.795,36.341,19.987,5.932,6.384,11.189
525,0.734,35.995,10.787,36.341,19.99,5.974,6.303,11.108
526,0.734,36.137,10.857,36.341,19.984,5.974,6.384,11.067
527,0.734,36.206,10.796,36.322,19.98,5.852,6.263,10.904
528,0.734,36.302,10.818,36.322,19.98,5.932,6.262,10.943
529,0.728,35.977,10.756,36.312,19.973,5.892,6.262,10.781
530,0.751,36.166,10.865,36.35,19.994,6.054,6.465,10.901
531,0.748,36.215,10.804,36.332,19.987,5.975,6.304,10.699
532,0.751,35.909,10.815,36.341,19.987,6.015,6.302,10.656
533,0.735,35.915,10.823,36.312,19.977,5.893,6.221,10.412
534,0.734,36.059,10.811,36.321,19.987,6.014,6.302,10.409
535,0.741,36.147,10.865,36.331,19.984,5.934,6.302,10.287
536,0.747,35.832,10.827,36.341,19.99,5.974,6.343,10.367
537,0.741,35.934,10.85,36.341,19.98,6.015,6.262,10.124
538,0.734,36.088,10.815,36.341,19.987,5.974,6.302,10.163
539,0.741,36.167,10.885,36.341,19.99,6.015,6.302,10.0
540,0.721,35.851,10.835,36.341,19.987,6.015,6.262,9.917
541,0.721,35.992,10.795,36.341,19.984,5.974,6.221,9.916
542,0.721,36.118,10.764,36.341,19.98,5.893,6.22,9.754
543,0.734,36.205,10.826,36.351,19.997,5.933,6.261,9.833
544,0.738,36.283,10.854,36.341,19.984,5.974,6.302,9.631
545,0.747,36.456,10.858,36.37,19.987,5.974,6.262,9.629
546,0.731,36.516,10.784,36.313,19.973,5.811,6.058,9.344
547,0.747,36.612,10.779,36.35,19.98,5.932,6.219,9.382
548,0.725,35.539,10.838,36.332,19.973,5.852,6.22,9.261
549,0.754,35.73,10.792,36.37,19.99,6.054,6.424,9.341
550,0.751,35.837,10.721,36.37,19.984,6.015,6.263,9.138
551,0.757,35.896,10.806,36.351,19.987,5.893,6.343,9.177
552,0.744,35.925,10.803,36.341,19.984,5.973,6.262,8.974
553,0.734,36.06,10.854,36.341,19.983,5.893,6.262,9.013
554,0.718,36.166,10.842,36.341,19.983,5.811,6.221,8.85
555,0.724,36.225,10.831,36.351,19.987,5.932,6.261,8.808
556,0.741,35.717,10.749,36.37,19.994,5.933,6.262,8.767
557,0.718,35.875,10.818,36.36,19.987,5.892,6.302,8.726
558,0.711,35.973,10.826,36.351,19.984,5.973,6.343,8.766
559,0.702,36.098,10.791,36.36,19.98,5.771,6.14,8.604
560,0.708,35.927,10.818,36.351,19.983,5.809,6.219,8.562
561,0.718,36.021,10.799,36.341,19.977,5.85,6.22,8.521
562,0.75,36.176,10.873,36.389,19.997,5.973,6.342,8.683
563,0.754,35.755,10.843,36.361,19.991,5.893,6.303,8.603
564,0.79,35.789,10.866,36.389,19.984,5.892,6.302,8.602
565,0.78,35.866,10.737,36.322,19.97,5.729,6.18,8.399
566,0.803,36.011,10.845,36.37,19.976,5.809,6.22,8.438
567,0.823,35.677,10.772,36.341,19.98,5.81,6.22,8.397
568,0.865,35.827,10.873,36.398,19.997,5.972,6.424,8.6
569,0.879,35.943,10.772,36.37,19.991,5.811,6.344,8.44
570,0.924,36.021,10.799,36.38,19.99,5.85,6.303,8.479
571,0.944,35.744,10.799,36.351,19.984,5.81,6.221,8.52
572,1.003,35.895,10.811,36.37,19.983,5.85,6.261,8.601
573,0.997,36.011,10.729,36.37,19.977,5.729,6.18,8.602
574,1.01,36.128,10.693,36.399,19.987,5.89,6.342,8.765
575,1.014,35.697,10.821,36.38,19.987,5.811,6.303,8.807
576,1.027,35.837,10.807,36.361,19.984,5.85,6.384,8.93
577,1.017,35.944,10.865,36.379,19.99,5.769,6.303,9.012
578,1.049,36.012,10.804,36.38,19.987,5.85,6.343,9.013
579,1.06,35.773,10.822,36.38,19.977,5.729,6.262,9.176
580,1.047,35.914,10.807,36.389,19.987,5.727,6.302,9.259
581,1.04,36.021,10.861,36.38,19.987,5.768,6.343,9.422
582,1.043,36.089,10.764,36.389,19.987,5.728,6.262,9.505
583,1.024,35.735,10.705,36.409,19.984,5.768,6.343,9.506
584,1.017,35.856,10.751,36.38,19.977,5.687,6.181,9.384
585,0.965,35.953,10.814,36.389,19.983,5.646,6.261,9.423
586,0.929,35.993,10.826,36.37,19.977,5.727,6.221,9.383
587,0.912,35.811,10.885,36.408,19.994,5.727,6.383,9.627
588,0.889,35.905,10.808,36.38,19.98,5.687,6.303,9.588
589,0.866,36.031,10.822,36.399,19.987,5.768,6.302,9.547
590,0.84,36.041,10.803,36.351,19.973,5.606,6.14,9.384
591,0.836,35.783,10.787,36.379,19.987,5.686,6.219,9.464
592,0.817,35.933,10.678,36.38,19.984,5.605,6.139,9.505
593,0.826,36.06,10.786,36.399,19.99,5.808,6.301,9.628
594,0.781,35.658,10.736,36.389,19.987,5.728,6.302,9.751
595,0.706,35.702,10.826,36.399,19.987,5.687,6.302,9.833
596,0.614,35.818,10.819,36.399,19.99,5.646,6.343,10.078
597,0.544,35.915,10.784,36.38,19.987,5.645,6.303,10.243
598,0.505,35.676,10.799,36.37,19.984,5.645,6.18,10.611
599,0.469,35.808,10.772,36.389,19.98,5.645,6.301,10.981
600,0.406,35.934,10.869,36.409,19.983,5.686,6.262,11.472
601,0.341,36.04,10.741,36.418,19.983,5.687,6.302,12.087
602,0.265,35.639,10.814,36.399,19.987,5.727,6.343,12.581
603,0.219,35.769,10.815,36.38,19.977,5.565,6.221,12.992
604,0.222,35.895,10.807,36.389,19.983,5.604,6.18,13.525
605,0.222,35.944,10.826,36.38,19.977,5.564,6.22,13.815
606,0.219,35.676,10.838,36.418,19.997,5.726,6.383,14.306
607,0.228,35.798,10.87,36.466,19.984,5.646,6.303,14.433
608,0.235,35.934,10.765,36.419,19.99,5.727,6.302,14.719
609,0.228,35.954,10.857,36.371,19.977,5.565,6.221,14.599
610,0.267,35.657,10.768,36.399,19.983,5.685,6.261,14.761
611,0.274,35.798,10.799,36.399,19.983,5.564,6.221,14.722
612,0.31,35.953,10.838,36.437,19.99,5.766,6.302,14.965
613,0.327,35.974,10.846,36.419,19.987,5.809,6.262,15.009
614,0.359,35.705,10.87,36.418,19.99,5.728,6.302,15.05
615,0.399,35.827,10.847,36.409,19.98,5.768,6.18,15.172
616,0.435,35.953,10.838,36.418,19.987,5.728,6.22,15.336
617,0.445,35.974,10.76,36.418,19.98,5.687,6.18,15.5
618,0.445,35.744,10.81,36.418,19.99,5.768,6.179,15.827
619,0.487,35.856,10.791,36.428,19.99,5.728,6.22,16.155
620,0.524,35.982,10.787,36.438,19.99,5.727,6.302,16.484
621,0.55,36.012,10.775,36.438,19.99,5.85,6.343,16.894
622,0.57,35.715,10.803,36.419,19.994,5.81,6.303,17.142
623,0.606,35.837,10.873,36.428,19.98,5.728,6.302,17.47
624,0.645,35.924,10.843,36.409,19.973,5.687,6.262,17.717
625,0.672,35.705,10.835,36.428,19.987,5.809,6.384,18.004
626,0.685,35.77,10.71,36.438,19.987,5.769,6.385,18.048
627,0.695,35.914,10.829,36.438,19.984,5.809,6.385,18.129
628,0.688,35.944,10.815,36.399,19.973,5.606,6.181,17.927
629,0.721,35.628,10.811,36.418,19.983,5.645,6.301,17.803
630,0.724,35.74,10.795,36.409,19.977,5.645,6.262,17.679
631,0.741,35.904,10.838,36.457,19.997,5.889,6.465,17.76
632,0.738,35.963,10.866,36.448,19.991,5.729,6.467,17.313
633,0.747,35.542,10.831,36.419,19.984,5.768,6.426,17.106
634,0.741,35.672,10.807,36.428,19.977,5.728,6.385,16.859
635,0.754,35.836,10.741,36.428,19.983,5.727,6.385,16.654
636,0.754,35.896,10.806,36.418,19.98,5.687,6.303,16.367
637,0.77,35.762,10.78,36.438,19.987,5.768,6.425,16.161
638,0.787,35.904,10.818,36.438,19.984,5.728,6.426,15.874
639,0.784,36.031,10.799,36.438,19.987,5.768,6.507,15.587
640,0.777,36.118,10.799,36.457,19.994,5.809,6.63,15.421
641,0.774,35.544,10.85,36.428,19.98,5.688,6.428,15.135
642,0.784,35.672,10.796,36.428,19.98,5.727,6.466,15.051
643,0.79,35.779,10.803,36.409,19.977,5.646,6.426,14.887
644,0.806,35.876,10.721,36.476,19.994,5.889,6.629,15.211
645,0.803,35.723,10.81,36.419,19.987,5.729,6.55,15.255
646,0.81,35.875,10.748,36.447,19.987,5.768,6.59,15.58
647,0.803,35.944,10.845,36.419,19.977,5.606,6.468,15.706
648,0.816,35.983,10.745,36.428,19.994,5.686,6.507,15.992
649,0.82,35.552,10.791,36.428,19.984,5.646,6.549,16.076
650,0.833,35.701,10.799,36.457,19.987,5.808,6.63,16.28
651,0.826,35.789,10.877,36.428,19.987,5.688,6.509,16.241
652,0.833,35.886,10.823,36.438,19.987,5.687,6.63,16.322
653,0.82,35.752,10.76,36.467,19.99,5.809,6.631,16.16
654,0.817,35.856,10.814,36.438,19.98,5.728,6.59,16.037
655,0.81,35.953,10.756,36.428,19.983,5.727,6.549,15.832
656,0.816,35.6,10.841,36.438,19.987,5.768,6.63,15.668
657,0.826,35.625,10.862,36.438,19.984,5.768,6.631,15.422
658,0.817,35.778,10.858,36.457,19.987,5.768,6.753,15.257
659,0.82,35.876,10.772,36.448,19.984,5.768,6.754,15.052
660,0.81,35.57,10.857,36.438,19.983,5.768,6.592,14.725
661,0.82,35.711,10.764,36.438,19.98,5.768,6.59,14.518
662,0.813,35.846,10.701,36.428,19.98,5.687,6.631,14.231
663,0.826,35.934,10.798,36.457,19.987,5.809,6.712,14.066
664,0.833,35.657,10.752,36.457,19.99,5.81,6.672,13.78
665,0.836,35.798,10.83,36.457,19.99,5.891,6.672,13.533
666,0.833,35.866,10.823,36.428,19.977,5.729,6.509,13.164
667,0.856,35.973,10.834,36.447,19.98,5.768,6.63,13.08
668,0.843,35.485,10.803,36.419,19.98,5.768,6.509,12.754
669,0.859,35.652,10.861,36.466,20.001,5.931,6.792,12.791
670,0.862,35.74,10.811,36.467,19.991,5.77,6.633,12.385
671,0.859,35.818,10.783,36.467,19.987,5.809,6.672,12.218
672,0.836,35.483,10.818,36.419,19.977,5.688,6.55,11.81
673,0.836,35.662,10.78,36.447,19.983,5.809,6.671,11.724
674,0.83,35.769,10.81,36.447,19.98,5.728,6.509,11.561
675,0.852,35.837,10.846,36.476,19.994,5.931,6.63,11.519
676,0.84,35.646,10.858,36.457,19.984,5.811,6.55,11.193
677,0.833,35.798,10.69,36.476,19.987,5.85,6.63,11.108
678,0.82,35.924,10.813,36.438,19.987,5.769,6.55,10.945
679,0.836,35.925,10.819,36.457,19.977,5.768,6.549,10.74
680,0.82,35.551,10.815,36.448,19.983,5.728,6.549,10.616
681,0.82,35.711,10.78,36.467,19.987,5.727,6.508,10.493
682,0.83,35.818,10.834,36.457,19.987,5.809,6.508,10.369
683,0.839,35.857,10.76,36.467,19.984,5.81,6.589,10.287
684,0.859,35.666,10.822,36.476,19.99,5.81,6.549,10.164
685,0.853,35.788,10.811,36.457,19.98,5.728,6.386,9.96
686,0.856,35.866,10.764,36.457,19.994,5.768,6.507,9.917
687,0.853,35.56,10.767,36.438,19.977,5.728,6.427,9.794
688,0.869,35.634,10.787,36.486,19.997,5.89,6.588,9.875
689,0.859,35.721,10.85,36.467,19.987,5.851,6.509,9.753
690,0.879,35.856,10.792,36.486,19.99,5.81,6.427,9.671
691,0.869,35.378,10.811,36.438,19.977,5.647,6.304,9.385
692,0.879,35.517,10.815,36.447,19.987,5.767,6.384,9.505
693,0.866,35.634,10.877,36.428,19.977,5.768,6.425,9.343
694,0.866,35.759,10.874,36.486,20.001,5.85,6.588,9.464
695,0.859,35.444,10.85,36.457,19.991,5.729,6.509,9.383
696,0.862,35.594,10.749,36.476,19.99,5.768,6.549,9.464
697,0.84,35.721,10.826,36.457,19.984,5.809,6.468,9.505
698,0.856,35.818,10.815,36.457,19.99,5.769,6.548,9.546
699,0.846,35.521,10.819,36.457,19.98,5.687,6.508,9.547
700,0.843,35.701,10.772,36.448,19.983,5.687,6.508,9.75
701,0.846,35.808,10.826,36.467,19.983,5.768,6.63,9.793
702,0.862,35.876,10.823,36.486,19.987,5.768,6.631,9.915
703,0.853,35.541,10.869,36.496,19.987,5.728,6.59,9.916
704,0.869,35.682,10.823,36.467,19.987,5.727,6.631,9.998
705,0.866,35.789,10.795,36.457,19.984,5.687,6.59,9.999
706,0.872,35.876,10.748,36.486,19.987,5.687,6.631,9.999
707,0.885,35.532,10.783,36.477,19.987,5.727,6.672,10.08
708,0.885,35.672,10.826,36.486,19.99,5.768,6.672,10.081
709,0.879,35.789,10.706,36.505,19.98,5.768,6.713,10.081
710,0.889,35.828,10.814,36.486,19.987,5.687,6.591,10.04
711,0.892,35.512,10.807,36.457,19.984,5.605,6.59,9.958
712,0.895,35.653,10.869,36.486,19.983,5.645,6.59,9.876
713,0.886,35.769,10.772,36.467,19.987,5.727,6.671,9.916
714,0.889,35.828,10.771,36.496,19.99,5.768,6.631,9.835
715,0.885,35.694,10.756,36.486,19.99,5.85,6.59,9.794
716,0.872,35.798,10.775,36.438,19.98,5.648,6.468,9.59
717,0.879,35.914,10.877,36.476,19.987,5.686,6.589,9.629
718,0.879,35.494,10.769,36.467,19.984,5.646,6.549,9.466
719,0.882,35.576,10.849,36.505,19.997,5.889,6.63,9.627
720,0.879,35.701,10.819,36.486,19.991,5.811,6.55,9.507
721,0.885,35.818,10.889,36.496,19.994,5.891,6.59,9.465
722,0.869,35.32,10.737,36.457,19.973,5.689,6.387,9.262
723,0.885,35.459,10.775,36.495,19.98,5.809,6.547,9.259
724,0.879,35.595,10.775,36.467,19.977,5.728,6.468,9.097
725,0.905,35.73,10.791,36.515,19.997,5.972,6.589,9.258
726,0.895,35.453,10.799,36.486,19.98,5.852,6.509,9.097
727,0.895,35.604,10.834,36.486,19.99,5.891,6.549,8.973
728,0.892,35.711,10.838,36.486,19.98,5.689,6.468,8.931
729,0.905,35.779,10.776,36.467,19.983,5.768,6.507,8.89
730,0.912,35.416,10.857,36.467,19.983,5.768,6.345,8.768
731,0.918,35.604,10.784,36.486,19.983,5.85,6.506,8.767
732,0.905,35.711,10.779,36.486,19.987,5.891,6.467,8.685
733,0.908,35.77,10.768,36.496,19.99,5.892,6.507,8.684
734,0.915,35.377,10.814,36.496,19.987,5.892,6.508,8.644
735,0.909,35.527,10.803,36.486,19.987,5.851,6.467,8.603
736,0.899,35.634,10.834,36.467,19.984,5.81,6.467,8.521
737,0.908,35.692,10.792,36.486,19.98,5.81,6.426,8.642
738,0.912,35.491,10.807,36.477,19.983,5.932,6.507,8.603
739,0.918,35.624,10.83,36.476,19.99,5.892,6.467,8.602
740,0.922,35.759,10.823,36.505,19.99,5.933,6.507,8.684
741,0.905,35.751,10.768,36.477,19.977,5.811,6.345,8.481
742,0.908,35.435,10.767,36.476,19.987,5.891,6.343,8.601
743,0.918,35.575,10.838,36.476,19.984,5.811,6.343,8.684
744,0.938,35.701,10.831,36.505,19.997,6.054,6.547,9.05
745,0.938,35.674,10.854,36.486,19.991,5.975,6.427,9.054
746,0.938,35.453,10.819,36.496,19.987,5.974,6.466,9.339
747,0.932,35.556,10.826,36.534,19.98,5.811,6.304,9.586
748,0.938,35.701,10.834,36.496,19.977,5.932,6.343,9.954
749,0.941,35.367,10.838,36.467,19.98,5.852,6.262,10.283
750,0.964,35.45,10.792,36.505,19.994,6.013,6.384,10.733
751,0.948,35.575,10.76,36.477,19.987,5.893,6.344,11.022
752,0.951,35.673,10.814,36.496,19.99,5.892,6.384,11.269
753,0.945,35.299,10.811,36.496,19.984,5.892,6.425,11.556
754,0.938,35.449,10.842,36.486,19.987,5.851,6.263,11.722
755,0.935,35.556,10.811,36.486,19.984,5.932,6.262,11.846
756,0.935,35.653,10.807,36.496,19.98,5.852,6.262,11.969
757,0.928,35.366,10.783,36.496,19.983,5.851,6.302,12.051
758,0.951,35.479,10.846,36.486,19.994,5.932,6.262,12.215
759,0.958,35.624,10.85,36.496,19.991,5.974,6.343,12.176
760,0.941,35.673,10.807,36.525,19.984,5.852,6.221,12.175
761,0.951,35.357,10.811,36.477,19.987,5.891,6.18,12.175
762,0.945,35.526,10.795,36.486,19.984,5.851,6.22,12.053
763,0.967,35.662,10.881,36.534,20.001,6.095,6.342,12.174
764,0.971,35.712,10.827,36.487,19.984,5.894,6.262,11.891
765,0.981,35.357,10.807,36.496,19.987,5.973,6.302,11.806
766,0.974,35.469,10.783,36.496,19.977,5.811,6.14,11.562
767,0.99,35.623,10.811,36.505,19.987,5.891,6.179,11.6
768,0.991,35.635,10.858,36.486,19.984,5.933,6.22,11.397
769,1.007,35.357,10.788,36.515,19.99,6.014,6.302,11.436
770,1.001,35.488,10.838,36.496,19.984,5.893,6.262,11.314
771,1.01,35.624,10.799,36.515,19.99,5.973,6.262,11.15
772,1.004,35.635,10.893,36.496,19.987,5.933,6.262,11.067
773,1.004,35.309,10.816,36.496,19.984,5.933,6.302,10.944
774,0.997,35.44,10.83,36.486,19.977,5.892,6.302,10.862
775,1.0,35.575,10.667,36.496,19.98,5.892,6.262,10.78
776,1.01,35.596,10.766,36.515,19.983,5.973,6.343,10.657
777,1.02,35.404,10.767,36.515,19.983,5.974,6.384,10.696
778,1.017,35.527,10.806,36.515,19.99,5.974,6.303,10.697
779,1.014,35.634,10.799,36.506,19.987,5.893,6.221,10.494
780,1.014,35.318,10.787,36.496,19.98,5.933,6.261,10.573
781,1.023,35.363,10.822,36.505,19.98,5.892,6.262,10.614
782,1.03,35.526,10.869,36.534,19.987,5.973,6.384,10.899
783,1.03,35.614,10.858,36.515,19.984,5.933,6.344,10.739
784,1.043,35.174,10.792,36.525,19.987,5.974,6.425,10.819
785,1.046,35.256,10.826,36.477,19.973,5.771,6.222,10.617
786,1.056,35.43,10.811,36.496,19.983,5.891,6.342,10.777
787,1.056,35.489,10.846,36.496,19.977,5.892,6.303,10.698
788,1.082,35.413,10.76,36.534,19.99,5.973,6.465,10.941
789,1.083,35.546,10.838,36.515,19.99,5.933,6.386,10.821
790,1.102,35.672,10.78,36.506,19.99,5.892,6.425,10.779
791,1.096,35.712,10.853,36.486,19.977,5.851,6.304,10.616
792,1.099,35.166,10.819,36.505,19.98,5.891,6.425,10.615
793,1.096,35.285,10.717,36.496,19.98,5.851,6.344,10.411
794,1.099,35.43,10.806,36.515,19.987,5.891,6.425,10.491
795,1.106,35.489,10.783,36.515,19.98,5.892,6.385,10.41
796,1.112,35.432,10.861,36.515,19.983,5.851,6.385,10.328
797,1.112,35.556,10.839,36.496,19.983,5.891,6.385,10.246
798,1.109,35.663,10.713,36.515,19.983,5.77,6.344,10.164
799,1.109,35.721,10.767,36.506,19.977,5.768,6.343,10.041
800,1.115,35.271,10.822,36.496,19.98,5.85,6.384,10.04
801,1.125,35.42,10.815,36.515,19.99,5.973,6.466,10.08
802,1.125,35.546,10.748,36.534,19.99,5.852,6.426,9.999
803,1.125,35.586,10.806,36.535,19.987,5.891,6.466,9.877
804,1.142,35.414,10.768,36.506,19.98,5.729,6.345,9.672
805,1.142,35.556,10.83,36.506,19.99,5.809,6.303,9.629
806,1.148,35.663,10.788,36.506,19.98,5.728,6.302,9.466
807,1.168,35.664,10.881,36.534,19.997,5.972,6.547,9.587
808,1.158,35.453,10.843,36.515,19.987,5.893,6.346,9.385
809,1.174,35.575,10.796,36.525,19.99,5.933,6.384,9.423
810,1.171,35.644,10.869,36.477,19.977,5.73,6.263,9.098
811,1.184,35.385,10.78,36.515,19.983,5.809,6.384,9.136
812,1.181,35.44,10.81,36.496,19.973,5.769,6.303,9.055
813,1.194,35.614,10.791,36.544,19.997,5.931,6.465,9.095
814,1.178,35.682,10.842,36.506,19.984,5.852,6.426,8.973
815,1.181,35.395,10.874,36.515,19.99,5.891,6.344,8.931
816,1.181,35.517,10.866,36.515,19.984,5.892,6.425,8.768
817,1.181,35.653,10.792,36.515,19.99,5.892,6.344,8.685
818,1.175,35.731,10.787,36.506,19.984,5.851,6.343,8.603
819,1.188,35.511,10.853,36.534,19.987,5.932,6.384,8.602
820,1.162,35.681,10.8,36.506,19.984,5.974,6.385,8.562
821,1.181,35.789,10.783,36.544,19.983,5.893,6.385,8.521
822,1.194,35.886,10.787,36.535,19.99,5.933,6.385,8.52
823,1.194,35.426,10.787,36.515,19.984,5.811,6.385,8.358
824,1.201,35.575,10.842,36.506,19.98,5.85,6.344,8.275
825,1.214,35.682,10.87,36.506,19.983,5.891,6.343,8.233
826,1.214,35.75,10.874,36.534,19.987,5.851,6.466,8.273
827,1.217,35.645,10.792,36.515,19.99,5.932,6.426,8.193
828,1.221,35.779,10.838,36.525,19.99,5.974,6.426,8.232
829,1.211,35.857,10.768,36.496,19.977,5.73,6.304,8.029
830,1.224,35.934,10.779,36.515,19.983,5.931,6.343,7.987
831,1.217,35.619,10.775,36.496,19.98,5.852,6.303,7.986
832,1.227,35.798,10.822,36.534,19.997,6.013,6.587,8.149
833,1.217,35.876,10.854,36.496,19.991,5.893,6.468,7.988
834,1.214,35.915,10.811,36.525,19.99,5.892,6.548,8.027
835,1.185,35.781,10.869,36.496,19.987,5.811,6.427,7.865
836,1.188,35.924,10.741,36.515,19.987,5.81,6.426,7.904
837,1.178,36.04,10.833,36.506,19.973,5.85,6.507,7.782
838,1.178,36.07,10.784,36.525,19.987,5.851,6.549,7.862
839,1.171,35.888,10.822,36.515,19.99,5.932,6.549,7.782
840,1.168,36.05,10.827,36.544,19.987,5.852,6.63,7.822
841,1.162,36.147,10.768,36.535,19.99,5.973,6.672,7.863
842,1.161,35.851,10.826,36.515,19.98,5.852,6.631,7.822
843,1.148,35.915,10.811,36.525,19.977,5.891,6.631,7.741
844,1.165,36.04,10.838,36.506,19.983,5.811,6.631,7.659
845,1.161,36.128,10.768,36.515,19.987,5.932,6.672,7.739
846,1.158,36.023,10.81,36.611,19.987,5.892,6.672,7.699
847,1.161,36.128,10.768,36.516,19.99,5.933,6.672,7.74
848,1.142,36.215,10.845,36.506,19.977,5.77,6.55,7.496
849,1.138,36.34,10.741,36.515,19.976,5.85,6.59,7.534
850,1.142,36.064,10.802,36.486,19.976,5.81,6.549,7.494
851,1.132,36.253,10.83,36.544,19.997,6.094,6.752,7.697
852,1.109,36.331,10.866,36.515,19.987,5.935,6.714,7.496
853,1.089,36.39,10.85,36.534,19.99,5.892,6.713,7.534
854,1.066,36.131,10.823,36.506,19.98,5.811,6.632,7.494
855,1.073,36.282,10.76,36.515,19.98,5.81,6.672,7.412
856,1.056,36.38,10.799,36.506,19.98,5.81,6.672,7.411
857,1.034,36.467,10.811,36.515,19.983,5.891,6.753,7.452
858,1.033,36.305,10.811,36.506,19.99,5.892,6.714,7.371
859,1.037,36.476,10.819,36.525,19.984,5.892,6.713,7.452
860,1.017,36.573,10.78,36.525,19.99,5.851,6.754,7.452
861,1.01,36.603,10.849,36.515,19.987,5.851,6.632,7.412
862,0.991,36.392,10.823,36.506,19.984,5.81,6.631,7.533
863,1.004,36.534,10.791,36.525,19.983,5.85,6.631,7.575
864,0.994,36.641,10.709,36.515,19.987,5.891,6.672,7.738
865,0.987,36.68,10.818,36.506,19.98,5.851,6.631,7.862
866,0.984,36.384,10.737,36.525,19.983,5.932,6.712,8.066
867,0.958,36.476,10.845,36.496,19.98,5.811,6.551,8.191
868,0.951,36.612,10.69,36.515,19.983,5.891,6.508,8.517
869,0.941,36.632,10.798,36.506,19.977,5.851,6.549,8.805
870,0.961,36.556,10.865,36.525,20.001,6.013,6.671,9.296
871,0.932,36.67,10.839,36.506,19.998,5.893,6.631,9.504
872,0.931,36.777,10.803,36.515,19.984,5.973,6.55,9.75
873,0.909,36.461,10.783,36.477,19.977,5.771,6.427,9.793
874,0.908,36.554,10.814,36.515,19.983,5.891,6.507,10.078
875,0.899,36.67,10.807,36.496,19.977,5.811,6.467,10.243
876,0.912,36.805,10.869,36.544,19.994,6.013,6.629,10.53
877,0.889,36.615,10.823,36.525,19.984,5.974,6.509,10.492
878,0.882,36.786,10.834,36.515,19.994,5.974,6.467,10.654
879,0.869,36.902,10.776,36.506,19.98,5.893,6.386,10.615
880,0.856,36.99,10.861,36.506,19.983,5.933,6.385,10.696
881,0.849,36.54,10.803,36.506,19.977,5.852,6.385,10.616
882,0.859,36.699,10.803,36.525,19.98,5.973,6.425,10.655
883,0.853,36.834,10.799,36.525,19.983,5.933,6.466,10.737
884,0.856,36.903,10.787,36.515,19.987,5.933,6.426,10.616
885,0.853,36.712,10.873,36.506,19.987,5.974,6.426,10.533
886,0.843,36.844,10.835,36.515,19.984,5.974,6.385,10.451
887,0.849,36.951,10.795,36.506,19.983,5.933,6.344,10.41
888,0.856,37.019,10.776,36.515,19.983,5.892,6.384,10.369
889,0.846,36.742,10.822,36.515,19.983,5.973,6.507,10.328
890,0.846,36.873,10.83,36.515,19.98,5.974,6.467,10.246
891,0.853,37.018,10.803,36.534,19.987,5.974,6.345,10.204
892,0.833,37.029,10.791,36.506,19.984,5.933,6.262,10.001
893,0.823,36.78,10.807,36.515,19.98,5.933,6.302,9.958
894,0.81,36.893,10.826,36.515,19.977,5.852,6.343,9.957
895,0.826,37.047,10.858,36.563,19.99,6.054,6.466,9.998
896,0.82,37.058,10.842,36.544,19.987,5.975,6.386,9.836
897,0.813,36.819,10.811,36.525,19.99,6.015,6.385,9.794
898,0.787,36.922,10.815,36.506,19.977,5.852,6.263,9.671
899,0.79,37.038,10.826,36.506,19.98,5.932,6.384,9.67
900,0.787,37.097,10.799,36.496,19.977,5.892,6.222,9.548
901,0.81,37.078,10.822,36.553,19.994,6.014,6.464,9.71
902,0.787,37.174,10.815,36.516,19.987,5.974,6.304,9.467
903,0.784,37.271,10.842,36.525,19.99,6.015,6.343,9.465
904,0.787,36.648,10.803,36.496,19.973,5.812,6.221,9.262
905,0.8,36.7,10.861,36.515,19.987,5.891,6.22,9.259
906,0.8,36.815,10.745,36.506,19.98,5.811,6.22,9.219
907,0.826,36.96,10.853,36.553,19.994,5.972,6.342,9.34
908,0.813,36.866,10.776,36.516,19.98,5.893,6.262,9.179
909,0.81,36.989,10.814,36.534,19.987,5.973,6.262,9.218
910,0.833,37.106,10.815,36.506,19.977,5.811,6.221,9.096
911,0.82,37.193,10.772,36.506,19.98,5.85,6.302,9.054
912,0.797,36.743,10.834,36.496,19.977,5.769,6.14,9.013
913,0.807,36.892,10.85,36.515,19.99,5.85,6.301,9.054
914,0.794,36.99,10.815,36.525,19.984,5.891,6.262,9.013
915,0.777,37.077,10.721,36.534,19.987,5.892,6.18,9.013
916,0.777,36.905,10.822,36.535,19.99,5.851,6.179,8.932
917,0.767,37.038,10.768,36.506,19.987,5.81,6.179,8.89
918,0.767,37.145,10.869,36.515,19.98,5.81,6.139,8.768
919,0.774,37.222,10.776,36.525,19.987,5.81,6.138,8.807
920,0.774,36.84,10.779,36.515,19.987,5.81,6.179,8.808
921,0.764,36.989,10.849,36.506,19.987,5.81,6.179,8.726
922,0.774,37.096,10.827,36.525,19.984,5.85,6.179,8.726
923,0.761,37.116,10.83,36.506,19.977,5.729,6.017,8.522
924,0.77,36.848,10.741,36.496,19.983,5.727,6.178,8.601
925,0.767,36.97,10.826,36.563,19.98,5.727,6.098,8.48
926,0.79,37.115,10.815,36.544,19.997,5.972,6.341,8.723
927,0.8,37.126,10.85,36.515,19.984,5.893,6.181,8.563
928,0.8,36.887,10.784,36.534,19.987,5.851,6.22,8.602
929,0.784,36.99,10.811,36.496,19.97,5.729,6.139,8.521
930,0.806,37.106,10.815,36.496,19.983,5.768,6.179,8.52
931,0.797,37.011,10.862,36.486,19.977,5.728,6.139,8.439
932,0.82,36.847,10.792,36.544,20.001,5.931,6.26,8.641
933,0.794,36.961,10.768,36.525,19.984,5.852,6.262,8.644
934,0.787,37.077,10.748,36.544,19.987,5.81,6.262,8.644
935,0.774,36.79,10.783,36.515,19.984,5.728,6.221,8.562
936,0.78,36.845,10.799,36.515,19.98,5.727,6.22,8.521
937,0.764,36.941,10.834,36.496,19.977,5.727,6.261,8.439
938,0.78,37.077,10.811,36.515,19.987,5.768,6.262,8.519
939,0.771,36.781,10.768,36.496,19.987,5.768,6.221,8.52
940,0.757,36.912,10.845,36.534,19.987,5.809,6.261,8.52
941,0.774,37.038,10.792,36.515,19.99,5.81,6.302,8.52
942,0.774,37.116,10.779,36.544,19.98,5.688,6.262,8.52
943,0.771,36.733,10.768,36.506,19.977,5.727,6.221,8.439
944,0.787,36.883,10.83,36.525,19.983,5.687,6.22,8.479
945,0.79,37.009,10.784,36.515,19.98,5.727,6.302,8.601
946,0.793,37.077,10.877,36.525,19.99,5.809,6.343,8.602
947,0.8,36.694,10.784,36.534,19.99,5.728,6.262,8.765
948,0.787,36.825,10.799,36.515,19.984,5.605,6.221,8.726
949,0.79,36.941,10.834,36.506,19.987,5.564,6.18,8.807
950,0.79,37.0,10.823,36.496,19.977,5.604,6.139,8.808
951,0.813,36.876,10.803,36.544,19.997,5.767,6.341,9.092
952,0.79,36.999,10.791,36.535,19.987,5.687,6.221,9.014
953,0.79,37.125,10.838,36.525,19.987,5.687,6.261,9.135
954,0.774,37.136,10.792,36.487,19.977,5.524,6.139,8.974
955,0.777,36.8,10.861,36.505,19.983,5.644,6.219,9.094
956,0.777,36.941,10.807,36.496,19.97,5.605,6.098,9.095
957,0.79,37.105,10.838,36.63,19.994,5.726,6.341,9.258
958,0.784,37.078,10.749,36.507,19.987,5.687,6.181,9.137
959,0.78,36.781,10.849,36.534,19.987,5.687,6.261,9.136
960,0.777,36.902,10.78,36.525,19.977,5.646,6.262,9.095
961,0.767,37.038,10.791,36.525,19.983,5.645,6.262,9.095
962,0.77,36.943,10.791,36.506,19.98,5.605,6.262,9.014
963,0.777,36.808,10.799,36.525,19.983,5.645,6.262,9.094
964,0.777,36.922,10.861,36.515,19.983,5.564,6.262,9.095
965,0.79,37.019,10.807,36.515,19.983,5.645,6.302,9.014
966,0.787,38.698,10.834,36.525,19.987,5.727,6.343,8.972
967,0.797,38.935,10.807,36.515,19.984,5.565,6.343,8.931
968,0.784,39.043,10.815,36.496,19.977,5.604,6.303,8.89
969,0.787,39.102,10.842,36.496,19.983,5.564,6.221,8.89
970,0.803,35.928,10.803,36.601,19.987,5.726,6.261,8.93
971,0.8,35.954,10.822,36.507,19.984,5.646,6.221,9.093
972,0.794,36.117,10.827,36.534,19.987,5.727,6.302,9.136
973,0.777,36.205,10.85,36.477,19.97,5.605,6.18,9.095
974,0.784,36.935,10.811,36.515,19.98,5.645,6.261,9.42
975,0.78,37.077,10.807,36.496,19.977,5.645,6.221,9.708
976,0.793,37.279,10.701,36.563,19.994,5.808,6.464,10.28
977,0.774,37.31,10.79,36.506,19.98,5.769,6.264,10.489
978,0.774,36.476,10.85,36.506,19.99,5.768,6.302,10.735
979,0.764,36.602,10.772,36.486,19.977,5.647,6.14,10.941
980,0.767,36.747,10.806,36.505,19.983,5.727,6.26,11.228
981,0.761,36.806,10.764,36.486,19.983,5.687,6.221,11.312
982,0.787,36.788,10.853,36.524,19.99,5.89,6.342,11.679
983,0.78,36.922,10.788,36.515,19.99,5.811,6.343,11.642
984,0.787,37.028,10.799,36.534,19.984,5.81,6.262,11.763
985,0.787,37.058,10.733,36.506,19.983,5.81,6.302,11.724
986,0.787,36.694,10.763,36.506,19.99,5.769,6.262,11.805
987,0.79,36.806,10.818,36.496,19.977,5.728,6.18,11.765
988,0.8,36.922,10.819,36.515,19.983,5.768,6.301,11.642
989,0.807,36.961,10.846,36.506,19.987,5.85,6.221,11.682
990,0.8,36.655,10.815,36.496,19.987,5.81,6.302,11.56
991,0.797,36.786,10.877,36.496,19.99,5.81,6.18,11.559
992,0.8,36.874,10.839,36.505,19.984,5.769,6.139,11.397
993,0.803,36.922,10.753,36.515,19.983,5.768,6.138,11.232
994,0.79,36.904,10.791,36.554,19.983,5.728,6.098,11.109
995,0.797,37.028,10.807,36.516,19.983,5.85,6.26,11.23
996,0.787,37.116,10.76,36.496,19.99,5.769,6.221,11.027
997,0.777,36.56,10.869,36.515,19.99,5.891,6.22,10.985
998,0.767,36.593,10.667,36.477,19.97,5.648,6.139,10.74
999,0.777,36.728,10.798,36.505,19.983,5.767,6.219,10.738
1000,0.754,36.816,10.799,36.477,19.977,5.728,6.098,10.575
1001,0.78,36.807,10.838,36.534,20.001,5.89,6.3,10.655
1002,0.774,36.922,10.795,36.515,19.987,5.77,6.221,10.452
1003,0.787,37.038,10.76,36.525,19.984,5.728,6.261,10.328
1004,0.774,37.097,10.763,36.487,19.98,5.687,6.18,10.124
1005,0.79,36.551,10.721,36.505,19.983,5.687,6.22,10.122
1006,0.78,36.66,10.81,36.496,19.977,5.646,6.18,9.959
1007,0.793,36.796,10.748,36.515,19.987,5.767,6.22,9.998
1008,0.797,36.902,10.791,36.506,19.984,5.768,6.302,9.877
1009,0.79,36.578,10.811,36.496,19.987,5.728,6.221,9.753
1010,0.797,36.689,10.862,36.496,19.984,5.727,6.261,9.671
1011,0.803,36.806,10.788,36.505,19.987,5.646,6.18,9.589
1012,0.787,36.855,10.811,36.496,19.984,5.564,6.179,9.425
1013,0.793,36.539,10.838,36.496,19.987,5.645,6.22,9.424
1014,0.784,36.67,10.807,36.505,19.987,5.727,6.302,9.342
1015,0.787,36.805,10.846,36.506,19.987,5.727,6.262,9.26
1016,0.78,36.826,10.854,36.506,19.994,5.727,6.262,9.178
1017,0.793,36.558,10.733,36.496,19.984,5.687,6.139,9.015
1018,0.774,36.708,10.763,36.477,19.98,5.646,6.138,9.013
1019,0.771,36.815,10.869,36.486,19.983,5.605,6.179,8.891
1020,0.783,36.855,10.804,36.515,19.99,5.726,6.261,8.971
1021,0.777,36.625,10.826,36.496,19.98,5.727,6.18,8.809
1022,0.774,36.757,10.776,36.525,19.983,5.727,6.261,8.848
1023,0.767,36.845,10.846,36.467,19.977,5.605,6.139,8.605
1024,0.787,36.711,10.796,36.496,19.983,5.686,6.179,8.602
1025,0.787,36.537,10.842,36.477,19.977,5.646,6.098,8.48
1026,0.81,36.689,10.796,36.534,19.997,5.767,6.341,8.601
1027,0.8,36.758,10.803,36.506,19.984,5.687,6.262,8.44
1028,0.794,36.538,10.822,36.506,19.987,5.768,6.221,8.438
1029,0.787,36.612,10.791,36.496,19.984,5.687,6.18,8.275
1030,0.806,36.757,10.822,36.496,19.983,5.687,6.22,8.274
1031,0.794,36.854,10.764,36.477,19.98,5.687,6.139,8.152
1032,0.806,36.433,10.845,36.496,19.99,5.768,6.219,8.15
1033,0.794,36.563,10.835,36.496,19.984,5.728,6.18,8.191
1034,0.784,36.68,10.854,36.515,19.99,5.768,6.261,8.11
1035,0.78,36.748,10.815,36.506,19.99,5.728,6.221,8.15
1036,0.787,36.471,10.826,36.496,19.984,5.727,6.18,8.191
1037,0.771,36.612,10.815,36.477,19.98,5.768,6.139,8.07
1038,0.774,36.728,10.854,36.476,19.987,5.728,6.179,8.15
1039,0.774,36.816,10.811,36.505,19.98,5.809,6.261,8.191
1040,0.771,36.452,10.791,36.486,19.99,5.85,6.262,8.354
1041,0.764,36.563,10.838,36.496,19.987,5.769,6.302,8.397
1042,0.761,36.67,10.784,36.467,19.977,5.768,6.099,8.275
1043,0.761,36.748,10.822,36.515,19.98,5.768,6.219,8.396
1044,0.77,36.461,10.752,36.467,19.977,5.768,6.098,8.356
1045,0.787,36.669,10.791,36.515,19.997,5.931,6.341,8.6
1046,0.78,36.748,10.83,36.496,19.984,5.77,6.221,8.44
1047,0.784,36.787,10.838,36.505,19.99,5.85,6.302,8.438
1048,0.777,36.48,10.803,36.467,19.97,5.729,6.099,8.316
1049,0.787,36.64,10.787,36.496,19.983,5.809,6.178,8.396
1050,0.793,36.757,10.846,36.477,19.977,5.688,6.139,8.356
1051,0.8,36.816,10.835,36.515,19.994,5.89,6.301,8.478
1052,0.794,36.423,10.803,36.477,19.994,5.811,6.18,8.438
1053,0.787,36.582,10.721,36.524,19.991,5.85,6.22,8.357
1054,0.777,36.68,10.779,36.477,19.984,5.769,6.139,8.397
1055,0.78,36.604,10.771,36.486,19.983,5.768,6.138,8.397
1056,0.78,36.431,10.81,36.467,19.98,5.768,6.219,8.316
1057,0.777,36.563,10.823,36.486,19.983,5.768,6.139,8.396
1058,0.771,36.699,10.869,36.486,19.98,5.768,6.219,8.397
1059,0.767,36.326,10.815,36.486,19.987,5.768,6.22,8.316
1060,0.761,36.418,10.862,36.486,19.99,5.809,6.261,8.396
1061,0.761,36.506,10.854,36.486,19.977,5.688,6.099,8.234
1062,0.774,36.631,10.78,36.486,19.98,5.727,6.178,8.273
1063,0.764,36.402,10.814,36.477,19.977,5.646,6.139,8.233
1064,0.787,36.572,10.799,36.505,20.001,5.889,6.341,8.395
1065,0.774,36.68,10.85,36.486,19.984,5.689,6.303,8.153
1066,0.78,36.738,10.819,36.477,19.983,5.727,6.18,8.191
1067,0.777,36.25,10.772,36.467,19.977,5.687,6.057,8.07
1068,0.787,36.398,10.799,36.476,19.983,5.727,6.219,8.109
1069,0.784,36.534,10.783,36.457,19.98,5.727,6.139,7.987
1070,0.803,36.631,10.857,36.505,19.99,5.809,6.219,8.149
1071,0.794,36.402,10.729,36.486,19.99,5.728,6.18,7.988
1072,0.79,36.544,10.822,36.477,19.984,5.768,6.179,8.027
1073,0.797,36.66,10.776,36.486,19.99,5.809,6.301,7.987
1074,0.777,36.709,10.869,36.486,19.987,5.81,6.18,7.946
1075,0.774,36.403,10.804,36.486,19.984,5.81,6.179,7.823
1076,0.774,36.525,10.834,36.477,19.983,5.81,6.139,7.863
1077,0.774,36.66,10.807,36.496,19.99,5.85,6.179,7.985
1078,0.761,36.7,10.795,36.496,19.98,5.81,6.22,7.864
1079,0.761,36.403,10.857,36.486,19.983,5.85,6.22,7.863
1080,0.748,36.496,10.761,36.457,19.977,5.648,6.058,7.741
1081,0.767,36.641,10.822,36.476,19.98,5.808,6.219,7.821
1082,0.754,36.652,10.764,36.467,19.983,5.769,6.139,7.7
1083,0.77,36.46,10.877,36.515,19.997,5.972,6.301,7.943
1084,0.774,36.544,10.831,36.458,19.98,5.771,6.221,7.945
1085,0.777,36.67,10.827,36.476,19.987,5.85,6.22,8.108
1086,0.78,36.566,10.776,36.457,19.984,5.769,6.18,8.191
1087,0.78,36.497,10.799,36.476,19.983,5.768,6.179,8.517
1088,0.774,36.612,10.776,36.457,19.98,5.809,6.22,8.845
1089,0.787,36.747,10.846,36.486,19.99,5.85,6.261,9.255
1090,0.8,36.336,10.823,36.477,19.987,5.729,6.221,9.625
1091,0.787,36.399,10.791,36.476,19.987,5.85,6.302,9.954
1092,0.777,36.515,10.873,36.467,19.984,5.81,6.262,10.161
1093,0.774,36.612,10.839,36.486,19.987,5.769,6.221,10.447
1094,0.767,36.354,10.834,36.467,19.98,5.728,6.261,10.654
1095,0.767,36.495,10.725,36.496,19.983,5.727,6.262,10.818
1096,0.767,36.631,10.767,36.477,19.994,5.768,6.302,11.023
1097,0.761,36.728,10.764,36.476,19.987,5.768,6.302,11.147
1098,0.767,36.288,10.826,36.476,19.987,5.809,6.384,11.189
1099,0.757,36.456,10.776,36.486,19.98,5.728,6.222,11.108
1100,0.754,36.564,10.783,36.467,19.977,5.727,6.261,11.148
1101,0.751,36.612,10.85,36.457,19.983,5.646,6.221,11.189
1102,0.767,36.517,10.854,36.476,19.997,5.808,6.424,11.352
1103,0.764,36.65,10.85,36.476,19.987,5.728,6.304,11.191
1104,0.783,36.757,10.792,36.476,19.987,5.85,6.343,11.068
1105,0.774,36.806,10.799,36.505,19.977,5.688,6.221,10.904
1106,0.777,36.26,10.791,36.467,19.983,5.727,6.342,10.902
1107,0.774,36.37,10.838,36.457,19.983,5.727,6.221,10.821
1108,0.8,36.543,10.819,36.505,19.997,5.931,6.464,10.983
1109,0.781,36.574,10.823,36.477,19.987,5.77,6.345,10.74
1110,0.777,36.402,10.799,36.467,19.984,5.809,6.425,10.697
1111,0.774,36.505,10.834,36.448,19.977,5.688,6.222,10.412
1112,0.787,36.631,10.768,36.457,19.983,5.727,6.342,10.45
1113,0.777,36.661,10.806,36.448,19.98,5.768,6.262,10.369
1114,0.79,36.383,10.787,36.495,19.997,5.891,6.343,10.409
1115,0.771,36.496,10.803,36.477,19.987,5.77,6.343,10.287
1116,0.761,36.612,10.811,36.476,19.987,5.809,6.343,10.245
1117,0.751,36.498,10.854,36.457,19.984,5.769,6.303,10.123
1118,0.761,36.42,10.819,36.467,19.983,5.768,6.262,10.041
1119,0.754,36.534,10.752,36.457,19.983,5.809,6.221,10.04
1120,0.751,36.641,10.861,36.467,19.987,5.728,6.302,10.121
1121,0.751,36.402,10.768,36.457,19.99,5.768,6.262,10.284
1122,0.757,36.515,10.767,36.476,19.987,5.768,6.343,10.245
1123,0.754,36.65,10.728,36.457,19.987,5.768,6.262,10.408
1124,0.767,36.728,10.806,36.457,19.984,5.728,6.221,10.287
1125,0.767,36.346,10.846,36.438,19.98,5.727,6.261,10.408
1126,0.767,36.476,10.862,36.438,19.98,5.687,6.221,10.328
1127,0.78,36.621,10.85,36.476,19.987,5.89,6.383,10.571
1128,0.771,36.699,10.811,36.476,19.987,5.729,6.263,10.411
1129,0.777,36.23,10.869,36.457,19.987,5.85,6.302,10.409
1130,0.771,36.341,10.815,36.419,19.973,5.648,6.14,10.206
1131,0.787,36.486,10.799,36.438,19.98,5.808,6.301,10.245
1132,0.78,36.554,10.752,36.438,19.98,5.728,6.221,10.123
1133,0.787,36.411,10.798,36.486,19.997,5.89,6.424,10.325
1134,0.774,36.505,10.799,36.457,19.984,5.77,6.344,10.124
1135,0.771,36.65,10.873,36.457,19.987,5.768,6.384,10.163
1136,0.774,36.671,10.866,36.438,19.984,5.809,6.344,10.041
1137,0.774,36.374,10.804,36.419,19.987,5.728,6.384,9.958
1138,0.758,36.505,10.819,36.438,19.98,5.646,6.303,9.917
1139,0.767,36.631,10.842,36.457,19.987,5.686,6.425,9.835
1140,0.761,36.671,10.799,36.457,19.987,5.727,6.385,9.834
1141,0.748,36.431,10.815,36.457,19.987,5.727,6.425,9.794
1142,0.76,36.563,10.784,36.457,19.987,5.809,6.385,9.793
1143,0.754,36.66,10.85,36.448,19.987,5.769,6.344,9.509
1144,0.767,36.671,10.807,36.438,19.98,5.768,6.384,9.506
1145,0.764,36.307,10.865,36.447,19.983,5.647,6.385,9.384
1146,0.774,36.466,10.776,36.467,19.987,5.767,6.547,9.464
1147,0.774,36.573,10.791,36.448,19.984,5.728,6.468,9.262
1148,0.784,36.488,10.807,36.457,19.99,5.727,6.467,9.3
1149,0.777,36.362,10.803,36.419,19.97,5.605,6.345,9.056
1150,0.793,36.534,10.822,36.428,19.987,5.726,6.425,9.054
1151,0.787,36.631,10.787,36.409,19.98,5.605,6.385,8.932
1152,0.803,36.479,10.842,36.466,20.001,5.808,6.547,9.012
1153,0.794,36.544,10.827,36.438,19.984,5.728,6.468,8.891
1154,0.78,36.67,10.846,36.438,19.987,5.809,6.467,8.849
1155,0.777,36.757,10.784,36.428,19.984,5.728,6.426,8.727
1156,0.784,36.365,10.83,36.418,19.98,5.727,6.466,8.726
1157,0.774,36.476,10.803,36.399,19.983,5.605,6.386,8.481
1158,0.79,36.621,10.838,36.437,19.983,5.726,6.466,8.601
1159,0.784,36.699,10.733,36.438,19.987,5.646,6.467,8.521
1160,0.78,36.249,10.806,36.447,19.984,5.686,6.548,8.52
1161,0.777,36.398,10.822,36.438,19.983,5.687,6.468,8.439
1162,0.784,36.505,10.858,36.428,19.983,5.646,6.386,8.316
1163,0.78,36.554,10.811,36.428,19.983,5.564,6.385,8.356
1164,0.787,36.363,10.744,36.418,19.977,5.604,6.385,8.275
1165,0.8,36.534,10.798,36.533,19.997,5.726,6.547,8.396
1166,0.797,36.651,10.721,36.42,19.984,5.605,6.468,8.194
1167,0.807,36.709,10.845,36.438,19.987,5.767,6.467,8.192
1168,0.803,36.269,10.733,36.39,19.977,5.525,6.223,8.029
1169,0.816,36.437,10.81,36.428,19.983,5.563,6.342,8.027
1170,0.82,36.525,10.776,36.39,19.977,5.563,6.303,7.946
1171,0.852,36.612,10.853,36.466,19.997,5.726,6.506,8.189
1172,0.846,36.287,10.819,36.409,19.991,5.605,6.386,8.07
1173,0.856,36.437,10.745,36.437,19.987,5.564,6.385,8.028
1174,0.849,36.535,10.826,36.409,19.98,5.604,6.263,7.946
1175,0.859,36.555,10.764,36.428,19.98,5.564,6.343,8.026
1176,0.853,36.43,10.845,36.418,19.983,5.523,6.303,7.946
1177,0.862,36.582,10.85,36.438,19.987,5.644,6.343,8.026
1178,0.859,36.68,10.827,36.419,19.99,5.564,6.343,7.987
1179,0.872,36.46,10.827,36.428,19.984,5.604,6.343,8.068
1180,0.863,36.314,10.854,36.418,19.983,5.604,6.303,7.987
1181,0.859,36.428,10.854,36.418,19.983,5.604,6.343,7.946
1182,0.862,36.525,10.745,36.399,19.98,5.604,6.262,7.823
1183,0.866,36.248,10.81,36.409,19.983,5.645,6.262,7.903
1184,0.876,36.341,10.741,36.418,19.987,5.605,6.343,7.904
1185,0.885,36.466,10.833,36.418,19.99,5.645,6.303,7.782
1186,0.872,36.583,10.76,36.428,19.987,5.605,6.302,7.944
1187,0.879,36.229,10.826,36.39,19.977,5.564,6.221,7.701
1188,0.876,36.369,10.768,36.399,19.983,5.523,6.22,7.78
1189,0.882,36.496,10.791,36.399,19.98,5.522,6.22,7.7
1190,0.885,36.602,10.814,36.437,19.987,5.685,6.424,7.902
1191,0.895,36.249,10.784,36.399,19.99,5.605,6.222,7.66
1192,0.895,36.408,10.818,36.418,19.99,5.686,6.302,7.698
1193,0.869,36.505,10.776,36.361,19.973,5.483,6.14,7.536
1194,0.879,36.593,10.853,36.418,19.99,5.522,6.179,7.616
1195,0.869,36.718,10.854,36.38,19.98,5.563,6.179,7.617
1196,0.876,36.873,10.897,36.437,19.997,5.604,6.342,7.861
1197,0.859,36.97,10.8,36.486,19.991,5.523,6.221,7.822
1198,0.849,37.029,10.803,36.419,19.987,5.563,6.302,7.944
1199,0.836,35.955,10.815,36.399,19.984,5.523,6.262,8.108
1200,0.83,36.088,10.807,36.409,19.99,5.522,6.302,8.435
1201,0.817,36.224,10.776,36.399,19.98,5.482,6.221,8.723
1202,0.833,36.293,10.779,36.428,19.994,5.644,6.424,9.091
1203,0.83,36.399,10.838,36.409,19.987,5.483,6.222,9.298
1204,0.839,36.534,10.881,36.409,19.984,5.562,6.302,9.585
1205,0.82,36.641,10.893,36.39,19.98,5.523,6.302,9.791
1206,0.823,36.652,10.831,36.38,19.98,5.482,6.302,9.956
1207,0.82,36.028,10.823,36.38,19.98,5.44,6.262,10.12
1208,0.813,36.166,10.799,36.408,19.987,5.481,6.302,10.325
1209,0.807,36.273,10.842,36.409,19.99,5.481,6.384,10.368
1210,0.8,36.322,10.803,36.457,19.984,5.522,6.344,10.571
1211,0.8,36.303,10.803,36.4,19.99,5.522,6.384,10.614
1212,0.8,36.418,10.76,36.399,19.984,5.563,6.303,10.655
1213,0.797,36.534,10.826,36.389,19.983,5.482,6.262,10.9
1214,0.794,36.133,10.815,36.38,19.983,5.44,6.302,11.024
1215,0.8,36.225,10.791,36.389,19.99,5.521,6.343,11.269
1216,0.794,36.36,10.694,36.418,19.987,5.522,6.384,11.434
1217,0.787,36.447,10.821,36.409,19.994,5.563,6.385,11.558
1218,0.784,36.199,10.881,36.37,19.977,5.441,6.303,11.519
1219,0.793,36.34,10.741,36.399,19.983,5.521,6.384,11.681
1220,0.784,36.447,10.822,36.38,19.977,5.441,6.303,11.804
1221,0.79,36.602,10.791,36.428,19.997,5.684,6.547,12.05
1222,0.793,36.124,10.85,36.38,19.98,5.524,6.386,12.011
1223,0.79,36.263,10.772,36.389,19.987,5.563,6.425,12.133
1224,0.793,36.36,10.787,36.351,19.98,5.441,6.344,11.931
1225,0.8,36.457,10.768,36.37,19.99,5.521,6.425,12.01
1226,0.794,36.103,10.814,36.37,19.98,5.522,6.304,11.889
1227,0.803,36.253,10.823,36.408,19.987,5.522,6.425,11.969
1228,0.8,36.351,10.78,36.38,19.98,5.603,6.385,11.889
1229,0.81,36.438,10.838,36.408,19.983,5.645,6.385,11.806
1230,0.82,36.141,10.764,36.37,19.987,5.564,6.385,11.643
1231,0.817,36.292,10.857,36.38,19.987,5.645,6.385,11.56
1232,0.81,36.389,10.827,36.361,19.98,5.564,6.263,11.437
1233,0.803,36.467,10.76,36.379,19.983,5.563,6.302,11.355
1234,0.787,36.046,10.799,36.389,19.99,5.563,6.302,11.313
1235,0.787,36.185,10.772,36.409,19.987,5.645,6.384,11.232
1236,0.787,36.321,10.834,36.399,19.994,5.645,6.385,11.109
1237,0.784,36.332,10.803,36.37,19.984,5.564,6.303,10.863
1238,0.774,36.131,10.772,36.36,19.98,5.604,6.384,10.82
1239,0.771,36.273,10.775,36.37,19.987,5.604,6.222,10.657
1240,0.767,36.408,10.853,36.399,19.997,5.726,6.342,10.818
1241,0.767,36.256,10.842,36.38,19.987,5.687,6.262,10.535
1242,0.767,36.178,10.823,36.399,19.987,5.687,6.343,10.492
1243,0.757,36.263,10.713,36.37,19.973,5.564,6.181,10.207
1244,0.78,36.399,10.782,36.38,19.983,5.685,6.261,10.204
1245,0.767,36.045,10.787,36.361,19.977,5.605,6.18,10.001
1246,0.777,36.176,10.846,36.418,19.994,5.767,6.423,10.08
1247,0.774,36.263,10.846,36.361,19.987,5.647,6.304,9.918
1248,0.774,36.37,10.803,36.379,19.994,5.686,6.384,9.794
1249,0.764,35.92,10.83,36.37,19.984,5.564,6.181,9.671
1250,0.767,36.069,10.819,36.36,19.983,5.645,6.301,9.589
1251,0.774,36.176,10.791,36.36,19.98,5.645,6.302,9.507
1252,0.774,36.302,10.791,36.418,19.994,5.686,6.302,9.425
1253,0.754,35.987,10.779,36.38,19.987,5.687,6.302,9.261
1254,0.751,36.146,10.799,36.38,19.987,5.687,6.343,9.3
1255,0.754,36.244,10.783,36.38,19.984,5.687,6.384,9.178
1256,0.744,36.331,10.846,36.361,19.98,5.646,6.263,9.096
1257,0.734,35.929,10.753,36.36,19.98,5.645,6.221,8.973
1258,0.734,36.069,10.826,36.37,19.987,5.605,6.261,8.931
1259,0.734,36.195,10.819,36.36,19.987,5.686,6.343,8.89
1260,0.738,36.254,10.826,36.379,19.984,5.687,6.303,8.89
1261,0.734,35.996,10.764,36.456,19.99,5.727,6.343,8.809
1262,0.721,36.108,10.806,36.361,19.98,5.484,6.14,8.604
1263,0.731,36.244,10.834,36.37,19.983,5.603,6.219,8.562
1264,0.751,36.274,10.831,36.341,19.98,5.564,6.22,8.48
1265,0.754,36.13,10.889,36.379,19.997,5.807,6.383,8.601
1266,0.748,36.263,10.796,36.361,19.984,5.647,6.303,8.44
1267,0.76,36.36,10.83,36.36,19.983,5.686,6.302,8.357
1268,0.741,36.342,10.772,36.341,19.973,5.524,6.221,8.234
1269,0.754,35.958,10.846,36.37,19.987,5.644,6.22,8.273
1270,0.767,36.098,10.78,36.36,19.984,5.564,6.22,8.152
1271,0.774,36.224,10.81,36.36,19.987,5.726,6.342,8.191
1272,0.761,36.063,10.834,36.351,19.987,5.646,6.221,8.07
1273,0.761,36.003,10.842,36.36,19.984,5.645,6.261,8.109
1274,0.748,36.118,10.862,36.351,19.983,5.645,6.302,8.028
1275,0.747,36.224,10.784,36.36,19.987,5.605,6.262,7.987
1276,0.741,35.852,10.729,36.341,19.977,5.564,6.18,7.864
1277,0.728,35.972,10.783,36.36,19.987,5.563,6.22,7.863
1278,0.747,36.079,10.834,36.341,19.98,5.563,6.22,7.904
1279,0.747,36.167,10.78,36.351,19.987,5.604,6.22,7.863
1280,0.738,35.832,10.803,36.37,19.99,5.564,6.261,7.944
1281,0.731,35.943,10.791,36.351,19.984,5.563,6.262,7.823
1282,0.731,36.069,10.791,36.341,19.983,5.604,6.18,7.781
1283,0.741,36.147,10.857,36.331,19.977,5.523,6.139,7.822
1284,0.76,35.956,10.807,36.379,19.997,5.644,6.341,7.985
1285,0.754,36.079,10.822,36.37,19.987,5.523,6.303,7.946
1286,0.757,36.215,10.776,36.36,19.99,5.563,6.302,7.945
1287,0.757,36.235,10.803,36.322,19.977,5.401,6.14,7.783
1288,0.767,35.842,10.865,36.35,19.987,5.521,6.219,7.984
1289,0.761,35.972,10.819,36.379,19.977,5.482,6.18,7.905
1290,0.774,36.156,10.823,36.38,19.997,5.644,6.383,8.026
1291,0.774,36.187,10.823,36.332,19.987,5.442,6.263,7.946
1292,0.777,35.842,10.862,36.35,19.987,5.562,6.302,7.945
1293,0.764,35.972,10.811,36.322,19.98,5.482,6.262,7.864
1294,0.754,36.108,10.787,36.35,19.987,5.522,6.343,7.944
1295,0.751,36.128,10.795,36.332,19.98,5.482,6.303,7.823
1296,0.754,35.889,10.826,36.35,19.987,5.603,6.425,7.944
1297,0.741,36.002,10.827,36.341,19.984,5.564,6.426,7.864
1298,0.751,36.118,10.807,36.331,19.983,5.523,6.385,7.822
1299,0.741,36.148,10.795,36.331,19.987,5.482,6.547,7.863
1300,0.718,35.88,10.799,36.35,19.984,5.481,6.468,7.944
1301,0.718,35.982,10.854,36.332,19.983,5.44,6.507,8.026
1302,0.731,36.118,10.792,36.35,19.987,5.562,6.589,8.19
1303,0.721,36.023,10.748,36.341,19.984,5.563,6.631,8.436
1304,0.744,35.955,10.759,36.341,19.987,5.523,6.631,8.723
1305,0.754,36.098,10.802,36.351,19.987,5.522,6.631,9.091
1306,0.767,36.176,10.78,36.332,19.99,5.482,6.509,9.624
1307,0.77,35.774,10.838,36.312,19.977,5.481,6.508,9.995
1308,0.79,35.857,10.807,36.321,19.983,5.481,6.549,10.487
1309,0.819,35.992,10.83,36.35,19.987,5.562,6.59,10.979
1310,0.826,36.079,10.834,36.351,19.994,5.563,6.59,11.431
1311,0.849,35.85,10.85,36.341,19.987,5.563,6.59,11.721
1312,0.866,35.982,10.85,36.341,19.984,5.563,6.509,11.968
1313,0.885,36.108,10.815,36.331,19.977,5.563,6.589,12.254
1314,0.921,36.176,10.811,36.341,19.983,5.482,6.509,12.501
1315,0.964,35.726,10.795,36.331,19.99,5.644,6.63,12.748
1316,1.007,35.856,10.791,36.322,19.984,5.605,6.55,12.831
1317,1.027,36.011,10.791,36.331,19.987,5.645,6.59,12.873
1318,1.02,36.06,10.811,36.283,19.977,5.523,6.427,12.792
1319,1.049,35.86,10.799,36.302,19.983,5.563,6.466,12.791
1320,1.056,35.992,10.846,36.302,19.977,5.523,6.467,12.832
1321,1.076,36.175,10.737,36.36,19.994,5.807,6.629,12.995
1322,1.089,36.187,10.814,36.341,19.984,5.606,6.55,12.793
1323,1.109,35.803,10.799,36.331,19.99,5.604,6.508,12.791
1324,1.083,35.886,10.803,36.293,19.977,5.604,6.427,12.669
1325,1.102,36.04,10.83,36.331,19.98,5.564,6.466,12.709
1326,1.063,36.07,10.78,36.312,19.973,5.563,6.345,12.668
1327,1.063,35.86,10.814,36.331,19.99,5.766,6.588,12.749
1328,1.03,35.953,10.752,36.322,19.987,5.687,6.468,12.709
1329,0.984,36.05,10.865,36.322,19.987,5.646,6.507,12.75
1330,0.955,36.099,10.737,36.312,19.984,5.645,6.427,12.669
1331,0.928,35.764,10.837,36.312,19.99,5.564,6.385,12.465
1332,0.902,35.876,10.772,36.302,19.98,5.563,6.385,12.422
1333,0.863,35.992,10.877,36.312,19.987,5.604,6.425,12.422
1334,0.83,35.878,10.843,36.312,19.984,5.564,6.385,12.381
1335,0.82,35.829,10.842,36.302,19.99,5.645,6.425,12.299
1336,0.794,35.943,10.78,36.302,19.987,5.686,6.466,12.339
1337,0.784,36.06,10.775,36.302,19.984,5.564,6.386,12.258
1338,0.764,35.735,10.849,36.293,19.977,5.604,6.385,12.298
1339,0.696,35.808,10.807,36.302,19.976,5.564,6.466,12.421
1340,0.614,35.982,10.85,36.321,19.994,5.766,6.629,12.788
1341,0.551,36.041,10.764,36.322,19.984,5.687,6.428,12.791
1342,0.511,35.687,10.838,36.322,19.983,5.646,6.507,13.279
1343,0.456,35.779,10.807,36.274,19.973,5.523,6.386,13.406
1344,0.41,35.943,10.858,36.302,19.983,5.563,6.466,13.895
1345,0.341,36.002,10.807,36.283,19.977,5.563,6.386,14.225
1346,0.282,35.677,10.807,36.331,19.994,5.726,6.588,14.757
1347,0.222,35.779,10.795,36.293,19.984,5.605,6.468,15.128
1348,0.215,35.895,10.822,36.302,19.983,5.726,6.507,15.335
1349,0.202,35.992,10.827,36.321,19.983,5.605,6.427,15.622
1350,0.196,35.61,10.776,36.293,19.983,5.564,6.466,15.666
1351,0.205,35.749,10.838,36.264,19.977,5.645,6.426,15.829
1352,0.212,35.904,10.827,36.321,19.99,5.727,6.548,15.993
1353,0.209,35.944,10.807,36.302,19.987,5.687,6.549,15.913
1354,0.228,35.705,10.748,36.321,19.99,5.768,6.508,15.994
1355,0.238,35.856,10.806,36.302,19.987,5.728,6.508,15.832
1356,0.264,35.963,10.795,36.283,19.984,5.727,6.508,15.708
1357,0.291,35.974,10.838,36.273,19.98,5.646,6.467,15.585
1358,0.336,35.753,10.788,36.302,19.987,5.686,6.426,15.584
1359,0.379,35.885,10.783,36.283,19.984,5.809,6.466,15.543
1360,0.396,35.992,10.814,36.321,19.987,5.728,6.467,15.665
1361,0.438,36.022,10.83,36.322,19.984,5.768,6.507,15.829
1362,0.448,35.744,10.791,36.274,19.98,5.687,6.508,15.993
1363,0.475,35.875,10.697,36.283,19.98,5.727,6.427,16.279
1364,0.53,36.002,10.79,36.264,19.98,5.727,6.426,16.567
1365,0.583,35.792,10.834,36.311,19.99,5.768,6.629,17.098
1366,0.593,35.655,10.792,36.283,19.99,5.809,6.509,17.347
1367,0.642,35.807,10.865,36.283,19.994,5.85,6.549,17.553
1368,0.649,35.876,10.784,36.254,19.973,5.648,6.427,17.636
1369,0.672,35.637,10.803,36.292,19.987,5.727,6.548,17.881
1370,0.688,35.711,10.807,36.283,19.977,5.646,6.549,17.843
1371,0.721,35.894,10.846,36.312,19.997,5.808,6.63,18.005
1372,0.711,35.983,10.741,36.302,19.987,5.728,6.631,17.844
1373,0.721,35.581,10.767,36.302,19.987,5.809,6.631,17.761
1374,0.721,35.711,10.818,36.283,19.984,5.769,6.59,17.516
1375,0.728,35.856,10.799,36.273,19.987,5.728,6.631,17.27
1376,0.734,35.915,10.838,36.254,19.98,5.687,6.59,16.983
1377,0.744,35.695,10.772,36.273,19.987,5.727,6.631,16.736
1378,0.747,35.837,10.83,36.283,19.987,5.727,6.59,16.531
1379,0.773,35.953,10.795,36.283,19.987,5.727,6.631,16.244
1380,0.774,36.041,10.838,36.293,19.99,5.768,6.712,15.997
1381,0.79,35.552,10.772,36.273,19.984,5.687,6.551,15.669
1382,0.79,35.72,10.779,36.273,19.983,5.687,6.63,15.381
1383,0.79,35.827,10.779,36.264,19.98,5.687,6.55,15.013
1384,0.823,35.915,10.81,36.302,19.997,5.849,6.712,15.009
1385,0.813,35.685,10.85,36.274,19.987,5.729,6.672,14.643
1386,0.813,35.808,10.811,36.283,19.99,5.809,6.631,14.395
1387,0.813,35.905,10.826,36.225,19.977,5.688,6.468,14.027
1388,0.816,35.973,10.752,36.273,19.98,5.809,6.589,13.82
1389,0.82,35.628,10.861,36.254,19.977,5.688,6.549,13.615
1390,0.839,35.788,10.761,36.283,19.997,5.809,6.63,13.491
1391,0.83,35.895,10.787,36.264,19.987,5.81,6.55,13.205
1392,0.836,35.925,10.799,36.254,19.99,5.769,6.549,13.202
1393,0.833,35.609,10.818,36.254,19.98,5.768,6.59,13.243
1394,0.817,35.73,10.846,36.244,19.987,5.768,6.549,13.243
1395,0.826,35.827,10.815,36.244,19.984,5.647,6.468,13.324
1396,0.826,35.781,10.764,36.254,19.983,5.645,6.507,13.447
1397,0.817,35.78,10.763,36.263,19.983,5.727,6.467,13.611
1398,0.82,35.905,10.822,36.254,19.987,5.727,6.548,13.572
1399,0.826,36.011,10.854,36.244,19.99,5.768,6.508,13.49
1400,0.807,35.581,10.807,36.292,19.98,5.606,6.427,13.449
1401,0.807,35.682,10.815,36.245,19.983,5.686,6.548,13.489
1402,0.813,35.789,10.83,36.254,19.983,5.646,6.427,13.327
1403,0.826,35.934,10.834,36.263,19.987,5.727,6.588,13.406
1404,0.836,35.657,10.858,36.235,19.984,5.687,6.468,13.204
1405,0.839,35.798,10.862,36.263,19.987,5.646,6.548,13.121
1406,0.817,35.914,10.733,36.225,19.97,5.564,6.346,12.835
1407,0.842,36.011,10.806,36.254,19.99,5.645,6.466,12.71
1408,0.846,35.514,10.811,36.225,19.977,5.523,6.426,12.587
1409,0.866,35.72,10.768,36.273,19.994,5.807,6.629,12.545
1410,0.853,35.818,10.783,36.244,19.987,5.688,6.428,12.26
1411,0.856,35.905,10.807,36.254,19.99,5.687,6.466,12.135
1412,0.856,35.551,10.838,36.216,19.98,5.646,6.345,11.931
1413,0.862,35.73,10.834,36.234,19.98,5.645,6.425,11.848
1414,0.84,35.837,10.788,36.215,19.977,5.645,6.344,11.643
1415,0.862,35.924,10.783,36.263,19.99,5.808,6.466,11.804
1416,0.853,35.561,10.744,36.244,19.987,5.647,6.426,11.765
1417,0.849,35.691,10.818,36.254,19.984,5.767,6.426,11.887
1418,0.84,35.827,10.78,36.235,19.99,5.768,6.507,11.969
1419,0.839,35.867,10.799,36.234,19.987,5.728,6.386,12.092
1420,0.83,35.723,10.799,36.215,19.98,5.687,6.344,12.215
1421,0.839,35.856,10.815,36.234,19.983,5.727,6.343,12.501
1422,0.843,35.973,10.854,36.254,19.994,5.687,6.343,12.707
1423,0.839,36.002,10.796,36.244,19.987,5.768,6.384,12.912
1424,0.856,35.533,10.783,36.244,19.99,5.768,6.466,13.118
1425,0.849,35.653,10.764,36.206,19.977,5.606,6.264,13.079
1426,0.859,35.769,10.806,36.215,19.983,5.726,6.384,13.201
1427,0.859,35.607,10.834,36.225,19.98,5.646,6.303,13.202
1428,0.872,35.615,10.803,36.263,19.997,5.808,6.587,13.324
1429,0.879,35.721,10.791,36.225,19.991,5.728,6.387,13.122
1430,0.885,35.799,10.826,36.225,19.987,5.727,6.425,13.16
1431,0.879,35.483,10.858,36.206,19.98,5.605,6.304,12.917
1432,0.869,35.604,10.753,36.234,19.983,5.767,6.425,12.955
1433,0.859,35.73,10.771,36.215,19.977,5.606,6.304,12.752
1434,0.869,35.885,10.764,36.244,19.987,5.686,6.425,12.709
1435,0.866,35.417,10.826,36.244,19.987,5.687,6.426,12.587
1436,0.869,35.565,10.776,36.225,19.987,5.727,6.507,12.464
1437,0.866,35.682,10.853,36.234,19.987,5.687,6.427,12.341
1438,0.862,35.789,10.807,36.225,19.984,5.687,6.385,12.095
1439,0.856,35.627,10.783,36.206,19.983,5.564,6.385,11.971
1440,0.866,35.759,10.838,36.225,19.98,5.604,6.425,11.848
1441,0.876,35.895,10.819,36.225,19.987,5.604,6.466,11.765
1442,0.879,35.973,10.772,36.225,19.987,5.645,6.426,11.642
1443,0.872,35.485,10.779,36.225,19.994,5.686,6.548,11.519
1444,0.879,35.595,10.822,36.196,19.977,5.483,6.346,11.152
1445,0.885,35.73,10.819,36.205,19.983,5.603,6.384,11.149
1446,0.889,35.78,10.83,36.196,19.98,5.564,6.425,10.945
1447,0.902,35.646,10.838,36.244,20.001,5.766,6.548,11.146
1448,0.889,35.75,10.834,36.225,19.984,5.606,6.427,10.864
1449,0.892,35.885,10.792,36.225,19.99,5.686,6.507,10.82
1450,0.886,35.877,10.861,36.187,19.977,5.564,6.386,10.617
1451,0.892,35.436,10.749,36.186,19.983,5.563,6.385,10.615
1452,0.892,35.556,10.802,36.186,19.98,5.523,6.425,10.452
1453,0.902,35.682,10.815,36.205,19.987,5.685,6.507,10.45
1454,0.879,35.702,10.826,36.205,19.984,5.727,6.386,10.369
1455,0.885,35.674,10.862,36.196,19.983,5.646,6.466,10.368
1456,0.882,35.798,10.85,36.205,19.987,5.727,6.467,10.206
1457,0.872,35.914,10.807,36.196,19.987,5.727,6.426,10.082
1458,0.866,35.657,10.748,36.186,19.987,5.727,6.466,9.999
1459,0.876,35.549,10.841,36.176,19.987,5.768,6.467,9.795
1460,0.879,35.682,10.772,36.196,19.984,5.891,6.548,9.834
1461,0.879,35.817,10.795,36.225,19.987,5.851,6.63,9.753
1462,0.895,35.483,10.76,36.206,19.987,5.891,6.59,9.752
1463,0.886,35.566,10.802,36.167,19.973,5.729,6.509,9.468
1464,0.892,35.701,10.78,36.186,19.983,5.85,6.589,9.465
1465,0.899,35.77,10.834,36.176,19.977,5.729,6.671,9.343
1466,0.918,35.54,10.838,36.224,19.99,6.012,6.875,9.464
1467,0.905,35.682,10.827,36.187,19.98,5.893,6.755,9.262
1468,0.921,35.808,10.834,36.186,19.987,5.933,6.836,9.3
1469,0.899,35.857,10.834,36.167,19.98,5.852,6.714,9.097
1470,0.921,35.416,10.803,36.186,19.987,5.973,6.794,9.014
1471,0.912,35.546,10.768,36.176,19.984,5.852,6.755,8.932
1472,0.922,35.691,10.842,36.196,19.987,5.973,6.876,8.931
1473,0.905,35.76,10.831,36.186,19.99,5.893,6.877,8.85
1474,0.905,35.473,10.854,36.176,19.984,5.973,6.877,8.849
1475,0.908,35.633,10.827,36.176,19.983,5.974,6.877,8.808
1476,0.905,35.74,10.772,36.176,19.983,5.893,6.877,8.767
1477,0.902,35.808,10.799,36.157,19.983,5.892,6.918,8.645
1478,0.908,35.512,10.803,36.157,19.98,5.851,6.837,8.603
1479,0.905,35.691,10.842,36.167,19.99,5.973,6.958,8.724
1480,0.899,35.798,10.78,36.186,19.987,5.933,6.878,8.603
1481,0.905,35.857,10.81,36.176,19.984,5.974,6.959,8.724
1482,0.899,35.388,10.787,36.138,19.977,5.771,6.797,8.644
1483,0.915,35.555,10.85,36.157,19.987,5.85,6.958,8.725
1484,0.912,35.634,10.815,36.157,19.984,5.769,6.878,8.766
1485,0.944,35.711,10.803,36.205,19.994,6.013,7.04,9.173
1486,0.932,35.453,10.807,36.215,19.984,5.974,6.96,9.096
1487,0.951,35.575,10.799,36.167,19.99,5.974,7.0,9.176
1488,0.938,35.663,10.83,36.148,19.98,5.811,6.838,9.259
1489,0.941,36.047,10.756,36.176,19.98,5.891,6.877,9.259
1490,0.951,36.253,10.806,36.119,19.977,5.811,6.877,9.3
1491,0.967,36.398,10.819,36.147,19.987,5.85,6.918,9.382
1492,0.951,36.477,10.85,36.176,19.99,5.851,6.878,9.342
1493,0.958,35.173,10.85,36.157,19.984,5.851,6.877,9.423
1494,0.948,35.17,10.823,36.167,19.983,5.851,6.877,9.424
1495,0.954,35.314,10.717,36.167,19.983,5.851,6.796,9.424
1496,0.951,35.411,10.798,36.167,19.987,5.769,6.755,9.383
1497,0.951,35.565,10.826,36.148,19.984,5.728,6.754,9.261
1498,0.958,35.73,10.838,36.167,19.994,5.85,6.836,9.463
1499,0.951,35.837,10.831,36.148,19.984,5.81,6.837,9.343
1500,0.961,35.944,10.784,36.157,19.994,5.769,6.837,9.301
1501,0.938,35.302,10.811,36.128,19.973,5.647,6.633,9.178
1502,0.945,35.468,10.807,36.147,19.983,5.808,6.712,9.218
1503,0.945,35.585,10.815,36.157,19.983,5.728,6.632,9.178
1504,0.987,35.701,10.741,36.176,19.99,5.85,6.834,9.299
1505,0.984,35.415,10.818,36.196,19.984,5.769,6.714,9.138
1506,0.987,35.565,10.745,36.167,19.983,5.768,6.713,9.177
1507,0.984,35.663,10.845,36.128,19.977,5.687,6.632,9.015
1508,0.997,35.74,10.796,36.128,19.983,5.809,6.59,9.094
1509,0.997,35.377,10.791,36.128,19.98,5.647,6.59,8.973
1510,1.026,35.584,10.834,36.157,19.99,5.767,6.671,9.053
1511,1.023,35.663,10.819,36.138,19.987,5.728,6.631,8.891
1512,1.03,35.702,10.819,36.157,19.984,5.727,6.55,8.849
1513,1.017,35.386,10.663,36.138,19.98,5.727,6.671,8.808
1514,1.017,35.517,10.794,36.138,19.987,5.687,6.631,8.767
1515,1.017,35.624,10.76,36.119,19.98,5.605,6.509,8.767
1516,1.023,35.663,10.834,36.128,19.983,5.604,6.549,8.848
1517,1.017,35.482,10.885,36.147,19.983,5.686,6.549,8.971
1518,1.017,35.624,10.831,36.147,19.983,5.687,6.63,9.216
1519,1.027,35.74,10.831,36.157,19.987,5.727,6.631,9.422
1520,1.017,35.415,10.831,36.128,19.98,5.605,6.509,9.464
1521,1.02,35.326,10.838,36.128,19.987,5.686,6.589,9.749
1522,1.033,35.449,10.749,36.128,19.984,5.564,6.509,9.955
1523,1.053,35.614,10.818,36.176,20.001,5.848,6.711,10.364
1524,1.056,35.376,10.729,36.119,19.987,5.729,6.632,10.368
1525,1.053,35.507,10.806,36.157,19.987,5.687,6.631,10.531
1526,1.047,35.614,10.811,36.128,19.977,5.564,6.55,10.573
1527,1.069,35.711,10.823,36.138,19.98,5.685,6.63,10.696
1528,1.076,35.242,10.83,36.128,19.98,5.605,6.55,10.616
1529,1.083,35.372,10.799,36.157,19.99,5.645,6.59,10.777
1530,1.083,35.507,10.854,36.138,19.987,5.686,6.631,10.698
1531,1.102,35.605,10.725,36.138,19.99,5.687,6.672,10.656
1532,1.102,35.414,10.802,36.147,19.987,5.687,6.672,10.656
1533,1.102,35.537,10.744,36.138,19.98,5.605,6.591,10.656
1534,1.099,35.653,10.822,36.119,19.983,5.686,6.671,10.493
1535,1.096,35.721,10.811,36.128,19.983,5.605,6.591,10.41
1536,1.099,35.252,10.862,36.118,19.987,5.686,6.753,10.531
1537,1.109,35.381,10.737,36.147,19.987,5.646,6.714,10.37
1538,1.109,35.546,10.806,36.147,19.99,5.727,6.713,10.287
1539,1.106,35.548,10.85,36.09,19.98,5.524,6.591,10.001
1540,1.109,35.346,10.784,36.108,19.987,5.603,6.712,10.121
1541,1.115,35.498,10.795,36.166,19.977,5.564,6.632,9.959
1542,1.128,35.653,10.764,36.157,19.997,5.685,6.753,9.957
1543,1.132,35.654,10.791,36.148,19.98,5.646,6.632,9.835
1544,1.148,35.424,10.826,36.119,19.99,5.564,6.631,9.834
1545,1.148,35.575,10.842,36.128,19.98,5.645,6.631,9.712
1546,1.161,35.673,10.823,36.128,19.98,5.605,6.631,9.589
1547,1.174,35.673,10.83,36.109,19.983,5.564,6.59,9.507
1548,1.168,35.443,10.823,36.118,19.983,5.563,6.549,9.506
1549,1.178,35.575,10.834,36.128,19.987,5.645,6.671,9.506
1550,1.191,35.692,10.788,36.128,19.984,5.645,6.713,9.506
1551,1.207,35.559,10.775,36.128,19.987,5.645,6.713,9.546
1552,1.191,35.5,10.803,36.08,19.98,5.442,6.51,9.425
1553,1.198,35.633,10.783,36.118,19.983,5.603,6.67,9.464
1554,1.188,35.75,10.791,36.109,19.977,5.564,6.469,9.505
1555,1.207,35.435,10.811,36.157,20.001,5.685,6.751,9.668
1556,1.198,35.508,10.764,36.119,19.987,5.564,6.632,9.548
1557,1.201,35.653,10.767,36.147,19.984,5.523,6.631,9.466
1558,1.188,35.702,10.838,36.099,19.98,5.482,6.55,9.424
1559,1.204,35.453,10.823,36.109,19.983,5.562,6.549,9.464
1560,1.201,35.594,10.823,36.195,19.98,5.563,6.508,9.343
1561,1.207,35.749,10.83,36.129,19.987,5.563,6.549,9.382
1562,1.201,35.808,10.823,36.128,19.987,5.482,6.549,9.382
1563,1.214,35.895,10.869,36.128,19.977,5.562,6.508,9.301
1564,1.224,36.059,10.85,36.118,19.987,5.563,6.549,9.301
1565,1.221,36.157,10.815,36.099,19.977,5.441,6.468,9.178
1566,1.214,36.225,10.733,36.166,19.99,5.562,6.467,9.055
1567,1.211,35.315,10.783,36.081,19.984,5.482,6.426,8.932
1568,1.237,35.478,10.842,36.147,19.997,5.562,6.588,9.175
1569,1.237,35.604,10.776,36.128,19.987,5.482,6.509,9.015
1570,1.253,35.663,10.822,36.128,19.99,5.522,6.508,9.013
1571,1.234,35.76,10.772,36.061,19.977,5.36,6.305,8.932
1572,1.234,35.933,10.861,36.099,19.987,5.521,6.465,8.931
1573,1.221,36.021,10.811,36.089,19.98,5.482,6.426,8.972
1574,1.234,36.099,10.823,36.128,19.994,5.603,6.548,9.257
1575,1.208,35.639,10.709,36.109,19.984,5.482,6.468,9.219
1576,1.22,35.788,10.775,36.118,19.99,5.522,6.548,9.3
1577,1.204,35.886,10.795,36.099,19.987,5.441,6.508,9.301
1578,1.204,35.887,10.779,36.099,19.984,5.481,6.508,9.423
1579,1.198,35.887,10.834,36.089,19.983,5.481,6.467,9.383
1580,1.201,36.059,10.76,36.118,19.987,5.481,6.548,9.423
1581,1.188,36.147,10.838,36.109,19.987,5.481,6.549,9.464
1582,1.191,35.918,10.831,36.09,19.994,5.522,6.549,9.546
1583,1.194,35.839,10.823,36.118,19.984,5.563,6.63,9.506
1584,1.185,35.944,10.764,36.09,19.977,5.36,6.428,9.384
1585,1.194,36.06,10.771,36.099,19.987,5.439,6.507,9.423
1586,1.185,35.869,10.791,36.08,19.98,5.44,6.508,9.302
1587,1.197,36.03,10.861,36.137,19.997,5.643,6.711,9.463
1588,1.188,36.137,10.788,36.119,19.984,5.483,6.591,9.302
1589,1.168,36.244,10.775,36.109,19.99,5.481,6.59,9.382
1590,1.155,36.063,10.83,36.07,19.977,5.4,6.59,9.22
1591,1.165,36.214,10.791,36.089,19.983,5.48,6.59,9.218
1592,1.145,36.331,10.791,36.07,19.983,5.4,6.549,9.137
1593,1.142,36.438,10.717,36.118,19.987,5.521,6.549,9.217
1594,1.116,36.141,10.771,36.09,19.984,5.482,6.549,9.137
1595,1.112,36.263,10.787,36.108,19.987,5.4,6.671,9.055
1596,1.096,36.379,10.822,36.099,19.987,5.521,6.672,9.054
1597,1.079,36.457,10.881,36.08,19.977,5.441,6.631,8.932
1598,1.063,36.122,10.749,36.099,19.98,5.481,6.55,8.931
1599,1.047,36.253,10.802,36.08,19.983,5.4,6.59,8.931
1600,1.043,36.398,10.783,36.108,19.987,5.562,6.671,8.972
1601,1.037,36.438,10.842,36.099,19.99,5.482,6.672,8.809
1602,1.024,36.285,10.698,36.118,19.987,5.522,6.713,8.848
1603,1.014,36.38,10.782,36.09,19.984,5.36,6.551,8.646
1604,1.027,36.496,10.779,36.08,19.983,5.399,6.63,8.603
1605,1.01,36.545,10.791,36.089,19.983,5.44,6.631,8.562
1606,1.023,36.43,10.889,36.128,19.997,5.643,6.794,8.724
1607,1.007,36.525,10.812,36.09,19.987,5.483,6.673,8.563
1608,0.994,36.65,10.83,36.099,19.99,5.522,6.713,8.521
1609,0.968,36.642,10.78,36.061,19.973,5.4,6.632,8.358
1610,0.977,36.45,10.869,36.07,19.987,5.44,6.712,8.397
1611,0.968,36.554,10.768,36.07,19.98,5.399,6.672,8.316
1612,0.968,36.727,10.795,36.108,19.997,5.521,6.835,8.315
1613,0.948,36.518,10.803,36.09,19.984,5.441,6.714,8.274
1614,0.945,36.497,10.811,36.099,19.98,5.521,6.754,8.274
1615,0.925,36.612,10.834,36.07,19.98,5.482,6.714,8.233
1616,0.925,36.728,10.831,36.08,19.987,5.481,6.713,8.111
1617,0.905,36.537,10.776,36.07,19.977,5.44,6.713,8.069
1618,0.899,36.679,10.791,36.08,19.987,5.481,6.754,8.15
1619,0.892,36.805,10.854,36.089,19.987,5.562,6.714,8.069
1620,0.892,36.893,10.815,36.099,19.99,5.563,6.713,8.109
1621,0.869,36.558,10.823,36.109,19.987,5.563,6.754,8.109
1622,0.872,36.689,10.725,36.08,19.984,5.441,6.673,7.987
1623,0.866,36.806,10.751,36.089,19.98,5.481,6.794,8.068
1624,0.869,36.855,10.81,36.061,19.983,5.522,6.592,8.231
1625,0.879,36.606,10.873,36.108,19.997,5.603,6.712,8.639
1626,0.859,36.718,10.839,36.09,19.98,5.604,6.794,8.684
1627,0.859,36.863,10.823,36.108,19.99,5.564,6.714,9.132
1628,0.853,36.884,10.83,36.061,19.973,5.401,6.591,9.339
1629,0.849,36.635,10.827,36.079,19.987,5.521,6.631,9.708
1630,0.846,36.747,10.799,36.051,19.98,5.522,6.55,9.874
1631,0.859,36.892,10.791,36.089,19.997,5.563,6.712,10.404
1632,0.846,36.942,10.814,36.08,19.991,5.563,6.632,10.572
1633,0.843,36.808,10.784,36.08,19.99,5.563,6.712,10.777
1634,0.833,36.931,10.842,36.07,19.987,5.645,6.632,11.023
1635,0.82,37.048,10.823,36.06,19.984,5.645,6.631,11.188
1636,0.823,37.068,10.772,36.06,19.983,5.523,6.631,11.271
1637,0.81,36.742,10.81,36.089,19.983,5.563,6.59,11.231
1638,0.82,36.883,10.791,36.089,19.99,5.685,6.59,11.434
1639,0.82,36.999,10.85,36.08,19.99,5.646,6.549,11.355
1640,0.787,37.029,10.807,36.099,19.987,5.727,6.671,11.435
1641,0.787,37.029,10.803,36.051,19.973,5.524,6.509,11.192
1642,0.803,37.173,10.791,36.07,19.98,5.644,6.589,11.271
1643,0.794,37.261,10.803,36.051,19.977,5.605,6.509,11.231
1644,0.813,36.898,10.811,36.108,19.997,5.848,6.67,11.271
1645,0.807,36.75,10.807,36.08,19.987,5.688,6.591,11.15
1646,0.807,36.902,10.733,36.089,19.987,5.768,6.631,11.108
1647,0.807,36.961,10.748,36.08,19.984,5.728,6.59,10.945
1648,0.807,36.799,10.834,36.08,19.983,5.687,6.59,10.943
1649,0.787,36.902,10.78,36.06,19.98,5.687,6.549,10.821
1650,0.8,37.047,10.822,36.079,19.983,5.687,6.63,10.739
1651,0.81,37.145,10.791,36.07,19.987,5.687,6.631,10.738
1652,0.803,36.724,10.85,36.07,19.984,5.768,6.55,10.616
1653,0.8,36.854,10.897,36.07,19.987,5.809,6.63,10.574
1654,0.79,36.961,10.839,36.041,19.977,5.688,6.468,10.289
1655,0.787,37.048,10.803,36.06,19.976,5.646,6.548,10.327
1656,0.78,36.732,10.799,36.07,19.983,5.686,6.427,10.327
1657,0.787,36.911,10.822,36.108,19.997,5.849,6.67,10.368
1658,0.774,37.0,10.807,36.07,19.987,5.769,6.55,10.206
1659,0.767,37.087,10.83,36.089,19.987,5.768,6.63,10.245
1660,0.764,36.781,10.745,36.041,19.973,5.687,6.509,10.164
1661,0.77,36.941,10.806,36.07,19.987,5.646,6.589,10.163
1662,0.764,37.029,10.838,36.051,19.98,5.686,6.549,10.122
1663,0.783,37.125,10.846,36.098,19.987,5.768,6.59,10.284
1664,0.787,36.81,10.792,36.07,19.977,5.687,6.549,10.327
1665,0.793,36.951,10.725,36.08,19.99,5.768,6.59,10.408
1666,0.787,37.057,10.81,36.08,19.987,5.768,6.631,10.369
1667,0.793,37.078,10.776,36.08,19.984,5.647,6.428,10.368
1668,0.787,36.771,10.803,36.06,19.983,5.645,6.466,10.287
1669,0.787,36.912,10.752,36.06,19.983,5.645,6.426,10.327
1670,0.806,37.038,10.795,36.07,19.987,5.767,6.548,10.368
1671,0.803,37.049,10.85,36.07,19.987,5.687,6.549,10.246
1672,0.8,36.905,10.792,36.07,19.99,5.727,6.508,10.326
1673,0.764,37.019,10.768,36.032,19.977,5.524,6.345,10.083
1674,0.774,37.125,10.779,36.089,19.983,5.685,6.506,10.121
1675,0.78,36.877,10.822,36.07,19.98,5.564,6.467,10.041
1676,0.793,36.884,10.823,36.089,19.997,5.766,6.629,10.202
1677,0.774,36.97,10.885,36.07,19.991,5.647,6.509,9.838
1678,0.777,37.086,10.823,36.089,19.99,5.727,6.589,9.834
1679,0.764,36.704,10.78,36.041,19.98,5.605,6.468,9.712
1680,0.767,36.815,10.842,36.07,19.983,5.686,6.507,9.752
1681,0.751,36.922,10.831,36.041,19.98,5.687,6.508,9.59
1682,0.78,37.048,10.784,36.079,19.987,5.687,6.589,9.629
1683,0.777,36.704,10.752,36.051,19.984,5.646,6.509,9.507
1684,0.777,36.844,10.791,36.089,19.987,5.686,6.63,9.506
1685,0.774,36.961,10.764,36.07,19.99,5.727,6.55,9.384
1686,0.787,37.038,10.799,36.06,19.98,5.687,6.508,9.261
1687,0.78,36.799,10.799,36.07,19.98,5.646,6.508,9.178
1688,0.78,36.941,10.822,36.051,19.983,5.605,6.508,9.055
1689,0.79,37.067,10.752,36.079,19.983,5.686,6.589,9.135
1690,0.8,37.135,10.841,36.051,19.987,5.646,6.549,9.014
1691,0.794,36.733,10.792,36.07,19.987,5.686,6.508,8.932
1692,0.79,36.835,10.791,36.08,19.977,5.564,6.427,8.687
1693,0.79,36.98,10.748,36.07,19.98,5.604,6.507,8.684
1694,0.774,37.019,10.783,36.032,19.977,5.604,6.386,8.644
1695,0.787,36.857,10.853,36.098,20.001,5.726,6.629,8.725
1696,0.774,36.961,10.866,36.061,19.994,5.687,6.468,8.603
1697,0.767,37.077,10.796,36.051,19.987,5.687,6.548,8.562
1698,0.764,37.107,10.783,36.041,19.97,5.564,6.427,8.439
1699,0.774,36.714,10.853,36.051,19.983,5.685,6.385,8.397
1700,0.764,36.825,10.819,36.031,19.977,5.687,6.385,8.234
1701,0.754,36.979,10.807,36.07,19.994,5.687,6.385,8.233
1702,0.761,37.0,10.768,36.06,19.984,5.687,6.385,8.233
1703,0.774,36.809,10.791,36.079,19.983,5.727,6.466,8.192
1704,0.777,36.941,10.764,36.06,19.994,5.727,6.426,8.11
1705,0.774,37.038,10.83,36.06,19.984,5.646,6.426,8.069
1706,0.777,36.742,10.831,36.06,19.977,5.645,6.344,8.028
1707,0.784,36.71,10.784,36.108,19.983,5.645,6.384,7.905
1708,0.793,36.863,10.799,36.07,19.983,5.645,6.547,7.985
1709,0.803,36.961,10.799,36.07,19.987,5.727,6.427,7.864
1710,0.8,36.751,10.811,36.08,19.987,5.768,6.466,7.782
1711,0.803,36.873,10.756,36.032,19.98,5.565,6.386,7.7
1712,0.803,36.999,10.771,36.06,19.983,5.645,6.425,7.658
1713,0.797,37.068,10.83,36.032,19.977,5.645,6.344,7.536
1714,0.8,36.627,10.823,36.089,20.001,5.808,6.588,7.819
1715,0.784,36.738,10.869,36.061,19.987,5.647,6.468,7.619
1716,0.78,36.854,10.835,36.06,19.987,5.645,6.467,7.576
1717,0.767,36.913,10.831,36.022,19.977,5.523,6.345,7.413
1718,0.774,36.712,10.78,36.031,19.987,5.603,6.384,7.493
1719,0.764,36.863,10.83,36.031,19.98,5.645,6.385,7.453
1720,0.77,36.999,10.803,36.07,19.994,5.645,6.466,7.493
1721,0.774,37.068,10.78,36.041,19.984,5.605,6.426,7.371
1722,0.767,36.694,10.822,36.041,19.983,5.604,6.426,7.492
1723,0.764,36.825,10.803,36.07,19.994,5.604,6.385,7.412
1724,0.793,36.932,10.873,36.022,19.984,5.686,6.344,7.289
1725,0.777,36.99,10.854,36.041,19.983,5.564,6.343,7.288
1726,0.793,36.722,10.823,36.041,19.983,5.645,6.303,7.329
1727,0.803,36.873,10.764,36.06,19.987,5.645,6.465,7.532
1728,0.803,36.999,10.83,36.041,19.984,5.605,6.386,7.657
1729,0.803,37.02,10.795,36.041,19.987,5.564,6.425,7.902
1730,0.794,36.588,10.74,36.041,19.977,5.441,6.222,8.067
1731,0.81,36.709,10.794,36.041,19.983,5.521,6.342,8.475
1732,0.797,36.815,10.803,36.022,19.977,5.522,6.303,8.845
1733,0.807,36.97,10.869,36.06,19.997,5.644,6.465,9.377
1734,0.784,36.78,10.827,36.041,19.984,5.564,6.345,9.708
1735,0.78,36.921,10.846,36.06,19.99,5.645,6.384,10.118
1736,0.78,37.009,10.729,36.06,19.987,5.523,6.385,10.284
1737,0.764,36.761,10.794,36.041,19.984,5.563,6.344,10.53
1738,0.764,36.71,10.803,36.012,19.983,5.482,6.384,10.695
1739,0.754,36.844,10.807,36.031,19.977,5.481,6.466,10.819
1740,0.767,36.98,10.807,36.05,19.99,5.562,6.507,11.064
1741,0.77,36.722,10.787,36.041,19.98,5.604,6.508,11.148
1742,0.777,36.844,10.826,36.041,19.99,5.604,6.549,11.23
1743,0.771,36.922,10.83,36.041,19.98,5.482,6.549,11.149
1744,0.787,37.019,10.893,36.031,19.98,5.44,6.508,11.271
1745,0.777,36.492,10.8,36.022,19.977,5.481,6.589,11.15
1746,0.787,36.679,10.842,36.089,19.997,5.684,6.712,11.393
1747,0.78,36.786,10.784,36.051,19.98,5.564,6.632,11.151
1748,0.787,36.874,10.885,36.051,19.987,5.563,6.631,11.108
1749,0.79,36.606,10.741,36.022,19.977,5.441,6.55,10.945
1750,0.793,36.795,10.822,36.041,19.983,5.562,6.63,10.902
1751,0.793,36.893,10.752,36.012,19.973,5.523,6.55,10.821
1752,0.803,36.98,10.818,36.041,19.987,5.603,6.63,10.942
1753,0.794,36.569,10.85,36.041,19.984,5.564,6.631,10.821
1754,0.787,36.728,10.815,36.041,19.987,5.563,6.672,10.82
1755,0.777,36.835,10.823,36.051,19.987,5.604,6.753,10.82
1756,0.777,36.893,10.76,36.041,19.987,5.523,6.673,10.861
1757,0.771,36.616,10.822,36.022,19.977,5.563,6.55,10.82
1758,0.767,36.747,10.815,36.002,19.983,5.482,6.549,10.983
1759,0.767,36.873,10.787,36.05,19.99,5.603,6.671,11.106
1760,0.764,36.922,10.775,36.031,19.984,5.564,6.672,11.108
1761,0.774,36.568,10.807,36.05,19.983,5.645,6.672,11.067
1762,0.767,36.66,10.807,35.993,19.97,5.401,6.509,10.985
1763,0.777,36.796,10.826,36.012,19.973,5.562,6.589,10.984
1764,0.777,36.97,10.788,36.012,19.976,5.523,6.549,10.903
1765,0.79,36.645,10.772,36.069,19.994,5.644,6.63,11.024
1766,0.79,36.738,10.834,36.022,19.987,5.605,6.59,10.863
1767,0.8,36.835,10.827,36.031,19.98,5.645,6.549,10.82
1768,0.787,36.673,10.854,36.012,19.973,5.564,6.549,10.82
1769,0.787,36.69,10.831,36.012,19.98,5.563,6.59,10.739
1770,0.787,36.815,10.827,36.002,19.983,5.563,6.509,10.616
1771,0.797,36.912,10.823,36.012,19.987,5.604,6.549,10.615
1772,0.794,36.386,10.846,36.021,19.987,5.604,6.508,10.615
1773,0.784,36.486,10.776,36.022,19.987,5.726,6.589,10.493
1774,0.774,36.631,10.752,36.022,19.984,5.646,6.59,10.41
1775,0.774,36.7,10.736,36.069,19.977,5.645,6.509,10.328
1776,0.771,36.355,10.798,36.003,19.98,5.564,6.427,10.205
1777,0.77,36.524,10.807,36.002,19.98,5.604,6.466,10.123
1778,0.774,36.631,10.822,36.041,19.99,5.726,6.548,10.163
1779,0.774,36.747,10.799,36.012,19.987,5.727,6.59,10.041
1780,0.774,36.538,10.807,36.021,19.987,5.687,6.549,9.999
1781,0.761,36.651,10.819,35.993,19.977,5.483,6.305,9.755
1782,0.774,36.786,10.819,36.012,19.987,5.603,6.425,9.793
1783,0.767,36.835,10.772,35.993,19.977,5.564,6.385,9.671
1784,0.787,36.404,10.725,36.05,20.001,5.766,6.629,9.833
1785,0.78,36.515,10.79,36.031,19.984,5.565,6.387,9.631
1786,0.79,36.65,10.768,36.012,19.99,5.645,6.385,9.629
1787,0.777,36.68,10.853,35.993,19.977,5.483,6.344,9.385
1788,0.787,36.566,10.733,36.012,19.98,5.644,6.343,9.423
1789,0.78,36.689,10.818,36.002,19.977,5.523,6.343,9.302
1790,0.797,36.834,10.791,36.012,19.987,5.685,6.384,9.26
1791,0.797,36.845,10.854,36.012,19.984,5.646,6.344,9.259
1792,0.787,36.395,10.8,36.021,19.987,5.645,6.303,9.259
1793,0.774,36.524,10.764,36.012,19.984,5.645,6.343,9.056
1794,0.777,36.641,10.806,36.012,19.983,5.645,6.262,9.013
1795,0.767,36.882,10.772,35.993,19.98,5.564,6.302,8.932
1796,0.78,36.52,10.838,35.993,19.987,5.685,6.343,8.89
1797,0.764,36.641,10.838,36.012,19.984,5.605,6.384,8.89
1798,0.774,36.767,10.834,36.079,19.983,5.686,6.344,8.768
1799,0.774,36.49,10.768,36.022,19.99,5.646,6.303,8.767
1800,0.767,36.458,10.822,35.993,19.98,5.564,6.262,8.604
1801,0.757,36.592,10.815,35.993,19.98,5.645,6.302,8.643
1802,0.757,36.689,10.791,35.993,19.98,5.564,6.343,8.521
1803,0.767,36.403,10.807,36.021,19.983,5.685,6.303,8.561
1804,0.777,36.496,10.772,36.002,19.98,5.687,6.343,8.399
1805,0.784,36.631,10.81,36.012,19.994,5.687,6.425,8.438
1806,0.771,36.7,10.737,35.964,19.98,5.483,6.344,8.194
1807,0.774,36.412,10.845,35.992,19.983,5.562,6.303,8.273
1808,0.764,36.553,10.792,35.993,19.977,5.523,6.302,8.233
1809,0.78,36.718,10.838,36.021,19.997,5.685,6.506,8.355
1810,0.78,36.758,10.807,36.002,19.991,5.605,6.345,8.153
1811,0.784,36.384,10.861,36.012,19.99,5.645,6.343,8.191
1812,0.777,36.505,10.737,35.993,19.973,5.564,6.262,8.029
1813,0.784,36.65,10.83,35.993,19.983,5.563,6.262,8.068
1814,0.771,36.709,10.768,35.983,19.983,5.563,6.262,7.946
1815,0.79,36.374,10.845,36.021,19.99,5.645,6.465,8.108
1816,0.764,36.486,10.776,35.993,19.984,5.645,6.345,7.987
1817,0.767,36.593,10.83,36.002,19.99,5.605,6.425,7.986
1818,0.757,36.661,10.803,35.993,19.984,5.604,6.304,7.946
1819,0.764,36.374,10.803,36.012,19.983,5.564,6.343,7.945
1820,0.741,36.505,10.858,35.993,19.98,5.482,6.221,7.823
1821,0.747,36.621,10.761,36.012,19.977,5.603,6.22,7.863
1822,0.754,36.661,10.81,36.031,19.983,5.645,6.302,7.782
1823,0.754,36.45,10.78,35.993,19.987,5.686,6.343,7.862
1824,0.774,36.573,10.822,36.012,19.99,5.687,6.384,7.822
1825,0.771,36.661,10.791,35.993,19.977,5.524,6.344,7.659
1826,0.764,36.949,10.818,35.973,19.98,5.603,6.303,7.658
1827,0.774,36.357,10.768,35.973,19.977,5.645,6.384,7.536
1828,0.793,36.562,10.818,36.04,19.994,5.808,6.669,7.819
1829,0.767,36.612,10.787,36.003,19.98,5.728,6.631,7.619
1830,0.78,36.469,10.83,35.993,19.99,5.687,6.672,7.576
1831,0.777,36.42,10.76,35.954,19.973,5.646,6.713,7.454
1832,0.78,36.582,10.767,35.992,19.987,5.727,6.835,7.574
1833,0.767,36.651,10.814,35.954,19.984,5.687,6.674,7.454
1834,0.767,36.354,10.807,35.992,19.99,5.809,6.875,7.615
1835,0.767,36.438,10.842,35.983,19.984,5.728,6.877,7.698
1836,0.777,36.563,10.842,35.992,19.99,5.85,6.959,7.821
1837,0.767,36.651,10.784,36.002,19.984,5.81,6.96,7.985
1838,0.751,36.239,10.775,35.983,19.987,5.728,6.919,8.271
1839,0.748,36.35,10.838,35.973,19.984,5.727,6.837,8.68
1840,0.747,36.495,10.846,35.983,19.98,5.768,6.877,9.01
1841,0.757,36.593,10.772,36.002,19.987,5.931,7.04,9.541
1842,0.761,36.411,10.783,35.983,19.984,5.811,7.001,9.71
1843,0.761,36.573,10.752,36.012,19.99,5.85,7.082,10.077
1844,0.754,36.651,10.814,35.964,19.977,5.648,6.88,10.284
1845,0.764,36.719,10.819,35.992,19.983,5.767,7.04,10.652
1846,0.761,36.336,10.85,35.964,19.98,5.728,6.96,10.94
1847,0.78,36.524,10.823,36.021,19.99,5.89,7.122,11.431
1848,0.777,36.612,10.807,35.993,19.984,5.77,7.043,11.639
1849,0.78,36.68,10.795,36.002,19.987,5.85,7.082,11.926
1850,0.777,36.355,10.799,35.964,19.98,5.81,7.083,12.132
1851,0.787,36.514,10.803,35.983,19.983,5.891,7.083,12.337
1852,0.78,36.602,10.776,35.964,19.977,5.729,7.042,12.502
1853,0.777,36.68,10.795,35.963,19.98,5.809,7.082,12.666
1854,0.758,36.364,10.803,35.983,19.99,5.769,7.123,12.749
1855,0.764,36.495,10.873,35.973,19.984,5.809,7.124,12.831
1856,0.77,36.593,10.815,35.983,19.994,5.81,7.124,12.914
1857,0.744,36.929,10.854,35.964,19.984,5.647,7.002,12.792
1858,0.744,36.434,10.827,35.963,19.983,5.727,7.041,12.873
1859,0.741,36.544,10.858,35.963,19.983,5.727,6.96,12.67
1860,0.76,36.689,10.835,35.992,19.994,5.85,7.122,12.871
1861,0.757,36.374,10.815,35.964,19.984,5.769,7.083,12.67
1862,0.761,36.361,10.815,36.002,19.99,5.809,7.083,12.709
1863,0.757,36.457,10.76,35.945,19.977,5.606,6.92,12.384
1864,0.764,36.554,10.857,35.963,19.98,5.767,7.0,12.299
1865,0.761,36.286,10.784,35.944,19.98,5.687,6.919,12.136
1866,0.787,36.456,10.834,36.002,19.997,5.809,7.081,12.215
1867,0.78,36.564,10.807,35.973,19.984,5.688,6.961,12.013
1868,0.787,36.66,10.791,35.983,19.987,5.768,7.0,11.848
1869,0.777,36.441,10.85,35.945,19.977,5.687,6.838,11.684
1870,0.777,36.611,10.772,35.973,19.983,5.605,6.877,11.52
1871,0.774,36.699,10.826,35.954,19.983,5.645,6.796,11.396
1872,0.787,36.796,10.788,35.963,19.983,5.686,6.836,11.314
1873,0.771,36.231,10.85,35.954,19.983,5.646,6.877,11.232
1874,0.774,36.379,10.846,35.963,19.983,5.727,6.837,11.231
1875,0.774,36.515,10.862,35.983,19.99,5.727,6.877,11.068
1876,0.751,36.564,10.729,35.954,19.98,5.646,6.837,10.944
1877,0.748,36.354,10.79,35.944,19.983,5.645,6.837,10.862
1878,0.744,36.486,10.775,35.944,19.97,5.564,6.755,10.658
1879,0.754,36.64,10.865,35.973,19.987,5.685,6.876,10.818
1880,0.751,36.68,10.768,35.983,19.977,5.646,6.837,10.617
1881,0.754,36.297,10.822,35.973,19.99,5.727,6.877,10.574
1882,0.744,36.408,10.819,35.944,19.977,5.484,6.715,10.411
1883,0.76,36.534,10.869,35.963,19.983,5.603,6.876,10.369
1884,0.757,36.555,10.893,35.935,19.973,5.564,6.715,10.165
1885,0.767,36.401,10.855,35.992,19.994,5.766,6.957,10.285
1886,0.767,36.505,10.8,35.973,19.984,5.647,6.797,10.083
1887,0.774,36.641,10.772,35.964,19.987,5.645,6.877,10.04
1888,0.764,36.939,10.83,35.935,19.98,5.564,6.755,9.796
1889,0.767,36.329,10.834,35.954,19.98,5.604,6.795,9.753
1890,0.764,36.466,10.823,35.935,19.983,5.564,6.714,9.63
1891,0.78,36.583,10.748,35.973,19.987,5.604,6.835,9.629
1892,0.777,36.335,10.826,35.935,19.984,5.564,6.796,9.466
1893,0.767,36.361,10.827,35.944,19.983,5.604,6.755,9.424
1894,0.774,36.476,10.858,35.954,19.983,5.686,6.795,9.424
1895,0.761,36.592,10.796,35.935,19.983,5.564,6.755,9.261
1896,0.761,36.229,10.74,35.954,19.977,5.523,6.673,9.178
1897,0.767,36.36,10.752,35.954,19.983,5.522,6.713,9.137
1898,0.774,36.495,10.834,35.973,19.99,5.644,6.754,9.136
1899,0.771,36.583,10.807,35.954,19.984,5.564,6.714,9.014
1900,0.774,36.363,10.803,35.954,19.987,5.563,6.754,9.094
1901,0.764,36.457,10.838,35.935,19.973,5.401,6.592,8.811
1902,0.774,36.592,10.815,35.963,19.983,5.562,6.753,8.767
1903,0.784,36.661,10.893,35.944,19.98,5.523,6.632,8.685
1904,0.81,36.239,10.855,35.982,19.99,5.685,6.875,8.888
1905,0.79,36.36,10.811,35.954,19.987,5.605,6.674,8.605
1906,0.803,36.505,10.787,35.954,19.984,5.604,6.794,8.602
1907,0.807,36.535,10.772,35.925,19.977,5.401,6.592,8.44
1908,0.813,36.229,10.806,35.953,19.98,5.562,6.671,8.438
1909,0.807,36.36,10.748,35.925,19.98,5.441,6.631,8.316
1910,0.842,36.515,10.834,35.973,19.997,5.684,6.712,8.518
1911,0.836,36.526,10.803,35.916,19.984,5.524,6.632,8.276
1912,0.843,36.334,10.846,35.944,19.987,5.563,6.631,8.274
1913,0.83,36.438,10.831,35.935,19.987,5.482,6.59,8.193
1914,0.846,36.573,10.823,35.944,19.98,5.522,6.549,8.192
1915,0.849,36.574,10.733,35.935,19.973,5.441,6.508,8.151
1916,0.856,36.296,10.822,35.944,19.987,5.521,6.63,8.15
1917,0.849,36.418,10.815,35.925,19.99,5.482,6.55,8.028
1918,0.862,36.515,10.869,35.944,19.99,5.522,6.59,8.109
1919,0.866,36.881,10.807,35.963,19.99,5.563,6.549,8.069
1920,0.876,36.27,10.791,35.935,19.98,5.482,6.468,7.946
1921,0.853,36.399,10.803,35.934,19.983,5.481,6.467,7.986
1922,0.853,36.505,10.838,35.925,19.977,5.4,6.386,7.905
1923,0.882,36.487,10.753,35.973,19.99,5.562,6.669,8.026
1924,0.879,36.525,10.783,35.935,19.984,5.563,6.55,7.865
1925,0.882,36.67,10.752,35.963,19.987,5.563,6.549,7.863
1926,0.869,36.719,10.775,35.916,19.977,5.36,6.346,7.7
1927,0.872,36.163,10.849,35.925,19.987,5.48,6.506,7.699
1928,0.866,36.244,10.815,35.915,19.984,5.44,6.386,7.618
1929,0.889,36.418,10.846,35.953,19.997,5.521,6.588,7.779
1930,0.885,36.496,10.792,35.925,19.987,5.563,6.549,7.659
1931,0.882,36.228,10.885,35.934,19.984,5.523,6.549,7.617
1932,0.866,36.369,10.808,35.944,19.99,5.482,6.508,7.617
1933,0.869,36.505,10.795,35.915,19.984,5.481,6.467,7.576
1934,0.85,36.574,10.662,35.915,19.987,5.44,6.467,7.494
1935,0.862,36.21,10.794,35.915,19.987,5.481,6.467,7.453
1936,0.859,36.331,10.733,35.925,19.987,5.44,6.507,7.534
1937,0.862,36.476,10.826,35.934,19.987,5.521,6.589,7.534
1938,0.856,36.544,10.745,35.944,19.994,5.563,6.509,7.534
1939,0.843,36.152,10.791,35.915,19.977,5.401,6.386,7.372
1940,0.826,36.292,10.814,35.934,19.983,5.358,6.507,7.573
1941,0.823,36.399,10.815,35.915,19.977,5.48,6.386,7.616
1942,0.823,36.477,10.826,35.944,20.001,5.603,6.629,7.901
1943,0.826,36.199,10.737,35.925,19.991,5.482,6.55,8.107
1944,0.833,36.36,10.802,35.934,19.984,5.562,6.549,8.516
1945,0.817,36.438,10.748,35.906,19.977,5.36,6.468,8.764
1946,0.823,36.477,10.767,35.915,19.983,5.48,6.507,9.255
1947,0.813,36.228,10.806,35.915,19.977,5.4,6.467,9.625
1948,0.82,36.456,10.795,35.963,19.994,5.562,6.629,10.117
1949,0.807,36.496,10.815,35.935,19.984,5.441,6.468,10.488
1950,0.816,36.832,10.838,35.925,19.987,5.521,6.589,10.735
1951,0.81,36.193,10.854,35.925,19.987,5.441,6.509,10.9
1952,0.8,36.331,10.78,35.915,19.987,5.481,6.549,11.105
1953,0.797,36.428,10.799,35.973,19.98,5.318,6.468,11.23
1954,0.803,36.122,10.791,35.906,19.987,5.52,6.589,11.434
1955,0.807,36.119,10.803,35.925,19.987,5.4,6.509,11.517
1956,0.794,36.244,10.791,35.925,19.987,5.48,6.508,11.518
1957,0.8,36.341,10.811,35.915,19.987,5.522,6.63,11.599
1958,0.797,36.112,10.795,35.915,19.984,5.482,6.387,11.519
1959,0.777,36.234,10.787,35.915,19.983,5.44,6.425,11.518
1960,0.774,36.341,10.846,35.915,19.977,5.399,6.426,11.477
1961,0.787,36.476,10.831,35.944,19.994,5.562,6.548,11.64
1962,0.784,36.123,10.764,35.925,19.98,5.482,6.508,11.479
1963,0.8,36.263,10.799,35.925,19.983,5.4,6.589,11.396
1964,0.79,36.36,10.76,35.877,19.97,5.318,6.346,11.151
1965,0.8,36.457,10.74,35.915,19.976,5.358,6.466,11.23
1966,0.797,36.036,10.783,35.906,19.976,5.317,6.345,11.109
1967,0.813,36.214,10.771,35.963,19.99,5.561,6.547,11.23
1968,0.8,36.293,10.822,35.925,19.984,5.441,6.468,11.027
1969,0.807,36.389,10.811,35.915,19.99,5.44,6.426,11.025
1970,0.81,36.15,10.85,35.915,19.98,5.399,6.466,10.903
1971,0.81,36.273,10.831,35.906,19.987,5.399,6.467,10.739
1972,0.8,36.37,10.725,35.896,19.977,5.318,6.345,10.575
1973,0.803,36.467,10.849,35.934,19.99,5.439,6.384,10.614
1974,0.794,36.151,10.784,35.915,19.984,5.399,6.344,10.493
1975,0.784,36.311,10.857,35.915,19.99,5.48,6.466,10.491
1976,0.777,36.428,10.831,35.915,19.984,5.4,6.304,10.329
1977,0.771,36.439,10.842,35.906,19.98,5.358,6.302,10.165
1978,0.767,36.161,10.815,35.905,19.987,5.358,6.302,10.163
1979,0.77,36.273,10.791,35.896,19.98,5.317,6.262,10.082
1980,0.777,36.408,10.873,35.924,19.987,5.398,6.424,10.162
1981,0.764,36.755,10.78,35.915,19.99,5.358,6.385,10.082
1982,0.774,36.154,10.846,35.973,19.99,5.399,6.385,10.081
1983,0.774,36.254,10.706,35.887,19.977,5.277,6.303,9.837
1984,0.771,36.37,10.81,35.905,19.98,5.357,6.343,9.834
1985,0.767,36.026,10.78,35.886,19.977,5.317,6.262,9.794
1986,0.777,36.061,10.873,35.924,19.997,5.561,6.424,9.996
1987,0.767,36.166,10.808,35.915,19.984,5.482,6.426,9.755
1988,0.77,36.273,10.772,35.915,19.99,5.4,6.385,9.712
1989,0.761,36.025,10.814,35.867,19.98,5.318,6.303,9.548
1990,0.774,36.166,10.803,35.895,19.983,5.398,6.384,9.506
1991,0.758,36.273,10.815,35.886,19.98,5.358,6.385,9.425
1992,0.777,36.418,10.791,35.924,19.994,5.48,6.466,9.383
1993,0.764,36.017,10.83,35.896,19.98,5.4,6.426,9.301
1994,0.751,36.137,10.776,35.896,19.983,5.399,6.385,9.26
1995,0.748,36.263,10.873,35.915,19.99,5.399,6.425,9.178
1996,0.731,36.331,10.889,35.915,19.98,5.44,6.344,9.096
1997,0.728,35.91,10.808,35.896,19.983,5.44,6.343,8.973
1998,0.728,36.069,10.83,35.896,19.987,5.359,6.343,8.931
1999,0.725,36.186,10.791,35.905,19.98,5.561,6.384,8.931
2000,0.718,36.244,10.854,35.915,19.98,5.441,6.425,8.89
2001,0.731,36.024,10.741,35.934,19.99,5.44,6.426,8.89
2002,0.725,36.166,10.787,35.906,19.984,5.399,6.263,8.727
2003,0.731,36.263,10.736,35.896,19.983,5.48,6.302,8.644
2004,0.731,36.312,10.791,35.896,19.98,5.4,6.343,8.521
2005,0.747,35.929,10.822,35.934,19.997,5.562,6.384,8.642
2006,0.728,36.021,10.842,35.906,19.984,5.523,6.344,8.481
2007,0.751,36.166,10.827,35.915,19.987,5.603,6.343,8.479
2008,0.735,36.167,10.799,35.877,19.973,5.401,6.262,8.276
2009,0.744,35.947,10.822,35.905,19.98,5.48,6.384,8.314
2010,0.747,36.069,10.791,35.896,19.977,5.522,6.263,8.193
2011,0.77,36.243,10.775,35.953,19.994,5.644,6.465,8.314
2012,0.757,36.523,10.756,35.896,19.984,5.564,6.386,8.152
2013,0.757,36.018,10.759,35.905,19.987,5.645,6.385,8.11
2014,0.741,36.108,10.748,35.905,19.984,5.564,6.344,7.987
2015,0.744,36.224,10.853,35.896,19.983,5.685,6.303,8.027
2016,0.747,35.995,10.846,35.877,19.983,5.605,6.343,7.987
2017,0.744,36.051,10.757,35.915,19.987,5.604,6.343,7.986
2018,0.731,36.166,10.83,35.906,19.98,5.686,6.343,7.905
2019,0.734,36.273,10.866,35.896,19.983,5.646,6.425,7.863
2020,0.741,36.063,10.815,35.905,19.987,5.727,6.426,7.863
2021,0.734,36.186,10.717,35.896,19.984,5.646,6.304,7.822
2022,0.744,36.321,10.822,35.886,19.98,5.686,6.384,7.863
2023,0.734,36.39,10.752,35.886,19.977,5.646,6.344,7.619
2024,0.751,35.719,10.838,35.915,20.001,5.849,6.588,7.901
2025,0.748,35.856,10.799,35.877,19.987,5.729,6.468,7.701
2026,0.747,35.953,10.861,35.905,19.99,5.727,6.507,7.78
2027,0.725,36.012,10.753,35.886,19.97,5.687,6.305,7.578
2028,0.754,35.84,10.81,35.896,19.983,5.687,6.465,7.616
2029,0.757,35.953,10.772,35.877,19.983,5.687,6.426,7.495
2030,0.777,36.127,10.826,35.905,19.99,5.809,6.507,7.575
2031,0.774,36.157,10.811,35.915,19.987,5.728,6.508,7.535
2032,0.764,35.841,10.799,35.906,19.984,5.727,6.467,7.494
2033,0.754,35.972,10.834,35.886,19.983,5.687,6.426,7.494
2034,0.751,36.098,10.811,35.896,19.983,5.687,6.466,7.453
2035,0.741,36.138,10.885,35.886,19.977,5.687,6.386,7.371
2036,0.747,35.793,10.812,35.886,19.976,5.687,6.425,7.33
2037,0.741,35.934,10.823,35.905,19.98,5.727,6.548,7.37
2038,0.738,36.05,10.776,35.905,19.99,5.768,6.508,7.492
2039,0.738,36.08,10.853,35.905,19.99,5.809,6.508,7.616
2040,0.734,35.831,10.764,35.886,19.977,5.606,6.427,7.495
2041,0.725,35.991,10.818,35.896,19.983,5.686,6.385,7.697
2042,0.724,36.089,10.768,35.867,19.983,5.564,6.385,7.74
2043,0.747,36.454,10.826,35.924,19.997,5.807,6.547,8.065
2044,0.738,35.902,10.866,35.896,19.984,5.728,6.386,8.028
2045,0.738,36.03,10.831,35.886,19.99,5.687,6.385,8.149
2046,0.741,36.089,10.862,35.848,19.977,5.564,6.425,8.191
2047,0.76,35.802,10.807,35.895,19.987,5.645,6.344,8.517
2048,0.767,35.799,10.807,35.877,19.984,5.483,6.343,8.723
2049,0.793,35.953,10.815,35.905,19.987,5.684,6.506,9.132
2050,0.81,36.041,10.791,35.877,19.984,5.605,6.386,9.421
2051,0.826,35.687,10.752,35.895,19.987,5.604,6.466,9.871
2052,0.846,35.798,10.802,35.886,19.987,5.564,6.507,10.404
2053,0.862,35.914,10.795,35.886,19.984,5.645,6.386,10.856
2054,0.888,35.992,10.818,35.867,19.98,5.523,6.425,11.349
2055,0.912,35.667,10.881,35.895,19.983,5.644,6.466,11.801
2056,0.941,35.817,10.757,35.877,19.99,5.564,6.507,12.212
2057,0.984,35.953,10.834,35.895,19.987,5.523,6.508,12.541
2058,1.007,36.041,10.807,35.896,19.994,5.644,6.508,12.87
2059,1.03,35.792,10.85,35.857,19.984,5.483,6.427,12.873
2060,1.04,35.953,10.764,35.886,19.987,5.562,6.466,13.158
2061,1.05,36.06,10.83,35.857,19.977,5.441,6.507,13.161
2062,1.079,36.166,10.795,35.905,19.997,5.643,6.549,13.445
2063,1.083,36.187,10.834,35.896,19.98,5.523,6.508,13.326
2064,1.112,36.321,10.815,35.886,19.987,5.563,6.549,13.325
2065,1.093,36.409,10.858,35.867,19.973,5.482,6.386,13.244
2066,1.079,36.477,10.764,35.867,19.98,5.522,6.507,13.243
2067,1.04,35.413,10.81,35.876,19.977,5.522,6.467,13.121
2068,1.017,35.594,10.811,35.895,19.994,5.644,6.548,13.16
2069,0.971,35.692,10.838,35.886,19.984,5.564,6.508,13.039
2070,0.932,35.741,10.819,35.886,19.983,5.563,6.589,12.916
2071,0.889,35.875,10.772,35.876,19.98,5.604,6.468,12.752
2072,0.866,36.021,10.814,35.867,19.983,5.604,6.507,12.709
2073,0.817,36.108,10.791,35.876,19.983,5.523,6.427,12.546
2074,0.787,36.397,10.865,35.867,19.987,5.563,6.466,12.464
2075,0.751,35.633,10.823,35.876,19.984,5.645,6.507,12.463
2076,0.721,35.73,10.787,35.876,19.983,5.605,6.508,12.3
2077,0.695,35.875,10.822,35.876,19.983,5.726,6.508,12.217
2078,0.675,35.723,10.795,35.857,19.973,5.524,6.427,11.972
2079,0.672,35.789,10.85,35.886,19.98,5.563,6.507,11.97
2080,0.63,35.924,10.698,35.867,19.98,5.563,6.427,11.929
2081,0.59,36.06,10.798,35.895,19.994,5.766,6.629,12.213
2082,0.528,35.524,10.791,35.877,19.984,5.565,6.509,12.176
2083,0.482,35.634,10.822,35.876,19.987,5.604,6.549,12.46
2084,0.439,35.75,10.846,35.848,19.977,5.482,6.386,12.585
2085,0.396,35.856,10.87,35.857,19.983,5.562,6.507,13.074
2086,0.334,35.579,10.792,35.867,19.98,5.523,6.467,13.485
2087,0.259,35.759,10.846,35.895,19.987,5.685,6.467,14.14
2088,0.196,35.876,10.831,35.877,19.984,5.646,6.467,14.634
2089,0.163,35.944,10.831,35.876,19.99,5.645,6.507,15.046
2090,0.143,35.667,10.768,35.857,19.984,5.564,6.427,15.538
2091,0.143,35.808,10.783,35.867,19.987,5.563,6.385,15.827
2092,0.136,35.915,10.807,35.848,19.98,5.482,6.385,16.196
2093,0.11,35.983,10.83,35.857,19.98,5.481,6.303,16.403
2094,0.12,35.523,10.846,35.876,19.987,5.562,6.425,16.608
2095,0.139,35.681,10.792,35.876,19.984,5.563,6.344,16.651
2096,0.156,35.808,10.791,35.895,19.983,5.685,6.384,16.692
2097,0.166,35.838,10.783,35.857,19.973,5.442,6.303,16.408
2098,0.208,35.675,10.877,35.867,19.98,5.521,6.343,16.486
2099,0.254,35.808,10.776,35.848,19.977,5.482,6.384,16.487
2100,0.294,35.972,10.838,35.905,19.99,5.684,6.547,16.609
2101,0.346,35.993,10.753,35.886,19.984,5.564,6.427,16.651
2102,0.395,35.552,10.798,35.867,19.987,5.604,6.426,16.733
2103,0.435,35.653,10.858,35.838,19.977,5.442,6.304,16.734
2104,0.474,35.788,10.831,35.857,19.98,5.481,6.425,17.059
2105,0.504,36.087,10.799,35.847,19.983,5.4,6.344,17.225
2106,0.563,35.658,10.737,35.905,19.994,5.643,6.506,17.715
2107,0.593,35.779,10.81,35.867,19.987,5.483,6.508,17.963
2108,0.629,35.876,10.823,35.867,19.987,5.522,6.589,18.372
2109,0.642,35.618,10.811,35.848,19.984,5.563,6.387,18.539
2110,0.668,35.644,10.776,35.857,19.983,5.563,6.425,18.663
2111,0.688,35.779,10.826,35.847,19.98,5.482,6.426,18.827
2112,0.718,35.905,10.85,35.886,19.987,5.562,6.507,19.031
2113,0.724,35.58,10.858,35.867,19.99,5.441,6.508,18.911
2114,0.721,35.711,10.823,35.895,19.99,5.562,6.508,18.91
2115,0.734,35.818,10.772,35.848,19.987,5.563,6.549,18.788
2116,0.734,35.915,10.803,35.857,19.984,5.563,6.59,18.543
2117,0.741,35.58,10.733,35.857,19.983,5.482,6.509,18.297
2118,0.76,35.74,10.841,35.847,19.98,5.522,6.508,18.05
2119,0.767,35.856,10.71,35.857,19.983,5.563,6.63,17.804
2120,0.774,35.963,10.794,35.867,19.983,5.645,6.55,17.476
2121,0.78,35.628,10.803,35.886,19.99,5.645,6.549,17.31
2122,0.787,35.75,10.846,35.838,19.977,5.564,6.549,16.943
2123,0.797,35.866,10.862,35.847,19.98,5.523,6.508,16.614
2124,0.79,35.934,10.788,35.838,19.977,5.522,6.467,16.326
2125,0.797,35.551,10.748,35.895,19.994,5.725,6.711,16.201
2126,0.8,35.682,10.728,35.857,19.984,5.646,6.632,15.834
2127,0.82,35.798,10.822,35.867,19.997,5.645,6.631,15.668
2128,0.807,35.809,10.745,35.838,19.973,5.442,6.468,15.259
2129,0.82,35.617,10.837,35.847,19.98,5.521,6.548,15.052
2130,0.817,35.74,10.803,35.838,19.977,5.522,6.508,14.847
2131,0.846,35.914,10.854,35.876,19.997,5.766,6.752,14.723
2132,0.827,35.916,10.866,35.857,19.991,5.565,6.551,14.274
2133,0.82,35.551,10.772,35.857,19.99,5.645,6.59,14.188
2134,0.81,35.653,10.787,35.847,19.987,5.605,6.59,13.903
2135,0.82,35.798,10.803,35.847,19.98,5.604,6.631,13.697
2136,0.81,36.087,10.803,35.828,19.973,5.482,6.55,13.41
2137,0.816,35.658,10.815,35.857,19.98,5.562,6.63,13.245
2138,0.813,35.75,10.748,35.857,19.983,5.563,6.59,13.04
2139,0.823,35.895,10.826,35.857,19.99,5.563,6.671,12.875
2140,0.817,35.609,10.784,35.857,19.994,5.604,6.591,12.711
2141,0.816,35.615,10.83,35.847,19.98,5.523,6.631,12.465
2142,0.813,35.73,10.788,35.847,19.987,5.522,6.55,12.3
2143,0.829,35.856,10.744,35.838,19.98,5.563,6.549,12.136
2144,0.833,35.484,10.697,35.876,19.987,5.604,6.752,12.134
2145,0.839,35.614,10.786,35.848,19.987,5.604,6.714,11.931
2146,0.849,35.75,10.752,35.847,19.987,5.645,6.672,11.726
2147,0.843,35.799,10.838,35.819,19.973,5.442,6.591,11.601
2148,0.846,35.512,10.741,35.847,19.983,5.603,6.631,11.56
