time,ecg,bvp,gsr,rsp,skt,emg_zygo,emg_coru,emg_trap
0,1.02,38.811,14.821,32.043,23.833,4.864,5.809,12.915
1,1.014,38.955,14.824,32.024,23.833,4.784,5.688,12.711
2,1.007,39.043,14.895,32.043,23.84,4.864,5.768,12.75
3,0.997,38.009,14.845,32.024,23.836,4.784,5.768,12.709
4,0.984,38.123,14.789,32.043,23.829,4.824,5.768,12.709
5,0.974,38.297,14.82,32.053,23.84,4.824,5.647,12.668
6,0.958,38.375,14.883,32.043,23.833,4.865,5.727,12.709
7,0.945,38.337,14.868,32.034,23.836,4.784,5.687,12.709
8,0.935,38.49,14.833,32.043,23.84,4.824,5.727,12.79
9,0.925,38.617,14.848,32.015,23.833,4.783,5.727,12.71
10,0.922,38.704,14.832,32.043,23.836,4.864,5.727,12.79
11,0.912,37.996,14.723,32.043,23.833,4.824,5.646,12.791
12,0.892,38.132,14.792,32.034,23.833,4.905,5.686,12.751
13,0.902,38.258,14.867,32.014,23.822,4.744,5.646,12.628
14,0.899,38.336,14.868,32.043,23.833,4.864,5.686,12.627
15,0.905,38.184,14.868,32.043,23.836,4.784,5.687,12.627
16,0.905,38.336,14.868,32.034,23.84,4.864,5.727,12.627
17,0.895,38.452,14.852,32.024,23.829,4.784,5.646,12.505
18,0.902,38.501,14.856,32.043,23.84,4.824,5.686,12.585
19,0.886,38.07,14.805,32.034,23.833,4.824,5.727,12.586
20,0.885,38.21,14.867,32.034,23.833,4.783,5.646,12.545
21,0.895,38.317,14.868,32.024,23.833,4.783,5.645,12.545
22,0.895,38.356,14.778,32.053,23.836,4.824,5.645,12.464
23,0.889,38.165,14.867,32.024,23.836,4.783,5.645,12.585
24,0.866,38.316,14.836,32.024,23.836,4.824,5.727,12.627
25,0.862,38.414,14.883,32.014,23.833,4.783,5.646,12.627
26,0.862,38.117,14.899,32.043,23.833,4.742,5.727,12.627
27,0.856,37.98,14.86,32.024,23.829,4.823,5.687,12.749
28,0.84,38.103,14.899,32.024,23.826,4.783,5.646,12.791
29,0.836,38.201,14.837,32.024,23.829,4.824,5.605,12.791
30,0.83,37.981,14.832,32.043,23.836,4.824,5.645,12.954
31,0.813,38.036,14.848,32.043,23.84,4.824,5.645,12.874
32,0.81,38.171,14.91,32.015,23.833,4.743,5.645,12.873
33,0.826,38.278,14.81,32.024,23.836,4.783,5.605,12.751
34,0.833,37.732,14.781,32.043,23.833,4.824,5.726,12.791
35,0.83,37.852,14.82,32.043,23.826,4.783,5.646,12.751
36,0.826,37.968,14.809,32.034,23.829,4.783,5.605,12.669
37,0.83,38.084,14.851,32.024,23.833,4.824,5.604,12.627
38,0.826,37.759,14.797,32.034,23.84,4.865,5.726,12.668
39,0.833,37.871,14.812,32.024,23.829,4.784,5.646,12.668
40,0.833,37.968,14.816,31.995,23.829,4.742,5.645,12.546
41,0.83,38.074,14.879,32.014,23.829,4.823,5.686,12.464
42,0.833,37.539,14.852,32.024,23.84,4.824,5.768,12.544
43,0.826,37.667,14.907,32.014,23.84,4.783,5.809,12.423
44,0.817,37.793,14.895,32.014,23.826,4.702,5.647,12.422
45,0.813,37.852,14.852,32.024,23.833,4.823,5.727,12.544
46,0.81,37.603,14.836,32.043,23.84,4.824,5.809,12.748
47,0.807,37.764,14.852,32.043,23.833,4.743,5.728,12.709
48,0.794,37.842,14.825,32.024,23.829,4.742,5.687,12.872
49,0.803,37.929,14.789,32.034,23.829,4.783,5.809,12.955
50,0.79,37.508,14.879,32.043,23.843,4.905,5.891,13.078
51,0.78,37.638,14.848,32.043,23.84,4.784,5.851,12.997
52,0.777,37.755,14.786,32.024,23.833,4.783,5.851,13.078
53,0.777,37.804,14.879,32.034,23.829,4.783,5.851,12.957
54,0.8,37.421,14.86,32.043,23.843,4.864,5.973,13.078
55,0.79,37.542,14.891,32.024,23.833,4.824,5.933,12.997
56,0.793,37.639,14.848,32.014,23.833,4.783,5.974,12.996
57,0.806,37.688,14.86,32.024,23.829,4.742,5.974,12.956
58,0.82,37.429,14.864,32.043,23.84,4.823,5.974,13.037
59,0.82,37.561,14.836,32.034,23.833,4.865,6.096,13.038
60,0.813,37.687,14.84,32.024,23.836,4.743,6.097,12.956
61,0.816,37.343,14.828,32.014,23.833,4.742,6.056,12.874
62,0.82,37.349,14.883,32.033,23.84,4.823,6.056,12.955
63,0.81,37.483,14.794,32.043,23.836,4.824,6.137,13.118
64,0.807,37.59,14.773,32.043,23.836,4.743,6.138,13.201
65,0.803,37.217,14.875,32.005,23.829,4.783,6.057,13.202
66,0.803,37.348,14.903,32.024,23.836,4.824,6.015,13.283
67,0.8,37.455,14.895,32.034,23.833,4.783,6.096,13.365
68,0.8,37.58,14.837,32.043,23.84,4.824,6.178,13.488
69,0.794,37.179,14.891,32.024,23.826,4.783,6.057,13.449
70,0.787,37.319,14.837,32.043,23.833,4.824,6.056,13.448
71,0.787,37.454,14.848,32.053,23.829,4.865,6.097,13.57
72,0.797,37.552,14.832,32.053,23.833,4.824,6.178,13.531
73,0.79,37.035,14.863,32.015,23.836,4.783,6.057,13.286
74,0.803,37.202,14.868,32.024,23.833,4.742,6.056,13.284
75,0.794,37.338,14.829,32.024,23.833,4.742,6.097,13.284
76,0.813,37.426,14.867,32.053,23.847,4.905,6.138,13.243
77,0.81,37.369,14.852,32.024,23.833,4.744,6.016,13.121
78,0.807,37.512,14.801,32.024,23.836,4.783,6.015,13.079
79,0.823,37.658,14.84,32.043,23.84,4.824,6.137,13.119
80,0.817,37.688,14.844,32.024,23.847,4.865,6.179,13.16
81,0.82,36.825,14.821,32.024,23.84,4.784,6.057,12.958
82,0.826,36.979,14.703,32.043,23.833,4.783,5.975,12.956
83,0.826,37.125,14.843,32.024,23.833,4.824,6.055,12.996
84,0.823,37.174,14.805,32.043,23.84,4.905,6.137,13.037
85,0.813,36.983,14.887,32.024,23.833,4.784,6.057,12.875
86,0.797,37.134,14.825,32.014,23.826,4.702,5.934,12.955
87,0.8,37.261,14.824,32.024,23.833,4.823,6.136,13.078
88,0.794,37.463,14.902,32.043,23.843,4.824,6.138,13.16
89,0.79,37.005,14.829,32.024,23.84,4.783,6.098,13.039
90,0.79,37.173,14.867,32.024,23.829,4.824,5.975,13.038
91,0.793,37.29,14.879,32.014,23.84,4.783,6.055,13.078
92,0.787,37.032,14.938,32.053,23.84,4.864,6.097,13.119
93,0.787,36.953,14.767,32.015,23.826,4.784,5.975,12.957
94,0.8,37.086,14.773,32.014,23.826,4.824,5.893,12.833
95,0.813,37.193,14.828,32.014,23.829,4.824,5.973,12.954
96,0.823,36.897,14.891,32.033,23.843,4.824,6.055,13.037
97,0.82,36.951,14.759,32.014,23.836,4.743,5.934,12.916
98,0.826,37.096,14.867,32.024,23.829,4.783,5.933,12.833
99,0.817,37.203,14.872,32.024,23.836,4.864,5.974,12.954
100,0.839,36.897,14.794,32.024,23.84,4.865,6.055,12.956
101,0.826,37.009,14.824,31.995,23.833,4.743,5.893,12.793
102,0.833,37.135,14.832,32.004,23.826,4.701,5.851,12.791
103,0.82,37.222,14.856,32.014,23.84,4.823,5.973,12.913
104,0.823,36.859,14.836,32.043,23.84,4.946,6.015,13.158
105,0.813,36.97,14.821,32.015,23.829,4.785,5.893,12.958
106,0.8,37.106,14.77,31.995,23.829,4.742,5.811,12.956
107,0.807,37.193,14.843,32.014,23.843,4.823,5.972,13.118
108,0.8,36.811,14.832,32.024,23.847,4.946,6.096,13.282
109,0.8,36.941,14.828,32.005,23.833,4.785,5.853,13.121
110,0.79,37.057,14.867,31.985,23.829,4.783,5.729,13.12
111,0.787,37.135,14.84,32.024,23.836,4.905,5.972,13.323
112,0.803,36.772,14.848,32.043,23.843,5.028,6.015,13.366
113,0.803,36.883,14.844,32.024,23.833,4.826,5.852,13.122
114,0.813,37.018,14.864,31.976,23.829,4.783,5.769,12.998
115,0.816,37.068,14.946,32.014,23.843,4.864,5.85,13.119
116,0.826,36.819,14.849,32.043,23.85,4.987,6.013,13.242
117,0.82,36.941,14.856,31.995,23.829,4.826,5.812,12.999
118,0.817,37.057,14.86,31.995,23.829,4.743,5.769,12.915
119,0.826,37.106,14.797,32.033,23.829,4.864,5.931,13.037
120,0.833,36.8,14.84,32.024,23.843,4.865,5.974,13.078
121,0.836,36.893,14.875,31.986,23.836,4.824,5.811,12.916
122,0.843,37.038,14.868,31.985,23.829,4.743,5.769,12.792
123,0.836,37.03,14.797,31.995,23.84,4.905,5.972,12.994
124,0.82,36.905,14.844,32.072,23.843,4.906,5.974,13.119
125,0.833,37.028,14.825,31.996,23.829,4.825,5.852,12.998
126,0.817,37.154,14.891,32.004,23.826,4.824,5.769,12.915
127,0.81,36.714,14.766,32.005,23.84,4.865,5.891,13.037
128,0.81,36.777,14.816,32.043,23.843,4.906,5.933,13.363
129,0.813,36.883,14.859,31.986,23.833,4.784,5.77,13.163
130,0.81,36.99,14.793,32.014,23.826,4.783,5.768,13.202
131,0.8,36.693,14.816,32.014,23.836,4.824,5.931,13.365
132,0.797,36.825,14.793,32.024,23.843,4.987,5.933,13.447
133,0.813,36.932,14.906,32.005,23.829,4.826,5.811,13.245
134,0.816,37.038,14.868,31.995,23.822,4.824,5.769,13.243
135,0.813,36.56,14.844,32.024,23.833,4.905,5.85,13.284
136,0.823,36.718,14.836,32.014,23.843,4.906,5.932,13.365
137,0.82,36.854,14.91,31.995,23.826,4.825,5.77,13.204
138,0.826,36.941,14.837,32.004,23.826,4.783,5.809,13.121
139,0.823,36.511,14.836,32.005,23.833,4.905,5.81,13.242
140,0.833,36.65,14.918,32.005,23.84,4.947,5.972,13.284
141,0.83,36.786,14.782,32.005,23.833,4.866,5.811,13.121
142,0.836,36.874,14.847,31.985,23.833,4.784,5.728,13.039
143,0.83,36.673,14.86,32.014,23.836,4.864,5.89,12.997
144,0.81,36.815,14.899,32.024,23.84,4.987,5.933,13.078
145,0.813,36.941,14.903,32.005,23.826,4.826,5.811,13.079
146,0.807,36.99,14.802,32.005,23.829,4.824,5.728,13.038
147,0.797,36.54,14.851,32.005,23.84,4.824,5.809,13.2
148,0.803,36.679,14.864,32.024,23.84,4.946,5.932,13.365
149,0.8,36.796,14.844,31.986,23.833,4.866,5.77,13.204
150,0.803,36.855,14.828,31.995,23.833,4.784,5.728,13.121
151,0.813,36.558,14.859,32.024,23.833,4.864,5.809,13.282
152,0.81,36.718,14.872,32.053,23.847,4.946,5.932,13.406
153,0.81,36.806,14.755,31.995,23.833,4.825,5.73,13.082
154,0.813,37.181,14.828,31.985,23.822,4.743,5.687,13.038
155,0.816,36.58,14.797,32.004,23.829,4.864,5.809,13.119
156,0.829,36.737,14.926,32.052,23.847,4.987,5.891,13.242
157,0.817,36.825,14.86,32.005,23.833,4.826,5.729,13.04
158,0.813,36.49,14.856,31.976,23.819,4.783,5.687,13.038
159,0.833,36.449,14.907,32.014,23.84,4.946,5.768,13.16
160,0.852,36.611,14.724,32.014,23.84,4.825,5.728,12.958
161,0.833,36.709,14.847,31.985,23.833,4.824,5.727,12.915
162,0.823,36.374,14.867,31.995,23.833,4.865,5.768,12.955
163,0.826,36.505,14.899,32.024,23.836,4.824,5.768,12.996
164,0.813,36.641,14.833,32.014,23.833,4.824,5.809,13.037
165,0.803,36.719,14.742,31.995,23.833,4.743,5.688,12.956
166,0.8,36.374,14.839,32.004,23.833,4.905,5.768,13.078
167,0.8,36.515,14.836,32.005,23.84,4.865,5.809,13.16
168,0.794,36.65,14.848,32.005,23.833,4.824,5.891,13.202
169,0.787,36.719,14.86,31.976,23.826,4.743,5.729,13.039
170,0.787,36.394,14.856,32.014,23.84,4.864,5.727,13.119
171,0.79,36.582,14.809,32.024,23.843,4.946,5.85,13.12
172,0.784,36.689,14.844,31.995,23.833,4.825,5.891,13.12
173,0.777,36.738,14.848,32.004,23.822,4.824,5.729,13.039
174,0.803,36.384,14.821,31.995,23.836,4.824,5.809,12.997
175,0.803,36.534,14.852,32.014,23.833,4.865,5.85,13.037
176,0.81,36.689,14.809,32.014,23.836,4.865,5.81,12.956
177,0.8,36.7,14.812,31.985,23.833,4.743,5.81,12.915
178,0.803,36.249,14.82,32.004,23.829,4.742,5.81,13.037
179,0.81,36.418,14.836,32.005,23.833,4.905,5.728,12.997
180,0.81,36.534,14.863,32.005,23.833,4.865,5.768,12.996
181,0.803,36.545,14.872,31.985,23.833,4.784,5.809,12.875
182,0.803,36.363,14.817,31.995,23.836,4.864,5.81,12.833
183,0.81,36.543,14.863,31.995,23.833,4.865,5.891,13.036
184,0.797,36.641,14.883,31.995,23.836,4.865,5.811,12.916
185,0.784,36.652,14.876,31.995,23.826,4.743,5.81,12.955
186,0.79,36.306,14.848,32.004,23.833,4.783,5.81,12.915
187,0.787,36.485,14.867,31.995,23.833,4.824,5.81,12.955
188,0.777,36.593,14.852,32.004,23.829,4.824,5.81,12.956
189,0.767,36.498,14.848,32.005,23.826,4.743,5.769,12.956
190,0.774,36.42,14.864,32.014,23.833,4.742,5.728,12.915
191,0.777,36.592,14.844,32.005,23.836,4.905,5.809,12.955
192,0.771,36.68,14.926,32.005,23.833,4.865,5.769,12.956
193,0.78,36.288,14.837,31.995,23.833,4.824,5.809,12.874
194,0.784,36.332,14.77,31.995,23.833,4.783,5.728,12.833
195,0.784,36.514,14.785,32.004,23.833,4.864,5.809,12.914
196,0.78,36.593,14.836,31.995,23.84,4.784,5.728,12.874
197,0.78,36.191,14.758,31.976,23.833,4.824,5.809,12.955
198,0.793,36.331,14.796,31.995,23.833,4.783,5.728,12.915
199,0.787,36.476,14.863,31.995,23.833,4.864,5.809,12.955
200,0.8,36.554,14.817,31.995,23.833,4.784,5.85,12.874
201,0.794,36.19,14.859,31.995,23.84,4.824,5.932,12.955
202,0.8,36.34,14.84,31.985,23.833,4.783,5.852,12.833
203,0.79,36.476,14.922,32.004,23.836,4.783,5.851,12.832
204,0.79,36.554,14.876,31.995,23.84,4.864,5.973,12.873
205,0.777,36.296,14.798,31.985,23.833,4.824,5.974,13.036
206,0.774,36.447,14.851,31.995,23.833,4.702,5.893,13.038
207,0.777,36.592,14.868,31.985,23.833,4.782,5.933,13.16
208,0.764,36.642,14.856,31.995,23.829,4.783,5.892,13.283
209,0.764,36.201,14.778,31.995,23.84,4.946,5.973,13.406
210,0.764,36.331,14.894,31.976,23.836,4.825,5.852,13.326
211,0.757,36.476,14.86,31.995,23.84,4.824,5.932,13.366
212,0.754,36.535,14.844,32.043,23.833,4.824,5.933,13.488
213,0.761,36.44,14.883,31.986,23.84,4.783,5.974,13.49
214,0.77,36.592,14.86,31.985,23.833,4.742,5.933,13.367
215,0.774,36.718,14.922,31.976,23.833,4.823,5.974,13.366
216,0.79,36.748,14.802,31.976,23.836,4.905,5.974,13.447
217,0.787,36.298,14.844,31.985,23.84,4.825,6.055,13.408
218,0.78,36.447,14.879,31.976,23.829,4.743,5.975,13.407
219,0.79,36.573,14.774,31.976,23.836,4.823,5.893,13.367
220,0.784,36.795,14.812,31.976,23.836,4.824,5.973,13.407
221,0.78,36.5,14.84,32.004,23.843,4.865,6.055,13.529
222,0.793,36.612,14.86,31.976,23.829,4.743,5.975,13.286
223,0.787,36.766,14.782,31.976,23.833,4.701,5.933,13.284
224,0.787,36.48,14.867,32.033,23.836,4.823,5.974,13.447
225,0.78,36.477,14.844,32.014,23.84,4.905,6.096,13.53
226,0.764,36.612,14.91,31.976,23.829,4.784,5.935,13.449
227,0.757,36.699,14.841,31.976,23.829,4.742,5.974,13.408
228,0.761,36.432,14.832,31.976,23.833,4.823,6.055,13.529
229,0.751,36.544,14.902,32.004,23.843,4.946,6.137,13.693
230,0.744,36.679,14.794,31.966,23.829,4.785,6.016,13.492
231,0.754,36.786,14.824,31.966,23.833,4.783,5.974,13.449
232,0.744,36.375,14.828,31.985,23.836,4.864,6.137,13.448
233,0.757,36.524,14.883,31.985,23.843,4.906,6.219,13.57
234,0.761,36.631,14.876,31.976,23.833,4.784,6.098,13.327
235,0.764,36.747,14.829,31.956,23.833,4.742,6.097,13.203
236,0.767,36.461,14.891,31.985,23.836,4.864,6.219,13.283
237,0.77,36.602,14.86,32.004,23.84,4.946,6.342,13.406
238,0.777,36.747,14.872,31.985,23.833,4.744,6.181,13.204
239,0.774,36.825,14.817,31.976,23.826,4.783,6.179,13.202
240,0.777,36.462,14.879,31.985,23.833,4.824,6.261,13.202
241,0.78,36.631,14.751,31.995,23.843,4.905,6.424,13.324
242,0.78,36.757,14.82,31.976,23.829,4.825,6.263,13.081
243,0.777,36.816,14.856,31.976,23.833,4.783,6.262,13.079
244,0.771,36.5,14.852,31.976,23.84,4.824,6.302,13.16
245,0.761,36.65,14.887,31.985,23.84,4.865,6.343,13.242
246,0.757,36.767,14.809,32.033,23.829,4.824,6.262,13.202
247,0.751,36.825,14.832,31.986,23.836,4.783,6.302,13.202
248,0.757,36.471,14.84,31.985,23.833,4.864,6.302,13.324
249,0.748,36.602,14.852,31.995,23.843,4.906,6.465,13.406
250,0.754,36.728,14.871,31.985,23.833,4.744,6.264,13.245
251,0.741,36.72,14.895,31.976,23.833,4.701,6.262,13.243
252,0.734,36.461,14.848,32.004,23.84,4.863,6.262,13.243
253,0.751,36.64,14.848,32.033,23.847,4.987,6.424,13.406
254,0.761,36.738,14.879,31.976,23.826,4.785,6.304,13.285
255,0.751,36.585,14.868,31.976,23.829,4.783,6.221,13.203
256,0.774,36.517,14.856,31.966,23.836,4.824,6.424,13.283
257,0.771,36.689,14.895,32.014,23.84,4.946,6.385,13.406
258,0.757,36.796,14.841,31.985,23.833,4.785,6.263,13.204
259,0.757,36.509,14.875,31.966,23.826,4.702,6.221,13.121
260,0.774,36.602,14.813,31.985,23.833,4.863,6.302,13.201
261,0.787,36.766,14.883,32.024,23.843,4.987,6.384,13.324
262,0.767,36.816,14.872,31.966,23.829,4.785,6.181,13.162
263,0.767,39.655,14.852,31.956,23.826,4.702,6.139,13.08
264,0.77,39.885,14.813,31.994,23.84,4.823,6.219,13.363
265,0.777,40.031,14.789,32.033,23.84,5.027,6.342,13.529
266,0.751,40.022,14.836,31.986,23.833,4.785,6.181,13.368
267,0.748,34.902,14.801,31.947,23.829,4.702,6.139,13.325
268,0.757,35.042,14.816,31.994,23.836,4.904,6.26,13.528
269,0.761,35.245,14.824,32.014,23.843,4.987,6.343,13.612
270,0.741,35.305,14.871,31.976,23.833,4.785,6.181,13.45
271,0.741,36.926,14.708,31.976,23.822,4.702,6.057,13.326
272,0.741,37.125,14.839,31.985,23.84,4.782,6.219,13.447
273,0.754,37.261,14.891,32.024,23.847,4.905,6.302,13.489
274,0.754,37.272,14.899,31.986,23.833,4.784,6.14,13.245
275,0.751,36.14,14.852,31.947,23.822,4.661,6.016,13.04
276,0.764,36.33,14.797,31.994,23.833,4.863,6.178,13.2
277,0.78,36.486,14.914,32.024,23.847,4.946,6.22,13.243
278,0.761,36.506,14.825,31.966,23.829,4.744,6.098,13.04
279,0.767,36.439,14.828,31.966,23.819,4.661,6.016,12.875
280,0.79,36.602,14.93,31.985,23.84,4.822,6.137,12.995
281,0.8,36.757,14.88,32.014,23.847,4.987,6.179,13.037
282,0.777,36.749,14.86,32.014,23.833,4.744,6.017,12.875
283,0.771,36.605,14.832,31.947,23.819,4.701,6.015,12.833
284,0.767,36.785,14.891,31.985,23.84,4.823,6.137,12.873
285,0.78,36.922,14.895,32.014,23.847,4.946,6.179,12.955
286,0.754,36.75,14.817,31.985,23.829,4.744,5.976,12.874
287,0.735,36.269,14.793,31.956,23.822,4.742,6.055,12.873
288,0.747,36.437,14.832,31.985,23.836,4.864,6.056,12.995
289,0.76,36.563,14.809,31.995,23.84,4.824,6.097,13.037
290,0.748,36.469,14.797,31.976,23.822,4.743,5.975,12.916
291,0.738,36.516,14.844,31.966,23.826,4.783,6.137,12.874
292,0.751,36.679,14.867,31.995,23.84,4.864,6.098,12.914
293,0.757,36.786,14.79,32.004,23.84,4.824,6.138,12.833
294,0.757,36.289,14.754,31.976,23.826,4.743,6.057,12.792
295,0.754,36.408,14.8,31.985,23.84,4.783,6.137,12.791
296,0.764,36.582,14.89,32.004,23.836,4.824,6.138,12.873
297,0.777,36.651,14.766,31.966,23.836,4.783,6.179,12.833
298,0.774,36.259,14.808,31.975,23.829,4.742,6.057,12.751
299,0.774,36.408,14.879,31.976,23.829,4.783,6.097,12.75
300,0.78,36.553,14.813,31.985,23.836,4.864,6.138,12.75
301,0.771,36.622,14.848,31.985,23.84,4.824,6.098,12.709
302,0.761,36.182,14.867,31.966,23.826,4.702,6.056,12.709
303,0.767,36.35,14.922,31.975,23.829,4.782,6.137,12.75
304,0.77,36.495,14.872,31.985,23.84,4.905,6.179,12.872
305,0.761,36.564,14.856,31.976,23.84,4.744,6.179,12.914
306,0.751,36.277,14.848,31.985,23.829,4.783,6.098,12.915
307,0.754,36.427,14.938,31.976,23.826,4.824,6.138,12.996
308,0.754,36.602,14.767,32.004,23.836,4.865,6.138,13.119
309,0.751,36.632,14.839,31.976,23.84,4.824,6.138,13.039
310,0.744,36.287,14.899,31.985,23.826,4.783,6.098,13.078
311,0.741,36.437,14.778,31.966,23.833,4.824,6.097,13.038
312,0.754,36.592,14.816,32.004,23.84,4.865,6.097,13.078
313,0.757,36.613,14.832,31.976,23.84,4.865,6.138,12.997
314,0.754,36.268,14.867,31.966,23.826,4.824,6.138,12.956
315,0.754,36.437,14.903,31.966,23.833,4.743,6.138,12.956
316,0.764,36.573,14.833,31.985,23.833,4.864,6.138,12.956
317,0.767,36.785,14.848,31.976,23.833,4.865,6.057,12.915
318,0.774,36.241,14.836,31.976,23.833,4.824,6.137,12.874
319,0.777,36.398,14.852,31.985,23.829,4.702,6.057,12.833
320,0.784,36.525,14.887,31.985,23.833,4.863,6.056,12.832
321,0.784,36.219,14.86,31.985,23.833,4.824,6.015,12.832
322,0.771,36.149,14.786,31.976,23.829,4.783,6.178,12.792
323,0.767,36.311,14.785,31.976,23.836,4.783,6.017,12.751
324,0.761,36.437,14.843,31.976,23.836,4.824,6.137,12.75
325,0.757,36.141,14.879,31.985,23.836,4.783,6.098,12.791
326,0.748,36.215,14.903,31.966,23.833,4.824,6.016,12.873
327,0.751,36.379,14.813,31.966,23.833,4.824,6.056,12.914
328,0.761,36.496,14.898,31.985,23.836,4.824,6.015,12.915
329,0.748,36.104,14.868,31.966,23.833,4.865,5.974,12.874
330,0.741,36.253,14.848,31.985,23.829,4.784,6.055,12.914
331,0.744,36.398,14.856,31.976,23.833,4.824,6.015,12.833
332,0.747,36.486,14.891,31.985,23.836,4.865,6.056,12.873
333,0.747,36.065,14.844,31.956,23.84,4.824,5.975,12.792
334,0.76,36.205,14.758,31.975,23.833,4.865,6.015,12.751
335,0.757,36.35,14.855,31.966,23.833,4.784,6.056,12.628
336,0.774,36.447,14.789,31.985,23.829,4.864,5.975,12.627
337,0.761,36.046,14.797,31.966,23.833,4.824,6.015,12.586
338,0.767,36.214,14.851,31.985,23.84,4.865,6.015,12.627
339,0.77,36.35,14.844,31.976,23.833,4.824,5.934,12.505
340,0.777,36.409,14.852,31.976,23.84,4.905,5.933,12.463
341,0.784,35.94,14.84,31.966,23.84,4.784,5.974,12.422
342,0.784,36.079,14.875,31.966,23.833,4.824,5.974,12.422
343,0.774,36.215,14.864,31.947,23.836,4.865,5.893,12.422
344,0.771,36.283,14.903,31.975,23.833,4.865,5.973,12.381
345,0.761,35.977,14.841,31.985,23.836,4.906,5.974,12.381
346,0.754,36.118,14.821,31.966,23.829,4.825,6.015,12.381
347,0.761,36.263,14.887,31.956,23.84,4.783,5.974,12.34
348,0.764,36.283,14.817,31.985,23.84,4.864,6.055,12.38
349,0.748,36.063,14.852,31.976,23.84,4.784,6.015,12.503
350,0.747,36.195,14.875,31.976,23.833,4.783,6.096,12.463
351,0.754,36.331,14.868,31.976,23.833,4.824,6.056,12.503
352,0.725,36.227,14.809,31.976,23.833,4.783,6.015,12.382
353,0.747,36.034,14.848,31.976,23.84,4.824,6.015,12.381
354,0.747,36.176,14.922,31.995,23.833,4.824,6.015,12.381
355,0.751,36.283,14.903,31.976,23.829,4.783,6.015,12.258
356,0.77,36.034,14.821,31.966,23.833,4.783,5.974,12.257
357,0.77,36.099,14.816,31.985,23.84,4.864,6.015,12.339
358,0.78,36.205,14.852,31.985,23.84,4.987,6.096,12.38
359,0.771,36.34,14.743,31.976,23.826,4.785,5.935,12.299
360,0.777,35.786,14.831,31.956,23.829,4.783,5.974,12.176
361,0.78,35.905,14.844,31.966,23.836,4.824,6.015,12.256
362,0.793,36.04,14.84,31.966,23.836,4.946,6.096,12.42
363,0.784,36.118,14.821,31.966,23.833,4.785,6.016,12.3
364,0.774,35.841,14.82,31.956,23.829,4.783,5.974,12.298
365,0.774,36.001,14.852,31.966,23.84,4.824,5.974,12.461
366,0.761,36.137,14.891,31.985,23.833,4.905,6.055,12.666
367,0.738,36.215,14.825,31.956,23.833,4.865,5.975,12.587
368,0.747,35.631,14.82,31.975,23.836,4.743,5.933,12.586
369,0.734,35.759,14.906,31.956,23.84,4.905,5.974,12.789
370,0.738,35.924,14.845,31.966,23.84,4.865,6.055,12.954
371,0.738,35.992,14.852,31.966,23.829,4.824,5.934,12.793
372,0.741,35.878,14.887,31.966,23.826,4.824,5.852,12.832
373,0.747,36.04,14.919,31.956,23.836,4.824,5.973,12.873
374,0.764,36.166,14.915,31.975,23.843,4.905,6.096,12.955
375,0.751,36.225,14.821,31.956,23.833,4.825,5.853,12.793
376,0.761,35.717,14.852,31.966,23.826,4.824,5.851,12.751
377,0.774,35.866,14.848,31.966,23.84,4.865,5.973,12.953
378,0.78,36.011,14.836,31.975,23.836,4.946,6.096,13.118
379,0.777,36.022,14.817,31.956,23.829,4.785,5.894,12.917
380,0.78,35.811,14.875,31.956,23.833,4.824,5.851,12.874
381,0.78,35.953,14.809,31.966,23.836,4.865,5.973,12.914
382,0.787,36.098,14.82,31.985,23.843,4.987,6.015,13.077
383,0.777,36.445,14.859,31.956,23.829,4.826,5.893,12.876
384,0.771,35.777,14.868,31.947,23.822,4.783,5.892,12.873
385,0.774,35.943,14.891,31.966,23.836,4.946,5.892,13.036
386,0.761,36.079,14.844,31.995,23.84,4.988,6.014,13.16
387,0.757,35.793,14.797,31.937,23.833,4.785,5.934,13.039
388,0.744,35.78,14.847,31.937,23.833,4.824,5.852,12.997
389,0.741,35.972,14.809,31.966,23.833,4.905,5.932,13.2
390,0.747,36.089,14.863,31.985,23.843,4.987,6.055,13.324
391,0.734,35.668,14.887,31.956,23.84,4.866,5.812,13.162
392,0.747,35.74,14.844,31.975,23.826,4.824,5.85,13.202
393,0.751,35.923,14.719,31.976,23.84,4.905,5.932,13.202
394,0.764,36.021,14.866,31.995,23.84,4.987,6.014,13.283
395,0.751,35.504,14.86,31.957,23.833,4.866,5.852,13.04
396,0.761,35.633,14.926,31.937,23.833,4.784,5.769,13.038
397,0.774,35.769,14.884,31.966,23.836,4.864,5.891,13.078
398,0.774,35.895,14.891,31.995,23.84,5.028,5.892,13.201
399,0.774,35.762,14.884,31.947,23.833,4.867,5.729,12.958
400,0.764,35.914,14.801,31.946,23.829,4.865,5.727,12.793
401,0.767,36.05,14.847,31.966,23.84,4.946,5.809,12.832
402,0.783,36.128,14.867,31.975,23.84,5.069,6.013,13.036
403,0.774,35.477,14.813,31.956,23.836,4.826,5.852,12.834
404,0.774,35.643,14.777,31.947,23.826,4.824,5.81,12.751
405,0.764,35.788,14.816,32.004,23.833,4.946,5.932,12.913
406,0.774,35.857,14.859,31.985,23.84,4.988,6.014,13.077
407,0.771,35.57,14.836,31.956,23.833,4.988,5.852,12.957
408,0.77,35.749,14.848,31.947,23.829,4.907,5.973,12.915
409,0.774,35.885,14.883,31.966,23.836,4.906,5.974,13.037
410,0.774,35.925,14.876,31.975,23.843,5.028,6.096,13.119
411,0.748,35.542,14.833,31.956,23.829,4.867,5.975,12.835
412,0.777,35.72,14.813,31.947,23.833,4.865,5.893,12.873
413,0.774,35.837,14.836,31.966,23.829,4.824,6.054,12.873
414,0.787,35.876,14.86,31.966,23.84,4.987,6.137,13.036
415,0.79,35.589,14.84,31.947,23.826,4.907,5.976,12.794
416,0.806,35.749,14.852,31.966,23.826,4.825,5.974,12.791
417,0.826,35.866,14.868,31.966,23.84,4.865,6.137,12.913
418,0.833,36.356,14.856,31.966,23.84,5.028,6.138,12.955
419,0.836,36.572,14.836,31.966,23.826,4.867,6.057,12.793
420,0.852,36.728,14.867,31.937,23.833,4.784,5.975,12.71
421,0.866,36.835,14.872,31.966,23.836,4.946,6.137,12.831
422,0.869,35.1,14.872,31.985,23.85,4.947,6.138,12.914
423,0.856,34.948,14.848,31.966,23.833,4.825,6.057,12.833
424,0.862,35.12,14.84,31.947,23.826,4.865,5.975,12.751
425,0.859,35.217,14.848,31.956,23.84,4.946,6.096,12.831
426,0.859,35.525,14.813,31.985,23.84,4.988,6.178,13.117
427,0.853,35.653,14.793,31.947,23.833,4.826,6.017,12.957
428,0.859,35.807,14.89,31.937,23.826,4.824,5.974,12.915
429,0.859,35.905,14.763,31.956,23.84,4.905,6.055,13.037
430,0.846,35.302,14.847,32.004,23.847,4.987,6.178,13.119
431,0.833,35.401,14.832,31.957,23.833,4.866,6.098,12.998
432,0.836,35.537,14.875,31.947,23.826,4.824,5.935,12.875
433,0.836,35.634,14.821,31.966,23.84,4.905,6.096,12.955
434,0.859,35.405,14.777,31.985,23.843,4.987,6.178,13.037
435,0.853,35.527,14.839,31.937,23.826,4.866,6.017,12.875
436,0.846,35.653,14.844,31.937,23.826,4.824,5.893,12.792
437,0.849,35.731,14.828,31.975,23.84,4.946,6.054,12.913
438,0.859,35.358,14.828,31.995,23.847,5.069,6.137,12.996
439,0.846,35.459,14.875,31.947,23.826,4.826,5.976,12.793
440,0.859,35.595,14.809,31.937,23.826,4.702,5.893,12.71
441,0.862,35.673,14.84,31.946,23.84,4.863,6.014,12.872
442,0.872,35.549,14.883,31.985,23.847,4.987,6.137,12.955
443,0.853,35.672,14.899,31.937,23.833,4.907,5.935,12.793
444,0.84,35.789,14.899,31.937,23.822,4.784,5.892,12.751
445,0.856,35.838,14.809,31.966,23.843,4.905,6.054,12.953
446,0.856,35.339,14.875,31.975,23.85,4.987,6.178,13.159
447,0.833,35.449,14.833,31.947,23.829,4.866,5.976,12.917
448,0.83,35.575,14.77,31.937,23.826,4.784,5.852,12.874
449,0.83,35.826,14.828,31.966,23.843,4.905,6.013,13.077
450,0.823,35.483,14.879,31.995,23.843,5.069,6.056,13.201
451,0.81,35.585,14.833,31.957,23.829,4.826,5.975,12.999
452,0.8,35.721,14.754,31.966,23.826,4.783,5.852,12.875
453,0.8,35.453,14.847,31.966,23.833,4.986,5.973,12.914
454,0.826,35.479,14.828,31.975,23.84,5.07,6.096,13.037
455,0.804,35.604,14.867,31.947,23.833,4.786,5.853,12.875
456,0.816,35.692,14.844,31.946,23.822,4.864,5.769,12.711
457,0.82,35.328,14.821,31.966,23.84,4.946,5.972,12.872
458,0.846,35.459,14.898,31.995,23.854,5.029,5.974,12.995
459,0.84,35.575,14.837,31.947,23.826,4.867,5.893,12.712
460,0.823,35.663,14.848,31.946,23.819,4.743,5.892,12.668
461,0.843,35.462,14.883,31.956,23.843,4.905,5.892,12.709
462,0.859,35.623,14.848,31.966,23.843,5.028,6.014,12.668
463,0.836,35.73,14.743,31.966,23.826,4.826,5.934,12.587
464,0.813,35.799,14.82,31.937,23.826,4.783,5.811,12.545
465,0.833,35.176,14.871,31.966,23.829,4.946,5.932,12.707
466,0.833,35.362,14.954,31.995,23.84,4.988,5.974,12.79
467,0.81,35.469,14.845,31.966,23.826,4.826,5.852,12.71
468,0.803,35.508,14.848,31.947,23.829,4.865,5.81,12.872
469,0.813,35.336,14.871,31.956,23.84,4.987,5.891,12.914
470,0.813,35.507,14.84,32.052,23.84,4.948,5.892,12.915
471,0.8,35.614,14.801,31.957,23.829,4.947,5.811,12.833
472,0.79,35.673,14.902,31.937,23.829,4.907,5.891,12.873
473,0.81,35.299,14.884,31.966,23.84,4.906,5.892,12.873
474,0.813,35.449,14.813,31.975,23.836,4.906,5.973,12.833
475,0.79,35.556,14.816,31.947,23.829,4.906,5.811,12.792
476,0.803,35.624,14.793,31.956,23.843,4.865,5.85,12.791
477,0.807,35.309,14.82,31.966,23.836,4.987,5.932,12.913
478,0.826,35.449,14.82,31.966,23.836,4.907,5.852,12.833
479,0.8,35.566,14.848,31.947,23.822,4.865,5.729,12.751
480,0.803,35.577,14.821,31.966,23.84,4.865,5.809,12.709
481,0.813,35.308,14.797,32.004,23.84,4.865,5.891,12.709
482,0.813,35.44,14.824,31.966,23.833,4.906,5.851,12.709
483,0.794,35.566,14.859,31.956,23.829,4.865,5.769,12.668
484,0.78,35.337,14.914,31.947,23.833,4.865,5.85,12.709
485,0.78,35.248,14.864,31.975,23.836,4.987,5.851,12.79
486,0.78,35.372,14.848,31.956,23.836,4.907,5.769,12.832
487,0.764,35.498,14.903,31.947,23.826,4.825,5.768,12.792
488,0.767,35.355,14.837,31.956,23.829,4.865,5.768,12.873
489,0.777,35.459,14.86,31.975,23.843,4.987,5.85,12.914
490,0.754,35.604,14.887,31.966,23.833,4.907,5.81,12.874
491,0.741,35.692,14.891,31.975,23.829,4.825,5.688,12.792
492,0.741,35.098,14.778,31.966,23.833,4.865,5.768,12.791
493,0.747,35.217,14.812,31.966,23.84,4.865,5.809,12.751
494,0.747,35.352,14.859,31.966,23.833,4.946,5.81,12.669
495,0.744,35.44,14.872,31.947,23.833,4.866,5.85,12.587
496,0.751,35.259,14.844,31.946,23.829,4.824,5.769,12.667
497,0.761,35.449,14.836,31.975,23.84,4.946,5.809,12.627
498,0.764,35.556,14.883,31.966,23.833,4.947,5.769,12.627
499,0.761,35.624,14.786,31.947,23.829,4.825,5.809,12.586
500,0.757,35.078,14.851,31.937,23.833,4.824,5.81,12.505
501,0.767,35.265,14.883,31.966,23.836,4.905,5.85,12.504
502,0.767,35.382,14.895,31.966,23.829,4.906,5.81,12.463
503,0.748,35.45,14.841,31.966,23.836,4.906,5.769,12.463
504,0.738,35.211,14.707,31.966,23.833,4.865,5.768,12.544
505,0.754,35.372,14.796,31.966,23.836,4.865,5.768,12.586
506,0.744,35.517,14.777,31.956,23.826,4.824,5.809,12.749
507,0.734,35.538,14.816,31.937,23.836,4.905,5.85,12.75
508,0.715,35.154,14.828,31.956,23.833,4.825,5.769,12.709
509,0.711,35.313,14.887,31.966,23.829,4.905,5.768,12.831
510,0.705,35.449,14.844,31.966,23.84,4.865,5.768,12.792
511,0.708,35.47,14.879,31.966,23.833,4.824,5.85,12.873
512,0.705,35.288,14.876,31.966,23.833,4.865,5.729,12.792
513,0.711,35.43,14.907,31.956,23.833,4.824,5.809,12.71
514,0.715,35.546,14.895,31.966,23.833,4.865,5.81,12.709
515,0.715,35.548,14.817,31.966,23.84,4.865,5.891,12.75
516,0.721,35.26,14.801,31.937,23.833,4.906,5.811,12.669
517,0.724,35.41,14.844,31.966,23.843,4.947,5.81,12.709
518,0.728,35.565,14.84,31.975,23.833,4.907,5.769,12.79
519,0.728,35.212,14.805,31.947,23.833,4.865,5.891,12.751
520,0.734,35.218,14.863,31.946,23.84,4.865,5.729,12.669
521,0.744,35.372,14.844,31.966,23.836,4.946,5.809,12.668
522,0.741,35.488,14.856,31.947,23.833,4.866,5.769,12.668
523,0.721,35.058,14.883,31.966,23.84,4.824,5.85,12.709
524,0.724,35.169,14.841,31.966,23.836,4.865,5.81,12.709
525,0.721,35.323,14.895,31.956,23.833,4.824,5.769,12.79
526,0.698,35.421,14.825,31.975,23.836,4.865,5.809,12.913
527,0.711,35.172,14.844,31.947,23.84,4.865,5.85,12.996
528,0.708,35.314,14.867,31.956,23.836,4.784,5.769,12.875
529,0.711,35.469,14.821,31.956,23.829,4.905,5.809,13.036
530,0.711,35.566,14.863,31.966,23.836,4.865,5.769,13.119
531,0.715,35.778,14.856,31.956,23.833,4.906,5.768,13.079
532,0.721,35.905,14.852,31.966,23.826,4.906,5.809,12.957
533,0.721,36.069,14.821,31.975,23.833,4.865,5.728,12.996
534,0.718,36.128,14.867,31.947,23.829,4.865,5.768,13.037
535,0.724,34.623,14.899,31.975,23.829,4.906,5.809,13.119
536,0.731,34.771,14.899,31.966,23.826,4.865,5.769,13.039
537,0.734,34.897,14.872,31.966,23.833,4.946,5.687,12.956
538,0.734,34.985,14.852,31.956,23.833,4.907,5.768,12.996
539,0.744,35.302,14.875,31.956,23.84,4.906,5.768,13.119
540,0.744,35.459,14.848,31.947,23.833,4.784,5.687,12.998
541,0.757,35.585,14.825,31.946,23.833,4.905,5.687,12.996
542,0.748,35.634,14.891,31.946,23.84,4.865,5.727,13.037
543,0.728,34.906,14.817,31.946,23.84,4.906,5.727,13.119
544,0.721,35.062,14.773,31.946,23.833,4.906,5.727,13.039
545,0.724,35.207,14.804,31.985,23.836,4.906,5.687,13.16
546,0.715,35.304,14.848,31.966,23.829,4.906,5.768,13.202
547,0.728,35.19,14.871,31.947,23.833,4.906,5.728,13.161
548,0.721,35.333,14.829,31.946,23.829,4.906,5.687,13.242
549,0.728,35.497,14.863,31.946,23.836,4.906,5.646,13.243
550,0.712,35.231,14.852,31.946,23.833,4.906,5.686,13.243
551,0.715,35.18,14.848,31.994,23.843,4.987,5.727,13.365
552,0.715,35.295,14.817,31.947,23.833,4.907,5.687,13.122
553,0.711,35.411,14.867,31.956,23.829,4.865,5.646,13.079
554,0.724,35.038,14.86,31.956,23.833,4.946,5.686,13.038
555,0.724,35.101,14.911,31.956,23.836,5.029,5.809,13.2
556,0.728,35.246,14.86,31.947,23.829,4.948,5.606,13.039
557,0.731,35.372,14.899,31.966,23.833,4.825,5.564,13.038
558,0.744,35.047,14.872,31.966,23.833,4.987,5.726,13.16
559,0.751,35.207,14.833,31.975,23.843,5.029,5.768,13.202
560,0.757,35.314,14.883,31.947,23.829,4.907,5.687,13.039
561,0.774,35.401,14.844,31.937,23.826,4.825,5.524,12.916
562,0.784,34.971,14.875,31.966,23.833,4.946,5.685,13.077
563,0.79,35.139,14.883,31.975,23.84,4.988,5.727,13.16
564,0.806,35.246,14.883,31.937,23.833,4.907,5.605,12.998
565,0.833,35.343,14.895,31.937,23.833,4.865,5.604,13.037
566,0.872,35.114,14.79,31.946,23.836,4.987,5.645,13.119
567,0.892,35.284,14.843,31.985,23.84,4.948,5.808,13.364
568,0.902,35.401,14.84,31.947,23.833,4.907,5.606,13.244
569,0.931,35.469,14.782,31.937,23.829,4.865,5.564,13.121
570,0.961,35.039,14.797,31.946,23.84,4.946,5.685,13.242
571,0.974,35.216,14.875,31.975,23.843,4.988,5.809,13.365
572,0.99,35.324,14.876,31.937,23.833,4.907,5.606,13.122
573,1.004,35.373,14.77,31.927,23.822,4.865,5.482,13.039
574,1.03,35.086,14.867,31.994,23.833,4.946,5.644,13.119
575,1.033,35.246,14.829,31.966,23.847,5.11,5.727,13.201
576,1.027,35.334,14.856,31.966,23.826,4.908,5.565,12.958
577,1.056,35.373,14.836,31.956,23.826,4.784,5.563,12.915
578,1.069,35.354,14.828,31.956,23.836,4.946,5.645,13.037
579,1.095,35.526,14.91,31.975,23.847,4.988,5.686,13.2
580,1.102,35.624,14.786,31.956,23.829,4.866,5.564,13.039
581,1.135,35.337,14.851,31.927,23.822,4.824,5.482,12.956
582,1.158,34.932,14.856,31.946,23.84,4.905,5.603,13.078
583,1.148,35.1,14.914,31.975,23.84,5.069,5.686,13.201
584,1.135,35.188,14.817,31.937,23.833,4.867,5.564,12.958
585,1.155,35.036,14.746,31.927,23.829,4.824,5.482,12.915
586,1.168,35.159,14.824,31.937,23.836,4.905,5.644,13.24
587,1.207,35.304,14.859,31.975,23.843,5.028,5.767,13.487
588,1.224,35.401,14.844,31.947,23.826,4.785,5.565,13.367
589,1.247,34.942,14.805,31.937,23.826,4.864,5.482,13.366
590,1.25,35.043,14.89,31.946,23.833,4.946,5.603,13.447
591,1.273,35.216,14.821,31.994,23.847,4.988,5.726,13.57
592,1.25,35.314,14.84,31.937,23.84,4.907,5.565,13.368
593,1.279,34.932,14.863,31.927,23.822,4.825,5.523,13.285
594,1.273,35.1,14.852,31.956,23.833,4.987,5.644,13.365
595,1.234,35.275,14.868,31.975,23.84,5.029,5.727,13.529
596,1.182,35.334,14.836,31.947,23.833,4.785,5.565,13.246
597,1.097,34.922,14.801,31.927,23.826,4.742,5.441,13.243
598,1.044,35.1,14.797,31.946,23.833,4.905,5.603,13.365
599,0.994,35.275,14.863,31.994,23.843,5.069,5.686,13.366
600,0.896,35.305,14.895,31.937,23.826,4.826,5.564,13.163
601,0.808,34.96,14.891,31.918,23.826,4.702,5.482,13.161
602,0.729,35.148,14.833,31.946,23.833,4.945,5.603,13.486
603,0.591,35.323,14.871,31.975,23.847,4.988,5.686,13.774
604,0.414,35.354,14.86,31.928,23.833,4.826,5.564,13.818
605,0.299,35.037,14.84,31.908,23.826,4.824,5.401,13.981
606,0.2,35.216,14.879,31.946,23.84,4.905,5.562,14.226
607,0.124,35.381,14.848,31.985,23.847,5.028,5.685,14.554
608,0.045,35.383,14.813,31.937,23.833,4.907,5.524,14.679
609,-0.014,34.855,14.832,31.918,23.819,4.784,5.482,14.924
610,-0.093,35.052,14.824,31.965,23.836,4.905,5.603,15.374
611,-0.152,35.207,14.848,31.966,23.847,5.069,5.767,15.663
612,-0.228,35.582,14.891,31.937,23.833,4.786,5.565,15.829
613,-0.274,35.049,14.868,31.927,23.822,4.742,5.401,15.83
614,-0.317,35.236,14.825,31.937,23.836,4.905,5.562,16.033
615,-0.35,35.372,14.867,31.975,23.847,4.987,5.766,16.239
616,-0.389,35.018,14.817,31.928,23.826,4.866,5.525,16.119
617,-0.422,34.938,14.789,31.908,23.822,4.743,5.482,16.118
618,-0.432,35.148,14.836,31.946,23.836,4.864,5.562,16.24
619,-0.461,35.265,14.86,31.966,23.847,4.987,5.726,16.241
620,-0.494,35.9,14.844,31.928,23.833,4.826,5.605,15.956
621,-0.507,36.05,14.825,31.918,23.822,4.783,5.482,15.75
622,-0.462,36.214,14.848,31.927,23.836,4.905,5.644,15.748
623,-0.429,36.312,14.891,31.965,23.847,5.028,5.767,15.748
624,-0.406,34.443,14.895,31.928,23.829,4.907,5.606,15.585
625,-0.37,34.529,14.887,31.918,23.822,4.744,5.564,15.584
626,-0.305,34.703,14.802,31.965,23.833,4.986,5.685,15.828
627,-0.229,34.858,14.894,31.937,23.84,4.988,5.727,16.033
628,-0.173,34.937,14.798,31.918,23.826,4.826,5.565,15.954
629,-0.13,35.081,14.832,31.908,23.826,4.865,5.604,16.116
630,-0.052,35.265,14.91,31.927,23.836,4.906,5.726,16.321
631,0.027,35.353,14.849,31.965,23.84,4.947,5.727,16.445
632,0.08,34.817,14.836,31.908,23.829,4.947,5.565,16.528
633,0.142,34.965,14.778,31.917,23.826,4.907,5.685,16.813
634,0.228,35.129,14.867,31.927,23.84,4.906,5.687,16.897
635,0.293,35.179,14.887,31.937,23.833,4.906,5.646,16.979
636,0.336,34.853,14.841,31.918,23.833,4.906,5.645,16.98
637,0.382,35.023,14.848,31.937,23.833,4.865,5.727,17.143
638,0.435,35.168,14.86,31.937,23.843,4.946,5.727,17.185
639,0.471,35.218,14.829,31.927,23.833,4.907,5.646,17.145
640,0.504,35.928,14.828,31.908,23.829,4.865,5.564,16.982
641,0.56,36.098,14.895,31.917,23.836,4.946,5.645,16.858
642,0.602,36.215,14.778,31.937,23.843,5.029,5.727,16.857
643,0.616,36.245,14.824,31.918,23.833,4.907,5.687,16.694
644,0.623,34.49,14.817,31.908,23.826,4.784,5.605,16.53
645,0.652,34.655,14.836,31.908,23.833,4.905,5.686,16.447
646,0.672,34.791,14.914,31.937,23.836,4.947,5.768,16.324
647,0.688,34.936,14.856,31.946,23.836,4.907,5.687,16.242
648,0.682,35.014,14.879,31.908,23.829,4.906,5.605,16.078
649,0.701,35.159,14.86,31.937,23.833,4.906,5.564,15.995
650,0.721,35.304,14.891,31.956,23.84,4.987,5.807,15.913
651,0.721,34.759,14.868,31.937,23.836,4.948,5.647,15.709
652,0.731,34.772,14.872,31.908,23.836,4.907,5.645,15.585
653,0.738,34.926,14.895,31.908,23.836,4.906,5.605,15.299
654,0.767,35.033,14.805,31.927,23.84,4.947,5.686,15.256
655,0.777,34.852,14.851,31.937,23.833,4.907,5.646,15.174
656,0.78,34.975,14.832,31.908,23.833,4.865,5.605,15.173
657,0.797,35.091,14.867,31.917,23.829,4.865,5.604,15.051
658,0.813,35.236,14.848,31.937,23.836,4.987,5.686,15.05
659,0.816,34.854,14.828,31.927,23.833,4.907,5.646,15.009
660,0.829,34.994,14.856,31.937,23.84,4.906,5.686,14.846
661,0.836,35.149,14.719,31.937,23.833,4.865,5.646,14.763
662,0.843,35.246,14.812,31.937,23.833,4.946,5.686,14.722
663,0.839,34.96,14.844,31.937,23.833,4.988,5.605,14.762
664,0.843,35.081,14.86,31.927,23.836,4.866,5.645,14.722
665,0.843,35.236,14.864,31.918,23.833,4.906,5.605,14.64
666,0.839,35.343,14.864,31.956,23.829,4.906,5.645,14.68
667,0.843,35.248,14.891,31.908,23.84,4.906,5.645,14.721
668,0.839,35.381,14.794,31.927,23.833,4.825,5.645,14.599
669,0.843,35.527,14.855,31.918,23.833,4.905,5.645,14.558
670,0.846,35.605,14.899,31.946,23.84,4.865,5.605,14.516
671,0.856,34.589,14.848,31.937,23.84,4.906,5.645,14.435
672,0.846,34.723,14.793,31.927,23.833,4.906,5.564,14.353
673,0.856,34.878,14.832,31.946,23.829,4.865,5.563,14.311
674,0.866,34.918,14.875,31.946,23.833,4.946,5.645,14.27
675,0.872,34.966,14.879,31.946,23.833,4.866,5.645,14.188
676,0.869,35.101,14.805,31.946,23.836,4.865,5.645,14.188
677,0.879,35.236,14.832,31.946,23.833,4.824,5.645,14.106
678,0.895,35.497,14.887,31.946,23.84,4.905,5.645,14.187
679,0.892,34.751,14.852,31.956,23.84,4.947,5.645,14.106
680,0.899,34.878,14.86,31.927,23.836,4.907,5.686,14.105
681,0.902,35.023,14.903,31.927,23.836,4.947,5.605,13.983
682,0.905,34.938,14.856,31.937,23.84,4.907,5.645,13.982
683,0.895,34.995,14.754,31.946,23.833,4.906,5.645,13.982
684,0.889,35.101,14.812,31.927,23.829,4.865,5.645,13.942
685,0.885,35.236,14.859,31.937,23.829,4.906,5.605,14.022
686,0.885,34.72,14.868,31.937,23.84,4.947,5.686,14.023
687,0.872,34.81,14.813,31.927,23.833,4.907,5.687,14.064
688,0.879,34.955,14.852,31.946,23.833,4.865,5.687,14.064
689,0.882,35.062,14.856,31.937,23.829,4.824,5.646,14.024
690,0.889,34.91,14.848,32.023,23.836,4.987,5.727,14.105
691,0.889,35.033,14.848,31.957,23.833,4.907,5.687,14.065
692,0.882,35.159,14.891,31.927,23.833,4.947,5.687,13.983
693,0.895,35.275,14.884,31.946,23.826,4.866,5.646,13.942
694,0.918,34.691,14.837,31.937,23.836,4.865,5.727,13.941
695,0.905,34.839,14.852,31.937,23.829,4.946,5.687,13.9
696,0.918,34.965,14.793,31.927,23.833,4.866,5.727,13.859
697,0.922,35.034,14.851,31.937,23.833,4.865,5.605,13.859
698,0.922,34.794,14.848,31.966,23.836,4.946,5.686,13.859
699,0.925,34.945,14.852,31.947,23.829,4.825,5.687,13.778
700,0.928,35.043,14.86,31.927,23.836,4.824,5.646,13.696
701,0.925,35.13,14.754,31.946,23.829,4.824,5.686,13.695
702,0.938,34.776,14.843,31.918,23.833,4.946,5.646,13.573
703,0.915,34.945,14.844,31.937,23.836,4.866,5.645,13.612
704,0.918,35.052,14.922,31.927,23.833,4.906,5.686,13.613
705,0.931,35.111,14.86,31.927,23.833,4.825,5.687,13.531
706,0.909,34.776,14.813,31.956,23.84,4.905,5.687,13.571
707,0.915,34.926,14.902,31.937,23.833,4.906,5.605,13.571
708,0.915,35.043,14.782,31.937,23.833,4.865,5.686,13.612
709,0.915,35.082,14.839,31.937,23.826,4.824,5.646,13.572
710,0.931,34.766,14.86,31.946,23.84,4.865,5.605,13.571
711,0.925,34.916,14.875,31.937,23.833,4.865,5.686,13.612
712,0.912,35.014,14.786,31.946,23.833,4.865,5.646,13.531
713,0.922,34.881,14.812,31.927,23.833,4.824,5.645,13.408
714,0.948,34.774,14.871,31.946,23.836,4.824,5.645,13.407
715,0.941,34.907,14.872,31.946,23.836,4.824,5.605,13.407
716,0.945,35.004,14.852,31.927,23.826,4.865,5.564,13.367
717,0.961,34.698,14.848,31.927,23.829,4.906,5.604,13.366
718,0.958,34.772,14.926,31.946,23.843,4.865,5.645,13.366
719,0.964,34.936,14.806,31.927,23.836,4.946,5.686,13.285
720,0.971,35.033,14.832,31.937,23.836,4.907,5.605,13.284
721,0.971,34.622,14.906,31.937,23.829,4.825,5.604,13.203
722,0.984,34.762,14.868,31.946,23.836,4.905,5.686,13.161
723,0.968,34.897,14.797,31.927,23.833,4.865,5.605,13.202
724,0.958,34.994,14.808,31.946,23.84,4.906,5.645,13.202
725,0.974,34.689,14.836,31.918,23.836,4.906,5.523,13.121
726,0.977,34.839,14.809,31.908,23.833,4.947,5.603,13.16
727,0.977,34.965,14.82,31.946,23.84,4.907,5.604,13.202
728,0.964,35.072,14.844,31.946,23.836,4.906,5.645,13.365
729,0.968,35.754,14.867,31.908,23.833,4.865,5.605,13.163
730,0.974,35.924,14.829,31.937,23.833,4.865,5.604,13.161
731,0.971,36.06,14.817,31.937,23.84,4.865,5.604,13.08
732,0.977,36.118,14.836,31.946,23.836,4.946,5.645,13.16
733,0.981,34.019,14.828,31.927,23.829,4.907,5.564,12.998
734,0.994,34.18,14.859,31.946,23.833,4.906,5.604,12.956
735,1.0,34.335,14.797,31.937,23.833,4.947,5.686,12.956
736,1.01,34.394,14.805,31.937,23.84,4.947,5.687,13.037
737,1.014,34.769,14.898,31.927,23.836,4.907,5.564,12.956
738,1.023,34.974,14.845,31.946,23.833,4.865,5.604,12.874
739,1.02,35.091,14.836,31.937,23.84,4.946,5.726,12.873
740,1.033,35.14,14.887,31.946,23.836,4.988,5.768,12.914
741,1.037,34.374,14.821,31.927,23.836,4.866,5.647,12.711
742,1.053,34.538,14.895,31.927,23.829,4.824,5.564,12.79
743,1.04,34.674,14.86,31.946,23.829,4.905,5.685,12.873
744,1.046,34.906,14.875,31.927,23.843,4.947,5.687,13.077
745,1.043,34.669,14.872,31.927,23.833,4.866,5.646,13.038
746,1.043,34.839,14.899,31.927,23.833,4.824,5.686,12.997
747,1.037,34.975,14.895,31.946,23.836,4.946,5.768,13.2
748,1.05,34.621,14.876,31.927,23.843,4.988,5.768,13.324
749,1.043,34.646,14.868,31.918,23.833,4.866,5.687,13.162
750,1.05,34.81,14.852,31.917,23.826,4.824,5.687,13.161
751,1.05,34.907,14.899,31.937,23.836,4.946,5.849,13.242
752,1.063,34.515,14.825,31.966,23.85,5.069,5.851,13.202
753,1.06,34.617,14.797,31.937,23.836,4.867,5.688,12.958
754,1.056,34.742,14.781,31.918,23.822,4.784,5.646,12.915
755,1.076,34.868,14.816,31.937,23.836,4.905,5.808,12.996
756,1.096,34.611,14.891,31.975,23.847,5.069,5.891,13.119
757,1.092,34.742,14.817,31.928,23.833,4.908,5.77,12.957
758,1.092,34.868,14.82,31.908,23.826,4.784,5.687,12.915
759,1.109,35.004,14.832,31.946,23.829,4.946,5.768,12.915
760,1.128,34.535,14.887,31.956,23.843,4.988,5.809,12.915
761,1.122,34.636,14.868,31.908,23.829,4.826,5.688,12.792
762,1.122,34.752,14.868,31.889,23.822,4.783,5.687,12.71
763,1.151,34.868,14.875,31.936,23.84,4.905,5.768,12.872
764,1.145,34.515,14.809,31.946,23.847,4.987,5.891,12.833
765,1.139,34.626,14.836,31.975,23.833,4.785,5.689,12.792
766,1.122,34.752,14.848,31.918,23.826,4.824,5.809,12.873
767,1.138,34.859,14.864,31.927,23.833,4.987,5.769,12.955
768,1.142,34.62,14.833,31.946,23.84,4.988,5.809,12.956
769,1.135,34.733,14.906,31.918,23.822,4.866,5.647,12.915
770,1.129,34.878,14.849,31.946,23.829,4.906,5.767,12.996
771,1.155,34.966,14.86,31.975,23.836,4.906,5.85,13.159
772,1.161,34.602,14.879,31.937,23.829,4.865,5.851,13.039
773,1.171,34.742,14.876,31.937,23.829,4.865,5.688,12.956
774,1.188,34.887,14.938,31.937,23.84,4.906,5.849,13.037
775,1.204,34.889,14.841,31.946,23.84,4.947,5.81,13.038
776,1.204,34.62,14.836,31.937,23.829,4.907,5.769,12.916
777,1.204,34.742,14.836,31.918,23.826,4.825,5.768,13.037
778,1.22,34.897,14.84,31.946,23.836,4.865,5.768,13.078
779,1.247,34.736,14.805,31.937,23.84,4.946,5.809,13.16
780,1.25,34.628,14.851,31.937,23.836,4.825,5.688,13.08
781,1.247,34.771,14.817,31.927,23.833,4.865,5.727,12.997
782,1.257,34.897,14.816,31.927,23.833,4.865,5.727,13.037
783,1.25,34.64,14.863,31.937,23.836,4.865,5.768,13.2
784,1.263,34.695,14.86,31.927,23.836,4.865,5.809,13.202
785,1.25,34.829,14.922,31.908,23.829,4.824,5.728,13.161
786,1.26,34.946,14.829,31.927,23.829,4.865,5.687,13.202
787,1.267,34.717,14.852,31.946,23.836,4.906,5.727,13.283
788,1.267,34.82,14.883,31.937,23.84,4.906,5.809,13.284
789,1.267,34.965,14.837,31.927,23.829,4.865,5.769,13.325
790,1.276,35.081,14.871,31.937,23.833,4.906,5.687,13.244
791,1.28,34.872,14.864,31.946,23.833,4.906,5.768,13.284
792,1.283,35.023,14.836,31.927,23.836,4.865,5.728,13.284
793,1.29,35.159,14.746,31.918,23.836,4.906,5.687,13.203
794,1.309,35.246,14.859,31.937,23.833,4.906,5.646,13.121
795,1.316,34.691,14.887,31.937,23.836,4.865,5.727,13.16
796,1.322,34.829,14.883,31.927,23.833,4.824,5.687,13.161
797,1.329,34.984,14.88,31.937,23.833,4.905,5.727,13.202
798,1.349,35.053,14.864,31.918,23.833,4.906,5.687,13.08
799,1.352,35.082,14.875,31.946,23.84,4.865,5.727,13.16
800,1.359,35.226,14.805,31.985,23.829,4.906,5.727,13.12
801,1.362,35.353,14.824,31.918,23.84,4.906,5.768,13.12
802,1.359,35.411,14.879,31.927,23.826,4.865,5.687,13.039
803,1.359,35.278,14.868,31.937,23.836,4.946,5.687,13.038
804,1.365,35.42,14.875,31.927,23.84,4.907,5.646,13.119
805,1.346,35.546,14.829,31.956,23.84,4.987,5.808,13.12
806,1.352,35.586,14.828,31.918,23.829,4.866,5.688,12.957
807,1.355,35.51,14.875,31.927,23.833,4.906,5.646,13.037
808,1.359,35.681,14.86,31.937,23.833,4.906,5.727,13.038
809,1.362,35.808,14.911,31.946,23.843,4.987,5.809,13.241
810,1.349,35.876,14.876,31.918,23.833,4.907,5.647,13.121
811,1.352,35.771,14.837,31.937,23.829,4.906,5.686,13.039
812,1.346,35.924,14.828,31.927,23.84,4.987,5.727,13.078
813,1.352,36.021,14.895,31.946,23.847,5.029,5.85,13.201
814,1.352,36.032,14.868,31.927,23.829,4.907,5.688,12.999
815,1.352,36.109,14.887,31.908,23.826,4.825,5.646,12.875
816,1.365,36.244,14.841,31.937,23.836,4.946,5.686,13.036
817,1.375,36.379,14.867,31.956,23.847,5.069,5.849,13.16
818,1.362,36.208,14.794,31.889,23.84,4.867,5.648,12.958
819,1.362,36.34,14.82,31.917,23.826,4.824,5.605,12.915
820,1.368,36.495,14.887,31.927,23.836,4.905,5.767,12.996
821,1.372,36.573,14.841,31.956,23.843,5.028,5.85,13.078
822,1.365,36.344,14.821,31.927,23.833,4.867,5.648,12.876
823,1.359,36.486,14.836,31.918,23.826,4.824,5.605,12.792
824,1.339,36.631,14.84,31.937,23.836,4.987,5.726,12.994
825,1.342,36.728,14.852,31.937,23.843,4.988,5.85,13.119
826,1.332,36.844,14.743,31.927,23.829,4.826,5.648,13.039
827,1.336,36.999,14.808,31.908,23.829,4.865,5.564,13.078
828,1.319,37.125,14.898,31.917,23.833,4.906,5.685,13.241
829,1.313,37.222,14.778,31.965,23.847,5.028,5.809,13.365
830,1.303,36.772,14.859,31.928,23.826,4.907,5.688,13.244
831,1.299,36.902,14.879,31.908,23.826,4.865,5.605,13.162
832,1.299,37.028,14.907,31.937,23.836,4.906,5.686,13.202
833,1.306,37.106,14.845,31.956,23.843,5.028,5.849,13.283
834,1.29,37.26,14.867,31.947,23.833,4.867,5.648,13.04
835,1.286,37.367,14.833,31.918,23.822,4.824,5.523,12.956
836,1.29,37.512,14.899,31.927,23.833,4.987,5.725,13.118
837,1.303,37.59,14.837,31.985,23.847,5.029,5.85,13.16
838,1.283,37.399,14.863,31.909,23.84,4.867,5.648,12.958
839,1.28,37.522,14.946,31.898,23.826,4.784,5.605,12.793
840,1.28,37.667,14.81,31.936,23.84,4.986,5.726,12.913
841,1.286,37.918,14.859,31.966,23.847,5.07,5.809,12.996
842,1.264,37.575,14.836,31.899,23.829,4.826,5.647,12.915
843,1.244,37.716,14.883,31.879,23.822,4.824,5.645,12.874
844,1.244,37.851,14.868,31.917,23.84,4.987,5.808,13.036
845,1.237,37.834,14.77,31.965,23.843,4.948,5.769,13.078
846,1.208,37.824,14.769,31.918,23.833,4.907,5.647,13.038
847,1.194,37.939,14.82,31.908,23.829,4.906,5.727,13.16
848,1.191,38.093,14.859,31.956,23.84,4.987,5.687,13.242
849,1.188,37.654,14.875,31.918,23.84,4.948,5.727,13.284
850,1.149,37.678,14.883,31.898,23.829,4.907,5.687,13.243
851,1.155,37.822,14.868,31.917,23.84,4.947,5.768,13.324
852,1.155,37.958,14.829,32.004,23.84,5.069,5.809,13.406
853,1.142,37.796,14.844,31.928,23.829,4.908,5.81,13.285
854,1.132,37.91,14.813,31.889,23.829,4.865,5.728,13.243
855,1.129,38.055,14.891,31.908,23.829,4.946,5.727,13.243
856,1.142,38.152,14.841,31.937,23.843,4.988,5.809,13.243
857,1.132,37.885,14.852,31.908,23.829,4.907,5.81,13.324
858,1.109,37.997,14.899,31.898,23.826,4.906,5.81,13.122
859,1.112,38.151,14.852,31.917,23.833,4.947,5.728,13.201
860,1.102,38.258,14.868,31.937,23.836,5.029,5.809,13.202
861,1.086,37.972,14.895,31.918,23.836,4.867,5.728,13.08
862,1.092,38.113,14.845,31.917,23.833,4.906,5.687,12.997
863,1.057,38.249,14.825,31.937,23.829,4.865,5.646,12.956
864,1.06,38.336,14.891,31.927,23.84,4.906,5.808,12.996
865,1.043,37.954,14.915,31.908,23.833,4.947,5.769,13.078
866,1.027,38.093,14.856,31.917,23.833,4.866,5.728,13.119
867,1.017,38.239,14.868,31.908,23.836,4.865,5.809,13.201
868,1.007,38.288,14.856,31.917,23.843,4.946,5.81,13.324
869,0.997,38.03,14.844,31.908,23.833,4.988,5.728,13.366
870,0.987,38.181,14.809,31.917,23.84,4.907,5.768,13.285
871,0.987,38.307,14.832,31.927,23.833,4.906,5.728,13.325
872,0.971,38.327,14.871,31.927,23.84,4.987,5.768,13.284
873,0.964,37.838,14.836,31.908,23.84,4.907,5.85,13.243
874,0.971,37.977,14.852,31.908,23.836,4.987,5.729,13.202
875,0.977,38.113,14.774,31.927,23.833,4.907,5.727,13.121
876,0.971,38.066,14.843,31.927,23.84,4.906,5.727,13.16
877,0.958,37.893,14.899,31.927,23.829,4.906,5.85,13.12
878,0.945,38.045,14.845,31.898,23.833,4.947,5.729,13.079
879,0.941,38.133,14.883,31.898,23.833,4.907,5.727,12.916
880,0.958,37.827,14.856,31.917,23.833,4.947,5.687,12.874
881,0.941,37.891,14.758,31.937,23.833,4.947,5.727,12.914
882,0.932,38.007,14.804,31.899,23.833,4.866,5.768,12.955
883,0.925,38.132,14.879,31.898,23.833,4.906,5.768,12.874
884,0.915,37.779,14.911,31.927,23.833,4.906,5.687,12.914
885,0.899,37.852,14.845,31.908,23.833,4.906,5.727,12.996
886,0.892,38.006,14.887,31.917,23.833,4.906,5.809,12.956
887,0.889,38.104,14.891,31.889,23.833,4.906,5.688,12.956
888,0.879,37.683,14.848,31.908,23.833,4.947,5.727,12.956
889,0.876,37.832,14.828,31.917,23.84,4.907,5.727,12.996
890,0.866,37.958,14.918,31.917,23.84,4.987,5.727,13.078
891,0.859,38.036,14.841,31.898,23.84,4.866,5.646,12.957
892,0.862,37.653,14.758,31.908,23.833,4.865,5.645,12.833
893,0.859,37.803,14.828,31.908,23.836,4.946,5.686,12.995
894,0.866,37.919,14.82,31.917,23.84,5.029,5.727,12.956
895,0.862,37.988,14.863,31.908,23.829,4.867,5.605,12.711
896,0.849,37.538,14.879,31.908,23.826,4.865,5.645,12.709
897,0.849,37.715,14.891,31.927,23.829,4.906,5.605,12.79
898,0.866,37.832,14.856,31.918,23.84,4.987,5.767,12.832
899,0.846,37.881,14.856,31.898,23.833,4.866,5.647,12.67
900,0.846,37.45,14.829,31.908,23.836,4.824,5.605,12.587
901,0.853,37.59,14.895,31.898,23.84,4.905,5.686,12.627
902,0.853,37.716,14.903,31.917,23.84,4.947,5.809,12.708
903,0.849,37.765,14.778,31.889,23.84,4.866,5.728,12.709
904,0.843,37.401,14.836,31.908,23.826,4.865,5.646,12.709
905,0.826,37.551,14.828,31.898,23.836,4.946,5.686,12.912
906,0.82,37.668,14.922,31.927,23.843,4.947,5.768,13.037
907,0.826,38.052,14.833,31.898,23.836,4.866,5.647,12.997
908,0.813,37.51,14.844,31.898,23.833,4.865,5.645,13.078
909,0.813,37.619,14.903,31.908,23.84,4.906,5.686,13.282
910,0.803,37.764,14.798,31.908,23.843,4.987,5.768,13.447
911,0.794,37.296,14.847,31.869,23.829,4.826,5.647,13.245
912,0.803,37.214,14.875,31.898,23.829,4.865,5.605,13.243
913,0.803,37.348,14.883,31.898,23.84,4.865,5.604,13.324
914,0.81,37.464,14.829,31.917,23.84,4.946,5.767,13.366
915,0.803,37.158,14.774,31.889,23.836,4.825,5.647,13.204
916,0.816,37.29,14.808,31.898,23.84,4.865,5.686,13.202
917,0.81,37.416,14.832,31.898,23.829,4.865,5.727,13.243
918,0.82,37.532,14.836,31.917,23.847,4.906,5.727,13.365
919,0.817,36.919,14.817,31.898,23.833,4.825,5.524,13.122
920,0.826,37.028,14.867,31.898,23.836,4.865,5.522,13.079
921,0.823,37.192,14.739,31.898,23.836,4.906,5.644,13.119
922,0.83,37.29,14.866,31.917,23.84,4.987,5.767,13.201
923,0.817,36.965,14.883,31.908,23.84,4.866,5.606,13.08
924,0.813,37.115,14.852,31.898,23.833,4.865,5.564,13.038
925,0.81,37.241,14.907,31.917,23.833,4.906,5.563,13.16
926,0.807,37.348,14.852,31.917,23.85,5.028,5.685,13.283
927,0.794,36.85,14.883,31.908,23.833,4.907,5.646,13.121
928,0.79,36.999,14.79,31.869,23.829,4.825,5.483,13.16
929,0.787,37.135,14.863,31.907,23.836,4.865,5.603,13.323
930,0.79,37.203,14.891,31.927,23.843,5.109,5.808,13.447
931,0.793,36.83,14.907,31.889,23.836,4.867,5.525,13.326
932,0.78,36.97,14.821,31.888,23.822,4.865,5.522,13.203
933,0.793,37.115,14.836,31.908,23.833,4.946,5.644,13.324
934,0.806,37.174,14.883,31.917,23.847,4.988,5.808,13.447
935,0.797,36.695,14.86,31.889,23.833,4.826,5.606,13.164
936,0.8,36.834,14.797,31.879,23.829,4.783,5.523,13.12
937,0.807,36.98,14.836,31.907,23.84,4.946,5.644,13.282
938,0.816,37.01,14.891,31.917,23.843,5.069,5.767,13.365
939,0.803,36.694,14.829,31.908,23.833,4.867,5.565,13.082
940,0.813,36.806,14.805,31.879,23.819,4.824,5.523,12.997
941,0.823,36.96,14.902,31.917,23.833,4.905,5.644,13.159
942,0.83,36.799,14.868,31.917,23.847,5.069,5.767,13.202
943,0.82,36.615,14.817,31.898,23.833,4.826,5.647,13.039
944,0.803,36.776,14.813,31.879,23.829,4.783,5.564,12.956
945,0.813,36.893,14.824,31.907,23.836,4.905,5.645,13.118
946,0.803,36.558,14.871,31.937,23.85,5.028,5.767,13.242
947,0.784,36.564,14.782,31.889,23.829,4.826,5.647,13.162
948,0.784,36.737,14.824,31.869,23.826,4.783,5.564,13.161
949,0.79,36.854,14.891,31.888,23.833,4.986,5.645,13.323
950,0.79,36.519,14.856,31.927,23.847,4.988,5.767,13.406
951,0.787,36.631,14.891,31.898,23.836,4.948,5.647,13.285
952,0.777,36.767,14.829,31.879,23.822,4.866,5.523,13.203
953,0.793,36.873,14.91,31.907,23.843,4.946,5.644,13.324
954,0.826,36.539,14.911,31.927,23.847,5.029,5.767,13.244
955,0.813,36.631,14.829,31.889,23.826,4.907,5.647,13.04
956,0.807,36.767,14.848,31.869,23.822,4.865,5.523,13.038
957,0.82,36.883,14.965,31.898,23.84,4.906,5.685,13.038
958,0.823,36.309,14.892,31.917,23.84,5.028,5.768,13.078
959,0.81,36.408,14.821,31.889,23.826,4.867,5.647,12.997
960,0.816,36.525,14.887,31.869,23.829,4.865,5.686,12.875
961,0.833,36.612,14.829,31.907,23.84,4.987,5.727,12.914
962,0.833,36.306,14.801,31.908,23.836,4.988,5.646,12.955
963,0.817,36.437,14.828,31.879,23.822,4.907,5.523,12.833
964,0.797,36.592,14.871,31.888,23.829,4.906,5.644,12.873
965,0.813,36.642,14.911,31.908,23.836,4.987,5.727,13.077
966,0.803,36.374,14.798,31.879,23.829,5.029,5.687,13.038
967,0.79,36.496,14.859,31.869,23.826,4.907,5.687,12.997
968,0.797,36.631,14.836,31.888,23.833,4.987,5.687,12.956
969,0.807,36.671,14.871,31.908,23.84,5.029,5.768,13.118
970,0.794,36.412,14.876,31.898,23.836,5.03,5.687,13.16
971,0.78,36.525,14.864,31.869,23.833,4.826,5.605,12.998
972,0.79,36.67,14.829,31.907,23.833,4.987,5.686,12.996
973,0.803,37.064,14.781,31.898,23.84,4.948,5.768,12.996
974,0.803,37.135,14.804,31.898,23.833,4.988,5.687,12.915
975,0.803,37.251,14.812,31.888,23.826,4.907,5.687,12.833
976,0.813,37.377,14.922,31.869,23.833,4.987,5.646,12.914
977,0.82,36.064,14.868,31.898,23.84,5.11,5.767,12.874
978,0.826,35.802,14.872,31.888,23.833,5.03,5.687,12.833
979,0.813,35.934,14.899,31.888,23.829,4.867,5.646,12.792
980,0.833,36.088,14.864,31.888,23.833,5.028,5.686,12.791
981,0.833,36.358,14.872,31.888,23.84,4.989,5.768,12.832
982,0.852,36.476,14.891,31.888,23.836,4.988,5.728,12.832
983,0.83,36.602,14.872,31.888,23.833,4.948,5.727,12.751
984,0.82,36.718,14.739,31.879,23.833,4.988,5.605,12.791
985,0.817,36.115,14.827,31.955,23.833,5.07,5.726,12.873
986,0.813,36.253,14.859,31.889,23.836,4.989,5.687,12.833
987,0.807,36.351,14.829,31.86,23.829,4.948,5.646,12.995
988,0.81,36.476,14.848,31.888,23.84,4.988,5.605,12.915
989,0.816,36.113,14.864,31.888,23.843,5.029,5.686,12.915
990,0.803,36.244,14.868,31.888,23.833,4.948,5.727,12.955
991,0.8,36.398,14.778,31.888,23.84,4.988,5.687,12.956
992,0.803,36.477,14.839,31.898,23.84,4.988,5.646,12.915
993,0.816,36.094,14.91,31.879,23.84,5.029,5.727,12.874
994,0.826,36.224,14.872,31.879,23.833,4.989,5.646,12.914
995,0.817,36.35,14.872,31.888,23.836,4.988,5.686,13.037
996,0.823,36.419,14.84,31.879,23.84,4.988,5.646,12.956
997,0.83,36.208,14.883,31.879,23.84,5.07,5.605,12.915
998,0.83,36.35,14.821,31.879,23.84,5.03,5.726,12.955
999,0.826,36.505,14.828,31.898,23.836,5.07,5.687,12.996
1000,0.833,36.535,14.887,31.879,23.833,4.948,5.646,12.834
1001,0.836,36.056,14.86,31.898,23.833,4.988,5.686,12.792
1002,0.833,36.214,14.813,31.86,23.84,5.07,5.687,12.873
1003,0.826,36.35,14.836,31.888,23.84,5.07,5.646,12.873
1004,0.817,36.361,14.871,31.879,23.833,4.989,5.605,12.67
1005,0.82,36.265,14.918,31.879,23.833,4.988,5.645,12.871
1006,0.813,36.408,14.845,31.888,23.84,5.07,5.645,12.914
1007,0.813,36.525,14.86,31.888,23.836,5.03,5.686,12.996
1008,0.8,36.142,14.829,31.869,23.833,5.03,5.646,12.875
1009,0.816,35.947,14.805,31.888,23.84,4.989,5.645,12.955
1010,0.803,36.108,14.801,31.869,23.84,4.988,5.645,12.996
1011,0.794,36.205,14.867,31.888,23.843,5.07,5.686,12.996
1012,0.8,36.072,14.848,31.879,23.84,4.948,5.646,12.875
1013,0.813,36.176,14.786,31.879,23.829,5.029,5.645,12.873
1014,0.8,36.302,14.808,31.898,23.84,4.989,5.645,12.833
1015,0.803,36.399,14.805,31.879,23.84,5.11,5.645,12.914
1016,0.816,35.882,14.918,31.879,23.84,4.989,5.605,12.752
1017,0.82,36.011,14.821,31.917,23.833,4.988,5.604,12.831
1018,0.83,36.166,14.844,31.889,23.84,5.029,5.645,12.873
1019,0.83,36.254,14.903,31.908,23.833,5.03,5.686,12.873
1020,0.833,35.938,14.798,31.879,23.829,4.989,5.564,12.751
1021,0.83,36.108,14.875,31.869,23.84,4.988,5.604,12.669
1022,0.826,36.244,14.876,31.888,23.84,4.988,5.645,12.749
1023,0.823,36.302,14.938,31.888,23.836,4.988,5.686,12.913
1024,0.817,35.881,14.907,31.869,23.833,4.948,5.646,12.752
1025,0.803,36.021,14.829,31.888,23.833,4.988,5.605,12.872
1026,0.803,36.156,14.828,31.879,23.836,4.907,5.604,12.955
1027,0.787,36.215,14.883,31.898,23.84,5.028,5.645,13.037
1028,0.784,35.909,14.848,31.869,23.833,4.907,5.605,12.956
1029,0.8,36.088,14.848,31.869,23.84,4.987,5.564,12.915
1030,0.79,36.186,14.891,31.879,23.833,4.988,5.604,12.996
1031,0.79,36.273,14.837,31.898,23.836,4.948,5.564,13.078
1032,0.784,35.833,14.828,31.879,23.833,4.907,5.563,12.916
1033,0.79,35.982,14.859,31.898,23.836,4.987,5.645,12.874
1034,0.8,36.137,14.875,31.86,23.84,4.948,5.605,12.914
1035,0.79,36.158,14.872,31.879,23.836,5.029,5.686,12.996
1036,0.797,36.004,14.864,31.879,23.833,4.907,5.646,12.915
1037,0.794,36.156,14.825,31.898,23.829,4.947,5.523,12.874
1038,0.8,36.263,14.863,31.879,23.84,4.947,5.563,12.914
1039,0.8,36.245,14.813,31.888,23.84,4.988,5.645,12.996
1040,0.803,35.881,14.836,31.86,23.829,4.866,5.523,12.875
1041,0.803,36.03,14.914,31.879,23.833,4.946,5.603,12.751
1042,0.807,36.137,14.81,31.888,23.836,4.947,5.645,12.791
1043,0.797,35.899,14.773,31.898,23.833,4.988,5.645,12.832
1044,0.784,35.925,14.828,31.879,23.84,4.907,5.564,12.751
1045,0.79,36.088,14.902,31.898,23.836,4.906,5.523,12.75
1046,0.777,36.195,14.907,31.879,23.833,4.947,5.563,12.872
1047,0.784,35.707,14.891,31.879,23.833,4.988,5.604,12.914
1048,0.771,35.789,14.856,31.879,23.826,4.866,5.604,12.792
1049,0.767,35.943,14.895,31.879,23.833,4.824,5.604,12.791
1050,0.751,36.069,14.852,31.888,23.84,4.946,5.645,12.913
1051,0.767,35.773,14.817,31.908,23.847,5.069,5.727,12.996
1052,0.757,35.866,14.894,31.869,23.836,4.989,5.605,12.753
1053,0.774,36.001,14.848,31.86,23.826,4.866,5.482,12.628
1054,0.784,36.099,14.848,31.888,23.826,4.946,5.644,12.708
1055,0.79,35.783,14.735,31.908,23.843,5.069,5.727,12.831
1056,0.787,35.914,14.87,31.85,23.826,4.908,5.484,12.588
1057,0.78,36.011,14.836,31.85,23.826,4.825,5.522,12.464
1058,0.787,36.156,14.848,31.907,23.84,5.027,5.644,12.585
1059,0.787,35.784,14.891,31.898,23.847,5.111,5.727,12.667
1060,0.78,35.885,14.876,31.869,23.826,4.989,5.565,12.424
1061,0.777,35.992,14.774,31.86,23.826,4.907,5.523,12.381
1062,0.8,36.099,14.824,31.888,23.833,4.947,5.644,12.503
1063,0.794,36.368,14.883,31.908,23.85,5.15,5.849,12.585
1064,0.777,36.467,14.852,31.869,23.829,4.909,5.566,12.301
1065,0.767,36.573,14.844,31.85,23.822,4.865,5.523,12.339
1066,0.77,36.632,14.875,31.869,23.833,5.028,5.644,12.624
1067,0.77,35.491,14.848,31.927,23.843,5.192,5.767,12.668
1068,0.748,35.585,14.914,31.85,23.829,4.909,5.606,12.465
1069,0.744,35.721,14.837,31.85,23.819,4.825,5.564,12.463
1070,0.754,35.875,14.895,31.888,23.833,4.987,5.726,12.707
1071,0.767,35.906,14.934,31.908,23.847,5.07,5.768,12.75
1072,0.744,35.992,14.837,31.869,23.826,4.867,5.606,12.588
1073,0.738,36.127,14.801,31.86,23.822,4.824,5.523,12.545
1074,0.757,35.822,14.801,31.879,23.84,4.987,5.766,12.545
1075,0.77,35.761,14.863,31.917,23.84,5.029,5.728,12.586
1076,0.757,35.857,14.825,31.86,23.826,4.867,5.687,12.545
1077,0.751,35.963,14.801,31.869,23.826,4.946,5.564,12.504
1078,0.77,35.743,14.867,31.888,23.833,4.988,5.685,12.585
1079,0.787,35.837,14.899,31.908,23.84,5.07,5.687,12.545
1080,0.774,35.953,14.841,31.869,23.833,4.867,5.605,12.423
1081,0.78,36.031,14.821,31.85,23.829,4.865,5.645,12.381
1082,0.79,35.869,14.906,31.888,23.836,4.946,5.686,12.462
1083,0.78,36.011,14.88,31.879,23.836,4.988,5.727,12.381
1084,0.761,36.108,14.817,31.86,23.829,4.907,5.605,12.34
1085,0.77,36.196,14.684,31.879,23.833,4.947,5.686,12.502
1086,0.761,35.784,14.811,31.879,23.84,5.029,5.687,12.585
1087,0.751,35.933,14.883,31.869,23.836,4.948,5.646,12.545
1088,0.744,36.04,14.844,31.86,23.826,4.866,5.645,12.464
1089,0.744,36.137,14.86,31.879,23.84,4.865,5.645,12.544
1090,0.747,35.937,14.895,31.879,23.836,5.068,5.686,12.667
1091,0.751,36.079,14.833,31.879,23.829,4.908,5.646,12.587
1092,0.744,36.205,14.84,31.86,23.829,4.865,5.564,12.545
1093,0.744,36.283,14.879,31.888,23.836,4.946,5.563,12.626
1094,0.754,36.054,14.95,31.888,23.836,5.069,5.685,12.627
1095,0.754,36.166,14.9,31.879,23.836,4.948,5.605,12.586
1096,0.761,36.283,14.88,31.86,23.829,4.866,5.604,12.545
1097,0.767,36.351,14.86,31.869,23.836,4.906,5.645,12.586
1098,0.764,35.882,14.922,31.879,23.84,5.028,5.686,12.627
1099,0.767,36.049,14.837,31.888,23.84,4.948,5.605,12.627
1100,0.767,36.128,14.852,31.879,23.829,4.907,5.604,12.586
1101,0.777,36.177,14.871,31.86,23.833,4.947,5.564,12.586
1102,0.78,36.005,14.809,31.888,23.833,5.029,5.645,12.627
1103,0.771,36.147,14.805,31.86,23.833,4.989,5.645,12.586
1104,0.761,36.273,14.805,31.888,23.833,4.866,5.605,12.586
1105,0.761,36.216,14.855,31.869,23.833,4.946,5.604,12.627
1106,0.751,36.062,14.84,31.888,23.833,4.988,5.645,12.749
1107,0.751,36.205,14.817,31.888,23.84,4.866,5.686,12.831
1108,0.738,36.302,14.848,31.869,23.833,4.865,5.646,12.873
1109,0.747,36.082,14.899,31.879,23.833,4.906,5.645,12.914
1110,0.741,36.167,14.845,31.898,23.836,4.987,5.645,12.915
1111,0.731,36.292,14.844,31.888,23.833,4.866,5.564,12.955
1112,0.725,36.389,14.86,31.869,23.829,4.906,5.645,12.874
1113,0.737,36.016,14.872,31.869,23.826,4.865,5.605,12.792
1114,0.76,36.166,14.93,31.898,23.84,4.946,5.564,12.873
1115,0.751,36.263,14.798,31.888,23.833,4.947,5.645,12.792
1116,0.741,36.389,14.859,31.869,23.833,4.907,5.605,12.873
1117,0.767,36.093,14.914,31.86,23.84,4.947,5.604,12.792
1118,0.77,36.253,14.837,31.888,23.833,4.907,5.604,12.832
1119,0.757,36.379,14.867,31.888,23.84,4.906,5.686,12.751
1120,0.774,36.457,14.864,31.869,23.829,4.906,5.646,12.75
1121,0.78,36.142,14.84,31.86,23.833,4.865,5.605,12.709
1122,0.771,36.321,14.758,31.859,23.836,4.906,5.645,12.79
1123,0.767,36.428,14.867,31.869,23.836,4.865,5.645,12.791
1124,0.761,36.515,14.887,31.86,23.836,4.865,5.686,12.873
1125,0.767,36.161,14.837,31.869,23.833,4.865,5.564,12.792
1126,0.761,36.33,14.848,31.879,23.84,4.906,5.645,12.954
1127,0.741,36.457,14.817,31.869,23.84,4.906,5.727,13.037
1128,0.725,36.506,14.855,31.869,23.836,4.906,5.687,13.119
1129,0.734,36.017,14.809,31.879,23.836,4.947,5.646,13.039
1130,0.741,36.195,14.805,31.888,23.836,4.866,5.605,12.997
1131,0.738,36.302,14.851,31.879,23.84,4.987,5.645,13.037
1132,0.734,36.341,14.871,31.898,23.84,4.948,5.727,13.2
1133,0.747,36.092,14.864,31.86,23.833,4.866,5.646,12.999
1134,0.747,36.253,14.79,31.869,23.833,4.865,5.686,12.875
1135,0.751,36.37,14.836,31.869,23.833,4.906,5.646,13.036
1136,0.751,36.764,14.914,31.879,23.84,4.947,5.727,13.038
1137,0.754,36.25,14.86,31.879,23.829,4.866,5.605,12.916
1138,0.767,36.379,14.852,31.869,23.829,4.865,5.604,12.874
1139,0.761,36.496,14.875,31.879,23.833,4.906,5.726,12.914
1140,0.767,36.199,14.895,31.86,23.843,4.987,5.727,12.996
1141,0.764,36.129,14.802,31.869,23.833,4.907,5.646,12.753
1142,0.767,36.282,14.867,31.869,23.833,4.865,5.605,12.831
1143,0.764,36.408,14.852,31.869,23.833,4.946,5.645,12.873
1144,0.761,36.199,14.879,31.879,23.843,5.069,5.727,13.036
1145,0.751,36.264,14.899,31.86,23.829,4.867,5.605,12.875
1146,0.731,36.427,14.837,31.859,23.833,4.824,5.645,12.914
1147,0.741,36.525,14.844,31.879,23.84,4.865,5.645,13.077
1148,0.741,36.027,14.844,31.869,23.84,5.028,5.727,13.119
1149,0.747,36.176,14.864,31.86,23.833,4.907,5.605,13.039
1150,0.725,36.321,14.879,31.888,23.826,4.865,5.564,12.997
1151,0.724,36.409,14.895,31.879,23.84,4.865,5.685,13.078
1152,0.737,36.141,14.887,31.879,23.847,5.028,5.768,13.201
1153,0.725,36.273,14.759,31.869,23.829,4.907,5.606,12.999
1154,0.737,36.418,14.808,31.85,23.833,4.865,5.523,12.875
1155,0.744,36.477,14.812,31.878,23.84,4.906,5.644,12.995
1156,0.741,36.055,14.859,31.898,23.843,5.109,5.727,13.037
1157,0.744,36.185,14.825,31.946,23.826,4.867,5.565,12.875
1158,0.754,36.311,14.844,31.851,23.822,4.784,5.482,12.792
1159,0.754,36.409,14.934,31.878,23.836,4.986,5.684,12.913
1160,0.78,36.045,14.814,31.907,23.85,5.029,5.727,12.915
1161,0.761,36.166,14.894,31.86,23.829,4.907,5.605,12.711
1162,0.751,36.254,14.86,31.821,23.826,4.825,5.523,12.668
1163,0.761,36.351,14.879,31.869,23.84,4.987,5.685,12.79
1164,0.767,36.093,14.899,31.898,23.847,5.029,5.809,12.791
1165,0.741,36.186,14.829,31.86,23.826,4.867,5.525,12.71
1166,0.731,36.292,14.785,31.84,23.829,4.824,5.644,12.75
1167,0.738,36.36,14.828,31.859,23.84,4.946,5.645,12.953
1168,0.747,36.054,14.836,31.898,23.84,4.988,5.686,12.996
1169,0.731,36.176,14.817,31.841,23.826,4.948,5.564,12.793
1170,0.715,36.254,14.875,31.859,23.829,4.866,5.645,12.954
1171,0.724,36.197,14.911,31.879,23.836,4.987,5.686,12.996
1172,0.724,36.072,14.767,31.888,23.84,4.948,5.687,12.915
1173,0.724,36.205,14.835,31.85,23.836,4.825,5.605,12.874
1174,0.744,36.321,14.86,31.869,23.836,4.905,5.645,12.873
1175,0.741,35.929,14.922,31.888,23.84,4.947,5.686,12.955
1176,0.741,35.935,14.802,31.869,23.833,4.907,5.605,12.874
1177,0.741,36.088,14.832,31.84,23.829,4.947,5.564,12.792
1178,0.757,36.215,14.899,31.869,23.84,4.866,5.604,12.832
1179,0.757,36.014,14.829,31.888,23.84,4.987,5.645,12.832
1180,0.764,36.137,14.863,31.869,23.833,4.907,5.564,12.792
1181,0.757,36.253,14.833,31.85,23.826,4.947,5.563,12.71
1182,0.767,36.37,14.879,31.869,23.829,4.907,5.604,12.709
1183,0.748,35.863,14.872,31.879,23.84,4.987,5.726,12.75
1184,0.754,36.001,14.848,31.879,23.833,4.948,5.605,12.709
1185,0.744,36.137,14.879,31.85,23.833,4.988,5.645,12.831
1186,0.734,36.225,14.844,31.859,23.833,4.907,5.605,12.832
1187,0.731,35.871,14.922,31.859,23.84,4.987,5.645,12.873
1188,0.721,36.03,14.86,31.859,23.84,4.988,5.645,12.914
1189,0.721,36.166,14.875,31.869,23.833,4.948,5.645,12.915
1190,0.728,36.225,14.887,31.85,23.829,4.947,5.645,12.996
1191,0.728,35.804,14.817,31.869,23.833,4.988,5.727,13.037
1192,0.721,35.953,14.832,31.879,23.829,4.988,5.727,12.956
1193,0.737,36.079,14.848,31.869,23.829,4.907,5.687,12.915
1194,0.721,36.128,14.895,31.86,23.833,4.947,5.687,12.915
1195,0.741,35.764,14.868,31.859,23.84,4.947,5.768,12.792
1196,0.744,35.904,14.844,31.859,23.836,4.947,5.687,12.913
1197,0.751,36.021,14.813,31.859,23.84,4.947,5.768,12.955
1198,0.754,36.051,14.879,31.859,23.833,4.947,5.728,12.874
1199,0.754,35.869,14.852,31.888,23.836,4.947,5.727,12.873
1200,0.761,35.992,14.864,31.86,23.84,4.988,5.687,12.792
1201,0.754,36.118,14.875,31.859,23.836,5.07,5.768,12.832
1202,0.754,36.272,14.84,31.84,23.829,4.948,5.728,12.71
1203,0.748,35.766,14.785,31.869,23.829,4.907,5.727,12.709
1204,0.741,35.914,14.8,31.879,23.84,4.987,5.727,12.709
1205,0.747,36.021,14.84,31.879,23.84,5.029,5.89,12.872
1206,0.738,35.782,14.914,31.85,23.829,4.948,5.648,12.751
1207,0.728,35.809,14.782,31.859,23.829,4.907,5.605,12.791
1208,0.738,35.953,14.875,31.859,23.836,4.987,5.767,12.873
1209,0.738,36.079,14.891,31.879,23.843,4.988,5.809,12.873
1210,0.731,35.706,14.844,31.85,23.833,4.907,5.728,12.792
1211,0.721,35.818,14.836,31.85,23.822,4.906,5.646,12.71
1212,0.721,35.963,14.902,31.888,23.843,4.987,5.686,12.831
1213,0.728,36.089,14.899,31.888,23.85,5.029,5.89,12.914
1214,0.738,35.745,14.88,31.841,23.829,4.989,5.689,12.792
1215,0.728,35.885,14.872,31.84,23.822,4.826,5.564,12.71
1216,0.731,36.04,14.821,31.869,23.836,4.946,5.766,12.831
1217,0.744,36.157,14.883,31.898,23.84,5.069,5.891,13.036
1218,0.738,35.467,14.766,31.85,23.833,4.867,5.689,12.712
1219,0.747,35.633,14.82,31.84,23.833,4.824,5.646,12.628
1220,0.754,35.759,14.867,31.859,23.836,5.027,5.727,12.708
1221,0.757,35.876,14.852,31.888,23.843,5.151,5.931,12.872
1222,0.751,35.551,14.758,31.841,23.829,4.909,5.689,12.67
1223,0.744,35.72,14.804,31.84,23.822,4.825,5.646,12.627
1224,0.731,35.866,14.875,31.869,23.833,4.946,5.849,12.79
1225,0.741,35.953,14.942,31.898,23.85,5.029,5.851,12.994
1226,0.728,35.648,14.829,31.831,23.833,4.907,5.688,12.834
1227,0.721,35.817,14.852,31.821,23.822,4.825,5.687,12.832
1228,0.728,35.934,14.883,31.849,23.836,5.027,5.768,12.954
1229,0.741,36.021,14.86,31.898,23.85,5.111,5.891,13.118
1230,0.721,35.533,14.836,31.86,23.826,4.867,5.729,12.917
1231,0.724,35.662,14.856,31.831,23.826,4.865,5.646,12.915
1232,0.724,35.808,14.903,31.859,23.833,5.028,5.767,12.955
1233,0.747,35.857,14.864,31.859,23.847,5.151,5.85,13.037
1234,0.734,35.531,14.813,31.85,23.826,4.909,5.688,12.875
1235,0.731,35.682,14.844,31.821,23.822,4.825,5.646,12.833
1236,0.751,35.827,14.899,31.869,23.84,5.027,5.727,12.873
1237,0.754,35.675,14.872,31.888,23.843,5.151,5.89,13.036
1238,0.741,35.558,14.879,31.841,23.833,4.949,5.729,12.834
1239,0.747,35.691,14.825,31.821,23.829,4.907,5.605,12.71
1240,0.754,35.817,14.891,31.859,23.833,4.947,5.686,12.831
1241,0.767,35.521,14.833,31.888,23.84,5.15,5.971,12.873
1242,0.754,35.586,14.824,31.85,23.833,4.909,5.73,12.711
1243,0.738,35.721,14.871,31.821,23.822,4.825,5.605,12.628
1244,0.731,35.856,14.872,31.878,23.836,5.027,5.808,12.749
1245,0.741,35.464,14.895,31.879,23.843,5.07,5.81,12.953
1246,0.721,35.537,14.805,31.84,23.829,4.908,5.647,12.793
1247,0.715,35.682,14.836,31.821,23.822,4.825,5.605,12.873
1248,0.724,35.798,14.86,31.859,23.833,4.987,5.808,12.995
1249,0.747,35.454,14.864,31.879,23.847,5.07,5.85,13.078
1250,0.725,35.556,14.879,31.831,23.833,4.867,5.688,12.997
1251,0.718,35.691,14.903,31.821,23.826,4.906,5.687,13.078
1252,0.724,35.798,14.899,31.869,23.833,5.028,5.727,13.079
1253,0.744,35.358,14.848,31.888,23.843,5.03,5.768,13.119
1254,0.721,35.488,14.832,31.85,23.829,4.826,5.687,12.957
1255,0.728,35.614,14.82,31.821,23.826,4.865,5.687,12.956
1256,0.734,35.721,14.871,31.849,23.84,5.068,5.849,13.078
1257,0.738,35.425,14.879,31.878,23.833,4.989,5.729,12.997
1258,0.734,35.537,14.833,31.85,23.826,4.826,5.687,12.875
1259,0.744,35.672,14.86,31.85,23.84,4.946,5.727,12.955
1260,0.76,35.741,14.805,31.859,23.84,4.988,5.809,12.956
1261,0.761,35.3,14.875,31.85,23.836,4.948,5.728,12.915
1262,0.764,35.42,14.868,31.821,23.829,4.866,5.646,12.792
1263,0.751,35.565,14.93,31.859,23.84,4.987,5.727,12.913
1264,0.757,35.624,14.884,31.859,23.836,4.988,5.727,12.955
1265,0.754,35.357,14.848,31.859,23.833,4.907,5.727,12.996
1266,0.751,35.507,14.828,31.84,23.829,4.865,5.687,13.078
1267,0.757,35.643,14.863,31.85,23.829,4.946,5.687,13.16
1268,0.764,35.731,14.817,31.85,23.836,4.907,5.727,13.242
1269,0.754,35.501,14.785,31.859,23.826,4.987,5.727,13.243
1270,0.744,35.605,14.879,31.831,23.826,4.866,5.687,13.243
1271,0.751,35.74,14.887,31.859,23.829,4.946,5.646,13.202
1272,0.767,35.377,14.766,31.859,23.84,4.988,5.686,13.283
1273,0.793,35.354,14.843,31.859,23.833,5.029,5.727,13.203
1274,0.787,35.507,14.856,31.85,23.833,4.907,5.605,13.202
1275,0.797,35.643,14.895,31.84,23.826,4.906,5.645,13.121
1276,0.826,36.364,14.86,31.85,23.836,4.947,5.686,13.12
1277,0.833,36.524,14.914,31.869,23.833,4.947,5.768,13.12
1278,0.836,36.641,14.884,31.831,23.84,4.988,5.687,13.12
1279,0.839,36.738,14.868,31.859,23.833,4.948,5.687,13.079
1280,0.849,34.524,14.883,31.85,23.836,4.866,5.646,13.079
1281,0.853,34.636,14.86,31.859,23.833,4.865,5.686,12.957
1282,0.846,34.752,14.922,31.831,23.829,4.987,5.646,12.956
1283,0.843,34.878,14.853,31.83,23.833,4.907,5.645,12.915
1284,0.833,35.32,14.762,31.859,23.836,4.906,5.686,12.915
1285,0.833,35.469,14.8,31.859,23.833,4.947,5.646,12.915
1286,0.817,35.604,14.875,31.84,23.833,4.988,5.686,12.955
1287,0.82,35.673,14.879,31.85,23.836,4.907,5.646,12.874
1288,0.813,35.031,14.848,31.869,23.833,4.906,5.645,12.873
1289,0.82,35.188,14.887,31.85,23.84,4.906,5.686,12.914
1290,0.807,35.323,14.864,31.878,23.829,4.987,5.687,12.955
1291,0.807,35.382,14.821,31.821,23.836,4.826,5.646,12.752
1292,0.807,35.201,14.84,31.849,23.833,4.987,5.645,12.791
1293,0.81,35.333,14.813,31.85,23.833,4.866,5.645,12.791
1294,0.816,35.449,14.84,31.859,23.843,4.946,5.645,12.791
1295,0.813,35.499,14.891,31.831,23.829,4.947,5.605,12.669
1296,0.829,35.231,14.864,31.84,23.84,4.907,5.604,12.668
1297,0.826,35.381,14.852,31.85,23.833,4.906,5.604,12.668
1298,0.826,35.488,14.883,31.84,23.843,4.987,5.686,12.668
1299,0.833,35.518,14.86,31.85,23.826,4.866,5.564,12.505
1300,0.843,35.164,14.86,31.85,23.836,4.865,5.645,12.463
1301,0.849,35.313,14.93,31.85,23.833,4.987,5.605,12.463
1302,0.859,35.411,14.861,31.85,23.843,4.988,5.686,12.585
1303,0.827,35.278,14.766,31.84,23.833,4.907,5.605,12.505
1304,0.807,35.257,14.832,31.84,23.833,4.865,5.604,12.382
1305,0.797,35.41,14.906,31.859,23.836,4.906,5.604,12.625
1306,0.784,35.527,14.907,31.85,23.84,4.987,5.726,12.749
1307,0.787,35.116,14.868,31.926,23.826,4.826,5.565,12.709
1308,0.771,35.198,14.856,31.85,23.833,4.865,5.563,12.75
1309,0.774,35.352,14.868,31.85,23.833,4.865,5.685,12.913
1310,0.764,35.459,14.809,31.878,23.84,4.987,5.687,12.996
1311,0.767,35.096,14.82,31.831,23.836,4.907,5.524,12.753
1312,0.783,35.236,14.883,31.84,23.833,4.784,5.482,12.709
1313,0.793,35.372,14.891,31.84,23.84,4.986,5.603,12.872
1314,0.816,35.479,14.852,31.85,23.833,4.988,5.604,12.914
1315,0.813,35.067,14.813,31.84,23.836,4.866,5.564,12.792
1316,0.813,35.236,14.84,31.859,23.833,4.865,5.523,12.751
1317,0.833,35.372,14.895,31.85,23.833,4.865,5.522,12.872
1318,0.826,35.45,14.755,31.85,23.843,4.987,5.603,12.955
1319,0.82,34.981,14.839,31.84,23.833,4.826,5.523,12.833
1320,0.823,35.139,14.914,31.84,23.829,4.865,5.563,12.832
1321,0.817,35.265,14.872,31.85,23.833,4.906,5.523,12.873
1322,0.813,35.343,14.794,31.85,23.84,4.947,5.563,12.873
1323,0.807,35.066,14.82,31.85,23.829,4.866,5.482,12.873
1324,0.803,35.236,14.898,31.85,23.829,4.865,5.562,12.873
1325,0.81,35.353,14.888,31.831,23.843,4.824,5.645,12.995
1326,0.794,35.411,14.833,31.849,23.836,4.905,5.564,13.037
1327,0.79,35.115,14.875,31.84,23.829,4.865,5.563,13.038
1328,0.797,35.284,14.891,31.85,23.836,4.824,5.563,13.119
1329,0.787,35.392,14.813,31.85,23.84,4.865,5.604,13.12
1330,0.771,35.421,14.828,31.859,23.833,4.987,5.686,13.16
1331,0.777,35.134,14.891,31.831,23.829,4.907,5.524,13.039
1332,0.774,35.304,14.891,31.84,23.833,4.865,5.685,12.916
1333,0.784,35.411,14.86,31.859,23.833,4.865,5.564,12.915
1334,0.767,35.393,14.79,31.85,23.833,4.824,5.604,12.874
1335,0.777,35.191,14.82,31.85,23.829,4.865,5.604,12.873
1336,0.784,35.343,14.844,31.85,23.84,4.865,5.604,12.873
1337,0.78,35.459,14.852,31.85,23.84,4.906,5.564,12.833
1338,0.777,35.077,14.852,31.84,23.829,4.825,5.645,12.832
1339,0.78,35.111,14.821,31.85,23.833,4.865,5.645,12.792
1340,0.793,35.275,14.883,31.84,23.84,4.865,5.605,12.791
1341,0.784,35.372,14.79,31.84,23.829,4.824,5.564,12.791
1342,0.777,34.942,14.843,31.85,23.833,4.865,5.604,12.913
1343,0.78,35.072,14.895,31.821,23.829,4.784,5.564,12.874
1344,0.767,35.236,14.911,31.83,23.84,4.824,5.604,12.833
1345,0.761,35.314,14.923,31.83,23.833,4.824,5.523,13.036
1346,0.748,34.989,14.845,31.84,23.829,4.865,5.644,13.119
1347,0.754,35.13,14.852,31.85,23.829,4.824,5.645,13.201
1348,0.738,35.265,14.875,31.84,23.836,4.905,5.645,13.202
1349,0.728,35.391,14.864,31.84,23.833,4.865,5.645,13.243
1350,0.712,34.99,14.852,31.869,23.84,4.865,5.727,13.406
1351,0.715,35.13,14.856,31.84,23.833,4.824,5.605,13.204
1352,0.718,35.256,14.899,31.859,23.833,4.783,5.564,13.121
1353,0.731,35.334,14.845,31.85,23.836,4.864,5.604,13.282
1354,0.744,34.96,14.797,31.878,23.836,4.987,5.767,13.284
1355,0.721,35.091,14.859,31.831,23.826,4.744,5.565,13.121
1356,0.724,35.227,14.93,31.83,23.826,4.823,5.441,13.039
1357,0.734,35.314,14.872,31.859,23.836,4.905,5.643,13.2
1358,0.754,35.037,14.844,31.888,23.85,4.987,5.686,13.243
1359,0.728,35.12,14.867,31.841,23.826,4.744,5.524,13.08
1360,0.731,35.236,14.782,31.811,23.826,4.701,5.482,13.079
1361,0.731,35.314,14.832,31.849,23.84,4.823,5.644,13.282
1362,0.747,34.999,14.883,31.878,23.843,4.987,5.727,13.406
1363,0.731,35.12,14.868,31.812,23.826,4.785,5.605,13.285
1364,0.715,35.227,14.895,31.821,23.822,4.742,5.523,13.406
1365,0.718,35.611,14.864,31.849,23.84,4.823,5.644,13.57
1366,0.721,35.011,14.911,31.869,23.84,4.865,5.686,13.612
1367,0.702,35.111,14.919,31.831,23.826,4.702,5.605,13.572
1368,0.695,35.236,14.829,31.811,23.833,4.701,5.564,13.571
1369,0.685,35.084,14.867,31.84,23.84,4.823,5.685,13.775
1370,0.701,35.121,14.875,31.878,23.843,4.865,5.727,13.736
1371,0.688,35.188,14.876,31.821,23.826,4.784,5.605,13.573
1372,0.692,35.304,14.809,31.821,23.826,4.742,5.564,13.612
1373,0.721,34.912,14.828,31.859,23.833,4.864,5.685,13.694
1374,0.711,35.004,14.848,31.859,23.84,4.784,5.605,13.654
1375,0.705,35.111,14.864,31.831,23.826,4.702,5.482,13.572
1376,0.708,35.208,14.805,31.821,23.826,4.701,5.603,13.612
1377,0.724,34.969,14.808,31.849,23.836,4.782,5.564,13.613
1378,0.737,35.11,14.887,31.831,23.833,4.824,5.604,13.531
1379,0.721,35.217,14.821,31.821,23.822,4.702,5.523,13.449
1380,0.728,35.343,14.824,31.84,23.826,4.782,5.644,13.367
1381,0.731,34.951,14.863,31.85,23.84,4.864,5.645,13.407
1382,0.728,35.081,14.872,31.84,23.84,4.784,5.645,13.367
1383,0.715,35.217,14.821,31.811,23.829,4.742,5.523,13.204
1384,0.721,35.295,14.75,31.84,23.836,4.823,5.603,13.243
1385,0.721,34.97,14.812,31.85,23.84,4.824,5.645,13.324
1386,0.711,35.11,14.82,31.84,23.833,4.824,5.605,13.244
1387,0.705,35.217,14.816,31.83,23.829,4.743,5.523,13.243
1388,0.708,35.333,14.875,31.84,23.836,4.823,5.603,13.243
1389,0.721,35.814,14.844,31.85,23.84,4.905,5.645,13.202
1390,0.724,35.963,14.867,31.859,23.833,4.865,5.686,13.08
1391,0.711,36.07,14.825,31.831,23.833,4.824,5.605,13.038
1392,0.715,36.147,14.875,31.83,23.836,4.783,5.564,13.038
1393,0.708,34.364,14.883,31.849,23.833,4.905,5.645,12.956
1394,0.715,34.5,14.915,31.84,23.829,4.906,5.686,12.793
1395,0.721,34.626,14.888,31.84,23.833,4.825,5.646,12.873
1396,0.721,34.685,14.829,31.84,23.833,4.905,5.605,12.751
1397,0.734,35.079,14.875,31.85,23.84,4.906,5.645,12.75
1398,0.721,35.207,14.891,31.85,23.833,4.825,5.727,12.791
1399,0.734,35.343,14.852,31.831,23.84,4.865,5.687,12.791
1400,0.738,35.095,14.871,31.84,23.833,4.824,5.564,12.588
1401,0.741,34.833,14.899,31.83,23.833,4.865,5.645,12.627
1402,0.747,34.965,14.848,31.84,23.84,4.906,5.645,12.546
1403,0.731,35.081,14.758,31.84,23.836,4.906,5.645,12.626
1404,0.718,34.939,14.874,31.83,23.836,4.825,5.686,12.586
1405,0.728,35.033,14.821,31.849,23.833,4.824,5.605,12.586
1406,0.725,35.178,14.867,31.831,23.836,4.905,5.686,12.708
1407,0.728,35.304,14.809,31.849,23.84,4.947,5.809,12.79
1408,0.725,34.845,14.855,31.831,23.829,4.825,5.606,12.791
1409,0.721,34.946,14.891,31.84,23.833,4.783,5.564,12.751
1410,0.721,35.12,14.786,31.85,23.843,4.905,5.645,12.913
1411,0.724,35.227,14.855,31.85,23.84,4.987,5.686,12.996
1412,0.734,34.835,14.856,31.831,23.833,4.826,5.605,12.793
1413,0.751,34.994,14.911,31.859,23.829,4.824,5.645,12.751
1414,0.77,35.158,14.872,31.831,23.836,4.865,5.645,12.872
1415,0.783,35.208,14.794,31.859,23.84,4.946,5.686,12.914
1416,0.797,34.777,14.867,31.821,23.829,4.785,5.605,12.752
1417,0.826,34.936,14.911,31.83,23.829,4.824,5.523,12.791
1418,0.856,35.072,14.845,31.84,23.833,4.905,5.603,12.791
1419,0.895,35.169,14.856,31.859,23.836,4.906,5.726,12.913
1420,0.912,34.815,14.922,31.821,23.833,4.825,5.524,12.711
1421,0.935,34.994,14.884,31.811,23.833,4.783,5.522,12.668
1422,0.964,35.158,14.833,31.849,23.833,4.864,5.685,12.668
1423,0.977,35.208,14.875,31.85,23.843,4.946,5.687,12.831
1424,0.984,34.95,14.868,31.821,23.833,4.825,5.605,12.71
1425,0.991,35.1,14.887,31.821,23.833,4.824,5.604,12.709
1426,1.0,35.227,14.809,31.849,23.833,4.824,5.645,12.831
1427,1.007,35.285,14.875,31.85,23.84,4.905,5.645,12.914
1428,1.01,34.874,14.833,31.831,23.833,4.784,5.564,12.874
1429,1.03,35.023,14.84,31.849,23.829,4.824,5.523,12.914
1430,1.024,35.159,14.84,31.85,23.836,4.905,5.644,12.955
1431,1.04,35.505,14.824,31.84,23.843,4.947,5.727,13.037
1432,1.063,34.895,14.883,31.85,23.826,4.825,5.524,12.916
1433,1.086,35.023,14.829,31.821,23.826,4.824,5.563,12.915
1434,1.105,35.14,14.785,31.849,23.833,4.865,5.645,12.955
1435,1.109,34.93,14.867,31.84,23.843,4.906,5.727,13.078
1436,1.109,34.908,14.895,31.83,23.829,4.825,5.605,12.876
1437,1.138,35.071,14.876,31.821,23.826,4.824,5.564,12.792
1438,1.168,35.188,14.848,31.849,23.84,4.865,5.645,12.994
1439,1.184,34.825,14.891,31.859,23.843,4.946,5.727,13.078
1440,1.204,34.869,14.868,31.821,23.829,4.825,5.565,12.794
1441,1.23,35.023,14.77,31.83,23.826,4.824,5.563,12.669
1442,1.26,35.178,14.867,31.84,23.836,4.865,5.685,12.79
1443,1.267,34.863,14.899,31.85,23.843,4.987,5.809,12.873
1444,1.254,34.975,14.927,31.85,23.836,4.785,5.566,12.711
1445,1.27,35.12,14.884,31.821,23.826,4.783,5.523,12.709
1446,1.263,35.236,14.88,31.83,23.833,4.864,5.644,12.912
1447,1.224,34.749,14.907,31.869,23.847,5.028,5.727,13.077
1448,1.152,34.868,14.891,31.821,23.833,4.867,5.565,12.997
1449,1.096,35.033,14.844,31.84,23.829,4.743,5.482,13.037
1450,1.037,35.13,14.817,31.85,23.84,4.864,5.562,13.16
1451,0.972,34.843,14.891,31.859,23.85,5.028,5.807,13.283
1452,0.873,34.984,14.809,31.831,23.833,4.867,5.566,13.04
1453,0.778,35.101,14.766,31.811,23.826,4.702,5.482,13.038
1454,0.702,35.207,14.843,31.83,23.836,4.904,5.644,13.241
1455,0.594,34.777,14.891,31.859,23.847,4.987,5.727,13.487
1456,0.437,34.888,14.93,31.821,23.823,4.826,5.484,13.49
1457,0.302,34.994,14.837,31.792,23.822,4.743,5.481,13.611
1458,0.226,35.101,14.902,31.849,23.84,4.823,5.603,13.857
1459,0.16,34.901,14.911,31.869,23.84,4.946,5.686,14.022
1460,0.094,35.023,14.778,31.84,23.826,4.785,5.564,14.105
1461,0.032,35.149,14.832,31.821,23.833,4.864,5.563,14.553
1462,-0.031,35.198,14.891,31.84,23.833,4.824,5.645,14.923
1463,-0.106,34.777,14.891,31.83,23.833,4.865,5.605,15.415
1464,-0.191,34.916,14.852,31.83,23.822,4.743,5.523,15.704
1465,-0.234,35.062,14.813,31.83,23.833,4.864,5.563,16.073
1466,-0.303,35.054,14.785,31.83,23.84,4.865,5.563,16.361
1467,-0.353,35.006,14.863,31.84,23.84,4.824,5.523,16.486
1468,-0.395,35.149,14.875,31.869,23.833,4.824,5.482,16.569
1469,-0.415,35.275,14.837,31.831,23.836,4.865,5.522,16.651
1470,-0.445,34.739,14.906,31.859,23.833,4.946,5.563,16.692
1471,-0.474,34.782,14.852,31.84,23.829,4.866,5.604,16.611
1472,-0.494,34.888,14.723,31.85,23.826,4.784,5.523,16.529
1473,-0.488,35.033,14.819,31.821,23.826,4.824,5.563,16.406
1474,-0.468,34.833,14.832,31.84,23.836,4.824,5.604,16.405
1475,-0.432,34.955,14.848,31.83,23.833,4.783,5.564,16.161
1476,-0.396,35.081,14.704,31.84,23.829,4.783,5.563,16.037
1477,-0.341,35.198,14.823,31.83,23.836,4.824,5.523,16.158
1478,-0.285,34.796,14.879,31.821,23.833,4.865,5.603,16.362
1479,-0.226,34.974,14.872,31.869,23.829,4.824,5.482,16.527
1480,-0.16,35.082,14.809,31.812,23.829,4.783,5.481,16.569
1481,-0.094,35.179,14.894,31.83,23.84,4.824,5.562,16.773
1482,-0.012,34.71,14.923,31.821,23.836,4.865,5.604,16.978
1483,0.034,34.839,14.821,31.83,23.836,4.865,5.564,17.143
1484,0.083,34.994,14.813,31.821,23.829,4.865,5.482,17.226
1485,0.133,35.063,14.836,31.84,23.836,4.906,5.522,17.43
1486,0.201,35.917,14.875,31.84,23.84,4.865,5.644,17.717
1487,0.27,36.069,14.805,31.821,23.829,4.865,5.564,17.801
1488,0.317,36.157,14.855,31.811,23.826,4.784,5.523,17.842
1489,0.369,36.244,14.918,31.821,23.836,4.864,5.563,17.802
1490,0.399,34.107,14.872,31.83,23.84,4.865,5.563,17.842
1491,0.435,34.277,14.872,31.849,23.836,4.906,5.523,17.721
1492,0.468,34.403,14.864,31.821,23.822,4.825,5.522,17.638
1493,0.52,34.443,14.911,31.821,23.836,4.824,5.563,17.353
1494,0.563,34.875,14.942,31.849,23.833,4.824,5.523,17.309
1495,0.599,35.042,14.849,31.831,23.836,4.865,5.563,17.106
1496,0.609,35.159,14.883,31.811,23.833,4.784,5.604,16.941
1497,0.642,35.256,14.844,31.821,23.833,4.824,5.523,16.736
1498,0.655,34.605,14.836,31.84,23.84,4.946,5.644,16.612
1499,0.672,34.761,14.84,31.84,23.833,4.825,5.605,16.367
1500,0.695,34.859,14.875,31.811,23.829,4.824,5.523,16.161
1501,0.708,34.745,14.903,31.821,23.829,4.824,5.522,15.996
1502,0.731,34.811,14.821,31.84,23.84,4.824,5.603,15.954
1503,0.731,34.955,14.836,31.859,23.84,4.865,5.564,15.872
1504,0.738,35.053,14.848,31.802,23.84,4.784,5.563,15.79
1505,0.738,34.766,14.864,31.811,23.829,4.742,5.482,15.708
1506,0.751,34.888,14.879,31.84,23.84,4.823,5.562,15.707
1507,0.757,35.052,14.868,31.83,23.829,4.824,5.563,15.626
1508,0.764,35.149,14.891,31.811,23.833,4.743,5.482,15.544
1509,0.774,34.681,14.88,31.83,23.829,4.864,5.522,15.38
1510,0.774,34.839,14.876,31.84,23.836,4.824,5.522,15.378
1511,0.79,34.956,14.84,31.84,23.84,4.824,5.482,15.256
1512,0.787,35.053,14.899,31.802,23.829,4.824,5.522,15.052
1513,0.806,34.68,14.868,31.811,23.833,4.824,5.482,14.887
1514,0.826,34.829,14.86,31.84,23.84,4.865,5.562,14.845
1515,0.823,34.955,14.829,31.821,23.836,4.824,5.563,14.763
1516,0.833,35.043,14.84,31.811,23.833,4.824,5.563,14.6
1517,0.839,34.823,14.883,31.83,23.833,4.783,5.563,14.436
1518,0.846,35.003,14.817,31.859,23.843,4.864,5.563,14.393
1519,0.853,35.13,14.875,31.831,23.833,4.784,5.523,14.271
1520,0.862,35.179,14.872,31.811,23.829,4.824,5.482,14.107
1521,0.866,34.595,14.836,31.821,23.836,4.743,5.481,14.024
1522,0.876,34.752,14.809,31.821,23.84,4.823,5.481,13.942
1523,0.853,34.888,14.836,31.821,23.833,4.865,5.562,13.9
1524,0.849,34.927,14.848,31.821,23.829,4.784,5.563,13.778
1525,0.859,34.841,14.883,31.811,23.833,4.783,5.482,13.696
1526,0.856,34.984,14.848,31.83,23.836,4.824,5.522,13.654
1527,0.849,35.13,14.84,31.84,23.84,4.824,5.482,13.694
1528,0.853,35.121,14.906,31.811,23.829,4.824,5.603,13.654
1529,0.853,34.69,14.825,31.821,23.829,4.865,5.523,13.532
1530,0.862,34.848,14.859,31.83,23.84,4.865,5.563,13.531
1531,0.856,34.946,14.907,31.83,23.84,4.906,5.645,13.49
1532,0.849,34.794,14.907,31.802,23.826,4.865,5.564,13.408
1533,0.866,34.754,14.782,31.821,23.833,4.784,5.482,13.204
1534,0.879,34.926,14.808,31.83,23.836,4.864,5.562,13.202
1535,0.876,35.014,14.902,31.849,23.833,4.906,5.563,13.161
1536,0.885,34.641,14.888,31.811,23.84,4.906,5.563,13.12
1537,0.898,34.714,14.821,31.811,23.833,4.825,5.482,12.998
1538,0.905,34.868,14.902,31.84,23.836,4.905,5.562,12.956
1539,0.908,34.985,14.899,31.811,23.84,4.865,5.604,12.956
1540,0.908,34.794,14.841,31.821,23.836,4.865,5.523,12.915
1541,0.905,34.965,14.813,31.811,23.836,4.824,5.482,12.833
1542,0.912,35.12,14.836,31.811,23.833,4.865,5.562,12.914
1543,0.892,35.188,14.801,31.821,23.829,4.865,5.563,12.833
1544,0.892,35.199,14.894,31.821,23.836,4.784,5.563,12.832
1545,0.895,35.343,14.833,31.83,23.833,4.824,5.482,12.792
1546,0.895,35.507,14.844,31.83,23.829,4.905,5.522,12.832
1547,0.895,35.576,14.871,31.83,23.836,4.825,5.563,12.832
1548,0.889,34.244,14.813,31.821,23.833,4.783,5.563,12.873
1549,0.899,34.412,14.867,31.83,23.833,4.783,5.482,12.873
1550,0.892,34.568,14.883,31.84,23.843,4.864,5.562,12.914
1551,0.886,34.656,14.915,31.83,23.829,4.824,5.523,12.833
1552,0.892,34.599,14.81,31.83,23.833,4.783,5.563,12.832
1553,0.902,34.761,14.832,31.83,23.833,4.824,5.523,12.71
1554,0.905,34.897,14.852,31.83,23.833,4.824,5.482,12.709
1555,0.905,34.947,14.903,31.811,23.833,4.824,5.522,12.709
1556,0.905,34.583,14.86,31.821,23.833,4.824,5.603,12.75
1557,0.912,34.742,14.864,31.821,23.833,4.783,5.482,12.709
1558,0.922,34.887,14.911,31.83,23.836,4.783,5.522,12.668
1559,0.931,34.908,14.813,31.84,23.833,4.824,5.482,12.79
1560,0.941,34.649,14.887,31.85,23.84,4.946,5.603,12.913
1561,0.935,34.791,14.876,31.84,23.829,4.744,5.523,12.792
1562,0.935,34.907,14.899,31.821,23.829,4.742,5.482,12.832
1563,0.931,34.927,14.888,31.84,23.836,4.823,5.562,12.832
1564,0.944,34.621,14.821,31.83,23.843,4.905,5.645,12.954
1565,0.935,34.762,14.836,31.811,23.829,4.825,5.483,12.874
1566,0.925,34.878,14.805,31.83,23.826,4.743,5.4,12.873
1567,0.925,34.716,14.805,31.84,23.836,4.823,5.521,13.036
1568,0.925,34.782,14.828,31.84,23.84,4.987,5.644,13.16
1569,0.922,34.936,14.844,31.811,23.829,4.785,5.483,12.917
1570,0.935,35.043,14.891,31.811,23.829,4.783,5.481,12.955
1571,0.935,34.536,14.739,31.849,23.84,4.864,5.44,12.915
1572,0.931,34.665,14.851,31.84,23.843,4.987,5.562,12.955
1573,0.944,34.781,14.868,31.811,23.829,4.785,5.441,12.752
1574,0.954,34.897,14.907,31.821,23.829,4.824,5.359,12.669
1575,0.951,35.004,14.899,31.83,23.833,4.824,5.48,12.709
1576,0.974,35.168,14.86,31.84,23.836,4.946,5.562,12.831
1577,0.974,35.285,14.911,31.821,23.833,4.866,5.401,12.71
1578,0.977,35.382,14.825,31.811,23.836,4.865,5.399,12.75
1579,0.987,34.232,14.887,31.83,23.833,4.906,5.44,12.75
1580,0.997,34.364,14.895,31.821,23.836,4.906,5.481,12.669
1581,0.997,34.548,14.927,31.811,23.829,4.825,5.44,12.627
1582,1.004,34.627,14.821,31.83,23.836,4.865,5.399,12.708
1583,0.994,34.618,14.906,31.859,23.833,4.906,5.44,12.709
1584,0.981,34.752,14.891,31.811,23.829,4.947,5.521,12.75
1585,0.984,34.897,14.872,31.821,23.833,4.825,5.441,12.628
1586,0.978,34.947,14.911,31.821,23.836,4.987,5.44,12.749
1587,0.981,34.448,14.81,31.821,23.84,4.907,5.481,12.75
1588,0.984,34.587,14.867,31.83,23.833,4.947,5.481,12.791
1589,0.984,34.742,14.821,31.821,23.829,4.907,5.481,12.751
1590,1.0,34.82,14.859,31.84,23.833,4.906,5.481,12.75
1591,1.004,34.495,14.836,31.83,23.833,4.906,5.44,12.75
1592,0.997,34.655,14.899,31.821,23.833,4.906,5.481,12.791
1593,1.004,34.781,14.891,31.821,23.829,4.865,5.481,12.71
1594,1.02,34.83,14.852,31.84,23.84,4.946,5.481,12.79
1595,1.027,34.629,14.84,31.83,23.833,4.866,5.481,12.791
1596,1.03,34.742,14.86,31.84,23.833,4.906,5.44,12.873
1597,1.04,34.868,14.844,31.811,23.829,4.906,5.399,12.833
1598,1.043,34.678,14.828,31.849,23.833,4.906,5.521,12.914
1599,1.05,34.618,14.902,31.821,23.836,4.906,5.522,12.915
1600,1.063,34.752,14.884,31.811,23.833,4.865,5.482,12.955
1601,1.069,34.888,14.833,31.821,23.833,4.865,5.4,12.996
1602,1.073,34.544,14.86,31.84,23.836,4.906,5.521,12.956
1603,1.073,34.636,14.891,31.83,23.833,4.865,5.482,12.996
1604,1.069,34.771,14.919,31.821,23.829,4.906,5.481,13.078
1605,1.06,34.869,14.911,31.821,23.833,4.906,5.522,13.079
1606,1.063,34.544,14.903,31.83,23.84,4.947,5.482,13.16
1607,1.06,34.665,14.841,31.83,23.836,4.947,5.562,13.242
1608,1.06,34.8,14.856,31.821,23.84,4.907,5.482,13.324
1609,1.063,34.917,14.852,31.83,23.829,4.865,5.44,13.244
1610,1.076,34.41,14.848,31.849,23.833,4.946,5.521,13.284
1611,1.083,34.558,14.891,31.84,23.84,4.988,5.482,13.284
1612,1.073,34.694,14.837,31.84,23.833,4.907,5.481,13.284
1613,1.089,34.781,14.828,31.83,23.829,4.906,5.44,13.243
1614,1.105,34.543,14.84,31.84,23.836,4.865,5.481,13.202
1615,1.122,34.684,14.867,31.83,23.836,4.946,5.522,13.202
1616,1.122,34.82,14.895,31.84,23.833,4.907,5.522,13.202
1617,1.142,34.927,14.845,31.83,23.829,4.825,5.36,13.121
1618,1.145,34.525,14.91,31.849,23.836,4.905,5.399,13.16
1619,1.152,34.684,14.864,31.859,23.833,4.906,5.44,13.202
1620,1.161,34.829,14.844,31.85,23.829,4.906,5.521,13.08
1621,1.158,34.879,14.852,31.84,23.833,4.865,5.4,13.038
1622,1.178,34.524,14.895,31.84,23.833,4.865,5.48,12.956
1623,1.175,34.655,14.848,31.84,23.833,4.906,5.481,13.078
1624,1.178,34.81,14.867,31.83,23.84,4.906,5.44,13.119
1625,1.175,34.859,14.86,31.859,23.833,4.865,5.481,13.16
1626,1.175,34.745,14.864,31.84,23.836,4.865,5.481,13.202
1627,1.178,34.868,14.926,31.84,23.833,4.987,5.481,13.243
1628,1.188,35.013,14.876,31.84,23.833,4.948,5.522,13.324
1629,1.194,34.813,14.899,31.83,23.836,4.866,5.441,13.203
1630,1.194,34.437,14.891,31.849,23.829,4.824,5.521,13.283
1631,1.198,34.587,14.844,31.831,23.829,4.905,5.4,13.365
1632,1.204,34.723,14.836,31.859,23.84,4.906,5.562,13.325
1633,1.214,34.542,14.828,31.84,23.833,4.906,5.482,13.244
1634,1.221,34.607,14.871,31.859,23.829,4.865,5.481,13.162
1635,1.23,34.761,14.844,31.831,23.836,4.906,5.481,13.202
1636,1.243,34.878,14.867,31.849,23.833,4.865,5.522,13.243
1637,1.26,34.381,14.84,31.84,23.833,4.906,5.441,13.202
1638,1.263,34.51,14.914,31.84,23.829,4.906,5.399,13.161
1639,1.267,34.665,14.817,31.859,23.84,4.906,5.48,13.12
1640,1.286,34.772,14.863,31.85,23.833,4.906,5.522,13.201
1641,1.286,34.619,14.914,31.821,23.829,4.825,5.4,13.08
1642,1.306,34.771,14.853,31.84,23.836,4.783,5.44,13.038
1643,1.296,34.907,14.825,31.85,23.84,4.864,5.481,13.078
1644,1.299,35.004,14.832,31.917,23.84,4.946,5.522,13.079
1645,1.303,34.641,14.832,31.85,23.826,4.825,5.482,12.957
1646,1.293,34.829,14.914,31.85,23.833,4.865,5.522,12.996
1647,1.296,34.965,14.88,31.84,23.836,4.865,5.4,13.037
1648,1.29,35.034,14.883,31.84,23.84,4.865,5.602,13.078
1649,1.306,34.622,14.883,31.83,23.84,4.824,5.442,13.038
1650,1.313,34.79,14.829,31.849,23.833,4.824,5.44,13.038
1651,1.326,34.955,14.836,31.85,23.84,4.865,5.521,13.078
1652,1.326,35.014,14.902,31.859,23.84,4.946,5.522,13.16
1653,1.329,34.823,14.923,31.831,23.829,4.825,5.441,12.876
1654,1.323,34.946,14.915,31.84,23.829,4.824,5.399,12.833
1655,1.329,35.091,14.86,31.85,23.833,4.905,5.44,12.995
1656,1.339,35.14,14.872,31.869,23.84,5.028,5.521,13.037
1657,1.342,34.987,14.872,31.84,23.833,4.826,5.441,12.794
1658,1.352,35.149,14.829,31.888,23.833,4.865,5.359,12.71
1659,1.359,35.285,14.856,31.85,23.84,4.906,5.439,12.831
1660,1.381,35.67,14.879,31.878,23.847,5.069,5.562,12.873
1661,1.375,35.204,14.79,31.821,23.829,4.826,5.401,12.629
1662,1.375,35.352,14.82,31.878,23.819,4.783,5.318,12.586
1663,1.365,35.469,14.848,31.86,23.836,4.905,5.439,12.627
1664,1.375,35.451,14.895,31.859,23.843,5.069,5.521,12.79
1665,1.349,35.432,14.868,31.84,23.829,4.867,5.319,12.751
1666,1.342,35.585,14.872,31.83,23.833,4.824,5.317,12.791
1667,1.349,35.73,14.868,31.859,23.84,4.905,5.48,12.994
1668,1.352,35.569,14.915,31.869,23.847,5.028,5.522,13.2
1669,1.352,35.624,14.739,31.84,23.826,4.867,5.36,13.039
1670,1.339,35.778,14.808,31.821,23.826,4.824,5.317,12.997
1671,1.345,35.905,14.887,31.849,23.833,4.865,5.398,13.119
1672,1.342,36.779,14.883,31.888,23.85,4.987,5.48,13.282
1673,1.332,36.902,14.86,31.841,23.829,4.907,5.359,13.04
1674,1.339,37.019,14.805,31.83,23.822,4.784,5.236,12.997
1675,1.345,37.116,14.89,31.859,23.836,4.905,5.438,13.078
1676,1.358,35.582,14.973,31.879,23.847,4.987,5.521,13.282
1677,1.346,35.682,14.849,31.821,23.826,4.866,5.441,13.162
1678,1.339,35.817,14.875,31.821,23.826,4.743,5.237,12.958
1679,1.339,35.934,14.887,31.859,23.826,4.905,5.397,13.118
1680,1.362,36.28,14.739,31.879,23.847,5.028,5.521,13.12
1681,1.352,36.399,14.796,31.84,23.833,4.826,5.4,12.957
1682,1.346,36.496,14.847,31.811,23.822,4.824,5.236,12.915
1683,1.339,36.593,14.91,31.849,23.836,4.905,5.397,13.077
1684,1.332,36.44,14.907,31.878,23.843,5.028,5.562,13.16
1685,1.31,36.535,14.829,31.812,23.833,4.826,5.36,13.161
1686,1.29,36.651,14.848,31.821,23.822,4.783,5.277,13.039
1687,1.299,36.719,14.895,31.859,23.84,4.905,5.438,13.282
1688,1.293,36.748,14.884,31.926,23.84,4.947,5.44,13.325
1689,1.267,36.835,14.805,31.831,23.833,4.785,5.359,13.203
1690,1.25,36.941,14.879,31.821,23.826,4.864,5.358,13.243
1691,1.273,36.99,14.844,31.849,23.84,4.906,5.399,13.202
1692,1.27,36.943,14.875,31.888,23.84,4.947,5.48,13.243
1693,1.244,37.038,14.829,31.841,23.833,4.785,5.359,13.04
1694,1.237,37.154,14.875,31.84,23.829,4.905,5.439,13.078
1695,1.247,37.165,14.93,31.85,23.836,4.947,5.481,13.119
1696,1.247,37.098,14.872,31.907,23.84,4.907,5.4,13.039
1697,1.234,37.222,14.891,31.831,23.829,4.865,5.358,12.956
1698,1.237,37.319,14.895,31.84,23.829,4.906,5.399,13.118
1699,1.237,37.234,14.845,31.907,23.836,4.906,5.48,13.12
1700,1.227,37.3,14.832,31.85,23.836,4.906,5.4,13.201
1701,1.204,37.416,14.883,31.821,23.833,4.784,5.318,13.039
1702,1.211,37.522,14.887,31.84,23.833,4.824,5.439,13.119
1703,1.194,37.293,14.817,31.85,23.833,4.905,5.481,13.16
1704,1.175,37.444,14.867,31.869,23.84,4.906,5.4,13.161
1705,1.158,37.523,14.852,31.831,23.829,4.865,5.358,13.12
1706,1.148,37.639,14.918,31.84,23.836,4.906,5.439,13.282
1707,1.145,37.467,14.868,31.859,23.84,4.947,5.481,13.365
1708,1.129,37.609,14.84,31.84,23.84,4.907,5.44,13.366
1709,1.112,37.707,14.883,31.83,23.829,4.865,5.318,13.407
1710,1.106,37.803,14.79,31.84,23.833,4.906,5.398,13.367
1711,1.102,37.45,14.84,31.869,23.84,4.906,5.521,13.488
1712,1.093,37.571,14.852,31.86,23.84,4.947,5.4,13.367
1713,1.089,37.668,14.875,31.84,23.829,4.866,5.358,13.285
1714,1.086,37.736,14.883,31.85,23.826,4.906,5.399,13.243
1715,1.079,37.487,14.778,31.85,23.833,5.028,5.521,13.284
1716,1.076,37.648,14.855,31.859,23.84,4.948,5.482,13.325
1717,1.063,37.745,14.891,31.821,23.829,4.866,5.4,13.284
1718,1.06,37.813,14.868,31.869,23.833,4.946,5.44,13.284
1719,1.056,37.565,14.844,31.86,23.84,4.988,5.481,13.284
1720,1.06,37.677,14.922,31.85,23.833,4.907,5.481,13.243
1721,1.04,37.774,14.88,31.84,23.829,4.865,5.44,13.121
1722,1.033,37.842,14.821,31.84,23.84,4.906,5.44,13.201
1723,1.024,37.718,14.887,31.84,23.84,4.947,5.521,13.202
1724,1.014,37.823,14.837,31.85,23.833,4.907,5.522,13.202
1725,0.997,37.948,14.852,31.821,23.826,4.865,5.4,13.243
1726,0.987,38.266,14.778,31.84,23.826,4.946,5.48,13.202
1727,0.984,37.704,14.828,31.85,23.84,4.988,5.522,13.324
1728,0.971,37.832,14.871,31.84,23.829,4.988,5.441,13.366
1729,0.958,37.939,14.79,31.84,23.829,4.866,5.44,13.407
1730,0.954,37.547,14.867,31.85,23.829,4.987,5.44,13.367
1731,0.958,37.514,14.883,31.859,23.836,4.948,5.481,13.285
1732,0.941,37.638,14.895,31.85,23.84,4.947,5.522,13.365
1733,0.932,37.716,14.837,31.831,23.84,4.907,5.482,13.447
1734,0.931,37.458,14.754,31.84,23.833,4.906,5.44,13.489
1735,0.935,37.58,14.835,31.859,23.836,4.947,5.521,13.571
1736,0.925,37.706,14.906,31.85,23.833,4.907,5.482,13.49
1737,0.912,37.794,14.876,31.888,23.833,4.865,5.481,13.571
1738,0.925,37.258,14.829,31.85,23.833,4.865,5.522,13.571
1739,0.931,37.406,14.918,31.85,23.833,4.987,5.441,13.571
1740,0.925,37.551,14.821,31.85,23.833,4.988,5.44,13.571
1741,0.899,37.62,14.852,31.831,23.84,4.907,5.481,13.49
1742,0.905,37.371,14.903,31.83,23.826,4.906,5.44,13.571
1743,0.902,37.531,14.919,31.859,23.833,4.906,5.481,13.612
1744,0.886,37.639,14.946,31.859,23.84,4.906,5.481,13.653
1745,0.866,37.697,14.833,31.84,23.836,4.906,5.44,13.613
1746,0.862,37.295,14.914,31.859,23.829,4.906,5.481,13.531
1747,0.862,37.444,14.931,31.85,23.833,4.947,5.481,13.531
1748,0.853,37.571,14.814,31.85,23.836,4.988,5.522,13.653
1749,0.849,37.639,14.84,31.869,23.829,4.988,5.482,13.613
1750,0.84,37.333,14.856,31.85,23.84,4.866,5.44,13.531
1751,0.839,37.502,14.86,31.869,23.84,4.906,5.44,13.449
1752,0.836,37.619,14.793,31.86,23.829,4.987,5.603,13.408
1753,0.843,37.668,14.836,31.859,23.836,4.988,5.604,13.407
1754,0.853,37.113,14.832,31.85,23.829,4.907,5.36,13.204
1755,0.862,37.27,14.856,31.859,23.836,4.865,5.399,13.121
1756,0.856,37.377,14.836,31.859,23.833,4.906,5.562,13.12
1757,0.856,37.417,14.852,31.879,23.85,4.987,5.645,13.201
1758,0.846,37.043,14.891,31.85,23.836,4.907,5.483,13.08
1759,0.856,37.183,14.817,31.84,23.826,4.784,5.4,12.997
1760,0.853,37.319,14.855,31.85,23.836,4.905,5.48,12.996
1761,0.866,37.157,14.879,31.878,23.847,4.987,5.603,13.078
1762,0.856,36.973,14.86,31.86,23.833,4.907,5.442,12.876
1763,0.846,37.134,14.848,31.85,23.829,4.865,5.399,12.833
1764,0.833,37.242,14.754,31.859,23.833,4.865,5.521,12.995
1765,0.83,36.955,14.863,31.879,23.843,4.987,5.563,13.119
1766,0.81,37.01,14.887,31.86,23.833,4.866,5.482,13.039
1767,0.813,37.154,14.844,31.85,23.822,4.865,5.4,12.956
1768,0.813,37.28,14.91,31.859,23.833,4.906,5.521,13.2
1769,0.82,36.744,14.907,31.879,23.847,4.987,5.644,13.405
1770,0.807,36.835,14.895,31.85,23.833,4.826,5.483,13.204
1771,0.807,36.989,14.837,31.898,23.829,4.865,5.44,13.202
1772,0.797,37.087,14.856,31.86,23.84,4.987,5.521,13.283
1773,0.82,36.723,14.903,31.898,23.847,5.07,5.644,13.406
1774,0.826,36.844,14.864,31.85,23.829,4.867,5.442,13.163
1775,0.82,36.97,14.926,31.85,23.829,4.865,5.44,13.12
1776,0.833,37.077,14.833,31.878,23.829,4.946,5.562,13.201
1777,0.839,36.598,14.895,31.888,23.847,4.988,5.604,13.243
1778,0.83,36.718,14.794,31.86,23.829,4.826,5.442,13.04
1779,0.836,36.854,14.808,31.869,23.829,4.824,5.521,12.916
1780,0.846,36.941,14.871,31.86,23.836,4.865,5.522,12.955
1781,0.849,36.492,14.872,31.879,23.85,4.987,5.603,13.078
1782,0.853,36.631,14.797,31.86,23.836,4.826,5.523,12.916
1783,0.83,36.776,14.808,31.869,23.829,4.865,5.482,12.915
1784,0.83,36.845,14.879,31.879,23.833,4.906,5.562,13.077
1785,0.833,36.596,14.876,31.879,23.843,4.906,5.685,13.282
1786,0.807,36.728,14.844,31.86,23.826,4.865,5.483,13.203
1787,0.816,36.873,14.864,31.869,23.833,4.824,5.481,13.243
1788,0.816,36.894,14.918,31.869,23.833,4.946,5.562,13.487
1789,0.816,36.309,14.845,31.888,23.84,4.947,5.604,13.53
1790,0.807,36.447,14.848,31.86,23.833,4.866,5.482,13.327
1791,0.81,36.563,14.883,31.888,23.826,4.784,5.481,13.366
1792,0.816,36.699,14.864,31.888,23.833,4.946,5.603,13.529
1793,0.816,36.403,14.895,31.888,23.84,4.988,5.604,13.49
1794,0.82,36.525,14.817,31.879,23.826,4.907,5.482,13.327
1795,0.82,36.65,14.84,31.869,23.829,4.865,5.481,13.366
1796,0.833,36.249,14.918,31.869,23.836,4.906,5.522,13.407
1797,0.836,36.235,14.825,31.888,23.84,4.947,5.644,13.489
1798,0.836,36.389,14.879,31.869,23.833,4.866,5.523,13.367
1799,0.839,36.496,14.852,31.879,23.829,4.824,5.441,13.285
1800,0.843,37.763,14.868,31.86,23.829,4.865,5.603,13.325
1801,0.856,37.986,14.848,31.917,23.843,5.028,5.645,13.447
1802,0.853,38.075,14.844,31.879,23.833,4.867,5.564,13.286
1803,0.83,38.143,14.922,31.86,23.833,4.824,5.401,13.365
1804,0.83,35.401,14.892,31.869,23.836,4.946,5.521,13.447
1805,0.852,35.507,14.876,31.907,23.84,5.069,5.725,13.57
1806,0.83,35.633,14.79,31.869,23.833,4.908,5.484,13.449
1807,0.826,35.75,14.859,31.85,23.829,4.784,5.481,13.448
1808,0.826,36.269,14.817,31.888,23.829,4.986,5.562,13.611
1809,0.826,36.456,14.883,31.908,23.843,5.029,5.726,13.694
1810,0.82,36.554,14.919,31.869,23.829,4.867,5.484,13.573
1811,0.82,36.612,14.899,31.86,23.822,4.743,5.481,13.368
1812,0.823,35.846,14.848,31.898,23.836,4.905,5.603,13.569
1813,0.846,36.02,14.731,31.946,23.847,5.028,5.726,13.571
1814,0.83,36.166,14.886,31.86,23.829,4.826,5.524,13.368
1815,0.813,36.196,14.813,31.859,23.822,4.824,5.4,13.244
1816,0.839,35.976,14.777,31.898,23.836,4.905,5.562,13.406
1817,0.849,36.185,14.82,31.917,23.847,5.028,5.685,13.407
1818,0.849,36.263,14.871,31.879,23.833,4.867,5.483,13.204
1819,0.853,36.303,14.801,31.85,23.829,4.784,5.44,13.121
1820,0.866,35.977,14.859,31.888,23.836,4.986,5.603,13.201
1821,0.882,36.137,14.918,31.908,23.85,5.029,5.686,13.202
1822,0.863,36.234,14.907,31.86,23.826,4.826,5.442,12.999
1823,0.843,36.245,14.876,31.85,23.826,4.824,5.481,12.915
1824,0.849,35.957,14.813,31.898,23.833,4.946,5.562,13.077
1825,0.843,36.127,14.875,31.927,23.843,4.988,5.685,13.201
1826,0.833,36.186,14.907,31.879,23.826,4.866,5.524,13.121
1827,0.82,35.957,14.786,31.85,23.826,4.824,5.441,13.16
1828,0.839,35.916,14.832,31.888,23.84,4.905,5.562,13.202
1829,0.843,36.088,14.918,31.879,23.84,4.947,5.645,13.202
1830,0.826,36.138,14.849,31.879,23.84,4.825,5.483,13.121
1831,0.823,35.784,14.844,31.869,23.829,4.824,5.481,13.201
1832,0.826,35.895,14.867,31.898,23.84,4.987,5.522,13.283
1833,0.836,36.03,14.911,31.888,23.833,4.907,5.482,13.203
1834,0.83,36.109,14.876,31.86,23.822,4.825,5.481,13.121
1835,0.846,35.793,14.864,31.888,23.84,4.905,5.522,13.16
1836,0.849,35.924,14.872,31.888,23.833,4.906,5.563,13.202
1837,0.846,36.04,14.918,31.888,23.836,4.906,5.523,13.161
1838,0.836,36.128,14.899,31.879,23.826,4.825,5.482,13.08
1839,0.846,35.678,14.868,31.888,23.826,4.905,5.603,13.038
1840,0.849,35.836,14.942,31.888,23.84,4.947,5.645,13.078
1841,0.843,35.944,14.837,31.869,23.833,4.907,5.564,12.997
1842,0.833,36.041,14.77,31.888,23.829,4.865,5.482,12.956
1843,0.839,35.744,14.835,31.879,23.836,4.906,5.522,12.996
1844,0.833,35.904,14.86,31.898,23.833,4.947,5.685,13.078
1845,0.833,36.031,14.914,31.888,23.833,4.866,5.564,12.997
1846,0.82,36.08,14.771,31.898,23.826,4.865,5.563,13.119
1847,0.823,35.668,14.871,31.898,23.833,4.865,5.523,13.039
1848,0.833,35.817,14.899,31.898,23.833,4.946,5.603,13.2
1849,0.833,35.943,14.809,31.917,23.84,4.907,5.564,13.08
1850,0.83,36.002,14.851,31.889,23.833,4.906,5.563,13.079
1851,0.833,35.725,14.84,31.898,23.829,4.906,5.604,13.038
1852,0.833,35.875,14.879,31.898,23.833,4.906,5.564,12.997
1853,0.836,35.973,14.801,31.888,23.833,4.865,5.604,13.037
1854,0.839,36.002,14.762,31.898,23.833,4.987,5.604,12.997
1855,0.843,35.6,14.843,31.888,23.833,4.907,5.482,12.956
1856,0.849,35.759,14.864,31.888,23.836,4.865,5.481,12.996
1857,0.849,35.876,14.914,31.908,23.833,4.906,5.522,13.037
1858,0.843,35.867,14.864,31.889,23.84,4.906,5.603,13.078
1859,0.856,35.589,14.914,31.908,23.833,4.865,5.523,12.957
1860,0.853,35.749,14.794,31.889,23.833,4.865,5.482,12.956
1861,0.856,35.866,14.847,31.898,23.836,4.865,5.562,12.956
1862,0.856,35.618,14.895,31.927,23.84,4.946,5.645,13.037
1863,0.849,35.663,14.876,31.898,23.833,4.866,5.483,12.875
1864,0.83,35.808,14.903,31.888,23.833,4.824,5.44,12.914
1865,0.833,35.915,14.79,31.908,23.833,4.905,5.562,13.037
1866,0.833,35.59,14.879,31.908,23.84,4.987,5.604,13.2
1867,0.826,35.682,14.876,31.889,23.826,4.826,5.482,13.039
1868,0.817,35.827,14.825,31.879,23.829,4.783,5.44,13.038
1869,0.82,35.934,14.867,31.907,23.84,4.905,5.643,13.2
1870,0.823,35.619,14.895,31.937,23.84,4.987,5.686,13.243
1871,0.817,35.74,14.829,31.889,23.829,4.866,5.524,13.121
1872,0.813,35.885,14.809,31.879,23.819,4.784,5.441,13.039
1873,0.826,35.982,14.863,31.888,23.833,4.905,5.643,13.038
1874,0.836,35.418,14.883,31.917,23.847,4.947,5.605,13.241
1875,0.82,35.527,14.938,31.889,23.833,4.825,5.523,12.958
1876,0.823,35.662,14.9,31.879,23.819,4.783,5.482,12.915
1877,0.826,35.76,14.895,31.907,23.84,4.905,5.562,13.118
1878,0.843,35.444,14.864,31.937,23.84,5.028,5.685,13.282
1879,0.836,35.585,14.821,31.908,23.826,4.826,5.483,13.121
1880,0.826,35.701,14.867,31.869,23.822,4.743,5.44,12.957
1881,0.839,35.789,14.883,31.898,23.84,4.905,5.643,13.118
1882,0.849,35.416,14.848,31.927,23.847,4.987,5.686,13.201
1883,0.817,35.517,14.832,31.908,23.826,4.826,5.524,12.999
1884,0.813,35.634,14.844,31.879,23.826,4.783,5.441,13.078
1885,0.826,35.702,14.891,31.907,23.843,4.905,5.521,13.201
1886,0.823,35.511,14.891,31.937,23.85,4.987,5.644,13.405
1887,0.804,35.624,14.844,31.889,23.833,4.785,5.523,13.326
1888,0.797,35.721,14.864,31.869,23.826,4.824,5.482,13.284
1889,0.803,36.086,14.864,31.907,23.829,4.905,5.644,13.447
1890,0.813,35.438,14.833,31.956,23.843,4.987,5.645,13.53
1891,0.8,35.537,14.871,31.908,23.836,4.866,5.483,13.449
1892,0.797,35.634,14.891,31.898,23.829,4.824,5.481,13.448
1893,0.816,35.491,14.868,31.908,23.836,4.946,5.603,13.489
1894,0.829,35.48,14.786,31.927,23.84,4.907,5.604,13.367
1895,0.817,35.595,14.793,31.898,23.833,4.906,5.482,13.244
1896,0.816,35.701,14.832,31.898,23.826,4.906,5.562,13.284
1897,0.829,35.376,14.75,31.917,23.836,4.987,5.645,13.365
1898,0.826,35.46,14.827,31.908,23.84,4.866,5.523,13.285
1899,0.826,35.585,14.906,31.898,23.826,4.824,5.482,13.121
1900,0.82,35.692,14.86,31.927,23.833,4.865,5.562,13.201
1901,0.833,35.338,14.883,31.937,23.843,4.906,5.523,13.243
1902,0.83,35.469,14.88,31.899,23.833,4.865,5.522,13.202
1903,0.823,35.604,14.926,31.888,23.826,4.784,5.603,13.202
1904,0.817,35.711,14.9,31.908,23.826,4.905,5.482,13.243
1905,0.826,35.482,14.884,31.927,23.843,4.987,5.603,13.365
1906,0.817,35.624,14.852,31.918,23.84,4.866,5.564,13.325
1907,0.8,35.74,14.844,31.908,23.826,4.824,5.482,13.366
1908,0.803,35.837,14.778,31.908,23.833,4.824,5.481,13.325
1909,0.803,35.282,14.828,31.917,23.84,4.905,5.562,13.325
1910,0.79,35.439,14.871,31.908,23.836,4.865,5.563,13.325
1911,0.793,35.537,14.856,31.927,23.833,4.865,5.563,13.284
1912,0.793,35.624,14.809,31.918,23.833,4.865,5.563,13.325
1913,0.803,35.452,14.871,31.927,23.84,4.865,5.563,13.284
1914,0.8,35.585,14.907,31.918,23.836,4.824,5.563,13.365
1915,0.803,35.721,14.927,31.927,23.833,4.865,5.563,13.366
1916,0.807,35.77,14.845,31.927,23.826,4.824,5.604,13.285
1917,0.82,35.396,14.852,31.908,23.833,4.865,5.564,13.365
1918,0.83,35.527,14.871,31.917,23.833,4.865,5.563,13.285
1919,0.817,35.672,14.852,31.927,23.833,4.865,5.604,13.365
1920,0.816,35.702,14.852,31.898,23.833,4.906,5.564,13.163
1921,0.829,35.415,14.895,31.908,23.833,4.865,5.563,13.242
1922,0.817,35.546,14.872,31.927,23.833,4.906,5.523,13.243
1923,0.81,35.663,14.766,31.927,23.836,4.865,5.603,13.365
1924,0.803,35.577,14.89,31.927,23.833,4.824,5.564,13.285
1925,0.807,35.394,14.891,31.918,23.826,4.905,5.523,13.406
1926,0.794,35.536,14.919,31.927,23.833,4.906,5.603,13.529
1927,0.806,35.653,14.872,31.937,23.833,4.947,5.604,13.571
1928,0.8,35.443,14.887,31.918,23.829,4.825,5.523,13.531
1929,0.8,35.499,14.883,31.927,23.829,4.905,5.482,13.49
1930,0.787,35.662,14.856,31.946,23.833,4.865,5.522,13.53
1931,0.79,35.779,14.868,31.946,23.84,4.946,5.563,13.571
1932,0.79,35.416,14.848,31.918,23.826,4.825,5.441,13.327
1933,0.8,35.517,14.86,31.937,23.819,4.865,5.521,13.203
1934,0.8,35.672,14.879,31.918,23.833,4.946,5.522,13.283
1935,0.807,35.798,14.868,31.956,23.843,4.988,5.644,13.284
1936,0.807,35.406,14.856,31.918,23.833,4.826,5.523,13.203
1937,0.816,35.546,14.821,31.927,23.826,4.824,5.482,13.121
1938,0.816,35.701,14.859,31.956,23.833,4.905,5.644,13.242
1939,0.82,35.789,14.832,31.966,23.84,4.947,5.727,13.202
1940,0.817,35.588,14.879,31.928,23.829,4.825,5.565,13.039
1941,0.82,35.768,14.778,31.927,23.826,4.865,5.482,12.875
1942,0.817,35.905,14.836,31.927,23.84,4.865,5.644,12.914
1943,0.813,36.002,14.883,31.965,23.847,4.987,5.686,13.037
1944,0.8,35.533,14.86,31.918,23.829,4.826,5.564,12.875
1945,0.807,35.682,14.868,31.917,23.822,4.743,5.523,12.792
1946,0.794,35.856,14.813,31.937,23.833,4.905,5.644,12.913
1947,0.806,35.915,14.894,31.985,23.854,4.987,5.727,13.158
1948,0.79,35.532,14.798,31.928,23.833,4.866,5.565,12.876
1949,0.784,35.691,14.828,31.908,23.826,4.784,5.523,12.792
1950,0.793,35.827,14.93,31.937,23.836,5.027,5.644,12.873
1951,0.8,35.905,14.923,31.994,23.85,5.03,5.727,12.995
1952,0.781,35.628,14.864,31.937,23.826,4.826,5.524,12.753
1953,0.784,35.759,14.856,31.927,23.829,4.783,5.482,12.628
1954,0.793,35.904,14.844,31.956,23.836,4.905,5.684,12.708
1955,0.819,36.251,14.887,31.975,23.84,4.987,5.727,12.668
1956,0.803,35.622,14.841,31.937,23.829,4.826,5.565,12.546
1957,0.797,35.778,14.856,31.908,23.826,4.824,5.645,12.586
1958,0.82,35.924,14.868,31.965,23.833,4.865,5.645,12.708
1959,0.83,35.849,14.856,31.995,23.836,4.906,5.645,12.587
1960,0.82,35.857,14.832,31.928,23.826,4.784,5.605,12.464
1961,0.813,35.992,14.883,31.937,23.833,4.864,5.645,12.503
1962,0.816,36.099,14.856,31.946,23.84,4.865,5.727,12.585
1963,0.82,35.706,14.821,31.946,23.833,4.824,5.646,12.545
1964,0.8,35.779,14.668,31.956,23.826,4.743,5.564,12.504
1965,0.79,35.933,14.819,31.947,23.833,4.823,5.645,12.626
1966,0.79,36.05,14.891,31.966,23.84,4.824,5.686,12.749
1967,0.787,35.725,14.856,31.956,23.836,4.824,5.605,12.791
1968,0.774,35.847,14.879,31.947,23.826,4.824,5.523,12.751
1969,0.774,36.011,14.856,31.937,23.833,4.824,5.603,12.872
1970,0.777,36.108,14.832,32.013,23.833,4.865,5.604,12.955
1971,0.774,35.735,14.813,31.957,23.833,4.865,5.604,12.915
1972,0.774,35.885,14.891,31.927,23.829,4.743,5.564,12.792
1973,0.787,36.03,14.926,31.946,23.833,4.823,5.604,12.791
1974,0.784,36.109,14.876,31.966,23.836,4.946,5.645,12.832
1975,0.787,35.697,14.879,32.043,23.833,4.785,5.645,12.873
1976,0.787,35.827,14.868,31.938,23.833,4.824,5.605,12.792
1977,0.787,35.953,14.911,31.956,23.833,4.905,5.604,12.832
1978,0.813,36.069,14.849,31.985,23.836,4.906,5.686,12.914
1979,0.807,36.042,14.891,31.956,23.843,4.825,5.564,12.833
1980,0.807,36.166,14.891,31.927,23.833,4.783,5.563,12.751
1981,0.807,36.321,14.802,31.956,23.829,4.783,5.604,12.791
1982,0.807,36.38,14.859,31.966,23.836,4.824,5.686,12.954
1983,0.787,35.7,14.84,31.947,23.833,4.824,5.605,12.956
1984,0.78,35.837,14.887,31.956,23.833,4.824,5.564,12.956
1985,0.784,35.972,14.86,31.956,23.833,4.824,5.563,13.037
1986,0.787,36.022,14.86,31.985,23.836,4.865,5.604,13.16
1987,0.787,35.936,14.864,31.976,23.836,4.865,5.604,13.202
1988,0.771,36.069,14.797,31.947,23.829,4.784,5.523,13.121
1989,0.78,36.214,14.851,31.966,23.836,4.824,5.603,13.12
1990,0.774,36.014,14.868,31.975,23.84,4.946,5.645,13.201
1991,0.774,35.83,14.918,31.947,23.833,4.907,5.686,13.202
1992,0.761,35.943,14.821,31.946,23.822,4.744,5.564,13.121
1993,0.78,36.069,14.859,32.023,23.829,4.783,5.563,13.12
1994,0.793,35.956,14.883,31.986,23.833,4.824,5.645,13.242
1995,0.793,36.012,14.883,31.966,23.836,4.824,5.605,13.162
1996,0.797,36.128,14.848,31.956,23.829,4.824,5.523,13.12
1997,0.797,36.273,14.832,31.975,23.836,4.824,5.563,13.079
1998,0.8,35.727,14.871,31.976,23.84,4.987,5.604,13.201
1999,0.803,35.837,14.723,31.976,23.833,4.866,5.645,13.161
2000,0.807,35.972,14.847,31.947,23.826,4.824,5.564,13.039
2001,0.8,36.079,14.86,31.966,23.836,4.865,5.563,13.038
2002,0.8,35.754,14.895,31.975,23.84,4.865,5.685,13.078
2003,0.784,35.876,14.852,31.976,23.833,4.865,5.646,13.038
2004,0.787,36.011,14.789,31.976,23.833,4.865,5.645,13.16
2005,0.787,36.099,14.914,31.985,23.833,4.824,5.605,13.161
2006,0.784,35.917,14.907,31.966,23.833,4.865,5.604,13.242
2007,0.787,36.069,14.891,31.975,23.836,4.865,5.686,13.202
2008,0.774,36.195,14.821,31.966,23.833,4.824,5.605,13.283
2009,0.774,36.244,14.836,31.966,23.833,4.946,5.564,13.203
2010,0.767,35.708,14.836,32.004,23.833,4.866,5.645,13.202
2011,0.767,35.818,14.817,31.966,23.833,4.865,5.605,13.283
2012,0.764,35.953,14.867,31.975,23.836,4.906,5.686,13.243
2013,0.774,36.012,14.852,31.976,23.826,4.865,5.605,13.121
2014,0.79,35.888,14.883,31.985,23.833,4.946,5.482,13.079
2015,0.8,36.04,14.739,31.995,23.833,4.825,5.644,13.201
2016,0.797,36.185,14.87,31.976,23.836,4.905,5.686,13.08
2017,0.8,36.206,14.911,31.985,23.829,4.784,5.605,13.038
2018,0.813,35.851,14.856,31.995,23.833,4.864,5.645,12.956
2019,0.807,35.992,14.899,31.976,23.829,4.865,5.605,12.915
2020,0.8,36.099,14.891,31.966,23.833,4.865,5.645,12.915
2021,0.807,36.253,14.825,31.985,23.833,4.906,5.564,12.874
2022,0.807,35.919,14.793,31.976,23.836,4.865,5.604,12.914
2023,0.794,36.05,14.871,31.985,23.829,4.906,5.645,12.874
2024,0.777,36.166,14.84,31.985,23.833,4.906,5.686,12.955
2025,0.78,35.659,14.926,31.966,23.829,4.825,5.524,12.874
2026,0.777,35.635,14.888,31.985,23.84,4.824,5.522,12.914
2027,0.774,35.788,14.872,31.976,23.836,4.824,5.644,12.996
2028,0.777,35.886,14.876,31.985,23.843,4.905,5.605,13.119
2029,0.774,35.791,14.809,31.995,23.833,4.825,5.564,12.998
2030,0.771,35.924,14.879,31.985,23.833,4.824,5.523,13.078
2031,0.777,36.05,14.868,31.985,23.836,4.824,5.603,13.079
2032,0.774,36.157,14.833,32.004,23.84,4.946,5.686,13.16
2033,0.787,35.573,14.719,31.995,23.829,4.825,5.564,12.958
2034,0.78,35.73,14.812,31.985,23.833,4.905,5.523,12.915
2035,0.793,35.866,14.859,31.985,23.833,4.865,5.563,12.996
2036,0.8,35.934,14.786,32.014,23.836,4.906,5.645,13.037
2037,0.8,35.638,14.832,31.995,23.833,4.825,5.523,12.916
2038,0.803,35.779,14.848,31.995,23.833,4.783,5.522,12.874
2039,0.803,35.924,14.797,31.995,23.833,4.864,5.563,12.833
2040,0.82,36.012,14.883,31.995,23.836,4.906,5.685,12.914
2041,0.813,35.706,14.887,31.985,23.829,4.825,5.524,12.752
2042,0.807,35.846,14.93,31.976,23.836,4.824,5.522,12.669
2043,0.787,35.982,14.857,31.985,23.833,4.905,5.603,12.709
2044,0.79,36.07,14.829,32.004,23.836,4.947,5.645,12.75
2045,0.793,35.457,14.875,31.976,23.829,4.825,5.523,12.75
2046,0.787,35.623,14.883,31.995,23.826,4.824,5.563,12.669
2047,0.771,35.74,14.844,32.014,23.836,4.824,5.604,12.749
2048,0.78,35.799,14.864,32.014,23.843,4.905,5.645,12.831
2049,0.774,35.627,14.907,31.985,23.833,4.825,5.523,12.792
2050,0.777,35.778,14.782,32.004,23.833,4.743,5.482,12.669
2051,0.777,35.914,14.859,32.014,23.84,4.864,5.644,12.79
2052,0.784,35.954,14.926,32.043,23.843,4.906,5.767,12.791
2053,0.777,35.561,14.896,31.976,23.833,4.825,5.565,12.547
2054,0.787,35.691,14.872,31.966,23.829,4.743,5.441,12.545
2055,0.793,35.827,14.797,32.004,23.843,4.823,5.603,12.667
2056,0.806,35.694,14.859,32.024,23.847,5.027,5.686,12.749
2057,0.79,35.578,14.848,31.986,23.826,4.785,5.564,12.588
2058,0.79,35.711,14.832,31.976,23.829,4.742,5.523,12.627
2059,0.806,35.856,14.875,32.014,23.836,4.905,5.603,12.668
2060,0.813,35.512,14.903,32.024,23.843,4.906,5.564,12.749
2061,0.797,35.528,14.821,31.976,23.829,4.865,5.563,12.669
2062,0.787,35.672,14.82,31.985,23.833,4.824,5.523,12.668
2063,0.793,35.817,14.848,31.995,23.836,4.865,5.725,12.709
2064,0.793,35.445,14.867,32.014,23.833,4.824,5.605,12.75
2065,0.78,35.518,14.922,31.985,23.826,4.824,5.523,12.628
2066,0.771,35.691,14.88,32.004,23.833,4.824,5.563,12.708
2067,0.78,35.789,14.879,32.014,23.833,4.946,5.604,12.872
2068,0.787,35.454,14.891,32.005,23.836,4.866,5.604,12.751
2069,0.774,35.604,14.876,31.995,23.822,4.784,5.523,12.791
2070,0.774,35.74,14.883,32.014,23.829,4.864,5.563,12.791
2071,0.78,35.837,14.891,32.014,23.84,4.906,5.645,12.791
2072,0.774,35.301,14.848,32.014,23.829,4.906,5.645,12.751
2073,0.774,35.44,14.809,32.024,23.826,4.784,5.523,12.669
2074,0.774,35.594,14.828,31.995,23.829,4.824,5.522,12.627
2075,0.78,35.682,14.844,32.033,23.84,4.905,5.644,12.79
2076,0.787,35.405,14.782,32.005,23.829,4.825,5.564,12.751
2077,0.787,35.546,14.859,31.995,23.829,4.865,5.604,12.669
2078,0.803,35.72,14.875,32.004,23.826,4.824,5.482,12.749
2079,0.8,35.76,14.801,32.024,23.836,4.905,5.644,12.709
2080,0.797,35.367,14.793,32.024,23.829,4.865,5.564,12.709
2081,0.79,35.507,14.875,32.005,23.833,4.906,5.604,12.628
2082,0.8,35.633,14.879,31.995,23.826,4.865,5.564,12.546
2083,0.8,35.683,14.798,32.024,23.84,4.865,5.563,12.586
2084,0.787,35.376,14.808,32.024,23.833,4.865,5.645,12.627
2085,0.784,35.527,14.816,32.024,23.836,4.865,5.564,12.708
2086,0.79,35.672,14.902,32.005,23.829,4.865,5.563,12.75
2087,0.787,35.683,14.872,32.033,23.829,4.906,5.563,12.791
2088,0.777,35.395,14.852,32.014,23.836,4.906,5.563,12.954
2089,0.774,35.517,14.871,32.024,23.84,4.906,5.604,12.996
2090,0.764,35.634,14.797,32.005,23.833,4.865,5.564,12.875
2091,0.77,35.395,14.851,32.043,23.84,4.946,5.523,12.873
2092,0.77,35.373,14.864,32.015,23.833,4.988,5.563,12.873
2093,0.777,35.536,14.922,32.033,23.84,4.907,5.604,12.955
2094,0.78,35.643,14.907,31.995,23.829,4.865,5.482,12.833
2095,0.784,35.261,14.813,32.024,23.829,4.906,5.481,12.832
2096,0.793,35.372,14.844,32.034,23.836,4.865,5.562,12.873
2097,0.79,35.507,14.926,32.034,23.833,4.987,5.645,12.914
2098,0.797,35.614,14.864,32.034,23.829,4.826,5.442,12.792
2099,0.8,35.117,14.848,32.034,23.84,4.865,5.481,12.71
2100,0.813,35.246,14.887,32.024,23.836,4.824,5.481,12.75
2101,0.81,35.41,14.805,32.043,23.836,4.987,5.644,12.872
2102,0.8,35.479,14.836,32.005,23.829,4.866,5.564,12.711
2103,0.797,35.202,14.824,32.033,23.829,4.865,5.482,12.709
2104,0.79,35.352,14.895,32.043,23.833,4.906,5.603,12.872
2105,0.797,35.517,14.856,32.053,23.84,4.906,5.726,12.914
2106,0.781,35.586,14.86,32.015,23.829,4.906,5.484,12.752
2107,0.784,35.164,14.934,32.005,23.829,4.784,5.522,12.872
2108,0.793,35.313,14.868,32.024,23.833,4.905,5.603,12.955
2109,0.8,35.469,14.872,32.043,23.843,5.028,5.726,13.078
2110,0.787,35.528,14.84,32.043,23.833,4.867,5.565,12.957
2111,0.787,35.164,14.938,32.034,23.833,4.865,5.523,12.956
2112,0.79,35.313,14.868,32.034,23.84,4.946,5.603,13.037
2113,0.8,35.469,14.79,32.053,23.843,4.988,5.686,13.241
2114,0.81,35.489,14.836,32.034,23.833,4.826,5.524,13.08
2115,0.807,34.991,14.852,32.024,23.829,4.824,5.482,12.997
2116,0.813,35.149,14.852,32.043,23.843,4.905,5.603,13.119
2117,0.82,35.294,14.836,32.062,23.84,4.987,5.604,13.282
2118,0.817,35.526,14.899,32.024,23.826,4.866,5.523,13.162
