time,ecg,bvp,gsr,rsp,skt,emg_zygo,emg_coru,emg_trap
0,0.652,34.776,14.903,38.286,30.501,8.109,8.396,22.69
1,0.662,34.926,14.911,38.287,30.504,7.947,8.234,22.526
2,0.669,35.062,14.923,38.296,30.504,7.986,8.192,22.28
3,0.688,35.111,14.978,38.296,30.501,7.946,8.151,22.075
4,0.675,34.834,14.962,38.315,30.501,7.864,8.11,21.788
5,0.685,34.975,14.978,38.296,30.494,7.741,7.947,21.582
6,0.695,35.072,14.916,38.315,30.49,7.781,7.986,21.377
7,0.698,35.13,14.977,38.258,30.494,7.7,7.946,21.008
8,0.685,34.728,14.947,38.277,30.49,7.74,7.986,20.802
9,0.679,34.887,14.935,38.277,30.487,7.659,7.946,20.759
10,0.701,35.004,14.923,38.306,30.49,7.698,7.986,20.718
11,0.708,35.034,14.896,38.306,30.494,7.618,7.986,20.921
12,0.741,34.727,14.934,38.296,30.494,7.576,8.027,21.167
13,0.751,34.849,14.95,38.296,30.487,7.616,8.068,21.413
14,0.77,34.965,14.982,38.296,30.494,7.617,8.15,21.741
15,0.803,34.957,14.935,38.315,30.494,7.617,8.191,21.988
16,0.852,34.794,14.927,38.306,30.494,7.576,8.232,22.397
17,0.859,34.907,14.989,38.325,30.49,7.535,8.273,22.645
18,0.892,35.004,14.935,38.335,30.497,7.534,8.274,22.81
19,0.931,34.67,14.923,38.316,30.497,7.575,8.274,23.015
20,0.98,34.772,14.876,38.325,30.49,7.454,8.314,23.098
21,1.049,34.897,14.922,38.316,30.497,7.493,8.356,23.059
22,1.108,34.985,14.946,38.335,30.497,7.453,8.397,23.018
23,1.112,34.631,14.982,38.335,30.494,7.452,8.356,22.895
24,1.135,34.752,14.962,38.335,30.497,7.412,8.315,22.894
25,1.194,34.897,14.931,38.344,30.494,7.411,8.315,22.772
26,1.201,34.975,14.954,38.345,30.494,7.289,8.274,22.649
27,1.282,34.525,14.954,38.345,30.49,7.288,8.193,22.404
28,1.312,34.674,14.911,38.325,30.494,7.247,8.151,22.239
29,1.313,34.781,14.911,38.325,30.49,7.166,8.15,22.156
30,1.329,34.849,14.899,38.316,30.476,7.165,8.11,22.073
31,1.345,34.639,14.958,38.296,30.483,7.165,8.191,22.113
32,1.368,34.771,14.951,38.335,30.487,7.165,8.151,22.195
33,1.385,34.926,14.993,38.325,30.487,7.165,8.15,22.196
34,1.411,34.956,14.877,38.344,30.487,7.165,8.15,22.155
35,1.44,34.669,14.903,38.354,30.49,7.124,8.191,22.073
36,1.476,34.791,14.946,38.354,30.49,7.124,8.151,21.829
37,1.509,34.917,14.947,38.364,30.49,7.043,8.11,21.623
38,1.555,34.956,14.907,38.364,30.49,7.082,8.028,21.621
39,1.549,34.707,14.891,38.374,30.487,7.042,8.109,21.824
40,1.526,34.839,14.915,38.364,30.487,6.96,8.109,22.273
41,1.464,34.946,14.942,38.374,30.487,7.0,8.15,22.644
42,1.405,34.717,14.946,38.374,30.487,6.96,8.069,23.217
43,1.32,34.619,14.989,38.393,30.487,6.919,8.069,23.588
44,1.238,34.733,14.9,38.383,30.49,6.959,7.987,23.958
45,1.143,34.859,14.938,38.374,30.487,6.838,8.027,24.165
46,1.028,34.582,14.927,38.374,30.487,6.918,7.946,24.33
47,0.965,34.684,14.942,38.383,30.487,6.796,7.945,24.25
48,0.863,34.839,14.872,38.393,30.49,6.795,7.945,24.33
49,0.781,34.908,14.887,38.374,30.494,6.714,7.905,24.413
50,0.699,34.477,14.911,38.374,30.483,6.713,7.985,24.413
51,0.675,34.626,14.954,38.383,30.487,6.672,7.864,24.576
52,0.662,34.771,14.986,38.374,30.483,6.631,7.985,24.578
53,0.656,34.84,14.986,38.393,30.487,6.672,7.986,24.618
54,0.61,34.466,14.877,38.412,30.487,6.713,7.986,24.619
55,0.58,34.626,14.915,38.432,30.49,6.672,7.946,24.497
56,0.557,34.762,14.938,38.441,30.497,6.753,8.026,24.252
57,0.541,34.849,14.958,38.461,30.504,6.754,7.987,24.087
58,0.531,34.649,14.908,38.518,30.511,6.714,8.108,23.719
59,0.55,34.781,14.891,38.461,30.504,6.794,8.069,23.512
60,0.541,34.888,14.942,38.461,30.504,6.714,7.987,23.469
61,0.531,34.966,14.982,38.451,30.497,6.632,7.986,23.388
62,0.563,34.583,15.025,38.451,30.497,6.55,7.905,23.224
63,0.57,34.694,14.982,38.441,30.49,6.549,7.945,23.1
64,0.551,34.829,14.943,38.518,30.49,6.59,7.945,22.937
65,0.554,34.831,14.911,38.442,30.49,6.59,7.945,22.732
66,0.58,34.62,14.962,38.422,30.487,6.59,7.986,22.405
67,0.622,34.742,14.923,38.432,30.49,6.59,7.946,22.198
68,0.632,34.859,14.896,38.441,30.487,6.59,7.864,21.83
69,0.645,34.543,14.903,38.441,30.494,6.631,7.944,21.704
70,0.672,34.521,14.919,38.461,30.49,6.59,7.864,21.622
71,0.708,34.655,14.954,38.47,30.494,6.59,7.904,21.662
72,0.715,34.752,14.997,38.461,30.49,6.671,7.945,21.662
73,0.711,34.562,14.959,38.47,30.494,6.631,7.864,21.865
74,0.708,34.703,14.939,38.48,30.49,6.712,7.904,21.908
75,0.724,34.81,14.892,38.461,30.497,6.632,8.026,21.99
76,0.724,34.907,14.989,38.49,30.494,6.712,8.027,22.031
77,0.702,34.448,14.881,38.49,30.494,6.632,8.109,21.909
78,0.734,34.578,14.919,38.49,30.494,6.672,8.069,21.827
79,0.734,34.713,14.915,38.49,30.494,6.713,8.15,21.582
80,0.728,34.791,14.931,38.509,30.494,6.713,8.11,21.458
81,0.741,34.245,14.974,38.5,30.49,6.713,8.191,21.131
82,0.734,34.393,14.962,38.519,30.487,6.672,8.151,20.884
83,0.757,34.51,14.962,38.509,30.49,6.631,8.191,20.719
84,0.774,34.559,14.935,38.5,30.49,6.672,8.151,20.351
85,0.774,34.531,14.9,38.49,30.483,6.631,8.11,20.185
86,0.774,34.626,14.946,38.49,30.483,6.631,8.069,19.858
87,0.787,34.762,14.876,38.49,30.476,6.59,8.069,19.57
88,0.787,34.792,14.899,38.49,30.48,6.671,8.15,19.364
89,0.774,34.313,14.888,38.49,30.48,6.753,8.191,19.078
90,0.764,34.442,14.915,38.49,30.48,6.714,8.11,18.831
91,0.751,34.578,14.934,38.509,30.487,6.754,8.109,18.666
92,0.754,34.924,14.966,38.528,30.494,6.836,8.109,18.461
93,0.754,34.419,14.931,38.538,30.494,6.877,8.069,18.337
94,0.748,34.549,14.892,38.538,30.49,6.837,8.069,18.701
95,0.747,34.655,14.923,38.529,30.494,6.877,8.028,19.437
96,0.757,34.407,14.946,38.529,30.494,6.877,8.027,20.339
97,0.767,34.462,14.9,38.557,30.487,6.918,7.987,21.445
98,0.777,34.597,14.907,38.558,30.487,6.837,7.986,22.392
99,0.751,34.694,14.919,38.558,30.49,6.877,7.986,23.092
100,0.751,34.34,14.946,38.558,30.476,6.837,7.864,23.628
101,0.761,34.481,14.962,38.538,30.483,6.837,7.944,23.918
102,0.761,34.597,15.009,38.548,30.49,6.877,7.864,24.043
103,0.761,34.675,14.896,38.557,30.487,6.837,7.863,24.044
104,0.757,34.263,14.907,38.577,30.483,6.837,7.782,24.003
105,0.761,34.384,14.907,38.558,30.487,6.877,7.822,23.718
106,0.748,34.539,14.966,38.577,30.483,6.877,7.741,23.471
107,0.77,34.598,14.861,38.577,30.476,6.959,7.74,23.144
108,0.787,34.263,14.907,38.567,30.483,6.96,7.699,22.815
109,0.761,34.394,14.942,38.586,30.487,6.878,7.699,22.568
110,0.725,34.52,14.946,38.606,30.487,7.0,7.78,22.403
111,0.741,34.588,14.958,38.616,30.49,6.96,7.781,22.279
112,0.705,34.291,14.974,38.606,30.487,7.0,7.781,22.278
113,0.702,34.423,14.912,38.625,30.501,7.082,7.903,22.278
114,0.734,34.568,14.915,38.635,30.494,7.205,7.863,22.319
115,0.715,34.608,14.931,38.645,30.497,7.125,7.944,22.319
116,0.75,34.292,14.962,38.664,30.497,7.124,7.945,22.116
117,0.748,34.451,14.923,38.712,30.497,7.124,7.823,21.91
118,0.744,34.549,14.923,38.674,30.497,7.124,7.822,21.746
119,0.78,34.607,14.946,38.655,30.497,7.043,7.781,21.541
120,0.803,34.368,14.935,38.635,30.494,7.042,7.822,21.254
121,0.849,34.452,14.974,38.645,30.49,7.001,7.822,21.129
122,0.823,34.558,14.962,38.635,30.494,7.123,7.822,20.965
123,0.787,34.138,14.896,38.645,30.49,7.083,7.822,20.761
124,0.803,34.21,14.923,38.654,30.49,7.083,7.822,20.677
125,0.8,34.355,14.95,38.645,30.494,7.245,7.822,20.392
126,0.807,34.442,14.923,38.654,30.487,7.288,7.781,20.186
127,0.794,34.156,14.931,38.645,30.487,7.329,7.822,19.899
128,0.806,34.297,14.919,38.654,30.473,7.451,7.863,19.693
129,0.81,34.423,14.911,38.654,30.494,7.534,7.822,19.609
130,0.81,34.51,14.981,38.654,30.473,7.657,7.822,19.568
131,0.8,34.156,14.947,38.654,30.487,7.698,7.822,19.73
132,0.794,34.306,14.923,38.674,30.49,7.821,7.741,19.935
133,0.803,34.432,14.884,38.683,30.494,7.985,7.74,20.181
134,0.774,34.501,14.915,38.683,30.49,8.068,7.699,20.468
135,0.764,34.156,14.985,38.674,30.487,8.191,7.658,20.593
136,0.757,34.277,14.904,38.683,30.494,8.232,7.739,20.838
137,0.77,34.422,14.923,38.703,30.49,8.273,7.659,20.922
138,0.77,34.482,14.915,38.703,30.494,8.314,7.698,20.841
139,0.777,34.137,14.946,38.693,30.497,8.356,7.74,20.881
140,0.79,34.287,14.989,38.674,30.487,8.356,7.659,20.638
141,0.806,34.394,14.939,38.664,30.494,8.356,7.658,20.595
142,0.807,34.424,14.919,38.683,30.49,8.356,7.698,20.432
143,0.807,34.127,14.907,38.75,30.48,8.356,7.699,20.267
144,0.81,34.239,14.934,38.665,30.48,8.275,7.699,20.225
145,0.807,34.336,14.962,38.674,30.476,8.274,7.821,20.509
146,0.794,33.972,14.876,38.674,30.48,8.314,7.822,20.756
147,0.79,33.547,14.895,38.655,30.48,8.274,7.985,20.921
148,0.784,33.686,14.899,38.664,30.483,8.355,8.108,21.289
149,0.78,33.812,14.973,38.664,30.49,8.397,8.15,21.699
150,0.787,34.264,14.943,38.702,30.494,8.275,8.15,22.272
151,0.8,34.432,14.935,38.674,30.487,8.274,8.273,22.563
152,0.8,34.597,14.861,38.693,30.487,8.193,8.274,22.891
153,0.797,34.694,14.918,38.693,30.487,8.232,8.274,23.057
154,0.794,33.89,14.911,38.683,30.49,8.314,8.274,23.261
155,0.78,34.016,14.946,38.683,30.49,8.234,8.314,23.345
156,0.771,34.161,14.888,38.683,30.49,8.233,8.356,23.346
157,0.783,34.249,14.895,38.703,30.487,8.233,8.315,23.264
158,0.826,34.106,14.923,38.693,30.487,8.233,8.274,23.141
159,0.813,34.229,14.946,38.683,30.483,8.233,8.274,23.222
160,0.807,34.365,14.962,38.703,30.48,8.314,8.233,23.141
161,0.82,34.433,14.904,38.664,30.487,8.396,8.273,23.059
162,0.81,33.83,14.852,38.683,30.487,8.397,8.233,22.977
163,0.813,33.986,14.907,38.683,30.483,8.519,8.233,22.935
164,0.826,34.122,14.88,38.664,30.473,8.52,8.192,22.772
165,0.833,34.172,14.95,38.683,30.483,8.601,8.07,22.608
166,0.826,33.952,14.931,38.693,30.48,8.724,8.15,22.444
167,0.839,34.093,14.903,38.683,30.48,8.766,8.15,22.076
168,0.833,34.21,14.954,38.703,30.487,8.807,8.232,21.788
169,0.849,34.24,14.97,38.703,30.49,8.848,8.192,21.582
170,0.849,34.01,14.958,38.722,30.494,8.849,8.192,21.255
171,0.843,34.161,14.861,38.713,30.497,8.971,8.192,21.048
172,0.81,34.297,14.829,38.751,30.49,8.891,8.192,21.005
173,0.807,34.001,14.899,38.742,30.497,8.809,8.151,21.086
174,0.816,33.921,14.923,38.761,30.497,8.848,8.069,21.128
175,0.826,34.045,14.985,38.751,30.49,8.727,8.028,21.047
176,0.826,34.161,14.935,38.722,30.49,8.685,8.068,21.005
177,0.81,33.865,14.907,38.722,30.483,8.684,7.987,20.924
178,0.826,33.958,14.95,38.722,30.48,8.644,7.864,20.638
179,0.849,34.074,14.997,38.722,30.487,8.603,8.026,20.595
180,0.859,34.171,14.924,38.722,30.483,8.602,7.905,20.432
181,0.866,33.769,14.884,38.732,30.483,8.48,7.904,20.349
182,0.872,33.938,14.891,38.751,30.48,8.438,7.904,20.429
183,0.869,34.045,14.876,38.742,30.487,8.438,7.823,20.349
184,0.843,34.123,14.93,38.732,30.49,8.397,7.822,20.429
185,0.853,33.673,14.923,38.732,30.483,8.356,7.822,20.227
186,0.869,33.832,14.931,38.741,30.487,8.315,7.863,20.143
187,0.911,33.958,14.907,38.741,30.494,8.274,7.863,19.98
188,0.895,34.026,14.981,38.732,30.49,8.193,7.782,19.856
189,0.895,33.643,14.962,38.751,30.487,8.192,7.822,19.692
190,0.899,33.783,14.923,38.751,30.487,8.192,7.781,19.691
191,0.892,33.9,14.86,38.78,30.483,8.151,7.822,19.65
192,0.886,33.949,14.907,38.771,30.49,8.11,7.822,19.649
193,0.889,33.844,14.876,38.761,30.487,8.028,7.781,19.609
194,0.895,33.996,14.93,38.742,30.49,8.027,7.659,19.527
195,0.905,34.065,14.915,38.761,30.487,7.987,7.658,19.527
196,0.889,34.152,14.907,38.742,30.48,7.864,7.658,19.242
197,0.899,33.693,14.915,38.751,30.483,7.822,7.536,19.117
198,0.908,33.832,14.954,38.742,30.476,7.7,7.534,18.994
199,0.892,33.929,14.947,38.732,30.473,7.658,7.616,18.992
200,0.899,33.642,14.868,38.751,30.473,7.617,7.576,18.911
201,0.908,33.649,14.907,38.742,30.476,7.657,7.535,18.829
202,0.944,33.783,14.88,38.741,30.48,7.576,7.616,18.788
203,0.938,33.89,14.876,38.751,30.483,7.575,7.535,18.706
204,0.879,33.613,14.961,38.761,30.49,7.616,7.534,18.583
205,0.905,33.764,14.896,38.79,30.483,7.535,7.534,18.541
206,0.921,33.919,14.915,38.771,30.483,7.494,7.494,18.338
207,0.951,33.997,14.927,38.761,30.487,7.371,7.494,18.173
208,0.958,33.71,14.974,38.761,30.487,7.452,7.494,18.049
209,0.958,33.88,14.935,38.77,30.476,7.33,7.494,17.967
210,0.948,33.997,14.845,38.79,30.48,7.329,7.616,17.925
211,0.932,34.084,14.895,38.79,30.483,7.248,7.535,18.047
212,0.922,33.49,14.872,38.78,30.476,7.288,7.657,18.576
213,0.912,33.628,14.899,38.78,30.483,7.125,7.658,19.11
214,0.915,33.754,14.989,38.771,30.48,7.083,7.658,19.766
215,0.935,33.813,14.896,38.78,30.476,7.123,7.698,20.261
216,0.935,33.555,14.911,38.771,30.48,7.002,7.78,20.835
217,0.922,33.687,14.919,38.79,30.473,7.001,7.862,21.329
218,0.925,33.812,14.966,38.78,30.487,7.041,7.944,21.74
219,0.928,33.852,14.892,38.761,30.483,6.96,8.067,21.947
220,0.954,33.546,14.837,38.79,30.48,6.919,8.109,22.071
221,0.954,33.715,14.883,38.857,30.483,6.959,8.232,22.073
222,0.958,33.832,14.88,38.8,30.49,6.96,8.436,22.154
223,0.948,34.073,14.922,38.819,30.49,7.0,8.601,22.073
224,0.967,33.644,14.985,38.838,30.49,7.041,8.724,21.951
225,0.977,33.783,14.92,38.838,30.494,6.96,8.807,21.909
226,0.994,33.9,14.911,38.838,30.487,7.0,8.848,21.705
227,1.007,33.671,14.973,38.829,30.497,6.919,8.849,21.54
228,1.004,33.736,14.982,38.819,30.494,6.837,8.889,21.417
229,1.004,33.861,14.923,38.809,30.487,6.877,8.971,21.293
230,1.004,33.948,14.837,38.828,30.487,6.755,8.931,21.17
231,1.014,33.633,14.891,38.819,30.483,6.836,9.012,21.291
232,1.007,33.774,14.907,38.8,30.483,6.796,8.972,21.455
233,0.997,33.9,14.923,38.809,30.48,6.795,9.053,21.619
234,1.007,33.978,14.989,38.809,30.48,6.714,9.135,21.824
235,1.02,33.719,14.955,38.895,30.487,6.754,9.217,22.151
236,1.02,33.889,14.911,38.82,30.487,6.754,9.259,22.643
237,1.027,34.006,14.938,38.809,30.49,6.754,9.259,22.973
238,1.056,34.084,14.946,38.819,30.483,6.795,9.219,23.423
239,1.04,33.884,14.896,38.809,30.483,6.755,9.3,23.55
240,1.037,34.035,14.887,38.857,30.483,6.714,9.301,23.551
241,1.04,34.152,14.891,38.829,30.483,6.754,9.26,23.551
242,1.059,34.21,14.876,38.848,30.487,6.714,9.219,23.51
243,1.073,34.038,14.93,38.848,30.487,6.794,9.178,23.347
244,1.047,34.19,14.978,38.838,30.49,6.836,9.177,23.142
245,1.072,34.316,14.943,38.848,30.494,6.837,9.177,22.896
246,1.089,34.356,14.923,38.848,30.49,6.918,9.137,22.569
247,1.089,34.51,14.942,38.838,30.49,6.959,9.095,22.199
248,1.102,34.626,14.954,38.829,30.49,7.041,9.014,21.993
249,1.132,34.742,14.892,38.848,30.487,7.082,8.972,21.746
250,1.122,34.849,14.907,38.858,30.487,7.123,8.931,21.744
251,1.06,34.773,14.884,38.838,30.48,7.124,8.85,21.663
252,1.063,34.888,14.903,38.857,30.476,7.165,8.727,21.743
253,1.076,34.994,14.946,38.829,30.473,7.165,8.726,21.744
254,1.073,34.986,14.95,38.819,30.476,7.206,8.726,21.907
255,1.073,35.101,14.947,38.828,30.48,7.287,8.685,21.908
256,1.083,35.217,14.884,38.829,30.49,7.41,8.684,21.746
257,1.063,35.314,14.962,38.867,30.487,7.452,8.644,21.622
258,1.063,35.449,14.947,38.858,30.483,7.452,8.644,21.54
259,1.069,35.604,14.88,38.858,30.483,7.493,8.603,21.457
260,1.099,35.74,14.899,38.915,30.483,7.575,8.602,21.456
261,1.106,35.799,14.884,38.839,30.483,7.535,8.602,21.335
262,1.112,35.924,14.895,38.848,30.487,7.534,8.562,21.293
263,1.106,36.06,14.915,38.858,30.483,7.534,8.561,21.17
264,1.109,36.166,14.985,38.848,30.48,7.575,8.521,21.088
265,1.106,36.235,14.9,38.858,30.483,7.616,8.642,20.924
266,1.125,36.379,14.895,38.867,30.483,7.617,8.684,20.638
267,1.168,36.505,14.958,38.858,30.48,7.617,8.807,20.31
268,1.171,36.612,14.951,38.877,30.48,7.617,8.848,20.185
269,1.158,36.642,14.892,38.877,30.476,7.617,8.971,20.102
270,1.122,36.843,14.895,38.867,30.476,7.576,8.972,20.142
271,1.122,36.97,14.907,38.858,30.476,7.575,8.972,20.183
272,1.132,37.067,14.907,38.858,30.487,7.535,9.013,20.387
273,1.125,37.087,14.915,38.848,30.476,7.534,9.176,20.592
274,1.103,37.452,14.942,38.877,30.48,7.534,9.177,20.757
275,1.132,37.59,14.915,38.867,30.476,7.575,9.259,20.962
276,1.132,37.687,14.903,38.886,30.487,7.575,9.341,21.086
277,1.142,37.794,14.95,38.896,30.49,7.616,9.342,21.087
278,1.132,37.833,14.978,38.916,30.49,7.617,9.423,21.087
279,1.122,37.958,14.904,38.935,30.497,7.617,9.342,21.006
280,1.099,38.055,14.903,38.935,30.494,7.535,9.382,20.842
281,1.115,38.142,14.946,38.925,30.497,7.534,9.22,20.841
282,1.125,38.297,14.947,38.925,30.49,7.494,9.178,20.963
283,1.119,38.375,14.982,38.916,30.494,7.453,9.177,21.208
284,1.122,38.433,14.962,38.906,30.487,7.493,9.137,21.332
285,1.184,38.578,14.943,38.896,30.49,7.371,9.055,21.659
286,1.178,38.713,14.907,38.877,30.487,7.37,9.095,21.906
287,1.214,38.801,14.954,38.896,30.48,7.37,9.054,22.071
288,1.208,38.869,14.947,38.916,30.48,7.411,9.013,22.032
289,1.159,38.908,14.837,38.906,30.487,7.371,8.932,22.072
290,1.139,39.052,14.914,38.906,30.483,7.289,8.89,22.154
291,1.135,39.131,14.895,38.906,30.48,7.329,8.89,22.195
292,1.155,39.189,14.919,38.916,30.487,7.289,8.849,22.318
293,1.129,39.285,14.942,38.925,30.487,7.288,8.767,22.36
294,1.106,39.421,14.958,38.906,30.48,7.207,8.685,22.319
295,1.089,39.518,14.939,38.925,30.483,7.247,8.644,22.238
296,1.096,39.538,14.896,38.925,30.487,7.247,8.644,22.074
297,1.096,39.471,14.985,38.935,30.494,7.247,8.603,21.829
298,1.106,39.605,14.939,38.935,30.487,7.247,8.643,21.907
299,1.096,39.673,14.892,38.935,30.487,7.328,8.603,21.868
300,1.089,39.702,14.899,38.935,30.487,7.37,8.643,21.989
301,1.102,39.818,14.919,38.945,30.487,7.452,8.684,22.031
302,1.109,39.934,14.923,38.935,30.487,7.493,8.684,22.031
303,1.112,40.012,14.958,38.935,30.483,7.616,8.603,21.95
304,1.08,39.888,14.978,38.925,30.487,7.698,8.684,21.949
305,1.063,39.935,14.912,38.925,30.48,7.658,8.603,21.746
306,1.06,40.041,14.923,38.925,30.476,7.78,8.602,21.5
307,1.056,40.08,14.942,38.906,30.476,7.74,8.48,21.294
308,1.04,39.985,14.923,38.925,30.476,7.821,8.438,21.333
309,1.024,40.08,14.864,38.897,30.476,7.863,8.601,21.699
310,1.014,40.205,14.868,38.896,30.48,7.944,8.521,22.11
311,1.036,40.254,14.891,38.925,30.476,8.026,8.479,22.358
312,1.027,39.986,14.872,38.897,30.483,8.027,8.52,22.523
313,0.997,40.137,14.942,38.944,30.483,8.027,8.479,22.606
314,0.984,40.235,14.954,38.935,30.476,8.027,8.438,22.647
315,0.971,40.303,14.958,38.935,30.48,8.068,8.397,22.648
316,0.916,40.207,14.923,38.935,30.483,8.028,8.438,22.607
317,0.912,40.322,14.978,38.964,30.487,8.068,8.357,22.484
318,0.912,40.409,14.959,38.945,30.476,7.946,8.437,22.402
319,0.918,40.448,14.853,38.945,30.48,7.945,8.438,22.239
320,0.905,40.362,14.907,38.945,30.48,7.905,8.397,22.115
321,0.918,40.476,14.884,38.945,30.483,7.945,8.397,21.91
322,0.905,40.593,14.919,38.935,30.476,7.823,8.356,21.705
323,0.889,40.603,14.95,38.935,30.48,7.822,8.315,21.459
324,0.889,40.191,14.966,38.935,30.48,7.781,8.356,21.335
325,0.892,40.321,14.923,38.945,30.48,7.822,8.356,21.089
326,0.869,40.438,14.931,38.935,30.476,7.7,8.275,20.884
327,0.882,40.717,14.958,38.945,30.48,7.658,8.233,20.638
328,0.869,40.26,14.931,38.945,30.473,7.658,8.273,20.432
329,0.846,40.37,14.896,38.964,30.48,7.617,8.314,20.308
330,0.843,40.486,14.907,38.955,30.483,7.576,8.274,20.185
331,0.853,40.228,14.891,38.954,30.483,7.616,8.355,20.102
332,0.859,40.274,14.926,38.964,30.483,7.657,8.478,20.223
333,0.866,40.389,14.966,38.983,30.494,7.698,8.52,20.265
334,0.862,40.458,14.947,38.993,30.497,7.699,8.52,20.144
335,0.843,40.113,14.947,38.993,30.501,7.74,8.52,20.02
336,0.826,40.253,14.954,39.003,30.49,7.699,8.601,19.857
337,0.8,40.351,14.974,39.003,30.494,7.658,8.44,19.611
338,0.813,40.4,14.962,38.984,30.49,7.78,8.397,19.405
339,0.807,39.969,14.9,38.974,30.487,7.822,8.438,19.241
340,0.784,40.089,14.891,38.983,30.48,8.107,8.397,19.117
341,0.78,40.196,14.884,38.974,30.487,8.232,8.438,18.994
342,0.784,40.245,14.922,38.983,30.48,8.477,8.357,18.952
343,0.8,40.034,14.978,38.983,30.49,8.601,8.356,18.952
344,0.797,40.176,14.939,38.993,30.487,8.724,8.315,18.911
345,0.807,40.292,14.954,38.993,30.48,8.848,8.315,18.829
346,0.8,40.322,14.911,38.993,30.483,8.93,8.274,18.828
347,0.82,39.834,14.989,38.993,30.48,9.012,8.193,18.666
348,0.8,39.953,14.908,38.984,30.48,9.054,8.11,18.623
349,0.8,40.079,14.911,39.041,30.487,9.054,8.109,18.542
350,0.781,40.1,14.911,39.003,30.476,9.095,8.109,18.5
351,0.767,39.764,14.915,39.012,30.483,9.176,8.028,18.622
352,0.774,39.876,14.962,39.012,30.48,9.137,8.027,18.745
353,0.787,40.002,14.986,39.003,30.487,9.095,7.946,18.746
354,0.741,39.974,14.947,38.993,30.494,9.136,7.986,18.787
355,0.751,39.773,14.927,39.003,30.48,9.014,7.905,18.746
356,0.741,39.895,14.946,38.993,30.487,9.094,7.782,18.705
357,0.731,39.973,14.966,38.993,30.483,8.973,7.74,18.542
358,0.734,39.542,14.888,39.003,30.473,8.891,7.74,18.459
359,0.747,39.586,14.903,38.993,30.469,8.849,7.618,18.255
360,0.747,39.682,14.872,38.984,30.473,8.727,7.617,18.091
361,0.744,39.75,14.903,38.974,30.473,8.766,7.698,18.008
362,0.751,39.368,14.93,38.964,30.473,8.726,7.699,17.966
363,0.757,39.469,14.958,38.993,30.476,8.807,7.74,17.966
364,0.728,39.605,14.912,39.003,30.48,8.808,7.699,17.925
365,0.721,39.683,14.899,39.022,30.487,8.848,7.74,17.884
366,0.737,39.156,14.938,39.003,30.483,8.686,7.659,17.802
367,0.751,39.275,14.954,38.993,30.476,8.684,7.698,17.802
368,0.764,39.401,14.884,38.984,30.476,8.644,7.699,17.598
369,0.774,39.47,14.883,39.003,30.483,8.521,7.74,17.677
370,0.767,39.058,14.911,38.974,30.48,8.561,7.74,17.678
371,0.757,39.178,14.977,38.983,30.483,8.561,7.74,17.922
372,0.754,39.295,14.962,39.012,30.48,8.521,7.699,18.087
373,0.751,39.344,14.99,38.974,30.48,8.439,7.74,18.414
374,0.767,38.961,14.896,38.993,30.48,8.397,7.781,18.58
375,0.751,39.091,14.923,38.993,30.473,8.316,7.781,18.744
376,0.721,39.198,14.911,38.964,30.476,8.274,7.781,18.827
377,0.737,39.17,14.954,38.993,30.476,8.274,7.862,18.828
378,0.731,38.854,14.872,38.984,30.476,8.314,7.863,18.828
379,0.708,38.975,14.895,38.983,30.48,8.193,7.904,18.788
380,0.721,39.072,14.887,38.993,30.483,8.273,7.985,18.787
381,0.728,38.843,14.95,39.003,30.487,8.233,7.986,19.112
382,0.734,38.697,14.99,39.012,30.49,8.233,8.108,19.319
383,0.734,38.839,14.974,39.022,30.497,8.233,8.354,19.768
384,0.741,38.927,14.923,39.061,30.494,8.273,8.315,20.261
385,0.764,38.496,14.907,39.042,30.504,8.274,8.396,20.713
386,0.787,38.578,14.973,39.042,30.49,8.193,8.438,21.124
387,0.806,38.694,14.935,39.032,30.501,8.151,8.438,21.372
388,0.777,38.772,14.845,39.032,30.49,8.191,8.56,21.822
389,0.78,38.361,14.891,39.013,30.487,8.11,8.561,22.395
390,0.803,38.491,14.899,39.012,30.483,8.069,8.643,22.726
391,0.787,38.607,14.958,39.003,30.483,7.987,8.603,23.218
392,0.738,38.675,14.966,39.022,30.48,7.946,8.765,23.548
393,0.78,38.331,14.986,39.003,30.487,8.026,8.645,23.632
394,0.761,38.452,14.923,39.051,30.487,7.865,8.684,23.674
395,0.744,38.597,14.927,39.013,30.49,7.944,8.644,23.593
396,0.738,38.618,14.946,39.012,30.483,7.905,8.644,23.308
397,0.77,38.119,14.943,38.984,30.49,7.863,8.603,23.061
398,0.751,38.277,14.884,39.041,30.483,7.863,8.643,22.814
399,0.757,38.356,14.891,39.013,30.494,7.822,8.603,22.649
400,0.77,38.414,14.93,39.003,30.483,7.863,8.643,22.404
401,0.77,38.127,14.923,39.022,30.487,7.863,8.562,22.239
402,0.777,38.258,14.985,38.993,30.483,7.944,8.643,21.952
403,0.777,38.346,14.966,39.003,30.487,7.986,8.603,21.746
404,0.787,38.366,14.955,39.022,30.487,7.946,8.521,21.541
405,0.79,37.954,14.892,39.013,30.487,7.945,8.52,21.254
406,0.806,38.065,14.965,39.012,30.483,8.026,8.479,21.048
407,0.803,38.181,14.931,39.012,30.48,8.027,8.438,20.843
408,0.807,37.99,14.9,39.003,30.48,7.987,8.397,20.515
409,0.797,37.979,14.911,38.993,30.48,8.027,8.194,20.349
410,0.803,38.103,14.919,38.984,30.476,7.946,8.232,20.226
411,0.774,38.181,14.962,38.983,30.476,7.905,8.233,20.184
412,0.725,37.645,14.974,38.964,30.476,7.945,8.151,20.021
413,0.728,37.736,14.931,38.974,30.476,8.026,8.191,20.019
414,0.741,37.871,14.923,39.003,30.476,7.946,8.151,19.938
415,0.734,37.978,14.896,39.003,30.483,7.945,8.15,19.774
416,0.734,37.806,14.985,39.003,30.487,7.945,8.15,19.529
417,0.738,37.929,14.9,39.032,30.487,7.864,8.15,19.445
418,0.751,38.074,14.919,39.013,30.49,7.822,8.15,19.322
419,0.774,38.124,14.927,39.022,30.476,7.741,8.11,19.199
420,0.78,37.654,14.931,39.013,30.476,7.74,8.15,19.198
421,0.79,37.803,14.97,39.012,30.476,7.699,8.232,19.442
422,0.784,37.9,14.99,39.012,30.48,7.78,8.192,19.769
423,0.79,37.968,14.951,39.012,30.48,7.659,8.192,20.179
424,0.79,37.576,14.919,39.003,30.48,7.658,8.232,20.549
425,0.784,37.697,14.892,39.022,30.48,7.617,8.151,20.838
426,0.787,37.794,14.977,39.003,30.476,7.617,8.15,21.003
427,0.787,37.833,14.9,39.022,30.48,7.495,8.11,21.086
428,0.754,37.613,14.93,38.993,30.483,7.616,8.109,21.087
429,0.741,37.726,14.903,38.993,30.48,7.617,8.109,21.209
430,0.76,37.832,14.954,38.993,30.487,7.617,8.109,21.21
431,0.744,38.159,14.966,39.012,30.483,7.617,8.109,21.291
432,0.757,37.511,14.978,39.022,30.48,7.698,8.109,21.252
433,0.751,37.658,14.947,39.022,30.487,7.699,8.191,21.129
434,0.761,37.774,14.907,39.041,30.497,7.78,8.192,21.128
435,0.796,37.468,14.942,39.042,30.494,7.781,8.192,21.047
436,0.8,37.494,14.954,39.032,30.497,7.781,8.11,20.924
437,0.777,37.648,14.88,39.07,30.501,7.74,8.109,20.719
438,0.784,37.755,14.891,39.032,30.494,7.781,8.028,20.514
439,0.79,37.42,14.903,39.041,30.494,7.74,7.946,20.39
440,0.774,37.522,14.966,39.042,30.487,7.699,7.945,20.43
441,0.784,37.639,14.986,39.032,30.487,7.699,7.905,20.389
442,0.797,37.697,15.005,39.013,30.487,7.699,7.945,20.186
443,0.784,37.324,14.928,39.032,30.487,7.699,7.823,20.102
444,0.787,37.435,14.931,39.051,30.487,7.658,7.822,20.061
445,0.777,37.561,14.927,39.013,30.487,7.658,7.863,20.142
446,0.793,37.62,14.954,39.032,30.487,7.617,7.741,20.061
447,0.793,37.16,14.927,39.109,30.487,7.698,7.74,19.979
448,0.806,37.318,14.915,39.023,30.48,7.658,7.781,19.978
449,0.794,37.416,14.942,39.032,30.487,7.658,7.781,19.978
450,0.777,37.455,14.943,39.022,30.49,7.698,7.781,19.815
451,0.787,37.35,14.986,39.022,30.487,7.618,7.822,19.773
452,0.774,37.474,14.974,39.041,30.487,7.698,7.863,19.854
453,0.78,37.6,14.869,39.042,30.49,7.74,7.741,19.855
454,0.771,37.649,14.918,39.051,30.49,7.74,7.781,19.814
455,0.764,37.18,14.938,39.042,30.49,7.821,7.862,19.814
456,0.761,37.29,14.943,39.042,30.497,7.903,7.863,19.773
457,0.767,37.416,14.907,39.042,30.49,7.985,7.782,19.651
458,0.757,37.455,14.919,39.061,30.487,8.027,7.822,19.446
459,0.767,37.216,14.931,39.061,30.494,8.068,7.863,19.282
460,0.767,37.338,14.95,39.023,30.48,8.109,7.822,19.036
461,0.777,37.407,14.997,39.032,30.48,8.15,7.781,18.952
462,0.793,37.11,14.939,39.013,30.48,8.191,7.822,18.911
463,0.797,37.184,14.853,39.041,30.476,8.151,7.903,18.87
464,0.771,37.309,14.883,39.032,30.476,8.273,8.067,18.829
465,0.738,37.406,14.958,39.022,30.483,8.314,7.987,18.869
466,0.764,36.851,14.912,39.051,30.48,8.315,7.946,18.747
467,0.77,36.989,14.915,39.042,30.48,8.274,7.986,18.502
468,0.764,37.125,14.915,39.061,30.48,8.355,7.946,18.418
469,0.764,37.213,14.946,39.032,30.487,8.315,7.905,18.377
470,0.748,37.041,14.997,39.041,30.49,8.274,7.945,18.295
471,0.747,37.173,14.959,39.07,30.487,8.233,7.945,18.335
472,0.744,37.299,14.939,39.051,30.49,8.273,7.905,18.295
473,0.754,37.358,14.806,39.051,30.483,8.193,7.823,18.294
474,0.751,36.822,14.898,39.051,30.487,8.151,7.903,18.294
475,0.751,36.941,14.954,39.042,30.487,8.191,7.701,18.335
476,0.767,37.038,14.892,39.032,30.49,8.11,7.78,18.335
477,0.751,37.097,14.923,39.051,30.49,8.109,7.781,18.295
478,0.728,37.03,14.872,39.061,30.48,8.069,7.7,18.294
479,0.744,37.164,14.957,39.051,30.483,8.028,7.658,18.213
480,0.757,37.251,14.954,39.051,30.487,7.987,7.698,18.212
481,0.757,37.281,14.951,39.07,30.48,8.068,7.74,18.334
482,0.764,36.869,14.908,39.042,30.48,8.069,7.659,18.213
483,0.754,36.999,14.907,39.07,30.483,8.028,7.739,18.293
484,0.757,37.106,14.915,39.09,30.49,8.068,7.821,18.213
485,0.741,37.04,14.962,39.109,30.497,8.109,7.781,18.212
486,0.757,36.972,14.837,39.128,30.501,8.069,7.822,18.172
487,0.77,37.106,14.891,39.109,30.504,8.069,7.781,18.049
488,0.774,37.203,14.958,39.109,30.501,8.028,7.7,17.967
489,0.793,36.839,15.001,39.1,30.497,7.987,7.699,17.925
490,0.78,36.951,14.947,39.1,30.494,7.905,7.699,17.925
491,0.748,37.048,14.911,39.109,30.487,7.823,7.699,18.047
492,0.715,37.116,14.821,39.109,30.487,7.781,7.658,18.17
493,0.734,36.906,14.871,39.081,30.49,7.74,7.617,18.293
494,0.767,37.047,14.903,39.08,30.49,7.781,7.657,18.416
495,0.735,37.154,14.938,39.09,30.494,7.781,7.536,18.458
496,0.715,37.232,14.946,39.1,30.49,7.822,7.575,18.581
497,0.715,36.773,14.896,39.09,30.494,7.944,7.535,18.582
498,0.724,36.893,14.962,39.09,30.494,7.945,7.616,18.541
499,0.741,37.028,14.974,39.109,30.483,7.986,7.657,18.541
500,0.738,37.077,14.966,39.1,30.487,8.149,7.658,18.459
501,0.754,36.896,14.861,39.128,30.494,8.191,7.739,18.499
502,0.722,37.038,14.872,39.119,30.487,8.232,7.74,18.54
503,0.718,37.125,14.891,39.109,30.49,8.273,7.821,18.541
504,0.741,37.184,14.907,39.1,30.49,8.355,7.863,18.541
505,0.741,36.878,14.934,39.109,30.49,8.397,7.863,18.459
506,0.734,37.018,14.927,39.128,30.49,8.397,7.863,18.255
507,0.738,37.135,14.923,39.109,30.497,8.397,7.863,18.172
508,0.744,37.136,14.958,39.109,30.497,8.397,7.863,17.968
509,0.728,37.002,14.962,39.109,30.49,8.438,7.863,17.844
510,0.731,37.125,14.931,39.109,30.487,8.357,7.782,17.599
511,0.721,37.222,14.896,39.109,30.483,8.315,7.822,17.718
512,0.731,37.041,14.837,39.1,30.476,8.274,7.741,17.882
513,0.715,37.058,14.832,39.1,30.476,8.233,7.74,18.128
514,0.715,37.164,14.879,39.071,30.476,8.273,7.781,18.577
515,0.715,37.251,14.922,39.071,30.48,8.193,7.862,19.232
516,0.711,36.965,14.884,39.099,30.487,8.273,7.863,20.052
517,0.718,37.096,14.899,39.119,30.487,8.274,7.863,20.711
518,0.718,37.203,14.93,39.109,30.487,8.274,7.822,21.368
519,0.721,37.3,14.966,39.109,30.487,8.193,7.944,21.822
520,0.721,36.898,14.923,39.119,30.483,8.11,7.905,22.151
521,0.724,37.038,14.884,39.109,30.49,8.109,7.782,22.399
522,0.747,37.135,14.841,39.109,30.487,8.069,7.944,22.442
523,0.731,37.213,14.867,39.128,30.48,8.028,7.945,22.402
524,0.738,37.156,14.938,39.109,30.487,8.027,7.986,22.32
525,0.747,37.28,14.911,39.128,30.483,7.946,7.864,22.075
526,0.738,37.396,14.899,39.129,30.483,7.945,8.026,21.951
527,0.738,37.446,14.891,39.119,30.49,7.945,7.987,21.665
528,0.738,37.101,14.942,39.109,30.487,7.905,7.986,21.418
529,0.728,37.26,14.939,39.109,30.483,7.945,7.986,21.131
530,0.712,37.339,14.888,39.109,30.487,7.823,7.986,21.047
531,0.708,37.397,14.872,39.128,30.476,7.863,7.986,21.005
532,0.721,37.254,14.879,39.205,30.483,7.822,7.986,21.005
533,0.708,37.377,14.879,39.11,30.483,7.822,8.108,21.167
534,0.705,37.474,14.93,39.128,30.48,7.781,8.069,21.291
535,0.705,37.791,14.915,39.119,30.48,7.74,8.109,21.292
536,0.705,37.21,14.88,39.129,30.49,7.862,8.15,21.292
537,0.685,37.328,14.895,39.138,30.487,7.741,8.191,21.13
538,0.692,37.445,14.966,39.148,30.497,7.862,8.232,21.087
539,0.695,37.369,14.951,39.167,30.497,7.822,8.273,21.006
540,0.721,37.455,14.892,39.167,30.501,7.863,8.314,20.964
541,0.721,37.59,14.872,39.167,30.497,7.822,8.274,20.842
542,0.705,37.678,14.899,39.263,30.504,7.781,8.193,20.718
543,0.721,37.199,14.907,39.178,30.49,7.74,8.151,20.595
544,0.728,37.3,14.958,39.167,30.49,7.699,8.15,20.391
545,0.734,37.406,14.919,39.139,30.483,7.699,8.069,20.267
546,0.725,37.455,14.899,39.157,30.48,7.618,8.028,20.022
547,0.734,37.36,14.899,39.148,30.487,7.657,8.027,19.775
548,0.751,37.503,14.95,39.148,30.487,7.617,8.027,19.61
549,0.738,37.629,14.931,39.148,30.49,7.617,8.027,19.69
550,0.695,37.697,14.849,39.148,30.487,7.617,8.068,19.691
551,0.682,37.381,14.817,39.167,30.487,7.576,7.987,19.731
552,0.688,37.512,14.91,39.148,30.487,7.616,7.986,19.813
553,0.685,37.629,14.88,39.158,30.483,7.617,7.986,19.855
554,0.705,37.678,14.989,39.167,30.49,7.657,7.946,19.896
555,0.711,37.439,14.892,39.158,30.494,7.617,7.945,19.815
556,0.715,37.599,14.899,39.177,30.49,7.576,7.945,19.773
557,0.724,37.697,14.911,39.177,30.487,7.575,7.945,19.61
558,0.731,37.717,14.97,39.187,30.49,7.616,7.905,19.486
559,0.705,37.516,14.931,39.168,30.497,7.535,7.945,19.323
560,0.685,37.638,14.896,39.167,30.494,7.534,7.945,19.24
561,0.656,37.755,14.802,39.167,30.49,7.494,7.864,19.158
562,0.691,37.813,14.902,39.177,30.494,7.494,7.822,18.994
563,0.711,37.478,14.895,39.167,30.487,7.412,7.863,18.87
564,0.718,37.609,14.962,39.148,30.487,7.411,7.822,18.869
565,0.731,37.707,14.912,39.167,30.483,7.289,7.781,18.707
566,0.702,37.506,14.86,39.158,30.483,7.288,7.781,18.624
567,0.701,37.562,14.911,39.139,30.48,7.166,7.7,18.501
568,0.708,37.677,14.911,39.129,30.476,7.206,7.699,18.459
569,0.731,37.774,14.931,39.138,30.483,7.206,7.74,18.459
570,0.699,37.421,14.872,39.138,30.487,7.287,7.781,18.499
571,0.659,37.58,14.86,39.167,30.483,7.288,7.74,18.378
572,0.685,37.716,14.903,39.167,30.49,7.207,7.781,18.458
573,0.695,37.775,14.899,39.167,30.487,7.165,7.781,18.377
574,0.695,37.583,14.966,39.167,30.487,7.246,7.74,18.336
575,0.669,37.725,14.857,39.167,30.48,7.206,7.699,18.213
576,0.669,37.832,14.918,39.167,30.48,7.165,7.658,18.05
577,0.669,37.891,14.931,39.167,30.487,7.206,7.617,17.926
578,0.669,37.393,14.962,39.177,30.487,7.165,7.617,17.803
579,0.669,37.512,14.947,39.167,30.49,7.124,7.535,17.72
580,0.682,37.629,14.865,39.167,30.483,7.083,7.616,17.72
581,0.669,37.649,14.907,39.177,30.483,7.083,7.535,17.597
582,0.678,37.477,14.891,39.167,30.483,7.002,7.616,17.596
583,0.691,37.59,14.884,39.167,30.473,7.001,7.576,17.515
584,0.688,37.697,14.977,39.167,30.483,7.041,7.535,17.514
585,0.685,37.717,14.873,39.177,30.483,7.042,7.453,17.473
586,0.679,37.506,14.891,39.158,30.483,7.001,7.452,17.351
587,0.682,37.648,14.903,39.167,30.483,7.001,7.493,17.309
588,0.688,37.736,14.97,39.177,30.483,7.123,7.453,17.309
589,0.695,37.621,14.912,39.167,30.49,7.083,7.493,17.471
590,0.682,37.486,14.88,39.167,30.49,7.123,7.656,17.514
591,0.682,37.609,14.922,39.282,30.497,7.165,7.658,17.636
592,0.688,37.707,14.915,39.207,30.501,7.124,7.739,17.922
593,0.685,37.353,14.923,39.216,30.497,7.124,7.699,18.169
594,0.688,37.464,14.954,39.216,30.501,7.124,7.74,18.293
595,0.685,37.6,14.919,39.235,30.501,7.124,7.74,18.376
596,0.669,37.687,14.907,39.206,30.487,7.043,7.74,18.458
597,0.665,37.353,14.966,39.196,30.487,6.96,7.781,18.459
598,0.665,37.455,14.974,39.177,30.487,6.96,7.862,18.54
599,0.675,37.58,14.908,39.187,30.487,7.0,7.863,18.622
600,0.682,37.639,14.856,39.196,30.487,6.96,7.782,18.704
601,0.679,37.285,14.899,39.254,30.49,6.96,7.944,18.99
602,0.688,37.435,14.923,39.207,30.494,6.96,7.945,19.277
603,0.688,37.542,14.907,39.206,30.49,6.919,7.986,19.768
604,0.685,37.6,14.954,39.187,30.49,6.919,8.027,20.098
605,0.711,37.15,14.896,39.206,30.494,6.959,7.946,20.386
606,0.708,37.28,14.887,39.187,30.49,6.878,8.067,20.714
607,0.702,37.387,14.923,39.196,30.49,6.837,8.069,20.717
608,0.682,37.407,14.958,39.196,30.494,6.918,8.15,20.839
609,0.698,37.177,14.919,39.196,30.487,6.837,8.191,20.841
610,0.679,37.319,14.821,39.206,30.494,6.837,8.232,20.759
611,0.675,37.426,14.891,39.187,30.494,6.796,8.273,20.677
612,0.675,37.446,14.911,39.206,30.494,6.795,8.314,20.432
613,0.678,37.187,14.915,39.196,30.494,6.836,8.396,20.836
614,0.675,37.309,15.005,39.206,30.497,6.714,8.356,21.572
615,0.688,37.425,14.869,39.206,30.49,6.794,8.356,22.637
616,0.711,37.225,14.899,39.196,30.487,6.836,8.315,23.705
617,0.702,37.137,14.927,39.196,30.476,6.633,8.193,24.61
618,0.708,37.251,14.978,39.187,30.48,6.59,8.232,25.554
619,0.711,37.358,14.912,39.177,30.462,6.631,8.273,26.336
620,0.702,36.889,14.845,39.177,30.473,6.59,8.274,27.197
621,0.701,37.018,14.879,39.167,30.48,6.631,8.355,27.572
622,0.656,37.116,14.876,39.187,30.48,6.672,8.356,27.901
623,0.659,37.222,14.922,39.187,30.483,6.672,8.397,27.864
624,0.685,37.252,14.954,39.187,30.483,6.631,8.397,27.741
625,0.679,37.406,14.966,39.225,30.49,6.672,8.356,27.455
626,0.701,37.513,14.908,39.206,30.487,6.631,8.275,27.005
627,0.741,37.59,14.931,39.196,30.487,6.631,8.355,26.513
628,0.715,36.594,14.978,39.206,30.483,6.631,8.315,26.02
629,0.721,36.728,14.892,39.177,30.487,6.631,8.274,25.405
630,0.643,36.844,14.899,39.206,30.48,6.631,8.233,24.911
631,0.633,36.922,14.872,39.196,30.483,6.672,8.192,24.581
632,0.658,36.741,14.895,39.187,30.487,6.672,8.151,24.253
633,0.652,36.883,14.891,39.187,30.487,6.672,8.15,24.046
634,0.659,36.97,14.969,39.187,30.487,6.631,8.069,23.8
635,0.669,37.029,14.955,39.196,30.48,6.672,8.069,23.513
636,0.672,36.713,14.896,39.196,30.487,6.753,7.987,23.185
637,0.701,36.825,14.966,39.187,30.483,6.795,8.068,22.815
638,0.714,36.912,14.931,39.187,30.487,6.836,7.946,22.527
639,0.711,37.019,14.864,39.177,30.483,6.877,7.986,22.24
640,0.695,36.694,14.868,39.177,30.48,6.877,7.986,21.912
641,0.695,36.796,14.875,39.177,30.473,6.918,7.986,21.664
642,0.672,36.893,14.918,39.177,30.487,6.959,7.986,21.459
643,0.685,36.539,14.931,39.177,30.48,7.041,8.068,21.335
644,0.685,36.497,14.939,39.196,30.49,7.042,8.15,21.252
645,0.682,36.65,14.892,39.206,30.494,7.082,8.11,21.048
646,0.682,36.728,14.938,39.196,30.49,7.205,8.191,20.843
647,0.688,36.403,14.954,39.225,30.497,7.165,8.151,20.556
648,0.698,36.544,14.935,39.216,30.504,7.206,8.15,20.39
649,0.701,36.67,14.903,39.254,30.501,7.247,8.11,20.226
650,0.701,36.767,14.891,39.226,30.501,7.247,8.028,20.184
651,0.721,36.327,14.926,39.225,30.497,7.206,8.068,20.143
652,0.711,36.447,14.903,39.216,30.494,7.125,7.946,20.224
653,0.695,36.563,14.962,39.187,30.483,7.083,7.986,20.265
654,0.685,36.632,14.927,39.196,30.483,7.042,7.905,20.225
655,0.695,36.258,14.896,39.187,30.483,7.001,7.945,20.184
656,0.708,36.408,14.911,39.187,30.49,7.041,7.905,20.102
657,0.715,36.496,14.962,39.177,30.494,7.042,7.904,19.939
658,0.669,36.583,14.896,39.187,30.487,7.082,7.945,19.774
659,0.675,36.239,14.88,39.196,30.483,7.002,7.783,19.61
660,0.695,36.389,14.899,39.187,30.497,7.001,7.822,19.609
661,0.721,36.496,14.907,39.187,30.487,7.001,7.822,19.486
662,0.731,36.516,14.938,39.187,30.487,7.041,7.903,19.363
663,0.76,36.152,14.989,39.206,30.49,6.96,7.863,19.281
664,0.767,36.321,14.912,39.196,30.487,7.041,7.822,19.199
665,0.77,36.418,14.907,39.216,30.494,7.042,7.822,19.035
666,0.774,36.592,14.938,39.206,30.494,6.96,7.863,18.993
667,0.774,36.191,14.946,39.187,30.497,7.0,7.822,18.789
668,0.777,36.302,14.833,39.196,30.497,7.041,7.781,18.665
669,0.78,36.428,14.902,39.187,30.49,7.042,7.74,18.705
670,0.774,35.997,14.899,39.206,30.49,7.042,7.821,18.746
671,0.787,36.041,14.915,39.187,30.49,6.92,7.781,18.746
672,0.79,36.157,14.97,39.177,30.487,6.919,7.7,18.949
673,0.754,36.234,14.978,39.177,30.487,6.919,7.618,18.952
674,0.751,36.015,14.916,39.177,30.483,6.878,7.617,18.911
675,0.767,36.147,14.888,39.167,30.48,6.796,7.576,18.91
676,0.764,36.263,14.926,39.158,30.476,6.795,7.454,18.87
677,0.741,36.322,14.946,39.158,30.473,6.795,7.493,18.869
678,0.747,35.785,14.872,39.158,30.48,6.755,7.453,18.91
679,0.767,35.953,14.899,39.129,30.48,6.754,7.452,18.951
680,0.8,36.06,14.884,39.167,30.487,6.836,7.452,19.114
681,0.787,36.128,14.946,39.167,30.476,6.837,7.452,19.36
682,0.771,35.851,14.978,39.158,30.487,6.755,7.452,19.972
683,0.774,35.992,14.978,39.177,30.483,6.795,7.452,20.751
684,0.78,36.108,14.931,39.167,30.48,6.795,7.452,21.409
685,0.793,36.167,14.903,39.158,30.483,6.714,7.534,21.903
686,0.806,35.745,14.958,39.158,30.48,6.672,7.453,22.234
687,0.842,35.866,14.915,39.148,30.487,6.672,7.615,22.4
688,0.83,35.982,14.919,39.167,30.483,6.631,7.617,22.36
689,0.804,36.031,14.88,39.148,30.487,6.55,7.657,22.523
690,0.781,35.792,14.919,39.158,30.48,6.63,7.658,22.524
691,0.793,35.934,14.946,39.167,30.476,6.55,7.698,22.402
692,0.79,36.021,14.986,39.148,30.483,6.508,7.658,22.401
693,0.79,35.965,14.974,39.148,30.483,6.467,7.698,22.32
694,0.797,35.753,14.888,39.148,30.48,6.467,7.658,22.197
695,0.816,35.876,14.899,39.138,30.48,6.507,7.698,22.074
696,0.826,35.992,14.93,39.138,30.476,6.467,7.74,21.91
697,0.839,35.6,14.872,39.129,30.48,6.629,7.781,21.664
698,0.852,35.701,14.907,39.129,30.483,6.59,7.74,21.499
699,0.869,35.837,14.876,39.138,30.487,6.59,7.821,21.498
700,0.902,35.924,14.93,39.157,30.49,6.631,7.863,21.62
701,0.892,35.503,14.966,39.148,30.494,6.753,7.944,21.621
702,0.879,35.662,14.997,39.167,30.497,6.795,7.945,21.621
703,0.902,35.788,14.951,39.158,30.497,6.877,7.945,21.499
704,0.912,35.886,14.911,39.177,30.504,6.959,7.945,21.457
705,0.922,35.541,14.923,39.167,30.497,7.041,7.864,21.294
706,0.935,35.672,14.974,39.167,30.497,7.123,7.863,21.089
707,0.931,35.817,14.884,39.167,30.494,7.043,7.782,20.884
708,0.938,35.867,14.907,39.148,30.487,7.123,7.781,20.841
709,0.941,35.522,14.907,39.129,30.49,7.205,7.781,20.597
710,0.922,35.662,14.911,39.148,30.487,7.287,7.781,20.513
711,0.918,35.76,14.958,39.129,30.487,7.288,7.781,20.39
712,0.918,35.809,14.958,39.138,30.487,7.329,7.7,20.267
713,0.918,35.493,14.912,39.129,30.487,7.289,7.699,20.184
714,0.922,35.652,14.892,39.129,30.487,7.369,7.658,20.061
715,0.928,35.76,14.942,39.129,30.487,7.411,7.658,19.938
716,0.938,35.761,14.958,39.129,30.487,7.493,7.739,19.774
717,0.925,35.435,14.845,39.138,30.487,7.412,7.781,19.57
718,0.931,35.575,14.899,39.129,30.49,7.452,7.781,19.405
719,0.918,35.663,14.923,39.109,30.483,7.493,7.822,19.241
720,0.918,35.558,14.946,39.138,30.487,7.494,7.863,19.036
721,0.915,35.519,14.939,39.119,30.48,7.453,7.944,19.034
722,0.899,35.653,14.958,39.119,30.487,7.534,8.026,19.237
723,0.902,35.74,14.888,39.119,30.476,7.453,8.027,19.483
724,0.899,35.367,14.915,39.109,30.483,7.493,8.068,19.689
725,0.882,35.45,14.946,39.119,30.483,7.534,8.109,19.894
726,0.876,35.604,14.923,39.119,30.483,7.494,8.232,20.018
727,0.889,35.702,14.95,39.119,30.487,7.412,8.151,20.06
728,0.876,35.348,14.896,39.1,30.483,7.411,8.273,19.938
729,0.856,35.478,14.942,39.109,30.48,7.371,8.314,19.937
730,0.843,35.604,14.962,39.1,30.473,7.33,8.315,19.815
731,0.826,35.682,14.982,39.09,30.48,7.289,8.396,19.733
732,0.804,35.242,14.951,39.09,30.473,7.207,8.478,19.65
733,0.79,35.362,14.849,39.09,30.476,7.165,8.601,19.568
734,0.771,35.498,14.883,39.071,30.473,7.206,8.602,19.527
735,0.754,35.547,14.922,39.051,30.469,7.165,8.724,19.527
736,0.751,35.289,14.919,39.07,30.473,7.206,8.807,19.445
737,0.725,35.43,14.911,39.08,30.473,7.206,8.848,19.363
738,0.715,35.585,14.927,39.09,30.48,7.165,8.849,19.199
739,0.724,35.625,14.946,39.09,30.48,7.124,8.849,19.279
740,0.724,35.28,14.962,39.071,30.487,7.205,8.808,19.158
741,0.711,35.43,14.97,39.071,30.476,7.165,8.93,19.116
742,0.708,35.518,14.904,39.09,30.476,7.165,8.931,19.034
743,0.698,35.557,14.903,39.08,30.48,7.206,8.972,18.952
744,0.688,35.193,14.891,39.08,30.48,7.043,8.972,18.952
745,0.688,35.314,14.938,39.071,30.48,7.123,9.135,18.952
746,0.695,35.44,14.896,39.061,30.48,7.124,9.055,19.033
747,0.659,35.24,14.903,39.07,30.483,7.124,9.054,18.911
748,0.669,35.257,14.911,39.051,30.476,7.124,8.973,18.992
749,0.682,35.372,14.938,39.051,30.476,7.083,9.053,19.074
750,0.669,35.46,14.978,39.051,30.473,7.123,9.054,19.197
751,0.665,34.664,14.935,39.051,30.476,7.165,8.973,19.198
752,0.659,34.752,14.868,39.061,30.476,7.206,9.013,19.239
753,0.669,34.897,14.907,39.042,30.483,7.206,8.972,19.32
754,0.691,34.985,14.88,39.051,30.469,7.287,9.013,19.28
755,0.643,35.273,14.961,39.042,30.473,7.369,8.932,19.158
756,0.642,35.449,14.908,39.051,30.483,7.411,8.931,19.116
757,0.652,35.604,14.923,39.07,30.487,7.493,8.931,18.953
758,0.662,35.663,14.938,39.08,30.487,7.453,8.972,18.748
759,0.633,35.06,14.978,39.061,30.501,7.534,8.891,18.543
760,0.655,35.226,14.978,39.09,30.49,7.575,8.849,18.338
761,0.688,35.333,14.923,39.071,30.494,7.575,8.767,18.132
762,0.669,35.402,14.892,39.061,30.487,7.454,8.685,18.008
763,0.659,35.134,14.899,39.061,30.487,7.412,8.603,17.885
764,0.652,35.237,14.927,39.051,30.483,7.411,8.602,17.884
765,0.675,35.353,14.927,39.022,30.48,7.371,8.643,17.802
766,0.698,35.383,14.927,39.051,30.487,7.33,8.521,17.679
767,0.679,35.134,14.911,39.022,30.48,7.329,8.52,17.556
768,0.643,35.275,14.938,39.032,30.483,7.37,8.439,17.514
769,0.62,35.391,14.97,39.041,30.483,7.37,8.357,17.717
770,0.632,35.719,14.923,39.022,30.483,7.33,8.356,17.638
771,0.623,35.118,14.892,39.022,30.483,7.289,8.356,17.8
772,0.632,35.275,14.848,39.022,30.476,7.329,8.275,17.802
773,0.639,35.353,14.895,39.022,30.476,7.329,8.274,17.883
774,0.62,35.028,14.919,39.032,30.476,7.329,8.233,17.924
775,0.619,35.044,14.931,39.032,30.487,7.329,8.314,17.884
776,0.616,35.197,14.946,39.051,30.49,7.37,8.396,17.884
777,0.616,35.295,14.88,39.032,30.494,7.452,8.356,17.802
778,0.603,35.037,14.95,39.022,30.487,7.493,8.519,17.679
779,0.606,35.168,14.947,39.013,30.49,7.616,8.601,17.678
780,0.619,35.285,14.927,39.022,30.494,7.617,8.602,17.597
781,0.642,35.372,14.892,39.032,30.49,7.698,8.684,17.556
782,0.662,34.922,14.805,39.032,30.487,7.78,8.725,17.514
783,0.675,35.081,14.894,39.022,30.494,7.74,8.766,17.392
784,0.672,35.169,14.915,38.993,30.483,7.781,8.645,17.391
785,0.623,35.256,14.903,39.003,30.48,7.74,8.725,17.269
786,0.623,34.95,14.864,38.984,30.476,7.781,8.603,17.308
787,0.645,35.081,14.887,38.945,30.476,7.74,8.602,17.268
788,0.668,35.198,14.962,38.964,30.473,7.699,8.602,17.349
789,0.617,35.247,14.927,38.955,30.476,7.861,8.684,17.431
790,0.603,34.864,14.903,38.964,30.483,7.782,8.725,17.717
791,0.613,35.032,14.841,38.964,30.48,7.74,8.726,17.882
792,0.619,35.149,14.891,39.022,30.483,7.74,8.766,18.006
793,0.616,35.189,14.887,38.974,30.48,7.781,8.645,18.251
794,0.61,34.959,14.938,38.983,30.49,7.74,8.684,18.456
795,0.603,35.101,14.927,38.974,30.48,7.74,8.766,18.662
796,0.626,35.198,14.896,38.974,30.487,7.699,8.645,18.705
797,0.636,35.247,14.911,38.974,30.487,7.618,8.684,18.705
798,0.642,34.998,14.938,38.983,30.487,7.617,8.684,18.827
799,0.639,35.12,14.954,38.955,30.483,7.576,8.603,18.747
800,0.636,35.236,14.9,38.954,30.487,7.535,8.602,18.705
801,0.646,34.912,14.852,38.945,30.487,7.534,8.643,18.664
802,0.626,34.975,14.895,38.954,30.487,7.494,8.562,18.705
803,0.642,35.12,14.872,38.954,30.483,7.453,8.602,18.664
804,0.639,35.208,14.957,38.945,30.473,7.412,8.602,18.664
805,0.642,34.892,14.857,38.945,30.48,7.411,8.602,18.623
806,0.642,35.033,14.918,38.935,30.48,7.371,8.521,18.501
807,0.662,35.14,14.931,38.916,30.476,7.33,8.601,18.459
808,0.656,35.227,14.966,38.916,30.48,7.329,8.521,18.377
809,0.652,34.748,14.951,38.925,30.48,7.289,8.52,18.336
810,0.639,34.878,14.876,38.925,30.48,7.288,8.52,18.457
811,0.62,35.023,14.915,38.935,30.48,7.247,8.561,18.581
812,0.636,35.092,14.864,38.916,30.483,7.369,8.561,18.744
813,0.652,34.833,14.872,38.935,30.483,7.33,8.602,18.868
814,0.652,34.975,14.954,38.925,30.48,7.37,8.643,19.032
815,0.652,35.101,14.869,38.916,30.49,7.533,8.684,19.115
816,0.62,35.169,14.915,38.944,30.487,7.616,8.684,19.116
817,0.619,34.834,14.938,38.954,30.494,7.617,8.684,19.034
818,0.639,34.984,14.993,38.945,30.501,7.617,8.684,18.993
819,0.636,35.101,14.939,38.964,30.501,7.617,8.684,18.87
820,0.636,35.131,14.896,38.955,30.501,7.617,8.603,18.747
821,0.62,34.901,14.93,38.993,30.487,7.617,8.602,18.665
822,0.642,35.014,14.872,38.945,30.487,7.535,8.602,18.542
823,0.649,35.139,14.907,38.935,30.487,7.534,8.521,18.541
824,0.655,34.987,14.915,38.925,30.483,7.534,8.479,18.744
825,0.668,34.851,14.903,38.964,30.483,7.494,8.56,18.909
826,0.688,34.984,14.872,38.897,30.483,7.534,8.521,19.236
827,0.711,35.082,14.965,38.896,30.48,7.534,8.398,19.483
828,0.721,34.747,14.97,38.906,30.487,7.534,8.397,20.054
829,0.721,34.849,14.896,38.906,30.49,7.412,8.438,20.833
830,0.737,34.984,14.876,38.916,30.483,7.452,8.316,21.654
831,0.796,35.082,14.876,38.916,30.494,7.412,8.356,22.272
832,0.82,34.718,14.891,38.897,30.487,7.452,8.275,22.888
833,0.839,34.83,14.907,38.887,30.487,7.412,8.233,23.301
834,0.872,34.955,14.95,38.896,30.487,7.411,8.233,23.508
835,0.908,35.043,14.9,38.896,30.49,7.452,8.233,23.551
836,0.964,34.747,14.915,38.887,30.487,7.452,8.192,23.47
837,1.013,34.897,14.958,38.896,30.494,7.371,8.232,23.306
838,1.053,35.023,14.958,38.896,30.49,7.411,8.192,23.223
839,1.069,35.082,14.884,38.896,30.49,7.411,8.232,23.06
840,1.063,34.718,14.903,38.877,30.49,7.411,8.273,22.855
841,1.102,34.858,14.899,38.887,30.494,7.371,8.193,22.568
842,1.128,34.975,14.934,38.896,30.49,7.37,8.273,22.443
843,1.184,35.024,14.978,38.887,30.494,7.37,8.274,22.158
844,1.214,34.727,14.904,38.887,30.487,7.289,8.274,21.911
845,1.253,34.868,14.923,38.877,30.483,7.288,8.193,21.664
846,1.309,34.994,14.903,38.896,30.487,7.288,8.151,21.296
847,1.319,34.986,14.973,38.877,30.473,7.247,8.069,20.967
848,1.365,34.794,14.904,38.858,30.48,7.125,8.069,20.72
849,1.372,34.926,14.774,38.867,30.476,7.205,8.109,20.433
850,1.375,35.033,14.882,38.848,30.48,7.084,8.15,20.267
851,1.411,34.766,14.872,38.838,30.473,7.164,8.15,20.184
852,1.444,34.686,14.899,38.857,30.476,7.206,8.191,20.184
853,1.477,34.82,14.962,38.838,30.49,7.328,8.354,20.102
854,1.526,34.936,14.904,38.857,30.48,7.289,8.275,20.183
855,1.513,34.698,14.88,38.877,30.48,7.369,8.314,20.184
856,1.5,34.81,14.934,38.877,30.487,7.33,8.274,20.102
857,1.461,34.955,14.943,38.848,30.483,7.37,8.274,20.142
858,1.405,35.024,14.907,38.867,30.48,7.37,8.274,20.142
859,1.336,34.622,14.895,38.944,30.483,7.411,8.314,20.183
860,1.271,34.762,14.872,38.859,30.487,7.411,8.274,20.184
861,1.179,34.888,14.891,38.858,30.48,7.371,8.233,20.184
862,1.064,34.956,14.934,38.858,30.487,7.37,8.233,20.265
863,0.978,35.206,14.997,38.858,30.487,7.33,8.151,20.266
864,0.86,35.352,14.881,38.858,30.476,7.329,8.15,20.225
865,0.771,35.469,14.922,38.858,30.476,7.37,8.232,20.306
866,0.699,35.508,14.938,38.838,30.483,7.289,8.111,20.632
867,0.662,34.301,14.943,38.829,30.473,7.247,8.069,21.327
868,0.656,34.451,14.892,38.848,30.483,7.288,8.15,22.553
869,0.655,34.568,14.868,38.829,30.483,7.329,8.191,23.745
870,0.649,34.617,14.875,38.838,30.476,7.329,8.232,24.935
871,0.646,34.809,14.899,38.848,30.48,7.329,8.273,25.964
872,0.603,34.946,14.95,38.867,30.49,7.41,8.436,26.868
873,0.574,35.062,14.986,38.877,30.494,7.411,8.357,27.528
874,0.583,35.303,14.881,38.887,30.501,7.452,8.437,27.86
875,0.551,35.094,14.922,38.848,30.497,7.412,8.397,27.985
876,0.531,35.236,14.938,38.896,30.494,7.452,8.397,27.783
877,0.534,35.305,14.974,38.887,30.49,7.371,8.316,27.456
878,0.531,34.548,14.888,38.877,30.49,7.289,8.396,27.087
879,0.524,34.444,14.891,38.858,30.483,7.369,8.356,26.758
880,0.521,34.549,14.903,38.838,30.483,7.33,8.315,26.348
881,0.534,34.646,14.923,38.857,30.48,7.37,8.396,25.978
882,0.534,34.675,14.97,38.838,30.487,7.33,8.438,25.568
883,0.547,34.839,14.962,38.838,30.483,7.451,8.519,25.197
884,0.557,34.936,14.935,38.877,30.487,7.371,8.52,25.031
885,0.563,35.043,14.915,38.839,30.48,7.37,8.601,24.948
886,0.544,34.469,14.938,38.829,30.487,7.33,8.724,25.029
887,0.576,34.626,14.915,38.867,30.49,7.41,8.726,25.03
888,0.606,34.771,14.903,38.934,30.487,7.452,8.848,24.948
889,0.616,34.84,14.907,38.858,30.487,7.452,8.93,24.947
890,0.639,34.61,14.895,38.858,30.49,7.452,8.931,24.825
891,0.662,34.742,14.942,38.848,30.487,7.452,9.012,24.743
892,0.652,34.859,14.989,38.867,30.49,7.452,8.972,24.783
893,0.642,34.937,14.974,38.858,30.487,7.493,8.972,24.824
894,0.646,34.496,14.943,38.848,30.487,7.453,9.013,24.865
895,0.655,34.645,14.904,38.848,30.49,7.493,9.054,24.865
896,0.668,34.752,14.962,38.858,30.487,7.371,9.013,24.865
897,0.665,34.792,14.912,38.867,30.49,7.452,8.972,25.028
898,0.675,34.524,14.923,38.858,30.483,7.29,9.013,25.03
899,0.672,34.646,14.903,38.838,30.473,7.329,9.013,24.907
900,0.678,34.752,14.899,38.838,30.483,7.289,9.013,24.703
901,0.711,34.935,14.954,38.81,30.476,7.247,8.972,24.62
902,0.705,34.515,14.935,38.819,30.473,7.166,9.013,24.416
903,0.698,34.645,14.95,38.828,30.476,7.246,8.972,24.21
904,0.688,34.743,14.884,38.819,30.48,7.247,8.972,24.127
905,0.692,34.504,14.86,38.828,30.483,7.247,9.013,23.801
906,0.705,34.588,14.957,38.829,30.483,7.206,8.932,23.635
907,0.757,34.713,14.904,38.857,30.487,7.247,9.012,23.186
908,0.77,34.839,14.927,38.829,30.49,7.206,8.932,22.897
909,0.725,34.399,14.892,38.838,30.487,7.165,8.931,22.65
910,0.711,34.529,14.95,38.838,30.483,7.165,8.89,22.444
911,0.715,34.674,14.97,38.838,30.483,7.165,8.727,22.198
912,0.692,34.753,14.974,38.838,30.476,7.206,8.726,22.033
913,0.685,34.475,14.923,38.857,30.48,7.206,8.726,21.747
914,0.685,34.635,14.892,38.838,30.483,7.125,8.603,21.5
915,0.688,34.762,14.899,38.848,30.48,7.124,8.562,21.172
916,0.705,34.821,14.946,38.838,30.476,7.165,8.561,21.006
917,0.711,34.38,14.904,38.848,30.487,7.165,8.602,20.761
918,0.741,34.548,14.895,38.848,30.476,7.165,8.602,20.433
919,0.721,34.655,14.895,38.858,30.48,7.206,8.643,20.105
920,0.695,34.724,14.966,38.848,30.48,7.206,8.684,19.857
921,0.688,34.437,14.943,38.838,30.48,7.247,8.725,19.652
922,0.708,34.568,14.986,38.838,30.48,7.369,8.726,19.406
923,0.702,34.684,14.869,38.838,30.476,7.533,8.807,19.241
924,0.724,34.724,14.915,38.838,30.483,7.697,8.889,19.117
925,0.744,34.427,14.942,38.838,30.476,7.943,8.89,18.994
926,0.76,34.568,14.931,38.857,30.48,8.108,8.93,18.748
927,0.741,34.713,14.939,38.867,30.487,8.354,8.972,18.705
928,0.715,34.657,14.884,38.858,30.483,8.478,9.013,18.624
929,0.737,34.474,14.922,38.867,30.483,8.723,9.094,18.542
930,0.747,34.616,14.95,38.906,30.497,8.848,9.095,18.541
931,0.741,34.733,14.993,38.887,30.497,9.011,9.095,18.459
932,0.747,34.37,14.998,38.887,30.497,9.094,9.014,18.54
933,0.757,34.462,14.885,38.896,30.49,9.095,8.932,18.541
934,0.731,34.597,14.926,38.887,30.487,9.095,8.89,18.541
935,0.738,34.675,14.942,38.867,30.487,9.176,8.89,18.459
936,0.731,34.292,14.927,38.867,30.487,9.177,8.89,18.499
937,0.699,34.461,14.923,38.867,30.483,9.218,8.809,18.378
938,0.705,34.568,14.864,38.877,30.49,9.178,8.848,18.254
939,0.721,34.636,14.922,38.858,30.487,9.218,8.767,18.172
940,0.718,34.541,14.942,38.858,30.49,9.178,8.767,18.009
941,0.737,34.694,14.97,38.877,30.483,9.137,8.767,17.926
942,0.738,34.82,14.935,38.858,30.49,9.095,8.645,18.006
943,0.734,34.869,14.911,38.867,30.48,9.054,8.725,17.885
944,0.738,34.131,14.915,38.848,30.48,9.135,8.726,17.924
945,0.754,34.277,14.962,38.867,30.476,9.014,8.685,17.884
946,0.767,34.394,14.9,38.839,30.487,8.972,8.562,17.762
947,0.761,34.472,14.884,38.848,30.487,8.891,8.643,17.638
948,0.744,34.348,14.911,38.838,30.487,8.809,8.603,17.556
949,0.744,34.5,14.95,38.829,30.483,8.767,8.562,17.555
950,0.747,34.607,14.958,38.819,30.49,8.807,8.602,17.555
951,0.734,34.627,14.962,38.838,30.487,8.645,8.521,17.636
952,0.738,34.311,14.919,38.819,30.487,8.684,8.52,17.759
953,0.734,34.452,14.86,38.819,30.487,8.603,8.52,17.923
954,0.747,34.578,14.883,38.838,30.49,8.562,8.479,18.047
955,0.741,34.387,14.985,38.8,30.49,8.521,8.56,18.211
956,0.777,34.318,14.892,38.838,30.49,8.439,8.521,18.212
957,0.78,34.442,14.895,38.81,30.49,8.438,8.479,18.172
958,0.771,34.558,14.93,38.8,30.494,8.357,8.357,18.171
959,0.741,34.224,14.935,38.79,30.48,8.315,8.356,18.212
960,0.76,34.336,14.954,38.799,30.487,8.193,8.275,18.253
961,0.761,34.461,14.939,38.79,30.483,8.11,8.193,18.538
962,0.757,34.53,14.872,38.761,30.48,8.069,8.192,19.232
963,0.757,34.157,14.872,38.761,30.469,7.987,8.192,19.849
964,0.754,34.268,14.899,38.751,30.473,8.027,8.192,20.546
965,0.748,34.403,14.93,38.77,30.476,8.027,8.151,21.0
966,0.747,34.491,14.782,38.78,30.48,7.987,8.232,21.289
967,0.76,34.156,14.894,38.751,30.487,7.986,8.192,21.496
968,0.774,34.306,14.915,38.78,30.487,7.905,8.029,21.579
969,0.793,34.442,14.97,38.761,30.487,7.945,8.109,21.62
970,0.787,34.53,14.935,38.77,30.49,7.864,8.028,21.54
971,0.761,34.118,14.903,38.761,30.483,7.822,7.946,21.498
972,0.761,34.258,14.841,38.751,30.487,7.7,7.945,21.62
973,0.748,34.394,14.832,38.751,30.483,7.699,7.945,21.621
974,0.757,34.433,14.899,38.742,30.48,7.658,7.905,21.743
975,0.761,34.184,14.907,38.741,30.48,7.617,7.823,21.744
976,0.767,34.326,14.911,38.751,30.48,7.617,7.944,21.663
977,0.767,34.452,14.876,38.732,30.483,7.495,7.905,21.743
978,0.761,34.443,14.95,38.722,30.483,7.453,7.904,21.703
979,0.764,34.079,14.95,38.732,30.473,7.371,7.904,21.744
980,0.777,34.21,14.954,38.722,30.48,7.33,7.863,21.744
981,0.797,34.326,14.904,38.713,30.487,7.37,7.904,21.744
982,0.771,34.116,14.849,38.722,30.48,7.37,7.863,21.744
983,0.783,34.124,14.879,38.693,30.48,7.248,7.863,21.5
984,0.803,34.268,14.907,38.693,30.476,7.166,7.904,21.335
985,0.807,34.355,14.899,38.683,30.476,7.246,8.067,21.13
986,0.81,33.906,14.915,38.703,30.483,7.288,8.028,20.884
987,0.829,34.035,14.884,38.693,30.487,7.247,8.027,20.597
988,0.839,34.171,14.973,38.703,30.487,7.247,8.109,20.513
989,0.869,34.268,14.955,38.722,30.49,7.288,8.109,20.512
990,0.85,33.981,14.927,38.722,30.497,7.288,8.15,20.512
991,0.82,34.141,14.868,38.722,30.494,7.288,8.15,20.634
992,0.817,34.277,14.809,38.741,30.494,7.207,8.069,20.554
993,0.816,34.365,14.867,38.703,30.49,7.165,8.028,20.512
994,0.81,34.011,14.95,38.693,30.497,7.124,8.068,20.512
995,0.82,34.142,14.892,38.683,30.487,7.002,7.987,20.431
996,0.8,34.268,14.915,38.674,30.48,7.001,7.946,20.43
997,0.8,34.317,14.915,38.683,30.487,6.96,7.986,20.349
998,0.79,33.963,14.938,38.664,30.487,6.96,7.986,20.266
999,0.793,34.112,14.97,38.674,30.487,7.0,7.946,20.266
1000,0.8,34.229,14.927,38.674,30.487,6.919,7.864,20.266
1001,0.829,34.269,14.907,38.693,30.483,6.919,7.944,20.144
1002,0.836,33.991,14.88,38.722,30.487,6.878,7.864,20.02
1003,0.852,34.122,14.903,38.674,30.48,6.877,7.863,19.979
1004,0.853,34.239,14.93,38.683,30.487,6.837,7.822,19.937
1005,0.846,34.537,14.896,38.674,30.483,6.877,7.781,19.693
1006,0.885,33.831,14.891,38.664,30.487,6.837,7.862,19.609
1007,0.921,33.977,14.907,38.654,30.487,6.796,7.741,19.405
1008,0.87,34.084,14.97,38.664,30.487,6.795,7.699,19.362
1009,0.843,33.941,14.97,38.654,30.487,6.795,7.861,19.321
1010,0.879,34.016,14.923,38.664,30.494,6.795,7.863,19.402
1011,0.869,34.161,14.864,38.664,30.487,6.795,7.782,19.281
1012,0.833,34.258,14.895,38.664,30.49,6.795,7.781,19.361
1013,0.836,33.809,14.907,38.654,30.483,6.714,7.781,19.321
1014,0.856,33.919,14.938,38.645,30.49,6.672,7.74,19.28
1015,0.869,34.074,14.907,38.645,30.487,6.631,7.781,19.199
1016,0.885,34.162,14.911,38.645,30.49,6.631,7.74,19.198
1017,0.872,33.769,14.919,38.635,30.48,6.59,7.781,19.198
1018,0.879,33.919,14.942,38.645,30.483,6.549,7.7,19.117
1019,0.882,34.035,14.954,38.606,30.48,6.549,7.658,19.238
1020,0.879,34.075,14.884,38.625,30.473,6.63,7.739,19.361
1021,0.882,33.682,14.868,38.606,30.476,6.753,7.74,19.484
1022,0.898,33.832,14.891,38.606,30.469,6.795,7.74,19.445
1023,0.921,33.939,14.887,38.596,30.48,6.999,7.781,19.485
1024,0.905,34.036,14.958,38.606,30.483,7.123,7.822,19.404
1025,0.931,33.72,14.88,38.625,30.48,7.246,7.781,19.241
1026,0.918,33.87,14.919,38.635,30.483,7.369,7.781,19.158
1027,0.938,33.977,14.915,38.616,30.483,7.411,7.7,18.954
1028,0.915,34.017,14.962,38.587,30.48,7.452,7.78,18.952
1029,0.935,33.739,14.951,38.606,30.487,7.493,7.7,18.911
1030,0.935,33.88,14.896,38.606,30.487,7.616,7.699,18.91
1031,0.922,33.997,14.868,38.616,30.483,7.657,7.658,18.951
1032,0.896,34.036,14.883,38.597,30.483,7.698,7.698,19.155
1033,0.882,33.758,14.868,38.596,30.476,7.618,7.658,19.197
1034,0.892,33.9,14.946,38.606,30.48,7.698,7.698,19.157
1035,0.899,34.016,14.9,38.606,30.473,7.699,7.78,19.197
1036,0.912,33.701,14.911,38.596,30.483,7.699,7.74,19.239
1037,0.928,33.784,14.915,38.606,30.476,7.658,7.74,19.158
1038,0.938,33.909,14.981,38.587,30.476,7.658,7.659,19.035
1039,0.951,34.007,14.927,38.587,30.48,7.617,7.658,18.83
1040,0.948,33.662,14.86,38.596,30.476,7.617,7.739,18.584
1041,0.958,33.822,14.801,38.587,30.483,7.617,7.618,18.541
1042,0.961,33.939,14.879,38.577,30.48,7.657,7.657,18.338
1043,0.958,34.016,14.887,38.586,30.473,7.617,7.617,18.173
1044,0.951,33.624,14.942,38.567,30.48,7.535,7.779,18.13
1045,0.964,33.783,14.884,38.586,30.48,7.534,7.74,18.293
1046,0.981,33.929,14.891,38.596,30.483,7.657,7.862,18.294
1047,1.0,34.007,14.942,38.587,30.487,7.617,7.822,18.294
1048,0.984,33.691,14.943,38.606,30.49,7.617,7.944,18.457
1049,1.007,33.86,14.962,38.616,30.501,7.617,7.986,18.418
1050,1.03,33.996,14.912,38.616,30.494,7.657,7.986,18.499
1051,1.03,34.046,14.829,38.625,30.494,7.658,7.946,18.418
1052,1.007,33.807,14.899,38.625,30.49,7.576,7.986,18.377
1053,1.033,33.948,14.852,38.616,30.494,7.616,7.824,18.336
1054,1.024,34.055,14.938,38.597,30.487,7.454,7.822,18.295
1055,1.004,34.075,14.872,38.587,30.487,7.493,7.863,18.376
1056,1.01,33.912,14.907,38.596,30.48,7.534,7.822,18.336
1057,1.001,34.083,14.934,38.587,30.487,7.494,7.822,18.254
1058,1.01,34.162,14.966,38.587,30.483,7.412,7.822,18.335
1059,1.017,34.076,14.939,38.596,30.483,7.452,7.822,18.498
1060,1.036,33.97,14.868,38.587,30.483,7.452,7.822,18.622
1061,1.03,34.113,14.864,38.587,30.483,7.493,7.863,18.786
1062,1.04,34.229,14.856,38.567,30.483,7.412,7.863,18.99
1063,1.05,34.106,14.875,38.577,30.487,7.411,7.822,18.952
1064,1.066,34.229,14.954,38.596,30.487,7.411,7.822,19.033
1065,1.092,34.374,14.892,38.587,30.48,7.452,7.781,18.993
1066,1.092,34.481,14.919,38.577,30.487,7.452,7.781,18.952
1067,1.089,34.281,14.927,38.586,30.483,7.452,7.862,19.236
1068,1.089,34.422,14.962,38.587,30.487,7.452,7.822,19.889
1069,1.089,34.549,14.9,38.587,30.487,7.452,7.863,20.75
1070,1.083,34.646,14.852,38.596,30.49,7.493,7.822,21.612
1071,1.083,34.666,14.875,38.644,30.48,7.453,7.822,22.475
1072,1.083,34.81,14.86,38.597,30.49,7.371,7.863,23.337
1073,1.089,34.936,14.895,38.577,30.487,7.411,7.944,24.118
1074,1.083,34.995,14.942,38.586,30.49,7.411,7.864,24.573
1075,1.083,35.063,14.868,38.596,30.487,7.33,7.863,24.944
1076,1.089,35.188,14.879,38.587,30.487,7.37,7.944,25.11
1077,1.083,35.314,14.938,38.577,30.48,7.33,7.945,25.152
1078,1.092,35.334,14.958,38.577,30.483,7.289,7.945,24.868
1079,1.092,35.449,14.896,38.567,30.476,7.207,7.945,24.743
1080,1.096,35.594,14.88,38.567,30.48,7.165,7.945,24.376
1081,1.073,35.692,14.876,38.606,30.473,7.165,7.986,24.047
1082,1.076,35.683,14.883,38.539,30.469,7.124,8.027,23.637
1083,1.083,35.789,14.895,38.548,30.473,7.083,8.149,23.267
1084,1.096,35.905,14.954,38.538,30.48,7.123,8.15,22.979
1085,1.109,36.021,14.908,38.624,30.48,7.124,8.232,22.895
1086,1.115,36.224,14.899,38.558,30.483,7.165,8.192,22.731
1087,1.109,36.36,14.927,38.567,30.483,7.124,8.232,22.567
1088,1.109,36.467,14.939,38.567,30.487,7.083,8.233,22.321
1089,1.112,36.564,14.911,38.567,30.483,7.042,8.233,22.075
1090,1.093,36.593,14.856,38.567,30.48,7.042,8.192,21.991
1091,1.079,36.728,14.907,38.653,30.487,7.042,8.151,21.909
1092,1.099,36.825,14.88,38.578,30.48,6.96,8.273,21.786
1093,1.089,36.903,14.903,38.558,30.483,7.0,8.355,21.704
1094,1.096,37.901,14.942,38.567,30.48,7.001,8.275,21.744
1095,1.109,38.064,14.818,38.577,30.48,7.041,8.396,21.622
1096,1.102,38.143,14.891,38.567,30.483,6.96,8.397,21.458
1097,1.102,38.201,14.934,38.567,30.48,6.919,8.397,21.335
1098,1.096,37.262,14.958,38.567,30.476,7.041,8.478,21.171
1099,1.092,37.386,14.9,38.558,30.476,6.879,8.601,20.844
1100,1.102,37.493,14.895,38.548,30.473,6.877,8.643,20.556
1101,1.119,37.542,14.805,38.557,30.473,6.877,8.684,20.268
1102,1.122,38.176,14.906,38.548,30.48,6.796,8.847,19.94
1103,1.119,38.297,14.884,38.548,30.48,6.917,8.889,19.693
1104,1.109,38.385,14.958,38.548,30.48,6.959,8.93,19.447
1105,1.102,38.424,14.923,38.567,30.483,7.122,9.012,19.322
1106,1.083,38.28,14.88,38.548,30.483,7.165,9.054,19.036
1107,1.102,38.394,14.938,38.567,30.497,7.287,9.095,19.156
1108,1.109,38.501,14.943,38.558,30.494,7.369,9.136,19.604
1109,1.112,38.78,14.939,38.567,30.49,7.573,9.258,20.3
1110,1.122,38.859,14.884,38.586,30.501,7.657,9.219,20.917
1111,1.132,38.975,14.774,38.606,30.501,7.861,9.218,21.573
1112,1.116,39.082,14.89,38.587,30.494,7.741,9.096,22.068
1113,1.099,38.987,14.899,38.587,30.49,7.862,9.014,22.561
1114,1.093,39.024,14.942,38.558,30.483,7.863,9.013,23.053
1115,1.089,39.111,14.861,38.567,30.483,7.944,8.891,23.465
1116,1.076,39.189,14.883,38.558,30.483,7.986,8.971,23.754
1117,1.027,39.228,14.942,38.567,30.483,8.027,8.85,24.0
1118,1.017,39.362,14.943,38.558,30.483,8.027,8.849,24.003
1119,1.036,39.44,14.923,38.558,30.49,8.027,8.767,24.043
1120,1.056,39.518,14.837,38.558,30.487,8.109,8.807,23.922
1121,1.043,39.404,14.899,38.605,30.487,8.028,8.645,23.758
1122,1.033,39.527,14.88,38.577,30.487,8.027,8.684,23.634
1123,1.037,39.643,14.895,38.539,30.483,8.027,8.603,23.43
1124,1.02,39.683,14.946,38.567,30.483,8.068,8.562,23.225
1125,1.01,39.453,14.919,38.558,30.487,8.15,8.48,23.06
1126,1.004,39.576,14.907,38.558,30.483,8.11,8.479,22.936
1127,0.991,39.692,14.942,38.558,30.49,8.109,8.479,22.691
1128,0.974,39.731,14.974,38.538,30.487,8.15,8.438,22.526
1129,0.971,39.77,14.892,38.548,30.487,8.15,8.397,22.321
1130,0.955,39.905,14.852,38.548,30.494,8.15,8.356,22.156
1131,0.958,40.04,14.903,38.557,30.487,8.11,8.356,21.992
1132,0.935,40.042,14.849,38.538,30.487,8.109,8.356,22.031
1133,0.912,39.85,14.899,38.567,30.487,8.069,8.315,21.991
1134,0.915,39.954,14.919,38.558,30.494,8.109,8.274,21.991
1135,0.902,40.06,14.931,38.548,30.487,7.987,8.152,21.787
1136,0.892,40.224,14.907,38.529,30.487,7.946,8.11,21.501
1137,0.892,40.024,14.954,38.538,30.487,7.945,8.15,21.254
1138,0.879,40.128,14.97,38.529,30.48,7.823,7.947,20.885
1139,0.872,40.215,14.892,38.519,30.48,7.781,7.945,20.638
1140,0.837,39.928,14.817,38.509,30.469,7.7,7.945,20.351
1141,0.833,39.964,14.879,38.567,30.473,7.74,7.864,20.307
1142,0.826,40.06,14.864,38.5,30.473,7.781,7.863,20.144
1143,0.852,40.157,14.856,38.519,30.476,7.74,7.863,20.061
1144,0.875,40.302,14.911,38.5,30.487,7.74,7.944,20.02
1145,0.853,40.447,14.907,38.528,30.48,7.74,7.945,19.857
1146,0.83,40.573,14.876,38.538,30.487,7.781,7.945,19.652
1147,0.846,40.642,14.961,38.519,30.483,7.74,7.823,19.487
1148,0.84,39.597,14.947,38.519,30.487,7.781,7.863,19.404
1149,0.836,39.73,14.904,38.528,30.483,7.822,7.782,19.241
1150,0.807,39.837,14.86,38.538,30.48,7.781,7.822,19.239
1151,0.813,39.886,14.911,38.519,30.48,7.862,7.822,19.442
1152,0.81,39.944,14.895,38.509,30.48,7.944,7.822,19.851
1153,0.794,40.079,14.899,38.509,30.48,8.026,7.7,20.261
1154,0.797,40.176,14.977,38.528,30.487,8.068,7.821,20.591
1155,0.764,40.216,14.92,38.509,30.487,8.109,7.822,20.879
1156,0.738,39.813,14.888,38.528,30.483,8.109,7.863,21.044
1157,0.731,39.924,14.919,38.509,30.48,8.109,7.904,21.209
1158,0.741,40.031,14.942,38.49,30.483,8.191,7.945,21.21
1159,0.747,40.061,14.861,38.509,30.473,8.192,7.945,21.169
1160,0.764,39.773,14.86,38.509,30.473,8.232,8.026,21.21
1161,0.754,39.895,14.911,38.576,30.483,8.233,8.027,21.088
1162,0.738,39.992,14.876,38.51,30.476,8.233,8.109,20.924
1163,0.773,39.878,14.907,38.49,30.483,8.192,8.191,20.882
1164,0.767,39.685,14.95,38.509,30.48,8.192,8.151,20.882
1165,0.767,39.798,14.915,38.5,30.48,8.192,8.232,20.841
1166,0.774,39.896,14.876,38.519,30.49,8.232,8.314,20.8
1167,0.797,39.523,14.958,38.519,30.49,8.273,8.315,20.759
1168,0.781,39.605,14.951,38.519,30.501,8.193,8.315,20.881
1169,0.774,39.721,14.908,38.548,30.49,8.273,8.315,21.044
1170,0.761,39.818,14.841,38.538,30.49,8.274,8.234,21.168
1171,0.761,39.359,14.903,38.538,30.497,8.152,8.233,21.332
1172,0.744,39.498,14.911,38.538,30.497,8.069,8.192,21.374
1173,0.747,39.595,14.954,38.519,30.494,8.069,8.11,21.537
1174,0.728,39.644,14.993,38.509,30.487,8.069,8.109,21.457
1175,0.712,39.271,14.947,38.5,30.483,8.109,8.069,21.497
1176,0.711,39.392,14.9,38.49,30.487,8.109,7.987,21.498
1177,0.708,39.489,14.954,38.49,30.483,8.15,7.946,21.579
1178,0.702,39.518,14.947,38.499,30.483,8.11,7.945,21.661
1179,0.698,39.135,14.907,38.471,30.48,8.109,7.986,21.662
1180,0.714,39.285,14.872,38.49,30.48,8.191,7.946,21.825
1181,0.757,39.373,14.895,38.547,30.48,8.11,7.945,22.192
1182,0.767,39.421,14.884,38.481,30.487,8.069,7.986,22.765
1183,0.767,39.077,14.903,38.471,30.483,8.109,7.824,23.299
1184,0.754,39.217,14.981,38.48,30.483,8.15,7.781,23.793
1185,0.748,39.334,14.92,38.49,30.487,8.191,7.781,24.123
1186,0.741,39.363,14.899,38.48,30.483,8.029,7.822,24.329
1187,0.751,38.779,14.934,38.461,30.483,8.068,7.781,24.25
1188,0.754,38.907,14.946,38.451,30.49,8.109,7.7,24.127
1189,0.744,39.014,14.907,38.47,30.494,8.069,7.699,23.963
1190,0.731,38.89,14.798,38.48,30.483,8.069,7.78,23.555
1191,0.738,38.889,14.89,38.451,30.49,7.987,7.659,23.429
1192,0.731,39.014,14.891,38.48,30.49,7.946,7.82,23.143
1193,0.741,39.092,14.95,38.461,30.49,7.905,7.781,22.815
1194,0.757,38.488,14.935,38.442,30.48,7.742,7.7,22.487
1195,0.764,38.588,14.935,38.441,30.476,7.74,7.78,22.239
1196,0.764,38.685,14.892,38.422,30.476,7.699,7.74,21.871
1197,0.725,38.772,14.926,38.422,30.469,7.699,7.781,21.583
1198,0.708,38.303,14.939,38.412,30.473,7.74,7.781,21.214
1199,0.724,38.452,14.88,38.412,30.473,7.781,7.862,20.926
1200,0.741,38.568,14.852,38.432,30.476,7.74,7.863,20.598
1201,0.751,38.646,14.86,38.508,30.476,7.862,7.863,20.31
1202,0.767,38.283,14.875,38.423,30.48,7.822,7.822,19.982
1203,0.761,38.432,14.879,38.432,30.483,7.903,7.863,19.694
1204,0.761,38.549,14.954,38.432,30.473,7.863,7.863,19.447
1205,0.787,38.589,14.908,38.528,30.487,7.863,7.863,19.119
1206,0.767,38.109,14.884,38.414,30.483,7.822,7.822,18.791
1207,0.77,38.22,14.934,38.412,30.476,7.903,7.863,18.503
1208,0.767,38.336,14.923,38.403,30.48,7.863,7.904,18.378
1209,0.774,38.375,14.903,38.412,30.483,7.863,7.823,18.254
1210,0.767,37.925,14.837,38.403,30.476,7.863,7.781,18.131
1211,0.764,38.064,14.863,38.451,30.48,7.904,7.822,18.171
1212,0.761,38.162,14.903,38.394,30.476,7.823,7.781,18.13
1213,0.748,38.259,14.884,38.403,30.48,7.822,7.7,18.171
1214,0.764,37.943,14.954,38.393,30.483,7.781,7.74,18.13
1215,0.764,38.093,14.904,38.441,30.476,7.74,7.781,18.089
1216,0.748,38.181,14.907,38.365,30.473,7.699,7.74,18.089
1217,0.734,37.808,14.927,38.383,30.476,7.699,7.821,18.089
1218,0.728,37.756,14.981,38.374,30.473,7.699,7.822,18.089
1219,0.731,37.871,14.927,38.393,30.473,7.699,7.822,18.089
1220,0.751,37.978,14.86,38.364,30.473,7.618,7.944,18.008
1221,0.754,37.47,14.778,38.393,30.476,7.576,7.945,18.048
1222,0.767,37.6,14.851,38.374,30.473,7.657,7.905,18.007
1223,0.774,37.716,14.891,38.374,30.48,7.617,7.945,18.007
1224,0.79,37.803,14.946,38.393,30.487,7.698,7.945,18.129
1225,0.784,37.411,14.923,38.403,30.49,7.699,8.067,18.252
1226,0.777,37.57,14.903,38.412,30.49,7.699,8.109,18.253
1227,0.774,37.687,14.923,38.374,30.49,7.658,8.069,18.172
1228,0.774,37.755,14.985,38.402,30.504,7.698,7.987,18.212
1229,0.787,37.459,14.912,38.403,30.497,7.577,8.027,18.172
1230,0.78,37.619,14.88,38.384,30.494,7.454,7.946,18.252
1231,0.79,37.726,14.919,38.393,30.487,7.452,7.945,18.375
1232,0.8,37.765,14.876,38.383,30.483,7.412,7.945,18.458
1233,0.8,37.372,14.907,38.364,30.487,7.371,7.864,18.581
1234,0.774,37.464,14.938,38.345,30.487,7.37,7.863,18.663
1235,0.758,37.6,14.919,38.335,30.48,7.37,7.904,18.664
1236,0.735,37.62,14.884,38.344,30.487,7.37,7.863,18.623
1237,0.734,37.313,14.958,38.364,30.48,7.33,7.822,18.623
1238,0.738,37.435,14.958,38.354,30.487,7.37,7.822,18.542
1239,0.757,37.551,14.915,38.354,30.483,7.452,7.781,18.459
1240,0.761,37.773,14.872,38.345,30.483,7.534,7.781,18.337
1241,0.751,37.449,14.891,38.393,30.483,7.494,7.822,18.376
1242,0.748,37.561,14.899,38.345,30.483,7.616,7.741,18.336
1243,0.757,37.658,14.88,38.335,30.483,7.576,7.781,18.132
1244,0.761,36.997,14.95,38.335,30.487,7.657,7.74,18.171
1245,0.774,37.0,14.896,38.344,30.48,7.78,7.781,18.13
1246,0.771,37.135,14.899,38.345,30.487,7.903,7.781,18.008
1247,0.783,37.203,14.962,38.325,30.483,8.067,7.822,17.844
1248,0.784,37.06,14.955,38.316,30.48,8.15,7.781,17.924
1249,0.8,37.183,14.9,38.325,30.483,8.191,7.7,18.006
1250,0.781,37.319,14.856,38.325,30.487,8.273,7.699,18.129
1251,0.78,37.397,14.907,38.392,30.487,8.396,7.78,18.252
1252,0.751,36.784,14.852,38.326,30.487,8.397,7.74,18.335
1253,0.751,36.931,14.895,38.316,30.487,8.356,7.74,18.457
1254,0.767,37.048,14.93,38.316,30.483,8.437,7.659,18.459
1255,0.767,37.116,14.939,38.383,30.476,8.397,7.658,18.54
1256,0.754,36.867,14.9,38.297,30.48,8.397,7.617,18.5
1257,0.738,36.999,14.946,38.287,30.476,8.356,7.535,18.5
1258,0.741,37.106,14.974,38.296,30.473,8.356,7.494,18.459
1259,0.741,37.155,14.892,38.296,30.469,8.315,7.616,18.377
1260,0.731,36.858,14.821,38.277,30.466,8.396,7.617,18.295
1261,0.734,36.98,14.832,38.267,30.473,8.438,7.576,18.213
1262,0.747,37.077,14.867,38.267,30.48,8.519,7.657,18.172
1263,0.773,37.097,14.875,38.277,30.48,8.439,7.698,18.171
1264,0.777,36.829,14.946,38.286,30.487,8.438,7.699,18.09
1265,0.79,36.989,14.818,38.315,30.476,8.438,7.74,18.048
1266,0.78,37.096,14.883,38.296,30.48,8.397,7.699,18.007
1267,0.79,36.973,14.942,38.277,30.483,8.478,7.821,17.926
1268,0.787,36.693,14.95,38.277,30.487,8.357,7.781,17.925
1269,0.78,36.825,14.923,38.277,30.48,8.315,7.862,17.843
1270,0.764,36.941,14.845,38.277,30.487,8.315,7.822,17.924
1271,0.744,36.568,14.797,38.296,30.48,8.274,7.903,17.965
1272,0.725,36.67,14.847,38.287,30.483,8.193,7.945,18.169
1273,0.737,36.805,14.852,38.277,30.476,8.151,7.905,18.212
1274,0.747,36.893,14.946,38.267,30.483,8.11,7.904,18.293
1275,0.738,36.558,14.872,38.296,30.483,8.028,7.863,18.294
1276,0.754,36.718,14.887,38.267,30.476,8.027,7.863,18.294
1277,0.761,36.844,14.895,38.267,30.476,7.946,7.944,18.294
1278,0.767,36.893,14.934,38.248,30.476,7.864,7.945,18.254
1279,0.764,36.424,14.923,38.257,30.476,7.863,7.945,18.131
1280,0.754,36.582,14.849,38.258,30.473,7.782,7.905,18.13
1281,0.761,36.68,14.793,38.267,30.473,7.7,7.823,18.089
1282,0.767,36.738,14.847,38.258,30.473,7.618,7.903,18.048
1283,0.806,36.451,14.895,38.258,30.476,7.617,7.904,18.048
1284,0.784,36.631,14.954,38.258,30.473,7.576,7.945,18.089
1285,0.732,36.747,14.849,38.277,30.48,7.657,8.026,18.089
1286,0.757,36.768,14.907,38.267,30.48,7.617,8.068,18.008
1287,0.77,36.423,14.919,38.248,30.494,7.576,8.069,17.885
1288,0.77,36.573,14.974,38.277,30.497,7.616,8.109,17.965
1289,0.764,36.708,14.927,38.286,30.497,7.617,8.15,18.007
1290,0.741,36.729,14.884,38.287,30.494,7.617,8.15,17.966
1291,0.734,36.48,14.86,38.296,30.494,7.535,8.191,17.966
1292,0.728,36.612,14.887,38.277,30.49,7.412,8.151,18.169
1293,0.741,36.728,14.915,38.277,30.487,7.452,8.11,18.252
1294,0.741,36.509,14.942,38.248,30.487,7.371,8.15,18.335
1295,0.731,36.43,14.876,38.248,30.48,7.289,8.232,18.335
1296,0.731,36.554,14.872,38.257,30.483,7.329,8.273,18.254
1297,0.721,36.641,14.922,38.258,30.476,7.329,8.274,18.213
1298,0.737,36.354,14.942,38.238,30.476,7.289,8.274,18.212
1299,0.747,36.467,14.962,38.257,30.483,7.288,8.396,18.131
1300,0.764,36.592,14.888,38.258,30.48,7.247,8.397,17.967
1301,0.767,36.689,14.848,38.248,30.487,7.206,8.478,17.885
1302,0.767,36.249,14.903,38.238,30.48,7.247,8.479,17.884
1303,0.754,36.389,14.876,38.248,30.483,7.206,8.357,17.802
1304,0.751,36.505,14.969,38.257,30.476,7.287,8.519,17.802
1305,0.764,36.602,14.849,38.248,30.48,7.207,8.479,17.679
1306,0.761,36.316,14.903,38.277,30.487,7.206,8.52,17.556
1307,0.744,36.457,14.907,38.248,30.483,7.247,8.52,17.392
1308,0.764,36.573,14.966,38.257,30.487,7.206,8.52,17.472
1309,0.77,36.641,14.955,38.248,30.487,7.165,8.479,17.554
1310,0.761,36.335,14.876,38.257,30.483,7.206,8.438,17.88
1311,0.741,36.466,14.798,38.258,30.487,7.165,8.438,18.372
1312,0.734,36.592,14.847,38.258,30.483,7.124,8.357,18.864
1313,0.728,36.613,14.867,38.248,30.483,7.165,8.315,19.438
1314,0.721,36.45,14.954,38.248,30.483,7.124,8.234,19.973
1315,0.734,36.573,14.876,38.257,30.48,7.083,8.192,20.344
1316,0.77,36.689,14.887,38.248,30.473,7.042,8.11,20.551
1317,0.715,36.681,14.907,38.219,30.473,7.123,8.069,20.838
1318,0.695,36.441,14.977,38.219,30.473,7.002,8.069,21.085
1319,0.701,36.554,14.912,38.2,30.473,7.123,8.109,21.412
1320,0.701,36.651,14.872,38.219,30.476,7.083,8.109,21.863
1321,0.698,36.556,14.833,38.228,30.476,7.164,8.069,22.477
1322,0.708,36.574,14.879,38.228,30.483,7.165,8.109,23.052
1323,0.741,36.708,14.899,38.248,30.48,7.124,8.069,23.668
1324,0.738,36.806,14.946,38.248,30.476,7.083,8.028,24.162
1325,0.725,36.49,14.884,38.277,30.48,7.123,8.109,24.614
1326,0.711,36.593,14.883,38.239,30.48,7.165,8.069,24.822
1327,0.731,36.709,14.954,38.248,30.473,7.084,8.028,24.946
1328,0.712,36.806,14.951,38.267,30.48,7.083,7.946,25.069
1329,0.711,36.509,14.911,38.258,30.48,7.083,8.026,25.03
1330,0.715,36.641,14.852,38.258,30.487,7.042,7.946,24.907
1331,0.705,36.757,14.758,38.267,30.487,7.042,7.945,24.825
1332,0.715,36.825,14.874,38.258,30.476,6.96,7.905,24.621
1333,0.724,36.644,14.891,38.248,30.48,6.96,7.904,24.375
1334,0.724,36.795,14.969,38.257,30.476,6.96,7.985,24.047
1335,0.715,36.902,14.834,38.277,30.476,6.919,7.864,23.597
1336,0.702,36.952,14.883,38.248,30.48,6.959,7.863,23.186
1337,0.685,36.674,14.922,38.267,30.476,6.878,7.782,22.775
1338,0.698,36.825,14.946,38.248,30.473,6.918,7.862,22.568
1339,0.708,36.922,14.907,38.248,30.476,6.919,7.863,22.525
1340,0.711,36.952,14.872,38.248,30.469,6.919,7.985,22.484
1341,0.708,36.76,14.864,38.267,30.476,6.919,7.905,22.402
1342,0.705,36.873,14.864,38.248,30.476,6.959,7.985,22.279
1343,0.711,36.98,14.922,38.257,30.473,7.0,7.986,22.197
1344,0.724,37.269,14.938,38.258,30.476,6.96,8.027,22.074
1345,0.741,36.792,14.919,38.267,30.487,7.041,8.068,21.91
1346,0.754,36.893,14.876,38.267,30.487,7.082,8.15,21.624
1347,0.754,37.028,14.946,38.277,30.487,7.123,8.15,21.499
1348,0.731,36.895,14.962,38.286,30.494,7.205,8.191,21.416
1349,0.738,36.961,14.915,38.296,30.497,7.328,8.11,21.456
1350,0.744,37.106,14.872,38.296,30.49,7.289,8.191,21.416
1351,0.725,37.212,14.864,38.325,30.487,7.247,8.07,21.416
1352,0.737,36.878,14.895,38.287,30.487,7.206,8.028,21.375
1353,0.718,36.999,14.887,38.277,30.49,7.328,8.068,21.415
1354,0.702,37.106,14.942,38.267,30.48,7.289,8.109,21.375
1355,0.698,37.184,14.783,38.296,30.48,7.41,8.069,21.252
1356,0.701,37.002,14.898,38.258,30.476,7.452,8.109,20.926
1357,0.692,37.144,14.962,38.286,30.483,7.412,8.15,20.841
1358,0.692,37.251,14.966,38.267,30.483,7.574,8.15,20.556
1359,0.685,37.329,14.939,38.277,30.48,7.616,8.15,20.35
1360,0.685,37.013,14.857,38.286,30.487,7.657,8.11,20.185
1361,0.685,37.135,14.844,38.306,30.48,7.658,8.191,20.021
1362,0.692,37.251,14.852,38.287,30.487,7.739,8.192,19.816
1363,0.705,37.31,14.883,38.287,30.487,7.659,8.192,19.529
1364,0.721,37.176,14.934,38.267,30.487,7.82,8.232,19.486
1365,0.734,37.319,14.876,38.305,30.487,7.822,8.192,19.282
1366,0.754,37.406,14.918,38.296,30.48,7.822,8.273,19.117
1367,0.738,37.446,14.938,38.277,30.487,7.944,8.233,18.912
1368,0.712,37.13,14.95,38.277,30.49,7.905,8.233,18.951
1369,0.754,37.28,14.919,38.277,30.497,7.985,8.111,19.033
1370,0.757,37.377,14.88,38.277,30.487,8.027,8.109,19.115
1371,0.741,37.445,14.876,38.354,30.48,7.987,8.109,19.116
1372,0.692,37.273,14.895,38.268,30.48,7.986,8.028,19.238
1373,0.679,37.377,14.903,38.258,30.476,7.946,7.987,19.32
1374,0.695,37.484,14.946,38.248,30.473,7.823,7.946,19.321
1375,0.692,37.264,14.915,38.248,30.473,7.944,7.864,19.321
1376,0.692,37.329,14.895,38.248,30.473,7.905,7.944,19.24
1377,0.679,37.454,14.942,38.257,30.476,7.945,7.986,19.158
1378,0.685,37.542,14.943,38.258,30.473,7.945,7.905,19.076
1379,0.688,37.14,14.9,38.277,30.48,7.945,7.863,18.953
1380,0.688,37.28,14.841,38.267,30.483,7.945,7.944,18.829
1381,0.688,37.396,14.895,38.296,30.476,7.945,7.945,18.747
1382,0.682,37.465,14.899,38.277,30.48,7.905,7.823,18.583
1383,0.682,37.331,14.895,38.258,30.473,7.863,7.781,18.46
1384,0.695,37.464,14.958,38.267,30.476,7.904,7.822,18.377
1385,0.711,37.58,14.915,38.334,30.483,7.823,7.822,18.254
1386,0.731,37.639,14.895,38.287,30.476,7.822,7.822,18.05
1387,0.725,36.834,14.891,38.258,30.483,7.741,7.781,17.885
1388,0.698,36.989,14.954,38.277,30.483,7.74,7.74,17.68
1389,0.721,37.096,14.884,38.277,30.476,7.659,7.74,17.516
1390,0.705,37.145,14.864,38.267,30.476,7.617,7.74,17.392
1391,0.695,37.424,14.782,38.277,30.473,7.698,7.699,17.594
1392,0.695,37.561,14.89,38.248,30.476,7.618,7.618,17.759
1393,0.711,37.668,14.891,38.267,30.476,7.535,7.617,18.086
1394,0.705,37.688,14.923,38.258,30.476,7.616,7.617,18.496
1395,0.695,37.113,14.829,38.267,30.473,7.495,7.535,18.906
1396,0.682,37.26,14.844,38.248,30.473,7.453,7.534,19.439
1397,0.685,37.339,14.926,38.267,30.473,7.452,7.534,20.054
1398,0.692,37.387,14.962,38.267,30.476,7.371,7.534,20.507
1399,0.685,37.378,14.908,38.258,30.476,7.37,7.534,20.919
1400,0.701,37.493,14.868,38.267,30.483,7.411,7.575,21.167
1401,0.718,37.609,14.844,38.267,30.48,7.411,7.616,21.332
1402,0.728,37.122,14.91,38.286,30.483,7.411,7.576,21.293
1403,0.721,37.222,14.884,38.287,30.49,7.371,7.616,21.292
1404,0.698,37.329,14.958,38.296,30.483,7.33,7.617,21.17
1405,0.698,37.445,14.876,38.315,30.494,7.37,7.657,21.006
1406,0.718,37.158,14.899,38.316,30.497,7.289,7.617,20.68
1407,0.708,37.29,14.934,38.296,30.49,7.166,7.576,20.473
1408,0.685,37.425,14.97,38.287,30.48,7.124,7.575,20.349
1409,0.685,37.465,14.919,38.267,30.476,7.124,7.616,20.307
1410,0.679,37.063,14.876,38.277,30.487,7.124,7.576,20.185
1411,0.669,37.241,14.844,38.286,30.483,7.083,7.657,20.346
1412,0.665,37.329,14.914,38.277,30.476,7.083,7.658,20.47
1413,0.659,37.397,14.876,38.277,30.476,7.042,7.739,20.43
1414,0.659,37.081,14.946,38.277,30.487,7.082,7.699,20.511
1415,0.678,37.203,14.872,38.286,30.487,7.123,7.74,20.431
1416,0.682,37.338,14.864,38.287,30.487,7.165,7.699,20.308
1417,0.695,37.368,14.914,38.287,30.48,7.165,7.74,20.103
1418,0.718,37.062,14.931,38.287,30.487,7.165,7.781,20.02
1419,0.676,37.174,14.962,38.267,30.487,7.328,7.781,19.897
1420,0.695,37.271,14.884,38.277,30.487,7.451,7.822,19.815
1421,0.711,37.281,14.86,38.286,30.48,7.656,7.781,19.773
1422,0.721,36.984,14.856,38.277,30.49,7.739,7.781,19.692
1423,0.718,37.115,14.887,38.296,30.483,7.943,7.944,19.528
1424,0.715,37.203,14.93,38.287,30.487,8.108,7.823,19.486
1425,0.724,37.089,14.868,38.287,30.487,8.272,7.903,19.282
1426,0.721,37.078,14.899,38.287,30.483,8.274,7.823,19.077
1427,0.724,37.203,14.907,38.287,30.483,8.314,7.863,18.912
1428,0.747,37.29,14.97,38.267,30.48,8.396,7.822,18.87
1429,0.747,36.955,14.919,38.267,30.48,8.356,7.781,18.869
1430,0.728,37.077,14.896,38.267,30.473,8.437,7.781,18.991
1431,0.702,37.183,14.809,38.267,30.473,8.438,7.74,19.115
1432,0.695,37.261,14.867,38.238,30.473,8.438,7.781,19.197
1433,0.669,36.696,14.86,38.248,30.469,8.519,7.822,19.401
1434,0.662,36.834,14.926,38.257,30.476,8.601,7.903,19.444
1435,0.669,36.951,14.876,38.258,30.476,8.602,8.107,19.444
1436,0.675,37.067,14.883,38.258,30.476,8.562,8.191,19.444
1437,0.691,36.809,14.926,38.286,30.476,8.561,8.151,19.404
1438,0.695,36.97,14.954,38.277,30.48,8.521,8.313,19.322
1439,0.692,37.077,14.954,38.267,30.483,8.479,8.396,19.24
1440,0.685,37.116,14.876,38.277,30.48,8.479,8.438,19.158
1441,0.711,36.599,14.856,38.267,30.476,8.438,8.56,19.116
1442,0.728,36.776,14.883,38.258,30.48,8.438,8.48,19.034
1443,0.725,36.854,14.887,38.277,30.48,8.357,8.56,18.952
1444,0.731,36.884,14.93,38.277,30.476,8.356,8.602,18.789
1445,0.725,36.539,14.876,38.267,30.476,8.315,8.602,18.625
1446,0.721,36.699,14.915,38.277,30.483,8.315,8.602,18.379
1447,0.734,36.777,14.919,38.248,30.473,8.274,8.521,18.173
1448,0.721,37.075,14.981,38.267,30.469,8.233,8.561,18.13
1449,0.731,36.531,14.916,38.248,30.473,8.151,8.561,18.049
1450,0.712,36.66,14.884,38.267,30.476,8.11,8.48,18.129
1451,0.708,36.757,14.786,38.267,30.469,8.069,8.438,18.211
1452,0.721,36.461,14.847,38.267,30.473,8.028,8.56,18.415
1453,0.711,36.487,14.848,38.267,30.473,8.068,8.48,18.662
1454,0.698,36.621,14.938,38.267,30.476,8.028,8.479,18.827
1455,0.685,36.719,14.892,38.277,30.476,8.027,8.479,18.95
1456,0.682,36.346,14.907,38.258,30.483,8.027,8.479,18.992
1457,0.685,36.476,14.942,38.286,30.48,7.987,8.56,19.115
1458,0.692,36.573,14.986,38.296,30.494,7.986,8.561,19.075
1459,0.675,36.68,14.994,38.296,30.494,8.027,8.521,19.115
1460,0.691,36.355,14.924,38.315,30.494,8.027,8.561,18.994
1461,0.708,36.505,14.884,38.316,30.49,8.027,8.439,19.033
1462,0.708,36.631,14.891,38.402,30.487,8.027,8.479,19.074
1463,0.715,36.7,14.895,38.316,30.49,8.068,8.398,18.953
1464,0.715,36.192,14.927,38.287,30.487,8.028,8.275,18.87
1465,0.708,36.331,14.884,38.287,30.483,8.068,8.314,18.869
1466,0.689,36.438,14.911,38.277,30.483,8.15,8.356,18.747
1467,0.701,36.496,14.903,38.277,30.473,8.15,8.397,18.624
1468,0.695,36.152,14.977,38.267,30.483,8.11,8.356,18.623
1469,0.705,36.282,14.955,38.277,30.483,8.109,8.315,18.745
1470,0.689,36.399,14.931,38.267,30.476,8.191,8.356,18.665
1471,0.688,36.419,14.868,38.286,30.487,8.232,8.356,18.908
1472,0.688,36.18,14.907,38.277,30.487,8.192,8.356,18.829
1473,0.685,36.321,14.915,38.277,30.483,8.232,8.275,18.95
1474,0.695,36.418,14.938,38.277,30.48,8.233,8.396,19.074
1475,0.679,36.477,14.915,38.296,30.487,8.192,8.316,18.953
1476,0.695,36.084,14.895,38.277,30.483,8.232,8.274,18.952
1477,0.679,36.224,14.915,38.296,30.487,8.192,8.274,18.992
1478,0.708,36.302,14.938,38.296,30.48,8.11,8.355,19.115
1479,0.698,35.948,14.962,38.287,30.487,8.191,8.437,19.197
1480,0.669,35.993,14.908,38.287,30.49,8.151,8.357,19.482
1481,0.672,36.127,14.891,38.287,30.476,8.069,8.356,19.689
1482,0.695,36.225,14.774,38.296,30.487,8.069,8.315,20.097
1483,0.701,35.928,14.91,38.277,30.483,7.987,8.356,20.508
1484,0.708,36.069,14.954,38.286,30.48,7.946,8.315,20.715
1485,0.705,36.195,14.892,38.267,30.476,7.823,8.274,20.961
1486,0.695,36.273,14.903,38.277,30.476,7.781,8.193,21.086
1487,0.705,35.651,14.884,38.239,30.473,7.74,8.192,21.168
1488,0.698,35.788,14.95,38.248,30.469,7.699,8.151,21.128
1489,0.682,35.895,14.927,38.229,30.473,7.74,8.232,21.087
1490,0.669,35.944,14.911,38.238,30.462,7.699,8.192,21.128
1491,0.672,35.724,14.864,38.248,30.476,7.658,8.232,21.128
1492,0.691,35.866,14.778,38.277,30.476,7.698,8.192,21.169
1493,0.701,36.001,14.902,38.258,30.48,7.618,8.192,21.21
1494,0.741,36.051,14.954,38.248,30.483,7.617,8.232,21.251
1495,0.744,35.792,14.896,38.277,30.476,7.576,8.233,21.251
1496,0.754,35.905,14.891,38.258,30.487,7.535,8.233,21.089
1497,0.757,36.031,14.907,38.277,30.48,7.494,8.233,20.924
1498,0.761,36.051,14.946,38.267,30.48,7.412,8.233,20.719
1499,0.78,35.696,14.954,38.258,30.476,7.411,8.273,20.514
1500,0.761,35.817,14.927,38.248,30.476,7.371,8.233,20.268
1501,0.767,35.915,14.892,38.248,30.473,7.37,8.233,20.022
1502,0.78,35.829,14.86,38.277,30.473,7.33,8.192,19.735
1503,0.793,35.685,14.84,38.248,30.476,7.329,8.232,19.488
1504,0.79,35.817,14.942,38.248,30.469,7.37,8.151,19.323
1505,0.8,35.915,14.9,38.257,30.476,7.289,8.191,19.199
1506,0.826,35.522,14.891,38.248,30.473,7.247,8.192,19.076
1507,0.849,35.614,14.899,38.238,30.476,7.166,8.029,18.871
1508,0.84,35.74,14.93,38.238,30.476,7.246,8.109,18.788
1509,0.823,35.828,14.978,38.229,30.48,7.247,8.028,18.746
1510,0.817,35.493,14.923,38.219,30.476,7.288,8.068,18.583
1511,0.836,35.652,14.907,38.228,30.473,7.329,8.028,18.501
1512,0.8,35.769,14.821,38.238,30.476,7.41,8.027,18.378
1513,0.79,35.876,14.891,38.248,30.483,7.452,8.027,18.214
1514,0.806,35.522,14.923,38.238,30.483,7.493,8.068,18.293
1515,0.81,35.672,14.931,38.267,30.49,7.575,8.069,18.376
1516,0.794,35.808,14.923,38.267,30.49,7.657,8.028,18.458
1517,0.777,35.886,14.892,38.277,30.49,7.698,8.109,18.499
1518,0.79,35.771,14.934,38.267,30.49,7.699,7.987,18.622
1519,0.797,35.924,14.978,38.277,30.494,7.658,7.986,18.704
1520,0.82,36.021,14.974,38.258,30.483,7.617,7.864,18.746
1521,0.836,36.051,14.908,38.248,30.483,7.576,7.863,18.787
1522,0.843,35.265,14.852,38.257,30.48,7.616,7.863,18.746
1523,0.853,35.391,14.903,38.229,30.48,7.617,7.944,18.868
1524,0.859,35.508,14.903,38.248,30.48,7.617,8.067,18.829
1525,0.853,35.528,14.899,38.238,30.48,7.617,8.109,18.909
1526,0.892,35.423,14.891,38.229,30.473,7.657,8.109,18.91
1527,0.889,35.556,14.903,38.228,30.48,7.536,8.191,18.87
1528,0.853,35.663,14.93,38.209,30.487,7.575,8.273,18.869
1529,0.836,35.405,14.962,38.219,30.48,7.616,8.274,18.991
1530,0.833,35.335,14.958,38.238,30.48,7.617,8.233,18.952
1531,0.859,35.459,14.88,38.238,30.48,7.535,8.273,19.114
1532,0.859,35.556,14.837,38.229,30.483,7.494,8.355,19.156
1533,0.866,35.279,14.856,38.219,30.48,7.494,8.315,19.157
1534,0.866,35.401,14.907,38.209,30.48,7.453,8.274,19.238
1535,0.879,35.508,14.919,38.209,30.48,7.452,8.274,19.198
1536,0.889,35.633,14.907,38.2,30.48,7.452,8.274,19.117
1537,0.905,35.155,14.919,38.238,30.48,7.412,8.314,18.953
1538,0.921,35.275,14.938,38.219,30.487,7.411,8.274,18.87
1539,0.915,35.411,14.982,38.238,30.487,7.371,8.314,18.829
1540,0.935,35.489,14.947,38.229,30.483,7.33,8.274,18.788
1541,0.945,35.192,14.896,38.219,30.487,7.37,8.233,18.543
1542,0.951,35.352,14.829,38.238,30.487,7.289,8.151,18.459
1543,0.954,35.459,14.863,38.219,30.487,7.125,8.15,18.296
1544,0.958,35.527,14.914,38.228,30.483,7.165,8.069,18.132
1545,0.945,35.193,14.884,38.2,30.48,7.084,8.069,18.049
1546,0.954,35.333,14.887,38.209,30.473,7.083,7.987,17.967
1547,0.954,35.469,14.86,38.171,30.473,6.961,7.986,17.803
1548,0.941,35.489,14.938,38.17,30.466,6.919,8.027,17.842
1549,0.945,35.048,14.954,38.17,30.473,6.959,8.068,17.924
1550,0.922,35.178,14.931,38.18,30.469,6.96,8.109,17.965
1551,0.912,35.295,14.864,38.18,30.476,6.96,8.15,18.21
1552,0.905,35.344,14.914,38.209,30.48,6.96,8.15,18.293
1553,0.905,35.517,14.899,38.2,30.48,6.919,8.15,18.376
1554,0.918,35.662,14.915,38.209,30.487,6.959,8.15,18.458
1555,0.899,35.75,14.911,38.2,30.48,6.878,8.069,18.499
1556,0.889,35.118,14.903,38.209,30.476,6.877,8.069,18.418
1557,0.872,34.977,14.876,38.2,30.476,6.877,8.15,18.377
1558,0.882,35.12,14.926,38.219,30.48,6.796,8.069,18.336
1559,0.872,35.208,14.946,38.2,30.48,6.836,8.069,18.254
1560,0.892,35.256,14.927,38.199,30.476,6.796,8.109,18.172
1561,0.869,35.41,14.903,38.209,30.473,6.795,8.028,18.049
1562,0.853,35.537,14.829,38.2,30.469,6.795,7.987,18.089
1563,0.866,35.605,14.871,38.19,30.469,6.795,7.946,17.926
1564,0.862,34.819,14.891,38.19,30.473,6.795,7.986,17.884
1565,0.846,34.965,14.899,38.18,30.473,6.755,7.946,17.802
1566,0.849,35.081,14.872,38.199,30.469,6.795,7.905,17.639
1567,0.84,35.15,14.883,38.171,30.466,6.755,7.863,17.597
1568,0.849,35.016,14.915,38.17,30.48,6.795,7.904,17.596
1569,0.866,35.168,14.919,38.19,30.476,6.755,7.863,17.556
1570,0.849,35.294,14.927,38.19,30.483,6.836,7.863,17.677
1571,0.843,35.353,14.876,38.209,30.483,6.796,7.904,17.76
1572,0.817,34.951,14.864,38.228,30.49,6.877,7.945,17.883
1573,0.787,35.091,14.864,38.228,30.494,6.959,7.905,18.087
1574,0.784,35.207,14.954,38.219,30.494,6.96,7.863,18.13
1575,0.764,35.276,14.915,38.228,30.487,6.919,7.904,18.089
1576,0.738,34.931,14.895,38.228,30.494,6.919,7.863,18.089
1577,0.712,35.081,14.915,38.238,30.497,6.919,7.863,17.926
1578,0.708,35.179,14.931,38.229,30.487,6.919,7.822,17.803
1579,0.698,35.496,14.962,38.219,30.48,6.756,7.781,17.802
1580,0.695,35.039,14.923,38.209,30.483,6.876,7.862,17.679
1581,0.672,35.159,14.903,38.19,30.487,6.877,7.782,17.719
1582,0.672,35.246,14.845,38.199,30.483,6.918,7.903,17.638
1583,0.688,34.902,14.883,38.209,30.48,6.878,7.863,17.637
1584,0.672,34.918,14.95,38.2,30.483,6.837,7.904,17.678
1585,0.672,35.071,14.931,38.199,30.476,6.918,7.945,17.556
1586,0.678,35.198,14.911,38.209,30.48,6.878,7.986,17.514
1587,0.682,34.825,14.888,38.19,30.48,6.959,7.864,17.392
1588,0.679,34.946,14.93,38.19,30.48,6.96,7.944,17.269
1589,0.685,35.062,14.954,38.199,30.483,6.96,7.945,17.186
1590,0.679,35.159,14.923,38.199,30.48,7.041,8.026,17.308
1591,0.698,34.872,14.923,38.19,30.483,7.082,7.905,17.675
1592,0.695,35.023,14.837,38.209,30.476,7.164,7.985,18.207
1593,0.656,35.159,14.891,38.209,30.476,7.206,7.986,18.659
1594,0.652,35.237,14.93,38.19,30.48,7.409,8.027,19.111
1595,0.672,34.806,14.923,38.199,30.483,7.411,8.068,19.644
1596,0.669,34.974,14.892,38.199,30.48,7.493,8.028,20.259
1597,0.656,35.091,14.884,38.228,30.483,7.534,8.19,20.835
1598,0.668,35.131,14.942,38.19,30.483,7.534,8.151,21.247
1599,0.701,34.815,14.958,38.199,30.476,7.575,8.232,21.495
1600,0.711,34.927,14.958,38.171,30.476,7.535,8.233,21.579
1601,0.682,35.043,14.9,38.18,30.466,7.534,8.314,21.702
1602,0.643,35.082,14.841,38.171,30.466,7.534,8.437,21.5
1603,0.636,34.737,14.86,38.161,30.469,7.575,8.438,21.498
1604,0.633,34.859,14.914,38.161,30.473,7.657,8.56,21.335
1605,0.642,34.975,14.911,38.17,30.48,7.658,8.643,21.13
1606,0.646,35.005,14.899,38.19,30.473,7.698,8.725,20.884
1607,0.662,34.765,14.903,38.18,30.48,7.699,8.726,20.678
1608,0.649,34.907,14.915,38.18,30.48,7.74,8.726,20.554
1609,0.659,35.014,14.97,38.19,30.476,7.781,8.685,20.512
1610,0.665,34.737,14.943,38.171,30.48,7.74,8.725,20.512
1611,0.639,34.83,14.884,38.199,30.476,7.699,8.685,20.675
1612,0.646,34.975,14.86,38.199,30.476,7.618,8.684,20.839
1613,0.649,35.062,14.891,38.19,30.48,7.657,8.684,20.922
1614,0.662,34.661,14.926,38.18,30.473,7.617,8.603,21.004
1615,0.646,34.81,14.888,38.171,30.48,7.617,8.643,20.964
1616,0.642,34.936,14.903,38.17,30.476,7.535,8.521,20.842
1617,0.633,35.043,14.895,38.218,30.476,7.575,8.52,20.759
1618,0.652,34.66,14.911,38.18,30.473,7.454,8.439,20.596
1619,0.675,34.819,14.966,38.161,30.476,7.412,8.438,20.513
1620,0.643,34.927,14.947,38.18,30.469,7.371,8.479,20.431
1621,0.633,35.004,14.931,38.161,30.469,7.492,8.357,20.308
1622,0.632,34.593,14.833,38.17,30.473,7.371,8.397,20.185
1623,0.629,34.761,14.86,38.17,30.469,7.37,8.397,20.102
1624,0.636,34.878,14.914,38.161,30.476,7.37,8.519,20.061
1625,0.659,34.956,14.899,38.18,30.48,7.411,8.52,19.898
1626,0.662,34.774,14.923,38.18,30.483,7.452,8.601,19.693
1627,0.672,34.907,14.876,38.209,30.483,7.534,8.602,19.528
1628,0.672,35.023,14.934,38.2,30.487,7.453,8.602,19.527
1629,0.656,35.063,14.974,38.209,30.487,7.452,8.602,19.567
1630,0.672,34.67,14.955,38.219,30.49,7.412,8.521,19.486
1631,0.675,34.82,14.919,38.219,30.49,7.33,8.561,19.607
1632,0.662,34.936,14.868,38.2,30.483,7.329,8.561,19.649
1633,0.675,34.841,14.903,38.199,30.48,7.207,8.48,19.772
1634,0.649,34.764,14.903,38.18,30.476,7.247,8.52,19.895
1635,0.639,34.888,14.903,38.18,30.48,7.247,8.52,19.937
1636,0.642,35.014,14.907,38.19,30.483,7.166,8.52,20.14
1637,0.633,34.66,14.888,38.18,30.476,7.124,8.479,20.183
1638,0.626,34.752,14.95,38.19,30.476,7.205,8.438,20.224
1639,0.616,34.888,14.974,38.18,30.476,7.165,8.519,20.306
1640,0.632,34.975,14.966,38.19,30.476,7.124,8.479,20.673
1641,0.629,34.516,14.908,38.18,30.48,7.165,8.52,21.449
1642,0.632,34.655,14.876,38.18,30.476,7.206,8.479,22.473
1643,0.652,34.781,14.876,38.19,30.476,7.287,8.438,23.418
1644,0.639,34.849,14.918,38.171,30.48,7.247,8.397,24.119
1645,0.629,34.572,14.88,38.18,30.48,7.369,8.438,24.573
1646,0.623,34.742,14.911,38.18,30.483,7.33,8.397,24.862
1647,0.629,34.849,14.938,38.199,30.487,7.41,8.397,25.028
1648,0.629,34.936,14.946,38.171,30.48,7.371,8.356,25.03
1649,0.642,34.592,14.966,38.161,30.48,7.452,8.315,24.948
1650,0.649,34.732,14.896,38.18,30.483,7.452,8.356,24.744
1651,0.649,34.868,14.891,38.19,30.48,7.452,8.275,24.457
1652,0.646,34.917,14.79,38.209,30.49,7.452,8.233,24.211
1653,0.649,34.678,14.883,38.18,30.487,7.412,8.192,23.883
1654,0.649,34.8,14.95,38.19,30.48,7.452,8.029,23.514
1655,0.652,34.878,14.884,38.161,30.473,7.371,7.946,22.981
1656,0.652,34.927,14.911,38.161,30.473,7.33,7.864,22.57
1657,0.652,34.659,14.849,38.161,30.469,7.248,7.904,22.24
1658,0.652,34.791,14.93,38.161,30.473,7.288,7.863,22.115
1659,0.655,34.888,14.974,38.151,30.469,7.369,7.944,22.032
1660,0.662,34.649,14.931,38.161,30.473,7.37,7.945,21.788
1661,0.682,34.628,14.903,38.161,30.483,7.289,7.864,21.744
1662,0.711,34.781,14.837,38.189,30.483,7.247,7.944,21.459
1663,0.731,34.869,14.871,38.161,30.48,7.247,7.864,21.375
1664,0.76,34.467,14.946,38.161,30.48,7.206,7.863,21.252
1665,0.8,34.587,14.884,38.17,30.48,7.206,7.822,21.251
1666,0.833,34.723,14.907,38.18,30.476,7.206,7.781,21.211
1667,0.859,34.801,14.891,38.18,30.473,7.165,7.74,21.088
1668,0.885,34.495,14.969,38.161,30.476,7.124,7.821,21.087
1669,0.918,34.655,14.958,38.17,30.473,7.165,7.822,21.087
1670,0.951,34.771,14.927,38.17,30.48,7.084,7.781,21.006
1671,0.971,34.859,14.876,38.151,30.473,7.123,7.781,20.883
1672,1.016,34.438,14.833,38.17,30.473,7.043,7.781,20.719
1673,1.033,34.587,14.871,38.151,30.469,7.042,7.74,20.636
1674,1.056,34.685,14.918,38.151,30.466,7.001,7.781,20.513
1675,1.076,34.762,14.899,38.151,30.473,6.96,7.7,20.553
1676,1.092,34.514,14.86,38.161,30.469,7.0,7.74,20.472
1677,1.144,34.655,14.895,38.161,30.48,6.96,7.74,20.512
1678,1.213,34.762,14.958,38.161,30.473,7.0,7.862,20.593
1679,1.221,34.811,14.978,38.151,30.473,6.96,7.782,20.757
1680,1.227,34.495,14.947,38.18,30.487,7.0,7.781,20.962
1681,1.276,34.636,14.872,38.18,30.48,7.082,7.944,21.086
1682,1.319,34.781,14.829,38.19,30.49,7.042,7.945,21.29
1683,1.342,35.099,14.859,38.19,30.487,7.001,7.945,21.292
1684,1.365,34.507,14.93,38.19,30.49,7.001,7.945,21.292
1685,1.407,34.636,14.923,38.199,30.49,7.001,7.945,21.211
1686,1.453,34.762,14.915,38.209,30.487,7.041,7.905,21.088
1687,1.506,34.485,14.938,38.19,30.487,6.879,7.863,20.762
1688,1.549,34.52,14.939,38.171,30.48,6.877,7.822,20.596
1689,1.595,34.636,14.966,38.161,30.48,6.796,7.781,20.472
1690,1.602,34.743,14.927,38.161,30.476,6.836,7.822,20.308
1691,1.585,34.408,14.892,38.17,30.48,6.796,7.741,20.347
1692,1.533,34.558,14.798,38.161,30.48,6.795,7.821,20.388
1693,1.445,34.694,14.89,38.161,30.473,6.795,7.781,20.226
1694,1.366,34.781,14.903,38.161,30.476,6.755,7.781,20.224
1695,1.264,34.408,14.884,38.18,30.483,6.754,7.862,20.265
1696,1.169,34.568,14.911,38.18,30.48,6.714,7.863,20.266
1697,1.038,34.684,14.88,38.171,30.48,6.794,7.944,20.184
1698,0.929,34.781,14.942,38.18,30.48,6.795,7.986,20.061
1699,0.837,34.456,14.958,38.151,30.48,6.836,8.027,19.938
1700,0.748,34.587,14.966,38.161,30.476,6.958,8.027,19.734
1701,0.682,34.723,14.896,38.161,30.48,6.919,8.068,19.488
1702,0.659,34.782,14.833,38.18,30.48,6.959,8.109,19.241
1703,0.669,34.456,14.891,38.19,30.48,7.0,8.272,19.036
1704,0.662,34.606,14.915,38.19,30.476,7.041,8.233,18.83
1705,0.669,34.694,14.919,38.18,30.483,7.082,8.273,18.544
1706,0.656,34.753,14.896,38.199,30.48,7.083,8.274,18.5
1707,0.59,34.485,14.915,38.161,30.487,7.123,8.314,18.54
1708,0.544,34.616,14.919,38.17,30.483,7.124,8.356,19.11
1709,0.541,34.714,14.958,38.151,30.483,7.165,8.397,19.766
1710,0.55,34.782,14.927,38.17,30.48,7.206,8.356,20.423
1711,0.554,34.389,14.907,38.18,30.48,7.165,8.356,21.202
1712,0.563,34.539,14.856,38.171,30.473,7.124,8.356,21.861
1713,0.541,34.646,14.875,38.161,30.476,7.124,8.356,22.396
1714,0.544,34.397,14.926,38.161,30.476,7.083,8.275,22.726
1715,0.55,34.481,14.868,38.161,30.466,7.042,8.274,22.974
1716,0.55,34.616,14.895,38.132,30.469,7.042,8.274,22.976
1717,0.56,34.694,14.841,38.132,30.466,7.123,8.355,22.976
1718,0.589,34.302,14.93,38.151,30.466,7.124,8.356,22.976
1719,0.593,34.451,14.954,38.151,30.476,7.165,8.356,22.895
1720,0.596,34.568,14.939,38.17,30.473,7.206,8.356,22.731
1721,0.606,34.684,14.919,38.18,30.48,7.165,8.315,22.608
1722,0.59,34.417,14.849,38.171,30.476,7.287,8.274,22.322
1723,0.635,34.587,14.938,38.161,30.483,7.369,8.314,22.156
1724,0.675,34.694,14.931,38.17,30.48,7.452,8.356,22.073
1725,0.711,34.772,14.9,38.18,30.48,7.493,8.275,21.951
1726,0.711,34.274,14.88,38.161,30.48,7.534,8.274,21.868
1727,0.689,34.413,14.887,38.17,30.476,7.616,8.274,21.664
1728,0.682,34.549,14.903,38.18,30.466,7.657,8.314,21.581
1729,0.701,34.598,14.942,38.171,30.476,7.658,8.315,21.417
1730,0.705,34.397,14.915,38.18,30.473,7.78,8.315,21.293
1731,0.718,34.548,14.88,38.171,30.476,7.74,8.234,21.089
1732,0.708,34.655,14.864,38.18,30.476,7.781,8.233,20.965
1733,0.705,34.695,14.856,38.171,30.476,7.862,8.233,20.801
1734,0.711,34.369,14.938,38.19,30.466,7.782,8.192,20.637
1735,0.708,34.51,14.876,38.171,30.473,7.862,8.192,20.595
1736,0.724,34.617,14.887,38.18,30.469,7.944,8.07,20.513
1737,0.744,34.56,14.868,38.171,30.469,7.864,8.191,20.431
1738,0.747,34.406,14.938,38.18,30.466,7.944,8.192,20.308
1739,0.76,34.539,14.95,38.18,30.469,7.823,8.151,20.103
1740,0.78,34.627,14.911,38.171,30.473,7.863,8.191,19.979
1741,0.751,34.349,14.884,38.18,30.473,7.904,8.151,19.937
1742,0.744,34.452,14.891,38.199,30.476,7.985,8.191,19.937
1743,0.76,34.597,14.895,38.199,30.48,7.864,8.232,19.856
1744,0.767,34.675,14.954,38.199,30.494,7.863,8.273,19.774
1745,0.761,34.283,14.9,38.228,30.49,7.944,8.274,19.692
1746,0.754,34.442,14.915,38.238,30.487,7.905,8.314,19.406
1747,0.761,34.568,14.907,38.238,30.487,7.904,8.234,19.241
1748,0.748,34.656,14.97,38.238,30.494,7.823,8.273,19.117
1749,0.747,34.359,14.947,38.229,30.487,7.7,8.193,18.994
1750,0.751,34.5,14.923,38.228,30.487,7.699,8.11,18.911
1751,0.751,34.607,14.864,38.209,30.476,7.618,8.191,19.032
1752,0.761,34.666,14.899,38.276,30.48,7.617,8.192,19.156
1753,0.751,34.244,14.876,38.239,30.476,7.617,8.192,19.319
1754,0.731,34.403,14.93,38.219,30.476,7.535,8.273,19.484
1755,0.718,34.51,14.888,38.219,30.476,7.453,8.193,19.567
1756,0.724,34.569,14.887,38.219,30.48,7.452,8.192,19.608
1757,0.724,34.272,14.915,38.238,30.476,7.412,8.11,19.527
1758,0.728,34.394,14.934,38.257,30.48,7.411,8.15,19.486
1759,0.725,34.51,14.966,38.248,30.483,7.33,8.11,19.363
1760,0.715,34.55,14.923,38.219,30.48,7.289,8.15,19.24
1761,0.718,34.243,14.872,38.238,30.483,7.329,8.11,19.198
1762,0.728,34.365,14.891,38.324,30.476,7.289,8.15,18.995
1763,0.741,34.5,14.86,38.22,30.48,7.207,8.028,18.87
1764,0.757,34.3,14.95,38.248,30.487,7.165,8.149,18.788
1765,0.764,34.241,14.869,38.267,30.476,7.246,8.028,18.625
1766,0.77,34.374,14.895,38.267,30.48,7.247,8.027,18.46
1767,0.777,34.491,14.895,38.258,30.487,7.166,8.027,18.215
1768,0.758,34.223,14.958,38.258,30.487,7.165,7.987,18.131
1769,0.774,34.336,14.962,38.277,30.487,7.124,7.864,18.049
1770,0.771,34.49,14.888,38.248,30.483,7.124,7.904,18.048
1771,0.767,34.559,14.86,38.257,30.476,7.083,7.904,18.048
1772,0.767,34.205,14.864,38.229,30.466,7.042,7.904,18.089
1773,0.748,34.335,14.883,38.238,30.473,7.001,7.863,18.17
1774,0.754,34.442,14.954,38.219,30.469,6.96,7.822,18.13
1775,0.741,34.52,14.869,38.219,30.469,7.0,7.903,18.171
1776,0.728,34.061,14.895,38.219,30.48,7.123,7.945,18.171
1777,0.738,34.2,14.907,38.228,30.476,7.165,7.986,18.13
1778,0.744,34.355,14.966,38.248,30.48,7.043,7.946,17.967
1779,0.754,34.423,14.931,38.238,30.48,7.082,7.986,17.885
1780,0.764,34.127,14.868,38.219,30.48,7.083,8.027,17.884
1781,0.774,34.258,14.821,38.238,30.48,7.083,8.027,17.924
1782,0.767,34.384,14.856,38.229,30.48,7.042,7.905,18.128
1783,0.774,34.414,14.914,38.228,30.48,6.96,8.067,18.252
1784,0.771,34.021,14.931,38.219,30.476,7.082,8.028,18.375
1785,0.774,34.19,14.923,38.286,30.476,6.961,7.987,18.458
1786,0.793,34.287,14.899,38.219,30.473,6.919,8.027,18.54
1787,0.8,34.394,14.919,38.219,30.48,6.919,8.027,18.459
1788,0.771,34.146,14.954,38.2,30.476,6.878,7.987,18.459
1789,0.748,34.287,14.888,38.199,30.48,6.837,8.027,18.459
1790,0.744,34.394,14.848,38.18,30.476,6.796,8.109,18.499
1791,0.728,34.222,14.891,38.199,30.469,6.795,8.069,18.459
1792,0.747,34.259,14.891,38.19,30.466,6.836,8.069,18.499
1793,0.773,34.394,14.923,38.161,30.469,6.755,8.069,18.459
1794,0.774,34.5,14.95,38.17,30.473,6.754,8.109,18.499
1795,0.793,33.984,14.915,38.18,30.469,6.795,8.15,18.459
1796,0.797,34.122,14.895,38.18,30.476,6.755,8.15,18.296
1797,0.751,34.258,14.934,38.171,30.48,6.714,8.232,18.416
1798,0.757,34.336,14.935,38.18,30.48,6.794,8.192,18.54
1799,0.77,34.001,14.911,38.171,30.487,6.795,8.273,18.785
1800,0.806,34.19,14.849,38.18,30.494,6.836,8.355,18.868
1801,0.823,34.307,14.836,38.19,30.476,6.796,8.234,19.032
1802,0.817,34.384,14.906,38.19,30.49,6.795,8.273,19.115
1803,0.846,34.04,14.911,38.199,30.494,6.755,8.193,19.238
1804,0.84,34.171,14.97,38.161,30.487,6.795,8.151,19.32
1805,0.813,34.306,14.912,38.218,30.48,6.714,8.15,19.321
1806,0.833,34.365,14.892,38.161,30.473,6.794,8.069,19.443
1807,0.846,33.925,14.899,38.122,30.48,6.795,8.069,19.607
1808,0.84,34.064,14.954,38.122,30.473,6.795,8.191,19.649
1809,0.813,34.2,14.908,38.132,30.48,6.795,8.11,19.812
1810,0.8,34.24,14.849,38.141,30.487,6.836,8.232,20.017
1811,0.794,34.029,14.879,38.132,30.48,6.877,8.314,20.304
1812,0.81,34.171,14.899,38.141,30.476,6.877,8.437,20.591
1813,0.816,34.287,14.942,38.122,30.48,6.877,8.519,20.919
1814,0.829,34.461,14.982,38.132,30.48,6.959,8.601,21.207
1815,0.826,33.955,14.927,38.208,30.48,6.878,8.724,21.373
1816,0.836,34.132,14.903,38.113,30.476,6.918,8.766,21.415
1817,0.82,34.239,14.903,38.131,30.48,6.878,8.848,21.416
1818,0.82,33.943,14.962,38.141,30.48,6.837,8.93,21.293
1819,0.826,34.007,14.904,38.113,30.476,6.837,8.972,21.211
1820,0.846,34.142,14.86,38.141,30.48,6.837,8.972,21.169
1821,0.846,34.239,14.797,38.151,30.476,6.877,9.053,21.332
1822,0.856,33.818,14.91,38.151,30.48,6.837,9.054,21.455
1823,0.869,33.938,14.927,38.132,30.476,6.877,9.095,21.782
1824,0.876,34.074,14.954,38.122,30.476,6.877,9.095,22.11
1825,0.863,34.171,14.943,38.132,30.48,6.796,9.095,22.724
1826,0.84,33.894,14.872,38.132,30.476,6.836,9.095,23.299
1827,0.872,34.016,14.922,38.113,30.48,6.796,9.014,23.793
1828,0.853,34.142,14.954,38.112,30.469,6.714,8.891,24.123
1829,0.833,34.191,14.888,38.103,30.466,6.754,8.849,24.451
1830,0.817,33.722,14.829,38.083,30.466,6.632,8.93,24.536
1831,0.8,33.88,14.844,38.122,30.466,6.631,8.931,24.537
1832,0.82,34.006,14.86,38.093,30.473,6.712,8.931,24.537
1833,0.81,34.046,14.856,38.093,30.48,6.713,9.012,24.374
1834,0.829,33.778,14.914,38.112,30.476,6.713,8.972,24.21
1835,0.839,33.948,14.907,38.122,30.476,6.754,8.931,23.964
1836,0.869,34.064,14.876,38.112,30.476,6.795,8.972,23.759
1837,0.853,34.085,14.954,38.131,30.48,6.714,8.931,23.634
1838,0.843,33.826,14.931,38.113,30.483,6.713,8.972,23.471
1839,0.869,33.967,14.896,38.112,30.466,6.835,8.931,23.266
1840,0.902,34.065,14.845,38.112,30.476,6.837,8.931,23.06
1841,0.899,34.027,14.903,38.112,30.473,6.877,8.85,22.896
1842,0.899,33.816,14.86,38.103,30.469,6.837,8.808,22.731
1843,0.892,33.948,14.907,38.103,30.473,6.877,8.808,22.486
1844,0.899,34.045,14.903,38.103,30.48,6.877,8.767,22.524
1845,0.905,33.663,14.884,38.103,30.469,6.918,8.685,22.687
1846,0.918,33.755,14.895,38.112,30.469,6.878,8.684,22.77
1847,0.935,33.871,14.958,38.093,30.476,6.796,8.603,22.893
1848,0.925,33.958,14.947,38.083,30.469,6.877,8.602,23.463
1849,0.925,33.585,14.833,38.102,30.476,6.796,8.643,24.119
1850,0.899,33.735,14.875,38.103,30.473,6.836,8.603,24.695
1851,0.908,33.851,14.864,38.083,30.476,6.877,8.602,25.148
1852,0.908,33.939,14.879,38.102,30.476,6.877,8.724,25.437
1853,0.892,33.71,14.938,38.103,30.473,7.0,8.726,25.603
1854,0.908,33.87,14.857,38.122,30.49,7.041,8.807,25.605
1855,0.912,33.997,14.891,38.122,30.487,7.082,8.889,25.442
1856,0.928,34.075,14.887,38.141,30.487,7.123,8.89,25.074
1857,0.909,33.596,14.95,38.132,30.494,7.124,8.849,24.786
1858,0.925,33.764,14.927,38.151,30.487,7.043,8.93,24.377
1859,0.931,33.9,14.853,38.122,30.483,7.123,8.931,23.966
1860,0.948,33.939,14.91,38.122,30.49,6.961,8.85,23.759
1861,0.941,33.652,14.884,38.112,30.48,7.0,8.767,23.39
1862,0.945,33.774,14.911,38.103,30.473,7.082,8.807,23.184
1863,0.958,33.89,14.954,38.093,30.476,7.083,8.726,22.937
1864,0.961,33.891,14.884,38.083,30.476,7.123,8.766,22.569
1865,0.971,33.719,14.891,38.102,30.483,7.165,8.726,22.281
1866,1.0,33.861,14.895,38.103,30.476,7.124,8.644,21.912
1867,1.049,33.958,14.962,38.074,30.487,7.165,8.644,21.461
1868,0.991,33.806,14.865,38.083,30.476,7.124,8.644,21.253
1869,0.981,33.727,14.891,38.102,30.48,7.246,8.603,21.007
1870,0.984,33.861,14.848,38.083,30.48,7.247,8.643,20.802
1871,0.991,33.968,14.864,38.083,30.48,7.247,8.562,20.637
1872,0.987,33.595,14.883,38.083,30.476,7.328,8.561,20.635
1873,0.991,33.706,14.962,38.074,30.483,7.207,8.643,20.473
1874,0.987,33.851,14.861,38.083,30.48,7.287,8.481,20.43
1875,0.991,33.968,14.875,38.074,30.483,7.369,8.52,20.308
1876,0.991,33.633,14.942,38.083,30.48,7.33,8.601,20.144
1877,0.997,33.783,14.927,38.083,30.48,7.329,8.521,20.02
1878,0.984,33.929,14.86,38.083,30.476,7.37,8.601,19.816
1879,0.984,34.016,14.879,38.102,30.476,7.411,8.684,19.611
1880,0.997,33.72,14.899,38.055,30.48,7.411,8.684,19.446
1881,1.013,33.88,14.88,38.073,30.476,7.452,8.684,19.322
1882,1.02,33.977,14.922,38.083,30.48,7.412,8.766,19.199
1883,1.036,34.055,14.962,38.083,30.483,7.493,8.807,18.995
1884,1.05,33.807,14.919,38.064,30.48,7.453,8.848,18.952
1885,1.05,33.929,14.907,38.074,30.476,7.33,8.808,18.748
1886,1.066,34.045,14.931,38.064,30.473,7.37,8.808,18.502
1887,1.089,34.075,14.923,38.054,30.473,7.289,8.808,18.378
1888,1.089,33.941,14.814,38.045,30.466,7.247,8.808,18.295
1889,1.086,34.093,14.867,38.045,30.466,7.206,8.726,18.335
1890,1.083,34.21,14.856,38.035,30.466,7.206,8.726,18.457
1891,1.079,34.211,14.899,38.025,30.466,7.206,8.766,18.621
1892,1.089,34.211,14.927,38.025,30.466,7.247,8.848,18.664
1893,1.089,34.316,14.974,38.025,30.476,7.247,8.889,18.786
1894,1.066,34.461,14.939,38.044,30.469,7.328,8.93,18.868
1895,1.05,34.463,14.884,38.045,30.487,7.207,8.89,18.829
1896,1.063,34.539,14.962,38.054,30.476,7.287,8.93,18.706
1897,1.082,34.665,14.912,38.054,30.473,7.247,8.931,18.705
1898,1.092,34.752,14.845,38.045,30.48,7.206,8.931,18.42
1899,1.099,34.792,14.895,38.054,30.476,7.206,8.89,18.377
1900,1.099,34.936,14.852,38.035,30.473,7.287,8.93,18.295
1901,1.112,35.052,14.879,38.044,30.476,7.207,8.931,18.335
1902,1.089,35.121,14.922,38.035,30.473,7.206,8.89,18.498
1903,1.115,35.131,14.954,38.044,30.476,7.206,8.849,18.622
1904,1.106,35.294,14.9,38.064,30.473,7.206,8.849,18.826
1905,1.115,35.401,14.903,38.054,30.469,7.247,8.849,18.869
1906,1.128,35.46,14.946,38.035,30.473,7.206,8.727,18.91
1907,1.132,35.662,14.927,38.035,30.469,7.287,8.685,18.87
1908,1.138,35.817,14.821,38.044,30.48,7.288,8.684,18.788
1909,1.138,35.924,14.863,38.025,30.473,7.369,8.684,18.706
1910,1.132,35.983,14.879,38.035,30.473,7.411,8.644,18.746
1911,1.116,36.386,14.899,38.006,30.469,7.493,8.562,18.665
1912,1.125,36.505,14.946,38.025,30.473,7.534,8.561,18.745
1913,1.119,36.593,14.935,38.025,30.473,7.657,8.48,18.787
1914,1.109,36.661,14.919,38.016,30.466,7.739,8.479,18.787
1915,1.109,37.055,14.907,38.025,30.476,7.821,8.52,18.787
1916,1.125,37.183,14.938,38.035,30.473,7.863,8.52,18.625
1917,1.122,37.28,14.931,38.044,30.483,7.985,8.561,18.623
1918,1.122,37.598,14.786,38.073,30.49,8.027,8.521,18.582
1919,1.148,36.958,14.898,38.064,30.487,8.027,8.479,18.582
1920,1.161,37.067,14.899,38.074,30.49,8.109,8.479,18.704
1921,1.158,37.174,14.911,38.064,30.49,8.109,8.398,18.868
1922,1.174,37.577,14.958,38.064,30.494,8.069,8.356,19.276
1923,1.168,37.745,14.939,38.064,30.49,7.946,8.356,19.849
1924,1.158,37.852,14.927,38.045,30.483,7.945,8.275,20.343
1925,1.152,37.92,14.896,38.035,30.48,7.945,8.274,20.795
1926,1.132,38.007,14.962,38.035,30.473,7.945,8.314,21.003
1927,1.148,38.113,14.88,38.025,30.48,7.945,8.315,21.33
1928,1.145,38.229,14.899,38.102,30.48,7.986,8.315,21.415
1929,1.165,38.317,14.864,38.036,30.476,7.986,8.315,21.578
1930,1.132,38.337,14.899,38.016,30.48,7.986,8.315,21.58
1931,1.138,38.5,14.966,38.025,30.48,7.946,8.396,21.661
1932,1.148,38.607,14.951,38.016,30.48,7.945,8.397,21.581
1933,1.148,38.647,14.939,38.035,30.483,8.026,8.316,21.539
1934,1.158,38.954,14.884,38.006,30.476,7.946,8.396,21.498
1935,1.161,39.072,14.907,38.006,30.48,7.945,8.397,21.335
1936,1.155,39.169,14.977,38.006,30.476,7.945,8.356,21.293
1937,1.145,39.189,14.892,38.025,30.483,7.945,8.356,21.211
1938,1.145,39.228,14.926,38.016,30.483,7.986,8.234,21.048
1939,1.145,39.362,14.884,38.025,30.476,7.946,8.273,20.924
1940,1.165,39.431,14.926,38.035,30.487,7.945,8.314,20.679
1941,1.178,39.451,14.966,38.025,30.487,8.026,8.274,20.554
1942,1.155,39.576,14.966,38.006,30.487,7.946,8.193,20.35
1943,1.158,39.682,14.943,38.025,30.476,8.026,8.232,20.307
1944,1.171,39.77,14.9,38.025,30.483,7.865,8.111,20.225
1945,1.162,39.866,14.903,37.996,30.476,7.782,8.109,20.265
1946,1.126,39.743,14.95,38.006,30.483,7.862,8.028,20.184
1947,1.142,39.857,14.896,37.987,30.469,7.782,8.068,20.184
1948,1.129,39.915,14.872,37.977,30.466,7.781,8.028,20.265
1949,1.135,40.031,14.872,37.977,30.466,7.74,8.027,20.266
1950,1.099,40.157,14.903,37.977,30.473,7.699,8.027,20.347
1951,1.083,40.254,14.97,37.967,30.469,7.78,8.109,20.429
1952,1.086,40.332,14.939,37.986,30.476,7.781,8.028,20.349
1953,1.083,40.073,14.931,37.986,30.476,7.781,8.109,20.388
1954,1.05,40.243,14.892,37.986,30.476,7.74,8.109,20.348
1955,1.06,40.322,14.903,37.977,30.48,7.74,8.028,20.226
1956,1.05,40.38,14.954,37.986,30.483,7.699,8.027,20.062
1957,1.04,40.457,14.869,37.986,30.473,7.699,8.027,20.02
1958,1.046,40.564,14.883,37.986,30.476,7.658,8.068,19.816
1959,1.037,40.651,14.864,37.967,30.476,7.576,8.069,19.651
1960,1.024,40.7,14.922,37.958,30.476,7.616,8.069,19.406
1961,1.014,40.394,14.931,37.957,30.473,7.617,8.109,19.281
1962,1.007,40.515,14.942,37.967,30.48,7.576,8.232,19.199
1963,1.001,40.593,14.896,37.967,30.473,7.616,8.151,18.995
1964,0.997,40.661,14.88,37.977,30.476,7.576,8.191,18.87
1965,0.994,40.508,14.922,37.958,30.476,7.657,8.192,18.747
1966,0.987,40.612,14.927,37.948,30.473,7.617,8.192,18.543
1967,0.981,40.709,14.872,37.957,30.476,7.617,8.192,18.459
1968,0.968,40.72,14.868,37.938,30.473,7.617,8.192,18.54
1969,0.981,40.586,14.887,37.948,30.476,7.576,8.232,18.581
1970,0.964,40.709,14.919,37.929,30.473,7.575,8.233,18.704
1971,0.958,40.796,14.931,37.967,30.476,7.698,8.273,18.827
1972,0.919,40.759,14.978,37.967,30.483,7.618,8.477,18.95
1973,0.883,40.701,14.9,37.986,30.48,7.739,8.398,19.033
1974,0.918,40.816,14.907,37.996,30.494,7.74,8.438,18.952
1975,0.925,40.903,14.903,37.987,30.487,7.74,8.479,18.952
1976,0.915,40.539,14.962,37.986,30.497,7.659,8.316,18.707
1977,0.853,40.622,14.892,38.015,30.49,7.658,8.274,18.624
1978,0.859,40.738,14.899,37.968,30.483,7.576,8.193,18.46
1979,0.872,40.797,14.915,37.958,30.48,7.494,8.273,18.377
1980,0.879,40.567,14.903,37.948,30.487,7.453,8.233,18.214
1981,0.876,40.67,14.95,37.948,30.473,7.452,8.273,18.172
1982,0.892,40.786,14.939,37.948,30.48,7.452,8.233,18.009
1983,0.902,40.855,14.907,37.957,30.473,7.412,8.192,17.926
1984,0.905,40.491,14.86,37.957,30.473,7.452,8.232,18.006
1985,0.882,40.622,14.93,37.948,30.476,7.534,8.233,17.966
1986,0.872,40.719,14.958,37.938,30.476,7.534,8.314,18.007
1987,0.872,40.749,14.837,37.948,30.476,7.616,8.356,18.21
1988,0.859,40.423,14.879,37.957,30.48,7.617,8.275,18.7
1989,0.836,40.515,14.879,37.948,30.48,7.698,8.355,19.152
1990,0.82,40.641,14.915,37.948,30.476,7.821,8.437,19.685
1991,0.813,40.681,14.938,37.948,30.48,7.944,8.438,20.219
1992,0.803,40.317,14.985,37.938,30.487,7.986,8.438,20.712
1993,0.8,40.438,14.9,37.948,30.48,8.068,8.438,21.205
1994,0.81,40.535,14.888,37.938,30.48,8.109,8.479,21.495
1995,0.8,40.545,14.923,37.948,30.487,8.109,8.438,21.62
1996,0.781,40.248,14.931,37.938,30.483,8.109,8.397,21.702
1997,0.761,40.37,14.876,37.957,30.48,8.109,8.356,21.622
1998,0.761,40.467,14.883,37.967,30.476,8.191,8.437,21.418
1999,0.764,40.238,14.907,37.948,30.48,8.192,8.397,21.293
2000,0.774,40.207,14.907,37.948,30.476,8.192,8.478,21.089
2001,0.767,40.302,14.927,37.938,30.483,8.192,8.316,20.843
2002,0.757,40.39,14.97,37.938,30.48,8.11,8.396,20.637
2003,0.761,40.007,14.857,37.948,30.469,8.109,8.356,20.554
2004,0.764,40.118,14.899,37.929,30.473,8.028,8.234,20.594
2005,0.783,40.234,14.923,37.9,30.473,7.946,8.273,20.797
2006,0.79,40.283,14.931,37.909,30.473,7.986,8.152,21.084
2007,0.797,39.785,14.892,37.947,30.466,7.864,8.15,21.494
2008,0.767,39.905,14.872,37.9,30.473,7.863,8.232,21.864
2009,0.774,40.021,14.907,37.88,30.466,7.904,8.273,22.152
2010,0.761,40.08,14.923,37.89,30.469,7.904,8.314,22.399
2011,0.754,39.63,14.962,37.909,30.473,7.904,8.315,22.442
2012,0.783,39.769,14.935,37.909,30.48,7.863,8.356,22.483
2013,0.774,39.905,14.868,37.909,30.473,7.782,8.315,22.605
2014,0.767,39.945,14.872,37.909,30.48,7.781,8.396,22.769
2015,0.761,39.581,14.934,37.88,30.476,7.74,8.397,22.852
2016,0.793,39.721,14.927,37.88,30.48,7.781,8.397,22.934
2017,0.754,39.847,14.876,37.947,30.469,7.862,8.478,22.976
2018,0.722,39.858,14.895,37.89,30.476,7.822,8.56,23.057
2019,0.728,39.513,14.915,37.89,30.466,7.903,8.602,22.977
2020,0.751,39.624,14.966,37.89,30.466,7.945,8.643,23.057
2021,0.764,39.721,14.974,37.871,30.476,7.986,8.684,23.058
2022,0.754,40.019,14.97,37.87,30.473,8.068,8.766,23.058
2023,0.744,39.361,14.931,37.937,30.469,8.069,8.726,22.936
2024,0.747,39.46,14.876,37.881,30.476,8.028,8.807,22.813
2025,0.751,39.566,14.907,37.87,30.473,8.149,8.767,22.649
2026,0.761,39.279,14.88,37.861,30.476,8.15,8.848,22.363
2027,0.767,39.286,14.883,37.861,30.476,8.273,8.808,22.035
2028,0.783,39.421,14.852,37.851,30.476,8.274,8.767,21.747
2029,0.774,39.508,14.907,37.851,30.469,8.274,8.807,21.541
2030,0.767,38.915,14.919,37.851,30.473,8.314,8.767,21.376
2031,0.774,39.043,14.97,37.861,30.469,8.356,8.767,21.334
2032,0.767,39.159,14.97,37.87,30.473,8.437,8.726,21.415
2033,0.764,39.256,14.958,37.937,30.483,8.479,8.807,21.416
2034,0.793,39.008,14.904,37.861,30.483,8.52,8.848,21.375
2035,0.748,39.13,14.934,37.861,30.487,8.52,8.767,21.293
2036,0.764,39.266,14.903,37.88,30.487,8.52,8.726,21.17
2037,0.757,39.353,14.891,37.89,30.483,8.601,8.685,20.925
2038,0.764,38.702,14.887,37.899,30.487,8.602,8.644,20.679
2039,0.722,38.858,14.942,37.88,30.487,8.562,8.603,20.432
2040,0.731,38.975,14.966,37.88,30.483,8.521,8.521,20.186
2041,0.744,39.015,14.994,37.861,30.483,8.52,8.398,20.102
2042,0.747,38.67,14.974,37.861,30.476,8.52,8.397,19.979
2043,0.76,38.801,14.939,37.861,30.473,8.601,8.438,19.937
2044,0.757,38.917,14.884,37.841,30.48,8.44,8.479,19.856
2045,0.774,38.918,14.922,37.851,30.476,8.519,8.601,19.692
2046,0.793,38.573,14.86,37.851,30.48,8.479,8.765,19.447
2047,0.806,38.704,14.891,37.832,30.48,8.398,8.848,19.363
2048,0.784,38.82,14.864,37.841,30.476,8.438,9.052,19.199
2049,0.764,38.783,14.914,37.832,30.483,8.357,9.176,19.076
2050,0.764,38.447,14.958,37.832,30.476,8.437,9.177,19.034
2051,0.774,38.568,14.947,37.822,30.483,8.316,9.34,19.115
2052,0.777,38.656,14.931,37.832,30.48,8.315,9.423,19.197
2053,0.758,38.388,14.946,37.832,30.48,8.274,9.505,19.279
2054,0.761,38.433,14.896,37.832,30.476,8.314,9.587,19.321
2055,0.741,38.559,14.954,37.812,30.483,8.234,9.547,19.28
2056,0.754,38.646,14.869,37.831,30.483,8.151,9.547,19.321
2057,0.757,38.148,14.907,37.822,30.48,8.15,9.588,19.24
2058,0.754,38.278,14.876,37.832,30.48,8.11,9.547,18.995
2059,0.761,38.384,14.938,37.822,30.48,8.028,9.588,18.952
2060,0.774,38.453,14.958,37.822,30.48,7.987,9.588,19.074
2061,0.787,38.166,14.943,37.812,30.476,7.946,9.507,19.278
2062,0.787,38.297,14.935,37.822,30.483,7.945,9.506,19.565
2063,0.8,38.423,14.9,37.822,30.473,7.945,9.465,19.852
2064,0.813,38.491,14.895,37.812,30.48,7.783,9.465,20.14
2065,0.807,37.984,14.938,37.793,30.473,7.781,9.262,20.346
2066,0.807,38.132,14.88,37.802,30.473,7.659,9.219,20.47
2067,0.794,38.239,14.907,37.783,30.473,7.576,9.218,20.674
2068,0.787,38.269,14.907,37.764,30.473,7.494,9.096,20.717
2069,0.79,38.02,14.938,37.764,30.466,7.494,9.095,20.839
2070,0.797,38.142,14.946,37.754,30.466,7.453,9.054,20.963
2071,0.8,38.258,14.915,37.754,30.469,7.452,9.095,21.004
2072,0.781,38.269,14.876,37.773,30.48,7.493,9.054,20.964
2073,0.751,37.972,14.891,37.793,30.473,7.412,9.013,20.842
2074,0.764,38.103,14.868,37.793,30.469,7.371,8.972,20.759
2075,0.744,38.181,14.954,37.774,30.476,7.411,9.013,20.636
2076,0.747,38.057,14.876,37.774,30.48,7.411,8.972,20.432
2077,0.747,37.893,14.864,37.764,30.48,7.33,9.013,20.227
2078,0.741,38.026,14.907,37.764,30.483,7.207,8.972,20.184
2079,0.754,38.094,14.931,37.773,30.469,7.247,9.094,20.224
2080,0.757,37.922,14.966,37.764,30.476,7.288,9.054,20.306
2081,0.77,38.045,14.931,37.764,30.469,7.125,9.095,20.307
2082,0.774,38.142,14.903,37.754,30.476,7.124,9.014,20.347
2083,0.771,38.258,14.903,37.764,30.469,7.043,9.054,20.348
2084,0.761,37.732,14.907,37.745,30.473,7.123,9.013,20.226
2085,0.767,37.842,14.938,37.754,30.48,7.043,8.972,20.143
2086,0.787,37.968,14.911,37.783,30.469,6.96,8.972,20.061
2087,0.797,38.027,14.872,37.745,30.469,6.96,8.931,19.898
2088,0.784,37.759,14.922,37.735,30.469,6.96,8.931,20.018
2089,0.761,37.881,14.942,37.744,30.469,6.96,8.85,20.019
2090,0.767,37.997,14.946,37.745,30.469,6.96,8.93,20.1
2091,0.777,38.046,14.939,37.725,30.469,7.0,8.809,20.183
2092,0.771,37.682,14.872,37.744,30.469,7.001,8.767,20.265
2093,0.761,37.841,14.899,37.735,30.473,7.082,8.726,20.225
2094,0.751,37.929,14.891,37.716,30.473,7.002,8.644,20.143
2095,0.751,37.978,14.93,37.715,30.476,7.123,8.603,20.142
2096,0.751,37.662,14.888,37.811,30.476,7.124,8.684,20.061
2097,0.748,37.793,14.86,37.736,30.473,7.246,8.522,20.02
2098,0.757,37.929,14.918,37.754,30.483,7.247,8.642,19.816
2099,0.774,37.93,14.935,37.745,30.487,7.247,8.562,19.692
2100,0.79,37.691,14.962,37.764,30.49,7.288,8.521,19.528
2101,0.78,37.813,14.943,37.754,30.487,7.288,8.439,19.445
2102,0.813,37.929,14.904,37.773,30.48,7.329,8.357,19.282
2103,0.826,37.652,14.911,37.754,30.494,7.289,8.275,19.199
2104,0.797,37.592,14.95,37.745,30.48,7.288,8.274,19.035
2105,0.797,37.697,14.904,37.735,30.48,7.207,8.193,19.034
2106,0.816,37.794,14.911,37.725,30.473,7.247,8.151,18.993
2107,0.816,37.43,14.86,37.716,30.483,7.166,8.15,18.992
2108,0.774,37.551,14.93,37.725,30.476,7.206,8.11,19.155
2109,0.751,37.668,14.946,37.725,30.473,7.247,8.109,19.319
2110,0.757,37.745,14.947,37.716,30.48,7.166,8.069,19.484
2111,0.767,37.334,14.923,37.715,30.483,7.206,8.028,19.526
2112,0.774,37.454,14.837,37.725,30.473,7.206,7.987,19.608
2113,0.761,37.59,14.895,37.716,30.473,7.165,7.946,19.568
2114,0.748,37.639,14.966,37.696,30.473,7.124,7.864,19.445
2115,0.741,37.553,14.876,37.715,30.48,7.124,7.944,19.2
2116,0.738,37.668,14.891,37.735,30.48,7.043,7.864,19.076
2117,0.725,37.784,14.852,37.706,30.473,7.123,7.863,18.831
2118,0.721,37.852,14.907,37.715,30.476,7.083,7.863,18.625
2119,0.731,37.325,14.966,37.696,30.473,7.083,7.822,18.42
2120,0.793,37.445,14.931,37.706,30.483,7.002,7.863,18.458
2121,0.78,37.551,14.946,37.715,30.473,7.001,7.822,18.784
2122,0.728,37.6,14.868,37.744,30.48,7.001,7.863,19.316
2123,0.747,37.371,14.899,37.716,30.476,6.96,7.863,19.809
2124,0.751,37.493,14.946,37.706,30.476,6.96,7.904,20.261
