time,ecg,bvp,gsr,rsp,skt,emg_zygo,emg_coru,emg_trap
0,0.908,39.433,5.748,27.233,29.214,6.96,5.933,5.152
1,0.908,39.537,5.745,27.233,29.207,6.878,5.811,5.153
2,0.899,39.634,5.737,27.204,29.19,6.837,5.769,5.031
3,0.895,39.693,5.741,27.213,29.2,6.877,5.85,5.151
4,0.908,39.396,5.733,27.232,29.211,6.959,5.973,5.153
5,0.915,39.537,5.737,27.261,29.211,7.0,5.933,5.193
6,0.892,39.596,5.729,27.223,29.2,6.838,5.811,5.072
7,0.886,39.673,5.729,27.204,29.197,6.796,5.81,4.989
8,0.892,39.501,5.741,27.242,29.21,6.999,5.891,5.192
9,0.892,39.624,5.737,27.261,29.218,7.041,5.973,5.194
10,0.886,39.731,5.737,27.233,29.204,6.839,5.852,5.112
11,0.885,39.77,5.733,27.213,29.204,6.837,5.851,5.071
12,0.879,39.492,5.748,27.242,29.204,6.958,5.851,5.233
13,0.882,39.624,5.733,27.223,29.207,6.919,5.891,5.194
14,0.872,39.721,5.737,27.233,29.2,6.959,5.851,5.153
15,0.879,39.761,5.745,27.223,29.207,6.96,5.851,5.153
16,0.879,39.425,5.741,27.213,29.204,6.838,5.891,5.193
17,0.866,39.518,5.741,27.204,29.2,6.796,5.811,5.153
18,0.866,39.634,5.756,27.213,29.207,6.917,5.85,5.153
19,0.872,39.702,5.764,27.232,29.211,6.959,5.851,5.112
20,0.866,39.597,5.745,27.233,29.207,6.878,5.81,5.152
21,0.856,39.663,5.717,27.204,29.204,6.837,5.728,5.031
22,0.853,39.76,5.725,27.213,29.2,6.837,5.85,5.07
23,0.869,39.579,5.744,27.223,29.211,6.918,5.851,5.193
24,0.869,39.606,5.749,27.252,29.214,6.959,5.891,5.153
25,0.84,39.673,5.717,27.223,29.197,6.838,5.77,5.071
26,0.839,39.76,5.725,27.194,29.193,6.714,5.728,5.07
27,0.859,39.406,5.733,27.232,29.207,6.754,5.89,5.152
28,0.859,39.527,5.745,27.261,29.218,6.998,5.973,5.234
29,0.846,39.624,5.737,27.223,29.2,6.797,5.771,5.072
30,0.849,39.702,5.748,27.213,29.204,6.755,5.728,5.03
31,0.843,39.406,5.745,27.232,29.207,6.836,5.89,5.233
32,0.853,39.527,5.745,27.233,29.211,6.877,5.892,5.194
33,0.84,39.643,5.737,27.223,29.2,6.674,5.811,5.153
34,0.849,39.693,5.76,27.233,29.204,6.835,5.891,5.112
35,0.84,39.578,5.753,27.213,29.2,6.796,5.892,5.152
36,0.833,39.692,5.729,27.213,29.2,6.633,5.851,5.071
37,0.839,39.808,5.752,27.223,29.204,6.712,5.81,5.111
38,0.846,39.867,5.753,27.223,29.211,6.672,5.81,5.152
39,0.836,39.484,5.737,27.213,29.207,6.631,5.85,5.112
40,0.836,39.585,5.741,27.213,29.2,6.55,5.81,4.989
41,0.826,39.682,5.745,27.213,29.204,6.63,5.769,5.07
42,0.843,39.731,5.745,27.223,29.207,6.672,5.85,5.193
43,0.843,39.607,5.745,27.213,29.204,6.591,5.81,5.153
44,0.839,39.692,5.733,27.204,29.204,6.509,5.728,5.031
45,0.826,39.779,5.733,27.204,29.197,6.508,5.809,5.111
46,0.826,39.704,5.745,27.232,29.207,6.589,5.81,5.234
47,0.843,39.559,5.76,27.261,29.221,6.631,5.972,5.194
48,0.817,39.625,5.729,27.204,29.211,6.468,5.771,5.112
49,0.833,39.702,5.748,27.194,29.197,6.386,5.687,4.949
50,0.839,39.434,5.745,27.223,29.21,6.507,5.849,5.11
51,0.846,39.556,5.756,27.242,29.214,6.67,5.973,5.356
52,0.84,39.644,5.749,27.223,29.2,6.509,5.811,5.114
53,0.846,39.731,5.737,27.233,29.204,6.467,5.769,5.071
54,0.836,39.569,5.737,27.213,29.211,6.629,5.85,5.152
55,0.836,39.711,5.737,27.204,29.211,6.631,5.891,5.153
56,0.833,39.808,5.737,27.223,29.207,6.712,5.811,5.071
57,0.836,39.867,5.745,27.242,29.204,6.754,5.891,5.152
58,0.836,39.474,5.749,27.204,29.207,6.795,5.811,5.153
59,0.826,39.576,5.729,27.204,29.197,6.877,5.81,5.112
60,0.826,39.692,5.741,27.213,29.204,7.0,5.85,5.152
61,0.839,39.741,5.76,27.242,29.207,7.082,5.891,5.153
62,0.836,39.387,5.745,27.204,29.207,7.123,5.892,5.153
63,0.826,39.498,5.721,27.194,29.2,7.124,5.811,5.031
64,0.823,39.605,5.74,27.213,29.207,7.205,5.81,5.111
65,0.836,39.654,5.733,27.223,29.211,7.287,5.85,5.152
66,0.846,39.501,5.733,27.233,29.207,7.41,5.851,5.153
67,0.84,39.576,5.713,27.204,29.204,7.289,5.81,4.99
68,0.83,39.654,5.713,27.194,29.19,7.329,5.769,4.988
69,0.846,39.932,5.748,27.223,29.214,7.451,5.891,5.232
70,0.853,39.504,5.752,27.261,29.218,7.696,6.014,5.275
71,0.833,39.566,5.741,27.223,29.204,7.455,5.812,5.113
72,0.843,39.682,5.721,27.204,29.197,7.534,5.85,5.071
73,0.853,39.444,5.748,27.232,29.204,7.697,5.891,5.193
74,0.843,39.47,5.749,27.233,29.214,7.699,5.973,5.234
75,0.843,39.585,5.725,27.213,29.207,7.658,5.852,5.113
76,0.846,39.682,5.741,27.232,29.204,7.698,5.973,5.112
77,0.843,39.252,5.752,27.213,29.2,7.658,5.893,5.112
78,0.833,39.343,5.745,27.213,29.197,7.658,5.811,5.112
79,0.839,39.459,5.756,27.213,29.207,7.617,5.85,5.112
80,0.839,39.537,5.745,27.242,29.207,7.698,5.973,5.152
81,0.836,39.279,5.729,27.223,29.207,7.658,5.852,5.112
82,0.846,39.411,5.737,27.185,29.197,7.617,5.851,5.03
83,0.833,39.508,5.741,27.203,29.207,7.617,5.81,5.111
84,0.836,39.605,5.745,27.223,29.211,7.698,5.972,5.071
85,0.852,39.232,5.752,27.233,29.214,7.618,5.893,5.111
86,0.833,39.305,5.725,27.204,29.197,7.535,5.851,5.03
87,0.839,39.392,5.744,27.175,29.193,7.494,5.729,5.07
88,0.849,39.489,5.745,27.222,29.203,7.616,5.972,5.111
89,0.853,39.164,5.764,27.233,29.214,7.739,6.015,5.193
90,0.843,39.266,5.733,27.213,29.207,7.537,5.812,5.112
91,0.849,39.382,5.733,27.223,29.204,7.575,5.81,5.152
92,0.856,39.393,5.737,27.233,29.207,7.616,5.81,5.153
93,0.849,39.143,5.752,27.213,29.204,7.535,5.85,5.031
94,0.853,39.266,5.756,27.213,29.207,7.534,5.769,5.151
95,0.846,39.363,5.753,27.223,29.204,7.616,5.85,5.193
96,0.856,39.143,5.729,27.204,29.207,7.576,5.851,5.112
97,0.84,38.882,5.748,27.184,29.197,7.494,5.769,5.112
98,0.852,38.995,5.737,27.223,29.207,7.494,5.85,5.112
99,0.859,39.12,5.733,27.213,29.211,7.494,5.851,5.071
100,0.862,38.93,5.745,27.223,29.211,7.494,5.851,5.152
101,0.84,38.995,5.749,27.194,29.2,7.371,5.729,5.071
102,0.839,39.092,5.729,27.204,29.197,7.411,5.727,5.03
103,0.846,39.208,5.752,27.213,29.207,7.371,5.85,5.07
104,0.859,38.806,5.749,27.242,29.214,7.573,5.973,5.233
105,0.833,38.917,5.729,27.204,29.207,7.372,5.811,5.113
106,0.849,39.033,5.733,27.194,29.204,7.33,5.728,4.989
107,0.862,39.102,5.741,27.204,29.204,7.37,5.85,5.151
108,0.853,38.546,5.741,27.204,29.214,7.37,5.851,5.153
109,0.849,38.694,5.733,27.184,29.2,7.289,5.769,5.031
110,0.866,38.82,5.741,27.223,29.204,7.329,5.85,5.07
111,0.853,38.86,5.745,27.213,29.2,7.289,5.769,5.03
112,0.843,38.755,5.737,27.194,29.2,7.247,5.728,5.07
113,0.859,38.878,5.745,27.223,29.204,7.206,5.727,5.152
114,0.853,38.985,5.752,27.233,29.217,7.328,5.809,5.153
115,0.866,39.015,5.745,27.213,29.204,7.248,5.85,5.153
116,0.846,38.488,5.737,27.185,29.204,7.125,5.688,5.071
117,0.853,38.607,5.752,27.203,29.204,7.124,5.809,5.07
118,0.853,38.723,5.733,27.223,29.211,7.246,5.85,5.193
119,0.862,39.156,5.752,27.223,29.211,7.166,5.729,5.153
120,0.846,38.527,5.741,27.185,29.204,7.043,5.727,5.071
121,0.849,38.617,5.729,27.175,29.197,6.96,5.605,4.989
122,0.853,38.752,5.748,27.213,29.21,7.122,5.726,5.11
123,0.872,38.437,5.749,27.242,29.214,7.287,5.89,5.193
124,0.846,38.415,5.737,27.204,29.207,7.044,5.689,5.072
125,0.853,38.539,5.737,27.204,29.207,7.001,5.687,5.03
126,0.853,38.636,5.745,27.223,29.211,7.082,5.727,5.111
127,0.859,38.206,5.729,27.213,29.211,7.083,5.727,5.152
128,0.859,38.345,5.756,27.204,29.207,7.123,5.768,5.112
129,0.856,38.462,5.745,27.223,29.207,7.205,5.728,5.152
130,0.846,38.53,5.749,27.213,29.211,7.165,5.768,5.153
131,0.849,38.32,5.741,27.204,29.204,7.002,5.687,5.071
132,0.866,38.462,5.737,27.223,29.204,7.123,5.727,5.111
133,0.862,38.578,5.756,27.242,29.214,7.124,5.768,5.152
134,0.862,38.637,5.737,27.214,29.204,7.205,5.768,5.112
135,0.853,38.206,5.737,27.204,29.197,7.125,5.728,5.071
136,0.856,38.297,5.745,27.194,29.204,7.124,5.727,5.111
137,0.875,38.442,5.745,27.223,29.211,7.165,5.809,5.112
138,0.869,38.511,5.752,27.242,29.218,7.246,5.81,5.112
139,0.863,38.205,5.76,27.204,29.204,7.003,5.728,4.989
140,0.856,38.307,5.76,27.194,29.197,7.001,5.687,4.988
141,0.859,38.442,5.745,27.194,29.204,7.123,5.89,5.11
142,0.853,38.463,5.729,27.223,29.211,7.246,5.973,5.071
143,0.853,38.185,5.729,27.185,29.2,7.084,5.893,5.03
144,0.846,38.316,5.744,27.213,29.204,7.042,5.973,5.07
145,0.84,38.423,5.741,27.213,29.204,7.042,6.015,5.07
146,0.852,38.28,5.745,27.194,29.207,7.082,6.015,5.07
147,0.853,38.145,5.749,27.213,29.211,6.961,5.974,5.152
148,0.856,38.297,5.752,27.213,29.207,7.122,6.137,5.153
149,0.859,38.356,5.749,27.204,29.204,7.083,5.976,5.112
150,0.853,38.078,5.737,27.184,29.2,7.042,5.974,5.03
151,0.859,38.2,5.737,27.223,29.207,7.042,6.055,5.151
152,0.869,38.336,5.752,27.233,29.211,7.123,6.056,5.153
153,0.872,38.414,5.745,27.233,29.204,7.043,6.097,5.112
154,0.853,38.117,5.733,27.204,29.2,7.001,5.975,5.03
155,0.84,38.239,5.741,27.194,29.197,6.96,6.055,5.151
156,0.856,38.394,5.737,27.223,29.207,7.082,6.137,5.112
157,0.866,38.462,5.748,27.242,29.211,7.083,6.179,5.112
158,0.84,38.118,5.733,27.204,29.204,6.961,6.017,5.03
159,0.839,38.22,5.733,27.175,29.204,6.919,5.893,4.948
160,0.852,38.393,5.741,27.213,29.204,7.0,6.054,5.191
161,0.846,38.443,5.748,27.204,29.214,7.041,6.137,5.153
162,0.846,38.079,5.737,27.204,29.197,6.92,6.057,5.031
163,0.853,38.21,5.741,27.204,29.207,6.959,6.137,5.07
164,0.84,38.326,5.737,27.204,29.204,7.0,6.138,5.111
165,0.836,38.327,5.741,27.213,29.207,6.96,6.098,5.071
166,0.839,38.241,5.745,27.194,29.207,6.919,6.097,5.111
167,0.849,38.384,5.749,27.223,29.211,6.919,6.097,5.112
168,0.84,38.472,5.749,27.213,29.204,6.878,6.097,5.071
169,0.833,38.895,5.745,27.165,29.197,6.837,6.097,4.989
170,0.836,38.256,5.737,27.203,29.21,6.837,6.219,5.11
171,0.843,38.375,5.748,27.223,29.207,6.837,6.22,5.112
172,0.853,38.472,5.745,27.204,29.204,6.796,6.18,5.112
173,0.843,38.147,5.725,27.213,29.197,6.755,6.057,5.071
174,0.83,38.182,5.737,27.194,29.2,6.795,6.097,5.03
175,0.839,38.307,5.748,27.204,29.211,6.836,6.138,5.111
176,0.846,38.433,5.756,27.232,29.218,6.877,6.219,5.234
177,0.83,38.204,5.753,27.194,29.2,6.633,6.098,5.072
178,0.83,38.317,5.733,27.184,29.2,6.712,5.975,4.948
179,0.839,38.462,5.745,27.213,29.207,6.794,6.137,5.11
180,0.839,38.549,5.76,27.232,29.211,6.958,6.301,5.234
181,0.833,38.186,5.729,27.185,29.204,6.797,6.058,4.991
182,0.836,38.307,5.737,27.213,29.204,6.755,6.097,4.948
183,0.833,38.413,5.737,27.204,29.211,6.917,6.178,4.988
184,0.83,38.453,5.729,27.194,29.204,7.0,6.098,5.07
185,0.846,38.261,5.737,27.194,29.197,6.919,6.056,5.03
186,0.84,38.355,5.745,27.213,29.21,7.0,6.178,5.111
187,0.836,38.471,5.737,27.204,29.204,7.082,6.098,5.03
188,0.833,38.492,5.717,27.184,29.197,7.042,6.056,5.03
189,0.839,38.262,5.729,27.194,29.207,7.164,6.137,5.03
190,0.846,38.403,5.756,27.213,29.211,7.246,6.179,5.151
191,0.846,38.51,5.741,27.194,29.207,7.166,6.098,5.112
192,0.827,38.502,5.725,27.175,29.2,7.124,6.016,5.071
193,0.826,38.272,5.713,27.184,29.197,7.165,6.015,5.03
194,0.839,38.413,5.748,27.213,29.207,7.165,6.137,5.151
195,0.839,38.549,5.756,27.232,29.211,7.328,6.179,5.193
196,0.826,38.397,5.737,27.185,29.197,7.126,6.017,5.072
197,0.83,38.29,5.717,27.184,29.197,7.124,6.015,4.989
198,0.83,38.423,5.744,27.213,29.21,7.205,6.137,5.029
199,0.826,38.501,5.745,27.213,29.211,7.247,6.219,5.151
200,0.826,38.281,5.737,27.175,29.207,7.084,6.098,5.031
201,0.82,38.394,5.745,27.194,29.207,7.164,6.178,5.07
202,0.826,38.491,5.737,27.194,29.204,7.124,6.139,5.03
203,0.82,38.53,5.741,27.184,29.204,7.043,6.098,4.989
204,0.826,38.234,5.745,27.203,29.2,7.164,6.138,5.07
205,0.826,38.374,5.749,27.204,29.207,7.124,6.138,5.152
206,0.823,38.472,5.752,27.213,29.211,7.165,6.179,5.071
207,0.81,38.521,5.733,27.185,29.2,7.043,6.057,5.03
208,0.829,38.32,5.741,27.203,29.207,7.204,6.097,5.07
209,0.833,38.471,5.745,27.194,29.211,7.165,6.219,5.152
210,0.83,38.578,5.737,27.204,29.204,7.165,6.139,5.071
211,0.826,38.608,5.725,27.204,29.204,7.084,6.057,5.03
212,0.817,38.234,5.729,27.194,29.197,7.123,6.137,5.07
213,0.833,38.403,5.744,27.223,29.204,7.165,6.219,5.233
214,0.836,38.539,5.756,27.233,29.221,7.165,6.22,5.153
215,0.826,38.512,5.729,27.185,29.204,7.002,6.139,4.99
216,0.81,38.195,5.709,27.165,29.186,7.001,6.016,4.988
217,0.82,38.336,5.733,27.222,29.21,7.082,6.218,5.07
218,0.83,38.443,5.76,27.233,29.218,7.245,6.22,5.314
219,0.813,38.866,5.753,27.204,29.204,7.084,6.058,5.073
220,0.816,38.342,5.741,27.204,29.207,7.042,6.056,5.03
221,0.813,38.452,5.721,27.213,29.211,7.123,6.137,5.111
222,0.81,38.53,5.748,27.213,29.204,7.043,6.138,5.112
223,0.803,38.205,5.745,27.204,29.207,7.082,6.098,5.03
224,0.807,38.24,5.737,27.213,29.211,7.123,6.138,5.03
225,0.816,38.365,5.733,27.204,29.214,7.083,6.138,5.111
226,0.803,38.433,5.721,27.184,29.2,6.961,6.057,5.03
227,0.816,38.098,5.74,27.194,29.204,7.082,6.137,5.03
228,0.826,38.229,5.741,27.204,29.207,7.042,6.138,5.111
229,0.836,38.355,5.741,27.223,29.207,7.082,6.138,5.03
230,0.813,38.414,5.729,27.194,29.2,6.92,6.098,5.03
231,0.807,38.012,5.717,27.165,29.197,6.878,6.016,4.989
232,0.823,38.19,5.744,27.222,29.207,7.04,6.096,5.151
233,0.83,38.307,5.76,27.233,29.214,7.082,6.219,5.234
234,0.82,38.337,5.745,27.204,29.2,6.961,6.098,5.072
235,0.82,38.097,5.745,27.204,29.2,6.96,6.056,5.03
236,0.83,38.21,5.745,27.194,29.204,6.96,6.137,5.111
237,0.807,38.297,5.721,27.184,29.211,6.919,6.098,5.071
238,0.816,38.375,5.74,27.203,29.204,6.919,6.016,5.03
239,0.81,38.069,5.756,27.204,29.207,6.919,6.137,5.07
240,0.813,38.181,5.745,27.194,29.204,6.878,6.016,5.03
241,0.81,38.288,5.745,27.165,29.197,6.796,5.974,4.989
242,0.813,38.308,5.745,27.203,29.2,6.836,6.055,5.07
243,0.813,38.011,5.745,27.194,29.211,6.877,6.137,5.152
244,0.823,38.132,5.752,27.194,29.204,6.877,6.057,5.071
245,0.8,38.21,5.741,27.184,29.2,6.796,5.975,4.989
246,0.797,38.087,5.721,27.184,29.2,6.795,6.015,5.029
247,0.816,38.037,5.729,27.203,29.207,6.836,6.015,5.151
248,0.826,38.2,5.744,27.232,29.214,6.958,6.137,5.112
249,0.813,38.24,5.737,27.194,29.204,6.797,6.016,4.949
250,0.807,37.837,5.729,27.175,29.197,6.714,5.852,4.988
251,0.81,37.958,5.76,27.222,29.204,6.876,6.054,5.151
252,0.826,38.094,5.764,27.233,29.221,6.959,6.178,5.234
253,0.813,38.152,5.737,27.213,29.2,6.756,5.976,5.032
254,0.81,37.798,5.745,27.185,29.2,6.836,5.933,5.03
255,0.816,37.958,5.737,27.203,29.204,6.755,5.974,5.07
256,0.81,38.036,5.741,27.194,29.207,6.754,6.055,5.193
257,0.813,38.113,5.752,27.184,29.204,6.673,5.934,5.031
258,0.82,37.817,5.756,27.213,29.207,6.753,6.096,5.111
259,0.813,37.939,5.745,27.213,29.204,6.754,6.016,5.071
260,0.8,38.026,5.737,27.175,29.197,6.632,5.893,5.03
261,0.82,38.104,5.752,27.194,29.21,6.794,5.973,4.989
262,0.826,37.74,5.749,27.204,29.211,6.836,6.096,5.11
263,0.807,37.842,5.745,27.204,29.207,6.755,5.975,4.989
264,0.81,37.949,5.737,27.184,29.197,6.714,5.933,4.988
265,0.813,37.969,5.745,27.184,29.204,6.794,6.014,5.07
266,0.82,37.729,5.756,27.203,29.214,6.917,6.056,5.07
267,0.82,37.871,5.753,27.204,29.211,6.959,6.015,5.111
268,0.817,37.949,5.729,27.184,29.2,6.96,5.974,4.989
269,0.807,38.256,5.709,27.175,29.197,6.96,5.974,5.07
270,0.82,37.608,5.729,27.203,29.204,7.163,6.015,5.07
271,0.826,37.774,5.733,27.232,29.217,7.409,6.096,5.193
272,0.813,37.804,5.733,27.185,29.204,7.289,5.975,5.072
273,0.81,37.526,5.737,27.175,29.19,7.329,5.852,4.989
274,0.816,37.61,5.737,27.222,29.207,7.492,6.054,5.11
275,0.826,37.764,5.741,27.233,29.221,7.697,6.178,5.193
276,0.813,37.823,5.741,27.204,29.207,7.496,6.017,5.072
277,0.816,37.478,5.721,27.184,29.197,7.616,5.974,4.948
278,0.81,37.609,5.744,27.194,29.21,7.698,6.096,5.069
279,0.807,37.726,5.729,27.194,29.211,7.78,6.097,5.07
280,0.816,37.794,5.737,27.184,29.2,7.781,6.016,5.07
281,0.81,37.401,5.729,27.203,29.211,7.74,6.137,5.07
282,0.813,37.522,5.741,27.184,29.207,7.781,6.057,5.07
283,0.803,37.629,5.737,27.184,29.197,7.781,5.975,4.989
284,0.803,37.697,5.737,27.194,29.21,7.822,6.096,5.11
285,0.813,37.372,5.745,27.194,29.204,7.741,6.138,5.112
286,0.807,37.512,5.741,27.184,29.204,7.74,6.057,5.071
287,0.816,37.581,5.748,27.184,29.197,7.659,6.015,4.989
288,0.813,37.639,5.745,27.184,29.204,7.739,6.137,4.988
289,0.816,37.352,5.741,27.203,29.207,7.821,6.098,5.07
290,0.816,37.522,5.756,27.213,29.204,7.741,6.097,5.03
291,0.816,37.591,5.749,27.175,29.197,7.659,6.056,4.989
292,0.82,37.582,5.741,27.184,29.197,7.495,6.056,5.07
293,0.826,37.342,5.741,27.213,29.204,7.697,6.137,5.152
294,0.846,37.512,5.748,27.232,29.214,7.699,6.138,5.112
295,0.83,37.562,5.729,27.204,29.2,7.496,6.057,4.989
296,0.82,37.284,5.721,27.184,29.193,7.453,5.934,4.948
297,0.83,37.176,5.737,27.213,29.21,7.656,6.096,5.069
298,0.833,37.299,5.748,27.204,29.214,7.658,6.178,5.233
299,0.833,37.387,5.741,27.194,29.204,7.536,5.976,5.072
300,0.839,37.177,5.748,27.194,29.2,7.494,6.015,5.03
301,0.846,37.29,5.749,27.194,29.211,7.616,6.015,4.989
302,0.846,37.406,5.749,27.194,29.204,7.495,6.056,5.07
303,0.853,37.484,5.737,27.204,29.204,7.453,5.975,4.989
304,0.853,37.044,5.741,27.204,29.207,7.574,6.055,5.11
305,0.859,37.193,5.737,27.204,29.204,7.535,6.015,5.071
306,0.862,37.28,5.729,27.165,29.2,7.494,6.015,4.989
307,0.869,37.377,5.741,27.194,29.2,7.412,5.974,5.029
308,0.885,37.033,5.745,27.184,29.211,7.533,6.055,5.03
309,0.885,37.164,5.745,27.194,29.211,7.453,5.975,5.07
310,0.879,37.271,5.741,27.194,29.197,7.29,5.974,4.989
311,0.882,37.329,5.737,27.184,29.2,7.329,5.974,5.07
312,0.898,36.965,5.729,27.213,29.204,7.329,6.055,5.111
313,0.905,37.125,5.744,27.223,29.211,7.41,6.056,5.152
314,0.905,37.203,5.737,27.175,29.204,7.249,5.934,5.031
315,0.905,37.204,5.733,27.165,29.197,7.084,5.892,4.948
316,0.925,37.05,5.733,27.194,29.204,7.245,6.095,5.15
317,0.935,37.193,5.733,27.223,29.217,7.369,6.138,5.153
318,0.925,37.261,5.737,27.194,29.204,7.126,5.976,4.99
319,0.931,37.511,5.733,27.194,29.204,7.124,5.974,5.029
320,0.915,36.919,5.729,27.194,29.204,7.205,5.974,5.111
321,0.912,37.047,5.737,27.184,29.207,7.206,6.055,5.03
322,0.922,37.135,5.741,27.175,29.2,7.165,5.975,5.03
323,0.925,36.791,5.737,27.203,29.204,7.287,6.015,5.03
324,0.935,36.826,5.729,27.204,29.211,7.166,6.015,5.07
325,0.938,36.912,5.744,27.184,29.2,7.124,5.893,4.989
326,0.938,37.047,5.737,27.184,29.2,7.205,5.973,4.948
327,0.951,36.79,5.76,27.213,29.204,7.247,6.015,5.11
328,0.958,36.941,5.737,27.204,29.207,7.206,5.974,5.03
329,0.964,37.048,5.741,27.184,29.2,7.125,5.974,4.948
330,0.961,37.068,5.729,27.165,29.204,7.124,5.893,5.11
331,0.964,36.57,5.748,27.203,29.204,7.124,6.014,5.071
332,0.977,36.737,5.745,27.223,29.217,7.205,6.056,5.152
333,0.974,36.806,5.721,27.194,29.197,7.043,5.975,5.071
334,0.958,36.855,5.74,27.165,29.197,6.96,5.811,4.989
335,0.968,36.74,5.745,27.194,29.207,7.122,6.054,5.11
336,0.974,36.902,5.745,27.184,29.211,7.165,6.056,5.193
337,0.951,36.99,5.749,27.184,29.2,7.002,5.893,5.031
338,0.951,37.048,5.737,27.194,29.207,7.041,5.973,5.07
339,0.951,36.723,5.729,27.194,29.204,7.001,5.974,5.07
340,0.948,36.825,5.729,27.175,29.204,6.96,5.893,5.03
341,0.948,36.96,5.733,27.165,29.2,7.082,6.014,4.989
342,0.954,36.981,5.745,27.203,29.207,7.002,6.056,5.07
343,0.948,36.665,5.737,27.184,29.207,6.96,5.975,5.07
344,0.945,36.738,5.721,27.175,29.197,6.878,5.893,5.03
345,0.958,36.873,5.721,27.184,29.207,6.918,5.973,5.03
346,0.971,36.702,5.737,27.203,29.2,7.0,5.974,5.03
347,0.987,36.643,5.748,27.204,29.204,6.96,5.974,5.07
348,0.968,36.748,5.737,27.175,29.197,6.919,5.933,4.989
349,0.958,36.806,5.713,27.165,29.2,6.837,5.852,4.988
350,0.971,36.481,5.748,27.203,29.211,6.877,5.973,5.11
351,0.981,36.64,5.745,27.251,29.218,7.04,6.055,5.152
352,0.964,36.709,5.717,27.185,29.197,6.879,5.893,5.031
353,0.961,36.777,5.713,27.155,29.197,6.674,5.851,4.867
354,0.951,36.49,5.733,27.193,29.207,6.835,5.891,5.068
355,0.954,36.631,5.756,27.213,29.211,6.958,6.014,5.193
356,0.948,36.728,5.749,27.185,29.204,6.797,5.893,5.031
357,0.941,36.796,5.741,27.194,29.211,6.795,5.973,4.989
358,0.938,36.442,5.725,27.184,29.2,6.755,5.933,5.07
359,0.935,36.554,5.744,27.165,29.2,6.673,5.974,5.07
360,0.925,36.68,5.737,27.194,29.207,6.713,5.893,4.989
361,0.928,36.748,5.748,27.184,29.211,6.754,5.973,5.029
362,0.905,36.307,5.733,27.194,29.207,6.754,5.974,5.03
363,0.886,36.437,5.733,27.175,29.2,6.673,5.933,4.948
364,0.879,36.563,5.721,27.184,29.211,6.672,5.974,5.029
365,0.879,36.632,5.74,27.184,29.204,6.753,6.015,5.233
366,0.879,36.383,5.741,27.184,29.204,6.714,5.893,5.032
367,0.866,36.476,5.741,27.194,29.197,6.672,5.851,4.948
368,0.853,36.554,5.725,27.165,29.197,6.713,5.891,5.069
369,0.856,36.814,5.752,27.203,29.204,6.835,6.014,5.111
370,0.866,36.375,5.76,27.232,29.217,6.918,6.056,5.112
371,0.84,36.448,5.729,27.185,29.2,6.837,5.893,5.03
372,0.839,36.563,5.744,27.184,29.197,6.796,5.811,4.989
373,0.839,36.267,5.745,27.184,29.21,6.958,5.972,5.11
374,0.839,36.322,5.752,27.203,29.211,7.082,6.055,5.152
375,0.843,36.428,5.733,27.175,29.207,6.961,5.893,4.99
376,0.826,36.554,5.729,27.194,29.2,7.082,5.851,4.948
377,0.826,36.143,5.733,27.204,29.207,7.083,5.891,5.029
378,0.797,36.263,5.733,27.175,29.204,7.123,5.892,5.03
379,0.8,36.389,5.745,27.184,29.204,7.043,5.811,5.03
380,0.794,36.486,5.745,27.184,29.204,7.204,5.891,5.151
381,0.797,36.142,5.745,27.175,29.207,7.206,5.973,5.112
382,0.794,36.273,5.737,27.155,29.2,7.084,5.893,4.949
383,0.787,36.399,5.737,27.184,29.204,7.205,5.851,5.069
384,0.787,36.457,5.733,27.203,29.211,7.287,5.891,5.03
385,0.78,36.151,5.737,27.184,29.211,7.288,5.892,5.07
386,0.78,36.263,5.729,27.155,29.193,7.207,5.811,5.07
387,0.78,36.399,5.737,27.165,29.203,7.206,5.81,5.03
388,0.777,36.438,5.748,27.203,29.207,7.328,6.013,5.07
389,0.787,36.007,5.729,27.194,29.211,7.329,5.934,5.03
390,0.774,36.118,5.729,27.175,29.204,7.207,5.811,4.989
391,0.764,36.186,5.725,27.175,29.197,7.247,5.81,5.029
392,0.774,36.263,5.737,27.194,29.204,7.41,5.85,5.151
393,0.784,36.322,5.745,27.223,29.217,7.493,6.095,5.193
394,0.767,36.39,5.737,27.175,29.204,7.412,5.813,5.031
395,0.774,36.476,5.733,27.175,29.204,7.371,5.769,4.907
396,0.784,36.132,5.745,27.203,29.207,7.411,5.891,4.987
397,0.758,36.014,5.752,27.184,29.204,7.574,5.933,5.151
398,0.761,36.128,5.721,27.184,29.204,7.494,5.852,5.031
399,0.764,36.244,5.717,27.184,29.211,7.534,5.891,5.03
400,0.757,35.881,5.737,27.194,29.2,7.494,5.851,5.07
401,0.744,35.973,5.729,27.175,29.197,7.453,5.81,4.989
402,0.757,36.137,5.737,27.175,29.207,7.574,5.85,4.988
403,0.764,36.234,5.737,27.184,29.211,7.535,5.891,5.029
404,0.754,35.89,5.737,27.184,29.2,7.494,5.892,5.03
405,0.754,36.011,5.729,27.175,29.2,7.371,5.811,4.989
406,0.754,36.108,5.752,27.175,29.204,7.492,5.891,5.029
407,0.757,36.205,5.741,27.184,29.211,7.575,5.933,5.111
408,0.764,35.89,5.741,27.203,29.211,7.535,5.892,5.03
409,0.757,36.011,5.752,27.184,29.2,7.453,5.851,4.989
410,0.754,36.128,5.745,27.155,29.2,7.412,5.81,5.029
411,0.761,36.205,5.741,27.213,29.204,7.493,5.891,5.111
412,0.774,35.89,5.745,27.223,29.214,7.656,6.054,5.193
413,0.764,36.011,5.737,27.175,29.204,7.536,5.853,5.031
414,0.774,36.128,5.741,27.175,29.204,7.575,5.729,4.948
415,0.767,36.167,5.752,27.175,29.207,7.657,5.89,4.988
416,0.761,35.861,5.737,27.184,29.207,7.698,5.973,5.07
417,0.767,35.992,5.741,27.184,29.204,7.618,5.893,4.948
418,0.764,36.089,5.741,27.203,29.211,7.698,5.892,5.11
419,0.754,36.291,5.737,27.194,29.204,7.658,5.892,4.989
420,0.761,35.929,5.713,27.165,29.197,7.658,5.811,4.988
421,0.761,36.079,5.721,27.174,29.21,7.739,5.85,4.988
422,0.764,36.195,5.748,27.184,29.211,7.781,5.973,5.07
423,0.761,35.707,5.737,27.194,29.204,7.7,5.893,5.03
424,0.748,35.741,5.729,27.165,29.2,7.699,5.77,5.03
425,0.757,35.885,5.729,27.184,29.197,7.699,5.85,5.07
426,0.777,35.973,5.733,27.203,29.21,7.74,5.973,4.989
427,0.777,35.782,5.756,27.194,29.207,7.781,5.893,5.07
428,0.758,35.895,5.721,27.175,29.204,7.659,5.851,4.989
429,0.754,36.002,5.721,27.165,29.193,7.617,5.769,4.988
430,0.774,36.118,5.748,27.194,29.207,7.698,5.931,5.029
431,0.787,35.659,5.752,27.232,29.218,7.74,6.055,5.192
432,0.764,35.769,5.725,27.185,29.207,7.537,5.812,5.031
433,0.774,35.885,5.733,27.175,29.2,7.534,5.81,4.989
434,0.774,35.963,5.717,27.194,29.204,7.575,5.932,5.07
435,0.774,35.791,5.744,27.184,29.207,7.575,5.974,5.07
436,0.774,35.924,5.737,27.175,29.2,7.494,5.852,5.03
437,0.78,36.05,5.745,27.203,29.204,7.494,5.891,5.03
438,0.771,36.09,5.749,27.184,29.2,7.494,5.892,5.03
439,0.77,35.668,5.733,27.165,29.2,7.371,5.851,4.907
440,0.777,35.817,5.745,27.165,29.211,7.37,5.891,4.987
441,0.78,35.943,5.749,27.203,29.211,7.452,5.973,5.029
442,0.774,35.945,5.745,27.175,29.204,7.412,5.893,5.03
443,0.767,35.762,5.745,27.165,29.197,7.208,5.811,4.948
444,0.757,35.895,5.737,27.174,29.2,7.409,5.972,5.029
445,0.764,36.011,5.729,27.213,29.207,7.411,5.974,5.07
446,0.774,35.744,5.744,27.223,29.214,7.411,6.015,4.989
447,0.767,35.617,5.725,27.175,29.204,7.249,5.893,4.988
448,0.774,35.73,5.729,27.136,29.197,7.288,5.811,4.948
449,0.803,35.866,5.744,27.193,29.21,7.369,5.972,5.029
450,0.816,35.647,5.749,27.232,29.221,7.452,6.137,5.192
451,0.82,35.721,5.745,27.194,29.2,7.33,5.894,4.99
452,0.849,35.856,5.741,27.165,29.197,7.248,5.811,4.948
453,0.885,35.944,5.756,27.184,29.21,7.369,5.891,5.069
454,0.915,35.388,5.749,27.194,29.214,7.411,5.973,5.152
455,0.931,35.546,5.733,27.194,29.207,7.371,5.933,4.99
456,0.951,35.653,5.725,27.184,29.2,7.452,5.892,5.029
457,0.98,35.721,5.744,27.184,29.204,7.534,5.933,5.07
458,1.01,35.511,5.729,27.165,29.204,7.494,5.892,5.07
459,1.023,35.662,5.729,27.194,29.207,7.534,5.851,5.03
460,1.049,35.788,5.737,27.194,29.207,7.616,5.973,5.151
461,1.06,35.809,5.733,27.184,29.2,7.617,5.893,5.031
462,1.076,35.473,5.729,27.146,29.197,7.576,5.892,4.948
463,1.099,35.633,5.725,27.184,29.197,7.698,5.851,4.907
464,1.109,35.75,5.737,27.194,29.21,7.74,5.973,5.028
465,1.106,35.799,5.729,27.194,29.211,7.781,5.893,5.07
466,1.099,35.598,5.725,27.165,29.197,7.618,5.811,4.989
467,1.109,35.711,5.725,27.155,29.204,7.698,5.891,4.948
468,1.132,35.856,5.748,27.184,29.211,7.821,5.892,5.069
469,1.135,35.934,5.756,27.194,29.214,7.903,5.892,5.152
470,1.096,35.388,5.733,27.165,29.2,7.701,5.851,4.99
471,1.047,35.498,5.733,27.165,29.197,7.699,5.769,5.029
472,1.03,35.643,5.764,27.194,29.2,7.78,5.891,5.07
473,0.998,35.472,5.753,27.223,29.214,7.944,6.014,5.233
474,0.926,35.518,5.717,27.185,29.2,7.783,5.812,5.032
475,0.866,35.643,5.717,27.165,29.2,7.7,5.769,4.948
476,0.807,35.75,5.725,27.184,29.207,7.821,5.891,5.069
477,0.729,35.358,5.741,27.184,29.207,7.903,6.014,5.111
478,0.656,35.478,5.729,27.175,29.2,7.782,5.893,5.03
479,0.574,35.614,5.737,27.155,29.2,7.862,5.851,4.989
480,0.502,35.682,5.729,27.184,29.211,7.822,5.932,5.029
481,0.41,35.232,5.733,27.146,29.204,7.781,5.852,5.07
482,0.331,35.391,5.737,27.165,29.204,7.74,5.932,4.948
483,0.301,35.527,5.745,27.165,29.214,7.781,5.892,5.15
484,0.268,35.576,5.737,27.184,29.2,7.781,5.892,5.071
485,0.239,35.251,5.737,27.165,29.197,7.74,5.77,4.989
486,0.219,35.41,5.721,27.184,29.2,7.781,5.891,5.029
487,0.17,35.537,5.74,27.184,29.211,7.903,5.892,5.151
488,0.12,35.586,5.737,27.165,29.204,7.782,5.892,5.153
489,0.074,35.251,5.717,27.165,29.2,7.74,5.77,5.031
490,0.054,35.391,5.721,27.174,29.2,7.74,5.809,5.111
491,0.051,35.536,5.744,27.175,29.211,7.821,5.891,5.193
492,0.041,35.576,5.756,27.222,29.211,7.863,5.973,5.275
493,-0.001,35.394,5.721,27.165,29.204,7.66,5.811,5.073
494,-0.015,35.498,5.729,27.146,29.197,7.658,5.728,5.03
495,-0.018,35.633,5.733,27.174,29.207,7.698,5.931,5.192
496,0.001,35.366,5.745,27.175,29.214,7.821,6.014,5.194
497,0.037,35.277,5.733,27.165,29.197,7.659,5.893,5.112
498,0.074,35.43,5.745,27.184,29.204,7.658,5.892,5.193
499,0.119,35.518,5.741,27.184,29.207,7.617,5.973,5.031
500,0.172,35.221,5.745,27.155,29.197,7.576,5.893,5.151
501,0.241,35.362,5.721,27.165,29.204,7.535,5.811,5.153
502,0.281,35.498,5.729,27.184,29.214,7.616,5.972,5.193
503,0.304,35.566,5.733,27.165,29.204,7.535,5.974,5.153
504,0.346,35.087,5.729,27.146,29.197,7.412,5.852,5.071
505,0.379,35.236,5.737,27.165,29.2,7.371,5.932,5.152
506,0.412,35.381,5.745,27.203,29.211,7.452,5.974,5.315
507,0.442,35.469,5.745,27.165,29.2,7.493,5.893,5.236
508,0.465,35.23,5.721,27.146,29.193,7.371,5.933,5.153
509,0.494,35.353,5.733,27.165,29.197,7.411,5.852,5.234
510,0.53,35.498,5.745,27.174,29.207,7.33,5.973,5.275
511,0.566,35.595,5.756,27.213,29.214,7.41,6.055,5.357
512,0.593,35.04,5.745,27.165,29.204,7.249,5.893,5.195
513,0.616,35.159,5.733,27.165,29.2,7.206,5.811,5.153
514,0.645,35.294,5.752,27.174,29.211,7.287,5.932,5.234
515,0.668,35.334,5.756,27.184,29.218,7.41,6.055,5.316
516,0.688,35.21,5.737,27.155,29.2,7.289,5.812,5.154
517,0.701,35.343,5.745,27.184,29.204,7.288,5.972,5.193
518,0.721,35.44,5.752,27.184,29.204,7.166,5.933,5.316
519,0.734,35.499,5.737,27.165,29.204,7.246,5.892,5.317
520,0.744,35.087,5.737,27.165,29.207,7.166,5.892,5.236
521,0.773,35.217,5.748,27.165,29.214,7.165,5.973,5.235
522,0.787,35.324,5.737,27.155,29.207,7.124,5.974,5.316
523,0.79,35.056,5.737,27.146,29.2,7.043,5.811,5.195
524,0.8,35.14,5.737,27.165,29.204,7.042,6.013,5.234
525,0.816,35.285,5.737,27.184,29.204,7.123,5.893,5.357
526,0.81,35.372,5.733,27.165,29.204,7.083,5.973,5.236
527,0.826,34.827,5.737,27.165,29.197,7.002,5.811,5.194
528,0.826,34.975,5.725,27.165,29.2,7.001,5.85,5.275
529,0.833,35.129,5.729,27.174,29.211,7.123,5.891,5.235
530,0.849,35.227,5.748,27.194,29.211,7.124,5.892,5.275
531,0.836,35.094,5.745,27.175,29.2,7.043,5.851,5.235
532,0.833,35.217,5.713,27.146,29.19,6.879,5.81,5.235
533,0.846,35.372,5.737,27.174,29.21,7.081,5.891,5.357
534,0.846,35.469,5.745,27.213,29.221,7.205,5.973,5.399
535,0.84,35.019,5.745,27.165,29.204,6.962,5.852,5.277
536,0.846,35.159,5.729,27.146,29.193,6.919,5.729,5.235
537,0.856,35.285,5.752,27.165,29.214,7.0,5.89,5.235
538,0.849,35.334,5.741,27.184,29.207,7.123,5.933,5.357
539,0.843,35.028,5.741,27.165,29.207,7.002,5.811,5.195
540,0.856,35.178,5.741,27.174,29.207,7.001,5.891,5.194
541,0.859,35.285,5.733,27.165,29.207,7.001,5.973,5.234
542,0.853,35.296,5.717,27.155,29.193,6.919,5.893,5.235
543,0.853,35.066,5.737,27.165,29.2,6.959,5.892,5.194
544,0.856,35.188,5.752,27.174,29.204,7.0,5.973,5.234
545,0.866,35.304,5.749,27.184,29.211,7.001,5.852,5.275
546,0.859,34.96,5.733,27.146,29.197,7.041,5.851,5.195
547,0.866,34.89,5.733,27.165,29.204,7.123,5.891,5.234
548,0.862,35.052,5.748,27.174,29.211,7.124,5.973,5.316
549,0.879,35.14,5.745,27.184,29.211,7.165,5.933,5.276
550,0.866,34.786,5.741,27.155,29.204,7.165,5.852,5.235
551,0.862,34.907,5.745,27.174,29.204,7.206,5.851,5.316
552,0.869,35.062,5.756,27.184,29.214,7.328,5.932,5.358
553,0.885,35.178,5.756,27.194,29.214,7.289,5.974,5.317
554,0.879,34.844,5.725,27.165,29.204,7.247,5.893,5.236
555,0.859,34.956,5.709,27.146,29.193,7.206,5.77,5.194
556,0.869,35.129,5.736,27.174,29.207,7.287,5.972,5.316
557,0.885,35.217,5.733,27.213,29.221,7.41,6.015,5.398
558,0.879,34.787,5.729,27.165,29.2,7.208,5.852,5.196
559,0.866,34.926,5.741,27.146,29.204,7.206,5.81,5.194
560,0.872,35.033,5.733,27.174,29.211,7.247,5.972,5.194
561,0.872,35.111,5.745,27.165,29.2,7.206,5.933,5.234
562,0.872,34.853,5.725,27.155,29.2,7.125,5.892,5.153
563,0.879,35.013,5.748,27.174,29.207,7.205,5.892,5.234
564,0.876,35.092,5.741,27.165,29.204,7.125,5.933,5.235
565,0.872,35.131,5.729,27.155,29.2,7.043,5.892,5.235
566,0.882,34.747,5.737,27.174,29.204,7.123,5.892,5.235
567,0.882,34.868,5.745,27.175,29.211,7.165,5.973,5.275
568,0.885,34.975,5.729,27.165,29.204,7.165,5.852,5.316
569,0.882,35.034,5.721,27.165,29.2,7.002,5.891,5.195
570,0.879,34.718,5.74,27.165,29.204,7.123,5.892,5.275
571,0.882,34.858,5.748,27.174,29.211,7.083,5.892,5.316
572,0.895,34.984,5.745,27.184,29.211,7.164,5.933,5.317
573,0.886,34.621,5.729,27.165,29.2,7.002,5.811,5.236
574,0.882,34.685,5.725,27.155,29.2,7.001,5.85,5.275
575,0.892,34.858,5.752,27.165,29.211,7.082,5.932,5.276
576,0.899,34.956,5.749,27.194,29.211,7.164,5.933,5.316
577,0.882,34.516,5.721,27.175,29.197,7.084,5.852,5.236
578,0.885,34.636,5.733,27.127,29.197,7.002,5.769,5.153
579,0.885,34.791,5.745,27.164,29.204,7.163,5.85,5.315
580,0.889,34.898,5.741,27.194,29.217,7.246,6.013,5.358
581,0.879,34.544,5.741,27.146,29.204,7.084,5.812,5.155
582,0.885,34.694,5.745,27.136,29.197,7.042,5.769,5.031
583,0.885,34.82,5.733,27.174,29.21,7.164,5.891,5.192
584,0.879,34.888,5.733,27.175,29.207,7.206,5.933,5.275
585,0.889,34.63,5.737,27.165,29.204,7.165,5.852,5.154
586,0.879,34.781,5.748,27.194,29.207,7.124,5.932,5.234
587,0.885,34.897,5.737,27.165,29.207,7.083,5.852,5.235
588,0.872,34.927,5.721,27.146,29.197,7.042,5.851,5.194
589,0.885,34.573,5.721,27.146,29.204,7.123,5.891,5.234
590,0.898,34.723,5.721,27.184,29.214,7.124,5.973,5.275
591,0.899,34.839,5.74,27.165,29.2,7.083,5.893,5.235
592,0.899,34.831,5.733,27.155,29.197,7.042,5.892,5.194
593,0.899,34.601,5.733,27.165,29.207,7.082,5.892,5.194
594,0.902,34.723,5.741,27.184,29.211,7.042,6.014,5.275
595,0.908,34.878,5.745,27.165,29.207,7.082,5.893,5.276
596,0.889,34.649,5.729,27.136,29.204,7.042,5.851,5.154
597,0.892,34.618,5.709,27.145,29.193,6.96,5.81,5.193
598,0.895,34.79,5.717,27.165,29.203,7.204,5.932,5.234
599,0.905,34.907,5.752,27.194,29.217,7.287,6.055,5.316
600,0.889,34.323,5.725,27.146,29.204,7.207,5.853,5.236
601,0.882,34.423,5.729,27.126,29.197,7.206,5.81,5.113
602,0.889,34.587,5.737,27.155,29.207,7.409,5.932,5.234
603,0.895,34.685,5.745,27.184,29.218,7.493,6.055,5.357
604,0.889,34.398,5.733,27.146,29.2,7.371,5.934,5.155
605,0.892,34.548,5.737,27.165,29.2,7.37,5.933,5.071
606,0.895,34.675,5.733,27.146,29.204,7.533,5.933,5.233
607,0.895,34.743,5.741,27.184,29.211,7.453,6.014,5.275
608,0.902,34.264,5.717,27.146,29.204,7.452,5.893,5.154
609,0.925,34.422,5.733,27.165,29.207,7.534,5.892,5.193
610,0.902,34.549,5.737,27.165,29.204,7.575,5.892,5.275
611,0.908,34.579,5.737,27.165,29.204,7.494,5.973,5.235
612,0.905,34.358,5.733,27.165,29.197,7.616,5.852,5.235
613,0.912,34.49,5.729,27.184,29.21,7.617,5.973,5.275
614,0.912,34.616,5.725,27.165,29.207,7.657,5.974,5.235
615,0.899,34.637,5.729,27.136,29.193,7.536,5.811,5.113
616,0.899,34.33,5.729,27.165,29.203,7.616,5.932,5.152
617,0.918,34.5,5.729,27.165,29.211,7.739,5.974,5.234
618,0.922,34.588,5.737,27.174,29.207,7.699,5.933,5.194
619,0.905,34.579,5.717,27.136,29.197,7.577,5.73,5.112
620,0.899,34.195,5.725,27.126,29.2,7.575,5.809,5.071
621,0.905,34.364,5.717,27.164,29.204,7.616,5.972,5.274
622,0.921,34.5,5.733,27.194,29.211,7.779,5.974,5.276
623,0.905,34.175,5.737,27.127,29.2,7.578,5.811,5.154
624,0.902,34.23,5.733,27.145,29.193,7.535,5.769,5.112
625,0.912,34.384,5.745,27.174,29.2,7.657,5.931,5.152
626,0.922,34.51,5.741,27.165,29.211,7.658,5.974,5.315
627,0.915,34.243,5.725,27.136,29.204,7.617,5.893,5.195
628,0.925,34.393,5.729,27.165,29.204,7.576,5.851,5.153
629,0.922,34.52,5.721,27.165,29.207,7.494,5.851,5.193
630,0.915,34.598,5.725,27.146,29.197,7.453,5.891,5.153
631,0.918,34.128,5.744,27.165,29.204,7.452,5.811,5.153
632,0.925,34.306,5.725,27.184,29.211,7.452,5.85,5.193
633,0.925,34.404,5.725,27.175,29.204,7.412,5.851,5.194
634,0.925,34.472,5.717,27.146,29.197,7.289,5.81,5.072
635,0.922,34.031,5.744,27.165,29.204,7.369,5.81,5.152
636,0.928,34.19,5.749,27.165,29.204,7.33,5.85,5.234
637,0.922,34.335,5.737,27.155,29.211,7.329,5.932,5.153
638,0.925,34.346,5.737,27.136,29.207,7.248,5.77,5.071
639,0.909,34.116,5.729,27.145,29.204,7.247,5.809,5.152
640,0.921,34.306,5.733,27.155,29.211,7.288,5.972,5.234
641,0.935,34.461,5.748,27.174,29.218,7.329,5.933,5.194
642,0.922,34.424,5.729,27.165,29.2,7.167,5.77,5.072
643,0.922,34.05,5.737,27.107,29.193,7.084,5.728,5.07
644,0.928,34.228,5.748,27.155,29.207,7.245,5.89,5.152
645,0.938,34.345,5.756,27.174,29.218,7.369,5.973,5.275
646,0.932,34.126,5.733,27.165,29.2,7.126,5.811,5.195
647,0.941,34.143,5.745,27.136,29.2,7.124,5.81,5.153
648,0.928,34.268,5.741,27.145,29.2,7.205,5.891,5.193
649,0.944,34.346,5.737,27.146,29.204,7.125,5.892,5.153
650,0.932,33.982,5.733,27.165,29.204,7.124,5.811,5.153
651,0.941,34.132,5.733,27.184,29.214,7.165,5.972,5.234
652,0.935,34.248,5.725,27.146,29.204,7.124,5.893,5.235
653,0.935,34.326,5.741,27.165,29.193,7.083,5.851,5.153
654,0.931,34.107,5.741,27.155,29.203,7.083,5.81,5.193
655,0.938,34.287,5.752,27.146,29.207,7.164,5.891,5.234
656,0.932,34.403,5.756,27.146,29.204,7.043,5.77,5.235
657,0.935,34.472,5.729,27.126,29.197,6.96,5.728,5.072
658,0.945,33.983,5.733,27.164,29.204,7.082,5.85,5.152
659,0.938,34.17,5.748,27.165,29.211,7.123,5.851,5.153
660,0.945,34.287,5.737,27.165,29.207,6.961,5.851,5.234
661,0.935,34.327,5.741,27.127,29.2,6.919,5.729,5.113
662,0.931,34.078,5.721,27.107,29.193,6.919,5.809,5.03
663,0.938,34.286,5.756,27.155,29.207,7.0,5.85,5.111
664,0.948,34.423,5.749,27.184,29.211,7.123,5.973,5.193
665,0.938,34.424,5.729,27.155,29.2,6.961,5.771,5.153
666,0.935,34.242,5.733,27.146,29.197,6.919,5.728,5.071
667,0.941,34.384,5.741,27.165,29.204,6.959,5.89,5.233
668,0.948,34.491,5.741,27.146,29.214,7.0,5.851,5.235
669,0.948,34.607,5.748,27.165,29.204,6.96,5.81,5.113
670,0.954,34.435,5.737,27.165,29.207,6.96,5.891,5.152
671,0.945,34.558,5.729,27.146,29.207,6.96,5.811,5.193
672,0.945,34.627,5.721,27.146,29.193,6.838,5.85,5.072
673,0.941,34.397,5.748,27.155,29.203,6.877,5.891,5.152
674,0.948,34.5,5.749,27.165,29.207,6.959,5.973,5.193
675,0.951,34.617,5.745,27.146,29.2,6.838,5.933,5.194
676,0.951,34.704,5.745,27.136,29.197,6.755,5.852,5.072
677,0.945,34.571,5.729,27.145,29.21,6.957,5.932,5.07
678,0.958,34.732,5.744,27.165,29.211,6.878,5.974,5.193
679,0.964,34.878,5.752,27.165,29.207,6.837,6.015,5.153
680,0.942,34.918,5.725,27.155,29.2,6.796,5.893,5.071
681,0.941,34.803,5.725,27.126,29.197,6.714,5.892,5.03
682,0.948,34.965,5.741,27.164,29.204,6.876,6.014,5.192
683,0.964,35.11,5.748,27.194,29.214,7.04,6.096,5.234
684,0.951,35.14,5.733,27.127,29.2,6.96,5.894,5.032
685,0.951,35.083,5.733,27.126,29.19,6.838,5.851,5.07
686,0.945,35.217,5.756,27.164,29.203,6.958,5.973,5.193
687,0.948,35.343,5.733,27.165,29.211,7.0,6.015,5.194
688,0.948,35.363,5.721,27.136,29.197,7.001,5.934,5.072
689,0.948,35.469,5.737,27.165,29.207,7.001,6.014,5.152
690,0.948,35.585,5.737,27.146,29.204,7.001,6.015,5.153
691,0.951,35.663,5.737,27.136,29.197,7.001,5.934,5.193
692,0.951,35.702,5.733,27.126,29.2,6.96,5.974,5.153
693,0.941,35.779,5.741,27.164,29.207,7.122,6.055,5.193
694,0.948,35.914,5.721,27.165,29.207,7.043,6.056,5.153
695,0.958,35.992,5.74,27.136,29.197,7.001,5.853,5.071
696,0.958,35.993,5.737,27.136,29.204,7.041,5.973,5.111
697,0.958,36.06,5.733,27.145,29.207,7.123,6.055,5.193
698,0.974,36.186,5.745,27.165,29.211,7.083,6.015,5.194
699,0.951,36.263,5.729,27.127,29.207,7.002,5.893,5.072
700,0.945,36.351,5.717,27.126,29.193,6.919,5.892,5.07
701,0.948,36.505,5.74,27.136,29.203,7.041,6.054,5.152
702,0.961,36.641,5.745,27.174,29.211,7.123,6.137,5.275
703,0.948,36.68,5.717,27.117,29.2,6.961,5.976,5.032
704,0.951,36.642,5.737,27.126,29.2,7.0,5.933,5.03
705,0.958,36.815,5.725,27.145,29.204,7.041,5.974,5.192
706,0.954,36.903,5.737,27.136,29.204,7.042,6.015,5.153
707,0.948,36.98,5.748,27.126,29.207,6.96,5.934,5.153
708,0.958,36.981,5.749,27.164,29.207,7.041,6.055,5.153
709,0.961,37.106,5.745,27.155,29.204,7.082,6.056,5.112
710,0.955,37.193,5.733,27.136,29.2,7.002,5.975,5.071
711,0.958,37.252,5.717,27.155,29.204,7.001,6.015,5.152
712,0.968,37.396,5.737,27.165,29.204,7.163,6.096,5.193
713,0.958,37.503,5.745,27.127,29.204,7.084,6.016,5.194
714,0.945,37.59,5.737,27.126,29.2,6.961,5.934,5.031
715,0.945,37.601,5.737,27.136,29.204,7.082,6.014,5.111
716,0.954,37.793,5.745,27.145,29.204,7.083,6.137,5.193
717,0.964,37.938,5.749,27.165,29.211,7.123,6.016,5.194
718,0.948,37.988,5.733,27.146,29.204,7.002,5.974,5.072
719,0.948,38.103,5.729,27.117,29.197,6.96,5.933,5.03
720,0.954,37.98,5.729,27.145,29.21,7.082,6.055,5.192
721,0.954,38.084,5.737,27.165,29.207,7.123,6.178,5.194
722,0.941,38.162,5.733,27.136,29.204,7.124,6.017,5.031
723,0.941,38.211,5.733,27.136,29.2,7.043,6.015,5.07
724,0.954,38.336,5.713,27.145,29.204,7.082,6.137,5.152
725,0.948,38.423,5.729,27.136,29.207,7.042,6.057,5.112
726,0.954,38.501,5.733,27.126,29.204,7.123,6.056,5.071
727,0.954,38.435,5.737,27.145,29.204,7.083,6.137,5.152
728,0.954,38.559,5.725,27.136,29.207,7.042,6.057,5.153
729,0.948,38.656,5.733,27.136,29.193,7.001,6.056,5.071
730,0.958,38.733,5.748,27.136,29.207,7.041,6.056,5.07
731,0.961,38.648,5.749,27.165,29.207,7.042,6.137,5.233
732,0.955,38.781,5.749,27.155,29.204,7.001,6.138,5.113
733,0.951,38.879,5.721,27.126,29.197,7.001,6.016,5.03
734,0.951,38.899,5.733,27.136,29.204,6.919,6.056,5.111
735,0.964,38.956,5.737,27.155,29.204,7.0,6.137,5.152
736,0.971,39.11,5.76,27.146,29.214,7.082,6.179,5.234
737,0.958,39.179,5.756,27.136,29.2,7.002,6.057,5.072
738,0.951,39.17,5.753,27.126,29.197,6.879,5.893,4.989
739,0.954,39.141,5.745,27.145,29.207,7.04,6.095,5.151
740,0.964,39.266,5.76,27.165,29.214,7.123,6.26,5.193
741,0.971,39.353,5.741,27.127,29.204,7.002,6.058,5.031
742,0.971,39.364,5.733,27.136,29.207,7.041,6.097,5.03
743,0.968,39.364,5.737,27.136,29.214,6.96,6.138,5.111
744,0.951,39.469,5.756,27.126,29.2,7.0,6.098,5.071
745,0.961,39.557,5.741,27.136,29.204,6.919,6.056,5.07
746,0.968,39.471,5.756,27.145,29.207,7.0,6.137,5.233
747,0.968,39.48,5.741,27.146,29.204,7.041,6.098,5.113
748,0.955,39.566,5.741,27.126,29.197,6.839,6.016,5.03
749,0.961,39.653,5.752,27.126,29.2,6.918,6.056,5.07
750,0.971,39.549,5.745,27.145,29.211,7.0,6.097,5.152
751,0.971,39.653,5.729,27.155,29.207,6.96,6.056,5.153
752,0.974,39.75,5.729,27.136,29.204,6.797,5.975,5.071
753,0.971,39.818,5.744,27.145,29.2,6.877,6.015,5.152
754,0.981,39.598,5.752,27.165,29.211,6.959,6.137,5.153
755,0.991,39.75,5.741,27.155,29.211,6.878,6.098,5.153
756,0.968,39.809,5.733,27.117,29.204,6.796,6.016,5.031
757,0.971,39.867,5.709,27.126,29.2,6.755,5.893,5.111
758,0.974,39.714,5.733,27.126,29.211,6.917,6.054,5.152
759,0.981,39.866,5.741,27.164,29.214,7.0,6.178,5.193
760,0.977,39.925,5.721,27.146,29.2,6.879,5.976,5.072
761,0.971,39.964,5.74,27.126,29.2,6.877,5.893,5.07
762,0.981,39.83,5.737,27.126,29.207,6.959,6.014,5.111
763,0.964,39.944,5.733,27.126,29.207,7.041,6.056,5.152
764,0.968,40.05,5.737,27.145,29.204,7.123,5.975,5.071
765,0.984,40.071,5.741,27.136,29.211,7.205,6.015,5.111
766,0.981,39.85,5.741,27.136,29.2,7.247,6.056,5.071
767,0.977,39.954,5.741,27.126,29.2,7.247,5.853,5.07
768,0.99,40.06,5.745,27.126,29.2,7.369,6.013,5.03
769,0.997,40.128,5.741,27.145,29.204,7.573,6.096,5.151
770,0.981,39.966,5.741,27.126,29.2,7.494,5.975,5.153
771,0.977,40.051,5.725,27.126,29.197,7.616,5.933,5.112
772,0.984,40.128,5.741,27.136,29.197,7.617,6.014,5.152
773,0.984,40.071,5.737,27.165,29.21,7.82,6.056,5.193
774,0.984,40.195,5.745,27.155,29.214,7.863,6.015,5.194
775,0.978,40.264,5.721,27.117,29.197,7.782,5.974,5.112
776,0.971,40.284,5.717,27.116,29.2,7.862,5.852,5.071
777,0.984,39.92,5.733,27.155,29.207,7.985,5.973,5.193
778,0.984,40.06,5.733,27.165,29.214,8.149,6.137,5.316
779,0.955,40.128,5.725,27.136,29.2,7.988,5.976,5.114
780,0.961,40.196,5.729,27.126,29.197,7.946,5.852,5.03
781,0.958,39.88,5.733,27.136,29.204,8.026,5.932,5.07
782,0.968,40.002,5.737,27.136,29.204,8.027,6.014,5.152
783,0.974,40.137,5.733,27.117,29.204,8.027,5.974,5.071
784,0.968,40.196,5.752,27.155,29.207,8.109,6.015,5.111
785,0.964,40.005,5.741,27.136,29.204,8.109,5.974,5.112
786,0.951,40.099,5.748,27.126,29.2,7.947,5.933,5.03
787,0.958,40.225,5.733,27.145,29.211,8.067,5.974,5.111
788,0.948,40.235,5.741,27.146,29.207,8.109,6.055,5.152
789,0.958,40.101,5.741,27.126,29.204,8.109,6.015,5.193
790,0.941,40.186,5.741,27.117,29.2,7.987,6.056,5.072
791,0.941,40.273,5.729,27.126,29.197,7.986,6.015,5.152
792,0.945,40.303,5.744,27.136,29.214,8.068,6.137,5.193
793,0.958,40.121,5.749,27.155,29.221,8.069,6.179,5.194
794,0.938,40.186,5.737,27.126,29.197,7.865,6.057,5.072
795,0.925,40.254,5.725,27.088,29.197,7.822,6.056,4.948
796,0.931,40.14,5.729,27.135,29.21,7.944,6.137,5.191
797,0.925,40.148,5.737,27.145,29.214,7.986,6.138,5.234
798,0.918,40.263,5.717,27.126,29.2,7.864,6.138,5.032
799,0.925,40.351,5.748,27.126,29.204,7.863,6.179,5.151
800,0.912,40.054,5.737,27.136,29.204,7.822,6.22,5.071
801,0.912,40.147,5.725,27.107,29.204,7.863,6.139,5.111
802,0.918,40.263,5.748,27.126,29.204,7.863,6.179,5.071
803,0.915,40.351,5.745,27.136,29.207,7.904,6.261,5.111
804,0.912,40.093,5.741,27.117,29.2,7.823,6.18,5.112
805,0.899,40.196,5.725,27.116,29.2,7.863,6.179,5.071
806,0.899,40.302,5.744,27.126,29.2,7.863,6.22,5.07
807,0.902,40.361,5.725,27.136,29.207,7.985,6.302,5.152
808,0.905,40.141,5.725,27.136,29.207,7.986,6.221,5.112
809,0.892,40.244,5.741,27.126,29.197,8.027,6.22,5.071
810,0.899,40.351,5.725,27.117,29.204,8.109,6.22,5.07
811,0.908,40.419,5.744,27.136,29.211,8.313,6.342,5.152
812,0.905,40.276,5.745,27.145,29.225,8.437,6.343,5.193
813,0.889,40.361,5.729,27.117,29.2,8.357,6.262,5.072
814,0.879,40.438,5.729,27.107,29.193,8.397,6.099,5.03
815,0.892,40.477,5.741,27.136,29.21,8.519,6.26,5.192
816,0.882,40.247,5.745,27.145,29.211,8.764,6.384,5.194
817,0.872,40.341,5.729,27.136,29.204,8.604,6.263,5.072
818,0.876,40.438,5.744,27.126,29.204,8.724,6.302,5.07
819,0.882,40.42,5.737,27.117,29.211,8.766,6.343,5.152
820,0.879,40.295,5.737,27.107,29.2,8.685,6.303,5.112
821,0.872,40.418,5.737,27.107,29.204,8.766,6.302,5.071
822,0.879,40.487,5.745,27.145,29.204,8.767,6.302,5.07
823,0.876,40.382,5.733,27.117,29.204,8.726,6.262,5.07
824,0.869,40.496,5.729,27.126,29.204,8.563,6.221,5.03
825,0.879,40.593,5.741,27.126,29.207,8.602,6.261,5.07
826,0.879,40.671,5.737,27.136,29.214,8.684,6.302,5.111
827,0.889,40.173,5.729,27.126,29.211,8.562,6.343,5.03
828,0.872,40.273,5.725,27.107,29.2,8.48,6.181,5.03
829,0.866,40.361,5.729,27.097,29.204,8.357,6.179,5.111
830,0.882,40.457,5.764,27.135,29.207,8.437,6.301,5.152
831,0.892,40.401,5.753,27.165,29.224,8.479,6.384,5.234
832,0.873,40.496,5.733,27.127,29.204,8.276,6.181,5.072
833,0.872,40.555,5.721,27.117,29.19,8.111,6.098,4.989
834,0.872,40.632,5.744,27.126,29.207,8.232,6.219,5.07
835,0.885,40.345,5.741,27.126,29.214,8.273,6.383,5.193
836,0.866,40.419,5.748,27.126,29.2,8.111,6.141,5.031
837,0.869,40.544,5.752,27.136,29.204,8.15,6.179,5.07
838,0.876,40.565,5.745,27.107,29.211,8.069,6.22,5.07
839,0.856,40.248,5.733,27.116,29.207,7.987,6.098,5.152
840,0.866,40.36,5.733,27.126,29.2,7.946,6.138,5.112
841,0.872,40.476,5.729,27.126,29.207,7.864,6.219,5.152
842,0.859,40.554,5.748,27.107,29.204,7.863,6.18,5.071
843,0.859,40.411,5.721,27.088,29.197,7.7,6.057,5.03
844,0.872,40.525,5.729,27.116,29.207,7.74,6.097,5.07
845,0.869,40.651,5.729,27.136,29.211,7.781,6.219,5.152
846,0.872,40.46,5.733,27.126,29.207,7.7,6.18,5.112
847,0.866,40.458,5.717,27.107,29.204,7.577,6.017,5.071
848,0.866,40.554,5.733,27.107,29.197,7.575,6.096,5.07
849,0.876,40.661,5.745,27.136,29.207,7.575,6.138,5.152
850,0.882,40.432,5.745,27.145,29.214,7.575,6.219,5.153
851,0.859,40.506,5.745,27.126,29.204,7.372,6.139,5.153
852,0.853,40.603,5.709,27.097,29.2,7.37,6.098,5.071
853,0.872,40.709,5.76,27.135,29.204,7.411,6.219,5.193
854,0.879,40.413,5.764,27.155,29.214,7.452,6.18,5.234
855,0.869,40.506,5.741,27.107,29.197,7.208,6.057,5.032
856,0.859,40.612,5.729,27.088,29.193,7.165,6.056,4.948
857,0.866,40.671,5.741,27.135,29.207,7.328,6.137,5.11
858,0.866,40.355,5.745,27.145,29.211,7.37,6.179,5.152
859,0.859,40.457,5.737,27.107,29.207,7.248,6.098,5.112
860,0.859,40.583,5.733,27.126,29.204,7.125,6.056,5.112
861,0.862,40.584,5.737,27.126,29.204,7.287,6.137,5.071
862,0.859,40.507,5.737,27.117,29.207,7.247,6.057,5.03
863,0.869,40.641,5.733,27.116,29.207,7.206,6.015,5.03
864,0.869,40.757,5.745,27.126,29.204,7.206,6.137,5.07
865,0.879,40.749,5.749,27.117,29.211,7.287,6.098,5.03
866,0.866,40.509,5.733,27.107,29.197,7.085,6.056,5.03
867,0.862,40.603,5.737,27.107,29.204,7.164,6.056,5.07
868,0.882,40.719,5.741,27.116,29.2,7.206,6.097,5.152
869,0.879,40.576,5.756,27.116,29.207,7.165,6.097,5.112
870,0.876,40.354,5.733,27.097,29.19,7.124,5.975,5.03
871,0.863,40.467,5.725,27.097,29.203,7.165,5.974,5.151
872,0.879,40.583,5.741,27.135,29.211,7.246,6.096,5.071
873,0.889,40.316,5.756,27.165,29.214,7.288,6.097,5.233
874,0.876,40.351,5.749,27.107,29.204,7.125,6.016,5.032
875,0.866,40.457,5.749,27.097,29.19,6.961,5.812,4.989
876,0.879,40.554,5.737,27.116,29.207,7.204,6.054,5.11
877,0.882,40.133,5.737,27.145,29.214,7.247,6.097,5.234
878,0.872,40.215,5.745,27.107,29.204,7.084,5.935,5.032
879,0.872,40.35,5.721,27.107,29.2,7.083,5.974,5.07
880,0.876,40.39,5.725,27.116,29.207,7.123,6.015,5.111
881,0.869,40.189,5.729,27.097,29.204,7.124,6.056,5.152
882,0.872,40.331,5.721,27.116,29.207,7.083,6.015,5.031
883,0.879,40.447,5.74,27.126,29.207,7.123,6.056,5.07
884,0.885,40.487,5.745,27.117,29.207,7.083,6.015,5.03
885,0.879,39.931,5.733,27.088,29.2,6.961,6.015,5.111
886,0.885,40.079,5.741,27.097,29.204,7.041,5.974,4.949
887,0.885,40.176,5.721,27.116,29.211,7.042,6.055,5.11
888,0.885,40.206,5.733,27.116,29.204,7.001,6.015,5.112
889,0.882,40.082,5.733,27.088,29.197,6.919,5.974,4.989
890,0.882,40.196,5.745,27.107,29.193,6.919,6.096,5.11
891,0.889,40.312,5.745,27.126,29.21,7.041,6.138,5.152
892,0.905,40.677,5.745,27.145,29.214,7.082,6.179,5.153
893,0.886,39.933,5.729,27.117,29.197,6.961,6.017,4.99
894,0.879,40.041,5.725,27.078,29.193,6.919,5.974,4.988
895,0.872,40.147,5.752,27.126,29.21,7.041,6.137,5.11
896,0.882,39.899,5.745,27.145,29.214,7.245,6.301,5.234
897,0.876,39.887,5.725,27.098,29.197,7.003,6.099,4.991
898,0.879,40.002,5.733,27.097,29.197,7.001,5.975,4.988
899,0.892,40.07,5.748,27.107,29.207,7.123,6.096,5.11
900,0.879,39.678,5.745,27.107,29.204,7.165,6.097,5.193
901,0.882,39.77,5.733,27.107,29.197,7.043,6.097,4.99
902,0.892,39.895,5.748,27.126,29.207,7.042,6.138,5.07
903,0.886,39.964,5.737,27.126,29.204,7.042,6.138,5.07
904,0.879,39.609,5.717,27.117,29.2,6.96,6.057,5.03
905,0.895,39.769,5.74,27.097,29.207,6.96,6.056,4.989
906,0.899,39.876,5.745,27.135,29.211,7.041,6.137,5.07
907,0.889,39.915,5.737,27.088,29.211,7.001,6.179,5.111
908,0.892,39.59,5.729,27.087,29.197,6.96,6.057,4.989
909,0.895,39.721,5.737,27.126,29.2,6.96,6.137,5.029
910,0.899,39.847,5.741,27.117,29.211,7.122,6.179,5.151
911,0.905,39.867,5.745,27.107,29.204,7.043,6.098,5.071
912,0.895,39.541,5.725,27.097,29.2,7.001,6.056,5.03
913,0.899,39.653,5.729,27.107,29.2,7.123,6.097,5.07
914,0.899,39.779,5.741,27.116,29.204,7.287,6.097,5.152
915,0.905,39.809,5.737,27.126,29.211,7.247,6.097,5.031
916,0.889,39.301,5.725,27.088,29.197,7.206,6.056,4.989
917,0.879,39.382,5.713,27.078,29.193,7.287,6.015,4.988
918,0.902,39.508,5.713,27.116,29.207,7.451,6.178,5.151
919,0.902,39.595,5.744,27.164,29.214,7.737,6.22,5.153
920,0.889,39.529,5.721,27.107,29.204,7.496,6.098,4.99
921,0.889,39.643,5.729,27.088,29.19,7.534,5.975,4.866
922,0.885,39.76,5.737,27.116,29.203,7.738,6.137,5.028
923,0.882,39.176,5.733,27.116,29.207,7.903,6.219,5.151
924,0.885,39.208,5.725,27.116,29.197,7.782,6.017,5.071
925,0.885,39.333,5.744,27.107,29.204,7.903,6.096,5.03
926,0.885,39.431,5.733,27.116,29.204,7.945,6.138,5.111
927,0.872,39.154,5.721,27.097,29.204,7.945,6.138,5.071
928,0.892,39.295,5.721,27.107,29.204,7.905,6.138,5.07
929,0.895,39.421,5.744,27.107,29.207,8.026,6.179,5.152
930,0.895,39.47,5.741,27.107,29.204,8.027,6.179,5.031
931,0.889,39.192,5.729,27.107,29.197,8.027,6.139,4.989
932,0.892,39.362,5.729,27.116,29.2,8.027,6.138,5.11
933,0.899,39.46,5.756,27.126,29.207,8.149,6.219,5.152
934,0.895,39.509,5.749,27.107,29.207,8.15,6.18,5.071
935,0.882,39.02,5.737,27.088,29.197,8.11,6.098,4.948
936,0.879,39.13,5.745,27.087,29.2,8.069,6.138,5.029
937,0.889,39.275,5.752,27.116,29.204,8.15,6.138,5.07
938,0.892,39.325,5.745,27.145,29.217,8.232,6.301,5.111
939,0.886,39.2,5.729,27.088,29.2,8.07,6.058,4.989
940,0.879,39.324,5.709,27.068,29.19,7.987,6.056,4.948
941,0.885,39.43,5.736,27.116,29.203,8.068,6.097,5.069
942,0.879,39.863,5.752,27.126,29.214,8.191,6.3,5.152
943,0.876,39.11,5.737,27.097,29.2,8.029,6.058,4.99
944,0.872,39.227,5.748,27.107,29.204,8.027,6.056,5.029
945,0.866,39.305,5.745,27.107,29.204,8.027,6.137,5.111
946,0.866,39.133,5.741,27.097,29.204,7.987,6.219,5.112
947,0.872,39.189,5.741,27.107,29.204,7.986,6.139,5.03
948,0.876,39.343,5.745,27.107,29.211,7.946,6.179,5.07
949,0.876,39.402,5.733,27.107,29.204,7.986,6.139,5.111
950,0.869,39.009,5.748,27.078,29.2,7.946,6.057,5.03
951,0.879,39.159,5.729,27.116,29.207,7.945,6.137,5.03
952,0.882,39.275,5.744,27.116,29.214,8.026,6.138,5.111
953,0.885,39.315,5.745,27.107,29.207,8.027,6.138,5.071
954,0.879,39.037,5.729,27.097,29.204,7.905,6.098,5.03
955,0.869,39.159,5.733,27.107,29.2,7.985,6.097,5.03
956,0.876,39.304,5.752,27.126,29.211,8.027,6.138,5.07
957,0.889,39.354,5.733,27.097,29.2,8.027,6.138,5.03
958,0.879,39.018,5.729,27.078,29.193,7.946,6.016,4.989
959,0.869,39.13,5.737,27.107,29.2,7.945,6.056,5.029
960,0.872,39.275,5.737,27.097,29.207,8.067,6.097,5.111
961,0.895,39.334,5.756,27.126,29.211,7.987,6.138,5.071
962,0.866,39.018,5.741,27.097,29.204,7.905,6.016,4.948
963,0.869,39.14,5.725,27.068,29.19,7.742,5.974,4.947
964,0.879,39.246,5.744,27.106,29.207,7.943,6.055,5.029
965,0.885,39.305,5.745,27.116,29.218,8.067,6.137,5.192
966,0.879,39.162,5.737,27.088,29.204,7.865,5.976,5.031
967,0.879,39.295,5.733,27.107,29.204,7.822,6.015,5.07
968,0.872,39.392,5.741,27.126,29.2,7.822,6.015,5.07
969,0.866,39.115,5.741,27.097,29.207,7.7,6.056,5.03
970,0.879,38.959,5.737,27.097,29.204,7.74,6.015,4.989
971,0.872,39.082,5.733,27.126,29.207,7.74,6.096,5.151
972,0.872,39.16,5.725,27.107,29.207,7.781,6.056,5.071
973,0.869,39.045,5.709,27.097,29.197,7.7,6.015,5.03
974,0.863,39.159,5.752,27.107,29.2,7.78,5.974,4.989
975,0.872,39.275,5.753,27.116,29.207,7.862,6.096,5.07
976,0.876,39.363,5.729,27.107,29.207,7.944,6.056,5.03
977,0.863,39.038,5.729,27.078,29.197,7.986,5.934,4.948
978,0.866,39.159,5.76,27.087,29.204,8.108,6.014,5.069
979,0.872,39.304,5.753,27.116,29.207,8.232,6.096,5.111
980,0.876,39.392,5.745,27.126,29.207,8.355,6.097,5.071
981,0.863,38.99,5.725,27.069,29.204,8.275,5.975,4.948
982,0.849,39.082,5.725,27.087,29.193,8.314,5.933,4.907
983,0.853,39.236,5.729,27.107,29.207,8.477,6.014,5.069
984,0.853,39.324,5.744,27.136,29.218,8.642,6.137,5.111
985,0.846,39.018,5.729,27.098,29.2,8.481,5.894,5.03
986,0.846,39.149,5.733,27.078,29.204,8.438,5.811,4.907
987,0.859,39.266,5.748,27.097,29.207,8.641,6.013,5.028
988,0.859,39.296,5.752,27.116,29.211,8.644,6.056,5.151
989,0.846,39.104,5.737,27.116,29.2,8.603,5.975,5.071
990,0.859,39.236,5.733,27.116,29.207,8.684,5.974,5.03
991,0.859,39.324,5.733,27.116,29.204,8.684,6.015,5.111
992,0.853,39.67,5.725,27.097,29.2,8.644,5.974,5.03
993,0.853,38.945,5.733,27.088,29.207,8.603,6.015,5.07
994,0.869,39.081,5.733,27.087,29.211,8.643,6.056,5.07
995,0.846,39.16,5.737,27.097,29.207,8.603,5.975,5.03
996,0.853,39.007,5.733,27.107,29.197,8.521,5.893,4.989
997,0.856,39.072,5.733,27.088,29.204,8.601,5.973,5.029
998,0.849,39.188,5.737,27.116,29.207,8.602,6.055,5.07
999,0.862,39.276,5.733,27.107,29.211,8.602,6.056,5.07
1000,0.859,38.922,5.725,27.078,29.2,8.521,5.893,4.989
1001,0.856,39.024,5.737,27.078,29.204,8.52,5.973,5.07
1002,0.862,39.169,5.748,27.107,29.204,8.642,5.974,5.111
1003,0.859,39.256,5.745,27.136,29.207,8.644,6.055,5.03
1004,0.846,38.97,5.717,27.088,29.2,8.603,5.893,4.989
1005,0.843,39.11,5.721,27.068,29.193,8.521,5.892,4.948
1006,0.843,39.237,5.737,27.097,29.207,8.601,6.054,5.11
1007,0.853,39.315,5.756,27.135,29.218,8.684,6.178,5.234
1008,0.846,38.903,5.745,27.088,29.2,8.522,5.935,4.991
1009,0.856,39.043,5.737,27.097,29.2,8.52,5.974,4.907
1010,0.849,39.15,5.752,27.107,29.207,8.52,5.974,5.069
1011,0.849,39.179,5.753,27.126,29.204,8.479,6.055,5.152
1012,0.853,38.969,5.729,27.097,29.204,8.398,5.893,5.031
1013,0.859,39.12,5.741,27.107,29.204,8.478,6.054,5.07
1014,0.859,39.208,5.745,27.116,29.2,8.398,6.056,5.111
1015,0.853,39.19,5.745,27.097,29.2,8.316,5.975,5.03
1016,0.856,38.863,5.729,27.097,29.2,8.356,6.055,5.07
1017,0.856,38.985,5.741,27.107,29.207,8.397,6.056,5.03
1018,0.846,39.072,5.717,27.088,29.204,8.194,6.056,5.03
1019,0.843,38.891,5.729,27.087,29.193,8.11,6.015,5.03
1020,0.843,38.812,5.733,27.087,29.2,8.109,6.137,5.03
1021,0.849,38.955,5.737,27.097,29.211,8.109,6.138,4.989
1022,0.866,39.062,5.752,27.097,29.211,8.069,6.179,5.029
1023,0.846,38.785,5.721,27.088,29.2,7.906,6.057,4.907
1024,0.833,38.879,5.729,27.087,29.193,7.823,6.015,4.906
1025,0.859,39.023,5.737,27.107,29.214,7.903,6.178,5.109
1026,0.853,39.111,5.733,27.126,29.214,7.985,6.342,5.193
1027,0.846,38.786,5.725,27.097,29.2,7.702,6.221,4.95
1028,0.846,38.907,5.729,27.088,29.197,7.699,6.18,4.947
1029,0.853,39.014,5.741,27.097,29.204,7.74,6.261,5.069
1030,0.849,39.063,5.737,27.107,29.207,7.699,6.221,5.07
1031,0.846,38.642,5.748,27.097,29.2,7.577,6.22,5.07
1032,0.856,38.762,5.745,27.116,29.207,7.616,6.139,5.111
1033,0.853,38.869,5.733,27.126,29.204,7.535,6.138,5.03
1034,0.843,38.899,5.725,27.097,29.204,7.412,6.098,5.07
1035,0.853,38.697,5.744,27.107,29.207,7.493,6.178,5.07
1036,0.859,38.839,5.721,27.097,29.207,7.453,6.179,5.07
1037,0.843,38.937,5.725,27.107,29.197,7.371,6.179,5.03
1038,0.843,38.957,5.729,27.088,29.197,7.208,6.139,4.948
1039,0.846,38.525,5.721,27.087,29.2,7.206,6.098,5.069
1040,0.846,38.684,5.721,27.126,29.2,7.287,6.26,5.03
1041,0.853,38.82,5.76,27.117,29.211,7.288,6.221,5.03
1042,0.83,39.109,5.721,27.069,29.197,7.207,6.098,4.989
1043,0.839,38.604,5.717,27.068,29.197,7.003,6.097,4.948
1044,0.843,38.762,5.744,27.106,29.197,7.204,6.138,5.029
1045,0.846,38.859,5.745,27.136,29.214,7.369,6.301,5.192
1046,0.846,38.4,5.737,27.098,29.193,7.126,6.14,5.072
1047,0.853,38.434,5.717,27.097,29.2,7.205,6.138,4.989
1048,0.853,38.549,5.729,27.107,29.204,7.287,6.179,5.07
1049,0.843,38.627,5.744,27.107,29.204,7.329,6.179,5.111
1050,0.839,38.417,5.741,27.097,29.2,7.329,6.139,5.03
1051,0.843,38.549,5.745,27.116,29.211,7.451,6.26,5.111
1052,0.849,38.656,5.737,27.097,29.204,7.452,6.221,5.071
1053,0.846,38.733,5.733,27.097,29.204,7.452,6.139,5.07
1054,0.849,38.351,5.725,27.107,29.2,7.534,6.219,5.07
1055,0.856,38.481,5.744,27.107,29.207,7.575,6.261,5.07
1056,0.853,38.578,5.725,27.097,29.207,7.616,6.18,5.03
1057,0.843,38.618,5.717,27.078,29.197,7.535,6.098,4.989
1058,0.853,38.206,5.737,27.087,29.2,7.657,6.3,4.948
1059,0.843,38.336,5.752,27.107,29.2,7.739,6.262,5.029
1060,0.849,38.462,5.749,27.116,29.204,7.74,6.221,5.03
1061,0.836,38.453,5.745,27.069,29.204,7.699,6.18,4.907
1062,0.826,38.319,5.721,27.078,29.197,7.699,6.179,4.987
1063,0.836,38.471,5.733,27.107,29.207,7.821,6.261,5.07
1064,0.849,38.607,5.741,27.136,29.218,7.903,6.343,5.152
1065,0.84,38.57,5.737,27.078,29.2,7.782,6.181,5.031
1066,0.843,38.071,5.713,27.068,29.193,7.659,6.139,4.989
1067,0.849,38.219,5.733,27.097,29.203,7.82,6.219,5.11
1068,0.849,38.307,5.741,27.126,29.217,7.863,6.261,5.193
1069,0.84,38.279,5.725,27.107,29.204,7.782,6.18,4.99
1070,0.839,38.289,5.729,27.097,29.204,7.822,6.179,4.988
1071,0.839,38.413,5.752,27.116,29.204,7.741,6.261,5.11
1072,0.839,38.453,5.737,27.097,29.204,7.74,6.139,5.112
1073,0.846,37.859,5.729,27.107,29.211,7.699,6.138,5.03
1074,0.843,37.958,5.748,27.116,29.211,7.699,6.26,5.111
1075,0.843,38.065,5.741,27.097,29.204,7.618,6.139,5.071
1076,0.843,38.123,5.733,27.078,29.204,7.576,6.138,4.948
1077,0.839,37.932,5.733,27.087,29.204,7.575,6.179,5.069
1078,0.846,38.065,5.733,27.116,29.211,7.657,6.22,5.03
1079,0.853,38.181,5.737,27.097,29.204,7.658,6.18,5.07
1080,0.843,38.22,5.725,27.068,29.19,7.617,6.179,4.989
1081,0.853,37.885,5.733,27.078,29.203,7.698,6.179,5.029
1082,0.843,38.026,5.745,27.097,29.207,7.78,6.179,5.111
1083,0.843,38.161,5.752,27.107,29.204,7.822,6.139,4.989
1084,0.843,38.163,5.737,27.078,29.197,7.822,6.138,4.907
1085,0.83,37.76,5.737,27.068,29.2,7.863,6.098,4.906
1086,0.846,37.919,5.76,27.106,29.204,8.026,6.219,5.15
1087,0.862,38.045,5.745,27.136,29.217,8.271,6.302,5.153
1088,0.846,38.046,5.733,27.088,29.204,8.111,6.18,5.031
1089,0.849,37.883,5.737,27.078,29.2,8.109,6.017,4.907
1090,0.862,38.035,5.737,27.107,29.207,8.272,6.178,5.069
1091,0.872,38.152,5.745,27.116,29.214,8.477,6.261,5.274
1092,0.876,38.326,5.725,27.088,29.2,8.398,6.18,5.073
1093,0.876,37.8,5.729,27.107,29.2,8.356,6.139,5.03
1094,0.889,37.91,5.737,27.116,29.207,8.437,6.138,5.03
1095,0.863,37.988,5.737,27.069,29.197,8.357,6.098,5.03
1096,0.879,37.691,5.745,27.087,29.2,8.356,6.097,5.07
1097,0.885,37.746,5.737,27.107,29.214,8.478,6.178,5.07
1098,0.885,37.88,5.737,27.088,29.204,8.438,6.098,5.03
1099,0.885,37.93,5.717,27.068,29.197,8.397,6.097,4.907
1100,0.905,37.633,5.737,27.097,29.2,8.397,6.138,4.987
1101,0.908,37.774,5.741,27.107,29.207,8.438,6.098,5.07
1102,0.902,37.881,5.741,27.088,29.207,8.357,6.016,5.03
1103,0.908,37.939,5.745,27.087,29.204,8.234,6.015,4.948
1104,0.912,37.518,5.745,27.087,29.207,8.273,6.056,4.947
1105,0.925,37.667,5.749,27.097,29.207,8.274,6.137,5.11
1106,0.944,37.793,5.741,27.116,29.211,8.274,6.057,4.949
1107,0.928,37.843,5.729,27.078,29.197,8.152,6.015,4.947
1108,0.931,37.469,5.729,27.078,29.197,8.028,6.056,4.947
1109,0.951,37.638,5.744,27.107,29.2,8.109,6.097,5.029
1110,0.971,37.736,5.749,27.136,29.217,8.191,6.178,5.151
1111,0.958,37.775,5.721,27.088,29.2,7.988,6.098,5.031
1112,0.964,37.507,5.725,27.087,29.2,7.946,5.975,4.989
1113,0.977,37.658,5.721,27.097,29.211,8.026,6.055,5.07
1114,0.981,37.755,5.737,27.126,29.211,7.987,6.178,5.193
1115,0.974,37.737,5.721,27.088,29.207,7.905,6.057,4.95
1116,0.981,37.43,5.74,27.087,29.207,7.863,6.097,5.029
1117,0.971,37.522,5.741,27.078,29.2,7.863,6.138,5.111
1118,0.961,37.6,5.717,27.078,29.2,7.782,6.057,5.03
1119,0.971,37.467,5.737,27.087,29.204,7.822,6.097,5.07
1120,0.981,37.446,5.748,27.107,29.211,7.822,6.178,5.111
1121,0.977,37.542,5.737,27.088,29.204,7.781,6.139,5.071
1122,0.968,37.629,5.729,27.087,29.197,7.659,6.057,4.908
1123,0.981,37.198,5.717,27.087,29.2,7.739,6.137,4.987
1124,0.997,37.319,5.744,27.087,29.204,7.699,6.098,5.07
1125,1.007,37.464,5.733,27.107,29.207,7.74,6.056,5.07
1126,1.014,37.504,5.717,27.078,29.197,7.577,6.097,4.989
1127,1.014,37.255,5.721,27.078,29.2,7.575,6.016,4.988
1128,1.02,37.415,5.744,27.107,29.211,7.657,6.096,5.151
1129,1.033,37.561,5.76,27.126,29.214,7.698,6.097,5.031
1130,1.014,37.61,5.749,27.088,29.197,7.536,5.975,4.948
1131,1.01,37.122,5.733,27.059,29.197,7.412,5.893,4.907
1132,1.014,37.289,5.752,27.106,29.207,7.493,6.136,5.069
1133,1.001,37.406,5.753,27.126,29.218,7.575,6.179,5.152
1134,0.984,37.455,5.737,27.088,29.2,7.413,5.976,5.031
1135,0.991,37.101,5.745,27.097,29.204,7.452,5.974,5.03
1136,0.987,37.232,5.76,27.097,29.211,7.371,6.015,5.03
1137,0.987,37.348,5.737,27.088,29.204,7.33,5.974,5.07
1138,0.997,37.378,5.729,27.087,29.197,7.248,5.893,5.07
1139,1.0,37.11,5.733,27.107,29.21,7.288,6.054,5.07
1140,1.0,37.232,5.737,27.078,29.204,7.288,5.975,5.07
1141,1.004,37.31,5.721,27.068,29.204,7.166,5.933,5.03
1142,1.01,37.464,5.729,27.087,29.204,7.206,5.974,4.989
1143,1.023,37.043,5.744,27.107,29.211,7.247,6.015,5.029
1144,1.014,37.154,5.733,27.097,29.204,7.125,5.974,4.989
1145,1.01,37.242,5.725,27.059,29.197,7.043,5.974,4.988
1146,1.004,37.022,5.737,27.087,29.2,7.123,5.974,4.988
1147,1.01,37.125,5.756,27.107,29.211,7.043,6.137,5.07
1148,1.01,37.27,5.76,27.116,29.207,7.082,6.016,5.07
1149,1.001,37.31,5.745,27.078,29.2,6.961,5.934,4.989
1150,0.987,36.888,5.729,27.078,29.204,6.878,5.974,5.029
1151,0.997,37.038,5.737,27.107,29.211,7.04,6.015,5.151
1152,1.004,37.183,5.741,27.107,29.211,7.042,6.015,5.153
1153,0.994,37.242,5.725,27.078,29.2,6.92,5.852,5.071
1154,0.984,36.792,5.725,27.059,29.197,6.919,5.851,4.989
1155,0.981,36.95,5.729,27.106,29.207,7.041,6.013,5.07
1156,0.968,37.105,5.756,27.126,29.218,7.123,6.096,5.111
1157,0.942,37.117,5.733,27.069,29.197,6.961,5.975,5.03
1158,0.932,36.858,5.745,27.087,29.197,7.0,5.852,4.989
1159,0.918,37.009,5.733,27.087,29.207,7.041,6.054,5.029
1160,0.902,37.096,5.725,27.107,29.197,7.082,5.893,5.03
1161,0.895,37.155,5.725,27.097,29.2,7.042,5.933,4.989
1162,0.899,36.868,5.725,27.097,29.204,7.123,6.014,5.029
1163,0.879,36.999,5.752,27.088,29.207,7.165,5.934,5.03
1164,0.879,37.106,5.733,27.068,29.197,7.084,5.811,4.989
1165,0.879,37.136,5.725,27.087,29.207,7.123,5.972,5.07
1166,0.879,36.829,5.737,27.107,29.207,7.246,5.974,5.07
1167,0.863,36.941,5.741,27.097,29.204,7.166,5.852,5.07
1168,0.872,37.057,5.729,27.068,29.2,7.124,5.891,4.948
1169,0.872,36.8,5.733,27.087,29.2,7.165,5.892,4.988
1170,0.869,36.759,5.741,27.097,29.207,7.165,5.973,5.11
1171,0.869,36.873,5.741,27.107,29.207,7.246,5.933,5.03
1172,0.853,36.961,5.729,27.078,29.204,7.084,5.852,4.989
1173,0.84,36.636,5.709,27.078,29.19,7.083,5.851,4.988
1174,0.849,36.776,5.74,27.087,29.214,7.164,5.932,5.11
1175,0.846,36.931,5.764,27.116,29.211,7.206,6.055,5.112
1176,0.833,36.952,5.745,27.088,29.204,7.043,5.771,4.989
1177,0.843,36.578,5.745,27.087,29.197,7.001,5.809,4.907
1178,0.836,36.718,5.733,27.097,29.207,7.082,5.891,5.028
1179,0.83,36.825,5.729,27.097,29.211,7.083,5.973,5.111
1180,0.836,36.893,5.729,27.088,29.204,6.961,5.852,4.989
1181,0.826,36.558,5.752,27.078,29.207,7.082,5.891,4.988
1182,0.83,36.699,5.741,27.087,29.207,7.042,5.933,4.988
1183,0.81,36.786,5.729,27.078,29.2,7.001,5.77,5.07
1184,0.816,36.854,5.729,27.078,29.2,7.041,5.809,5.03
1185,0.81,36.577,5.737,27.107,29.197,7.042,5.891,5.03
1186,0.807,36.708,5.745,27.107,29.207,7.042,5.892,5.03
1187,0.81,36.815,5.729,27.068,29.2,6.92,5.77,4.948
1188,0.807,36.855,5.744,27.087,29.2,6.919,5.85,5.069
1189,0.807,36.5,5.749,27.107,29.207,7.041,5.891,5.03
1190,0.803,36.631,5.721,27.097,29.2,7.001,5.811,5.03
1191,0.803,36.7,5.725,27.068,29.197,6.96,5.769,4.989
1192,0.797,36.844,5.713,27.078,29.197,6.96,5.809,5.029
1193,0.813,36.548,5.733,27.097,29.207,7.0,5.891,5.07
1194,0.816,36.699,5.752,27.126,29.211,7.041,5.892,5.111
1195,0.803,36.758,5.729,27.088,29.204,6.92,5.77,4.989
1196,0.794,36.365,5.721,27.078,29.2,6.878,5.647,4.907
1197,0.797,36.409,5.725,27.087,29.207,7.0,5.849,5.109
1198,0.794,36.534,5.729,27.116,29.204,7.001,5.81,5.152
1199,0.8,36.631,5.725,27.088,29.204,6.96,5.769,4.99
1200,0.794,36.287,5.741,27.097,29.204,6.919,5.809,4.948
1201,0.8,36.437,5.729,27.097,29.214,6.878,5.85,4.988
1202,0.79,36.515,5.717,27.068,29.204,6.877,5.769,4.988
1203,0.793,36.612,5.733,27.087,29.204,6.918,5.768,4.988
1204,0.8,36.306,5.748,27.097,29.204,7.041,5.85,5.029
1205,0.794,36.437,5.733,27.078,29.204,6.879,5.769,5.07
1206,0.784,36.525,5.729,27.068,29.193,6.877,5.809,4.948
1207,0.797,36.612,5.737,27.097,29.207,7.0,5.769,5.029
1208,0.797,36.268,5.725,27.097,29.214,6.96,5.85,5.111
1209,0.794,36.427,5.744,27.107,29.204,6.96,5.81,4.989
1210,0.787,36.506,5.729,27.088,29.204,6.919,5.728,4.988
1211,0.784,36.545,5.733,27.078,29.197,6.878,5.727,5.07
1212,0.8,36.267,5.725,27.107,29.207,7.0,5.85,5.07
1213,0.813,36.427,5.76,27.126,29.214,7.041,5.891,5.07
1214,0.794,36.487,5.733,27.088,29.197,7.001,5.729,4.989
1215,0.787,36.506,5.725,27.059,29.193,6.879,5.727,4.948
1216,0.8,36.19,5.733,27.097,29.207,7.04,5.768,5.029
1217,0.8,36.331,5.745,27.116,29.211,7.123,5.972,5.192
1218,0.8,36.418,5.737,27.088,29.2,7.083,5.771,4.95
1219,0.79,36.227,5.729,27.107,29.2,7.042,5.728,4.988
1220,0.78,36.197,5.729,27.097,29.2,7.082,5.809,5.07
1221,0.784,36.312,5.729,27.097,29.204,7.164,5.891,5.07
1222,0.79,36.409,5.737,27.078,29.204,7.124,5.811,4.989
1223,0.787,36.064,5.725,27.097,29.207,7.165,5.891,5.07
1224,0.79,36.166,5.737,27.097,29.207,7.206,5.851,5.03
1225,0.793,36.254,5.733,27.059,29.2,7.125,5.81,4.948
1226,0.79,36.37,5.709,27.097,29.2,7.165,5.81,4.988
1227,0.79,36.016,5.729,27.107,29.211,7.165,5.891,5.11
1228,0.8,36.156,5.725,27.097,29.207,7.165,5.892,5.03
1229,0.8,36.254,5.721,27.078,29.197,7.084,5.77,4.989
1230,0.797,36.322,5.713,27.087,29.204,7.083,5.809,4.988
1231,0.807,36.131,5.729,27.107,29.204,7.123,5.932,5.029
1232,0.81,36.301,5.741,27.136,29.211,7.246,5.974,5.07
1233,0.8,36.38,5.725,27.078,29.204,7.044,5.73,5.07
1234,0.794,36.419,5.733,27.068,29.19,6.96,5.768,4.989
1235,0.806,35.93,5.745,27.097,29.203,7.204,5.891,5.07
1236,0.81,36.117,5.764,27.126,29.217,7.287,6.054,5.152
1237,0.797,36.205,5.745,27.097,29.2,7.125,5.893,4.99
1238,0.807,36.216,5.733,27.078,29.204,7.083,5.77,4.907
1239,0.794,36.043,5.733,27.087,29.211,7.205,5.972,5.028
1240,0.793,36.176,5.737,27.097,29.204,7.206,5.974,5.07
1241,0.79,36.283,5.721,27.097,29.204,7.165,5.974,5.03
1242,0.8,36.341,5.729,27.088,29.207,7.287,6.096,5.03
1243,0.8,35.977,5.737,27.068,29.204,7.288,6.138,4.907
1244,0.8,36.089,5.729,27.087,29.197,7.247,6.219,4.906
1245,0.826,36.195,5.737,27.087,29.204,7.328,6.261,4.987
1246,0.843,35.842,5.745,27.107,29.207,7.451,6.465,5.07
1247,0.856,35.915,5.745,27.097,29.207,7.452,6.548,5.03
1248,0.879,36.011,5.737,27.068,29.193,7.493,6.468,4.948
1249,0.902,36.118,5.717,27.097,29.207,7.494,6.629,5.029
1250,0.938,35.927,5.729,27.097,29.211,7.656,6.875,5.07
1251,0.971,36.05,5.729,27.097,29.204,7.658,6.959,5.03
1252,0.987,36.166,5.721,27.078,29.2,7.576,6.838,4.989
1253,1.007,36.225,5.744,27.068,29.197,7.575,6.918,5.029
1254,1.036,35.775,5.737,27.097,29.204,7.616,7.081,5.111
1255,1.066,35.933,5.748,27.126,29.207,7.739,7.123,5.152
1256,1.063,36.012,5.71,27.088,29.197,7.618,7.002,4.99
1257,1.089,36.06,5.733,27.068,29.19,7.495,6.919,5.029
1258,1.115,35.716,5.733,27.097,29.207,7.697,7.081,5.03
1259,1.141,35.875,5.737,27.107,29.218,7.699,7.327,5.151
1260,1.138,35.954,5.721,27.088,29.204,7.658,7.085,4.99
1261,1.129,36.012,5.744,27.087,29.207,7.576,7.164,5.029
1262,1.142,35.744,5.729,27.078,29.2,7.616,7.206,5.03
1263,1.151,35.875,5.725,27.068,29.204,7.535,7.165,4.989
1264,1.168,36.011,5.737,27.078,29.204,7.616,7.206,5.029
1265,1.145,36.032,5.733,27.107,29.207,7.698,7.287,5.111
1266,1.112,35.792,5.733,27.097,29.2,7.618,7.288,5.071
1267,1.089,35.914,5.745,27.078,29.2,7.617,7.166,4.989
1268,1.05,36.021,5.745,27.097,29.2,7.617,7.287,5.029
1269,1.02,35.763,5.741,27.097,29.204,7.657,7.369,5.07
1270,0.958,35.741,5.733,27.088,29.214,7.617,7.289,5.03
1271,0.896,35.837,5.725,27.078,29.2,7.617,7.207,5.03
1272,0.837,35.915,5.721,27.078,29.193,7.576,7.247,4.989
1273,0.768,35.628,5.733,27.107,29.203,7.616,7.288,5.07
1274,0.699,35.769,5.745,27.126,29.221,7.657,7.369,5.07
1275,0.623,35.837,5.733,27.078,29.197,7.617,7.248,4.948
1276,0.545,35.924,5.725,27.059,29.197,7.495,7.206,4.907
1277,0.475,35.59,5.729,27.087,29.21,7.616,7.287,5.109
1278,0.397,35.74,5.733,27.116,29.214,7.739,7.41,5.152
1279,0.347,35.837,5.709,27.097,29.197,7.577,7.249,5.031
1280,0.308,35.924,5.729,27.088,29.207,7.657,7.206,5.03
1281,0.284,35.599,5.748,27.087,29.207,7.698,7.206,5.03
1282,0.235,35.721,5.725,27.068,29.2,7.658,7.165,4.989
1283,0.17,35.856,5.737,27.068,29.2,7.698,7.165,5.07
1284,0.133,35.915,5.745,27.106,29.211,7.74,7.287,5.152
1285,0.107,35.551,5.737,27.097,29.2,7.74,7.207,5.071
1286,0.1,35.691,5.721,27.068,29.193,7.618,7.084,5.07
1287,0.064,35.808,5.733,27.097,29.203,7.698,7.123,5.07
1288,0.045,35.857,5.745,27.097,29.211,7.699,7.205,5.193
1289,0.035,35.637,5.737,27.078,29.204,7.658,7.165,5.153
1290,0.009,35.731,5.729,27.059,29.193,7.617,7.043,5.031
1291,0.012,35.818,5.725,27.078,29.193,7.576,7.042,5.111
1292,0.051,35.857,5.741,27.107,29.21,7.535,7.123,5.152
1293,0.11,35.493,5.752,27.126,29.218,7.657,7.205,5.193
1294,0.13,35.585,5.725,27.078,29.2,7.455,7.043,5.072
1295,0.172,35.673,5.725,27.049,29.197,7.371,6.92,5.03
1296,0.254,35.51,5.741,27.087,29.207,7.452,6.959,5.07
1297,0.281,35.614,5.745,27.107,29.207,7.493,7.122,5.314
1298,0.32,35.721,5.741,27.078,29.2,7.494,6.961,5.114
1299,0.369,35.837,5.745,27.078,29.204,7.453,6.919,5.152
1300,0.402,35.244,5.737,27.078,29.207,7.371,6.878,5.153
1301,0.429,35.372,5.729,27.059,29.2,7.289,6.837,5.153
1302,0.471,35.488,5.744,27.097,29.204,7.369,6.918,5.193
1303,0.501,35.585,5.733,27.088,29.214,7.411,6.959,5.275
1304,0.517,35.347,5.729,27.078,29.211,7.33,6.919,5.154
1305,0.547,35.507,5.725,27.078,29.197,7.37,6.837,5.153
1306,0.58,35.624,5.729,27.087,29.207,7.37,6.877,5.193
1307,0.619,35.702,5.729,27.087,29.211,7.411,6.877,5.275
1308,0.649,35.338,5.733,27.087,29.204,7.33,6.796,5.235
1309,0.672,35.43,5.725,27.078,29.207,7.37,6.673,5.194
1310,0.682,35.546,5.729,27.049,29.193,7.248,6.713,5.153
1311,0.724,35.634,5.729,27.106,29.203,7.328,6.794,5.315
1312,0.75,35.405,5.748,27.126,29.214,7.492,6.836,5.398
1313,0.741,35.498,5.725,27.078,29.19,7.29,6.674,5.236
1314,0.747,35.614,5.733,27.059,29.197,7.288,6.631,5.194
1315,0.773,35.634,5.737,27.097,29.21,7.41,6.753,5.316
1316,0.79,35.337,5.745,27.097,29.207,7.371,6.795,5.317
1317,0.803,35.459,5.733,27.078,29.204,7.289,6.673,5.236
1318,0.816,35.585,5.741,27.087,29.204,7.329,6.713,5.316
1319,0.816,35.404,5.729,27.087,29.2,7.329,6.632,5.236
1320,0.826,35.393,5.737,27.078,29.197,7.248,6.672,5.235
1321,0.836,35.536,5.737,27.087,29.204,7.288,6.55,5.194
1322,0.849,35.624,5.745,27.097,29.204,7.329,6.712,5.275
1323,0.846,35.241,5.737,27.097,29.207,7.329,6.632,5.195
1324,0.846,35.324,5.729,27.078,29.2,7.289,6.55,5.194
1325,0.846,35.459,5.737,27.078,29.204,7.369,6.59,5.153
1326,0.862,35.575,5.725,27.116,29.211,7.492,6.671,5.234
1327,0.875,35.203,5.741,27.097,29.207,7.494,6.591,5.235
1328,0.863,35.333,5.725,27.088,29.197,7.453,6.468,5.194
1329,0.859,35.44,5.729,27.068,29.193,7.452,6.507,5.316
1330,0.866,35.556,5.737,27.087,29.203,7.696,6.549,5.358
1331,0.879,35.164,5.748,27.126,29.217,7.821,6.63,5.439
1332,0.872,35.266,5.721,27.069,29.197,7.741,6.468,5.196
1333,0.879,35.382,5.725,27.078,29.197,7.618,6.386,5.153
1334,0.872,35.431,5.741,27.107,29.2,7.82,6.507,5.356
1335,0.876,35.172,5.748,27.088,29.207,7.863,6.508,5.317
1336,0.866,35.314,5.749,27.068,29.204,7.741,6.386,5.317
1337,0.879,35.44,5.737,27.087,29.2,7.862,6.466,5.236
1338,0.876,35.46,5.737,27.087,29.204,7.822,6.426,5.275
1339,0.879,35.096,5.721,27.078,29.197,7.781,6.304,5.195
1340,0.879,35.246,5.737,27.087,29.197,7.822,6.343,5.234
1341,0.879,35.362,5.745,27.087,29.207,7.863,6.466,5.316
1342,0.872,35.354,5.749,27.087,29.204,7.822,6.426,5.236
1343,0.866,35.018,5.721,27.068,29.197,7.781,6.344,5.194
1344,0.876,35.159,5.717,27.078,29.193,7.74,6.343,5.234
1345,0.876,35.275,5.748,27.087,29.203,7.821,6.384,5.316
1346,0.889,35.085,5.741,27.116,29.211,7.781,6.344,5.317
1347,0.872,35.14,5.725,27.088,29.2,7.659,6.262,5.236
1348,0.879,35.237,5.737,27.059,29.197,7.617,6.18,5.194
1349,0.885,35.343,5.741,27.097,29.2,7.617,6.342,5.275
1350,0.892,34.98,5.745,27.126,29.214,7.82,6.506,5.438
1351,0.889,35.072,5.745,27.078,29.197,7.659,6.264,5.237
1352,0.879,35.198,5.752,27.087,29.197,7.495,6.262,5.153
1353,0.898,35.314,5.741,27.097,29.207,7.494,6.262,5.275
1354,0.886,34.979,5.733,27.097,29.204,7.575,6.384,5.398
1355,0.885,35.11,5.729,27.078,29.2,7.454,6.181,5.236
1356,0.892,35.236,5.744,27.087,29.207,7.412,6.261,5.235
1357,0.902,35.314,5.733,27.087,29.2,7.411,6.221,5.316
1358,0.892,34.903,5.729,27.087,29.204,7.371,6.18,5.236
1359,0.886,35.09,5.744,27.068,29.2,7.37,6.179,5.235
1360,0.889,35.207,5.749,27.106,29.207,7.411,6.261,5.316
1361,0.885,35.237,5.745,27.078,29.2,7.289,6.221,5.236
1362,0.895,34.902,5.725,27.068,29.2,7.247,6.139,5.153
1363,0.899,35.042,5.729,27.087,29.207,7.369,6.098,5.234
1364,0.899,35.169,5.752,27.097,29.214,7.33,6.178,5.275
1365,0.905,35.189,5.749,27.088,29.207,7.289,6.098,5.276
1366,0.892,34.777,5.729,27.078,29.2,7.166,6.016,5.113
1367,0.892,34.897,5.737,27.078,29.2,7.206,6.137,5.315
1368,0.902,35.033,5.733,27.097,29.204,7.287,6.179,5.236
1369,0.921,34.929,5.748,27.107,29.211,7.329,6.179,5.275
1370,0.899,34.889,5.745,27.059,29.197,7.126,6.057,5.113
1371,0.889,35.014,5.713,27.068,29.193,7.083,5.975,5.152
1372,0.905,35.13,5.733,27.097,29.207,7.245,6.096,5.315
1373,0.915,34.671,5.733,27.116,29.214,7.369,6.219,5.398
1374,0.902,34.781,5.729,27.097,29.204,7.126,6.139,5.196
1375,0.905,34.917,5.737,27.088,29.2,7.124,6.016,5.153
1376,0.905,35.004,5.733,27.078,29.207,7.205,6.178,5.193
1377,0.899,34.708,5.745,27.078,29.211,7.165,6.139,5.356
1378,0.899,34.849,5.729,27.087,29.207,7.124,6.098,5.236
1379,0.895,34.984,5.737,27.087,29.204,7.124,6.178,5.316
1380,0.899,35.043,5.737,27.087,29.204,7.002,6.139,5.236
1381,0.899,34.679,5.721,27.059,29.204,7.041,6.057,5.194
1382,0.902,34.839,5.725,27.097,29.2,7.042,6.097,5.153
1383,0.908,34.965,5.741,27.078,29.211,7.042,6.138,5.234
1384,0.908,34.986,5.752,27.097,29.204,7.001,6.057,5.235
1385,0.895,34.497,5.717,27.068,29.204,6.919,6.015,5.153
1386,0.902,34.655,5.737,27.078,29.204,7.0,6.056,5.234
1387,0.918,34.8,5.733,27.097,29.204,6.919,6.137,5.316
1388,0.928,34.84,5.741,27.078,29.204,6.878,6.098,5.236
1389,0.918,34.725,5.725,27.078,29.2,6.796,6.016,5.194
1390,0.905,34.859,5.725,27.078,29.197,6.836,6.096,5.153
1391,0.918,34.984,5.733,27.107,29.204,6.877,6.178,5.275
1392,0.925,34.967,5.745,27.126,29.211,6.918,6.139,5.316
1393,0.912,34.602,5.733,27.088,29.2,6.756,6.016,5.154
1394,0.895,34.704,5.729,27.068,29.19,6.714,5.974,5.071
1395,0.912,34.82,5.717,27.087,29.207,6.794,6.055,5.274
1396,0.922,34.505,5.725,27.107,29.211,6.958,6.137,5.316
1397,0.912,34.578,5.721,27.078,29.2,6.756,5.976,5.154
1398,0.918,34.723,5.729,27.097,29.204,6.836,6.015,5.193
1399,0.925,34.82,5.729,27.068,29.204,6.877,6.056,5.275
1400,0.915,34.466,5.729,27.068,29.204,6.796,5.893,5.154
1401,0.922,34.616,5.729,27.078,29.197,6.877,6.014,5.193
1402,0.912,34.742,5.725,27.087,29.207,6.918,6.056,5.234
1403,0.918,34.82,5.744,27.068,29.204,6.878,6.015,5.153
1404,0.915,34.438,5.729,27.049,29.2,6.837,5.893,5.153
1405,0.931,34.578,5.721,27.077,29.197,6.918,5.973,5.234
1406,0.925,34.723,5.74,27.078,29.207,7.0,6.055,5.235
1407,0.935,34.82,5.737,27.087,29.207,7.001,5.975,5.153
1408,0.918,34.399,5.729,27.059,29.197,6.879,5.933,5.153
1409,0.918,34.539,5.721,27.049,29.193,6.877,5.974,5.234
1410,0.931,34.684,5.74,27.106,29.207,6.959,6.015,5.235
1411,0.938,34.762,5.745,27.116,29.218,7.041,6.096,5.316
1412,0.919,34.37,5.729,27.078,29.2,6.92,5.975,5.195
1413,0.925,34.519,5.725,27.068,29.193,6.796,5.811,5.072
1414,0.938,34.655,5.725,27.078,29.21,6.958,6.054,5.152
1415,0.941,34.656,5.737,27.107,29.211,7.0,6.137,5.275
1416,0.941,34.388,5.733,27.068,29.2,6.919,5.894,5.195
1417,0.941,34.519,5.741,27.087,29.204,7.0,5.973,5.275
1418,0.935,34.626,5.729,27.087,29.204,6.96,5.974,5.195
1419,0.941,34.292,5.741,27.078,29.2,6.797,5.933,5.153
1420,0.938,34.269,5.741,27.087,29.204,6.877,5.933,5.153
1421,0.945,34.432,5.737,27.087,29.207,6.959,6.014,5.193
1422,0.938,34.51,5.745,27.068,29.204,6.919,5.974,5.072
1423,0.925,34.233,5.733,27.049,29.193,6.837,5.893,5.111
1424,0.931,34.355,5.733,27.068,29.197,6.877,5.973,5.193
1425,0.944,34.519,5.733,27.087,29.2,6.918,5.974,5.275
1426,0.945,34.617,5.741,27.097,29.204,6.959,5.974,5.195
1427,0.945,34.196,5.737,27.059,29.2,6.919,5.893,5.112
1428,0.938,34.335,5.717,27.049,29.197,6.796,5.851,5.152
1429,0.948,34.5,5.748,27.097,29.21,6.958,5.973,5.193
1430,0.954,34.569,5.756,27.107,29.221,7.082,6.055,5.275
1431,0.945,34.138,5.733,27.078,29.204,6.839,5.975,5.195
1432,0.945,34.325,5.733,27.087,29.193,6.918,5.893,5.153
1433,0.948,34.433,5.748,27.087,29.207,6.959,6.014,5.234
1434,0.941,34.491,5.737,27.087,29.207,6.96,6.056,5.235
1435,0.948,34.166,5.733,27.087,29.204,6.919,5.975,5.194
1436,0.951,34.325,5.748,27.087,29.207,7.041,5.974,5.234
1437,0.945,34.442,5.737,27.097,29.204,7.042,6.015,5.235
1438,0.941,34.443,5.717,27.078,29.204,7.001,5.934,5.194
1439,0.948,34.184,5.717,27.078,29.2,7.001,5.933,5.194
1440,0.948,34.345,5.725,27.097,29.207,7.041,6.055,5.234
1441,0.945,34.433,5.717,27.078,29.207,6.96,6.015,5.113
1442,0.941,34.395,5.721,27.049,29.193,7.0,5.893,5.071
1443,0.938,34.136,5.721,27.058,29.2,7.163,5.933,5.152
1444,0.954,34.277,5.733,27.078,29.204,7.206,5.974,5.193
1445,0.967,34.403,5.733,27.097,29.207,7.165,6.015,5.153
1446,0.948,33.992,5.705,27.078,29.197,7.084,5.852,5.071
1447,0.951,34.036,5.721,27.049,29.197,7.123,5.851,5.111
1448,0.961,34.209,5.744,27.068,29.204,7.287,5.973,5.234
1449,0.968,34.336,5.733,27.126,29.217,7.369,6.055,5.357
1450,0.958,34.097,5.709,27.069,29.207,7.248,5.893,5.073
1451,0.954,34.248,5.721,27.068,29.197,7.206,5.973,5.111
1452,0.958,34.384,5.721,27.087,29.21,7.328,5.974,5.152
1453,0.964,34.472,5.725,27.107,29.218,7.451,6.137,5.315
1454,0.958,34.137,5.744,27.068,29.2,7.33,6.057,5.154
1455,0.974,34.287,5.749,27.068,29.204,7.289,6.015,5.112
1456,0.964,34.384,5.745,27.068,29.204,7.369,6.096,5.152
1457,0.958,34.443,5.733,27.097,29.204,7.37,6.056,5.193
1458,0.961,34.136,5.725,27.088,29.204,7.289,6.056,5.194
1459,0.971,34.296,5.744,27.097,29.207,7.369,6.097,5.194
1460,0.968,34.394,5.745,27.088,29.2,7.33,6.138,5.153
1461,0.951,34.433,5.729,27.068,29.197,7.248,6.016,5.112
1462,0.958,34.28,5.721,27.087,29.2,7.247,6.096,5.152
1463,0.968,34.403,5.74,27.087,29.204,7.369,6.138,5.153
1464,0.971,34.51,5.717,27.087,29.2,7.289,6.179,5.193
1465,0.958,34.511,5.721,27.068,29.197,7.207,6.139,5.072
1466,0.954,34.377,5.698,27.078,29.2,7.287,6.098,5.07
1467,0.967,34.539,5.721,27.097,29.204,7.329,6.219,5.193
1468,0.987,34.665,5.733,27.097,29.214,7.289,6.22,5.234
1469,0.965,34.484,5.721,27.068,29.2,7.247,6.139,5.113
1470,0.961,34.511,5.705,27.049,29.197,7.206,6.057,4.989
1471,0.971,34.674,5.725,27.097,29.204,7.287,6.137,5.232
1472,0.981,34.762,5.741,27.116,29.214,7.41,6.26,5.316
1473,0.977,34.667,5.741,27.088,29.204,7.208,6.18,5.154
1474,0.977,34.82,5.733,27.078,29.2,7.206,6.179,5.153
1475,0.984,34.946,5.733,27.087,29.207,7.287,6.22,5.153
1476,0.974,35.014,5.737,27.087,29.204,7.207,6.22,5.234
1477,0.981,34.775,5.737,27.068,29.197,7.206,6.139,5.072
1478,0.981,34.945,5.748,27.087,29.197,7.287,6.179,5.152
1479,0.984,35.062,5.733,27.087,29.207,7.288,6.22,5.112
1480,0.978,35.102,5.721,27.078,29.197,7.166,6.058,5.152
1481,0.977,35.016,5.729,27.068,29.193,7.206,6.178,5.153
1482,0.981,35.168,5.741,27.106,29.21,7.287,6.22,5.112
1483,0.977,35.275,5.745,27.097,29.204,7.166,6.098,5.193
1484,0.964,35.315,5.729,27.068,29.2,7.124,6.056,5.072
1485,0.971,35.411,5.733,27.087,29.204,7.246,6.219,5.111
1486,0.977,35.585,5.741,27.078,29.211,7.247,6.22,5.152
1487,0.99,35.701,5.729,27.087,29.204,7.288,6.261,5.153
1488,0.978,35.702,5.721,27.087,29.193,7.207,6.18,5.071
1489,0.964,35.607,5.721,27.049,29.197,7.206,6.261,5.07
1490,0.974,35.778,5.748,27.106,29.214,7.328,6.384,5.07
1491,0.99,35.895,5.745,27.136,29.218,7.492,6.507,5.355
1492,0.984,36.117,5.721,27.069,29.2,7.29,6.427,5.155
1493,0.978,36.186,5.721,27.078,29.2,7.247,6.426,5.071
1494,0.981,36.311,5.744,27.097,29.2,7.328,6.548,5.233
1495,0.981,36.399,5.721,27.097,29.211,7.451,6.549,5.235
1496,0.984,36.266,5.713,27.088,29.204,7.33,6.508,5.072
1497,0.984,36.351,5.729,27.107,29.204,7.37,6.508,5.193
1498,0.978,36.467,5.733,27.107,29.204,7.37,6.63,5.153
1499,0.984,36.535,5.741,27.088,29.2,7.289,6.631,5.112
1500,0.978,36.535,5.745,27.068,29.2,7.369,6.672,5.152
1501,0.981,36.679,5.729,27.087,29.204,7.37,6.713,5.112
1502,0.981,36.786,5.725,27.087,29.204,7.33,6.591,5.112
1503,0.977,36.835,5.729,27.059,29.193,7.207,6.631,5.03
1504,0.977,36.98,5.717,27.078,29.203,7.328,6.712,5.151
1505,0.981,37.115,5.725,27.087,29.211,7.329,6.794,5.112
1506,0.991,37.26,5.741,27.097,29.211,7.37,6.795,5.193
1507,0.978,37.252,5.737,27.068,29.2,7.289,6.673,5.072
1508,0.981,37.156,5.733,27.058,29.197,7.207,6.631,5.03
1509,0.991,37.318,5.745,27.087,29.207,7.491,6.794,5.07
1510,0.997,37.464,5.752,27.116,29.218,7.534,6.877,5.314
1511,0.984,37.437,5.733,27.088,29.2,7.412,6.796,5.114
1512,0.984,37.561,5.733,27.087,29.197,7.371,6.714,5.03
1513,0.981,37.706,5.733,27.097,29.207,7.533,6.835,5.192
1514,0.984,37.775,5.721,27.088,29.204,7.494,6.837,5.153
1515,0.981,37.794,5.733,27.078,29.2,7.494,6.796,5.071
1516,0.984,37.891,5.729,27.087,29.207,7.494,6.877,5.152
1517,0.987,37.997,5.729,27.087,29.207,7.534,6.877,5.193
1518,0.971,38.075,5.729,27.068,29.204,7.453,6.837,5.112
1519,0.984,38.133,5.741,27.087,29.204,7.493,6.837,5.152
1520,0.981,38.22,5.748,27.087,29.207,7.534,6.877,5.153
1521,0.981,38.326,5.749,27.078,29.204,7.453,6.837,5.071
1522,0.974,38.375,5.741,27.059,29.2,7.412,6.796,5.07
1523,0.984,38.213,5.748,27.087,29.211,7.452,6.836,5.07
1524,0.984,38.355,5.725,27.097,29.211,7.452,6.918,5.152
1525,0.991,38.462,5.729,27.088,29.207,7.412,6.878,5.153
1526,0.981,38.521,5.729,27.059,29.197,7.371,6.796,5.071
1527,0.984,38.655,5.737,27.068,29.197,7.289,6.795,5.152
1528,0.991,38.82,5.729,27.106,29.204,7.369,6.877,5.153
1529,1.007,38.956,5.737,27.116,29.214,7.452,6.837,5.234
1530,0.994,38.967,5.729,27.078,29.197,7.249,6.755,5.032
1531,0.987,38.65,5.717,27.068,29.197,7.166,6.673,5.03
1532,0.997,38.8,5.744,27.087,29.207,7.206,6.794,5.111
1533,0.997,38.907,5.76,27.097,29.211,7.369,6.917,5.234
1534,1.0,38.937,5.733,27.068,29.2,7.086,6.796,5.072
1535,1.004,38.986,5.733,27.097,29.197,7.164,6.755,5.111
1536,0.997,39.12,5.725,27.097,29.207,7.165,6.795,5.152
1537,0.997,39.198,5.709,27.078,29.204,7.084,6.755,5.153
1538,0.997,39.209,5.729,27.078,29.2,7.083,6.714,5.112
1539,1.004,39.151,5.733,27.087,29.207,7.205,6.713,5.193
1540,0.984,39.275,5.748,27.078,29.207,7.084,6.672,5.153
1541,0.987,39.325,5.741,27.059,29.2,6.961,6.672,4.99
1542,0.991,39.363,5.725,27.078,29.204,7.082,6.672,5.151
1543,1.007,39.22,5.729,27.087,29.211,7.002,6.753,5.153
1544,0.994,39.343,5.725,27.078,29.2,7.041,6.632,5.153
1545,0.987,39.392,5.729,27.068,29.2,6.96,6.631,5.071
1546,0.994,39.326,5.721,27.068,29.197,6.919,6.631,5.152
1547,1.004,39.469,5.721,27.087,29.207,7.0,6.672,5.153
1548,1.017,39.585,5.744,27.107,29.207,6.96,6.631,5.153
1549,1.004,39.625,5.733,27.088,29.197,6.878,6.631,5.031
1550,0.997,39.462,5.725,27.059,29.19,6.796,6.509,5.111
1551,1.004,39.624,5.756,27.087,29.197,6.877,6.67,5.152
1552,1.014,39.76,5.756,27.135,29.221,6.959,6.713,5.275
1553,1.004,39.761,5.729,27.078,29.2,6.756,6.469,5.113
1554,1.004,39.435,5.737,27.068,29.19,6.714,6.426,4.949
1555,1.004,39.604,5.733,27.087,29.203,6.713,6.548,5.232
1556,0.997,39.702,5.729,27.107,29.207,6.794,6.671,5.235
1557,0.991,39.732,5.725,27.078,29.197,6.795,6.509,5.072
1558,1.007,39.617,5.737,27.087,29.2,6.673,6.508,5.07
1559,0.997,39.74,5.733,27.087,29.207,6.713,6.467,5.193
1560,1.0,39.828,5.733,27.078,29.2,6.713,6.426,5.153
1561,1.0,39.848,5.76,27.068,29.2,6.632,6.466,5.071
1562,1.007,39.704,5.741,27.087,29.211,6.753,6.507,5.152
1563,1.001,39.799,5.741,27.087,29.204,6.673,6.427,5.112
1564,0.994,39.886,5.733,27.068,29.2,6.55,6.385,5.03
1565,0.991,39.925,5.745,27.087,29.2,6.59,6.425,5.03
1566,0.997,39.753,5.745,27.097,29.207,6.631,6.466,5.151
1567,1.004,39.876,5.752,27.078,29.211,6.631,6.386,5.112
1568,0.991,39.944,5.745,27.068,29.2,6.55,6.344,5.03
1569,0.991,39.724,5.745,27.058,29.197,6.508,6.343,5.111
1570,1.01,39.761,5.741,27.087,29.21,6.549,6.466,5.112
1571,1.004,39.914,5.729,27.107,29.221,6.712,6.467,5.193
1572,0.994,39.945,5.737,27.068,29.2,6.469,6.304,5.112
1573,1.004,39.696,5.733,27.068,29.197,6.467,6.221,5.112
1574,0.994,39.827,5.733,27.106,29.204,6.548,6.383,5.112
1575,1.004,39.944,5.733,27.097,29.214,6.63,6.385,5.274
1576,0.997,40.002,5.721,27.088,29.207,6.509,6.263,5.113
1577,0.978,39.878,5.721,27.087,29.2,6.508,6.302,5.03
1578,0.971,39.992,5.721,27.087,29.207,6.508,6.302,5.111
1579,0.968,40.07,5.725,27.078,29.197,6.467,6.18,5.112
1580,0.974,40.138,5.733,27.097,29.204,6.507,6.261,5.112
1581,0.971,39.813,5.729,27.097,29.207,6.589,6.343,5.112
1582,0.964,39.924,5.717,27.078,29.204,6.509,6.181,5.152
1583,0.964,40.041,5.725,27.068,29.197,6.386,6.179,5.031
1584,0.964,40.08,5.737,27.087,29.204,6.425,6.139,5.03
1585,0.971,39.85,5.745,27.087,29.207,6.507,6.301,5.192
1586,0.964,39.992,5.737,27.087,29.204,6.549,6.14,5.112
1587,0.951,40.06,5.725,27.059,29.2,6.468,6.098,4.989
1588,0.951,40.052,5.721,27.058,29.2,6.386,6.056,5.07
1589,0.967,39.917,5.733,27.097,29.204,6.466,6.178,5.193
1590,0.968,40.069,5.741,27.116,29.214,6.67,6.301,5.153
1591,0.958,40.109,5.745,27.078,29.2,6.388,6.058,5.112
1592,0.958,40.1,5.737,27.059,29.186,6.385,5.975,4.989
1593,0.961,39.946,5.725,27.097,29.203,6.507,6.137,5.11
1594,0.951,40.06,5.744,27.097,29.214,6.589,6.219,5.193
1595,0.935,40.147,5.729,27.088,29.197,6.387,6.058,5.031
1596,0.938,39.947,5.729,27.087,29.204,6.466,6.137,5.111
1597,0.925,40.041,5.725,27.087,29.2,6.467,6.138,5.112
1598,0.925,40.128,5.733,27.068,29.197,6.548,6.016,5.071
1599,0.931,40.215,5.737,27.087,29.2,6.549,6.015,5.111
1600,0.935,39.881,5.752,27.087,29.211,6.671,6.096,5.152
1601,0.922,40.002,5.729,27.087,29.197,6.713,6.056,5.071
1602,0.915,40.089,5.725,27.068,29.197,6.713,6.056,5.07
1603,0.918,40.157,5.733,27.068,29.204,6.754,6.015,5.07
1604,0.922,39.909,5.725,27.087,29.204,6.795,6.137,5.193
1605,0.925,40.04,5.737,27.087,29.207,6.877,6.138,5.072
1606,0.909,40.138,5.721,27.049,29.197,6.837,6.016,5.111
1607,0.902,40.167,5.729,27.058,29.2,6.877,6.015,5.112
1608,0.918,40.081,5.737,27.087,29.204,7.04,6.096,5.152
1609,0.922,40.234,5.752,27.097,29.214,7.082,6.097,5.193
1610,0.899,40.303,5.725,27.059,29.193,7.002,6.016,5.031
1611,0.899,40.303,5.733,27.058,29.193,6.919,5.934,4.989
1612,0.902,40.14,5.741,27.097,29.203,7.041,6.055,5.151
1613,0.908,40.263,5.752,27.116,29.221,7.164,6.137,5.275
1614,0.905,40.332,5.721,27.069,29.207,7.084,6.016,5.073
1615,0.905,40.515,5.737,27.087,29.204,7.083,5.974,5.152
1616,0.889,40.171,5.737,27.087,29.204,7.123,6.055,5.071
1617,0.876,40.273,5.733,27.087,29.204,7.083,6.056,5.152
1618,0.882,40.361,5.741,27.068,29.197,7.123,5.975,5.071
1619,0.892,40.275,5.752,27.087,29.207,7.205,6.055,5.152
1620,0.886,40.313,5.741,27.087,29.204,7.206,5.934,5.153
1621,0.856,40.38,5.725,27.068,29.2,7.084,5.933,5.071
1622,0.885,40.467,5.717,27.087,29.2,7.123,5.974,5.111
1623,0.882,40.056,5.744,27.078,29.207,7.165,5.974,5.152
1624,0.872,40.157,5.729,27.068,29.204,7.246,5.893,5.153
1625,0.872,40.254,5.729,27.068,29.204,7.125,5.892,5.071
1626,0.879,40.322,5.733,27.068,29.204,7.205,5.973,5.111
1627,0.872,40.188,5.733,27.087,29.207,7.247,5.974,5.152
1628,0.872,40.312,5.733,27.087,29.204,7.206,6.015,5.112
1629,0.866,40.399,5.752,27.087,29.204,7.125,5.893,5.112
1630,0.869,40.439,5.721,27.068,29.197,7.165,5.973,5.071
1631,0.882,40.257,5.737,27.116,29.207,7.246,6.015,5.111
1632,0.882,40.408,5.76,27.126,29.214,7.288,6.015,5.152
1633,0.866,40.467,5.733,27.069,29.2,7.125,5.974,5.153
1634,0.872,40.506,5.733,27.078,29.197,7.002,5.893,4.949
1635,0.892,40.19,5.737,27.087,29.2,7.163,5.973,5.11
1636,0.892,40.321,5.745,27.126,29.217,7.246,6.137,5.193
1637,0.879,40.38,5.717,27.078,29.2,7.125,5.976,4.99
1638,0.879,40.4,5.733,27.068,29.197,7.124,5.933,5.029
1639,0.879,40.295,5.733,27.097,29.207,7.124,6.055,5.07
1640,0.872,40.428,5.721,27.088,29.207,7.124,6.056,5.152
1641,0.879,40.506,5.729,27.059,29.204,7.124,6.015,5.031
1642,0.876,40.43,5.733,27.087,29.211,7.124,6.015,5.111
1643,0.872,40.266,5.713,27.078,29.2,7.083,6.015,4.989
1644,0.866,40.37,5.705,27.068,29.197,7.083,5.934,5.07
1645,0.869,40.457,5.736,27.078,29.207,7.123,5.974,5.111
1646,0.879,40.238,5.745,27.078,29.211,7.083,6.015,5.193
1647,0.876,40.331,5.737,27.087,29.207,7.123,5.974,5.112
1648,0.872,40.428,5.733,27.068,29.197,7.083,5.893,5.03
1649,0.876,40.516,5.725,27.058,29.204,7.083,5.933,5.111
1650,0.879,40.181,5.733,27.068,29.211,7.205,6.014,5.193
1651,0.879,40.302,5.737,27.097,29.211,7.165,5.934,5.153
1652,0.869,40.39,5.729,27.068,29.197,7.084,5.892,4.949
1653,0.872,40.429,5.725,27.078,29.2,7.083,5.933,5.11
1654,0.879,40.18,5.737,27.087,29.214,7.164,6.055,5.112
1655,0.895,40.34,5.741,27.107,29.214,7.368,6.015,5.193
1656,0.879,40.39,5.737,27.088,29.197,7.167,5.893,5.031
1657,0.869,40.429,5.725,27.059,29.19,7.165,5.811,5.03
1658,0.872,40.257,5.729,27.078,29.207,7.287,5.972,5.07
1659,0.879,40.38,5.733,27.097,29.221,7.41,6.015,5.193
1660,0.859,40.477,5.737,27.068,29.207,7.289,5.974,5.031
1661,0.872,40.506,5.756,27.078,29.204,7.369,5.974,4.989
1662,0.872,40.209,5.733,27.087,29.197,7.33,5.933,5.11
1663,0.869,40.322,5.741,27.068,29.2,7.248,5.852,5.071
1664,0.869,40.409,5.729,27.078,29.204,7.328,5.891,5.03
1665,0.872,40.803,5.744,27.097,29.204,7.329,5.973,5.111
1666,0.866,40.193,5.717,27.097,29.204,7.289,5.974,5.03
1667,0.872,40.273,5.729,27.059,29.193,7.166,5.811,5.03
1668,0.869,40.399,5.744,27.078,29.207,7.287,5.891,5.07
1669,0.879,40.132,5.756,27.097,29.211,7.369,6.014,5.152
1670,0.882,40.148,5.733,27.088,29.2,7.289,5.974,5.112
1671,0.876,40.244,5.733,27.078,29.2,7.207,5.893,4.989
1672,0.879,40.322,5.737,27.078,29.197,7.287,5.973,5.11
1673,0.892,39.997,5.737,27.087,29.204,7.329,6.015,5.193
1674,0.905,40.147,5.752,27.097,29.207,7.41,5.974,5.112
1675,0.882,40.215,5.749,27.068,29.197,7.208,5.893,4.989
1676,0.879,40.245,5.721,27.058,29.2,7.247,5.892,5.07
1677,0.892,39.957,5.733,27.078,29.2,7.328,6.014,5.03
1678,0.892,40.098,5.733,27.107,29.214,7.41,6.137,5.233
1679,0.882,40.167,5.729,27.088,29.2,7.208,5.894,5.032
1680,0.889,40.225,5.729,27.059,29.2,7.165,5.933,4.989
1681,0.889,39.881,5.725,27.068,29.207,7.287,6.014,5.11
1682,0.885,40.021,5.729,27.078,29.207,7.288,6.015,5.112
1683,0.892,40.118,5.733,27.059,29.207,7.288,5.974,5.03
1684,0.889,40.158,5.733,27.087,29.207,7.288,6.015,5.07
1685,0.885,39.736,5.721,27.087,29.197,7.247,6.056,5.07
1686,0.872,39.837,5.709,27.087,29.197,7.125,5.975,5.03
1687,0.882,39.934,5.721,27.078,29.2,7.205,5.974,5.03
1688,0.889,39.974,5.729,27.097,29.211,7.247,6.055,5.192
1689,0.882,39.619,5.717,27.088,29.204,7.166,5.893,5.031
1690,0.882,39.731,5.729,27.068,29.197,7.124,5.933,5.03
1691,0.882,39.828,5.741,27.068,29.204,7.124,6.014,5.111
1692,0.902,39.79,5.729,27.087,29.204,7.165,6.015,5.193
1693,0.915,39.732,5.752,27.107,29.211,7.206,6.056,5.234
1694,0.899,39.789,5.725,27.068,29.197,7.003,5.975,5.032
1695,0.892,39.876,5.705,27.039,29.197,6.96,5.893,4.989
1696,0.895,39.503,5.721,27.087,29.21,7.122,5.973,5.151
1697,0.905,39.595,5.725,27.107,29.218,7.205,6.218,5.234
1698,0.895,39.683,5.733,27.068,29.204,7.043,5.936,4.991
1699,0.889,39.77,5.733,27.087,29.197,7.001,5.892,4.988
1700,0.892,39.358,5.748,27.078,29.207,7.082,6.054,5.11
1701,0.889,39.488,5.725,27.087,29.204,7.002,5.975,5.071
1702,0.902,39.576,5.717,27.078,29.207,6.96,5.933,5.03
1703,0.889,39.654,5.737,27.087,29.211,7.0,6.014,5.111
1704,0.889,39.156,5.733,27.078,29.204,6.96,6.015,5.071
1705,0.889,39.266,5.725,27.068,29.2,6.878,5.974,5.07
1706,0.895,39.382,5.744,27.078,29.2,6.877,5.974,5.03
1707,0.895,39.46,5.729,27.078,29.207,6.959,6.055,5.151
1708,0.892,39.269,5.729,27.087,29.2,6.878,5.975,5.112
1709,0.895,39.372,5.729,27.078,29.197,6.837,5.893,5.03
1710,0.889,39.469,5.721,27.078,29.204,6.877,6.014,5.07
1711,0.899,39.518,5.74,27.078,29.207,6.918,6.056,5.111
1712,0.908,39.135,5.733,27.116,29.211,6.796,5.975,5.152
1713,0.892,39.218,5.733,27.078,29.2,6.795,5.852,5.071
1714,0.892,39.295,5.717,27.049,29.193,6.795,5.851,4.989
1715,0.908,39.785,5.725,27.097,29.2,6.836,6.013,5.11
1716,0.905,39.253,5.741,27.116,29.224,6.958,6.096,5.234
1717,0.895,39.334,5.709,27.078,29.197,6.797,5.894,5.032
1718,0.895,39.421,5.717,27.068,29.2,6.795,5.892,5.03
1719,0.892,38.99,5.729,27.087,29.207,6.958,5.973,5.07
1720,0.889,38.976,5.729,27.078,29.207,6.96,6.015,5.152
1721,0.882,39.091,5.729,27.078,29.204,6.96,5.893,5.071
1722,0.885,39.198,5.721,27.087,29.204,7.041,5.973,5.03
1723,0.879,38.998,5.713,27.087,29.204,7.082,5.974,5.07
1724,0.885,39.101,5.721,27.049,29.197,7.002,5.893,4.989
1725,0.885,39.246,5.733,27.097,29.2,7.163,5.973,5.151
1726,0.885,39.324,5.733,27.088,29.207,7.287,6.015,5.193
1727,0.885,38.999,5.725,27.078,29.207,7.207,5.974,5.031
1728,0.889,39.12,5.721,27.059,29.197,7.206,5.974,5.07
1729,0.885,39.237,5.729,27.078,29.204,7.287,5.933,5.07
1730,0.898,39.295,5.729,27.078,29.207,7.288,6.014,5.07
1731,0.908,38.999,5.733,27.097,29.211,7.369,6.015,5.152
1732,0.899,39.072,5.733,27.059,29.2,7.289,5.934,5.031
1733,0.892,39.159,5.717,27.039,29.19,7.288,5.852,5.03
1734,0.899,39.247,5.725,27.097,29.203,7.41,5.932,5.151
1735,0.905,39.017,5.76,27.116,29.217,7.574,6.177,5.275
1736,0.892,39.111,5.741,27.069,29.204,7.454,6.017,5.032
1737,0.895,39.208,5.741,27.058,29.204,7.493,5.893,5.03
1738,0.889,39.218,5.725,27.087,29.207,7.575,5.933,5.07
1739,0.885,38.806,5.721,27.097,29.204,7.616,5.974,5.07
1740,0.882,38.936,5.733,27.078,29.204,7.576,5.893,5.03
1741,0.885,39.053,5.737,27.087,29.204,7.657,6.014,5.07
1742,0.876,39.035,5.745,27.068,29.204,7.658,5.974,5.03
1743,0.876,38.996,5.737,27.068,29.197,7.617,5.933,4.989
1744,0.885,39.12,5.756,27.078,29.2,7.576,6.014,5.029
1745,0.882,39.208,5.756,27.097,29.207,7.657,6.015,5.111
1746,0.882,38.806,5.745,27.078,29.204,7.617,5.974,5.071
1747,0.872,38.888,5.725,27.068,29.197,7.535,5.852,4.989
1748,0.876,38.975,5.721,27.068,29.207,7.616,5.891,5.07
1749,0.889,39.091,5.729,27.087,29.207,7.698,6.095,5.152
1750,0.892,38.978,5.748,27.078,29.211,7.658,6.016,5.112
1751,0.876,39.082,5.741,27.068,29.2,7.617,5.893,5.03
1752,0.872,39.169,5.733,27.058,29.193,7.617,5.973,4.989
1753,0.892,39.285,5.741,27.097,29.207,7.617,6.015,5.151
1754,0.895,38.778,5.745,27.107,29.214,7.779,6.137,5.153
1755,0.882,38.859,5.737,27.049,29.2,7.537,6.016,5.031
1756,0.876,38.975,5.709,27.058,29.197,7.494,5.934,4.907
1757,0.879,39.034,5.733,27.087,29.214,7.534,6.055,5.15
1758,0.879,38.91,5.725,27.097,29.211,7.657,6.137,5.153
1759,0.879,38.985,5.729,27.078,29.204,7.536,5.976,4.99
1760,0.876,39.111,5.733,27.068,29.204,7.494,6.055,5.07
1761,0.872,39.141,5.721,27.087,29.2,7.534,6.097,5.03
1762,0.866,38.873,5.713,27.059,29.204,7.494,5.975,5.03
1763,0.869,38.994,5.733,27.068,29.207,7.412,6.055,5.03
1764,0.869,39.092,5.737,27.087,29.207,7.452,6.137,5.111
1765,0.866,39.467,5.737,27.097,29.204,7.371,6.098,4.989
1766,0.869,38.809,5.721,27.059,29.197,7.33,6.056,4.988
1767,0.879,38.927,5.74,27.078,29.2,7.329,6.097,5.07
1768,0.882,39.024,5.745,27.087,29.207,7.37,6.178,5.111
1769,0.879,38.967,5.733,27.078,29.204,7.289,6.139,5.071
1770,0.872,39.034,5.733,27.068,29.197,7.247,5.976,4.989
1771,0.853,39.15,5.752,27.058,29.204,7.206,6.096,5.11
1772,0.872,39.256,5.745,27.087,29.204,7.287,6.138,5.152
1773,0.892,38.739,5.737,27.116,29.211,7.369,6.179,5.193
1774,0.876,38.801,5.721,27.069,29.197,7.289,6.017,5.031
1775,0.872,38.898,5.717,27.049,29.197,7.166,5.974,5.03
1776,0.869,39.004,5.737,27.077,29.204,7.206,6.096,5.111
1777,0.872,38.833,5.76,27.107,29.221,7.369,6.178,5.152
1778,0.869,38.937,5.749,27.078,29.204,7.208,6.057,5.031
1779,0.866,39.033,5.737,27.068,29.197,7.125,6.015,4.948
1780,0.866,39.102,5.745,27.078,29.2,7.205,6.056,5.11
1781,0.859,38.767,5.745,27.059,29.2,7.165,6.097,5.03
1782,0.866,38.917,5.741,27.068,29.204,7.206,6.056,5.03
1783,0.866,39.014,5.737,27.097,29.2,7.247,6.137,5.111
1784,0.876,39.044,5.756,27.068,29.204,7.247,6.016,4.989
1785,0.876,38.718,5.729,27.068,29.193,7.084,6.015,5.07
1786,0.876,38.839,5.741,27.068,29.203,7.083,6.096,5.03
1787,0.872,38.956,5.733,27.097,29.207,7.123,6.016,5.151
1788,0.869,38.967,5.737,27.068,29.211,7.002,6.056,5.031
1789,0.866,38.689,5.741,27.049,29.197,7.001,5.975,4.989
1790,0.866,38.81,5.729,27.077,29.207,7.041,6.055,5.07
1791,0.872,38.917,5.744,27.097,29.204,7.042,6.137,5.152
1792,0.879,38.88,5.737,27.078,29.204,7.001,6.057,5.071
1793,0.866,38.803,5.733,27.078,29.197,6.919,6.056,5.03
1794,0.866,38.907,5.725,27.049,29.204,6.919,5.975,5.03
1795,0.879,39.033,5.733,27.087,29.211,6.959,6.015,5.07
1796,0.879,38.728,5.752,27.116,29.214,7.041,6.178,5.152
1797,0.866,38.801,5.733,27.078,29.2,6.92,6.017,4.99
1798,0.872,38.898,5.725,27.068,29.186,6.796,5.974,4.948
1799,0.869,39.004,5.741,27.087,29.203,6.917,6.096,5.15
1800,0.866,38.718,5.725,27.107,29.214,7.041,6.178,5.193
1801,0.862,38.83,5.729,27.059,29.2,6.96,6.017,4.909
1802,0.872,38.956,5.733,27.068,29.204,6.96,6.056,4.947
1803,0.866,39.034,5.733,27.097,29.2,7.0,6.097,5.029
1804,0.862,38.603,5.717,27.078,29.2,7.001,5.975,4.989
1805,0.869,38.752,5.717,27.068,29.207,6.96,6.055,5.029
1806,0.872,38.869,5.725,27.097,29.207,7.082,6.137,5.111
1807,0.869,38.899,5.717,27.078,29.207,7.042,6.098,5.03
1808,0.869,38.64,5.713,27.068,29.197,7.042,6.016,4.989
1809,0.866,38.762,5.729,27.068,29.204,7.123,6.056,5.11
1810,0.879,38.878,5.729,27.087,29.211,7.083,6.219,5.112
1811,0.892,38.908,5.725,27.107,29.211,7.164,6.098,5.071
1812,0.879,38.611,5.725,27.068,29.2,7.043,6.056,5.03
1813,0.866,38.704,5.725,27.058,29.193,6.96,5.975,4.989
1814,0.879,38.849,5.733,27.097,29.203,7.204,6.055,5.07
1815,0.882,39.148,5.737,27.116,29.211,7.287,6.3,5.233
1816,0.876,38.556,5.729,27.059,29.204,7.166,6.099,4.991
1817,0.869,38.665,5.729,27.058,29.2,7.124,6.097,4.988
1818,0.863,38.791,5.733,27.087,29.207,7.287,6.138,5.07
1819,0.872,38.38,5.717,27.087,29.211,7.369,6.138,5.07
1820,0.859,38.433,5.744,27.068,29.2,7.208,6.057,4.989
1821,0.866,38.549,5.737,27.058,29.211,7.287,6.178,5.029
1822,0.862,38.627,5.752,27.068,29.204,7.369,6.098,4.989
1823,0.853,38.397,5.725,27.049,29.2,7.208,6.056,5.029
1824,0.866,38.568,5.737,27.097,29.211,7.247,6.056,4.989
1825,0.859,38.675,5.745,27.097,29.204,7.41,6.137,5.029
1826,0.853,38.724,5.733,27.088,29.204,7.33,6.098,5.03
1827,0.859,38.427,5.729,27.068,29.197,7.289,6.016,4.989
1828,0.853,38.549,5.729,27.068,29.204,7.329,6.096,5.07
1829,0.862,38.694,5.725,27.087,29.204,7.37,6.138,5.111
1830,0.879,38.763,5.737,27.097,29.211,7.33,6.138,5.112
1831,0.859,38.293,5.737,27.059,29.197,7.289,6.098,4.989
1832,0.859,38.404,5.713,27.058,29.193,7.125,6.016,4.988
1833,0.866,38.53,5.729,27.087,29.207,7.287,6.096,5.11
1834,0.869,38.598,5.737,27.107,29.214,7.369,6.138,5.234
1835,0.866,38.292,5.725,27.068,29.204,7.208,5.976,4.991
1836,0.866,38.423,5.741,27.078,29.204,7.165,6.096,4.948
1837,0.866,38.53,5.741,27.068,29.211,7.165,6.016,5.11
1838,0.843,38.531,5.745,27.087,29.2,7.165,6.056,5.071
1839,0.859,38.272,5.737,27.078,29.197,7.124,6.056,5.03
1840,0.853,38.423,5.737,27.107,29.204,7.124,6.137,5.111
1841,0.859,38.501,5.741,27.088,29.2,7.043,6.179,5.071
1842,0.853,38.224,5.733,27.04,29.197,6.96,6.139,4.948
1843,0.856,38.135,5.745,27.058,29.2,7.082,6.098,4.988
1844,0.853,38.268,5.745,27.087,29.211,7.083,6.219,5.11
1845,0.853,38.375,5.745,27.068,29.204,7.123,6.139,5.071
1846,0.856,38.031,5.725,27.058,29.197,6.961,6.057,4.989
1847,0.843,38.142,5.725,27.078,29.2,7.041,6.137,5.029
1848,0.856,38.278,5.741,27.087,29.204,7.164,6.179,5.03
1849,0.872,38.375,5.737,27.097,29.211,7.206,6.179,5.151
1850,0.856,38.04,5.713,27.049,29.204,7.043,6.139,5.031
1851,0.853,38.161,5.717,27.068,29.2,7.164,6.098,5.07
1852,0.866,38.307,5.737,27.097,29.207,7.246,6.219,5.193
1853,0.879,38.404,5.745,27.107,29.214,7.247,6.22,5.112
1854,0.859,37.964,5.721,27.078,29.2,7.206,6.098,4.989
1855,0.859,38.103,5.721,27.068,29.19,7.165,6.016,4.907
1856,0.862,38.239,5.721,27.078,29.207,7.287,6.178,5.069
1857,0.866,38.307,5.744,27.097,29.221,7.369,6.301,5.193
1858,0.859,37.963,5.741,27.059,29.2,7.289,6.14,5.072
1859,0.859,38.094,5.733,27.078,29.197,7.247,6.057,5.07
1860,0.862,38.21,5.737,27.078,29.2,7.288,6.137,5.07
1861,0.856,38.23,5.717,27.078,29.2,7.247,6.138,5.03
1862,0.853,37.904,5.737,27.049,29.2,7.288,6.098,4.948
1863,0.859,38.064,5.721,27.097,29.204,7.329,6.097,5.11
1864,0.849,38.143,5.729,27.088,29.2,7.37,6.178,5.03
1865,0.846,38.364,5.721,27.059,29.197,7.37,6.057,4.907
1866,0.859,37.973,5.721,27.087,29.2,7.452,6.056,5.028
1867,0.869,38.094,5.717,27.097,29.207,7.452,6.097,5.111
1868,0.869,38.21,5.725,27.078,29.204,7.534,6.097,5.112
1869,0.856,37.732,5.729,27.068,29.197,7.494,5.975,4.949
1870,0.853,37.756,5.709,27.049,29.197,7.494,5.974,4.907
1871,0.853,37.89,5.744,27.087,29.207,7.616,6.096,5.109
1872,0.859,38.007,5.749,27.126,29.224,7.779,6.219,5.152
1873,0.856,37.672,5.733,27.059,29.197,7.578,6.098,5.031
1874,0.859,37.803,5.709,27.087,29.2,7.575,6.097,4.989
1875,0.866,37.91,5.729,27.078,29.204,7.698,6.219,5.07
1876,0.859,37.997,5.729,27.078,29.211,7.699,6.22,5.152
1877,0.856,37.538,5.737,27.078,29.204,7.78,6.098,5.071
1878,0.853,37.687,5.729,27.068,29.207,7.74,6.178,5.03
1879,0.846,37.794,5.713,27.078,29.2,7.781,6.22,5.03
1880,0.849,37.833,5.721,27.068,29.2,7.74,6.22,5.03
1881,0.853,37.527,5.725,27.078,29.2,7.821,6.342,5.03
1882,0.853,37.677,5.721,27.087,29.2,7.903,6.303,5.07
1883,0.853,37.774,5.737,27.059,29.204,7.904,6.343,4.989
1884,0.853,37.794,5.733,27.078,29.197,7.945,6.221,4.988
1885,0.856,37.43,5.733,27.097,29.204,7.945,6.342,4.988
1886,0.872,37.57,5.741,27.097,29.207,7.986,6.343,5.07
1887,0.869,37.668,5.733,27.097,29.207,7.905,6.384,5.07
1888,0.863,37.678,5.745,27.059,29.2,7.985,6.344,4.989
1889,0.872,37.554,5.729,27.068,29.207,7.986,6.384,5.029
1890,0.882,37.716,5.733,27.087,29.207,7.946,6.466,5.07
1891,0.885,37.803,5.741,27.097,29.207,7.986,6.467,5.111
1892,0.866,37.497,5.725,27.059,29.204,7.946,6.304,5.03
1893,0.872,37.389,5.729,27.049,29.186,7.864,6.302,4.989
1894,0.889,37.541,5.737,27.087,29.207,7.944,6.465,5.029
1895,0.885,37.648,5.733,27.097,29.214,8.026,6.507,5.233
1896,0.882,37.362,5.729,27.068,29.2,7.865,6.467,5.032
1897,0.885,37.483,5.713,27.078,29.2,7.863,6.386,4.989
1898,0.889,37.609,5.733,27.078,29.204,7.822,6.507,5.07
1899,0.892,37.678,5.737,27.087,29.204,7.822,6.467,5.07
1900,0.899,37.247,5.729,27.078,29.2,7.7,6.467,5.03
1901,0.902,37.406,5.752,27.087,29.204,7.74,6.548,5.03
1902,0.905,37.513,5.733,27.078,29.204,7.781,6.508,5.03
1903,0.899,37.571,5.741,27.059,29.197,7.618,6.467,4.989
1904,0.915,37.102,5.737,27.068,29.204,7.657,6.507,5.029
1905,0.925,37.27,5.737,27.097,29.204,7.78,6.589,5.111
1906,0.935,37.406,5.745,27.097,29.214,7.7,6.549,5.071
1907,0.925,37.417,5.733,27.068,29.197,7.618,6.508,4.989
1908,0.931,37.283,5.733,27.058,29.197,7.576,6.427,4.988
1909,0.944,37.425,5.725,27.078,29.204,7.657,6.507,5.07
1910,0.967,37.57,5.733,27.116,29.214,7.78,6.63,5.152
1911,0.951,37.581,5.717,27.088,29.204,7.7,6.468,5.031
1912,0.961,37.083,5.733,27.087,29.197,7.74,6.386,4.907
1913,0.968,37.222,5.721,27.078,29.207,7.821,6.466,5.109
1914,0.984,37.31,5.729,27.097,29.2,7.944,6.589,5.03
1915,0.987,37.473,5.729,27.068,29.204,7.905,6.509,4.989
1916,0.987,37.034,5.729,27.087,29.211,8.026,6.508,5.07
1917,0.981,37.183,5.721,27.107,29.2,7.987,6.508,5.07
1918,0.984,37.261,5.713,27.068,29.197,7.986,6.467,4.989
1919,0.971,36.974,5.729,27.078,29.204,8.149,6.467,5.07
1920,0.984,37.058,5.733,27.097,29.207,8.232,6.548,5.111
1921,0.994,37.154,5.737,27.088,29.2,8.192,6.468,5.071
1922,0.981,37.232,5.725,27.059,29.197,8.11,6.386,4.989
1923,0.991,36.84,5.737,27.068,29.2,8.15,6.425,4.988
1924,0.994,36.999,5.733,27.106,29.204,8.191,6.466,4.988
1925,1.0,37.125,5.748,27.107,29.214,8.273,6.507,5.07
1926,0.984,37.165,5.737,27.059,29.197,8.03,6.386,4.908
1927,0.997,36.772,5.709,27.058,29.197,8.109,6.344,4.987
1928,1.036,36.941,5.717,27.078,29.207,8.109,6.466,5.07
1929,1.046,37.086,5.764,27.116,29.207,8.191,6.548,5.152
1930,1.027,37.097,5.725,27.078,29.197,8.11,6.386,5.031
1931,1.027,36.877,5.737,27.059,29.19,7.987,6.385,4.989
1932,1.03,37.028,5.721,27.097,29.203,8.027,6.385,5.029
1933,1.033,37.135,5.729,27.088,29.2,8.109,6.385,5.111
1934,1.007,37.165,5.737,27.078,29.2,7.825,6.385,4.989
1935,1.004,36.791,5.737,27.097,29.204,7.985,6.344,5.029
1936,0.997,36.912,5.725,27.068,29.207,7.946,6.343,4.989
1937,0.994,37.009,5.725,27.078,29.2,7.783,6.303,4.988
1938,1.004,37.02,5.729,27.087,29.2,7.822,6.384,5.029
1939,1.01,36.809,5.737,27.107,29.207,7.863,6.385,5.111
1940,1.001,36.922,5.729,27.088,29.197,7.822,6.385,4.989
1941,1.007,37.009,5.717,27.049,29.197,7.741,6.263,4.948
1942,1.014,36.799,5.713,27.068,29.207,7.862,6.302,5.029
1943,1.027,36.749,5.737,27.078,29.211,7.863,6.343,5.03
1944,1.04,36.892,5.745,27.107,29.207,7.863,6.303,4.989
1945,1.014,36.961,5.721,27.068,29.2,7.741,6.302,4.907
1946,1.03,36.569,5.709,27.049,29.193,7.659,6.262,4.947
1947,1.03,36.728,5.717,27.087,29.2,7.78,6.302,5.029
1948,1.04,36.873,5.729,27.107,29.217,7.862,6.425,5.111
1949,1.037,36.913,5.721,27.078,29.2,7.741,6.222,4.989
1950,1.033,36.558,5.725,27.087,29.2,7.74,6.261,4.988
1951,1.014,36.689,5.744,27.097,29.207,7.781,6.302,5.07
1952,1.02,36.825,5.745,27.107,29.214,7.74,6.384,5.193
1953,1.014,36.884,5.737,27.088,29.207,7.659,6.181,4.99
1954,1.017,36.481,5.729,27.087,29.204,7.658,6.342,5.029
1955,1.01,36.612,5.733,27.107,29.2,7.617,6.262,5.03
1956,0.997,36.709,5.713,27.059,29.197,7.576,6.302,5.03
1957,1.0,36.787,5.725,27.087,29.197,7.616,6.262,5.03
1958,0.984,36.557,5.733,27.087,29.21,7.535,6.343,5.07
1959,0.961,36.699,5.733,27.097,29.2,7.534,6.262,5.03
1960,0.948,36.786,5.721,27.068,29.197,7.453,6.18,4.989
1961,0.941,36.807,5.725,27.078,29.197,7.412,6.301,4.988
1962,0.945,36.452,5.721,27.097,29.204,7.452,6.343,5.11
1963,0.925,36.611,5.733,27.088,29.207,7.452,6.262,4.989
1964,0.909,36.671,5.737,27.068,29.2,7.33,6.18,4.907
1965,0.895,36.757,5.737,27.058,29.193,7.248,6.22,5.028
1966,0.908,36.432,5.745,27.106,29.207,7.328,6.261,5.111
1967,0.905,36.582,5.745,27.107,29.218,7.532,6.343,5.152
1968,0.902,36.641,5.725,27.078,29.2,7.291,6.221,5.031
1969,0.902,36.393,5.721,27.078,29.2,7.207,6.22,4.907
1970,0.892,36.486,5.74,27.097,29.211,7.328,6.302,4.987
1971,0.892,36.612,5.717,27.088,29.2,7.41,6.302,5.11
1972,0.899,36.69,5.713,27.087,29.204,7.33,6.262,5.03
1973,0.886,36.355,5.744,27.107,29.207,7.41,6.343,5.03
1974,0.872,36.495,5.725,27.097,29.2,7.452,6.262,5.03
1975,0.866,36.583,5.717,27.078,29.2,7.452,6.18,5.03
1976,0.866,36.699,5.733,27.097,29.197,7.615,6.261,4.948
1977,0.862,36.144,5.745,27.107,29.21,7.657,6.343,5.029
1978,0.859,36.263,5.713,27.088,29.2,7.698,6.221,5.03
1979,0.849,36.37,5.729,27.059,29.193,7.658,6.18,4.989
1980,0.846,36.419,5.725,27.087,29.2,7.739,6.261,5.07
1981,0.853,36.247,5.756,27.097,29.207,7.862,6.343,5.07
1982,0.853,36.408,5.749,27.097,29.204,7.863,6.262,5.03
1983,0.83,36.477,5.737,27.078,29.204,7.822,6.18,4.989
1984,0.81,36.506,5.717,27.068,29.193,7.863,6.22,4.948
1985,0.823,36.142,5.733,27.087,29.214,8.026,6.302,5.069
1986,0.826,36.301,5.745,27.126,29.218,8.109,6.384,5.152
1987,0.81,36.37,5.729,27.078,29.197,8.028,6.222,4.99
1988,0.82,36.38,5.721,27.068,29.193,7.946,6.139,4.948
1989,0.82,36.198,5.729,27.106,29.207,8.108,6.179,5.069
1990,0.817,36.321,5.725,27.107,29.207,8.069,6.342,5.152
1991,0.813,36.437,5.729,27.088,29.2,8.028,6.221,4.99
1992,0.816,36.18,5.721,27.097,29.204,8.068,6.22,5.11
1993,0.816,36.139,5.725,27.097,29.204,8.109,6.302,5.112
1994,0.807,36.244,5.717,27.088,29.197,8.069,6.221,5.03
1995,0.829,36.35,5.721,27.068,29.204,7.987,6.22,4.989
1996,0.82,36.121,5.74,27.106,29.207,8.068,6.22,5.07
1997,0.81,36.224,5.737,27.097,29.207,8.069,6.22,5.07
1998,0.816,36.302,5.721,27.059,29.2,8.028,6.18,4.989
1999,0.816,36.428,5.74,27.087,29.197,7.987,6.179,5.07
2000,0.81,35.988,5.733,27.116,29.21,8.068,6.22,5.111
2001,0.807,36.118,5.729,27.088,29.2,8.028,6.18,5.03
2002,0.797,36.215,5.729,27.078,29.197,7.987,6.098,4.948
2003,0.794,36.264,5.713,27.068,29.19,7.946,6.138,4.988
2004,0.806,35.909,5.74,27.087,29.21,8.067,6.219,4.988
2005,0.816,36.069,5.748,27.126,29.214,8.191,6.22,5.029
2006,0.8,36.147,5.745,27.097,29.197,7.948,6.098,4.989
2007,0.807,36.167,5.721,27.059,29.197,7.864,5.975,4.907
2008,0.803,36.033,5.737,27.097,29.207,8.107,6.137,5.069
2009,0.816,36.185,5.741,27.116,29.214,8.15,6.301,5.193
2010,0.797,36.283,5.733,27.088,29.2,7.988,6.14,4.99
2011,0.8,36.322,5.752,27.097,29.207,7.986,6.098,5.029
2012,0.8,35.881,5.745,27.107,29.204,8.027,6.138,4.989
2013,0.797,36.011,5.741,27.097,29.207,8.027,6.138,5.07
2014,0.807,36.137,5.733,27.097,29.204,7.987,6.138,5.03
2015,0.813,36.244,5.733,27.116,29.204,8.027,6.138,5.07
2016,0.807,35.928,5.729,27.097,29.204,7.905,6.098,4.989
2017,0.803,36.04,5.713,27.078,29.207,7.823,5.975,4.988
2018,0.8,36.166,5.725,27.097,29.197,7.781,6.096,5.07
2019,0.81,35.822,5.741,27.097,29.204,7.944,6.138,5.03
2020,0.816,35.895,5.721,27.107,29.2,7.823,6.057,5.07
2021,0.803,36.011,5.725,27.068,29.204,7.741,5.975,4.908
2022,0.81,36.099,5.737,27.068,29.2,7.74,6.137,4.987
2023,0.813,35.697,5.745,27.097,29.204,7.74,6.098,5.029
2024,0.823,35.856,5.733,27.126,29.204,7.74,6.056,5.03
2025,0.807,35.944,5.721,27.078,29.197,7.537,5.975,4.989
2026,0.8,36.012,5.717,27.078,29.193,7.494,5.893,4.948
2027,0.816,35.782,5.725,27.097,29.21,7.534,6.054,5.069
2028,0.823,35.943,5.741,27.126,29.218,7.657,6.137,5.152
2029,0.813,36.031,5.737,27.078,29.204,7.495,5.976,4.99
2030,0.816,36.099,5.721,27.078,29.197,7.412,5.933,4.988
2031,0.816,35.639,5.737,27.097,29.207,7.411,6.014,5.029
2032,0.813,35.75,5.733,27.107,29.204,7.411,6.015,5.111
2033,0.813,35.847,5.717,27.097,29.197,7.371,5.934,4.989
2034,0.813,35.915,5.725,27.107,29.204,7.411,6.014,5.029
2035,0.813,35.628,5.713,27.097,29.204,7.33,6.015,5.03
2036,0.813,35.73,5.705,27.088,29.193,7.248,5.893,4.989
2037,0.81,35.866,5.736,27.097,29.207,7.288,6.014,4.988
2038,0.807,35.886,5.729,27.116,29.204,7.329,6.056,5.029
2039,0.813,35.608,5.717,27.088,29.197,7.329,6.015,5.03
2040,0.803,35.711,5.725,27.068,29.193,7.207,5.893,4.907
2041,0.803,35.837,5.713,27.078,29.203,7.206,5.973,4.987
2042,0.82,35.685,5.721,27.097,29.2,7.328,6.015,5.07
2043,0.83,35.693,5.737,27.107,29.211,7.289,6.015,5.03
2044,0.826,35.798,5.725,27.097,29.2,7.166,5.974,4.948
2045,0.82,35.866,5.733,27.068,29.197,7.124,5.852,4.907
2046,0.846,35.503,5.725,27.106,29.197,7.246,6.013,5.028
2047,0.859,35.662,5.725,27.136,29.214,7.288,6.137,5.233
2048,0.849,35.76,5.725,27.098,29.197,7.166,6.016,4.991
2049,0.875,35.837,5.744,27.088,29.2,7.124,5.934,5.029
2050,0.902,35.522,5.741,27.107,29.204,7.124,6.055,5.111
2051,0.931,35.672,5.741,27.116,29.211,7.165,6.097,5.152
2052,0.944,35.779,5.741,27.097,29.204,7.084,5.975,5.031
2053,0.984,35.866,5.737,27.116,29.2,7.164,5.974,5.07
2054,1.013,35.512,5.745,27.107,29.2,7.124,6.055,5.03
2055,1.033,35.643,5.725,27.078,29.193,7.043,6.015,5.03
2056,1.053,35.769,5.737,27.097,29.207,7.042,5.974,5.03
2057,1.086,35.837,5.745,27.116,29.204,7.082,5.974,5.03
2058,1.092,35.387,5.713,27.078,29.2,7.042,6.015,5.111
2059,1.109,35.498,5.729,27.078,29.197,7.001,5.934,4.989
2060,1.145,35.624,5.721,27.107,29.204,7.001,5.974,5.151
2061,1.161,35.683,5.744,27.107,29.207,7.041,6.015,5.112
2062,1.155,35.491,5.729,27.107,29.204,7.001,6.015,5.071
2063,1.129,35.576,5.721,27.068,29.193,6.96,5.974,4.908
2064,1.151,35.663,5.721,27.078,29.193,6.838,5.933,4.987
2065,1.168,35.779,5.737,27.107,29.2,6.958,6.014,5.11
2066,1.191,35.559,5.748,27.136,29.217,7.122,6.178,5.193
2067,1.142,35.644,5.713,27.078,29.197,6.88,5.976,4.909
2068,1.116,35.74,5.733,27.087,29.19,6.877,5.852,4.906
2069,1.096,35.367,5.737,27.107,29.203,7.04,5.973,5.028
2070,1.053,35.459,5.737,27.126,29.211,6.92,6.096,5.111
2071,1.004,35.527,5.721,27.097,29.197,6.878,5.935,5.03
2072,0.948,35.653,5.729,27.107,29.21,6.959,5.974,5.07
2073,0.899,35.328,5.729,27.107,29.204,6.838,5.974,5.111
2074,0.837,35.44,5.721,27.097,29.197,6.796,5.933,4.989
2075,0.774,35.575,5.748,27.088,29.204,6.836,5.974,5.07
2076,0.705,35.653,5.745,27.116,29.211,6.877,5.933,5.07
2077,0.646,35.251,5.717,27.116,29.207,6.877,5.892,4.989
2078,0.542,35.372,5.74,27.088,29.197,6.755,5.851,4.988
2079,0.462,35.488,5.733,27.097,29.204,6.754,5.891,5.029
2080,0.413,35.576,5.745,27.107,29.204,6.754,5.933,5.192
2081,0.386,35.318,5.745,27.107,29.204,6.754,5.933,4.99
2082,0.341,35.449,5.737,27.097,29.197,6.673,5.892,4.988
2083,0.311,35.547,5.725,27.068,29.2,6.753,5.973,5.029
2084,0.278,35.624,5.744,27.116,29.207,6.876,5.974,5.192
2085,0.222,35.241,5.745,27.155,29.214,7.081,6.055,5.153
2086,0.17,35.333,5.721,27.088,29.197,6.88,6.015,5.071
2087,0.146,35.43,5.717,27.087,29.193,6.877,5.812,4.989
2088,0.143,35.46,5.729,27.107,29.203,7.04,5.972,5.151
2089,0.11,35.249,5.725,27.136,29.211,7.123,6.096,5.315
2090,0.078,35.372,5.744,27.098,29.193,7.124,5.975,5.073
2091,0.067,35.498,5.721,27.116,29.2,7.205,6.055,5.152
2092,0.061,35.183,5.733,27.107,29.211,7.206,6.056,5.153
2093,0.077,35.17,5.729,27.097,29.197,7.165,6.015,5.153
2094,0.097,35.285,5.729,27.107,29.2,7.165,6.015,5.071
2095,0.142,35.392,5.737,27.107,29.2,7.328,6.096,5.233
2096,0.182,35.143,5.733,27.107,29.204,7.248,6.056,5.235
2097,0.221,35.265,5.733,27.068,29.2,7.206,5.975,5.153
2098,0.297,35.401,5.713,27.097,29.2,7.287,6.055,5.153
2099,0.336,35.489,5.733,27.116,29.211,7.369,6.056,5.234
2100,0.366,35.039,5.709,27.088,29.2,7.411,6.097,5.194
2101,0.399,35.168,5.717,27.087,29.197,7.289,5.975,5.112
2102,0.435,35.275,5.725,27.078,29.2,7.329,6.055,5.193
2103,0.468,35.363,5.725,27.116,29.204,7.451,6.137,5.234
2104,0.494,35.114,5.733,27.116,29.2,7.371,6.138,5.235
2105,0.511,35.198,5.713,27.088,29.2,7.289,6.057,5.194
2106,0.537,35.304,5.713,27.087,29.186,7.288,6.015,5.112
2107,0.576,35.392,5.721,27.126,29.207,7.288,6.096,5.315
2108,0.619,35.114,5.744,27.145,29.211,7.451,6.26,5.439
2109,0.629,35.217,5.741,27.107,29.2,7.29,6.099,5.196
2110,0.668,35.352,5.729,27.107,29.2,7.329,6.097,5.194
2111,0.682,35.373,5.741,27.107,29.204,7.329,6.138,5.316
2112,0.698,34.942,5.725,27.116,29.211,7.37,6.179,5.358
2113,0.724,35.062,5.733,27.097,29.204,7.289,6.22,5.195
2114,0.747,35.178,5.725,27.126,29.204,7.207,6.22,5.356
2115,0.751,35.237,5.725,27.097,29.197,7.247,6.22,5.277
2116,0.754,35.007,5.729,27.088,29.197,7.166,6.22,5.276
2117,0.78,35.159,5.721,27.107,29.2,7.206,6.139,5.276
2118,0.8,35.256,5.74,27.126,29.2,7.287,6.301,5.316
2119,0.81,34.864,5.737,27.107,29.204,7.288,6.343,5.276
2120,0.816,34.927,5.725,27.097,29.204,7.207,6.221,5.235
2121,0.833,35.071,5.729,27.126,29.204,7.287,6.139,5.316
2122,0.839,35.169,5.733,27.107,29.207,7.329,6.26,5.317
2123,0.843,34.92,5.748,27.116,29.211,7.37,6.221,5.236
2124,0.846,35.043,5.717,27.097,29.193,7.33,6.18,5.275
2125,0.843,35.149,5.721,27.068,29.197,7.289,6.22,5.235
2126,0.872,35.275,5.733,27.126,29.204,7.532,6.342,5.357
2127,0.882,34.845,5.764,27.145,29.214,7.697,6.303,5.439
2128,0.869,34.936,5.737,27.098,29.204,7.618,6.18,5.318
2129,0.866,35.062,5.721,27.078,29.197,7.495,6.098,5.236
2130,0.876,35.14,5.744,27.116,29.204,7.616,6.3,5.397
2131,0.869,34.824,5.729,27.136,29.217,7.698,6.343,5.44
2132,0.879,34.946,5.729,27.107,29.2,7.536,6.221,5.318
2133,0.876,35.081,5.725,27.116,29.204,7.657,6.18,5.317
2134,0.879,35.121,5.725,27.126,29.204,7.658,6.261,5.358
2135,0.885,34.795,5.744,27.097,29.197,7.617,6.221,5.317
2136,0.879,34.936,5.729,27.107,29.207,7.698,6.139,5.358
2137,0.895,35.062,5.744,27.107,29.211,7.699,6.26,5.399
2138,0.876,35.063,5.741,27.116,29.204,7.658,6.18,5.318
2139,0.869,34.804,5.698,27.088,29.2,7.617,6.139,5.317
2140,0.876,34.955,5.729,27.107,29.2,7.698,6.179,5.317
2141,0.879,35.062,5.741,27.107,29.211,7.699,6.261,5.317
2142,0.889,34.852,5.737,27.107,29.204,7.618,6.18,5.276
2143,0.882,34.821,5.737,27.088,29.193,7.535,6.139,5.235
2144,0.872,34.946,5.721,27.097,29.2,7.616,6.138,5.275
2145,0.885,35.081,5.717,27.116,29.204,7.617,6.219,5.398
2146,0.905,34.68,5.733,27.145,29.214,7.576,6.22,5.358
2147,0.895,34.772,5.729,27.107,29.2,7.494,6.098,5.236
2148,0.889,34.888,5.721,27.097,29.193,7.371,6.056,5.235
2149,0.899,34.994,5.725,27.116,29.203,7.492,6.137,5.397
2150,0.918,34.66,5.741,27.155,29.217,7.616,6.26,5.44
2151,0.892,34.762,5.717,27.117,29.2,7.413,6.099,5.318
2152,0.882,34.878,5.721,27.088,29.197,7.289,6.056,5.276
2153,0.895,34.975,5.733,27.126,29.204,7.369,6.056,5.398
2154,0.895,34.65,5.729,27.136,29.214,7.37,6.219,5.48
2155,0.892,34.781,5.729,27.117,29.2,7.289,6.058,5.278
2156,0.886,34.926,5.729,27.107,29.197,7.288,6.056,5.276
2157,0.885,34.956,5.725,27.126,29.204,7.247,6.137,5.357
2158,0.892,34.602,5.733,27.097,29.197,7.247,6.098,5.277
2159,0.899,34.752,5.741,27.107,29.2,7.288,6.056,5.316
2160,0.905,34.888,5.741,27.126,29.204,7.329,6.097,5.358
2161,0.899,34.889,5.721,27.117,29.2,7.289,6.056,5.236
2162,0.889,34.601,5.721,27.097,29.2,7.329,6.056,5.275
2163,0.895,34.723,5.744,27.107,29.197,7.451,6.097,5.276
2164,0.895,34.868,5.733,27.136,29.2,7.412,6.097,5.316
2165,0.905,34.822,5.725,27.117,29.2,7.411,6.097,5.276
2166,0.892,34.476,5.733,27.088,29.197,7.371,6.016,5.195
2167,0.886,34.607,5.729,27.097,29.197,7.37,6.015,5.275
2168,0.905,34.714,5.744,27.116,29.207,7.533,6.056,5.316
2169,0.918,34.484,5.749,27.145,29.221,7.534,6.097,5.317
2170,0.896,34.52,5.729,27.117,29.197,7.412,6.016,5.276
2171,0.895,34.636,5.721,27.088,29.186,7.33,5.974,5.195
2172,0.902,34.762,5.725,27.107,29.207,7.451,6.015,5.356
2173,0.905,34.494,5.729,27.126,29.214,7.534,6.178,5.439
2174,0.902,34.616,5.713,27.117,29.204,7.372,5.976,5.318
2175,0.908,34.752,5.725,27.116,29.204,7.411,5.974,5.236
2176,0.912,34.801,5.717,27.116,29.211,7.452,5.974,5.316
2177,0.908,34.38,5.721,27.116,29.2,7.493,6.096,5.317
2178,0.892,34.529,5.709,27.116,29.204,7.412,6.016,5.236
2179,0.902,34.655,5.736,27.126,29.207,7.452,5.974,5.316
2180,0.902,34.724,5.733,27.136,29.2,7.412,6.055,5.317
2181,0.892,34.293,5.729,27.098,29.2,7.411,6.015,5.276
2182,0.899,34.442,5.737,27.126,29.204,7.411,5.974,5.316
2183,0.912,34.578,5.737,27.107,29.207,7.452,6.055,5.317
2184,0.908,34.617,5.729,27.107,29.204,7.452,6.056,5.317
2185,0.902,34.359,5.709,27.107,29.197,7.371,5.934,5.236
2186,0.908,34.519,5.729,27.126,29.2,7.411,6.096,5.275
2187,0.908,34.617,5.729,27.117,29.207,7.452,6.097,5.316
2188,0.912,34.656,5.733,27.107,29.204,7.412,6.056,5.317
2189,0.902,34.292,5.717,27.097,29.193,7.371,6.015,5.236
2190,0.905,34.461,5.733,27.107,29.203,7.452,6.056,5.275
2191,0.905,34.559,5.725,27.136,29.204,7.452,6.097,5.357
2192,0.908,34.243,5.721,27.136,29.204,7.534,6.097,5.317
2193,0.905,34.192,5.717,27.117,29.197,7.534,6.056,5.236
2194,0.905,34.278,5.709,27.107,29.197,7.534,6.056,5.194
2195,0.912,34.422,5.713,27.136,29.207,7.657,6.097,5.275
2196,0.922,34.223,5.737,27.165,29.214,7.78,6.178,5.357
2197,0.902,34.326,5.725,27.107,29.197,7.659,5.976,5.236
2198,0.912,34.442,5.729,27.107,29.193,7.617,5.933,5.153
2199,0.912,34.539,5.733,27.126,29.203,7.779,6.055,5.315
2200,0.915,34.061,5.721,27.136,29.214,7.862,6.137,5.398
2201,0.909,34.171,5.729,27.107,29.193,7.822,6.016,5.196
2202,0.908,34.326,5.748,27.107,29.2,7.781,5.974,5.153
2203,0.912,34.375,5.745,27.116,29.204,7.822,6.055,5.234
