time,ecg,bvp,gsr,rsp,skt,emg_zygo,emg_coru,emg_trap
0,0.721,35.575,26.647,31.366,24.201,4.989,6.014,8.973
1,0.728,35.711,26.402,31.385,24.204,5.029,5.974,8.931
2,0.725,35.703,26.661,31.395,24.215,5.192,6.015,8.972
3,0.715,35.683,26.476,31.385,24.211,5.072,6.056,8.931
4,0.705,35.779,26.639,31.376,24.194,4.948,5.975,8.809
5,0.705,35.905,26.652,31.356,24.19,4.907,5.893,8.726
6,0.705,35.551,26.508,31.346,24.194,4.987,5.933,8.644
7,0.711,35.653,26.717,31.346,24.197,4.948,5.892,8.644
8,0.705,35.798,26.485,31.356,24.197,5.029,5.933,8.603
9,0.692,35.866,26.654,31.356,24.201,4.907,5.892,8.684
10,0.695,35.627,26.437,31.394,24.19,4.865,5.851,8.562
11,0.695,35.798,26.623,31.356,24.194,4.906,5.891,8.683
12,0.701,35.924,26.683,31.385,24.204,5.028,6.014,8.766
13,0.695,36.012,26.625,31.366,24.208,4.989,6.056,8.848
14,0.695,35.706,26.753,31.375,24.201,4.988,5.934,8.849
15,0.692,35.846,26.548,31.375,24.201,4.988,5.892,8.93
16,0.692,35.972,26.69,31.366,24.197,4.988,5.973,8.972
17,0.701,36.05,26.539,31.366,24.208,4.988,5.933,9.094
18,0.708,35.773,26.709,31.404,24.218,5.07,6.055,9.217
19,0.705,35.933,26.442,31.385,24.201,5.07,6.056,9.3
20,0.692,36.021,26.623,31.347,24.197,4.908,5.975,9.219
21,0.701,36.07,26.472,31.346,24.194,4.906,5.933,9.178
22,0.698,35.831,26.627,31.337,24.197,4.947,5.933,9.259
23,0.695,35.972,26.769,31.356,24.211,4.866,5.974,9.341
24,0.695,36.06,26.536,31.366,24.208,4.987,5.974,9.382
25,0.688,36.099,26.709,31.356,24.197,4.988,5.974,9.342
26,0.688,36.004,26.43,31.337,24.197,4.866,5.893,9.342
27,0.695,36.147,26.677,31.365,24.197,4.946,5.973,9.342
28,0.711,36.273,26.527,31.385,24.208,5.029,5.933,9.464
29,0.685,36.475,26.596,31.376,24.201,5.03,6.055,9.465
30,0.682,35.96,26.671,31.375,24.208,4.989,6.056,9.383
31,0.672,36.108,26.562,31.356,24.204,4.988,6.056,9.423
32,0.672,36.186,26.776,31.346,24.201,4.948,6.015,9.342
33,0.688,36.12,26.513,31.375,24.204,4.988,6.015,9.26
34,0.685,36.215,26.612,31.404,24.215,5.11,6.096,9.341
35,0.666,36.331,26.679,31.376,24.205,5.112,6.016,9.342
36,0.669,36.38,26.559,31.337,24.197,4.908,5.974,9.179
37,0.682,36.208,26.667,31.356,24.197,4.947,5.933,9.137
38,0.669,36.331,26.422,31.356,24.194,4.907,5.933,9.217
39,0.675,36.486,26.657,31.366,24.204,4.987,5.892,9.178
40,0.672,36.545,26.453,31.366,24.197,4.948,5.933,9.299
41,0.669,36.296,26.677,31.356,24.204,4.947,5.892,9.382
42,0.652,36.399,26.551,31.327,24.191,4.907,5.851,9.464
43,0.668,36.563,26.616,31.365,24.201,4.987,5.851,9.709
44,0.669,36.67,26.702,31.385,24.204,5.029,5.973,9.996
45,0.659,36.268,26.547,31.356,24.208,5.03,6.015,10.08
46,0.672,36.427,26.721,31.375,24.208,4.989,6.056,10.203
47,0.669,36.544,26.407,31.366,24.201,5.029,5.975,10.285
48,0.652,36.622,26.661,31.366,24.201,5.03,5.974,10.327
49,0.662,36.527,26.461,31.366,24.197,5.03,5.974,10.368
50,0.659,36.679,26.713,31.404,24.218,5.03,6.096,10.653
51,0.639,36.757,26.742,31.357,24.205,4.989,5.975,10.818
52,0.629,36.787,26.594,31.356,24.204,4.907,5.893,10.861
53,0.642,36.413,26.62,31.346,24.194,4.987,5.851,10.902
54,0.626,36.573,26.433,31.366,24.201,4.988,5.891,10.983
55,0.636,36.68,26.669,31.366,24.201,5.029,5.851,11.066
56,0.629,36.681,26.441,31.347,24.201,4.989,6.013,11.229
57,0.629,36.604,26.638,31.356,24.201,4.988,5.934,11.271
58,0.629,36.747,26.687,31.346,24.197,4.866,5.811,11.272
59,0.655,36.873,26.609,31.366,24.208,5.028,5.891,11.353
60,0.662,36.788,26.773,31.366,24.204,5.07,5.973,11.435
61,0.656,36.691,26.54,31.366,24.208,5.111,5.893,11.395
62,0.642,36.844,26.663,31.356,24.208,5.071,5.933,11.395
63,0.639,36.951,26.43,31.433,24.201,5.03,5.933,11.436
64,0.649,36.645,26.638,31.366,24.201,5.07,5.892,11.355
65,0.649,36.748,26.453,31.395,24.211,5.111,5.973,11.354
66,0.639,36.873,26.572,31.376,24.208,5.112,6.055,11.395
67,0.633,36.932,26.682,31.347,24.201,5.071,5.934,11.232
68,0.639,36.607,26.57,31.346,24.194,4.948,5.852,11.068
69,0.639,36.757,26.764,31.356,24.194,4.907,5.851,10.985
70,0.639,36.864,26.63,31.346,24.204,4.947,5.851,10.903
71,0.636,36.961,26.667,31.366,24.201,4.988,5.891,10.902
72,0.629,36.712,26.434,31.375,24.204,5.029,5.973,10.861
73,0.629,36.834,26.642,31.328,24.191,4.989,5.852,10.698
74,0.639,36.98,26.453,31.356,24.197,4.988,5.851,10.575
75,0.633,37.067,26.697,31.385,24.208,5.07,5.932,10.614
76,0.632,36.742,26.457,31.376,24.208,5.111,6.055,10.615
77,0.636,36.873,26.67,31.366,24.211,5.112,6.015,10.574
78,0.636,37.009,26.512,31.375,24.204,5.112,6.015,10.492
79,0.639,37.048,26.658,31.375,24.204,5.152,5.974,10.532
80,0.652,36.847,26.672,31.356,24.201,4.99,5.933,10.451
81,0.672,37.018,26.465,31.423,24.208,5.151,6.055,10.491
82,0.662,37.125,26.689,31.385,24.211,5.112,6.137,10.573
83,0.646,37.117,26.449,31.347,24.204,4.989,5.935,10.411
84,0.659,36.81,26.705,31.366,24.194,4.988,5.974,10.247
85,0.662,36.941,26.43,31.356,24.197,4.988,5.893,10.245
86,0.662,37.096,26.638,31.356,24.194,5.029,5.973,10.245
87,0.659,37.471,26.492,31.356,24.197,4.989,6.015,10.123
88,0.662,36.765,26.623,31.375,24.201,5.029,6.015,10.081
89,0.656,36.893,26.679,31.337,24.19,4.907,5.934,9.999
90,0.672,37.047,26.461,31.365,24.204,4.987,5.933,9.917
91,0.685,36.924,26.677,31.385,24.204,5.029,6.055,9.957
92,0.685,36.952,26.453,31.395,24.208,5.07,6.056,9.998
93,0.692,37.086,26.662,31.385,24.204,5.152,6.056,9.917
94,0.688,37.164,26.613,31.366,24.197,5.031,6.015,9.835
95,0.695,36.801,26.589,31.385,24.208,5.111,6.056,9.753
96,0.698,36.912,26.667,31.356,24.201,5.03,6.097,9.712
97,0.714,37.076,26.609,31.394,24.211,5.07,6.138,9.67
98,0.721,37.145,26.757,31.414,24.211,5.152,6.26,9.751
99,0.711,36.887,26.466,31.385,24.204,5.112,6.099,9.63
100,0.724,37.028,26.67,31.366,24.197,4.949,6.016,9.507
101,0.741,37.164,26.477,31.375,24.197,4.988,6.096,9.465
102,0.747,37.232,26.689,31.366,24.204,4.988,6.016,9.505
103,0.754,36.84,26.457,31.356,24.208,4.988,6.096,9.506
104,0.751,36.98,26.658,31.375,24.201,5.029,6.138,9.506
105,0.748,37.086,26.672,31.366,24.197,4.948,6.098,9.506
106,0.757,37.155,26.562,31.347,24.197,4.907,5.975,9.465
107,0.761,36.925,26.714,31.385,24.204,5.028,6.096,9.668
108,0.757,37.076,26.524,31.395,24.204,5.03,6.178,9.792
109,0.757,37.212,26.694,31.395,24.208,5.07,6.179,9.915
110,0.754,37.252,26.477,31.395,24.208,4.989,6.179,10.079
111,0.764,36.83,26.697,31.395,24.208,5.029,6.179,10.081
112,0.761,36.96,26.508,31.395,24.204,5.03,6.057,10.162
113,0.764,37.096,26.752,31.395,24.208,5.03,6.137,10.163
114,0.774,37.145,26.442,31.433,24.211,5.07,6.179,10.204
115,0.764,36.906,26.623,31.395,24.215,5.111,6.22,10.407
116,0.774,37.019,26.702,31.404,24.201,4.989,6.058,10.165
117,0.767,37.125,26.547,31.366,24.194,4.907,6.056,10.163
118,0.767,37.759,26.639,31.385,24.201,4.987,6.056,10.163
119,0.78,38.082,26.414,31.404,24.204,4.948,6.137,10.163
120,0.79,38.229,26.642,31.414,24.197,4.988,6.057,10.122
121,0.797,38.298,26.488,31.395,24.208,4.988,6.097,10.041
122,0.787,36.4,26.662,31.366,24.194,4.907,5.975,9.958
123,0.793,36.265,26.715,31.404,24.204,4.987,6.055,9.917
124,0.793,36.427,26.536,31.414,24.208,4.988,6.097,9.916
125,0.79,36.515,26.702,31.414,24.208,5.029,6.178,9.835
126,0.8,36.871,26.532,31.395,24.208,5.07,6.179,9.834
127,0.784,37.047,26.678,31.423,24.201,4.948,6.098,9.712
128,0.784,37.145,26.406,31.405,24.194,4.988,6.138,9.63
129,0.787,37.251,26.614,31.395,24.197,5.029,6.138,9.588
130,0.8,36.734,26.702,31.452,24.215,5.111,6.138,9.547
131,0.764,36.835,26.66,31.415,24.215,5.152,6.219,9.628
132,0.774,36.941,26.761,31.395,24.201,4.949,6.058,9.385
133,0.764,37.019,26.563,31.395,24.194,4.947,6.056,9.22
134,0.761,36.78,26.69,31.404,24.197,4.907,6.056,9.259
135,0.774,36.941,26.485,31.424,24.201,4.987,6.137,9.219
136,0.758,37.038,26.717,31.405,24.201,4.988,6.057,9.178
137,0.741,37.087,26.407,31.414,24.201,5.029,6.178,9.137
138,0.764,36.867,26.661,31.405,24.19,4.867,6.017,9.055
139,0.774,37.057,26.574,31.424,24.201,5.068,6.178,9.095
140,0.774,37.154,26.64,31.443,24.208,5.03,6.179,9.054
141,0.774,37.194,26.761,31.424,24.204,5.111,6.139,9.095
142,0.774,36.801,26.556,31.433,24.204,5.03,6.179,9.054
143,0.777,36.95,26.655,31.434,24.201,5.03,6.179,9.013
144,0.777,37.067,26.441,31.424,24.208,5.03,6.22,8.972
145,0.784,37.097,26.665,31.433,24.201,5.07,6.139,8.972
146,0.771,36.886,26.625,31.462,24.211,5.152,6.26,9.135
147,0.751,37.047,26.539,31.463,24.204,5.153,6.221,9.095
148,0.757,37.106,26.655,31.415,24.197,4.99,6.098,9.054
149,0.748,36.886,26.551,31.414,24.197,4.988,6.097,9.095
150,0.751,36.875,26.752,31.433,24.201,4.988,6.138,9.095
151,0.735,37.009,26.544,31.443,24.201,4.988,6.057,9.176
152,0.734,37.106,26.717,31.443,24.201,5.029,6.219,9.299
153,0.738,36.848,26.348,31.443,24.197,4.989,6.139,9.341
154,0.738,36.951,26.629,31.424,24.194,4.826,6.057,9.342
155,0.734,37.105,26.695,31.443,24.204,4.987,6.097,9.382
156,0.741,37.203,26.574,31.453,24.208,5.029,6.219,9.505
157,0.744,36.926,26.686,31.462,24.211,5.07,6.139,9.628
158,0.738,37.067,26.449,31.453,24.208,4.989,6.219,9.67
159,0.738,37.193,26.732,31.443,24.208,5.029,6.22,9.67
160,0.744,37.252,26.532,31.462,24.211,5.03,6.22,9.711
161,0.76,36.917,26.721,31.463,24.204,5.03,6.139,9.67
162,0.764,37.095,26.625,31.491,24.211,5.151,6.301,9.711
163,0.748,37.184,26.581,31.463,24.204,5.153,6.262,9.752
164,0.734,37.213,26.667,31.463,24.191,4.909,6.221,9.63
165,0.738,36.926,26.57,31.443,24.197,4.947,6.098,9.548
166,0.754,37.057,26.702,31.443,24.197,4.988,6.097,9.628
167,0.761,37.202,26.43,31.462,24.201,4.988,6.138,9.548
168,0.748,37.233,26.661,31.453,24.204,4.988,6.057,9.588
169,0.734,36.955,26.707,31.462,24.201,4.988,6.097,9.588
170,0.738,37.086,26.555,31.453,24.19,4.907,6.016,9.425
171,0.744,37.251,26.69,31.453,24.197,5.069,6.096,9.424
172,0.731,37.271,26.449,31.482,24.204,5.03,6.219,9.424
173,0.738,36.965,26.658,31.482,24.204,5.111,6.22,9.464
174,0.728,37.106,26.457,31.472,24.208,5.071,6.18,9.424
175,0.718,37.203,26.724,31.491,24.208,5.03,6.22,9.342
176,0.721,37.357,26.411,31.492,24.208,5.03,6.18,9.301
177,0.737,37.186,26.657,31.501,24.204,5.03,6.098,9.301
178,0.747,37.347,26.473,31.52,24.215,5.192,6.219,9.423
179,0.741,37.407,26.67,31.511,24.211,5.234,6.22,9.342
180,0.725,36.928,26.711,31.482,24.191,4.991,6.18,9.179
181,0.747,36.952,26.5,31.463,24.197,4.948,6.057,9.137
182,0.747,37.077,26.604,31.491,24.194,4.988,6.056,9.095
183,0.744,37.193,26.421,31.501,24.197,5.029,6.015,9.136
184,0.744,36.974,26.657,31.511,24.197,5.03,6.137,9.136
185,0.751,37.086,26.676,31.492,24.197,5.03,6.057,9.095
186,0.741,37.193,26.559,31.501,24.187,4.907,6.015,9.054
187,0.747,37.328,26.659,31.511,24.208,4.987,6.015,8.973
188,0.747,36.946,26.578,31.501,24.208,5.029,6.218,9.135
189,0.741,37.057,26.749,31.511,24.208,5.07,6.098,9.095
190,0.744,37.183,26.45,31.501,24.201,5.07,6.138,9.136
191,0.741,37.271,26.599,31.52,24.208,5.03,6.138,9.095
192,0.731,36.946,26.257,31.511,24.204,5.03,6.057,9.095
193,0.751,37.105,26.562,31.501,24.201,5.03,6.056,9.014
194,0.748,37.251,26.702,31.549,24.215,5.151,6.178,9.094
195,0.734,37.271,26.641,31.53,24.208,5.153,6.179,9.095
196,0.728,37.07,26.695,31.502,24.197,4.99,6.057,9.014
197,0.731,37.222,26.469,31.511,24.194,4.948,5.975,8.932
198,0.734,37.348,26.72,31.511,24.204,4.947,5.974,8.931
199,0.751,37.378,26.493,31.511,24.204,4.947,6.055,8.931
200,0.761,37.052,26.654,31.511,24.201,4.988,6.015,8.89
201,0.761,37.183,26.383,31.521,24.201,4.988,6.015,8.849
202,0.757,37.261,26.446,31.53,24.201,5.07,6.056,8.808
203,0.751,37.329,26.642,31.502,24.197,4.867,5.975,8.686
204,0.767,37.08,26.504,31.54,24.204,5.068,5.974,8.725
205,0.77,37.203,26.74,31.54,24.208,5.07,6.137,8.888
206,0.761,37.328,26.622,31.559,24.204,5.111,6.098,8.93
207,0.764,37.148,26.585,31.531,24.204,5.193,6.056,8.931
208,0.757,37.059,26.706,31.521,24.204,5.072,6.015,8.89
209,0.754,37.193,26.555,31.53,24.201,5.07,6.056,8.971
210,0.751,37.319,26.667,31.54,24.201,5.07,6.056,8.972
211,0.761,37.032,26.449,31.569,24.218,5.152,6.056,9.094
212,0.757,37.106,26.673,31.54,24.205,5.112,6.097,9.217
213,0.761,37.212,26.41,31.511,24.197,5.03,6.016,9.178
214,0.751,37.309,26.665,31.54,24.197,4.989,5.893,9.137
215,0.761,37.147,26.523,31.521,24.197,5.029,5.973,9.177
216,0.754,37.28,26.573,31.53,24.201,4.989,5.974,9.299
217,0.761,37.425,26.686,31.53,24.197,5.029,5.974,9.382
218,0.748,37.503,26.563,31.549,24.204,5.07,6.055,9.505
219,0.747,36.958,26.686,31.511,24.191,4.908,5.893,9.425
220,0.764,37.134,26.418,31.549,24.197,4.987,5.973,9.505
221,0.78,37.261,26.642,31.598,24.211,5.151,6.015,9.546
222,0.777,37.319,26.414,31.569,24.208,5.112,6.015,9.628
223,0.774,37.061,26.622,31.569,24.208,5.112,6.015,9.588
224,0.774,37.193,26.55,31.569,24.204,5.112,6.015,9.588
225,0.764,37.309,26.581,31.559,24.201,5.152,6.015,9.629
226,0.767,37.378,26.694,31.559,24.204,5.071,6.056,9.507
227,0.777,36.927,26.547,31.588,24.211,5.193,6.056,9.546
228,0.764,37.038,26.756,31.579,24.215,5.112,6.097,9.588
229,0.77,37.125,26.474,31.54,24.198,4.989,5.975,9.466
230,0.761,37.155,26.603,31.55,24.197,4.988,5.933,9.302
231,0.761,37.136,26.437,31.559,24.197,4.988,5.892,9.26
232,0.754,37.27,26.583,31.559,24.201,5.029,6.014,9.259
233,0.757,37.396,26.686,31.559,24.204,5.03,5.974,9.137
234,0.754,37.647,26.563,31.579,24.197,5.07,5.974,9.177
235,0.754,37.016,26.62,31.54,24.19,4.989,5.852,8.974
236,0.761,37.173,26.421,31.569,24.201,5.029,5.932,8.891
237,0.761,37.29,26.689,31.588,24.208,5.151,6.096,9.012
238,0.757,37.099,26.453,31.588,24.204,5.112,6.097,9.013
239,0.767,37.145,26.568,31.598,24.208,5.071,6.097,8.891
240,0.764,37.28,26.667,31.617,24.208,5.152,6.056,8.768
241,0.787,37.368,26.531,31.598,24.201,5.031,6.056,8.767
242,0.784,36.841,26.694,31.579,24.204,5.07,6.015,8.604
243,0.787,36.951,26.52,31.627,24.208,5.193,6.056,8.684
244,0.78,37.057,26.725,31.637,24.215,5.153,6.137,8.766
245,0.78,37.126,26.395,31.589,24.205,5.112,6.057,8.685
246,0.774,36.915,26.606,31.579,24.197,5.071,5.975,8.603
247,0.771,37.038,26.691,31.579,24.197,5.07,5.974,8.521
248,0.767,37.183,26.617,31.569,24.197,5.07,5.933,8.479
249,0.774,37.261,26.656,31.579,24.201,5.03,5.974,8.56
250,0.771,36.917,26.453,31.598,24.201,5.07,6.015,8.48
251,0.757,37.057,26.638,31.579,24.19,4.989,5.974,8.479
252,0.767,37.174,26.461,31.607,24.197,5.029,5.933,8.479
253,0.77,37.251,26.642,31.617,24.215,5.151,6.014,8.56
254,0.751,36.945,26.765,31.627,24.211,5.112,6.056,8.602
255,0.764,37.096,26.376,31.637,24.208,5.071,6.097,8.724
256,0.754,37.222,26.669,31.618,24.204,5.111,6.016,8.644
257,0.751,37.252,26.469,31.608,24.204,5.071,6.056,8.644
258,0.764,37.003,26.654,31.617,24.208,5.03,6.015,8.603
259,0.78,37.173,26.64,31.665,24.215,5.192,6.178,8.643
260,0.774,37.251,26.547,31.627,24.208,5.031,6.139,8.725
261,0.764,37.271,26.647,31.598,24.197,4.948,6.016,8.563
262,0.767,36.85,26.508,31.608,24.201,4.988,5.934,8.561
263,0.764,36.98,26.725,31.627,24.201,5.029,5.974,8.602
264,0.774,37.096,26.524,31.618,24.204,4.989,5.974,8.643
265,0.767,37.04,26.701,31.656,24.201,5.07,6.015,8.603
266,0.77,36.934,26.422,31.627,24.201,5.07,6.056,8.643
267,0.774,37.057,26.622,31.618,24.19,5.03,5.893,8.521
268,0.777,37.174,26.702,31.627,24.197,5.03,5.973,8.52
269,0.771,36.887,26.563,31.646,24.204,5.03,6.096,8.642
270,0.764,36.961,26.667,31.656,24.204,5.151,6.097,8.562
271,0.767,37.096,26.465,31.656,24.204,5.071,6.056,8.521
272,0.764,37.203,26.685,31.656,24.204,5.111,6.097,8.52
273,0.761,36.839,26.449,31.666,24.204,5.152,6.056,8.52
274,0.78,36.98,26.771,31.666,24.204,5.112,6.056,8.52
275,0.767,37.125,26.442,31.704,24.211,5.193,6.219,8.723
276,0.761,37.174,26.599,31.657,24.204,5.153,6.098,8.644
277,0.761,36.945,26.706,31.647,24.197,5.031,6.056,8.521
278,0.754,37.096,26.532,31.666,24.197,5.03,6.056,8.601
279,0.764,37.212,26.62,31.656,24.197,5.111,6.015,8.521
280,0.767,37.309,26.433,31.656,24.197,5.071,6.056,8.683
281,0.774,36.706,26.654,31.675,24.204,5.193,6.097,8.725
282,0.764,36.844,26.461,31.666,24.197,5.072,6.056,8.766
283,0.77,36.961,26.689,31.647,24.194,4.989,5.975,8.685
284,0.78,37.058,26.485,31.694,24.201,5.029,6.055,8.766
285,0.767,36.828,26.623,31.685,24.204,5.151,6.097,8.929
286,0.777,36.96,26.699,31.714,24.204,5.071,6.178,9.012
287,0.777,37.058,26.602,31.705,24.204,5.111,6.057,9.054
288,0.771,37.087,26.687,31.714,24.197,5.152,6.056,9.095
289,0.761,36.771,26.461,31.743,24.204,5.071,6.056,9.258
290,0.774,36.912,26.654,31.705,24.194,5.111,6.097,9.341
291,0.751,37.047,26.437,31.724,24.215,5.234,6.178,9.464
292,0.754,37.365,26.654,31.724,24.205,5.194,6.179,9.587
293,0.751,36.87,26.715,31.686,24.197,5.112,6.017,9.669
294,0.754,37.028,26.539,31.704,24.197,5.03,5.974,9.67
295,0.761,37.145,26.663,31.695,24.194,5.07,5.974,9.873
296,0.754,36.82,26.449,31.704,24.201,5.03,6.015,9.957
297,0.761,36.788,26.716,31.714,24.201,5.07,6.096,10.12
298,0.751,36.931,26.418,31.733,24.201,5.111,6.097,10.203
299,0.757,37.0,26.599,31.676,24.194,4.949,5.975,10.163
300,0.764,36.866,26.663,31.723,24.201,5.029,6.055,10.204
301,0.77,36.98,26.601,31.743,24.211,5.111,6.178,10.407
302,0.774,37.125,26.733,31.753,24.208,5.112,6.179,10.409
303,0.767,37.193,26.602,31.734,24.204,5.152,6.179,10.409
304,0.767,36.801,26.683,31.743,24.204,5.112,6.139,10.409
305,0.767,36.941,26.481,31.753,24.197,5.071,6.179,10.409
306,0.761,37.057,26.709,31.734,24.204,5.03,6.139,10.328
307,0.761,37.154,26.508,31.743,24.208,5.07,6.179,10.327
308,0.764,36.791,26.631,31.772,24.215,5.274,6.301,10.408
309,0.757,36.912,26.433,31.753,24.218,5.113,6.262,10.287
310,0.751,37.028,26.638,31.743,24.198,5.03,6.139,10.123
311,0.751,37.077,26.679,31.734,24.19,4.989,6.138,10.041
312,0.741,36.838,26.594,31.743,24.194,5.029,6.098,9.999
313,0.741,36.999,26.737,31.753,24.201,5.03,6.097,9.917
314,0.734,37.125,26.52,31.753,24.201,5.111,6.138,9.916
315,0.741,37.155,26.67,31.772,24.201,5.071,6.138,9.835
316,0.728,36.906,26.488,31.734,24.19,5.07,6.057,9.712
317,0.751,37.086,26.721,31.743,24.201,5.03,6.137,9.589
318,0.754,37.222,26.376,31.782,24.211,5.111,6.179,9.751
319,0.754,37.262,26.614,31.782,24.211,5.112,6.261,9.712
320,0.754,36.802,26.624,31.792,24.201,5.112,6.262,9.589
321,0.761,36.95,26.617,31.772,24.204,5.071,6.18,9.507
322,0.754,37.057,26.73,31.763,24.204,5.111,6.139,9.465
323,0.741,37.011,26.547,31.782,24.211,5.03,6.138,9.383
324,0.76,36.847,26.655,31.82,24.211,5.111,6.219,9.342
325,0.744,36.961,26.48,31.811,24.204,5.152,6.261,9.382
326,0.738,37.038,26.701,31.782,24.197,5.031,6.139,9.22
327,0.744,36.924,26.422,31.772,24.194,5.03,6.057,9.096
328,0.741,37.048,26.615,31.83,24.194,4.989,6.137,9.014
329,0.741,37.183,26.659,31.792,24.201,5.029,6.179,8.932
330,0.738,37.261,26.574,31.801,24.197,5.03,6.098,9.012
331,0.731,36.687,26.749,31.792,24.204,5.03,6.097,8.932
332,0.718,36.786,26.509,31.782,24.201,4.989,6.097,8.85
333,0.731,36.941,26.713,31.792,24.194,4.988,6.097,8.767
334,0.734,37.067,26.407,31.82,24.204,5.07,6.056,8.807
335,0.738,36.752,26.599,31.821,24.208,5.111,6.259,8.808
336,0.728,36.892,26.726,31.811,24.211,5.071,6.18,8.767
337,0.741,37.019,26.516,31.83,24.204,4.989,6.179,8.726
338,0.741,37.106,26.686,31.83,24.208,5.11,6.057,8.685
339,0.738,36.819,26.422,31.821,24.208,5.03,6.015,8.644
340,0.751,36.999,26.669,31.859,24.211,5.111,6.096,8.603
341,0.754,37.106,26.601,31.85,24.211,5.193,6.3,8.562
342,0.735,37.097,26.655,31.811,24.204,5.031,6.18,8.439
343,0.731,36.647,26.715,31.811,24.197,4.989,5.976,8.316
344,0.731,36.815,26.493,31.83,24.197,5.07,6.055,8.274
345,0.747,36.941,26.627,31.84,24.204,5.03,6.056,8.274
346,0.738,36.981,26.597,31.821,24.208,5.03,6.097,8.274
347,0.738,36.837,26.683,31.83,24.201,5.03,6.178,8.233
348,0.731,36.932,26.445,31.811,24.201,4.948,6.057,8.111
349,0.728,37.076,26.638,31.821,24.204,4.988,5.975,7.987
350,0.741,37.126,26.425,31.869,24.211,5.07,6.137,7.986
351,0.728,36.714,26.654,31.86,24.208,5.03,6.179,8.027
352,0.725,36.854,26.656,31.869,24.208,5.111,6.179,8.068
353,0.728,36.97,26.633,31.85,24.204,4.989,6.139,7.946
354,0.721,36.904,26.624,31.898,24.204,5.029,6.098,7.986
355,0.721,36.884,26.492,31.86,24.204,5.03,6.138,7.946
356,0.721,37.047,26.744,31.869,24.208,5.07,6.098,7.945
357,0.724,37.145,26.466,31.898,24.215,5.152,6.26,8.026
358,0.715,36.714,26.674,31.869,24.205,5.071,6.18,8.068
359,0.721,36.787,26.43,31.85,24.197,5.03,6.057,7.784
360,0.737,36.912,26.654,31.85,24.197,4.907,6.056,7.822
361,0.738,37.028,26.504,31.85,24.197,4.987,6.056,7.781
362,0.731,36.771,26.611,31.869,24.197,4.988,6.056,7.781
363,0.741,36.912,26.659,31.879,24.204,4.988,6.137,7.74
364,0.725,37.028,26.547,31.898,24.201,5.029,6.138,7.781
365,0.731,37.125,26.663,31.869,24.19,4.948,6.057,7.618
366,0.738,36.685,26.488,31.888,24.204,4.947,6.097,7.657
367,0.731,36.844,26.646,31.898,24.204,5.029,6.138,7.698
368,0.725,36.98,26.543,31.908,24.208,5.07,6.219,7.618
369,0.728,37.039,26.522,31.889,24.208,5.07,6.18,7.698
370,0.725,36.636,26.744,31.898,24.201,5.03,6.179,7.658
371,0.718,36.805,26.606,31.888,24.204,5.03,6.139,7.658
372,0.731,36.941,26.737,31.908,24.204,5.03,6.138,7.617
373,0.741,37.0,26.469,31.937,24.211,5.111,6.301,7.698
374,0.715,36.674,26.635,31.927,24.208,5.112,6.221,7.74
375,0.715,36.786,26.39,31.898,24.194,4.989,6.098,7.618
376,0.721,36.922,26.665,31.898,24.197,4.948,6.097,7.535
377,0.718,36.933,26.625,31.898,24.204,4.988,6.016,7.494
378,0.721,36.789,26.5,31.908,24.197,4.907,6.178,7.656
379,0.737,36.941,26.686,31.908,24.201,4.906,6.098,7.658
380,0.731,37.048,26.563,31.917,24.201,4.987,6.097,7.617
381,0.728,37.106,26.737,31.908,24.19,4.866,5.975,7.535
382,0.734,36.771,26.54,31.917,24.197,4.946,6.055,7.534
383,0.734,36.912,26.655,31.965,24.197,5.029,6.137,7.616
384,0.744,37.028,26.445,31.947,24.204,4.989,6.138,7.657
385,0.731,36.636,26.658,31.956,24.204,5.07,6.219,7.617
386,0.738,36.652,26.586,31.947,24.204,5.07,6.18,7.617
387,0.728,36.786,26.538,31.946,24.204,4.989,6.139,7.576
388,0.741,36.893,26.655,31.927,24.204,4.948,6.138,7.535
389,0.728,36.645,26.508,31.965,24.211,5.029,6.138,7.494
390,0.718,36.767,26.733,31.975,24.218,5.111,6.341,7.656
391,0.718,36.854,26.532,31.947,24.198,4.908,6.14,7.658
392,0.708,36.941,26.698,31.937,24.201,4.906,6.098,7.617
393,0.708,36.597,26.407,31.937,24.197,4.947,6.056,7.617
394,0.715,36.747,26.56,31.946,24.197,4.907,6.137,7.698
395,0.702,36.892,26.671,31.956,24.204,4.947,6.098,7.861
396,0.705,36.961,26.57,31.956,24.197,4.988,6.178,8.026
397,0.705,36.54,26.663,31.966,24.197,4.948,6.098,8.149
398,0.718,36.699,26.445,31.956,24.19,4.866,6.056,8.11
399,0.728,36.863,26.693,31.975,24.204,4.906,6.097,8.435
400,0.734,36.903,26.492,31.976,24.208,5.069,6.178,8.682
401,0.738,36.712,26.689,31.995,24.204,5.03,6.179,8.847
402,0.738,36.844,26.563,31.976,24.211,4.989,6.22,9.093
403,0.741,36.951,26.604,32.004,24.211,5.029,6.139,9.298
404,0.731,37.0,26.675,31.976,24.204,4.989,6.138,9.504
405,0.731,36.617,26.516,31.985,24.204,4.907,6.098,9.668
406,0.747,36.786,26.713,32.014,24.204,4.987,6.138,9.873
407,0.728,36.893,26.481,32.033,24.211,5.11,6.219,10.079
408,0.712,36.875,26.646,31.986,24.204,4.989,6.139,10.081
409,0.711,36.654,26.414,31.976,24.201,4.948,6.057,10.162
410,0.721,36.776,26.63,31.966,24.204,4.866,6.015,10.122
411,0.724,36.902,26.445,31.985,24.194,4.946,6.096,10.203
412,0.708,36.798,26.595,32.004,24.204,4.907,6.097,10.204
413,0.715,36.72,26.612,32.005,24.208,4.987,6.138,10.285
414,0.702,36.844,26.48,31.985,24.201,4.988,6.138,10.164
415,0.714,36.951,26.693,31.976,24.194,4.826,5.976,10.163
416,0.711,37.719,26.407,32.004,24.204,4.987,6.096,10.082
417,0.721,37.919,26.626,32.033,24.208,5.029,6.138,10.162
418,0.718,38.026,26.39,32.034,24.208,5.03,6.179,10.163
419,0.731,38.104,26.645,32.034,24.208,5.07,6.139,10.204
420,0.725,35.822,26.738,32.024,24.204,4.989,6.098,10.123
421,0.734,35.905,26.555,32.014,24.201,4.988,6.097,10.081
422,0.747,36.059,26.663,32.033,24.204,5.029,6.097,9.999
423,0.728,36.186,26.441,32.062,24.211,5.07,6.138,9.999
424,0.728,36.685,26.63,32.063,24.211,5.07,6.219,9.999
425,0.728,36.815,26.523,32.024,24.201,4.908,6.098,9.917
426,0.718,36.941,26.6,32.024,24.197,4.865,6.056,9.754
427,0.724,37.0,26.39,32.034,24.197,4.946,6.015,9.793
428,0.724,36.31,26.595,32.043,24.197,4.947,5.974,9.549
429,0.721,36.456,26.706,32.034,24.208,4.907,5.974,9.588
430,0.721,36.583,26.555,32.024,24.201,4.947,6.055,9.547
431,0.705,36.613,26.659,32.024,24.194,4.866,6.015,9.425
432,0.715,36.488,26.434,32.043,24.194,4.906,5.974,9.302
433,0.721,36.64,26.662,32.062,24.208,4.947,6.096,9.382
434,0.718,36.738,26.426,32.063,24.211,4.988,6.056,9.382
435,0.715,36.787,26.615,32.063,24.204,5.029,6.015,9.342
436,0.708,36.5,26.656,32.072,24.204,4.989,6.056,9.301
437,0.711,36.66,26.488,32.072,24.208,4.988,6.056,9.26
438,0.731,36.767,26.678,32.082,24.201,4.988,6.056,9.219
439,0.747,37.161,26.457,32.111,24.204,4.988,6.137,9.259
440,0.738,36.618,26.65,32.111,24.208,5.029,6.219,9.3
441,0.734,36.738,26.43,32.073,24.194,4.948,6.017,9.138
442,0.741,36.854,26.521,32.072,24.201,4.866,5.974,9.136
443,0.728,36.481,26.643,32.053,24.197,4.824,5.974,9.095
444,0.734,36.468,26.484,32.091,24.197,4.824,6.015,9.176
445,0.731,36.602,26.713,32.073,24.201,4.865,6.015,9.259
446,0.728,36.718,26.376,32.082,24.201,4.906,6.056,9.219
447,0.715,36.365,26.614,32.082,24.197,4.906,5.975,9.259
448,0.737,36.486,26.441,32.072,24.197,4.784,5.893,9.097
449,0.738,36.631,26.673,32.101,24.204,4.986,6.014,9.217
450,0.721,36.709,26.687,32.111,24.211,4.988,6.096,9.218
451,0.715,36.345,26.473,32.121,24.201,4.948,6.056,9.3
452,0.724,36.476,26.619,32.121,24.204,5.029,6.056,9.138
453,0.728,36.602,26.488,32.111,24.204,4.907,5.975,9.136
454,0.721,36.69,26.662,32.111,24.208,4.987,6.055,9.136
455,0.724,36.451,26.476,32.13,24.211,4.988,6.015,9.095
456,0.718,36.592,26.674,32.15,24.215,5.029,6.137,9.217
457,0.728,36.689,26.395,32.102,24.201,4.948,6.016,8.974
458,0.721,36.738,26.626,32.101,24.197,4.785,5.934,8.972
459,0.728,36.394,26.699,32.101,24.204,4.864,5.974,8.891
460,0.728,36.534,26.594,32.14,24.201,4.865,5.974,8.89
461,0.728,36.67,26.624,32.121,24.204,4.987,5.974,8.768
462,0.728,36.709,26.503,32.13,24.197,4.907,6.015,8.767
463,0.725,36.432,26.639,32.102,24.194,4.865,5.893,8.767
464,0.728,36.592,26.453,32.121,24.197,4.865,5.811,8.645
465,0.731,36.718,26.716,32.149,24.208,5.028,5.972,8.684
466,0.731,36.748,26.43,32.159,24.208,4.989,6.015,8.725
467,0.731,36.413,26.63,32.159,24.201,4.988,5.974,8.685
468,0.721,36.553,26.461,32.159,24.208,4.948,5.974,8.603
469,0.728,36.641,26.689,32.14,24.208,4.988,6.015,8.602
470,0.721,36.594,26.66,32.15,24.201,4.988,5.893,8.602
471,0.728,36.488,26.508,32.188,24.211,4.948,6.014,8.48
472,0.721,36.612,26.686,32.198,24.215,5.069,6.096,8.56
473,0.715,36.69,26.426,32.16,24.205,4.908,5.894,8.358
474,0.708,36.364,26.642,32.14,24.201,4.865,5.851,8.234
475,0.718,36.419,26.429,32.13,24.194,4.824,5.891,8.233
476,0.718,36.582,26.626,32.159,24.201,4.824,5.892,8.233
477,0.715,36.661,26.425,32.159,24.201,4.865,5.811,8.111
478,0.715,36.355,26.685,32.179,24.197,4.906,5.972,8.191
479,0.724,36.438,26.606,32.16,24.187,4.825,5.852,8.11
480,0.731,36.592,26.527,32.169,24.201,4.865,5.81,8.028
481,0.731,36.718,26.557,32.207,24.215,4.946,5.932,8.109
482,0.741,36.23,26.503,32.189,24.211,4.947,5.933,8.15
483,0.728,36.36,26.682,32.198,24.204,4.947,5.974,8.11
484,0.734,36.486,26.484,32.198,24.204,4.947,5.893,8.109
485,0.734,36.545,26.615,32.198,24.208,4.947,5.892,8.069
486,0.728,36.296,26.667,32.208,24.204,4.947,5.892,7.987
487,0.734,36.495,26.523,32.227,24.211,4.988,6.014,8.108
488,0.731,36.573,26.74,32.218,24.211,5.029,6.015,8.191
489,0.721,36.613,26.427,32.198,24.191,4.867,5.934,8.11
490,0.715,36.364,26.646,32.189,24.201,4.865,5.852,8.109
491,0.698,36.515,26.453,32.198,24.194,4.865,5.851,8.191
492,0.718,36.641,26.584,32.198,24.201,4.865,5.851,8.314
493,0.711,36.68,26.694,32.217,24.194,4.946,5.851,8.477
494,0.711,36.297,26.609,32.218,24.201,4.907,5.973,8.601
495,0.708,36.408,26.663,32.189,24.194,4.825,5.852,8.684
496,0.724,36.582,26.437,32.217,24.197,4.824,5.769,8.725
497,0.734,36.757,26.685,32.218,24.204,4.905,5.891,8.929
498,0.741,36.423,26.613,32.237,24.204,4.987,5.933,9.053
499,0.734,36.563,26.538,32.237,24.197,4.907,5.974,9.013
500,0.731,36.689,26.631,32.266,24.204,4.906,6.015,9.054
501,0.728,36.307,26.429,32.237,24.204,4.906,5.974,9.135
502,0.747,36.274,26.677,32.227,24.204,4.987,5.933,9.055
503,0.751,36.447,26.481,32.256,24.201,4.948,5.892,9.135
504,0.744,36.496,26.721,32.275,24.218,5.069,6.054,9.217
505,0.728,36.228,26.379,32.266,24.205,4.989,5.975,9.096
506,0.721,36.341,26.599,32.237,24.194,4.866,5.811,8.973
507,0.731,36.476,26.659,32.237,24.197,4.865,5.891,8.972
508,0.734,36.554,26.562,32.256,24.197,4.865,5.811,8.85
509,0.728,36.133,26.624,32.247,24.204,4.906,5.891,8.889
510,0.734,36.263,26.449,32.247,24.204,4.906,5.892,8.971
511,0.721,36.399,26.619,32.237,24.197,4.865,5.933,8.972
512,0.721,36.467,26.437,32.237,24.19,4.824,5.77,8.931
513,0.747,36.381,26.701,32.266,24.208,4.946,5.931,8.931
514,0.744,36.515,26.516,32.285,24.204,4.988,5.974,9.053
515,0.751,36.67,26.674,32.276,24.208,4.907,5.974,9.013
516,0.78,36.719,26.453,32.285,24.208,4.906,5.974,9.054
517,0.797,36.163,26.615,32.276,24.208,4.906,5.974,9.095
518,0.807,36.321,26.687,32.295,24.204,4.906,5.974,9.136
519,0.836,36.476,26.543,32.333,24.204,4.947,5.974,9.217
520,0.82,36.516,26.678,32.305,24.215,4.988,6.055,9.503
521,0.823,37.254,26.473,32.295,24.198,4.907,5.975,9.465
522,0.82,37.377,26.658,32.257,24.204,4.865,5.852,9.587
523,0.82,37.493,26.715,32.266,24.208,4.784,5.891,9.751
524,0.817,37.504,26.551,32.295,24.197,4.905,5.892,9.996
525,0.813,35.586,26.671,32.295,24.197,4.987,5.892,10.161
526,0.836,35.711,26.5,32.295,24.208,4.907,5.892,10.366
527,0.826,35.798,26.697,32.276,24.191,4.784,5.892,10.449
528,0.823,36.624,26.375,32.285,24.204,4.864,5.851,10.45
529,0.804,37.38,26.638,32.314,24.204,4.987,5.932,10.572
530,0.816,37.493,26.609,32.324,24.208,4.948,6.014,10.696
531,0.8,37.6,26.593,32.314,24.201,4.988,5.974,10.737
532,0.797,35.75,26.741,32.333,24.204,4.988,5.974,10.738
533,0.794,35.53,26.583,32.324,24.208,4.907,5.974,10.738
534,0.797,35.701,26.679,32.324,24.204,4.906,5.893,10.657
535,0.807,35.818,26.422,32.353,24.218,5.028,6.136,10.778
536,0.797,36.231,26.677,32.324,24.205,4.989,5.976,10.657
537,0.8,36.36,26.402,32.295,24.201,4.826,5.933,10.574
538,0.807,36.524,26.556,32.343,24.194,4.824,5.852,10.574
539,0.826,36.593,26.635,32.343,24.201,4.865,5.891,10.492
540,0.836,35.989,26.543,32.343,24.194,4.865,5.892,10.614
541,0.833,36.127,26.721,32.334,24.201,4.865,5.933,10.574
542,0.823,36.215,26.52,32.305,24.201,4.906,5.892,10.492
543,0.823,36.331,26.674,32.314,24.197,4.744,5.811,10.369
544,0.846,36.102,26.332,32.372,24.204,4.905,5.891,10.328
545,0.833,36.253,26.594,32.353,24.204,4.947,5.973,10.408
546,0.843,36.379,26.687,32.363,24.204,4.947,5.933,10.328
547,0.833,36.419,26.586,32.353,24.208,4.907,5.933,10.286
548,0.839,36.074,26.671,32.372,24.204,4.825,5.892,10.123
549,0.843,36.234,26.508,32.353,24.204,4.824,5.933,10.081
550,0.859,36.369,26.717,32.391,24.211,4.987,6.014,10.04
551,0.84,36.4,26.602,32.373,24.218,4.948,6.015,10.04
552,0.846,36.112,26.722,32.353,24.201,4.866,5.934,9.836
553,0.846,36.224,26.489,32.353,24.201,4.865,5.852,9.712
554,0.836,36.379,26.623,32.353,24.197,4.824,5.932,9.67
555,0.839,36.409,26.64,32.363,24.204,4.865,5.974,9.629
556,0.813,36.189,26.589,32.382,24.201,4.906,5.893,9.548
557,0.803,36.321,26.64,32.392,24.208,4.906,5.973,9.506
558,0.803,36.418,26.472,32.353,24.194,4.825,5.811,9.425
559,0.807,36.247,26.674,32.391,24.204,4.824,5.891,9.342
560,0.803,36.178,26.516,32.401,24.208,4.987,6.014,9.342
561,0.807,36.311,26.709,32.401,24.201,4.988,6.015,9.342
562,0.813,36.399,26.508,32.392,24.204,4.907,6.015,9.219
563,0.807,36.064,26.576,32.392,24.208,4.906,5.974,9.137
564,0.79,36.166,26.643,32.401,24.204,4.906,5.974,9.095
565,0.803,36.311,26.566,32.411,24.204,4.906,5.974,9.054
566,0.8,36.428,26.721,32.43,24.208,5.069,6.055,9.176
567,0.787,36.122,26.477,32.411,24.211,4.948,6.015,9.015
568,0.797,36.244,26.654,32.411,24.201,4.866,5.974,8.85
569,0.784,36.37,26.453,32.392,24.197,4.824,5.974,8.727
570,0.78,36.467,26.701,32.401,24.201,4.865,5.933,8.726
571,0.78,36.007,26.457,32.401,24.204,4.865,5.974,8.685
572,0.771,36.175,26.619,32.421,24.201,4.906,5.893,8.807
573,0.764,36.273,26.499,32.43,24.201,4.865,5.933,8.808
574,0.787,36.341,26.518,32.383,24.19,4.743,5.852,8.889
575,0.793,36.303,26.701,32.43,24.204,4.864,5.973,9.012
576,0.79,36.466,26.469,32.44,24.208,4.906,6.015,9.338
577,0.793,36.583,26.646,32.44,24.208,4.987,5.974,9.423
578,0.787,36.641,26.379,32.45,24.204,4.907,6.055,9.627
579,0.79,35.923,26.614,32.45,24.204,4.865,6.015,9.67
580,0.784,36.059,26.648,32.459,24.204,4.865,5.974,9.914
581,0.803,36.186,26.492,32.45,24.204,4.906,5.974,10.079
582,0.81,36.244,26.654,32.469,24.218,5.069,6.096,10.365
583,0.79,36.12,26.406,32.508,24.208,5.03,6.097,10.49
584,0.767,36.234,26.607,32.431,24.197,4.907,5.935,10.532
585,0.761,36.36,26.46,32.43,24.194,4.865,5.892,10.573
586,0.764,36.591,26.56,32.459,24.194,4.865,5.851,10.655
587,0.757,36.105,26.659,32.46,24.204,4.906,5.973,10.737
588,0.754,36.243,26.476,32.479,24.204,4.906,5.933,10.779
589,0.728,36.322,26.72,32.431,24.201,4.906,5.974,10.82
590,0.751,36.054,26.434,32.44,24.194,4.825,5.852,10.698
591,0.728,36.128,26.611,32.478,24.201,4.905,5.851,10.819
592,0.728,36.263,26.456,32.498,24.211,4.987,6.013,10.983
593,0.725,36.37,26.517,32.479,24.208,4.948,6.015,10.903
594,0.702,35.978,26.655,32.469,24.204,4.907,6.056,10.902
595,0.705,36.07,26.57,32.488,24.208,4.947,5.975,10.943
596,0.698,36.205,26.628,32.469,24.204,4.947,5.893,10.943
597,0.714,36.321,26.507,32.498,24.208,4.866,5.973,10.902
598,0.711,36.044,26.701,32.527,24.215,5.028,6.137,10.943
599,0.711,36.147,26.532,32.508,24.194,4.948,6.057,10.862
600,0.702,36.244,26.686,32.489,24.194,4.907,5.934,10.739
601,0.701,36.36,26.391,32.479,24.197,4.825,5.892,10.657
602,0.708,36.006,26.56,32.488,24.201,4.824,5.892,10.656
603,0.708,36.137,26.39,32.498,24.197,4.905,5.851,10.656
604,0.711,36.273,26.614,32.498,24.201,4.865,5.932,10.574
605,0.705,36.341,26.499,32.508,24.201,4.946,5.892,10.411
606,0.698,35.977,26.592,32.517,24.19,4.825,5.933,10.369
607,0.705,36.146,26.636,32.508,24.197,4.824,5.811,10.206
608,0.708,36.282,26.523,32.517,24.204,4.905,5.932,10.204
609,0.708,36.322,26.721,32.527,24.208,5.069,5.892,10.245
610,0.698,36.044,26.419,32.527,24.208,4.948,6.014,10.123
611,0.698,36.205,26.568,32.546,24.208,4.988,5.974,10.041
612,0.695,36.321,26.593,32.575,24.204,4.907,5.933,9.999
613,0.701,36.322,26.503,32.537,24.201,4.906,5.892,9.836
614,0.708,36.044,26.658,32.527,24.208,4.947,5.933,9.794
615,0.718,36.166,26.508,32.575,24.208,4.988,5.974,9.834
616,0.715,36.263,26.678,32.518,24.194,4.948,5.933,9.672
617,0.718,36.168,26.406,32.527,24.194,4.825,5.852,9.548
618,0.721,36.091,26.669,32.518,24.197,4.905,5.851,9.425
619,0.731,36.243,26.711,32.527,24.201,4.906,5.891,9.424
620,0.747,36.35,26.52,32.527,24.197,4.947,5.892,9.424
621,0.757,35.891,26.623,32.594,24.197,4.947,5.933,9.302
622,0.767,35.963,26.464,32.538,24.197,4.866,5.852,9.26
623,0.813,36.098,26.65,32.547,24.19,4.824,5.769,9.178
624,0.842,36.196,26.453,32.575,24.211,4.987,5.931,9.218
625,0.866,36.062,26.591,32.576,24.201,4.988,5.974,9.3
626,0.898,36.224,26.402,32.585,24.204,4.988,6.015,9.301
627,0.947,36.331,26.63,32.566,24.208,4.948,5.852,9.341
628,1.006,36.409,26.71,32.556,24.204,4.907,5.973,9.301
629,1.069,35.873,26.524,32.575,24.208,4.987,5.974,9.219
630,1.138,36.088,26.639,32.595,24.211,4.988,6.015,9.178
631,1.164,36.176,26.558,32.595,24.218,5.11,6.015,9.299
632,1.174,36.215,26.663,32.566,24.198,4.908,5.893,9.178
633,1.249,36.014,26.5,32.566,24.201,4.947,5.892,9.055
634,1.296,36.147,26.686,32.556,24.204,4.907,5.892,9.054
635,1.374,36.282,26.387,32.585,24.204,4.947,5.933,9.095
636,1.463,36.36,26.614,32.595,24.201,4.947,5.933,9.095
637,1.529,35.92,26.441,32.595,24.208,4.947,5.933,9.054
638,1.604,36.069,26.654,32.566,24.191,4.785,5.811,8.973
639,1.677,36.214,26.527,32.585,24.204,4.986,5.972,8.972
640,1.746,36.273,26.58,32.614,24.204,4.988,6.015,9.013
641,1.821,36.447,26.663,32.595,24.204,4.948,6.056,8.972
642,1.88,36.563,26.547,32.605,24.204,4.947,6.015,8.891
643,1.891,36.67,26.709,32.605,24.201,4.907,6.015,8.971
644,1.927,36.968,26.469,32.605,24.204,4.947,5.974,8.972
645,1.989,35.638,26.681,32.624,24.208,5.069,5.974,9.013
646,2.035,35.759,26.418,32.624,24.211,5.111,6.096,9.338
647,2.055,35.837,26.669,32.605,24.208,4.989,6.016,9.342
648,2.071,36.059,26.387,32.595,24.197,4.907,5.974,9.342
649,2.068,36.233,26.602,32.605,24.197,4.906,5.893,9.423
650,2.088,36.35,26.648,32.614,24.201,4.947,5.933,9.627
651,2.068,36.457,26.527,32.605,24.204,4.947,5.933,9.792
652,2.029,35.643,26.713,32.605,24.204,4.947,6.055,9.915
653,2.016,35.683,26.493,32.605,24.194,4.866,6.015,9.876
654,1.983,35.856,26.627,32.605,24.197,4.906,5.893,9.957
655,1.931,35.973,26.406,32.643,24.204,5.028,6.054,10.08
656,1.823,36.002,26.653,32.634,24.204,4.989,6.056,10.203
657,1.747,36.118,26.582,32.643,24.204,5.07,6.056,10.245
658,1.629,36.272,26.503,32.634,24.204,5.03,6.056,10.286
659,1.501,36.351,26.678,32.634,24.197,5.03,6.056,10.245
660,1.357,35.814,26.535,32.643,24.204,5.03,6.015,10.245
661,1.261,35.982,26.709,32.663,24.208,5.111,6.137,10.448
662,1.117,36.098,26.5,32.663,24.208,5.071,6.098,10.694
663,0.972,36.138,26.697,32.634,24.194,4.989,6.056,10.737
664,0.834,35.832,26.379,32.624,24.197,4.907,5.934,10.9
665,0.703,35.982,26.626,32.643,24.197,4.906,5.933,11.227
666,0.578,36.108,26.445,32.663,24.201,4.987,5.974,11.515
667,0.46,36.148,26.568,32.663,24.201,4.988,6.055,11.925
668,0.354,35.812,26.643,32.663,24.204,4.948,6.015,12.335
669,0.252,35.953,26.504,32.634,24.194,4.866,5.893,12.543
670,0.173,36.108,26.69,32.662,24.204,5.028,6.095,13.033
671,0.101,36.138,26.446,32.682,24.204,5.111,6.097,13.607
672,0.058,35.86,26.658,32.673,24.204,4.989,6.056,13.857
673,0.028,36.011,26.656,32.682,24.208,5.07,6.056,14.144
674,-0.021,36.137,26.504,32.682,24.201,5.03,6.015,14.309
675,-0.047,36.042,26.658,32.673,24.204,5.07,6.056,14.433
676,-0.051,35.85,26.527,32.692,24.204,4.989,6.015,14.556
677,-0.035,35.992,26.635,32.711,24.211,5.192,6.137,14.72
678,-0.008,36.089,26.371,32.682,24.204,5.072,6.016,14.722
679,0.05,35.841,26.595,32.663,24.194,4.989,5.974,14.599
680,0.08,35.915,26.722,32.663,24.197,4.948,5.933,14.517
681,0.126,36.059,26.579,32.682,24.204,5.069,6.014,14.516
682,0.156,36.147,26.679,32.692,24.204,4.989,5.974,14.475
683,0.189,35.832,26.395,32.692,24.201,5.07,6.055,14.434
684,0.225,35.934,26.61,32.663,24.194,5.03,5.934,14.434
685,0.267,36.098,26.437,32.701,24.194,4.989,5.933,14.353
686,0.31,36.167,26.693,32.721,24.204,5.151,6.055,14.596
687,0.343,35.745,26.438,32.711,24.208,5.112,6.056,14.72
688,0.392,35.885,26.576,32.721,24.197,5.112,5.975,14.803
689,0.412,36.011,26.702,32.721,24.201,5.152,6.055,14.966
690,0.451,36.089,26.512,32.711,24.201,5.112,6.056,15.212
691,0.497,35.802,26.674,32.702,24.208,5.03,6.015,15.377
692,0.511,35.962,26.406,32.749,24.211,5.233,6.096,15.582
693,0.534,36.079,26.532,32.721,24.211,5.194,6.138,15.828
694,0.534,36.128,26.584,32.711,24.201,5.031,5.935,15.83
695,0.553,35.831,26.569,32.702,24.194,5.07,5.974,15.912
696,0.576,35.972,26.655,32.711,24.197,5.03,5.974,15.953
697,0.606,36.127,26.519,32.721,24.201,5.07,5.893,16.076
698,0.619,36.167,26.666,32.75,24.204,5.07,6.014,16.077
699,0.636,35.726,26.539,32.74,24.201,5.111,5.974,16.077
700,0.636,35.837,26.725,32.721,24.194,5.03,6.015,15.955
701,0.652,35.982,26.477,32.73,24.197,4.989,5.934,15.791
702,0.662,36.041,26.627,32.75,24.208,5.151,5.974,15.789
703,0.662,35.792,26.34,32.759,24.211,5.153,6.055,15.667
704,0.662,35.924,26.583,32.74,24.208,5.153,6.015,15.503
705,0.656,36.031,26.69,32.769,24.204,5.112,6.056,15.258
706,0.662,36.789,26.469,32.779,24.208,5.152,6.056,15.011
707,0.659,37.075,26.666,32.779,24.208,5.071,6.056,14.806
708,0.669,37.231,26.465,32.769,24.208,5.152,6.056,14.56
709,0.656,37.348,26.705,32.788,24.215,5.315,6.097,14.476
710,0.659,35.24,26.465,32.769,24.211,5.154,6.097,14.312
711,0.643,35.189,26.592,32.74,24.198,5.071,6.016,14.026
712,0.652,35.343,26.593,32.75,24.194,4.989,5.893,13.901
713,0.655,35.44,26.523,32.779,24.194,5.11,5.933,13.778
714,0.652,35.777,26.651,32.779,24.204,5.03,5.974,13.736
715,0.652,35.933,26.574,32.769,24.204,5.111,5.974,13.492
716,0.655,36.04,26.628,32.769,24.194,5.071,6.015,13.367
717,0.665,36.128,26.421,32.75,24.19,4.989,5.812,13.163
718,0.669,35.573,26.697,32.798,24.204,5.192,5.932,13.039
719,0.675,35.701,26.492,32.789,24.208,5.112,6.096,12.916
720,0.675,35.846,26.643,32.798,24.197,5.152,5.975,12.752
721,0.682,35.915,26.359,32.808,24.204,5.071,6.015,12.547
722,0.688,35.705,26.626,32.875,24.204,5.152,5.974,12.342
723,0.692,35.866,26.636,32.809,24.204,5.071,5.933,12.177
724,0.711,36.001,26.543,32.837,24.208,5.111,5.974,12.013
725,0.689,36.041,26.725,32.827,24.215,5.193,6.055,11.97
726,0.679,35.62,26.434,32.808,24.194,5.072,6.015,11.685
727,0.675,35.759,26.634,32.789,24.197,5.03,5.893,11.479
728,0.685,35.885,26.422,32.808,24.197,5.07,5.851,11.233
729,0.675,35.934,26.607,32.808,24.197,5.07,5.973,11.149
730,0.691,35.734,26.613,32.798,24.204,5.03,5.933,10.945
731,0.669,35.875,26.511,32.817,24.204,5.07,6.014,10.902
732,0.669,35.973,26.627,32.798,24.201,4.908,5.893,10.699
733,0.695,36.127,26.418,32.827,24.197,4.947,5.933,10.534
734,0.682,35.668,26.673,32.827,24.204,5.191,5.974,10.532
735,0.688,35.798,26.5,32.827,24.201,5.112,6.096,10.41
736,0.685,35.905,26.553,32.837,24.204,5.152,5.975,10.247
737,0.692,35.637,26.678,32.827,24.204,5.071,5.974,10.245
738,0.698,35.683,26.594,32.837,24.201,5.07,5.974,10.245
739,0.708,35.837,26.636,32.856,24.204,5.07,5.893,10.123
740,0.698,35.953,26.39,32.885,24.218,5.274,6.054,10.163
741,0.701,35.628,26.645,32.857,24.205,5.154,6.056,10.122
742,0.698,35.75,26.414,32.837,24.197,4.99,5.853,10.041
743,0.695,35.876,26.634,32.847,24.194,4.988,5.769,10.08
744,0.698,35.954,26.671,32.837,24.201,5.029,5.891,10.162
745,0.698,35.532,26.57,32.914,24.208,5.07,5.933,10.244
746,0.705,35.682,26.671,32.867,24.204,5.07,5.892,10.286
747,0.702,35.779,26.539,32.828,24.194,5.03,5.933,10.327
748,0.714,35.885,26.686,32.837,24.197,4.989,5.892,10.246
749,0.695,35.618,26.356,32.895,24.204,5.11,5.973,10.448
750,0.705,35.778,26.637,32.886,24.211,5.112,5.974,10.491
751,0.698,35.895,26.433,32.885,24.208,5.071,6.055,10.532
752,0.692,35.954,26.673,32.876,24.208,5.03,5.975,10.614
753,0.698,35.628,26.453,32.876,24.201,5.07,5.974,10.574
754,0.695,35.788,26.564,32.885,24.204,5.07,6.055,10.492
755,0.695,35.953,26.675,32.914,24.211,5.07,5.934,10.491
756,0.708,35.954,26.496,32.905,24.215,5.111,6.096,10.654
757,0.695,35.648,26.732,32.886,24.198,5.112,6.016,10.534
758,0.692,35.779,26.426,32.876,24.201,4.989,5.893,10.41
759,0.695,35.914,26.622,32.885,24.194,5.029,5.973,10.206
760,0.695,35.944,26.406,32.895,24.201,5.03,5.933,10.245
761,0.714,35.638,26.638,32.895,24.204,4.948,6.014,10.204
762,0.715,35.779,26.472,32.895,24.197,4.988,5.974,10.123
763,0.708,35.857,26.697,32.857,24.194,4.988,5.974,9.959
764,0.708,35.79,26.375,32.876,24.197,4.907,5.893,9.917
765,0.711,35.742,26.602,32.895,24.204,5.069,6.054,9.957
766,0.708,35.875,26.554,32.905,24.208,5.07,5.975,9.917
767,0.708,35.982,26.592,32.914,24.208,5.111,6.055,9.794
768,0.705,35.6,26.675,32.991,24.204,4.989,6.015,9.712
769,0.705,35.701,26.461,32.925,24.204,5.029,6.015,9.589
770,0.711,35.837,26.67,32.895,24.208,4.989,6.056,9.547
771,0.705,35.972,26.492,32.943,24.208,5.151,6.097,9.506
772,0.692,35.552,26.693,32.915,24.204,5.112,6.097,9.546
773,0.685,35.663,26.438,32.886,24.197,4.989,5.975,9.344
774,0.659,35.798,26.58,32.914,24.197,4.907,5.933,9.179
775,0.698,35.905,26.604,32.886,24.197,4.947,5.933,9.096
776,0.695,36.836,26.566,32.905,24.201,4.988,5.933,9.095
777,0.688,36.97,26.628,32.924,24.204,4.988,5.974,9.014
778,0.672,37.086,26.453,32.915,24.197,5.029,5.974,8.972
779,0.708,37.126,26.654,32.905,24.197,4.948,5.893,8.809
780,0.724,34.883,26.469,32.934,24.197,4.988,5.973,8.848
781,0.728,35.032,26.701,32.934,24.204,5.07,6.015,8.93
782,0.738,35.159,26.438,32.934,24.208,5.03,6.056,8.89
783,0.715,35.218,26.595,32.924,24.208,5.03,5.975,8.727
784,0.728,35.621,26.62,32.953,24.204,4.989,5.933,8.766
785,0.712,35.769,26.519,32.944,24.201,5.029,5.974,8.685
786,0.715,35.905,26.721,32.943,24.204,4.989,5.933,8.644
787,0.718,35.954,26.465,33.02,24.215,5.11,6.136,8.644
788,0.711,35.532,26.634,32.935,24.208,5.03,5.976,8.562
789,0.705,35.662,26.429,32.915,24.194,4.948,5.933,8.399
790,0.695,35.779,26.654,32.943,24.204,4.988,5.852,8.275
791,0.695,36.164,26.695,32.934,24.194,4.948,5.891,8.314
792,0.695,35.554,26.5,32.943,24.204,4.866,5.973,8.274
793,0.695,35.663,26.572,32.963,24.204,4.987,5.933,8.314
794,0.701,35.75,26.421,32.934,24.201,4.907,5.892,8.315
795,0.698,35.578,26.657,32.934,24.201,4.906,5.77,8.193
796,0.718,35.625,26.387,32.953,24.204,4.987,5.85,8.314
797,0.711,35.759,26.571,32.982,24.208,5.07,5.973,8.437
798,0.711,35.866,26.64,32.963,24.208,5.07,6.015,8.601
799,0.715,35.551,26.601,32.972,24.197,5.03,5.974,8.602
800,0.708,35.653,26.702,32.982,24.204,4.948,5.974,8.765
801,0.724,35.807,26.469,32.973,24.204,5.029,5.893,8.807
802,0.728,35.915,26.642,32.982,24.208,5.07,5.973,8.93
803,0.721,35.427,26.488,33.011,24.215,5.193,6.055,9.134
804,0.718,35.537,26.65,32.992,24.211,5.112,6.015,9.217
805,0.721,35.662,26.465,32.973,24.194,4.949,5.934,9.096
806,0.715,35.74,26.58,32.973,24.201,4.988,5.852,9.217
807,0.721,35.482,26.394,32.982,24.197,4.948,5.891,9.218
808,0.708,35.633,26.626,32.982,24.201,5.029,5.973,9.259
809,0.715,35.75,26.624,32.982,24.208,5.03,5.974,9.259
810,0.708,35.808,26.621,32.992,24.204,4.989,5.974,9.341
811,0.702,35.416,26.624,32.963,24.191,4.948,5.852,9.219
812,0.711,35.613,26.464,33.02,24.197,4.907,5.891,9.3
813,0.711,35.74,26.674,33.011,24.204,5.109,5.973,9.382
814,0.689,35.77,26.395,33.002,24.204,5.112,6.015,9.342
815,0.698,35.502,26.7,33.002,24.201,5.03,5.974,9.382
816,0.701,35.653,26.571,33.021,24.204,4.989,6.015,9.423
817,0.711,35.779,26.511,33.002,24.204,5.11,5.974,9.464
818,0.724,35.818,26.705,33.011,24.204,5.152,6.015,9.505
819,0.715,35.569,26.473,33.03,24.211,5.153,6.137,9.709
820,0.718,35.682,26.596,33.031,24.204,5.112,5.976,9.752
821,0.715,35.808,26.386,33.011,24.201,5.03,5.893,9.793
822,0.721,35.723,26.614,33.011,24.194,5.03,5.973,9.793
823,0.711,35.559,26.402,33.011,24.194,4.989,5.974,9.834
824,0.715,35.701,26.603,33.011,24.201,5.029,5.974,9.956
825,0.711,35.808,26.679,33.03,24.201,5.03,5.933,9.998
826,0.708,35.483,26.481,32.992,24.204,5.07,5.974,10.039
827,0.708,35.556,26.662,32.992,24.194,4.867,5.893,9.999
828,0.705,35.711,26.453,33.03,24.204,5.028,5.933,9.917
829,0.705,35.827,26.611,33.04,24.208,5.111,6.014,10.161
830,0.705,35.474,26.566,33.04,24.204,5.03,5.974,10.082
831,0.698,35.614,26.542,33.04,24.204,5.03,5.974,10.081
832,0.692,35.721,26.667,33.04,24.211,4.989,5.974,10.121
833,0.701,35.837,26.48,33.031,24.204,5.07,6.015,10.081
834,0.708,35.646,26.658,33.05,24.208,5.03,6.056,9.959
835,0.702,35.817,26.367,33.069,24.218,5.111,6.137,10.08
836,0.692,35.915,26.602,33.05,24.208,5.152,6.057,10.04
837,0.688,35.983,26.413,33.021,24.197,4.99,5.934,9.918
838,0.695,35.322,26.595,33.031,24.19,4.948,5.933,9.876
839,0.698,35.497,26.597,33.05,24.201,4.947,5.892,9.916
840,0.711,35.633,26.476,33.05,24.201,5.029,6.014,9.876
841,0.705,35.673,26.65,33.05,24.201,5.07,6.056,9.835
842,0.695,36.421,26.449,33.021,24.197,5.03,5.975,9.834
843,0.724,36.582,26.638,33.031,24.19,4.907,5.933,9.712
844,0.741,36.689,26.707,33.059,24.208,5.069,5.974,9.711
845,0.718,36.748,26.539,33.079,24.208,5.07,5.974,9.752
846,0.705,34.955,26.565,33.06,24.204,5.03,5.974,9.752
847,0.695,35.1,26.62,33.069,24.204,5.07,6.055,9.671
848,0.701,35.198,26.66,33.06,24.211,4.989,6.015,9.548
849,0.711,35.247,26.531,33.06,24.201,4.988,6.015,9.506
850,0.708,35.535,26.686,33.088,24.204,5.07,6.015,9.425
851,0.685,35.662,26.512,33.098,24.218,5.152,6.096,9.505
852,0.679,35.76,26.694,33.079,24.205,4.99,6.097,9.425
853,0.682,35.492,26.516,33.05,24.201,4.948,5.935,9.18
854,0.685,35.432,26.631,33.06,24.197,5.029,5.892,9.177
855,0.685,35.604,26.363,33.05,24.197,4.948,5.892,9.096
856,0.685,35.702,26.571,33.079,24.208,4.947,5.973,9.095
857,0.698,35.482,26.714,33.079,24.201,4.988,6.015,9.095
858,0.675,35.576,26.422,33.079,24.201,5.029,5.974,9.095
859,0.682,35.73,26.65,33.05,24.187,4.907,5.893,9.095
860,0.695,35.847,26.422,33.088,24.204,5.028,5.973,9.176
861,0.705,35.33,26.689,33.098,24.204,5.07,6.055,9.299
862,0.708,35.469,26.703,33.098,24.208,5.03,6.015,9.382
863,0.705,35.595,26.59,33.098,24.208,5.07,6.015,9.545
864,0.702,35.673,26.624,33.098,24.201,5.03,5.934,9.588
865,0.685,35.625,26.468,33.098,24.204,5.03,6.014,9.71
866,0.698,35.778,26.713,33.098,24.201,4.948,5.974,9.874
867,0.695,35.914,26.454,33.108,24.215,5.15,6.055,10.241
868,0.692,35.935,26.638,33.089,24.205,5.071,6.056,10.326
869,0.666,35.417,26.39,33.06,24.197,4.908,5.893,10.408
870,0.669,35.585,26.63,33.069,24.197,4.906,5.933,10.572
871,0.669,35.711,26.597,33.088,24.197,4.947,5.892,10.696
872,0.659,35.789,26.597,33.089,24.204,4.947,5.892,10.778
873,0.669,35.617,26.644,33.108,24.204,5.029,5.892,10.82
874,0.649,35.769,26.523,33.089,24.201,4.989,5.892,10.901
875,0.652,35.876,26.635,33.098,24.19,4.907,5.851,10.861
876,0.665,35.944,26.546,33.108,24.208,4.947,5.891,10.942
877,0.675,35.81,26.643,33.108,24.208,5.029,5.973,10.943
878,0.659,35.962,26.433,33.127,24.201,5.07,5.933,10.984
879,0.656,36.041,26.646,33.118,24.204,5.03,5.933,10.903
880,0.655,36.166,26.437,33.127,24.201,5.07,5.933,10.902
881,0.685,35.841,26.654,33.108,24.204,5.03,5.974,10.78
882,0.688,35.992,26.687,33.166,24.204,5.03,5.974,10.738
883,0.659,36.079,26.516,33.128,24.211,5.151,5.974,10.86
884,0.652,35.86,26.651,33.118,24.201,4.99,5.933,10.617
885,0.639,35.915,26.426,33.118,24.197,4.907,5.811,10.533
886,0.649,36.079,26.669,33.108,24.201,4.906,5.85,10.573
887,0.639,36.167,26.379,33.118,24.201,4.947,5.851,10.574
888,0.642,35.937,26.571,33.127,24.204,4.947,5.81,10.655
889,0.633,36.04,26.706,33.127,24.211,4.947,5.85,10.615
890,0.639,36.166,26.543,33.089,24.198,4.947,5.81,10.493
891,0.636,36.292,26.67,33.117,24.204,4.947,5.891,10.573
892,0.636,36.015,26.426,33.127,24.208,4.988,5.973,10.736
893,0.623,36.175,26.65,33.204,24.204,5.07,5.974,10.616
894,0.613,36.311,26.41,33.147,24.208,5.111,5.974,10.655
895,0.619,36.37,26.646,33.147,24.208,4.989,5.893,10.656
896,0.597,36.102,26.617,33.137,24.204,4.988,5.892,10.696
897,0.609,36.282,26.538,33.137,24.204,5.029,6.014,10.697
898,0.639,36.408,26.678,33.166,24.218,5.151,6.015,10.859
899,0.623,36.429,26.508,33.147,24.208,5.112,6.015,10.902
900,0.603,36.17,26.666,33.128,24.197,4.989,5.852,10.861
901,0.616,36.321,26.383,33.147,24.197,4.988,5.851,10.82
902,0.619,36.447,26.524,33.137,24.197,4.988,5.891,10.82
903,0.619,36.477,26.596,33.137,24.204,5.029,5.933,10.861
904,0.616,36.343,26.534,33.127,24.204,4.989,5.974,10.82
905,0.606,36.476,26.702,33.137,24.204,5.029,5.974,10.861
906,0.616,36.573,26.453,33.127,24.197,4.907,5.893,10.739
907,0.619,36.632,26.658,33.147,24.204,5.028,5.933,10.657
908,0.619,36.412,26.461,33.156,24.208,5.07,6.014,10.615
909,0.613,36.553,26.666,33.166,24.204,5.152,6.056,10.696
910,0.603,36.67,26.539,33.147,24.208,5.112,6.015,10.575
911,0.587,36.508,26.534,33.156,24.204,5.112,6.096,10.451
912,0.593,36.459,26.62,33.166,24.204,5.071,6.016,10.328
913,0.593,36.573,26.511,33.147,24.204,5.07,5.974,10.246
914,0.593,36.699,26.705,33.166,24.211,5.111,6.015,10.164
915,0.593,36.46,26.489,33.195,24.215,5.234,6.137,10.204
916,0.58,36.554,26.67,33.147,24.208,5.072,6.016,9.96
917,0.583,36.68,26.379,33.156,24.197,4.908,5.893,9.835
918,0.58,36.786,26.602,33.156,24.201,5.069,5.892,9.712
919,0.586,36.423,26.679,33.156,24.204,4.989,5.973,9.63
920,0.593,36.563,26.438,33.185,24.197,4.988,6.055,9.588
921,0.6,36.689,26.626,33.157,24.204,5.07,5.934,9.425
922,0.603,36.758,26.375,33.137,24.191,4.948,5.974,9.424
923,0.603,36.519,26.602,33.166,24.197,4.947,5.893,9.22
924,0.6,36.689,26.683,33.195,24.204,5.11,6.054,9.3
925,0.603,36.796,26.5,33.186,24.204,5.071,6.015,9.138
926,0.593,36.883,26.658,33.185,24.208,5.07,5.974,9.177
927,0.606,36.529,26.437,33.176,24.204,5.07,6.055,9.015
928,0.609,36.679,26.658,33.176,24.204,5.111,6.056,8.972
929,0.606,36.825,26.543,33.176,24.204,5.112,6.015,8.891
930,0.609,36.903,26.561,33.272,24.211,5.152,6.137,8.809
931,0.596,36.645,26.639,33.186,24.211,5.153,6.138,8.848
932,0.574,36.767,26.457,33.176,24.204,5.112,6.057,8.646
933,0.586,36.873,26.654,33.176,24.194,5.071,5.934,8.521
934,0.593,36.922,26.437,33.157,24.204,5.03,5.974,8.439
935,0.593,36.76,26.544,33.204,24.201,5.07,5.974,8.479
936,0.603,36.893,26.389,33.186,24.197,5.03,6.015,8.357
937,0.6,37.009,26.603,33.176,24.204,5.111,5.974,8.356
938,0.606,37.327,26.667,33.166,24.194,4.989,5.933,8.275
939,0.626,36.754,26.484,33.214,24.201,5.11,5.974,8.193
940,0.632,36.902,26.654,33.205,24.208,5.112,6.055,8.232
941,0.662,36.99,26.43,33.205,24.211,5.152,6.015,8.151
942,0.662,36.809,26.65,33.195,24.204,5.112,6.056,8.15
943,0.646,36.826,26.433,33.214,24.208,5.112,6.015,8.11
944,0.659,36.941,26.611,33.195,24.204,4.989,6.015,8.028
945,0.669,37.096,26.659,33.214,24.204,5.029,6.015,8.027
946,0.672,36.714,26.48,33.234,24.215,5.192,6.137,8.027
947,0.665,36.796,26.685,33.215,24.205,5.153,6.057,7.987
948,0.659,36.922,26.399,33.195,24.201,4.99,6.015,8.068
949,0.682,37.028,26.622,33.186,24.204,5.029,5.974,8.191
950,0.692,36.694,26.402,33.195,24.204,5.07,6.015,8.354
951,0.675,36.815,26.63,33.214,24.201,5.03,6.015,8.641
952,0.688,36.96,26.706,33.195,24.208,5.03,5.974,9.009
953,0.682,37.01,26.617,33.195,24.194,4.989,6.015,9.42
954,0.695,36.713,26.663,33.195,24.194,4.988,5.934,9.708
955,0.692,36.873,26.535,33.224,24.201,5.07,6.055,10.158
956,0.708,37.009,26.663,33.205,24.211,5.152,6.015,10.732
957,0.721,37.068,26.5,33.243,24.201,5.153,6.056,10.941
958,0.715,36.752,26.631,33.224,24.208,5.153,6.056,11.228
959,0.741,36.883,26.359,33.224,24.201,5.112,6.015,11.434
960,0.741,37.009,26.606,33.205,24.208,5.071,6.056,11.639
961,0.767,37.058,26.597,33.253,24.215,5.233,6.015,11.845
962,0.751,36.857,26.612,33.244,24.208,5.235,6.178,11.928
963,0.748,36.989,26.702,33.205,24.201,5.153,6.057,11.97
964,0.751,37.115,26.45,33.224,24.197,5.071,5.975,11.807
965,0.774,37.145,26.658,33.224,24.201,5.07,5.974,11.846
966,0.767,36.868,26.437,33.224,24.197,5.111,5.974,11.887
967,0.764,37.009,26.642,33.234,24.197,5.03,5.974,11.806
968,0.78,37.125,26.543,33.215,24.197,5.151,6.055,11.806
969,0.764,36.944,26.542,33.205,24.187,5.031,5.893,11.724
970,0.774,36.789,26.647,33.214,24.201,5.03,5.973,11.561
971,0.767,36.912,26.574,33.234,24.208,5.192,6.055,11.64
972,0.774,37.019,26.71,33.253,24.208,5.194,6.097,11.641
973,0.761,36.847,26.489,33.215,24.204,5.194,6.056,11.56
974,0.78,36.941,26.627,33.291,24.204,5.153,5.975,11.478
975,0.78,37.057,26.394,33.263,24.204,5.193,6.015,11.477
976,0.777,37.164,26.606,33.244,24.204,5.153,5.974,11.477
977,0.793,36.81,26.624,33.272,24.208,5.193,6.055,11.477
978,0.793,36.96,26.507,33.263,24.211,5.234,6.137,11.558
979,0.787,37.038,26.654,33.244,24.204,5.113,6.016,11.559
980,0.79,37.125,26.465,33.205,24.194,5.071,5.974,11.275
981,0.79,36.676,26.685,33.224,24.194,5.07,5.974,11.231
982,0.8,36.815,26.438,33.234,24.197,5.152,5.974,11.231
983,0.797,36.941,26.576,33.243,24.204,5.153,5.933,11.149
984,0.803,37.019,26.64,33.263,24.204,5.153,5.974,11.189
985,0.79,36.742,26.539,33.225,24.197,5.031,5.974,11.108
986,0.803,36.873,26.698,33.243,24.201,5.03,5.933,10.945
987,0.803,37.047,26.461,33.33,24.208,5.192,6.014,10.984
988,0.8,37.097,26.654,33.264,24.211,5.194,6.015,10.903
989,0.794,36.8,26.426,33.272,24.204,5.112,6.015,10.821
990,0.8,36.941,26.642,33.263,24.208,5.152,5.974,10.657
991,0.787,37.057,26.687,33.263,24.201,5.112,5.933,10.656
992,0.787,37.097,26.508,33.272,24.204,5.152,5.974,10.493
993,0.787,36.838,26.604,33.301,24.218,5.234,6.055,10.491
994,0.78,36.951,26.437,33.282,24.208,5.153,6.097,10.41
995,0.777,37.067,26.681,33.254,24.204,5.071,5.975,10.247
996,0.774,37.327,26.414,33.263,24.197,5.07,5.933,10.082
997,0.784,36.764,26.591,33.253,24.201,5.07,5.852,10.081
998,0.78,36.931,26.651,33.253,24.201,5.07,5.973,9.918
999,0.78,37.009,26.57,33.272,24.211,5.07,5.893,9.916
1000,0.78,36.78,26.71,33.282,24.201,5.111,5.973,9.916
1001,0.78,36.739,26.512,33.254,24.194,5.071,5.893,9.794
1002,0.774,36.883,26.569,33.263,24.187,5.03,5.892,9.671
1003,0.784,37.018,26.448,33.292,24.208,5.192,5.973,9.751
1004,0.797,36.79,26.63,33.282,24.204,5.072,5.974,9.752
1005,0.774,36.864,26.418,33.282,24.201,5.152,6.015,9.671
1006,0.774,36.999,26.56,33.292,24.204,5.071,5.974,9.629
1007,0.774,37.106,26.647,33.282,24.204,5.111,5.974,9.588
1008,0.767,36.637,26.582,33.282,24.204,5.193,5.974,9.466
1009,0.783,36.786,26.706,33.301,24.208,5.112,5.974,9.383
1010,0.777,36.931,26.539,33.311,24.215,5.234,6.055,9.382
1011,0.761,36.981,26.6,33.292,24.211,5.153,6.015,9.464
1012,0.748,36.617,26.347,33.273,24.194,5.071,5.974,9.221
1013,0.747,36.766,26.629,33.263,24.194,5.03,5.893,9.137
1014,0.751,36.893,26.457,33.253,24.201,4.989,5.892,9.014
1015,0.748,36.961,26.701,33.282,24.201,5.07,5.933,8.972
1016,0.751,36.875,26.356,33.282,24.201,5.07,5.892,8.931
1017,0.757,37.018,26.602,33.273,24.204,5.03,5.973,8.89
1018,0.764,37.135,26.593,33.253,24.194,4.989,5.893,8.809
1019,0.777,37.194,26.648,33.292,24.204,5.07,5.973,8.726
1020,0.774,36.753,26.632,33.292,24.204,5.111,5.974,8.848
1021,0.784,36.892,26.484,33.292,24.201,5.152,6.015,8.93
1022,0.784,37.009,26.646,33.311,24.204,5.071,5.974,8.85
1023,0.78,37.029,26.457,33.292,24.208,5.07,5.974,8.849
1024,0.787,36.838,26.654,33.292,24.204,5.03,6.015,8.93
1025,0.8,36.989,26.41,33.282,24.201,5.03,5.974,8.931
1026,0.794,37.144,26.614,33.33,24.215,5.233,6.096,9.093
1027,0.771,36.992,26.636,33.292,24.215,5.113,6.138,9.054
1028,0.774,36.674,26.601,33.282,24.198,5.071,5.935,9.095
1029,0.774,36.805,26.655,33.282,24.197,4.989,5.933,9.054
1030,0.764,36.922,26.453,33.301,24.201,5.07,5.892,8.973
1031,0.761,36.875,26.646,33.282,24.201,5.03,5.973,9.013
1032,0.754,36.961,26.441,33.311,24.208,5.03,5.893,9.094
1033,0.741,37.077,26.642,33.302,24.197,5.07,5.973,9.136
1034,0.76,37.155,26.402,33.273,24.19,4.908,5.852,9.014
1035,0.77,36.791,26.536,33.301,24.197,5.028,5.932,9.013
1036,0.761,36.922,26.639,33.311,24.204,5.111,5.974,9.094
1037,0.764,37.057,26.535,33.311,24.208,5.112,6.055,9.136
1038,0.774,37.135,26.698,33.302,24.204,5.071,6.015,9.177
1039,0.774,36.666,26.485,33.321,24.204,5.07,5.974,9.055
1040,0.784,36.796,26.654,33.369,24.197,5.111,5.974,9.013
1041,0.793,36.95,26.461,33.302,24.204,5.03,6.055,9.094
1042,0.793,37.038,26.67,33.33,24.218,5.151,6.097,9.014
1043,0.78,36.799,26.48,33.302,24.208,5.112,6.138,9.094
1044,0.78,36.912,26.717,33.292,24.201,5.03,5.976,9.014
1045,0.78,37.047,26.391,33.292,24.194,4.907,5.893,8.972
1046,0.787,37.097,26.618,33.302,24.19,4.947,5.973,9.094
1047,0.793,36.8,26.406,33.282,24.19,4.988,5.974,9.217
1048,0.797,36.95,26.607,33.292,24.204,5.029,5.974,9.178
1049,0.777,37.067,26.386,33.311,24.208,4.948,5.974,9.259
1050,0.78,37.116,26.548,33.263,24.194,4.907,5.811,9.259
1051,0.793,36.858,26.659,33.301,24.201,4.987,5.891,9.3
1052,0.777,37.009,26.504,33.321,24.208,5.029,5.973,9.504
1053,0.777,37.106,26.69,33.331,24.215,5.07,5.974,9.546
1054,0.777,37.097,26.485,33.321,24.201,5.07,5.974,9.588
1055,0.774,36.819,26.662,33.311,24.211,5.07,5.974,9.629
1056,0.787,36.941,26.469,33.321,24.201,5.03,5.974,9.588
1057,0.793,37.048,26.588,33.311,24.197,5.03,5.974,9.588
1058,0.79,37.049,26.64,33.359,24.215,5.111,6.137,9.669
1059,0.784,37.078,26.488,33.331,24.211,5.071,6.057,9.751
1060,0.787,37.183,26.639,33.302,24.198,4.989,5.893,9.59
1061,0.793,37.28,26.461,33.302,24.194,4.988,5.892,9.588
1062,0.797,36.744,26.685,33.292,24.204,4.988,5.933,9.507
1063,0.79,36.796,26.469,33.321,24.197,4.988,5.892,9.587
1064,0.79,36.95,26.662,33.321,24.201,4.948,5.933,9.588
1065,0.8,37.057,26.406,33.331,24.201,4.947,5.974,9.669
1066,0.803,36.752,26.591,33.283,24.194,4.947,5.811,9.548
1067,0.803,36.921,26.683,33.301,24.197,4.947,5.81,9.506
1068,0.794,37.076,26.508,33.34,24.204,4.988,5.932,9.546
1069,0.793,37.164,26.643,33.321,24.211,5.029,5.933,9.628
1070,0.8,36.772,26.511,33.331,24.208,4.989,5.974,9.588
1071,0.781,36.931,26.694,33.331,24.208,4.988,5.974,9.547
1072,0.784,37.038,26.492,33.331,24.208,4.988,5.974,9.588
1073,0.784,37.116,26.65,33.331,24.208,4.988,6.015,9.588
1074,0.806,36.867,26.422,33.359,24.208,5.029,5.974,9.629
1075,0.8,37.009,26.525,33.36,24.222,5.151,6.055,9.751
1076,0.781,37.087,26.686,33.341,24.205,4.99,5.975,9.752
1077,0.777,37.116,26.504,33.321,24.197,4.907,5.933,9.752
1078,0.8,36.762,26.635,33.34,24.197,4.987,5.852,9.915
1079,0.803,36.931,26.425,33.35,24.197,4.907,5.973,10.079
1080,0.81,37.048,26.669,33.35,24.197,4.947,5.933,10.284
1081,0.81,37.078,26.461,33.35,24.197,4.988,5.974,10.408
1082,0.81,36.809,26.646,33.331,24.204,4.948,5.974,10.572
1083,0.81,36.96,26.683,33.321,24.194,4.907,5.852,10.696
1084,0.81,37.106,26.477,33.369,24.204,4.987,5.973,10.859
1085,0.813,37.212,26.596,33.369,24.208,5.07,5.974,11.064
1086,0.8,36.84,26.55,33.36,24.208,5.03,6.015,11.148
1087,0.807,36.98,26.635,33.35,24.197,4.989,6.015,11.23
1088,0.816,37.077,26.406,33.36,24.204,4.988,6.015,11.231
1089,0.803,36.723,26.63,33.35,24.204,4.988,6.056,11.231
1090,0.826,36.815,26.441,33.36,24.204,4.988,6.015,11.231
1091,0.797,36.941,26.708,33.398,24.218,5.151,6.137,11.353
1092,0.79,37.019,26.707,33.351,24.208,5.071,6.098,11.354
1093,0.78,36.713,26.461,33.36,24.197,4.867,5.975,11.191
1094,0.787,36.844,26.638,33.341,24.197,4.865,5.974,11.108
1095,0.797,36.999,26.351,33.331,24.197,4.987,5.974,11.108
1096,0.794,37.087,26.618,33.359,24.201,4.948,6.055,11.067
1097,0.806,36.752,26.457,33.369,24.201,4.907,6.015,11.066
1098,0.803,36.883,26.541,33.36,24.204,4.987,6.096,11.026
1099,0.807,37.009,26.678,33.341,24.194,4.866,5.894,10.944
1100,0.81,37.096,26.57,33.388,24.197,4.946,6.054,10.902
1101,0.82,36.704,26.671,33.37,24.204,4.988,6.097,10.983
1102,0.813,36.873,26.48,33.379,24.208,5.029,6.056,10.984
1103,0.807,36.99,26.623,33.379,24.201,5.03,6.015,10.944
1104,0.81,37.058,26.453,33.369,24.197,4.989,6.056,10.943
1105,0.81,36.991,26.654,33.36,24.201,4.907,6.015,10.902
1106,0.816,37.154,26.406,33.379,24.204,4.987,6.015,10.983
1107,0.816,37.299,26.634,33.408,24.211,5.11,6.056,10.984
1108,0.8,37.329,26.383,33.399,24.218,5.071,6.178,11.106
1109,0.794,36.534,26.595,33.37,24.205,4.989,6.057,11.026
1110,0.806,36.65,26.448,33.35,24.201,4.907,5.975,10.822
1111,0.81,36.776,26.611,33.36,24.197,4.906,5.893,10.82
1112,0.807,36.806,26.503,33.379,24.201,4.906,5.973,10.82
1113,0.794,36.807,26.502,33.417,24.204,5.028,5.974,10.82
1114,0.803,36.931,26.631,33.37,24.208,4.948,6.015,10.779
1115,0.794,37.009,26.425,33.369,24.204,4.988,6.056,10.779
1116,0.79,36.933,26.622,33.36,24.194,4.866,5.934,10.657
1117,0.8,36.865,26.359,33.388,24.208,4.987,5.892,10.615
1118,0.813,37.009,26.544,33.398,24.204,5.029,6.136,10.655
1119,0.803,37.106,26.702,33.389,24.211,4.948,6.138,10.574
1120,0.803,36.608,26.539,33.379,24.204,4.988,6.098,10.574
1121,0.807,36.69,26.643,33.398,24.201,5.029,6.056,10.492
1122,0.803,36.796,26.375,33.389,24.204,4.989,6.097,10.369
1123,0.81,36.931,26.595,33.418,24.208,4.988,6.056,10.246
1124,0.807,36.597,26.64,33.427,24.211,5.11,6.178,10.326
1125,0.807,36.68,26.582,33.389,24.204,5.03,6.179,10.124
1126,0.803,36.825,26.597,33.37,24.201,4.948,5.976,10.0
1127,0.8,36.903,26.511,33.398,24.194,4.907,5.974,9.877
1128,0.787,36.568,26.678,33.379,24.197,4.947,5.974,9.753
1129,0.79,36.708,26.469,33.369,24.204,4.947,6.055,9.752
1130,0.803,36.825,26.623,33.379,24.201,4.988,6.097,9.671
1131,0.784,36.893,26.336,33.379,24.194,4.948,6.056,9.629
1132,0.784,36.482,26.563,33.369,24.197,4.866,6.015,9.466
1133,0.787,36.65,26.632,33.398,24.211,5.028,6.137,9.465
1134,0.787,36.786,26.492,33.389,24.204,4.989,6.179,9.465
1135,0.79,36.835,26.709,33.398,24.204,5.029,6.179,9.424
1136,0.784,36.721,26.422,33.398,24.204,4.989,6.098,9.342
1137,0.79,36.863,26.591,33.389,24.204,5.029,6.138,9.26
1138,0.784,36.98,26.421,33.389,24.204,4.989,6.057,9.219
1139,0.803,37.029,26.615,33.427,24.204,4.988,6.137,9.178
1140,0.803,36.723,26.488,33.418,24.218,5.11,6.301,9.177
1141,0.797,36.825,26.498,33.456,24.201,5.03,6.14,9.137
1142,0.787,36.922,26.623,33.38,24.197,5.03,6.098,8.892
1143,0.787,37.297,26.503,33.389,24.197,4.907,6.056,8.849
1144,0.79,36.649,26.682,33.379,24.194,4.987,6.137,8.808
1145,0.793,36.786,26.442,33.408,24.201,4.988,6.098,8.767
1146,0.787,36.883,26.615,33.399,24.204,5.029,6.056,8.767
1147,0.774,36.568,26.554,33.37,24.194,4.948,6.056,8.726
1148,0.803,36.593,26.6,33.369,24.197,4.866,6.097,8.522
1149,0.81,36.747,26.636,33.408,24.208,5.028,6.138,8.561
1150,0.79,36.844,26.453,33.408,24.204,4.989,6.098,8.561
1151,0.774,36.644,26.607,33.408,24.204,5.029,6.219,8.439
1152,0.767,36.767,26.371,33.399,24.204,4.989,6.22,8.357
1153,0.777,36.893,26.637,33.408,24.208,4.948,6.18,8.397
1154,0.78,36.99,26.449,33.399,24.201,5.029,6.139,8.316
1155,0.79,36.588,26.611,33.437,24.208,5.111,6.138,8.315
1156,0.78,36.709,26.656,33.418,24.208,5.071,6.219,8.356
1157,0.771,36.806,26.519,33.399,24.197,4.989,6.098,8.193
1158,0.774,36.883,26.701,33.398,24.197,4.907,6.016,8.11
1159,0.78,36.692,26.438,33.389,24.197,4.906,6.056,8.15
1160,0.793,36.844,26.626,33.418,24.204,4.987,6.056,8.069
1161,0.797,36.961,26.367,33.408,24.197,4.907,6.056,8.028
1162,0.807,37.038,26.598,33.408,24.208,5.028,6.056,7.946
1163,0.787,37.164,26.64,33.379,24.197,4.907,6.056,7.986
1164,0.797,37.328,26.578,33.427,24.201,4.947,6.015,7.905
1165,0.784,37.493,26.604,33.456,24.204,5.029,6.137,8.067
1166,0.78,37.514,26.562,33.409,24.208,5.07,6.098,8.15
1167,0.777,36.219,26.596,33.427,24.204,5.03,6.138,8.191
1168,0.78,36.36,26.562,33.418,24.201,4.989,6.098,8.314
1169,0.764,36.524,26.569,33.447,24.204,4.948,6.056,8.396
1170,0.78,36.535,26.53,33.408,24.197,5.029,6.056,8.519
1171,0.777,36.862,26.678,33.456,24.211,5.192,6.178,8.723
1172,0.767,36.97,26.508,33.447,24.211,5.072,6.098,8.848
1173,0.757,37.077,26.666,33.418,24.198,4.989,6.016,8.971
1174,0.757,36.848,26.477,33.408,24.194,4.907,6.015,9.094
1175,0.757,36.567,26.627,33.418,24.204,4.906,5.974,9.095
1176,0.757,36.718,26.406,33.427,24.201,4.947,6.015,9.298
1177,0.761,36.835,26.677,33.427,24.204,4.988,6.056,9.341
1178,0.751,36.663,26.363,33.427,24.201,4.948,6.097,9.382
1179,0.767,36.757,26.575,33.418,24.194,4.825,5.853,9.301
1180,0.777,36.902,26.483,33.447,24.204,4.987,5.973,9.463
1181,0.78,37.009,26.635,33.437,24.208,4.988,6.137,9.587
1182,0.78,36.55,26.695,33.456,24.204,5.029,6.057,9.547
1183,0.777,36.67,26.535,33.447,24.204,5.03,6.056,9.506
1184,0.777,36.767,26.674,33.447,24.204,4.989,6.015,9.546
1185,0.78,36.873,26.434,33.456,24.208,5.029,6.096,9.425
1186,0.79,36.635,26.63,33.437,24.201,4.989,6.097,9.464
1187,0.784,36.805,26.437,33.466,24.215,5.151,6.138,9.505
1188,0.764,36.903,26.529,33.457,24.205,5.031,6.098,9.506
1189,0.757,36.961,26.62,33.428,24.197,4.989,5.975,9.343
1190,0.77,36.569,26.464,33.447,24.194,4.907,5.933,9.382
1191,0.757,36.737,26.701,33.428,24.197,4.906,5.974,9.382
1192,0.751,36.854,26.457,33.447,24.204,4.906,6.015,9.342
1193,0.757,36.922,26.681,33.456,24.204,5.069,6.056,9.301
1194,0.741,36.578,26.582,33.437,24.201,4.989,6.015,9.423
1195,0.744,36.728,26.515,33.418,24.19,4.907,5.893,9.302
1196,0.757,36.854,26.655,33.437,24.201,4.947,6.014,9.301
1197,0.754,36.922,26.562,33.456,24.211,5.069,6.137,9.382
1198,0.774,36.674,26.643,33.457,24.208,5.07,6.098,9.342
1199,0.771,36.805,26.492,33.466,24.204,5.07,6.138,9.382
1200,0.761,36.912,26.678,33.466,24.204,4.989,6.016,9.261
1201,0.767,37.019,26.527,33.457,24.208,5.029,6.096,9.219
1202,0.777,36.655,26.701,33.457,24.201,5.03,6.056,9.137
1203,0.774,36.805,26.453,33.485,24.222,5.111,6.219,9.177
1204,0.771,36.903,26.549,33.486,24.212,5.112,6.18,9.177
1205,0.764,36.664,26.366,33.447,24.194,4.989,6.057,9.015
1206,0.761,36.652,26.63,33.447,24.204,4.907,6.015,8.81
1207,0.744,36.786,26.601,33.447,24.191,4.947,6.015,8.808
1208,0.754,36.902,26.527,33.456,24.201,4.988,6.015,8.808
1209,0.761,36.539,26.623,33.447,24.204,4.988,6.056,8.808
1210,0.761,36.622,26.503,33.466,24.204,4.988,6.097,8.726
1211,0.748,36.738,26.693,33.428,24.197,4.866,5.975,8.644
1212,0.731,36.864,26.489,33.447,24.204,4.946,5.974,8.603
1213,0.751,36.577,26.619,33.476,24.211,5.029,6.137,8.602
1214,0.754,36.728,26.394,33.485,24.215,5.03,6.138,8.684
1215,0.764,36.844,26.614,33.486,24.205,5.03,6.098,8.603
1216,0.764,36.913,26.507,33.495,24.204,4.989,6.138,8.521
1217,0.764,36.52,26.526,33.476,24.208,5.029,6.138,8.439
1218,0.764,36.67,26.627,33.476,24.204,5.07,6.138,8.438
1219,0.774,36.825,26.523,33.514,24.204,5.03,6.098,8.357
1220,0.764,36.884,26.709,33.495,24.211,5.151,6.3,8.478
1221,0.751,36.75,26.45,33.486,24.208,5.071,6.14,8.357
1222,0.77,36.873,26.611,33.486,24.201,4.989,6.138,8.193
1223,0.757,36.99,26.289,33.476,24.201,4.988,6.098,8.192
1224,0.761,37.077,26.527,33.476,24.201,4.988,6.016,8.273
1225,0.757,36.483,26.662,33.485,24.197,4.988,6.056,8.274
1226,0.764,36.612,26.523,33.476,24.201,5.029,6.097,8.314
1227,0.751,36.709,26.643,33.485,24.208,5.03,6.138,8.356
1228,0.754,36.739,26.418,33.466,24.197,4.948,5.976,8.234
1229,0.761,36.729,26.661,33.505,24.204,4.988,6.096,8.436
1230,0.767,36.863,26.402,33.495,24.204,5.07,6.219,8.641
1231,0.757,36.961,26.575,33.505,24.211,5.07,6.18,8.644
1232,0.754,37.019,26.452,33.505,24.204,5.03,6.139,8.725
1233,0.751,36.742,26.478,33.582,24.204,4.989,6.057,8.848
1234,0.754,36.892,26.631,33.506,24.204,5.07,6.097,8.849
1235,0.754,37.009,26.484,33.495,24.208,5.03,6.138,8.971
1236,0.767,36.607,26.619,33.534,24.215,5.233,6.26,9.053
1237,0.754,36.613,26.367,33.505,24.205,5.072,6.058,9.095
1238,0.731,36.747,26.594,33.495,24.194,4.989,6.097,9.095
1239,0.754,36.835,26.39,33.476,24.197,5.029,6.016,9.014
1240,0.751,36.586,26.61,33.495,24.201,5.03,6.096,9.094
1241,0.748,36.718,26.562,33.514,24.201,4.989,6.016,9.095
1242,0.747,36.854,26.444,33.505,24.204,5.07,6.056,9.095
1243,0.734,36.903,26.611,33.486,24.197,4.989,6.056,9.095
1244,0.738,36.395,26.456,33.486,24.194,4.907,5.975,8.932
1245,0.744,36.553,26.677,33.514,24.201,5.028,5.974,9.053
1246,0.728,36.699,26.457,33.553,24.204,5.151,6.096,9.135
1247,0.76,36.796,26.627,33.525,24.208,5.153,6.056,9.217
1248,0.741,36.672,26.402,33.524,24.204,5.031,6.097,9.137
1249,0.751,36.796,26.622,33.515,24.208,5.07,6.097,9.339
1250,0.754,36.922,26.64,33.515,24.197,4.989,6.016,9.342
1251,0.751,37.019,26.468,33.563,24.208,5.07,5.974,9.423
1252,0.741,36.454,26.599,33.544,24.218,5.193,6.137,9.546
1253,0.725,36.573,26.406,33.515,24.208,5.072,6.098,9.669
1254,0.734,36.67,26.614,33.486,24.197,5.03,6.016,9.589
1255,0.741,36.719,26.382,33.505,24.197,4.989,6.015,9.669
1256,0.738,36.48,26.595,33.505,24.197,4.948,5.934,9.751
1257,0.741,36.631,26.632,33.514,24.197,5.029,5.974,9.752
1258,0.751,36.738,26.574,33.534,24.204,5.03,5.974,9.874
1259,0.748,36.739,26.659,33.524,24.201,5.07,5.974,9.957
1260,0.747,36.605,26.43,33.515,24.194,4.948,5.893,9.835
1261,0.757,36.757,26.634,33.515,24.204,5.029,5.933,9.875
1262,0.761,36.845,26.422,33.534,24.211,5.111,6.055,9.957
1263,0.77,36.587,26.634,33.534,24.201,5.112,6.097,9.835
1264,0.764,36.45,26.441,33.524,24.201,5.152,6.097,9.834
1265,0.761,36.592,26.587,33.534,24.208,5.112,6.097,9.916
1266,0.761,36.709,26.616,33.544,24.208,5.03,6.016,9.794
1267,0.764,36.461,26.546,33.544,24.208,5.07,5.974,9.712
1268,0.767,36.564,26.713,33.563,24.215,5.193,6.137,9.792
1269,0.751,36.66,26.407,33.525,24.205,5.072,6.098,9.671
1270,0.757,36.776,26.618,33.524,24.197,5.03,5.975,9.548
1271,0.741,36.337,26.402,33.524,24.194,4.989,5.893,9.466
1272,0.738,36.495,26.638,33.534,24.197,4.988,5.892,9.343
1273,0.728,36.621,26.422,33.534,24.201,4.948,5.892,9.342
1274,0.747,36.699,26.657,33.534,24.204,5.11,5.973,9.26
1275,0.725,36.355,26.574,33.534,24.204,5.071,5.974,9.259
1276,0.728,36.505,26.44,33.515,24.194,4.989,5.811,9.137
1277,0.747,36.66,26.693,33.534,24.204,5.029,5.932,9.055
1278,0.76,36.738,26.481,33.544,24.204,5.111,5.892,9.176
1279,0.751,36.327,26.603,33.572,24.208,5.071,5.973,9.096
1280,0.764,36.466,26.394,33.553,24.204,5.111,5.974,9.014
1281,0.761,36.592,26.587,33.544,24.204,5.03,5.974,8.972
1282,0.774,36.632,26.413,33.553,24.201,5.07,5.974,8.972
1283,0.767,36.489,26.622,33.534,24.204,5.03,5.893,8.85
1284,0.774,36.66,26.71,33.582,24.211,5.151,6.054,8.93
1285,0.754,36.776,26.512,33.573,24.211,5.153,6.097,8.931
1286,0.744,36.778,26.647,33.534,24.198,4.99,5.975,8.809
1287,0.747,36.317,26.449,33.515,24.194,4.988,5.974,8.726
1288,0.754,36.466,26.623,33.543,24.204,4.948,5.893,8.726
1289,0.744,36.592,26.632,33.544,24.204,4.988,5.892,8.726
1290,0.751,36.814,26.5,33.553,24.208,5.029,5.892,8.726
1291,0.748,36.375,26.67,33.553,24.208,4.989,5.892,8.726
1292,0.738,36.476,26.555,33.515,24.197,4.948,5.851,8.644
1293,0.741,36.592,26.717,33.563,24.208,4.947,5.851,8.644
1294,0.747,36.479,26.454,33.563,24.208,5.069,6.013,8.644
1295,0.741,36.554,26.63,33.573,24.201,5.07,5.974,8.725
1296,0.754,36.689,26.617,33.553,24.201,5.111,6.015,8.644
1297,0.738,36.777,26.562,33.563,24.208,5.071,6.015,8.603
1298,0.734,36.308,26.608,33.553,24.204,5.07,6.056,8.521
1299,0.76,36.447,26.406,33.582,24.201,5.111,6.015,8.601
1300,0.78,36.592,26.646,33.611,24.218,5.234,6.015,8.643
1301,0.774,36.661,26.402,33.592,24.201,5.153,6.096,8.644
1302,0.784,36.316,26.634,33.554,24.204,5.112,5.894,8.562
1303,0.806,36.457,26.675,33.553,24.191,4.989,5.933,8.48
1304,0.82,36.564,26.508,33.553,24.201,5.029,5.974,8.316
1305,0.843,36.67,26.647,33.553,24.201,5.07,5.974,8.315
1306,0.846,36.249,26.394,33.572,24.197,4.989,5.974,8.315
1307,0.833,36.418,26.646,33.582,24.204,5.029,5.974,8.315
1308,0.813,36.486,26.332,33.563,24.194,4.948,5.893,8.193
1309,0.839,36.593,26.575,33.553,24.194,5.029,5.851,8.151
1310,0.846,36.296,26.632,33.582,24.211,5.111,6.013,8.15
1311,0.833,36.437,26.562,33.582,24.208,5.071,6.096,8.232
1312,0.826,36.554,26.686,33.582,24.204,5.07,6.056,8.151
1313,0.839,36.593,26.469,33.573,24.204,5.03,6.137,8.15
1314,0.836,36.133,26.584,33.573,24.204,5.03,5.976,8.15
1315,0.836,36.292,26.359,33.563,24.204,5.03,6.055,8.15
1316,0.852,36.447,26.641,33.611,24.211,5.07,6.056,8.191
1317,0.827,36.439,26.613,33.592,24.211,5.193,6.137,8.273
1318,0.813,36.381,26.519,33.582,24.204,5.031,6.016,8.193
1319,0.81,36.515,26.647,33.573,24.194,4.948,5.934,8.232
1320,0.82,36.622,26.523,33.553,24.197,4.988,5.933,8.233
1321,0.839,36.412,26.694,33.572,24.204,4.988,5.974,8.273
1322,0.852,36.227,26.477,33.573,24.204,5.07,6.015,8.314
1323,0.827,36.379,26.635,33.573,24.194,5.07,6.015,8.356
1324,0.836,36.448,26.363,33.563,24.19,4.948,5.893,8.315
1325,0.846,36.199,26.552,33.601,24.201,4.988,5.933,8.274
1326,0.859,36.292,26.69,33.592,24.204,5.11,6.055,8.436
1327,0.859,36.418,26.434,33.621,24.204,5.071,6.097,8.438
1328,0.859,36.534,26.622,33.583,24.201,5.111,6.097,8.357
1329,0.853,36.219,26.441,33.573,24.201,4.989,5.975,8.397
1330,0.853,36.35,26.673,33.592,24.204,5.029,6.096,8.316
1331,0.853,36.486,26.449,33.602,24.208,5.03,5.975,8.274
1332,0.862,36.593,26.564,33.63,24.215,5.151,6.055,8.355
1333,0.866,36.22,26.569,33.621,24.208,5.193,6.137,8.437
1334,0.859,36.35,26.46,33.592,24.201,5.031,6.057,8.275
1335,0.859,36.467,26.65,33.573,24.197,4.989,5.975,8.193
1336,0.862,36.554,26.43,33.592,24.197,4.988,5.933,8.11
1337,0.872,36.162,26.626,33.573,24.201,5.029,5.974,8.109
1338,0.872,36.302,26.359,33.601,24.201,4.989,6.015,8.109
1339,0.872,36.428,26.645,33.592,24.201,5.07,6.015,8.109
1340,0.872,36.448,26.687,33.573,24.194,4.989,6.056,8.069
1341,0.879,36.209,26.5,33.582,24.194,4.988,6.015,7.946
1342,0.882,36.369,26.604,33.611,24.204,5.029,6.056,7.986
1343,0.866,36.505,26.421,33.64,24.208,5.03,6.056,8.068
1344,0.856,36.545,26.611,33.602,24.208,5.03,6.097,8.028
1345,0.856,36.248,26.425,33.611,24.208,5.111,6.097,7.987
1346,0.853,36.36,26.607,33.611,24.204,5.03,6.138,7.946
1347,0.846,36.486,26.355,33.621,24.211,4.989,6.057,7.864
1348,0.84,36.899,26.587,33.631,24.211,5.07,6.097,7.863
1349,0.82,36.232,26.694,33.64,24.215,5.233,6.178,7.944
1350,0.81,36.341,26.434,33.592,24.201,5.072,6.139,7.823
1351,0.813,36.447,26.587,33.602,24.197,4.989,5.976,7.7
1352,0.816,36.218,26.366,33.63,24.204,4.988,5.974,7.618
1353,0.82,36.225,26.579,33.602,24.194,4.988,5.974,7.698
1354,0.82,36.379,26.39,33.592,24.204,5.029,5.974,7.658
1355,0.81,36.457,26.638,33.602,24.201,4.989,5.974,7.617
1356,0.8,36.122,26.609,33.611,24.204,5.07,6.015,7.617
1357,0.816,36.253,26.492,33.602,24.194,4.948,5.934,7.495
1358,0.82,36.398,26.697,33.621,24.204,5.069,6.096,7.534
1359,0.826,36.467,26.446,33.64,24.208,5.07,6.097,7.575
1360,0.833,36.084,26.537,33.621,24.204,5.07,6.056,7.535
1361,0.826,36.205,26.491,33.659,24.208,5.03,6.137,7.494
1362,0.833,36.35,26.514,33.621,24.204,5.03,5.976,7.494
1363,0.839,36.419,26.635,33.631,24.204,5.03,6.055,7.412
1364,0.839,36.084,26.468,33.65,24.208,5.07,6.097,7.452
1365,0.839,36.224,26.685,33.66,24.211,5.233,6.138,7.534
1366,0.826,36.341,26.395,33.65,24.208,5.072,6.138,7.494
1367,0.823,36.38,26.606,33.631,24.201,4.989,6.016,7.29
1368,0.813,36.17,26.41,33.621,24.201,4.988,5.974,7.288
1369,0.813,36.311,26.614,33.631,24.204,4.948,6.015,7.288
1370,0.807,36.437,26.285,33.64,24.204,5.029,6.015,7.247
1371,0.807,36.487,26.594,33.631,24.204,5.03,5.974,7.288
1372,0.787,36.209,26.363,33.602,24.204,5.03,6.055,7.207
1373,0.784,36.35,26.598,33.611,24.194,4.907,6.015,7.165
1374,0.784,36.495,26.698,33.621,24.204,4.987,6.056,7.206
1375,0.787,36.526,26.578,33.659,24.208,5.07,6.137,7.247
1376,0.784,36.123,26.647,33.65,24.204,5.03,6.138,7.206
1377,0.78,36.253,26.488,33.641,24.201,5.07,6.057,7.247
1378,0.78,36.36,26.685,33.65,24.204,5.03,6.097,7.206
1379,0.767,36.39,26.324,33.66,24.204,5.03,6.056,7.287
1380,0.754,36.314,26.59,33.669,24.211,5.111,6.056,7.166
1381,0.748,36.418,26.37,33.679,24.215,5.112,6.219,7.328
1382,0.76,36.525,26.591,33.631,24.208,5.112,6.139,7.207
1383,0.751,35.97,26.659,33.64,24.197,4.989,5.976,7.125
1384,0.754,36.002,26.57,33.64,24.201,5.11,5.974,7.083
1385,0.744,36.156,26.577,33.65,24.201,4.989,6.015,7.123
1386,0.76,36.254,26.405,33.641,24.211,4.988,6.015,7.287
1387,0.748,36.101,26.642,33.65,24.204,5.029,6.015,7.247
1388,0.731,36.205,26.375,33.621,24.194,4.948,6.056,7.247
1389,0.741,36.379,26.559,33.64,24.197,4.988,5.893,7.206
1390,0.731,36.476,26.612,33.66,24.208,5.029,6.054,7.369
1391,0.734,35.94,26.476,33.669,24.208,5.151,6.056,7.492
1392,0.725,36.088,26.681,33.669,24.204,5.112,6.056,7.616
1393,0.737,36.205,26.492,33.66,24.204,5.03,6.137,7.739
1394,0.731,36.283,26.686,33.65,24.204,5.03,6.057,7.781
1395,0.725,36.025,26.391,33.65,24.204,5.07,6.015,7.944
1396,0.744,36.204,26.583,33.679,24.211,5.111,6.056,8.189
1397,0.734,36.292,26.671,33.67,24.215,5.193,6.219,8.436
1398,0.728,36.341,26.484,33.641,24.208,5.153,6.098,8.641
1399,0.734,36.025,26.627,33.65,24.197,4.99,6.016,8.765
1400,0.721,36.185,26.39,33.66,24.197,5.029,5.974,8.889
1401,0.757,36.302,26.634,33.65,24.201,5.03,6.015,9.134
1402,0.754,36.351,26.437,33.65,24.201,5.07,6.096,9.339
1403,0.748,36.15,26.619,33.669,24.201,5.111,6.016,9.423
1404,0.751,36.225,26.585,33.641,24.194,5.112,6.015,9.586
1405,0.761,36.389,26.523,33.65,24.19,5.071,5.974,9.669
1406,0.77,36.419,26.647,33.669,24.208,5.152,5.974,9.873
1407,0.754,36.007,26.469,33.679,24.211,5.153,6.096,9.997
1408,0.79,36.166,26.599,33.679,24.208,5.234,6.097,10.08
1409,0.813,36.254,26.394,33.679,24.204,5.113,6.056,10.162
1410,0.829,36.111,26.634,33.67,24.211,5.152,6.097,10.204
1411,0.82,36.09,26.422,33.669,24.208,5.153,6.056,10.245
1412,0.843,36.263,26.622,33.679,24.204,5.153,6.056,10.367
1413,0.892,36.379,26.597,33.708,24.218,5.315,6.178,10.49
1414,0.925,36.045,26.495,33.67,24.211,5.195,6.179,10.573
1415,0.964,36.137,26.611,33.669,24.198,5.153,6.098,10.574
1416,0.997,36.282,26.464,33.631,24.208,5.031,6.016,10.533
1417,1.059,36.37,26.666,33.65,24.204,5.111,6.015,10.573
1418,1.121,36.045,26.371,33.717,24.197,5.152,6.056,10.655
1419,1.194,36.185,26.567,33.68,24.208,5.193,6.015,10.615
1420,1.237,36.292,26.655,33.65,24.204,5.153,6.096,10.574
1421,1.276,36.37,26.554,33.641,24.194,4.99,6.016,10.451
1422,1.351,35.92,26.698,33.679,24.204,5.029,6.056,10.491
1423,1.417,36.079,26.43,33.689,24.208,5.151,6.137,10.573
1424,1.493,36.205,26.587,33.689,24.204,5.153,6.138,10.492
1425,1.571,36.273,26.339,33.689,24.211,5.153,6.138,10.451
1426,1.644,36.053,26.606,33.689,24.208,5.193,6.179,10.45
1427,1.69,36.185,26.628,33.689,24.201,5.153,6.139,10.369
1428,1.759,36.331,26.468,33.679,24.204,5.112,6.098,10.368
1429,1.85,36.39,26.658,33.708,24.215,5.234,6.26,10.368
1430,1.903,36.016,26.473,33.689,24.208,5.235,6.221,10.287
1431,1.936,36.128,26.681,33.67,24.201,5.072,6.098,10.205
1432,1.953,36.253,26.406,33.66,24.197,5.03,6.097,10.082
1433,2.005,36.283,26.568,33.679,24.201,5.03,6.097,9.959
1434,2.048,36.015,26.378,33.698,24.208,5.07,6.097,9.998
1435,2.114,36.156,26.552,33.698,24.208,5.111,6.178,9.958
1436,2.134,36.244,26.671,33.689,24.197,5.112,6.098,9.917
1437,2.144,36.293,26.473,33.737,24.204,4.908,6.097,9.713
1438,2.147,35.967,26.631,33.718,24.204,5.109,6.138,9.752
1439,2.16,36.089,26.414,33.727,24.208,5.152,6.26,9.833
1440,2.124,36.215,26.634,33.708,24.211,5.153,6.221,9.875
1441,2.137,36.139,26.5,33.708,24.208,5.153,6.22,9.753
1442,2.114,36.225,26.576,33.699,24.208,5.071,6.18,9.671
1443,2.059,36.35,26.429,33.698,24.204,5.03,6.139,9.589
1444,1.993,36.476,26.505,33.718,24.215,5.151,6.179,9.588
1445,1.902,35.816,26.697,33.737,24.211,5.234,6.301,9.669
1446,1.774,35.895,26.43,33.708,24.204,5.072,6.18,9.589
1447,1.639,36.03,26.634,33.699,24.201,5.03,6.139,9.466
1448,1.482,36.128,26.359,33.698,24.197,4.948,6.016,9.383
1449,1.353,36.023,26.614,33.698,24.19,4.988,6.096,9.423
1450,1.241,36.176,26.675,33.698,24.204,5.07,6.138,9.464
1451,1.117,36.321,26.438,33.708,24.201,5.07,6.138,9.627
1452,0.93,36.39,26.552,33.708,24.197,5.03,6.138,9.751
1453,0.795,35.824,26.354,33.689,24.194,4.948,6.016,9.874
1454,0.67,35.953,26.614,33.727,24.201,5.069,6.137,10.201
1455,0.552,36.069,26.601,33.728,24.204,5.03,6.179,10.57
1456,0.437,36.147,26.554,33.718,24.201,5.111,6.22,10.818
1457,0.335,35.908,26.612,33.718,24.204,5.071,6.139,11.105
1458,0.252,36.059,26.527,33.718,24.204,5.07,6.138,11.433
1459,0.18,36.166,26.674,33.727,24.204,5.03,6.138,11.802
1460,0.117,36.225,26.445,33.766,24.208,5.07,6.138,12.172
1461,0.091,35.938,26.545,33.747,24.222,5.233,6.26,12.622
1462,0.029,36.04,26.362,33.776,24.198,5.072,6.18,12.952
1463,-0.005,36.185,26.575,33.699,24.197,4.989,6.057,13.078
1464,-0.024,36.206,26.425,33.708,24.201,4.988,6.015,13.323
1465,-0.012,35.928,26.607,33.708,24.204,4.988,6.056,13.569
1466,0.002,36.079,26.648,33.727,24.197,5.029,6.097,13.653
1467,0.034,36.186,26.437,33.737,24.201,4.989,6.138,13.654
1468,0.074,36.014,26.642,33.708,24.19,4.907,6.016,13.735
1469,0.106,35.945,26.39,33.727,24.204,4.947,6.015,13.695
1470,0.146,36.127,26.548,33.747,24.204,5.069,6.096,13.776
1471,0.176,36.244,26.382,33.747,24.208,5.07,6.138,13.94
1472,0.199,35.871,26.478,33.747,24.208,5.07,6.098,13.86
1473,0.235,35.953,26.635,33.737,24.208,5.03,6.138,13.9
1474,0.293,36.089,26.511,33.737,24.204,5.07,6.138,13.981
1475,0.33,36.186,26.67,33.728,24.204,5.07,6.098,13.982
1476,0.373,35.899,26.395,33.775,24.215,5.152,6.178,14.185
1477,0.396,36.002,26.591,33.747,24.211,5.071,6.22,14.432
1478,0.428,36.108,26.628,33.728,24.201,4.989,6.017,14.556
1479,0.458,36.205,26.488,33.747,24.197,4.866,5.974,14.679
1480,0.497,35.871,26.627,33.776,24.197,5.028,5.974,15.006
1481,0.54,36.021,26.39,33.747,24.204,4.948,6.015,15.375
1482,0.573,36.156,26.599,33.747,24.204,4.988,5.974,15.501
1483,0.586,36.206,26.378,33.728,24.201,4.948,6.015,15.827
1484,0.606,35.784,26.63,33.728,24.19,4.947,5.852,15.952
1485,0.642,35.962,26.558,33.766,24.204,4.988,6.013,16.157
1486,0.659,36.089,26.53,33.766,24.208,5.07,6.218,16.281
1487,0.652,36.147,26.686,33.747,24.208,5.07,6.139,16.323
1488,0.649,35.841,26.5,33.756,24.211,5.111,6.138,16.282
1489,0.659,36.011,26.604,33.747,24.208,5.03,6.098,16.282
1490,0.665,36.137,26.374,33.756,24.204,5.07,6.138,16.16
1491,0.669,36.196,26.595,33.747,24.208,5.03,6.138,16.078
1492,0.659,35.88,26.566,33.785,24.222,5.273,6.26,16.077
1493,0.669,36.002,26.569,33.766,24.205,5.073,6.139,15.752
1494,0.665,36.099,26.675,33.738,24.197,4.989,6.098,15.464
1495,0.675,37.059,26.414,33.756,24.201,4.948,6.056,15.257
1496,0.682,37.682,26.638,33.747,24.197,5.029,6.056,15.052
1497,0.682,37.813,26.507,33.756,24.204,5.07,6.097,14.847
1498,0.685,37.92,26.654,33.785,24.201,4.989,6.138,14.601
1499,0.682,35.408,26.387,33.795,24.204,5.07,6.138,14.436
1500,0.688,34.875,26.595,33.738,24.194,4.908,5.976,14.149
1501,0.721,35.061,26.417,33.776,24.197,4.947,6.015,13.984
1502,0.711,35.178,26.65,33.776,24.204,5.069,6.178,13.82
1503,0.721,35.985,26.66,33.786,24.208,5.111,6.139,13.615
1504,0.708,36.185,26.578,33.776,24.208,5.112,6.179,13.45
1505,0.718,36.311,26.632,33.776,24.204,5.03,6.057,13.204
1506,0.698,36.418,26.429,33.795,24.204,5.03,6.097,12.917
1507,0.711,35.614,26.654,33.786,24.204,5.111,6.097,12.67
1508,0.728,35.788,26.383,33.824,24.211,5.071,6.219,12.505
1509,0.712,35.914,26.622,33.805,24.211,5.193,6.261,12.504
1510,0.695,35.964,26.437,33.786,24.204,4.99,6.139,12.179
1511,0.698,35.868,26.572,33.757,24.197,4.907,6.016,11.85
1512,0.708,36.021,26.655,33.766,24.201,4.987,5.974,11.562
1513,0.708,36.166,26.531,33.766,24.201,4.988,6.015,11.519
1514,0.721,36.225,26.627,33.785,24.197,4.988,6.015,11.355
1515,0.705,35.612,26.379,33.786,24.208,5.029,6.056,11.151
1516,0.695,35.721,26.606,33.757,24.191,4.907,6.015,10.945
1517,0.708,35.875,26.406,33.795,24.19,4.947,6.015,10.781
1518,0.715,35.954,26.521,33.814,24.204,5.069,6.096,10.82
1519,0.731,35.801,26.623,33.786,24.204,5.07,6.219,10.983
1520,0.734,35.943,26.523,33.805,24.201,5.07,6.098,10.984
1521,0.731,36.06,26.682,33.795,24.201,5.07,6.097,11.147
1522,0.741,36.07,26.473,33.776,24.208,5.03,6.138,11.352
1523,0.744,35.706,26.646,33.795,24.197,4.989,6.138,11.679
1524,0.747,35.875,26.336,33.824,24.211,5.07,6.138,12.008
1525,0.738,35.963,26.559,33.805,24.208,5.07,6.219,12.458
1526,0.721,35.887,26.675,33.786,24.201,4.989,6.098,12.707
1527,0.724,35.771,26.504,33.786,24.19,4.948,6.056,12.912
1528,0.724,35.933,26.623,33.795,24.204,4.947,6.015,13.077
1529,0.721,36.021,26.48,33.795,24.204,4.988,6.015,13.282
1530,0.731,35.725,26.674,33.786,24.204,4.988,6.056,13.528
1531,0.718,35.808,26.48,33.805,24.208,5.029,6.137,13.693
1532,0.711,35.915,26.658,33.795,24.197,4.948,6.016,13.695
1533,0.734,36.031,26.375,33.795,24.197,4.988,5.974,13.695
1534,0.741,35.744,26.583,33.814,24.204,5.07,6.055,13.776
1535,0.744,35.866,26.429,33.824,24.208,5.07,6.056,13.777
1536,0.734,35.982,26.572,33.815,24.211,5.07,6.137,13.736
1537,0.738,36.079,26.577,33.824,24.204,5.03,6.138,13.573
1538,0.718,35.639,26.39,33.824,24.201,5.03,6.057,13.531
1539,0.741,35.779,26.638,33.824,24.211,4.948,6.097,13.368
1540,0.754,35.933,26.445,33.834,24.211,5.069,6.016,13.285
1541,0.744,35.983,26.603,33.844,24.218,5.152,6.178,13.203
1542,0.741,35.724,26.511,33.805,24.201,4.99,6.057,13.039
1543,0.741,35.856,26.498,33.786,24.197,4.866,5.975,12.712
1544,0.738,35.982,26.569,33.805,24.204,4.946,6.055,12.546
1545,0.744,36.051,26.483,33.805,24.208,4.988,5.975,12.423
1546,0.751,35.706,26.662,33.795,24.197,5.029,5.974,12.259
1547,0.731,35.846,26.426,33.814,24.197,4.989,6.015,12.176
1548,0.728,35.944,26.622,33.795,24.194,4.988,6.015,11.931
1549,0.734,36.002,26.398,33.795,24.197,4.866,5.893,11.685
1550,0.747,35.677,26.622,33.824,24.197,4.906,6.014,11.56
1551,0.728,35.856,26.355,33.824,24.208,5.069,6.056,11.437
1552,0.734,35.944,26.497,33.844,24.201,5.03,6.137,11.395
1553,0.734,36.175,26.584,33.825,24.201,4.989,6.057,11.151
1554,0.744,35.726,26.507,33.824,24.204,4.988,6.015,11.108
1555,0.747,35.875,26.69,33.805,24.201,4.988,6.015,10.945
1556,0.76,35.992,26.395,33.843,24.211,4.988,6.015,10.821
1557,0.748,35.821,26.626,33.844,24.215,5.151,6.218,10.82
1558,0.738,35.8,26.39,33.815,24.205,5.071,6.139,10.739
1559,0.731,35.934,26.614,33.795,24.201,4.989,6.016,10.453
1560,0.738,36.021,26.613,33.795,24.201,4.988,5.934,10.41
1561,0.744,35.706,26.417,33.814,24.201,4.907,5.974,10.247
1562,0.764,35.808,26.599,33.824,24.204,4.865,5.974,10.164
1563,0.77,35.943,26.402,33.815,24.208,4.946,5.974,10.122
1564,0.761,36.002,26.63,33.815,24.201,4.988,6.015,10.0
1565,0.767,36.243,26.406,33.805,24.187,4.866,5.934,9.836
1566,0.767,36.437,26.591,33.834,24.194,4.987,5.974,9.753
1567,0.774,36.544,26.612,33.824,24.211,5.029,6.096,9.793
1568,0.774,36.612,26.577,33.824,24.211,4.989,6.016,9.753
1569,0.754,35.232,26.659,33.834,24.208,4.988,6.056,9.671
1570,0.748,35.391,26.441,33.834,24.208,4.988,6.137,9.507
1571,0.747,35.517,26.634,33.834,24.204,4.988,6.016,9.465
1572,0.754,35.595,26.41,33.824,24.201,4.948,6.056,9.383
1573,0.748,35.788,26.626,33.872,24.218,5.11,6.178,9.423
1574,0.751,35.895,26.421,33.844,24.208,5.071,6.057,9.342
1575,0.735,36.011,26.618,33.815,24.201,4.908,6.056,9.097
1576,0.741,36.08,26.515,33.815,24.19,4.865,5.975,9.054
1577,0.744,35.572,26.53,33.805,24.194,4.906,5.974,9.054
1578,0.744,35.72,26.678,33.834,24.197,4.947,5.974,9.095
1579,0.744,35.847,26.477,33.834,24.204,4.947,6.055,8.973
1580,0.751,35.857,26.639,33.805,24.194,4.907,6.015,8.891
1581,0.754,36.548,26.406,33.834,24.19,4.865,5.974,8.727
1582,0.764,36.689,26.65,33.834,24.204,4.906,6.055,8.848
1583,0.764,36.815,26.461,33.853,24.208,5.069,6.137,8.849
1584,0.754,36.203,26.65,33.844,24.208,5.03,6.179,8.808
1585,0.754,35.055,26.328,33.844,24.204,4.948,6.057,8.726
1586,0.761,35.188,26.551,33.844,24.204,4.947,6.097,8.685
1587,0.761,35.285,26.386,33.853,24.204,4.988,6.097,8.684
1588,0.757,35.718,26.591,33.863,24.208,5.029,6.056,8.603
1589,0.751,35.904,26.288,33.882,24.215,5.111,6.219,8.643
1590,0.751,36.002,26.551,33.834,24.208,4.989,6.139,8.521
1591,0.744,36.079,26.643,33.834,24.197,4.907,6.016,8.561
1592,0.734,35.438,26.5,33.834,24.194,4.906,6.056,8.602
1593,0.734,35.537,26.686,33.824,24.194,4.906,6.015,8.724
1594,0.734,35.701,26.473,33.844,24.201,4.987,5.974,8.848
1595,0.731,35.779,26.627,33.863,24.204,4.988,6.055,9.093
1596,0.731,35.435,26.382,33.825,24.197,4.948,5.975,9.38
1597,0.738,35.594,26.649,33.834,24.197,4.947,5.974,9.545
1598,0.741,35.749,26.34,33.863,24.204,4.988,6.096,10.035
1599,0.757,35.856,26.536,33.892,24.204,4.988,6.138,10.406
1600,0.741,35.579,26.608,33.863,24.208,5.029,6.138,10.694
1601,0.751,35.72,26.488,33.863,24.204,4.989,6.179,10.981
1602,0.748,35.856,26.725,33.863,24.204,4.948,6.057,11.106
1603,0.744,35.896,26.442,33.863,24.197,4.988,6.137,11.311
1604,0.77,35.493,26.58,33.863,24.211,4.988,6.138,11.394
1605,0.767,35.643,26.562,33.911,24.211,5.11,6.138,11.639
1606,0.751,35.74,26.53,33.873,24.201,5.071,6.138,11.601
1607,0.741,35.76,26.655,33.844,24.197,4.948,6.016,11.478
1608,0.738,35.559,26.43,33.853,24.19,4.907,6.015,11.477
1609,0.751,35.701,26.595,33.853,24.204,4.987,5.974,11.477
1610,0.754,35.827,26.347,33.863,24.201,4.866,5.974,11.477
1611,0.744,35.828,26.583,33.844,24.204,4.906,6.015,11.396
1612,0.734,35.531,26.476,33.872,24.197,4.987,6.056,11.314
1613,0.741,35.662,26.529,33.854,24.19,4.866,6.056,11.232
1614,0.734,35.817,26.53,33.853,24.201,4.865,5.934,11.109
1615,0.747,35.608,26.534,33.882,24.204,5.028,6.014,11.189
1616,0.747,35.548,26.67,33.854,24.204,4.948,6.056,11.149
1617,0.741,35.663,26.492,33.872,24.208,5.029,6.056,11.149
1618,0.738,35.779,26.631,33.882,24.194,4.948,6.097,11.108
1619,0.747,35.512,26.398,33.863,24.204,4.947,6.016,10.985
1620,0.754,35.624,26.653,33.892,24.201,4.907,6.056,10.944
1621,0.774,35.769,26.426,33.902,24.211,5.069,6.178,10.984
1622,0.758,35.857,26.552,33.873,24.208,5.07,6.139,11.025
1623,0.748,35.388,26.542,33.854,24.197,4.908,5.976,10.741
1624,0.754,35.527,26.503,33.844,24.197,4.784,5.974,10.657
1625,0.738,35.643,26.631,33.863,24.201,4.824,6.015,10.574
1626,0.747,35.75,26.433,33.863,24.204,4.905,6.015,10.533
1627,0.747,35.377,26.607,33.882,24.197,4.906,5.974,10.532
1628,0.738,35.507,26.367,33.844,24.197,4.906,5.974,10.41
1629,0.731,35.653,26.669,33.825,24.19,4.784,5.893,10.206
1630,0.741,35.731,26.422,33.872,24.208,4.946,6.054,10.285
1631,0.728,35.549,26.552,33.873,24.204,4.988,6.056,10.367
1632,0.725,35.682,26.409,33.882,24.194,5.029,6.015,10.328
1633,0.741,35.827,26.509,33.873,24.204,4.989,6.137,10.286
1634,0.725,35.867,26.615,33.873,24.201,4.907,5.976,10.286
1635,0.715,35.522,26.554,33.882,24.204,4.987,6.015,10.367
1636,0.744,35.72,26.624,33.911,24.208,5.029,6.015,10.328
1637,0.725,35.808,26.484,33.873,24.215,4.989,6.096,10.449
1638,0.728,35.847,26.643,33.863,24.198,4.866,5.975,10.41
1639,0.734,35.464,26.418,33.853,24.197,4.784,5.974,10.328
1640,0.725,35.604,26.575,33.863,24.197,4.824,5.852,10.449
1641,0.734,35.721,26.374,33.873,24.201,4.865,5.891,10.41
1642,0.744,35.99,26.517,33.882,24.201,4.906,6.014,10.491
1643,0.744,35.542,26.6,33.863,24.204,4.947,5.934,10.451
1644,0.734,35.643,26.503,33.844,24.191,4.866,5.892,10.41
1645,0.738,35.788,26.67,33.882,24.19,4.906,5.892,10.531
1646,0.738,35.492,26.445,33.873,24.204,4.987,6.014,10.655
1647,0.741,35.518,26.63,33.892,24.204,4.988,5.974,10.737
1648,0.734,35.653,26.382,33.863,24.204,4.988,6.015,10.738
1649,0.738,35.75,26.599,33.882,24.204,5.029,5.974,10.697
1650,0.728,35.53,26.519,33.882,24.204,4.989,5.893,10.697
1651,0.728,35.662,26.483,33.863,24.208,4.988,5.933,10.697
1652,0.715,35.808,26.623,33.901,24.211,5.192,6.055,10.819
1653,0.711,35.867,26.406,33.883,24.201,5.112,6.015,10.779
1654,0.695,35.541,26.618,33.863,24.201,4.989,5.974,10.576
1655,0.695,35.691,26.421,33.873,24.197,4.988,5.893,10.574
1656,0.711,35.827,26.521,33.863,24.197,5.029,5.892,10.411
1657,0.708,35.915,26.655,33.863,24.201,5.111,5.892,10.409
1658,0.689,35.59,26.437,33.873,24.201,5.071,5.973,10.369
1659,0.675,35.73,26.576,33.873,24.201,5.03,5.893,10.368
1660,0.691,35.875,26.331,33.854,24.194,4.989,5.851,10.165
1661,0.711,35.954,26.551,33.882,24.204,5.07,5.891,10.122
1662,0.708,35.657,26.635,33.882,24.204,5.111,5.973,10.163
1663,0.711,35.807,26.535,33.882,24.201,5.071,5.933,10.122
1664,0.708,35.915,26.686,33.882,24.204,5.111,5.974,10.0
1665,0.711,35.973,26.379,33.892,24.204,5.071,5.974,9.877
1666,0.695,35.6,26.622,33.873,24.197,5.111,5.933,9.835
1667,0.701,35.74,26.41,33.882,24.204,5.112,6.014,9.794
1668,0.682,35.866,26.572,33.911,24.211,5.234,6.015,9.793
1669,0.685,35.858,26.632,33.94,24.204,5.072,5.974,9.712
1670,0.669,36.884,26.468,33.864,24.194,4.989,5.893,9.467
1671,0.659,37.028,26.635,33.863,24.197,4.948,5.892,9.424
1672,0.659,37.145,26.515,33.873,24.194,4.988,5.851,9.342
1673,0.672,36.005,26.655,33.882,24.194,5.07,5.891,9.301
1674,0.656,35.13,26.43,33.882,24.204,5.07,5.973,9.301
1675,0.649,35.265,26.619,33.844,24.191,4.948,5.933,9.219
1676,0.665,35.391,26.41,33.863,24.194,4.947,5.811,8.934
1677,0.659,35.939,26.556,33.882,24.204,5.069,5.891,9.093
1678,0.659,36.127,26.581,33.902,24.211,5.152,6.014,9.054
1679,0.669,36.282,26.444,33.883,24.204,5.112,6.015,8.973
1680,0.656,36.351,26.615,33.882,24.197,5.071,5.974,8.891
1681,0.652,35.862,26.457,33.863,24.204,5.07,5.974,8.809
1682,0.655,35.963,26.693,33.853,24.201,5.07,5.974,8.767
1683,0.662,36.137,26.492,33.901,24.215,5.152,5.974,8.685
1684,0.659,36.196,26.654,33.902,24.208,5.193,6.055,8.684
1685,0.652,36.014,26.371,33.863,24.197,5.031,5.893,8.562
1686,0.649,36.166,26.583,33.853,24.197,4.948,5.933,8.439
1687,0.636,36.292,26.405,33.872,24.197,4.988,5.892,8.357
1688,0.646,36.389,26.532,33.892,24.204,5.029,5.892,8.356
1689,0.633,36.093,26.6,33.873,24.201,5.03,5.892,8.275
1690,0.636,36.234,26.488,33.882,24.197,5.07,5.892,8.233
1691,0.62,36.341,26.607,33.844,24.201,4.989,5.851,8.151
1692,0.616,36.419,26.421,33.882,24.197,4.948,5.851,8.028
1693,0.619,36.16,26.622,33.882,24.208,5.069,5.973,8.109
1694,0.616,36.302,26.367,33.911,24.211,5.07,6.015,8.109
1695,0.616,36.408,26.61,33.883,24.204,5.07,5.934,8.069
1696,0.61,36.448,26.453,33.882,24.201,5.111,5.974,7.987
1697,0.622,36.324,26.533,33.882,24.204,5.03,5.974,7.986
1698,0.606,36.485,26.62,33.902,24.204,5.07,5.974,7.864
1699,0.609,36.621,26.449,33.911,24.211,5.07,5.893,7.863
1700,0.619,36.939,26.685,33.921,24.215,5.193,6.014,7.985
1701,0.613,36.415,26.406,33.883,24.205,5.234,5.974,7.824
1702,0.616,36.534,26.579,33.873,24.201,5.072,5.852,7.741
1703,0.629,36.631,26.565,33.863,24.194,5.03,5.851,7.74
1704,0.619,36.383,26.448,33.882,24.197,5.192,5.891,7.903
1705,0.616,36.381,26.595,33.882,24.204,5.072,5.851,7.945
1706,0.616,36.524,26.507,33.892,24.201,5.152,5.932,8.067
1707,0.606,36.612,26.627,33.94,24.208,5.193,5.892,8.109
1708,0.603,36.412,26.363,33.864,24.194,5.194,5.892,8.109
1709,0.613,36.544,26.626,33.873,24.197,5.112,5.811,8.191
1710,0.616,36.708,26.429,33.882,24.201,5.234,5.932,8.354
1711,0.603,36.787,26.583,33.892,24.208,5.275,6.014,8.6
1712,0.577,36.5,26.562,33.883,24.204,5.316,6.015,8.643
1713,0.583,36.679,26.401,33.921,24.204,5.317,6.056,8.684
1714,0.583,36.796,26.583,33.892,24.204,5.317,5.975,8.684
1715,0.596,36.855,26.464,33.892,24.197,5.276,5.974,8.766
1716,0.616,36.567,26.642,33.892,24.204,5.235,5.974,8.767
1717,0.616,36.728,26.402,33.911,24.215,5.397,6.096,8.929
1718,0.597,36.825,26.614,33.902,24.208,5.318,6.097,8.85
1719,0.616,36.884,26.437,33.892,24.194,5.236,5.975,8.767
1720,0.623,36.712,26.599,33.883,24.197,5.235,5.974,8.685
1721,0.619,36.863,26.472,33.892,24.201,5.194,6.015,8.684
1722,0.629,36.989,26.494,33.95,24.201,5.194,5.974,8.766
1723,0.632,37.039,26.615,33.902,24.201,5.194,5.974,8.685
1724,0.626,37.02,26.421,33.883,24.201,5.234,6.015,8.766
1725,0.636,37.135,26.665,33.873,24.194,5.113,5.934,8.685
1726,0.639,37.309,26.395,33.959,24.201,5.193,5.974,8.644
1727,0.655,37.32,26.567,33.922,24.208,5.234,6.096,8.725
1728,0.649,36.467,26.503,33.902,24.204,5.235,6.016,8.726
1729,0.662,36.611,26.549,33.911,24.204,5.235,6.056,8.685
1730,0.646,36.709,26.592,33.892,24.201,5.235,6.015,8.684
1731,0.649,36.815,26.445,33.902,24.208,5.275,6.015,8.603
1732,0.662,36.778,26.623,33.902,24.204,5.235,5.974,8.521
1733,0.669,36.921,26.445,33.94,24.218,5.316,6.137,8.601
1734,0.675,36.99,26.685,33.912,24.208,5.358,6.138,8.643
1735,0.682,36.904,26.383,33.892,24.191,5.155,5.976,8.481
1736,0.685,37.009,26.579,33.883,24.201,5.153,5.974,8.398
1737,0.692,37.154,26.616,33.882,24.197,5.153,5.893,8.438
1738,0.698,37.242,26.511,33.892,24.197,5.193,6.014,8.479
1739,0.724,36.533,26.619,33.911,24.201,5.194,6.056,8.398
1740,0.715,36.603,26.367,33.911,24.204,5.153,5.975,8.438
1741,0.741,36.766,26.567,33.883,24.194,5.071,5.893,8.275
1742,0.76,36.873,26.417,33.93,24.204,5.193,6.014,8.477
1743,0.757,36.836,26.618,33.912,24.208,5.234,6.056,8.479
1744,0.767,36.989,26.457,33.921,24.208,5.194,6.015,8.438
1745,0.77,37.106,26.537,33.921,24.204,5.153,6.015,8.438
1746,0.774,37.174,26.624,33.902,24.211,5.153,6.015,8.357
1747,0.771,37.923,26.5,33.921,24.208,5.193,5.974,8.397
1748,0.796,38.093,26.639,33.911,24.211,5.153,6.055,8.356
1749,0.794,38.229,26.379,33.959,24.208,5.356,6.137,8.397
1750,0.78,38.221,26.571,33.893,24.204,5.114,6.057,8.316
1751,0.784,36.14,26.374,33.883,24.191,5.112,5.934,8.112
1752,0.787,36.301,26.571,33.902,24.204,5.152,5.974,8.15
1753,0.793,36.437,26.718,33.902,24.204,5.112,5.933,8.069
1754,0.8,36.477,26.485,33.902,24.197,5.071,5.974,8.15
1755,0.784,36.89,26.662,33.902,24.204,5.152,5.974,8.11
1756,0.79,37.019,26.34,33.883,24.194,5.193,5.893,8.069
1757,0.806,37.144,26.598,33.882,24.201,5.112,5.973,7.906
1758,0.813,37.165,26.511,33.921,24.208,5.234,6.055,8.026
1759,0.826,36.782,26.506,33.921,24.208,5.235,6.015,8.068
1760,0.83,36.912,26.612,33.921,24.204,5.235,6.015,7.987
1761,0.839,37.019,26.511,33.911,24.208,5.235,6.056,8.027
1762,0.836,36.828,26.678,33.902,24.204,5.194,6.056,7.946
1763,0.83,36.788,26.5,33.902,24.201,5.153,5.975,7.823
1764,0.849,36.95,26.654,33.921,24.211,5.234,6.055,7.863
1765,0.836,37.057,26.422,33.94,24.215,5.357,6.097,7.944
1766,0.833,36.617,26.626,33.912,24.198,5.317,6.016,7.783
1767,0.839,36.69,26.371,33.883,24.204,5.154,5.974,7.781
1768,0.852,36.834,26.415,33.911,24.201,5.153,5.933,7.659
1769,0.83,36.941,26.607,33.911,24.197,5.193,5.974,7.576
1770,0.836,36.798,26.46,33.892,24.197,5.194,6.015,7.616
1771,0.82,36.96,26.607,33.902,24.204,5.153,6.056,7.576
1772,0.82,37.038,26.41,33.892,24.197,5.193,5.893,7.616
1773,0.839,37.145,26.611,33.883,24.19,5.112,5.851,7.535
1774,0.833,36.666,26.312,33.921,24.208,5.152,5.973,7.534
1775,0.833,36.824,26.578,33.911,24.204,5.234,6.015,7.657
1776,0.839,36.941,26.671,33.921,24.204,5.235,6.056,7.617
1777,0.833,37.009,26.469,33.911,24.208,5.275,6.056,7.698
1778,0.817,36.722,26.631,33.921,24.197,5.276,6.015,7.74
1779,0.82,36.863,26.41,33.921,24.208,5.276,5.974,7.699
1780,0.836,37.009,26.677,33.911,24.208,5.235,6.055,7.74
1781,0.833,37.048,26.449,33.931,24.218,5.316,6.178,7.821
1782,0.836,36.646,26.607,33.902,24.205,5.236,6.057,7.863
1783,0.823,36.776,26.57,33.911,24.194,5.113,5.975,7.741
1784,0.836,36.902,26.479,33.892,24.194,5.152,5.933,7.74
1785,0.833,36.932,26.611,33.902,24.197,5.071,5.933,7.943
1786,0.826,36.731,26.515,33.911,24.194,5.152,5.974,8.108
1787,0.83,36.883,26.584,33.921,24.204,5.153,6.015,8.191
1788,0.826,36.97,26.359,33.911,24.197,5.153,6.015,8.395
1789,0.826,37.173,26.598,33.883,24.197,5.031,5.893,8.56
1790,0.826,36.81,26.409,33.911,24.204,5.192,6.054,8.927
1791,0.813,36.951,26.572,33.931,24.204,5.234,6.056,9.215
1792,0.803,37.048,26.565,33.921,24.204,5.235,6.015,9.503
1793,0.807,36.8,26.355,33.921,24.204,5.153,6.056,9.709
1794,0.807,36.864,26.575,33.911,24.201,5.234,6.015,9.792
1795,0.813,36.999,26.405,33.902,24.201,5.194,6.015,10.037
1796,0.816,37.135,26.622,33.93,24.208,5.194,6.015,10.162
1797,0.813,36.637,26.386,33.931,24.208,5.356,6.178,10.407
1798,0.813,36.7,26.595,33.912,24.211,5.195,6.017,10.45
1799,0.823,36.844,26.398,33.883,24.194,5.112,5.974,10.328
1800,0.813,36.922,26.575,33.892,24.197,5.112,5.893,10.408
1801,0.829,36.798,26.339,33.911,24.194,5.112,5.973,10.45
1802,0.836,36.95,26.438,33.921,24.197,5.152,5.933,10.572
1803,0.826,37.057,26.56,33.921,24.204,5.112,6.014,10.451
1804,0.826,37.135,26.472,33.892,24.197,5.152,5.974,10.491
1805,0.826,36.57,26.658,33.892,24.19,5.031,5.893,10.451
1806,0.82,36.747,26.426,33.911,24.204,5.111,5.933,10.532
1807,0.833,36.892,26.63,33.921,24.204,5.193,6.055,10.858
1808,0.83,36.961,26.394,33.911,24.204,5.153,6.015,11.064
1809,0.817,36.837,26.638,33.883,24.204,5.193,6.056,11.229
1810,0.816,36.97,26.507,33.902,24.204,5.153,6.097,11.475
1811,0.81,37.096,26.565,33.978,24.208,5.153,6.056,11.68
1812,0.797,37.136,26.331,33.903,24.204,5.071,6.015,11.967
1813,0.82,37.059,26.551,33.94,24.215,5.233,6.015,12.295
1814,0.817,37.183,26.632,33.921,24.215,5.194,6.137,12.664
1815,0.8,37.232,26.539,33.892,24.201,5.153,5.976,12.709
1816,0.807,37.29,26.631,33.873,24.201,5.031,5.974,12.79
1817,0.823,36.649,26.453,33.882,24.197,5.03,5.974,12.954
1818,0.813,36.795,26.666,33.873,24.201,5.07,5.974,13.2
1819,0.823,36.912,26.422,33.901,24.204,5.152,5.974,13.283
1820,0.82,36.875,26.533,33.911,24.201,5.071,6.015,13.528
1821,0.817,36.807,26.35,33.883,24.19,5.07,5.934,13.653
1822,0.833,36.951,26.567,33.882,24.194,4.989,5.933,13.613
1823,0.826,37.067,26.624,33.902,24.204,5.151,6.055,13.897
1824,0.82,36.675,26.48,33.911,24.204,5.153,6.056,14.103
1825,0.839,36.748,26.631,33.902,24.204,5.193,6.056,14.227
1826,0.843,36.902,26.39,33.883,24.204,5.194,6.056,14.351
1827,0.833,36.98,26.61,33.902,24.201,5.072,6.097,14.433
1828,0.83,36.828,26.425,33.873,24.201,5.111,6.056,14.393
1829,0.846,36.979,26.517,33.901,24.208,5.152,6.015,14.434
1830,0.84,37.125,26.616,33.921,24.218,5.275,6.178,14.434
1831,0.826,37.155,26.488,33.892,24.211,5.154,6.179,14.393
1832,0.81,36.561,26.627,33.873,24.198,5.071,6.017,14.23
1833,0.823,36.689,26.457,33.863,24.194,5.03,5.893,14.025
1834,0.82,36.834,26.631,33.873,24.201,5.111,5.973,13.942
1835,0.826,36.922,26.285,33.863,24.194,5.03,5.933,13.86
1836,0.826,36.702,26.535,33.863,24.201,5.07,5.933,13.778
1837,0.833,36.844,26.643,33.873,24.204,5.111,6.014,13.614
1838,0.813,36.951,26.472,33.854,24.194,5.071,5.934,13.45
1839,0.826,37.057,26.631,33.863,24.201,5.03,5.892,13.164
1840,0.856,36.752,26.382,33.882,24.208,5.151,6.054,13.12
1841,0.849,36.883,26.606,33.892,24.208,5.193,6.015,12.957
1842,0.849,36.999,26.406,33.873,24.204,5.234,5.974,12.711
1843,0.853,37.029,26.63,33.882,24.201,5.194,5.974,12.465
1844,0.859,36.761,26.636,33.882,24.201,5.153,6.015,12.381
1845,0.859,36.912,26.484,33.873,24.208,5.112,6.015,12.137
1846,0.866,37.057,26.646,33.901,24.208,5.152,5.974,11.931
1847,0.859,37.423,26.437,33.902,24.215,5.275,6.096,11.97
1848,0.84,36.688,26.58,33.863,24.201,5.154,6.016,11.726
1849,0.839,36.815,26.327,33.844,24.187,5.031,5.934,11.398
1850,0.836,36.951,26.532,33.853,24.201,5.07,5.892,11.192
1851,0.83,36.808,26.643,33.863,24.201,5.07,5.933,11.068
1852,0.833,36.845,26.437,33.873,24.201,5.07,5.933,11.026
1853,0.843,36.98,26.634,33.873,24.204,5.152,5.974,10.822
1854,0.846,37.067,26.324,33.844,24.197,5.071,6.015,10.739
1855,0.836,36.665,26.555,33.815,24.194,4.908,5.852,10.494
1856,0.852,36.805,26.643,33.853,24.204,5.028,5.891,10.41
1857,0.849,36.941,26.445,33.872,24.204,5.151,5.973,10.369
1858,0.843,37.029,26.611,33.882,24.204,5.112,6.096,10.328
1859,0.843,36.713,26.374,33.854,24.208,5.152,6.056,10.124
1860,0.853,36.844,26.653,33.863,24.204,5.153,6.015,10.041
1861,0.856,36.98,26.437,33.863,24.201,5.071,5.974,9.918
1862,0.888,37.039,26.603,33.844,24.204,5.111,6.055,9.835
1863,0.879,36.799,26.367,33.882,24.211,5.193,6.056,9.753
1864,0.863,36.931,26.524,33.863,24.208,5.194,6.137,9.752
1865,0.859,37.038,26.604,33.844,24.197,5.153,6.016,9.549
1866,0.859,37.106,26.449,33.844,24.197,5.153,5.974,9.425
1867,0.856,36.637,26.537,33.844,24.201,5.071,5.974,9.342
1868,0.882,36.786,26.323,33.844,24.204,5.03,5.974,9.26
1869,0.866,36.912,26.59,33.825,24.204,5.07,5.974,9.137
1870,0.862,36.942,26.675,33.844,24.208,5.07,6.055,9.177
1871,0.862,36.789,26.523,33.805,24.201,4.989,5.975,9.096
1872,0.853,36.941,26.557,33.815,24.194,4.948,5.852,8.932
1873,0.843,37.077,26.327,33.853,24.201,5.069,6.013,9.012
1874,0.853,37.097,26.602,33.844,24.208,5.111,6.096,8.972
1875,0.843,36.81,26.402,33.844,24.208,5.112,6.097,8.972
1876,0.859,36.931,26.583,33.844,24.208,5.112,6.056,8.85
1877,0.853,37.057,26.597,33.844,24.204,5.112,6.056,8.808
1878,0.859,36.943,26.491,33.815,24.204,5.112,6.015,8.726
1879,0.859,36.751,26.658,33.843,24.211,5.152,6.015,8.685
1880,0.862,36.902,26.418,33.863,24.218,5.234,6.137,8.766
1881,0.866,36.971,26.579,33.825,24.208,5.113,5.976,8.685
1882,0.879,36.674,26.288,33.796,24.197,5.03,5.933,8.522
1883,0.882,36.748,26.57,33.805,24.197,5.07,5.892,8.439
1884,0.866,36.892,26.339,33.805,24.197,5.03,5.933,8.519
1885,0.869,36.99,26.567,33.815,24.204,5.03,5.933,8.439
1886,0.879,36.646,26.585,33.795,24.201,5.111,5.933,8.357
1887,0.869,36.767,26.48,33.824,24.204,5.071,6.014,8.397
1888,0.863,36.893,26.623,33.776,24.197,4.908,5.852,8.194
1889,0.866,36.999,26.488,33.805,24.204,5.028,5.932,8.273
1890,0.866,36.674,26.619,33.815,24.211,5.07,5.974,8.314
1891,0.853,36.834,26.336,33.824,24.208,5.111,6.015,8.274
1892,0.843,36.951,26.563,33.824,24.204,5.071,5.974,8.193
1893,0.846,37.029,26.327,33.815,24.208,5.07,6.015,8.151
1894,0.846,36.703,26.489,33.795,24.204,4.989,5.974,8.15
1895,0.853,36.863,26.689,33.786,24.208,5.07,5.974,8.069
1896,0.869,36.999,26.391,33.843,24.211,5.152,6.137,8.15
1897,0.853,37.02,26.575,33.815,24.208,5.153,6.016,8.15
1898,0.849,36.607,26.464,33.776,24.197,5.031,5.852,7.988
1899,0.872,36.766,26.56,33.786,24.201,4.989,5.891,7.864
1900,0.863,36.873,26.593,33.805,24.194,4.988,5.892,7.944
1901,0.866,36.942,26.448,33.786,24.204,5.151,5.892,7.864
1902,0.872,36.712,26.611,33.766,24.211,5.071,5.973,7.863
1903,0.866,36.863,26.378,33.785,24.208,5.07,5.974,7.944
1904,0.849,36.942,26.544,33.766,24.201,4.989,5.893,7.783
1905,0.869,37.0,26.553,33.766,24.197,4.988,5.811,7.781
1906,0.866,36.569,26.503,33.805,24.211,5.029,5.972,7.862
1907,0.866,36.708,26.623,33.786,24.215,5.151,6.015,7.985
1908,0.859,36.796,26.48,33.786,24.205,5.071,5.974,7.905
1909,0.869,36.797,26.603,33.795,24.204,5.111,6.055,7.863
1910,0.856,36.845,26.429,33.786,24.201,5.112,5.975,7.944
1911,0.846,36.98,26.607,33.786,24.208,5.112,6.055,7.823
1912,0.856,37.106,26.402,33.776,24.204,5.152,5.975,7.822
1913,0.859,36.474,26.638,33.805,24.218,5.234,6.096,7.985
1914,0.846,36.516,26.582,33.776,24.205,5.072,6.056,7.946
1915,0.84,36.631,26.503,33.728,24.197,4.989,5.975,7.783
1916,0.846,36.747,26.615,33.756,24.197,4.988,5.933,7.74
1917,0.843,36.499,26.46,33.737,24.208,4.988,5.933,7.781
1918,0.859,36.631,26.654,33.756,24.194,5.029,5.974,7.862
1919,0.853,36.786,26.344,33.766,24.204,4.989,5.933,7.822
1920,0.84,36.845,26.544,33.747,24.197,5.029,6.014,7.863
1921,0.856,36.577,26.354,33.737,24.197,5.03,5.893,7.822
1922,0.869,36.728,26.602,33.747,24.211,5.07,5.973,7.903
1923,0.863,36.863,26.675,33.766,24.204,5.07,6.055,7.985
1924,0.859,36.922,26.535,33.747,24.208,5.07,6.056,8.108
1925,0.856,36.607,26.663,33.814,24.208,4.989,6.056,8.191
1926,0.849,36.738,26.426,33.757,24.208,5.07,6.015,8.314
1927,0.856,36.844,26.661,33.766,24.204,5.07,6.056,8.437
1928,0.885,36.932,26.352,33.747,24.204,5.07,6.015,8.641
1929,0.856,36.53,26.579,33.766,24.211,5.111,6.178,8.847
1930,0.856,36.641,26.327,33.718,24.208,4.989,6.057,8.889
1931,0.843,36.767,26.536,33.727,24.197,4.948,6.056,8.971
1932,0.836,36.787,26.663,33.718,24.201,4.988,5.893,9.135
1933,0.833,36.672,26.555,33.727,24.204,5.029,5.892,9.217
1934,0.836,36.815,26.663,33.728,24.204,4.989,5.973,9.3
1935,0.843,36.931,26.387,33.728,24.204,4.988,5.974,9.382
1936,0.826,36.894,26.567,33.708,24.197,4.907,5.974,9.464
1937,0.833,36.568,26.448,33.708,24.197,4.906,5.893,9.546
1938,0.83,36.689,26.459,33.737,24.208,5.028,6.054,9.791
1939,0.833,36.796,26.619,33.756,24.208,5.07,6.015,9.915
1940,0.846,36.548,26.406,33.747,24.208,5.07,6.056,9.998
1941,0.849,36.641,26.63,33.737,24.204,5.07,5.975,10.08
1942,0.853,36.748,26.398,33.728,24.208,5.03,6.015,10.162
1943,0.849,36.854,26.607,33.718,24.201,5.03,6.056,10.244
1944,0.853,36.596,26.359,33.747,24.215,5.151,6.137,10.367
1945,0.843,36.689,26.551,33.737,24.211,5.112,6.057,10.409
1946,0.839,36.806,26.62,33.699,24.201,5.03,6.015,10.287
1947,0.836,36.893,26.484,33.718,24.197,4.989,5.893,10.286
1948,0.826,36.453,26.623,33.68,24.201,4.948,6.014,10.245
1949,0.833,36.611,26.382,33.717,24.197,4.988,5.934,10.245
1950,0.833,36.738,26.618,33.718,24.197,4.988,5.974,10.286
1951,0.833,36.796,26.41,33.718,24.204,5.029,6.015,10.205
1952,0.807,36.644,26.556,33.708,24.194,4.948,5.812,10.082
1953,0.82,36.815,26.616,33.718,24.204,4.988,5.932,10.081
1954,0.823,36.931,26.437,33.727,24.204,5.07,6.055,10.162
1955,0.823,36.99,26.607,33.728,24.208,5.03,6.056,10.122
1956,0.82,36.55,26.464,33.728,24.204,5.07,6.056,10.081
1957,0.82,36.67,26.599,33.718,24.204,5.07,6.056,9.999
1958,0.807,36.805,26.37,33.718,24.204,5.03,6.056,9.958
1959,0.833,36.864,26.571,33.727,24.204,5.03,6.015,9.917
1960,0.846,36.615,26.542,33.756,24.215,5.07,6.137,9.835
1961,0.846,36.728,26.557,33.728,24.218,5.152,6.179,9.916
1962,0.843,36.816,26.616,33.699,24.201,5.031,6.057,9.672
1963,0.843,36.826,26.398,33.698,24.197,4.989,5.934,9.629
1964,0.826,36.615,26.591,33.708,24.204,4.988,5.974,9.507
1965,0.839,36.747,26.351,33.689,24.197,4.988,5.974,9.506
1966,0.836,36.864,26.618,33.698,24.201,4.988,6.015,9.506
1967,0.826,36.731,26.375,33.766,24.201,5.029,5.974,9.465
1968,0.823,36.652,26.481,33.67,24.194,4.907,6.015,9.383
1969,0.833,36.815,26.654,33.698,24.197,4.947,5.934,9.301
1970,0.826,36.922,26.508,33.698,24.204,5.15,6.014,9.341
1971,0.82,36.539,26.631,33.718,24.208,5.031,6.096,9.342
1972,0.82,36.622,26.367,33.699,24.208,5.03,6.056,9.382
1973,0.83,36.766,26.606,33.746,24.208,5.07,6.056,9.342
1974,0.813,36.864,26.363,33.699,24.211,5.03,6.056,9.382
1975,0.813,36.587,26.622,33.689,24.201,5.03,6.015,9.382
1976,0.823,36.757,26.581,33.727,24.215,5.111,6.015,9.423
1977,0.813,36.864,26.487,33.718,24.208,5.112,6.096,9.546
1978,0.813,36.922,26.627,33.689,24.201,4.949,6.016,9.425
1979,0.816,36.597,26.449,33.67,24.194,4.947,5.934,9.424
1980,0.82,36.766,26.623,33.679,24.194,4.907,5.974,9.464
1981,0.826,36.902,26.32,33.679,24.204,4.987,6.015,9.587
1982,0.836,36.961,26.563,33.746,24.201,5.029,6.056,9.547
1983,0.826,36.425,26.312,33.68,24.201,5.07,6.015,9.628
1984,0.826,36.544,26.512,33.66,24.194,4.908,5.974,9.629
1985,0.817,36.689,26.662,33.679,24.194,5.028,6.015,9.629
1986,0.829,36.767,26.484,33.708,24.211,5.07,6.096,9.792
1987,0.82,36.739,26.596,33.689,24.208,5.03,6.097,9.793
1988,0.843,36.873,26.433,33.67,24.208,5.07,6.097,9.793
1989,0.83,36.97,26.63,33.679,24.201,5.03,6.056,9.712
1990,0.817,37.038,26.336,33.67,24.204,4.989,6.056,9.752
1991,0.826,36.588,26.567,33.679,24.201,5.07,6.056,9.752
1992,0.817,36.728,26.593,33.727,24.215,5.111,6.097,9.793
1993,0.8,36.816,26.534,33.67,24.205,5.071,6.056,9.793
1994,0.8,37.037,26.666,33.631,24.201,4.948,5.975,9.59
1995,0.803,36.665,26.461,33.659,24.201,4.988,5.974,9.547
1996,0.81,36.824,26.607,33.669,24.201,4.988,5.933,9.506
1997,0.803,36.941,26.355,33.66,24.197,4.988,5.974,9.506
1998,0.81,36.635,26.606,33.65,24.204,4.988,6.015,9.506
1999,0.807,36.632,26.386,33.65,24.197,5.029,6.015,9.425
2000,0.826,36.786,26.54,33.66,24.194,4.948,5.893,9.261
2001,0.839,36.922,26.588,33.679,24.201,5.069,6.054,9.259
2002,0.836,36.559,26.515,33.679,24.215,5.111,6.056,9.219
2003,0.836,36.689,26.643,33.66,24.205,5.152,6.137,9.218
2004,0.833,36.796,26.433,33.66,24.208,5.112,6.016,9.178
2005,0.83,36.902,26.607,33.669,24.201,5.071,6.137,9.015
2006,0.826,36.616,26.355,33.641,24.208,5.111,6.098,8.972
2007,0.83,36.738,26.548,33.66,24.201,5.071,6.097,8.931
2008,0.839,36.892,26.647,33.679,24.215,5.193,6.097,8.85
2009,0.826,36.951,26.469,33.689,24.215,5.275,6.178,8.971
2010,0.804,36.425,26.58,33.66,24.205,5.113,6.098,8.809
2011,0.8,36.544,26.437,33.641,24.197,5.03,6.056,8.645
2012,0.803,36.67,26.623,33.621,24.197,5.111,5.934,8.603
2013,0.803,36.748,26.429,33.631,24.201,5.152,5.974,8.521
2014,0.803,36.557,26.661,33.631,24.201,5.153,6.015,8.479
2015,0.807,36.727,26.305,33.65,24.204,5.153,5.974,8.398
2016,0.794,36.806,26.512,33.612,24.201,5.112,6.015,8.397
2017,0.803,36.855,26.623,33.631,24.194,5.03,5.852,8.234
2018,0.8,36.596,26.433,33.65,24.197,5.151,6.095,8.314
2019,0.82,36.757,26.611,33.66,24.208,5.234,6.056,8.274
2020,0.82,36.883,26.32,33.65,24.208,5.194,6.097,8.193
2021,0.82,36.894,26.532,33.641,24.204,5.194,6.056,8.273
2022,0.826,36.673,26.623,33.65,24.204,5.194,6.056,8.071
2023,0.826,36.805,26.523,33.631,24.204,5.194,5.975,8.069
2024,0.839,36.951,26.659,33.669,24.208,5.194,6.015,8.069
2025,0.833,36.741,26.437,33.65,24.211,5.234,6.178,8.231
2026,0.813,36.547,26.603,33.631,24.204,5.153,6.057,8.07
2027,0.816,36.66,26.386,33.621,24.204,5.071,6.056,7.906
2028,0.826,36.757,26.47,33.611,24.197,5.111,5.975,7.904
2029,0.813,36.48,26.576,33.611,24.201,5.152,5.974,7.985
2030,0.81,36.554,26.433,33.611,24.204,5.153,6.096,7.946
2031,0.807,36.68,26.634,33.621,24.201,5.112,6.056,8.067
2032,0.794,36.767,26.414,33.602,24.197,5.071,5.934,8.028
2033,0.813,36.48,26.618,33.602,24.197,5.07,5.974,7.905
2034,0.816,36.631,26.332,33.64,24.208,5.152,6.096,8.107
2035,0.807,36.757,26.551,33.64,24.208,5.193,6.138,8.15
2036,0.81,36.835,26.624,33.621,24.201,5.153,6.098,8.232
2037,0.81,36.375,26.5,33.602,24.204,5.153,6.097,8.233
2038,0.816,36.534,26.631,33.611,24.204,5.153,6.056,8.233
2039,0.816,36.67,26.425,33.621,24.208,5.112,6.137,8.314
2040,0.82,36.767,26.673,33.659,24.215,5.315,6.179,8.356
2041,0.817,36.519,26.426,33.631,24.205,5.276,6.179,8.437
2042,0.82,36.612,26.579,33.592,24.197,5.113,6.017,8.397
2043,0.826,36.757,26.601,33.592,24.197,5.071,5.974,8.275
2044,0.813,36.845,26.398,33.64,24.197,5.03,6.015,8.355
2045,0.82,36.385,26.575,33.612,24.201,5.111,5.974,8.437
2046,0.82,36.524,26.44,33.602,24.201,5.152,6.015,8.397
2047,0.82,36.631,26.576,33.611,24.204,5.071,5.974,8.438
2048,0.826,36.661,26.331,33.573,24.197,5.07,5.974,8.275
2049,0.82,36.537,26.59,33.592,24.204,5.07,6.015,8.355
2050,0.807,36.689,26.655,33.611,24.208,5.193,6.056,8.437
2051,0.8,36.815,26.515,33.611,24.201,5.194,6.097,8.479
2052,0.803,37.181,26.576,33.602,24.201,5.194,6.056,8.438
2053,0.81,36.427,26.355,33.611,24.208,5.153,6.056,8.479
2054,0.813,36.563,26.579,33.592,24.211,5.153,6.056,8.438
2055,0.803,36.67,26.366,33.582,24.204,5.153,6.097,8.397
2056,0.823,36.47,26.618,33.611,24.215,5.193,6.056,8.438
2057,0.817,36.468,26.632,33.611,24.208,5.194,6.097,8.519
2058,0.803,36.592,26.488,33.602,24.197,5.234,6.056,8.358
2059,0.813,36.68,26.658,33.583,24.197,5.072,5.975,8.234
2060,0.826,36.336,26.473,33.573,24.197,5.07,5.974,8.192
2061,0.833,36.466,26.596,33.592,24.197,5.111,5.933,8.232
2062,0.849,36.602,26.32,33.582,24.201,5.152,5.933,8.192
2063,0.84,36.709,26.496,33.602,24.201,5.071,5.974,8.151
2064,0.813,36.336,26.584,33.554,24.194,5.07,5.933,8.15
2065,0.813,36.495,26.55,33.563,24.194,5.03,5.892,8.069
2066,0.813,36.631,26.616,33.592,24.201,5.192,5.973,8.15
2067,0.813,36.728,26.484,33.592,24.204,5.194,6.055,8.191
2068,0.803,36.298,26.635,33.573,24.208,5.194,6.015,8.192
2069,0.803,36.437,26.484,33.573,24.204,5.072,6.056,8.192
2070,0.794,36.563,26.646,33.573,24.211,5.193,6.056,8.314
2071,0.8,36.632,26.379,33.573,24.204,5.153,6.015,8.356
2072,0.807,36.412,26.591,33.601,24.208,5.112,6.056,8.275
2073,0.807,36.525,26.343,33.592,24.218,5.315,6.137,8.436
2074,0.8,36.631,26.579,33.563,24.205,5.195,6.098,8.397
2075,0.807,36.671,26.433,33.553,24.194,5.031,5.894,8.275
2076,0.829,36.403,26.533,33.544,24.194,5.07,5.892,8.233
2077,0.839,36.544,26.503,33.544,24.201,5.111,5.973,8.273
2078,0.843,36.67,26.533,33.563,24.19,5.152,5.974,8.233
2079,0.872,36.709,26.627,33.563,24.201,5.153,6.055,8.273
2080,0.879,36.403,26.464,33.553,24.201,5.071,6.015,8.274
2081,0.895,36.572,26.564,33.592,24.197,5.07,5.852,8.111
2082,0.915,36.68,26.374,33.573,24.204,5.193,5.973,8.15
2083,0.912,36.575,26.598,33.563,24.208,5.234,6.055,8.191
2084,0.908,36.335,26.374,33.563,24.208,5.153,6.097,8.232
2085,0.912,36.476,26.591,33.553,24.201,5.234,6.097,8.151
2086,0.905,36.583,26.503,33.553,24.204,5.235,6.056,8.191
2087,0.899,36.315,26.49,33.553,24.201,5.194,5.975,8.07
2088,0.941,36.409,26.639,33.563,24.204,5.194,6.055,8.028
2089,0.928,36.544,26.465,33.563,24.218,5.316,6.219,8.19
2090,0.902,36.641,26.595,33.573,24.201,5.154,6.139,8.07
2091,0.892,36.153,26.382,33.506,24.194,5.112,5.976,7.946
2092,0.889,36.292,26.595,33.524,24.197,5.152,5.974,7.823
2093,0.879,36.428,26.39,33.515,24.197,5.193,5.974,7.863
2094,0.889,36.506,26.603,33.524,24.204,5.153,6.015,7.822
2095,0.889,36.276,26.374,33.515,24.197,5.153,6.015,7.863
2096,0.889,36.399,26.528,33.524,24.204,5.153,6.015,7.904
2097,0.895,36.525,26.616,33.496,24.194,5.071,5.934,7.782
2098,0.928,36.631,26.515,33.534,24.201,5.152,6.014,7.984
2099,0.935,36.297,26.584,33.553,24.208,5.234,6.137,8.19
2100,0.941,36.456,26.398,33.544,24.204,5.194,6.098,8.192
2101,0.945,36.583,26.599,33.534,24.215,5.194,6.056,8.314
2102,0.951,36.613,26.409,33.534,24.205,5.234,6.056,8.396
2103,0.941,36.297,26.607,33.524,24.201,5.153,6.097,8.6
2104,0.951,36.447,26.616,33.524,24.201,5.193,6.056,8.684
2105,0.948,36.602,26.503,33.601,24.208,5.234,6.097,8.888
2106,0.948,36.613,26.604,33.563,24.211,5.235,6.219,9.052
2107,0.941,36.105,26.421,33.496,24.198,5.153,6.058,9.135
2108,0.954,36.243,26.579,33.495,24.201,5.071,5.975,9.136
2109,0.971,36.398,26.323,33.486,24.197,5.152,5.974,9.177
2110,0.961,36.419,26.524,33.514,24.197,5.153,5.974,9.34
2111,0.964,36.275,26.436,33.486,24.204,5.071,5.974,9.382
2112,0.955,36.389,26.556,33.514,24.197,5.152,5.974,9.464
2113,0.932,36.476,26.639,33.486,24.197,5.071,5.933,9.465
2114,0.941,36.439,26.441,33.486,24.194,5.03,5.852,9.424
2115,0.928,36.496,26.626,33.495,24.215,5.111,6.013,9.586
2116,0.912,36.631,26.324,33.505,24.208,5.234,6.096,9.588
2117,0.899,36.719,26.575,33.514,24.204,5.153,6.016,9.588
2118,0.899,36.154,26.55,33.515,24.208,5.234,6.056,9.547
2119,0.902,36.234,26.471,33.505,24.201,5.235,6.015,9.506
2120,0.902,36.369,26.607,33.495,24.201,5.153,6.056,9.465
2121,0.918,36.467,26.507,33.514,24.204,5.112,6.015,9.424
2122,0.922,36.266,26.643,33.524,24.215,5.274,6.137,9.424
2123,0.902,36.399,26.429,33.496,24.208,5.154,6.016,9.261
2124,0.886,36.515,26.54,33.466,24.197,5.112,5.974,9.219
2125,0.895,36.602,26.35,33.485,24.197,5.03,6.015,9.137
2126,0.892,36.143,26.602,33.476,24.201,5.151,5.974,9.055
2127,0.889,36.282,26.605,33.485,24.201,5.112,6.015,9.095
2128,0.885,36.428,26.472,33.495,24.204,5.071,6.015,8.932
2129,0.879,36.487,26.596,33.447,24.201,5.07,5.974,8.931
2130,0.882,36.199,26.448,33.447,24.19,4.989,5.852,8.728
2131,0.892,36.36,26.673,33.485,24.208,5.11,6.054,8.766
2132,0.886,36.476,26.406,33.486,24.211,5.152,6.056,8.807
2133,0.889,36.525,26.532,33.486,24.204,5.193,6.015,8.808
2134,0.889,36.037,26.417,33.533,24.204,5.194,6.015,8.726
2135,0.885,36.185,26.478,33.496,24.208,5.153,6.015,8.603
2136,0.879,36.292,26.639,33.466,24.204,5.153,6.056,8.521
2137,0.879,36.351,26.402,33.514,24.208,5.234,6.137,8.479
2138,0.872,36.208,26.607,33.515,24.215,5.235,6.138,8.601
2139,0.869,36.292,26.374,33.467,24.205,5.113,6.057,8.48
