time,ecg,bvp,gsr,rsp,skt,emg_zygo,emg_coru,emg_trap
0,0.922,36.226,15.128,32.885,25.863,5.194,7.822,7.822
1,0.928,36.4,15.167,32.885,25.863,5.276,7.781,7.74
2,0.941,36.516,15.14,32.905,25.866,5.317,7.863,7.863
3,0.964,36.603,15.128,32.905,25.87,5.194,7.74,7.822
4,0.935,36.226,15.112,32.895,25.859,5.194,7.74,7.74
5,0.935,36.342,15.124,32.866,25.856,5.07,7.658,7.74
6,0.945,36.506,15.191,32.895,25.863,5.276,7.781,7.74
7,0.948,36.574,15.191,32.934,25.88,5.317,7.863,7.945
8,0.935,36.245,15.159,32.895,25.863,5.153,7.74,7.781
9,0.922,36.4,15.037,32.924,25.87,5.194,7.822,7.74
10,0.935,36.526,15.112,32.895,25.873,5.235,7.822,7.822
11,0.918,36.526,15.175,32.876,25.859,5.235,7.863,7.74
12,0.905,36.322,15.124,32.895,25.863,5.235,7.904,7.699
13,0.905,36.477,15.152,32.924,25.87,5.276,8.027,7.822
14,0.889,36.574,15.128,32.914,25.866,5.194,7.986,7.781
15,0.882,36.545,15.155,32.895,25.856,5.235,7.863,7.658
16,0.895,36.177,15.148,32.876,25.859,5.235,7.863,7.699
17,0.892,36.342,15.175,32.914,25.87,5.235,8.027,7.822
18,0.902,36.439,15.148,32.943,25.884,5.358,8.15,7.822
19,0.908,36.196,15.112,32.963,25.87,5.194,8.027,7.617
20,0.889,36.303,15.112,32.914,25.863,5.153,7.986,7.658
21,0.889,36.4,15.175,32.905,25.866,5.276,7.986,7.781
22,0.882,36.487,15.104,32.895,25.87,5.194,8.027,7.617
23,0.889,36.129,15.108,32.885,25.859,5.194,8.027,7.699
24,0.902,36.274,15.14,32.905,25.873,5.235,8.109,7.699
25,0.879,36.4,15.144,32.914,25.87,5.235,7.986,7.617
26,0.849,36.429,15.152,32.895,25.859,5.112,7.945,7.494
27,0.856,35.954,15.175,32.895,25.856,5.153,8.069,7.617
28,0.849,36.138,15.144,32.924,25.859,5.235,8.109,7.658
29,0.853,36.293,15.085,32.934,25.877,5.317,8.109,7.658
30,0.833,36.342,15.104,32.876,25.859,5.153,7.986,7.534
31,0.833,36.071,15.159,32.905,25.859,5.153,7.945,7.452
32,0.836,36.235,15.092,32.914,25.873,5.235,7.986,7.617
33,0.846,36.361,15.108,32.924,25.863,5.235,8.027,7.699
34,0.853,36.4,15.128,32.924,25.863,5.194,7.945,7.534
35,0.866,36.032,15.175,32.924,25.87,5.276,8.027,7.658
36,0.869,36.177,15.167,32.905,25.866,5.112,8.027,7.617
37,0.872,36.255,15.159,32.905,25.856,5.112,7.945,7.534
38,0.859,36.284,15.12,32.914,25.866,5.235,8.027,7.617
39,0.859,36.129,15.116,32.924,25.863,5.276,8.109,7.699
40,0.859,36.274,15.1,32.934,25.873,5.153,8.027,7.658
41,0.853,36.361,15.163,32.914,25.859,5.07,8.027,7.617
42,0.843,36.448,15.081,32.905,25.856,5.112,7.904,7.534
43,0.846,36.603,15.108,32.934,25.866,5.194,8.109,7.781
44,0.836,36.72,15.124,32.953,25.877,5.317,8.192,7.863
45,0.826,36.787,15.183,32.914,25.863,5.153,8.069,7.699
46,0.807,35.848,15.175,32.924,25.866,5.153,8.027,7.658
47,0.807,35.935,15.183,32.924,25.87,5.194,7.986,7.699
48,0.816,36.042,15.12,32.924,25.859,5.153,8.027,7.699
49,0.8,36.167,15.108,32.924,25.87,5.153,7.986,7.658
50,0.784,35.954,15.1,32.934,25.863,5.153,8.027,7.781
51,0.78,36.1,15.171,32.914,25.866,5.153,8.027,7.658
52,0.767,36.206,15.116,32.924,25.863,5.153,7.863,7.699
53,0.767,36.293,15.096,32.934,25.863,5.112,7.945,7.699
54,0.78,35.945,15.144,32.943,25.87,5.153,8.027,7.658
55,0.793,36.08,15.167,32.934,25.859,5.235,7.945,7.658
56,0.797,36.187,15.175,32.924,25.852,5.07,7.945,7.534
57,0.78,36.216,15.171,32.905,25.856,5.07,7.945,7.534
58,0.784,35.945,15.148,32.934,25.863,5.235,8.069,7.617
59,0.787,36.138,15.132,32.973,25.877,5.358,8.192,7.74
60,0.77,36.196,15.128,32.934,25.859,5.07,8.027,7.494
61,0.767,36.226,15.183,32.924,25.859,5.07,7.986,7.494
62,0.757,35.954,15.104,32.934,25.866,5.153,8.109,7.534
63,0.751,36.1,15.128,32.934,25.866,5.112,8.15,7.534
64,0.757,36.196,15.116,32.934,25.856,5.153,8.109,7.452
65,0.747,36.429,15.183,32.943,25.87,5.235,8.109,7.534
66,0.734,36.051,15.191,32.934,25.863,5.153,8.069,7.534
67,0.721,36.138,15.175,32.924,25.859,5.07,8.027,7.411
68,0.738,36.226,15.1,32.943,25.859,5.153,8.069,7.411
69,0.738,35.857,15.124,32.963,25.866,5.153,8.15,7.452
70,0.744,35.916,15.12,32.953,25.866,5.153,8.069,7.534
71,0.747,36.022,15.171,32.934,25.859,5.07,7.945,7.288
72,0.761,36.09,15.073,32.914,25.852,4.988,7.863,7.37
73,0.767,35.78,15.12,32.963,25.863,5.112,8.027,7.452
74,0.774,35.935,15.136,32.982,25.87,5.276,8.192,7.494
75,0.777,36.042,15.159,32.943,25.866,5.112,7.945,7.329
76,0.79,36.119,15.199,32.943,25.866,5.03,7.945,7.37
77,0.797,35.916,15.187,32.943,25.859,5.07,7.945,7.329
78,0.78,36.032,15.112,32.934,25.859,5.112,7.904,7.288
79,0.787,36.177,15.112,32.953,25.866,5.112,7.822,7.329
80,0.784,36.245,15.136,32.973,25.87,5.153,7.904,7.37
81,0.777,35.887,15.159,32.953,25.866,5.112,7.781,7.329
82,0.774,36.022,15.073,32.924,25.859,5.03,7.74,7.288
83,0.787,36.148,15.108,32.934,25.866,5.07,7.74,7.329
84,0.774,36.226,15.132,32.953,25.863,5.112,7.781,7.411
85,0.78,35.906,15.148,32.973,25.873,5.235,7.822,7.411
86,0.767,36.003,15.152,32.934,25.863,5.112,7.617,7.288
87,0.767,36.109,15.136,32.934,25.859,4.988,7.575,7.288
88,0.761,36.129,15.081,32.953,25.863,5.153,7.699,7.37
89,0.761,35.916,15.104,32.963,25.866,5.194,7.74,7.534
90,0.751,36.022,15.136,32.934,25.863,5.153,7.699,7.37
91,0.751,36.138,15.175,32.963,25.87,5.112,7.699,7.494
92,0.761,36.032,15.085,32.963,25.866,5.153,7.781,7.534
93,0.764,35.954,15.108,32.934,25.863,5.07,7.699,7.452
94,0.784,36.1,15.128,32.953,25.863,5.112,7.822,7.534
95,0.79,36.196,15.167,32.963,25.866,5.153,7.781,7.658
96,0.797,35.799,15.144,32.953,25.866,5.07,7.863,7.575
97,0.787,35.906,15.163,32.934,25.856,5.07,7.74,7.575
98,0.774,36.012,15.081,32.934,25.849,4.988,7.699,7.534
99,0.78,36.119,15.088,32.963,25.866,5.07,7.863,7.617
100,0.78,35.751,15.124,32.973,25.88,5.276,8.027,7.822
101,0.793,35.857,15.136,32.953,25.866,5.112,7.781,7.575
102,0.813,36.003,15.014,32.973,25.859,5.07,7.822,7.699
103,0.82,36.071,15.092,32.953,25.863,5.153,7.863,7.699
104,0.787,35.702,15.144,32.953,25.863,5.07,7.863,7.74
105,0.767,35.867,15.167,32.934,25.863,5.153,7.863,7.658
106,0.741,35.993,15.167,32.953,25.866,5.194,7.945,7.617
107,0.724,36.032,15.104,32.973,25.866,5.112,7.822,7.658
108,0.701,35.761,15.077,32.914,25.859,4.988,7.74,7.617
109,0.695,35.887,15.069,32.943,25.866,5.112,7.74,7.699
110,0.688,36.042,15.148,32.973,25.866,5.194,7.822,7.822
111,0.685,36.109,15.136,32.992,25.884,5.194,7.822,7.863
112,0.672,35.828,15.116,33.011,25.859,5.07,7.658,7.781
113,0.662,35.974,15.116,32.943,25.852,5.03,7.575,7.617
114,0.695,36.071,15.152,32.953,25.866,5.194,7.74,7.822
115,0.711,36.41,15.175,32.953,25.866,5.153,7.699,7.904
116,0.757,35.809,15.148,32.934,25.863,5.07,7.658,7.863
117,0.761,35.945,15.132,32.973,25.87,5.153,7.699,7.904
118,0.807,36.032,15.006,32.943,25.866,5.153,7.658,7.945
119,0.859,35.79,15.081,32.934,25.856,5.03,7.534,7.945
120,0.912,35.877,15.128,32.953,25.859,5.153,7.534,8.109
121,0.935,35.993,15.144,32.953,25.87,5.194,7.575,8.274
122,0.964,36.1,15.136,33.031,25.859,5.03,7.494,8.479
123,0.987,35.615,15.104,32.934,25.859,5.07,7.494,8.52
124,1.017,35.732,15.136,32.924,25.859,5.03,7.452,8.726
125,1.073,35.887,15.195,32.943,25.863,5.153,7.494,8.931
126,1.135,35.983,15.234,32.992,25.873,5.235,7.617,9.177
127,1.224,35.78,15.136,32.953,25.866,5.07,7.534,9.095
128,1.286,35.935,15.1,32.973,25.863,5.112,7.494,9.259
129,1.375,36.032,15.1,32.953,25.866,5.194,7.575,9.465
130,1.46,36.09,15.116,32.963,25.863,5.153,7.575,9.424
131,1.513,35.702,15.171,32.953,25.863,5.112,7.658,9.506
132,1.572,35.887,15.136,33.011,25.87,5.235,7.617,9.67
133,1.625,35.993,15.128,32.973,25.866,5.153,7.617,9.67
134,1.641,36.012,15.144,32.943,25.856,5.112,7.575,9.629
135,1.697,35.693,15.207,32.973,25.863,5.112,7.617,9.67
136,1.73,35.867,15.175,32.982,25.866,5.194,7.658,9.752
137,1.733,35.993,15.195,32.992,25.877,5.235,7.699,9.793
138,1.717,35.983,15.073,32.963,25.863,5.153,7.617,9.629
139,1.717,35.819,15.132,32.953,25.852,5.03,7.494,9.588
140,1.723,35.974,15.152,32.953,25.863,5.194,7.617,9.67
141,1.697,36.071,15.152,32.953,25.87,5.194,7.699,9.752
142,1.667,35.906,15.128,32.992,25.87,5.153,7.617,9.588
143,1.687,35.761,15.104,32.992,25.87,5.235,7.658,9.629
144,1.658,35.877,15.155,32.963,25.863,5.194,7.699,9.506
145,1.602,35.945,15.175,32.934,25.866,5.153,7.534,9.424
146,1.533,35.683,15.175,32.973,25.87,5.317,7.534,9.382
147,1.437,35.799,15.144,32.973,25.866,5.194,7.617,9.465
148,1.326,35.925,15.092,32.992,25.87,5.235,7.534,9.547
149,1.198,35.974,15.1,32.953,25.863,5.153,7.494,9.67
150,1.106,35.673,15.159,32.934,25.849,5.112,7.494,9.834
151,1.056,35.848,15.159,32.973,25.873,5.235,7.617,10.286
152,1.023,36.003,15.14,33.069,25.877,5.358,7.658,10.697
153,0.994,36.042,15.124,32.963,25.859,5.112,7.534,10.984
154,0.997,35.78,15.132,32.934,25.863,5.112,7.452,11.272
155,0.984,35.935,15.179,32.973,25.863,5.235,7.617,11.683
156,0.977,36.032,15.148,32.963,25.866,5.194,7.658,11.97
157,0.954,36.08,15.144,32.963,25.87,5.153,7.617,12.175
158,0.951,35.722,15.073,32.982,25.87,5.235,7.699,12.422
159,0.931,35.857,15.112,32.982,25.866,5.235,7.781,12.504
160,0.889,35.974,15.144,32.943,25.859,5.153,7.822,12.586
161,0.866,36.003,15.136,32.943,25.859,5.153,7.863,12.709
162,0.833,35.712,15.12,33.05,25.863,5.235,8.027,12.791
163,0.807,35.867,15.096,32.953,25.866,5.153,8.109,12.709
164,0.767,35.916,15.124,32.934,25.859,5.153,8.027,12.627
165,0.77,36.167,15.152,32.934,25.859,5.153,8.109,12.627
166,0.774,35.799,15.163,32.973,25.87,5.153,8.274,12.75
167,0.787,35.935,15.14,32.992,25.873,5.235,8.438,12.832
168,0.774,36.003,15.096,32.953,25.859,5.194,8.356,12.709
169,0.774,35.838,15.088,32.943,25.856,5.235,8.438,12.586
170,0.784,35.896,15.12,32.973,25.866,5.194,8.602,12.873
171,0.787,35.993,15.124,32.963,25.863,5.153,8.644,12.956
172,0.797,36.109,15.112,33.002,25.863,5.153,8.644,12.956
173,0.8,35.693,15.108,32.973,25.863,5.194,8.767,13.12
174,0.793,35.799,15.14,32.973,25.866,5.194,8.808,13.202
175,0.793,35.916,15.155,32.943,25.863,5.153,8.808,13.243
176,0.807,35.993,15.175,32.953,25.863,5.235,8.849,13.325
177,0.816,35.596,15.132,32.973,25.87,5.235,8.931,13.531
178,0.833,35.751,15.077,32.963,25.87,5.235,8.849,13.49
179,0.826,35.848,15.096,32.953,25.866,5.194,8.808,13.366
180,0.82,35.896,15.1,32.943,25.852,5.112,8.767,13.366
181,0.816,35.799,15.14,32.973,25.866,5.276,9.013,13.49
182,0.826,35.983,15.128,33.06,25.873,5.358,9.013,13.531
183,0.833,36.042,15.092,32.953,25.863,5.153,8.808,13.284
184,0.846,36.1,15.144,32.963,25.859,5.153,8.849,13.12
185,0.839,35.644,15.163,32.963,25.866,5.153,8.808,13.12
186,0.82,35.78,15.171,32.943,25.866,5.235,8.849,12.996
187,0.856,35.906,15.124,32.963,25.866,5.194,8.808,12.832
188,0.869,35.935,15.073,32.973,25.87,5.235,8.808,12.791
189,0.859,35.78,15.096,32.973,25.863,5.235,8.767,12.627
190,0.849,35.896,15.128,32.924,25.859,5.153,8.644,12.381
191,0.816,35.993,15.152,32.943,25.866,5.194,8.602,12.381
192,0.813,35.974,15.1,32.992,25.866,5.194,8.684,12.339
193,0.81,35.79,15.136,32.982,25.863,5.235,8.767,12.257
194,0.79,35.867,15.159,32.943,25.859,5.153,8.561,12.093
195,0.761,35.974,15.191,32.943,25.852,5.153,8.561,11.97
196,0.754,35.625,15.159,32.963,25.859,5.194,8.726,11.929
197,0.754,35.702,15.155,32.973,25.873,5.194,8.684,11.847
198,0.747,35.838,15.065,32.934,25.859,5.112,8.561,11.683
199,0.751,35.925,15.12,32.982,25.863,5.276,8.52,11.6
200,0.728,35.664,15.1,32.953,25.859,5.194,8.52,11.477
201,0.738,35.79,15.148,32.953,25.859,5.153,8.52,11.354
202,0.751,35.916,15.112,32.963,25.863,5.194,8.52,11.272
203,0.767,36.022,15.104,32.953,25.87,5.276,8.602,11.231
204,0.777,35.654,15.159,32.963,25.866,5.235,8.602,11.066
205,0.784,35.77,15.175,32.924,25.863,5.112,8.52,10.902
206,0.764,35.896,15.148,32.914,25.849,5.07,8.438,10.738
207,0.777,35.964,15.136,32.963,25.866,5.276,8.561,10.779
208,0.787,35.615,15.104,32.992,25.873,5.317,8.726,10.779
209,0.77,35.761,15.096,32.943,25.863,5.194,8.479,10.45
210,0.767,35.867,15.152,32.943,25.863,5.194,8.438,10.368
211,0.747,35.916,15.163,32.953,25.866,5.235,8.397,10.368
212,0.767,35.615,15.116,33.011,25.863,5.153,8.397,10.204
213,0.79,35.751,15.14,32.953,25.863,5.276,8.438,10.122
214,0.793,35.896,15.175,32.943,25.863,5.276,8.561,10.204
215,0.807,35.925,15.179,32.953,25.863,5.194,8.397,9.999
216,0.81,35.625,15.167,32.924,25.859,5.112,8.274,9.916
217,0.784,35.722,15.136,32.924,25.863,5.112,8.315,9.916
218,0.793,35.877,15.073,32.963,25.863,5.194,8.438,9.916
219,0.813,35.761,15.104,32.973,25.873,5.317,8.479,10.081
220,0.79,35.741,15.152,32.934,25.863,5.153,8.356,9.916
221,0.787,35.867,15.148,32.924,25.863,5.07,8.274,9.793
222,0.774,35.974,15.124,32.943,25.866,5.153,8.397,9.834
223,0.751,35.499,15.112,32.943,25.863,5.194,8.438,9.999
224,0.767,35.615,15.152,32.934,25.863,5.194,8.397,9.834
225,0.793,35.761,15.163,32.943,25.863,5.194,8.479,9.834
226,0.78,35.828,15.171,32.953,25.87,5.112,8.52,9.834
227,0.757,35.557,15.124,32.934,25.863,5.07,8.479,9.67
228,0.754,35.732,15.057,32.943,25.866,5.153,8.602,9.629
229,0.764,35.877,15.116,32.943,25.866,5.194,8.602,9.711
230,0.767,35.935,15.144,32.943,25.873,5.153,8.644,9.588
231,0.738,35.548,15.128,32.943,25.859,5.07,8.602,9.424
232,0.734,35.702,15.096,32.914,25.856,5.07,8.602,9.301
233,0.754,35.819,15.124,32.934,25.866,5.153,8.684,9.465
234,0.751,35.925,15.152,32.953,25.873,5.235,8.767,9.465
235,0.764,35.586,15.144,32.924,25.866,5.112,8.602,9.301
236,0.784,35.751,15.12,32.943,25.87,5.194,8.602,9.301
237,0.784,35.828,15.096,32.924,25.863,5.194,8.602,9.259
238,0.81,35.857,15.081,32.943,25.859,5.07,8.52,9.136
239,0.83,35.683,15.1,32.934,25.87,5.235,8.52,9.177
240,0.836,35.828,15.167,32.943,25.87,5.194,8.602,9.218
241,0.83,35.925,15.12,32.934,25.859,5.153,8.561,9.054
242,0.813,35.906,15.1,32.914,25.856,5.112,8.479,8.972
243,0.797,35.606,15.081,32.895,25.845,5.03,8.397,8.89
244,0.813,35.78,15.144,32.934,25.866,5.194,8.397,8.972
245,0.82,35.877,15.163,32.943,25.873,5.194,8.438,9.013
246,0.797,35.567,15.132,32.914,25.859,5.194,8.315,8.767
247,0.793,35.702,15.077,32.934,25.866,5.153,8.315,8.808
248,0.77,35.78,15.01,32.934,25.863,5.194,8.274,8.767
249,0.767,35.867,15.116,32.905,25.863,5.112,8.233,8.602
250,0.8,35.48,15.144,32.895,25.863,5.07,8.233,8.52
251,0.79,35.635,15.132,32.924,25.87,5.194,8.233,8.602
252,0.79,35.741,15.12,32.914,25.863,5.112,8.233,8.479
253,0.79,35.799,15.104,32.914,25.863,5.07,8.027,8.397
254,0.784,35.538,15.132,32.905,25.866,5.153,8.027,8.438
255,0.803,35.683,15.152,32.934,25.87,5.194,8.192,8.438
256,0.826,35.848,15.136,32.953,25.877,5.235,8.15,8.397
257,0.81,35.867,15.112,32.885,25.859,5.153,8.109,8.233
258,0.813,35.431,15.061,32.905,25.859,5.07,8.027,8.15
259,0.82,35.567,15.128,32.924,25.866,5.07,8.192,8.233
260,0.816,35.702,15.163,32.934,25.866,5.235,8.274,8.315
261,0.807,35.732,15.124,32.905,25.866,5.153,8.274,8.15
262,0.813,35.47,15.124,32.924,25.873,5.112,8.274,8.069
263,0.803,35.615,15.108,32.905,25.863,5.07,8.315,8.069
264,0.8,35.702,15.167,32.885,25.859,5.153,8.274,8.069
265,0.803,35.741,15.159,32.905,25.863,5.07,8.274,7.945
266,0.82,35.46,15.116,32.914,25.877,5.153,8.315,7.986
267,0.833,35.606,15.088,32.924,25.863,5.194,8.356,7.986
268,0.823,35.683,15.092,32.914,25.859,5.07,8.274,7.863
269,0.833,35.509,15.088,32.876,25.856,5.03,8.233,7.822
270,0.843,35.538,15.14,32.905,25.866,5.194,8.315,7.945
271,0.846,35.664,15.152,32.914,25.87,5.317,8.438,7.945
272,0.846,35.761,15.108,32.905,25.863,5.112,8.233,7.74
273,0.833,35.373,15.132,32.895,25.863,5.07,8.233,7.74
274,0.83,35.489,15.155,32.914,25.863,5.194,8.274,7.699
275,0.826,35.586,15.199,32.885,25.859,5.194,8.233,7.699
276,0.843,35.693,15.159,32.895,25.863,5.194,8.192,7.658
277,0.859,35.393,15.128,32.914,25.877,5.194,8.233,7.658
278,0.859,35.548,15.037,32.914,25.866,5.194,8.192,7.617
279,0.843,35.654,15.104,32.876,25.859,5.112,8.027,7.494
280,0.866,35.702,15.124,32.895,25.866,5.112,8.109,7.534
281,0.915,35.412,15.112,32.895,25.863,5.194,8.192,7.534
282,0.915,35.586,15.14,32.934,25.877,5.276,8.274,7.617
283,0.885,35.673,15.112,32.895,25.863,5.153,8.069,7.452
284,0.846,35.732,15.175,32.885,25.859,5.07,8.027,7.37
285,0.833,35.393,15.167,32.895,25.866,5.153,8.069,7.494
286,0.813,35.538,15.14,32.895,25.866,5.153,8.192,7.534
287,0.807,35.644,15.088,32.895,25.866,5.194,8.109,7.411
288,0.813,35.712,15.128,32.973,25.87,5.194,8.233,7.494
289,0.8,35.509,15.096,32.895,25.866,5.153,8.233,7.452
290,0.8,35.625,15.183,32.895,25.856,5.112,8.109,7.37
291,0.816,35.741,15.12,32.895,25.859,5.153,8.233,7.411
292,0.813,35.819,15.112,32.905,25.866,5.194,8.274,7.575
293,0.82,35.393,15.144,32.914,25.873,5.235,8.356,7.494
294,0.813,35.46,15.155,32.866,25.859,5.153,8.192,7.452
295,0.81,35.557,15.175,32.866,25.859,5.112,8.233,7.494
296,0.833,35.509,15.136,32.895,25.87,5.276,8.274,7.575
297,0.833,35.606,15.088,32.885,25.873,5.317,8.356,7.699
298,0.846,35.741,15.12,32.876,25.859,5.194,8.315,7.617
299,0.849,35.848,15.116,32.905,25.866,5.235,8.315,7.658
300,0.866,35.17,15.167,32.895,25.859,5.235,8.397,7.699
301,0.862,35.296,15.077,32.885,25.856,5.153,8.274,7.658
302,0.869,35.47,15.096,32.895,25.859,5.235,8.315,7.658
303,0.872,35.538,15.132,32.914,25.87,5.317,8.397,7.74
304,0.866,35.276,15.152,32.885,25.87,5.358,8.315,7.699
305,0.862,35.402,15.128,32.856,25.859,5.194,8.192,7.617
306,0.853,35.509,15.073,32.856,25.859,5.112,8.192,7.699
307,0.859,35.625,15.069,32.905,25.87,5.317,8.233,7.74
308,0.862,35.296,15.092,32.914,25.88,5.399,8.315,7.74
309,0.839,35.412,15.092,32.876,25.859,5.153,8.109,7.658
310,0.83,35.518,15.136,32.876,25.863,5.235,8.109,7.494
311,0.836,35.586,15.057,32.876,25.87,5.276,8.15,7.74
312,0.843,35.354,15.096,32.885,25.859,5.276,8.15,7.658
313,0.839,35.518,15.128,32.876,25.859,5.235,8.069,7.658
314,0.859,35.635,15.179,32.895,25.866,5.276,8.109,7.822
315,0.862,35.644,15.132,32.885,25.863,5.235,7.986,7.658
316,0.856,35.286,15.112,32.856,25.859,5.235,7.904,7.617
317,0.849,35.441,15.033,32.876,25.863,5.276,7.986,7.781
318,0.856,35.567,15.116,32.885,25.87,5.317,7.945,7.945
319,0.869,35.383,15.128,32.895,25.873,5.317,7.863,7.945
320,0.856,35.257,15.14,32.856,25.856,5.194,7.781,8.027
321,0.843,35.373,15.104,32.876,25.859,5.07,7.74,8.109
322,0.856,35.499,15.073,32.876,25.866,5.235,7.863,8.356
323,0.866,35.238,15.152,32.885,25.87,5.358,7.904,8.602
324,0.866,35.325,15.163,32.866,25.859,5.235,7.74,8.644
325,0.869,35.46,15.132,32.876,25.866,5.317,7.822,8.808
326,0.879,35.538,15.025,32.866,25.859,5.276,7.822,8.931
327,0.882,35.218,15.104,32.876,25.859,5.194,7.781,8.931
328,0.895,35.383,15.088,32.876,25.866,5.235,7.904,9.177
329,0.879,35.489,15.136,32.885,25.863,5.317,7.986,9.259
330,0.876,35.567,15.175,32.876,25.866,5.317,8.069,9.259
331,0.869,35.121,15.112,32.914,25.859,5.194,7.904,9.218
332,0.866,35.267,15.108,32.866,25.863,5.276,7.986,9.342
333,0.882,35.412,15.144,32.856,25.866,5.317,8.027,9.424
334,0.892,35.499,15.207,32.885,25.877,5.399,8.109,9.465
335,0.885,35.286,15.088,32.837,25.859,5.235,7.945,9.342
336,0.889,35.441,15.057,32.856,25.859,5.153,7.945,9.301
337,0.895,35.557,15.006,32.895,25.866,5.194,8.069,9.424
338,0.908,35.606,15.092,32.856,25.87,5.276,8.15,9.506
339,0.899,35.257,15.152,32.856,25.87,5.194,8.027,9.301
340,0.912,35.412,15.167,32.866,25.87,5.276,8.15,9.382
341,0.935,35.518,15.148,32.876,25.863,5.276,8.069,9.342
342,0.912,35.799,15.088,32.847,25.859,5.194,7.986,9.259
343,0.925,35.344,15.159,32.856,25.863,5.194,7.945,9.177
344,0.908,35.47,15.183,32.856,25.87,5.358,8.109,9.259
345,0.905,35.567,15.112,32.856,25.866,5.317,7.986,9.095
346,0.915,35.354,15.053,32.856,25.859,5.112,7.904,9.095
347,0.908,35.412,15.069,32.856,25.859,5.235,7.904,9.054
348,0.935,35.577,15.088,32.856,25.87,5.276,7.986,9.177
349,0.941,35.702,15.14,32.885,25.873,5.399,8.109,9.177
350,0.938,35.48,15.191,32.847,25.866,5.194,7.904,8.972
351,0.945,35.635,15.132,32.914,25.866,5.194,7.863,8.931
352,0.964,35.77,15.132,32.856,25.87,5.276,7.904,9.054
353,0.971,35.838,15.167,32.856,25.873,5.317,7.986,9.095
354,0.981,35.422,15.163,32.837,25.859,5.235,7.863,8.972
355,0.981,35.577,15.104,32.866,25.87,5.235,7.945,8.972
356,0.974,35.702,15.045,32.856,25.863,5.235,7.945,8.931
357,0.961,35.741,15.045,32.895,25.866,5.194,7.822,8.808
358,0.958,35.499,15.1,32.856,25.87,5.235,7.822,8.767
359,0.981,35.635,15.128,32.866,25.873,5.276,7.945,8.849
360,0.997,35.751,15.159,32.837,25.863,5.235,7.904,8.726
361,1.007,35.79,15.128,32.847,25.859,5.153,7.863,8.684
362,0.991,35.751,15.116,32.827,25.863,5.235,7.863,8.767
363,0.991,35.916,15.163,32.856,25.87,5.276,7.904,8.767
364,1.0,36.012,15.191,32.885,25.877,5.358,8.027,8.684
365,0.991,36.003,15.112,32.827,25.859,5.153,7.904,8.479
366,0.997,35.732,15.021,32.827,25.859,5.112,7.781,8.356
367,0.994,35.887,15.104,32.847,25.866,5.194,7.945,8.561
368,0.994,35.983,15.112,32.866,25.873,5.317,8.15,8.602
369,1.0,36.061,15.12,32.837,25.863,5.194,7.986,8.397
370,1.014,36.129,15.144,32.856,25.87,5.235,8.027,8.356
371,1.0,36.245,15.14,32.818,25.863,5.153,8.069,8.356
372,1.0,36.313,15.112,32.808,25.866,5.112,8.027,8.233
373,1.017,36.177,15.163,32.837,25.866,5.194,8.027,8.274
374,1.027,36.303,15.167,32.847,25.87,5.235,8.027,8.233
375,1.043,36.41,15.124,32.837,25.863,5.235,8.027,8.233
376,1.037,36.477,15.065,32.818,25.863,5.112,7.986,8.069
377,1.046,36.303,15.057,32.856,25.852,5.112,7.945,8.069
378,1.05,36.477,15.108,32.847,25.859,5.194,8.15,8.027
379,1.06,36.603,15.136,32.856,25.88,5.317,8.192,8.109
380,1.05,36.623,15.124,32.808,25.863,5.112,7.945,7.945
381,1.06,36.506,15.1,32.837,25.859,5.153,7.904,7.822
382,1.056,36.652,15.12,32.827,25.866,5.194,7.945,7.863
383,1.05,36.739,15.144,32.818,25.87,5.153,7.945,7.863
384,1.043,36.787,15.144,32.808,25.866,5.153,7.863,7.699
385,1.06,36.758,15.081,32.837,25.866,5.153,7.945,7.822
386,1.037,36.894,15.041,32.827,25.866,5.194,7.822,7.781
387,1.03,36.991,15.104,32.779,25.863,5.03,7.781,7.617
388,1.043,37.02,15.085,32.827,25.859,5.194,7.822,7.74
389,1.05,36.942,15.14,32.827,25.877,5.194,7.863,7.699
390,1.046,37.097,15.144,32.827,25.866,5.153,7.904,7.74
391,1.027,37.175,15.112,32.798,25.859,5.07,7.781,7.575
392,1.02,37.485,15.081,32.76,25.852,5.03,7.699,7.575
393,1.03,37.233,15.155,32.818,25.866,5.153,7.781,7.74
394,1.037,37.368,15.155,32.837,25.877,5.235,7.863,7.822
395,1.037,37.446,15.081,32.808,25.863,5.07,7.699,7.658
396,1.05,37.368,14.974,32.827,25.866,5.153,7.781,7.658
397,1.043,37.398,15.081,32.808,25.866,5.153,7.74,7.617
398,1.023,37.514,15.116,32.798,25.856,5.112,7.74,7.575
399,1.037,37.601,15.136,32.808,25.863,5.194,7.658,7.575
400,1.037,37.427,15.155,32.818,25.863,5.235,7.658,7.617
401,1.04,37.543,15.104,32.808,25.863,5.194,7.617,7.534
402,1.037,37.659,15.12,32.779,25.859,5.03,7.617,7.494
403,1.014,37.698,15.132,32.76,25.849,5.03,7.575,7.452
404,1.046,37.446,15.136,32.789,25.866,5.153,7.617,7.494
405,1.053,37.62,15.041,32.827,25.873,5.235,7.74,7.534
406,1.027,37.669,15.088,32.779,25.863,5.112,7.534,7.452
407,1.01,37.756,15.116,32.779,25.859,5.03,7.494,7.37
408,1.014,37.707,15.12,32.789,25.866,5.153,7.494,7.411
409,1.0,37.843,15.171,32.779,25.873,5.153,7.452,7.452
410,1.004,37.95,15.132,32.769,25.866,5.07,7.494,7.452
411,1.007,38.008,15.136,32.789,25.863,5.153,7.534,7.411
412,1.007,38.221,15.12,32.76,25.866,5.112,7.37,7.452
413,0.984,38.308,15.179,32.76,25.859,5.07,7.329,7.411
414,0.997,38.444,15.128,32.769,25.863,5.153,7.329,7.452
415,1.01,38.473,15.081,32.789,25.866,5.235,7.37,7.494
416,1.017,37.727,15.112,32.789,25.866,5.194,7.452,7.534
417,1.023,37.804,15.108,32.75,25.859,5.03,7.37,7.494
418,1.027,37.921,15.163,32.731,25.852,4.988,7.37,7.452
419,1.037,37.95,15.171,32.779,25.873,5.235,7.534,7.658
420,1.014,37.911,15.128,32.798,25.88,5.235,7.699,7.781
421,1.0,38.008,15.128,32.75,25.859,5.153,7.658,7.658
422,1.0,38.124,15.152,32.779,25.863,5.153,7.658,7.781
423,1.004,37.95,15.171,32.769,25.87,5.194,7.781,7.74
424,0.997,38.046,15.096,32.75,25.859,5.153,7.699,7.781
425,0.974,38.182,15.088,32.769,25.863,5.194,7.781,7.863
426,0.964,38.269,15.104,32.779,25.866,5.235,7.904,8.027
427,0.931,37.853,15.112,32.74,25.863,5.235,7.904,8.069
428,0.922,37.959,15.12,32.75,25.852,5.03,7.822,8.15
429,0.908,38.085,15.159,32.721,25.866,5.194,7.945,8.315
430,0.912,38.172,15.088,32.74,25.866,5.276,8.027,8.561
431,0.912,38.008,15.132,32.769,25.877,5.399,8.192,8.808
432,0.876,38.105,15.144,32.721,25.859,5.194,8.069,8.644
433,0.862,38.221,15.175,32.731,25.859,5.194,8.027,8.849
434,0.869,38.298,15.088,32.731,25.87,5.317,8.109,9.013
435,0.859,37.979,15.1,32.769,25.866,5.194,8.15,9.095
436,0.862,38.134,15.104,32.721,25.859,5.276,8.109,9.013
437,0.879,38.24,15.124,32.75,25.87,5.235,8.15,9.136
438,0.872,38.269,15.14,32.74,25.866,5.153,8.069,9.136
439,0.862,38.008,15.183,32.692,25.856,5.153,8.027,9.095
440,0.846,38.153,15.088,32.731,25.866,5.194,8.15,9.054
441,0.846,38.269,15.088,32.721,25.866,5.276,8.109,9.259
442,0.856,38.298,15.187,32.74,25.866,5.235,8.109,9.136
443,0.833,37.921,15.14,32.692,25.859,5.112,8.027,9.013
444,0.82,38.037,15.073,32.682,25.859,5.112,7.863,8.931
445,0.843,38.163,15.104,32.701,25.87,5.235,8.109,9.054
446,0.862,37.998,15.108,32.74,25.877,5.317,8.109,9.136
447,0.866,38.008,15.073,32.692,25.866,5.194,7.945,8.931
448,0.892,38.143,15.136,32.701,25.863,5.276,7.945,8.931
449,0.889,38.221,15.124,32.701,25.866,5.235,7.986,8.972
450,0.869,37.717,15.108,32.721,25.866,5.153,7.986,8.89
451,0.853,37.862,15.092,32.701,25.859,5.235,7.986,8.89
452,0.859,37.988,15.148,32.701,25.866,5.194,7.986,8.972
453,0.853,38.076,15.12,32.682,25.859,5.317,7.945,8.931
454,0.836,37.843,15.041,32.682,25.856,5.153,7.863,8.849
455,0.823,37.998,15.124,32.682,25.863,5.276,7.945,8.808
456,0.813,38.114,15.088,32.682,25.87,5.276,7.986,8.89
457,0.816,38.201,15.132,32.692,25.87,5.194,7.822,8.849
458,0.797,37.746,15.136,32.653,25.863,5.194,7.781,8.726
459,0.8,37.882,15.132,32.663,25.852,5.153,7.781,8.602
460,0.8,38.027,15.104,32.692,25.873,5.194,7.863,8.684
461,0.816,38.095,15.112,32.711,25.877,5.358,8.027,8.808
462,0.784,37.678,15.159,32.663,25.863,5.235,7.822,8.52
463,0.79,37.833,15.085,32.663,25.863,5.194,7.699,8.479
464,0.8,37.95,15.132,32.701,25.866,5.235,7.781,8.52
465,0.803,37.959,15.081,32.653,25.866,5.235,7.74,8.438
466,0.793,37.649,15.14,32.643,25.863,5.194,7.74,8.438
467,0.793,37.795,15.132,32.672,25.863,5.276,7.781,8.438
468,0.797,37.882,15.187,32.663,25.87,5.194,7.781,8.397
469,0.784,37.833,15.136,32.634,25.859,5.153,7.658,8.233
470,0.784,37.669,15.116,32.672,25.863,5.194,7.699,8.274
471,0.787,37.824,15.12,32.643,25.87,5.235,7.74,8.233
472,0.793,37.882,15.159,32.653,25.863,5.194,7.699,8.192
473,0.803,37.485,15.108,32.634,25.859,5.153,7.699,8.027
474,0.797,37.543,15.073,32.682,25.856,5.07,7.699,7.986
475,0.803,37.717,15.1,32.653,25.866,5.194,7.822,8.109
476,0.807,37.833,15.148,32.663,25.88,5.358,8.027,8.192
477,0.8,37.436,15.152,32.634,25.859,5.112,7.945,7.986
478,0.807,37.582,15.195,32.634,25.863,5.153,8.027,7.945
479,0.807,37.669,15.144,32.624,25.866,5.153,8.15,7.986
480,0.82,37.737,15.14,32.624,25.859,5.112,8.069,7.945
481,0.833,37.349,15.116,32.643,25.859,5.153,8.192,7.863
482,0.826,37.485,15.179,32.653,25.87,5.194,8.274,7.945
483,0.826,37.62,15.1,32.614,25.873,5.153,8.192,7.822
484,0.813,37.659,15.108,32.605,25.859,5.153,8.15,7.699
485,0.8,37.378,15.124,32.605,25.866,5.235,8.233,7.781
486,0.787,37.543,15.175,32.614,25.866,5.235,8.397,7.822
487,0.793,37.659,15.203,32.653,25.877,5.276,8.315,7.74
488,0.777,37.678,15.23,32.605,25.859,5.153,8.315,7.617
489,0.77,37.301,15.14,32.576,25.852,5.03,8.233,7.617
490,0.774,37.475,15.132,32.605,25.866,5.194,8.438,7.699
491,0.777,37.572,15.124,32.614,25.87,5.276,8.438,7.822
492,0.774,37.582,15.183,32.585,25.859,5.194,8.356,7.658
493,0.77,37.233,15.081,32.614,25.87,5.276,8.479,7.658
494,0.774,37.378,15.116,32.605,25.87,5.153,8.479,7.699
495,0.754,37.465,15.092,32.595,25.859,5.153,8.397,7.617
496,0.774,37.272,15.167,32.585,25.866,5.235,8.397,7.617
497,0.774,37.281,15.187,32.605,25.866,5.235,8.479,7.658
498,0.774,37.407,15.187,32.595,25.866,5.235,8.397,7.617
499,0.777,37.485,15.104,32.576,25.863,5.194,8.356,7.452
500,0.764,37.097,15.116,32.566,25.856,5.153,8.356,7.494
501,0.777,37.252,15.159,32.614,25.873,5.317,8.397,7.658
502,0.79,37.398,15.155,32.624,25.877,5.399,8.479,7.658
503,0.777,37.446,15.021,32.576,25.863,5.235,8.274,7.452
504,0.777,37.078,15.085,32.576,25.856,5.235,8.274,7.411
505,0.764,37.223,15.128,32.566,25.87,5.235,8.274,7.411
506,0.774,37.31,15.136,32.556,25.866,5.235,8.192,7.37
507,0.761,37.398,15.171,32.585,25.863,5.276,8.192,7.452
508,0.774,37.117,15.159,32.585,25.873,5.317,8.233,7.37
509,0.77,37.262,15.017,32.576,25.866,5.235,8.192,7.37
510,0.761,37.368,15.085,32.556,25.859,5.235,8.069,7.288
511,0.77,37.398,15.144,32.547,25.859,5.235,8.069,7.37
512,0.807,37.049,15.132,32.576,25.873,5.276,8.109,7.411
513,0.81,37.223,15.128,32.595,25.873,5.317,8.069,7.452
514,0.787,37.291,15.104,32.547,25.863,5.235,7.986,7.452
515,0.764,37.291,15.12,32.527,25.852,5.112,7.945,7.411
516,0.777,37.078,15.159,32.566,25.873,5.235,8.027,7.699
517,0.78,37.214,15.163,32.566,25.877,5.358,8.192,7.945
518,0.764,37.291,15.116,32.547,25.863,5.235,7.986,7.781
519,0.78,37.378,15.073,32.585,25.866,5.235,8.109,7.904
520,0.79,37.039,15.081,32.547,25.866,5.235,8.027,8.027
521,0.82,37.136,15.155,32.527,25.859,5.194,8.027,8.109
522,0.836,37.243,15.096,32.547,25.863,5.235,8.027,8.192
523,0.833,37.097,15.116,32.527,25.87,5.317,8.069,8.356
524,0.833,37.175,15.096,32.537,25.863,5.276,8.069,8.397
525,0.807,37.291,15.144,32.518,25.859,5.153,7.986,8.315
526,0.787,37.359,15.128,32.518,25.859,5.153,8.069,8.479
527,0.777,37.126,15.144,32.527,25.87,5.317,8.109,8.561
528,0.79,37.291,15.136,32.556,25.873,5.399,8.109,8.602
529,0.764,37.368,15.085,32.518,25.863,5.235,7.945,8.479
530,0.77,37.456,15.085,32.479,25.859,5.153,7.945,8.438
531,0.747,36.884,15.155,32.518,25.863,5.235,7.986,8.602
532,0.754,37.02,15.1,32.508,25.87,5.235,8.027,8.602
533,0.731,37.146,15.088,32.508,25.866,5.235,7.986,8.561
534,0.757,37.252,15.128,32.527,25.866,5.235,8.109,8.644
535,0.78,37.029,15.144,32.498,25.87,5.235,7.986,8.644
536,0.774,37.165,15.159,32.479,25.859,5.112,8.027,8.52
537,0.797,37.281,15.136,32.508,25.859,5.194,8.109,8.602
538,0.807,37.33,15.085,32.498,25.873,5.235,8.192,8.726
539,0.816,36.942,15.1,32.518,25.87,5.235,8.233,8.684
540,0.803,37.039,15.088,32.469,25.859,5.153,8.233,8.479
541,0.784,37.097,15.112,32.46,25.849,5.07,8.192,8.52
542,0.777,37.175,15.057,32.508,25.873,5.235,8.356,8.644
543,0.8,37.233,15.124,32.508,25.88,5.399,8.479,8.644
544,0.803,37.33,15.124,32.479,25.863,5.153,8.397,8.479
545,0.78,37.427,15.179,32.479,25.87,5.276,8.438,8.52
546,0.767,37.117,15.167,32.469,25.866,5.153,8.479,8.561
547,0.751,36.991,15.108,32.46,25.859,5.112,8.52,8.438
548,0.757,37.126,15.053,32.469,25.863,5.235,8.52,8.438
549,0.757,37.233,15.049,32.489,25.877,5.358,8.479,8.397
550,0.767,37.02,15.096,32.45,25.866,5.235,8.561,8.356
551,0.77,37.117,15.144,32.44,25.852,5.235,8.479,8.274
552,0.767,37.262,15.132,32.469,25.866,5.276,8.479,8.356
553,0.761,37.359,15.124,32.479,25.866,5.276,8.561,8.397
554,0.777,36.971,15.136,32.469,25.866,5.276,8.602,8.274
555,0.767,37.078,15.159,32.43,25.863,5.235,8.438,8.233
556,0.757,37.175,15.183,32.43,25.852,5.153,8.397,8.192
557,0.78,37.281,15.128,32.44,25.866,5.276,8.561,8.233
558,0.79,37.02,15.112,32.469,25.873,5.399,8.602,8.274
559,0.8,37.146,15.108,32.43,25.866,5.276,8.438,8.069
560,0.787,37.272,15.136,32.411,25.859,5.235,8.274,8.027
561,0.774,37.301,15.155,32.45,25.87,5.276,8.356,8.109
562,0.777,36.962,15.148,32.46,25.87,5.276,8.356,8.109
563,0.784,37.107,15.112,32.44,25.87,5.194,8.315,7.945
564,0.78,37.223,15.144,32.44,25.87,5.235,8.356,8.027
565,0.777,37.252,15.195,32.43,25.863,5.276,8.315,7.863
566,0.754,37.0,15.167,32.421,25.859,5.194,8.274,7.822
567,0.774,37.146,15.124,32.421,25.863,5.317,8.274,7.781
568,0.816,37.252,15.045,32.44,25.87,5.317,8.356,7.863
569,0.826,37.485,15.073,32.44,25.863,5.235,8.356,7.74
570,0.826,37.204,15.132,32.382,25.863,5.153,8.274,7.699
571,0.816,37.291,15.136,32.372,25.856,5.194,8.274,7.617
572,0.826,37.446,15.116,32.411,25.863,5.317,8.438,7.699
573,0.797,37.01,15.108,32.43,25.87,5.358,8.52,7.781
574,0.78,37.01,15.136,32.411,25.863,5.194,8.397,7.534
575,0.787,37.136,15.159,32.401,25.859,5.194,8.397,7.534
576,0.793,37.223,15.163,32.411,25.866,5.235,8.52,7.658
577,0.79,37.0,15.116,32.401,25.866,5.235,8.52,7.617
578,0.8,37.146,15.053,32.392,25.863,5.194,8.438,7.534
579,0.793,37.281,15.12,32.411,25.87,5.276,8.561,7.617
580,0.797,37.33,15.155,32.401,25.863,5.194,8.52,7.575
581,0.793,36.894,15.12,32.382,25.863,5.153,8.356,7.494
582,0.78,37.039,15.112,32.401,25.856,5.235,8.397,7.411
583,0.807,37.194,15.088,32.392,25.87,5.194,8.479,7.411
584,0.813,37.252,15.144,32.421,25.873,5.317,8.52,7.575
585,0.81,36.904,15.128,32.382,25.859,5.235,8.397,7.411
586,0.803,37.068,15.104,32.382,25.863,5.112,8.356,7.37
587,0.8,37.175,15.053,32.392,25.859,5.235,8.438,7.452
588,0.784,37.223,14.978,32.392,25.863,5.153,8.274,7.329
589,0.787,36.845,15.144,32.372,25.863,5.276,8.315,7.37
590,0.8,36.991,15.144,32.392,25.866,5.317,8.397,7.494
591,0.8,37.097,15.124,32.372,25.859,5.194,8.356,7.411
592,0.793,37.107,15.096,32.363,25.859,5.153,8.233,7.37
593,0.774,36.894,15.088,32.363,25.852,5.153,8.274,7.452
594,0.79,37.068,15.128,32.392,25.866,5.194,8.315,7.617
595,0.8,37.184,15.152,32.401,25.873,5.358,8.479,7.658
596,0.8,36.971,15.085,32.363,25.863,5.194,8.233,7.575
597,0.803,36.874,15.041,32.353,25.859,5.153,8.192,7.575
598,0.82,37.02,15.108,32.411,25.866,5.194,8.233,7.617
599,0.826,37.078,15.104,32.353,25.863,5.235,8.15,7.658
600,0.856,36.758,15.136,32.353,25.859,5.194,8.274,7.658
601,0.862,36.874,15.096,32.372,25.866,5.194,8.274,7.699
602,0.862,36.991,15.096,32.363,25.87,5.194,8.192,7.699
603,0.843,37.059,15.077,32.343,25.859,5.194,8.069,7.658
604,0.83,36.642,15.155,32.334,25.859,5.194,8.109,7.699
605,0.813,36.797,15.148,32.363,25.863,5.276,8.15,7.781
606,0.784,36.952,15.085,32.382,25.877,5.317,8.274,7.822
607,0.757,36.991,15.053,32.343,25.852,5.194,8.027,7.781
608,0.754,36.652,15.065,32.334,25.863,5.153,8.069,7.617
609,0.754,36.816,15.108,32.353,25.863,5.153,8.109,7.781
610,0.747,36.923,15.155,32.334,25.87,5.153,8.192,7.945
611,0.754,36.981,15.081,32.334,25.866,5.194,8.15,7.781
612,0.77,36.652,15.096,32.343,25.866,5.235,8.192,7.863
613,0.761,36.797,15.116,32.334,25.863,5.194,8.15,7.945
614,0.761,36.894,15.183,32.305,25.866,5.07,8.069,7.945
615,0.767,36.933,15.132,32.334,25.866,5.153,8.15,7.986
616,0.767,36.613,15.085,32.343,25.87,5.235,8.315,8.109
617,0.777,36.768,15.049,32.334,25.866,5.153,8.192,8.069
618,0.774,36.855,15.112,32.314,25.863,5.07,8.192,8.109
619,0.774,37.146,15.088,32.276,25.859,5.112,8.192,8.109
620,0.77,36.642,15.163,32.324,25.863,5.235,8.315,8.233
621,0.79,36.797,15.077,32.343,25.87,5.317,8.479,8.397
622,0.774,36.874,15.088,32.305,25.863,5.153,8.274,8.15
623,0.787,36.574,15.136,32.314,25.863,5.194,8.274,8.192
624,0.79,36.623,15.167,32.314,25.866,5.235,8.315,8.274
625,0.77,36.729,15.132,32.295,25.87,5.194,8.356,8.233
626,0.777,36.836,15.081,32.314,25.859,5.235,8.356,8.192
627,0.774,36.526,15.081,32.314,25.87,5.235,8.438,8.233
628,0.777,36.661,15.065,32.305,25.866,5.235,8.438,8.274
629,0.767,36.758,15.112,32.276,25.859,5.112,8.397,8.109
630,0.77,36.826,15.175,32.295,25.87,5.153,8.397,8.069
631,0.764,36.632,15.025,32.314,25.866,5.235,8.397,8.15
632,0.787,36.816,15.12,32.334,25.87,5.276,8.479,8.192
633,0.77,36.865,15.12,32.276,25.859,5.153,8.356,8.069
634,0.774,36.913,15.171,32.276,25.863,5.07,8.315,8.027
635,0.77,36.535,15.124,32.305,25.863,5.194,8.397,8.15
636,0.784,36.652,15.108,32.285,25.866,5.276,8.356,8.233
637,0.787,36.768,15.01,32.285,25.859,5.153,8.356,8.15
638,0.793,36.836,15.116,32.305,25.87,5.317,8.315,8.109
639,0.79,36.594,15.104,32.295,25.866,5.194,8.356,8.192
640,0.78,36.72,15.144,32.266,25.859,5.153,8.274,8.192
641,0.79,36.845,15.077,32.305,25.859,5.153,8.274,8.192
642,0.807,36.874,15.092,32.285,25.873,5.153,8.274,8.274
643,0.797,36.526,15.159,32.285,25.866,5.153,8.192,8.233
644,0.787,36.632,15.152,32.256,25.852,5.194,8.15,8.192
645,0.774,36.72,15.104,32.247,25.852,5.153,8.15,8.15
646,0.777,36.758,15.049,32.285,25.87,5.235,8.192,8.397
647,0.774,36.739,15.128,32.324,25.877,5.317,8.233,8.52
648,0.784,36.845,15.112,32.276,25.863,5.153,8.109,8.315
649,0.79,36.933,15.124,32.276,25.866,5.276,8.192,8.315
650,0.78,36.555,15.171,32.256,25.873,5.276,8.192,8.315
651,0.78,36.652,15.104,32.237,25.859,5.153,8.109,8.274
652,0.774,36.797,15.096,32.266,25.87,5.194,8.192,8.274
653,0.77,36.904,15.155,32.276,25.87,5.235,8.274,8.274
654,0.77,36.526,15.152,32.276,25.866,5.194,8.356,8.274
655,0.761,36.661,15.088,32.266,25.859,5.112,8.233,8.192
656,0.777,36.797,15.029,32.256,25.866,5.235,8.315,8.192
657,0.78,36.874,15.116,32.256,25.873,5.235,8.438,8.192
658,0.78,36.623,15.116,32.276,25.87,5.153,8.397,8.15
659,0.77,36.729,15.128,32.256,25.859,5.07,8.274,8.027
660,0.761,36.826,15.14,32.218,25.859,5.07,8.233,8.069
661,0.764,36.913,15.104,32.256,25.866,5.112,8.438,8.069
662,0.767,36.69,15.088,32.247,25.87,5.317,8.561,8.192
663,0.774,36.797,15.152,32.237,25.866,5.194,8.315,7.945
664,0.784,36.923,15.136,32.247,25.866,5.194,8.397,7.904
665,0.764,36.952,15.096,32.237,25.866,5.153,8.397,7.986
666,0.741,36.7,15.053,32.227,25.852,5.07,8.397,7.945
667,0.754,36.855,15.073,32.227,25.866,5.07,8.438,7.945
668,0.757,36.981,15.116,32.247,25.866,5.194,8.602,7.945
669,0.747,37.233,15.132,32.218,25.863,5.112,8.438,7.863
670,0.764,36.574,15.167,32.218,25.859,5.07,8.397,7.781
671,0.747,36.729,15.1,32.188,25.859,5.07,8.315,7.781
672,0.761,36.855,15.104,32.237,25.866,5.235,8.479,7.904
673,0.784,36.749,15.179,32.247,25.873,5.317,8.52,7.986
674,0.774,36.768,15.144,32.208,25.866,5.153,8.315,7.822
675,0.777,36.884,15.069,32.237,25.852,5.07,8.274,7.781
676,0.757,36.981,15.061,32.237,25.866,5.153,8.397,7.863
677,0.774,36.671,15.061,32.198,25.866,5.153,8.315,7.863
678,0.777,36.797,15.081,32.198,25.866,5.112,8.192,7.781
679,0.787,36.913,15.167,32.227,25.866,5.235,8.233,7.863
680,0.787,36.981,15.144,32.208,25.866,5.153,8.192,7.822
681,0.777,36.69,15.108,32.188,25.859,5.112,8.109,7.658
682,0.78,36.836,15.077,32.208,25.859,5.153,8.109,7.781
683,0.777,36.962,15.179,32.208,25.866,5.235,8.192,7.781
684,0.78,37.059,15.148,32.237,25.88,5.194,8.109,7.781
685,0.754,36.72,15.061,32.179,25.849,5.194,7.986,7.658
686,0.761,36.874,15.065,32.179,25.852,5.03,7.945,7.575
687,0.738,37.02,15.1,32.198,25.87,5.153,8.109,7.781
688,0.747,37.039,15.085,32.208,25.87,5.194,8.15,7.904
689,0.761,36.758,15.152,32.179,25.863,5.112,7.986,7.74
690,0.777,36.894,15.132,32.188,25.866,5.153,8.109,7.781
691,0.784,37.01,15.124,32.179,25.866,5.153,7.986,7.74
692,0.787,37.0,15.116,32.15,25.859,5.112,7.904,7.699
693,0.787,36.807,15.179,32.179,25.859,5.235,8.069,7.822
694,0.787,36.933,15.152,32.179,25.866,5.194,8.109,7.863
695,0.793,37.059,15.092,32.208,25.866,5.194,8.027,7.822
696,0.774,36.942,15.096,32.169,25.863,5.07,7.986,7.74
697,0.767,36.758,15.065,32.159,25.849,5.07,7.945,7.658
698,0.793,36.904,15.116,32.169,25.87,5.153,8.027,7.781
699,0.797,37.0,15.144,32.179,25.873,5.276,8.069,7.945
700,0.8,37.272,15.104,32.159,25.863,5.07,7.986,7.74
701,0.807,37.456,15.128,32.179,25.863,5.153,7.986,7.74
702,0.807,37.553,15.148,32.159,25.863,5.194,7.945,7.699
703,0.82,37.63,15.159,32.14,25.856,5.112,7.945,7.658
704,0.843,36.487,15.12,32.169,25.859,5.07,8.027,7.699
705,0.856,36.623,15.073,32.169,25.866,5.235,8.027,7.74
706,0.83,36.749,15.085,32.159,25.863,5.112,7.986,7.74
707,0.79,36.807,15.096,32.14,25.859,5.153,7.822,7.658
708,0.787,36.797,15.104,32.13,25.856,5.07,7.822,7.781
709,0.784,36.981,15.159,32.15,25.866,5.194,7.945,7.904
710,0.774,37.117,15.108,32.179,25.873,5.358,8.027,8.027
711,0.721,37.136,15.096,32.15,25.863,5.153,7.863,7.863
712,0.724,36.865,15.128,32.14,25.863,5.194,7.699,7.904
713,0.728,37.01,15.159,32.159,25.866,5.235,7.781,8.027
714,0.738,37.088,15.1,32.14,25.863,5.153,7.74,8.15
715,0.757,37.136,15.088,32.13,25.863,5.194,7.74,8.15
716,0.777,36.826,15.096,32.15,25.87,5.276,7.74,8.233
717,0.79,36.962,15.104,32.13,25.863,5.153,7.658,8.192
718,0.787,37.039,15.148,32.13,25.856,5.112,7.699,8.192
719,0.774,37.068,15.191,32.14,25.863,5.194,7.617,8.315
720,0.777,36.681,15.092,32.14,25.866,5.194,7.658,8.356
721,0.78,36.826,15.12,32.159,25.87,5.317,7.74,8.356
722,0.747,36.884,15.128,32.121,25.859,5.153,7.617,8.315
723,0.744,36.807,15.136,32.101,25.852,5.03,7.575,8.15
724,0.751,36.894,15.065,32.13,25.859,5.194,7.74,8.315
725,0.731,37.02,15.112,32.13,25.87,5.194,7.822,8.397
726,0.708,37.107,15.1,32.13,25.866,5.194,7.74,8.274
727,0.728,36.613,15.132,32.13,25.87,5.194,7.863,8.274
728,0.721,36.72,15.152,32.13,25.859,5.194,7.822,8.274
729,0.721,36.816,15.191,32.082,25.856,5.112,7.781,8.192
730,0.747,36.942,15.053,32.13,25.859,5.153,7.781,8.274
731,0.751,36.613,15.112,32.121,25.866,5.317,7.863,8.192
732,0.731,36.758,15.163,32.121,25.866,5.235,7.863,8.192
733,0.731,36.845,15.136,32.101,25.856,5.112,7.863,8.069
734,0.734,36.923,15.053,32.101,25.852,5.07,7.822,8.069
735,0.741,36.71,15.085,32.14,25.866,5.194,8.027,8.069
736,0.751,36.874,15.104,32.15,25.88,5.358,8.069,8.069
737,0.751,36.942,15.112,32.121,25.852,5.07,7.945,7.986
738,0.751,37.02,15.183,32.092,25.863,5.112,7.945,7.781
739,0.761,36.603,15.148,32.121,25.859,5.235,8.027,7.945
740,0.77,36.778,15.12,32.101,25.863,5.112,7.986,7.863
741,0.764,36.874,15.088,32.092,25.87,5.194,7.986,7.781
742,0.764,36.884,15.144,32.111,25.87,5.153,8.027,7.781
743,0.754,36.526,15.092,32.092,25.863,5.235,7.986,7.699
744,0.741,36.652,15.081,32.13,25.852,5.112,7.986,7.658
745,0.741,36.739,15.061,32.092,25.863,5.153,7.945,7.699
746,0.761,36.797,15.128,32.092,25.866,5.194,8.027,7.781
747,0.761,36.632,15.159,32.13,25.87,5.317,8.069,7.822
748,0.744,36.729,15.159,32.092,25.859,5.112,7.904,7.658
749,0.741,36.826,15.14,32.063,25.859,5.112,7.863,7.617
750,0.741,36.632,15.1,32.101,25.863,5.194,7.945,7.699
751,0.744,36.69,15.104,32.072,25.866,5.153,7.945,7.781
752,0.754,36.816,15.128,32.082,25.863,5.194,7.863,7.699
753,0.757,36.913,15.112,32.101,25.87,5.194,7.945,7.781
754,0.764,36.487,15.112,32.082,25.863,5.153,7.822,7.781
755,0.761,36.594,15.085,32.072,25.852,5.112,7.781,7.658
756,0.777,36.749,15.116,32.101,25.859,5.153,7.781,7.699
757,0.774,36.816,15.159,32.092,25.87,5.235,7.863,7.781
758,0.774,36.4,15.179,32.082,25.866,5.153,7.781,7.781
759,0.777,36.506,15.144,32.053,25.859,5.07,7.699,7.658
760,0.761,36.623,15.136,32.072,25.859,5.07,7.781,7.74
761,0.77,36.71,15.108,32.082,25.866,5.07,7.822,7.781
762,0.774,36.535,15.171,32.121,25.88,5.276,7.904,7.781
763,0.754,36.652,15.057,32.063,25.852,5.07,7.74,7.575
764,0.764,36.749,15.104,32.063,25.852,5.07,7.617,7.494
765,0.764,36.807,15.096,32.063,25.866,5.153,7.781,7.658
766,0.747,36.351,15.136,32.072,25.87,5.153,7.781,7.699
767,0.751,36.497,15.191,32.063,25.863,5.03,7.74,7.575
768,0.757,36.594,15.163,32.072,25.87,5.194,7.74,7.699
769,0.761,36.603,15.128,32.063,25.863,5.112,7.699,7.617
770,0.744,36.458,15.088,32.043,25.859,5.07,7.617,7.534
771,0.744,36.594,15.136,32.063,25.863,5.194,7.658,7.658
772,0.747,36.7,15.163,32.072,25.873,5.112,7.74,7.658
773,0.754,36.429,15.092,32.082,25.866,5.112,7.781,7.658
774,0.744,36.342,15.088,32.043,25.856,5.112,7.617,7.617
775,0.734,36.458,15.104,32.043,25.849,4.988,7.617,7.575
776,0.747,36.584,15.128,32.043,25.863,5.153,7.74,7.617
777,0.757,36.255,15.175,32.082,25.873,5.235,7.863,7.781
778,0.754,36.361,15.14,32.053,25.859,5.112,7.658,7.617
779,0.754,36.487,15.081,32.072,25.863,5.07,7.658,7.658
780,0.767,36.565,15.092,32.043,25.866,5.112,7.699,7.822
781,0.77,36.206,15.152,32.043,25.859,5.07,7.658,7.74
782,0.77,36.361,15.152,32.024,25.863,5.07,7.658,7.699
783,0.767,36.497,15.136,32.053,25.859,5.153,7.781,7.945
784,0.77,36.555,15.12,32.053,25.866,5.07,7.699,7.945
785,0.767,36.235,15.12,32.014,25.852,4.988,7.617,7.904
786,0.77,36.371,15.155,32.014,25.856,5.07,7.658,7.945
787,0.797,36.516,15.152,32.043,25.873,5.112,7.658,8.027
788,0.83,36.594,15.155,32.092,25.877,5.235,7.863,8.109
789,0.839,36.109,15.077,32.043,25.863,5.03,7.617,7.945
790,0.846,36.264,15.077,32.024,25.859,5.03,7.617,7.945
791,0.866,36.381,15.148,32.043,25.866,5.194,7.74,8.027
792,0.902,36.41,15.1,32.034,25.87,5.194,7.781,8.109
793,0.905,36.255,15.116,32.024,25.87,5.153,7.699,8.027
794,0.905,36.39,15.1,32.043,25.863,5.194,7.699,8.192
795,0.895,36.468,15.148,32.034,25.859,5.07,7.74,8.109
796,0.872,36.516,15.144,32.005,25.852,5.03,7.699,8.069
797,0.866,36.216,15.159,32.034,25.863,5.153,7.658,8.109
798,0.872,36.313,15.136,32.014,25.866,5.194,7.74,8.233
799,0.866,36.439,15.112,32.101,25.866,5.194,7.699,8.109
800,0.846,36.09,15.081,32.014,25.856,5.112,7.617,8.027
801,0.836,36.148,15.116,31.985,25.852,5.03,7.617,8.027
802,0.862,36.322,15.081,32.024,25.87,5.194,7.699,8.109
803,0.876,36.4,15.092,32.043,25.873,5.276,7.822,8.15
804,0.859,36.012,15.108,32.005,25.859,5.153,7.617,8.069
805,0.862,36.167,15.148,31.995,25.859,5.07,7.617,7.863
806,0.859,36.284,15.195,31.995,25.859,5.153,7.658,7.986
807,0.856,36.361,15.12,31.995,25.856,5.07,7.658,7.986
808,0.849,36.109,15.088,31.985,25.866,5.112,7.658,8.027
809,0.833,36.274,15.092,32.005,25.87,5.153,7.74,8.109
810,0.826,36.361,15.096,31.995,25.859,5.153,7.699,8.027
811,0.807,36.419,15.132,31.966,25.856,5.07,7.575,7.986
812,0.83,35.935,15.065,31.985,25.863,5.112,7.699,8.15
813,0.849,36.119,15.096,31.985,25.863,5.194,7.699,8.192
814,0.876,36.245,15.116,32.014,25.873,5.317,7.822,8.397
815,0.889,36.264,15.167,31.995,25.856,5.112,7.658,8.274
816,0.899,36.032,15.128,31.985,25.852,5.03,7.617,8.274
817,0.872,36.177,15.128,32.005,25.859,5.194,7.781,8.479
818,0.856,36.274,15.057,31.995,25.87,5.112,7.781,8.561
819,0.843,36.293,15.073,31.995,25.859,5.153,7.781,8.561
820,0.859,36.08,15.081,31.995,25.87,5.235,7.986,8.644
821,0.859,36.196,15.124,31.995,25.859,5.07,7.945,8.52
822,0.862,36.284,15.128,32.034,25.852,5.07,7.863,8.479
823,0.862,36.158,15.088,31.976,25.866,5.153,8.027,8.602
824,0.879,36.129,15.144,31.985,25.863,5.194,8.109,8.644
825,0.905,36.274,15.163,32.024,25.866,5.194,8.15,8.726
826,0.879,36.342,15.112,31.966,25.859,5.07,8.15,8.644
827,0.872,35.896,15.045,31.956,25.856,5.03,8.109,8.561
828,0.856,36.032,15.053,31.985,25.87,5.194,8.192,8.602
829,0.853,36.167,15.1,31.985,25.87,5.194,8.315,8.726
830,0.856,36.226,15.163,31.966,25.863,5.153,8.233,8.602
831,0.882,35.925,15.112,31.985,25.87,5.194,8.315,8.644
832,0.872,36.109,15.116,31.976,25.866,5.153,8.274,8.644
833,0.853,36.187,15.108,31.946,25.852,5.07,8.233,8.52
834,0.862,36.274,15.144,31.976,25.859,5.07,8.274,8.644
835,0.843,35.916,15.159,31.985,25.863,5.194,8.274,8.684
836,0.846,36.071,15.144,31.976,25.863,5.235,8.315,8.684
837,0.83,36.167,15.057,31.966,25.863,5.07,8.233,8.561
838,0.833,36.206,15.081,31.917,25.849,4.988,8.192,8.602
839,0.843,36.022,15.112,31.946,25.866,5.153,8.315,8.644
840,0.843,36.167,15.144,31.985,25.873,5.235,8.438,8.767
841,0.836,36.255,15.085,31.956,25.866,5.07,8.274,8.602
842,0.823,36.313,15.108,31.976,25.863,5.153,8.397,8.644
843,0.833,35.819,15.14,31.946,25.87,5.153,8.356,8.602
844,0.826,35.954,15.163,31.937,25.859,5.194,8.274,8.561
845,0.83,36.08,15.116,31.946,25.863,5.194,8.356,8.602
846,0.81,36.39,15.049,31.966,25.87,5.194,8.397,8.684
847,0.82,36.148,15.104,31.966,25.866,5.153,8.356,8.644
848,0.787,36.255,15.12,31.937,25.856,5.07,8.233,8.561
849,0.79,36.351,15.144,31.927,25.849,4.988,8.192,8.52
850,0.8,35.79,15.167,31.927,25.87,5.235,8.315,8.684
851,0.79,35.838,15.128,32.014,25.88,5.235,8.397,8.726
852,0.787,35.954,15.12,31.917,25.859,5.153,8.233,8.602
853,0.803,36.061,15.148,31.946,25.863,5.235,8.233,8.684
854,0.807,36.061,15.171,31.946,25.866,5.235,8.192,8.644
855,0.784,36.177,15.096,31.927,25.859,5.235,8.192,8.602
856,0.793,36.322,15.061,31.937,25.866,5.153,8.109,8.602
857,0.78,36.41,15.085,31.946,25.87,5.235,8.233,8.684
858,0.793,35.761,15.085,31.927,25.87,5.235,8.109,8.602
859,0.793,35.877,15.132,31.927,25.859,5.153,8.027,8.602
860,0.8,36.022,15.136,31.927,25.863,5.194,8.15,8.684
861,0.793,36.109,15.136,31.937,25.866,5.235,8.233,8.808
862,0.774,35.77,15.108,31.946,25.866,5.194,8.109,8.767
863,0.757,35.867,15.152,31.917,25.852,5.194,8.027,8.808
864,0.741,35.964,15.132,31.908,25.859,5.112,8.069,8.972
865,0.757,36.042,15.077,31.937,25.87,5.276,8.109,9.095
866,0.813,35.838,15.088,31.985,25.877,5.399,8.233,9.382
867,0.797,35.935,15.065,31.927,25.859,5.276,8.027,9.259
868,0.774,36.071,15.085,31.927,25.859,5.317,7.986,9.342
869,0.761,36.1,15.112,31.927,25.866,5.235,8.069,9.465
870,0.761,35.906,15.112,31.917,25.863,5.317,8.109,9.506
871,0.754,36.032,15.088,31.937,25.863,5.194,7.986,9.588
872,0.751,36.177,15.116,31.937,25.866,5.317,8.069,9.629
873,0.734,35.954,15.159,31.917,25.859,5.317,8.027,9.588
874,0.741,35.819,15.132,31.908,25.852,5.194,7.986,9.547
875,0.724,35.935,15.053,31.917,25.852,5.194,8.069,9.588
876,0.724,36.08,15.104,31.937,25.859,5.235,8.027,9.588
877,0.741,35.712,15.104,31.937,25.873,5.317,8.15,9.629
878,0.751,35.799,15.081,31.888,25.856,5.235,7.986,9.382
879,0.754,35.925,15.12,31.908,25.852,5.112,7.904,9.342
880,0.741,36.012,15.096,31.917,25.863,5.276,8.069,9.382
881,0.741,35.751,15.112,31.917,25.87,5.317,8.027,9.424
882,0.744,35.887,15.108,31.908,25.87,5.235,8.027,9.342
883,0.757,36.022,15.183,31.898,25.859,5.276,8.109,9.342
884,0.744,36.08,15.12,31.917,25.866,5.317,8.109,9.301
885,0.721,35.693,15.116,31.946,25.859,5.235,8.027,9.136
886,0.724,35.838,15.069,31.908,25.87,5.317,8.15,9.177
887,0.734,35.974,15.108,31.927,25.866,5.317,8.192,9.136
888,0.734,36.032,15.112,31.927,25.866,5.317,8.15,9.095
889,0.731,35.635,15.144,31.898,25.856,5.276,8.15,8.931
890,0.721,35.77,15.065,31.888,25.852,5.153,8.109,8.89
891,0.721,35.935,15.085,31.888,25.866,5.317,8.274,8.931
892,0.721,35.983,15.14,31.937,25.87,5.44,8.315,9.013
893,0.715,35.77,15.116,31.898,25.866,5.276,8.192,8.849
894,0.718,35.916,15.085,31.898,25.863,5.276,8.192,8.849
895,0.715,36.042,15.088,31.908,25.863,5.317,8.274,8.849
896,0.718,36.361,15.088,31.898,25.856,5.276,8.192,8.726
897,0.718,35.683,15.132,31.888,25.863,5.317,8.15,8.684
898,0.724,35.838,15.155,31.908,25.863,5.317,8.274,8.808
899,0.731,35.916,15.171,31.898,25.859,5.317,8.15,8.684
900,0.718,35.79,15.096,31.888,25.859,5.235,8.069,8.644
901,0.721,35.867,15.092,31.869,25.859,5.317,8.15,8.726
902,0.731,35.993,15.132,31.888,25.87,5.317,8.15,8.808
903,0.738,36.119,15.159,31.908,25.873,5.399,8.15,8.972
904,0.724,35.586,15.029,31.888,25.859,5.276,8.069,8.849
905,0.718,35.702,15.085,31.859,25.859,5.235,7.986,8.849
906,0.721,35.838,15.1,31.898,25.863,5.317,8.109,8.931
907,0.715,35.916,15.148,31.869,25.87,5.399,8.15,9.095
908,0.724,35.606,15.191,31.888,25.859,5.276,8.109,8.972
909,0.721,35.78,15.159,31.888,25.866,5.317,8.069,9.136
910,0.721,35.906,15.148,31.879,25.859,5.317,8.109,9.054
911,0.721,35.954,15.088,31.859,25.852,5.235,8.027,9.054
912,0.711,35.644,15.159,31.859,25.863,5.358,8.027,9.013
913,0.708,35.799,15.124,31.888,25.87,5.358,8.15,9.177
914,0.711,35.945,15.112,31.908,25.866,5.276,8.109,9.095
915,0.688,35.954,15.085,31.859,25.856,5.153,8.069,9.013
916,0.695,36.003,15.124,31.85,25.863,5.112,8.027,8.972
917,0.718,36.158,15.175,31.879,25.863,5.276,8.109,9.013
918,0.721,36.284,15.203,31.908,25.88,5.399,8.233,9.095
919,0.708,36.255,15.167,31.859,25.856,5.194,8.109,8.89
920,0.698,35.557,15.128,31.859,25.859,5.194,8.027,8.849
921,0.701,35.702,15.136,31.869,25.873,5.235,8.109,8.849
922,0.685,35.78,15.144,31.84,25.859,5.235,8.109,8.89
923,0.688,35.877,15.096,31.869,25.863,5.235,8.027,8.684
924,0.698,35.867,15.088,31.888,25.873,5.317,8.15,8.684
925,0.711,35.993,15.12,31.859,25.866,5.235,8.069,8.644
926,0.701,36.071,15.108,31.84,25.852,5.194,7.986,8.52
927,0.721,35.548,15.163,31.85,25.859,5.194,8.109,8.602
928,0.754,35.664,15.207,31.869,25.863,5.235,8.027,8.644
929,0.79,35.809,15.14,31.869,25.87,5.235,8.027,8.52
930,0.82,35.877,15.132,31.85,25.866,5.153,7.945,8.397
931,0.859,35.596,15.104,31.811,25.856,5.112,7.822,8.315
932,0.915,35.751,15.159,31.859,25.859,5.235,8.027,8.438
933,0.935,35.916,15.073,31.888,25.877,5.317,8.109,8.602
934,0.961,35.974,15.104,31.859,25.859,5.194,7.945,8.438
935,1.007,35.635,15.108,31.85,25.866,5.235,7.945,8.356
936,1.053,35.78,15.159,31.85,25.866,5.194,7.986,8.397
937,1.109,35.877,15.159,31.83,25.859,5.153,7.945,8.274
938,1.145,35.945,15.148,31.85,25.859,5.194,7.945,8.274
939,1.23,35.654,15.061,31.859,25.873,5.276,7.986,8.356
940,1.316,35.79,15.081,31.821,25.863,5.194,7.945,8.274
941,1.372,35.867,15.136,31.821,25.859,5.153,8.027,8.109
942,1.434,35.906,15.112,31.84,25.856,5.194,8.069,8.192
943,1.497,35.693,15.116,31.84,25.866,5.276,8.192,8.233
944,1.562,35.857,15.088,31.869,25.87,5.194,8.192,8.233
945,1.589,35.916,15.132,31.821,25.856,5.112,8.15,8.069
946,1.621,35.935,15.148,31.801,25.852,5.03,8.109,7.986
947,1.648,35.712,15.144,31.83,25.866,5.194,8.274,8.192
948,1.628,35.848,15.144,31.859,25.87,5.358,8.438,8.192
949,1.592,35.935,15.112,31.869,25.863,5.153,8.274,8.109
950,1.589,35.712,15.092,31.84,25.87,5.194,8.397,8.027
951,1.589,35.712,15.128,31.84,25.866,5.194,8.438,8.109
952,1.592,35.828,15.088,31.821,25.863,5.153,8.438,8.109
953,1.592,35.945,15.104,31.84,25.859,5.153,8.438,8.027
954,1.572,35.586,15.108,31.85,25.87,5.194,8.479,8.109
955,1.539,35.741,15.144,31.84,25.863,5.07,8.479,8.109
956,1.516,35.819,15.14,31.821,25.856,5.07,8.479,8.027
957,1.444,35.887,15.132,31.85,25.863,5.112,8.438,8.15
958,1.385,35.606,15.061,31.83,25.863,5.194,8.52,8.274
959,1.326,35.761,15.085,31.85,25.859,5.153,8.52,8.397
960,1.194,35.838,15.085,31.821,25.863,5.07,8.397,8.479
961,1.073,35.916,15.124,31.792,25.852,5.07,8.397,8.767
962,1.007,35.509,15.053,31.84,25.863,5.235,8.479,9.218
963,0.974,35.673,15.108,31.859,25.88,5.235,8.602,9.588
964,0.931,35.761,15.116,31.811,25.863,5.153,8.315,9.752
965,0.912,35.819,15.155,31.821,25.863,5.03,8.315,10.122
966,0.889,35.664,15.136,31.792,25.87,5.07,8.438,10.532
967,0.882,35.78,15.1,31.821,25.863,5.153,8.356,10.779
968,0.895,35.877,15.073,31.811,25.859,5.153,8.315,11.066
969,0.892,35.954,15.041,31.84,25.863,5.194,8.479,11.272
970,0.889,35.625,15.108,31.83,25.859,5.194,8.438,11.395
971,0.872,35.761,15.124,31.792,25.856,5.07,8.356,11.477
972,0.849,35.887,15.116,31.85,25.863,5.194,8.356,11.641
973,0.839,35.887,15.112,31.83,25.863,5.235,8.479,11.764
974,0.816,35.712,15.152,31.85,25.866,5.194,8.438,11.723
975,0.803,35.809,15.183,31.801,25.859,5.112,8.356,11.683
976,0.797,35.896,15.128,31.782,25.852,5.03,8.233,11.641
977,0.793,35.577,15.092,31.811,25.866,5.153,8.356,11.764
978,0.79,35.683,15.021,31.84,25.873,5.235,8.479,12.011
979,0.803,35.78,15.112,31.801,25.856,5.153,8.397,11.929
980,0.8,35.887,15.112,31.811,25.866,5.153,8.438,12.052
981,0.784,35.548,15.132,31.811,25.866,5.112,8.52,12.257
982,0.777,35.693,15.116,31.792,25.856,5.112,8.438,12.422
983,0.79,35.819,15.112,31.782,25.866,5.194,8.602,12.709
984,0.784,35.916,15.159,31.821,25.866,5.153,8.726,13.12
985,0.797,35.557,15.148,31.811,25.87,5.112,8.684,13.366
986,0.767,35.683,15.108,31.792,25.863,5.07,8.644,13.571
987,0.757,35.819,15.081,31.782,25.856,5.153,8.726,13.9
988,0.777,35.906,15.128,31.869,25.87,5.194,8.767,14.064
989,0.797,35.567,15.132,31.84,25.877,5.317,8.89,14.27
990,0.793,35.683,15.148,31.782,25.863,5.112,8.767,14.188
991,0.78,35.79,15.12,31.782,25.866,5.112,8.767,14.188
992,0.777,35.838,15.096,31.811,25.87,5.153,8.808,14.27
993,0.774,36.419,15.12,31.801,25.863,5.194,8.89,14.311
994,0.767,36.535,15.155,31.792,25.859,5.07,8.808,14.105
995,0.767,36.642,15.144,31.801,25.863,5.235,8.849,14.064
996,0.767,36.652,15.088,31.792,25.859,5.194,8.767,13.982
997,0.767,35.189,15.029,31.801,25.859,5.112,8.644,13.654
998,0.764,35.315,15.092,31.792,25.859,5.153,8.767,13.613
999,0.774,35.46,15.112,31.811,25.866,5.194,8.767,13.531
1000,0.79,35.664,15.199,31.821,25.873,5.235,8.849,13.407
1001,0.797,35.722,15.092,31.772,25.859,5.112,8.684,13.079
1002,0.793,35.867,15.088,31.782,25.866,5.07,8.644,12.832
1003,0.8,35.964,15.124,31.772,25.863,5.112,8.644,12.668
1004,0.78,35.373,15.175,31.763,25.859,5.07,8.602,12.545
1005,0.774,35.509,15.1,31.792,25.859,5.153,8.561,12.339
1006,0.761,35.644,15.088,31.792,25.866,5.153,8.684,12.216
1007,0.757,35.741,15.104,31.821,25.873,5.112,8.602,11.929
1008,0.764,35.518,15.088,31.753,25.856,5.07,8.438,11.806
1009,0.754,35.664,15.096,31.753,25.859,5.112,8.52,11.641
1010,0.751,35.799,15.159,31.772,25.87,5.194,8.602,11.6
1011,0.754,35.906,15.069,31.811,25.877,5.317,8.602,11.477
1012,0.734,35.499,15.1,31.763,25.859,5.07,8.479,11.231
1013,0.741,35.644,15.124,31.753,25.856,5.112,8.479,11.108
1014,0.747,35.751,15.136,31.772,25.863,5.153,8.438,11.066
1015,0.744,35.819,15.077,31.772,25.859,5.112,8.52,10.984
1016,0.734,35.567,15.053,31.772,25.863,5.153,8.438,10.738
1017,0.764,35.702,15.085,31.772,25.87,5.153,8.479,10.697
1018,0.757,35.819,15.104,31.763,25.859,5.153,8.438,10.491
1019,0.744,35.819,15.136,31.763,25.863,5.112,8.315,10.409
1020,0.747,35.548,15.152,31.753,25.859,5.153,8.274,10.368
1021,0.741,35.712,15.12,31.763,25.866,5.194,8.356,10.286
1022,0.744,35.828,15.112,31.792,25.873,5.153,8.315,10.245
1023,0.728,35.819,15.132,31.753,25.859,5.03,8.274,9.999
1024,0.738,35.47,15.128,31.743,25.852,4.947,8.069,9.793
1025,0.738,35.625,15.049,31.763,25.863,5.194,8.274,9.957
1026,0.731,35.722,15.088,31.782,25.87,5.153,8.315,9.916
1027,0.747,35.48,15.081,31.753,25.859,5.112,8.233,9.834
1028,0.774,35.567,15.116,31.782,25.87,5.194,8.274,9.916
1029,0.767,35.702,15.108,31.753,25.859,5.07,8.192,9.957
1030,0.764,35.761,15.085,31.743,25.852,5.03,8.15,9.957
1031,0.77,35.402,15.096,31.763,25.87,5.112,8.192,9.999
1032,0.784,35.548,15.1,31.772,25.863,5.153,8.233,10.081
1033,0.787,35.693,15.159,31.763,25.866,5.07,8.15,10.163
1034,0.784,35.751,15.085,31.753,25.852,5.03,8.069,10.04
1035,0.774,35.48,15.077,31.743,25.852,4.947,8.069,10.204
1036,0.78,35.693,15.061,31.763,25.866,5.07,8.192,10.204
1037,0.807,35.799,15.108,31.792,25.873,5.194,8.274,10.409
1038,0.79,35.848,15.136,31.753,25.859,5.112,8.027,10.245
1039,0.777,35.431,15.144,31.753,25.859,5.07,7.986,10.327
1040,0.767,35.567,15.092,31.772,25.866,5.03,8.027,10.286
1041,0.784,35.683,15.069,31.734,25.859,5.03,7.945,10.245
1042,0.79,35.741,15.144,31.743,25.866,5.03,7.945,10.286
1043,0.797,35.528,15.163,31.743,25.866,5.07,8.069,10.245
1044,0.774,35.664,15.085,31.734,25.863,5.03,8.027,10.204
1045,0.754,35.761,15.085,31.724,25.866,4.988,7.863,10.081
1046,0.738,35.79,15.12,31.734,25.863,4.988,7.986,10.081
1047,0.751,35.518,15.148,31.753,25.863,5.153,7.986,10.081
1048,0.754,35.673,15.163,31.772,25.87,5.153,8.069,10.081
1049,0.731,35.732,15.159,31.734,25.859,4.988,7.904,9.834
1050,0.757,35.518,15.112,31.753,25.859,4.947,7.822,9.711
1051,0.774,35.509,15.112,31.743,25.866,5.112,7.822,9.752
1052,0.774,35.644,15.175,31.753,25.87,5.194,8.027,9.834
1053,0.774,35.722,15.144,31.724,25.863,4.988,7.863,9.588
1054,0.774,35.441,15.124,31.753,25.87,5.03,7.822,9.547
1055,0.78,35.548,15.085,31.724,25.866,5.03,7.781,9.547
1056,0.78,35.664,15.116,31.724,25.859,4.988,7.822,9.382
1057,0.797,35.761,15.163,31.734,25.863,5.112,7.74,9.342
1058,0.777,35.344,15.136,31.734,25.87,5.03,7.781,9.424
1059,0.767,35.48,15.163,31.734,25.856,5.07,7.781,9.177
1060,0.774,35.606,15.124,31.704,25.856,4.988,7.658,9.095
1061,0.774,35.644,15.104,31.714,25.859,4.988,7.617,9.136
1062,0.777,35.393,15.179,31.734,25.863,5.112,7.699,9.095
1063,0.79,35.586,15.085,31.772,25.873,5.194,7.74,9.136
1064,0.78,35.654,15.108,31.714,25.852,4.947,7.534,8.89
1065,0.79,35.741,15.081,31.724,25.859,4.947,7.534,8.849
1066,0.79,35.334,15.159,31.714,25.87,5.07,7.699,8.849
1067,0.787,35.47,15.152,31.714,25.863,4.988,7.617,8.808
1068,0.777,35.596,15.187,31.704,25.866,4.988,7.494,8.726
1069,0.77,35.644,15.12,31.734,25.87,5.07,7.534,8.684
1070,0.751,35.47,15.112,31.704,25.866,4.988,7.452,8.644
1071,0.757,35.586,15.12,31.685,25.859,4.947,7.411,8.602
1072,0.774,35.683,15.163,31.704,25.859,5.03,7.494,8.561
1073,0.777,35.974,15.065,31.724,25.87,5.07,7.494,8.644
1074,0.787,35.654,15.081,31.743,25.87,5.112,7.452,8.479
1075,0.774,35.741,15.112,31.704,25.859,4.947,7.329,8.356
1076,0.774,35.819,15.136,31.675,25.852,4.865,7.288,8.233
1077,0.78,35.189,15.195,31.714,25.863,5.07,7.329,8.397
1078,0.8,35.209,15.155,31.704,25.866,4.988,7.452,8.356
1079,0.797,35.334,15.085,31.695,25.859,4.988,7.329,8.233
1080,0.8,35.431,15.096,31.714,25.87,4.988,7.452,8.315
1081,0.8,35.364,15.112,31.685,25.859,4.988,7.452,8.274
1082,0.797,35.48,15.128,31.685,25.856,4.988,7.452,8.233
1083,0.81,35.625,15.096,31.685,25.866,4.988,7.494,8.15
1084,0.803,35.702,15.1,31.724,25.866,4.988,7.617,8.192
1085,0.82,35.17,15.128,31.704,25.866,5.03,7.699,8.109
1086,0.787,35.286,15.144,31.685,25.859,4.947,7.575,7.986
1087,0.774,35.383,15.128,31.656,25.859,4.824,7.575,7.863
1088,0.777,35.48,15.159,31.695,25.866,5.07,7.74,8.069
1089,0.78,35.334,15.085,31.724,25.866,5.07,7.863,8.109
1090,0.777,35.451,15.088,31.685,25.859,4.947,7.699,7.945
1091,0.803,35.567,15.124,31.695,25.866,4.988,7.822,7.945
1092,0.784,35.606,15.073,31.704,25.873,4.988,7.781,8.027
1093,0.79,35.17,15.061,31.675,25.852,4.988,7.74,7.986
1094,0.81,35.315,15.1,31.685,25.859,4.988,7.822,7.986
1095,0.823,35.451,15.124,31.695,25.87,4.988,7.822,8.109
1096,0.836,35.46,15.124,31.695,25.859,4.988,7.74,8.109
1097,0.853,35.305,15.116,31.675,25.856,4.906,7.658,8.233
1098,0.843,35.441,15.108,31.675,25.859,5.03,7.699,8.356
1099,0.849,35.567,15.096,31.695,25.87,5.03,7.863,8.52
1100,0.843,35.46,15.1,31.724,25.873,5.07,7.945,8.726
1101,0.823,35.344,15.12,31.675,25.859,4.906,7.74,8.684
1102,0.82,35.47,15.033,31.685,25.852,4.906,7.658,8.684
1103,0.833,35.577,15.088,31.675,25.866,4.988,7.781,8.89
1104,0.816,35.102,15.096,31.675,25.866,4.988,7.781,8.972
1105,0.833,35.199,15.136,31.675,25.856,4.988,7.822,8.931
1106,0.833,35.334,15.12,31.695,25.866,4.988,7.781,8.972
1107,0.833,35.441,15.096,31.675,25.859,4.947,7.781,9.095
1108,0.813,35.141,15.073,31.675,25.859,4.906,7.699,8.931
1109,0.81,35.305,15.081,31.675,25.863,5.03,7.781,8.972
1110,0.82,35.451,15.108,31.666,25.866,5.07,7.822,9.095
1111,0.81,35.528,15.136,31.695,25.859,4.988,7.74,8.972
1112,0.807,35.17,15.112,31.656,25.859,4.865,7.699,8.931
1113,0.82,35.296,15.092,31.656,25.856,4.906,7.658,9.013
1114,0.846,35.46,15.14,31.695,25.87,4.988,7.822,9.095
1115,0.869,35.528,15.199,31.714,25.873,5.153,7.945,9.136
1116,0.872,35.189,15.096,31.666,25.859,4.988,7.699,8.931
1117,0.882,35.344,15.085,31.666,25.856,4.947,7.74,9.013
1118,0.869,35.451,15.053,31.685,25.87,5.03,7.863,9.095
1119,0.866,35.48,15.049,31.675,25.863,5.03,7.822,9.136
1120,0.882,35.16,15.077,31.675,25.852,4.988,7.74,9.054
1121,0.889,35.296,15.108,31.685,25.873,5.07,7.863,9.095
1122,0.889,35.412,15.132,31.675,25.859,5.07,7.74,9.054
1123,0.885,35.761,15.12,31.656,25.859,4.865,7.74,8.972
1124,0.892,35.179,15.152,31.656,25.859,5.07,7.74,9.054
1125,0.905,35.315,15.163,31.666,25.863,5.03,7.822,9.054
1126,0.908,35.431,15.12,31.685,25.866,5.07,7.74,9.095
1127,0.872,35.209,15.01,31.656,25.863,4.906,7.699,8.972
1128,0.889,35.257,15.057,31.637,25.856,4.947,7.575,8.849
1129,0.902,35.412,15.096,31.675,25.87,5.07,7.617,8.972
1130,0.882,35.509,15.152,31.685,25.877,5.112,7.74,9.013
1131,0.872,35.073,15.081,31.666,25.859,4.988,7.658,8.767
1132,0.866,35.238,15.088,31.656,25.863,5.03,7.617,8.89
1133,0.836,35.364,15.14,31.685,25.863,4.988,7.575,8.89
1134,0.83,35.412,15.167,31.666,25.856,5.03,7.452,8.767
1135,0.859,35.141,15.152,31.675,25.863,4.988,7.534,8.808
1136,0.866,35.296,15.049,31.685,25.866,5.07,7.617,8.808
1137,0.876,35.431,14.982,31.685,25.866,5.03,7.534,8.684
1138,0.872,35.48,15.096,31.656,25.859,4.988,7.411,8.52
1139,0.856,35.112,15.085,31.617,25.856,4.988,7.452,8.561
1140,0.872,35.286,15.183,31.675,25.87,5.07,7.617,8.561
1141,0.869,35.431,15.085,31.714,25.873,5.153,7.658,8.726
1142,0.866,35.47,15.104,31.656,25.856,4.988,7.575,8.438
1143,0.866,35.112,15.12,31.656,25.859,5.03,7.575,8.397
1144,0.869,35.238,15.183,31.656,25.863,5.07,7.617,8.356
1145,0.872,35.334,15.108,31.656,25.863,5.112,7.699,8.274
1146,0.889,35.383,14.974,31.675,25.866,5.07,7.617,8.192
1147,0.899,35.276,15.124,31.695,25.863,5.07,7.699,8.315
1148,0.892,35.373,15.096,31.666,25.866,5.07,7.74,8.15
1149,0.892,35.48,15.12,31.656,25.856,4.947,7.699,8.069
1150,0.912,35.402,15.144,31.646,25.859,5.03,7.781,8.069
1151,0.922,35.325,15.132,31.685,25.863,5.112,7.781,8.109
1152,0.951,35.489,15.1,31.685,25.87,5.03,7.822,8.109
1153,0.938,35.528,15.155,31.656,25.859,5.03,7.822,7.945
1154,0.915,35.257,15.148,31.637,25.845,4.947,7.699,7.945
1155,0.918,35.412,15.061,31.666,25.863,5.07,7.781,7.986
1156,0.925,35.557,15.096,31.695,25.87,5.194,8.027,8.027
1157,0.922,35.615,15.081,31.656,25.859,5.03,7.781,7.822
1158,0.931,35.48,15.12,31.675,25.859,5.07,7.781,7.781
1159,0.918,35.606,15.155,31.675,25.863,5.03,7.822,7.822
1160,0.922,35.683,15.144,31.646,25.866,5.03,7.74,7.74
1161,0.945,35.809,15.096,31.666,25.859,5.03,7.74,7.699
1162,0.945,35.48,15.104,31.666,25.866,5.153,7.822,7.781
1163,0.938,35.615,15.12,31.656,25.859,5.07,7.74,7.658
1164,0.928,35.722,15.104,31.637,25.856,5.03,7.617,7.575
1165,0.925,35.78,15.049,31.666,25.859,5.112,7.74,7.699
1166,0.938,35.683,15.104,31.675,25.866,5.153,7.699,7.617
1167,0.945,35.838,15.108,31.695,25.873,5.153,7.781,7.617
1168,0.935,35.906,15.108,31.666,25.859,5.07,7.658,7.534
1169,0.935,35.906,15.124,31.627,25.856,5.03,7.575,7.494
1170,0.941,36.022,15.112,31.666,25.859,5.07,7.699,7.617
1171,0.958,36.187,15.116,31.685,25.87,5.276,7.74,7.658
1172,0.951,36.255,15.081,31.656,25.866,5.07,7.494,7.494
1173,0.961,36.361,15.163,31.656,25.863,5.153,7.617,7.494
1174,0.971,36.071,15.092,31.675,25.859,5.153,7.534,7.575
1175,0.971,36.177,15.029,31.656,25.852,5.03,7.534,7.452
1176,0.994,36.303,15.088,31.666,25.863,5.153,7.494,7.534
1177,1.004,36.381,15.088,31.685,25.866,5.235,7.575,7.575
1178,1.01,36.439,15.128,31.666,25.863,5.194,7.534,7.534
1179,0.984,36.555,15.155,31.637,25.859,5.03,7.452,7.494
1180,0.994,36.632,15.12,31.637,25.859,5.153,7.494,7.617
1181,1.0,36.487,15.112,31.675,25.866,5.194,7.575,7.658
1182,1.007,36.652,15.136,31.695,25.877,5.276,7.617,7.781
1183,1.01,36.71,15.148,31.656,25.852,5.153,7.452,7.617
1184,1.004,36.787,15.092,31.646,25.856,5.07,7.411,7.617
1185,1.023,36.807,15.092,31.666,25.866,5.194,7.494,7.781
1186,1.023,36.942,15.081,31.646,25.866,5.153,7.534,7.699
1187,1.01,37.068,15.092,31.656,25.866,5.153,7.534,7.781
1188,1.01,37.117,15.144,31.666,25.863,5.276,7.617,7.822
1189,1.02,36.913,15.179,31.656,25.863,5.194,7.575,7.822
1190,1.007,37.039,15.124,31.637,25.856,5.112,7.494,7.74
1191,1.014,37.175,15.12,31.666,25.863,5.112,7.575,7.781
1192,1.023,37.233,15.108,31.656,25.863,5.194,7.534,7.863
1193,1.033,37.262,15.179,31.675,25.866,5.276,7.658,7.904
1194,1.023,37.339,15.077,31.637,25.859,5.153,7.534,7.781
1195,1.023,37.436,15.1,31.637,25.852,5.03,7.494,7.74
1196,1.037,37.485,15.081,31.666,25.866,5.153,7.617,7.822
1197,1.043,37.33,15.108,31.656,25.866,5.235,7.74,7.945
1198,1.046,37.446,15.136,31.637,25.856,5.194,7.658,7.781
1199,1.06,37.543,15.167,31.666,25.866,5.235,7.781,7.945
1200,1.06,37.649,15.1,31.656,25.863,5.153,7.699,7.986
1201,1.05,37.591,15.1,31.646,25.856,5.194,7.658,8.027
1202,1.063,37.727,15.14,31.646,25.863,5.153,7.74,8.027
1203,1.056,37.814,15.163,31.637,25.866,5.194,7.822,8.192
1204,1.063,37.591,15.081,31.637,25.87,5.194,7.74,8.109
1205,1.04,37.669,15.085,31.608,25.859,5.112,7.658,8.109
1206,1.027,37.775,15.088,31.598,25.859,5.07,7.699,8.109
1207,1.033,37.882,15.112,31.637,25.859,5.194,7.863,8.274
1208,1.037,37.737,15.159,31.646,25.873,5.358,7.863,8.356
1209,1.017,37.824,15.152,31.617,25.852,5.153,7.699,8.15
1210,1.023,37.95,15.104,31.608,25.859,5.194,7.658,8.192
1211,1.027,38.027,15.085,31.608,25.866,5.235,7.863,8.15
1212,1.03,37.911,15.148,31.608,25.863,5.276,7.822,8.274
1213,1.023,38.037,15.14,31.617,25.863,5.276,7.904,8.109
1214,1.02,38.163,15.069,31.637,25.866,5.276,7.945,8.233
1215,1.014,38.211,15.12,31.627,25.859,5.194,7.904,8.109
1216,1.02,38.056,15.096,31.617,25.852,5.153,7.822,8.027
1217,1.03,38.211,15.144,31.627,25.859,5.194,7.986,8.15
1218,1.046,38.318,15.152,31.637,25.863,5.235,8.069,8.15
1219,1.06,38.356,15.183,31.646,25.866,5.235,8.069,8.069
1220,1.056,38.046,15.053,31.627,25.859,5.153,7.986,8.027
1221,1.043,38.172,15.085,31.598,25.856,5.112,7.945,8.027
1222,1.046,38.298,15.144,31.627,25.863,5.235,8.109,8.027
1223,1.04,38.308,15.148,31.637,25.88,5.317,8.274,8.15
1224,1.02,38.269,15.014,31.617,25.859,5.194,8.027,7.945
1225,1.017,38.415,15.1,31.617,25.866,5.194,8.069,7.945
1226,0.997,38.502,15.108,31.627,25.863,5.235,8.233,7.945
1227,1.004,38.192,15.155,31.598,25.863,5.153,8.15,7.904
1228,0.991,38.192,15.163,31.617,25.863,5.194,8.15,7.945
1229,0.987,38.318,15.148,31.608,25.87,5.235,8.15,7.945
1230,0.964,38.405,15.073,31.637,25.87,5.276,8.109,7.863
1231,0.964,38.201,15.077,31.588,25.856,5.194,8.027,7.74
1232,0.977,38.318,15.132,31.608,25.859,5.235,8.109,7.822
1233,0.971,38.453,15.088,31.627,25.866,5.276,8.192,7.904
1234,0.977,38.599,15.057,31.656,25.866,5.276,8.15,7.822
1235,0.961,38.163,15.088,31.598,25.856,5.153,8.069,7.74
1236,0.968,38.289,15.081,31.579,25.852,5.07,7.945,7.658
1237,0.964,38.434,15.148,31.617,25.866,5.276,8.109,7.74
1238,0.968,38.492,15.136,31.637,25.873,5.358,8.192,7.781
1239,0.948,38.153,15.144,31.598,25.866,5.153,8.069,7.617
1240,0.958,38.337,15.1,31.637,25.87,5.194,8.069,7.658
1241,0.948,38.434,15.088,31.617,25.863,5.235,8.069,7.74
1242,0.935,38.473,15.132,31.598,25.856,5.194,8.069,7.617
1243,0.918,38.201,15.092,31.617,25.866,5.235,8.027,7.575
1244,0.908,38.337,15.104,31.627,25.866,5.317,8.027,7.699
1245,0.892,38.434,15.081,31.608,25.863,5.276,7.986,7.699
1246,0.885,38.444,15.104,31.608,25.856,5.235,7.904,7.575
1247,0.866,38.201,15.124,31.588,25.859,5.276,7.986,7.617
1248,0.876,38.356,15.183,31.637,25.866,5.358,8.069,7.658
1249,0.866,38.463,15.132,31.646,25.866,5.358,8.069,7.575
1250,0.83,38.463,15.124,31.588,25.859,5.194,7.863,7.575
1251,0.83,38.201,15.088,31.588,25.856,5.194,7.822,7.452
1252,0.836,38.356,15.159,31.608,25.863,5.317,7.945,7.617
1253,0.836,38.453,15.077,31.656,25.88,5.44,8.027,7.781
1254,0.813,38.143,15.081,31.598,25.863,5.276,7.781,7.617
1255,0.807,38.231,15.092,31.617,25.859,5.276,7.863,7.617
1256,0.81,38.337,15.116,31.608,25.859,5.317,7.74,7.74
1257,0.82,38.405,15.152,31.598,25.852,5.235,7.781,7.781
1258,0.823,37.95,15.195,31.608,25.863,5.317,7.699,7.904
1259,0.82,38.114,15.108,31.617,25.866,5.358,7.74,8.027
1260,0.82,38.221,15.108,31.617,25.866,5.358,7.74,8.109
1261,0.813,38.26,15.104,31.588,25.852,5.235,7.534,8.15
1262,0.803,37.93,15.144,31.598,25.863,5.317,7.617,8.192
1263,0.813,38.105,15.057,31.608,25.866,5.358,7.658,8.438
1264,0.83,38.24,15.112,31.617,25.87,5.317,7.658,8.397
1265,0.81,38.24,15.104,31.588,25.863,5.153,7.534,8.315
1266,0.813,37.833,15.124,31.559,25.859,5.235,7.452,8.397
1267,0.83,38.008,15.167,31.598,25.866,5.276,7.617,8.684
1268,0.856,38.153,15.179,31.627,25.866,5.44,7.699,8.767
1269,0.82,38.124,15.092,31.598,25.866,5.194,7.575,8.52
1270,0.807,37.843,15.112,31.608,25.859,5.235,7.494,8.52
1271,0.793,37.979,15.128,31.598,25.866,5.317,7.575,8.644
1272,0.767,38.066,15.144,31.579,25.866,5.276,7.494,8.644
1273,0.787,38.066,15.065,31.588,25.859,5.235,7.617,8.644
1274,0.777,37.95,15.104,31.598,25.87,5.317,7.575,8.644
1275,0.78,38.066,15.116,31.598,25.863,5.317,7.494,8.602
1276,0.77,38.143,15.144,31.559,25.859,5.153,7.452,8.52
1277,0.774,37.843,15.152,31.579,25.863,5.194,7.534,8.479
1278,0.793,37.804,15.183,31.579,25.866,5.317,7.617,8.644
1279,0.813,37.93,15.112,31.637,25.877,5.399,7.699,8.602
1280,0.81,38.008,15.096,31.579,25.859,5.194,7.534,8.397
1281,0.81,37.659,15.096,31.588,25.859,5.235,7.494,8.52
1282,0.82,37.766,15.148,31.608,25.863,5.276,7.575,8.602
1283,0.803,37.882,15.073,31.579,25.859,5.235,7.534,8.479
1284,0.767,37.959,15.096,31.579,25.859,5.235,7.534,8.438
1285,0.77,37.649,15.096,31.579,25.87,5.317,7.575,8.479
1286,0.754,37.775,15.144,31.588,25.866,5.317,7.617,8.479
1287,0.724,37.872,15.167,31.559,25.859,5.153,7.452,8.397
1288,0.738,37.93,15.144,31.588,25.859,5.194,7.575,8.356
1289,0.751,37.494,15.1,31.579,25.87,5.317,7.658,8.438
1290,0.774,37.678,15.092,31.598,25.873,5.317,7.699,8.438
1291,0.754,37.746,15.124,31.569,25.859,5.153,7.575,8.315
1292,0.754,37.766,15.128,31.559,25.856,5.112,7.575,8.274
1293,0.751,37.533,15.096,31.588,25.866,5.276,7.699,8.438
1294,0.754,37.688,15.088,31.617,25.866,5.235,7.781,8.479
1295,0.751,37.756,15.128,31.588,25.859,5.112,7.617,8.315
1296,0.761,37.795,15.144,31.598,25.87,5.194,7.74,8.438
1297,0.761,37.456,15.155,31.588,25.859,5.235,7.699,8.397
1298,0.761,37.591,15.1,31.569,25.859,5.153,7.699,8.356
1299,0.777,37.688,15.077,31.588,25.863,5.194,7.781,8.438
1300,0.8,37.862,15.077,31.608,25.866,5.235,7.945,8.561
1301,0.787,37.572,15.104,31.588,25.863,5.194,7.904,8.52
1302,0.78,37.678,15.128,31.579,25.859,5.153,7.822,8.438
1303,0.767,37.766,15.017,31.55,25.859,5.112,8.027,8.561
1304,0.793,37.427,15.104,31.588,25.863,5.235,8.027,8.602
1305,0.793,37.514,15.12,31.617,25.877,5.317,8.233,8.684
1306,0.784,37.601,15.159,31.579,25.859,5.153,8.069,8.52
1307,0.774,37.688,15.144,31.579,25.859,5.112,8.109,8.52
1308,0.764,37.572,15.152,31.579,25.859,5.276,8.233,8.644
1309,0.754,37.688,15.049,31.579,25.863,5.194,8.233,8.644
1310,0.738,37.814,15.077,31.55,25.859,5.194,8.233,8.52
1311,0.734,37.901,15.096,31.579,25.87,5.235,8.315,8.52
1312,0.734,37.252,15.104,31.569,25.859,5.153,8.274,8.561
1313,0.738,37.398,15.049,31.579,25.859,5.112,8.233,8.397
1314,0.738,37.514,15.085,31.569,25.863,5.112,8.315,8.479
1315,0.738,37.601,15.136,31.588,25.87,5.235,8.356,8.52
1316,0.757,37.446,15.175,31.608,25.87,5.235,8.356,8.438
1317,0.767,37.553,15.187,31.569,25.859,5.112,8.274,8.315
1318,0.761,37.63,15.152,31.55,25.852,4.988,8.233,8.315
1319,0.777,37.678,15.085,31.588,25.866,5.153,8.397,8.356
1320,0.777,37.359,15.081,31.598,25.873,5.235,8.52,8.356
1321,0.757,37.485,15.116,31.559,25.863,5.07,8.397,8.274
1322,0.751,37.62,15.1,31.579,25.859,5.194,8.479,8.233
1323,0.764,37.601,15.104,31.569,25.863,5.153,8.438,8.15
1324,0.747,37.291,15.073,31.54,25.863,5.112,8.356,8.109
1325,0.744,37.436,15.128,31.559,25.863,5.07,8.479,8.069
1326,0.757,37.553,15.175,31.579,25.866,5.194,8.52,8.109
1327,0.744,37.436,15.155,31.579,25.859,5.194,8.52,8.027
1328,0.747,37.368,15.112,31.559,25.852,5.07,8.356,7.863
1329,0.751,37.494,15.021,31.55,25.859,5.112,8.438,7.986
1330,0.744,37.62,15.1,31.579,25.866,5.194,8.602,7.945
1331,0.751,37.359,15.152,31.598,25.88,5.276,8.684,7.986
1332,0.747,37.446,15.112,31.54,25.859,5.112,8.438,7.863
1333,0.757,37.562,15.116,31.559,25.859,5.03,8.356,7.863
1334,0.761,37.659,15.1,31.579,25.859,5.153,8.479,7.945
1335,0.751,37.339,15.144,31.579,25.863,5.235,8.479,8.109
1336,0.761,37.485,15.159,31.55,25.856,5.112,8.397,8.109
1337,0.774,37.611,15.179,31.559,25.866,5.153,8.438,8.192
1338,0.767,37.64,15.112,31.54,25.866,5.194,8.52,8.315
1339,0.741,37.272,15.085,31.559,25.856,5.07,8.315,8.397
1340,0.761,37.446,15.124,31.559,25.856,5.153,8.356,8.479
1341,0.761,37.543,15.163,31.569,25.87,5.153,8.438,8.644
1342,0.777,37.601,15.104,31.55,25.863,5.153,8.315,8.684
1343,0.764,37.349,15.081,31.53,25.866,5.112,8.274,8.602
1344,0.747,37.465,15.096,31.53,25.859,5.07,8.315,8.726
1345,0.764,37.611,15.128,31.55,25.866,5.153,8.356,8.808
1346,0.784,37.649,15.175,31.569,25.873,5.317,8.52,8.89
1347,0.767,37.32,15.112,31.54,25.859,5.112,8.274,8.767
1348,0.774,37.475,15.116,31.55,25.863,5.153,8.274,8.726
1349,0.77,37.562,15.1,31.55,25.866,5.153,8.274,8.684
1350,0.77,37.843,15.112,31.54,25.859,5.112,8.192,8.767
1351,0.757,37.378,15.163,31.55,25.859,5.194,8.192,8.808
1352,0.78,37.533,15.077,31.559,25.866,5.194,8.274,8.849
1353,0.79,37.63,15.088,31.55,25.866,5.153,8.192,8.849
1354,0.774,37.368,15.096,31.55,25.859,5.07,8.15,8.767
1355,0.764,37.427,15.179,31.559,25.863,5.07,8.192,8.726
1356,0.764,37.553,15.128,31.55,25.863,5.153,8.274,8.767
1357,0.793,37.669,15.096,31.54,25.863,5.153,8.192,8.726
1358,0.793,37.398,15.049,31.53,25.863,5.112,8.109,8.644
1359,0.774,37.543,15.088,31.53,25.852,5.03,8.15,8.52
1360,0.777,37.678,15.1,31.55,25.866,5.235,8.233,8.684
1361,0.777,37.756,15.175,31.579,25.88,5.317,8.356,8.767
1362,0.761,37.31,15.092,31.55,25.863,5.153,8.192,8.561
1363,0.761,37.465,15.085,31.521,25.859,5.153,8.233,8.52
1364,0.777,37.562,15.144,31.53,25.863,5.153,8.274,8.602
1365,0.774,37.63,15.148,31.54,25.859,5.153,8.315,8.602
1366,0.77,37.33,15.136,31.53,25.849,5.153,8.192,8.52
1367,0.767,37.504,15.073,31.559,25.866,5.235,8.356,8.438
1368,0.754,37.591,15.037,31.55,25.859,5.07,8.315,8.438
1369,0.747,37.611,15.057,31.521,25.856,5.07,8.233,8.274
1370,0.751,37.717,15.096,31.54,25.866,5.153,8.274,8.397
1371,0.754,37.853,15.152,31.55,25.866,5.194,8.356,8.397
1372,0.757,37.988,15.112,31.637,25.87,5.153,8.356,8.356
1373,0.734,37.988,15.096,31.53,25.859,5.07,8.233,8.274
1374,0.741,37.252,15.108,31.501,25.849,4.988,8.233,8.192
1375,0.754,37.436,15.144,31.55,25.866,5.194,8.356,8.315
1376,0.754,37.533,15.096,31.559,25.877,5.235,8.356,8.356
1377,0.764,37.717,15.025,31.53,25.863,5.112,8.274,8.192
1378,0.757,37.795,14.998,31.559,25.859,5.153,8.274,8.15
1379,0.751,37.892,15.108,31.54,25.859,5.153,8.274,8.233
1380,0.741,37.969,15.14,31.53,25.856,5.07,8.274,8.15
1381,0.747,37.136,15.124,31.521,25.866,5.112,8.274,8.192
1382,0.764,37.243,15.112,31.55,25.87,5.194,8.356,8.274
1383,0.777,37.359,15.088,31.53,25.87,5.112,8.315,8.233
1384,0.777,37.407,15.148,31.521,25.859,5.07,8.315,8.109
1385,0.757,37.407,15.124,31.53,25.859,5.112,8.356,8.192
1386,0.754,37.582,15.073,31.54,25.866,5.112,8.52,8.274
1387,0.754,37.737,15.002,31.569,25.877,5.235,8.602,8.356
1388,0.741,37.756,15.096,31.511,25.856,5.07,8.561,8.233
1389,0.751,37.339,15.065,31.501,25.852,4.988,8.561,8.192
1390,0.754,37.485,15.14,31.54,25.863,5.07,8.726,8.315
1391,0.734,37.611,15.065,31.54,25.859,5.07,8.767,8.233
1392,0.754,37.649,15.081,31.511,25.859,5.07,8.767,8.192
1393,0.761,37.485,15.112,31.54,25.866,5.07,8.808,8.274
1394,0.774,37.591,15.152,31.521,25.863,5.112,8.849,8.192
1395,0.767,37.669,15.116,31.521,25.859,4.988,8.808,8.027
1396,0.784,37.737,15.065,31.53,25.866,5.07,8.89,8.109
1397,0.797,37.301,15.096,31.55,25.866,5.112,8.849,8.15
1398,0.82,37.417,15.116,31.54,25.87,5.07,8.767,8.15
1399,0.8,37.504,15.092,31.511,25.859,5.03,8.726,8.027
1400,0.793,37.785,15.128,31.501,25.856,4.947,8.726,7.945
1401,0.803,37.32,15.116,31.588,25.863,5.153,8.808,8.069
1402,0.803,37.465,15.116,31.55,25.87,5.194,8.849,8.192
1403,0.8,37.543,15.132,31.511,25.859,5.112,8.644,7.945
1404,0.797,37.281,15.128,31.511,25.863,5.07,8.644,7.986
1405,0.787,37.291,15.073,31.521,25.866,5.07,8.684,7.986
1406,0.774,37.427,15.088,31.511,25.863,5.03,8.52,7.945
1407,0.761,37.523,15.128,31.521,25.866,5.07,8.602,7.986
1408,0.754,37.165,15.12,31.54,25.873,5.153,8.602,8.027
1409,0.767,37.262,15.132,31.511,25.863,5.112,8.52,8.069
1410,0.761,37.368,15.124,31.511,25.856,4.988,8.52,7.863
1411,0.78,37.456,15.12,31.521,25.866,5.07,8.602,7.986
1412,0.78,37.175,15.116,31.53,25.866,5.112,8.52,7.986
1413,0.784,37.349,15.167,31.54,25.87,5.235,8.644,8.027
1414,0.767,37.407,15.104,31.511,25.859,5.112,8.438,7.945
1415,0.767,37.485,15.081,31.511,25.859,5.03,8.397,7.781
1416,0.754,37.097,15.12,31.521,25.866,5.153,8.52,7.986
1417,0.754,37.223,15.112,31.511,25.866,5.07,8.52,7.945
1418,0.767,37.339,15.171,31.501,25.856,5.112,8.438,8.027
1419,0.761,37.388,15.195,31.53,25.866,5.153,8.561,7.986
1420,0.761,37.029,15.167,31.511,25.866,5.112,8.479,8.069
1421,0.757,37.175,15.116,31.521,25.856,5.07,8.438,8.109
1422,0.767,37.301,15.128,31.53,25.859,5.153,8.438,8.397
1423,0.774,37.32,15.171,31.521,25.866,5.153,8.602,8.561
1424,0.78,37.0,15.092,31.54,25.866,5.153,8.479,8.767
1425,0.757,37.117,15.085,31.501,25.859,5.112,8.479,8.849
1426,0.757,37.184,15.053,31.482,25.856,5.03,8.438,8.972
1427,0.764,37.194,15.124,31.521,25.863,5.153,8.644,9.177
1428,0.77,37.097,15.175,31.521,25.873,5.153,8.726,9.506
1429,0.757,37.204,15.187,31.501,25.863,5.112,8.561,9.424
1430,0.764,37.301,15.14,31.511,25.866,5.194,8.644,9.547
1431,0.767,36.884,15.104,31.501,25.866,5.194,8.602,9.588
1432,0.751,36.971,15.1,31.501,25.852,5.153,8.561,9.588
1433,0.754,37.107,15.167,31.521,25.863,5.153,8.602,9.547
1434,0.774,37.223,15.077,31.521,25.866,5.235,8.602,9.711
1435,0.787,36.845,15.1,31.511,25.859,5.194,8.479,9.711
1436,0.777,36.981,15.092,31.501,25.859,5.112,8.397,9.588
1437,0.784,37.059,15.116,31.472,25.852,5.194,8.397,9.588
1438,0.8,37.155,15.155,31.511,25.863,5.194,8.438,9.588
1439,0.816,36.884,15.163,31.53,25.877,5.317,8.479,9.711
1440,0.787,36.971,15.12,31.492,25.866,5.153,8.274,9.424
1441,0.78,37.097,15.092,31.501,25.859,5.112,8.15,9.424
1442,0.777,37.155,15.132,31.511,25.859,5.235,8.397,9.547
1443,0.777,36.904,15.116,31.501,25.863,5.235,8.274,9.506
1444,0.774,37.049,15.053,31.492,25.859,5.153,8.274,9.547
1445,0.77,37.175,15.092,31.511,25.873,5.235,8.356,9.547
1446,0.774,37.194,15.081,31.482,25.859,5.153,8.315,9.547
1447,0.757,36.826,15.112,31.482,25.856,5.112,8.15,9.382
1448,0.77,36.981,15.124,31.501,25.859,5.235,8.233,9.506
1449,0.787,37.088,15.159,31.511,25.87,5.317,8.397,9.547
1450,0.777,37.126,15.073,31.521,25.866,5.235,8.315,9.506
1451,0.751,36.991,15.085,31.472,25.859,5.153,8.274,9.342
1452,0.754,37.107,15.104,31.482,25.849,5.153,8.315,9.342
1453,0.754,37.233,15.124,31.521,25.863,5.317,8.438,9.424
1454,0.774,36.874,15.073,31.54,25.88,5.317,8.644,9.424
1455,0.757,36.807,15.085,31.501,25.859,5.194,8.602,9.177
1456,0.767,36.962,15.085,31.482,25.859,5.153,8.52,9.136
1457,0.774,37.039,15.112,31.501,25.866,5.276,8.726,9.136
1458,0.78,36.787,15.14,31.511,25.87,5.317,8.972,9.177
1459,0.777,36.923,15.116,31.501,25.859,5.235,8.972,8.972
1460,0.787,37.059,15.002,31.521,25.863,5.358,9.013,9.054
1461,0.777,37.126,15.073,31.482,25.863,5.235,9.095,8.972
1462,0.78,36.768,15.132,31.482,25.859,5.153,9.136,8.89
1463,0.787,36.933,15.1,31.501,25.863,5.235,9.013,8.808
1464,0.777,37.059,15.1,31.511,25.873,5.317,9.218,8.89
1465,0.793,37.155,15.1,31.501,25.866,5.317,9.259,8.767
1466,0.78,36.7,15.104,31.463,25.859,5.153,9.095,8.684
1467,0.767,36.826,15.132,31.463,25.856,5.153,9.054,8.602
1468,0.764,36.981,15.159,31.492,25.863,5.276,9.218,8.684
1469,0.764,37.02,15.152,31.511,25.866,5.399,9.259,8.726
1470,0.764,36.942,15.128,31.472,25.863,5.235,8.972,8.52
1471,0.764,37.088,15.085,31.482,25.866,5.194,9.054,8.479
1472,0.8,37.175,15.144,31.482,25.866,5.235,9.054,8.52
1473,0.81,37.194,15.088,31.482,25.859,5.153,8.931,8.315
1474,0.83,36.874,15.1,31.482,25.863,5.235,8.89,8.315
1475,0.83,37.02,15.112,31.501,25.866,5.317,8.931,8.315
1476,0.833,37.117,15.136,31.492,25.859,5.317,8.849,8.233
1477,0.816,37.088,15.155,31.443,25.856,5.194,8.684,8.027
1478,0.797,36.884,15.148,31.443,25.859,5.153,8.684,8.069
1479,0.793,37.039,15.128,31.492,25.866,5.235,8.767,8.069
1480,0.813,37.155,15.132,31.521,25.873,5.399,8.767,8.192
1481,0.797,36.739,15.077,31.482,25.859,5.235,8.561,7.945
1482,0.774,36.826,15.148,31.482,25.859,5.153,8.52,7.945
1483,0.77,36.952,15.065,31.472,25.866,5.235,8.52,7.904
1484,0.734,37.039,15.088,31.482,25.859,5.194,8.438,7.945
1485,0.744,36.787,15.104,31.482,25.859,5.235,8.438,7.863
1486,0.734,36.913,15.128,31.482,25.866,5.235,8.479,7.945
1487,0.715,37.02,15.179,31.472,25.866,5.235,8.52,7.781
1488,0.705,37.078,15.159,31.463,25.859,5.112,8.397,7.781
1489,0.705,36.778,15.14,31.492,25.859,5.235,8.438,7.781
1490,0.721,36.952,15.124,31.501,25.87,5.235,8.52,7.74
1491,0.724,37.068,15.108,31.492,25.866,5.194,8.52,7.658
1492,0.711,37.088,15.159,31.472,25.859,5.112,8.356,7.575
1493,0.721,36.807,15.061,31.453,25.845,5.07,8.315,7.575
1494,0.724,36.981,15.104,31.492,25.859,5.194,8.52,7.658
1495,0.741,37.088,15.112,31.501,25.873,5.276,8.644,7.781
1496,0.744,37.107,15.136,31.472,25.863,5.194,8.479,7.617
1497,0.761,36.942,15.152,31.472,25.863,5.276,8.644,7.617
1498,0.751,37.068,15.152,31.482,25.866,5.153,8.602,7.617
1499,0.747,37.146,15.081,31.463,25.863,5.03,8.52,7.575
1500,0.751,37.184,15.065,31.472,25.859,5.194,8.561,7.658
1501,0.751,36.971,15.112,31.482,25.866,5.194,8.684,7.781
1502,0.757,37.088,15.14,31.472,25.863,5.235,8.602,7.74
1503,0.764,37.175,15.049,31.463,25.859,5.07,8.52,7.74
1504,0.761,36.942,15.057,31.463,25.856,4.988,8.52,7.822
1505,0.761,36.952,15.112,31.472,25.863,5.153,8.602,7.904
1506,0.761,37.097,15.144,31.511,25.873,5.317,8.602,7.986
1507,0.744,37.155,15.159,31.453,25.863,5.07,8.438,7.904
1508,0.741,36.874,15.152,31.472,25.863,5.112,8.438,7.863
1509,0.734,36.991,15.096,31.482,25.866,5.153,8.438,7.986
1510,0.734,37.117,15.1,31.453,25.859,5.112,8.397,7.945
1511,0.747,37.204,15.132,31.443,25.866,5.194,8.356,8.027
1512,0.754,36.845,15.136,31.472,25.866,5.153,8.315,8.109
1513,0.764,37.01,14.982,31.492,25.859,5.194,8.274,8.109
1514,0.751,37.107,15.065,31.453,25.852,5.112,8.192,8.15
1515,0.754,37.146,15.104,31.472,25.859,5.112,8.233,8.15
1516,0.767,37.0,15.159,31.472,25.863,5.194,8.15,8.233
1517,0.787,37.175,15.163,31.521,25.87,5.317,8.274,8.274
1518,0.767,37.233,15.12,31.453,25.859,5.07,8.069,8.192
1519,0.757,37.291,15.069,31.463,25.859,5.07,7.986,8.192
1520,0.77,36.826,15.085,31.472,25.866,5.194,8.069,8.315
1521,0.754,36.942,15.152,31.463,25.863,5.194,8.027,8.315
1522,0.767,37.049,15.088,31.482,25.859,5.112,7.863,8.233
1523,0.784,37.097,15.096,31.472,25.87,5.194,7.945,8.274
1524,0.777,37.02,15.096,31.463,25.859,5.112,7.945,8.233
1525,0.777,37.136,15.108,31.453,25.859,5.03,7.822,8.274
1526,0.751,37.223,15.132,31.453,25.863,5.153,7.863,8.356
1527,0.761,37.262,15.088,31.482,25.87,5.235,7.986,8.397
1528,0.777,36.904,15.092,31.501,25.866,5.194,7.945,8.438
1529,0.764,37.0,15.065,31.472,25.852,5.07,7.822,8.397
1530,0.747,37.107,15.092,31.434,25.852,5.03,7.822,8.397
1531,0.744,36.874,15.175,31.453,25.866,5.194,7.945,8.52
1532,0.751,36.962,15.057,31.492,25.87,5.317,8.069,8.602
1533,0.738,37.097,15.096,31.482,25.856,5.194,7.986,8.479
1534,0.751,37.204,15.112,31.482,25.866,5.153,8.069,8.602
1535,0.761,36.826,15.163,31.472,25.863,5.235,7.945,8.602
1536,0.747,36.962,15.108,31.434,25.856,5.112,7.945,8.52
1537,0.761,37.078,15.081,31.443,25.866,5.153,8.109,8.602
1538,0.77,37.184,15.041,31.472,25.87,5.235,8.069,8.684
1539,0.767,36.942,15.061,31.472,25.859,5.153,8.069,8.602
1540,0.764,37.049,15.085,31.443,25.859,5.07,8.027,8.602
1541,0.757,37.146,15.14,31.443,25.852,5.153,7.986,8.644
1542,0.767,37.262,15.104,31.463,25.87,5.194,8.109,8.684
1543,0.764,36.768,15.1,31.501,25.873,5.317,8.192,8.684
1544,0.757,36.874,15.128,31.434,25.859,5.153,8.027,8.479
1545,0.747,36.991,15.175,31.463,25.849,4.988,7.986,8.479
1546,0.738,37.02,15.116,31.463,25.866,5.235,7.986,8.561
1547,0.718,36.884,15.025,31.453,25.859,5.112,8.027,8.561
1548,0.738,37.02,14.97,31.472,25.859,5.153,7.945,8.438
1549,0.738,37.136,15.065,31.472,25.87,5.235,8.027,8.438
1550,0.734,37.117,15.152,31.453,25.863,5.153,7.945,8.397
1551,0.747,36.807,15.112,31.434,25.859,5.07,7.822,8.315
1552,0.738,36.952,15.108,31.453,25.863,5.194,7.822,8.356
1553,0.744,37.068,15.12,31.463,25.87,5.153,7.945,8.315
1554,0.751,36.913,15.148,31.453,25.863,5.153,7.822,8.315
1555,0.741,36.845,15.155,31.434,25.859,5.07,7.822,8.109
1556,0.747,36.971,15.088,31.424,25.852,5.03,7.781,8.109
1557,0.784,37.097,15.057,31.482,25.866,5.153,7.945,8.109
1558,0.79,36.71,15.092,31.472,25.873,5.317,7.945,8.233
1559,0.774,36.787,15.085,31.453,25.859,5.153,7.781,8.027
1560,0.774,36.904,15.14,31.434,25.863,5.112,7.781,7.863
1561,0.774,37.01,15.116,31.463,25.866,5.153,7.863,7.945
1562,0.787,36.836,15.088,31.443,25.859,5.112,7.863,7.986
1563,0.787,36.971,15.132,31.443,25.863,5.03,7.699,7.822
1564,0.807,37.107,15.144,31.472,25.866,5.235,7.781,7.863
1565,0.803,37.165,15.128,31.434,25.866,5.194,7.822,7.822
1566,0.79,36.594,15.045,31.424,25.859,5.07,7.699,7.658
1567,0.774,36.739,15.092,31.443,25.863,5.07,7.822,7.74
1568,0.761,36.874,15.108,31.443,25.866,5.153,7.822,7.74
1569,0.784,36.942,15.12,31.482,25.873,5.235,7.986,7.699
1570,0.79,36.623,15.179,31.424,25.863,5.07,7.699,7.617
1571,0.803,36.768,15.049,31.443,25.856,4.947,7.781,7.494
1572,0.77,36.904,15.104,31.443,25.863,5.112,7.822,7.534
1573,0.757,36.894,15.128,31.443,25.863,5.112,7.863,7.617
1574,0.731,36.71,15.159,31.443,25.859,5.07,7.822,7.617
1575,0.747,36.845,15.088,31.463,25.873,5.153,7.822,7.658
1576,0.751,36.933,15.037,31.453,25.859,5.112,7.822,7.658
1577,0.741,37.136,15.085,31.424,25.856,5.03,7.617,7.699
1578,0.738,36.681,15.088,31.434,25.859,5.112,7.781,7.863
1579,0.754,36.845,15.104,31.453,25.866,5.194,7.781,7.986
1580,0.751,36.952,15.163,31.472,25.873,5.112,7.699,8.109
1581,0.741,36.535,15.116,31.482,25.856,5.03,7.699,8.109
1582,0.754,36.565,15.057,31.424,25.852,4.988,7.617,8.15
1583,0.751,36.72,15.136,31.434,25.863,5.07,7.74,8.274
1584,0.741,36.807,15.128,31.453,25.87,5.153,7.822,8.356
1585,0.741,36.487,15.029,31.434,25.859,5.07,7.658,8.356
1586,0.741,36.642,15.073,31.453,25.866,5.112,7.699,8.397
1587,0.731,36.749,15.077,31.434,25.859,5.07,7.74,8.397
1588,0.721,36.797,15.1,31.424,25.856,5.03,7.617,8.356
1589,0.718,36.477,15.128,31.424,25.863,5.07,7.699,8.438
1590,0.744,36.642,15.199,31.443,25.87,5.07,7.74,8.438
1591,0.764,36.787,15.12,31.443,25.863,5.07,7.699,8.356
1592,0.734,36.797,15.085,31.414,25.859,5.03,7.658,8.315
1593,0.734,36.526,15.144,31.404,25.856,4.988,7.617,8.356
1594,0.754,36.7,15.112,31.443,25.866,5.153,7.699,8.438
1595,0.774,36.855,15.057,31.463,25.873,5.194,7.822,8.52
1596,0.77,36.865,15.065,31.414,25.859,5.03,7.617,8.356
1597,0.767,36.4,15.096,31.443,25.859,5.07,7.617,8.397
1598,0.774,36.545,15.12,31.434,25.866,5.07,7.658,8.397
1599,0.757,36.642,15.136,31.414,25.852,5.03,7.575,8.397
1600,0.774,36.661,15.136,31.434,25.859,5.03,7.617,8.356
1601,0.767,36.439,15.092,31.434,25.873,5.07,7.658,8.397
1602,0.751,36.555,15.088,31.424,25.87,5.07,7.658,8.397
1603,0.747,36.613,15.144,31.404,25.863,4.947,7.575,8.274
1604,0.741,36.497,15.081,31.395,25.859,4.988,7.534,8.315
1605,0.757,36.477,15.081,31.463,25.859,5.07,7.617,8.479
1606,0.767,36.642,15.104,31.472,25.873,5.194,7.74,8.479
1607,0.741,36.681,15.096,31.424,25.863,5.03,7.494,8.274
1608,0.741,36.342,15.159,31.414,25.859,4.988,7.452,8.274
1609,0.724,36.448,15.179,31.434,25.863,5.03,7.617,8.356
1610,0.731,36.565,15.112,31.404,25.863,5.03,7.575,8.438
1611,0.738,36.652,15.096,31.434,25.859,5.03,7.534,8.315
1612,0.741,36.342,15.12,31.424,25.866,5.03,7.617,8.356
1613,0.741,36.448,15.14,31.453,25.87,5.07,7.575,8.274
1614,0.731,36.565,15.081,31.404,25.852,4.947,7.494,8.233
1615,0.741,36.623,15.065,31.434,25.859,5.07,7.575,8.356
1616,0.754,36.235,15.112,31.424,25.866,5.153,7.617,8.397
1617,0.774,36.429,15.132,31.463,25.87,5.153,7.658,8.274
1618,0.764,36.497,15.128,31.424,25.856,5.03,7.575,8.192
1619,0.767,36.545,15.183,31.395,25.852,4.906,7.494,8.15
1620,0.78,36.332,15.096,31.434,25.866,5.03,7.617,8.233
1621,0.767,36.477,15.12,31.443,25.866,5.112,7.658,8.274
1622,0.754,36.574,15.144,31.414,25.863,4.988,7.575,8.15
1623,0.761,36.623,15.124,31.443,25.866,5.07,7.699,8.192
1624,0.751,36.274,15.065,31.434,25.866,5.112,7.699,8.027
1625,0.741,36.371,15.073,31.404,25.856,5.03,7.575,7.986
1626,0.754,36.487,15.108,31.424,25.863,5.07,7.617,8.027
1627,0.744,36.826,15.132,31.424,25.866,5.112,7.74,8.109
1628,0.751,36.322,15.187,31.443,25.863,5.03,7.617,7.945
1629,0.747,36.419,15.108,31.414,25.859,4.947,7.575,7.904
1630,0.754,36.516,15.1,31.424,25.852,4.988,7.658,7.822
1631,0.777,36.226,15.088,31.434,25.866,5.112,7.781,7.904
1632,0.803,36.303,15.163,31.453,25.866,5.235,7.863,8.027
1633,0.803,36.41,15.1,31.424,25.859,5.03,7.699,7.74
1634,0.813,36.516,15.112,31.424,25.859,5.07,7.781,7.822
1635,0.81,35.974,15.112,31.414,25.863,5.07,7.74,7.781
1636,0.807,36.08,15.128,31.395,25.859,5.03,7.699,7.781
1637,0.82,36.206,15.155,31.434,25.859,5.07,7.699,7.699
1638,0.813,36.284,15.148,31.424,25.863,5.07,7.781,7.822
1639,0.813,36.09,15.088,31.414,25.87,5.03,7.781,7.699
1640,0.813,36.226,15.073,31.414,25.859,5.03,7.74,7.658
1641,0.813,36.332,15.092,31.404,25.856,4.988,7.781,7.658
1642,0.813,36.419,15.12,31.424,25.866,5.07,7.822,7.74
1643,0.826,36.129,15.061,31.443,25.87,5.153,7.904,7.822
1644,0.813,36.255,15.073,31.414,25.859,4.988,7.781,7.699
1645,0.816,36.381,15.116,31.414,25.859,4.988,7.74,7.617
1646,0.836,36.4,15.175,31.414,25.866,5.03,7.863,7.781
1647,0.816,36.119,15.152,31.404,25.863,5.112,7.781,7.699
1648,0.849,36.245,15.159,31.424,25.859,5.03,7.781,7.74
1649,0.859,36.371,15.065,31.434,25.87,5.03,7.904,7.822
1650,0.859,36.39,15.069,31.424,25.859,5.03,7.863,7.781
1651,0.869,36.119,15.104,31.395,25.859,4.906,7.822,7.74
1652,0.879,36.245,15.132,31.424,25.863,4.988,7.822,7.822
1653,0.889,36.361,15.096,31.453,25.866,5.112,7.863,7.945
1654,0.908,36.187,15.092,31.424,25.866,5.03,7.822,7.945
1655,0.869,36.003,15.144,31.404,25.856,4.988,7.781,7.945
1656,0.872,36.138,15.163,31.404,25.852,4.947,7.74,8.069
1657,0.882,36.235,15.155,31.434,25.863,5.112,7.74,8.192
1658,0.892,36.226,15.116,31.463,25.873,5.153,7.945,8.397
1659,0.869,36.332,15.01,31.424,25.866,4.988,7.74,8.315
1660,0.882,36.458,15.057,31.434,25.859,4.988,7.74,8.397
1661,0.872,36.555,15.132,31.424,25.863,5.03,7.781,8.438
1662,0.862,35.896,15.069,31.424,25.859,4.988,7.658,8.52
1663,0.882,36.042,15.096,31.424,25.863,5.03,7.74,8.561
1664,0.889,36.148,15.104,31.443,25.866,5.07,7.863,8.644
1665,0.885,36.216,15.136,31.424,25.856,4.988,7.699,8.644
1666,0.876,35.877,15.144,31.395,25.856,4.988,7.699,8.52
1667,0.882,36.012,15.1,31.404,25.863,5.03,7.781,8.644
1668,0.889,36.158,15.088,31.434,25.87,5.03,7.863,8.684
1669,0.902,36.235,15.096,31.463,25.87,5.112,7.904,8.726
1670,0.885,36.012,15.1,31.385,25.852,4.906,7.863,8.602
1671,0.879,36.148,15.14,31.395,25.859,4.865,7.863,8.479
1672,0.859,36.255,15.073,31.414,25.863,4.988,8.027,8.602
1673,0.862,36.303,15.077,31.424,25.866,4.988,8.109,8.602
1674,0.859,35.896,15.116,31.385,25.863,4.906,8.109,8.561
1675,0.853,36.022,15.159,31.424,25.87,5.112,8.15,8.52
1676,0.846,36.148,15.128,31.424,25.859,4.947,8.192,8.479
1677,0.839,36.342,15.081,31.375,25.852,4.906,8.109,8.356
1678,0.839,36.051,15.053,31.395,25.863,5.07,8.233,8.397
1679,0.853,36.196,15.085,31.424,25.866,4.988,8.274,8.438
1680,0.859,36.322,15.092,31.453,25.873,5.03,8.315,8.356
1681,0.833,35.935,15.159,31.395,25.863,4.988,8.274,8.233
1682,0.833,35.945,14.97,31.385,25.849,4.865,8.15,8.15
1683,0.853,36.09,15.1,31.395,25.866,5.07,8.274,8.15
1684,0.846,36.177,15.128,31.395,25.866,4.988,8.315,8.233
1685,0.846,35.857,15.159,31.395,25.859,5.03,8.274,8.109
1686,0.843,36.012,15.112,31.404,25.87,5.112,8.356,8.069
1687,0.823,36.129,15.057,31.395,25.863,4.988,8.233,8.027
1688,0.8,36.177,15.1,31.385,25.863,4.906,8.109,7.945
1689,0.81,35.819,15.073,31.404,25.859,4.988,8.15,7.986
1690,0.807,35.964,15.14,31.414,25.863,5.07,8.233,7.986
1691,0.813,36.119,15.155,31.404,25.866,5.03,8.192,7.945
1692,0.807,36.138,15.12,31.395,25.859,4.947,8.027,7.822
1693,0.797,35.916,15.085,31.366,25.856,4.906,7.904,7.699
1694,0.787,36.08,15.179,31.404,25.866,5.03,8.109,7.863
1695,0.807,36.187,15.144,31.424,25.877,5.112,8.192,7.822
1696,0.807,36.216,15.081,31.404,25.859,4.988,7.986,7.617
1697,0.81,35.838,15.081,31.414,25.866,5.07,7.986,7.658
1698,0.797,35.974,15.077,31.395,25.859,5.07,7.986,7.658
1699,0.761,36.071,15.065,31.385,25.852,4.988,7.863,7.617
1700,0.77,36.109,15.128,31.404,25.859,5.03,7.822,7.699
1701,0.79,35.896,15.128,31.414,25.866,5.07,7.945,7.822
1702,0.813,36.042,15.1,31.404,25.863,4.988,7.945,7.699
1703,0.79,36.119,15.116,31.375,25.852,4.988,7.904,7.658
1704,0.8,36.032,15.132,31.356,25.859,4.906,7.863,7.781
1705,0.784,35.887,15.132,31.395,25.866,5.07,7.945,8.027
1706,0.787,36.051,15.049,31.424,25.873,5.153,8.027,8.15
1707,0.764,36.1,15.085,31.434,25.856,4.947,7.945,8.027
1708,0.777,35.741,15.1,31.395,25.856,4.988,7.781,8.109
1709,0.767,35.857,15.112,31.404,25.866,5.03,7.863,8.274
1710,0.767,35.974,15.171,31.395,25.866,5.07,7.945,8.315
1711,0.777,36.061,15.085,31.385,25.863,5.03,7.863,8.356
1712,0.784,35.848,15.124,31.404,25.863,5.07,7.986,8.52
1713,0.764,35.964,15.128,31.385,25.863,4.988,7.986,8.52
1714,0.751,36.061,15.171,31.385,25.859,4.947,7.945,8.397
1715,0.757,36.148,15.092,31.404,25.863,4.988,8.027,8.52
1716,0.761,35.741,15.049,31.414,25.87,5.07,8.109,8.602
1717,0.774,35.896,15.081,31.404,25.863,5.112,8.109,8.52
1718,0.754,35.974,15.1,31.385,25.852,4.988,8.027,8.479
1719,0.741,36.003,15.069,31.375,25.849,4.906,8.069,8.438
1720,0.747,35.848,15.155,31.414,25.866,5.07,8.192,8.52
1721,0.751,36.012,15.065,31.434,25.877,5.194,8.274,8.602
1722,0.741,36.09,15.092,31.385,25.866,4.988,8.109,8.356
1723,0.738,36.138,15.152,31.385,25.856,5.03,8.15,8.356
1724,0.734,35.761,15.132,31.366,25.863,5.03,8.274,8.479
1725,0.724,35.877,15.037,31.375,25.856,4.988,8.192,8.438
1726,0.724,36.012,15.073,31.385,25.866,5.03,8.233,8.52
1727,0.718,36.051,15.1,31.404,25.863,5.153,8.233,8.644
1728,0.715,35.857,15.112,31.385,25.866,5.112,8.15,8.726
1729,0.695,35.974,15.132,31.375,25.852,4.988,8.15,8.644
1730,0.695,36.061,15.14,31.366,25.856,4.988,8.192,8.726
1731,0.698,35.838,15.116,31.385,25.863,5.07,8.274,8.972
1732,0.715,35.857,15.108,31.424,25.877,5.153,8.397,9.013
1733,0.705,35.945,15.136,31.375,25.856,5.03,8.192,8.972
1734,0.715,36.051,15.116,31.375,25.859,5.03,8.15,9.054
1735,0.721,35.741,14.986,31.404,25.859,5.07,8.15,9.095
1736,0.708,35.867,15.085,31.385,25.856,5.03,8.109,9.177
1737,0.721,35.983,15.1,31.385,25.859,5.03,8.192,9.095
1738,0.731,36.071,15.116,31.385,25.873,5.153,8.233,9.218
1739,0.731,35.702,15.144,31.375,25.87,5.07,8.274,9.095
1740,0.724,35.848,15.081,31.385,25.856,4.988,8.192,9.095
1741,0.711,35.974,15.081,31.356,25.859,5.03,8.233,9.177
1742,0.728,36.08,15.112,31.375,25.87,5.03,8.356,9.177
1743,0.734,35.712,15.148,31.404,25.877,5.194,8.397,9.218
1744,0.715,35.828,15.033,31.366,25.859,4.947,8.315,9.013
1745,0.708,35.945,15.1,31.375,25.852,4.988,8.356,8.972
1746,0.728,35.993,15.096,31.395,25.866,5.03,8.438,9.095
1747,0.721,35.722,15.144,31.366,25.859,5.07,8.438,8.972
1748,0.721,35.877,15.163,31.366,25.866,5.03,8.356,8.972
1749,0.728,35.983,15.167,31.385,25.866,5.112,8.438,9.013
1750,0.724,36.032,15.077,31.375,25.859,5.07,8.438,8.972
1751,0.721,35.819,15.085,31.346,25.856,4.988,8.438,8.808
1752,0.721,35.964,15.148,31.356,25.863,5.03,8.438,8.89
1753,0.738,36.071,15.128,31.375,25.87,5.112,8.561,8.931
1754,0.734,36.071,15.096,31.404,25.863,5.03,8.52,8.808
1755,0.718,35.741,15.057,31.356,25.852,4.988,8.52,8.767
1756,0.718,35.857,15.104,31.337,25.845,4.947,8.397,8.602
1757,0.738,35.993,15.128,31.366,25.863,5.194,8.561,8.726
1758,0.744,35.77,15.183,31.375,25.87,5.07,8.602,8.808
1759,0.741,35.848,15.152,31.356,25.863,4.988,8.52,8.602
1760,0.734,35.993,15.037,31.385,25.866,5.07,8.438,8.52
1761,0.747,36.071,15.069,31.375,25.863,5.07,8.561,8.644
1762,0.741,35.606,15.152,31.356,25.859,5.03,8.438,8.602
1763,0.731,35.761,15.073,31.366,25.863,5.07,8.438,8.52
1764,0.741,35.887,15.1,31.395,25.866,5.03,8.479,8.561
1765,0.711,35.974,15.096,31.375,25.866,4.988,8.438,8.52
1766,0.701,35.606,15.104,31.346,25.856,4.988,8.274,8.438
1767,0.695,35.741,15.155,31.356,25.863,5.03,8.315,8.438
1768,0.711,35.896,15.187,31.385,25.866,5.112,8.397,8.52
1769,0.708,35.974,15.167,31.404,25.873,5.153,8.315,8.438
1770,0.688,35.712,15.116,31.424,25.859,4.988,8.15,8.356
1771,0.685,35.867,15.096,31.327,25.856,4.947,8.109,8.192
1772,0.695,35.974,15.132,31.366,25.859,5.07,8.192,8.438
1773,0.705,36.032,15.124,31.375,25.87,5.194,8.233,8.438
1774,0.724,35.761,15.081,31.366,25.856,5.03,8.027,8.274
1775,0.754,35.925,15.1,31.366,25.863,5.07,8.069,8.274
1776,0.777,36.012,15.132,31.356,25.866,5.03,8.069,8.356
1777,0.833,36.012,15.14,31.356,25.856,4.947,7.945,8.233
1778,0.879,35.635,15.155,31.366,25.866,5.07,7.863,8.15
1779,0.905,35.78,15.116,31.385,25.863,5.07,7.986,8.15
1780,0.948,35.906,15.104,31.375,25.852,5.03,7.945,8.109
1781,0.971,35.741,15.073,31.356,25.859,4.947,7.74,7.945
1782,1.004,35.702,15.128,31.327,25.849,4.906,7.74,7.945
1783,1.063,35.857,15.061,31.375,25.866,5.03,7.863,8.027
1784,1.122,35.983,15.096,31.385,25.877,5.153,7.904,8.069
1785,1.168,35.635,15.092,31.327,25.863,5.03,7.699,7.863
1786,1.25,35.77,15.12,31.346,25.863,5.03,7.699,7.863
1787,1.313,35.867,15.179,31.356,25.863,5.03,7.781,7.945
1788,1.368,35.945,15.155,31.346,25.859,4.988,7.781,7.822
1789,1.451,35.654,15.112,31.366,25.859,5.03,7.822,7.822
1790,1.51,35.828,15.096,31.366,25.87,5.07,7.945,7.822
1791,1.546,35.945,15.1,31.346,25.863,4.988,7.945,7.781
1792,1.575,35.993,15.144,31.327,25.856,4.988,7.904,7.617
1793,1.595,35.596,15.037,31.327,25.852,4.988,8.027,7.658
1794,1.608,35.78,15.096,31.356,25.863,5.07,8.109,7.699
1795,1.612,35.935,15.116,31.385,25.873,5.194,8.192,7.781
1796,1.589,35.954,15.136,31.337,25.859,4.947,8.069,7.658
1797,1.608,35.654,15.144,31.346,25.856,4.988,7.986,7.617
1798,1.615,35.809,15.167,31.337,25.863,5.03,8.069,7.822
1799,1.605,35.906,15.085,31.346,25.863,4.988,8.109,7.822
1800,1.575,35.935,15.092,31.366,25.859,4.988,8.069,7.781
1801,1.562,35.673,15.1,31.366,25.866,5.07,8.192,7.904
1802,1.539,35.799,15.144,31.366,25.859,4.988,8.027,8.027
1803,1.49,35.887,15.077,31.327,25.856,5.03,8.027,7.945
1804,1.408,36.022,15.081,31.356,25.859,5.03,8.109,8.109
1805,1.359,35.625,15.128,31.356,25.87,5.112,8.109,8.315
1806,1.263,35.79,15.167,31.385,25.87,5.112,8.069,8.438
1807,1.129,35.828,15.175,31.337,25.859,5.03,7.945,8.397
1808,1.063,35.644,15.155,31.317,25.852,4.947,7.945,8.397
1809,1.02,35.761,15.065,31.346,25.866,5.03,8.109,8.644
1810,0.964,35.896,15.092,31.356,25.863,5.112,8.109,8.808
1811,0.948,35.974,15.088,31.337,25.856,5.07,8.069,8.89
1812,0.922,35.906,15.136,31.356,25.87,5.07,8.069,9.259
1813,0.915,36.051,15.081,31.346,25.866,5.07,8.027,9.506
1814,0.931,36.148,15.108,31.337,25.849,5.03,7.986,9.876
1815,0.941,36.245,15.12,31.346,25.859,5.07,8.027,10.327
1816,0.945,35.47,15.171,31.346,25.866,5.194,8.069,10.615
1817,0.922,35.615,15.159,31.346,25.859,5.03,8.027,10.82
1818,0.885,35.722,15.104,31.327,25.856,5.03,7.945,11.066
1819,0.856,35.78,15.037,31.317,25.849,4.988,7.945,11.231
1820,0.83,35.635,15.085,31.356,25.863,5.153,8.027,11.518
1821,0.79,35.819,15.144,31.366,25.87,5.194,8.069,11.806
1822,0.767,35.867,15.12,31.317,25.856,5.07,7.945,11.683
1823,0.767,35.945,15.132,31.346,25.866,5.07,7.945,11.806
1824,0.77,35.567,15.085,31.327,25.859,5.153,7.986,11.847
1825,0.77,35.702,15.144,31.337,25.859,4.906,7.945,11.806
1826,0.757,35.799,15.144,31.327,25.866,5.07,7.822,11.888
1827,0.747,35.838,15.159,31.346,25.863,5.153,7.945,12.011
1828,0.764,35.625,15.088,31.327,25.859,5.112,7.904,11.888
1829,0.767,35.741,14.99,31.327,25.859,5.03,7.822,12.011
1830,0.764,35.857,15.069,31.317,25.849,5.03,7.822,12.011
1831,0.784,35.644,15.128,31.337,25.863,5.07,7.863,12.257
1832,0.78,35.557,15.108,31.366,25.873,5.235,8.027,12.422
1833,0.764,35.664,15.088,31.337,25.859,5.03,7.74,12.504
1834,0.777,35.78,15.104,31.337,25.863,5.03,7.781,12.586
1835,0.77,35.625,15.12,31.327,25.87,5.153,7.74,12.709
1836,0.761,35.732,15.144,31.317,25.859,5.03,7.74,12.791
1837,0.761,35.867,15.116,31.337,25.866,5.153,7.699,12.915
1838,0.774,35.954,15.096,31.337,25.863,5.194,7.74,12.956
1839,0.77,35.431,15.116,31.337,25.866,5.03,7.658,12.873
1840,0.767,35.567,15.061,31.317,25.859,4.988,7.617,12.791
1841,0.774,35.683,15.136,31.308,25.849,5.07,7.699,12.791
1842,0.774,35.78,15.065,31.346,25.87,5.153,7.781,12.75
1843,0.78,35.489,15.12,31.366,25.87,5.194,7.863,12.709
1844,0.774,35.596,15.116,31.308,25.859,5.07,7.699,12.545
1845,0.761,35.702,15.148,31.308,25.856,5.03,7.658,12.298
1846,0.754,35.78,15.108,31.346,25.863,5.07,7.822,12.339
1847,0.741,35.509,15.053,31.327,25.863,5.153,7.863,12.175
1848,0.741,35.644,15.029,31.317,25.866,5.03,7.781,11.97
1849,0.757,35.78,15.096,31.346,25.866,5.112,7.863,11.929
1850,0.751,35.809,15.104,31.317,25.866,5.07,7.863,11.683
1851,0.754,35.615,15.144,31.308,25.856,4.988,7.781,11.518
1852,0.77,35.79,15.155,31.327,25.866,5.07,7.945,11.436
1853,0.767,35.916,15.116,31.317,25.866,5.153,7.945,11.395
1854,0.767,36.206,15.144,31.337,25.856,5.07,7.822,11.149
1855,0.764,35.509,15.136,31.298,25.859,5.112,7.74,10.984
1856,0.751,35.644,15.104,31.288,25.856,4.988,7.74,10.902
1857,0.767,35.78,15.061,31.337,25.866,5.112,7.863,10.902
1858,0.767,35.586,15.077,31.356,25.88,5.235,7.945,10.779
1859,0.757,35.606,15.096,31.308,25.859,5.03,7.699,10.491
1860,0.751,35.722,15.124,31.288,25.852,4.988,7.74,10.327
1861,0.751,35.809,15.159,31.317,25.863,5.153,7.822,10.286
1862,0.761,35.422,15.112,31.327,25.866,5.153,7.822,10.204
1863,0.767,35.557,15.104,31.288,25.859,4.988,7.74,10.04
1864,0.777,35.683,15.128,31.327,25.866,5.112,7.781,9.957
1865,0.774,35.751,15.152,31.298,25.866,5.112,7.699,9.834
1866,0.764,35.431,15.041,31.288,25.852,5.03,7.658,9.711
1867,0.764,35.606,15.037,31.317,25.863,5.07,7.699,9.629
1868,0.774,35.741,15.092,31.366,25.87,5.112,7.781,9.629
1869,0.77,35.838,15.081,31.327,25.856,5.07,7.781,9.424
1870,0.747,35.422,15.116,31.279,25.852,5.03,7.575,9.259
1871,0.734,35.548,15.12,31.269,25.856,4.988,7.617,9.218
1872,0.764,35.693,15.124,31.317,25.866,5.153,7.699,9.218
1873,0.78,35.761,15.085,31.346,25.873,5.153,7.781,9.259
1874,0.761,35.518,15.132,31.298,25.863,5.03,7.575,9.095
1875,0.787,35.664,15.136,31.308,25.856,5.112,7.617,9.095
1876,0.78,35.77,15.092,31.308,25.863,5.07,7.658,9.054
1877,0.774,35.79,14.986,31.298,25.863,5.07,7.575,8.931
1878,0.777,35.441,15.053,31.298,25.863,5.03,7.575,8.808
1879,0.774,35.615,15.069,31.308,25.87,5.112,7.534,8.849
1880,0.767,35.683,15.124,31.317,25.859,5.112,7.534,8.726
1881,0.77,35.586,15.096,31.298,25.859,4.988,7.452,8.726
1882,0.757,35.499,15.096,31.308,25.859,5.112,7.494,8.561
1883,0.744,35.644,15.116,31.327,25.866,5.112,7.494,8.684
1884,0.761,35.78,15.171,31.327,25.87,5.276,7.617,8.684
1885,0.747,35.489,15.132,31.308,25.859,5.07,7.534,8.438
1886,0.747,35.606,15.033,31.308,25.856,5.03,7.411,8.397
1887,0.747,35.741,15.061,31.375,25.866,5.112,7.534,8.479
1888,0.734,35.819,15.065,31.308,25.863,5.112,7.494,8.397
1889,0.721,35.354,15.096,31.308,25.863,5.03,7.411,8.274
1890,0.728,35.499,15.116,31.317,25.866,5.112,7.534,8.315
1891,0.728,35.615,15.065,31.298,25.863,5.07,7.494,8.315
1892,0.734,35.702,15.085,31.288,25.856,4.988,7.494,8.315
1893,0.731,35.393,15.096,31.298,25.866,5.07,7.575,8.356
1894,0.734,35.567,15.136,31.317,25.866,5.07,7.617,8.479
1895,0.757,35.702,15.081,31.346,25.866,5.112,7.575,8.479
1896,0.761,35.702,15.045,31.298,25.856,5.07,7.534,8.438
1897,0.767,35.334,15.085,31.269,25.849,4.906,7.452,8.438
1898,0.777,35.48,15.096,31.308,25.859,5.194,7.617,8.684
1899,0.797,35.625,15.128,31.327,25.87,5.194,7.658,8.726
1900,0.79,35.644,15.159,31.298,25.859,5.03,7.494,8.726
1901,0.793,35.305,15.037,31.308,25.863,5.153,7.534,8.684
1902,0.797,35.441,15.096,31.298,25.866,5.194,7.575,8.767
1903,0.787,35.528,15.128,31.288,25.859,5.07,7.494,8.684
1904,0.807,35.751,15.144,31.298,25.863,5.153,7.494,8.767
1905,0.803,35.393,15.081,31.308,25.866,5.153,7.534,8.849
1906,0.803,35.548,15.104,31.298,25.863,5.112,7.534,8.767
1907,0.78,35.606,15.096,31.269,25.859,5.03,7.452,8.726
1908,0.784,35.422,15.108,31.288,25.859,5.153,7.452,8.767
1909,0.784,35.48,15.144,31.279,25.866,5.153,7.494,8.849
1910,0.797,35.635,15.175,31.327,25.877,5.194,7.617,8.808
1911,0.767,35.683,15.136,31.269,25.859,5.07,7.411,8.644
1912,0.777,35.305,15.088,31.25,25.852,5.07,7.288,8.684
1913,0.767,35.451,15.167,31.269,25.859,5.235,7.452,8.767
1914,0.77,35.586,15.128,31.298,25.87,5.235,7.575,8.849
1915,0.78,35.673,15.053,31.279,25.863,5.153,7.452,8.644
1916,0.777,35.296,15.108,31.298,25.863,5.194,7.534,8.726
1917,0.777,35.422,15.1,31.279,25.863,5.194,7.534,8.726
1918,0.774,35.528,15.148,31.259,25.852,5.112,7.452,8.726
1919,0.774,35.615,15.167,31.279,25.863,5.153,7.452,8.684
1920,0.793,35.286,15.159,31.279,25.863,5.194,7.534,8.684
1921,0.797,35.441,15.112,31.279,25.859,5.235,7.494,8.684
1922,0.797,35.538,15.112,31.279,25.856,5.153,7.534,8.602
1923,0.78,35.577,15.136,31.25,25.852,5.153,7.411,8.602
1924,0.797,35.344,15.085,31.259,25.866,5.235,7.575,8.644
1925,0.793,35.528,15.077,31.308,25.873,5.358,7.658,8.767
1926,0.79,35.596,15.073,31.269,25.852,5.112,7.411,8.52
1927,0.803,35.625,15.116,31.269,25.859,5.153,7.452,8.397
1928,0.807,35.364,15.163,31.279,25.859,5.235,7.534,8.479
1929,0.797,35.489,15.167,31.269,25.856,5.194,7.494,8.438
1930,0.787,35.596,15.116,31.288,25.859,5.194,7.575,8.356
1931,0.784,35.509,15.1,31.269,25.873,5.235,7.617,8.356
1932,0.78,35.238,15.1,31.269,25.859,5.235,7.617,8.356
1933,0.784,35.344,15.14,31.24,25.859,5.153,7.534,8.15
1934,0.78,35.451,15.049,31.269,25.863,5.194,7.534,8.274
1935,0.79,35.218,15.104,31.279,25.863,5.194,7.617,8.233
1936,0.793,35.354,15.096,31.298,25.866,5.317,7.74,8.192
1937,0.777,35.422,15.124,31.269,25.866,5.153,7.575,8.109
1938,0.767,35.509,15.12,31.259,25.852,5.03,7.494,7.945
1939,0.787,35.199,15.152,31.279,25.859,5.276,7.617,8.027
1940,0.803,35.315,15.096,31.288,25.866,5.276,7.699,8.027
1941,0.807,35.46,15.081,31.269,25.863,5.153,7.534,7.863
1942,0.81,35.538,15.148,31.288,25.863,5.235,7.534,7.945
1943,0.81,35.141,15.1,31.269,25.859,5.235,7.575,7.863
1944,0.816,35.286,15.025,31.25,25.859,5.194,7.534,7.74
1945,0.816,35.412,15.065,31.269,25.863,5.194,7.534,7.781
1946,0.83,35.499,15.1,31.288,25.866,5.276,7.617,7.822
1947,0.816,35.228,15.132,31.259,25.863,5.235,7.617,7.74
1948,0.803,35.364,15.144,31.25,25.859,5.194,7.534,7.575
1949,0.797,35.441,15.152,31.24,25.852,5.112,7.534,7.534
1950,0.807,35.548,15.073,31.279,25.866,5.276,7.658,7.617
1951,0.82,35.131,15.104,31.308,25.877,5.358,7.74,7.699
1952,0.803,35.199,15.144,31.25,25.859,5.153,7.699,7.494
1953,0.803,35.325,15.12,31.25,25.859,5.112,7.534,7.411
1954,0.807,35.364,15.092,31.279,25.863,5.194,7.699,7.494
1955,0.807,35.267,15.096,31.279,25.866,5.317,7.781,7.452
1956,0.807,35.402,15.088,31.269,25.859,5.153,7.699,7.411
1957,0.82,35.528,15.171,31.269,25.866,5.194,7.781,7.452
1958,0.82,35.121,15.152,31.269,25.863,5.112,7.781,7.411
1959,0.81,35.083,15.096,31.259,25.856,5.153,7.658,7.329
1960,0.82,35.218,15.085,31.259,25.859,5.153,7.822,7.329
1961,0.846,35.325,15.085,31.279,25.87,5.317,7.822,7.37
1962,0.839,35.044,15.152,31.259,25.859,5.235,7.822,7.288
1963,0.816,35.17,15.057,31.24,25.856,5.153,7.617,7.288
1964,0.82,35.296,15.092,31.259,25.852,5.194,7.74,7.288
1965,0.843,35.412,15.088,31.269,25.863,5.317,7.822,7.288
1966,0.876,35.054,15.167,31.269,25.877,5.317,7.904,7.329
1967,0.859,35.16,15.179,31.259,25.859,5.194,7.781,7.288
1968,0.856,35.247,15.132,31.25,25.856,5.112,7.699,7.124
1969,0.859,35.334,15.096,31.269,25.859,5.276,7.904,7.329
1970,0.862,35.054,15.073,31.288,25.873,5.276,7.945,7.452
1971,0.846,35.199,15.065,31.25,25.859,5.235,7.822,7.288
1972,0.846,35.325,15.14,31.269,25.863,5.276,7.781,7.288
1973,0.853,35.383,15.073,31.259,25.856,5.153,7.863,7.37
1974,0.839,35.073,15.085,31.25,25.859,5.235,7.781,7.494
1975,0.846,35.209,15.124,31.269,25.863,5.235,7.74,7.452
1976,0.853,35.344,15.148,31.269,25.866,5.235,7.822,7.617
1977,0.839,35.354,15.183,31.259,25.866,5.317,7.781,7.494
1978,0.839,35.063,15.128,31.24,25.859,5.153,7.699,7.494
1979,0.853,35.17,15.073,31.24,25.856,5.235,7.822,7.658
1980,0.872,35.344,15.065,31.269,25.87,5.235,7.822,7.74
1981,0.882,35.412,15.092,31.288,25.873,5.276,7.904,7.863
1982,0.872,35.131,15.112,31.25,25.856,5.235,7.699,7.781
1983,0.872,35.247,15.014,31.25,25.849,5.07,7.658,7.904
1984,0.866,35.393,15.096,31.25,25.866,5.235,7.781,8.069
1985,0.862,35.083,15.128,31.269,25.863,5.276,7.863,8.356
1986,0.866,35.17,15.167,31.259,25.859,5.235,7.781,8.397
1987,0.872,35.296,15.179,31.259,25.859,5.317,7.781,8.602
1988,0.862,35.364,15.152,31.259,25.863,5.235,7.781,8.644
1989,0.859,35.054,15.061,31.259,25.856,5.153,7.658,8.726
1990,0.862,35.218,15.092,31.24,25.859,5.235,7.699,8.849
1991,0.876,35.354,15.1,31.259,25.866,5.235,7.781,8.972
1992,0.885,35.451,15.136,31.269,25.863,5.317,7.699,8.972
1993,0.885,35.083,15.108,31.308,25.859,5.112,7.699,8.972
1994,0.879,35.238,15.108,31.221,25.856,5.112,7.658,9.095
1995,0.899,35.383,15.132,31.259,25.859,5.276,7.781,9.218
1996,0.918,35.441,15.175,31.269,25.866,5.317,7.904,9.382
1997,0.922,35.17,15.159,31.24,25.856,5.153,7.699,9.218
1998,0.925,35.334,15.132,31.259,25.863,5.235,7.699,9.218
1999,0.912,35.422,15.065,31.25,25.863,5.194,7.781,9.136
2000,0.908,35.47,15.069,31.25,25.859,5.153,7.699,9.136
2001,0.912,35.286,15.112,31.24,25.863,5.235,7.781,9.136
2002,0.915,35.422,15.124,31.269,25.863,5.276,7.863,9.218
2003,0.918,35.548,15.124,31.269,25.859,5.194,7.781,9.177
2004,0.908,35.548,15.096,31.23,25.859,5.153,7.699,9.095
2005,0.905,35.364,15.124,31.24,25.852,5.235,7.699,9.095
2006,0.935,35.518,15.152,31.25,25.863,5.317,7.822,9.136
2007,0.928,35.654,15.152,31.279,25.877,5.358,7.822,9.177
2008,0.915,35.538,15.1,31.24,25.859,5.194,7.658,9.095
2009,0.915,35.577,15.033,31.25,25.856,5.112,7.617,8.931
2010,0.931,35.693,15.085,31.23,25.863,5.235,7.699,9.136
2011,0.931,35.819,15.104,31.269,25.863,5.235,7.822,9.136
2012,0.938,35.557,15.116,31.24,25.863,5.194,7.74,8.931
2013,0.954,35.693,15.1,31.269,25.863,5.358,7.863,9.013
2014,0.958,35.799,15.081,31.25,25.863,5.317,7.781,9.013
2015,0.958,35.848,15.104,31.23,25.852,5.194,7.781,8.972
2016,0.964,35.722,15.128,31.25,25.866,5.194,7.74,8.849
2017,0.984,35.877,15.104,31.25,25.863,5.235,7.822,8.849
2018,0.974,35.983,15.081,31.25,25.863,5.235,7.863,8.89
2019,0.958,36.022,14.982,31.259,25.859,5.112,7.822,8.684
2020,0.961,36.051,15.057,31.24,25.859,5.153,7.863,8.808
2021,0.987,36.216,15.144,31.25,25.866,5.276,7.945,8.808
2022,0.997,36.361,15.092,31.288,25.873,5.358,8.027,8.849
2023,0.994,36.381,15.096,31.24,25.859,5.112,7.863,8.644
2024,0.994,36.313,15.112,31.221,25.856,5.153,7.863,8.479
2025,1.014,36.448,15.14,31.24,25.866,5.235,7.945,8.561
2026,1.014,36.535,15.128,31.24,25.863,5.194,7.945,8.479
2027,1.01,36.603,15.065,31.23,25.859,5.153,7.904,8.397
2028,1.023,36.4,15.041,31.269,25.866,5.235,7.945,8.479
2029,1.037,36.516,15.057,31.25,25.859,5.153,7.863,8.397
2030,1.017,36.603,15.061,31.221,25.852,5.235,7.822,8.233
2031,1.01,36.913,15.152,31.221,25.863,5.194,7.945,8.315
2032,1.027,36.787,15.092,31.269,25.859,5.276,7.945,8.315
2033,1.03,36.942,15.104,31.269,25.87,5.235,7.904,8.15
2034,0.991,36.981,15.128,31.23,25.859,5.194,7.822,8.109
2035,0.977,36.855,15.148,31.211,25.852,5.112,7.781,8.027
2036,0.997,36.981,15.112,31.24,25.863,5.235,7.945,8.109
2037,1.017,37.107,15.088,31.269,25.863,5.358,8.027,8.15
2038,1.043,37.165,15.045,31.23,25.863,5.235,7.863,7.986
2039,1.03,37.059,15.124,31.259,25.863,5.235,7.904,7.945
2040,1.02,37.175,15.104,31.25,25.866,5.317,7.945,7.945
2041,1.02,37.262,15.132,31.221,25.852,5.235,7.863,7.945
2042,1.027,37.378,15.12,31.24,25.87,5.276,7.945,7.863
2043,1.033,37.31,15.092,31.24,25.866,5.317,8.069,7.863
2044,1.037,37.465,15.152,31.23,25.859,5.358,7.945,7.822
2045,1.037,37.553,15.136,31.221,25.852,5.317,7.904,7.699
2046,1.046,37.611,15.085,31.211,25.866,5.276,7.945,7.74
2047,1.043,37.446,15.01,31.25,25.87,5.317,7.863,7.74
2048,1.03,37.562,15.065,31.259,25.873,5.399,7.945,7.617
2049,1.01,37.64,15.065,31.201,25.863,5.235,7.863,7.575
2050,1.004,37.659,15.12,31.201,25.849,5.194,7.781,7.534
2051,1.007,37.766,15.112,31.221,25.866,5.317,7.945,7.617
2052,1.017,37.921,15.096,31.25,25.873,5.44,8.109,7.658
2053,1.02,37.998,15.108,31.211,25.859,5.317,7.904,7.534
2054,1.02,38.017,15.152,31.221,25.863,5.358,7.986,7.575
2055,1.02,37.824,15.12,31.221,25.863,5.358,7.986,7.534
2056,1.014,37.911,15.057,31.221,25.859,5.358,8.027,7.411
2057,1.027,38.027,15.069,31.201,25.866,5.317,8.027,7.411
2058,1.033,37.969,15.081,31.221,25.859,5.44,8.192,7.534
2059,1.033,37.882,15.073,31.221,25.866,5.358,8.109,7.411
2060,1.043,37.979,15.128,31.192,25.859,5.317,8.069,7.37
2061,1.033,38.076,15.081,31.221,25.863,5.399,8.15,7.37
2062,1.043,37.998,15.12,31.221,25.866,5.399,8.192,7.411
2063,1.04,38.134,15.136,31.24,25.873,5.399,8.233,7.411
2064,1.027,38.192,15.175,31.211,25.859,5.317,8.109,7.247
2065,1.007,38.26,15.1,31.182,25.856,5.235,7.986,7.165
2066,1.01,38.017,15.12,31.24,25.859,5.44,8.192,7.37
2067,1.01,38.153,15.112,31.221,25.87,5.358,8.192,7.37
2068,1.0,38.269,15.112,31.192,25.859,5.358,8.192,7.329
2069,1.017,38.347,15.112,31.23,25.859,5.399,8.192,7.329
2070,1.03,38.153,15.124,31.211,25.863,5.399,8.192,7.37
2071,1.037,38.289,15.081,31.192,25.852,5.317,8.109,7.329
2072,1.037,38.415,15.073,31.211,25.859,5.358,8.069,7.452
2073,1.03,38.453,15.144,31.211,25.863,5.44,8.192,7.575
2074,1.007,38.231,15.144,31.221,25.87,5.44,8.109,7.617
2075,0.984,38.337,15.077,31.211,25.856,5.317,7.986,7.617
2076,0.974,38.434,15.096,31.192,25.852,5.317,7.904,7.658
2077,0.987,38.511,15.116,31.221,25.863,5.399,8.109,7.781
2078,0.977,38.25,15.128,31.23,25.877,5.563,8.069,7.945
2079,0.961,38.347,15.112,31.201,25.852,5.358,7.945,7.74
2080,0.964,38.453,15.175,31.201,25.866,5.358,7.986,7.822
2081,0.954,38.783,15.1,31.211,25.863,5.399,7.945,7.904
2082,0.931,38.163,15.096,31.201,25.859,5.317,7.863,7.863
2083,0.931,38.298,15.144,31.201,25.863,5.317,7.863,7.945
2084,0.935,38.385,15.136,31.23,25.87,5.44,7.986,8.027
2085,0.931,38.221,15.025,31.221,25.859,5.358,7.904,7.945
2086,0.915,38.26,15.081,31.192,25.866,5.317,7.863,7.945
2087,0.918,38.395,15.112,31.201,25.863,5.317,7.986,8.109
2088,0.925,38.502,15.136,31.23,25.863,5.44,8.027,8.192
2089,0.912,38.114,15.175,31.259,25.88,5.481,8.109,8.274
2090,0.892,38.201,15.132,31.192,25.856,5.317,8.027,8.192
2091,0.885,38.327,15.104,31.172,25.852,5.235,7.945,8.109
2092,0.892,38.405,15.081,31.221,25.866,5.399,8.109,8.274
2093,0.882,38.289,15.144,31.23,25.877,5.481,8.274,8.397
2094,0.876,38.434,15.081,31.211,25.859,5.44,8.109,8.274
2095,0.876,38.57,15.073,31.23,25.866,5.44,8.15,8.274
2096,0.866,38.628,15.077,31.211,25.863,5.358,8.233,8.356
2097,0.866,38.008,15.12,31.192,25.859,5.317,8.109,8.233
2098,0.869,38.143,15.155,31.201,25.863,5.399,8.15,8.274
2099,0.866,38.279,15.148,31.24,25.873,5.399,8.192,8.315
2100,0.869,38.327,15.1,31.23,25.859,5.44,8.15,8.274
2101,0.856,37.959,15.085,31.221,25.863,5.317,8.069,8.15
2102,0.843,38.066,15.116,31.172,25.849,5.317,8.069,8.15
2103,0.853,38.211,15.14,31.211,25.863,5.358,8.192,8.274
2104,0.853,38.26,15.112,31.259,25.877,5.522,8.274,8.233
2105,0.833,37.988,15.069,31.211,25.863,5.317,8.027,8.069
2106,0.823,38.114,15.12,31.201,25.859,5.358,8.109,8.109
2107,0.823,38.231,15.148,31.211,25.859,5.399,8.027,8.15
2108,0.813,38.105,15.167,31.201,25.856,5.317,8.027,8.027
2109,0.816,37.969,15.179,31.211,25.863,5.399,8.069,8.027
2110,0.816,38.134,15.085,31.221,25.87,5.358,8.15,8.109
2111,0.8,38.201,15.088,31.192,25.859,5.358,8.069,8.027
2112,0.78,37.843,15.144,31.182,25.852,5.276,8.069,7.904
2113,0.787,37.959,15.104,31.201,25.859,5.317,8.027,7.945
2114,0.784,38.114,15.112,31.23,25.866,5.399,8.109,7.986
2115,0.803,38.201,15.104,31.25,25.87,5.44,8.192,7.945
2116,0.793,37.746,15.132,31.201,25.859,5.317,8.027,7.863
2117,0.803,37.892,15.148,31.172,25.849,5.153,7.945,7.699
2118,0.803,38.027,15.171,31.192,25.866,5.317,8.109,7.863
2119,0.81,38.085,15.124,31.221,25.873,5.481,8.109,7.904
2120,0.803,37.591,15.1,31.211,25.863,5.358,7.986,7.781
2121,0.81,37.746,15.1,31.211,25.863,5.317,8.027,7.781
2122,0.793,37.853,15.155,31.211,25.866,5.399,8.027,7.822
2123,0.77,37.892,15.041,31.201,25.856,5.276,7.945,7.658
2124,0.767,37.698,15.096,31.211,25.859,5.358,7.945,7.699
2125,0.767,37.824,15.116,31.221,25.866,5.358,8.027,7.74
2126,0.777,37.93,15.155,31.221,25.866,5.317,7.945,7.74
2127,0.774,37.95,15.12,31.192,25.859,5.235,7.822,7.617
2128,0.764,37.465,15.108,31.172,25.856,5.235,7.822,7.575
2129,0.77,37.64,15.057,31.221,25.866,5.358,7.904,7.575
2130,0.79,37.775,15.085,31.24,25.866,5.481,7.904,7.74
2131,0.82,37.921,15.088,31.192,25.859,5.276,7.699,7.575
2132,0.843,37.698,15.124,31.201,25.866,5.276,7.74,7.494
2133,0.843,37.824,15.108,31.279,25.863,5.317,7.699,7.534
2134,0.81,37.921,15.069,31.201,25.859,5.317,7.699,7.452
2135,0.813,37.543,15.144,31.201,25.863,5.358,7.699,7.494
2136,0.807,37.572,15.159,31.211,25.859,5.399,7.699,7.534
2137,0.787,37.698,15.167,31.211,25.859,5.276,7.699,7.452
2138,0.77,37.756,15.085,31.192,25.856,5.235,7.617,7.37
2139,0.774,37.368,15.041,31.201,25.859,5.399,7.658,7.37
2140,0.797,37.533,15.085,31.221,25.87,5.399,7.74,7.37
2141,0.803,37.659,15.12,31.23,25.866,5.399,7.781,7.37
2142,0.774,37.688,15.1,31.192,25.859,5.358,7.699,7.288
2143,0.767,37.378,15.065,31.182,25.845,5.276,7.699,7.247
2144,0.761,37.523,15.085,31.211,25.863,5.399,7.863,7.37
2145,0.751,37.669,15.128,31.23,25.87,5.522,7.945,7.411
2146,0.744,37.707,15.159,31.211,25.859,5.399,7.822,7.329
2147,0.734,37.368,15.1,31.211,25.863,5.481,7.822,7.329
2148,0.731,37.504,15.065,31.211,25.866,5.44,7.863,7.452
2149,0.731,37.611,15.081,31.269,25.859,5.399,7.822,7.411
2150,0.724,37.649,15.081,31.211,25.859,5.44,7.822,7.617
2151,0.724,37.33,15.148,31.221,25.87,5.481,7.863,7.781
2152,0.721,37.446,15.1,31.211,25.866,5.44,7.986,7.863
2153,0.738,37.533,15.116,31.192,25.856,5.399,7.781,7.863
2154,0.734,37.562,15.096,31.201,25.859,5.481,7.863,8.15
2155,0.751,37.368,15.171,31.211,25.866,5.522,7.986,8.315
2156,0.764,37.533,15.171,31.211,25.866,5.481,7.945,8.438
2157,0.761,37.572,15.085,31.192,25.859,5.358,7.945,8.438
2158,0.764,37.63,15.037,31.172,25.852,5.358,7.904,8.52
