time,ecg,bvp,gsr,rsp,skt,emg_zygo,emg_coru,emg_trap
0,0.744,37.29,17.38,29.778,23.251,9.546,6.056,6.056
1,0.725,37.023,17.371,29.769,23.247,9.506,6.015,6.056
2,0.731,37.125,17.422,29.778,23.251,9.668,6.056,6.097
3,0.728,37.27,17.364,29.807,23.268,9.914,6.219,6.219
4,0.751,37.396,17.395,29.817,23.254,9.916,6.098,6.098
5,0.751,37.167,17.34,29.798,23.254,9.957,6.138,6.097
6,0.767,37.318,17.441,29.798,23.254,10.12,6.098,6.138
7,0.77,37.435,17.415,29.788,23.261,10.325,6.097,6.179
8,0.787,37.494,17.407,29.807,23.254,10.408,6.178,6.098
9,0.777,36.938,17.45,29.788,23.247,10.409,6.057,6.016
10,0.761,37.048,17.376,29.759,23.244,10.613,6.015,6.056
11,0.78,37.193,17.375,29.778,23.254,10.818,6.096,6.015
12,0.774,37.233,17.406,29.788,23.254,11.064,6.097,6.056
13,0.764,37.147,17.403,29.769,23.251,11.066,6.016,6.056
14,0.774,37.27,17.368,29.769,23.251,11.148,6.056,6.015
15,0.777,37.406,17.395,29.788,23.265,11.271,6.137,6.137
16,0.78,37.465,17.438,29.817,23.272,11.353,6.138,6.138
17,0.754,37.101,17.415,29.788,23.251,11.354,6.179,6.098
18,0.761,37.232,17.376,29.769,23.254,11.354,6.098,6.056
19,0.757,37.338,17.461,29.797,23.254,11.395,6.138,6.178
20,0.767,37.33,17.399,29.798,23.258,11.436,6.179,6.139
21,0.757,37.138,17.379,29.788,23.258,11.314,6.057,6.057
22,0.744,37.213,17.41,29.759,23.244,11.272,6.097,6.056
23,0.747,37.338,17.379,29.797,23.251,11.272,6.097,6.097
24,0.76,37.109,17.383,29.778,23.254,11.15,6.056,6.056
25,0.777,37.203,17.367,29.769,23.258,11.108,6.056,5.975
26,0.767,37.309,17.422,29.759,23.254,10.945,6.056,6.015
27,0.783,37.406,17.376,29.816,23.258,10.984,6.341,6.178
28,0.803,37.052,17.399,29.817,23.265,10.903,6.181,6.139
29,0.784,37.164,17.418,29.788,23.258,10.821,6.139,6.138
30,0.78,37.299,17.383,29.778,23.258,10.698,6.138,6.098
31,0.777,37.368,17.371,29.797,23.254,10.575,6.138,6.138
32,0.774,37.042,17.418,29.788,23.251,10.492,6.098,6.138
33,0.774,37.164,17.278,29.807,23.251,10.329,6.016,5.976
34,0.751,37.28,17.374,29.769,23.247,10.205,6.137,6.015
35,0.777,37.368,17.395,29.797,23.254,10.163,6.057,6.015
36,0.78,37.119,17.371,29.778,23.251,10.0,6.097,6.015
37,0.764,37.241,17.367,29.788,23.251,9.877,5.975,5.974
38,0.761,37.348,17.375,29.759,23.251,9.753,6.055,5.974
39,0.757,37.435,17.395,29.807,23.261,9.833,6.219,6.177
40,0.761,37.149,17.356,29.817,23.258,9.59,6.058,6.057
41,0.748,37.261,17.394,29.817,23.258,9.588,6.056,6.097
42,0.76,37.358,17.414,29.798,23.258,9.466,6.137,5.975
43,0.761,37.388,17.415,29.788,23.254,9.343,6.138,6.096
44,0.774,37.119,17.399,29.836,23.254,9.342,6.098,6.138
45,0.774,37.232,17.375,29.779,23.254,9.097,5.975,5.935
46,0.754,37.29,17.383,29.797,23.258,9.217,6.055,6.055
47,0.764,37.694,17.414,29.778,23.247,9.056,6.056,6.015
48,0.767,37.151,17.403,29.778,23.254,8.932,6.015,5.974
49,0.783,37.261,17.407,29.769,23.251,8.85,6.015,5.974
50,0.787,37.348,17.383,29.759,23.254,8.808,6.056,6.015
51,0.793,37.177,17.383,29.826,23.261,9.011,6.219,6.137
52,0.797,37.213,17.403,29.798,23.261,8.85,6.098,6.057
53,0.774,37.329,17.356,29.778,23.258,8.849,6.056,6.056
54,0.79,37.406,17.406,29.797,23.254,8.849,6.097,6.137
55,0.793,36.985,17.407,29.778,23.254,8.889,6.097,6.138
56,0.787,37.096,17.442,29.769,23.251,8.89,5.975,6.016
57,0.761,37.184,17.403,29.74,23.247,8.849,5.974,5.893
58,0.767,37.29,17.399,29.787,23.251,8.93,5.974,5.973
59,0.764,37.981,17.399,29.788,23.254,8.89,6.055,5.974
60,0.774,38.113,17.411,29.778,23.254,8.849,5.934,5.893
61,0.761,38.229,17.36,29.769,23.254,8.93,6.055,6.014
62,0.754,38.298,17.414,29.807,23.265,9.053,6.178,6.178
63,0.767,36.678,17.372,29.798,23.254,8.973,6.017,6.057
64,0.777,36.786,17.371,29.778,23.258,9.013,6.096,6.015
65,0.771,36.902,17.367,29.788,23.254,9.013,6.056,6.015
66,0.767,36.961,17.422,29.798,23.261,9.013,6.097,6.015
67,0.783,37.23,17.395,29.798,23.254,8.972,6.097,5.974
68,0.767,37.358,17.399,29.769,23.251,8.85,5.975,5.933
69,0.757,37.464,17.395,29.788,23.258,8.93,6.055,6.055
70,0.777,37.523,17.426,29.788,23.258,8.85,6.015,5.975
71,0.787,37.025,17.391,29.769,23.247,8.808,5.974,5.893
72,0.771,37.144,17.387,29.749,23.251,8.848,6.015,5.892
73,0.783,37.27,17.399,29.807,23.254,8.889,6.137,6.054
74,0.79,37.31,17.395,29.826,23.272,8.93,6.138,5.975
75,0.784,37.109,17.399,29.798,23.258,8.85,5.976,5.974
76,0.774,37.232,17.438,29.778,23.254,8.849,6.015,6.055
77,0.771,37.329,17.399,29.788,23.261,8.849,6.096,6.056
78,0.764,37.215,17.399,29.778,23.258,8.889,6.097,5.975
79,0.767,37.166,17.422,29.788,23.254,8.809,6.016,5.893
80,0.757,37.28,17.387,29.778,23.247,8.93,5.974,5.973
81,0.751,37.406,17.344,29.778,23.261,9.093,6.055,5.933
82,0.761,36.966,17.387,29.778,23.251,9.217,5.975,5.974
83,0.757,37.058,17.356,29.778,23.247,9.34,5.974,5.933
84,0.767,37.183,17.367,29.769,23.247,9.504,5.974,5.933
85,0.783,37.29,17.383,29.807,23.265,9.79,6.177,6.136
86,0.793,36.984,17.442,29.807,23.258,9.753,6.057,5.976
87,0.784,37.096,17.384,29.798,23.251,9.874,6.097,5.933
88,0.774,37.232,17.391,29.798,23.258,9.876,6.016,6.014
89,0.78,37.29,17.418,29.807,23.254,9.957,6.137,5.974
90,0.78,37.042,17.415,29.798,23.261,10.039,6.098,6.015
91,0.79,37.164,17.383,29.778,23.247,9.918,5.975,5.852
92,0.774,37.251,17.414,29.75,23.254,9.998,6.015,5.973
93,0.761,37.339,17.387,29.807,23.254,10.08,6.056,5.893
94,0.78,36.937,17.364,29.769,23.251,10.04,6.015,5.892
95,0.774,37.067,17.356,29.769,23.247,10.08,5.974,5.892
96,0.758,37.174,17.394,29.759,23.251,10.162,6.015,5.933
97,0.751,37.261,17.383,29.807,23.265,10.366,6.178,6.096
98,0.767,37.051,17.406,29.788,23.254,10.328,6.017,5.894
99,0.748,37.154,17.422,29.798,23.251,10.246,6.056,5.933
100,0.747,37.29,17.395,29.778,23.265,10.245,6.056,5.974
101,0.738,37.31,17.371,29.797,23.258,10.245,6.137,6.015
102,0.757,37.071,17.422,29.807,23.258,10.164,6.057,5.974
103,0.757,37.193,17.368,29.769,23.244,10.122,5.975,5.852
104,0.751,37.261,17.34,29.778,23.247,10.081,6.055,5.973
105,0.754,37.281,17.371,29.769,23.247,9.999,6.015,5.893
106,0.754,37.022,17.383,29.759,23.258,9.999,5.974,5.892
107,0.761,37.154,17.383,29.769,23.251,9.877,5.974,5.811
108,0.767,37.242,17.36,29.769,23.251,9.916,5.974,5.972
109,0.774,37.07,17.422,29.797,23.268,9.957,6.177,6.096
110,0.78,37.174,17.415,29.817,23.258,9.714,6.098,5.853
111,0.774,37.261,17.407,29.779,23.254,9.589,6.016,5.932
112,0.784,37.348,17.422,29.788,23.258,9.547,6.096,5.852
113,0.784,36.85,17.403,29.798,23.258,9.588,6.138,6.013
114,0.767,36.98,17.399,29.807,23.261,9.466,6.098,5.974
115,0.767,37.106,17.387,29.759,23.247,9.221,5.935,5.893
116,0.748,37.145,17.399,29.778,23.254,9.3,6.096,5.851
117,0.754,36.896,17.403,29.778,23.254,9.26,6.097,5.973
118,0.748,37.047,17.368,29.778,23.251,9.097,6.016,5.893
119,0.744,37.135,17.414,29.759,23.251,9.095,6.015,5.892
120,0.754,37.203,17.407,29.759,23.258,9.095,6.137,5.973
121,0.748,36.955,17.387,29.816,23.265,9.298,6.138,6.055
122,0.751,37.096,17.43,29.779,23.261,9.138,6.057,5.975
123,0.748,37.193,17.337,29.778,23.254,9.177,6.056,5.974
124,0.767,37.252,17.406,29.797,23.258,9.218,6.137,5.893
125,0.777,37.137,17.383,29.778,23.258,9.34,6.098,5.973
126,0.764,37.261,17.438,29.797,23.254,9.219,6.056,5.893
127,0.761,37.358,17.427,29.778,23.244,9.096,5.934,5.851
128,0.761,37.397,17.383,29.778,23.254,9.258,6.014,5.973
129,0.767,36.87,17.387,29.769,23.251,9.178,6.015,5.893
130,0.787,36.98,17.391,29.788,23.254,9.177,5.974,5.892
131,0.784,37.096,17.391,29.769,23.244,9.096,5.974,5.892
132,0.774,37.462,17.395,29.778,23.251,9.258,6.015,6.014
133,0.777,37.053,17.387,29.826,23.268,9.3,6.137,6.015
134,0.764,37.145,17.36,29.798,23.254,9.178,6.016,5.974
135,0.754,37.251,17.395,29.788,23.254,9.177,6.015,6.015
136,0.754,36.993,17.403,29.798,23.258,9.055,6.137,6.015
137,0.738,37.029,17.414,29.798,23.265,9.013,6.057,5.974
138,0.751,37.164,17.395,29.798,23.251,8.932,5.975,5.893
139,0.735,37.251,17.407,29.75,23.244,8.809,5.852,5.933
140,0.744,36.792,17.387,29.778,23.261,8.808,5.973,5.852
141,0.728,36.912,17.367,29.788,23.258,8.808,5.974,6.013
142,0.721,37.038,17.41,29.798,23.254,8.686,5.852,5.974
143,0.721,37.106,17.329,29.769,23.251,8.603,5.891,5.933
144,0.737,36.906,17.371,29.769,23.251,8.602,6.054,6.055
145,0.757,37.076,17.383,29.826,23.268,8.684,6.137,6.056
146,0.757,37.174,17.438,29.798,23.251,8.522,6.016,5.934
147,0.764,37.242,17.419,29.778,23.258,8.479,6.015,5.974
148,0.774,36.801,17.379,29.788,23.254,8.438,6.056,6.055
149,0.784,36.941,17.438,29.788,23.258,8.397,6.056,6.097
150,0.777,37.057,17.391,29.798,23.258,8.316,6.056,5.975
151,0.771,37.097,17.352,29.74,23.247,8.193,5.934,5.852
152,0.751,36.915,17.422,29.778,23.251,8.273,5.974,5.973
153,0.774,37.047,17.337,29.769,23.251,8.111,5.933,5.893
154,0.758,37.164,17.39,29.778,23.251,8.191,5.974,5.973
155,0.754,37.194,17.383,29.75,23.254,8.11,5.893,5.893
156,0.754,36.868,17.477,29.788,23.258,8.15,6.054,6.095
157,0.754,37.057,17.435,29.817,23.268,8.15,5.975,6.056
158,0.744,37.106,17.407,29.788,23.258,8.069,5.974,6.056
159,0.741,37.145,17.438,29.788,23.251,8.069,5.974,6.097
160,0.738,36.983,17.391,29.798,23.258,8.109,6.015,6.016
161,0.741,37.125,17.391,29.778,23.261,8.15,6.056,6.015
162,0.744,37.203,17.399,29.797,23.251,7.907,5.975,5.934
163,0.744,37.002,17.317,29.769,23.244,7.945,5.974,5.974
164,0.764,36.972,17.355,29.778,23.251,7.945,5.974,6.015
165,0.751,37.067,17.383,29.769,23.251,7.905,5.974,5.974
166,0.744,37.164,17.43,29.778,23.258,7.823,5.974,5.974
167,0.747,36.858,17.403,29.769,23.247,7.863,6.015,6.015
168,0.738,36.961,17.411,29.797,23.261,7.904,6.137,6.218
169,0.757,37.125,17.411,29.817,23.268,7.823,6.057,6.139
170,0.761,37.174,17.379,29.798,23.254,7.863,6.015,6.057
171,0.764,36.743,17.387,29.778,23.258,7.741,6.056,6.056
172,0.754,36.873,17.418,29.788,23.258,7.781,6.056,6.137
173,0.761,37.009,17.286,29.817,23.258,7.862,6.056,6.098
174,0.761,37.068,17.343,29.779,23.247,7.782,5.975,5.975
175,0.748,36.944,17.363,29.75,23.247,7.7,5.933,5.974
176,0.751,37.077,17.414,29.778,23.258,7.74,6.014,6.096
177,0.751,37.203,17.399,29.778,23.244,7.74,6.015,6.097
178,0.744,37.261,17.414,29.769,23.244,7.781,5.974,6.016
179,0.734,36.725,17.399,29.759,23.251,7.659,5.933,6.015
180,0.738,36.873,17.395,29.778,23.258,7.82,6.055,6.137
181,0.738,37.028,17.399,29.817,23.261,7.781,6.137,6.098
182,0.712,37.029,17.422,29.779,23.251,7.74,6.057,6.138
183,0.731,37.01,17.333,29.797,23.251,7.699,6.056,6.098
184,0.741,37.135,17.375,29.788,23.258,7.699,6.097,6.138
185,0.747,37.251,17.367,29.807,23.258,7.699,6.016,6.138
186,0.741,37.281,17.414,29.788,23.251,7.618,6.015,5.976
187,0.738,36.802,17.391,29.778,23.251,7.617,5.974,6.015
188,0.751,36.941,17.407,29.788,23.254,7.657,6.015,6.015
189,0.757,37.048,17.372,29.778,23.254,7.617,6.015,6.096
190,0.754,37.135,17.391,29.769,23.244,7.617,5.934,5.975
191,0.764,37.002,17.387,29.759,23.251,7.617,5.974,6.055
192,0.764,37.135,17.387,29.807,23.265,7.779,6.096,6.178
193,0.78,37.28,17.449,29.807,23.265,7.7,6.056,5.976
194,0.751,36.754,17.38,29.779,23.258,7.699,6.015,6.137
195,0.757,36.787,17.426,29.788,23.258,7.78,6.056,6.138
196,0.77,36.902,17.364,29.798,23.258,7.822,6.097,6.138
197,0.744,37.019,17.418,29.798,23.254,7.863,6.097,6.138
198,0.747,36.876,17.376,29.759,23.251,7.741,5.975,6.016
199,0.734,36.961,17.375,29.749,23.244,7.781,6.015,6.015
200,0.744,37.106,17.406,29.768,23.251,7.781,6.015,6.015
201,0.747,37.184,17.414,29.769,23.251,7.822,6.056,6.015
202,0.718,36.782,17.407,29.759,23.254,7.822,5.934,5.974
203,0.718,36.941,17.407,29.778,23.254,7.781,5.933,6.055
204,0.741,37.067,17.391,29.797,23.268,7.944,6.136,6.178
205,0.757,37.164,17.422,29.798,23.261,7.905,6.098,6.098
206,0.741,36.897,17.372,29.778,23.254,7.945,6.016,6.056
207,0.76,37.019,17.375,29.788,23.258,7.945,6.096,6.056
208,0.757,37.144,17.36,29.788,23.261,7.864,6.056,6.097
209,0.754,37.194,17.414,29.807,23.261,7.985,6.137,5.975
210,0.767,36.715,17.383,29.779,23.247,7.864,5.976,5.893
211,0.751,36.825,17.371,29.75,23.251,7.863,6.015,5.973
212,0.754,36.941,17.422,29.778,23.251,7.944,5.974,6.015
213,0.77,36.971,17.395,29.778,23.251,7.864,6.015,5.974
214,0.751,37.038,17.383,29.769,23.244,7.904,6.015,5.974
215,0.757,37.183,17.375,29.769,23.251,7.863,6.015,5.974
216,0.744,37.28,17.441,29.807,23.265,8.107,6.137,6.177
217,0.747,37.607,17.415,29.798,23.261,7.947,6.057,6.017
218,0.731,36.757,17.368,29.778,23.251,7.945,6.137,5.974
219,0.734,36.864,17.391,29.797,23.258,7.945,6.057,6.055
220,0.734,36.97,17.375,29.788,23.254,7.945,6.056,5.975
221,0.728,36.904,17.406,29.788,23.258,7.945,6.097,6.096
222,0.731,36.952,17.368,29.778,23.258,7.783,5.975,5.935
223,0.725,37.048,17.348,29.759,23.254,7.781,6.015,5.974
224,0.75,37.174,17.355,29.778,23.251,7.862,6.056,5.974
225,0.748,36.724,17.43,29.769,23.258,7.782,6.056,5.933
226,0.757,36.815,17.391,29.788,23.251,7.7,5.975,5.933
227,0.77,36.951,17.41,29.769,23.244,7.699,6.055,5.852
228,0.757,37.048,17.399,29.778,23.261,7.902,6.178,6.135
229,0.764,36.771,17.457,29.807,23.258,7.782,6.057,6.057
230,0.751,36.873,17.376,29.769,23.251,7.781,6.015,6.015
231,0.761,37.018,17.371,29.769,23.251,7.781,6.096,6.015
232,0.767,37.077,17.414,29.797,23.258,7.781,6.056,6.015
233,0.767,36.742,17.352,29.826,23.265,7.781,6.056,6.015
234,0.761,36.892,17.383,29.769,23.251,7.74,5.975,5.934
235,0.744,36.961,17.371,29.759,23.237,7.699,6.015,5.974
236,0.744,37.029,17.438,29.797,23.247,7.821,6.096,5.893
237,0.738,36.828,17.43,29.778,23.254,7.781,6.056,6.014
238,0.747,36.96,17.403,29.769,23.251,7.862,6.015,5.974
239,0.738,37.067,17.411,29.769,23.258,7.863,6.096,5.974
240,0.734,37.145,17.403,29.797,23.261,8.066,6.138,6.096
241,0.754,36.743,17.414,29.807,23.268,8.15,6.179,6.056
242,0.731,36.825,17.418,29.788,23.254,8.028,6.057,6.056
243,0.731,36.951,17.36,29.798,23.261,8.109,6.056,5.975
244,0.738,36.971,17.371,29.778,23.254,8.109,6.097,6.015
245,0.747,36.789,17.356,29.797,23.254,8.109,6.138,6.056
246,0.744,36.902,17.406,29.778,23.254,8.069,6.016,5.975
247,0.731,36.99,17.387,29.75,23.244,7.946,5.974,5.933
248,0.754,36.924,17.403,29.778,23.258,8.108,6.055,5.933
249,0.757,36.856,17.364,29.769,23.251,8.028,6.097,5.974
250,0.764,36.989,17.367,29.778,23.254,7.987,5.975,5.933
251,0.764,37.077,17.418,29.759,23.251,7.946,6.015,5.892
252,0.77,36.656,17.356,29.797,23.261,8.148,6.218,6.095
253,0.793,36.786,17.402,29.807,23.261,8.11,6.098,5.935
254,0.754,36.874,17.368,29.788,23.254,8.028,6.097,6.014
255,0.741,36.932,17.41,29.778,23.261,8.068,6.056,5.974
256,0.731,36.77,17.407,29.797,23.258,8.109,6.097,6.015
257,0.738,36.912,17.418,29.798,23.261,8.15,6.097,6.015
258,0.738,37.019,17.383,29.778,23.251,8.069,6.016,5.893
259,0.734,37.068,17.418,29.75,23.247,8.028,5.974,5.973
260,0.731,36.694,17.391,29.768,23.251,8.19,6.055,5.893
261,0.728,36.834,17.383,29.778,23.254,8.11,5.975,5.973
262,0.725,36.941,17.418,29.788,23.251,8.109,6.055,5.974
263,0.715,37.019,17.344,29.778,23.254,8.109,5.975,5.974
264,0.747,36.742,17.387,29.817,23.258,8.191,6.218,6.096
265,0.754,36.864,17.371,29.807,23.258,8.232,6.098,5.975
266,0.738,36.98,17.445,29.779,23.254,8.111,6.056,5.974
267,0.744,37.019,17.415,29.797,23.254,8.109,6.056,6.015
268,0.738,36.703,17.391,29.798,23.258,8.028,6.137,6.056
269,0.76,36.834,17.399,29.798,23.258,8.068,6.098,6.056
270,0.764,36.932,17.356,29.769,23.251,7.946,5.975,5.853
271,0.748,36.942,17.387,29.759,23.251,7.986,6.055,5.932
272,0.741,36.664,17.371,29.778,23.254,7.986,6.097,5.974
273,0.747,36.796,17.399,29.788,23.247,7.905,6.016,5.893
274,0.751,36.883,17.399,29.759,23.254,7.823,6.015,5.892
275,0.748,36.999,17.418,29.778,23.251,7.985,6.056,5.973
276,0.751,36.857,17.411,29.797,23.265,8.068,6.219,6.137
277,0.757,37.009,17.387,29.798,23.265,7.987,6.098,5.976
278,0.744,37.096,17.387,29.778,23.254,7.905,6.056,6.015
279,0.731,36.723,17.406,29.778,23.254,7.904,6.056,5.974
280,0.741,36.787,17.383,29.807,23.254,7.945,6.137,6.015
281,0.705,36.931,17.391,29.798,23.258,7.823,6.057,6.056
282,0.708,36.99,17.403,29.778,23.251,7.781,6.015,5.893
283,0.705,36.559,17.387,29.788,23.251,7.781,6.015,5.973
284,0.728,36.708,17.383,29.798,23.254,7.74,6.096,5.974
285,0.734,36.844,17.403,29.769,23.251,7.74,6.056,5.852
286,0.728,36.913,17.411,29.769,23.251,7.618,5.975,5.891
287,0.721,36.558,17.36,29.778,23.247,7.657,6.015,5.933
288,0.737,36.727,17.387,29.807,23.265,7.78,6.178,6.136
289,0.76,36.854,17.418,29.807,23.258,7.74,6.057,6.016
290,0.754,36.893,17.376,29.779,23.251,7.699,6.056,5.974
291,0.754,36.712,17.402,29.778,23.258,7.74,6.097,6.015
292,0.767,36.834,17.411,29.788,23.254,7.74,6.097,6.015
293,0.77,36.98,17.415,29.798,23.258,7.781,6.097,6.056
294,0.774,37.019,17.36,29.788,23.251,7.7,5.975,5.812
295,0.728,36.588,17.406,29.759,23.247,7.78,6.015,5.972
296,0.744,36.747,17.434,29.769,23.254,7.781,6.056,6.015
297,0.731,36.864,17.407,29.778,23.247,7.822,6.015,5.893
298,0.725,36.913,17.391,29.769,23.244,7.781,5.893,5.933
299,0.734,36.645,17.36,29.769,23.251,7.74,5.973,5.974
300,0.734,36.786,17.383,29.778,23.254,7.943,6.177,6.096
301,0.731,36.922,17.414,29.807,23.265,7.945,6.139,5.975
302,0.718,37.086,17.383,29.779,23.258,7.905,6.057,6.055
303,0.728,36.675,17.379,29.807,23.251,7.945,6.137,6.015
304,0.728,36.796,17.375,29.798,23.261,8.026,6.098,5.974
305,0.738,36.893,17.434,29.807,23.265,8.027,6.138,6.055
306,0.734,36.635,17.395,29.788,23.254,7.946,5.976,5.893
307,0.725,36.565,17.395,29.769,23.251,7.945,6.015,5.933
308,0.737,36.737,17.434,29.797,23.258,7.945,6.096,5.974
309,0.744,36.825,17.372,29.778,23.251,7.945,6.097,5.974
310,0.751,36.519,17.414,29.778,23.251,7.945,6.056,5.933
311,0.744,36.593,17.395,29.769,23.251,7.864,6.015,5.974
312,0.747,36.747,17.387,29.788,23.265,8.026,6.218,6.096
313,0.78,36.883,17.367,29.817,23.261,8.027,6.139,6.016
314,0.764,36.491,17.371,29.807,23.258,7.946,6.138,6.015
315,0.748,36.631,17.418,29.788,23.258,7.945,6.138,5.934
316,0.747,36.728,17.387,29.788,23.251,7.945,6.098,6.055
317,0.747,36.825,17.414,29.798,23.265,7.986,6.138,6.056
318,0.747,36.644,17.383,29.778,23.258,7.864,6.057,5.975
319,0.731,36.748,17.324,29.75,23.247,7.863,6.015,5.974
320,0.731,36.902,17.359,29.778,23.258,8.188,6.096,6.055
321,0.731,36.971,17.414,29.788,23.254,8.314,6.056,6.015
322,0.715,36.502,17.364,29.759,23.247,8.518,6.056,5.934
323,0.715,36.641,17.336,29.769,23.251,8.683,6.015,5.974
324,0.731,36.748,17.351,29.788,23.258,9.01,6.218,6.096
325,0.747,36.835,17.418,29.817,23.258,9.257,6.18,6.016
326,0.747,36.606,17.387,29.769,23.261,9.381,6.179,6.056
327,0.747,36.718,17.426,29.778,23.247,9.545,6.098,6.056
328,0.754,36.825,17.38,29.797,23.258,9.628,6.138,6.015
329,0.761,36.855,17.367,29.798,23.265,9.751,6.138,6.056
330,0.764,36.5,17.398,29.769,23.251,9.752,6.016,5.975
331,0.748,36.593,17.383,29.759,23.24,9.793,6.015,5.974
332,0.751,36.728,17.364,29.769,23.251,9.834,6.056,6.015
333,0.744,36.643,17.356,29.778,23.254,9.916,6.056,5.974
334,0.738,36.546,17.375,29.769,23.251,9.835,6.015,5.974
335,0.741,36.689,17.414,29.759,23.251,9.875,6.015,5.974
336,0.747,36.815,17.407,29.816,23.261,10.038,6.178,6.137
337,0.764,36.5,17.43,29.798,23.254,9.796,6.017,5.976
338,0.754,36.583,17.395,29.778,23.251,9.915,6.056,5.974
339,0.738,36.699,17.418,29.788,23.261,9.835,6.056,6.015
340,0.728,36.796,17.43,29.807,23.258,9.834,6.137,6.056
341,0.731,36.442,17.407,29.798,23.258,9.834,6.138,6.137
342,0.725,36.554,17.426,29.769,23.247,9.631,5.935,5.976
343,0.718,36.66,17.383,29.769,23.251,9.67,6.055,6.055
344,0.741,36.757,17.328,29.807,23.251,9.629,6.015,6.056
345,0.747,36.48,17.39,29.779,23.258,9.629,5.974,5.893
346,0.744,36.612,17.36,29.769,23.251,9.507,6.015,5.933
347,0.757,36.738,17.379,29.788,23.247,9.546,6.056,6.014
348,0.754,36.844,17.402,29.817,23.268,9.71,6.178,6.178
349,0.764,36.462,17.364,29.807,23.251,9.508,6.017,6.017
350,0.761,36.583,17.383,29.779,23.254,9.465,6.056,6.015
351,0.767,36.689,17.422,29.788,23.251,9.465,6.056,6.015
352,0.777,36.738,17.356,29.798,23.258,9.424,6.137,6.056
353,0.774,36.576,17.383,29.798,23.258,9.383,6.057,5.975
354,0.751,36.67,17.379,29.769,23.251,9.261,5.934,5.893
355,0.738,36.805,17.422,29.788,23.254,9.097,6.055,6.014
356,0.734,36.826,17.356,29.778,23.244,9.176,6.056,5.934
357,0.734,36.404,17.367,29.769,23.251,9.137,6.015,5.974
358,0.728,36.525,17.367,29.778,23.251,8.974,5.974,5.893
359,0.718,36.631,17.43,29.778,23.258,9.053,6.137,6.136
360,0.737,36.824,17.399,29.817,23.265,9.095,6.138,6.057
361,0.728,36.51,17.387,29.798,23.261,8.973,6.057,6.056
362,0.731,36.641,17.446,29.798,23.258,8.85,6.097,6.097
363,0.738,36.738,17.403,29.865,23.251,8.849,6.138,6.097
364,0.747,36.47,17.379,29.808,23.251,8.849,6.057,6.056
365,0.747,36.516,17.402,29.779,23.244,8.686,5.975,5.812
366,0.738,36.602,17.418,29.759,23.247,8.725,5.974,6.054
367,0.744,36.709,17.387,29.797,23.254,8.766,6.055,6.015
368,0.77,36.326,17.383,29.798,23.254,8.726,6.015,5.974
369,0.741,36.447,17.371,29.798,23.251,8.603,5.974,6.015
370,0.76,36.573,17.356,29.769,23.251,8.724,6.055,6.015
371,0.764,36.651,17.426,29.797,23.261,8.807,6.137,6.096
372,0.78,36.441,17.333,29.826,23.265,8.726,6.057,5.975
373,0.761,36.563,17.336,29.779,23.251,8.644,6.015,6.055
374,0.767,36.699,17.414,29.788,23.258,8.684,6.096,6.015
375,0.77,36.758,17.458,29.788,23.261,8.684,6.097,6.056
376,0.761,36.269,17.403,29.807,23.258,8.684,6.097,6.056
377,0.748,36.399,17.414,29.788,23.251,8.603,5.975,5.893
378,0.731,36.505,17.387,29.778,23.251,8.521,5.974,6.014
379,0.741,36.583,17.391,29.778,23.254,8.439,5.974,6.015
380,0.741,36.421,17.383,29.788,23.254,8.479,6.015,5.974
381,0.738,36.553,17.406,29.778,23.251,8.316,6.015,6.015
382,0.721,36.651,17.391,29.759,23.254,8.396,6.015,6.015
383,0.721,36.7,17.399,29.816,23.261,8.519,6.137,6.218
384,0.75,36.528,17.395,29.807,23.261,8.52,6.098,6.098
385,0.748,36.631,17.403,29.798,23.251,8.398,6.016,6.097
386,0.764,36.738,17.407,29.798,23.251,8.397,6.015,6.138
387,0.748,36.796,17.418,29.798,23.258,8.397,6.096,6.138
388,0.747,36.394,17.376,29.817,23.261,8.438,6.056,6.098
389,0.76,36.524,17.371,29.798,23.251,8.397,5.975,5.975
390,0.764,36.612,17.352,29.769,23.244,8.438,5.974,6.096
391,0.78,36.383,17.402,29.797,23.251,8.519,6.015,6.056
392,0.764,36.39,17.379,29.798,23.247,8.52,6.015,6.097
393,0.77,36.496,17.348,29.759,23.251,8.52,5.974,6.016
394,0.767,36.583,17.43,29.769,23.251,8.52,5.974,6.056
395,0.764,36.766,17.426,29.797,23.261,8.683,6.177,6.219
396,0.787,36.96,17.442,29.826,23.265,8.725,6.098,6.18
397,0.78,37.038,17.415,29.798,23.258,8.685,6.016,6.098
398,0.78,37.135,17.379,29.778,23.261,8.684,6.015,6.097
399,0.78,35.889,17.36,29.797,23.254,8.725,6.056,6.138
400,0.777,36.04,17.398,29.788,23.254,8.685,6.056,6.138
401,0.771,36.157,17.407,29.807,23.251,8.644,5.975,6.057
402,0.767,36.215,17.379,29.769,23.244,8.562,5.974,6.097
403,0.793,36.427,17.375,29.788,23.254,8.643,5.974,6.097
404,0.793,36.554,17.367,29.798,23.254,8.603,6.055,6.097
405,0.797,36.66,17.406,29.769,23.251,8.521,6.015,6.097
406,0.8,36.709,17.418,29.797,23.244,8.439,5.974,6.097
407,0.81,36.182,17.415,29.778,23.254,8.56,6.055,6.3
408,0.836,36.388,17.407,29.836,23.261,8.521,6.097,6.18
409,0.839,36.467,17.379,29.798,23.251,8.358,6.016,6.179
410,0.852,36.506,17.352,29.798,23.258,8.397,6.056,6.22
411,0.859,36.286,17.43,29.788,23.254,8.356,6.056,6.139
412,0.846,36.418,17.364,29.798,23.265,8.315,6.097,6.219
413,0.846,36.534,17.375,29.788,23.258,8.234,6.016,6.139
414,0.833,36.526,17.344,29.769,23.251,8.151,6.015,6.138
415,0.83,36.324,17.402,29.788,23.254,8.273,5.974,6.179
416,0.833,36.447,17.383,29.798,23.251,8.274,6.015,6.139
417,0.826,36.544,17.383,29.778,23.251,8.193,6.015,6.138
418,0.81,36.449,17.391,29.778,23.244,8.273,5.934,6.138
419,0.826,36.381,17.356,29.797,23.258,8.396,6.136,6.341
420,0.843,36.534,17.41,29.798,23.265,8.397,6.016,6.181
421,0.817,36.574,17.446,29.798,23.258,8.438,6.056,6.261
422,0.826,36.267,17.384,29.798,23.251,8.438,6.015,6.18
423,0.833,36.37,17.395,29.788,23.254,8.519,6.096,6.22
424,0.836,36.496,17.364,29.807,23.265,8.561,6.097,6.18
425,0.839,36.564,17.402,29.798,23.251,8.521,5.975,6.098
426,0.839,36.181,17.399,29.769,23.247,8.479,5.974,6.178
427,0.852,36.331,17.387,29.788,23.251,8.56,6.015,6.139
428,0.856,36.438,17.403,29.798,23.251,8.521,6.015,6.179
429,0.853,36.515,17.368,29.798,23.254,8.601,5.974,6.139
430,0.856,36.238,17.398,29.778,23.244,8.521,6.015,6.179
431,0.872,36.369,17.43,29.778,23.258,8.642,6.096,6.22
432,0.869,36.534,17.403,29.826,23.261,8.684,6.178,6.302
433,0.866,36.593,17.407,29.798,23.254,8.603,6.098,6.18
434,0.862,36.191,17.379,29.788,23.254,8.48,6.138,6.139
435,0.866,36.35,17.43,29.817,23.261,8.56,6.098,6.219
436,0.869,36.476,17.391,29.788,23.265,8.439,6.138,6.261
437,0.882,36.516,17.344,29.798,23.251,8.397,6.057,6.058
438,0.85,36.286,17.367,29.75,23.247,8.316,6.015,6.097
439,0.859,36.418,17.356,29.788,23.247,8.315,6.056,6.138
440,0.866,36.544,17.406,29.778,23.251,8.315,6.056,6.098
441,0.853,36.564,17.438,29.778,23.251,8.274,6.097,6.138
442,0.836,36.133,17.36,29.778,23.254,8.193,6.016,6.138
443,0.82,36.292,17.371,29.807,23.254,8.314,6.218,6.26
444,0.833,36.428,17.406,29.817,23.265,8.315,6.18,6.18
445,0.817,36.621,17.426,29.807,23.251,8.193,6.139,6.139
446,0.82,36.325,17.301,29.807,23.261,8.11,6.138,6.179
447,0.833,36.476,17.367,29.798,23.251,8.069,6.138,6.22
448,0.839,36.583,17.344,29.807,23.254,8.069,6.138,6.22
449,0.846,36.248,17.387,29.788,23.254,7.987,6.098,6.098
450,0.833,36.226,17.36,29.759,23.251,7.864,6.056,6.138
451,0.846,36.36,17.414,29.769,23.258,7.863,6.137,6.098
452,0.843,36.486,17.415,29.769,23.251,7.863,6.016,6.016
453,0.839,36.056,17.36,29.778,23.254,7.822,6.056,6.015
454,0.833,36.176,17.43,29.769,23.247,7.781,6.056,6.056
455,0.833,36.34,17.45,29.807,23.268,7.984,6.219,6.178
456,0.826,36.428,17.427,29.798,23.254,7.864,6.098,6.098
457,0.787,36.295,17.376,29.798,23.254,7.822,6.138,6.138
458,0.78,36.428,17.367,29.778,23.258,7.944,6.219,6.138
459,0.767,36.582,17.359,29.797,23.254,7.864,6.22,6.26
460,0.767,36.641,17.395,29.798,23.261,7.782,6.18,6.139
461,0.754,36.211,17.434,29.759,23.251,7.659,6.017,6.098
462,0.748,36.35,17.38,29.807,23.254,7.82,6.178,6.097
463,0.738,36.486,17.379,29.779,23.254,7.863,6.057,6.138
464,0.734,36.545,17.41,29.797,23.251,7.904,6.056,6.098
465,0.744,36.152,17.407,29.769,23.244,7.985,6.056,6.056
466,0.744,36.33,17.414,29.778,23.258,8.149,6.137,6.219
467,0.754,36.466,17.43,29.836,23.268,8.476,6.219,6.22
468,0.744,36.477,17.403,29.779,23.254,8.601,6.139,6.18
469,0.744,36.113,17.344,29.788,23.258,8.765,6.179,6.139
470,0.747,36.253,17.387,29.817,23.254,9.173,6.22,6.179
471,0.747,36.379,17.446,29.788,23.261,9.421,6.139,6.139
472,0.747,36.4,17.317,29.798,23.254,9.586,6.138,5.976
473,0.747,36.17,17.355,29.778,23.244,9.832,6.179,6.096
474,0.734,36.311,17.387,29.797,23.251,10.078,6.139,6.138
475,0.725,36.428,17.453,29.798,23.251,10.243,6.057,6.138
476,0.715,36.256,17.427,29.788,23.247,10.408,6.097,6.057
477,0.702,36.226,17.391,29.769,23.247,10.491,6.097,6.097
478,0.698,36.398,17.41,29.817,23.261,10.776,6.26,6.3
479,0.708,36.515,17.383,29.807,23.265,10.738,6.18,6.14
480,0.689,35.998,17.375,29.788,23.258,10.86,6.139,6.138
481,0.669,36.099,17.445,29.798,23.258,10.942,6.138,6.138
482,0.662,36.224,17.36,29.798,23.261,10.984,6.138,6.219
483,0.662,36.341,17.371,29.807,23.258,11.025,6.057,6.139
484,0.682,36.064,17.406,29.769,23.251,10.903,6.015,6.016
485,0.688,36.205,17.414,29.778,23.254,11.065,6.178,6.096
486,0.682,36.331,17.418,29.778,23.254,10.985,6.139,6.097
487,0.685,36.428,17.379,29.788,23.251,10.944,6.057,6.056
488,0.692,36.017,17.395,29.788,23.244,10.984,6.097,6.056
489,0.688,36.147,17.403,29.788,23.251,10.944,6.219,6.178
490,0.708,36.301,17.399,29.836,23.268,11.065,6.22,6.22
491,0.708,36.361,17.426,29.769,23.251,10.904,6.139,6.098
492,0.695,36.131,17.387,29.817,23.254,10.821,6.138,6.178
493,0.701,36.273,17.371,29.779,23.261,10.739,6.138,6.139
494,0.701,36.379,17.43,29.807,23.258,10.657,6.179,6.26
495,0.682,36.438,17.407,29.807,23.258,10.574,6.179,6.099
496,0.685,36.122,17.426,29.788,23.244,10.411,6.057,5.975
497,0.675,36.234,17.368,29.788,23.258,10.369,6.219,6.177
498,0.682,36.379,17.414,29.778,23.258,10.287,6.098,6.098
499,0.672,36.371,17.387,29.788,23.254,10.245,6.138,6.097
500,0.682,36.064,17.383,29.788,23.251,10.164,6.138,6.016
501,0.675,36.195,17.43,29.769,23.247,10.082,6.179,6.137
502,0.688,36.321,17.376,29.807,23.265,10.325,6.342,6.219
503,0.685,36.303,17.406,29.817,23.254,10.083,6.181,6.139
504,0.672,36.15,17.36,29.798,23.254,10.081,6.22,6.138
505,0.691,36.263,17.414,29.798,23.258,10.04,6.22,6.138
506,0.698,36.37,17.411,29.798,23.265,10.162,6.261,6.138
507,0.701,36.016,17.415,29.798,23.258,10.122,6.262,6.057
508,0.698,36.08,17.395,29.788,23.254,9.919,6.099,5.934
509,0.679,36.176,17.383,29.798,23.254,10.079,6.219,6.136
510,0.701,36.311,17.364,29.798,23.251,9.999,6.18,6.057
511,0.705,36.025,17.414,29.769,23.254,9.917,6.179,6.015
512,0.708,36.185,17.376,29.769,23.247,9.794,6.057,5.974
513,0.685,36.283,17.367,29.778,23.251,9.834,6.259,6.137
514,0.685,36.399,17.426,29.817,23.268,9.956,6.262,6.179
515,0.695,35.959,17.403,29.798,23.254,9.754,6.139,6.098
516,0.688,36.098,17.411,29.778,23.254,9.712,6.179,6.138
517,0.682,36.205,17.383,29.797,23.254,9.589,6.261,6.179
518,0.695,36.292,17.422,29.798,23.261,9.588,6.18,6.139
519,0.705,36.092,17.321,29.798,23.265,9.466,6.179,6.098
520,0.689,36.205,17.375,29.759,23.248,9.302,6.098,5.975
521,0.669,36.321,17.43,29.797,23.254,9.301,6.138,6.055
522,0.659,36.38,17.337,29.807,23.254,9.26,6.098,6.056
523,0.669,36.035,17.363,29.779,23.247,9.178,6.138,6.015
524,0.672,36.176,17.41,29.797,23.251,9.218,6.138,5.974
525,0.678,36.273,17.43,29.788,23.254,9.178,6.138,6.096
526,0.698,36.36,17.415,29.817,23.265,9.259,6.301,6.219
527,0.708,36.112,17.368,29.798,23.254,9.015,6.18,6.058
528,0.711,36.205,17.352,29.798,23.258,9.013,6.139,6.097
529,0.705,36.34,17.32,29.807,23.254,9.013,6.219,6.097
530,0.711,36.572,17.386,29.807,23.258,9.013,6.18,6.056
531,0.718,36.133,17.43,29.798,23.258,9.054,6.139,6.015
532,0.711,36.225,17.356,29.778,23.247,8.932,6.016,5.974
533,0.711,36.36,17.398,29.788,23.254,9.093,6.056,6.096
534,0.708,36.035,17.426,29.778,23.254,9.136,6.097,6.138
535,0.702,36.051,17.434,29.788,23.254,9.258,6.056,6.057
536,0.695,36.185,17.368,29.788,23.247,9.219,6.056,6.015
537,0.692,36.273,17.356,29.778,23.247,9.381,6.137,6.056
538,0.698,35.996,17.387,29.817,23.265,9.545,6.26,6.219
539,0.714,36.166,17.317,29.817,23.254,9.466,6.139,6.098
540,0.702,36.244,17.386,29.788,23.258,9.505,6.179,6.056
541,0.698,36.322,17.422,29.788,23.258,9.506,6.139,6.178
542,0.705,35.948,17.407,29.836,23.254,9.546,6.219,6.139
543,0.698,36.079,17.383,29.808,23.258,9.506,6.139,6.138
544,0.708,36.176,17.399,29.759,23.244,9.343,6.016,6.016
545,0.698,36.244,17.457,29.788,23.254,9.586,6.056,6.096
546,0.708,35.996,17.395,29.788,23.247,9.425,6.015,6.056
547,0.698,36.108,17.379,29.778,23.247,9.464,6.056,6.015
548,0.698,36.244,17.363,29.778,23.251,9.383,6.056,6.056
549,0.724,36.283,17.324,29.769,23.251,9.464,6.137,6.137
550,0.747,35.967,17.394,29.817,23.268,9.505,6.219,6.138
551,0.728,36.07,17.41,29.779,23.251,9.384,6.139,6.098
552,0.731,36.186,17.352,29.797,23.258,9.342,6.138,6.138
553,0.76,36.244,17.383,29.788,23.258,9.423,6.138,6.098
554,0.78,35.948,17.395,29.807,23.261,9.424,6.179,6.138
555,0.8,36.088,17.438,29.779,23.247,9.342,6.017,6.057
556,0.816,36.167,17.364,29.769,23.251,9.423,6.137,6.178
557,0.836,36.187,17.422,29.788,23.251,9.505,6.098,6.139
558,0.869,36.081,17.407,29.769,23.251,9.506,6.056,6.179
559,0.879,36.195,17.356,29.778,23.251,9.546,6.097,6.098
560,0.898,36.302,17.383,29.778,23.254,9.669,6.138,6.219
561,0.882,36.025,17.434,29.826,23.265,9.873,6.26,6.342
562,0.937,35.993,17.321,29.808,23.254,9.753,6.139,6.262
563,0.938,36.108,17.39,29.798,23.251,9.752,6.138,6.221
564,0.967,36.205,17.391,29.788,23.258,9.915,6.219,6.22
565,0.99,35.995,17.449,29.778,23.254,9.957,6.139,6.302
566,1.036,36.108,17.376,29.807,23.261,9.957,6.057,6.221
567,1.095,36.205,17.387,29.759,23.244,9.876,6.015,6.139
568,1.135,36.331,17.387,29.816,23.254,9.997,6.137,6.301
569,1.203,35.795,17.371,29.798,23.251,9.999,6.057,6.343
570,1.253,35.934,17.379,29.788,23.247,9.917,6.056,6.303
571,1.296,36.031,17.414,29.798,23.244,9.957,6.015,6.302
572,1.332,36.128,17.379,29.798,23.258,9.998,6.259,6.506
573,1.342,35.985,17.395,29.836,23.265,10.039,6.221,6.386
574,1.339,36.098,17.414,29.779,23.258,9.836,6.139,6.425
575,1.329,36.205,17.426,29.797,23.258,9.916,6.138,6.507
576,1.358,36.273,17.368,29.798,23.254,9.835,6.179,6.508
577,1.368,35.881,17.426,29.807,23.258,9.834,6.179,6.549
578,1.368,36.03,17.395,29.807,23.261,9.712,6.098,6.508
579,1.352,36.137,17.407,29.759,23.241,9.589,5.975,6.386
580,1.326,36.167,17.414,29.769,23.251,9.669,6.137,6.547
581,1.329,35.976,17.411,29.778,23.254,9.629,6.098,6.549
582,1.319,36.127,17.426,29.797,23.247,9.466,6.056,6.549
583,1.283,36.205,17.364,29.769,23.244,9.465,6.056,6.549
584,1.224,36.216,17.406,29.769,23.258,9.424,6.137,6.793
585,1.188,35.919,17.442,29.817,23.268,9.383,6.138,6.795
586,1.126,36.031,17.388,29.788,23.254,9.301,6.179,6.877
587,1.077,36.118,17.387,29.778,23.254,9.26,6.179,7.04
588,1.05,36.071,17.379,29.797,23.261,9.259,6.139,7.286
589,1.004,35.936,17.375,29.798,23.258,9.219,6.138,7.573
590,0.955,36.06,17.367,29.807,23.251,9.015,6.098,7.616
591,0.88,36.118,17.422,29.769,23.247,9.013,6.097,7.942
592,0.82,35.946,17.333,29.788,23.251,9.013,6.056,8.108
593,0.784,36.021,17.371,29.769,23.254,8.972,6.056,8.313
594,0.732,36.147,17.383,29.788,23.251,8.931,6.056,8.559
595,0.692,36.225,17.406,29.778,23.251,8.809,6.056,8.846
596,0.656,35.823,17.36,29.807,23.258,8.97,6.178,9.174
597,0.629,35.991,17.422,29.826,23.265,8.972,6.179,9.137
598,0.59,36.089,17.36,29.779,23.254,8.769,6.179,9.299
599,0.56,36.167,17.285,29.807,23.254,8.807,6.139,9.423
600,0.573,35.822,17.37,29.798,23.258,8.848,6.138,9.464
601,0.58,35.972,17.453,29.798,23.258,8.849,6.179,9.587
602,0.606,36.108,17.302,29.798,23.254,8.767,6.017,9.466
603,0.629,36.128,17.359,29.769,23.244,8.685,5.974,9.668
604,0.671,36.071,17.414,29.797,23.254,8.847,6.055,9.629
605,0.708,36.166,17.411,29.798,23.254,8.808,6.015,9.751
606,0.737,36.283,17.407,29.798,23.251,8.848,6.015,9.915
607,0.767,36.322,17.387,29.778,23.247,8.808,6.015,10.039
608,0.767,35.737,17.391,29.788,23.258,8.97,6.178,10.406
609,0.796,35.923,17.414,29.817,23.261,8.931,6.139,10.572
610,0.797,36.002,17.387,29.779,23.258,8.89,6.057,10.899
611,0.81,36.032,17.414,29.788,23.261,8.849,6.097,11.024
612,0.81,35.878,17.376,29.788,23.261,8.93,6.138,11.31
613,0.816,36.021,17.391,29.798,23.254,8.972,6.138,11.557
614,0.787,36.108,17.438,29.788,23.254,8.931,5.976,11.64
615,0.777,36.359,17.403,29.759,23.244,9.012,6.096,11.926
616,0.787,35.949,17.422,29.797,23.254,9.094,6.016,12.051
617,0.79,36.05,17.383,29.788,23.258,9.217,5.974,12.093
618,0.767,36.166,17.403,29.759,23.247,9.34,6.015,12.134
619,0.777,35.861,17.352,29.778,23.251,9.504,6.056,12.215
620,0.787,35.925,17.383,29.797,23.268,9.872,6.219,12.338
621,0.764,36.088,17.442,29.798,23.254,9.916,6.058,12.217
622,0.757,36.138,17.341,29.788,23.251,10.039,6.097,12.135
623,0.774,35.784,17.379,29.788,23.254,10.121,6.138,12.053
624,0.767,35.914,17.406,29.817,23.265,10.163,6.098,12.133
625,0.777,36.031,17.469,29.798,23.258,10.244,6.016,11.931
626,0.774,36.109,17.388,29.798,23.244,10.164,5.852,11.726
627,0.758,35.716,17.391,29.778,23.251,10.244,6.054,11.764
628,0.77,35.875,17.383,29.788,23.258,10.286,6.015,11.602
629,0.78,36.011,17.414,29.798,23.254,10.245,5.974,11.6
630,0.784,36.08,17.376,29.778,23.251,10.245,5.974,11.356
631,0.787,35.802,17.399,29.769,23.247,10.164,6.015,11.354
632,0.797,35.982,17.383,29.797,23.261,10.326,6.178,11.395
633,0.807,36.127,17.395,29.788,23.254,10.246,6.057,11.192
634,0.797,36.148,17.434,29.778,23.258,10.204,6.097,11.027
635,0.777,35.707,17.43,29.778,23.254,10.245,6.016,10.944
636,0.777,35.866,17.426,29.797,23.261,10.245,6.096,10.943
637,0.784,35.963,17.43,29.788,23.258,10.204,6.056,10.74
638,0.79,36.012,17.442,29.769,23.247,10.001,5.893,10.494
639,0.751,35.782,17.352,29.74,23.254,10.039,5.973,10.532
640,0.757,35.953,17.375,29.778,23.251,9.958,6.015,10.329
641,0.754,36.06,17.422,29.788,23.254,9.917,6.096,10.246
642,0.748,36.061,17.352,29.769,23.251,9.794,6.016,10.164
643,0.751,35.85,17.359,29.778,23.251,9.712,6.056,10.082
644,0.77,35.972,17.41,29.826,23.261,9.792,6.219,10.121
645,0.79,36.098,17.481,29.808,23.258,9.549,6.098,9.837
646,0.787,35.927,17.376,29.798,23.258,9.506,6.016,9.794
647,0.79,35.916,17.391,29.788,23.251,9.425,6.015,9.753
648,0.79,36.05,17.418,29.798,23.251,9.383,6.137,9.59
649,0.79,36.138,17.411,29.798,23.254,9.301,6.138,9.629
650,0.8,35.649,17.36,29.778,23.251,9.056,6.057,9.263
651,0.784,35.702,17.387,29.759,23.251,9.054,6.097,9.3
652,0.8,35.856,17.387,29.797,23.258,9.013,6.056,9.219
653,0.79,35.934,17.356,29.778,23.251,8.891,6.097,9.137
654,0.771,35.858,17.402,29.778,23.251,8.849,6.056,8.974
655,0.79,35.982,17.375,29.778,23.254,8.727,6.097,8.931
656,0.787,36.146,17.383,29.817,23.265,8.766,6.219,8.972
657,0.787,36.254,17.422,29.807,23.254,8.563,6.139,8.85
658,0.767,35.727,17.391,29.779,23.251,8.521,6.138,8.808
659,0.774,35.856,17.43,29.797,23.258,8.601,6.098,8.686
660,0.78,36.011,17.384,29.807,23.258,8.44,6.219,8.684
661,0.777,36.06,17.414,29.798,23.261,8.397,6.22,8.562
662,0.777,35.764,17.407,29.778,23.258,8.194,6.058,8.399
663,0.771,35.876,17.379,29.769,23.247,8.314,6.097,8.397
664,0.78,35.982,17.442,29.778,23.254,8.234,6.016,8.397
665,0.787,36.051,17.364,29.769,23.251,8.151,6.137,8.275
666,0.784,35.629,17.363,29.778,23.254,8.11,6.057,8.152
667,0.78,35.759,17.356,29.778,23.251,8.109,6.056,8.232
668,0.8,35.904,17.379,29.817,23.265,8.272,6.259,8.395
669,0.813,35.954,17.414,29.855,23.261,8.03,6.139,8.194
670,0.81,35.926,17.364,29.798,23.254,8.068,6.138,8.11
671,0.807,36.05,17.445,29.778,23.258,8.069,6.179,8.109
672,0.794,36.157,17.446,29.836,23.258,8.109,6.22,7.987
673,0.806,35.985,17.403,29.808,23.265,8.109,6.22,7.986
674,0.797,35.648,17.434,29.759,23.248,7.947,6.058,7.783
675,0.787,35.759,17.407,29.769,23.254,8.108,6.137,7.903
676,0.79,35.876,17.403,29.797,23.254,8.15,6.138,7.863
677,0.78,35.666,17.356,29.788,23.254,8.069,6.057,7.782
678,0.784,35.76,17.379,29.769,23.251,8.15,6.097,7.7
679,0.787,35.876,17.391,29.797,23.251,8.15,6.138,7.74
680,0.79,36.002,17.391,29.817,23.265,8.354,6.301,7.862
681,0.784,36.012,17.438,29.807,23.261,8.275,6.14,7.7
682,0.777,36.128,17.415,29.807,23.265,8.314,6.219,7.699
683,0.78,36.263,17.387,29.798,23.254,8.356,6.139,7.699
684,0.787,36.341,17.43,29.798,23.261,8.437,6.219,7.618
685,0.797,35.536,17.43,29.778,23.261,8.438,6.22,7.495
686,0.787,35.672,17.387,29.759,23.251,8.316,6.098,7.331
687,0.774,35.789,17.364,29.788,23.247,8.477,6.178,7.492
688,0.8,35.876,17.398,29.788,23.251,8.438,6.139,7.453
689,0.826,35.637,17.403,29.778,23.254,8.479,6.138,7.371
690,0.817,35.769,17.387,29.778,23.251,8.398,6.057,7.33
691,0.807,35.876,17.418,29.769,23.254,8.397,6.137,7.37
692,0.813,35.963,17.407,29.836,23.268,8.478,6.26,7.452
693,0.826,35.839,17.414,29.779,23.261,8.438,6.139,7.29
694,0.82,35.953,17.442,29.797,23.254,8.316,6.138,7.288
695,0.823,36.089,17.411,29.798,23.254,8.356,6.219,7.247
696,0.82,36.119,17.418,29.798,23.254,8.315,6.098,7.206
697,0.826,35.688,17.403,29.807,23.261,8.315,6.178,7.206
698,0.826,35.798,17.407,29.769,23.251,8.193,6.057,7.084
699,0.807,35.905,17.352,29.788,23.251,8.192,6.137,7.123
700,0.807,36.289,17.375,29.798,23.258,8.232,6.138,7.124
701,0.8,35.747,17.43,29.769,23.251,8.151,6.098,7.124
702,0.794,35.875,17.36,29.769,23.254,8.15,6.016,6.961
703,0.8,35.954,17.387,29.797,23.254,8.313,6.218,7.163
704,0.807,35.705,17.418,29.826,23.268,8.518,6.22,7.206
705,0.826,35.712,17.43,29.798,23.258,8.52,6.139,7.043
706,0.81,35.827,17.372,29.798,23.258,8.683,6.098,7.042
707,0.842,35.924,17.395,29.798,23.254,8.766,6.138,7.082
708,0.862,35.638,17.418,29.798,23.258,8.848,6.219,7.083
709,0.833,35.798,17.376,29.807,23.251,8.889,6.139,6.961
710,0.836,35.895,17.383,29.769,23.247,8.809,5.976,6.919
711,0.83,35.963,17.422,29.788,23.261,9.092,6.137,6.919
712,0.846,35.542,17.387,29.798,23.254,9.014,6.016,6.919
713,0.849,35.701,17.391,29.788,23.254,9.094,6.056,6.837
714,0.82,35.808,17.442,29.778,23.251,9.054,6.097,6.877
715,0.813,35.895,17.407,29.797,23.258,9.135,6.138,7.04
716,0.836,35.666,17.438,29.836,23.272,9.38,6.301,6.96
717,0.82,35.788,17.391,29.808,23.255,9.261,6.099,6.878
718,0.817,35.914,17.43,29.807,23.251,9.219,6.138,7.0
719,0.813,35.964,17.399,29.826,23.258,9.178,6.138,6.96
720,0.81,35.58,17.391,29.798,23.261,9.177,6.138,6.878
721,0.826,35.711,17.446,29.798,23.261,9.096,6.057,6.837
722,0.807,35.818,17.368,29.826,23.244,8.973,5.975,6.796
723,0.797,35.867,17.402,29.779,23.254,9.013,6.096,6.836
724,0.803,35.723,17.407,29.797,23.247,8.972,6.056,6.837
725,0.826,35.837,17.426,29.798,23.247,8.931,6.056,6.837
726,0.836,35.944,17.415,29.798,23.244,8.89,5.975,6.837
727,0.843,35.964,17.395,29.788,23.251,8.971,6.177,6.918
728,0.849,35.619,17.418,29.817,23.268,8.972,6.261,6.959
729,0.856,35.73,17.415,29.798,23.254,8.891,6.058,6.878
730,0.84,35.837,17.399,29.798,23.254,8.809,6.056,6.877
731,0.856,35.704,17.371,29.788,23.258,8.848,6.137,6.877
732,0.872,35.683,17.379,29.807,23.261,8.849,6.057,6.796
733,0.879,35.789,17.371,29.798,23.261,8.849,6.097,6.755
734,0.866,35.876,17.406,29.759,23.241,8.686,5.975,6.714
735,0.856,35.512,17.372,29.807,23.254,8.766,6.096,6.794
736,0.853,35.624,17.426,29.798,23.247,8.767,6.056,6.714
737,0.846,35.73,17.38,29.778,23.251,8.767,6.015,6.754
738,0.843,35.818,17.43,29.797,23.251,8.767,6.015,6.673
739,0.83,35.454,17.321,29.836,23.261,8.848,6.096,6.875
740,0.856,35.642,17.379,29.817,23.258,8.767,6.097,6.674
741,0.83,35.721,17.434,29.817,23.251,8.685,6.056,6.753
742,0.807,35.856,17.426,29.827,23.254,8.725,6.056,6.714
743,0.82,35.57,17.372,29.817,23.261,8.726,6.097,6.713
744,0.839,35.72,17.395,29.817,23.258,8.685,6.097,6.794
745,0.865,35.827,17.403,29.788,23.244,8.562,5.975,6.592
746,0.853,35.876,17.293,29.798,23.244,8.521,6.015,6.712
747,0.866,35.465,17.382,29.817,23.258,8.561,6.015,6.632
748,0.869,35.604,17.387,29.807,23.258,8.602,6.015,6.631
749,0.866,35.73,17.399,29.798,23.251,8.562,5.974,6.631
750,0.869,35.789,17.352,29.788,23.251,8.602,6.015,6.631
751,0.869,35.617,17.379,29.836,23.268,8.765,6.218,6.753
752,0.889,35.74,17.406,29.827,23.258,8.685,6.058,6.632
753,0.879,35.837,17.426,29.817,23.251,8.644,6.056,6.55
754,0.879,35.867,17.43,29.817,23.258,8.603,6.097,6.59
755,0.876,35.522,17.341,29.817,23.258,8.643,6.097,6.59
756,0.872,35.653,17.402,29.827,23.258,8.644,6.056,6.509
757,0.866,35.76,17.403,29.788,23.244,8.481,5.853,6.467
758,0.853,35.809,17.391,29.807,23.258,8.682,6.013,6.426
759,0.869,35.704,17.289,29.817,23.258,8.562,6.056,6.466
760,0.866,35.808,17.382,29.798,23.251,8.521,5.975,6.426
761,0.856,35.895,17.449,29.798,23.251,8.479,5.974,6.548
762,0.853,35.484,17.423,29.855,23.258,8.601,6.137,6.59
763,0.875,35.576,17.387,29.856,23.265,8.602,6.138,6.549
764,0.872,35.682,17.442,29.808,23.254,8.44,6.057,6.468
765,0.879,35.769,17.415,29.826,23.254,8.438,6.097,6.548
766,0.885,35.55,17.337,29.827,23.254,8.479,6.138,6.468
767,0.895,35.701,17.359,29.836,23.261,8.438,6.138,6.507
768,0.895,35.827,17.379,29.817,23.251,8.316,6.057,6.386
769,0.892,35.867,17.36,29.807,23.247,8.274,5.934,6.466
770,0.899,35.532,17.387,29.826,23.254,8.355,5.974,6.426
771,0.902,35.682,17.379,29.817,23.254,8.315,5.974,6.466
772,0.899,35.798,17.41,29.817,23.244,8.274,6.055,6.386
773,0.912,35.876,17.411,29.807,23.251,8.233,6.015,6.385
774,0.905,35.426,17.477,29.836,23.258,8.395,6.218,6.588
775,0.905,35.604,17.415,29.856,23.261,8.316,6.058,6.468
776,0.905,35.692,17.407,29.827,23.254,8.234,6.056,6.507
777,0.895,35.77,17.372,29.836,23.254,8.233,6.056,6.467
778,0.905,35.569,17.359,29.846,23.251,8.273,6.015,6.589
779,0.908,35.739,17.383,29.846,23.258,8.233,6.096,6.509
780,0.908,35.847,17.383,29.837,23.251,8.151,5.975,6.427
781,0.889,35.838,17.383,29.827,23.247,8.15,6.015,6.507
782,0.908,35.618,17.364,29.836,23.251,8.11,6.015,6.467
783,0.918,35.759,17.398,29.846,23.247,8.109,5.974,6.467
784,0.915,35.857,17.457,29.827,23.258,8.069,6.015,6.426
785,0.915,36.184,17.376,29.827,23.251,8.069,6.015,6.548
786,0.925,35.573,17.399,29.875,23.268,8.191,6.178,6.59
787,0.925,35.72,17.391,29.846,23.261,8.07,6.017,6.509
788,0.918,35.808,17.379,29.837,23.251,8.028,6.056,6.467
789,0.931,35.617,17.391,29.846,23.258,8.027,6.056,6.507
790,0.935,35.654,17.375,29.846,23.254,8.068,6.015,6.508
791,0.951,35.798,17.402,29.846,23.251,7.987,6.056,6.589
792,0.958,35.876,17.375,29.817,23.247,7.783,5.934,6.305
793,0.951,35.455,17.383,29.846,23.258,7.862,5.974,6.506
794,0.961,35.575,17.457,29.846,23.251,7.944,6.015,6.467
795,0.942,35.711,17.399,29.827,23.251,7.823,6.015,6.467
796,0.945,35.798,17.422,29.846,23.254,7.822,5.974,6.426
797,0.951,35.473,17.372,29.827,23.254,7.944,6.096,6.507
798,0.971,35.681,17.418,29.884,23.265,8.067,6.178,6.589
799,0.964,35.789,17.419,29.856,23.251,7.946,6.098,6.468
800,0.961,35.847,17.407,29.846,23.261,7.945,6.097,6.426
801,0.951,35.598,17.418,29.875,23.258,7.945,6.097,6.466
802,0.938,35.749,17.395,29.856,23.261,7.945,6.056,6.507
803,0.945,35.866,17.407,29.884,23.258,7.945,6.056,6.427
804,0.954,35.906,17.438,29.837,23.241,7.823,5.975,6.344
805,0.958,35.589,17.395,29.865,23.251,7.944,6.055,6.506
806,0.968,35.749,17.399,29.856,23.254,7.986,6.015,6.467
807,0.971,35.856,17.383,29.856,23.254,7.905,6.015,6.467
808,0.977,35.896,17.379,29.837,23.247,7.904,5.934,6.426
809,0.987,35.666,17.395,29.865,23.254,7.945,6.055,6.629
810,1.01,35.827,17.391,29.894,23.265,8.026,6.097,6.55
811,1.007,35.905,17.383,29.856,23.254,7.865,6.016,6.549
812,1.02,35.944,17.414,29.875,23.254,7.863,6.015,6.59
813,1.02,35.705,17.415,29.856,23.258,7.863,6.056,6.509
814,1.03,35.818,17.415,29.875,23.258,7.822,6.056,6.467
815,1.02,35.934,17.407,29.865,23.251,7.781,6.015,6.467
816,1.017,35.82,17.36,29.837,23.244,7.659,5.974,6.589
817,1.017,35.8,17.379,29.865,23.254,7.739,5.974,6.509
818,1.023,35.924,17.379,29.856,23.251,7.74,5.974,6.508
819,1.017,36.021,17.418,29.856,23.251,7.699,5.974,6.427
820,1.007,35.629,17.434,29.856,23.254,7.74,6.015,6.588
821,1.01,35.73,17.384,29.884,23.258,7.821,6.137,6.671
822,1.036,35.914,17.399,29.894,23.268,7.944,6.057,6.55
823,1.02,35.983,17.368,29.885,23.258,7.783,6.097,6.468
824,1.03,35.859,17.418,29.885,23.258,7.822,5.975,6.548
825,1.04,36.02,17.348,29.885,23.258,7.903,6.137,6.63
826,1.037,36.147,17.379,29.904,23.265,7.904,6.098,6.59
827,1.046,36.206,17.402,29.866,23.251,7.823,5.975,6.427
828,1.04,35.727,17.387,29.856,23.247,7.863,5.974,6.588
829,1.053,35.885,17.406,29.875,23.254,7.944,6.055,6.509
830,1.063,36.021,17.418,29.885,23.251,7.864,5.975,6.508
831,1.076,36.061,17.376,29.856,23.244,7.863,5.974,6.508
832,1.073,35.898,17.406,29.875,23.247,7.904,5.933,6.549
833,1.086,36.05,17.387,29.885,23.258,8.067,6.177,6.671
834,1.099,36.205,17.449,29.914,23.265,8.109,6.098,6.55
835,1.089,36.225,17.368,29.895,23.254,8.069,6.056,6.59
836,1.07,35.986,17.371,29.885,23.254,7.987,6.056,6.59
837,1.069,36.108,17.434,29.894,23.251,8.108,6.178,6.59
838,1.079,36.244,17.395,29.904,23.258,8.069,6.057,6.509
839,1.079,36.264,17.426,29.895,23.251,7.987,6.015,6.427
840,1.07,37.012,17.395,29.866,23.247,7.946,6.015,6.466
841,1.073,37.154,17.453,29.894,23.254,7.945,6.056,6.507
842,1.083,37.299,17.431,29.885,23.251,7.986,6.137,6.508
843,1.073,36.764,17.403,29.875,23.251,7.946,5.976,6.508
844,1.076,35.78,17.411,29.875,23.244,7.864,6.096,6.427
845,1.089,35.914,17.411,29.894,23.261,7.985,6.219,6.588
846,1.105,36.059,17.395,29.933,23.265,8.027,6.22,6.509
847,1.112,36.31,17.371,29.904,23.254,7.905,6.098,6.508
848,1.125,36.447,17.387,29.904,23.247,7.985,6.097,6.508
849,1.109,36.583,17.395,29.904,23.254,7.946,6.138,6.508
850,1.115,36.68,17.426,29.914,23.251,8.026,6.219,6.467
851,1.122,36.192,17.341,29.914,23.254,7.987,6.139,6.426
852,1.116,36.292,17.371,29.876,23.244,8.027,6.138,6.466
853,1.135,36.447,17.391,29.894,23.251,8.027,6.098,6.345
854,1.138,36.515,17.461,29.904,23.247,8.027,6.056,6.384
855,1.122,36.324,17.36,29.885,23.254,7.987,6.056,6.344
856,1.116,36.476,17.387,29.885,23.251,8.068,6.056,6.303
857,1.115,36.621,17.387,29.923,23.265,8.231,6.219,6.465
858,1.128,36.709,17.356,29.923,23.261,8.192,6.139,6.345
859,1.125,36.422,17.363,29.914,23.258,8.151,6.138,6.425
860,1.129,36.573,17.379,29.923,23.258,8.11,6.179,6.426
861,1.103,36.67,17.406,29.904,23.261,8.232,6.139,6.466
862,1.099,36.738,17.418,29.923,23.258,8.151,6.138,6.426
863,1.096,36.47,17.368,29.904,23.251,8.069,5.976,6.182
864,1.096,36.573,17.426,29.885,23.251,8.109,6.137,6.301
865,1.115,36.708,17.395,29.894,23.258,8.109,6.098,6.343
866,1.115,36.729,17.407,29.914,23.251,8.109,6.097,6.221
867,1.109,37.046,17.387,29.904,23.251,8.028,6.097,6.261
868,1.099,37.164,17.375,29.904,23.251,8.027,6.097,6.262
869,1.109,37.29,17.391,29.942,23.261,8.231,6.26,6.505
870,1.132,37.569,17.407,29.933,23.251,8.111,6.139,6.386
871,1.132,36.45,17.375,29.933,23.258,8.028,6.138,6.263
872,1.125,36.563,17.379,29.914,23.254,8.19,6.179,6.262
873,1.106,36.689,17.406,29.923,23.254,8.192,6.179,6.302
874,1.106,36.7,17.438,29.923,23.268,8.232,6.261,6.302
875,1.099,36.748,17.376,29.914,23.248,8.111,5.936,6.18
876,1.083,36.873,17.402,29.904,23.251,8.313,6.136,6.261
877,1.089,36.98,17.418,29.923,23.254,8.356,6.138,6.262
878,1.066,36.569,17.379,29.923,23.251,8.315,6.138,6.221
879,1.056,36.68,17.371,29.904,23.244,8.356,6.138,6.18
880,1.037,36.805,17.34,29.904,23.251,8.437,6.179,6.301
881,1.043,36.931,17.426,29.952,23.268,8.601,6.261,6.465
882,1.02,36.683,17.391,29.933,23.258,8.521,6.139,6.345
883,1.017,36.805,17.368,29.933,23.251,8.601,6.179,6.303
884,1.007,36.922,17.418,29.952,23.254,8.562,6.179,6.302
885,1.017,37.019,17.399,29.933,23.258,8.643,6.22,6.262
886,1.03,36.655,17.434,29.952,23.261,8.562,6.139,6.302
887,0.984,36.786,17.384,29.895,23.244,8.439,6.098,6.18
888,0.981,36.902,17.414,29.942,23.254,8.601,6.138,6.261
889,0.984,36.98,17.383,29.924,23.254,8.602,6.138,6.262
890,0.984,36.789,17.395,29.923,23.247,8.521,6.138,6.221
891,0.971,36.922,17.356,29.914,23.251,8.52,6.098,6.18
892,0.977,37.028,17.371,29.923,23.251,8.642,6.178,6.301
893,0.977,37.097,17.418,29.971,23.268,8.765,6.423,6.343
894,0.955,36.925,17.434,29.943,23.258,8.645,6.182,6.262
895,0.941,37.048,17.333,29.952,23.251,8.603,6.139,6.221
896,0.945,37.174,17.398,29.953,23.258,8.602,6.219,6.261
897,0.928,37.165,17.418,29.962,23.254,8.602,6.18,6.302
898,0.912,36.945,17.415,29.943,23.258,8.602,6.179,6.221
899,0.895,37.048,17.415,29.933,23.247,8.44,6.057,6.139
900,0.886,37.154,17.368,29.952,23.254,8.438,6.137,6.219
901,0.889,37.031,17.43,29.953,23.247,8.479,6.138,6.22
902,0.879,36.962,17.391,29.953,23.247,8.398,6.179,6.139
903,0.866,37.077,17.391,29.943,23.251,8.397,6.139,6.219
904,0.859,37.174,17.391,29.972,23.258,8.478,6.26,6.302
905,0.869,36.925,17.438,29.972,23.268,8.52,6.221,6.262
906,0.866,36.99,17.411,29.953,23.261,8.398,6.139,6.18
907,0.879,37.125,17.387,29.972,23.265,8.356,6.179,6.22
908,0.869,37.203,17.387,29.972,23.258,8.397,6.179,6.302
909,0.869,36.916,17.391,29.972,23.258,8.316,6.179,6.302
910,0.869,37.047,17.434,29.962,23.251,8.315,6.139,6.14
911,0.859,37.126,17.376,29.933,23.244,8.193,6.098,6.219
912,0.859,37.251,17.395,29.952,23.251,8.314,6.138,6.22
913,0.856,36.878,17.442,29.953,23.251,8.274,6.179,6.18
914,0.833,37.018,17.411,29.933,23.247,8.193,6.098,6.098
915,0.817,37.135,17.278,29.962,23.251,8.232,6.016,6.138
916,0.807,37.213,17.366,29.972,23.265,8.233,6.218,6.301
917,0.82,37.089,17.367,29.972,23.265,8.151,6.139,6.18
918,0.82,37.193,17.383,29.953,23.254,8.191,6.138,6.261
919,0.826,37.319,17.383,29.953,23.254,8.151,6.179,6.262
920,0.813,37.378,17.399,29.972,23.254,8.11,6.179,6.221
921,0.8,36.927,17.414,29.972,23.261,8.069,6.179,6.261
922,0.777,37.076,17.399,29.981,23.254,8.028,6.098,6.18
923,0.761,37.145,17.371,29.943,23.24,7.865,6.097,6.179
924,0.777,37.194,17.438,29.962,23.251,8.026,6.138,6.22
925,0.771,37.069,17.442,29.972,23.251,7.946,6.138,6.18
926,0.78,37.202,17.399,29.962,23.247,7.823,6.057,6.139
927,0.774,37.29,17.371,29.953,23.254,7.822,6.097,6.179
928,0.79,37.349,17.391,29.981,23.258,8.025,6.178,6.383
929,0.797,37.09,17.395,29.991,23.261,7.824,6.139,6.303
930,0.794,37.174,17.438,29.972,23.261,7.863,6.138,6.262
931,0.81,37.28,17.38,29.972,23.251,7.904,6.098,6.221
932,0.816,36.927,17.383,29.991,23.258,7.945,6.138,6.261
933,0.794,36.971,17.414,29.972,23.265,7.945,6.179,6.221
934,0.79,37.096,17.426,29.962,23.258,7.823,6.017,6.18
935,0.78,37.155,17.391,29.972,23.247,7.822,6.056,6.22
936,0.767,37.021,17.352,29.981,23.254,8.025,6.056,6.22
937,0.757,37.154,17.383,29.982,23.251,7.987,6.097,6.18
938,0.764,37.251,17.364,29.962,23.247,7.986,5.975,6.22
939,0.754,37.339,17.398,29.972,23.247,8.068,6.096,6.302
940,0.754,36.831,17.375,30.02,23.265,8.272,6.219,6.425
941,0.78,36.989,17.41,30.011,23.261,8.193,6.18,6.222
942,0.764,37.096,17.411,30.001,23.258,8.314,6.179,6.261
943,0.757,37.155,17.399,29.982,23.258,8.274,6.139,6.262
944,0.735,36.925,17.43,30.01,23.265,8.396,6.179,6.262
945,0.783,37.067,17.419,30.001,23.258,8.316,6.179,6.302
946,0.78,37.174,17.403,29.963,23.247,8.274,6.017,6.14
947,0.764,37.213,17.391,29.972,23.251,8.355,6.137,6.219
948,0.77,36.983,17.383,29.991,23.254,8.275,6.138,6.22
949,0.757,37.115,17.395,29.991,23.251,8.355,6.138,6.18
950,0.767,37.213,17.438,29.982,23.251,8.234,6.098,6.098
951,0.767,37.223,17.368,29.982,23.251,8.355,6.219,6.26
952,0.8,37.022,17.426,30.02,23.268,8.519,6.302,6.343
953,0.771,37.135,17.403,30.001,23.254,8.439,6.221,6.262
954,0.78,37.222,17.434,30.011,23.254,8.479,6.18,6.221
955,0.767,37.405,17.384,30.02,23.251,8.479,6.179,6.261
956,0.774,37.081,17.387,30.001,23.258,8.479,6.22,6.221
957,0.761,37.174,17.426,30.02,23.254,8.52,6.18,6.18
958,0.751,37.271,17.372,29.972,23.244,8.398,6.098,6.22
959,0.748,37.032,17.414,30.02,23.261,8.478,6.26,6.18
960,0.751,37.029,17.422,30.02,23.254,8.56,6.099,6.22
961,0.741,37.125,17.368,30.001,23.247,8.439,6.138,6.139
962,0.734,37.251,17.398,29.991,23.251,8.519,6.138,6.138
963,0.734,36.917,17.407,30.049,23.265,8.723,6.341,6.423
964,0.751,37.057,17.434,30.04,23.261,8.685,6.181,6.222
965,0.767,37.174,17.384,30.049,23.254,8.644,6.22,6.261
966,0.754,37.251,17.41,30.011,23.261,8.603,6.18,6.221
967,0.764,36.907,17.43,30.03,23.254,8.684,6.22,6.139
968,0.774,37.057,17.43,30.04,23.261,8.603,6.22,6.26
969,0.774,37.164,17.407,30.04,23.254,8.521,6.058,6.017
970,0.758,37.213,17.375,30.02,23.254,8.561,6.137,6.218
971,0.774,37.022,17.391,30.02,23.247,8.521,6.098,6.139
972,0.78,37.183,17.407,30.011,23.251,8.52,6.097,6.098
973,0.784,37.29,17.383,30.011,23.247,8.601,6.097,6.097
974,0.774,37.32,17.414,30.02,23.251,8.602,6.138,6.178
975,0.761,37.042,17.356,30.049,23.261,8.765,6.301,6.301
976,0.774,37.212,17.418,30.068,23.261,8.685,6.18,6.099
977,0.758,37.271,17.422,30.05,23.254,8.684,6.179,6.178
978,0.744,37.339,17.411,30.04,23.251,8.766,6.098,6.179
979,0.744,37.023,17.43,30.04,23.258,8.726,6.219,6.179
980,0.747,37.164,17.415,30.04,23.265,8.807,6.18,6.22
981,0.728,37.271,17.395,30.04,23.248,8.726,6.139,6.058
982,0.738,37.281,17.391,30.02,23.251,8.685,6.138,6.137
983,0.751,36.984,17.371,30.049,23.258,8.807,6.179,6.219
984,0.738,37.115,17.453,30.04,23.254,8.645,6.098,6.139
985,0.734,37.222,17.392,30.04,23.244,8.684,6.097,6.138
986,0.734,37.137,17.395,30.04,23.251,8.725,6.097,6.179
987,0.751,37.117,17.391,30.059,23.265,8.807,6.3,6.342
988,0.77,37.26,17.403,30.069,23.261,8.604,6.14,6.221
989,0.764,37.348,17.426,30.04,23.254,8.602,6.179,6.302
990,0.777,36.918,17.426,30.059,23.254,8.562,6.139,6.262
991,0.777,37.019,17.38,30.03,23.258,8.643,6.179,6.262
992,0.784,37.125,17.402,30.059,23.254,8.481,6.139,6.139
993,0.774,37.193,17.434,30.03,23.251,8.357,6.016,6.098
994,0.744,36.964,17.419,30.03,23.258,8.397,6.096,6.178
995,0.754,37.125,17.415,30.059,23.254,8.397,6.097,6.179
996,0.774,37.251,17.383,30.049,23.251,8.438,6.016,6.179
997,0.738,37.329,17.438,30.049,23.247,8.275,6.056,6.22
998,0.728,36.985,17.368,30.049,23.258,8.314,6.178,6.261
999,0.757,37.163,17.43,30.097,23.265,8.437,6.22,6.343
1000,0.77,37.271,17.415,30.069,23.258,8.275,6.18,6.221
1001,0.754,37.329,17.368,30.059,23.258,8.274,6.139,6.302
1002,0.761,37.023,17.383,30.078,23.258,8.314,6.219,6.343
1003,0.744,37.125,17.422,30.078,23.261,8.274,6.22,6.384
1004,0.747,37.251,17.454,30.088,23.254,8.193,6.139,6.263
1005,0.76,37.271,17.368,30.04,23.244,8.029,5.976,6.139
1006,0.757,37.013,17.391,30.078,23.254,8.19,6.177,6.301
1007,0.761,37.144,17.387,30.069,23.254,8.11,6.139,6.302
1008,0.774,37.27,17.379,30.069,23.244,8.069,6.138,6.221
1009,0.784,37.272,17.391,30.05,23.251,8.191,6.138,6.18
1010,0.78,37.051,17.383,30.068,23.258,8.273,6.179,6.342
1011,0.797,37.212,17.399,30.107,23.265,8.396,6.139,6.384
1012,0.794,37.329,17.399,30.069,23.254,8.275,6.219,6.303
1013,0.787,37.387,17.43,30.069,23.254,8.355,6.098,6.262
1014,0.79,36.985,17.458,30.088,23.258,8.437,6.219,6.343
1015,0.764,37.134,17.392,30.088,23.254,8.357,6.18,6.303
1016,0.764,37.242,17.399,30.098,23.254,8.397,6.098,6.221
1017,0.757,37.032,17.352,30.069,23.251,8.316,6.016,6.261
1018,0.777,37.154,17.414,30.069,23.251,8.396,6.096,6.221
1019,0.777,37.27,17.395,30.078,23.251,8.356,6.097,6.22
1020,0.767,37.339,17.418,30.059,23.251,8.315,6.097,6.139
1021,0.761,36.937,17.364,30.059,23.247,8.315,6.138,6.26
1022,0.751,37.067,17.418,30.107,23.258,8.396,6.179,6.384
1023,0.754,37.231,17.45,30.107,23.261,8.316,6.139,6.344
1024,0.751,37.271,17.442,30.088,23.251,8.234,6.138,6.303
1025,0.751,37.109,17.384,30.088,23.254,8.233,6.138,6.302
1026,0.761,37.26,17.383,30.098,23.258,8.273,6.179,6.343
1027,0.777,37.367,17.399,30.088,23.254,8.152,6.179,6.262
1028,0.78,37.426,17.407,30.078,23.254,8.028,5.976,6.139
1029,0.777,37.005,17.399,30.069,23.254,8.109,6.096,6.301
1030,0.8,37.144,17.426,30.107,23.251,8.069,6.138,6.262
1031,0.807,37.27,17.415,30.146,23.251,7.987,6.138,6.18
1032,0.8,37.291,17.364,30.089,23.254,7.986,6.057,6.179
1033,0.794,37.051,17.441,30.069,23.247,7.986,6.137,6.22
1034,0.8,37.193,17.411,30.107,23.265,8.068,6.26,6.424
1035,0.79,37.348,17.434,30.117,23.254,8.028,6.139,6.263
1036,0.767,37.34,17.384,30.107,23.254,7.946,6.138,6.302
1037,0.78,37.023,17.406,30.107,23.258,7.986,6.179,6.302
1038,0.764,37.173,17.418,30.107,23.258,7.946,6.22,6.302
1039,0.764,37.271,17.395,30.127,23.265,7.945,6.139,6.221
1040,0.761,37.32,17.387,30.088,23.244,7.742,6.016,6.139
1041,0.748,37.061,17.426,30.107,23.254,7.862,6.137,6.301
1042,0.754,37.212,17.415,30.117,23.251,7.863,6.138,6.262
1043,0.748,37.309,17.395,30.107,23.251,7.863,6.098,6.221
1044,0.741,37.138,17.453,30.088,23.247,7.782,6.138,6.22
1045,0.757,37.136,17.399,30.117,23.254,7.862,6.138,6.302
1046,0.774,37.328,17.399,30.146,23.268,7.985,6.26,6.343
1047,0.774,37.397,17.356,30.108,23.258,7.742,6.18,6.303
1048,0.78,37.024,17.402,30.127,23.254,7.74,6.139,6.262
1049,0.78,37.125,17.418,30.136,23.265,7.74,6.138,6.262
1050,0.784,37.251,17.446,30.127,23.258,7.781,6.179,6.302
1051,0.774,37.339,17.38,30.127,23.265,7.659,6.098,6.221
1052,0.758,36.975,17.375,30.079,23.244,7.617,6.056,6.18
1053,0.78,37.144,17.414,30.126,23.254,7.739,6.137,6.179
1054,0.78,37.242,17.426,30.098,23.251,7.699,5.976,6.179
1055,0.787,37.329,17.403,30.117,23.251,7.536,6.096,6.098
1056,0.777,36.956,17.364,30.117,23.247,7.575,6.097,6.138
1057,0.758,37.096,17.426,30.127,23.258,7.657,6.178,6.26
1058,0.774,37.27,17.426,30.165,23.261,7.698,6.179,6.262
1059,0.764,37.281,17.415,30.127,23.261,7.536,6.139,6.262
1060,0.764,37.07,17.434,30.146,23.258,7.494,6.179,6.221
1061,0.757,37.222,17.399,30.156,23.261,7.575,6.179,6.342
1062,0.754,37.338,17.414,30.156,23.251,7.616,6.139,6.262
1063,0.761,37.368,17.407,30.137,23.251,7.454,6.016,6.058
1064,0.748,36.956,17.403,30.108,23.244,7.452,6.137,6.219
1065,0.78,37.096,17.36,30.146,23.254,7.574,6.098,6.18
1066,0.78,37.203,17.375,30.137,23.254,7.535,6.097,6.139
1067,0.78,37.223,17.422,30.146,23.251,7.616,6.056,6.138
1068,0.774,37.031,17.387,30.146,23.247,7.617,6.137,6.179
1069,0.78,37.173,17.422,30.194,23.265,7.861,6.301,6.342
1070,0.787,37.319,17.442,30.175,23.258,7.741,6.099,6.181
1071,0.78,37.157,17.372,30.166,23.254,7.781,6.138,6.179
1072,0.78,37.002,17.414,30.156,23.254,7.74,6.219,6.179
1073,0.797,37.125,17.434,30.156,23.258,7.862,6.18,6.261
1074,0.787,37.232,17.45,30.175,23.261,7.822,6.22,6.18
1075,0.764,37.051,17.302,30.166,23.251,7.741,6.058,6.057
1076,0.767,37.126,17.37,30.137,23.254,7.699,6.178,6.056
1077,0.777,37.289,17.414,30.156,23.261,7.74,6.139,6.178
1078,0.761,37.368,17.411,30.165,23.251,7.699,6.098,6.179
1079,0.748,36.956,17.426,30.146,23.247,7.74,6.138,6.057
1080,0.747,37.077,17.438,30.146,23.244,7.74,6.138,6.097
1081,0.767,37.212,17.391,30.204,23.265,7.862,6.341,6.341
1082,0.774,37.309,17.426,30.185,23.258,7.782,6.181,6.14
1083,0.754,36.975,17.423,30.194,23.258,7.822,6.22,6.179
1084,0.761,37.115,17.446,30.185,23.254,7.863,6.22,6.179
1085,0.764,37.222,17.376,30.175,23.258,7.944,6.18,6.179
1086,0.754,37.3,17.391,30.194,23.258,7.945,6.139,6.261
1087,0.767,36.946,17.383,30.185,23.247,7.864,6.057,6.017
1088,0.761,37.029,17.375,30.156,23.247,7.863,6.137,6.218
1089,0.78,37.202,17.414,30.185,23.254,7.985,6.179,6.139
1090,0.774,37.252,17.418,30.194,23.251,7.946,6.098,6.138
1091,0.784,36.907,17.34,30.195,23.244,7.945,6.138,6.057
1092,0.79,37.028,17.379,30.175,23.247,7.986,6.098,6.137
1093,0.793,37.183,17.442,30.204,23.265,8.108,6.341,6.26
1094,0.79,37.232,17.434,30.195,23.251,8.028,6.14,6.139
1095,0.764,36.964,17.372,30.223,23.254,8.068,6.219,6.179
1096,0.764,37.077,17.399,30.195,23.251,8.109,6.18,6.139
1097,0.77,37.164,17.383,30.204,23.261,8.069,6.22,6.26
1098,0.757,37.318,17.414,30.214,23.261,7.987,6.22,6.139
1099,0.754,37.042,17.403,30.166,23.244,7.864,6.098,5.976
1100,0.748,37.173,17.364,30.185,23.258,7.904,6.219,6.096
1101,0.757,37.261,17.414,30.204,23.254,7.945,6.18,6.056
1102,0.757,36.945,17.391,30.204,23.254,7.823,6.139,6.056
1103,0.751,36.952,17.422,30.195,23.251,7.781,6.098,6.015
1104,0.725,37.086,17.454,30.204,23.258,7.822,6.26,6.137
1105,0.741,37.222,17.427,30.233,23.272,7.863,6.343,6.179
1106,0.754,36.868,17.446,30.214,23.255,7.7,6.221,6.098
1107,0.754,36.989,17.407,30.214,23.254,7.821,6.22,6.138
1108,0.751,37.096,17.446,30.223,23.258,7.741,6.22,6.138
1109,0.761,37.193,17.403,30.243,23.258,7.74,6.302,6.098
1110,0.77,36.878,17.43,30.224,23.251,7.659,6.14,6.016
1111,0.77,36.99,17.356,30.185,23.251,7.536,6.098,5.974
1112,0.77,37.135,17.394,30.223,23.258,7.697,6.178,6.055
1113,0.757,37.184,17.422,30.224,23.254,7.658,6.22,6.015
1114,0.764,36.916,17.434,30.195,23.254,7.698,6.18,6.015
1115,0.774,37.067,17.341,30.204,23.247,7.699,6.057,6.015
1116,0.764,37.193,17.386,30.243,23.258,7.78,6.219,6.178
1117,0.761,37.28,17.414,30.262,23.268,7.944,6.424,6.098
1118,0.748,36.974,17.415,30.253,23.258,7.783,6.182,6.056
1119,0.741,37.086,17.379,30.233,23.258,7.74,6.22,6.097
1120,0.731,37.203,17.41,30.243,23.254,7.781,6.22,6.056
1121,0.741,37.261,17.387,30.252,23.258,7.822,6.261,6.137
1122,0.728,36.85,17.387,30.253,23.254,7.822,6.221,6.057
1123,0.731,36.961,17.418,30.214,23.244,7.7,6.139,5.975
1124,0.731,37.077,17.446,30.233,23.251,7.821,6.301,6.055
1125,0.754,37.107,17.36,30.252,23.251,7.781,6.221,6.056
1126,0.741,37.03,17.402,30.233,23.254,7.74,6.139,5.934
1127,0.747,37.145,17.414,30.224,23.247,7.821,6.138,6.014
1128,0.751,37.251,17.434,30.243,23.258,7.944,6.301,6.137
1129,0.754,36.945,17.43,30.291,23.261,7.986,6.221,6.138
1130,0.744,36.856,17.43,30.243,23.251,7.864,6.261,6.057
1131,0.764,36.98,17.368,30.262,23.254,7.822,6.221,6.097
1132,0.774,37.096,17.406,30.262,23.261,7.944,6.22,6.097
1133,0.754,36.877,17.434,30.253,23.258,7.986,6.302,6.138
1134,0.754,36.97,17.43,30.243,23.247,7.783,6.14,5.976
1135,0.738,37.086,17.278,30.262,23.244,7.74,6.138,6.055
1136,0.751,37.203,17.366,30.243,23.258,7.862,6.219,6.015
1137,0.741,36.763,17.422,30.262,23.254,7.863,6.22,6.015
1138,0.734,36.864,17.442,30.243,23.251,7.822,6.139,6.015
1139,0.734,37.018,17.43,30.252,23.254,7.863,6.179,6.015
1140,0.747,37.097,17.434,30.281,23.261,7.944,6.301,6.178
1141,0.764,36.934,17.372,30.291,23.261,7.945,6.221,6.139
1142,0.741,37.048,17.379,30.282,23.254,7.945,6.18,6.138
1143,0.734,37.183,17.426,30.272,23.254,7.945,6.22,6.138
1144,0.721,37.232,17.438,30.282,23.261,7.945,6.261,6.138
1145,0.737,36.888,17.376,30.282,23.254,7.945,6.221,6.138
1146,0.744,37.018,17.383,30.262,23.251,7.783,6.098,6.057
1147,0.734,37.097,17.383,30.262,23.251,7.822,6.138,6.056
1148,0.754,37.164,17.418,30.272,23.254,7.863,6.057,6.137
1149,0.761,36.887,17.422,30.282,23.254,7.863,6.137,6.016
1150,0.748,37.018,17.45,30.272,23.251,7.741,6.138,6.015
1151,0.757,37.135,17.376,30.272,23.244,7.781,6.179,6.178
1152,0.777,37.165,17.41,30.301,23.268,8.025,6.342,6.301
1153,0.787,36.877,17.43,30.291,23.254,7.865,6.181,6.221
1154,0.78,36.999,17.403,30.31,23.254,7.904,6.179,6.18
1155,0.761,37.106,17.438,30.339,23.261,7.985,6.179,6.179
1156,0.757,37.059,17.368,30.292,23.258,8.027,6.179,6.179
1157,0.764,36.943,17.426,30.301,23.258,7.987,6.179,6.057
1158,0.744,37.048,17.434,30.263,23.244,7.864,6.017,6.056
1159,0.721,37.154,17.419,30.291,23.251,7.985,6.178,6.137
1160,0.724,36.81,17.434,30.291,23.251,7.946,6.057,6.138
1161,0.718,36.883,17.348,30.291,23.258,7.905,6.056,6.138
1162,0.711,37.009,17.402,30.291,23.251,7.904,6.097,6.138
1163,0.708,37.096,17.434,30.291,23.258,8.067,6.219,6.26
1164,0.731,36.905,17.469,30.32,23.261,8.109,6.139,6.18
1165,0.721,37.028,17.349,30.311,23.254,7.947,6.138,6.22
1166,0.728,37.135,17.387,30.301,23.258,7.986,6.138,6.261
1167,0.738,37.213,17.387,30.311,23.254,7.946,6.179,6.221
1168,0.744,36.83,17.406,30.33,23.261,7.945,6.179,6.302
1169,0.751,36.979,17.407,30.282,23.251,7.783,6.139,6.058
1170,0.725,37.067,17.438,30.282,23.24,7.74,6.098,6.178
1171,0.75,37.154,17.423,30.301,23.251,7.781,6.138,6.22
1172,0.751,36.801,17.426,30.311,23.254,7.781,6.057,6.139
1173,0.751,36.931,17.45,30.291,23.254,7.7,6.097,6.098
1174,0.748,37.029,17.423,30.291,23.251,7.699,6.056,6.097
1175,0.728,37.116,17.415,30.301,23.265,7.861,6.219,6.26
1176,0.757,36.896,17.379,30.339,23.268,7.863,6.18,6.139
1177,0.741,36.99,17.434,30.321,23.251,7.822,6.139,6.219
1178,0.734,37.106,17.399,30.311,23.261,7.822,6.179,6.22
1179,0.734,37.136,17.399,30.32,23.251,7.903,6.139,6.22
1180,0.747,36.743,17.438,30.33,23.258,7.904,6.138,6.261
1181,0.734,36.873,17.372,30.32,23.251,7.823,6.057,6.099
1182,0.718,36.98,17.391,30.301,23.247,7.822,6.097,6.138
1183,0.721,37.163,17.422,30.32,23.258,7.944,6.138,6.26
1184,0.721,36.839,17.43,30.311,23.251,7.986,6.057,6.221
1185,0.718,36.951,17.376,30.33,23.251,8.108,6.056,6.139
1186,0.718,37.048,17.352,30.311,23.244,8.109,6.015,6.26
1187,0.741,36.79,17.43,30.33,23.261,8.354,6.218,6.384
1188,0.738,36.883,17.411,30.378,23.261,8.356,6.098,6.263
1189,0.728,36.961,17.407,30.35,23.254,8.437,6.097,6.262
1190,0.734,37.058,17.465,30.34,23.254,8.479,6.138,6.262
1191,0.754,36.819,17.399,30.388,23.258,8.56,6.138,6.262
1192,0.754,36.951,17.407,30.35,23.261,8.602,6.138,6.302
1193,0.77,37.057,17.43,30.349,23.258,8.562,6.016,6.221
1194,0.754,37.106,17.426,30.321,23.247,8.48,5.974,6.18
1195,0.751,36.743,17.415,30.34,23.254,8.601,6.055,6.261
1196,0.751,36.883,17.411,30.34,23.251,8.521,6.056,6.18
1197,0.735,36.999,17.426,30.349,23.247,8.52,5.975,6.139
1198,0.708,37.068,17.395,30.33,23.247,8.439,6.015,6.179
1199,0.711,36.781,17.395,30.359,23.254,8.56,6.137,6.301
1200,0.741,36.96,17.438,30.378,23.268,8.602,6.219,6.262
1201,0.738,37.058,17.372,30.369,23.258,8.44,6.139,6.262
1202,0.731,37.097,17.391,30.359,23.258,8.438,6.098,6.262
1203,0.728,36.81,17.438,30.349,23.258,8.519,6.097,6.302
1204,0.718,36.951,17.45,30.369,23.258,8.52,6.138,6.262
1205,0.744,37.057,17.333,30.397,23.251,8.479,6.057,6.262
1206,0.734,37.068,17.406,30.312,23.247,8.235,5.975,6.017
1207,0.728,36.838,17.422,30.339,23.251,8.355,6.055,6.218
1208,0.744,36.98,17.422,30.359,23.254,8.315,5.975,6.22
1209,0.741,37.077,17.43,30.359,23.251,8.234,6.055,6.139
1210,0.744,37.087,17.434,30.349,23.247,8.233,6.056,6.219
1211,0.757,36.694,17.415,30.359,23.251,8.395,6.219,6.302
1212,0.751,36.863,17.407,30.417,23.265,8.641,6.22,6.262
1213,0.754,36.98,17.442,30.36,23.254,8.684,6.098,6.139
1214,0.741,36.856,17.372,30.369,23.254,8.928,6.178,6.179
1215,0.725,36.865,17.406,30.378,23.261,9.134,6.139,6.22
1216,0.731,36.989,17.43,30.378,23.261,9.339,6.219,6.22
1217,0.738,37.096,17.415,30.369,23.258,9.504,6.139,6.18
1218,0.734,36.752,17.45,30.369,23.247,9.425,6.016,6.098
1219,0.728,36.864,17.411,30.369,23.247,9.708,6.137,6.178
1220,0.747,36.989,17.418,30.388,23.254,9.833,6.179,6.139
1221,0.728,37.087,17.395,30.359,23.254,9.916,6.098,6.179
1222,0.715,36.608,17.403,30.349,23.247,9.916,6.097,6.057
1223,0.724,36.709,17.422,30.359,23.244,10.079,6.219,6.219
1224,0.724,36.873,17.434,30.417,23.268,10.284,6.342,6.261
1225,0.721,36.961,17.376,30.398,23.254,10.205,6.181,6.139
1226,0.721,36.827,17.406,30.388,23.258,10.163,6.22,6.219
1227,0.721,36.941,17.387,30.379,23.254,10.244,6.302,6.22
1228,0.731,37.077,17.438,30.398,23.261,10.245,6.221,6.22
1229,0.744,37.145,17.411,30.417,23.258,10.204,6.261,6.098
1230,0.738,36.724,17.442,30.379,23.247,10.082,6.139,6.056
1231,0.741,36.854,17.384,30.388,23.251,10.081,6.26,6.137
1232,0.754,36.989,17.391,30.398,23.251,10.04,6.262,6.138
1233,0.744,37.029,17.442,30.379,23.254,9.999,6.221,6.057
1234,0.741,36.684,17.348,30.388,23.247,9.958,6.22,6.056
1235,0.734,36.825,17.383,30.388,23.261,9.957,6.261,6.178
1236,0.731,36.96,17.383,30.407,23.261,10.12,6.465,6.342
1237,0.747,36.99,17.492,30.398,23.258,10.0,6.264,6.14
1238,0.728,36.828,17.439,30.407,23.251,9.917,6.302,6.179
1239,0.728,36.96,17.415,30.398,23.261,9.916,6.302,6.22
1240,0.734,37.067,17.458,30.388,23.254,9.916,6.343,6.22
1241,0.734,36.982,17.427,30.426,23.258,9.916,6.343,6.261
1242,0.721,36.837,17.391,30.398,23.254,9.754,6.262,6.017
1243,0.711,36.922,17.446,30.379,23.251,9.752,6.302,6.137
1244,0.734,37.067,17.391,30.398,23.254,9.752,6.262,6.098
1245,0.728,36.656,17.422,30.388,23.247,9.671,6.221,6.097
1246,0.734,36.728,17.36,30.388,23.254,9.629,6.18,6.138
1247,0.725,36.844,17.449,30.398,23.254,9.507,6.301,6.179
1248,0.747,36.961,17.442,30.407,23.261,9.628,6.384,6.22
1249,0.76,36.693,17.411,30.436,23.258,9.507,6.263,6.18
1250,0.744,36.806,17.43,30.389,23.254,9.465,6.302,6.22
1251,0.738,36.922,17.391,30.417,23.258,9.424,6.302,6.18
1252,0.747,37.009,17.403,30.417,23.261,9.505,6.343,6.179
1253,0.754,36.665,17.457,30.398,23.265,9.425,6.221,6.179
1254,0.754,36.796,17.431,30.398,23.248,9.302,6.22,6.017
1255,0.722,36.902,17.399,30.388,23.251,9.341,6.22,6.137
1256,0.734,36.99,17.399,30.398,23.254,9.342,6.22,6.098
1257,0.734,36.78,17.446,30.407,23.251,9.301,6.18,6.138
1258,0.728,36.921,17.411,30.407,23.251,9.301,6.098,6.098
1259,0.728,37.019,17.399,30.407,23.254,9.301,6.219,6.219
1260,0.721,37.097,17.465,30.446,23.272,9.504,6.342,6.22
1261,0.715,36.618,17.36,30.437,23.258,9.262,6.221,6.22
1262,0.715,36.747,17.414,30.437,23.258,9.341,6.18,6.22
1263,0.721,36.883,17.426,30.437,23.254,9.26,6.261,6.22
1264,0.724,36.894,17.426,30.437,23.254,9.3,6.343,6.22
1265,0.741,36.769,17.403,30.437,23.254,9.301,6.221,6.058
1266,0.734,36.845,17.372,30.398,23.244,9.138,6.18,6.056
1267,0.744,36.98,17.426,30.427,23.258,9.258,6.22,6.137
1268,0.741,37.144,17.407,30.417,23.254,9.137,6.139,6.098
1269,0.738,36.676,17.387,30.417,23.251,9.136,6.219,6.097
1270,0.744,36.786,17.438,30.408,23.247,9.055,6.18,6.097
1271,0.764,36.912,17.411,30.427,23.258,9.176,6.22,6.178
1272,0.77,36.645,17.411,30.446,23.272,9.259,6.302,6.139
1273,0.767,36.661,17.461,30.437,23.258,9.178,6.262,6.098
1274,0.741,36.757,17.399,30.437,23.254,9.137,6.262,6.056
1275,0.741,36.893,17.426,30.437,23.258,9.136,6.262,6.137
1276,0.747,36.673,17.415,30.446,23.254,9.177,6.262,6.138
1277,0.747,36.786,17.465,30.446,23.254,9.218,6.221,6.057
1278,0.721,36.883,17.411,30.398,23.254,9.056,6.139,6.015
1279,0.724,36.999,17.446,30.436,23.258,9.176,6.179,6.056
1280,0.731,36.588,17.462,30.427,23.247,9.137,6.22,6.097
1281,0.734,36.737,17.403,30.484,23.251,9.177,6.139,6.056
1282,0.718,36.854,17.383,30.427,23.251,9.177,6.219,6.056
1283,0.718,36.913,17.422,30.446,23.258,9.259,6.302,6.178
1284,0.724,36.712,17.426,30.475,23.272,9.3,6.343,6.139
1285,0.724,36.815,17.43,30.446,23.258,9.26,6.303,6.138
1286,0.715,36.941,17.415,30.446,23.258,9.259,6.221,6.138
1287,0.728,36.971,17.458,30.446,23.254,9.259,6.22,6.179
1288,0.725,36.578,17.435,30.465,23.258,9.259,6.261,6.22
1289,0.728,36.708,17.438,30.446,23.254,9.3,6.139,6.098
1290,0.734,36.796,17.442,30.408,23.247,9.178,6.057,6.097
1291,0.741,36.845,17.43,30.446,23.254,9.299,6.178,6.056
1292,0.741,36.567,17.423,30.417,23.251,9.26,6.139,6.097
1293,0.754,36.708,17.422,30.417,23.247,9.259,6.138,6.016
1294,0.744,36.844,17.383,30.455,23.251,9.178,6.057,6.015
1295,0.725,36.865,17.352,30.437,23.261,9.259,6.219,6.178
1296,0.734,36.615,17.445,30.465,23.268,9.381,6.261,6.179
1297,0.728,36.728,17.415,30.446,23.251,9.139,6.18,6.017
1298,0.721,36.835,17.415,30.437,23.258,9.177,6.179,6.178
1299,0.741,36.663,17.454,30.437,23.254,9.137,6.261,6.057
1300,0.738,36.652,17.411,30.437,23.258,9.136,6.302,6.219
1301,0.725,36.786,17.399,30.465,23.258,9.055,6.14,6.098
1302,0.718,36.864,17.395,30.418,23.247,8.891,6.057,6.056
1303,0.711,36.491,17.391,30.455,23.247,8.971,6.178,6.097
1304,0.718,36.602,17.426,30.437,23.251,8.85,6.139,6.097
1305,0.741,36.718,17.344,30.456,23.247,8.849,6.057,6.016
1306,0.731,36.796,17.387,30.418,23.251,8.849,6.056,6.056
1307,0.751,36.442,17.414,30.436,23.254,8.93,6.178,6.178
1308,0.751,36.621,17.415,30.484,23.265,8.931,6.261,6.179
1309,0.754,36.719,17.43,30.456,23.254,8.85,6.139,6.179
1310,0.728,36.815,17.465,30.446,23.251,8.808,6.138,6.139
1311,0.741,36.567,17.431,30.446,23.258,8.848,6.179,6.179
1312,0.76,36.699,17.399,30.465,23.261,8.93,6.22,6.139
1313,0.761,36.806,17.422,30.446,23.258,8.85,6.139,6.057
1314,0.748,36.855,17.364,30.417,23.237,8.808,6.016,5.975
1315,0.744,36.491,17.352,30.455,23.251,8.848,6.096,6.137
1316,0.728,36.631,17.379,30.465,23.258,8.849,6.056,6.057
1317,0.734,36.747,17.422,30.466,23.247,8.686,6.015,6.056
1318,0.741,36.787,17.43,30.437,23.251,8.766,6.056,6.097
1319,0.741,36.567,17.419,30.465,23.261,8.767,6.137,6.219
1320,0.747,36.728,17.493,30.475,23.268,8.889,6.179,6.139
1321,0.721,36.844,17.435,30.456,23.258,8.646,6.179,6.138
1322,0.721,36.865,17.391,30.465,23.254,8.644,6.179,6.179
1323,0.715,36.577,17.465,30.466,23.254,8.644,6.22,6.22
1324,0.734,36.708,17.423,30.485,23.258,8.603,6.139,6.18
1325,0.731,36.815,17.395,30.466,23.251,8.399,6.057,6.057
1326,0.741,36.72,17.375,30.437,23.247,8.397,6.056,6.097
1327,0.731,36.633,17.453,30.456,23.258,8.397,6.097,6.056
1328,0.741,36.767,17.395,30.456,23.258,8.397,6.016,6.056
1329,0.744,36.845,17.407,30.446,23.247,8.316,6.015,6.056
1330,0.754,36.452,17.43,30.446,23.244,8.396,6.096,6.097
1331,0.748,36.544,17.434,30.475,23.258,8.438,6.178,6.219
1332,0.757,36.718,17.426,30.466,23.258,8.397,6.139,6.139
1333,0.738,36.758,17.446,30.456,23.258,8.438,6.138,6.138
1334,0.747,36.384,17.43,30.504,23.258,8.397,6.179,6.057
1335,0.764,36.534,17.384,30.456,23.258,8.519,6.179,6.056
1336,0.744,36.641,17.43,30.465,23.258,8.398,6.139,6.137
1337,0.741,36.728,17.419,30.456,23.251,8.275,6.057,5.976
1338,0.734,36.403,17.411,30.437,23.251,8.355,6.097,6.015
1339,0.734,36.592,17.434,30.456,23.254,8.397,6.138,6.015
1340,0.734,36.689,17.446,30.437,23.251,8.438,6.057,6.015
1341,0.744,36.777,17.43,30.446,23.244,8.479,6.056,5.934
1342,0.728,36.442,17.372,30.456,23.247,8.56,6.137,6.014
1343,0.728,36.602,17.457,30.485,23.261,8.764,6.219,6.218
1344,0.731,36.738,17.384,30.504,23.258,8.685,6.139,6.017
1345,0.734,36.758,17.399,30.456,23.254,8.807,6.138,6.056
1346,0.747,36.49,17.407,30.465,23.254,8.848,6.179,6.097
1347,0.754,36.602,17.411,30.466,23.251,8.889,6.139,6.138
1348,0.777,36.728,17.422,30.494,23.258,8.93,6.138,6.098
1349,0.787,36.777,17.372,30.475,23.254,8.89,6.057,6.016
1350,0.774,36.452,17.399,30.446,23.244,8.849,6.137,6.056
1351,0.78,36.621,17.391,30.456,23.254,8.971,6.138,6.015
1352,0.79,36.709,17.379,30.456,23.251,8.891,6.138,6.056
1353,0.78,36.911,17.449,30.437,23.247,8.89,6.138,6.056
1354,0.777,36.453,17.399,30.494,23.247,8.93,6.057,6.056
1355,0.787,36.631,17.414,30.495,23.261,9.053,6.219,6.137
1356,0.8,36.728,17.45,30.475,23.254,8.973,6.098,6.057
1357,0.787,36.49,17.427,30.466,23.258,8.931,6.138,6.137
1358,0.79,36.554,17.442,30.485,23.254,8.931,6.179,6.016
1359,0.797,36.68,17.415,30.494,23.261,8.972,6.179,6.096
1360,0.8,36.786,17.43,30.495,23.258,8.931,6.139,6.056
1361,0.81,36.346,17.415,30.447,23.244,8.809,6.016,6.015
1362,0.803,36.486,17.422,30.485,23.258,8.889,6.178,6.015
1363,0.816,36.612,17.458,30.475,23.251,8.849,6.179,6.056
1364,0.81,36.69,17.333,30.475,23.251,8.767,6.057,6.015
1365,0.8,36.259,17.379,30.456,23.247,8.726,6.056,6.015
1366,0.8,36.408,17.402,30.465,23.258,8.726,6.137,6.096
1367,0.813,36.553,17.453,30.504,23.265,8.929,6.219,6.097
1368,0.829,36.603,17.45,30.476,23.254,8.89,6.058,6.097
1369,0.839,36.479,17.391,30.475,23.258,8.849,6.097,6.056
1370,0.836,36.602,17.446,30.485,23.258,8.93,6.138,6.137
1371,0.843,36.728,17.427,30.494,23.258,8.931,6.138,6.098
1372,0.843,36.806,17.419,30.475,23.261,8.931,6.098,6.097
1373,0.843,36.366,17.43,30.437,23.241,8.809,6.016,5.935
1374,0.83,36.495,17.321,30.465,23.251,8.97,6.137,6.014
1375,0.843,36.631,17.429,30.475,23.254,8.931,6.138,6.015
1376,0.839,36.68,17.419,30.485,23.258,8.89,6.057,6.015
1377,0.839,36.451,17.473,30.466,23.244,8.849,6.015,6.015
1378,0.839,36.583,17.45,30.446,23.254,8.849,6.096,6.096
1379,0.833,36.728,17.403,30.485,23.261,8.971,6.26,6.26
1380,0.852,36.748,17.473,30.494,23.261,8.85,6.18,6.058
1381,0.853,36.423,17.407,30.485,23.261,8.889,6.139,6.097
1382,0.843,36.544,17.391,30.475,23.254,8.849,6.138,6.138
1383,0.856,36.66,17.434,30.494,23.258,8.849,6.219,6.179
1384,0.856,36.489,17.348,30.495,23.251,8.889,6.18,6.098
1385,0.849,36.468,17.387,30.475,23.254,8.727,6.017,5.935
1386,0.84,36.535,17.371,30.437,23.247,8.685,6.056,6.136
1387,0.885,36.66,17.461,30.475,23.254,8.725,6.056,6.098
1388,0.863,36.326,17.442,30.475,23.251,8.685,6.056,6.056
1389,0.853,36.409,17.411,30.475,23.247,8.603,6.015,5.975
1390,0.869,36.534,17.426,30.466,23.244,8.602,6.056,6.015
1391,0.882,36.641,17.423,30.494,23.261,8.684,6.259,6.178
1392,0.911,36.374,17.411,30.514,23.272,8.725,6.221,6.139
1393,0.892,36.486,17.426,30.485,23.261,8.685,6.139,6.098
1394,0.895,36.631,17.38,30.514,23.254,8.684,6.138,6.097
1395,0.886,36.7,17.367,30.495,23.254,8.766,6.138,6.138
1396,0.853,36.355,17.406,30.495,23.261,8.807,6.219,6.138
1397,0.853,36.486,17.454,30.495,23.258,8.808,6.098,6.016
1398,0.836,36.583,17.434,30.456,23.251,8.848,6.097,6.056
1399,0.82,36.651,17.423,30.485,23.247,8.971,6.138,6.097
1400,0.82,36.383,17.473,30.466,23.251,9.013,6.138,6.056
1401,0.813,36.534,17.403,30.466,23.247,8.972,6.098,6.015
1402,0.813,36.631,17.414,30.475,23.251,9.053,6.097,6.096
1403,0.823,36.7,17.465,30.494,23.258,9.257,6.178,6.178
1404,0.82,36.23,17.388,30.514,23.272,9.259,6.261,6.139
1405,0.82,36.35,17.395,30.495,23.255,9.259,6.18,6.138
1406,0.836,36.447,17.356,30.475,23.258,9.219,6.139,6.138
1407,0.836,36.477,17.426,30.494,23.254,9.259,6.138,6.26
1408,0.836,36.429,17.415,30.495,23.258,9.341,6.138,6.139
1409,0.83,36.573,17.403,30.485,23.258,9.301,6.098,6.098
1410,0.817,36.641,17.438,30.466,23.237,9.138,6.056,6.016
1411,0.803,36.546,17.384,30.485,23.258,9.258,6.137,6.056
1412,0.807,36.353,17.414,30.475,23.247,9.259,6.138,6.056
1413,0.807,36.467,17.43,30.466,23.251,9.178,6.057,6.015
1414,0.79,36.573,17.45,30.456,23.247,9.177,6.015,6.015
1415,0.777,36.229,17.391,30.485,23.251,9.299,6.137,6.137
1416,0.787,36.341,17.426,30.514,23.265,9.301,6.219,6.138
1417,0.761,36.447,17.403,30.466,23.258,9.178,6.139,6.138
1418,0.761,36.535,17.403,30.494,23.254,9.177,6.138,6.179
1419,0.748,36.334,17.414,30.475,23.251,9.177,6.179,6.139
1420,0.744,36.457,17.434,30.485,23.258,9.137,6.179,6.138
1421,0.741,36.602,17.411,30.485,23.254,8.933,6.098,6.057
1422,0.718,36.651,17.418,30.456,23.247,8.85,6.097,6.137
1423,0.724,36.201,17.407,30.465,23.261,8.93,6.138,6.138
1424,0.708,36.331,17.43,30.552,23.251,8.809,6.138,6.138
1425,0.705,36.438,17.434,30.466,23.251,8.726,6.057,6.057
1426,0.702,36.525,17.387,30.466,23.244,8.644,6.137,6.056
1427,0.708,36.19,17.375,30.475,23.254,8.806,6.301,6.3
1428,0.734,36.369,17.402,30.514,23.261,8.726,6.18,6.221
1429,0.728,36.467,17.411,30.476,23.254,8.726,6.179,6.139
1430,0.728,36.506,17.446,30.475,23.251,8.644,6.139,6.219
1431,0.728,36.257,17.454,30.475,23.254,8.684,6.179,6.18
1432,0.725,36.379,17.407,30.485,23.258,8.888,6.179,6.22
1433,0.731,36.496,17.438,30.466,23.254,8.89,6.057,6.058
1434,0.705,36.497,17.391,30.456,23.244,9.093,6.015,6.137
1435,0.705,36.372,17.403,30.485,23.254,9.298,6.056,6.138
1436,0.711,36.496,17.403,30.475,23.251,9.463,6.056,6.138
1437,0.698,36.593,17.442,30.466,23.247,9.587,6.015,6.098
1438,0.679,36.833,17.427,30.456,23.251,9.873,6.096,6.138
1439,0.672,36.289,17.423,30.485,23.265,10.241,6.219,6.341
1440,0.685,36.428,17.403,30.494,23.258,10.245,6.139,6.221
1441,0.675,36.525,17.434,30.475,23.258,10.489,6.219,6.098
1442,0.675,36.171,17.384,30.475,23.254,10.614,6.22,6.26
1443,0.682,36.177,17.41,30.485,23.258,10.777,6.22,6.302
1444,0.682,36.321,17.442,30.504,23.258,10.901,6.261,6.302
1445,0.695,36.409,17.407,30.456,23.251,10.821,6.058,6.058
1446,0.682,36.17,17.422,30.456,23.251,10.942,6.178,6.137
1447,0.695,36.321,17.415,30.475,23.254,10.943,6.139,6.219
1448,0.708,36.437,17.446,30.475,23.254,10.902,6.098,6.18
1449,0.685,36.515,17.391,30.456,23.247,10.861,6.056,6.098
1450,0.688,36.209,17.434,30.456,23.244,10.902,6.137,6.26
1451,0.708,36.388,17.43,30.494,23.265,10.983,6.301,6.384
1452,0.715,36.515,17.38,30.475,23.258,10.944,6.18,6.222
1453,0.702,36.564,17.457,30.466,23.251,10.74,6.139,6.18
1454,0.701,36.181,17.333,30.466,23.258,10.738,6.219,6.179
1455,0.701,36.34,17.394,30.475,23.254,10.738,6.22,6.261
1456,0.701,36.447,17.395,30.466,23.258,10.657,6.139,6.18
1457,0.698,36.477,17.446,30.437,23.247,10.493,6.057,6.057
1458,0.701,36.142,17.438,30.456,23.258,10.491,6.219,6.178
1459,0.701,36.311,17.442,30.456,23.251,10.491,6.22,6.179
1460,0.682,36.389,17.446,30.437,23.251,10.369,6.139,6.139
1461,0.682,36.438,17.407,30.446,23.244,10.328,6.098,6.138
1462,0.679,36.266,17.407,30.485,23.258,10.327,6.3,6.341
1463,0.691,36.437,17.446,30.494,23.268,10.286,6.302,6.221
1464,0.692,36.515,17.31,30.466,23.254,10.205,6.18,6.18
1465,0.695,36.535,17.414,30.456,23.258,10.123,6.179,6.179
1466,0.701,36.209,17.407,30.456,23.254,10.0,6.179,6.261
1467,0.695,36.321,17.457,30.475,23.251,9.917,6.22,6.262
1468,0.708,36.447,17.435,30.466,23.254,9.754,6.22,6.099
1469,0.702,36.247,17.391,30.427,23.24,9.59,6.139,6.138
1470,0.711,36.207,17.422,30.475,23.251,9.669,6.179,6.179
1471,0.721,36.36,17.391,30.437,23.258,9.507,6.179,6.139
1472,0.711,36.457,17.43,30.446,23.244,9.425,6.098,6.057
1473,0.705,36.18,17.426,30.437,23.251,9.261,6.219,6.137
1474,0.705,36.302,17.407,30.456,23.258,9.341,6.302,6.26
1475,0.715,36.476,17.407,30.485,23.261,9.301,6.221,6.262
1476,0.715,36.516,17.43,30.447,23.258,9.097,6.22,6.221
1477,0.702,36.017,17.407,30.446,23.258,9.054,6.18,6.261
1478,0.698,36.166,17.414,30.456,23.261,9.013,6.22,6.262
1479,0.695,36.292,17.43,30.465,23.265,8.932,6.18,6.18
1480,0.705,36.37,17.454,30.446,23.254,8.89,6.098,6.017
1481,0.685,36.093,17.384,30.417,23.251,8.727,6.056,6.056
1482,0.692,36.243,17.406,30.446,23.251,8.726,6.097,6.097
1483,0.695,36.379,17.434,30.427,23.254,8.644,6.097,6.097
1484,0.692,36.457,17.395,30.436,23.251,8.644,6.097,6.097
1485,0.685,36.113,17.395,30.417,23.251,8.603,6.056,6.056
1486,0.701,36.272,17.403,30.446,23.261,8.724,6.219,6.178
1487,0.734,36.418,17.45,30.475,23.268,8.685,6.22,6.179
1488,0.728,36.438,17.411,30.446,23.251,8.603,6.139,6.179
1489,0.708,36.189,17.43,30.446,23.254,8.724,6.179,6.139
1490,0.721,36.331,17.407,30.456,23.261,8.603,6.22,6.179
1491,0.734,36.438,17.418,30.456,23.258,8.684,6.139,6.139
1492,0.738,36.477,17.454,30.437,23.254,8.603,6.057,6.016
1493,0.715,36.171,17.384,30.398,23.24,8.643,6.056,6.015
1494,0.728,36.321,17.403,30.427,23.254,8.765,6.097,6.056
1495,0.725,36.437,17.395,30.417,23.251,8.726,6.138,6.056
1496,0.708,36.343,17.399,30.417,23.251,8.766,6.057,5.975
1497,0.711,36.15,17.411,30.417,23.247,8.726,6.056,6.055
1498,0.721,36.292,17.379,30.446,23.261,8.929,6.178,6.178
1499,0.728,36.418,17.387,30.456,23.268,8.89,6.179,6.057
1500,0.702,36.256,17.41,30.437,23.254,8.93,6.179,6.137
1501,0.692,36.379,17.418,30.437,23.258,8.85,6.139,6.098
1502,0.695,36.505,17.442,30.417,23.265,8.971,6.138,6.138
1503,0.692,36.602,17.423,30.436,23.258,8.972,6.179,6.179
1504,0.685,35.999,17.438,30.408,23.251,8.891,6.057,6.017
1505,0.692,36.099,17.384,30.398,23.24,8.89,6.015,6.096
1506,0.705,36.253,17.422,30.436,23.254,8.849,6.056,6.097
1507,0.715,36.341,17.407,30.427,23.254,8.889,5.975,6.056
1508,0.737,36.045,17.379,30.417,23.247,8.89,6.055,5.975
1509,0.754,36.195,17.367,30.417,23.251,8.89,6.015,6.055
1510,0.79,36.302,17.422,30.436,23.261,9.012,6.178,6.259
1511,0.836,36.437,17.446,30.456,23.261,8.972,6.179,6.099
1512,0.862,36.084,17.415,30.418,23.254,8.85,6.057,6.138
1513,0.882,36.215,17.45,30.417,23.258,8.889,6.137,6.098
1514,0.892,36.331,17.325,30.436,23.261,8.849,6.138,6.178
1515,0.899,36.418,17.429,30.417,23.261,8.808,6.138,6.179
1516,0.912,35.988,17.426,30.427,23.251,8.645,6.016,6.057
1517,0.922,36.108,17.438,30.388,23.24,8.644,6.096,6.097
1518,0.931,36.253,17.403,30.426,23.258,8.684,6.056,6.056
1519,0.951,36.293,17.379,30.388,23.251,8.603,6.137,6.097
1520,0.984,36.169,17.418,30.388,23.247,8.562,6.057,6.097
1521,0.994,36.302,17.426,30.407,23.247,8.399,6.137,6.097
1522,1.049,36.437,17.419,30.427,23.261,8.56,6.26,6.341
1523,1.112,36.765,17.45,30.446,23.265,8.602,6.18,6.303
1524,1.154,36.02,17.419,30.417,23.251,8.44,6.179,6.262
1525,1.22,36.166,17.419,30.417,23.258,8.438,6.139,6.302
1526,1.253,36.263,17.419,30.398,23.254,8.438,6.179,6.343
1527,1.276,36.13,17.461,30.398,23.258,8.479,6.22,6.425
1528,1.312,36.215,17.446,30.417,23.251,8.438,6.139,6.344
1529,1.332,36.321,17.391,30.369,23.244,8.519,5.976,6.384
1530,1.358,36.437,17.422,30.417,23.251,8.764,6.137,6.466
1531,1.365,35.93,17.411,30.398,23.254,8.848,6.138,6.467
1532,1.385,36.031,17.438,30.369,23.254,9.011,6.057,6.386
1533,1.404,36.147,17.391,30.378,23.244,9.135,6.056,6.466
1534,1.431,36.273,17.407,30.417,23.258,9.339,6.219,6.629
1535,1.454,36.025,17.414,30.427,23.265,9.423,6.22,6.631
1536,1.402,36.118,17.45,30.408,23.254,9.505,6.098,6.509
1537,1.379,36.244,17.446,30.407,23.258,9.506,6.138,6.589
1538,1.352,36.341,17.411,30.398,23.258,9.587,6.179,6.671
1539,1.319,36.102,17.434,30.407,23.258,9.588,6.22,6.753
1540,1.257,36.205,17.415,30.398,23.254,9.466,6.098,6.714
1541,1.188,36.331,17.395,30.369,23.244,9.424,6.138,6.957
1542,1.162,36.399,17.414,30.388,23.254,9.586,6.098,7.122
1543,1.126,36.093,17.403,30.379,23.251,9.507,6.097,7.408
1544,1.054,36.234,17.411,30.388,23.247,9.384,6.097,7.452
1545,1.007,36.341,17.379,30.359,23.251,9.382,6.138,7.778
1546,0.952,36.38,17.422,30.397,23.268,9.505,6.301,8.106
1547,0.873,36.035,17.434,30.417,23.258,9.343,6.14,8.191
1548,0.765,36.147,17.411,30.388,23.251,9.26,6.179,8.436
1549,0.702,36.273,17.438,30.388,23.258,9.3,6.179,8.641
1550,0.662,36.303,17.376,30.398,23.258,9.178,6.179,8.806
1551,0.604,36.14,17.426,30.407,23.258,9.137,6.139,9.011
1552,0.567,36.244,17.438,30.36,23.247,8.974,6.057,8.972
1553,0.541,36.331,17.384,30.378,23.254,8.972,6.219,9.216
1554,0.524,36.15,17.399,30.369,23.251,8.891,6.058,9.259
1555,0.511,36.11,17.379,30.359,23.251,8.849,6.137,9.341
1556,0.517,36.215,17.43,30.359,23.251,8.767,6.057,9.382
1557,0.553,36.331,17.43,30.388,23.258,8.929,6.3,9.627
1558,0.589,35.91,17.434,30.417,23.268,8.85,6.18,9.67
1559,0.603,35.992,17.434,30.369,23.258,8.686,6.139,9.751
1560,0.606,36.118,17.415,30.369,23.258,8.603,6.138,9.915
1561,0.648,36.205,17.395,30.388,23.261,8.643,6.179,10.079
1562,0.681,36.034,17.414,30.388,23.258,8.603,6.261,10.284
1563,0.701,36.147,17.407,30.35,23.244,8.399,6.017,10.408
1564,0.711,36.282,17.434,30.369,23.251,8.438,6.096,10.653
1565,0.75,36.37,17.376,30.359,23.247,8.316,6.138,10.94
1566,0.777,36.006,17.399,30.369,23.251,8.274,6.138,11.146
1567,0.78,36.127,17.371,30.35,23.247,8.274,6.098,11.393
1568,0.787,36.253,17.402,30.359,23.254,8.233,6.178,11.598
1569,0.79,36.36,17.426,30.417,23.265,8.395,6.301,11.925
1570,0.803,35.968,17.387,30.379,23.258,8.194,6.18,12.01
1571,0.813,36.098,17.422,30.359,23.258,8.151,6.179,12.052
1572,0.833,36.224,17.438,30.359,23.254,8.15,6.139,12.093
1573,0.82,36.264,17.384,30.369,23.258,8.11,6.179,12.134
1574,0.797,35.919,17.399,30.359,23.258,8.109,6.139,12.134
1575,0.781,36.05,17.391,30.34,23.247,7.947,6.057,11.972
1576,0.78,36.166,17.461,30.349,23.258,7.945,6.137,12.051
1577,0.79,36.196,17.36,30.359,23.258,8.026,6.138,12.011
1578,0.777,36.053,17.402,30.349,23.251,7.946,6.098,11.93
1579,0.767,36.157,17.403,30.34,23.244,7.945,6.056,11.766
1580,0.777,36.263,17.426,30.34,23.261,8.026,6.137,11.846
1581,0.79,36.264,17.423,30.378,23.265,8.109,6.219,11.887
1582,0.787,36.025,17.434,30.35,23.251,8.028,6.139,11.685
1583,0.784,36.118,17.454,30.359,23.254,7.946,6.138,11.642
1584,0.767,36.244,17.419,30.359,23.258,8.026,6.138,11.56
1585,0.777,35.976,17.407,30.349,23.254,7.987,6.179,11.397
1586,0.774,36.07,17.414,30.34,23.254,7.986,6.139,11.273
1587,0.774,36.157,17.395,30.311,23.247,7.824,6.016,11.231
1588,0.78,36.244,17.414,30.349,23.254,7.903,6.137,11.149
1589,0.784,35.881,17.395,30.34,23.254,7.904,6.098,11.108
1590,0.797,35.992,17.387,30.321,23.247,7.863,6.056,10.985
1591,0.8,36.118,17.406,30.34,23.247,7.863,6.056,10.903
1592,0.807,36.196,17.426,30.349,23.251,7.904,6.178,10.902
1593,0.826,35.986,17.407,30.369,23.272,8.026,6.179,10.861
1594,0.82,36.146,17.442,30.34,23.258,7.946,6.139,10.576
1595,0.797,36.225,17.395,30.34,23.261,7.945,6.179,10.533
1596,0.803,36.293,17.465,30.349,23.261,7.945,6.139,10.451
1597,0.81,35.958,17.411,30.34,23.261,7.945,6.219,10.41
1598,0.777,36.098,17.407,30.34,23.254,7.945,6.139,10.125
1599,0.771,36.196,17.391,30.301,23.244,7.945,6.098,10.041
1600,0.774,36.254,17.422,30.32,23.254,8.108,6.138,10.04
1601,0.774,35.909,17.403,30.32,23.251,8.191,6.098,9.796
1602,0.767,36.011,17.418,30.33,23.247,8.354,6.097,9.671
1603,0.754,36.128,17.419,30.32,23.251,8.356,6.097,9.629
1604,0.777,36.205,17.415,30.33,23.258,8.6,6.178,9.71
1605,0.787,35.938,17.415,30.359,23.265,8.806,6.22,9.589
1606,0.79,36.04,17.415,30.33,23.258,8.808,6.18,9.466
1607,0.787,36.147,17.43,30.32,23.254,8.808,6.179,9.302
1608,0.787,36.541,17.387,30.32,23.258,8.93,6.261,9.341
1609,0.8,35.989,17.426,30.33,23.265,9.093,6.18,9.26
1610,0.82,36.118,17.391,30.349,23.261,9.095,6.139,9.015
1611,0.82,36.186,17.371,30.311,23.241,8.973,6.057,8.932
1612,0.826,35.861,17.441,30.311,23.251,9.135,6.097,8.931
1613,0.813,35.877,17.38,30.32,23.251,9.177,6.178,8.809
1614,0.833,36.011,17.402,30.301,23.247,9.137,6.139,8.686
1615,0.82,36.089,17.403,30.311,23.247,9.055,6.138,8.684
1616,0.807,35.946,17.477,30.311,23.258,9.176,6.26,8.684
1617,0.82,36.088,17.431,30.349,23.261,9.259,6.18,8.644
1618,0.79,36.186,17.423,30.311,23.258,9.219,6.139,8.44
1619,0.79,36.292,17.442,30.32,23.258,9.178,6.219,8.438
1620,0.8,35.737,17.388,30.311,23.258,9.259,6.261,8.438
1621,0.787,35.904,17.395,30.301,23.261,9.259,6.262,8.357
1622,0.787,36.031,17.446,30.311,23.251,9.137,6.139,8.153
1623,0.774,36.041,17.372,30.291,23.244,9.095,6.179,8.191
1624,0.784,35.898,17.399,30.31,23.258,9.136,6.139,8.11
1625,0.787,36.021,17.422,30.32,23.251,9.177,6.098,8.069
1626,0.793,36.128,17.434,30.292,23.251,9.177,6.178,7.987
1627,0.803,36.186,17.419,30.282,23.247,9.218,6.179,7.986
1628,0.82,35.928,17.419,30.33,23.261,9.381,6.301,8.108
1629,0.836,36.107,17.442,30.33,23.258,9.342,6.221,7.947
1630,0.826,36.176,17.423,30.301,23.251,9.342,6.18,7.823
1631,0.82,36.244,17.419,30.311,23.258,9.423,6.22,7.822
1632,0.83,35.794,17.411,30.301,23.258,9.424,6.261,7.822
1633,0.83,35.924,17.422,30.32,23.258,9.424,6.221,7.741
1634,0.836,36.021,17.395,30.292,23.258,9.342,6.22,7.618
1635,0.817,36.013,17.387,30.263,23.247,9.423,6.139,7.657
1636,0.823,35.907,17.41,30.291,23.258,9.464,6.179,7.617
1637,0.82,36.04,17.473,30.291,23.254,9.465,6.098,7.576
1638,0.817,36.137,17.419,30.272,23.247,9.424,6.097,7.575
1639,0.81,35.927,17.419,30.262,23.244,9.424,6.138,7.535
1640,0.823,35.868,17.419,30.301,23.258,9.505,6.301,7.575
1641,0.826,36.04,17.422,30.32,23.265,9.546,6.221,7.494
1642,0.813,36.109,17.426,30.292,23.261,9.425,6.22,7.494
1643,0.8,35.841,17.391,30.291,23.258,9.383,6.18,7.534
1644,0.81,35.963,17.414,30.301,23.258,9.423,6.22,7.494
1645,0.813,36.098,17.376,30.301,23.258,9.342,6.261,7.412
1646,0.807,36.167,17.371,30.272,23.254,9.179,6.099,7.289
1647,0.816,35.717,17.387,30.253,23.247,9.096,6.138,7.247
1648,0.816,35.875,17.399,30.291,23.254,9.136,6.138,7.288
1649,0.813,35.973,17.407,30.272,23.258,9.055,6.098,7.288
1650,0.816,36.07,17.387,30.272,23.251,9.013,6.097,7.207
1651,0.816,35.821,17.383,30.262,23.247,8.972,6.138,7.206
1652,0.842,35.982,17.453,30.281,23.265,9.053,6.382,7.328
1653,0.849,36.127,17.392,30.291,23.258,8.973,6.181,7.167
1654,0.856,36.167,17.43,30.263,23.258,8.931,6.179,7.165
1655,0.843,35.803,17.411,30.262,23.258,8.931,6.22,7.124
1656,0.823,35.953,17.446,30.281,23.258,8.89,6.18,7.205
1657,0.843,36.098,17.384,30.282,23.254,8.93,6.22,7.003
1658,0.846,36.109,17.371,30.253,23.251,8.728,6.058,6.919
1659,0.84,35.889,17.383,30.262,23.258,8.807,6.219,7.041
1660,0.836,36.03,17.387,30.262,23.254,8.767,6.139,7.001
1661,0.846,36.118,17.391,30.243,23.251,8.767,6.138,6.919
1662,0.814,36.148,17.43,30.243,23.251,8.726,6.138,6.959
1663,0.807,35.755,17.387,30.272,23.258,8.848,6.219,7.041
1664,0.82,35.943,17.434,30.291,23.268,8.849,6.22,7.042
1665,0.813,36.031,17.376,30.263,23.254,8.727,6.139,6.879
1666,0.826,36.032,17.469,30.262,23.254,8.685,6.219,6.959
1667,0.852,35.83,17.415,30.281,23.261,8.684,6.18,6.96
1668,0.843,35.953,17.411,30.282,23.261,8.603,6.22,6.919
1669,0.862,36.069,17.438,30.262,23.254,8.562,6.058,6.674
1670,0.853,35.84,17.415,30.214,23.251,8.48,6.178,6.794
1671,0.853,35.963,17.418,30.262,23.251,8.52,6.098,6.836
1672,0.859,36.079,17.438,30.243,23.251,8.52,6.056,6.755
1673,0.849,36.167,17.427,30.233,23.251,8.398,6.097,6.673
1674,0.84,35.707,17.415,30.224,23.254,8.438,6.138,6.713
1675,0.833,35.856,17.383,30.252,23.265,8.56,6.219,6.916
1676,0.852,35.992,17.418,30.272,23.261,8.439,6.139,6.837
1677,0.843,36.041,17.415,30.243,23.258,8.519,6.098,6.796
1678,0.843,35.783,17.391,30.233,23.258,8.398,6.138,6.755
1679,0.846,35.933,17.422,30.243,23.258,8.438,6.138,6.795
1680,0.872,36.06,17.399,30.252,23.261,8.438,6.219,6.673
1681,0.85,36.118,17.399,30.224,23.244,8.275,6.017,6.591
1682,0.82,36.272,17.434,30.224,23.254,8.396,6.137,6.712
1683,0.82,36.427,17.391,30.243,23.251,8.316,6.138,6.713
1684,0.843,36.544,17.383,30.233,23.251,8.274,6.138,6.632
1685,0.853,36.584,17.414,30.224,23.251,8.396,6.057,6.55
1686,0.853,35.385,17.43,30.214,23.254,8.438,6.137,6.671
1687,0.862,35.555,17.411,30.262,23.268,8.641,6.301,6.713
1688,0.862,35.663,17.422,30.243,23.258,8.562,6.14,6.591
1689,0.859,35.702,17.407,30.224,23.254,8.643,6.179,6.631
1690,0.853,35.894,17.372,30.243,23.258,8.806,6.139,6.631
1691,0.869,36.03,17.422,30.243,23.258,8.889,6.179,6.631
1692,0.872,36.137,17.45,30.214,23.254,8.89,6.179,6.509
1693,0.872,36.436,17.333,30.204,23.247,8.849,6.017,6.508
1694,0.866,35.758,17.359,30.204,23.251,8.971,6.178,6.549
1695,0.862,35.885,17.41,30.223,23.258,8.972,6.139,6.508
1696,0.856,35.963,17.465,30.224,23.247,9.013,6.098,6.427
1697,0.866,35.782,17.36,30.204,23.254,8.932,6.056,6.385
1698,0.866,35.818,17.422,30.214,23.261,9.134,6.219,6.547
1699,0.866,35.982,17.415,30.252,23.272,9.258,6.18,6.508
1700,0.853,36.06,17.379,30.214,23.255,9.097,6.179,6.467
1701,0.866,35.61,17.414,30.214,23.251,9.054,6.179,6.548
1702,0.856,35.721,17.418,30.243,23.258,9.135,6.22,6.59
1703,0.853,35.847,17.387,30.233,23.261,9.055,6.22,6.509
1704,0.859,35.953,17.406,30.224,23.258,9.013,6.098,6.386
1705,0.853,35.724,17.407,30.195,23.244,8.932,6.056,6.466
1706,0.872,35.885,17.485,30.214,23.254,8.931,6.219,6.345
1707,0.879,36.011,17.404,30.204,23.254,8.931,6.139,6.425
1708,0.885,36.06,17.446,30.214,23.251,8.89,6.057,6.385
1709,0.915,35.601,17.388,30.204,23.247,8.849,6.097,6.425
1710,0.915,35.74,17.406,30.204,23.265,8.849,6.219,6.588
1711,0.902,35.914,17.43,30.243,23.261,8.849,6.139,6.509
1712,0.892,35.916,17.43,30.205,23.254,8.727,6.138,6.467
1713,0.895,35.676,17.376,30.204,23.254,8.726,6.179,6.467
1714,0.892,35.817,17.383,30.204,23.251,8.685,6.179,6.386
1715,0.886,35.953,17.41,30.204,23.254,8.684,6.22,6.547
1716,0.895,35.974,17.493,30.223,23.258,8.603,6.017,6.346
1717,0.882,35.715,17.376,30.176,23.241,8.44,6.015,6.425
1718,0.889,35.827,17.434,30.185,23.254,8.519,6.096,6.426
1719,0.899,35.972,17.419,30.204,23.251,8.642,6.056,6.466
1720,0.882,35.955,17.391,30.175,23.254,8.644,6.056,6.426
1721,0.882,35.83,17.407,30.166,23.247,8.644,6.015,6.426
1722,0.872,35.953,17.422,30.194,23.254,8.806,6.096,6.629
1723,0.885,36.089,17.415,30.242,23.268,8.97,6.219,6.672
1724,0.889,35.917,17.395,30.195,23.261,8.891,6.058,6.509
1725,0.889,35.801,17.383,30.195,23.258,8.971,6.137,6.549
1726,0.908,35.934,17.434,30.195,23.258,8.972,6.179,6.549
1727,0.912,36.04,17.419,30.204,23.254,9.135,6.22,6.63
1728,0.915,35.591,17.422,30.195,23.261,9.177,6.058,6.55
1729,0.918,35.663,17.391,30.147,23.244,9.015,5.975,6.468
1730,0.928,35.808,17.403,30.194,23.254,9.257,6.055,6.589
1731,0.925,35.895,17.391,30.185,23.258,9.3,6.056,6.509
1732,0.928,35.599,17.442,30.175,23.244,9.301,6.097,6.467
1733,0.925,35.74,17.372,30.175,23.251,9.341,5.975,6.467
1734,0.922,35.875,17.395,30.175,23.254,9.545,6.096,6.589
1735,0.938,35.973,17.403,30.213,23.268,9.588,6.178,6.631
1736,0.928,36.213,17.43,30.185,23.254,9.547,6.098,6.59
1737,0.938,36.35,17.399,30.166,23.258,9.506,6.178,6.59
1738,0.941,36.476,17.379,30.194,23.254,9.587,6.098,6.631
1739,0.948,36.554,17.43,30.185,23.261,9.588,6.138,6.631
1740,0.925,35.318,17.387,30.166,23.251,9.547,6.098,6.55
1741,0.915,35.449,17.391,30.127,23.247,9.466,5.935,6.427
1742,0.909,35.575,17.453,30.165,23.251,9.424,6.055,6.548
1743,0.921,35.644,17.392,30.156,23.254,9.424,6.056,6.468
1744,0.948,35.846,17.407,30.156,23.247,9.424,6.056,6.426
1745,0.925,35.953,17.414,30.175,23.247,9.342,5.975,6.507
1746,0.928,36.089,17.461,30.146,23.254,9.342,6.055,6.67
1747,0.961,36.138,17.415,30.184,23.265,9.382,6.137,6.631
1748,0.964,35.534,17.395,30.175,23.254,9.261,6.057,6.59
1749,0.961,35.662,17.395,30.175,23.244,9.137,5.975,6.549
1750,0.961,35.779,17.414,30.185,23.258,9.136,6.055,6.549
1751,0.974,35.914,17.391,30.175,23.258,9.177,6.097,6.549
1752,0.997,35.753,17.477,30.166,23.265,9.137,6.056,6.468
1753,0.981,35.866,17.329,30.127,23.244,8.933,5.975,6.426
1754,0.984,35.992,17.422,30.175,23.254,9.093,6.015,6.426
1755,0.974,35.629,17.438,30.137,23.254,9.136,6.015,6.466
1756,0.977,35.663,17.438,30.146,23.251,9.136,5.974,6.426
1757,0.981,35.798,17.364,30.146,23.247,9.177,5.933,6.426
1758,0.984,35.895,17.383,30.156,23.258,9.299,6.096,6.548
1759,0.994,35.695,17.414,30.185,23.265,9.544,6.138,6.508
1760,0.994,35.808,17.364,30.146,23.258,9.425,6.057,6.549
1761,1.007,35.943,17.414,30.156,23.254,9.505,6.056,6.468
1762,1.004,36.021,17.454,30.156,23.258,9.628,6.015,6.467
1763,1.0,35.744,17.384,30.165,23.258,9.67,6.096,6.507
1764,1.0,35.885,17.426,30.156,23.254,9.589,5.975,6.345
1765,0.991,35.954,17.399,30.127,23.247,9.507,5.974,6.425
1766,1.004,36.05,17.457,30.146,23.254,9.668,6.015,6.385
1767,1.02,35.668,17.388,30.127,23.254,9.629,6.015,6.385
1768,1.027,35.788,17.414,30.127,23.251,9.507,6.015,6.385
1769,1.023,35.924,17.403,30.127,23.251,9.546,5.974,6.344
1770,1.033,35.973,17.379,30.165,23.254,9.669,6.096,6.547
1771,1.053,35.801,17.414,30.175,23.258,9.711,6.016,6.386
1772,1.043,35.924,17.458,30.146,23.254,9.589,6.056,6.344
1773,1.05,36.04,17.372,30.146,23.254,9.547,6.056,6.343
1774,1.06,36.08,17.406,30.156,23.258,9.547,6.015,6.466
1775,1.053,35.716,17.399,30.146,23.258,9.628,6.056,6.386
1776,1.047,35.837,17.465,30.127,23.247,9.507,5.975,6.222
1777,1.024,35.934,17.435,30.127,23.254,9.587,6.015,6.342
1778,1.03,36.108,17.419,30.136,23.251,9.547,6.015,6.262
1779,1.05,35.927,17.419,30.127,23.254,9.588,5.974,6.302
1780,1.04,36.069,17.407,30.117,23.244,9.588,5.974,6.262
1781,1.037,36.186,17.407,30.117,23.247,9.466,6.015,6.262
1782,1.043,35.861,17.446,30.155,23.261,9.709,6.137,6.465
1783,1.059,35.857,17.399,30.146,23.258,9.548,5.976,6.345
1784,1.05,35.982,17.395,30.127,23.258,9.466,5.974,6.384
1785,1.066,36.06,17.383,30.136,23.261,9.424,6.015,6.303
1786,1.06,35.86,17.418,30.127,23.254,9.424,6.137,6.302
1787,1.076,36.001,17.407,30.136,23.258,9.424,6.057,6.262
1788,1.086,36.108,17.391,30.108,23.244,9.18,5.893,6.221
1789,1.076,36.196,17.399,30.117,23.254,9.259,6.054,6.22
1790,1.099,35.842,17.352,30.127,23.254,9.137,5.975,6.22
1791,1.096,35.972,17.391,30.127,23.251,9.095,5.974,6.18
1792,1.102,36.098,17.438,30.088,23.247,8.973,5.974,6.22
1793,1.115,36.186,17.368,30.107,23.254,9.013,6.015,6.261
1794,1.128,35.976,17.414,30.146,23.272,9.054,6.178,6.424
1795,1.122,36.079,17.403,30.117,23.258,8.932,6.017,6.263
1796,1.099,36.195,17.473,30.117,23.258,8.931,6.015,6.302
1797,1.106,36.283,17.427,30.117,23.261,8.89,6.056,6.262
1798,1.106,36.073,17.403,30.107,23.265,8.809,6.056,6.262
1799,1.112,36.224,17.43,30.117,23.254,8.767,6.097,6.18
1800,1.102,36.302,17.368,30.088,23.247,8.604,5.894,6.139
1801,1.109,36.361,17.398,30.098,23.254,8.643,6.014,6.138
1802,1.119,36.141,17.465,30.117,23.254,8.562,6.096,6.138
1803,1.093,36.282,17.384,30.098,23.251,8.521,5.975,6.138
1804,1.076,36.389,17.406,30.098,23.251,8.398,5.974,6.138
1805,1.096,36.409,17.391,30.107,23.261,8.478,6.096,6.301
1806,1.125,36.227,17.488,30.146,23.265,8.479,6.138,6.18
1807,1.103,36.321,17.408,30.108,23.261,8.357,6.016,6.179
1808,1.122,36.428,17.383,30.117,23.251,8.397,6.056,6.22
1809,1.148,36.304,17.426,30.117,23.258,8.316,6.097,6.22
1810,1.126,36.217,17.423,30.107,23.258,8.437,6.056,6.22
1811,1.145,36.321,17.383,30.088,23.251,8.357,5.975,6.139
1812,1.145,36.409,17.43,30.069,23.247,8.437,6.015,6.098
1813,1.148,36.275,17.403,30.097,23.258,8.479,6.015,6.097
1814,1.142,36.389,17.375,30.079,23.251,8.479,6.015,6.056
1815,1.132,36.524,17.387,30.078,23.251,8.56,6.015,6.137
1816,1.132,36.574,17.418,30.078,23.251,8.602,6.015,6.138
1817,1.132,36.325,17.419,30.126,23.261,8.806,6.218,6.301
1818,1.155,36.505,17.407,30.136,23.268,8.686,6.058,6.14
1819,1.142,36.574,17.418,30.089,23.254,8.684,6.097,6.098
1820,1.129,36.68,17.415,30.098,23.254,8.766,6.056,6.138
1821,1.129,36.403,17.418,30.069,23.258,8.726,6.137,6.179
1822,1.122,36.525,17.461,30.097,23.258,8.685,6.057,6.22
1823,1.129,36.66,17.345,30.069,23.254,8.603,5.975,5.976
1824,1.099,36.69,17.39,30.059,23.244,8.521,6.096,6.096
1825,1.115,36.604,17.414,30.078,23.247,8.642,6.097,6.097
1826,1.122,36.728,17.446,30.069,23.244,8.603,5.975,6.138
1827,1.116,36.863,17.388,30.088,23.244,8.521,5.974,6.098
1828,1.115,36.884,17.344,30.069,23.254,8.561,6.055,6.097
1829,1.115,36.481,17.387,30.088,23.265,8.643,6.097,6.219
1830,1.119,36.631,17.422,30.107,23.261,8.562,6.056,6.098
1831,1.119,36.719,17.387,30.088,23.254,8.521,6.056,6.138
1832,1.112,36.739,17.426,30.078,23.261,8.52,6.137,6.057
1833,1.112,36.643,17.423,30.078,23.261,8.479,6.098,6.178
1834,1.099,36.786,17.415,30.078,23.261,8.52,6.097,6.139
1835,1.073,36.864,17.438,30.069,23.251,8.317,5.975,6.016
1836,1.043,36.913,17.446,30.059,23.254,8.396,5.974,6.096
1837,1.05,36.558,17.395,30.069,23.251,8.356,6.015,6.056
1838,1.03,36.68,17.403,30.078,23.247,8.315,6.015,6.015
1839,1.024,36.757,17.379,30.05,23.251,8.356,6.015,6.015
1840,1.023,36.662,17.324,30.049,23.251,8.275,6.015,6.056
1841,1.036,36.786,17.414,30.078,23.265,8.518,6.218,6.178
1842,1.033,36.912,17.438,30.088,23.258,8.439,6.098,6.139
1843,1.004,36.99,17.38,30.078,23.247,8.519,6.016,6.138
1844,0.991,36.646,17.399,30.059,23.261,8.683,6.096,6.057
1845,0.987,36.767,17.438,30.078,23.261,8.847,6.138,6.097
1846,0.991,36.873,17.477,30.059,23.258,9.011,6.016,6.097
1847,0.968,36.942,17.372,30.049,23.241,9.013,5.974,5.975
1848,0.958,36.789,17.395,30.059,23.254,9.338,6.055,6.055
1849,0.964,36.941,17.391,30.049,23.251,9.464,6.056,6.056
1850,0.951,37.048,17.344,30.049,23.251,9.546,5.975,6.015
1851,0.948,37.126,17.402,30.03,23.251,9.71,5.974,6.015
1852,0.954,36.714,17.434,30.04,23.258,9.955,6.177,6.137
1853,0.958,36.921,17.384,30.078,23.265,10.12,6.057,6.057
1854,0.948,37.0,17.379,30.05,23.261,10.081,6.056,6.056
1855,0.958,37.048,17.414,30.049,23.258,10.203,6.137,6.056
1856,0.935,36.809,17.489,30.049,23.258,10.204,6.057,6.097
1857,0.918,36.951,17.388,30.049,23.254,10.245,6.056,6.138
1858,0.912,37.057,17.414,30.04,23.251,10.164,5.934,5.894
1859,0.882,37.059,17.383,30.03,23.258,10.244,5.974,5.973
1860,0.885,36.857,17.36,30.03,23.251,10.245,6.015,6.015
1861,0.885,36.98,17.398,30.011,23.251,10.245,6.056,6.015
1862,0.882,37.077,17.446,30.02,23.251,10.164,5.975,6.015
1863,0.872,37.107,17.364,30.03,23.251,10.244,6.015,6.096
1864,0.863,37.069,17.375,30.068,23.272,10.286,6.178,6.138
1865,0.862,37.202,17.418,30.03,23.258,10.164,6.139,5.976
1866,0.859,37.281,17.458,30.049,23.251,10.082,6.098,6.055
1867,0.853,36.927,17.392,30.03,23.258,10.04,6.016,6.056
1868,0.862,36.904,17.422,30.04,23.258,9.918,6.096,6.097
1869,0.859,37.028,17.411,30.04,23.258,9.998,6.138,6.016
1870,0.856,37.106,17.426,30.03,23.247,9.714,5.976,5.974
1871,0.84,36.934,17.352,30.03,23.244,9.752,6.015,5.974
1872,0.856,37.086,17.453,30.011,23.251,9.671,6.056,6.015
1873,0.849,37.203,17.403,30.03,23.251,9.711,6.015,6.015
1874,0.843,37.271,17.368,30.02,23.254,9.67,5.974,5.934
1875,0.839,36.85,17.406,30.011,23.254,9.629,6.055,5.974
1876,0.839,37.008,17.438,30.049,23.261,9.751,6.178,6.137
1877,0.846,37.173,17.427,30.059,23.261,9.63,6.057,6.057
1878,0.83,37.194,17.399,30.021,23.254,9.548,6.015,6.056
1879,0.836,36.868,17.438,30.03,23.254,9.588,6.096,6.056
1880,0.81,37.018,17.38,30.02,23.258,9.507,6.097,6.056
1881,0.816,37.144,17.406,30.011,23.258,9.506,6.056,6.097
1882,0.794,37.184,17.422,30.011,23.244,9.303,5.975,6.016
1883,0.761,36.906,17.337,29.982,23.251,9.423,5.974,6.015
1884,0.764,37.038,17.383,30.02,23.254,9.383,6.015,5.974
1885,0.761,37.164,17.414,30.001,23.251,9.342,6.015,6.015
1886,0.777,37.175,17.481,30.001,23.251,9.342,5.974,6.015
1887,0.777,36.945,17.392,29.982,23.251,9.26,5.974,6.096
1888,0.819,37.096,17.422,30.01,23.258,9.463,6.177,6.219
1889,0.813,37.222,17.434,30.011,23.254,9.424,6.057,6.058
1890,0.797,37.204,17.442,30.011,23.258,9.464,6.137,6.097
1891,0.8,37.693,17.391,30.011,23.254,9.465,6.098,6.138
1892,0.803,37.822,17.461,30.011,23.261,9.424,6.138,6.098
1893,0.813,37.92,17.446,30.068,23.258,9.383,6.138,6.138
1894,0.81,37.211,17.391,29.982,23.254,9.301,5.976,5.935
1895,0.784,36.638,17.407,29.972,23.247,9.26,6.055,6.055
1896,0.797,36.786,17.442,29.981,23.254,9.341,6.097,6.056
1897,0.79,36.893,17.36,29.991,23.251,9.26,6.016,5.975
1898,0.777,37.105,17.426,29.991,23.254,9.137,6.015,5.933
1899,0.764,37.27,17.391,29.991,23.247,9.014,6.015,5.933
1900,0.764,37.425,17.368,29.991,23.258,9.176,6.178,6.136
1901,0.777,37.522,17.414,30.02,23.258,9.015,6.057,6.098
1902,0.764,36.871,17.438,29.992,23.251,8.932,6.137,6.138
1903,0.77,37.028,17.368,29.991,23.254,8.931,6.138,6.138
1904,0.77,37.145,17.398,30.001,23.261,8.931,6.138,6.098
1905,0.77,37.222,17.434,30.001,23.254,8.809,6.138,6.016
1906,0.777,36.888,17.446,29.982,23.247,8.767,5.935,5.974
1907,0.771,37.009,17.376,29.962,23.254,8.726,6.055,6.015
1908,0.78,37.183,17.375,29.991,23.254,8.644,6.097,6.096
1909,0.78,37.223,17.383,29.972,23.247,8.603,6.097,6.056
1910,0.774,36.878,17.375,29.972,23.254,8.521,6.056,6.015
1911,0.774,36.999,17.371,29.972,23.251,8.439,6.056,6.056
1912,0.793,37.144,17.465,29.991,23.265,8.601,6.219,6.178
1913,0.797,37.213,17.415,29.982,23.254,8.48,6.058,5.976
1914,0.803,36.964,17.383,29.982,23.258,8.438,6.137,6.096
1915,0.807,37.096,17.414,29.982,23.254,8.357,6.138,6.138
1916,0.79,37.212,17.454,29.972,23.254,8.356,6.138,6.098
1917,0.79,37.242,17.411,29.981,23.258,8.315,6.098,6.056
1918,0.777,36.945,17.407,29.962,23.251,8.152,5.975,5.975
1919,0.761,37.057,17.407,29.991,23.254,8.313,6.055,6.015
1920,0.777,37.193,17.368,29.972,23.251,8.152,6.015,6.056
1921,0.767,37.367,17.367,29.962,23.254,8.069,5.974,5.975
1922,0.754,37.014,17.461,29.953,23.251,8.028,6.055,6.015
1923,0.757,37.144,17.36,29.981,23.258,8.109,6.097,6.218
1924,0.767,37.29,17.43,30.01,23.265,8.15,6.178,6.22
1925,0.764,36.907,17.415,29.982,23.261,7.988,6.057,6.058
1926,0.774,36.923,17.446,29.982,23.258,8.068,6.056,6.056
1927,0.78,37.057,17.395,29.991,23.261,8.028,6.097,6.137
1928,0.793,37.154,17.414,29.991,23.258,8.068,6.138,6.098
1929,0.784,36.973,17.407,29.982,23.258,8.028,6.016,6.016
1930,0.78,37.058,17.422,29.953,23.244,7.824,5.974,6.015
1931,0.784,37.193,17.38,29.972,23.258,7.985,6.015,6.096
1932,0.803,37.29,17.449,29.962,23.254,7.986,6.015,6.016
1933,0.803,36.907,17.403,29.953,23.247,7.986,5.974,6.056
1934,0.803,37.019,17.399,29.943,23.247,7.946,5.974,5.975
1935,0.781,37.144,17.403,29.952,23.254,8.067,6.055,6.137
1936,0.777,37.261,17.485,29.991,23.268,8.15,6.137,6.179
1937,0.787,36.955,17.368,29.982,23.254,7.988,6.057,6.017
1938,0.793,37.077,17.391,29.972,23.261,8.19,6.015,6.056
1939,0.793,37.212,17.426,29.962,23.261,8.11,6.096,6.056
1940,0.777,37.29,17.348,29.981,23.258,8.191,6.056,6.097
1941,0.79,37.023,17.406,29.972,23.258,8.151,6.015,6.016
1942,0.78,37.106,17.426,29.924,23.244,8.11,5.934,5.974
1943,0.751,37.251,17.415,29.971,23.251,8.232,6.014,6.096
1944,0.774,37.281,17.376,29.962,23.254,8.233,5.974,6.016
1945,0.767,36.955,17.422,29.943,23.258,8.233,5.974,6.056
1946,0.774,37.077,17.461,29.933,23.244,8.233,5.974,6.015
1947,0.751,37.183,17.415,29.962,23.254,8.395,6.137,6.056
1948,0.803,37.261,17.422,29.972,23.265,8.6,6.138,6.178
1949,0.794,36.974,17.45,29.953,23.251,8.521,6.016,6.057
1950,0.797,37.106,17.446,29.953,23.254,8.601,6.096,6.097
1951,0.797,37.203,17.376,29.953,23.258,8.602,6.097,6.138
1952,0.813,37.002,17.422,29.953,23.258,8.602,6.097,6.098
1953,0.833,37.0,17.399,29.962,23.258,8.602,6.056,6.016
1954,0.794,37.077,17.387,29.933,23.244,8.44,5.893,5.974
1955,0.784,37.193,17.418,29.933,23.258,8.641,6.054,6.015
1956,0.78,36.878,17.454,29.933,23.251,8.644,6.015,6.015
1957,0.787,37.009,17.399,29.943,23.251,8.684,5.974,6.015
1958,0.784,37.125,17.414,29.933,23.244,8.644,5.974,6.015
1959,0.774,37.222,17.407,29.952,23.258,8.806,6.137,6.137
1960,0.784,36.945,17.438,29.981,23.265,8.889,6.138,6.016
1961,0.784,37.057,17.387,29.943,23.258,8.93,6.098,6.015
1962,0.784,37.154,17.418,29.933,23.254,8.931,6.056,6.096
1963,0.774,37.242,17.419,29.952,23.261,8.972,6.097,6.138
1964,0.784,36.888,17.415,29.962,23.258,9.053,6.097,6.179
1965,0.79,37.028,17.434,29.924,23.258,9.054,5.975,5.976
1966,0.793,37.116,17.43,29.923,23.251,8.932,6.055,6.055
1967,0.784,37.193,17.434,29.943,23.254,9.053,6.015,6.015
1968,0.79,36.935,17.399,29.924,23.251,9.013,6.015,5.934
1969,0.8,37.076,17.383,29.933,23.251,8.932,5.974,5.974
1970,0.807,37.174,17.41,29.914,23.254,9.012,5.974,6.015
1971,0.807,37.261,17.411,29.952,23.258,9.054,6.177,6.096
1972,0.82,36.945,17.43,29.962,23.272,9.013,6.139,6.056
1973,0.803,37.067,17.423,29.943,23.251,8.972,6.057,6.015
1974,0.813,37.154,17.368,29.943,23.254,8.931,6.056,5.974
1975,0.797,37.175,17.434,29.924,23.261,8.89,6.097,6.055
1976,0.803,37.06,17.469,29.952,23.258,8.89,6.138,6.015
1977,0.803,37.193,17.384,29.933,23.251,8.849,6.057,5.893
1978,0.794,37.261,17.383,29.895,23.244,8.646,5.975,5.973
1979,0.8,37.08,17.406,29.933,23.254,8.765,6.096,5.893
1980,0.794,36.877,17.414,29.914,23.254,8.645,6.056,5.892
1981,0.787,36.99,17.383,29.904,23.251,8.603,6.015,5.892
1982,0.774,37.077,17.43,29.914,23.254,8.602,6.096,5.973
1983,0.777,36.992,17.43,29.943,23.268,8.684,6.26,6.055
1984,0.793,37.144,17.415,29.933,23.261,8.562,6.139,5.975
1985,0.793,37.222,17.438,29.933,23.261,8.521,6.057,5.974
1986,0.793,37.31,17.423,29.924,23.258,8.439,6.137,6.015
1987,0.803,36.773,17.407,29.943,23.251,8.438,6.098,6.056
1988,0.8,36.893,17.364,29.952,23.258,8.397,6.138,5.975
1989,0.794,36.99,17.387,29.895,23.247,8.234,5.976,5.811
1990,0.787,37.077,17.422,29.914,23.254,8.273,6.096,5.891
1991,0.8,36.848,17.383,29.923,23.254,8.233,6.016,5.933
1992,0.816,36.98,17.434,29.914,23.254,8.07,6.096,5.852
1993,0.826,37.115,17.403,29.904,23.254,8.028,6.016,5.851
1994,0.817,37.165,17.403,29.904,23.251,8.109,6.137,5.891
1995,0.82,36.839,17.485,29.952,23.268,8.232,6.219,6.054
1996,0.82,36.999,17.458,29.933,23.251,8.07,6.139,5.975
1997,0.8,37.096,17.403,29.981,23.261,8.028,6.016,5.974
1998,0.8,37.136,17.395,29.915,23.258,8.068,6.178,5.893
1999,0.787,36.983,17.407,29.933,23.258,8.028,6.139,5.973
2000,0.787,37.115,17.414,29.924,23.258,8.027,6.057,5.893
2001,0.787,37.203,17.372,29.885,23.244,7.824,5.975,5.811
2002,0.78,37.223,17.461,29.933,23.261,7.985,6.137,5.932
2003,0.774,36.811,17.423,29.924,23.254,8.027,6.138,5.892
2004,0.764,36.922,17.415,29.914,23.251,7.865,6.138,5.892
2005,0.757,37.009,17.465,29.895,23.254,7.904,6.098,5.973
2006,0.777,37.259,17.446,29.914,23.261,8.026,6.178,6.055
2007,0.8,37.051,17.473,30.0,23.261,8.109,6.139,5.934
2008,0.82,37.135,17.372,29.915,23.254,7.947,6.179,6.014
2009,0.807,37.222,17.41,29.914,23.261,7.945,6.179,5.934
2010,0.794,36.926,17.415,29.933,23.251,7.986,6.179,5.974
2011,0.793,36.971,17.383,29.914,23.258,7.986,6.22,5.974
2012,0.819,37.096,17.469,29.904,23.251,7.946,6.058,5.811
2013,0.803,37.155,17.415,29.895,23.247,7.905,6.097,5.891
2014,0.81,36.81,17.395,29.904,23.258,7.985,6.138,5.892
2015,0.823,36.922,17.438,29.895,23.251,7.864,6.179,5.933
2016,0.807,37.038,17.43,29.894,23.254,7.863,6.098,5.892
2017,0.797,37.116,17.411,29.942,23.251,7.944,6.138,5.892
2018,0.794,36.934,17.395,29.933,23.265,8.108,6.301,6.054
2019,0.803,37.105,17.414,29.924,23.258,7.947,6.14,6.015
2020,0.79,37.174,17.415,29.923,23.251,7.945,6.219,5.974
2021,0.787,37.261,17.391,29.904,23.258,7.905,6.261,5.974
2022,0.777,36.811,17.457,29.904,23.265,7.904,6.221,6.055
2023,0.784,36.951,17.411,29.923,23.254,7.863,6.18,6.015
2024,0.777,37.057,17.379,29.876,23.251,7.7,6.057,5.852
2025,0.777,37.087,17.449,29.904,23.254,7.821,6.178,6.054
2026,0.793,36.762,17.431,29.895,23.247,7.781,6.139,5.975
2027,0.8,36.912,17.442,29.971,23.251,7.74,6.138,5.933
2028,0.787,37.019,17.415,29.886,23.251,7.74,6.138,6.014
2029,0.797,37.049,17.438,29.904,23.254,7.821,6.179,6.137
2030,0.826,36.867,17.43,29.952,23.268,7.781,6.301,6.138
2031,0.826,36.98,17.415,29.905,23.254,7.74,6.18,6.016
2032,0.807,37.086,17.446,29.914,23.254,7.74,6.22,6.056
2033,0.823,37.107,17.43,29.895,23.258,7.781,6.18,6.056
2034,0.82,36.867,17.403,29.904,23.265,7.944,6.179,6.097
2035,0.8,37.009,17.442,29.885,23.258,7.864,6.139,5.975
2036,0.774,37.077,17.446,29.866,23.247,7.863,6.098,6.015
2037,0.751,36.857,17.477,29.894,23.254,8.026,6.138,6.056
2038,0.761,36.836,17.427,29.894,23.251,8.068,6.098,6.015
2039,0.764,36.941,17.426,29.885,23.247,8.028,6.138,5.934
2040,0.764,37.048,17.407,29.866,23.247,8.109,6.057,5.933
2041,0.77,36.771,17.403,29.913,23.261,8.394,6.259,6.136
2042,0.774,36.921,17.453,29.914,23.265,8.356,6.18,6.098
2043,0.761,37.019,17.399,29.914,23.258,8.356,6.139,6.097
2044,0.761,37.097,17.399,29.885,23.251,8.397,6.179,6.138
2045,0.757,36.877,17.434,29.904,23.258,8.438,6.179,6.138
2046,0.78,37.018,17.43,29.895,23.261,8.438,6.139,6.138
2047,0.78,37.154,17.426,29.914,23.251,8.438,6.098,6.057
2048,0.767,37.175,17.403,29.856,23.247,8.397,6.097,6.056
2049,0.79,36.753,17.442,29.894,23.254,8.519,6.138,6.097
2050,0.793,36.883,17.43,29.894,23.254,8.561,6.138,6.056
2051,0.793,36.99,17.403,29.875,23.251,8.561,6.138,6.015
2052,0.8,37.067,17.418,29.875,23.247,8.643,6.179,6.056
2053,0.794,36.685,17.411,29.923,23.272,8.765,6.301,6.178
2054,0.813,36.853,17.411,29.895,23.265,8.685,6.14,6.057
2055,0.794,36.922,17.415,29.894,23.258,8.725,6.179,6.137
2056,0.79,36.99,17.415,29.894,23.251,8.726,6.179,6.098
2057,0.787,36.895,17.426,29.875,23.261,8.685,6.22,6.056
2058,0.78,37.028,17.383,29.904,23.261,8.684,6.18,6.056
2059,0.764,37.116,17.414,29.866,23.244,8.603,6.139,6.056
2060,0.767,37.155,17.422,29.875,23.251,8.643,6.219,6.056
2061,0.774,36.772,17.407,29.894,23.258,8.603,6.139,5.975
2062,0.764,36.873,17.391,29.875,23.251,8.521,6.138,5.974
2063,0.748,36.999,17.426,29.865,23.251,8.439,6.138,6.055
2064,0.738,36.952,17.43,29.913,23.258,8.601,6.301,6.137
2065,0.76,36.875,17.446,29.904,23.261,8.521,6.221,6.098
2066,0.761,36.97,17.391,29.885,23.258,8.52,6.18,6.056
2067,0.77,37.077,17.383,29.875,23.254,8.398,6.179,6.056
2068,0.767,36.714,17.395,29.885,23.258,8.438,6.179,6.137
2069,0.78,36.796,17.426,29.894,23.261,8.397,6.22,6.179
2070,0.777,36.941,17.38,29.894,23.247,8.356,6.098,6.017
2071,0.767,36.981,17.383,29.866,23.251,8.356,6.178,6.137
2072,0.787,36.818,17.438,29.875,23.251,8.356,6.179,6.138
2073,0.79,36.96,17.43,29.942,23.251,8.437,6.139,6.057
2074,0.793,37.067,17.419,29.866,23.247,8.357,6.098,6.056
2075,0.787,37.135,17.458,29.856,23.254,8.437,6.219,6.097
2076,0.79,36.637,17.454,29.894,23.265,8.601,6.342,6.26
2077,0.8,36.805,17.399,29.885,23.258,8.44,6.14,6.18
2078,0.774,36.893,17.391,29.875,23.258,8.438,6.138,6.139
2079,0.764,36.971,17.391,29.885,23.254,8.438,6.138,6.179
2080,0.757,36.885,17.375,29.894,23.254,8.397,6.179,6.22
2081,0.757,37.018,17.387,29.894,23.265,8.478,6.22,6.18
2082,0.748,37.106,17.414,29.875,23.251,8.276,6.017,6.098
2083,0.741,37.145,17.418,29.875,23.254,8.355,6.137,6.219
2084,0.744,36.666,17.422,29.875,23.258,8.356,6.138,6.18
2085,0.751,36.786,17.454,29.865,23.251,8.275,6.179,6.139
2086,0.761,36.883,17.446,29.865,23.251,8.193,6.098,6.138
2087,0.754,36.903,17.419,29.875,23.251,8.232,6.178,6.138
2088,0.774,36.788,17.419,29.885,23.265,8.395,6.301,6.341
2089,0.78,36.922,17.415,29.885,23.258,8.275,6.221,6.14
2090,0.784,37.028,17.387,29.885,23.254,8.233,6.22,6.179
2091,0.78,37.221,17.418,29.904,23.258,8.192,6.22,6.261
2092,0.787,36.744,17.403,29.875,23.261,8.232,6.22,6.139
2093,0.784,36.873,17.411,29.875,23.251,8.273,6.22,6.179
2094,0.8,36.942,17.391,29.856,23.251,8.152,6.058,6.057
2095,0.784,36.731,17.442,29.856,23.254,8.273,6.178,6.137
2096,0.774,36.796,17.411,29.856,23.251,8.314,6.098,6.179
2097,0.774,36.941,17.407,29.875,23.251,8.356,6.138,6.098
2098,0.767,37.019,17.403,29.856,23.247,8.315,6.138,6.138
2099,0.757,36.588,17.418,29.856,23.254,8.396,6.219,6.26
2100,0.774,36.747,17.403,29.904,23.272,8.56,6.261,6.302
2101,0.774,36.873,17.414,29.856,23.258,8.439,6.139,6.18
2102,0.761,36.922,17.415,29.884,23.258,8.438,6.179,6.179
2103,0.754,36.654,17.407,29.885,23.258,8.397,6.22,6.261
2104,0.757,36.776,17.414,29.885,23.258,8.397,6.22,6.18
2105,0.767,36.902,17.461,29.875,23.251,8.397,6.139,6.098
2106,0.77,36.942,17.431,29.856,23.247,8.275,6.098,6.056
2107,0.767,36.751,17.415,29.856,23.254,8.355,6.178,6.097
2108,0.754,36.902,17.407,29.865,23.251,8.356,6.22,6.097
2109,0.757,37.019,17.403,29.856,23.247,8.275,6.139,6.056
2110,0.77,37.049,17.407,29.856,23.247,8.274,6.057,6.137
2111,0.774,36.694,17.383,29.865,23.258,8.436,6.219,6.179
2112,0.784,36.825,17.445,29.904,23.272,8.641,6.22,6.179
2113,0.777,36.941,17.419,29.866,23.258,8.603,6.139,6.098
2114,0.777,36.981,17.411,29.865,23.254,8.684,6.098,6.097
2115,0.787,36.741,17.442,29.856,23.254,8.928,6.178,6.138
2116,0.787,36.864,17.477,29.875,23.258,9.093,6.22,6.179
2117,0.78,36.999,17.462,29.904,23.254,9.258,6.098,5.976
2118,0.774,36.981,17.403,29.827,23.247,9.3,6.056,6.096
2119,0.761,36.693,17.391,29.855,23.251,9.504,6.097,6.056
2120,0.761,36.825,17.414,29.856,23.254,9.628,6.138,6.015
2121,0.757,36.932,17.415,29.856,23.247,9.67,6.098,5.974
2122,0.754,36.789,17.379,29.856,23.251,9.711,6.097,5.974
2123,0.744,36.787,17.434,29.884,23.261,9.914,6.26,6.299
2124,0.747,36.97,17.395,29.904,23.261,9.916,6.18,6.099
2125,0.741,37.019,17.442,29.866,23.254,9.876,6.139,6.097
2126,0.747,36.617,17.376,29.865,23.258,9.835,6.179,6.016
2127,0.754,36.728,17.406,29.846,23.258,9.916,6.22,6.137
2128,0.761,36.873,17.407,29.865,23.265,9.916,6.098,6.138
2129,0.764,36.951,17.407,29.846,23.254,9.713,6.016,5.976
2130,0.751,36.645,17.411,29.856,23.251,9.752,6.137,6.055
2131,0.77,36.824,17.391,29.875,23.254,9.752,6.057,6.056
2132,0.78,36.912,17.465,29.865,23.254,9.671,6.056,5.975
2133,0.78,37.0,17.439,29.856,23.247,9.548,6.097,5.974
2134,0.777,36.617,17.368,29.846,23.251,9.547,6.056,6.055
2135,0.793,36.786,17.434,29.884,23.268,9.669,6.259,6.178
2136,0.803,36.902,17.446,29.875,23.254,9.426,6.139,6.017
2137,0.787,36.961,17.321,29.865,23.254,9.424,6.098,5.974
2138,0.78,36.789,17.379,29.856,23.258,9.464,6.056,6.137
2139,0.78,36.922,17.406,29.865,23.261,9.383,6.137,6.057
2140,0.774,37.057,17.454,29.865,23.261,9.382,6.138,5.975
2141,0.751,37.068,17.403,29.837,23.247,9.22,6.016,5.852
2142,0.725,36.646,17.407,29.846,23.254,9.259,6.056,5.973
2143,0.728,36.795,17.414,29.875,23.251,9.178,6.056,5.974
2144,0.741,36.902,17.403,29.856,23.251,9.218,6.015,5.974
