time,ecg,bvp,gsr,rsp,skt,emg_zygo,emg_coru,emg_trap
0,0.8,35.343,24.677,37.88,34.305,5.029,6.057,11.271
1,0.803,35.43,24.7,37.851,34.301,4.989,6.219,11.312
2,0.826,35.048,24.646,37.908,34.322,5.11,6.139,11.475
3,0.817,35.169,24.634,37.957,34.305,5.071,6.098,11.477
4,0.803,35.294,24.633,37.9,34.308,5.07,6.097,11.477
5,0.81,35.382,24.606,37.909,34.305,4.989,5.975,11.274
6,0.784,35.028,24.618,37.89,34.301,5.029,5.974,11.353
7,0.784,35.178,24.68,37.899,34.298,4.989,6.055,11.273
8,0.79,35.285,24.626,37.89,34.301,4.907,6.056,11.353
9,0.784,35.372,24.645,37.938,34.315,5.109,6.219,11.354
10,0.774,35.546,24.614,37.909,34.308,4.989,6.098,11.313
11,0.774,35.701,24.684,37.919,34.308,5.07,6.097,11.394
12,0.774,35.808,24.665,37.928,34.305,4.989,6.097,11.354
13,0.764,35.799,24.599,37.89,34.294,4.948,6.016,11.232
14,0.777,34.86,24.567,37.928,34.301,5.029,6.015,11.109
15,0.777,34.984,24.566,37.9,34.301,4.948,6.015,11.067
16,0.774,35.12,24.621,37.947,34.315,5.069,6.178,11.229
17,0.784,35.112,24.633,37.919,34.301,5.03,6.098,11.027
18,0.797,35.092,24.7,37.919,34.304,4.948,6.097,11.025
19,0.777,35.236,24.595,37.938,34.311,4.947,6.097,10.903
20,0.761,35.305,24.653,37.9,34.291,4.866,5.975,10.739
21,0.777,34.931,24.63,37.947,34.304,4.987,6.015,10.657
22,0.774,35.014,24.692,37.929,34.298,4.907,6.015,10.534
23,0.767,35.149,24.704,37.928,34.304,4.987,6.056,10.614
24,0.777,35.275,24.646,37.976,34.308,4.988,5.975,10.452
25,0.771,35.017,24.614,37.948,34.305,4.988,6.055,10.328
26,0.767,35.178,24.645,38.005,34.305,5.029,6.137,10.327
27,0.757,35.285,24.614,37.939,34.305,4.907,5.976,10.124
28,0.757,35.353,24.68,37.957,34.301,4.987,6.055,10.0
29,0.754,34.961,24.646,37.967,34.301,4.907,5.975,9.917
30,0.757,35.091,24.645,37.929,34.294,4.947,6.055,9.794
31,0.761,35.246,24.606,38.005,34.322,5.15,6.178,9.793
32,0.744,35.276,24.649,37.977,34.305,5.031,6.098,9.671
33,0.751,35.027,24.657,37.986,34.305,5.07,6.178,9.629
34,0.764,35.178,24.669,37.977,34.308,5.03,6.098,9.344
35,0.751,35.237,24.63,37.967,34.301,4.948,6.097,9.301
36,0.761,35.295,24.598,37.958,34.301,4.947,6.056,9.178
37,0.77,34.922,24.586,37.986,34.301,4.907,6.097,9.177
38,0.783,35.091,24.617,38.015,34.315,5.109,6.219,9.259
39,0.784,35.169,24.684,38.006,34.294,4.989,6.139,9.056
40,0.78,35.371,24.587,38.015,34.308,4.988,6.138,8.932
41,0.79,35.124,24.637,37.987,34.311,4.988,6.179,8.931
42,0.78,35.198,24.602,37.977,34.291,4.826,5.976,8.768
43,0.78,35.333,24.637,38.006,34.297,4.946,6.096,8.685
44,0.764,34.865,24.712,37.987,34.304,4.907,6.056,8.644
45,0.767,34.917,24.693,38.015,34.301,4.987,6.137,8.684
46,0.787,35.1,24.654,38.035,34.308,4.907,6.179,8.562
47,0.767,35.179,24.638,38.025,34.305,4.987,6.057,8.561
48,0.748,34.94,24.633,38.025,34.315,4.988,6.097,8.48
49,0.747,35.052,24.637,38.025,34.301,4.866,5.975,8.276
50,0.747,35.197,24.672,38.025,34.308,4.906,6.096,8.314
51,0.747,35.304,24.571,38.025,34.301,4.906,6.056,8.274
52,0.76,34.922,24.629,38.025,34.298,4.865,6.097,8.314
53,0.767,35.129,24.629,38.083,34.318,5.068,6.178,8.274
54,0.77,35.198,24.657,38.045,34.301,4.948,6.098,8.233
55,0.774,35.266,24.649,38.064,34.311,4.947,6.178,8.233
56,0.78,34.931,24.63,38.026,34.305,4.947,6.139,8.111
57,0.771,35.033,24.629,38.025,34.301,4.988,6.098,8.028
58,0.78,35.178,24.59,38.035,34.301,4.866,6.016,7.987
59,0.784,35.218,24.582,38.025,34.304,4.865,5.974,7.946
60,0.79,34.988,24.656,38.073,34.311,5.068,6.218,8.067
61,0.797,35.11,24.645,38.054,34.308,4.867,6.098,7.946
62,0.8,35.236,24.548,38.064,34.301,4.946,6.097,7.905
63,0.803,35.276,24.617,38.064,34.308,5.069,6.138,7.863
64,0.781,34.979,24.602,38.026,34.301,4.826,5.976,7.7
65,0.784,35.139,24.633,38.064,34.308,4.865,6.055,7.74
66,0.78,35.246,24.641,38.045,34.301,4.906,5.975,7.577
67,0.774,34.902,24.7,38.054,34.311,4.987,6.096,7.779
68,0.79,34.927,24.568,38.093,34.308,4.948,6.097,7.659
69,0.78,35.043,24.609,38.064,34.308,4.866,6.056,7.658
70,0.78,35.14,24.657,38.102,34.308,4.987,6.015,7.658
71,0.777,34.901,24.641,38.064,34.298,4.866,5.974,7.373
72,0.78,35.033,24.618,38.074,34.301,4.946,6.015,7.492
73,0.79,35.188,24.543,38.083,34.304,4.866,6.015,7.534
74,0.793,35.237,24.59,38.064,34.298,4.946,6.056,7.494
75,0.823,34.902,24.637,38.121,34.318,5.069,6.097,7.494
76,0.81,35.023,24.633,38.084,34.308,4.989,6.016,7.494
77,0.82,35.149,24.669,38.093,34.311,4.988,6.056,7.412
78,0.83,35.218,24.618,38.103,34.308,4.988,6.097,7.33
79,0.817,34.825,24.582,38.083,34.301,4.988,6.097,7.37
80,0.826,34.975,24.598,38.083,34.304,4.988,6.056,7.33
81,0.849,35.082,24.621,38.083,34.305,4.948,6.056,7.248
82,0.849,35.169,24.645,38.102,34.318,5.15,6.219,7.41
83,0.833,34.844,24.548,38.083,34.305,5.031,6.139,7.33
84,0.833,35.003,24.531,38.102,34.301,5.111,6.138,7.248
85,0.826,35.13,24.535,38.122,34.311,5.071,6.098,7.247
86,0.813,35.121,24.558,38.065,34.294,4.908,6.056,7.125
87,0.826,34.978,24.605,38.093,34.301,4.987,6.137,7.124
88,0.823,35.091,24.621,38.083,34.304,4.988,6.098,7.083
89,0.826,35.207,24.61,38.102,34.305,5.07,6.178,7.164
90,0.836,35.161,24.61,38.122,34.305,5.03,6.139,7.043
91,0.83,35.045,24.61,38.122,34.305,4.989,6.138,7.082
92,0.839,35.169,24.649,38.122,34.308,5.11,6.26,7.123
93,0.836,35.247,24.645,38.084,34.298,4.908,6.058,6.961
94,0.849,34.873,24.657,38.093,34.304,5.028,6.137,7.0
95,0.853,34.985,24.626,38.093,34.301,4.989,6.057,6.96
96,0.859,35.101,24.579,38.093,34.308,4.988,6.219,7.0
97,0.879,35.246,24.594,38.141,34.315,5.11,6.139,7.041
98,0.879,34.864,24.606,38.122,34.305,5.071,6.179,7.001
99,0.879,35.013,24.633,38.122,34.308,5.07,6.179,7.001
100,0.885,35.139,24.528,38.141,34.301,4.989,6.057,6.838
101,0.882,35.208,24.57,38.113,34.304,5.07,6.178,6.958
102,0.876,34.767,24.625,38.103,34.301,4.989,6.017,6.919
103,0.869,34.907,24.61,38.112,34.304,5.029,6.178,6.919
104,0.882,35.062,24.66,38.16,34.308,5.03,6.22,6.919
105,0.879,35.121,24.595,38.132,34.311,5.07,6.18,6.919
106,0.882,35.006,24.563,38.141,34.301,5.111,6.261,7.041
107,0.892,35.139,24.582,38.122,34.304,4.949,6.18,6.798
108,0.876,35.265,24.567,38.132,34.301,5.029,6.22,6.877
109,0.876,35.286,24.629,38.122,34.304,4.989,6.261,6.877
110,0.885,34.931,24.567,38.122,34.301,4.988,6.302,6.877
111,0.885,35.119,24.598,38.179,34.318,5.11,6.262,6.877
112,0.882,35.198,24.578,38.161,34.308,4.989,6.302,6.837
113,0.889,35.391,24.641,38.142,34.311,5.029,6.343,6.918
114,0.905,34.932,24.649,38.141,34.305,4.989,6.303,6.674
115,0.895,35.004,24.649,38.141,34.308,5.07,6.302,6.794
116,0.912,35.139,24.645,38.151,34.301,4.989,6.302,6.795
117,0.922,34.853,24.571,38.141,34.294,4.988,6.221,6.755
118,0.935,34.975,24.633,38.189,34.318,5.192,6.383,6.917
119,0.925,35.091,24.653,38.161,34.308,4.99,6.303,6.796
120,0.935,35.188,24.684,38.17,34.311,5.029,6.343,6.755
121,0.938,34.825,24.622,38.17,34.308,5.07,6.343,6.754
122,0.928,34.927,24.559,38.132,34.301,4.908,6.343,6.714
123,0.944,35.11,24.594,38.17,34.301,5.028,6.303,6.672
124,0.935,35.16,24.574,38.161,34.294,4.989,6.221,6.631
125,0.925,34.796,24.566,38.17,34.308,5.07,6.464,6.794
126,0.944,34.974,24.602,38.161,34.308,5.07,6.304,6.714
127,0.941,35.091,24.625,38.17,34.305,5.03,6.343,6.794
128,0.945,35.159,24.575,38.19,34.311,5.03,6.343,6.795
129,0.938,34.872,24.555,38.161,34.294,4.907,6.221,6.633
130,0.941,35.042,24.625,38.18,34.308,4.987,6.342,6.672
131,0.945,35.13,24.61,38.171,34.298,4.988,6.221,6.591
132,0.954,35.198,24.547,38.19,34.304,5.07,6.342,6.712
133,0.967,34.892,24.57,38.286,34.301,5.03,6.303,6.672
134,0.974,35.004,24.582,38.2,34.311,5.03,6.262,6.631
135,0.984,35.139,24.578,38.219,34.312,5.111,6.343,6.631
136,0.987,35.131,24.598,38.18,34.298,4.908,6.181,6.55
137,0.994,34.891,24.641,38.19,34.297,5.109,6.261,6.59
138,1.01,35.014,24.591,38.199,34.297,4.908,6.221,6.509
139,1.01,35.12,24.567,38.199,34.308,4.987,6.261,6.63
140,1.027,34.862,24.613,38.247,34.311,5.07,6.302,6.59
141,1.037,34.783,24.629,38.21,34.308,5.07,6.221,6.59
142,1.027,34.936,24.618,38.219,34.311,5.07,6.22,6.549
143,1.033,35.052,24.559,38.238,34.301,5.03,6.22,6.468
144,1.011,34.747,24.582,38.209,34.301,5.03,6.22,6.507
145,1.027,34.907,24.59,38.219,34.301,5.03,6.22,6.427
146,1.027,35.014,24.547,38.209,34.301,4.948,6.139,6.466
147,1.037,35.159,24.625,38.238,34.315,5.15,6.382,6.629
148,1.04,34.719,24.606,38.219,34.301,4.99,6.222,6.509
149,1.046,34.878,24.575,38.276,34.308,4.988,6.18,6.549
150,1.063,35.023,24.574,38.258,34.305,5.07,6.179,6.508
151,1.05,35.063,24.555,38.219,34.291,4.908,6.139,6.549
152,1.063,34.795,24.625,38.238,34.308,4.987,6.219,6.468
153,1.066,34.907,24.567,38.248,34.301,4.948,6.058,6.426
154,1.086,35.052,24.559,38.248,34.311,5.029,6.259,6.548
155,1.096,35.13,24.582,38.248,34.312,4.989,6.139,6.468
156,1.096,34.815,24.594,38.248,34.305,4.988,6.179,6.507
157,1.115,34.965,24.61,38.267,34.308,5.029,6.179,6.467
158,1.102,35.053,24.625,38.219,34.287,4.867,5.935,6.345
159,1.125,35.121,24.586,38.238,34.301,4.987,6.096,6.384
160,1.129,34.862,24.574,38.248,34.301,4.907,5.975,6.344
161,1.132,34.994,24.59,38.248,34.301,4.987,6.137,6.384
162,1.138,35.178,24.625,38.277,34.308,4.948,6.098,6.385
163,1.151,35.055,24.626,38.267,34.305,5.029,6.178,6.303
164,1.148,34.91,24.622,38.277,34.311,5.111,6.22,6.465
165,1.135,35.043,24.571,38.248,34.305,4.908,5.976,6.264
166,1.138,35.14,24.551,38.286,34.301,4.906,6.177,6.343
167,1.129,34.815,24.551,38.267,34.298,4.906,6.057,6.343
168,1.135,34.907,24.57,38.248,34.297,4.865,6.097,6.343
169,1.164,35.081,24.578,38.296,34.322,5.109,6.219,6.425
170,1.171,35.15,24.508,38.277,34.305,4.989,6.139,6.426
171,1.155,34.844,24.554,38.315,34.308,4.988,6.138,6.426
172,1.168,34.984,24.57,38.296,34.301,4.988,6.098,6.344
173,1.162,35.082,24.582,38.267,34.294,4.948,6.056,6.343
174,1.181,35.179,24.609,38.277,34.297,4.907,6.056,6.262
175,1.175,34.825,24.649,38.267,34.297,4.825,6.015,6.343
176,1.191,34.946,24.591,38.296,34.311,4.987,6.178,6.506
177,1.207,35.1,24.524,38.335,34.301,4.907,6.139,6.345
178,1.204,35.169,24.55,38.277,34.304,4.987,6.057,6.425
179,1.214,34.892,24.594,38.306,34.305,4.988,6.178,6.466
180,1.201,35.033,24.594,38.287,34.294,4.866,5.976,6.264
181,1.214,35.14,24.543,38.325,34.304,4.906,6.015,6.302
182,1.214,35.189,24.574,38.306,34.305,4.906,6.015,6.302
183,1.211,34.844,24.559,38.296,34.308,4.947,6.056,6.343
184,1.227,35.051,24.644,38.344,34.318,5.069,6.056,6.343
185,1.208,35.121,24.602,38.306,34.305,4.908,6.056,6.303
186,1.22,35.447,24.653,38.325,34.311,4.947,6.097,6.384
187,1.208,35.086,24.563,38.325,34.308,5.029,6.016,6.303
188,1.194,35.188,24.527,38.297,34.305,4.907,6.015,6.302
189,1.198,35.323,24.566,38.335,34.298,4.987,6.015,6.302
190,1.204,34.999,24.59,38.287,34.294,4.826,5.974,6.302
191,1.204,35.063,24.543,38.354,34.318,4.987,6.218,6.465
192,1.211,35.226,24.543,38.335,34.305,5.029,6.017,6.304
193,1.207,35.324,24.551,38.354,34.308,5.03,6.056,6.343
194,1.214,35.056,24.543,38.354,34.305,5.03,6.097,6.384
195,1.211,35.169,24.547,38.316,34.294,4.867,5.894,6.181
196,1.207,35.304,24.59,38.335,34.308,5.028,5.973,6.301
197,1.224,35.373,24.59,38.344,34.301,4.907,5.852,6.221
198,1.214,35.124,24.574,38.345,34.301,4.906,5.973,6.383
199,1.227,35.323,24.551,38.354,34.298,4.947,5.974,6.303
200,1.214,35.401,24.621,38.335,34.304,4.947,6.015,6.262
201,1.217,35.489,24.598,38.335,34.305,4.988,6.015,6.262
202,1.198,35.077,24.532,38.335,34.301,4.907,5.893,6.139
203,1.194,35.217,24.539,38.325,34.304,5.028,5.973,6.26
204,1.181,35.343,24.558,38.344,34.301,4.948,5.974,6.221
205,1.165,35.392,24.535,38.325,34.304,4.866,5.974,6.261
206,1.165,35.479,24.578,38.373,34.322,5.068,6.055,6.343
207,1.145,35.585,24.598,38.355,34.308,4.989,5.975,6.221
208,1.125,35.711,24.52,38.354,34.315,4.988,6.015,6.342
209,1.125,35.731,24.585,38.364,34.305,4.988,5.974,6.181
210,1.099,35.396,24.563,38.345,34.311,4.948,6.055,6.179
211,1.089,35.527,24.648,38.345,34.305,4.907,5.975,6.261
212,1.073,35.624,24.602,38.345,34.301,4.906,5.974,6.18
213,1.06,35.932,24.539,38.383,34.311,5.109,6.137,6.301
214,1.056,36.079,24.519,38.364,34.305,4.989,6.016,6.221
215,1.05,36.205,24.503,38.441,34.308,4.988,5.974,6.22
216,1.04,36.312,24.527,38.374,34.311,4.988,6.015,6.22
217,1.024,35.459,24.5,38.355,34.305,4.948,6.015,6.139
218,1.014,35.556,24.558,38.364,34.308,4.988,5.974,6.179
219,1.007,35.72,24.535,38.45,34.301,4.907,5.893,6.098
220,0.991,35.799,24.508,38.394,34.311,5.028,6.054,6.341
221,0.987,35.886,24.577,38.374,34.308,4.907,6.015,6.14
222,0.965,36.011,24.629,38.383,34.305,4.947,5.974,6.219
223,0.964,36.147,24.622,38.383,34.311,5.029,6.015,6.18
224,0.932,36.186,24.59,38.355,34.298,4.907,5.812,6.017
225,0.905,36.005,24.528,38.383,34.308,4.947,5.932,6.096
226,0.895,36.127,24.566,38.374,34.298,4.866,5.892,6.097
227,0.869,36.244,24.496,38.364,34.308,4.946,5.933,6.138
228,0.872,36.36,24.609,38.412,34.315,5.029,5.974,6.138
229,0.856,36.102,24.532,38.393,34.308,4.948,5.893,6.098
230,0.849,36.253,24.57,38.403,34.311,4.988,5.973,6.178
231,0.827,36.351,24.504,38.393,34.305,4.948,5.893,6.098
232,0.813,36.351,24.574,38.393,34.301,4.988,5.973,6.097
233,0.803,36.351,24.578,38.393,34.301,4.907,5.893,6.138
234,0.8,36.476,24.602,38.383,34.294,4.825,5.933,6.179
235,0.813,36.602,24.629,38.422,34.318,4.987,6.096,6.261
236,0.807,36.555,24.54,38.403,34.308,4.907,5.935,6.18
237,0.787,36.459,24.57,38.403,34.301,4.906,5.974,6.098
238,0.774,36.583,24.543,38.412,34.308,4.987,5.974,6.138
239,0.777,36.641,24.566,38.374,34.298,4.948,5.852,6.179
240,0.777,36.517,24.488,38.402,34.301,4.988,5.891,6.139
241,0.761,36.583,24.503,38.393,34.301,4.866,5.811,6.016
242,0.754,36.737,24.523,38.422,34.308,4.987,6.013,6.218
243,0.764,36.844,24.535,38.403,34.305,4.907,5.974,6.098
244,0.738,36.74,24.578,38.412,34.308,4.987,5.974,6.097
245,0.725,36.864,24.59,38.451,34.308,4.988,5.974,6.178
246,0.715,36.989,24.637,38.403,34.298,4.785,5.811,6.057
247,0.702,37.058,24.516,38.422,34.308,4.946,5.891,6.056
248,0.701,36.78,24.566,38.403,34.301,4.907,5.933,6.056
249,0.685,36.912,24.566,38.403,34.301,4.906,5.933,6.137
250,0.705,37.067,24.598,38.451,34.304,4.987,5.974,6.057
251,0.682,37.107,24.489,38.441,34.305,4.988,5.974,6.137
252,0.688,37.04,24.515,38.451,34.308,4.988,6.015,6.138
253,0.669,37.164,24.527,38.441,34.305,4.948,5.893,6.098
254,0.672,37.223,24.535,38.413,34.305,4.907,5.892,6.097
255,0.682,37.3,24.547,38.432,34.305,4.865,5.892,6.056
256,0.675,37.061,24.57,38.413,34.301,4.906,5.892,6.097
257,0.688,37.202,24.621,38.489,34.315,5.028,6.054,6.3
258,0.682,37.3,24.532,38.442,34.305,4.989,5.975,6.14
259,0.682,37.617,24.527,38.47,34.308,4.988,5.974,6.219
260,0.675,37.179,24.558,38.47,34.308,4.907,5.974,6.22
261,0.675,37.251,24.559,38.413,34.298,4.906,5.933,6.18
262,0.669,37.406,24.492,38.441,34.311,4.947,5.892,6.139
263,0.662,37.129,24.515,38.441,34.301,4.866,5.973,6.138
264,0.643,37.213,24.527,38.47,34.304,5.068,6.096,6.341
265,0.659,37.338,24.511,38.451,34.301,4.948,6.016,6.221
266,0.652,37.416,24.515,38.47,34.304,4.907,6.015,6.22
267,0.642,37.254,24.55,38.47,34.311,4.987,6.056,6.302
268,0.636,37.367,24.512,38.432,34.294,4.826,5.934,6.14
269,0.636,37.522,24.519,38.48,34.301,4.905,6.014,6.219
270,0.639,37.571,24.523,38.471,34.301,4.865,5.974,6.22
271,0.629,37.37,24.566,38.47,34.308,4.987,6.055,6.342
272,0.645,37.541,24.578,38.499,34.305,4.948,6.056,6.262
273,0.636,37.639,24.543,38.48,34.301,4.947,6.056,6.302
274,0.652,37.716,24.5,38.49,34.311,4.988,6.056,6.343
275,0.639,37.228,24.519,38.48,34.301,4.826,5.934,6.14
276,0.636,37.348,24.515,38.499,34.301,4.987,5.974,6.26
277,0.646,37.483,24.531,38.471,34.301,4.866,5.974,6.221
278,0.642,37.513,24.57,38.47,34.301,4.906,5.974,6.302
279,0.659,37.504,24.504,38.518,34.315,5.028,6.137,6.302
280,0.652,37.619,24.495,38.49,34.305,4.907,5.976,6.343
281,0.655,37.716,24.527,38.48,34.305,4.947,6.055,6.303
282,0.646,37.736,24.57,38.518,34.305,4.988,6.015,6.18
283,0.646,37.363,24.543,38.471,34.305,4.907,6.015,6.301
284,0.639,37.522,24.515,38.49,34.305,4.865,5.974,6.18
285,0.626,37.619,24.5,38.49,34.301,4.865,5.893,6.139
286,0.639,37.524,24.437,38.509,34.315,5.068,6.095,6.423
287,0.629,37.533,24.479,38.509,34.305,4.908,6.056,6.263
288,0.623,37.648,24.519,38.509,34.311,4.987,6.015,6.302
289,0.632,37.726,24.585,38.5,34.308,5.029,6.056,6.18
290,0.626,37.315,24.524,38.48,34.301,4.826,5.893,6.179
291,0.626,37.454,24.523,38.509,34.294,4.865,5.973,6.261
292,0.636,37.561,24.543,38.49,34.304,4.865,5.974,6.139
293,0.642,37.648,24.551,38.499,34.305,4.946,6.015,6.301
294,0.655,37.458,24.629,38.519,34.311,4.947,6.015,6.18
295,0.639,37.552,24.583,38.509,34.298,4.907,6.015,6.179
296,0.646,37.668,24.559,38.519,34.315,4.987,6.056,6.22
297,0.655,37.793,24.465,38.528,34.298,4.866,5.975,6.139
298,0.646,37.306,24.464,38.509,34.304,4.946,6.096,6.26
299,0.652,37.445,24.558,38.509,34.305,4.907,5.975,6.099
300,0.639,37.561,24.535,38.49,34.301,4.906,5.974,6.219
301,0.665,37.648,24.539,38.624,34.322,5.069,6.177,6.18
302,0.659,37.333,24.5,38.53,34.315,4.989,6.017,6.22
303,0.662,37.483,24.55,38.519,34.308,5.07,6.015,6.139
304,0.646,37.581,24.594,38.538,34.308,4.948,5.974,6.098
305,0.629,37.582,24.555,38.529,34.308,4.988,6.055,6.138
306,0.652,37.361,24.562,38.529,34.301,4.948,5.934,6.179
307,0.629,37.483,24.48,38.509,34.298,4.947,5.974,6.139
308,0.645,37.629,24.523,38.567,34.318,5.11,6.137,6.341
309,0.633,37.534,24.492,38.539,34.308,4.949,6.016,6.181
310,0.642,37.341,24.581,38.538,34.311,4.988,5.974,6.22
311,0.639,37.454,24.52,38.548,34.305,4.948,5.974,6.22
312,0.62,37.523,24.472,38.557,34.305,4.988,6.015,6.139
313,0.636,37.178,24.534,38.519,34.305,4.948,5.893,6.138
314,0.633,37.242,24.496,38.519,34.301,4.947,5.933,6.057
315,0.658,37.406,24.566,38.557,34.315,5.11,6.096,6.219
316,0.652,37.474,24.535,38.558,34.305,4.989,5.975,6.18
317,0.655,37.178,24.613,38.558,34.301,4.988,6.015,6.139
318,0.655,37.319,24.442,38.567,34.311,4.988,6.015,6.26
319,0.655,37.406,24.487,38.51,34.298,4.866,5.974,6.099
320,0.665,37.484,24.55,38.538,34.304,4.987,6.015,6.178
321,0.678,37.034,24.519,38.529,34.301,4.907,5.893,6.098
322,0.669,37.173,24.492,38.538,34.308,4.906,6.054,6.138
323,0.675,37.347,24.413,38.557,34.305,5.028,5.975,6.098
324,0.662,37.378,24.479,38.548,34.308,4.989,5.974,6.138
325,0.662,37.062,24.507,38.557,34.305,4.988,6.015,6.138
326,0.659,37.193,24.496,38.529,34.301,4.866,5.852,5.976
327,0.646,37.309,24.554,38.548,34.301,4.987,6.013,6.055
328,0.646,37.33,24.527,38.548,34.301,4.866,5.934,6.015
329,0.646,37.061,24.519,38.529,34.304,4.865,5.974,6.056
330,0.668,37.231,24.511,38.576,34.322,5.068,6.055,6.097
331,0.656,37.31,24.562,38.539,34.308,4.948,6.056,6.097
332,0.652,37.627,24.551,38.577,34.308,4.988,6.056,6.178
333,0.662,37.103,24.519,38.567,34.308,4.988,5.975,6.098
334,0.659,37.203,24.492,38.548,34.301,4.907,5.974,6.097
335,0.675,37.3,24.456,38.567,34.301,4.947,5.933,6.056
336,0.675,36.917,24.452,38.548,34.304,4.907,5.974,5.975
337,0.675,36.98,24.495,38.577,34.315,5.069,6.055,6.259
338,0.675,37.077,24.573,38.548,34.308,4.989,6.015,6.099
339,0.672,37.174,24.516,38.586,34.305,4.988,6.015,6.056
340,0.685,36.83,24.527,38.587,34.315,4.988,6.015,6.097
341,0.675,36.922,24.48,38.52,34.291,4.826,5.893,6.056
342,0.669,37.057,24.53,38.567,34.304,4.946,5.973,6.015
343,0.669,37.135,24.574,38.548,34.301,4.947,5.974,5.974
344,0.669,36.772,24.543,38.548,34.304,4.947,6.055,6.137
345,0.669,36.95,24.527,38.586,34.308,4.988,6.015,6.098
346,0.656,37.038,24.429,38.577,34.301,4.948,6.015,6.056
347,0.652,37.125,24.487,38.577,34.315,4.988,6.056,6.097
348,0.649,36.685,24.476,38.567,34.305,4.907,5.934,5.894
349,0.642,36.805,24.546,38.558,34.301,4.947,5.974,6.014
350,0.655,36.931,24.449,38.586,34.301,4.907,5.933,6.015
351,0.639,36.981,24.436,38.548,34.301,4.906,5.974,6.056
352,0.662,36.713,24.495,38.605,34.318,5.069,6.137,6.178
353,0.652,36.815,24.527,38.568,34.312,4.908,6.057,6.017
354,0.655,36.931,24.562,38.577,34.301,4.987,6.056,6.015
355,0.681,36.961,24.59,38.586,34.304,4.948,6.015,6.015
356,0.656,36.511,24.551,38.548,34.301,4.825,5.934,5.974
357,0.655,36.65,24.461,38.586,34.304,4.946,5.974,6.015
358,0.668,36.767,24.495,38.567,34.294,4.907,5.974,5.934
359,0.675,36.615,24.531,38.596,34.308,5.028,6.015,6.136
360,0.691,36.632,24.515,38.596,34.305,4.907,5.974,6.016
361,0.682,36.747,24.46,38.577,34.305,4.987,5.974,6.015
362,0.672,36.864,24.483,38.586,34.308,4.988,6.015,6.015
363,0.669,36.357,24.491,38.558,34.294,4.907,5.893,5.893
364,0.662,36.467,24.503,38.567,34.304,4.947,5.973,5.892
365,0.659,36.592,24.527,38.577,34.301,4.866,5.974,5.933
366,0.656,36.651,24.586,38.558,34.304,4.906,5.974,6.014
367,0.668,36.326,24.528,38.615,34.311,5.069,6.015,5.974
368,0.662,36.447,24.515,38.587,34.305,4.989,5.974,5.974
369,0.659,36.573,24.492,38.587,34.305,4.988,6.055,6.055
370,0.659,36.651,24.534,38.587,34.311,4.988,5.975,5.893
371,0.643,36.211,24.461,38.596,34.308,4.988,6.015,5.973
372,0.646,36.36,24.401,38.596,34.305,5.029,5.974,5.893
373,0.642,36.467,24.452,38.577,34.305,4.989,5.974,5.933
374,0.662,36.564,24.479,38.625,34.315,5.07,6.137,6.055
375,0.662,36.315,24.507,38.577,34.308,5.07,6.098,5.975
376,0.675,36.447,24.488,38.596,34.305,5.03,6.097,5.933
377,0.669,36.544,24.542,38.596,34.308,5.03,6.056,5.974
378,0.665,36.536,24.433,38.577,34.301,4.907,6.015,5.893
379,0.672,36.066,24.425,38.596,34.304,4.987,6.056,5.892
380,0.665,36.195,24.514,38.587,34.298,4.948,5.975,5.892
381,0.675,36.312,24.546,38.606,34.304,4.988,6.177,5.973
382,0.682,36.322,24.48,38.606,34.308,5.029,6.017,5.893
383,0.669,36.15,24.437,38.596,34.308,5.03,6.056,5.892
384,0.675,36.282,24.471,38.606,34.305,5.07,6.137,6.014
385,0.656,36.351,24.456,38.568,34.294,4.826,5.976,5.893
386,0.655,35.882,24.468,38.606,34.308,5.027,6.015,5.973
387,0.649,35.954,24.519,38.587,34.301,4.867,5.974,5.811
388,0.639,36.098,24.492,38.596,34.311,5.028,6.137,5.972
389,0.649,36.224,24.491,38.615,34.305,4.989,6.098,5.893
390,0.655,35.909,24.484,38.597,34.305,4.988,6.056,5.933
391,0.649,36.079,24.507,38.625,34.305,5.029,6.097,6.055
392,0.649,36.167,24.542,38.597,34.298,4.907,5.975,5.853
393,0.639,36.235,24.504,38.606,34.304,5.028,6.055,5.973
394,0.646,35.717,24.495,38.587,34.301,5.03,6.015,5.893
395,0.642,35.856,24.406,38.587,34.301,4.989,5.974,5.892
396,0.662,36.02,24.479,38.635,34.311,5.11,6.055,6.014
397,0.669,36.061,24.425,38.625,34.305,5.03,6.097,5.974
398,0.659,35.687,24.495,38.597,34.311,5.07,6.056,6.015
399,0.669,35.837,24.437,38.625,34.301,5.07,6.015,5.934
400,0.656,35.934,24.452,38.587,34.301,5.03,6.015,5.933
401,0.665,35.983,24.472,38.596,34.308,4.948,5.974,5.892
402,0.656,35.6,24.483,38.606,34.301,4.988,6.015,5.851
403,0.681,35.769,24.55,38.644,34.315,5.151,6.137,6.013
404,0.666,35.876,24.48,38.616,34.305,4.99,5.976,5.893
405,0.649,36.136,24.534,38.616,34.308,5.07,6.015,6.014
406,0.639,35.621,24.492,38.644,34.305,5.07,5.974,5.974
407,0.626,35.721,24.468,38.597,34.305,4.989,5.974,5.974
408,0.632,35.847,24.487,38.606,34.305,4.988,5.974,5.893
409,0.632,35.551,24.511,38.616,34.301,4.988,5.933,5.973
410,0.639,35.615,24.464,38.644,34.311,5.151,6.136,6.137
411,0.639,35.74,24.472,38.625,34.305,5.031,6.016,6.016
412,0.649,35.837,24.491,38.625,34.305,5.03,6.015,6.056
413,0.642,35.426,24.476,38.625,34.305,5.07,5.974,6.015
414,0.642,35.527,24.519,38.597,34.294,4.948,5.852,5.974
415,0.655,35.71,24.539,38.644,34.308,4.988,5.973,5.974
416,0.659,35.76,24.488,38.606,34.305,4.948,5.893,5.933
417,0.652,35.329,24.398,38.635,34.318,5.15,6.054,6.177
418,0.662,35.497,24.451,38.625,34.305,4.99,5.975,6.057
419,0.656,35.614,24.518,38.635,34.305,5.029,5.974,6.097
420,0.652,35.682,24.48,38.635,34.308,5.03,6.015,6.097
421,0.655,35.395,24.487,38.673,34.291,4.867,5.852,5.935
422,0.662,35.527,24.433,38.645,34.301,5.028,5.891,6.014
423,0.656,35.662,24.452,38.625,34.301,4.948,5.933,6.015
424,0.629,35.702,24.433,38.625,34.301,4.988,5.974,6.056
425,0.655,35.434,24.534,38.635,34.301,4.988,5.893,6.137
426,0.642,35.527,24.519,38.635,34.304,5.029,5.892,6.138
427,0.642,35.653,24.48,38.645,34.315,5.03,5.973,6.098
428,0.642,35.692,24.48,38.616,34.301,4.907,5.811,5.975
429,0.629,35.453,24.484,38.635,34.301,5.028,5.85,6.137
430,0.632,35.575,24.546,38.625,34.304,4.989,5.851,6.098
431,0.629,35.673,24.449,38.644,34.301,4.988,5.891,6.219
432,0.645,35.558,24.468,38.673,34.311,5.11,5.973,6.18
433,0.62,35.471,24.409,38.645,34.301,5.071,5.893,6.139
434,0.636,35.604,24.44,38.645,34.308,5.07,5.892,6.219
435,0.646,35.702,24.495,38.635,34.308,4.989,5.851,6.098
436,0.642,35.367,24.511,38.635,34.305,5.029,5.851,6.097
437,0.655,35.479,24.519,38.625,34.301,5.03,5.81,6.056
438,0.646,35.624,24.464,38.74,34.294,4.948,5.81,6.056
439,0.662,35.73,24.46,38.684,34.322,5.191,6.013,6.259
440,0.643,35.521,24.507,38.645,34.308,5.072,5.893,6.262
441,0.659,35.672,24.511,38.664,34.305,5.111,5.973,6.18
442,0.649,35.789,24.418,38.664,34.308,5.112,5.974,6.22
443,0.642,35.838,24.436,38.654,34.298,5.03,5.893,6.139
444,0.642,35.445,24.393,38.645,34.304,5.03,5.892,6.138
445,0.636,35.585,24.397,38.645,34.298,5.03,5.851,6.179
446,0.639,35.73,24.405,38.645,34.301,5.151,6.013,6.22
447,0.642,35.789,24.502,38.645,34.304,5.112,5.974,6.139
448,0.633,35.569,24.46,38.654,34.305,5.112,5.893,6.219
449,0.629,35.73,24.472,38.674,34.308,5.112,5.973,6.22
450,0.629,35.808,24.452,38.645,34.298,4.989,5.811,6.18
451,0.632,35.867,24.511,38.664,34.304,5.029,5.932,6.139
452,0.636,35.637,24.499,38.645,34.301,5.03,5.892,6.138
453,0.633,35.759,24.437,38.654,34.308,5.192,5.933,6.301
454,0.668,35.924,24.425,38.664,34.308,5.112,5.974,6.18
455,0.662,35.897,24.44,38.741,34.308,5.152,5.893,6.22
456,0.672,35.666,24.425,38.665,34.311,5.193,6.014,6.261
457,0.682,35.779,24.487,38.645,34.294,4.99,5.852,6.099
458,0.682,35.885,24.503,38.664,34.301,5.11,5.891,6.219
459,0.688,35.676,24.507,38.731,34.301,5.03,5.892,6.18
460,0.698,35.741,24.429,38.655,34.294,5.03,5.973,6.179
461,0.721,35.904,24.499,38.702,34.311,5.151,5.974,6.179
462,0.705,35.983,24.534,38.664,34.305,5.071,5.933,6.22
463,0.715,35.667,24.469,38.664,34.308,5.111,5.974,6.22
464,0.705,35.798,24.429,38.674,34.308,5.112,5.852,6.139
465,0.695,35.895,24.385,38.674,34.301,5.03,5.891,6.138
466,0.714,35.992,24.397,38.664,34.304,5.07,5.851,6.098
467,0.682,35.744,24.405,38.645,34.298,5.07,5.81,6.138
468,0.701,35.904,24.479,38.702,34.325,5.233,6.054,6.26
469,0.711,36.011,24.441,38.674,34.301,5.113,5.975,6.139
470,0.705,36.089,24.421,38.683,34.308,5.193,5.893,6.138
471,0.698,35.908,24.432,38.703,34.308,5.153,5.892,6.138
472,0.688,36.021,24.436,38.655,34.298,4.99,5.851,6.138
473,0.714,36.137,24.546,38.674,34.304,5.07,5.81,6.098
474,0.715,36.167,24.512,38.645,34.294,5.03,5.85,6.056
475,0.711,35.88,24.503,38.683,34.311,5.192,6.013,6.219
476,0.708,36.011,24.464,38.683,34.305,5.112,5.974,6.139
477,0.711,36.118,24.483,38.703,34.308,5.152,5.933,6.179
478,0.721,36.32,24.491,38.703,34.308,5.193,5.892,6.098
479,0.715,35.853,24.472,38.664,34.298,4.99,5.811,5.975
480,0.705,36.02,24.413,38.702,34.301,5.151,5.85,6.055
481,0.711,36.089,24.417,38.684,34.298,5.031,5.851,6.056
482,0.702,35.975,24.432,38.674,34.304,5.151,5.973,6.137
483,0.721,36.079,24.491,38.712,34.305,5.112,5.933,6.138
484,0.698,36.195,24.527,38.684,34.308,5.193,6.014,6.098
485,0.721,36.283,24.496,38.712,34.308,5.153,5.974,6.097
486,0.718,35.967,24.46,38.674,34.298,5.071,5.852,6.016
487,0.728,36.108,24.374,38.702,34.301,5.111,5.932,6.056
488,0.741,36.234,24.416,38.693,34.298,5.071,5.892,6.015
489,0.754,36.293,24.471,38.674,34.294,5.111,5.933,6.056
490,0.78,36.14,24.448,38.722,34.315,5.315,6.014,6.097
491,0.758,36.253,24.436,38.713,34.305,5.154,5.974,6.138
492,0.77,36.389,24.401,38.703,34.311,5.193,6.055,6.179
493,0.77,36.457,24.436,38.703,34.308,5.153,5.934,6.017
494,0.774,35.979,24.487,38.703,34.298,5.112,5.974,6.015
495,0.79,36.146,24.523,38.712,34.311,5.112,5.974,6.056
496,0.787,36.244,24.5,38.693,34.298,5.03,5.933,6.015
497,0.81,36.322,24.429,38.731,34.318,5.314,6.055,6.178
498,0.8,36.198,24.467,38.713,34.305,5.195,6.015,6.139
499,0.807,36.321,24.46,38.712,34.308,5.194,5.974,6.057
500,0.803,36.447,24.507,38.722,34.315,5.153,5.974,6.056
501,0.794,36.439,24.398,38.693,34.301,5.112,5.974,6.056
502,0.774,36.218,24.436,38.703,34.304,5.112,5.974,6.056
503,0.767,36.34,24.432,38.684,34.305,5.112,5.893,5.975
504,0.761,36.438,24.413,38.731,34.315,5.274,6.095,6.177
505,0.751,36.276,24.467,38.722,34.301,5.154,5.975,6.139
506,0.757,36.207,24.483,38.722,34.304,5.153,6.015,6.138
507,0.764,36.331,24.48,38.732,34.311,5.193,6.015,6.057
508,0.757,36.418,24.425,38.693,34.301,5.112,6.015,6.056
509,0.767,36.17,24.432,38.722,34.308,5.071,5.974,6.015
510,0.767,36.254,24.456,38.713,34.301,5.111,5.974,5.974
511,0.764,36.408,24.44,38.741,34.315,5.274,6.177,6.177
512,0.764,36.477,24.397,38.732,34.305,5.113,6.017,6.017
513,0.767,36.094,24.389,38.732,34.311,5.112,6.015,6.096
514,0.78,36.253,24.393,38.761,34.305,5.152,6.056,6.056
515,0.774,36.331,24.354,38.694,34.294,4.99,5.893,5.893
516,0.771,36.418,24.451,38.712,34.308,5.07,6.014,6.014
517,0.761,36.227,24.464,38.712,34.298,5.07,5.974,6.015
518,0.741,36.35,24.401,38.741,34.304,5.07,5.974,6.096
519,0.751,36.524,24.463,38.751,34.305,5.152,6.015,6.056
520,0.738,36.545,24.433,38.742,34.308,5.234,6.056,6.015
521,0.725,36.2,24.514,38.741,34.308,5.113,6.056,5.974
522,0.728,36.34,24.437,38.722,34.301,5.03,5.893,5.852
523,0.728,36.438,24.386,38.741,34.308,5.03,6.014,5.891
524,0.718,36.487,24.44,38.732,34.308,5.111,5.934,6.014
525,0.698,36.286,24.378,38.722,34.305,5.071,5.974,6.015
526,0.685,36.447,24.424,38.751,34.318,5.233,6.137,6.056
527,0.666,36.554,24.421,38.742,34.305,5.113,6.138,6.056
528,0.665,36.612,24.471,38.751,34.311,5.071,6.016,6.015
529,0.659,36.412,24.425,38.761,34.308,5.152,6.096,5.974
530,0.629,36.496,24.401,38.722,34.298,5.071,6.056,5.974
531,0.619,36.602,24.463,38.732,34.304,5.03,6.097,5.974
532,0.626,36.268,24.483,38.722,34.301,5.03,5.975,5.974
533,0.613,36.341,24.448,38.751,34.315,5.233,6.137,6.177
534,0.616,36.486,24.358,38.761,34.312,5.113,6.016,6.017
535,0.597,36.554,24.334,38.761,34.305,5.152,6.096,6.056
536,0.603,36.19,24.353,38.751,34.315,5.071,6.138,6.015
537,0.6,36.302,24.389,38.742,34.305,4.989,6.016,5.934
538,0.6,36.437,24.479,38.741,34.301,4.988,6.137,5.933
539,0.616,36.515,24.425,38.751,34.301,5.029,5.976,5.892
540,0.6,36.209,24.432,38.751,34.304,5.07,6.137,6.054
541,0.635,36.398,24.452,38.78,34.315,5.152,6.138,5.975
542,0.629,36.477,24.518,38.751,34.308,5.112,6.138,5.974
543,0.629,36.564,24.476,38.77,34.318,5.071,6.098,6.015
544,0.616,36.162,24.452,38.742,34.298,5.03,5.975,5.893
545,0.61,36.311,24.362,38.751,34.304,5.03,6.137,5.933
546,0.596,36.428,24.432,38.742,34.301,4.989,6.057,6.014
547,0.577,36.458,24.405,38.732,34.301,4.988,6.056,5.893
548,0.599,36.276,24.416,38.78,34.318,5.192,6.137,5.973
549,0.577,36.379,24.432,38.751,34.308,5.072,6.138,5.933
550,0.58,36.505,24.397,38.77,34.305,5.03,6.138,6.014
551,0.58,36.545,24.401,38.77,34.305,5.07,6.138,5.974
552,0.57,36.152,24.409,38.751,34.301,5.03,6.138,6.015
553,0.573,36.301,24.471,38.751,34.301,5.03,6.138,5.974
554,0.57,36.389,24.468,38.732,34.298,4.989,6.057,5.893
555,0.596,36.266,24.452,38.78,34.318,5.232,6.3,6.054
556,0.577,36.303,24.354,38.761,34.308,5.113,6.221,5.934
557,0.596,36.437,24.369,38.77,34.305,5.071,6.18,6.014
558,0.59,36.535,24.408,38.77,34.308,5.152,6.22,5.974
559,0.58,36.018,24.413,38.723,34.301,5.031,6.098,5.893
560,0.596,36.156,24.362,38.78,34.301,5.07,6.138,5.892
561,0.616,36.263,24.377,38.751,34.298,5.07,6.016,5.892
562,0.6,36.37,24.436,38.761,34.318,5.193,6.3,6.095
563,0.6,36.102,24.452,38.742,34.305,5.031,6.14,5.894
564,0.596,36.243,24.479,38.761,34.305,5.03,6.219,5.973
565,0.596,36.379,24.503,38.78,34.315,5.151,6.22,5.893
566,0.59,36.409,24.421,38.732,34.294,4.949,6.139,5.892
567,0.57,36.064,24.456,38.77,34.308,5.029,6.138,5.892
568,0.57,36.205,24.397,38.742,34.301,5.03,6.138,5.811
569,0.577,36.331,24.459,38.751,34.304,5.03,6.219,6.054
570,0.599,36.39,24.448,38.78,34.311,5.07,6.18,5.934
571,0.577,36.026,24.397,38.809,34.305,5.03,6.179,6.014
572,0.577,36.185,24.377,38.78,34.311,5.03,6.179,6.015
573,0.586,36.302,24.389,38.761,34.308,5.03,6.098,5.852
574,0.59,36.303,24.432,38.751,34.305,4.989,6.178,5.973
575,0.593,36.063,24.46,38.761,34.305,4.948,6.139,5.893
576,0.583,36.186,24.479,38.751,34.301,4.947,6.138,5.892
577,0.603,36.34,24.421,38.799,34.322,5.15,6.301,6.014
578,0.593,36.121,24.385,38.761,34.308,5.031,6.221,5.974
579,0.613,35.985,24.451,38.78,34.305,5.03,6.18,5.974
580,0.6,36.127,24.433,38.78,34.301,5.07,6.179,5.974
581,0.59,36.205,24.409,38.742,34.301,5.03,6.139,5.933
582,0.593,35.938,24.366,38.761,34.304,4.948,6.138,5.852
583,0.593,36.021,24.385,38.751,34.301,4.988,6.098,5.891
584,0.593,36.156,24.412,38.789,34.315,5.151,6.219,6.014
585,0.58,36.254,24.428,38.771,34.308,5.071,6.139,5.852
586,0.573,35.861,24.471,38.78,34.308,5.07,6.138,5.973
587,0.554,36.011,24.46,38.771,34.308,4.989,6.179,5.974
588,0.544,36.128,24.429,38.751,34.291,4.907,6.057,5.811
589,0.537,36.196,24.378,38.761,34.308,4.947,6.137,5.85
590,0.521,35.899,24.436,38.751,34.298,4.947,6.016,5.81
591,0.514,36.011,24.405,38.761,34.315,5.069,6.218,5.972
592,0.553,36.195,24.374,38.78,34.305,4.989,6.18,5.974
593,0.55,36.225,24.397,38.78,34.311,4.948,6.139,5.974
594,0.557,35.852,24.405,38.761,34.312,5.069,6.179,5.974
595,0.576,35.982,24.409,38.751,34.308,4.948,6.017,5.771
596,0.58,36.079,24.381,38.77,34.305,4.947,6.056,5.85
597,0.599,36.109,24.444,38.751,34.301,4.907,6.137,5.81
598,0.6,35.812,24.308,38.761,34.298,4.906,6.098,5.932
599,0.629,36.02,24.369,38.818,34.308,5.028,6.178,6.014
600,0.655,36.099,24.385,38.761,34.301,4.989,6.139,5.934
601,0.688,36.167,24.432,38.79,34.308,4.988,6.219,5.974
602,0.727,35.87,24.405,38.78,34.305,4.988,6.058,5.852
603,0.754,35.982,24.319,38.761,34.305,5.07,6.097,5.891
604,0.774,36.089,24.384,38.761,34.311,4.989,6.016,5.892
605,0.806,35.754,24.369,38.732,34.298,4.907,6.015,5.933
606,0.842,35.847,24.412,38.799,34.318,5.069,6.3,6.055
607,0.895,35.953,24.413,38.78,34.315,4.989,6.14,5.934
608,0.977,36.05,24.432,38.78,34.308,5.029,6.098,6.014
609,1.046,35.687,24.436,38.79,34.308,5.03,6.097,5.852
610,1.089,35.789,24.374,38.761,34.308,4.989,6.097,5.891
611,1.177,35.924,24.436,38.78,34.301,4.988,6.138,5.933
612,1.243,36.012,24.417,38.761,34.294,4.948,6.016,5.933
613,1.318,35.744,24.432,38.79,34.311,5.069,6.178,6.096
614,1.378,35.866,24.319,38.78,34.305,4.867,6.057,6.016
615,1.453,36.001,24.298,38.799,34.305,5.028,6.056,5.974
616,1.503,36.06,24.341,38.78,34.311,4.989,6.056,6.015
617,1.555,35.658,24.346,38.742,34.301,4.907,5.975,5.934
618,1.634,35.817,24.42,38.77,34.304,4.947,5.974,5.974
619,1.68,35.924,24.37,38.761,34.301,4.866,5.933,5.974
620,1.729,35.973,24.432,38.78,34.311,5.028,6.055,6.137
621,1.785,35.513,24.405,38.761,34.305,4.989,6.015,6.016
622,1.786,35.643,24.448,38.751,34.301,5.029,6.056,5.974
623,1.795,35.769,24.436,38.809,34.304,5.03,6.056,6.015
624,1.779,35.751,24.432,38.733,34.298,4.867,5.934,5.934
625,1.766,35.693,24.292,38.78,34.304,4.906,6.014,5.974
626,1.753,35.837,24.263,38.771,34.301,4.906,5.934,6.055
627,1.711,35.934,24.267,38.77,34.304,4.987,6.014,6.137
628,1.678,35.647,24.368,38.799,34.311,5.029,6.056,6.179
629,1.628,35.587,24.424,38.771,34.305,4.907,5.975,6.301
630,1.569,35.759,24.421,38.886,34.315,5.028,6.096,6.384
631,1.465,35.857,24.401,38.791,34.301,4.907,5.853,6.385
632,1.363,35.493,24.413,38.78,34.304,4.987,5.973,6.588
633,1.238,35.624,24.483,38.78,34.294,4.907,5.974,6.671
634,1.149,35.74,24.484,38.751,34.308,4.987,5.893,6.957
635,1.116,35.875,24.491,38.818,34.318,5.151,6.054,7.122
636,1.054,35.436,24.425,38.771,34.301,5.031,6.056,7.246
637,1.017,35.604,24.362,38.78,34.308,5.03,5.975,7.41
638,0.971,35.73,24.35,38.771,34.305,5.03,5.974,7.615
639,0.942,35.751,24.435,38.761,34.311,5.03,5.974,7.739
640,0.941,35.482,24.37,38.751,34.308,4.989,5.933,7.903
641,0.915,35.614,24.369,38.742,34.301,4.907,5.892,7.985
642,0.892,35.75,24.377,38.789,34.322,5.109,6.136,8.352
643,0.833,35.789,24.416,38.761,34.305,4.989,5.976,8.315
644,0.758,35.397,24.444,38.77,34.308,5.029,6.015,8.356
645,0.722,35.565,24.479,38.78,34.308,4.989,6.015,8.519
646,0.689,35.653,24.413,38.742,34.294,4.907,5.852,8.601
647,0.646,35.692,24.323,38.77,34.304,4.906,5.891,8.765
648,0.626,35.52,24.369,38.761,34.301,4.947,5.892,8.929
649,0.577,35.643,24.408,38.77,34.311,5.029,6.095,9.215
650,0.557,35.788,24.401,38.77,34.308,4.989,6.056,9.381
651,0.515,35.56,24.389,38.79,34.305,4.988,6.015,9.627
652,0.524,35.461,24.362,38.78,34.308,5.029,5.974,9.914
653,0.527,35.566,24.354,38.751,34.294,4.867,5.852,9.998
654,0.579,35.672,24.459,38.78,34.301,4.987,5.891,10.324
655,0.619,35.443,24.452,38.761,34.301,4.988,5.933,10.571
656,0.636,35.556,24.503,38.761,34.301,4.948,5.974,10.858
657,0.675,35.72,24.445,38.799,34.315,5.029,6.015,10.983
658,0.704,35.799,24.401,38.771,34.312,4.989,5.934,11.187
659,0.721,35.262,24.42,38.77,34.308,5.029,6.014,11.312
660,0.741,35.391,24.448,38.77,34.301,4.948,5.934,11.313
661,0.754,35.488,24.358,38.751,34.301,4.947,5.852,11.394
662,0.78,35.595,24.346,38.77,34.301,4.907,5.851,11.476
663,0.797,35.28,24.322,38.742,34.301,4.906,5.932,11.477
664,0.807,35.468,24.388,38.789,34.318,5.028,6.055,11.558
665,0.803,35.566,24.408,38.78,34.308,4.948,5.893,11.478
666,0.813,35.624,24.432,38.78,34.311,4.988,6.054,11.477
667,0.8,35.309,24.452,38.78,34.305,4.988,5.893,11.396
668,0.781,35.43,24.382,38.761,34.308,4.948,5.933,11.354
669,0.78,35.566,24.369,38.761,34.301,4.988,5.852,11.232
670,0.774,35.596,24.393,38.751,34.304,4.826,5.891,11.149
671,0.777,35.423,24.409,38.789,34.318,5.068,6.014,11.352
672,0.78,35.565,24.331,38.761,34.308,4.948,5.893,11.151
673,0.764,35.682,24.345,38.79,34.308,5.029,5.892,11.23
674,0.783,35.75,24.369,38.78,34.311,5.03,5.973,11.027
675,0.771,35.281,24.35,38.723,34.301,4.826,5.933,11.066
676,0.767,35.43,24.365,38.76,34.308,4.946,5.892,11.026
677,0.79,35.508,24.428,38.751,34.301,4.907,5.811,10.903
678,0.78,35.279,24.37,38.761,34.311,4.987,6.013,10.943
679,0.787,35.372,24.389,38.78,34.312,4.948,5.974,10.781
680,0.774,35.507,24.385,38.78,34.305,5.069,5.893,10.82
681,0.793,35.595,24.451,38.761,34.311,4.989,6.014,10.739
682,0.761,35.126,24.37,38.761,34.294,4.866,5.771,10.535
683,0.767,35.265,24.338,38.761,34.304,4.906,5.891,10.532
684,0.761,35.41,24.365,38.818,34.305,4.906,5.851,10.37
685,0.744,35.469,24.361,38.752,34.301,4.906,5.851,10.328
686,0.764,35.278,24.393,38.799,34.311,4.987,6.013,10.286
687,0.748,35.411,24.409,38.78,34.305,4.907,5.934,10.164
688,0.744,35.546,24.405,38.771,34.305,4.987,5.974,10.041
689,0.741,35.615,24.37,38.77,34.305,4.907,5.893,9.877
690,0.731,35.222,24.326,38.751,34.301,4.906,5.933,9.916
691,0.738,35.362,24.377,38.761,34.304,4.865,5.892,9.794
692,0.741,35.488,24.42,38.742,34.298,4.824,5.851,9.712
693,0.744,35.528,24.354,38.789,34.315,5.068,6.095,9.711
694,0.754,35.317,24.342,38.761,34.301,4.908,5.975,9.508
695,0.764,35.44,24.303,38.78,34.311,4.947,6.015,9.465
696,0.767,35.585,24.357,38.771,34.312,4.947,5.974,9.383
697,0.764,35.567,24.365,38.761,34.301,4.785,5.852,9.139
698,0.764,35.212,24.4,38.761,34.301,4.905,5.891,9.177
699,0.764,35.333,24.366,38.77,34.298,4.906,5.892,9.015
700,0.77,35.44,24.361,38.751,34.301,4.947,5.933,9.054
701,0.787,35.22,24.393,38.77,34.308,4.947,6.014,8.891
702,0.774,35.17,24.401,38.761,34.308,4.907,5.974,8.93
703,0.78,35.314,24.448,38.751,34.311,4.947,5.893,8.85
704,0.767,35.421,24.374,38.742,34.298,4.866,5.811,8.646
705,0.757,35.153,24.365,38.751,34.308,4.906,5.932,8.603
706,0.751,35.294,24.307,38.761,34.301,4.906,5.933,8.521
707,0.751,35.411,24.361,38.751,34.301,4.906,5.933,8.52
708,0.761,35.546,24.373,38.799,34.318,4.987,5.974,8.439
709,0.761,35.183,24.377,38.761,34.312,4.948,6.055,8.438
710,0.748,35.314,24.397,38.79,34.315,4.988,6.056,8.357
711,0.744,35.449,24.334,38.752,34.294,4.744,5.853,8.193
712,0.76,35.527,24.353,38.789,34.311,4.905,5.973,8.232
713,0.761,35.154,24.393,38.742,34.305,4.825,5.893,8.07
714,0.754,35.275,24.397,38.741,34.298,4.824,5.973,8.069
715,0.777,35.449,24.451,38.789,34.315,5.027,6.096,8.109
716,0.78,35.451,24.358,38.771,34.308,4.867,5.975,8.069
717,0.784,35.144,24.334,38.77,34.305,4.906,6.015,8.028
718,0.793,35.275,24.334,38.761,34.301,4.906,5.974,7.905
719,0.774,35.334,24.4,38.742,34.308,4.825,6.015,7.863
720,0.784,35.411,24.366,38.761,34.305,4.905,5.974,7.782
721,0.797,35.191,24.369,38.713,34.294,4.865,5.893,7.7
722,0.8,35.352,24.381,38.78,34.315,5.028,6.136,7.902
723,0.803,35.45,24.404,38.751,34.301,4.948,5.976,7.701
724,0.79,35.374,24.487,38.751,34.311,4.988,6.055,7.699
725,0.797,35.287,24.472,38.789,34.308,4.948,6.097,7.658
726,0.784,35.372,24.433,38.723,34.294,4.825,5.894,7.495
727,0.784,35.498,24.315,38.741,34.308,4.987,5.973,7.494
728,0.787,35.087,24.384,38.722,34.305,4.826,5.893,7.412
729,0.78,35.188,24.35,38.741,34.311,4.987,6.095,7.574
730,0.8,35.362,24.4,38.751,34.308,4.988,6.097,7.494
731,0.79,35.421,24.331,38.751,34.305,4.988,6.016,7.453
732,0.787,35.22,24.338,38.761,34.308,4.988,6.056,7.452
733,0.79,35.372,24.357,38.742,34.298,4.866,5.893,7.208
734,0.8,35.488,24.369,38.741,34.304,4.987,5.973,7.369
735,0.813,35.557,24.412,38.732,34.301,4.907,5.933,7.248
736,0.807,35.116,24.405,38.722,34.308,4.947,5.974,7.206
737,0.839,35.313,24.413,38.76,34.322,5.069,6.055,7.206
738,0.826,35.411,24.37,38.732,34.305,5.03,6.015,7.165
739,0.833,35.479,24.361,38.751,34.315,5.03,6.015,7.246
740,0.833,35.125,24.4,38.742,34.305,4.989,5.893,7.125
741,0.836,35.217,24.323,38.713,34.308,4.948,6.014,7.043
742,0.83,35.362,24.353,38.732,34.305,4.947,5.934,7.001
743,0.83,35.402,24.299,38.713,34.298,4.866,5.933,6.96
744,0.833,35.297,24.411,38.77,34.318,5.109,6.055,7.122
745,0.826,35.411,24.397,38.742,34.305,4.949,5.975,7.043
746,0.843,35.527,24.428,38.741,34.311,5.029,5.933,7.042
747,0.826,35.691,24.53,38.741,34.308,5.03,5.974,6.92
748,0.813,35.242,24.383,38.703,34.298,4.907,5.974,6.878
749,0.826,35.41,24.401,38.712,34.301,4.987,5.893,6.837
750,0.839,35.479,24.389,38.703,34.298,4.866,5.973,6.837
751,0.833,35.192,24.412,38.722,34.318,5.068,6.096,7.04
752,0.836,35.285,24.331,38.722,34.305,4.989,5.975,6.96
753,0.843,35.42,24.349,38.722,34.308,4.948,5.974,6.838
754,0.853,35.517,24.334,38.722,34.305,5.029,5.974,6.837
755,0.853,35.077,24.295,38.684,34.298,4.907,5.893,6.714
756,0.862,35.207,24.38,38.703,34.301,4.947,5.973,6.713
757,0.856,35.343,24.369,38.703,34.298,4.947,5.893,6.713
758,0.862,35.411,24.354,38.712,34.304,4.988,5.973,6.835
759,0.892,35.153,24.361,38.732,34.308,5.029,5.893,6.755
760,0.876,35.246,24.369,38.732,34.308,4.989,5.973,6.754
761,0.882,35.381,24.373,38.713,34.311,4.948,5.933,6.714
762,0.892,35.45,24.369,38.712,34.305,4.907,5.811,6.551
763,0.899,35.153,24.276,38.722,34.305,4.987,5.932,6.671
764,0.873,35.275,24.314,38.684,34.301,4.948,5.892,6.631
765,0.869,35.391,24.322,38.683,34.304,4.947,5.933,6.631
766,0.885,35.488,24.369,38.75,34.318,5.029,5.974,6.672
767,0.872,35.183,24.404,38.703,34.308,4.989,5.893,6.672
768,0.892,35.304,24.389,38.703,34.315,4.988,5.973,6.713
769,0.889,35.44,24.385,38.703,34.301,4.988,5.893,6.632
770,0.872,35.441,24.315,38.684,34.298,4.988,5.973,6.631
771,0.879,35.086,24.38,38.683,34.304,4.948,5.974,6.55
772,0.882,35.207,24.408,38.664,34.298,4.947,5.893,6.508
773,0.885,35.343,24.366,38.731,34.315,5.15,6.054,6.67
774,0.895,35.2,24.295,38.684,34.312,4.99,6.015,6.631
775,0.908,35.218,24.189,38.712,34.308,4.988,6.015,6.631
776,0.915,35.372,24.317,38.693,34.311,5.07,5.974,6.672
777,0.912,35.421,24.298,38.664,34.287,4.908,5.974,6.55
778,0.922,35.028,24.376,38.674,34.301,4.987,6.015,6.549
779,0.935,35.159,24.26,38.674,34.301,5.029,5.893,6.549
780,0.931,35.313,24.317,38.702,34.308,5.03,6.054,6.712
781,0.964,35.411,24.357,38.674,34.301,5.03,5.975,6.591
782,0.955,35.124,24.389,38.683,34.311,5.07,5.974,6.671
783,0.958,35.284,24.362,38.693,34.308,4.989,6.015,6.631
784,0.938,35.392,24.299,38.664,34.301,4.907,5.934,6.59
785,0.938,35.479,24.31,38.683,34.304,4.987,5.974,6.631
786,0.945,35.029,24.314,38.674,34.305,4.948,6.015,6.55
787,0.948,35.159,24.377,38.683,34.301,4.988,6.096,6.712
788,0.951,35.323,24.389,38.683,34.301,4.988,6.056,6.713
789,0.948,35.354,24.358,38.693,34.315,4.948,6.137,6.672
790,0.948,35.095,24.369,38.683,34.301,5.029,6.098,6.672
791,0.961,35.246,24.369,38.664,34.294,4.907,5.975,6.591
792,0.958,35.353,24.408,38.683,34.308,4.987,6.055,6.671
793,0.961,35.392,24.424,38.683,34.294,5.029,5.893,6.631
794,0.968,35.047,24.393,38.664,34.301,4.989,6.014,6.712
795,1.003,35.226,24.37,38.702,34.318,5.11,6.137,6.713
796,0.991,35.305,24.307,38.684,34.305,5.03,6.179,6.713
797,1.01,35.286,24.333,38.693,34.305,5.07,6.179,6.672
798,1.01,35.2,24.338,38.693,34.305,5.07,6.057,6.631
799,1.014,35.295,24.361,38.683,34.305,4.989,6.097,6.672
800,1.014,35.411,24.264,38.664,34.305,4.988,6.056,6.713
801,1.03,35.067,24.325,38.664,34.301,4.988,6.015,6.632
802,1.056,35.207,24.353,38.702,34.315,5.151,6.178,6.753
803,1.053,35.314,24.385,38.655,34.301,5.112,6.057,6.754
804,1.037,35.411,24.412,38.674,34.304,5.03,6.097,6.754
805,1.05,35.076,24.409,38.674,34.301,4.948,5.975,6.673
806,1.037,35.198,24.362,38.674,34.304,4.988,6.015,6.794
807,1.05,35.333,24.369,38.722,34.301,4.948,6.056,6.795
808,1.04,35.392,24.33,38.645,34.294,4.947,5.975,6.795
809,1.053,35.047,24.361,38.693,34.315,5.15,6.218,6.958
810,1.066,35.197,24.346,38.674,34.308,4.99,6.098,6.919
811,1.056,35.314,24.318,38.683,34.305,5.07,6.097,6.959
812,1.063,35.382,24.334,38.664,34.308,4.948,5.975,6.838
813,1.066,35.584,24.373,38.664,34.305,4.988,6.055,6.877
814,1.082,35.74,24.397,38.645,34.308,4.988,5.975,6.837
815,1.07,35.847,24.424,38.654,34.301,4.907,5.933,6.796
816,1.089,35.915,24.413,38.683,34.318,5.15,6.136,6.999
817,1.109,34.746,24.358,38.645,34.301,5.031,5.976,6.838
818,1.109,34.887,24.357,38.654,34.311,4.989,6.015,6.877
819,1.128,35.014,24.385,38.674,34.305,5.07,5.974,6.877
820,1.122,35.293,24.393,38.635,34.301,4.989,5.974,6.877
821,1.122,35.142,24.291,38.645,34.304,4.988,5.893,6.796
822,1.135,35.256,24.322,38.635,34.291,4.948,5.892,6.877
823,1.138,35.401,24.302,38.654,34.308,5.069,6.054,7.0
824,1.142,35.009,24.353,38.645,34.301,5.03,5.893,6.757
825,1.142,35.072,24.404,38.654,34.304,4.948,5.973,6.836
826,1.148,35.178,24.393,38.645,34.308,5.029,6.015,6.877
827,1.142,35.275,24.373,38.606,34.294,4.907,5.771,6.715
828,1.148,35.065,24.33,38.654,34.297,4.987,5.931,6.713
829,1.155,35.188,24.361,38.635,34.301,4.948,5.892,6.713
830,1.155,35.304,24.385,38.635,34.304,5.029,6.014,6.794
831,1.171,35.44,24.366,38.664,34.298,4.989,5.934,6.836
832,1.175,35.086,24.365,38.674,34.304,4.948,6.014,6.755
833,1.175,35.207,24.315,38.664,34.308,5.029,6.015,6.836
834,1.181,35.333,24.345,38.635,34.301,4.907,5.852,6.633
835,1.188,35.402,24.361,38.645,34.304,4.987,6.013,6.712
836,1.194,35.201,24.397,38.616,34.301,4.988,5.934,6.591
837,1.211,35.314,24.397,38.616,34.298,4.988,6.014,6.712
838,1.224,35.488,24.389,38.702,34.322,5.029,6.056,6.672
839,1.214,35.499,24.373,38.645,34.305,5.03,6.056,6.713
840,1.217,35.02,24.385,38.635,34.301,5.03,6.056,6.713
841,1.234,35.168,24.408,38.654,34.304,4.907,5.934,6.591
842,1.221,35.275,24.327,38.635,34.301,4.906,5.974,6.671
843,1.234,35.305,24.334,38.625,34.301,4.987,5.974,6.591
844,1.217,35.162,24.295,38.625,34.301,4.988,5.893,6.549
845,1.227,35.323,24.322,38.654,34.322,5.151,6.095,6.671
846,1.227,35.421,24.295,38.626,34.305,5.071,6.016,6.631
847,1.214,35.191,24.376,38.625,34.315,5.03,6.056,6.631
848,1.224,35.189,24.365,38.644,34.312,5.03,6.056,6.509
849,1.217,35.295,24.307,38.597,34.298,5.03,5.975,6.549
850,1.224,35.411,24.326,38.615,34.297,5.07,5.933,6.468
851,1.221,35.124,24.377,38.606,34.301,4.989,5.974,6.507
852,1.208,35.236,24.369,38.635,34.315,5.151,6.096,6.711
853,1.22,35.401,24.272,38.625,34.312,5.031,5.975,6.551
854,1.234,35.469,24.255,38.644,34.308,5.03,6.055,6.549
855,1.227,35.096,24.294,38.625,34.311,5.07,6.015,6.549
856,1.234,35.217,24.283,38.587,34.291,4.989,5.893,6.346
857,1.247,35.333,24.368,38.615,34.304,5.029,6.014,6.425
858,1.234,35.411,24.416,38.597,34.301,4.989,5.934,6.385
859,1.23,35.345,24.374,38.644,34.308,5.07,5.974,6.547
860,1.24,35.507,24.338,38.625,34.308,5.07,5.933,6.468
861,1.224,35.605,24.369,38.625,34.308,5.03,5.974,6.426
862,1.211,35.654,24.385,38.606,34.311,5.151,5.974,6.466
863,1.214,35.309,24.366,38.596,34.301,5.031,5.933,6.223
864,1.198,35.43,24.315,38.606,34.308,5.111,5.974,6.342
865,1.178,35.527,24.248,38.606,34.301,5.071,5.893,6.303
866,1.165,35.576,24.298,38.683,34.301,5.03,5.933,6.343
867,1.155,35.519,24.275,38.655,34.322,5.151,6.055,6.425
868,1.132,35.614,24.286,38.597,34.301,5.112,5.893,6.385
869,1.138,35.721,24.341,38.596,34.308,5.112,5.973,6.385
870,1.129,35.76,24.322,38.606,34.308,5.071,5.893,6.303
871,1.103,35.626,24.314,38.596,34.305,5.111,5.973,6.343
872,1.102,35.759,24.384,38.587,34.305,5.03,5.811,6.303
873,1.093,35.847,24.377,38.587,34.294,5.03,5.81,6.262
874,1.083,35.666,24.373,38.625,34.315,5.111,6.054,6.384
875,1.083,35.779,24.307,38.597,34.301,5.071,5.893,6.303
876,1.07,35.895,24.279,38.606,34.308,5.07,5.892,6.302
877,1.053,35.992,24.306,38.596,34.308,5.03,5.973,6.425
878,1.037,35.801,24.31,38.568,34.294,4.989,5.811,6.222
879,1.027,35.962,24.392,38.596,34.304,5.07,5.85,6.261
880,1.017,36.07,24.311,38.587,34.298,5.03,5.81,6.18
881,0.997,36.147,24.369,38.587,34.308,5.03,5.891,6.342
882,1.007,35.975,24.358,38.596,34.311,4.989,5.892,6.221
883,0.984,36.089,24.408,38.587,34.305,5.11,5.851,6.22
884,0.952,36.205,24.405,38.606,34.308,5.071,5.973,6.261
885,0.938,36.273,24.381,38.568,34.301,4.948,5.73,6.058
886,0.919,36.216,24.373,38.586,34.304,4.988,5.809,6.178
887,0.896,36.35,24.209,38.577,34.301,5.029,5.81,6.179
888,0.882,36.447,24.29,38.548,34.301,4.948,5.891,6.179
889,0.882,36.535,24.361,38.586,34.315,5.15,5.892,6.261
890,0.853,36.344,24.33,38.587,34.308,5.031,5.892,6.262
891,0.843,36.505,24.33,38.673,34.308,5.03,5.892,6.302
892,0.839,36.602,24.283,38.607,34.305,5.07,5.851,6.302
893,0.81,36.891,24.306,38.568,34.305,4.948,5.851,6.18
894,0.826,36.52,24.369,38.577,34.298,4.988,5.851,6.22
895,0.82,36.641,24.404,38.558,34.301,4.948,5.851,6.22
896,0.807,36.757,24.432,38.596,34.318,5.15,6.095,6.342
897,0.8,37.036,24.358,38.568,34.305,4.99,5.894,6.221
898,0.81,37.212,24.361,38.586,34.308,4.988,5.973,6.302
899,0.807,37.338,24.35,38.577,34.311,5.07,5.974,6.262
900,0.774,37.397,24.385,38.548,34.298,4.989,5.933,6.221
901,0.784,36.448,24.299,38.567,34.311,5.029,5.892,6.22
902,0.78,36.515,24.314,38.558,34.301,4.989,5.933,6.139
903,0.764,36.65,24.31,38.596,34.308,5.11,6.014,6.341
904,0.751,36.748,24.365,38.568,34.308,5.071,6.056,6.221
905,0.748,36.998,24.369,38.596,34.301,4.989,6.056,6.261
906,0.738,37.154,24.404,38.587,34.315,5.07,6.056,6.221
907,0.731,37.232,24.385,38.539,34.301,4.908,5.893,6.139
908,0.715,37.329,24.373,38.557,34.304,5.028,6.014,6.179
909,0.702,37.052,24.334,38.558,34.301,5.03,5.974,6.179
910,0.695,37.183,24.381,38.567,34.304,5.07,6.096,6.342
911,0.718,37.328,24.354,38.567,34.301,5.07,6.056,6.262
912,0.689,37.339,24.279,38.577,34.301,5.07,6.056,6.221
913,0.675,37.157,24.31,38.586,34.311,5.07,6.097,6.22
914,0.688,37.29,24.283,38.558,34.294,4.948,5.894,6.139
915,0.698,37.396,24.325,38.567,34.311,5.029,6.054,6.179
916,0.675,37.378,24.357,38.558,34.298,4.948,5.975,6.057
917,0.682,37.273,24.373,38.558,34.304,4.947,6.096,6.3
918,0.688,37.444,24.322,38.596,34.311,5.029,6.056,6.221
919,0.682,37.523,24.306,38.577,34.315,5.03,6.056,6.22
920,0.685,37.389,24.365,38.577,34.308,5.03,6.137,6.22
921,0.692,37.35,24.369,38.548,34.298,4.948,5.976,5.976
922,0.682,37.483,24.354,38.567,34.301,4.988,5.974,6.177
923,0.682,37.571,24.248,38.548,34.301,4.948,6.015,6.098
924,0.656,37.265,24.298,38.529,34.308,4.947,6.056,6.138
925,0.662,37.415,24.349,38.586,34.322,5.11,6.137,6.219
926,0.649,37.494,24.291,38.558,34.305,5.03,6.057,6.22
927,0.639,37.581,24.365,38.558,34.305,4.989,6.097,6.22
928,0.646,37.447,24.4,38.548,34.301,4.988,6.016,6.139
929,0.629,37.58,24.35,38.548,34.311,4.988,6.015,6.179
930,0.642,37.687,24.318,38.538,34.305,5.029,5.893,6.139
931,0.626,37.765,24.361,38.529,34.301,4.867,5.973,6.098
932,0.636,37.43,24.4,38.586,34.325,5.109,6.137,6.3
933,0.639,37.542,24.37,38.567,34.305,4.989,6.016,6.18
934,0.649,37.677,24.268,38.558,34.305,4.907,6.056,6.179
935,0.649,37.717,24.271,38.558,34.305,5.028,6.015,6.22
936,0.633,37.506,24.263,38.519,34.301,4.907,5.934,6.058
937,0.655,37.677,24.294,38.548,34.301,4.947,5.933,6.137
938,0.649,37.765,24.361,38.51,34.294,4.947,5.892,6.016
939,0.662,37.785,24.315,38.557,34.315,5.11,6.095,6.259
940,0.652,37.545,24.31,38.548,34.305,4.908,6.016,6.18
941,0.652,37.648,24.322,38.529,34.305,4.906,6.015,6.139
942,0.655,37.764,24.373,38.538,34.311,5.028,6.056,6.138
943,0.655,37.737,24.369,38.519,34.294,4.907,5.812,5.976
944,0.642,37.583,24.334,38.528,34.304,4.987,5.891,6.096
945,0.636,37.687,24.283,38.529,34.294,4.907,6.014,6.056
946,0.636,37.774,24.286,38.529,34.304,4.987,6.015,6.178
947,0.642,37.631,24.349,38.567,34.311,4.948,6.056,6.139
948,0.633,37.688,24.353,38.548,34.308,4.988,5.975,6.098
949,0.629,37.813,24.4,38.519,34.305,4.988,6.096,6.138
950,0.636,37.9,24.37,38.557,34.298,4.866,5.935,5.976
951,0.616,37.527,24.354,38.529,34.301,5.028,6.014,6.096
952,0.626,37.648,24.369,38.538,34.301,4.907,6.056,6.056
953,0.629,37.755,24.393,38.509,34.301,4.987,6.015,6.056
954,0.645,37.861,24.381,38.576,34.322,5.07,6.137,6.137
955,0.646,37.489,24.354,38.519,34.305,5.03,6.016,6.057
956,0.655,37.619,24.295,38.538,34.315,4.989,6.137,6.097
957,0.662,37.764,24.271,38.529,34.298,4.948,6.016,5.975
958,0.646,37.794,24.275,38.509,34.304,4.988,6.056,5.974
959,0.659,37.565,24.318,38.519,34.301,4.948,6.015,5.974
960,0.652,37.658,24.314,38.519,34.298,4.947,6.056,5.974
961,0.678,37.822,24.322,38.548,34.311,5.11,6.178,6.096
962,0.669,37.852,24.326,38.538,34.305,4.949,6.017,5.975
963,0.659,37.393,24.373,38.509,34.308,5.029,6.056,6.015
964,0.649,37.532,24.404,38.519,34.308,4.989,6.137,6.015
965,0.642,37.61,24.366,38.481,34.294,4.907,5.976,6.015
966,0.636,37.946,24.358,38.499,34.301,4.987,5.974,5.974
967,0.642,37.537,24.287,38.519,34.304,4.866,5.974,5.974
968,0.642,37.687,24.294,38.528,34.311,5.068,6.137,6.137
969,0.639,37.765,24.326,38.509,34.305,5.03,6.057,5.894
970,0.642,37.507,24.377,38.519,34.305,5.03,6.137,6.014
971,0.649,37.542,24.326,38.538,34.311,5.03,6.016,6.096
972,0.642,37.658,24.345,38.49,34.294,4.867,5.974,5.894
973,0.642,37.765,24.322,38.509,34.308,5.028,6.055,5.892
974,0.655,37.325,24.384,38.48,34.298,4.867,5.975,5.892
975,0.655,37.445,24.366,38.49,34.304,5.028,6.015,6.014
976,0.678,37.619,24.443,38.509,34.301,5.03,6.015,5.974
977,0.662,37.659,24.393,38.519,34.311,5.07,6.056,5.974
978,0.669,37.295,24.362,38.509,34.312,4.989,6.056,5.974
979,0.669,37.425,24.303,38.48,34.294,4.826,5.893,5.852
980,0.669,37.513,24.357,38.48,34.304,4.946,5.973,5.932
981,0.675,37.59,24.322,38.48,34.301,4.988,5.974,5.933
982,0.659,37.236,24.314,38.538,34.294,4.907,5.933,5.852
983,0.682,37.396,24.31,38.509,34.311,5.15,6.014,5.932
984,0.669,37.493,24.306,38.48,34.308,4.99,5.934,5.892
985,0.675,37.542,24.349,38.49,34.301,4.988,5.974,5.933
986,0.675,37.236,24.338,38.48,34.304,4.988,5.933,5.892
987,0.649,37.31,24.388,38.461,34.301,4.948,5.974,5.811
988,0.649,37.435,24.28,38.49,34.301,4.988,5.852,5.85
989,0.642,37.465,24.314,38.451,34.298,4.948,5.851,5.851
990,0.652,37.235,24.384,38.48,34.315,5.029,5.973,6.054
991,0.642,37.358,24.377,38.471,34.305,4.989,5.933,5.934
992,0.642,37.455,24.295,38.47,34.301,5.029,5.933,5.933
993,0.652,37.254,24.318,38.528,34.308,5.03,5.974,5.974
994,0.652,37.156,24.298,38.433,34.291,4.907,5.771,5.852
995,0.659,37.299,24.314,38.441,34.301,4.987,5.891,5.851
996,0.652,37.377,24.353,38.451,34.298,4.907,5.811,5.81
997,0.662,37.014,24.346,38.451,34.304,4.947,5.932,5.891
998,0.678,37.173,24.357,38.47,34.301,5.029,5.933,5.892
999,0.675,37.28,24.354,38.451,34.308,4.989,5.852,5.892
1000,0.675,37.387,24.342,38.461,34.305,5.029,5.891,5.973
1001,0.669,37.023,24.385,38.442,34.305,4.826,5.729,5.689
1002,0.682,37.164,24.342,38.441,34.301,4.987,5.809,5.809
1003,0.688,37.271,24.291,38.441,34.308,4.907,5.81,5.81
1004,0.669,37.329,24.158,38.441,34.305,4.987,5.891,5.972
1005,0.675,36.994,24.32,38.47,34.305,4.988,5.892,5.852
1006,0.669,37.115,24.279,38.461,34.305,4.988,5.851,5.851
1007,0.646,37.232,24.329,38.47,34.301,4.988,5.932,5.973
1008,0.649,37.271,24.338,38.413,34.308,4.907,5.73,5.771
1009,0.642,36.859,24.342,38.441,34.308,4.947,5.89,5.85
1010,0.662,36.999,24.318,38.422,34.294,4.907,5.811,5.891
1011,0.649,37.096,24.33,38.432,34.301,4.947,5.81,6.014
1012,0.668,37.174,24.431,38.46,34.304,5.029,5.85,5.974
1013,0.656,36.877,24.37,38.432,34.305,4.948,5.932,5.893
1014,0.662,37.018,24.358,38.432,34.305,4.988,5.933,5.973
1015,0.675,37.116,24.318,38.422,34.305,4.907,5.811,5.852
1016,0.659,37.069,24.33,38.441,34.305,4.987,5.85,5.851
1017,0.675,36.828,24.334,38.422,34.298,4.948,5.81,5.851
1018,0.685,36.941,24.345,38.422,34.301,4.907,5.769,5.81
1019,0.692,37.057,24.346,38.451,34.311,5.15,6.053,6.054
1020,0.675,36.694,24.31,38.432,34.315,4.949,5.812,5.975
1021,0.698,36.767,24.291,38.422,34.308,4.988,5.81,5.933
1022,0.698,36.893,24.329,38.412,34.308,5.029,5.891,6.014
1023,0.679,36.932,24.388,38.364,34.287,4.907,5.77,5.852
1024,0.678,36.539,24.369,38.402,34.301,4.947,5.891,5.932
1025,0.669,36.66,24.326,38.384,34.301,4.907,5.77,5.933
1026,0.669,36.776,24.236,38.412,34.308,4.947,5.891,6.096
1027,0.678,36.902,24.329,38.403,34.308,4.988,5.973,5.975
1028,0.656,36.597,24.306,38.384,34.301,4.948,5.933,6.015
1029,0.659,36.737,24.373,38.412,34.304,4.947,5.933,6.056
1030,0.669,36.854,24.295,38.393,34.301,4.825,5.811,5.771
1031,0.662,36.922,24.314,38.393,34.301,4.946,5.932,5.972
1032,0.656,36.52,24.341,38.383,34.304,4.947,5.852,5.933
1033,0.652,36.641,24.353,38.374,34.305,4.866,5.891,6.014
1034,0.675,36.805,24.4,38.422,34.322,5.028,6.054,5.974
1035,0.685,36.816,24.342,38.384,34.308,5.03,6.056,5.933
1036,0.692,36.442,24.295,38.393,34.305,4.989,6.015,6.014
1037,0.695,36.592,24.337,38.479,34.305,4.948,6.015,5.934
1038,0.669,36.67,24.31,38.384,34.301,4.947,5.974,5.974
1039,0.685,36.949,24.38,38.374,34.301,4.907,5.974,5.933
1040,0.685,36.29,24.303,38.374,34.301,4.947,6.015,5.892
1041,0.705,36.466,24.361,38.393,34.318,5.15,6.137,6.095
1042,0.685,36.564,24.311,38.383,34.308,4.949,6.016,5.935
1043,0.711,36.277,24.388,38.374,34.301,4.988,6.056,6.014
1044,0.689,36.312,24.385,38.383,34.308,4.988,6.056,5.974
1045,0.669,36.409,24.35,38.345,34.291,4.826,5.934,5.893
1046,0.678,36.515,24.346,38.373,34.304,4.905,6.014,5.892
1047,0.665,36.113,24.248,38.355,34.298,4.906,6.015,5.892
1048,0.659,36.263,24.27,38.383,34.308,5.109,6.096,6.054
1049,0.669,36.408,24.329,38.355,34.305,4.989,6.097,5.975
1050,0.678,36.467,24.345,38.364,34.308,4.948,6.056,5.933
1051,0.646,36.075,24.342,38.383,34.308,5.029,6.097,6.014
1052,0.655,36.205,24.314,38.355,34.291,4.826,5.975,5.852
1053,0.668,36.312,24.337,38.354,34.301,4.946,6.015,5.891
1054,0.672,36.389,24.369,38.335,34.301,4.907,5.974,5.851
1055,0.669,35.987,24.361,38.325,34.304,4.906,5.974,6.013
1056,0.688,36.166,24.416,38.373,34.311,4.987,6.015,5.974
1057,0.675,36.273,24.35,38.364,34.308,4.988,6.096,5.974
1058,0.672,36.322,24.33,38.354,34.308,4.988,6.056,5.974
1059,0.678,35.92,24.349,38.364,34.301,4.907,6.015,5.893
1060,0.675,36.031,24.361,38.335,34.304,4.947,5.974,5.933
1061,0.675,36.147,24.295,38.335,34.305,4.907,6.055,5.852
1062,0.678,36.167,24.337,38.325,34.298,4.947,5.934,5.932
1063,0.685,35.937,24.346,38.364,34.318,5.15,6.055,6.096
1064,0.672,36.04,24.369,38.354,34.305,4.949,6.015,5.975
1065,0.662,36.166,24.369,38.345,34.308,4.947,6.015,6.055
1066,0.665,35.976,24.416,38.354,34.305,5.029,5.974,6.015
1067,0.649,35.859,24.378,38.306,34.301,4.907,5.974,5.974
1068,0.662,36.049,24.369,38.335,34.304,4.947,5.974,6.015
1069,0.656,36.109,24.299,38.297,34.301,4.866,5.933,5.893
1070,0.646,35.678,24.365,38.354,34.301,5.028,6.096,6.136
1071,0.652,35.798,24.35,38.345,34.301,4.989,5.975,6.057
1072,0.655,35.914,24.264,38.354,34.311,4.988,5.933,6.097
1073,0.652,36.021,24.325,38.345,34.308,5.029,6.014,6.138
1074,0.642,35.754,24.279,38.306,34.294,4.785,5.771,5.894
1075,0.662,35.895,24.349,38.335,34.297,4.986,5.891,5.973
1076,0.662,36.021,24.338,38.325,34.301,4.907,5.973,6.015
1077,0.662,36.08,24.396,38.316,34.298,4.947,5.893,6.056
1078,0.685,35.63,24.338,38.354,34.308,5.029,6.014,5.975
1079,0.669,35.74,24.369,38.326,34.305,4.989,5.974,6.055
1080,0.669,35.856,24.365,38.344,34.305,4.988,5.974,6.097
1081,0.675,35.905,24.416,38.306,34.298,4.948,5.852,5.935
1082,0.672,35.657,24.354,38.296,34.304,4.988,5.932,6.014
1083,0.662,35.807,24.26,38.315,34.301,4.907,5.933,6.015
1084,0.662,35.915,24.298,38.296,34.301,4.947,5.852,6.015
1085,0.662,35.992,24.353,38.354,34.315,5.15,6.013,6.096
1086,0.662,35.811,24.361,38.306,34.305,5.031,5.934,6.138
1087,0.652,35.953,24.373,38.306,34.305,5.03,5.974,6.138
1088,0.655,36.079,24.389,38.335,34.308,5.07,5.933,6.098
1089,0.633,35.994,24.33,38.297,34.294,5.03,5.933,6.016
1090,0.652,35.715,24.326,38.296,34.297,4.948,5.933,5.974
1091,0.642,35.837,24.365,38.306,34.297,4.947,5.892,6.015
1092,0.633,35.934,24.385,38.316,34.308,5.029,5.933,6.137
1093,0.652,35.638,24.295,38.316,34.301,4.948,5.892,6.138
1094,0.652,35.702,24.267,38.325,34.308,4.988,5.973,6.057
1095,0.659,35.856,24.329,38.325,34.308,5.029,6.015,6.137
1096,0.662,35.915,24.26,38.297,34.298,4.826,5.852,5.976
1097,0.665,35.685,24.356,38.296,34.301,4.946,5.891,6.055
1098,0.669,35.798,24.346,38.277,34.301,4.907,5.892,6.015
1099,0.649,35.934,24.275,38.315,34.301,4.947,5.933,6.137
1100,0.672,36.069,24.321,38.344,34.311,5.11,5.974,6.057
1101,0.675,35.706,24.353,38.287,34.301,4.989,6.015,6.097
1102,0.669,35.856,24.365,38.315,34.308,4.988,5.974,6.056
1103,0.669,35.963,24.373,38.277,34.298,4.907,5.811,5.934
1104,0.656,36.031,24.354,38.286,34.301,4.906,5.932,6.055
1105,0.646,35.706,24.268,38.296,34.301,4.865,5.852,6.015
1106,0.639,35.856,24.333,38.277,34.304,4.946,5.973,6.096
1107,0.652,36.011,24.334,38.325,34.315,5.069,5.933,6.056
1108,0.646,36.022,24.4,38.297,34.308,5.03,5.933,6.056
1109,0.646,35.974,24.346,38.315,34.305,5.03,5.974,6.097
1110,0.646,36.118,24.349,38.306,34.305,4.989,5.811,5.975
1111,0.62,36.205,24.35,38.277,34.308,5.029,5.891,6.055
1112,0.629,36.36,24.342,38.286,34.305,4.989,5.892,6.056
1113,0.639,35.863,24.388,38.277,34.294,4.907,5.892,6.056
1114,0.659,36.03,24.362,38.315,34.315,5.231,5.973,6.137
1115,0.662,36.118,24.334,38.277,34.305,5.072,5.933,6.098
1116,0.662,36.014,24.303,38.296,34.305,5.03,5.892,6.097
1117,0.669,36.118,24.314,38.296,34.301,4.989,5.851,6.016
1118,0.659,36.186,24.298,38.287,34.298,4.948,5.851,6.096
1119,0.678,36.302,24.376,38.277,34.304,4.988,5.851,6.097
1120,0.675,35.833,24.295,38.296,34.294,4.907,5.81,5.975
1121,0.698,36.011,24.326,38.296,34.315,5.109,6.013,6.218
1122,0.695,36.128,24.353,38.306,34.301,4.989,5.893,6.058
1123,0.711,36.186,24.35,38.287,34.311,4.988,5.973,6.097
1124,0.711,35.957,24.392,38.287,34.305,4.988,5.893,6.138
1125,0.702,36.069,24.319,38.258,34.298,4.948,5.77,6.057
1126,0.701,36.205,24.326,38.296,34.301,5.029,5.85,5.975
1127,0.698,36.283,24.314,38.267,34.298,4.989,5.851,6.015
1128,0.698,35.967,24.302,38.277,34.304,5.029,5.973,6.178
1129,0.711,36.146,24.388,38.267,34.308,4.989,5.893,6.017
1130,0.705,36.234,24.311,38.277,34.305,5.029,5.933,6.056
1131,0.702,36.293,24.369,38.286,34.305,4.989,6.014,6.137
1132,0.698,36.092,24.338,38.258,34.298,4.866,5.812,5.976
1133,0.698,36.224,24.385,38.277,34.301,4.946,5.891,6.015
1134,0.698,36.331,24.428,38.277,34.301,4.988,5.851,6.015
1135,0.718,36.342,24.389,38.258,34.298,4.907,5.81,6.056
1136,0.737,36.169,24.416,38.296,34.315,5.15,6.013,6.137
1137,0.738,36.292,24.268,38.267,34.301,4.949,5.893,6.057
1138,0.747,36.408,24.325,38.258,34.308,5.069,5.892,6.137
1139,0.741,36.266,24.334,38.267,34.308,4.989,5.851,6.057
1140,0.731,36.159,24.345,38.258,34.308,4.988,5.851,6.056
1141,0.751,36.311,24.197,38.277,34.305,4.948,5.851,5.975
1142,0.748,36.409,24.293,38.239,34.305,4.907,5.851,6.015
1143,0.751,36.131,24.318,38.286,34.311,5.069,6.135,6.137
1144,0.735,36.234,24.345,38.258,34.305,4.908,5.976,6.057
1145,0.728,36.35,24.42,38.258,34.301,5.028,5.974,6.056
1146,0.728,36.457,24.393,38.267,34.304,5.03,5.933,6.056
1147,0.715,36.132,24.366,38.219,34.298,4.948,5.933,6.015
1148,0.715,36.301,24.365,38.248,34.301,4.947,5.933,5.974
1149,0.715,36.399,24.322,38.238,34.301,4.866,5.892,6.015
1150,0.705,36.486,24.388,38.257,34.308,4.987,6.054,6.137
1151,0.724,36.228,24.334,38.267,34.301,5.029,6.015,6.057
1152,0.728,36.389,24.334,38.267,34.311,4.948,5.934,6.015
1153,0.744,36.496,24.338,38.267,34.315,5.069,6.014,6.096
1154,0.757,36.535,24.322,38.229,34.294,4.867,5.852,5.853
1155,0.777,36.315,24.384,38.257,34.301,4.987,6.013,6.013
1156,0.787,36.457,24.381,38.238,34.298,4.948,5.934,5.974
1157,0.787,36.554,24.369,38.248,34.301,4.988,5.974,6.015
1158,0.784,36.632,24.365,38.305,34.311,5.029,6.015,6.015
1159,0.793,36.306,24.338,38.258,34.305,5.03,5.974,6.056
1160,0.81,36.476,24.365,38.258,34.301,5.03,5.974,6.015
1161,0.826,36.564,24.369,38.219,34.298,5.03,5.893,5.934
1162,0.82,36.68,24.272,38.238,34.308,4.907,5.973,5.974
1163,0.833,36.575,24.31,38.229,34.301,4.865,5.852,5.933
1164,0.82,36.67,24.302,38.228,34.294,4.946,5.891,5.933
1165,0.82,36.815,24.337,38.276,34.322,5.069,6.095,6.177
1166,0.797,36.174,24.357,38.239,34.305,4.989,6.056,5.976
1167,0.8,36.225,24.404,38.248,34.308,4.988,6.015,6.055
1168,0.794,36.389,24.366,38.248,34.305,4.988,6.015,5.975
1169,0.767,36.429,24.322,38.21,34.294,4.988,5.974,5.974
1170,0.77,36.343,24.361,38.228,34.301,4.948,5.974,5.933
1171,0.738,36.447,24.389,38.219,34.301,4.988,5.893,5.974
1172,0.76,36.592,24.408,38.257,34.311,5.192,6.136,6.137
1173,0.787,36.67,24.268,38.238,34.305,4.95,6.057,6.016
1174,0.793,36.393,24.22,38.267,34.305,4.988,6.056,6.056
1175,0.806,36.544,24.309,38.248,34.311,5.151,6.015,6.056
1176,0.8,36.632,24.337,38.2,34.298,4.949,6.015,5.975
1177,0.803,36.69,24.377,38.238,34.304,4.988,5.974,6.015
1178,0.8,36.345,24.358,38.219,34.298,4.907,5.974,5.893
1179,0.8,36.486,24.338,38.248,34.304,4.987,6.096,6.176
1180,0.807,36.65,24.33,38.257,34.301,4.988,6.016,6.017
1181,0.784,36.642,24.365,38.219,34.304,5.029,6.056,6.015
1182,0.793,36.412,24.381,38.238,34.308,5.07,6.015,6.056
1183,0.793,36.544,24.358,38.209,34.305,4.908,5.934,5.893
1184,0.767,36.641,24.295,38.219,34.305,4.947,6.055,5.973
1185,0.751,36.661,24.248,38.219,34.301,4.988,6.015,6.015
1186,0.728,36.537,24.255,38.219,34.301,4.907,6.015,5.974
1187,0.738,36.708,24.333,38.257,34.315,5.109,6.137,6.055
1188,0.725,36.796,24.388,38.238,34.308,5.03,6.098,6.056
1189,0.728,36.653,24.327,38.229,34.308,4.989,6.097,6.056
1190,0.712,36.719,24.338,38.228,34.305,5.029,6.056,6.056
1191,0.702,36.825,24.33,38.209,34.305,4.989,6.056,5.975
1192,0.695,36.903,24.388,38.219,34.301,4.948,5.975,5.974
1193,0.675,36.29,24.354,38.2,34.298,4.947,5.893,5.974
1194,0.685,36.408,24.35,38.247,34.318,5.191,6.176,6.137
1195,0.685,36.534,24.291,38.238,34.305,5.031,6.017,6.057
1196,0.669,36.631,24.267,38.238,34.305,4.989,6.015,6.056
1197,0.672,36.345,24.341,38.229,34.308,5.07,6.056,5.975
1198,0.656,36.438,24.326,38.209,34.298,4.948,6.015,5.974
1199,0.649,36.573,24.373,38.209,34.297,4.947,5.974,5.974
1200,0.642,36.641,24.338,38.209,34.301,4.907,5.933,5.974
1201,0.642,36.364,24.365,38.228,34.315,5.109,6.136,6.137
1202,0.626,36.495,24.397,38.219,34.305,4.989,6.016,6.016
1203,0.629,36.612,24.42,38.219,34.305,5.07,6.096,6.015
1204,0.616,36.68,24.378,38.219,34.305,5.07,5.975,6.096
1205,0.616,36.336,24.307,38.19,34.294,4.948,5.974,6.016
1206,0.606,36.495,24.302,38.209,34.301,4.907,6.015,5.974
1207,0.603,36.593,24.298,38.2,34.298,4.947,5.974,6.055
1208,0.616,36.651,24.302,38.247,34.322,5.15,6.137,6.219
1209,0.61,36.326,24.349,38.219,34.308,4.99,6.057,6.058
1210,0.609,36.476,24.314,38.219,34.308,5.029,6.056,6.097
1211,0.616,36.602,24.334,38.209,34.308,4.989,6.015,6.138
1212,0.597,36.45,24.338,38.19,34.301,5.029,5.974,6.138
1213,0.593,36.42,24.381,38.209,34.308,5.03,5.974,6.098
1214,0.596,36.544,24.373,38.18,34.294,4.907,5.893,6.097
1215,0.609,36.632,24.416,38.218,34.304,5.069,6.014,6.219
1216,0.606,36.258,24.37,38.2,34.305,5.03,5.974,6.139
1217,0.613,36.36,24.272,38.199,34.305,4.989,6.015,6.138
1218,0.616,36.524,24.306,38.228,34.311,5.029,6.056,6.219
1219,0.606,36.574,24.357,38.161,34.294,4.907,5.812,6.098
1220,0.603,36.219,24.369,38.209,34.304,4.987,5.932,6.138
1221,0.609,36.36,24.342,38.228,34.294,4.988,5.933,6.098
1222,0.606,36.486,24.338,38.181,34.301,4.948,6.014,6.178
1223,0.622,36.602,24.353,38.199,34.311,4.947,6.015,6.179
1224,0.6,36.201,24.447,38.19,34.305,5.029,6.015,6.179
1225,0.596,36.36,24.417,38.199,34.308,5.03,6.096,6.22
1226,0.596,36.476,24.424,38.199,34.298,4.867,5.975,6.058
1227,0.587,36.525,24.366,38.19,34.308,4.946,6.055,6.219
1228,0.586,36.133,24.33,38.18,34.305,4.988,6.056,6.139
1229,0.583,36.273,24.345,38.18,34.294,4.866,5.975,6.179
1230,0.596,36.437,24.369,38.247,34.315,5.068,5.974,6.301
1231,0.583,36.448,24.307,38.21,34.305,4.948,6.055,6.262
1232,0.583,36.094,24.302,38.219,34.301,4.988,6.056,6.262
1233,0.593,36.234,24.31,38.19,34.304,5.029,5.975,6.221
1234,0.587,36.302,24.314,38.18,34.305,4.989,6.015,6.22
1235,0.6,36.495,24.349,38.18,34.294,4.907,5.974,6.22
1236,0.58,36.324,24.404,38.161,34.294,4.947,6.015,6.22
1237,0.596,36.485,24.452,38.199,34.315,5.069,6.218,6.302
1238,0.6,36.564,24.401,38.19,34.308,4.989,6.098,6.262
1239,0.603,36.104,24.35,38.18,34.301,5.029,6.138,6.262
1240,0.603,36.148,24.404,38.19,34.311,5.03,6.098,6.262
1241,0.587,36.244,24.377,38.142,34.298,4.907,6.016,6.18
1242,0.606,36.379,24.311,38.17,34.304,4.906,6.096,6.261
1243,0.596,36.035,24.349,38.151,34.301,4.906,6.056,6.18
1244,0.59,36.176,24.334,38.18,34.311,5.069,6.219,6.383
1245,0.593,36.311,24.365,38.171,34.305,5.07,6.18,6.263
1246,0.59,36.38,24.381,38.17,34.311,4.948,6.139,6.262
1247,0.583,35.959,24.401,38.18,34.305,5.029,6.179,6.302
1248,0.577,36.06,24.331,38.151,34.298,4.826,5.976,6.14
1249,0.57,36.214,24.377,38.17,34.301,4.905,6.137,6.219
1250,0.564,36.273,24.342,38.151,34.301,4.906,6.016,6.22
1251,0.554,36.053,24.388,38.161,34.304,4.987,6.137,6.383
1252,0.57,36.205,24.381,38.189,34.308,4.907,6.138,6.303
1253,0.564,36.321,24.284,38.161,34.305,4.947,6.098,6.262
1254,0.554,36.351,24.322,38.17,34.305,5.069,6.178,6.302
1255,0.563,36.054,24.31,38.161,34.294,4.786,6.017,6.221
1256,0.544,36.166,24.318,38.161,34.308,4.946,6.096,6.22
1257,0.547,36.273,24.338,38.142,34.308,4.907,6.056,6.22
1258,0.557,36.264,24.373,38.141,34.305,4.906,6.097,6.261
1259,0.573,36.015,24.373,38.199,34.315,4.987,6.097,6.262
1260,0.57,36.108,24.338,38.152,34.301,4.948,6.097,6.221
1261,0.583,36.205,24.404,38.161,34.315,5.029,6.138,6.302
1262,0.599,35.995,24.416,38.142,34.301,4.907,6.016,6.14
1263,0.59,35.993,24.358,38.151,34.301,4.906,6.056,6.179
1264,0.596,36.137,24.287,38.141,34.301,4.947,6.015,6.139
1265,0.606,36.215,24.341,38.18,34.298,4.907,6.096,6.179
1266,0.642,35.88,24.353,38.18,34.318,5.028,6.219,6.261
1267,0.668,35.982,24.338,38.132,34.305,4.948,6.098,6.139
1268,0.688,36.108,24.42,38.141,34.315,4.988,6.178,6.179
1269,0.714,36.186,24.335,38.16,34.312,4.907,6.179,6.179
1270,0.744,35.842,24.326,38.113,34.298,4.865,6.179,6.098
1271,0.78,36.02,24.377,38.16,34.301,4.946,6.261,6.138
1272,0.81,36.118,24.401,38.113,34.294,4.866,6.302,6.098
1273,0.862,36.215,24.405,38.16,34.308,5.028,6.343,6.3
1274,0.95,35.842,24.288,38.122,34.298,4.867,6.303,6.18
1275,1.019,35.972,24.286,38.151,34.311,4.906,6.262,6.179
1276,1.082,36.137,24.247,38.18,34.315,4.987,6.343,6.139
1277,1.187,36.129,24.309,38.113,34.294,4.785,6.181,6.098
1278,1.256,35.726,24.337,38.122,34.308,4.905,6.301,6.219
1279,1.328,35.847,24.346,38.122,34.298,4.906,6.302,6.139
1280,1.388,35.972,24.338,38.141,34.308,4.906,6.465,6.219
1281,1.463,36.041,24.365,38.141,34.305,4.906,6.345,6.18
1282,1.496,35.936,24.385,38.122,34.305,4.947,6.303,6.261
1283,1.542,36.088,24.408,38.132,34.311,4.907,6.425,6.343
1284,1.595,36.176,24.401,38.093,34.298,4.825,6.222,6.181
1285,1.654,35.995,24.307,38.122,34.301,4.946,6.342,6.301
1286,1.687,35.821,24.294,38.122,34.301,4.866,6.221,6.221
1287,1.716,35.943,24.333,38.103,34.301,4.865,6.302,6.22
1288,1.746,36.088,24.369,38.141,34.311,5.068,6.343,6.261
1289,1.759,35.745,24.408,38.122,34.305,4.948,6.425,6.262
1290,1.727,35.866,24.381,38.151,34.308,4.988,6.426,6.343
1291,1.714,35.992,24.385,38.132,34.301,4.988,6.263,6.262
1292,1.665,36.07,24.362,38.113,34.308,4.866,6.384,6.384
1293,1.71,35.706,24.424,38.122,34.301,4.906,6.344,6.425
1294,1.681,35.846,24.389,38.103,34.298,4.825,6.303,6.548
1295,1.658,35.992,24.377,38.131,34.318,5.068,6.465,6.752
1296,1.563,36.041,24.311,38.122,34.308,4.908,6.345,6.673
1297,1.461,35.61,24.306,38.132,34.305,4.947,6.303,6.835
1298,1.382,35.769,24.326,38.122,34.308,4.907,6.384,6.958
1299,1.212,35.828,24.361,38.074,34.298,4.825,6.303,7.041
1300,1.133,35.934,24.338,38.102,34.308,4.905,6.302,7.286
1301,1.07,35.628,24.31,38.093,34.301,4.906,6.221,7.288
1302,1.027,35.798,24.365,38.112,34.315,5.069,6.464,7.654
1303,0.991,35.914,24.4,38.093,34.301,4.948,6.304,7.739
1304,0.952,35.925,24.428,38.103,34.308,4.947,6.343,7.903
1305,0.886,35.705,24.428,38.103,34.308,4.988,6.303,8.026
1306,0.817,35.798,24.382,38.083,34.294,4.826,6.14,8.027
1307,0.751,35.943,24.303,38.102,34.301,4.865,6.301,8.19
1308,0.676,36.108,24.322,38.083,34.294,4.906,6.18,8.232
1309,0.636,35.62,24.377,38.093,34.315,4.987,6.261,8.477
1310,0.623,35.759,24.397,38.083,34.305,4.907,6.221,8.398
1311,0.574,35.876,24.358,38.122,34.301,4.987,6.261,8.478
1312,0.564,35.608,24.342,38.112,34.308,4.988,6.221,8.601
1313,0.531,35.663,24.342,38.064,34.291,4.785,6.139,8.521
1314,0.485,35.779,24.369,38.074,34.304,4.864,6.26,8.683
1315,0.478,35.885,24.4,38.083,34.301,4.824,6.139,8.725
1316,0.491,35.503,24.432,38.083,34.301,4.865,6.26,9.01
1317,0.553,35.7,24.37,38.112,34.311,4.946,6.18,9.094
1318,0.58,35.798,24.369,38.093,34.308,4.907,6.179,9.258
1319,0.635,35.876,24.354,38.083,34.311,4.947,6.261,9.544
1320,0.668,35.522,24.377,38.064,34.301,4.866,6.099,9.588
1321,0.701,35.672,24.322,38.074,34.311,4.865,6.178,9.791
1322,0.727,35.789,24.338,38.064,34.294,4.906,6.139,9.956
1323,0.741,35.857,24.334,38.064,34.294,4.825,6.098,10.161
1324,0.764,35.503,24.322,38.093,34.315,5.027,6.26,10.407
1325,0.77,35.624,24.4,38.083,34.305,4.907,6.18,10.572
1326,0.777,35.73,24.405,38.074,34.308,4.906,6.22,10.736
1327,0.803,35.799,24.42,38.083,34.311,4.987,6.139,10.697
1328,0.787,35.569,24.378,38.074,34.301,4.907,6.138,10.737
1329,0.803,35.701,24.369,38.074,34.304,4.906,6.138,10.738
1330,0.803,35.798,24.373,38.054,34.298,4.865,6.098,10.738
1331,0.797,35.838,24.389,38.083,34.318,5.028,6.3,10.982
1332,0.797,35.579,24.323,38.083,34.308,4.948,6.14,10.862
1333,0.787,35.72,24.338,38.074,34.308,5.029,6.138,10.902
1334,0.803,35.837,24.357,38.083,34.311,4.948,6.179,10.821
1335,0.8,35.579,24.342,38.045,34.298,4.907,6.057,10.739
1336,0.794,35.605,24.385,38.045,34.308,4.906,6.056,10.779
1337,0.793,35.721,24.373,38.054,34.298,4.865,6.056,10.698
1338,0.79,35.818,24.369,38.064,34.308,4.987,6.178,10.778
1339,0.806,35.435,24.365,38.083,34.311,4.988,6.139,10.698
1340,0.797,35.546,24.346,38.064,34.308,4.948,6.057,10.697
1341,0.797,35.663,24.404,38.064,34.308,5.029,6.056,10.616
1342,0.794,35.75,24.342,38.045,34.301,4.907,5.975,10.533
1343,0.793,35.415,24.307,38.064,34.304,4.947,6.015,10.614
1344,0.787,35.556,24.314,38.045,34.308,4.947,6.096,10.574
1345,0.767,35.672,24.334,38.035,34.301,4.907,6.016,10.533
1346,0.78,35.798,24.357,38.073,34.322,5.15,6.218,10.573
1347,0.771,35.416,24.346,38.054,34.308,5.031,6.139,10.411
1348,0.767,35.565,24.392,38.054,34.308,5.03,6.098,10.409
1349,0.77,35.692,24.362,38.064,34.311,4.989,6.056,10.328
1350,0.748,35.731,24.322,38.035,34.305,4.907,6.056,10.246
1351,0.744,35.425,24.381,38.044,34.301,5.028,6.137,10.164
1352,0.747,35.546,24.389,38.035,34.301,4.948,6.016,10.041
1353,0.757,35.682,24.412,38.073,34.315,5.069,6.218,10.243
1354,0.761,35.741,24.292,38.045,34.301,4.948,6.139,9.96
1355,0.764,35.549,24.322,38.121,34.308,4.988,6.057,9.917
1356,0.77,35.701,24.306,38.045,34.308,5.07,6.056,9.835
1357,0.774,35.76,24.322,38.016,34.298,4.908,6.015,9.631
1358,0.78,35.626,24.427,38.025,34.301,4.906,6.056,9.548
1359,0.78,35.433,24.343,38.035,34.301,4.906,5.975,9.466
1360,0.774,35.566,24.365,38.054,34.301,5.028,6.137,9.505
1361,0.787,35.711,24.35,38.045,34.308,5.03,6.098,9.343
1362,0.79,35.405,24.4,38.045,34.301,5.03,6.056,9.301
1363,0.79,35.517,24.381,38.045,34.311,5.07,6.137,9.178
1364,0.777,35.614,24.319,38.025,34.298,4.867,5.935,8.974
1365,0.771,35.74,24.275,38.044,34.301,4.987,6.055,9.013
1366,0.774,35.339,24.325,38.025,34.304,4.907,5.975,8.891
1367,0.758,35.449,24.345,38.016,34.301,4.987,6.055,8.93
1368,0.774,35.633,24.353,38.063,34.315,5.07,6.056,8.85
1369,0.767,35.692,24.377,38.035,34.308,4.948,6.137,8.808
1370,0.764,35.405,24.365,38.044,34.308,5.069,6.057,8.726
1371,0.757,35.546,24.361,38.054,34.311,4.948,6.015,8.603
1372,0.751,35.615,24.404,38.025,34.301,4.988,5.974,8.521
1373,0.761,35.702,24.424,38.016,34.301,4.948,5.974,8.439
1374,0.761,35.309,24.393,38.006,34.304,4.947,5.974,8.397
1375,0.787,35.488,24.315,38.073,34.318,5.15,6.177,8.478
1376,0.784,35.585,24.287,38.045,34.308,4.99,6.017,8.276
1377,0.797,35.625,24.337,38.025,34.305,4.948,6.056,8.233
1378,0.8,35.337,24.353,38.025,34.308,5.069,6.015,8.151
1379,0.79,35.421,24.389,38.006,34.291,4.989,6.015,8.069
1380,0.78,35.575,24.385,38.044,34.304,4.988,6.015,8.069
1381,0.803,35.855,24.362,38.016,34.298,4.948,5.974,7.946
1382,0.8,35.445,24.365,38.025,34.308,5.069,6.137,8.026
1383,0.82,35.604,24.455,38.016,34.301,4.989,6.098,7.946
1384,0.803,35.702,24.401,38.025,34.301,5.029,6.056,7.945
1385,0.803,35.396,24.377,38.025,34.311,5.07,6.097,7.945
1386,0.794,35.431,24.287,38.006,34.301,4.908,5.813,7.701
1387,0.8,35.575,24.337,38.015,34.304,5.069,5.972,7.74
1388,0.787,35.653,24.322,38.006,34.305,4.989,5.974,7.659
1389,0.784,35.309,24.353,37.996,34.305,4.948,6.015,7.78
1390,0.806,35.497,24.33,38.044,34.308,4.988,6.056,7.618
1391,0.797,35.624,24.361,38.016,34.308,4.988,5.975,7.617
1392,0.794,35.721,24.338,38.035,34.305,5.029,6.096,7.698
1393,0.79,35.271,24.396,38.006,34.301,4.867,5.853,7.414
1394,0.787,35.42,24.432,38.015,34.304,4.946,6.054,7.533
1395,0.816,35.527,24.471,38.016,34.301,4.988,5.975,7.453
1396,0.82,35.586,24.413,37.996,34.294,4.907,5.974,7.452
1397,0.83,35.279,24.354,38.054,34.315,5.028,6.096,7.493
1398,0.826,35.401,24.365,38.016,34.308,4.907,6.056,7.453
1399,0.836,35.537,24.393,38.006,34.308,4.987,5.975,7.452
1400,0.839,35.576,24.405,38.006,34.305,4.988,5.974,7.412
1401,0.82,35.375,24.385,37.987,34.305,4.907,5.933,7.33
1402,0.843,35.555,24.342,37.977,34.308,4.906,5.974,7.248
1403,0.849,35.663,24.377,37.967,34.298,4.865,5.852,7.288
1404,0.836,35.702,24.354,38.015,34.322,5.068,6.135,7.41
1405,0.82,35.329,24.443,38.006,34.308,4.989,5.976,7.289
1406,0.833,35.478,24.436,37.996,34.308,4.907,6.055,7.288
1407,0.83,35.585,24.386,37.996,34.308,4.987,5.975,7.288
1408,0.813,35.356,24.369,37.958,34.298,4.907,5.933,7.288
1409,0.82,35.392,24.365,37.967,34.297,4.947,5.974,7.288
1410,0.82,35.508,24.385,37.958,34.301,4.907,5.893,7.166
1411,0.817,35.643,24.377,38.005,34.311,5.028,6.095,7.328
1412,0.826,35.29,24.322,38.006,34.308,4.907,5.975,7.248
1413,0.836,35.372,24.299,37.987,34.308,4.947,5.974,7.288
1414,0.843,35.507,24.306,37.977,34.311,4.947,6.015,7.288
1415,0.846,35.547,24.353,37.948,34.294,4.785,5.893,7.125
1416,0.859,35.212,24.389,37.977,34.304,4.905,5.892,7.124
1417,0.853,35.362,24.393,37.948,34.298,4.865,5.892,7.124
1418,0.862,35.488,24.33,37.957,34.304,4.946,6.136,7.165
1419,0.879,35.605,24.381,37.977,34.301,4.907,5.935,7.084
1420,0.872,35.299,24.42,37.958,34.308,4.947,6.014,7.123
1421,0.879,35.468,24.421,37.967,34.305,4.947,6.015,7.083
1422,0.876,35.566,24.323,37.938,34.294,4.866,5.852,6.88
1423,0.879,35.644,24.345,38.024,34.301,4.865,5.973,7.04
1424,0.866,35.28,24.349,37.92,34.304,4.824,5.893,7.042
1425,0.862,35.411,24.353,37.928,34.301,4.865,5.933,7.042
1426,0.879,35.565,24.369,37.976,34.308,5.028,5.974,7.001
1427,0.872,35.567,24.42,37.948,34.301,4.948,6.015,7.001
1428,0.869,35.337,24.37,37.948,34.311,4.907,5.974,7.041
1429,0.872,35.478,24.373,37.948,34.301,4.865,5.893,6.92
1430,0.869,35.547,24.326,37.919,34.304,4.906,5.973,7.0
1431,0.879,35.538,24.388,37.928,34.301,4.825,6.015,6.919
1432,0.876,35.404,24.366,37.919,34.294,4.865,5.893,6.919
1433,0.885,35.556,24.342,37.967,34.315,5.068,6.095,7.041
1434,0.892,35.663,24.295,37.948,34.301,4.948,5.975,6.92
1435,0.905,35.184,24.322,37.929,34.304,4.907,6.015,6.919
1436,0.908,35.275,24.369,37.928,34.308,4.947,5.974,6.919
1437,0.905,35.353,24.342,37.89,34.294,4.785,5.852,6.919
1438,0.928,35.478,24.431,37.909,34.301,4.864,5.932,6.837
1439,0.918,35.307,24.331,37.909,34.298,4.906,5.811,6.837
1440,0.922,35.468,24.349,37.928,34.308,4.987,6.013,6.999
1441,0.954,35.604,24.396,37.928,34.305,4.948,5.852,6.797
1442,0.941,35.663,24.397,37.928,34.311,4.907,5.891,6.836
1443,0.935,35.175,24.397,37.919,34.308,4.947,5.973,6.837
1444,0.938,35.314,24.346,37.9,34.294,4.785,5.771,6.714
1445,0.938,35.44,24.299,37.909,34.304,4.864,5.85,6.713
1446,0.938,35.518,24.353,37.976,34.308,4.824,5.81,6.713
1447,0.935,35.183,24.353,37.91,34.308,4.865,5.85,6.794
1448,0.948,35.371,24.42,37.919,34.315,4.987,5.932,6.755
1449,0.945,35.45,24.401,37.909,34.301,4.866,5.974,6.714
1450,0.945,35.508,24.381,37.919,34.304,4.906,5.933,6.672
1451,0.964,35.48,24.346,37.909,34.301,4.906,5.852,6.672
1452,0.948,35.576,24.416,37.899,34.308,4.865,5.851,6.631
1453,0.958,35.711,24.409,37.89,34.305,4.824,5.891,6.631
1454,0.971,35.962,24.377,37.899,34.294,4.824,5.729,6.59
1455,0.981,35.197,24.311,37.938,34.315,4.987,5.972,6.793
1456,0.977,35.323,24.318,37.909,34.305,4.907,5.893,6.673
1457,0.994,35.411,24.338,37.909,34.301,4.947,5.851,6.631
1458,1.01,35.287,24.334,37.919,34.311,4.907,5.81,6.631
1459,1.004,35.344,24.369,37.89,34.294,4.784,5.81,6.631
1460,1.02,35.507,24.276,37.899,34.304,4.864,5.85,6.59
1461,1.023,35.595,24.364,37.88,34.291,4.824,5.769,6.468
1462,1.023,35.164,24.354,37.899,34.308,4.987,5.891,6.629
1463,1.04,35.323,24.447,37.89,34.301,4.907,5.811,6.509
1464,1.04,35.44,24.417,37.918,34.308,4.906,5.891,6.549
1465,1.037,35.546,24.385,37.919,34.311,4.906,5.851,6.63
1466,1.027,35.106,24.369,37.88,34.294,4.784,5.648,6.428
1467,1.03,35.284,24.369,37.976,34.301,4.824,5.808,6.385
1468,1.033,35.42,24.365,37.881,34.301,4.865,5.81,6.425
1469,1.033,35.47,24.393,37.88,34.301,4.946,5.85,6.426
1470,1.05,35.221,24.385,37.928,34.311,4.907,5.851,6.426
1471,1.043,35.352,24.354,37.89,34.305,4.906,5.81,6.466
1472,1.056,35.469,24.365,37.909,34.308,4.947,5.85,6.507
1473,1.063,35.528,24.439,37.899,34.308,4.866,5.81,6.386
1474,1.063,35.202,24.429,37.899,34.308,4.906,5.81,6.344
1475,1.086,35.371,24.452,37.88,34.294,4.947,5.85,6.343
1476,1.089,35.44,24.456,37.861,34.294,4.866,5.81,6.343
1477,1.115,35.518,24.366,37.918,34.315,5.028,5.972,6.547
1478,1.122,35.288,24.307,37.9,34.301,4.907,5.893,6.386
1479,1.119,35.392,24.365,37.89,34.311,4.987,5.892,6.466
1480,1.122,35.508,24.389,37.89,34.308,4.988,5.933,6.386
1481,1.122,35.327,24.369,37.88,34.298,4.866,5.892,6.303
1482,1.148,35.334,24.358,37.88,34.301,4.906,5.973,6.302
1483,1.152,35.449,24.346,37.88,34.298,4.865,5.852,6.262
1484,1.145,35.566,24.369,37.89,34.308,4.987,6.095,6.424
1485,1.152,35.222,24.385,37.861,34.301,4.948,5.894,6.344
1486,1.148,35.314,24.416,37.899,34.304,4.907,5.973,6.384
1487,1.158,35.449,24.366,37.89,34.311,5.028,5.974,6.385
1488,1.155,35.518,24.361,37.861,34.294,4.867,5.893,6.222
1489,1.168,35.192,24.377,37.87,34.308,4.906,5.933,6.342
1490,1.162,35.333,24.404,37.87,34.305,4.906,5.974,6.221
1491,1.178,35.449,24.374,37.88,34.301,4.906,5.933,6.342
1492,1.194,35.604,24.381,37.909,34.315,5.028,5.974,6.384
1493,1.175,35.251,24.362,37.871,34.305,4.989,5.974,6.303
1494,1.188,35.41,24.326,37.89,34.305,5.029,6.055,6.384
1495,1.207,35.517,24.404,37.871,34.305,4.948,5.893,6.181
1496,1.211,35.576,24.416,37.87,34.298,4.907,5.933,6.261
1497,1.233,35.164,24.424,37.861,34.301,4.865,5.892,6.262
1498,1.224,35.304,24.354,37.861,34.301,4.906,5.892,6.302
1499,1.247,35.459,24.365,37.889,34.318,5.069,6.014,6.465
1500,1.237,35.48,24.393,37.871,34.305,4.908,5.974,6.345
1501,1.257,35.393,24.393,37.87,34.311,5.028,5.974,6.303
1502,1.266,35.536,24.346,37.88,34.301,4.948,5.893,6.262
1503,1.254,35.634,24.338,37.861,34.301,4.947,6.014,6.302
1504,1.257,35.539,24.349,37.861,34.308,4.947,5.934,6.221
1505,1.25,35.308,24.353,37.851,34.305,4.907,5.974,6.261
1506,1.266,35.468,24.412,37.899,34.315,5.069,6.096,6.465
1507,1.257,35.556,24.377,37.88,34.308,4.989,6.056,6.304
1508,1.253,35.433,24.369,37.861,34.311,4.988,6.056,6.384
1509,1.266,35.566,24.416,37.861,34.308,4.988,5.975,6.222
1510,1.26,35.663,24.35,37.851,34.301,4.988,5.974,6.302
1511,1.267,35.779,24.443,37.851,34.301,4.907,6.015,6.221
1512,1.263,35.272,24.39,37.841,34.294,4.784,6.015,6.261
1513,1.276,35.458,24.33,37.889,34.311,5.149,6.137,6.424
1514,1.28,35.566,24.342,37.851,34.301,4.949,6.098,6.304
1515,1.289,35.653,24.365,37.851,34.301,4.907,6.056,6.302
1516,1.29,35.549,24.4,37.87,34.304,4.947,6.015,6.221
1517,1.277,35.643,24.37,37.822,34.301,4.866,6.056,6.261
1518,1.296,35.769,24.44,37.832,34.301,4.946,5.975,6.18
1519,1.286,35.847,24.405,37.822,34.294,4.866,5.974,6.179
1520,1.299,35.589,24.354,37.86,34.304,4.987,6.096,6.423
1521,1.299,35.721,24.389,37.851,34.305,4.988,6.016,6.304
1522,1.29,35.837,24.405,37.851,34.301,4.948,6.056,6.343
1523,1.303,35.876,24.334,37.832,34.308,4.988,6.015,6.262
1524,1.28,35.743,24.275,37.822,34.301,4.826,5.974,6.221
1525,1.267,35.904,24.333,37.899,34.304,4.905,5.974,6.22
1526,1.263,36.011,24.314,37.832,34.301,4.865,5.974,6.18
1527,1.257,36.319,24.365,37.832,34.301,4.987,5.974,6.261
1528,1.263,35.977,24.432,37.841,34.308,4.948,6.055,6.18
1529,1.237,36.098,24.386,37.832,34.308,4.907,6.097,6.261
1530,1.231,36.224,24.369,37.841,34.308,4.987,6.056,6.262
1531,1.217,35.976,24.381,37.832,34.301,4.826,5.934,6.139
1532,1.208,36.041,24.444,37.832,34.301,4.905,6.014,6.26
1533,1.194,36.166,24.405,37.822,34.301,4.906,5.974,6.139
1534,1.198,36.244,24.366,37.822,34.301,4.825,6.015,6.179
1535,1.211,36.187,24.318,37.86,34.311,5.027,6.137,6.301
1536,1.198,36.302,24.302,37.832,34.312,4.907,6.098,6.18
1537,1.178,36.437,24.314,37.832,34.305,4.947,6.056,6.261
1538,1.175,36.515,24.388,37.832,34.301,4.907,6.056,6.139
1539,1.149,36.315,24.393,37.784,34.301,4.906,6.015,6.179
1540,1.132,36.476,24.401,37.793,34.304,4.865,6.096,6.179
1541,1.129,36.592,24.366,37.783,34.301,4.824,5.975,6.057
1542,1.122,36.661,24.42,37.812,34.311,4.987,6.177,6.3
1543,1.099,36.46,24.432,37.803,34.312,4.948,6.017,6.221
1544,1.073,36.583,24.401,37.812,34.308,5.029,6.056,6.139
1545,1.053,36.728,24.366,37.822,34.308,4.948,6.137,6.179
1546,1.03,36.739,24.295,37.793,34.294,4.825,6.057,6.057
1547,1.011,36.748,24.361,37.783,34.304,4.946,6.015,6.097
1548,0.994,36.864,24.318,37.783,34.305,4.866,5.974,6.097
1549,0.981,36.942,24.392,37.793,34.301,4.906,6.055,6.178
1550,0.971,37.019,24.315,37.812,34.304,4.906,6.056,6.139
1551,0.945,36.991,24.341,37.812,34.301,4.865,6.056,6.179
1552,0.938,37.125,24.365,37.812,34.304,4.987,6.178,6.098
1553,0.932,37.232,24.412,37.803,34.301,4.866,5.976,6.097
1554,0.905,37.07,24.444,37.793,34.304,4.906,6.015,6.097
1555,0.905,37.068,24.429,37.793,34.294,4.865,6.056,6.056
1556,0.895,37.193,24.397,37.783,34.297,4.865,6.015,6.097
1557,0.902,37.328,24.354,37.841,34.318,5.028,6.259,6.138
1558,0.886,37.138,24.361,37.784,34.308,4.989,6.099,6.098
1559,0.872,37.261,24.42,37.793,34.311,4.948,6.097,6.178
1560,0.866,37.396,24.397,37.802,34.308,4.947,6.138,6.139
1561,0.846,37.426,24.35,37.851,34.301,4.907,6.098,6.138
1562,0.846,37.283,24.361,37.784,34.301,4.947,6.056,6.016
1563,0.82,37.406,24.381,37.774,34.301,4.947,6.015,5.974
1564,0.813,37.541,24.381,37.802,34.311,5.029,6.137,6.177
1565,0.803,37.61,24.44,37.793,34.301,4.907,6.138,6.139
1566,0.784,37.448,24.44,37.793,34.304,4.906,6.098,6.179
1567,0.777,37.571,24.397,37.802,34.308,4.906,6.097,6.139
1568,0.754,37.706,24.393,37.764,34.294,4.865,6.016,5.976
1569,0.757,37.746,24.346,37.773,34.304,4.906,6.015,6.055
1570,0.754,37.468,24.381,37.774,34.298,4.865,6.015,6.015
1571,0.728,37.6,24.323,37.774,34.301,4.946,6.096,6.218
1572,0.741,37.764,24.396,37.812,34.311,4.988,6.056,6.139
1573,0.721,37.766,24.331,37.793,34.308,4.948,6.097,6.138
1574,0.724,37.708,24.377,37.783,34.308,4.988,6.097,6.179
1575,0.734,37.832,24.358,37.774,34.301,4.907,5.975,6.017
1576,0.721,37.91,24.416,37.764,34.304,4.987,6.096,6.096
1577,0.721,37.93,24.448,37.754,34.301,4.866,6.056,6.056
1578,0.708,37.796,24.39,37.783,34.294,4.906,6.015,6.097
1579,0.715,37.958,24.377,37.802,34.315,5.069,6.137,6.219
1580,0.715,38.026,24.428,37.774,34.305,4.948,6.057,6.139
1581,0.708,37.787,24.436,37.754,34.305,5.029,6.056,6.098
1582,0.715,37.89,24.347,37.793,34.301,4.907,6.137,6.138
1583,0.698,37.997,24.353,37.735,34.294,4.906,6.016,5.976
1584,0.698,38.104,24.369,37.754,34.301,4.906,5.974,6.096
1585,0.679,37.769,24.393,37.745,34.301,4.906,5.933,6.056
1586,0.672,37.929,24.412,37.773,34.315,4.947,6.096,6.219
1587,0.678,38.036,24.452,37.774,34.308,4.947,6.097,6.098
1588,0.662,38.094,24.37,37.783,34.311,4.988,6.016,6.097
1589,0.669,37.903,24.338,37.774,34.312,4.988,6.015,6.138
1590,0.659,38.016,24.365,37.735,34.291,4.826,5.852,6.016
1591,0.652,38.123,24.42,37.764,34.304,4.865,6.013,6.137
1592,0.655,38.181,24.37,37.745,34.294,4.824,5.974,6.057
1593,0.652,37.99,24.33,37.745,34.301,4.905,5.974,6.219
1594,0.662,38.19,24.369,37.773,34.311,4.906,6.055,6.139
1595,0.669,38.269,24.369,37.745,34.305,4.947,5.975,6.098
1596,0.662,38.288,24.369,37.764,34.308,4.907,5.974,6.138
1597,0.665,38.011,24.428,37.745,34.301,4.825,5.893,5.935
1598,0.669,38.142,24.405,37.745,34.304,4.987,5.973,6.014
1599,0.675,38.249,24.397,37.745,34.305,4.866,5.933,6.015
1600,0.665,38.528,24.342,37.716,34.301,4.865,5.811,6.015
1601,0.682,38.013,24.431,37.773,34.315,5.028,6.054,6.178
1602,0.672,38.104,24.425,37.754,34.318,4.948,5.975,6.098
1603,0.672,38.22,24.37,37.745,34.308,4.988,5.974,6.097
1604,0.665,38.058,24.369,37.783,34.305,4.866,5.974,6.056
1605,0.643,38.066,24.326,37.726,34.305,4.906,5.933,5.975
1606,0.655,38.238,24.361,37.754,34.301,4.947,5.892,6.015
1607,0.649,38.307,24.393,37.716,34.301,4.825,5.851,6.015
1608,0.646,38.049,24.506,37.744,34.315,5.027,6.095,6.137
1609,0.649,38.2,24.347,37.754,34.308,4.907,5.975,6.057
1610,0.646,38.307,24.377,37.735,34.305,4.987,5.974,6.097
1611,0.636,38.375,24.401,37.764,34.308,4.988,6.015,6.056
1612,0.633,38.453,24.385,37.706,34.294,4.866,5.893,5.975
1613,0.623,38.597,24.385,37.735,34.301,4.824,5.973,5.974
1614,0.623,38.723,24.334,37.716,34.298,4.905,5.893,5.974
1615,0.649,38.772,24.283,37.744,34.315,4.987,6.095,6.096
1616,0.652,37.776,24.294,37.773,34.308,4.948,6.056,6.016
1617,0.649,37.909,24.369,37.735,34.308,4.866,6.056,6.015
1618,0.662,38.036,24.408,37.735,34.305,4.987,5.975,6.096
1619,0.662,38.046,24.413,37.706,34.298,4.826,5.852,5.975
1620,0.662,38.085,24.417,37.725,34.304,4.905,5.891,5.974
1621,0.678,38.21,24.378,37.706,34.298,4.825,5.973,5.974
1622,0.665,38.307,24.443,37.715,34.301,4.905,5.933,6.055
1623,0.672,38.356,24.448,37.725,34.315,4.906,5.974,5.975
1624,0.662,37.935,24.417,37.716,34.308,4.865,6.015,6.055
1625,0.662,38.065,24.342,37.725,34.308,4.987,6.015,6.056
1626,0.652,38.152,24.314,37.716,34.298,4.866,5.852,5.975
1627,0.646,37.99,24.369,37.706,34.301,4.865,5.932,5.974
1628,0.636,37.969,24.358,37.725,34.304,4.865,5.974,5.974
1629,0.633,38.074,24.439,37.696,34.294,4.906,5.933,5.974
1630,0.655,38.219,24.37,37.763,34.315,4.987,6.014,6.055
1631,0.639,37.904,24.381,37.697,34.305,4.907,5.974,6.056
1632,0.633,38.026,24.373,37.715,34.301,4.906,6.015,6.178
1633,0.645,38.152,24.432,37.744,34.298,4.906,5.974,6.057
1634,0.636,38.191,24.464,37.725,34.301,4.906,5.974,6.097
1635,0.649,37.751,24.417,37.706,34.301,4.825,5.974,6.097
1636,0.659,37.871,24.378,37.687,34.294,4.824,5.852,6.056
1637,0.675,38.026,24.272,37.744,34.315,5.027,6.095,6.3
1638,0.662,38.085,24.353,37.716,34.312,4.867,5.975,6.18
1639,0.669,37.97,24.393,37.725,34.315,4.906,6.055,6.179
1640,0.675,38.084,24.401,37.735,34.312,4.947,5.975,6.179
1641,0.669,38.181,24.358,37.754,34.294,4.744,5.893,6.098
1642,0.669,38.268,24.326,37.697,34.301,4.905,5.933,6.138
1643,0.675,37.272,24.384,37.687,34.298,4.865,5.933,6.138
1644,0.659,37.415,24.436,37.696,34.308,4.987,6.096,6.219
1645,0.672,37.561,24.499,37.706,34.305,4.907,5.975,6.18
1646,0.669,37.572,24.464,37.696,34.308,4.947,5.893,6.22
1647,0.662,37.917,24.409,37.706,34.311,4.947,6.014,6.22
1648,0.652,38.045,24.377,37.677,34.301,4.825,5.852,6.098
1649,0.655,38.133,24.397,37.705,34.304,4.905,5.891,6.219
1650,0.652,38.057,24.428,37.667,34.298,4.825,5.973,6.18
1651,0.636,37.634,24.354,37.686,34.297,4.905,5.893,6.179
1652,0.655,37.803,24.396,37.734,34.322,5.069,6.054,6.301
1653,0.655,37.862,24.346,37.696,34.308,4.908,5.934,6.221
1654,0.652,37.68,24.369,37.696,34.305,4.987,6.014,6.22
1655,0.678,37.765,24.42,37.706,34.305,4.948,5.974,6.139
1656,0.662,37.861,24.421,37.677,34.301,4.866,5.974,6.179
1657,0.672,37.958,24.397,37.686,34.304,4.946,5.893,6.139
1658,0.669,37.48,24.338,37.667,34.301,4.825,5.892,6.179
1659,0.688,37.648,24.377,37.696,34.311,5.027,6.054,6.261
1660,0.688,37.764,24.381,37.687,34.305,4.948,5.934,6.18
1661,0.692,37.833,24.408,37.667,34.305,4.907,6.014,6.139
1662,0.698,37.469,24.307,37.696,34.308,4.865,5.893,6.219
1663,0.688,37.59,24.345,37.639,34.298,4.743,5.851,6.18
1664,0.675,37.697,24.361,37.667,34.304,4.864,5.973,6.22
1665,0.672,37.775,24.369,37.648,34.305,4.865,5.893,6.098
1666,0.672,37.89,24.4,37.657,34.308,4.946,6.014,6.3
1667,0.685,38.055,24.444,37.686,34.301,4.866,6.015,6.18
1668,0.669,38.152,24.374,37.677,34.311,4.906,5.974,6.22
1669,0.665,38.201,24.416,37.667,34.305,4.947,6.015,6.261
1670,0.672,37.204,24.385,37.657,34.298,4.785,5.934,6.058
1671,0.669,37.328,24.451,37.657,34.304,4.864,5.933,6.178
1672,0.672,37.445,24.409,37.667,34.301,4.824,5.892,6.139
1673,0.662,37.465,24.315,37.667,34.301,4.865,5.933,6.179
1674,0.695,37.542,24.361,37.677,34.308,4.987,6.055,6.179
1675,0.688,37.639,24.377,37.658,34.298,4.907,6.056,6.179
1676,0.695,37.736,24.393,37.657,34.311,4.825,6.056,6.139
1677,0.701,37.363,24.397,37.667,34.308,4.824,6.015,6.138
1678,0.682,37.311,24.42,37.629,34.294,4.905,6.015,6.057
1679,0.692,37.483,24.366,37.657,34.301,4.825,5.974,6.137
1680,0.698,37.561,24.369,37.629,34.294,4.783,5.893,6.016
1681,0.705,37.217,24.408,37.657,34.311,4.986,6.095,6.218
1682,0.708,37.329,24.409,37.638,34.305,4.826,5.975,6.18
1683,0.702,37.454,24.377,37.648,34.305,4.865,6.015,6.139
1684,0.701,37.571,24.287,37.657,34.311,4.946,6.056,6.138
1685,0.682,37.16,24.341,37.6,34.294,4.744,5.812,6.098
1686,0.679,37.318,24.338,37.628,34.301,4.864,5.932,6.056
1687,0.685,37.435,24.42,37.628,34.301,4.865,5.892,5.975
1688,0.672,37.503,24.432,37.648,34.315,4.906,6.054,6.177
1689,0.685,37.236,24.335,37.648,34.308,4.865,6.056,6.017
1690,0.685,37.348,24.373,37.638,34.308,4.865,5.934,6.056
1691,0.679,37.455,24.373,37.638,34.308,4.987,6.014,6.097
1692,0.672,37.513,24.447,37.619,34.301,4.866,5.852,6.016
1693,0.675,37.13,24.409,37.647,34.301,4.824,5.932,6.056
1694,0.675,37.27,24.35,37.619,34.301,4.824,5.892,6.056
1695,0.682,37.377,24.318,37.619,34.298,4.824,5.973,6.015
1696,0.688,37.445,24.388,37.734,34.315,4.987,6.137,6.056
1697,0.688,37.187,24.369,37.62,34.301,4.866,5.935,6.056
1698,0.695,37.29,24.377,37.628,34.304,4.865,6.014,6.097
1699,0.695,37.416,24.412,37.638,34.308,4.946,5.934,6.056
1700,0.695,37.129,24.381,37.6,34.294,4.825,5.974,5.975
1701,0.701,37.002,24.397,37.599,34.308,4.824,5.893,5.974
1702,0.695,37.135,24.436,37.599,34.305,4.824,5.892,5.933
1703,0.695,37.232,24.436,37.638,34.318,4.987,5.973,6.177
1704,0.688,36.993,24.366,37.609,34.305,4.866,5.974,6.017
1705,0.675,37.106,24.299,37.619,34.305,4.824,6.015,6.015
1706,0.682,37.232,24.251,37.638,34.308,4.865,5.974,6.056
1707,0.666,37.281,24.282,37.581,34.294,4.743,5.933,6.015
1708,0.672,36.955,24.368,37.609,34.301,4.823,5.892,6.015
1709,0.669,37.086,24.377,37.599,34.301,4.783,5.933,5.893
1710,0.656,37.222,24.326,37.618,34.311,4.864,6.055,6.136
1711,0.668,37.319,24.4,37.599,34.294,4.865,6.015,6.016
1712,0.662,36.812,24.385,37.599,34.304,4.906,6.015,5.974
1713,0.675,36.951,24.463,37.599,34.305,4.906,6.015,6.096
1714,0.665,37.048,24.413,37.58,34.294,4.703,5.893,5.935
1715,0.682,37.106,24.42,37.59,34.304,4.823,5.892,5.933
1716,0.685,36.829,24.37,37.59,34.305,4.824,5.892,5.933
1717,0.679,36.96,24.334,37.59,34.301,4.824,5.892,6.055
1718,0.698,37.134,24.357,37.628,34.308,4.865,5.973,6.015
1719,0.692,37.098,24.424,37.6,34.305,4.824,5.974,6.015
1720,0.695,36.79,24.397,37.599,34.308,4.905,5.974,6.096
1721,0.701,36.931,24.385,37.59,34.305,4.825,5.811,5.894
1722,0.695,37.009,24.377,37.59,34.305,4.824,5.85,6.014
1723,0.692,37.077,24.408,37.57,34.305,4.865,5.891,5.893
1724,0.685,36.656,24.424,37.561,34.298,4.743,5.892,5.892
1725,0.685,36.815,24.436,37.609,34.315,4.986,6.054,6.136
1726,0.675,36.884,24.432,37.59,34.305,4.866,5.893,5.976
1727,0.682,36.74,24.366,37.609,34.311,4.906,5.973,6.096
1728,0.682,36.844,24.358,37.59,34.308,4.906,5.974,5.935
1729,0.662,36.922,24.369,37.561,34.305,4.825,5.893,5.974
1730,0.672,37.038,24.42,37.57,34.301,4.824,5.851,5.974
1731,0.669,36.435,24.362,37.57,34.294,4.824,5.851,5.974
1732,0.669,36.602,24.354,37.609,34.318,5.027,6.013,6.137
1733,0.672,36.709,24.385,37.59,34.312,4.907,5.893,6.098
1734,0.675,36.787,24.377,37.57,34.305,4.947,5.973,6.097
1735,0.695,36.605,24.432,37.58,34.301,4.907,5.974,5.975
1736,0.682,36.718,24.452,37.532,34.301,4.784,5.852,5.974
1737,0.692,36.854,24.444,37.57,34.301,4.946,5.851,5.933
1738,0.685,36.913,24.417,37.561,34.298,4.825,5.81,5.974
1739,0.688,36.491,24.381,37.58,34.304,4.905,5.891,6.137
1740,0.708,36.66,24.447,37.58,34.308,4.947,5.892,6.057
1741,0.702,36.748,24.362,37.561,34.301,4.947,5.933,6.015
1742,0.695,36.816,24.424,37.628,34.304,4.988,5.974,6.056
1743,0.692,36.557,24.331,37.542,34.294,4.785,5.771,5.893
1744,0.692,36.689,24.361,37.56,34.301,4.905,5.891,6.054
1745,0.672,36.786,24.389,37.551,34.298,4.865,5.811,6.015
1746,0.669,36.797,24.424,37.541,34.301,4.906,5.891,6.015
1747,0.678,36.461,24.448,37.589,34.311,4.987,5.851,6.056
1748,0.662,36.573,24.339,37.57,34.308,4.988,5.851,6.056
1749,0.652,36.699,24.396,37.561,34.305,4.948,5.973,6.097
1750,0.668,36.575,24.373,37.551,34.305,4.907,5.811,5.975
1751,0.656,36.593,24.397,37.56,34.294,4.947,5.932,6.015
1752,0.646,36.747,24.311,37.551,34.304,4.825,5.892,6.015
1753,0.646,36.825,24.353,37.541,34.301,4.905,5.851,6.056
1754,0.662,36.481,24.357,37.589,34.325,5.028,5.973,6.178
1755,0.672,36.583,24.361,37.561,34.301,4.989,5.893,6.057
1756,0.672,36.728,24.443,37.561,34.311,4.948,5.973,6.015
1757,0.675,36.806,24.44,37.561,34.308,4.988,5.893,6.015
1758,0.669,36.462,24.413,37.522,34.294,4.866,5.811,5.974
1759,0.672,36.631,24.389,37.531,34.304,4.906,5.85,6.015
1760,0.678,36.747,24.385,37.532,34.298,4.825,5.81,5.934
1761,0.672,36.825,24.416,37.551,34.311,5.027,6.013,6.177
1762,0.678,36.49,24.389,37.541,34.312,4.948,5.934,5.976
1763,0.682,36.631,24.369,37.551,34.312,4.947,5.892,5.974
1764,0.669,36.747,24.385,37.551,34.308,4.947,5.973,6.137
1765,0.652,36.777,24.354,37.513,34.294,4.825,5.852,5.976
1766,0.659,36.643,24.377,37.551,34.304,4.905,5.851,6.015
1767,0.652,36.786,24.424,37.522,34.298,4.865,5.81,5.974
1768,0.652,36.864,24.46,37.541,34.301,4.946,5.932,6.137
1769,0.668,36.951,24.409,37.627,34.308,4.988,5.933,6.057
1770,0.646,36.655,24.374,37.552,34.305,4.907,5.892,6.015
1771,0.633,36.776,24.377,37.551,34.308,5.069,5.892,6.137
1772,0.642,36.893,24.412,37.541,34.301,4.908,5.851,5.894
1773,0.646,36.712,24.342,37.551,34.304,4.906,5.932,5.973
1774,0.646,36.624,24.303,37.541,34.301,4.865,5.811,5.974
1775,0.652,36.766,24.337,37.551,34.298,4.865,5.728,6.015
1776,0.659,36.873,24.369,37.551,34.315,5.028,5.972,6.137
1777,0.662,36.51,24.358,37.532,34.305,4.907,5.852,6.057
1778,0.669,36.631,24.451,37.532,34.308,4.906,5.932,6.097
1779,0.682,36.767,24.378,37.532,34.301,4.906,5.852,6.016
1780,0.656,36.816,24.377,37.512,34.301,4.865,5.851,6.056
1781,0.668,36.644,24.416,37.512,34.301,4.906,5.81,6.015
1782,0.665,36.748,24.44,37.503,34.301,4.825,5.81,6.015
1783,0.669,36.902,24.448,37.503,34.315,5.068,5.891,6.218
1784,0.665,36.971,24.347,37.522,34.308,4.867,5.892,5.976
1785,0.659,36.655,24.338,37.541,34.308,4.946,5.892,6.055
1786,0.659,36.834,24.353,37.57,34.311,5.029,5.851,6.056
1787,0.646,36.865,24.318,37.494,34.305,4.826,5.769,5.975
1788,0.649,36.951,24.361,37.522,34.305,4.824,5.85,6.015
1789,0.636,36.626,24.381,37.512,34.301,4.865,5.851,5.974
1790,0.633,36.786,24.393,37.512,34.311,4.987,5.973,6.137
1791,0.655,36.941,24.381,37.531,34.305,4.988,5.893,6.057
1792,0.639,36.952,24.424,37.532,34.308,4.866,5.933,6.097
1793,0.642,36.837,24.448,37.522,34.311,4.987,5.933,6.097
1794,0.646,36.951,24.405,37.503,34.298,4.744,5.811,5.853
1795,0.652,37.057,24.377,37.503,34.301,4.823,5.891,6.054
1796,0.646,37.174,24.287,37.483,34.298,4.824,5.851,5.934
1797,0.649,36.858,24.345,37.502,34.297,4.824,5.891,6.014
1798,0.668,37.009,24.342,37.541,34.311,4.946,5.933,6.096
1799,0.665,37.087,24.416,37.512,34.308,4.947,5.892,6.097
1800,0.669,36.762,24.381,37.522,34.315,4.866,5.851,6.097
1801,0.685,36.845,24.365,37.512,34.301,4.865,5.851,6.016
1802,0.679,36.932,24.393,37.503,34.304,4.906,5.891,6.015
1803,0.672,37.038,24.412,37.503,34.311,4.825,5.851,5.974
1804,0.669,36.799,24.459,37.493,34.298,4.824,5.81,6.015
1805,0.678,36.96,24.483,37.522,34.318,5.068,6.013,6.178
1806,0.675,37.058,24.437,37.493,34.305,4.867,5.974,6.057
1807,0.672,37.154,24.335,37.512,34.308,4.946,5.974,6.097
1808,0.672,36.781,24.345,37.512,34.308,4.988,5.933,6.097
1809,0.665,36.893,24.392,37.474,34.301,4.948,5.892,6.056
1810,0.685,37.028,24.416,37.493,34.308,4.866,5.933,6.015
1811,0.688,37.087,24.378,37.502,34.301,4.865,5.892,5.974
1812,0.688,36.896,24.354,37.503,34.308,5.028,6.054,6.218
1813,0.714,37.047,24.396,37.474,34.305,4.867,6.015,6.098
1814,0.715,37.135,24.463,37.502,34.308,4.987,6.056,6.097
1815,0.731,37.174,24.456,37.503,34.308,4.948,6.056,6.097
1816,0.728,36.897,24.429,37.464,34.298,4.744,5.975,5.975
1817,0.734,37.019,24.413,37.493,34.304,4.864,6.015,6.055
1818,0.738,37.154,24.374,37.493,34.301,4.824,6.015,6.015
1819,0.738,37.146,24.358,37.474,34.301,4.905,6.137,6.137
1820,0.76,36.992,24.424,37.521,34.311,4.906,6.016,6.057
1821,0.754,37.096,24.374,37.484,34.312,4.906,6.096,6.097
1822,0.754,37.184,24.377,37.541,34.312,4.987,6.056,6.056
1823,0.754,36.993,24.377,37.465,34.301,4.785,5.975,5.893
1824,0.761,37.0,24.397,37.483,34.308,4.905,6.055,6.095
1825,0.744,37.115,24.459,37.493,34.308,4.825,6.015,6.016
1826,0.741,37.203,24.448,37.474,34.301,4.905,6.015,6.096
1827,0.76,36.907,24.495,37.521,34.315,4.987,6.096,6.056
1828,0.738,37.019,24.374,37.493,34.305,4.948,6.016,6.097
1829,0.751,37.135,24.401,37.493,34.308,4.988,6.056,6.138
1830,0.741,37.222,24.424,37.464,34.301,4.866,5.934,6.016
1831,0.721,36.878,24.432,37.473,34.308,4.865,6.055,6.015
1832,0.728,37.038,24.366,37.493,34.301,4.865,5.975,6.096
1833,0.725,37.135,24.361,37.464,34.294,4.784,5.893,6.097
1834,0.734,37.232,24.397,37.502,34.322,4.946,6.136,6.219
1835,0.738,36.955,24.373,37.474,34.298,4.866,6.016,6.139
1836,0.744,37.067,24.385,37.493,34.308,4.946,6.015,6.219
1837,0.751,37.212,24.459,37.464,34.311,4.907,6.015,6.18
1838,0.761,37.214,24.355,37.454,34.298,4.825,5.934,6.139
1839,0.754,36.887,24.404,37.473,34.297,4.824,5.974,6.179
1840,0.751,37.009,24.37,37.454,34.291,4.905,5.933,6.057
1841,0.79,37.135,24.432,37.464,34.308,4.987,6.136,6.3
1842,0.806,37.165,24.386,37.473,34.301,4.988,5.976,6.18
1843,0.81,37.069,24.342,37.493,34.304,4.907,5.974,6.139
1844,0.823,37.202,24.338,37.483,34.305,4.947,5.974,6.138
1845,0.817,37.29,24.318,37.454,34.287,4.785,5.811,6.016
1846,0.803,37.07,24.38,37.473,34.304,4.905,5.932,6.137
1847,0.797,36.896,24.404,37.454,34.301,4.825,5.892,6.057
1848,0.8,36.999,24.471,37.464,34.304,4.905,5.933,6.178
1849,0.813,37.163,24.409,37.531,34.315,4.987,5.974,6.179
1850,0.803,37.002,24.377,37.464,34.301,4.948,5.933,6.179
1851,0.816,37.125,24.401,37.473,34.308,4.988,6.014,6.22
1852,0.826,37.251,24.416,37.473,34.301,4.948,5.893,6.098
1853,0.813,37.291,24.397,37.445,34.304,4.988,5.933,6.178
1854,0.813,36.898,24.327,37.454,34.308,4.866,5.892,6.139
1855,0.82,37.009,24.248,37.464,34.301,4.906,5.892,6.138
1856,0.82,37.164,24.364,37.483,34.322,5.069,6.136,6.341
1857,0.807,37.232,24.365,37.474,34.305,4.948,5.894,6.181
1858,0.807,37.137,24.451,37.464,34.308,4.907,5.973,6.22
1859,0.797,37.289,24.358,37.483,34.308,5.028,5.974,6.261
1860,0.79,37.368,24.396,37.426,34.294,4.867,5.933,6.139
1861,0.816,37.426,24.346,37.444,34.297,4.906,5.933,6.179
1862,0.826,36.803,24.416,37.435,34.301,4.825,5.892,6.139
1863,0.826,36.95,24.405,37.473,34.304,4.987,5.973,6.341
1864,0.833,37.086,24.374,37.464,34.305,4.988,5.933,6.221
1865,0.82,37.107,24.272,37.464,34.305,4.988,5.974,6.342
1866,0.813,36.934,24.228,37.483,34.305,4.948,5.974,6.384
1867,0.813,37.086,24.305,37.435,34.291,4.744,5.852,6.263
1868,0.803,37.174,24.376,37.444,34.301,4.945,5.891,6.384
1869,0.8,37.328,24.44,37.444,34.294,4.907,5.933,6.303
1870,0.784,36.917,24.382,37.425,34.297,4.906,5.892,6.425
1871,0.793,37.095,24.397,37.502,34.315,5.028,5.933,6.466
1872,0.764,37.164,24.393,37.445,34.305,4.948,5.892,6.548
1873,0.767,36.945,24.459,37.473,34.311,4.947,5.933,6.549
1874,0.764,37.009,24.433,37.454,34.308,4.866,5.892,6.386
1875,0.754,37.096,24.374,37.445,34.301,4.906,5.933,6.425
1876,0.748,37.184,24.354,37.435,34.304,4.906,5.77,6.385
1877,0.744,36.724,24.346,37.435,34.301,4.865,5.768,6.344
1878,0.76,36.883,24.373,37.464,34.315,5.109,5.931,6.628
1879,0.754,36.999,24.416,37.445,34.305,4.949,5.892,6.468
1880,0.751,37.087,24.385,37.464,34.308,4.988,5.892,6.548
1881,0.741,36.829,24.373,37.445,34.308,4.988,5.851,6.468
1882,0.718,36.912,24.389,37.406,34.298,4.907,5.81,6.467
1883,0.715,37.057,24.408,37.434,34.301,4.906,5.85,6.426
1884,0.692,37.097,24.463,37.406,34.304,4.865,5.769,6.466
1885,0.675,36.771,24.468,37.463,34.315,5.068,5.972,6.589
1886,0.672,36.931,24.405,37.445,34.312,4.948,5.893,6.468
1887,0.659,37.048,24.338,37.435,34.308,4.988,5.851,6.467
1888,0.633,37.097,24.365,37.444,34.308,5.029,5.851,6.507
1889,0.619,36.79,24.4,37.406,34.294,4.826,5.688,6.427
1890,0.61,36.922,24.409,37.415,34.301,4.905,5.849,6.466
1891,0.59,37.038,24.299,37.425,34.301,4.865,5.769,6.426
1892,0.6,37.039,24.361,37.425,34.304,4.987,5.891,6.507
1893,0.619,36.905,24.4,37.454,34.308,4.988,5.851,6.467
1894,0.61,36.99,24.479,37.435,34.308,4.988,5.769,6.426
1895,0.629,37.096,24.441,37.435,34.311,5.11,5.85,6.548
1896,0.626,36.781,24.456,37.425,34.301,4.867,5.769,6.264
1897,0.626,36.739,24.378,37.435,34.304,4.906,5.768,6.465
1898,0.649,36.873,24.385,37.425,34.301,4.906,5.768,6.386
1899,0.636,36.99,24.377,37.425,34.301,4.947,5.768,6.466
1900,0.646,36.646,24.443,37.454,34.315,5.069,5.891,6.589
1901,0.636,36.748,24.366,37.435,34.301,4.948,5.811,6.427
1902,0.646,36.892,24.381,37.435,34.308,4.988,5.891,6.466
1903,0.636,36.961,24.365,37.425,34.301,4.866,5.77,6.304
1904,0.616,36.588,24.404,37.415,34.304,4.987,5.809,6.302
1905,0.61,36.699,24.413,37.406,34.305,4.907,5.81,6.384
1906,0.609,36.825,24.444,37.396,34.298,4.825,5.769,6.344
1907,0.613,36.922,24.479,37.444,34.315,5.068,5.931,6.384
1908,0.603,36.568,24.374,37.435,34.308,4.989,5.852,6.425
1909,0.603,36.728,24.365,37.425,34.311,4.948,5.851,6.385
1910,0.603,36.825,24.385,37.415,34.308,4.907,5.729,6.303
1911,0.59,36.864,24.42,37.435,34.308,4.947,5.809,6.465
1912,0.6,36.596,24.339,37.416,34.305,4.866,5.728,6.386
1913,0.593,36.737,24.361,37.406,34.298,4.824,5.768,6.303
1914,0.609,36.883,24.404,37.454,34.315,5.027,5.972,6.425
1915,0.622,36.884,24.409,37.406,34.308,4.907,5.811,6.385
1916,0.619,36.597,24.448,37.415,34.311,4.987,5.85,6.385
1917,0.626,36.728,24.464,37.425,34.312,4.988,5.81,6.344
1918,0.616,36.768,24.39,37.387,34.305,4.866,5.769,6.343
1919,0.623,36.691,24.366,37.425,34.305,4.906,5.768,6.343
1920,0.629,36.566,24.397,37.406,34.301,4.865,5.728,6.262
1921,0.642,36.708,24.436,37.406,34.308,4.987,5.89,6.546
1922,0.636,36.806,24.436,37.387,34.305,4.907,5.811,6.346
1923,0.62,36.375,24.362,37.415,34.311,4.987,5.85,6.466
1924,0.619,36.476,24.377,37.435,34.308,5.029,5.891,6.386
1925,0.6,36.602,24.369,37.387,34.291,4.826,5.648,6.303
1926,0.596,36.718,24.365,37.377,34.308,4.946,5.727,6.302
1927,0.6,36.461,24.385,37.396,34.294,4.947,5.727,6.302
1928,0.59,36.573,24.447,37.386,34.308,4.907,5.809,6.384
1929,0.603,36.756,24.339,37.415,34.311,4.987,5.769,6.263
1930,0.603,36.825,24.346,37.396,34.301,4.948,5.728,6.262
1931,0.596,36.433,24.389,37.415,34.315,4.988,5.727,6.384
1932,0.6,36.573,24.432,37.396,34.294,4.866,5.687,6.222
1933,0.6,36.68,24.37,37.415,34.304,4.946,5.768,6.342
1934,0.603,36.748,24.299,37.406,34.298,4.866,5.687,6.303
1935,0.613,36.317,24.201,37.387,34.301,4.946,5.768,6.343
1936,0.623,36.504,24.371,37.415,34.318,4.988,5.728,6.303
1937,0.626,36.583,24.361,37.396,34.308,5.029,5.727,6.302
1938,0.629,36.641,24.451,37.386,34.308,4.989,5.727,6.302
1939,0.626,36.441,24.401,37.406,34.308,4.988,5.727,6.262
1940,0.613,36.525,24.397,37.387,34.301,4.948,5.727,6.302
1941,0.613,36.66,24.381,37.377,34.301,4.947,5.727,6.221
1942,0.597,36.834,24.436,37.377,34.301,4.866,5.727,6.22
1943,0.603,36.347,24.464,37.405,34.322,5.109,5.85,6.302
1944,0.583,36.457,24.382,37.396,34.305,4.949,5.81,6.262
1945,0.57,36.544,24.33,37.406,34.305,4.947,5.769,6.262
1946,0.58,36.392,24.271,37.406,34.305,4.947,5.728,6.262
1947,0.567,36.419,24.345,37.358,34.301,4.907,5.646,6.221
1948,0.573,36.573,24.373,37.386,34.298,4.865,5.686,6.22
1949,0.577,36.68,24.416,37.367,34.297,4.906,5.646,6.139
1950,0.58,36.115,24.417,37.377,34.311,4.987,5.849,6.382
1951,0.58,36.244,24.381,37.396,34.301,4.907,5.729,6.222
1952,0.586,36.37,24.408,37.406,34.304,4.947,5.768,6.261
1953,0.619,36.457,24.401,37.406,34.315,4.988,5.809,6.302
1954,0.626,36.285,24.405,37.348,34.298,4.826,5.606,6.14
1955,0.658,36.428,24.37,37.396,34.308,4.987,5.726,6.138
1956,0.701,36.544,24.354,37.377,34.298,4.948,5.687,6.098
1957,0.731,36.603,24.385,37.377,34.308,4.988,5.809,6.341
1958,0.796,36.239,24.366,37.386,34.305,4.988,5.688,6.14
1959,0.807,36.341,24.432,37.396,34.301,4.948,5.727,6.179
1960,0.836,36.457,24.374,37.386,34.308,4.947,5.809,6.179
1961,0.888,36.506,24.428,37.377,34.298,4.866,5.647,6.057
1962,0.957,36.43,24.401,37.367,34.308,4.987,5.727,6.137
1963,1.026,36.554,24.448,37.367,34.298,4.948,5.646,6.057
1964,1.089,36.66,24.452,37.357,34.301,4.907,5.727,6.137
1965,1.187,36.729,24.452,37.405,34.315,5.109,5.768,6.26
1966,1.259,36.039,24.393,37.367,34.308,4.989,5.728,6.221
1967,1.315,36.195,24.397,37.386,34.311,4.988,5.727,6.261
1968,1.365,36.302,24.401,37.377,34.305,4.948,5.727,6.139
1969,1.385,36.15,24.373,37.358,34.301,4.947,5.727,6.138
1970,1.45,36.186,24.42,37.357,34.301,4.907,5.646,6.098
1971,1.477,36.331,24.339,37.357,34.308,4.906,5.645,6.097
1972,1.542,36.447,24.365,37.396,34.315,5.069,5.849,6.3
1973,1.595,36.026,24.385,37.358,34.305,5.03,5.769,6.18
1974,1.66,36.147,24.44,37.376,34.311,4.989,5.809,6.22
1975,1.723,36.292,24.464,37.377,34.322,5.029,5.728,6.139
1976,1.74,36.322,24.433,37.348,34.301,4.907,5.646,6.179
1977,1.779,36.092,24.417,37.367,34.298,4.906,5.686,6.179
1978,1.766,36.234,24.393,37.357,34.294,4.906,5.687,6.139
1979,1.75,36.369,24.393,37.367,34.311,5.028,5.931,6.341
1980,1.733,36.428,24.412,37.348,34.298,4.948,5.77,6.221
1981,1.766,36.036,24.37,37.367,34.304,4.988,5.728,6.261
1982,1.772,36.214,24.397,37.367,34.311,4.988,5.809,6.343
1983,1.717,36.293,24.358,37.329,34.291,4.907,5.566,6.221
1984,1.655,36.37,24.42,37.347,34.304,4.987,5.726,6.342
1985,1.521,36.083,24.436,37.348,34.305,4.948,5.646,6.343
1986,1.406,36.215,24.479,37.338,34.308,4.947,5.767,6.628
1987,1.281,36.369,24.491,37.376,34.315,4.988,5.728,6.672
1988,1.166,36.352,24.386,37.358,34.308,4.988,5.727,6.794
1989,1.106,36.141,24.385,37.367,34.311,5.029,5.768,6.917
1990,1.057,36.263,24.424,37.348,34.301,4.907,5.647,6.919
1991,0.991,36.37,24.46,37.338,34.308,4.987,5.727,7.285
1992,0.939,36.505,24.37,37.348,34.298,4.948,5.687,7.369
1993,0.85,36.526,24.404,37.348,34.294,4.947,5.687,7.533
1994,0.762,36.718,24.393,37.386,34.311,5.11,5.89,7.738
1995,0.679,36.767,24.366,37.348,34.305,5.071,5.811,7.862
1996,0.652,35.78,24.416,37.367,34.308,4.989,5.85,7.985
1997,0.629,35.818,24.417,37.338,34.301,4.988,5.769,7.946
1998,0.593,35.915,24.401,37.328,34.304,4.988,5.85,8.189
1999,0.58,36.021,24.354,37.338,34.308,4.948,5.769,8.232
2000,0.538,35.945,24.393,37.319,34.298,4.907,5.768,8.233
2001,0.505,36.117,24.416,37.386,34.315,5.15,5.931,8.477
2002,0.491,36.224,24.397,37.338,34.301,4.99,5.852,8.52
2003,0.498,36.321,24.291,37.348,34.308,5.029,5.891,8.683
2004,0.534,35.862,24.357,37.328,34.301,4.989,5.77,8.725
2005,0.557,35.982,24.393,37.328,34.301,4.948,5.809,8.929
2006,0.606,36.118,24.373,37.338,34.304,4.947,5.891,9.093
2007,0.645,36.157,24.428,37.319,34.305,4.947,5.77,9.298
2008,0.688,35.966,24.448,37.357,34.315,5.11,6.013,9.544
2009,0.721,36.117,24.425,37.338,34.308,5.03,5.893,9.71
2010,0.744,36.205,24.374,37.319,34.305,5.03,5.973,9.955
2011,0.747,36.264,24.42,37.357,34.305,5.03,5.893,10.08
2012,0.757,36.005,24.436,37.329,34.301,5.03,5.973,10.325
2013,0.78,36.166,24.354,37.328,34.301,4.989,5.893,10.408
2014,0.79,36.283,24.4,37.338,34.304,4.907,5.892,10.491
2015,0.842,36.591,24.377,37.338,34.308,5.15,6.095,10.817
2016,0.849,36.018,24.443,37.338,34.305,5.071,5.975,10.779
2017,0.846,36.147,24.436,37.328,34.305,4.989,5.893,10.86
2018,0.862,36.234,24.483,37.338,34.308,4.988,5.973,10.861
2019,0.849,35.938,24.366,37.3,34.298,4.866,5.933,10.82
2020,0.846,36.05,24.389,37.318,34.301,4.946,5.933,10.901
2021,0.853,36.138,24.416,37.299,34.301,4.907,5.852,10.78
2022,0.849,36.244,24.417,37.309,34.308,4.987,6.013,10.901
2023,0.84,35.842,24.413,37.309,34.301,4.948,6.015,10.78
2024,0.83,35.944,24.303,37.319,34.304,4.988,6.015,10.779
2025,0.823,36.117,24.271,37.338,34.305,4.948,6.015,10.82
2026,0.81,36.177,24.333,37.3,34.294,4.907,5.852,10.617
2027,0.813,35.889,24.381,37.318,34.308,4.947,5.932,10.655
2028,0.797,36.021,24.475,37.309,34.294,4.988,5.933,10.615
2029,0.794,36.118,24.409,37.299,34.301,4.907,5.974,10.574
2030,0.8,36.253,24.432,37.338,34.315,4.987,6.055,10.655
2031,0.79,35.919,24.401,37.309,34.301,4.988,5.975,10.574
2032,0.793,36.05,24.483,37.319,34.315,4.988,6.015,10.614
2033,0.8,36.176,24.445,37.319,34.301,4.866,5.934,10.452
2034,0.781,36.187,24.378,37.309,34.304,4.906,5.974,10.41
2035,0.8,35.832,24.338,37.309,34.305,4.906,5.974,10.328
2036,0.8,35.943,24.291,37.309,34.298,4.906,5.852,10.246
2037,0.813,36.108,24.353,37.338,34.315,5.069,6.135,10.408
2038,0.807,36.119,24.369,37.309,34.308,4.908,5.976,10.247
2039,0.81,35.966,24.432,37.309,34.301,4.987,5.974,10.164
2040,0.813,36.127,24.382,37.347,34.304,4.988,5.974,10.0
2041,0.816,36.186,24.393,37.281,34.294,4.948,5.974,9.917
2042,0.813,35.928,24.424,37.289,34.301,4.947,5.974,9.794
2043,0.807,35.849,24.463,37.299,34.301,4.866,5.933,9.753
2044,0.807,35.992,24.472,37.318,34.318,5.068,6.136,9.793
2045,0.797,36.089,24.374,37.299,34.308,4.948,6.057,9.631
2046,0.79,35.898,24.361,37.309,34.308,4.988,6.015,9.588
2047,0.803,36.03,24.369,37.309,34.308,5.029,6.137,9.547
2048,0.781,36.137,24.346,37.29,34.294,4.867,5.894,9.303
2049,0.787,36.225,24.439,37.28,34.308,4.987,6.054,9.26
2050,0.784,35.784,24.354,37.27,34.301,4.866,5.934,9.137
2051,0.771,35.914,24.396,37.309,34.304,5.028,6.096,9.258
2052,0.79,36.088,24.381,37.309,34.305,4.948,5.975,9.056
2053,0.79,36.109,24.447,37.299,34.301,4.947,6.096,9.054
2054,0.8,35.937,24.495,37.29,34.311,4.988,6.097,8.973
2055,0.807,36.069,24.456,37.28,34.298,4.826,5.935,8.728
2056,0.79,36.186,24.444,37.289,34.308,4.905,6.096,8.766
2057,0.8,36.235,24.358,37.299,34.301,4.865,6.016,8.645
2058,0.807,35.89,24.393,37.28,34.294,4.865,6.015,8.603
2059,0.833,36.059,24.401,37.318,34.318,5.068,6.015,8.643
2060,0.82,36.128,24.428,37.29,34.301,4.948,6.056,8.603
2061,0.82,36.186,24.346,37.299,34.301,4.988,6.137,8.44
2062,0.82,35.861,24.385,37.299,34.301,4.866,6.016,8.275
2063,0.813,35.982,24.408,37.27,34.308,4.987,6.015,8.274
2064,0.81,36.118,24.393,37.27,34.305,4.907,5.974,8.152
2065,0.797,36.042,24.459,37.261,34.298,4.865,5.974,8.15
2066,0.829,35.85,24.46,37.318,34.322,5.068,6.177,8.232
2067,0.804,35.982,24.429,37.271,34.301,4.989,6.057,8.111
2068,0.8,36.089,24.401,37.299,34.308,4.948,6.097,8.109
2069,0.816,35.898,24.409,37.299,34.311,4.988,6.056,7.947
2070,0.79,35.954,24.424,37.242,34.294,4.907,5.975,7.945
2071,0.79,36.108,24.432,37.27,34.304,4.947,5.974,7.823
2072,0.793,36.224,24.354,37.28,34.298,4.866,6.015,7.822
2073,0.81,35.784,24.357,37.28,34.315,4.987,6.137,7.944
2074,0.816,35.914,24.396,37.27,34.301,4.948,6.098,7.783
2075,0.82,36.04,24.416,37.28,34.308,4.988,6.097,7.7
2076,0.83,36.128,24.467,37.299,34.322,4.988,6.056,7.699
2077,0.82,35.755,24.452,37.232,34.294,4.866,5.934,7.536
2078,0.839,35.924,24.378,37.279,34.301,4.824,6.055,7.534
2079,0.846,36.031,24.42,37.251,34.291,4.865,5.934,7.453
2080,0.833,36.099,24.417,37.26,34.311,4.946,6.136,7.615
2081,0.852,35.898,24.44,37.27,34.305,4.947,6.057,7.454
2082,0.856,36.021,24.366,37.28,34.305,4.988,6.015,7.371
2083,0.853,36.147,24.4,37.28,34.308,5.029,5.974,7.37
2084,0.833,36.177,24.381,37.232,34.298,4.785,5.893,7.208
2085,0.839,35.861,24.412,37.251,34.308,4.946,5.973,7.287
2086,0.836,35.973,24.44,37.241,34.301,4.825,5.974,7.247
2087,0.833,36.07,24.44,37.251,34.301,4.905,6.055,7.288
2088,0.836,36.435,24.464,37.28,34.308,4.987,6.056,7.207
2089,0.833,35.93,24.386,37.251,34.301,4.907,6.056,7.247
2090,0.833,36.069,24.401,37.27,34.308,4.987,6.056,7.247
2091,0.843,36.166,24.432,37.27,34.298,4.866,5.934,7.084
2092,0.836,35.832,24.382,37.27,34.301,4.946,6.055,7.123
2093,0.833,35.857,24.369,37.241,34.301,4.866,5.975,7.043
2094,0.836,36.001,24.369,37.232,34.301,4.865,5.974,7.042
2095,0.865,36.127,24.432,37.279,34.318,4.987,6.096,7.123
2096,0.856,35.764,24.405,37.251,34.308,4.948,6.016,7.043
2097,0.866,35.895,24.44,37.241,34.301,4.947,6.056,7.082
2098,0.869,36.021,24.487,37.26,34.301,4.907,5.975,6.961
2099,0.859,36.099,24.441,37.318,34.304,4.906,6.055,6.919
2100,0.882,35.754,24.417,37.232,34.298,4.865,6.015,6.837
2101,0.895,35.856,24.417,37.203,34.294,4.824,5.934,6.837
2102,0.895,36.02,24.46,37.27,34.322,5.068,6.177,6.999
2103,0.889,36.08,24.374,37.222,34.305,4.867,5.976,6.879
2104,0.882,35.687,24.342,37.251,34.301,4.906,6.055,6.877
2105,0.876,35.865,24.396,37.232,34.308,4.906,6.097,6.877
2106,0.869,35.925,24.362,37.203,34.298,4.865,5.975,6.837
2107,0.876,36.002,24.416,37.222,34.297,4.865,5.933,6.755
2108,0.859,35.897,24.456,37.193,34.294,4.824,5.974,6.714
2109,0.872,36.088,24.44,37.241,34.322,5.068,6.137,6.916
2110,0.876,36.186,24.401,37.212,34.305,4.867,5.976,6.756
2111,0.872,36.225,24.389,37.212,34.308,4.946,5.974,6.795
2112,0.879,35.813,24.416,37.222,34.311,4.988,5.974,6.755
2113,0.882,35.915,24.44,37.174,34.294,4.907,5.933,6.714
2114,0.882,36.021,24.409,37.212,34.308,4.906,5.892,6.672
2115,0.892,35.878,24.292,37.203,34.294,4.865,5.892,6.672
2116,0.892,35.877,24.345,37.212,34.311,4.987,6.014,6.875
2117,0.925,36.021,24.318,37.183,34.301,4.907,5.893,6.755
2118,0.918,36.118,24.4,37.202,34.308,4.987,5.973,6.714
2119,0.925,35.841,24.452,37.193,34.308,4.988,6.015,6.713
2120,0.922,35.934,24.452,37.164,34.291,4.744,5.893,6.632
2121,0.925,36.088,24.421,37.183,34.301,4.823,5.892,6.59
2122,0.938,36.157,24.463,37.164,34.304,4.865,5.851,6.59
2123,0.935,35.784,24.522,37.154,34.298,4.865,5.973,6.712
2124,0.954,35.972,24.453,37.202,34.308,4.906,5.933,6.591
2125,0.932,36.06,24.417,37.202,34.308,4.906,5.974,6.671
2126,0.935,36.118,24.327,37.193,34.301,4.947,5.974,6.631
2127,0.935,35.688,24.369,37.164,34.294,4.825,5.852,6.509
2128,0.918,35.798,24.334,37.154,34.304,4.905,5.891,6.549
2129,0.931,35.943,24.451,37.154,34.298,4.865,5.851,6.508
2130,0.918,35.993,24.354,37.154,34.294,4.824,5.891,6.589
2131,0.925,35.667,24.408,37.202,34.311,5.068,6.054,6.671
2132,0.935,35.788,24.416,37.174,34.305,4.948,5.975,6.55
2133,0.945,35.905,24.46,37.183,34.311,4.947,5.974,6.549
2134,0.945,35.954,24.487,37.164,34.301,4.988,5.933,6.508
2135,0.958,35.743,24.445,37.135,34.301,4.907,5.892,6.467
2136,0.971,35.914,24.44,37.173,34.304,4.906,5.973,6.386
2137,0.964,36.011,24.366,37.145,34.301,4.784,5.852,6.344
2138,0.99,36.012,24.389,37.192,34.311,4.986,6.054,6.588
2139,0.997,35.801,24.42,37.154,34.308,4.866,5.934,6.509
2140,1.004,35.934,24.452,37.164,34.308,4.906,5.852,6.427
2141,1.014,36.021,24.366,37.173,34.305,4.906,5.973,6.466
2142,1.014,35.591,24.408,37.125,34.305,4.784,5.852,6.345
2143,1.014,35.673,24.436,37.144,34.305,4.864,5.891,6.343
2144,1.017,35.789,24.464,37.154,34.301,4.824,5.851,6.303
2145,1.007,35.886,24.491,37.154,34.298,4.905,5.851,6.465
2146,1.023,35.647,24.519,37.173,34.311,4.987,5.973,6.426
2147,1.023,35.759,24.48,37.145,34.305,4.948,5.933,6.344
