time,ecg,bvp,gsr,rsp,skt,emg_zygo,emg_coru,emg_trap
0,0.767,35.227,13.602,30.078,23.286,4.824,7.947,7.412
1,0.77,35.324,13.637,30.04,23.272,4.702,7.864,7.33
2,0.764,35.171,13.602,30.02,23.286,4.782,7.985,7.41
3,0.767,35.131,13.606,30.116,23.286,4.864,7.946,7.33
4,0.774,35.246,13.606,30.04,23.286,4.784,7.986,7.289
5,0.787,35.324,13.579,30.04,23.282,4.783,7.864,7.247
6,0.8,35.056,13.629,30.049,23.279,4.783,7.944,7.247
7,0.787,35.178,13.571,30.04,23.282,4.742,7.864,7.206
8,0.793,35.285,13.664,30.068,23.275,4.864,7.904,7.287
9,0.803,35.401,13.618,30.078,23.293,4.987,8.067,7.369
10,0.833,34.98,13.606,30.107,23.3,4.907,7.987,7.289
11,0.826,35.091,13.637,30.079,23.286,4.825,7.905,7.207
12,0.826,35.198,13.575,30.069,23.286,4.783,7.945,7.165
13,0.817,35.295,13.61,30.069,23.286,4.864,7.905,7.124
14,0.829,35.123,13.567,30.069,23.293,4.865,7.904,7.124
15,0.81,35.275,13.617,30.078,23.286,4.865,7.904,7.205
16,0.81,35.382,13.598,30.069,23.293,4.865,7.904,7.084
17,0.807,35.479,13.629,30.088,23.293,4.824,7.823,7.002
18,0.8,35.067,13.645,30.059,23.282,4.661,7.741,6.96
19,0.784,35.197,13.524,30.059,23.275,4.7,7.781,6.96
20,0.774,35.333,13.582,30.078,23.289,4.823,7.781,6.96
21,0.777,35.382,13.649,30.069,23.282,4.783,7.74,6.96
22,0.771,35.018,13.63,30.088,23.289,4.742,7.659,6.919
23,0.78,35.149,13.622,30.136,23.276,4.742,7.658,6.837
24,0.787,35.256,13.563,30.05,23.275,4.742,7.658,6.837
25,0.79,35.267,13.578,30.068,23.279,4.783,7.698,6.837
26,0.797,35.104,13.571,30.069,23.286,4.864,7.78,6.999
27,0.807,35.284,13.606,30.107,23.3,4.906,7.822,7.041
28,0.826,35.392,13.68,30.117,23.296,4.906,7.741,6.92
29,0.813,35.258,13.63,30.107,23.289,4.784,7.618,6.878
30,0.816,35.065,13.618,30.088,23.289,4.824,7.657,6.755
31,0.816,35.197,13.637,30.088,23.286,4.783,7.617,6.754
32,0.826,35.285,13.602,30.078,23.293,4.824,7.698,6.876
33,0.807,35.065,13.59,30.117,23.296,4.824,7.699,6.837
34,0.794,35.159,13.606,30.107,23.296,4.865,7.658,6.796
35,0.81,35.294,13.614,30.107,23.293,4.865,7.617,6.714
36,0.797,35.372,13.591,30.098,23.279,4.662,7.657,6.632
37,0.787,34.97,13.586,30.069,23.282,4.822,7.658,6.712
38,0.79,35.12,13.618,30.097,23.282,4.824,7.739,6.672
39,0.793,35.256,13.552,30.088,23.286,4.783,7.74,6.753
40,0.784,35.334,13.59,30.107,23.279,4.742,7.781,6.714
41,0.803,35.095,13.637,30.088,23.279,4.783,7.7,6.672
42,0.794,35.198,13.634,30.088,23.279,4.783,7.699,6.631
43,0.813,35.352,13.602,30.136,23.279,4.742,7.699,6.631
44,0.839,35.411,13.606,30.108,23.289,4.905,7.861,6.794
45,0.843,34.933,13.594,30.136,23.303,4.947,7.904,6.755
46,0.853,35.091,13.633,30.127,23.29,4.866,7.782,6.673
47,0.843,35.169,13.614,30.117,23.289,4.784,7.74,6.631
48,0.839,35.208,13.63,30.117,23.289,4.824,7.781,6.712
49,0.859,34.978,13.622,30.127,23.293,4.824,7.862,6.632
50,0.856,35.129,13.575,30.117,23.286,4.783,7.822,6.631
51,0.836,35.237,13.664,30.117,23.289,4.824,7.822,6.672
52,0.836,35.266,13.572,30.127,23.293,4.743,7.781,6.509
53,0.839,35.037,13.594,30.088,23.279,4.701,7.659,6.508
54,0.817,35.149,13.598,30.078,23.279,4.782,7.78,6.63
55,0.82,35.275,13.637,30.117,23.293,4.783,7.822,6.509
56,0.797,35.296,13.61,30.107,23.282,4.742,7.863,6.63
57,0.794,34.912,13.606,30.117,23.282,4.742,7.985,6.509
58,0.803,35.033,13.629,30.107,23.279,4.742,7.946,6.467
59,0.79,35.13,13.602,30.107,23.279,4.742,8.067,6.345
60,0.793,34.987,13.575,30.107,23.282,4.783,8.231,6.547
61,0.81,35.082,13.617,30.136,23.293,4.946,8.477,6.712
62,0.803,35.226,13.61,30.156,23.296,4.907,8.56,6.551
63,0.807,35.324,13.633,30.146,23.289,4.744,8.48,6.468
64,0.816,34.865,13.618,30.127,23.282,4.823,8.601,6.467
65,0.826,35.004,13.618,30.146,23.282,4.783,8.643,6.507
66,0.846,35.13,13.63,30.146,23.282,4.864,8.684,6.467
67,0.859,35.227,13.606,30.146,23.289,4.865,8.766,6.548
68,0.859,34.959,13.665,30.137,23.286,4.906,8.767,6.508
69,0.866,35.12,13.599,30.156,23.282,4.825,8.726,6.427
70,0.892,35.236,13.579,30.118,23.279,4.702,8.644,6.263
71,0.869,35.257,13.606,30.098,23.279,4.701,8.644,6.302
72,0.866,34.835,13.528,30.117,23.282,4.823,8.725,6.384
73,0.853,34.984,13.586,30.127,23.289,4.824,8.685,6.344
74,0.849,35.101,13.579,30.127,23.282,4.824,8.684,6.343
75,0.856,35.16,13.649,30.127,23.279,4.783,8.684,6.343
76,0.827,34.911,13.622,30.146,23.279,4.742,8.684,6.303
77,0.82,35.052,13.598,30.137,23.286,4.783,8.725,6.262
78,0.826,35.188,13.645,30.146,23.289,4.824,8.848,6.384
79,0.826,35.256,13.591,30.175,23.3,4.987,8.93,6.507
80,0.836,34.998,13.618,30.185,23.293,4.866,8.85,6.305
81,0.81,35.091,13.622,30.156,23.286,4.865,8.808,6.302
82,0.807,35.188,13.622,30.165,23.289,4.865,8.808,6.343
83,0.833,35.477,13.614,30.165,23.289,4.824,8.848,6.343
84,0.846,34.972,13.555,30.156,23.293,4.865,8.849,6.303
85,0.846,35.091,13.629,30.175,23.293,4.906,8.808,6.302
86,0.862,35.207,13.618,30.146,23.282,4.825,8.767,6.221
87,0.875,34.892,13.641,30.165,23.286,4.783,8.645,6.22
88,0.879,34.889,13.649,30.118,23.275,4.702,8.603,6.18
89,0.863,35.033,13.587,30.155,23.282,4.823,8.684,6.22
90,0.882,35.149,13.579,30.156,23.282,4.865,8.684,6.342
91,0.889,34.891,13.637,30.146,23.286,4.865,8.644,6.262
92,0.889,35.023,13.606,30.156,23.282,4.784,8.562,6.18
93,0.879,35.149,13.567,30.156,23.279,4.783,8.561,6.22
94,0.885,35.237,13.567,30.156,23.282,4.783,8.602,6.18
95,0.889,34.825,13.61,30.137,23.282,4.824,8.521,6.301
96,0.879,34.994,13.602,30.184,23.303,4.946,8.601,6.384
97,0.889,35.158,13.598,30.214,23.3,4.907,8.602,6.263
98,0.882,35.198,13.649,30.166,23.289,4.825,8.44,6.221
99,0.885,34.873,13.56,30.165,23.286,4.865,8.479,6.22
100,0.889,35.052,13.606,30.185,23.286,4.824,8.357,6.261
101,0.889,35.149,13.626,30.166,23.286,4.865,8.356,6.221
102,0.885,35.218,13.637,30.185,23.296,4.784,8.315,6.342
103,0.895,34.863,13.622,30.252,23.293,4.905,8.315,6.221
104,0.902,34.994,13.591,30.176,23.282,4.784,8.274,6.22
105,0.895,35.082,13.614,30.166,23.275,4.742,8.111,6.058
106,0.899,35.102,13.575,30.156,23.279,4.742,8.191,6.219
107,0.925,34.996,13.598,30.175,23.282,4.864,8.192,6.18
108,0.922,35.111,13.622,30.185,23.286,4.824,8.11,6.179
109,0.922,35.217,13.653,30.166,23.282,4.783,7.987,6.179
110,0.938,35.506,13.61,30.175,23.279,4.783,7.946,6.098
111,0.945,34.905,13.633,30.156,23.279,4.742,7.945,6.138
112,0.938,35.042,13.583,30.165,23.289,4.783,7.986,6.219
113,0.945,35.178,13.614,30.194,23.296,4.905,8.108,6.261
114,0.948,34.988,13.579,30.214,23.296,4.947,8.028,6.221
115,0.938,34.986,13.633,30.195,23.286,4.825,7.946,6.22
116,0.932,35.11,13.591,30.195,23.282,4.824,7.864,6.22
117,0.925,35.217,13.602,30.195,23.286,4.824,7.944,6.22
118,0.935,34.835,13.641,30.185,23.289,4.824,7.823,6.261
119,0.938,34.975,13.552,30.214,23.293,4.865,7.781,6.302
120,0.932,35.129,13.594,30.204,23.289,4.865,7.822,6.221
121,0.931,35.208,13.657,30.195,23.289,4.824,7.741,6.139
122,0.935,34.998,13.603,30.175,23.279,4.702,7.618,6.138
123,0.945,35.149,13.618,30.156,23.282,4.823,7.698,6.138
124,0.961,35.285,13.591,30.194,23.286,4.783,7.74,6.138
125,0.955,35.344,13.582,30.195,23.286,4.783,7.618,6.179
126,0.954,34.961,13.621,30.185,23.282,4.742,7.698,6.179
127,0.974,35.11,13.575,30.185,23.279,4.701,7.658,6.139
128,0.994,35.217,13.633,30.185,23.279,4.742,7.617,6.098
129,0.994,35.285,13.591,30.252,23.282,4.783,7.698,6.178
130,1.01,35.065,13.606,30.205,23.293,4.864,7.78,6.22
131,1.02,35.217,13.672,30.223,23.296,4.906,7.862,6.261
132,1.02,35.333,13.63,30.224,23.286,4.825,7.741,6.139
133,1.004,35.344,13.63,30.224,23.286,4.743,7.74,6.179
134,1.007,35.162,13.598,30.195,23.282,4.783,7.781,6.057
135,1.014,35.304,13.614,30.185,23.289,4.824,7.781,6.178
136,1.004,35.42,13.591,30.204,23.289,4.824,7.862,6.179
137,1.004,35.441,13.614,30.204,23.293,4.865,7.782,6.22
138,0.997,35.23,13.61,30.214,23.293,4.865,7.781,6.18
139,1.0,35.362,13.571,30.204,23.293,4.824,7.7,6.057
140,0.987,35.469,13.614,30.204,23.276,4.743,7.699,5.975
141,0.981,35.297,13.614,30.175,23.282,4.783,7.699,6.096
142,0.987,35.315,13.63,30.204,23.286,4.824,7.74,6.097
143,0.997,35.449,13.587,30.214,23.282,4.783,7.74,6.138
144,1.01,35.547,13.563,30.195,23.286,4.783,7.699,6.057
145,1.017,35.308,13.598,30.204,23.282,4.742,7.699,6.056
146,1.027,35.42,13.571,30.185,23.282,4.742,7.699,6.015
147,1.03,35.556,13.602,30.204,23.286,4.823,7.78,6.056
148,1.037,35.653,13.61,30.214,23.293,4.905,7.862,6.219
149,1.066,35.434,13.633,30.233,23.3,4.987,7.863,6.139
150,1.076,35.556,13.606,30.214,23.293,4.826,7.741,6.016
151,1.079,35.634,13.649,30.204,23.282,4.905,7.74,6.096
152,1.096,35.731,13.614,30.223,23.293,4.906,7.699,6.138
153,1.096,35.53,13.594,30.224,23.286,4.865,7.699,6.098
154,1.07,35.672,13.606,30.224,23.289,4.906,7.74,6.097
155,1.056,35.798,13.649,30.224,23.293,4.947,7.659,6.097
156,1.066,35.857,13.603,30.224,23.289,4.825,7.617,6.056
157,1.063,35.637,13.618,30.204,23.282,4.661,7.495,5.893
158,1.05,35.74,13.63,30.195,23.279,4.7,7.575,6.095
159,1.05,35.885,13.61,30.204,23.286,4.782,7.616,6.016
160,1.05,35.954,13.598,30.214,23.289,4.824,7.535,5.974
161,1.04,35.753,13.618,30.214,23.286,4.824,7.575,5.974
162,1.037,35.866,13.594,30.214,23.282,4.783,7.535,5.974
163,1.043,36.001,13.555,30.214,23.286,4.742,7.494,5.933
164,1.069,35.984,13.582,30.204,23.282,4.783,7.575,6.055
165,1.06,36.07,13.672,30.223,23.289,4.946,7.698,6.137
166,1.076,36.214,13.657,30.262,23.3,4.907,7.78,6.057
167,1.096,36.34,13.626,30.234,23.289,4.784,7.618,6.015
168,1.106,36.064,13.641,30.233,23.282,4.864,7.535,6.056
169,1.089,35.965,13.638,30.233,23.289,4.865,7.697,6.056
170,1.102,36.07,13.61,30.233,23.293,4.824,7.618,6.015
171,1.099,36.166,13.637,30.233,23.293,4.824,7.698,5.974
172,1.089,36.235,13.606,30.252,23.293,4.905,7.699,6.096
173,1.102,36.35,13.59,30.233,23.293,4.865,7.78,6.016
174,1.089,36.476,13.598,30.224,23.286,4.784,7.7,5.934
175,1.076,36.525,13.618,30.214,23.275,4.742,7.658,5.974
176,1.073,36.181,13.579,30.223,23.289,4.823,7.78,6.015
177,1.083,36.321,13.625,30.233,23.286,4.783,7.822,5.934
178,1.079,36.447,13.645,30.243,23.286,4.864,7.822,5.974
179,1.086,36.506,13.653,30.291,23.286,4.784,7.903,5.933
180,1.076,36.382,13.564,30.224,23.286,4.824,7.863,5.892
181,1.063,36.505,13.641,30.224,23.282,4.783,7.904,5.973
182,1.063,36.621,13.583,30.243,23.286,4.824,8.026,6.055
183,1.082,36.738,13.594,30.272,23.303,4.946,8.068,6.097
184,1.092,36.672,13.618,30.253,23.3,4.785,8.028,6.016
185,1.079,36.786,13.575,30.253,23.289,4.864,7.865,5.934
186,1.089,36.883,13.61,30.243,23.293,4.906,8.026,6.096
187,1.083,36.951,13.614,30.252,23.289,4.784,8.068,6.016
188,1.083,36.636,13.653,30.262,23.293,4.864,8.028,6.015
189,1.109,36.767,13.638,30.272,23.293,4.906,8.068,6.056
190,1.112,36.883,13.614,30.243,23.296,4.906,8.069,6.015
191,1.112,36.913,13.649,30.252,23.283,4.865,7.987,5.934
192,1.102,36.817,13.552,30.233,23.282,4.702,7.864,5.892
193,1.073,36.941,13.574,30.224,23.282,4.823,7.944,6.014
194,1.073,37.067,13.582,30.262,23.282,4.824,8.026,6.056
195,1.069,36.982,13.59,30.262,23.289,4.865,8.027,6.015
196,1.047,36.847,13.598,30.234,23.282,4.743,8.068,5.934
197,1.024,36.98,13.575,30.233,23.282,4.783,8.069,5.974
198,1.01,37.077,13.645,30.252,23.282,4.742,8.109,6.015
199,0.997,37.011,13.638,30.262,23.282,4.823,8.15,6.096
200,0.981,37.154,13.579,30.281,23.293,4.946,8.354,6.219
201,0.984,37.29,13.66,30.301,23.3,4.947,8.315,6.139
202,0.965,37.358,13.63,30.272,23.289,4.825,8.274,6.098
203,0.951,36.994,13.638,30.253,23.286,4.824,8.274,6.056
204,0.967,37.125,13.606,30.262,23.293,4.824,8.314,6.056
205,0.958,37.232,13.61,30.262,23.293,4.824,8.356,6.097
206,0.968,37.329,13.571,30.272,23.293,4.824,8.315,6.178
207,0.964,37.176,13.586,30.272,23.293,4.824,8.396,6.139
208,0.964,37.299,13.637,30.272,23.289,4.824,8.316,6.057
209,0.961,37.397,13.63,30.243,23.272,4.743,8.193,6.056
210,0.971,37.465,13.571,30.243,23.282,4.864,8.314,6.097
211,0.945,37.235,13.645,30.252,23.289,4.824,8.274,6.097
212,0.935,37.367,13.571,30.262,23.282,4.783,8.355,6.097
213,0.928,37.474,13.614,30.262,23.286,4.783,8.234,6.056
214,0.899,37.513,13.579,30.243,23.286,4.742,8.233,6.015
215,0.895,37.217,13.598,30.243,23.279,4.742,8.151,5.974
216,0.886,37.348,13.606,30.262,23.279,4.783,8.191,6.137
217,0.879,37.483,13.598,30.301,23.296,4.905,8.395,6.179
218,0.879,37.533,13.645,30.301,23.296,4.947,8.275,6.098
219,0.882,37.38,13.599,30.291,23.276,4.785,8.152,6.097
220,0.853,37.474,13.583,30.282,23.286,4.742,8.191,6.178
221,0.846,37.571,13.629,30.282,23.286,4.783,8.192,6.139
222,0.836,37.658,13.602,30.291,23.282,4.864,8.232,6.138
223,0.849,37.467,13.622,30.291,23.289,4.865,8.192,6.138
224,0.853,37.571,13.602,30.282,23.289,4.865,8.11,6.179
225,0.853,37.687,13.637,30.282,23.293,4.865,8.109,6.139
226,0.849,37.353,13.634,30.262,23.286,4.702,7.906,5.976
227,0.833,37.407,13.579,30.262,23.279,4.701,7.985,6.015
228,0.823,37.532,13.657,30.281,23.289,4.782,8.027,6.056
229,0.82,37.648,13.61,30.282,23.282,4.742,7.987,6.137
230,0.823,37.256,13.563,30.272,23.293,4.783,7.946,6.098
231,0.826,37.358,13.633,30.262,23.286,4.702,7.905,6.097
232,0.813,37.493,13.583,30.272,23.282,4.701,7.863,6.138
233,0.8,37.571,13.621,30.262,23.275,4.742,7.822,6.098
234,0.781,37.323,13.579,30.262,23.286,4.823,7.863,6.219
235,0.797,37.502,13.68,30.301,23.296,4.905,8.026,6.342
236,0.794,37.629,13.63,30.311,23.296,4.825,7.905,6.14
237,0.787,37.668,13.618,30.282,23.293,4.743,7.863,6.219
238,0.774,37.496,13.637,30.291,23.289,4.823,7.863,6.22
239,0.774,37.648,13.591,30.358,23.289,4.783,7.863,6.18
240,0.748,37.745,13.59,30.302,23.293,4.783,7.822,6.301
241,0.76,37.794,13.645,30.32,23.296,4.824,7.822,6.262
242,0.754,37.421,13.606,30.292,23.289,4.865,7.822,6.302
243,0.767,37.57,13.583,30.301,23.289,4.743,7.863,6.221
244,0.764,37.658,13.586,30.263,23.279,4.661,7.66,6.139
245,0.741,37.659,13.598,30.272,23.272,4.782,7.78,6.219
246,0.757,37.41,13.606,30.291,23.293,4.783,7.781,6.22
247,0.754,37.532,13.606,30.291,23.286,4.742,7.781,6.22
248,0.757,37.639,13.645,30.291,23.282,4.661,7.74,6.22
249,0.757,37.889,13.606,30.301,23.286,4.66,7.699,6.18
250,0.783,37.575,13.61,30.282,23.279,4.7,7.658,6.098
251,0.774,37.677,13.618,30.291,23.282,4.742,7.739,6.178
252,0.777,37.803,13.641,30.31,23.296,4.864,7.943,6.383
253,0.777,37.536,13.61,30.32,23.3,4.865,7.783,6.303
254,0.761,37.552,13.626,30.311,23.286,4.784,7.7,6.221
255,0.757,37.677,13.63,30.301,23.293,4.824,7.658,6.302
256,0.738,37.765,13.626,30.291,23.289,4.865,7.698,6.221
257,0.728,37.42,13.618,30.301,23.286,4.824,7.74,6.302
258,0.741,37.561,13.641,30.291,23.293,4.824,7.781,6.302
259,0.738,37.696,13.642,30.291,23.293,4.865,7.7,6.302
260,0.738,37.755,13.571,30.31,23.286,4.702,7.536,6.18
261,0.708,37.813,13.629,30.282,23.282,4.701,7.534,6.179
262,0.702,37.929,13.559,30.301,23.279,4.782,7.616,6.261
263,0.721,38.084,13.609,30.291,23.279,4.783,7.698,6.221
264,0.731,38.152,13.579,30.301,23.286,4.742,7.658,6.261
265,0.747,37.204,13.614,30.301,23.286,4.742,7.698,6.139
266,0.754,37.309,13.598,30.301,23.282,4.823,7.658,6.138
267,0.761,37.454,13.594,30.301,23.282,4.661,7.658,6.138
268,0.761,37.494,13.637,30.311,23.286,4.782,7.739,6.301
269,0.761,37.494,13.622,30.33,23.293,4.946,7.862,6.343
270,0.767,37.638,13.606,30.34,23.3,4.947,7.904,6.303
271,0.777,37.736,13.653,30.321,23.289,4.785,7.823,6.262
272,0.774,37.737,13.575,30.33,23.286,4.864,7.863,6.139
273,0.771,37.468,13.598,30.32,23.282,4.743,7.863,6.179
274,0.77,37.609,13.602,30.32,23.289,4.823,7.863,6.22
275,0.764,37.697,13.629,30.34,23.286,4.865,7.985,6.22
276,0.751,37.928,13.626,30.321,23.293,4.824,8.068,6.22
277,0.748,37.499,13.575,30.34,23.286,4.824,8.109,6.22
278,0.741,37.6,13.656,30.311,23.282,4.743,8.028,6.058
279,0.728,37.668,13.564,30.291,23.275,4.742,8.109,6.178
280,0.725,37.458,13.578,30.32,23.282,4.823,8.109,6.22
281,0.721,37.465,13.617,30.33,23.289,4.783,8.15,6.18
282,0.711,37.571,13.594,30.311,23.282,4.742,8.11,6.139
283,0.708,37.677,13.61,30.32,23.286,4.742,8.109,6.138
284,0.728,37.333,13.559,30.301,23.279,4.742,8.15,6.098
285,0.731,37.416,13.609,30.301,23.279,4.783,8.232,6.178
286,0.747,37.57,13.606,30.339,23.3,4.824,8.314,6.301
287,0.757,37.687,13.59,30.359,23.3,4.905,8.315,6.262
288,0.774,37.391,13.668,30.34,23.289,4.744,8.193,6.221
289,0.754,37.493,13.611,30.33,23.289,4.783,8.232,6.22
290,0.764,37.619,13.606,30.33,23.289,4.783,8.273,6.22
291,0.77,37.697,13.629,30.33,23.289,4.864,8.396,6.18
292,0.774,37.353,13.556,30.34,23.293,4.865,8.397,6.179
293,0.748,37.483,13.629,30.34,23.289,4.865,8.397,6.139
294,0.747,37.6,13.602,30.349,23.293,4.824,8.397,6.138
295,0.744,37.639,13.668,30.321,23.276,4.743,8.275,6.057
296,0.725,37.419,13.583,30.311,23.282,4.783,8.314,6.137
297,0.718,37.561,13.614,30.32,23.289,4.824,8.437,6.138
298,0.715,37.677,13.649,30.32,23.282,4.743,8.357,6.138
299,0.734,37.707,13.622,30.32,23.286,4.742,8.356,6.057
300,0.718,37.468,13.583,30.34,23.289,4.783,8.315,6.097
301,0.721,37.58,13.598,30.33,23.276,4.702,8.356,6.056
302,0.708,37.658,13.579,30.32,23.282,4.782,8.356,6.097
303,0.721,37.717,13.637,30.359,23.296,4.824,8.397,6.219
304,0.731,37.343,13.63,30.397,23.293,5.027,8.478,6.22
305,0.757,37.445,13.661,30.359,23.289,4.826,8.276,6.058
306,0.757,37.532,13.583,30.359,23.289,4.743,8.355,6.137
307,0.757,37.495,13.621,30.359,23.289,4.823,8.275,6.179
308,0.777,37.504,13.645,30.359,23.293,4.824,8.274,6.179
309,0.787,37.658,13.622,30.359,23.293,4.824,8.152,6.22
310,0.787,37.736,13.598,30.359,23.286,4.905,8.232,6.18
311,0.793,37.257,13.606,30.378,23.296,4.825,8.111,6.098
312,0.784,37.348,13.571,30.359,23.286,4.743,7.987,6.016
313,0.774,37.445,13.563,30.33,23.279,4.661,7.946,6.015
314,0.754,37.523,13.629,30.34,23.286,4.741,7.986,6.096
315,0.757,37.389,13.677,30.359,23.289,4.701,7.986,6.097
316,0.761,37.503,13.642,30.359,23.286,4.782,7.986,6.097
317,0.744,37.638,13.622,30.34,23.282,4.702,7.986,6.016
318,0.747,37.716,13.614,30.34,23.279,4.701,7.864,6.015
319,0.734,37.334,13.594,30.368,23.282,4.701,7.822,6.056
320,0.718,37.483,13.594,30.34,23.282,4.701,7.822,6.056
321,0.721,37.6,13.629,30.359,23.3,4.904,7.944,6.178
322,0.741,37.687,13.598,30.407,23.296,4.947,7.945,6.179
323,0.751,37.305,13.614,30.388,23.286,4.825,7.823,6.098
324,0.744,37.406,13.598,30.369,23.293,4.824,7.741,6.016
325,0.741,37.522,13.594,30.369,23.286,4.783,7.699,6.096
326,0.76,37.562,13.625,30.378,23.282,4.702,7.74,6.097
327,0.77,37.447,13.634,30.359,23.286,4.823,7.699,6.138
328,0.767,37.58,13.641,30.369,23.296,4.824,7.74,6.098
329,0.777,37.687,13.642,30.369,23.289,4.865,7.699,6.097
330,0.784,37.707,13.583,30.378,23.286,4.743,7.618,5.894
331,0.774,37.286,13.625,30.34,23.279,4.661,7.495,5.892
332,0.78,37.396,13.536,30.349,23.286,4.741,7.616,6.014
333,0.777,37.513,13.613,30.359,23.279,4.823,7.495,6.056
334,0.777,37.485,13.591,30.378,23.293,4.702,7.534,5.975
335,0.777,37.456,13.606,30.359,23.289,4.742,7.534,6.015
336,0.771,37.571,13.622,30.369,23.279,4.742,7.494,5.974
337,0.77,37.687,13.595,30.35,23.279,4.742,7.453,5.933
338,0.751,37.257,13.629,30.34,23.279,4.701,7.493,5.933
339,0.735,37.358,13.513,30.359,23.286,4.823,7.697,6.096
340,0.738,37.522,13.586,30.388,23.3,4.905,7.699,6.097
341,0.744,37.61,13.621,30.417,23.296,4.825,7.618,6.016
342,0.728,37.323,13.606,30.379,23.289,4.743,7.576,5.974
343,0.728,37.464,13.602,30.378,23.286,4.823,7.575,5.974
344,0.744,37.561,13.579,30.369,23.286,4.865,7.575,6.055
345,0.744,37.639,13.606,30.397,23.286,4.824,7.616,6.015
346,0.76,37.294,13.633,30.369,23.293,4.743,7.698,6.056
347,0.767,37.444,13.591,30.388,23.293,4.823,7.658,6.015
348,0.783,37.542,13.653,30.398,23.286,4.783,7.617,5.974
349,0.787,37.591,13.599,30.369,23.279,4.661,7.495,5.893
350,0.787,37.284,13.614,30.35,23.282,4.66,7.616,6.014
351,0.777,37.425,13.618,30.369,23.289,4.782,7.617,5.934
352,0.793,37.551,13.641,30.426,23.286,4.783,7.657,5.933
353,0.784,37.61,13.583,30.36,23.282,4.742,7.658,5.974
354,0.767,37.333,13.578,30.378,23.282,4.661,7.617,5.893
355,0.754,37.445,13.668,30.369,23.282,4.7,7.535,5.933
356,0.738,37.551,13.599,30.378,23.286,4.823,7.616,5.974
357,0.741,37.6,13.61,30.398,23.293,4.905,7.739,6.055
358,0.751,37.294,13.637,30.427,23.307,4.947,7.699,6.097
359,0.744,37.416,13.622,30.398,23.293,4.825,7.658,6.016
360,0.725,37.484,13.595,30.398,23.286,4.783,7.658,5.974
361,0.724,37.456,13.653,30.398,23.289,4.783,7.658,6.055
362,0.724,37.341,13.567,30.398,23.293,4.824,7.658,6.015
363,0.731,37.474,13.59,30.388,23.293,4.824,7.658,6.015
364,0.728,37.561,13.602,30.398,23.293,4.824,7.698,6.015
365,0.728,37.255,13.668,30.417,23.289,4.824,7.618,6.015
366,0.734,37.348,13.587,30.398,23.286,4.743,7.576,5.893
367,0.734,37.445,13.571,30.388,23.279,4.661,7.575,5.933
368,0.738,37.513,13.614,30.388,23.275,4.741,7.657,5.974
369,0.76,37.178,13.614,30.379,23.286,4.823,7.739,6.055
370,0.774,37.309,13.602,30.388,23.289,4.743,7.699,5.975
371,0.777,37.416,13.606,30.388,23.286,4.742,7.78,5.893
372,0.787,37.484,13.555,30.388,23.279,4.742,7.781,5.892
373,0.777,37.302,13.574,30.379,23.282,4.701,7.822,5.973
374,0.771,37.445,13.617,30.398,23.286,4.782,7.822,5.974
375,0.777,37.571,13.657,30.417,23.303,4.905,7.985,6.096
376,0.777,37.668,13.61,30.427,23.293,4.906,7.946,6.016
377,0.741,37.17,13.622,30.408,23.289,4.825,7.945,5.974
378,0.721,37.299,13.622,30.417,23.286,4.824,7.945,5.933
379,0.731,37.435,13.587,30.455,23.286,4.824,7.945,5.974
380,0.721,37.494,13.598,30.427,23.296,4.865,7.945,5.974
381,0.721,37.264,13.676,30.427,23.289,4.824,7.945,6.015
382,0.715,37.396,13.599,30.446,23.293,4.824,7.945,6.015
383,0.721,37.503,13.602,30.417,23.286,4.702,7.864,5.934
384,0.715,37.514,13.559,30.379,23.279,4.62,7.7,5.892
385,0.728,37.207,13.621,30.398,23.286,4.741,7.902,5.933
386,0.744,37.338,13.595,30.417,23.293,4.701,7.863,6.014
387,0.751,37.464,13.61,30.417,23.286,4.782,7.782,5.934
388,0.774,37.456,13.641,30.408,23.289,4.783,7.822,5.974
389,0.767,37.245,13.595,30.417,23.282,4.742,7.822,5.974
390,0.761,37.348,13.583,30.398,23.279,4.742,7.822,5.974
391,0.761,37.435,13.618,30.407,23.282,4.783,7.944,6.015
392,0.767,37.168,13.591,30.455,23.293,4.905,8.026,6.096
393,0.754,37.28,13.622,30.456,23.3,4.906,8.027,6.056
394,0.754,37.377,13.602,30.427,23.289,4.865,8.068,6.097
395,0.748,37.455,13.653,30.427,23.282,4.824,8.15,6.056
396,0.734,37.158,13.591,30.427,23.286,4.783,8.191,6.056
397,0.744,37.309,13.602,30.427,23.286,4.824,8.232,6.056
398,0.738,37.435,13.614,30.436,23.282,4.824,8.395,6.056
399,0.741,37.513,13.614,30.437,23.289,4.824,8.397,6.056
400,0.725,37.034,13.587,30.446,23.289,4.783,8.438,6.056
401,0.718,37.145,13.621,30.398,23.279,4.661,8.357,5.893
402,0.708,37.261,13.587,30.398,23.286,4.741,8.478,6.014
403,0.724,37.339,13.586,30.427,23.286,4.823,8.601,6.015
404,0.734,37.167,13.59,30.427,23.282,4.783,8.643,5.974
405,0.744,37.328,13.625,30.417,23.282,4.742,8.765,5.974
406,0.747,37.426,13.63,30.417,23.279,4.783,8.807,5.933
407,0.744,37.455,13.63,30.398,23.282,4.702,8.848,5.974
408,0.741,37.082,13.653,30.417,23.286,4.742,8.93,6.015
409,0.747,37.222,13.634,30.455,23.293,4.905,9.175,6.137
410,0.76,37.367,13.614,30.456,23.303,4.906,9.218,5.976
411,0.748,37.368,13.63,30.437,23.29,4.784,9.218,5.974
412,0.747,37.177,13.583,30.456,23.289,4.824,9.259,6.055
413,0.734,37.299,13.555,30.446,23.293,4.783,9.341,6.056
414,0.725,37.368,13.57,30.446,23.289,4.824,9.382,6.015
415,0.724,37.599,13.66,30.456,23.289,4.824,9.342,5.974
416,0.721,37.112,13.626,30.427,23.293,4.824,9.342,6.015
417,0.721,37.232,13.641,30.446,23.286,4.783,9.301,5.934
418,0.718,37.31,13.63,30.417,23.275,4.783,9.138,5.892
419,0.708,37.109,13.622,30.475,23.279,4.783,9.258,5.933
420,0.705,37.193,13.536,30.437,23.293,4.742,9.3,5.892
421,0.715,37.3,13.633,30.427,23.289,4.742,9.219,5.933
422,0.705,37.406,13.579,30.417,23.282,4.783,9.137,5.974
423,0.718,37.014,13.567,30.417,23.275,4.742,9.055,5.893
424,0.731,37.135,13.551,30.417,23.286,4.701,9.013,5.973
425,0.731,37.251,13.586,30.417,23.282,4.782,9.135,5.974
426,0.734,37.339,13.614,30.446,23.296,4.864,9.177,6.055
427,0.744,37.013,13.591,30.465,23.296,4.946,9.055,6.015
428,0.757,37.135,13.664,30.446,23.296,4.785,8.891,5.934
429,0.748,37.222,13.638,30.427,23.286,4.783,8.89,6.014
430,0.744,37.31,13.583,30.427,23.289,4.783,8.809,5.934
431,0.734,37.061,13.653,30.427,23.286,4.783,8.808,5.933
432,0.725,37.202,13.552,30.436,23.289,4.824,8.808,5.933
433,0.721,37.328,13.578,30.437,23.286,4.824,8.726,5.974
434,0.728,37.387,13.575,30.456,23.289,4.743,8.685,5.974
435,0.721,37.129,13.617,30.427,23.282,4.742,8.481,5.852
436,0.708,37.261,13.575,30.417,23.282,4.701,8.398,5.769
437,0.705,37.339,13.567,30.417,23.286,4.742,8.519,5.972
438,0.711,37.397,13.656,30.427,23.289,4.783,8.601,5.933
439,0.711,36.937,13.56,30.446,23.286,4.742,8.643,5.933
440,0.685,37.029,13.582,30.427,23.282,4.742,8.603,5.974
441,0.688,37.125,13.645,30.417,23.279,4.742,8.684,5.852
442,0.682,37.51,13.571,30.427,23.275,4.742,8.766,5.891
443,0.695,37.236,13.602,30.436,23.282,4.783,8.807,5.973
444,0.714,37.386,13.583,30.475,23.3,4.946,8.97,6.096
445,0.731,37.503,13.621,30.466,23.293,4.866,8.972,5.975
446,0.738,37.082,13.602,30.456,23.293,4.784,9.013,5.974
447,0.734,37.04,13.61,30.437,23.286,4.783,9.013,6.015
448,0.734,37.164,13.645,30.437,23.293,4.824,9.013,5.974
449,0.731,37.28,13.606,30.456,23.286,4.783,9.094,5.974
450,0.744,36.955,13.606,30.437,23.286,4.824,9.095,5.974
451,0.738,37.096,13.68,30.456,23.293,4.824,9.014,6.015
452,0.718,37.212,13.583,30.446,23.282,4.824,8.972,5.893
453,0.705,37.281,13.602,30.408,23.279,4.743,8.85,5.811
454,0.689,37.022,13.571,30.427,23.289,4.783,8.971,5.932
455,0.692,37.173,13.629,30.436,23.286,4.742,8.931,5.974
456,0.685,37.299,13.587,30.437,23.279,4.783,8.931,5.933
457,0.688,37.368,13.579,30.437,23.279,4.742,8.809,5.852
458,0.685,37.014,13.621,30.427,23.282,4.742,8.808,5.891
459,0.685,37.164,13.602,30.417,23.286,4.701,8.808,5.892
460,0.679,37.28,13.583,30.446,23.282,4.742,8.97,6.014
461,0.682,37.348,13.629,30.475,23.293,4.905,9.175,6.096
462,0.688,37.061,13.567,30.475,23.3,4.906,9.055,5.894
463,0.672,37.183,13.586,30.446,23.283,4.825,9.176,5.973
464,0.675,37.271,13.59,30.446,23.286,4.783,9.259,5.893
465,0.675,37.32,13.618,30.446,23.286,4.783,9.3,5.933
466,0.701,37.08,13.63,30.475,23.286,4.824,9.382,5.933
467,0.714,37.193,13.61,30.456,23.286,4.865,9.464,5.933
468,0.711,37.309,13.657,30.446,23.286,4.824,9.505,5.892
469,0.718,37.33,13.587,30.446,23.286,4.743,9.425,5.892
470,0.718,37.071,13.606,30.427,23.279,4.661,9.383,5.811
471,0.708,37.174,13.614,30.446,23.289,4.782,9.423,5.972
472,0.715,37.299,13.555,30.446,23.289,4.742,9.505,5.933
473,0.708,37.061,13.613,30.446,23.282,4.742,9.465,5.933
474,0.692,37.02,13.587,30.446,23.282,4.742,9.383,5.974
475,0.688,37.125,13.645,30.446,23.282,4.701,9.301,5.933
476,0.685,37.222,13.61,30.437,23.275,4.66,9.423,5.892
477,0.685,37.012,13.63,30.437,23.282,4.782,9.505,5.973
478,0.685,37.135,13.602,30.456,23.293,4.905,9.546,6.177
479,0.711,37.299,13.641,30.485,23.293,4.865,9.547,6.017
480,0.695,37.349,13.575,30.456,23.282,4.784,9.506,6.015
481,0.688,37.09,13.621,30.456,23.293,4.824,9.587,5.893
482,0.685,37.26,13.567,30.475,23.293,4.783,9.507,5.973
483,0.695,37.377,13.574,30.456,23.286,4.783,9.506,6.015
484,0.724,37.445,13.582,30.465,23.289,4.864,9.546,5.974
485,0.728,36.909,13.637,30.466,23.286,4.784,9.588,5.974
486,0.721,37.057,13.61,30.475,23.282,4.824,9.547,5.974
487,0.721,37.164,13.606,30.437,23.279,4.661,9.425,5.852
488,0.708,37.194,13.629,30.437,23.279,4.7,9.546,5.973
489,0.715,37.05,13.63,30.456,23.282,4.742,9.547,6.055
490,0.721,37.183,13.583,30.446,23.286,4.742,9.506,5.893
491,0.715,37.28,13.649,30.456,23.282,4.701,9.465,5.892
492,0.728,37.358,13.614,30.475,23.279,4.742,9.465,5.933
493,0.702,37.033,13.587,30.456,23.279,4.742,9.424,5.933
494,0.695,37.154,13.629,30.456,23.275,4.742,9.383,5.974
495,0.688,37.27,13.669,30.475,23.289,4.864,9.505,6.137
496,0.688,37.32,13.646,30.485,23.293,4.987,9.506,6.098
497,0.692,37.119,13.626,30.485,23.286,4.826,9.425,6.056
498,0.685,37.203,13.653,30.475,23.286,4.824,9.424,6.015
499,0.685,37.319,13.607,30.485,23.293,4.783,9.424,6.056
500,0.669,37.128,13.571,30.466,23.289,4.742,9.424,6.097
501,0.672,37.05,13.649,30.456,23.289,4.783,9.464,6.016
502,0.669,37.174,13.552,30.475,23.296,4.824,9.343,6.056
503,0.685,37.271,13.566,30.485,23.293,4.824,9.301,6.097
504,0.698,37.051,13.582,30.466,23.286,4.743,9.26,5.935
505,0.688,37.154,13.625,30.427,23.269,4.661,9.219,5.933
506,0.675,37.251,13.602,30.446,23.282,4.7,9.137,6.096
507,0.698,37.377,13.598,30.465,23.286,4.782,9.177,6.056
508,0.701,37.206,13.637,30.446,23.282,4.783,9.137,6.097
509,0.688,37.357,13.614,30.465,23.286,4.742,9.055,6.097
510,0.701,37.474,13.559,30.456,23.279,4.701,9.013,6.016
511,0.705,37.533,13.66,30.437,23.282,4.742,8.932,6.015
512,0.715,36.709,13.529,30.427,23.286,4.742,8.972,6.096
513,0.718,36.854,13.578,30.456,23.293,4.864,8.972,6.219
514,0.702,37.018,13.563,30.513,23.3,4.987,9.013,6.18
515,0.698,37.068,13.652,30.476,23.289,4.785,8.81,6.057
516,0.685,37.03,13.564,30.466,23.293,4.783,8.848,6.137
517,0.688,37.173,13.613,30.466,23.282,4.742,8.849,6.138
518,0.675,37.28,13.661,30.466,23.286,4.742,8.808,6.138
519,0.669,37.339,13.614,30.494,23.289,4.823,8.767,6.179
520,0.672,36.908,13.633,30.475,23.289,4.824,8.889,6.139
521,0.675,37.019,13.645,30.475,23.286,4.824,8.768,6.138
522,0.669,37.125,13.591,30.466,23.275,4.661,8.645,6.016
523,0.672,37.136,13.571,30.437,23.279,4.782,8.847,6.096
524,0.659,37.002,13.555,30.475,23.282,4.742,8.849,6.097
525,0.672,37.115,13.625,30.466,23.282,4.783,8.808,6.097
526,0.672,37.251,13.567,30.466,23.279,4.702,8.767,6.097
527,0.688,37.108,13.598,30.466,23.282,4.701,8.726,6.097
528,0.679,36.963,13.645,30.437,23.282,4.701,8.726,6.056
529,0.685,37.106,13.591,30.465,23.279,4.742,8.766,6.056
530,0.698,37.203,13.594,30.466,23.286,4.783,8.807,6.178
531,0.705,36.839,13.641,30.475,23.3,4.905,8.889,6.22
532,0.718,36.941,13.595,30.494,23.293,4.865,8.89,6.058
533,0.711,37.038,13.625,30.475,23.293,4.743,8.768,6.097
534,0.689,37.116,13.571,30.456,23.289,4.783,8.807,6.056
535,0.698,36.867,13.649,30.475,23.286,4.783,8.808,6.097
536,0.688,36.999,13.583,30.466,23.286,4.783,8.848,6.056
537,0.679,37.135,13.594,30.494,23.289,4.783,8.889,6.137
538,0.675,37.222,13.645,30.466,23.293,4.824,8.93,6.057
539,0.662,36.897,13.63,30.513,23.286,4.743,8.809,5.934
540,0.669,37.009,13.598,30.447,23.275,4.579,8.767,6.055
541,0.649,37.096,13.602,30.456,23.286,4.74,8.929,6.015
542,0.659,37.184,13.606,30.456,23.282,4.742,8.931,6.096
543,0.665,36.945,13.622,30.456,23.282,4.742,8.89,5.975
544,0.672,37.077,13.555,30.475,23.279,4.701,8.849,6.015
545,0.659,37.164,13.602,30.456,23.286,4.701,8.767,6.015
546,0.682,37.213,13.547,30.446,23.279,4.742,8.767,6.015
547,0.692,36.715,13.582,30.437,23.282,4.783,8.807,6.096
548,0.695,36.863,13.594,30.484,23.289,4.824,8.97,6.178
549,0.711,37.009,13.629,30.514,23.3,4.865,8.931,6.057
550,0.724,37.02,13.602,30.476,23.286,4.784,8.85,6.015
551,0.705,36.895,13.59,30.456,23.286,4.824,8.93,6.015
552,0.708,37.019,13.598,30.465,23.296,4.824,9.012,6.056
553,0.698,37.116,13.583,30.456,23.289,4.824,9.054,6.056
554,0.685,37.059,13.653,30.456,23.289,4.824,9.013,6.097
555,0.692,36.8,13.622,30.475,23.293,4.783,9.013,6.056
556,0.685,36.912,13.614,30.475,23.289,4.702,8.932,5.975
557,0.669,37.0,13.587,30.427,23.276,4.66,8.85,5.974
558,0.656,36.799,13.637,30.456,23.282,4.782,8.971,5.974
559,0.668,36.931,13.649,30.465,23.282,4.783,8.931,5.974
560,0.669,37.067,13.583,30.456,23.279,4.783,8.89,6.015
561,0.656,37.116,13.618,30.456,23.279,4.742,8.89,5.974
562,0.636,36.685,13.52,30.456,23.279,4.701,8.89,5.893
563,0.665,36.825,13.578,30.446,23.279,4.701,8.849,6.014
564,0.662,36.922,13.61,30.456,23.286,4.823,8.93,6.056
565,0.675,37.009,13.645,30.485,23.3,4.783,8.972,6.097
566,0.688,36.703,13.634,30.504,23.3,4.905,8.85,5.975
567,0.692,36.815,13.63,30.456,23.286,4.744,8.849,6.015
568,0.701,36.922,13.649,30.456,23.282,4.783,8.849,6.015
569,0.701,37.0,13.603,30.456,23.286,4.824,8.849,6.015
570,0.724,36.742,13.575,30.456,23.293,4.743,8.93,6.015
571,0.721,36.892,13.621,30.465,23.289,4.742,8.972,5.974
572,0.731,37.009,13.485,30.485,23.286,4.783,9.053,6.015
573,0.705,37.068,13.578,30.466,23.289,4.783,9.054,5.934
574,0.682,36.656,13.594,30.446,23.279,4.661,9.013,5.811
575,0.669,36.757,13.614,30.427,23.279,4.7,9.094,5.932
576,0.669,36.912,13.614,30.456,23.286,4.701,9.258,5.933
577,0.669,36.942,13.583,30.456,23.286,4.701,9.219,5.933
578,0.669,36.731,13.649,30.446,23.282,4.782,9.218,5.892
579,0.685,36.873,13.599,30.446,23.286,4.742,9.178,5.851
580,0.672,36.961,13.586,30.446,23.275,4.742,9.259,5.891
581,0.662,37.038,13.614,30.446,23.286,4.742,9.3,5.973
582,0.649,36.656,13.567,30.465,23.293,4.823,9.463,6.015
583,0.678,36.805,13.586,30.485,23.296,4.905,9.465,5.974
584,0.691,36.883,13.602,30.466,23.286,4.784,9.302,5.933
585,0.679,36.673,13.618,30.456,23.293,4.783,9.423,5.933
586,0.678,36.748,13.63,30.456,23.286,4.783,9.383,5.933
587,0.695,36.873,13.606,30.465,23.286,4.783,9.423,6.014
588,0.685,36.961,13.672,30.446,23.286,4.824,9.464,6.056
589,0.705,36.578,13.599,30.465,23.289,4.743,9.383,6.056
590,0.715,36.708,13.579,30.456,23.279,4.783,9.382,5.893
591,0.708,36.806,13.633,30.418,23.282,4.661,9.261,5.811
592,0.708,36.874,13.536,30.427,23.282,4.66,9.341,5.891
593,0.698,36.606,13.613,30.436,23.286,4.782,9.382,5.933
594,0.685,36.766,13.614,30.446,23.279,4.702,9.342,5.933
595,0.679,36.893,13.622,30.446,23.282,4.742,9.26,5.974
596,0.669,36.961,13.591,30.446,23.282,4.701,9.341,5.852
597,0.656,36.492,13.575,30.437,23.279,4.62,9.382,5.891
598,0.655,36.612,13.629,30.427,23.279,4.659,9.464,5.933
599,0.655,36.747,13.602,30.446,23.296,4.822,9.587,6.014
600,0.652,36.835,13.575,30.465,23.3,4.865,9.71,6.096
601,0.659,36.673,13.653,30.466,23.3,4.824,9.63,5.935
602,0.643,36.777,13.564,30.456,23.283,4.783,9.588,6.014
603,0.668,36.883,13.598,30.446,23.286,4.824,9.669,5.893
604,0.678,36.932,13.551,30.456,23.293,4.783,9.589,5.973
605,0.682,36.472,13.621,30.446,23.289,4.742,9.588,5.974
606,0.688,36.612,13.634,30.446,23.286,4.823,9.629,5.974
607,0.692,36.718,13.599,30.456,23.286,4.783,9.67,5.974
608,0.698,37.103,13.641,30.446,23.289,4.702,9.467,5.852
609,0.701,36.695,13.606,30.427,23.276,4.66,9.424,5.81
610,0.708,36.796,13.579,30.427,23.279,4.66,9.464,5.932
611,0.728,36.912,13.629,30.436,23.286,4.741,9.465,5.892
612,0.731,36.558,13.618,30.494,23.282,4.742,9.424,5.892
613,0.708,36.536,13.591,30.427,23.289,4.701,9.424,5.851
614,0.702,36.641,13.598,30.417,23.289,4.66,9.302,5.81
615,0.701,36.757,13.622,30.417,23.272,4.66,9.219,5.85
616,0.695,36.442,13.583,30.427,23.282,4.7,9.259,5.973
617,0.685,36.592,13.571,30.436,23.293,4.782,9.341,6.055
618,0.685,36.737,13.684,30.465,23.3,4.864,9.26,5.975
619,0.688,36.816,13.607,30.427,23.293,4.784,9.097,5.811
620,0.669,36.366,13.594,30.436,23.286,4.742,9.095,5.932
621,0.672,36.486,13.637,30.427,23.289,4.742,9.054,5.974
622,0.662,36.602,13.614,30.456,23.286,4.742,9.013,5.974
623,0.675,36.68,13.63,30.437,23.293,4.783,8.972,5.933
624,0.675,36.441,13.595,30.437,23.293,4.783,8.931,5.933
625,0.669,36.554,13.641,30.427,23.279,4.742,8.768,5.73
626,0.662,36.651,13.595,30.388,23.272,4.539,8.767,5.809
627,0.662,36.709,13.59,30.388,23.275,4.659,8.726,5.85
628,0.672,36.537,13.625,30.417,23.289,4.782,8.644,5.891
629,0.675,36.67,13.606,30.417,23.286,4.702,8.725,5.851
630,0.685,36.786,13.59,30.398,23.282,4.742,8.644,5.851
631,0.682,36.807,13.641,30.417,23.282,4.661,8.603,5.851
632,0.688,36.394,13.552,30.408,23.279,4.66,8.602,5.81
633,0.679,36.515,13.613,30.398,23.282,4.7,8.684,5.85
634,0.669,36.641,13.606,30.417,23.289,4.823,8.684,6.054
635,0.682,36.709,13.688,30.455,23.3,4.865,8.766,6.015
636,0.675,36.48,13.564,30.427,23.286,4.784,8.685,5.893
637,0.669,36.564,13.613,30.408,23.282,4.783,8.562,5.973
638,0.672,36.68,13.61,30.407,23.293,4.702,8.602,5.933
639,0.672,36.46,13.594,30.417,23.289,4.823,8.562,5.974
640,0.669,36.477,13.575,30.417,23.293,4.783,8.602,5.893
641,0.662,36.592,13.617,30.417,23.289,4.742,8.521,6.054
642,0.652,36.68,13.602,30.427,23.293,4.783,8.52,5.975
643,0.678,36.288,13.606,30.417,23.282,4.702,8.317,5.811
644,0.678,36.38,13.583,30.388,23.275,4.701,8.356,5.891
645,0.675,36.496,13.649,30.398,23.289,4.742,8.397,6.014
646,0.695,36.583,13.606,30.417,23.282,4.742,8.275,5.934
647,0.708,36.22,13.622,30.398,23.282,4.701,8.274,5.933
648,0.718,36.35,13.634,30.398,23.279,4.701,8.314,5.892
649,0.689,36.476,13.595,30.388,23.282,4.742,8.274,5.933
650,0.692,36.544,13.598,30.388,23.282,4.661,8.274,5.974
651,0.708,36.267,13.586,30.398,23.293,4.741,8.396,6.015
652,0.705,36.466,13.621,30.484,23.303,4.945,8.478,6.056
653,0.695,36.573,13.583,30.408,23.286,4.744,8.398,5.975
654,0.679,36.603,13.606,30.398,23.286,4.742,8.478,6.055
655,0.675,36.268,13.633,30.388,23.286,4.783,8.642,6.015
656,0.678,36.427,13.61,30.398,23.296,4.783,8.725,6.056
657,0.678,36.534,13.626,30.407,23.293,4.783,8.766,6.015
658,0.669,36.555,13.645,30.398,23.296,4.742,8.807,6.015
659,0.675,36.315,13.622,30.398,23.293,4.742,8.848,6.015
660,0.659,36.437,13.575,30.398,23.276,4.701,8.686,5.893
661,0.646,36.506,13.59,30.34,23.275,4.66,8.888,6.014
662,0.652,36.554,13.555,30.397,23.289,4.7,8.93,6.056
663,0.665,36.401,13.59,30.388,23.282,4.701,9.012,5.975
664,0.682,36.515,13.567,30.388,23.286,4.66,9.013,5.933
665,0.685,36.612,13.652,30.369,23.282,4.7,9.054,5.933
666,0.682,36.344,13.595,30.369,23.275,4.66,9.013,5.933
667,0.688,36.265,13.61,30.369,23.286,4.7,9.013,6.055
668,0.705,36.389,13.633,30.388,23.289,4.823,9.257,6.219
669,0.715,36.544,13.638,30.426,23.296,4.905,9.259,6.18
670,0.724,36.21,13.634,30.388,23.293,4.784,9.097,6.098
671,0.728,36.302,13.595,30.388,23.286,4.702,8.973,6.056
672,0.731,36.437,13.602,30.379,23.293,4.742,9.094,6.015
673,0.715,36.535,13.555,30.388,23.289,4.783,9.095,6.096
674,0.705,36.104,13.606,30.388,23.289,4.742,9.054,6.097
675,0.702,36.234,13.653,30.388,23.293,4.783,9.013,6.056
676,0.692,36.369,13.638,30.388,23.286,4.864,8.972,6.015
677,0.685,36.457,13.606,30.359,23.286,4.662,8.85,5.974
678,0.682,36.122,13.629,30.34,23.279,4.7,8.767,6.015
679,0.688,36.282,13.614,30.378,23.286,4.782,8.848,6.056
680,0.675,36.418,13.622,30.369,23.286,4.742,8.767,6.056
681,0.669,36.496,13.622,30.359,23.286,4.742,8.645,6.056
682,0.656,36.247,13.595,30.378,23.282,4.701,8.684,6.015
683,0.665,36.379,13.555,30.35,23.279,4.701,8.644,5.974
684,0.682,36.496,13.582,30.349,23.282,4.742,8.765,6.015
685,0.685,36.535,13.657,30.369,23.293,4.823,8.807,6.137
686,0.705,36.114,13.63,30.417,23.3,4.946,8.767,6.138
687,0.711,36.253,13.638,30.36,23.283,4.703,8.726,6.057
688,0.702,36.36,13.645,30.369,23.286,4.782,8.766,6.097
689,0.711,36.361,13.614,30.359,23.282,4.783,8.807,6.056
690,0.734,36.189,13.61,30.349,23.293,4.864,8.848,6.056
691,0.738,36.331,13.63,30.369,23.289,4.743,8.849,6.056
692,0.764,36.438,13.622,30.388,23.286,4.783,8.93,6.056
693,0.748,36.324,13.555,30.369,23.286,4.742,8.931,5.975
694,0.738,36.207,13.551,30.33,23.282,4.661,8.768,5.893
695,0.728,36.302,13.637,30.33,23.282,4.7,8.929,6.014
696,0.734,36.428,13.599,30.349,23.289,4.742,8.972,6.015
697,0.734,36.132,13.622,30.34,23.289,4.701,8.972,5.893
698,0.744,36.205,13.618,30.34,23.282,4.782,8.972,5.933
699,0.747,36.331,13.63,30.33,23.279,4.661,9.053,5.933
700,0.734,36.428,13.595,30.34,23.282,4.741,9.013,5.933
701,0.754,36.045,13.614,30.34,23.282,4.742,9.094,6.014
702,0.761,36.205,13.559,30.34,23.296,4.823,9.258,6.178
703,0.793,36.36,13.582,30.368,23.296,4.865,9.259,6.098
704,0.806,36.447,13.59,30.35,23.289,4.824,9.259,6.016
705,0.79,36.094,13.598,30.34,23.282,4.783,9.259,5.974
706,0.79,36.243,13.551,30.34,23.293,4.783,9.259,6.055
707,0.8,36.341,13.609,30.34,23.293,4.824,9.3,5.975
708,0.8,36.409,13.633,30.34,23.289,4.865,9.382,6.055
709,0.794,36.064,13.622,30.349,23.289,4.906,9.423,6.056
710,0.793,36.195,13.595,30.359,23.286,4.784,9.342,5.934
711,0.8,36.273,13.614,30.311,23.282,4.661,9.219,5.811
712,0.787,36.322,13.583,30.339,23.279,4.66,9.34,5.972
713,0.784,36.14,13.606,30.33,23.286,4.782,9.382,5.974
714,0.793,36.263,13.629,30.32,23.289,4.824,9.342,5.974
715,0.787,36.37,13.669,30.32,23.286,4.743,9.301,5.974
716,0.78,36.409,13.638,30.311,23.282,4.742,9.26,5.893
717,0.8,36.084,13.579,30.301,23.279,4.783,9.137,5.933
718,0.781,36.205,13.629,30.311,23.279,4.742,9.217,5.933
719,0.777,36.35,13.634,30.33,23.286,4.783,9.218,6.136
720,0.784,36.284,13.599,30.349,23.296,4.905,9.34,6.057
721,0.793,36.073,13.645,30.34,23.286,4.825,9.138,5.975
722,0.784,36.166,13.552,30.33,23.286,4.743,8.974,6.015
723,0.797,36.273,13.621,30.311,23.286,4.783,9.013,5.934
724,0.807,35.986,13.575,30.32,23.289,4.783,9.013,5.974
725,0.82,36.079,13.66,30.301,23.286,4.783,8.932,5.974
726,0.823,36.215,13.634,30.33,23.289,4.864,8.972,6.055
727,0.826,36.321,13.61,30.33,23.289,4.865,8.891,6.015
728,0.826,36.092,13.641,30.292,23.282,4.784,8.768,5.852
729,0.807,36.234,13.599,30.291,23.269,4.702,8.726,5.891
730,0.794,36.331,13.594,30.291,23.286,4.782,8.97,5.933
731,0.8,36.428,13.602,30.31,23.282,4.783,8.972,5.974
732,0.81,35.902,13.555,30.32,23.286,4.824,8.931,5.893
733,0.794,36.03,13.602,30.301,23.279,4.743,8.931,5.892
734,0.777,36.128,13.59,30.301,23.282,4.661,9.053,5.892
735,0.771,36.205,13.653,30.282,23.286,4.7,9.054,5.892
736,0.767,36.024,13.614,30.291,23.289,4.823,9.135,6.014
737,0.77,36.176,13.614,30.32,23.3,4.905,9.299,6.056
738,0.796,36.302,13.692,30.32,23.296,4.865,9.26,5.975
739,0.784,36.351,13.615,30.311,23.283,4.784,9.219,5.893
740,0.754,36.016,13.583,30.311,23.286,4.864,9.259,5.973
741,0.754,36.118,13.59,30.291,23.293,4.824,9.219,5.974
742,0.731,36.253,13.543,30.32,23.289,4.905,9.178,6.015
743,0.734,36.303,13.578,30.311,23.286,4.825,9.259,5.974
744,0.741,36.025,13.575,30.301,23.289,4.824,9.219,5.974
745,0.764,36.147,13.637,30.301,23.286,4.824,9.096,5.852
746,0.761,36.215,13.63,30.282,23.275,4.702,8.973,5.851
747,0.741,36.264,13.595,30.272,23.279,4.782,9.094,5.932
748,0.741,35.977,13.598,30.291,23.289,4.824,9.095,5.974
749,0.721,36.108,13.575,30.301,23.286,4.824,9.054,5.933
750,0.718,36.234,13.602,30.291,23.279,4.783,8.973,5.852
751,0.718,36.168,13.602,30.272,23.279,4.702,8.931,5.851
752,0.715,36.263,13.571,30.272,23.282,4.701,8.931,5.81
753,0.718,36.379,13.574,30.291,23.279,4.823,9.012,5.932
754,0.711,36.476,13.606,30.301,23.296,4.905,9.054,6.096
755,0.698,35.758,13.649,30.32,23.3,4.906,9.095,5.975
756,0.682,35.866,13.595,30.301,23.286,4.825,9.014,5.974
757,0.672,35.973,13.602,30.282,23.286,4.865,9.135,5.974
758,0.662,36.07,13.637,30.291,23.289,4.824,9.095,5.974
759,0.656,35.86,13.618,30.291,23.286,4.824,9.095,5.893
760,0.652,36.02,13.598,30.282,23.289,4.824,9.176,5.933
761,0.646,36.147,13.598,30.291,23.286,4.865,9.177,5.974
762,0.636,36.215,13.626,30.291,23.289,4.784,9.177,5.933
763,0.639,35.919,13.567,30.263,23.279,4.702,9.015,5.811
764,0.636,36.031,13.617,30.253,23.272,4.701,9.094,5.85
765,0.636,36.166,13.645,30.262,23.282,4.823,9.176,5.891
766,0.646,36.235,13.606,30.272,23.286,4.783,9.177,5.933
767,0.652,35.823,13.59,30.253,23.282,4.742,9.096,5.933
768,0.649,35.991,13.594,30.262,23.286,4.742,9.136,5.892
769,0.642,36.108,13.583,30.253,23.279,4.742,9.095,5.851
770,0.652,36.109,13.621,30.262,23.279,4.701,9.014,5.851
771,0.639,35.918,13.559,30.253,23.282,4.782,9.135,5.851
772,0.655,36.059,13.617,30.281,23.3,4.905,9.258,6.054
773,0.649,36.205,13.563,30.301,23.3,4.947,9.178,5.975
774,0.639,36.523,13.625,30.282,23.289,4.825,9.096,5.852
775,0.626,35.864,13.63,30.243,23.282,4.824,9.095,5.891
776,0.623,36.001,13.563,30.262,23.286,4.865,9.095,5.933
777,0.623,36.108,13.578,30.262,23.286,4.865,9.095,5.974
778,0.619,35.879,13.598,30.262,23.282,4.824,9.095,5.974
779,0.623,35.915,13.606,30.272,23.293,4.865,9.054,5.974
780,0.61,36.021,13.579,30.262,23.282,4.784,9.013,5.811
781,0.616,36.099,13.625,30.243,23.272,4.661,8.891,5.85
782,0.597,35.831,13.497,30.272,23.275,4.782,8.93,5.932
783,0.613,35.991,13.589,30.253,23.289,4.824,8.972,5.892
784,0.629,36.099,13.579,30.262,23.279,4.743,8.85,5.851
785,0.642,36.186,13.645,30.243,23.279,4.783,8.808,5.851
786,0.649,35.765,13.618,30.243,23.279,4.783,8.848,5.769
787,0.649,35.895,13.598,30.224,23.279,4.742,8.808,5.809
788,0.652,36.021,13.606,30.243,23.279,4.823,8.889,5.932
789,0.668,36.128,13.637,30.281,23.296,4.946,8.93,6.055
790,0.675,35.822,13.63,30.272,23.293,4.907,8.931,5.893
791,0.662,35.934,13.641,30.224,23.286,4.825,8.89,5.851
792,0.649,36.04,13.603,30.252,23.289,4.824,8.93,5.973
793,0.639,36.109,13.575,30.243,23.282,4.824,8.85,5.852
794,0.636,35.86,13.625,30.262,23.293,4.824,8.889,5.891
795,0.642,36.02,13.614,30.243,23.282,4.824,8.89,5.933
796,0.633,36.128,13.641,30.252,23.286,4.865,8.93,5.933
797,0.629,36.186,13.606,30.243,23.286,4.824,8.89,5.892
798,0.619,35.822,13.629,30.224,23.279,4.702,8.687,5.77
799,0.619,35.915,13.591,30.224,23.275,4.701,8.807,5.809
800,0.616,36.069,13.59,30.233,23.286,4.823,8.848,5.932
801,0.606,36.119,13.622,30.224,23.282,4.743,8.889,5.892
802,0.6,35.803,13.481,30.243,23.286,4.701,8.809,5.811
803,0.609,35.924,13.577,30.224,23.282,4.782,8.767,5.81
804,0.632,36.021,13.586,30.214,23.282,4.742,8.807,5.769
805,0.616,35.763,13.664,30.214,23.279,4.783,8.808,5.85
806,0.642,35.789,13.653,30.233,23.282,4.824,8.848,5.973
807,0.659,35.934,13.603,30.252,23.293,4.987,8.93,6.096
808,0.669,36.05,13.641,30.262,23.3,4.907,8.768,5.975
809,0.672,35.716,13.583,30.234,23.283,4.744,8.848,5.893
810,0.649,35.818,13.618,30.224,23.289,4.823,8.849,5.933
811,0.633,35.953,13.622,30.224,23.289,4.905,8.971,5.852
812,0.639,36.05,13.583,30.214,23.286,4.825,8.972,5.891
813,0.62,35.783,13.598,30.223,23.289,4.865,9.053,5.973
814,0.626,35.914,13.583,30.233,23.293,4.865,9.257,6.015
815,0.626,36.021,13.653,30.252,23.293,4.824,9.259,5.974
816,0.623,36.118,13.626,30.214,23.276,4.743,9.341,5.893
817,0.619,35.803,13.583,30.185,23.286,4.701,9.423,5.973
818,0.619,35.962,13.602,30.185,23.279,4.823,9.627,5.893
819,0.616,36.089,13.52,30.233,23.289,4.783,9.629,5.892
820,0.623,36.157,13.562,30.204,23.282,4.824,9.67,5.851
821,0.623,35.755,13.617,30.204,23.282,4.783,9.67,5.891
822,0.616,35.895,13.594,30.214,23.279,4.783,9.629,5.851
823,0.629,36.03,13.59,30.195,23.279,4.824,9.751,5.891
824,0.639,36.051,13.571,30.223,23.293,4.905,9.833,6.054
825,0.655,35.831,13.621,30.243,23.296,4.987,9.875,6.015
826,0.672,35.943,13.63,30.243,23.293,4.907,9.794,5.934
827,0.662,36.041,13.602,30.214,23.286,4.825,9.753,5.974
828,0.672,36.051,13.633,30.214,23.282,4.865,9.752,5.933
829,0.669,35.658,13.524,30.214,23.282,4.743,9.793,5.892
830,0.665,35.798,13.597,30.204,23.293,4.864,9.671,5.933
831,0.665,35.905,13.61,30.195,23.286,4.906,9.711,5.933
832,0.669,35.839,13.614,30.214,23.286,4.825,9.63,5.933
833,0.646,35.829,13.575,30.204,23.282,4.824,9.466,5.852
834,0.629,35.934,13.575,30.175,23.272,4.702,9.546,5.769
835,0.632,36.031,13.602,30.175,23.282,4.782,9.588,5.891
836,0.662,35.706,13.567,30.204,23.286,4.783,9.588,5.892
837,0.669,35.818,13.617,30.185,23.282,4.824,9.547,5.892
838,0.688,35.943,13.618,30.166,23.289,4.743,9.547,5.851
839,0.727,36.021,13.559,30.165,23.282,4.742,9.506,5.81
840,0.747,35.6,13.594,30.185,23.279,4.783,9.506,5.891
841,0.773,35.73,13.622,30.185,23.286,4.783,9.546,5.973
842,0.793,35.875,13.622,30.214,23.293,4.905,9.71,6.055
843,0.823,35.973,13.505,30.233,23.293,4.906,9.63,5.975
844,0.849,35.638,13.546,30.185,23.289,4.784,9.67,5.974
845,0.869,35.769,13.566,30.185,23.286,4.864,9.751,5.974
846,0.882,35.857,13.567,30.166,23.293,4.865,9.671,6.055
847,0.898,35.934,13.617,30.185,23.286,4.824,9.751,5.975
848,0.928,35.686,13.622,30.194,23.293,4.865,9.752,6.015
849,0.944,35.846,13.618,30.204,23.293,4.824,9.671,5.974
850,0.99,35.934,13.622,30.175,23.279,4.783,9.589,5.811
851,1.036,35.954,13.622,30.137,23.275,4.783,9.588,5.891
852,1.102,35.724,13.583,30.184,23.286,4.783,9.629,5.973
853,1.161,35.866,13.567,30.185,23.282,4.824,9.629,5.893
854,1.21,35.982,13.539,30.166,23.289,4.783,9.548,5.973
855,1.207,35.993,13.605,30.175,23.282,4.824,9.506,5.933
856,1.233,35.638,13.497,30.166,23.279,4.702,9.546,5.892
857,1.25,35.769,13.562,30.175,23.286,4.823,9.628,5.973
858,1.253,35.885,13.621,30.175,23.289,4.865,9.71,6.137
859,1.26,35.8,13.634,30.194,23.3,4.946,9.752,6.138
860,1.273,35.732,13.575,30.195,23.289,4.866,9.59,6.057
861,1.27,35.827,13.625,30.175,23.289,4.906,9.629,6.056
862,1.27,35.924,13.602,30.166,23.286,4.865,9.629,6.097
863,1.25,35.599,13.571,30.165,23.293,4.824,9.67,6.097
864,1.227,35.692,13.582,30.175,23.286,4.865,9.67,6.097
865,1.221,35.827,13.571,30.185,23.286,4.946,9.589,6.097
866,1.204,35.915,13.586,30.166,23.293,4.866,9.547,6.178
867,1.181,35.628,13.59,30.165,23.286,4.824,9.506,6.098
868,1.129,35.73,13.641,30.156,23.275,4.702,9.303,6.138
869,1.067,35.847,13.614,30.146,23.279,4.782,9.382,6.301
870,1.04,35.925,13.567,30.165,23.286,4.783,9.342,6.384
871,0.981,35.561,13.652,30.156,23.282,4.864,9.26,6.466
872,0.932,35.701,13.556,30.156,23.282,4.824,9.259,6.589
873,0.866,35.827,13.617,30.137,23.279,4.824,9.178,6.712
874,0.791,35.886,13.594,30.136,23.282,4.783,8.974,6.876
875,0.712,35.608,13.625,30.156,23.282,4.824,9.053,7.162
876,0.663,35.759,13.598,30.175,23.296,4.865,9.257,7.571
877,0.613,35.914,13.598,30.194,23.296,4.946,9.178,7.738
878,0.564,35.944,13.641,30.156,23.289,4.825,9.096,7.903
879,0.528,35.571,13.497,30.165,23.286,4.824,9.054,8.067
880,0.479,35.72,13.593,30.175,23.286,4.865,9.054,8.272
881,0.455,35.837,13.61,30.146,23.286,4.824,9.095,8.477
882,0.445,35.876,13.579,30.137,23.286,4.905,9.054,8.642
883,0.452,35.58,13.606,30.165,23.293,4.906,8.973,8.684
884,0.488,35.74,13.559,30.156,23.286,4.825,8.891,8.725
885,0.511,35.818,13.59,30.118,23.279,4.661,8.809,8.726
886,0.543,35.732,13.551,30.127,23.279,4.741,8.889,8.929
887,0.573,35.578,13.582,30.136,23.282,4.823,8.89,9.053
888,0.622,35.701,13.66,30.136,23.282,4.865,8.809,9.176
889,0.665,35.818,13.591,30.146,23.282,4.743,8.808,9.299
890,0.698,35.569,13.579,30.137,23.282,4.742,8.808,9.423
891,0.727,35.653,13.617,30.117,23.282,4.823,8.767,9.627
892,0.734,35.788,13.552,30.117,23.279,4.743,8.807,9.954
893,0.725,35.886,13.598,30.136,23.289,4.864,8.808,10.324
894,0.724,35.56,13.59,30.175,23.296,4.946,8.97,10.612
895,0.731,35.691,13.641,30.156,23.293,4.988,8.769,10.818
896,0.721,35.798,13.603,30.137,23.282,4.826,8.807,11.064
897,0.702,35.876,13.598,30.136,23.289,4.824,8.808,11.229
898,0.708,35.551,13.629,30.127,23.296,4.905,8.808,11.475
899,0.702,35.711,13.532,30.156,23.283,4.825,8.767,11.599
900,0.701,35.818,13.598,30.137,23.293,4.946,8.726,11.803
901,0.701,35.876,13.637,30.127,23.293,4.907,8.726,11.806
902,0.698,35.474,13.567,30.127,23.279,4.865,8.644,11.765
903,0.708,35.585,13.567,30.088,23.275,4.702,8.603,11.724
904,0.734,35.701,13.559,30.117,23.286,4.823,8.684,11.886
905,0.731,35.75,13.613,30.107,23.282,4.865,8.766,11.847
906,0.747,35.463,13.559,30.127,23.282,4.824,8.848,11.725
907,0.734,35.604,13.609,30.108,23.279,4.783,8.849,11.642
908,0.741,35.711,13.633,30.098,23.279,4.824,8.889,11.519
909,0.738,35.751,13.61,30.107,23.275,4.702,9.012,11.559
910,0.744,35.502,13.59,30.107,23.282,4.823,9.054,11.478
911,0.734,35.624,13.629,30.136,23.293,4.905,9.379,11.558
912,0.764,35.798,13.602,30.146,23.3,4.987,9.342,11.397
913,0.744,35.876,13.61,30.108,23.289,4.866,9.26,11.232
914,0.728,35.58,13.59,30.107,23.282,4.784,9.3,11.149
915,0.721,35.701,13.618,30.136,23.286,4.864,9.301,11.149
916,0.721,35.818,13.598,30.127,23.286,4.946,9.382,11.067
917,0.715,35.474,13.598,30.108,23.293,4.907,9.382,10.985
918,0.718,35.528,13.645,30.117,23.293,4.906,9.342,10.903
919,0.724,35.653,13.579,30.184,23.293,4.825,9.301,10.739
920,0.715,35.74,13.567,30.079,23.276,4.743,9.219,10.494
921,0.715,35.406,13.594,30.098,23.279,4.783,9.3,10.654
922,0.711,35.556,13.594,30.126,23.286,4.824,9.301,10.452
923,0.724,35.701,13.575,30.117,23.282,4.824,9.26,10.369
924,0.744,35.779,13.567,30.098,23.282,4.824,9.178,10.246
925,0.751,35.387,13.606,30.079,23.282,4.824,9.137,10.082
926,0.761,35.527,13.559,30.078,23.279,4.865,9.055,9.999
927,0.757,35.672,13.555,30.088,23.282,4.865,9.217,9.958
928,0.751,35.721,13.629,30.107,23.296,4.987,9.218,9.957
929,0.764,35.415,13.622,30.127,23.296,4.948,9.259,9.876
930,0.783,35.556,13.595,30.088,23.286,4.785,9.015,9.631
931,0.764,35.644,13.641,30.069,23.289,4.824,9.013,9.548
932,0.761,35.702,13.567,30.097,23.286,4.824,8.972,9.425
933,0.741,35.463,13.578,30.088,23.293,4.865,8.931,9.342
934,0.738,35.585,13.547,30.088,23.286,4.865,9.012,9.301
935,0.747,35.721,13.602,30.098,23.289,4.906,8.932,9.26
936,0.741,35.77,13.633,30.088,23.293,4.947,8.931,9.056
937,0.731,35.377,13.591,30.059,23.279,4.744,8.85,8.851
938,0.734,35.479,13.614,30.059,23.282,4.742,8.808,8.971
939,0.721,35.595,13.637,30.107,23.293,4.783,8.93,8.85
940,0.715,35.951,13.595,30.069,23.282,4.824,8.972,8.767
941,0.711,35.523,13.637,30.059,23.286,4.865,9.013,8.645
942,0.708,35.653,13.61,30.059,23.286,4.784,9.013,8.603
943,0.721,35.75,13.567,30.04,23.279,4.783,9.013,8.44
944,0.737,35.31,13.543,30.059,23.275,4.742,9.135,8.479
945,0.738,35.344,13.582,30.069,23.289,4.864,9.299,8.479
946,0.747,35.507,13.547,30.088,23.293,5.028,9.423,8.52
947,0.764,35.614,13.582,30.088,23.286,4.867,9.261,8.276
948,0.767,35.376,13.594,30.069,23.289,4.906,9.259,8.233
949,0.78,35.517,13.618,30.069,23.282,4.784,9.341,8.273
950,0.784,35.614,13.626,30.04,23.289,4.864,9.26,8.152
951,0.787,35.711,13.634,30.068,23.286,4.865,9.259,8.069
952,0.793,35.242,13.645,30.069,23.289,4.865,9.3,8.069
953,0.78,35.372,13.567,30.059,23.286,4.906,9.219,7.946
954,0.774,35.488,13.637,30.04,23.279,4.784,9.056,7.783
955,0.761,35.528,13.595,30.011,23.282,4.742,9.176,7.862
956,0.757,35.423,13.586,30.059,23.286,4.864,9.137,7.822
957,0.764,35.594,13.575,30.04,23.286,4.865,9.177,7.781
958,0.751,35.692,13.621,30.04,23.279,4.824,9.218,7.7
959,0.741,35.741,13.622,30.04,23.282,4.783,9.137,7.699
960,0.747,35.415,13.579,30.04,23.279,4.824,9.136,7.658
961,0.738,35.565,13.621,30.03,23.279,4.824,9.217,7.617
962,0.731,35.701,13.614,30.087,23.282,4.946,9.3,7.739
963,0.747,35.741,13.583,30.069,23.293,4.988,9.341,7.659
964,0.757,35.367,13.629,30.069,23.293,4.866,9.301,7.495
965,0.748,35.488,13.645,30.05,23.286,4.865,9.301,7.453
966,0.76,35.605,13.56,30.04,23.282,4.906,9.423,7.371
967,0.761,35.797,13.606,30.04,23.286,4.906,9.424,7.452
968,0.77,35.339,13.587,30.04,23.286,4.906,9.464,7.493
969,0.77,35.478,13.637,30.04,23.286,4.865,9.424,7.371
970,0.787,35.604,13.595,30.04,23.293,4.906,9.424,7.289
971,0.793,35.423,13.614,30.02,23.282,4.825,9.302,7.125
972,0.78,35.45,13.583,30.011,23.279,4.783,9.301,7.124
973,0.771,35.566,13.563,30.03,23.282,4.824,9.382,7.205
974,0.78,35.682,13.625,30.03,23.286,4.824,9.261,7.165
975,0.784,35.194,13.669,30.03,23.282,4.824,9.3,7.165
976,0.761,35.304,13.575,30.011,23.282,4.743,9.26,7.002
977,0.761,35.42,13.625,30.001,23.275,4.783,9.178,7.001
978,0.767,35.517,13.622,30.011,23.275,4.783,9.218,7.001
979,0.764,35.202,13.626,30.011,23.282,4.905,9.259,7.082
980,0.77,35.381,13.583,30.049,23.296,5.028,9.381,7.164
981,0.78,35.498,13.618,30.049,23.296,4.867,9.261,7.043
982,0.767,35.547,13.563,30.03,23.286,4.865,9.219,7.001
983,0.774,35.174,13.559,30.02,23.289,4.865,9.178,7.001
984,0.777,35.294,13.594,30.011,23.286,4.865,9.177,6.96
985,0.784,35.411,13.606,30.001,23.289,4.906,9.259,6.919
986,0.787,35.489,13.61,30.03,23.289,4.825,9.259,6.959
987,0.8,35.278,13.606,30.02,23.289,4.865,9.259,6.878
988,0.803,35.391,13.614,29.992,23.282,4.743,9.178,6.755
989,0.79,35.488,13.594,29.972,23.279,4.742,9.299,6.795
990,0.797,35.547,13.579,29.981,23.282,4.864,9.341,6.755
991,0.8,35.279,13.598,29.982,23.286,4.824,9.423,6.795
992,0.807,35.439,13.579,30.01,23.282,4.824,9.424,6.795
993,0.79,35.518,13.555,29.991,23.282,4.783,9.424,6.714
994,0.78,35.528,13.59,29.982,23.282,4.783,9.546,6.713
995,0.784,35.193,13.629,29.972,23.279,4.742,9.425,6.713
996,0.774,35.362,13.618,29.981,23.289,4.945,9.586,6.794
997,0.787,35.498,13.657,30.029,23.3,4.988,9.669,6.836
998,0.787,35.259,13.653,30.011,23.289,4.866,9.507,6.755
999,0.774,35.199,13.614,29.991,23.289,4.824,9.506,6.632
1000,0.771,35.314,13.559,29.991,23.282,4.905,9.506,6.631
1001,0.777,35.401,13.598,29.991,23.286,4.865,9.587,6.712
1002,0.774,35.182,13.497,29.991,23.282,4.865,9.507,6.591
1003,0.777,35.314,13.566,29.982,23.289,4.906,9.465,6.671
1004,0.793,35.43,13.606,29.972,23.293,4.906,9.465,6.55
1005,0.81,35.508,13.618,29.991,23.289,4.744,9.302,6.427
1006,0.794,35.106,13.559,29.953,23.272,4.661,9.341,6.466
1007,0.8,35.246,13.567,29.953,23.279,4.822,9.342,6.507
1008,0.816,35.381,13.637,29.972,23.286,4.824,9.301,6.549
1009,0.826,35.488,13.614,29.962,23.282,4.824,9.301,6.386
1010,0.83,35.087,13.563,29.953,23.286,4.743,9.301,6.507
1011,0.826,35.246,13.613,29.953,23.282,4.742,9.26,6.427
1012,0.83,35.372,13.551,29.962,23.279,4.823,9.3,6.426
1013,0.81,35.431,13.566,29.953,23.286,4.865,9.341,6.466
1014,0.807,35.834,13.602,29.991,23.293,4.906,9.545,6.67
1015,0.826,35.992,13.645,29.982,23.3,4.987,9.425,6.469
1016,0.813,36.079,13.661,29.962,23.289,4.866,9.464,6.467
1017,0.807,36.109,13.56,29.962,23.286,4.865,9.505,6.426
1018,0.803,34.786,13.656,29.953,23.286,4.865,9.465,6.466
1019,0.807,34.936,13.591,29.972,23.289,4.824,9.465,6.467
1020,0.8,35.052,13.598,29.962,23.286,4.905,9.465,6.467
1021,0.803,35.092,13.661,29.953,23.289,4.906,9.587,6.386
1022,0.816,35.294,13.575,29.962,23.282,4.825,9.385,6.344
1023,0.813,35.411,13.582,29.933,23.272,4.824,9.301,6.262
1024,0.826,35.479,13.551,29.924,23.275,4.783,9.382,6.384
1025,0.833,35.259,13.633,29.952,23.289,4.824,9.382,6.344
1026,0.852,35.113,13.563,29.953,23.282,4.824,9.342,6.343
1027,0.843,35.256,13.59,29.953,23.282,4.824,9.382,6.303
1028,0.839,35.353,13.59,29.933,23.282,4.824,9.301,6.302
1029,0.826,34.951,13.594,29.914,23.282,4.783,9.26,6.302
1030,0.849,35.062,13.594,29.904,23.279,4.742,9.381,6.302
1031,0.846,35.188,13.622,29.933,23.296,4.864,9.586,6.506
1032,0.866,35.323,13.637,30.019,23.293,4.946,9.71,6.427
1033,0.876,35.066,13.595,29.953,23.286,4.866,9.589,6.344
1034,0.84,35.169,13.606,29.924,23.286,4.865,9.629,6.303
1035,0.843,35.294,13.661,29.923,23.286,4.865,9.751,6.343
1036,0.836,35.372,13.583,29.943,23.289,4.906,9.874,6.343
1037,0.833,35.047,13.594,29.933,23.286,4.865,10.038,6.303
1038,0.836,35.188,13.598,29.952,23.289,4.865,10.08,6.384
1039,0.839,35.304,13.614,29.943,23.289,4.824,10.284,6.303
1040,0.81,35.373,13.555,29.914,23.279,4.783,10.367,6.221
1041,0.79,35.086,13.609,29.904,23.279,4.783,10.612,6.261
1042,0.8,35.236,13.567,29.923,23.279,4.824,10.818,6.302
1043,0.82,35.372,13.582,29.923,23.286,4.824,11.023,6.262
1044,0.839,35.431,13.586,29.914,23.282,4.783,11.188,6.343
1045,0.839,35.124,13.629,29.904,23.279,4.824,11.271,6.221
1046,0.83,35.265,13.567,29.904,23.282,4.743,11.353,6.22
1047,0.856,35.391,13.594,29.914,23.279,4.823,11.557,6.22
1048,0.856,35.412,13.59,29.923,23.282,4.824,11.722,6.383
1049,0.869,35.143,13.594,29.952,23.293,4.987,11.805,6.466
1050,0.889,35.294,13.629,29.953,23.289,4.866,11.765,6.345
1051,0.885,35.353,13.598,29.905,23.293,4.824,11.846,6.303
1052,0.885,35.315,13.614,29.904,23.286,4.824,11.887,6.302
1053,0.866,35.133,13.61,29.933,23.286,4.824,11.847,6.302
1054,0.859,35.246,13.649,29.924,23.293,4.946,11.806,6.302
1055,0.872,35.353,13.665,29.914,23.293,4.947,11.724,6.302
1056,0.859,35.076,13.646,29.923,23.282,4.825,11.601,6.221
1057,0.846,35.121,13.591,29.914,23.275,4.661,11.438,6.18
1058,0.843,35.227,13.579,29.876,23.279,4.7,11.517,6.22
1059,0.856,35.353,13.59,29.894,23.286,4.782,11.396,6.18
1060,0.853,35.009,13.582,29.914,23.282,4.783,11.314,6.22
1061,0.846,35.139,13.629,29.895,23.282,4.783,11.069,6.18
1062,0.843,35.265,13.567,29.914,23.279,4.742,11.026,6.179
1063,0.849,35.353,13.578,29.904,23.282,4.783,10.944,6.139
1064,0.866,34.999,13.59,29.904,23.286,4.864,10.862,6.219
1065,0.876,35.158,13.629,29.914,23.286,4.865,10.902,6.342
1066,0.898,35.294,13.645,29.933,23.296,4.906,10.78,6.262
1067,0.905,35.372,13.61,29.895,23.289,4.784,10.576,6.18
1068,0.908,35.018,13.63,29.904,23.282,4.824,10.574,6.179
1069,0.908,35.149,13.63,29.914,23.282,4.865,10.411,6.179
1070,0.905,35.285,13.583,29.895,23.286,4.824,10.409,6.179
1071,0.915,35.334,13.637,29.894,23.293,4.865,10.287,6.22
1072,0.931,35.104,13.638,29.962,23.293,4.865,10.245,6.139
1073,0.918,35.246,13.575,29.914,23.286,4.824,10.164,6.179
1074,0.925,35.353,13.629,29.885,23.279,4.743,10.0,6.057
1075,0.915,35.354,13.595,29.866,23.275,4.661,9.958,6.097
1076,0.909,35.018,13.637,29.904,23.282,4.822,9.917,6.138
1077,0.925,35.178,13.622,29.875,23.282,4.783,9.916,6.138
1078,0.912,35.275,13.649,29.894,23.286,4.742,9.835,6.138
1079,0.905,35.391,13.606,29.894,23.286,4.783,9.834,6.138
1080,0.912,35.134,13.524,29.866,23.279,4.783,9.794,6.098
1081,0.915,35.256,13.617,29.885,23.282,4.824,9.915,6.219
1082,0.918,35.391,13.544,29.914,23.293,4.946,9.957,6.261
1083,0.931,35.124,13.539,29.923,23.289,4.947,10.039,6.139
1084,0.948,35.169,13.566,29.895,23.286,4.866,9.958,6.098
1085,0.941,35.285,13.617,29.885,23.286,4.946,9.998,6.056
1086,0.958,35.363,13.641,29.904,23.282,4.825,9.958,6.137
1087,0.958,35.028,13.595,29.904,23.289,4.824,9.998,6.098
1088,0.964,35.149,13.622,29.895,23.286,4.905,10.08,6.138
1089,0.974,35.313,13.645,29.894,23.293,4.865,10.04,6.138
1090,0.971,35.373,13.575,29.894,23.279,4.784,9.877,6.016
1091,0.971,35.095,13.629,29.856,23.275,4.661,9.753,5.974
1092,0.968,35.236,13.587,29.875,23.286,4.782,9.833,6.096
1093,0.964,35.381,13.579,29.865,23.282,4.824,9.753,6.016
1094,0.964,35.45,13.61,29.885,23.275,4.743,9.752,6.056
1095,0.955,35.182,13.633,29.875,23.282,4.783,9.712,6.056
1096,0.945,35.323,13.614,29.856,23.279,4.742,9.711,5.975
1097,0.954,35.43,13.591,29.865,23.282,4.701,9.63,5.974
1098,0.951,35.489,13.641,29.856,23.279,4.823,9.67,6.096
1099,0.964,35.231,13.61,29.875,23.289,4.865,9.711,6.178
1100,0.984,35.41,13.583,29.904,23.3,4.987,9.711,6.098
1101,0.984,35.498,13.641,29.895,23.286,4.826,9.548,6.138
1102,0.978,35.509,13.571,29.894,23.282,4.824,9.466,6.057
1103,0.997,35.355,13.578,29.885,23.286,4.783,9.465,6.097
1104,1.013,35.478,13.59,29.875,23.286,4.864,9.383,6.056
1105,1.017,35.566,13.582,29.885,23.293,4.824,9.382,6.056
1106,1.023,35.893,13.629,29.885,23.286,4.824,9.382,6.097
1107,1.014,35.407,13.579,29.875,23.282,4.824,9.22,5.975
1108,1.027,35.537,13.637,29.865,23.279,4.702,9.096,5.933
1109,1.03,35.624,13.567,29.846,23.275,4.782,9.095,6.014
1110,1.046,35.481,13.59,29.856,23.282,4.783,9.095,6.056
1111,1.066,35.566,13.622,29.865,23.282,4.824,9.095,6.015
1112,1.082,35.692,13.618,29.894,23.282,4.783,9.014,5.974
1113,1.073,35.779,13.594,29.856,23.282,4.783,9.013,6.055
1114,1.066,35.492,13.583,29.856,23.282,4.702,8.972,5.934
1115,1.053,35.595,13.614,29.846,23.279,4.742,8.972,5.892
1116,1.047,35.74,13.583,29.875,23.282,4.823,8.972,6.095
1117,1.043,35.828,13.571,29.885,23.293,4.905,9.013,6.219
1118,1.05,35.761,13.664,29.894,23.293,4.865,8.972,6.058
1119,1.043,35.914,13.618,29.866,23.286,4.824,8.85,6.015
1120,1.027,36.021,13.567,29.865,23.286,4.783,8.849,6.056
1121,1.037,36.089,13.621,29.875,23.282,4.742,8.849,6.056
1122,1.037,35.764,13.532,29.856,23.286,4.823,8.889,6.056
1123,1.027,35.895,13.601,29.865,23.296,4.783,8.849,6.056
1124,1.05,36.021,13.563,29.875,23.286,4.905,8.808,5.975
1125,1.046,36.07,13.629,29.865,23.286,4.703,8.645,5.974
1126,1.043,35.917,13.598,29.837,23.275,4.66,8.603,5.933
1127,1.04,36.079,13.586,29.836,23.282,4.741,8.724,5.974
1128,1.056,36.186,13.649,29.846,23.286,4.864,8.644,6.015
1129,1.069,36.235,13.599,29.856,23.279,4.743,8.562,5.974
1130,1.069,36.015,13.606,29.837,23.282,4.742,8.602,5.974
1131,1.076,36.118,13.602,29.836,23.282,4.661,8.602,5.974
1132,1.092,36.224,13.497,29.836,23.279,4.66,8.643,5.852
1133,1.083,36.417,13.582,29.827,23.282,4.782,8.684,6.054
1134,1.079,36.208,13.602,29.865,23.296,4.905,8.766,6.137
1135,1.089,36.369,13.645,29.904,23.293,4.865,8.767,5.976
1136,1.079,36.438,13.587,29.847,23.286,4.784,8.685,5.974
1137,1.07,36.419,13.586,29.865,23.293,4.783,8.725,5.974
1138,1.076,36.477,13.653,29.846,23.289,4.824,8.726,6.015
1139,1.079,36.612,13.591,29.865,23.293,4.865,8.726,6.015
1140,1.073,36.69,13.59,29.856,23.289,4.824,8.766,6.096
1141,1.063,36.355,13.625,29.856,23.293,4.865,8.726,6.056
1142,1.069,36.476,13.563,29.846,23.279,4.743,8.644,5.934
1143,1.076,36.564,13.59,29.837,23.275,4.661,8.644,5.892
1144,1.066,36.651,13.567,29.836,23.279,4.741,8.725,5.973
1145,1.076,36.489,13.645,29.836,23.286,4.742,8.766,5.974
1146,1.083,36.612,13.567,29.846,23.286,4.783,8.767,5.933
1147,1.086,36.747,13.59,29.837,23.279,4.783,8.726,5.852
1148,1.086,36.806,13.618,29.846,23.279,4.661,8.807,5.932
1149,1.092,36.672,13.594,29.837,23.279,4.741,8.808,5.974
1150,1.099,36.796,13.571,29.827,23.282,4.701,8.808,6.015
1151,1.102,36.931,13.59,29.855,23.296,4.904,8.97,6.096
1152,1.128,37.019,13.614,29.923,23.293,4.865,8.85,6.056
1153,1.096,36.828,13.591,29.856,23.282,4.743,8.849,6.015
1154,1.083,36.96,13.618,29.827,23.286,4.742,8.849,5.974
1155,1.079,37.058,13.688,29.836,23.279,4.783,8.808,6.015
1156,1.066,37.106,13.622,29.836,23.289,4.824,8.889,6.015
1157,1.05,36.944,13.614,29.836,23.293,4.824,8.809,6.096
1158,1.037,37.048,13.665,29.836,23.286,4.824,8.767,6.016
1159,1.037,37.164,13.614,29.827,23.286,4.743,8.767,5.974
1160,1.014,37.146,13.587,29.808,23.279,4.661,8.767,5.933
1161,1.001,36.983,13.606,29.826,23.279,4.7,8.807,6.096
1162,1.007,37.144,13.551,29.836,23.286,4.823,8.808,6.056
1163,1.014,37.251,13.543,29.827,23.282,4.743,8.767,6.015
1164,1.014,37.147,13.582,29.817,23.282,4.742,8.726,5.974
1165,0.997,37.146,13.637,29.807,23.282,4.742,8.726,5.974
1166,0.994,37.261,13.61,29.817,23.275,4.661,8.766,5.974
1167,0.984,37.348,13.594,29.817,23.286,4.741,8.767,6.055
1168,0.991,37.177,13.629,29.836,23.3,4.986,8.848,6.178
1169,0.987,37.338,13.622,29.856,23.296,4.866,8.889,6.139
1170,0.991,37.435,13.606,29.827,23.293,4.743,8.809,6.057
1171,0.981,37.513,13.583,29.808,23.286,4.783,8.726,6.056
1172,0.974,37.101,13.594,29.817,23.286,4.742,8.644,6.056
1173,0.968,37.222,13.551,29.827,23.282,4.783,8.684,6.097
1174,0.948,37.357,13.613,29.836,23.3,4.783,8.766,6.016
1175,0.928,37.416,13.626,29.827,23.289,4.824,8.726,6.056
1176,0.931,37.302,13.626,29.827,23.282,4.783,8.644,5.975
1177,0.918,37.435,13.579,29.808,23.279,4.702,8.644,5.933
1178,0.892,37.503,13.625,29.769,23.279,4.66,8.684,5.974
1179,0.895,37.581,13.614,29.817,23.293,4.741,8.725,6.015
1180,0.882,37.371,13.575,29.817,23.282,4.701,8.685,6.015
1181,0.869,37.484,13.645,29.807,23.279,4.701,8.644,5.934
1182,0.856,37.6,13.548,29.817,23.279,4.701,8.644,5.974
1183,0.859,37.649,13.551,29.779,23.279,4.701,8.562,5.974
1184,0.833,38.282,13.551,29.797,23.286,4.742,8.643,6.055
1185,0.852,38.423,13.602,29.826,23.3,4.905,8.725,6.137
1186,0.862,38.549,13.626,29.846,23.3,4.825,8.644,6.098
1187,0.869,38.531,13.61,29.808,23.286,4.743,8.521,6.056
1188,0.856,37.035,13.622,29.807,23.282,4.783,8.601,6.056
1189,0.853,37.154,13.618,29.817,23.286,4.783,8.562,6.056
1190,0.853,37.27,13.594,29.817,23.293,4.702,8.602,6.097
1191,0.849,37.531,13.614,29.817,23.286,4.823,8.602,6.056
1192,0.84,37.706,13.598,29.875,23.293,4.865,8.562,6.056
1193,0.826,37.813,13.602,29.808,23.286,4.662,8.439,5.975
1194,0.81,37.881,13.61,29.769,23.275,4.741,8.357,5.933
1195,0.8,37.335,13.614,29.778,23.282,4.742,8.478,6.014
1196,0.79,37.445,13.61,29.778,23.282,4.701,8.438,5.974
1197,0.787,37.571,13.551,29.788,23.279,4.742,8.438,5.974
1198,0.784,37.668,13.617,29.778,23.279,4.742,8.479,6.015
1199,0.78,37.506,13.602,29.778,23.279,4.701,8.438,5.974
1200,0.78,37.638,13.575,29.797,23.279,4.742,8.519,6.015
1201,0.764,37.755,13.625,29.788,23.279,4.742,8.642,6.137
1202,0.767,37.842,13.567,29.817,23.293,4.823,8.725,6.179
1203,0.793,37.46,13.582,29.817,23.303,4.824,8.807,6.098
1204,0.793,37.599,13.582,29.798,23.283,4.743,8.726,6.056
1205,0.78,37.697,13.633,29.807,23.289,4.783,8.726,5.975
1206,0.774,37.746,13.649,29.788,23.286,4.783,8.807,6.055
1207,0.764,37.526,13.556,29.798,23.286,4.783,8.889,6.097
1208,0.764,37.658,13.609,29.817,23.286,4.824,8.93,6.138
1209,0.761,37.765,13.587,29.807,23.286,4.824,8.931,6.098
1210,0.777,37.814,13.621,29.798,23.293,4.743,8.972,6.016
1211,0.774,37.565,13.63,29.769,23.279,4.701,8.972,5.893
1212,0.758,37.668,13.575,29.759,23.279,4.701,8.931,5.973
1213,0.754,37.803,13.598,29.788,23.282,4.701,9.093,5.974
1214,0.748,37.824,13.583,29.798,23.286,4.701,9.014,5.974
1215,0.747,37.574,13.614,29.788,23.282,4.742,8.972,6.015
1216,0.738,37.697,13.594,29.778,23.282,4.701,8.972,5.974
1217,0.731,37.803,13.571,29.778,23.282,4.701,8.972,5.974
1218,0.731,37.756,13.637,29.778,23.279,4.701,9.013,5.974
1219,0.741,37.66,13.606,29.769,23.282,4.823,9.094,6.015
1220,0.744,37.793,13.59,29.817,23.293,4.905,9.136,6.137
1221,0.754,37.9,13.622,29.827,23.293,4.825,9.014,6.016
1222,0.748,37.546,13.567,29.779,23.279,4.743,8.932,6.056
1223,0.754,37.629,13.586,29.797,23.282,4.742,8.972,6.056
1224,0.754,37.735,13.598,29.778,23.282,4.742,8.931,6.097
1225,0.767,37.832,13.637,29.797,23.293,4.742,8.89,6.056
1226,0.774,37.527,13.602,29.788,23.289,4.823,8.89,6.097
1227,0.767,37.677,13.587,29.798,23.286,4.824,8.849,6.016
1228,0.774,37.774,13.618,29.798,23.286,4.743,8.767,5.974
1229,0.754,37.852,13.594,29.769,23.272,4.661,8.685,5.933
1230,0.751,37.354,13.602,29.759,23.272,4.619,8.725,6.014
1231,0.754,37.503,13.618,29.778,23.282,4.7,8.807,5.974
1232,0.757,37.658,13.614,29.845,23.282,4.701,8.767,5.974
1233,0.748,37.717,13.544,29.769,23.286,4.701,8.726,5.974
1234,0.744,37.554,13.586,29.778,23.282,4.701,8.685,5.974
1235,0.721,37.668,13.641,29.759,23.282,4.701,8.684,5.974
1236,0.721,37.793,13.595,29.759,23.279,4.66,8.725,6.015
1237,0.715,37.862,13.618,29.769,23.282,4.782,8.807,6.096
1238,0.721,37.517,13.641,29.817,23.3,4.824,8.889,6.097
1239,0.734,37.658,13.634,29.798,23.289,4.783,8.605,5.975
1240,0.712,37.736,13.571,29.798,23.286,4.742,8.684,5.974
1241,0.715,37.756,13.649,29.769,23.282,4.783,8.725,5.974
1242,0.724,37.526,13.528,29.778,23.282,4.742,8.685,5.974
1243,0.731,37.648,13.594,29.778,23.286,4.742,8.725,5.974
1244,0.741,37.755,13.614,29.788,23.293,4.742,8.766,6.055
1245,0.757,37.785,13.645,29.778,23.289,4.783,8.726,5.893
1246,0.751,37.555,13.606,29.778,23.282,4.62,8.685,5.811
1247,0.754,37.648,13.598,29.75,23.272,4.578,8.644,5.932
1248,0.767,37.745,13.575,29.759,23.286,4.74,8.765,5.933
1249,0.774,37.506,13.59,29.769,23.279,4.742,8.685,5.974
1250,0.767,37.571,13.614,29.759,23.282,4.742,8.684,5.852
1251,0.767,37.668,13.598,29.759,23.279,4.701,8.725,5.851
1252,0.774,37.784,13.563,29.759,23.279,4.66,8.685,5.851
1253,0.767,37.421,13.574,29.759,23.282,4.7,8.766,5.932
1254,0.761,37.542,13.606,29.778,23.293,4.701,8.889,6.055
1255,0.774,37.687,13.618,29.817,23.307,4.863,9.052,6.015
1256,0.774,37.765,13.637,29.788,23.286,4.743,8.891,5.974
1257,0.754,37.468,13.583,29.769,23.286,4.742,8.809,5.974
1258,0.744,37.609,13.618,29.759,23.286,4.783,8.848,5.893
1259,0.741,37.735,13.575,29.778,23.286,4.742,8.808,5.933
1260,0.728,37.794,13.578,29.769,23.286,4.701,8.767,5.974
1261,0.751,37.488,13.571,29.778,23.289,4.823,8.848,6.055
1262,0.741,37.638,13.602,29.788,23.293,4.743,8.767,5.975
1263,0.738,37.755,13.555,29.769,23.282,4.742,8.645,5.852
1264,0.747,37.766,13.551,29.721,23.279,4.661,8.644,5.851
1265,0.744,37.449,13.594,29.739,23.279,4.741,8.725,5.973
1266,0.77,37.619,13.606,29.768,23.282,4.742,8.644,5.933
1267,0.767,37.735,13.583,29.769,23.282,4.823,8.644,5.892
1268,0.777,37.746,13.594,29.749,23.279,4.743,8.684,5.892
1269,0.771,37.411,13.586,29.74,23.275,4.701,8.684,5.933
1270,0.777,37.541,13.59,29.73,23.279,4.701,8.603,5.852
1271,0.774,37.639,13.598,29.749,23.279,4.66,8.643,5.891
1272,0.787,37.889,13.61,29.749,23.289,4.822,8.806,6.095
1273,0.79,37.604,13.583,29.797,23.296,4.865,8.767,5.935
1274,0.787,37.726,13.582,29.778,23.283,4.743,8.645,5.933
1275,0.761,37.794,13.618,29.769,23.286,4.783,8.684,5.974
1276,0.748,37.545,13.583,29.769,23.282,4.742,8.684,5.933
1277,0.754,37.6,13.582,29.74,23.282,4.701,8.603,5.933
1278,0.757,37.716,13.606,29.74,23.289,4.742,8.643,5.974
1279,0.757,37.813,13.626,29.778,23.293,4.742,8.562,6.055
1280,0.748,37.421,13.575,29.759,23.289,4.783,8.521,5.934
1281,0.741,37.522,13.614,29.749,23.282,4.62,8.398,5.852
1282,0.721,37.61,13.54,29.74,23.279,4.7,8.356,5.973
1283,0.731,37.716,13.594,29.759,23.286,4.742,8.437,5.974
1284,0.751,37.334,13.579,29.749,23.286,4.742,8.438,5.974
1285,0.757,37.474,13.59,29.749,23.286,4.742,8.438,5.893
1286,0.757,37.561,13.594,29.74,23.289,4.701,8.357,5.933
1287,0.77,37.639,13.563,29.74,23.282,4.66,8.437,5.892
1288,0.77,37.342,13.582,29.73,23.279,4.741,8.479,5.933
1289,0.767,37.493,13.586,29.749,23.286,4.742,8.479,6.055
1290,0.777,37.629,13.606,29.778,23.296,4.905,8.52,5.975
1291,0.777,37.688,13.618,29.759,23.289,4.703,8.52,5.893
1292,0.777,37.391,13.618,29.74,23.286,4.742,8.317,6.054
1293,0.764,37.512,13.583,29.74,23.286,4.864,8.356,5.975
1294,0.767,37.638,13.621,29.759,23.282,4.784,8.356,6.015
1295,0.757,37.649,13.614,29.73,23.293,4.824,8.397,5.974
1296,0.761,37.534,13.598,29.73,23.289,4.824,8.356,6.015
1297,0.761,37.658,13.59,29.73,23.286,4.783,8.315,5.852
1298,0.761,37.745,13.618,29.711,23.272,4.62,8.193,5.729
1299,0.754,38.082,13.579,29.72,23.279,4.578,8.232,5.931
1300,0.748,37.433,13.543,29.739,23.286,4.781,8.273,5.974
1301,0.744,37.551,13.621,29.74,23.282,4.702,8.274,5.974
1302,0.738,37.639,13.524,29.749,23.282,4.742,8.274,5.974
1303,0.747,37.41,13.582,29.711,23.279,4.62,8.274,5.893
1304,0.751,37.417,13.602,29.739,23.279,4.7,8.274,5.851
1305,0.757,37.551,13.633,29.72,23.293,4.742,8.436,6.013
1306,0.764,37.639,13.606,29.739,23.296,4.823,8.601,6.056
1307,0.787,37.381,13.618,29.778,23.3,4.905,8.643,6.056
1308,0.787,37.464,13.61,29.74,23.283,4.784,8.644,6.015
1309,0.787,37.6,13.606,29.74,23.279,4.742,8.684,6.015
1310,0.784,37.668,13.555,29.74,23.279,4.783,8.684,5.934
1311,0.78,37.352,13.598,29.72,23.286,4.783,8.807,5.852
1312,0.79,37.503,13.594,29.739,23.286,4.783,8.889,5.932
1313,0.79,37.629,13.586,29.74,23.293,4.824,8.849,5.974
1314,0.771,37.697,13.614,29.74,23.286,4.783,8.808,5.893
1315,0.774,37.295,13.637,29.701,23.279,4.742,8.686,5.851
1316,0.761,37.425,13.622,29.701,23.268,4.661,8.766,5.891
1317,0.744,37.542,13.591,29.72,23.282,4.741,8.807,5.892
1318,0.754,37.6,13.622,29.72,23.279,4.823,8.808,5.851
1319,0.754,37.4,13.602,29.73,23.289,4.743,8.767,5.851
1320,0.744,37.532,13.559,29.73,23.282,4.742,8.767,5.891
1321,0.738,37.629,13.617,29.73,23.275,4.742,8.767,5.892
1322,0.725,37.678,13.524,29.711,23.272,4.701,8.767,5.811
1323,0.734,37.333,13.547,29.72,23.282,4.782,8.807,6.013
1324,0.741,37.464,13.59,29.749,23.289,4.864,8.889,6.015
1325,0.757,37.609,13.629,29.749,23.293,4.906,8.809,5.974
1326,0.757,37.63,13.61,29.73,23.289,4.784,8.808,5.893
1327,0.754,37.333,13.587,29.73,23.279,4.783,8.726,5.933
1328,0.767,37.474,13.629,29.739,23.286,4.783,8.685,5.892
1329,0.77,37.571,13.622,29.74,23.289,4.824,8.725,5.933
1330,0.787,37.409,13.591,29.72,23.282,4.824,8.726,5.974
1331,0.793,37.426,13.641,29.73,23.289,4.783,8.685,5.893
1332,0.774,37.542,13.563,29.739,23.282,4.824,8.603,5.892
1333,0.774,37.62,13.559,29.701,23.275,4.661,8.48,5.811
1334,0.758,37.304,13.551,29.691,23.279,4.7,8.52,5.972
1335,0.764,37.445,13.617,29.73,23.279,4.742,8.52,5.893
1336,0.754,37.571,13.606,29.72,23.279,4.701,8.561,5.892
1337,0.77,37.649,13.587,29.73,23.286,4.742,8.48,5.892
1338,0.748,37.573,13.629,29.711,23.279,4.701,8.438,5.811
1339,0.751,37.716,13.602,29.701,23.279,4.742,8.357,5.85
1340,0.741,37.823,13.567,29.71,23.289,4.823,8.437,5.932
1341,0.744,37.91,13.633,29.758,23.293,4.865,8.519,5.974
1342,0.757,37.096,13.54,29.797,23.303,4.865,8.52,5.893
1343,0.757,37.193,13.574,29.721,23.283,4.784,8.358,5.892
1344,0.748,37.29,13.567,29.72,23.286,4.742,8.315,5.933
1345,0.744,37.349,13.606,29.72,23.286,4.783,8.274,5.933
1346,0.751,37.34,13.579,29.73,23.289,4.824,8.233,5.933
1347,0.751,37.454,13.582,29.73,23.286,4.824,8.273,5.974
1348,0.754,37.599,13.59,29.73,23.289,4.865,8.233,5.974
1349,0.754,37.63,13.567,29.73,23.286,4.702,8.151,5.811
1350,0.751,37.16,13.61,29.692,23.272,4.66,8.028,5.728
1351,0.761,37.29,13.551,29.701,23.286,4.782,8.19,5.809
1352,0.767,37.435,13.602,29.71,23.289,4.783,8.151,5.891
1353,0.764,37.427,13.575,29.711,23.282,4.742,8.15,5.77
1354,0.764,37.292,13.629,29.72,23.282,4.742,8.028,5.85
1355,0.754,37.416,13.602,29.701,23.272,4.661,8.027,5.81
1356,0.741,37.513,13.614,29.701,23.282,4.782,8.109,5.85
1357,0.741,37.341,13.579,29.72,23.293,4.783,8.069,5.973
1358,0.751,37.291,13.637,29.749,23.3,4.864,8.109,5.933
1359,0.751,37.435,13.602,29.72,23.286,4.784,8.028,5.852
1360,0.721,37.484,13.602,29.73,23.282,4.783,7.987,5.891
1361,0.724,37.302,13.606,29.701,23.286,4.783,7.986,5.851
1362,0.705,37.425,13.59,29.72,23.279,4.824,8.027,5.891
1363,0.731,37.551,13.567,29.72,23.286,4.783,8.027,5.892
1364,0.738,37.629,13.59,29.72,23.289,4.783,8.068,5.892
1365,0.734,37.218,13.633,29.701,23.289,4.783,7.865,5.892
1366,0.731,37.338,13.575,29.682,23.282,4.783,7.822,5.77
1367,0.728,37.435,13.578,29.691,23.279,4.702,7.822,5.85
1368,0.728,37.523,13.563,29.701,23.282,4.823,7.822,5.81
1369,0.734,37.025,13.61,29.701,23.282,4.743,7.863,5.85
1370,0.751,37.173,13.614,29.71,23.282,4.783,7.863,5.769
1371,0.748,37.28,13.571,29.711,23.279,4.783,7.822,5.687
1372,0.751,37.358,13.574,29.691,23.282,4.702,7.741,5.768
1373,0.744,37.234,13.578,29.672,23.279,4.701,7.862,5.768
1374,0.725,37.367,13.602,29.691,23.286,4.823,7.863,5.891
1375,0.741,37.493,13.614,29.72,23.293,4.865,7.944,5.973
1376,0.734,37.571,13.575,29.739,23.296,4.824,7.783,5.852
1377,0.731,37.083,13.586,29.692,23.283,4.783,7.781,5.851
1378,0.734,37.231,13.645,29.691,23.282,4.742,7.781,5.81
1379,0.741,37.348,13.587,29.71,23.289,4.864,7.822,5.85
1380,0.725,37.349,13.59,29.72,23.293,4.824,7.903,5.891
1381,0.728,37.205,13.582,29.72,23.286,4.824,7.945,5.892
1382,0.725,37.348,13.536,29.701,23.293,4.824,7.945,5.933
1383,0.741,37.426,13.594,29.71,23.276,4.743,7.783,5.73
1384,0.738,37.312,13.598,29.672,23.279,4.661,7.781,5.646
1385,0.738,37.157,13.622,29.672,23.279,4.66,7.781,5.849
1386,0.744,37.299,13.587,29.71,23.282,4.782,7.862,5.81
1387,0.744,37.406,13.586,29.691,23.286,4.702,7.944,5.81
1388,0.747,37.1,13.629,29.672,23.282,4.742,7.945,5.728
1389,0.731,37.212,13.583,29.681,23.282,4.823,7.945,5.768
1390,0.741,37.309,13.586,29.681,23.279,4.702,7.945,5.647
1391,0.731,37.406,13.582,29.672,23.279,4.742,7.986,5.767
1392,0.747,36.976,13.59,29.71,23.289,4.905,8.149,5.972
1393,0.744,37.154,13.598,29.73,23.3,4.906,8.191,5.852
1394,0.751,37.261,13.602,29.711,23.293,4.703,8.192,5.81
1395,0.728,37.291,13.661,29.701,23.286,4.782,8.192,5.85
1396,0.721,37.138,13.607,29.71,23.282,4.824,8.192,5.891
1397,0.724,37.289,13.614,29.711,23.282,4.783,8.314,5.811
1398,0.728,37.396,13.645,29.701,23.293,4.864,8.274,5.81
1399,0.725,37.465,13.603,29.701,23.293,4.865,8.274,5.85
1400,0.715,37.111,13.59,29.691,23.286,4.743,8.314,5.81
1401,0.695,37.232,13.614,29.672,23.272,4.701,8.152,5.728
1402,0.695,37.319,13.563,29.672,23.279,4.701,8.191,5.809
1403,0.708,37.406,13.559,29.691,23.286,4.742,8.354,5.85
1404,0.724,37.11,13.582,29.691,23.286,4.783,8.275,5.851
1405,0.721,37.241,13.653,29.682,23.282,4.783,8.274,5.81
1406,0.711,37.338,13.614,29.681,23.286,4.783,8.274,5.81
1407,0.724,37.368,13.618,29.672,23.282,4.824,8.111,5.81
1408,0.718,36.975,13.583,29.672,23.279,4.702,8.191,5.85
1409,0.731,37.134,13.582,29.681,23.286,4.823,8.314,5.932
1410,0.744,37.251,13.559,29.71,23.296,4.865,8.356,5.974
1411,0.751,37.319,13.574,29.711,23.296,4.824,8.275,5.852
1412,0.751,37.195,13.582,29.663,23.293,4.824,8.193,5.891
1413,0.741,37.3,13.539,29.691,23.286,4.743,8.192,5.973
1414,0.734,37.387,13.637,29.682,23.282,4.783,8.192,5.933
1415,0.728,37.081,13.606,29.691,23.282,4.824,8.314,5.892
1416,0.718,37.183,13.633,29.701,23.293,4.783,8.274,5.933
1417,0.728,37.309,13.626,29.701,23.282,4.783,8.233,5.892
1418,0.734,37.378,13.63,29.691,23.286,4.783,8.151,5.811
1419,0.725,37.062,13.587,29.662,23.279,4.702,8.069,5.769
1420,0.705,37.174,13.547,29.662,23.279,4.823,8.191,5.85
1421,0.698,37.319,13.637,29.7,23.282,4.824,8.232,5.891
1422,0.705,37.426,13.579,29.701,23.282,4.743,8.192,5.892
1423,0.721,36.947,13.543,29.682,23.282,4.742,8.232,5.851
1424,0.724,37.067,13.586,29.662,23.279,4.701,8.273,5.851
1425,0.715,37.164,13.606,29.681,23.275,4.701,8.274,5.851
1426,0.715,37.242,13.61,29.681,23.275,4.742,8.314,5.891
1427,0.724,37.08,13.567,29.691,23.289,4.823,8.396,5.973
1428,0.734,37.241,13.625,29.72,23.293,4.905,8.6,6.015
1429,0.741,37.386,13.614,29.72,23.282,4.865,8.44,5.893
1430,0.734,37.378,13.559,29.692,23.286,4.784,8.519,5.851
1431,0.734,36.956,13.645,29.682,23.286,4.824,8.601,5.891
1432,0.712,37.096,13.614,29.691,23.286,4.783,8.643,5.933
1433,0.737,37.222,13.587,29.682,23.282,4.824,8.644,5.892
1434,0.731,37.233,13.598,29.691,23.289,4.865,8.603,5.973
1435,0.728,37.156,13.629,29.701,23.286,4.865,8.602,5.974
1436,0.721,37.261,13.638,29.691,23.279,4.702,8.48,5.852
1437,0.718,37.377,13.54,29.662,23.279,4.66,8.398,5.769
1438,0.711,37.426,13.598,29.662,23.282,4.7,8.478,5.972
1439,0.708,37.043,13.567,29.681,23.289,4.823,8.479,5.974
1440,0.698,37.164,13.571,29.672,23.279,4.824,8.438,5.974
1441,0.711,37.261,13.633,29.691,23.282,4.824,8.438,5.933
1442,0.698,37.08,13.556,29.682,23.279,4.824,8.438,6.014
1443,0.685,37.126,13.563,29.653,23.275,4.783,8.357,6.015
1444,0.695,37.261,13.555,29.672,23.282,4.702,8.437,6.056
1445,0.714,37.358,13.617,29.691,23.293,4.863,8.56,6.056
1446,0.724,36.946,13.598,29.739,23.3,4.946,8.48,6.056
1447,0.731,37.067,13.559,29.711,23.293,4.825,8.357,6.056
1448,0.734,37.154,13.582,29.682,23.289,4.824,8.356,6.056
1449,0.738,37.251,13.563,29.691,23.279,4.824,8.356,6.097
1450,0.76,36.974,13.594,29.682,23.293,4.824,8.275,6.056
1451,0.761,37.077,13.602,29.701,23.293,4.865,8.314,6.097
1452,0.761,37.231,13.622,29.682,23.293,4.865,8.274,6.056
1453,0.751,37.3,13.579,29.672,23.286,4.784,8.233,5.975
1454,0.731,37.397,13.567,29.662,23.272,4.702,8.151,6.015
1455,0.712,37.503,13.629,29.653,23.279,4.782,8.15,6.056
1456,0.724,37.658,13.595,29.681,23.286,4.742,8.273,6.015
1457,0.715,37.697,13.59,29.681,23.282,4.783,8.152,6.015
1458,0.708,36.758,13.59,29.672,23.282,4.742,8.11,6.015
1459,0.705,36.902,13.586,29.662,23.286,4.742,8.069,6.015
1460,0.698,36.999,13.559,29.662,23.279,4.701,8.109,6.015
1461,0.688,37.029,13.606,29.662,23.272,4.66,7.987,6.015
1462,0.692,36.982,13.594,29.71,23.286,4.863,8.23,6.137
1463,0.714,37.125,13.614,29.72,23.293,4.906,8.151,6.138
1464,0.724,37.251,13.583,29.692,23.293,4.784,8.069,6.098
1465,0.724,37.559,13.618,29.662,23.286,4.783,7.987,6.016
1466,0.728,37.006,13.571,29.681,23.282,4.824,8.027,6.096
1467,0.738,37.115,13.574,29.672,23.289,4.824,7.946,6.016
1468,0.757,37.222,13.598,29.681,23.286,4.783,7.986,6.137
1469,0.748,37.031,13.61,29.681,23.293,4.864,7.986,6.057
1470,0.747,37.049,13.602,29.672,23.289,4.824,7.986,6.056
1471,0.76,37.174,13.618,29.681,23.286,4.743,7.864,6.015
1472,0.748,37.261,13.602,29.653,23.272,4.701,7.782,5.974
1473,0.741,36.955,13.536,29.652,23.282,4.701,7.944,6.015
1474,0.738,37.086,13.621,29.662,23.286,4.782,7.823,6.015
1475,0.731,37.222,13.641,29.662,23.286,4.783,7.781,6.015
1476,0.725,37.29,13.61,29.681,23.286,4.783,7.781,6.056
1477,0.724,36.812,13.583,29.672,23.282,4.742,7.7,6.056
1478,0.711,36.941,13.61,29.653,23.279,4.783,7.699,6.056
1479,0.708,37.067,13.59,29.662,23.286,4.742,7.74,6.137
1480,0.705,37.164,13.602,29.681,23.293,4.905,7.862,6.26
1481,0.702,37.05,13.614,29.71,23.296,4.987,7.782,6.139
1482,0.714,37.212,13.614,29.691,23.286,4.785,7.659,6.138
1483,0.708,37.271,13.551,29.672,23.279,4.864,7.617,6.138
1484,0.718,37.3,13.606,29.672,23.282,4.824,7.698,6.016
1485,0.715,36.908,13.653,29.672,23.289,4.824,7.618,6.178
1486,0.734,37.047,13.614,29.691,23.289,4.783,7.617,6.098
1487,0.728,37.174,13.645,29.691,23.289,4.864,7.617,6.138
1488,0.747,37.184,13.599,29.672,23.296,4.743,7.576,6.057
1489,0.731,36.897,13.586,29.672,23.276,4.62,7.454,5.934
1490,0.728,36.99,13.571,29.643,23.272,4.659,7.534,6.014
1491,0.738,37.125,13.59,29.643,23.279,4.741,7.575,5.974
1492,0.764,37.165,13.582,29.681,23.286,4.823,7.535,5.974
1493,0.751,37.079,13.551,29.672,23.279,4.743,7.453,6.015
1494,0.738,37.183,13.613,29.653,23.282,4.701,7.452,5.974
1495,0.728,37.28,13.633,29.652,23.279,4.701,7.452,5.974
1496,0.715,36.888,13.638,29.652,23.275,4.742,7.452,6.015
1497,0.715,36.836,13.622,29.672,23.286,4.823,7.574,6.137
1498,0.708,36.999,13.63,29.72,23.296,4.824,7.657,6.179
1499,0.711,37.096,13.63,29.682,23.286,4.824,7.536,6.057
1500,0.718,36.781,13.583,29.662,23.279,4.783,7.534,6.097
1501,0.711,36.902,13.606,29.672,23.282,4.783,7.534,6.056
1502,0.692,37.028,13.571,29.681,23.282,4.783,7.534,6.056
1503,0.705,37.116,13.52,29.681,23.282,4.824,7.534,6.056
1504,0.718,36.896,13.574,29.672,23.293,4.824,7.534,6.056
1505,0.721,37.047,13.598,29.681,23.289,4.824,7.494,5.975
1506,0.734,37.164,13.602,29.672,23.279,4.702,7.453,5.811
1507,0.728,37.184,13.559,29.634,23.275,4.742,7.534,6.054
1508,0.734,36.753,13.582,29.671,23.282,4.742,7.697,6.015
1509,0.741,36.912,13.578,29.662,23.286,4.742,7.699,5.974
1510,0.744,37.019,13.602,29.653,23.279,4.701,7.821,5.974
1511,0.741,37.077,13.54,29.652,23.282,4.742,7.863,5.893
1512,0.741,36.829,13.543,29.652,23.279,4.701,8.026,5.892
1513,0.725,36.96,13.559,29.652,23.279,4.701,8.19,5.973
1514,0.718,37.058,13.633,29.662,23.289,4.823,8.476,6.096
1515,0.737,37.135,13.579,29.691,23.293,4.946,8.601,6.056
1516,0.731,36.848,13.602,29.701,23.286,4.785,8.602,6.015
1517,0.712,36.961,13.567,29.663,23.289,4.742,8.684,5.934
1518,0.711,37.058,13.621,29.653,23.293,4.783,8.807,5.974
1519,0.708,37.097,13.602,29.672,23.286,4.824,8.93,5.974
1520,0.705,36.858,13.587,29.653,23.293,4.824,9.012,6.137
1521,0.702,36.989,13.61,29.672,23.286,4.865,9.054,6.016
1522,0.701,37.096,13.606,29.672,23.286,4.824,9.135,5.974
1523,0.711,36.905,13.583,29.662,23.282,4.743,8.974,5.974
1524,0.721,36.836,13.602,29.653,23.275,4.701,8.972,5.852
1525,0.708,36.951,13.614,29.643,23.279,4.742,9.094,5.973
1526,0.737,37.077,13.606,29.672,23.286,4.742,9.136,5.974
1527,0.747,36.675,13.555,29.662,23.279,4.783,9.177,5.933
1528,0.741,36.748,13.586,29.653,23.279,4.742,9.055,5.892
1529,0.744,36.912,13.61,29.672,23.279,4.661,9.176,5.933
1530,0.744,36.98,13.555,29.643,23.279,4.741,9.055,5.892
1531,0.754,36.617,13.598,29.652,23.279,4.783,9.095,5.973
1532,0.764,36.795,13.579,29.672,23.293,4.824,9.176,6.096
1533,0.767,36.922,13.567,29.701,23.307,4.865,9.137,6.056
1534,0.767,37.0,13.637,29.682,23.286,4.865,9.014,6.015
1535,0.761,36.617,13.638,29.653,23.286,4.743,8.972,5.974
1536,0.735,36.766,13.622,29.681,23.289,4.823,9.013,6.015
1537,0.734,36.902,13.587,29.681,23.282,4.783,8.972,5.974
1538,0.725,36.961,13.645,29.662,23.286,4.824,8.972,5.974
1539,0.724,36.645,13.575,29.662,23.286,4.824,9.013,6.015
1540,0.721,36.786,13.594,29.662,23.286,4.783,8.972,5.934
1541,0.702,36.883,13.61,29.653,23.279,4.783,8.891,5.852
1542,0.688,36.923,13.583,29.652,23.272,4.62,8.89,5.81
1543,0.688,36.722,13.586,29.652,23.282,4.781,9.052,5.85
1544,0.708,36.854,13.575,29.662,23.286,4.783,9.013,5.891
1545,0.715,36.951,13.625,29.653,23.279,4.702,9.013,5.851
1546,0.718,36.962,13.587,29.662,23.279,4.742,9.013,5.932
1547,0.721,36.645,13.59,29.643,23.282,4.742,8.972,5.811
1548,0.715,36.728,13.571,29.652,23.279,4.701,9.013,5.972
1549,0.724,36.873,13.574,29.652,23.282,4.823,9.054,6.015
1550,0.744,36.759,13.61,29.681,23.293,4.946,9.135,6.015
1551,0.767,36.662,13.59,29.681,23.286,4.866,9.055,5.852
1552,0.77,36.767,13.559,29.662,23.279,4.784,9.054,5.973
1553,0.751,36.873,13.57,29.672,23.286,4.824,9.013,5.933
1554,0.735,36.568,13.614,29.681,23.286,4.783,9.054,5.892
1555,0.747,36.641,13.645,29.672,23.289,4.824,9.013,6.014
1556,0.731,36.786,13.618,29.672,23.289,4.905,9.094,5.974
1557,0.738,36.874,13.602,29.672,23.289,4.865,9.014,5.933
1558,0.715,36.568,13.598,29.643,23.289,4.662,8.932,5.77
1559,0.695,36.699,13.551,29.643,23.282,4.66,8.972,5.85
1560,0.714,36.825,13.586,29.643,23.286,4.822,9.135,5.973
1561,0.724,36.912,13.563,29.662,23.293,4.783,9.055,5.893
1562,0.721,36.463,13.574,29.653,23.282,4.783,9.054,5.892
1563,0.741,36.611,13.582,29.643,23.279,4.702,9.054,5.933
1564,0.751,36.738,13.606,29.643,23.279,4.701,9.013,5.852
1565,0.731,36.768,13.622,29.643,23.279,4.66,8.972,5.891
1566,0.747,36.586,13.595,29.643,23.282,4.782,9.013,5.933
1567,0.754,36.757,13.598,29.681,23.289,4.824,9.094,6.096
1568,0.761,36.893,13.594,29.701,23.296,4.865,9.014,5.935
1569,0.748,36.923,13.543,29.653,23.283,4.784,8.932,5.933
1570,0.754,36.405,13.609,29.652,23.282,4.742,8.89,5.892
1571,0.751,36.534,13.571,29.652,23.286,4.783,8.93,5.933
1572,0.757,36.651,13.582,29.672,23.289,4.864,8.85,5.892
1573,0.751,36.671,13.602,29.662,23.289,4.824,8.93,5.973
1574,0.741,36.518,13.629,29.662,23.293,4.824,8.89,5.974
1575,0.741,36.641,13.634,29.643,23.286,4.743,8.809,5.893
1576,0.734,36.738,13.599,29.652,23.279,4.661,8.767,5.811
1577,0.721,36.691,13.586,29.643,23.279,4.782,8.767,5.972
1578,0.737,36.508,13.606,29.643,23.286,4.783,8.767,5.811
1579,0.734,36.65,13.587,29.652,23.282,4.783,8.685,5.891
1580,0.718,36.748,13.586,29.672,23.282,4.783,8.644,5.892
1581,0.721,36.48,13.571,29.634,23.282,4.742,8.603,5.851
1582,0.721,36.573,13.574,29.643,23.279,4.742,8.602,5.891
1583,0.721,36.689,13.582,29.652,23.289,4.783,8.643,6.014
1584,0.741,36.815,13.594,29.672,23.3,4.905,8.684,6.056
1585,0.744,45.245,13.653,29.681,23.293,4.825,8.562,5.934
1586,0.738,45.512,13.583,29.672,23.279,4.824,8.48,5.974
1587,0.747,45.533,13.598,29.672,23.282,4.743,8.56,5.933
1588,0.734,45.524,13.563,29.662,23.282,4.823,8.48,5.974
1589,0.744,32.272,13.598,29.662,23.279,4.702,8.398,5.974
1590,0.757,32.368,13.61,29.672,23.286,4.863,8.478,5.893
1591,0.767,32.562,13.583,29.662,23.289,4.824,8.398,5.892
1592,0.761,32.708,13.606,29.662,23.279,4.743,8.234,5.77
1593,0.735,37.878,13.52,29.614,23.272,4.701,8.192,5.768
1594,0.721,38.036,13.621,29.652,23.279,4.701,8.314,5.891
1595,0.731,38.152,13.622,29.643,23.282,4.742,8.315,5.892
1596,0.734,38.182,13.614,29.643,23.286,4.783,8.234,5.851
1597,0.718,35.593,13.598,29.633,23.279,4.742,8.151,5.891
1598,0.718,35.711,13.614,29.643,23.279,4.661,8.232,5.811
1599,0.705,35.837,13.598,29.643,23.279,4.66,8.192,5.81
1600,0.705,35.896,13.626,29.643,23.275,4.782,8.314,6.013
1601,0.711,36.472,13.595,29.681,23.293,4.905,8.437,6.056
1602,0.721,36.631,13.625,29.681,23.293,4.865,8.357,5.893
1603,0.724,36.719,13.528,29.653,23.286,4.784,8.356,5.851
1604,0.724,36.758,13.582,29.662,23.279,4.742,8.437,5.891
1605,0.734,36.173,13.59,29.633,23.286,4.783,8.438,5.892
1606,0.747,36.302,13.571,29.671,23.282,4.824,8.519,5.933
1607,0.747,36.399,13.567,29.634,23.289,4.783,8.479,5.852
1608,0.757,36.256,13.563,29.671,23.282,4.864,8.601,5.891
1609,0.748,36.351,13.602,29.662,23.289,4.784,8.562,5.77
1610,0.751,36.438,13.587,29.614,23.279,4.661,8.439,5.687
1611,0.748,36.515,13.579,29.614,23.279,4.7,8.56,5.809
1612,0.754,36.104,13.586,29.642,23.279,4.782,8.602,5.81
1613,0.741,36.243,13.582,29.643,23.282,4.742,8.602,5.81
1614,0.738,36.379,13.602,29.643,23.286,4.742,8.562,5.85
1615,0.721,36.419,13.606,29.633,23.282,4.742,8.561,5.769
1616,0.721,36.18,13.567,29.624,23.279,4.864,8.602,5.768
1617,0.708,36.302,13.586,29.643,23.279,4.702,8.602,5.809
1618,0.708,36.428,13.61,29.643,23.282,4.904,8.684,5.972
1619,0.724,36.525,13.622,29.681,23.293,4.865,8.766,6.015
1620,0.715,36.209,13.591,29.662,23.293,4.906,8.726,5.893
1621,0.702,36.302,13.614,29.643,23.282,4.744,8.603,5.892
1622,0.688,36.418,13.614,29.652,23.279,4.823,8.521,5.973
1623,0.721,36.477,13.575,29.643,23.286,4.865,8.601,5.893
1624,0.728,36.161,13.621,29.633,23.286,4.824,8.602,5.933
1625,0.718,36.282,13.634,29.643,23.282,4.824,8.602,5.974
1626,0.741,36.418,13.599,29.652,23.282,4.865,8.562,5.933
1627,0.738,36.438,13.594,29.662,23.279,4.743,8.439,5.933
1628,0.738,36.17,13.583,29.624,23.279,4.661,8.357,5.811
1629,0.734,36.292,13.567,29.604,23.272,4.741,8.397,5.891
1630,0.744,36.437,13.59,29.652,23.286,4.742,8.316,5.851
1631,0.757,36.784,13.602,29.633,23.282,4.783,8.315,5.769
1632,0.761,36.231,13.575,29.643,23.279,4.702,8.315,5.891
1633,0.741,36.341,13.571,29.633,23.279,4.742,8.315,5.811
1634,0.734,36.438,13.614,29.624,23.282,4.62,8.315,5.891
1635,0.731,36.17,13.606,29.643,23.279,4.741,8.437,5.892
1636,0.708,36.206,13.594,29.643,23.289,4.783,8.479,5.973
1637,0.728,36.36,13.598,29.681,23.296,4.905,8.52,6.015
1638,0.731,36.476,13.633,29.653,23.283,4.825,8.479,5.852
1639,0.721,36.094,13.587,29.643,23.289,4.865,8.479,5.891
1640,0.721,36.215,13.575,29.643,23.286,4.824,8.52,5.892
1641,0.728,36.321,13.629,29.643,23.282,4.783,8.561,5.973
1642,0.721,36.428,13.575,29.652,23.282,4.824,8.561,5.974
1643,0.724,36.055,13.586,29.643,23.289,4.824,8.602,5.974
1644,0.741,36.157,13.571,29.652,23.286,4.824,8.643,5.852
1645,0.741,36.273,13.629,29.643,23.275,4.702,8.399,5.81
1646,0.747,36.322,13.571,29.604,23.272,4.701,8.438,5.81
1647,0.741,35.958,13.586,29.642,23.282,4.782,8.519,5.85
1648,0.747,36.117,13.559,29.662,23.282,4.824,8.561,5.932
1649,0.747,36.234,13.582,29.643,23.286,4.743,8.48,5.852
1650,0.764,36.283,13.629,29.624,23.279,4.783,8.479,5.81
1651,0.761,36.015,13.505,29.633,23.279,4.742,8.438,5.81
1652,0.754,36.166,13.558,29.624,23.286,4.742,8.479,5.891
1653,0.751,36.273,13.57,29.633,23.286,4.823,8.601,5.973
1654,0.744,36.341,13.633,29.671,23.303,4.905,8.724,6.015
1655,0.734,36.073,13.606,29.653,23.293,4.825,8.603,5.974
1656,0.721,36.166,13.59,29.652,23.286,4.783,8.643,5.933
1657,0.721,36.283,13.602,29.624,23.289,4.864,8.684,5.933
1658,0.734,36.303,13.622,29.643,23.286,4.824,8.725,5.933
1659,0.734,36.092,13.571,29.662,23.289,4.824,8.766,5.974
1660,0.734,36.215,13.606,29.653,23.282,4.783,8.848,6.015
1661,0.728,36.312,13.563,29.662,23.282,4.864,8.767,5.974
1662,0.718,36.159,13.574,29.653,23.286,4.784,8.645,5.852
1663,0.737,36.139,13.578,29.633,23.279,4.661,8.644,5.81
1664,0.738,36.225,13.621,29.624,23.279,4.782,8.725,5.85
1665,0.747,36.35,13.637,29.643,23.286,4.783,8.726,5.891
1666,0.751,35.795,13.634,29.652,23.286,4.783,8.726,5.892
1667,0.761,35.895,13.595,29.652,23.279,4.742,8.685,5.933
1668,0.774,36.021,13.583,29.633,23.279,4.742,8.725,5.892
1669,0.79,36.128,13.559,29.624,23.275,4.661,8.644,5.811
1670,0.777,35.908,13.621,29.614,23.282,4.741,8.644,5.972
1671,0.78,36.059,13.559,29.642,23.286,4.864,8.765,5.974
1672,0.79,36.233,13.582,29.672,23.293,4.906,8.726,6.015
1673,0.787,36.312,13.602,29.662,23.286,4.825,8.603,6.015
1674,0.764,35.824,13.614,29.633,23.282,4.824,8.643,5.934
1675,0.764,35.963,13.622,29.643,23.282,4.905,8.644,5.974
1676,0.751,36.079,13.571,29.643,23.286,4.825,8.644,5.893
1677,0.761,36.138,13.606,29.672,23.286,4.743,8.684,5.973
1678,0.77,35.947,13.618,29.653,23.286,4.823,8.684,5.974
1679,0.774,36.108,13.606,29.662,23.286,4.783,8.684,5.933
1680,0.777,36.215,13.575,29.643,23.275,4.742,8.603,5.852
1681,0.79,36.225,13.551,29.624,23.272,4.661,8.562,5.891
1682,0.78,35.861,13.57,29.643,23.286,4.863,8.724,5.973
1683,0.803,36.011,13.547,29.643,23.286,4.743,8.685,5.933
1684,0.807,36.118,13.609,29.643,23.282,4.823,8.684,5.974
1685,0.826,36.109,13.637,29.633,23.282,4.743,8.603,5.852
1686,0.833,35.908,13.575,29.633,23.279,4.783,8.602,5.851
1687,0.846,36.04,13.567,29.624,23.275,4.742,8.602,5.891
1688,0.84,36.118,13.574,29.652,23.286,4.701,8.765,6.014
1689,0.826,35.975,13.555,29.652,23.293,4.904,8.767,6.056
1690,0.852,35.955,13.652,29.672,23.282,4.865,8.726,6.015
1691,0.846,36.041,13.567,29.624,23.289,4.784,8.644,5.934
1692,0.843,36.157,13.606,29.633,23.282,4.783,8.684,6.014
1693,0.839,35.822,13.54,29.643,23.282,4.864,8.562,5.934
1694,0.826,35.924,13.609,29.643,23.286,4.865,8.643,6.014
1695,0.823,36.05,13.61,29.643,23.286,4.824,8.684,6.056
1696,0.82,36.157,13.567,29.652,23.293,4.865,8.644,6.015
1697,0.826,35.86,13.582,29.643,23.286,4.743,8.684,5.934
1698,0.826,35.973,13.567,29.624,23.272,4.742,8.603,5.811
1699,0.813,36.079,13.567,29.614,23.272,4.783,8.684,5.972
1700,0.826,36.186,13.598,29.642,23.282,4.783,8.807,5.933
1701,0.823,35.928,13.567,29.633,23.275,4.824,8.808,5.892
1702,0.82,36.088,13.582,29.652,23.286,4.743,8.767,6.014
1703,0.826,36.195,13.575,29.624,23.282,4.661,8.767,5.934
1704,0.833,36.244,13.606,29.623,23.279,4.741,8.726,5.852
1705,0.843,35.746,13.602,29.604,23.279,4.701,8.848,6.054
1706,0.846,35.885,13.547,29.642,23.289,4.823,8.93,6.097
1707,0.84,36.05,13.59,29.672,23.293,4.946,9.053,6.056
1708,0.859,36.08,13.532,29.662,23.293,4.866,8.851,5.975
1709,0.866,35.802,13.59,29.653,23.289,4.743,8.849,6.015
1710,0.885,35.914,13.618,29.624,23.282,4.823,8.808,5.934
1711,0.892,36.05,13.559,29.643,23.286,4.824,8.767,5.974
1712,0.899,36.051,13.617,29.643,23.282,4.865,8.889,6.015
1713,0.886,35.936,13.598,29.633,23.286,4.865,8.93,5.974
1714,0.872,36.05,13.653,29.652,23.289,4.865,8.809,5.974
1715,0.866,36.138,13.567,29.624,23.272,4.743,8.848,5.893
1716,0.853,35.975,13.567,29.604,23.272,4.661,8.889,6.014
1717,0.827,35.868,13.574,29.623,23.286,4.782,8.93,5.974
1718,0.83,36.011,13.567,29.614,23.293,4.742,9.093,5.974
1719,0.81,36.108,13.59,29.633,23.276,4.823,9.136,5.974
1720,0.803,35.783,13.579,29.614,23.279,4.783,9.136,5.974
1721,0.816,35.866,13.59,29.623,23.279,4.742,9.136,5.933
1722,0.807,35.973,13.606,29.614,23.279,4.742,9.258,5.974
1723,0.816,36.079,13.548,29.623,23.286,4.823,9.463,6.096
1724,0.829,35.802,13.621,29.662,23.293,4.987,9.546,6.097
1725,0.849,35.943,13.649,29.643,23.293,4.866,9.384,6.056
1726,0.84,36.06,13.618,29.643,23.286,4.865,9.464,6.056
1727,0.836,36.128,13.587,29.643,23.289,4.824,9.465,6.015
1728,0.83,35.63,13.575,29.633,23.282,4.865,9.465,6.015
1729,0.843,35.798,13.614,29.662,23.282,4.824,9.424,6.015
1730,0.856,35.905,13.598,29.643,23.286,4.865,9.464,6.137
1731,0.836,35.973,13.598,29.643,23.282,4.906,9.465,6.016
1732,0.83,35.734,13.586,29.643,23.282,4.865,9.343,5.771
1733,0.804,35.856,13.536,29.614,23.279,4.702,9.219,5.972
1734,0.79,35.934,13.582,29.623,23.282,4.823,9.34,6.015
1735,0.784,36.021,13.629,29.633,23.282,4.865,9.342,5.974
1736,0.767,35.629,13.626,29.633,23.286,4.824,9.342,6.015
1737,0.761,35.798,13.618,29.624,23.282,4.824,9.219,5.934
1738,0.757,35.876,13.606,29.614,23.286,4.743,9.218,5.892
1739,0.757,35.925,13.59,29.604,23.279,4.783,9.218,5.973
1740,0.738,35.781,13.575,29.623,23.282,4.864,9.259,6.055
1741,0.734,35.914,13.629,29.652,23.293,4.946,9.341,6.178
1742,0.738,36.069,13.602,29.672,23.296,4.947,9.301,6.098
1743,0.715,35.994,13.583,29.634,23.286,4.866,9.178,6.056
1744,0.708,35.753,13.586,29.643,23.289,4.824,9.096,5.975
1745,0.705,35.885,13.625,29.624,23.279,4.865,9.095,6.055
1746,0.718,36.002,13.641,29.643,23.286,4.865,9.054,6.056
1747,0.711,35.705,13.579,29.643,23.286,4.906,9.013,6.056
1748,0.715,35.789,13.586,29.643,23.286,4.947,9.013,6.097
1749,0.721,35.934,13.571,29.643,23.286,4.785,8.85,5.975
1750,0.728,36.002,13.594,29.595,23.275,4.702,8.808,5.852
1751,0.731,35.6,13.567,29.604,23.279,4.782,8.848,6.013
1752,0.738,35.797,13.586,29.642,23.282,4.824,8.889,5.974
1753,0.718,35.924,13.555,29.624,23.279,4.824,8.809,6.055
1754,0.705,35.992,13.598,29.623,23.282,4.783,8.808,5.975
1755,0.708,35.542,13.61,29.614,23.279,4.783,8.767,5.893
1756,0.682,35.701,13.606,29.604,23.279,4.783,8.767,6.014
1757,0.666,35.837,13.559,29.623,23.279,4.905,8.929,6.096
1758,0.669,35.924,13.625,29.681,23.3,4.987,8.931,6.138
1759,0.672,35.676,13.575,29.653,23.286,4.866,8.687,6.016
1760,0.646,35.789,13.614,29.624,23.286,4.824,8.807,6.015
1761,0.642,35.895,13.606,29.623,23.282,4.865,8.726,6.096
1762,0.626,35.954,13.606,29.643,23.279,4.784,8.766,6.056
1763,0.645,35.705,13.563,29.633,23.289,4.824,8.685,6.056
1764,0.662,35.846,13.563,29.643,23.293,4.905,8.725,6.137
1765,0.659,35.944,13.625,29.652,23.296,4.865,8.685,6.057
1766,0.669,35.973,13.575,29.643,23.286,4.784,8.603,5.934
1767,0.669,35.6,13.582,29.604,23.272,4.661,8.602,5.974
1768,0.659,35.721,13.563,29.623,23.282,4.822,8.684,6.015
1769,0.682,35.875,13.586,29.633,23.286,4.824,8.603,6.096
1770,0.682,36.021,13.618,29.643,23.275,4.824,8.48,6.056
1771,0.682,35.811,13.54,29.624,23.279,4.743,8.56,6.015
1772,0.698,35.924,13.566,29.633,23.282,4.783,8.48,5.974
1773,0.682,36.021,13.59,29.614,23.275,4.742,8.56,6.015
1774,0.675,35.571,13.614,29.633,23.279,4.823,8.521,6.137
1775,0.682,35.624,13.606,29.652,23.296,4.905,8.723,6.219
1776,0.685,35.778,13.61,29.662,23.296,4.865,8.603,6.058
1777,0.675,35.838,13.622,29.633,23.279,4.824,8.602,6.056
1778,0.659,35.589,13.618,29.633,23.286,4.824,8.602,6.015
1779,0.659,35.749,13.591,29.633,23.289,4.824,8.643,6.056
1780,0.643,35.876,13.602,29.643,23.282,4.865,8.644,6.137
1781,0.646,35.954,13.606,29.652,23.286,4.824,8.562,6.138
1782,0.646,35.504,13.614,29.643,23.293,4.824,8.561,5.976
1783,0.655,35.643,13.563,29.614,23.282,4.743,8.439,5.974
1784,0.655,35.74,13.567,29.623,23.279,4.783,8.519,6.055
1785,0.678,35.818,13.621,29.633,23.282,4.783,8.561,6.056
1786,0.685,35.55,13.591,29.633,23.282,4.824,8.521,6.056
1787,0.682,35.701,13.586,29.633,23.282,4.743,8.52,6.015
1788,0.688,35.808,13.575,29.624,23.282,4.783,8.561,6.015
1789,0.685,35.867,13.575,29.614,23.275,4.702,8.48,5.974
1790,0.685,35.541,13.575,29.633,23.286,4.782,8.56,6.055
1791,0.698,35.701,13.582,29.633,23.296,4.824,8.805,6.178
1792,0.695,35.837,13.598,29.681,23.3,4.946,8.848,6.098
1793,0.695,35.896,13.563,29.624,23.286,4.866,8.767,6.016
1794,0.675,35.57,13.602,29.623,23.279,4.865,8.726,6.096
1795,0.672,35.701,13.637,29.633,23.286,4.865,8.726,6.097
1796,0.672,35.798,13.599,29.643,23.286,4.906,8.807,6.016
1797,0.678,36.154,13.571,29.643,23.286,4.906,8.767,6.096
1798,0.682,35.602,13.574,29.633,23.286,4.865,8.767,6.097
1799,0.679,35.73,13.598,29.643,23.289,4.824,8.645,6.097
1800,0.669,35.837,13.571,29.633,23.279,4.783,8.562,5.975
1801,0.649,35.522,13.582,29.595,23.275,4.702,8.521,6.015
1802,0.655,35.586,13.59,29.633,23.282,4.823,8.642,6.015
1803,0.668,35.721,13.582,29.643,23.286,4.824,8.644,6.056
1804,0.682,35.818,13.621,29.624,23.279,4.824,8.644,6.056
1805,0.682,35.464,13.618,29.623,23.282,4.783,8.603,6.015
1806,0.695,35.623,13.587,29.623,23.279,4.783,8.521,5.974
1807,0.695,35.74,13.575,29.623,23.279,4.702,8.561,5.974
1808,0.685,35.808,13.555,29.643,23.286,4.823,8.602,6.137
1809,0.698,35.435,13.578,29.652,23.293,4.946,8.643,6.179
1810,0.721,35.585,13.594,29.624,23.286,4.907,8.521,6.057
1811,0.711,35.663,13.567,29.623,23.282,4.865,8.52,6.015
1812,0.702,35.769,13.582,29.633,23.282,4.784,8.479,6.137
1813,0.695,35.531,13.571,29.614,23.286,4.824,8.438,6.098
1814,0.695,35.662,13.653,29.642,23.282,4.865,8.519,6.016
1815,0.692,35.74,13.638,29.633,23.286,4.906,8.439,6.056
1816,0.688,35.866,13.622,29.643,23.286,4.906,8.357,6.097
1817,0.679,35.551,13.614,29.624,23.279,4.825,8.275,5.975
1818,0.669,35.653,13.594,29.604,23.268,4.743,8.314,5.893
1819,0.672,35.779,13.598,29.614,23.286,4.823,8.315,5.973
1820,0.691,35.838,13.563,29.642,23.282,4.865,8.274,6.055
1821,0.711,35.455,13.586,29.604,23.289,4.865,8.152,6.056
1822,0.724,35.614,13.551,29.623,23.282,4.824,8.15,5.975
1823,0.757,35.702,13.555,29.614,23.275,4.743,8.11,5.933
1824,0.787,35.77,13.613,29.604,23.279,4.742,8.15,6.014
1825,0.826,35.483,13.637,29.623,23.286,4.905,8.232,6.096
1826,0.869,35.633,13.606,29.671,23.293,4.947,8.192,6.178
1827,0.905,35.769,13.614,29.653,23.289,4.825,8.11,6.017
1828,0.905,35.454,13.633,29.643,23.282,4.783,8.069,6.056
1829,0.899,35.451,13.591,29.633,23.289,4.824,8.069,6.137
1830,0.915,35.594,13.579,29.633,23.282,4.824,8.028,6.057
1831,0.931,35.682,13.606,29.624,23.289,4.865,8.149,6.015
1832,0.961,35.511,13.567,29.633,23.293,4.824,7.988,6.096
1833,0.984,35.643,13.574,29.652,23.286,4.865,8.027,6.016
1834,1.0,35.75,13.559,29.633,23.289,4.824,7.946,5.974
1835,1.03,35.818,13.606,29.604,23.279,4.743,7.945,5.893
1836,1.076,35.263,13.614,29.614,23.275,4.823,8.026,6.014
1837,1.118,35.449,13.583,29.623,23.286,4.783,8.312,6.056
1838,1.164,35.547,13.649,29.604,23.279,4.864,8.274,6.015
1839,1.204,35.643,13.575,29.614,23.293,4.784,8.477,6.015
1840,1.214,35.453,13.578,29.614,23.279,4.864,8.642,5.934
1841,1.191,35.594,13.571,29.604,23.275,4.784,8.928,6.055
1842,1.178,35.721,13.578,29.633,23.279,4.864,9.175,6.178
1843,1.204,35.789,13.539,29.652,23.293,4.987,9.462,6.179
1844,1.24,35.464,13.586,29.652,23.293,4.988,9.587,6.139
1845,1.263,35.556,13.637,29.624,23.286,4.826,9.588,6.138
1846,1.247,35.682,13.595,29.623,23.286,4.865,9.751,6.138
1847,1.231,35.721,13.602,29.623,23.286,4.824,9.915,6.138
1848,1.224,35.405,13.602,29.633,23.286,4.865,9.957,6.138
1849,1.217,35.556,13.59,29.643,23.282,4.946,10.039,6.26
1850,1.227,35.663,13.622,29.604,23.289,4.907,10.08,6.139
1851,1.204,35.664,13.567,29.623,23.282,4.744,9.918,6.098
1852,1.149,35.414,13.567,29.585,23.275,4.742,9.957,6.097
1853,1.067,35.546,13.574,29.613,23.282,4.823,9.957,6.26
1854,1.011,35.672,13.578,29.614,23.279,4.783,9.917,6.302
1855,0.952,35.415,13.606,29.623,23.282,4.783,9.916,6.425
1856,0.899,35.345,13.567,29.633,23.289,4.783,9.754,6.588
1857,0.847,35.478,13.598,29.595,23.276,4.742,9.712,6.753
1858,0.794,35.576,13.598,29.604,23.279,4.783,9.711,6.998
1859,0.748,35.279,13.594,29.623,23.282,4.783,9.711,7.367
1860,0.721,35.439,13.61,29.662,23.293,4.946,9.792,7.817
1861,0.695,35.556,13.606,29.662,23.286,4.825,9.59,7.985
1862,0.649,35.615,13.587,29.614,23.286,4.824,9.507,8.23
1863,0.616,35.318,13.547,29.614,23.282,4.824,9.425,8.395
1864,0.6,35.488,13.594,29.642,23.282,4.865,9.383,8.682
1865,0.583,35.605,13.598,29.624,23.286,4.865,9.342,8.969
1866,0.573,35.702,13.571,29.633,23.289,4.865,9.342,9.175
1867,0.551,35.223,13.582,29.624,23.293,4.865,9.179,9.299
1868,0.56,35.362,13.582,29.604,23.282,4.865,8.974,9.301
1869,0.589,35.479,13.578,29.585,23.279,4.784,8.931,9.341
1870,0.619,35.528,13.59,29.594,23.279,4.824,8.931,9.504
1871,0.668,35.288,13.551,29.604,23.282,4.824,8.809,9.628
1872,0.698,35.42,13.613,29.614,23.286,4.905,8.726,9.792
1873,0.724,35.527,13.567,29.614,23.279,4.825,8.685,9.915
1874,0.731,35.586,13.602,29.604,23.279,4.824,8.644,9.998
1875,0.738,35.366,13.61,29.614,23.279,4.783,8.603,10.243
1876,0.741,35.498,13.571,29.623,23.279,4.905,8.602,10.57
1877,0.751,35.653,13.582,29.643,23.293,5.069,8.724,10.94
1878,0.764,35.664,13.621,29.643,23.293,4.908,8.522,10.984
1879,0.761,35.357,13.595,29.624,23.289,4.947,8.398,11.228
1880,0.757,35.469,13.594,29.633,23.289,4.988,8.478,11.475
1881,0.767,35.595,13.583,29.643,23.286,4.948,8.398,11.64
1882,0.767,35.443,13.59,29.643,23.282,4.988,8.519,11.804
1883,0.77,35.316,13.567,29.643,23.293,4.948,8.479,11.968
1884,0.78,35.43,13.578,29.624,23.282,4.947,8.438,11.929
1885,0.758,35.527,13.645,29.614,23.279,4.907,8.275,11.888
1886,0.761,35.231,13.548,29.585,23.272,4.825,8.396,12.05
1887,0.761,35.353,13.582,29.623,23.282,4.946,8.519,12.052
1888,0.774,35.488,13.551,29.643,23.279,4.947,8.52,12.093
1889,0.774,35.566,13.602,29.614,23.282,4.907,8.479,12.052
1890,0.774,35.135,13.587,29.595,23.282,4.947,8.52,11.849
1891,0.784,35.246,13.579,29.575,23.279,4.907,8.439,11.847
1892,0.764,35.372,13.571,29.613,23.272,4.947,8.438,11.765
1893,0.777,35.479,13.567,29.614,23.286,5.029,8.641,11.846
1894,0.777,35.365,13.633,29.662,23.296,5.03,8.603,11.765
1895,0.774,35.498,13.626,29.643,23.286,4.989,8.48,11.602
1896,0.758,35.595,13.598,29.614,23.282,5.029,8.438,11.438
1897,0.748,35.663,13.614,29.623,23.282,5.03,8.397,11.395
1898,0.741,35.127,13.61,29.623,23.282,4.948,8.397,11.232
1899,0.751,35.294,13.59,29.633,23.279,5.069,8.397,11.109
1900,0.748,35.411,13.598,29.624,23.289,5.07,8.397,11.067
1901,0.741,35.46,13.622,29.633,23.293,4.989,8.356,10.863
1902,0.731,35.163,13.579,29.662,23.276,4.948,8.234,10.739
1903,0.731,35.275,13.524,29.595,23.272,4.907,8.151,10.697
1904,0.741,35.391,13.597,29.604,23.286,4.987,8.191,10.616
1905,0.764,35.412,13.618,29.623,23.282,4.988,8.192,10.493
1906,0.767,35.259,13.594,29.614,23.279,4.948,8.192,10.41
1907,0.767,35.372,13.583,29.604,23.279,4.907,8.151,10.247
1908,0.774,35.479,13.582,29.623,23.275,4.906,8.069,10.082
1909,0.767,35.432,13.567,29.614,23.275,4.947,8.15,10.081
1910,0.777,35.249,13.61,29.623,23.286,5.11,8.232,10.04
1911,0.784,35.391,13.587,29.643,23.3,5.152,8.273,9.999
1912,0.784,35.527,13.606,29.643,23.286,4.949,8.193,9.836
1913,0.78,35.145,13.555,29.624,23.286,4.988,8.273,9.672
1914,0.777,35.237,13.613,29.614,23.286,4.988,8.274,9.548
1915,0.777,35.353,13.649,29.614,23.293,5.07,8.314,9.506
1916,0.777,35.469,13.614,29.623,23.286,5.03,8.396,9.425
1917,0.777,35.067,13.618,29.623,23.293,5.111,8.356,9.424
1918,0.774,35.226,13.606,29.633,23.289,5.03,8.315,9.098
1919,0.764,35.333,13.579,29.595,23.276,4.907,8.152,8.932
1920,0.757,35.382,13.571,29.585,23.282,4.987,8.354,9.053
1921,0.767,35.201,13.598,29.623,23.286,4.988,8.356,8.932
1922,0.777,35.381,13.586,29.643,23.282,4.948,8.315,8.85
1923,0.777,35.479,13.528,29.624,23.282,4.988,8.274,8.727
1924,0.784,35.556,13.508,29.614,23.282,4.988,8.193,8.603
1925,0.764,35.087,13.617,29.604,23.282,4.907,8.314,8.602
1926,0.767,35.246,13.591,29.623,23.282,5.069,8.193,8.602
1927,0.777,35.372,13.618,29.643,23.282,5.111,8.395,8.643
1928,0.79,35.45,13.614,29.643,23.289,5.193,8.356,8.44
1929,0.79,35.096,13.579,29.614,23.282,4.99,8.275,8.397
1930,0.78,35.217,13.606,29.623,23.289,5.029,8.274,8.275
1931,0.78,35.343,13.567,29.614,23.286,5.07,8.355,8.233
1932,0.784,35.392,13.578,29.614,23.282,4.989,8.275,8.233
1933,0.793,35.162,13.551,29.623,23.286,5.07,8.396,8.192
1934,0.793,35.313,13.609,29.614,23.293,5.03,8.478,8.11
1935,0.793,35.401,13.618,29.604,23.286,4.989,8.479,7.987
1936,0.78,35.527,13.571,29.604,23.272,4.866,8.479,7.824
1937,0.754,35.25,13.582,29.585,23.275,4.946,8.642,7.863
1938,0.764,35.391,13.633,29.604,23.279,5.029,8.725,7.863
1939,0.767,35.498,13.583,29.614,23.282,4.989,8.766,7.741
1940,0.761,35.029,13.582,29.614,23.286,5.07,8.848,7.781
1941,0.748,35.044,13.582,29.614,23.275,4.989,8.93,7.74
1942,0.754,35.169,13.598,29.652,23.275,4.988,8.931,7.659
1943,0.764,35.266,13.559,29.614,23.279,5.029,9.012,7.698
1944,0.777,35.084,13.586,29.623,23.293,5.151,9.135,7.78
1945,0.79,35.236,13.618,29.662,23.3,5.193,9.258,7.618
1946,0.793,35.372,13.559,29.624,23.283,5.072,9.056,7.576
1947,0.79,35.431,13.574,29.614,23.286,5.111,9.135,7.535
1948,0.793,35.009,13.528,29.623,23.286,5.03,9.136,7.494
1949,0.793,35.149,13.555,29.614,23.289,5.111,9.095,7.534
1950,0.8,35.275,13.617,29.614,23.293,5.03,9.095,7.453
1951,0.803,35.353,13.552,29.623,23.293,5.07,9.095,7.452
1952,0.807,35.085,13.59,29.614,23.279,4.908,9.054,7.29
1953,0.79,35.198,13.551,29.585,23.279,4.987,8.973,7.288
1954,0.797,35.324,13.617,29.623,23.289,5.029,9.053,7.288
1955,0.807,35.392,13.591,29.604,23.282,4.948,8.932,7.329
1956,0.8,35.067,13.555,29.614,23.282,4.988,8.89,7.248
1957,0.784,35.226,13.567,29.623,23.279,5.029,8.768,7.166
1958,0.78,35.314,13.559,29.604,23.282,4.989,8.807,7.124
1959,0.78,35.373,13.567,29.585,23.282,5.029,8.808,7.124
1960,0.774,34.999,13.598,29.604,23.286,5.07,8.848,7.287
1961,0.784,35.13,13.61,29.652,23.296,5.193,8.889,7.207
1962,0.774,35.284,13.63,29.633,23.293,4.99,8.687,7.206
1963,0.784,35.593,13.536,29.604,23.279,4.988,8.603,7.084
1964,0.79,35.078,13.621,29.604,23.286,5.029,8.724,7.123
1965,0.797,35.207,13.641,29.614,23.279,5.03,8.644,7.043
1966,0.826,35.314,13.567,29.623,23.286,4.989,8.644,7.082
1967,0.83,34.989,13.59,29.633,23.286,5.07,8.603,7.042
1968,0.843,35.005,13.559,29.614,23.293,4.989,8.48,6.96
1969,0.843,35.139,13.563,29.614,23.279,4.907,8.438,6.878
1970,0.817,35.217,13.598,29.585,23.272,4.947,8.397,6.877
1971,0.836,35.036,13.579,29.585,23.279,4.988,8.356,6.877
1972,0.846,35.197,13.575,29.594,23.282,4.988,8.356,6.877
1973,0.817,35.333,13.555,29.604,23.282,4.988,8.315,6.755
1974,0.82,35.411,13.59,29.595,23.279,4.948,8.234,6.795
1975,0.82,34.913,13.618,29.575,23.272,4.907,8.151,6.795
1976,0.807,35.062,13.594,29.594,23.282,4.947,8.232,6.836
1977,0.803,35.217,13.618,29.623,23.286,5.029,8.273,6.999
1978,0.81,35.314,13.614,29.643,23.3,5.111,8.233,6.879
1979,0.807,34.979,13.614,29.624,23.286,4.989,8.151,6.837
1980,0.794,35.12,13.598,29.604,23.286,4.988,8.15,6.877
1981,0.79,35.236,13.579,29.614,23.289,5.029,8.11,6.837
1982,0.784,35.305,13.59,29.614,23.282,4.989,8.109,6.837
1983,0.793,34.97,13.575,29.614,23.289,4.988,8.15,6.755
1984,0.816,35.11,13.59,29.614,23.289,5.07,8.11,6.795
1985,0.826,35.227,13.653,29.614,23.286,4.948,8.109,6.673
1986,0.83,35.257,13.583,29.585,23.265,4.785,8.028,6.631
1987,0.82,35.036,13.571,29.585,23.279,4.905,8.271,6.672
1988,0.833,35.197,13.528,29.585,23.279,4.947,8.274,6.713
1989,0.846,35.295,13.586,29.604,23.282,4.907,8.314,6.672
1990,0.853,35.411,13.618,29.595,23.275,4.906,8.274,6.631
1991,0.853,34.942,13.536,29.585,23.279,4.906,8.355,6.55
1992,0.843,35.072,13.57,29.585,23.282,4.947,8.397,6.59
1993,0.836,35.169,13.532,29.594,23.282,4.947,8.478,6.631
1994,0.823,35.083,13.617,29.623,23.293,5.029,8.601,6.753
1995,0.823,35.131,13.61,29.643,23.3,5.151,8.602,6.673
1996,0.823,35.246,13.606,29.604,23.293,4.949,8.48,6.672
1997,0.81,35.334,13.583,29.614,23.286,4.866,8.52,6.55
1998,0.816,34.817,13.571,29.595,23.282,4.906,8.479,6.549
1999,0.82,34.955,13.578,29.604,23.286,5.028,8.52,6.59
2000,0.81,35.072,13.59,29.614,23.293,4.989,8.439,6.59
2001,0.807,35.178,13.563,29.614,23.286,4.988,8.519,6.631
2002,0.807,34.94,13.574,29.614,23.286,4.988,8.398,6.468
2003,0.803,35.081,13.535,29.604,23.272,4.866,8.316,6.386
2004,0.81,35.169,13.605,29.575,23.279,4.865,8.315,6.425
2005,0.826,35.275,13.622,29.604,23.279,4.946,8.274,6.466
2006,0.836,34.835,13.598,29.604,23.282,4.947,8.274,6.467
2007,0.846,34.984,13.583,29.623,23.279,4.947,8.233,6.386
2008,0.853,35.101,13.547,29.595,23.279,4.907,8.192,6.425
2009,0.869,35.16,13.59,29.594,23.282,4.865,8.11,6.385
2010,0.869,34.863,13.59,29.585,23.275,4.946,8.191,6.385
2011,0.863,35.042,13.575,29.613,23.293,5.069,8.232,6.466
2012,0.872,35.188,13.586,29.642,23.296,5.111,8.192,6.426
2013,0.856,35.208,13.567,29.614,23.286,4.949,8.151,6.344
2014,0.849,34.94,13.59,29.604,23.279,4.907,8.11,6.425
2015,0.843,35.081,13.567,29.595,23.279,4.987,8.109,6.344
2016,0.836,35.207,13.551,29.623,23.282,4.988,8.109,6.384
2017,0.83,35.237,13.586,29.623,23.286,4.988,8.191,6.425
2018,0.843,34.902,13.571,29.623,23.282,5.029,8.151,6.385
2019,0.846,35.052,13.614,29.633,23.286,4.948,8.15,6.303
2020,0.846,35.13,13.583,29.604,23.279,4.825,8.11,6.221
2021,0.827,34.92,13.586,29.595,23.279,4.905,8.232,6.342
2022,0.843,34.899,13.594,29.633,23.286,4.906,8.273,6.262
2023,0.846,35.052,13.52,29.604,23.282,4.987,8.314,6.221
2024,0.859,35.14,13.574,29.604,23.282,4.826,8.315,6.302
2025,0.859,34.882,13.563,29.614,23.275,4.865,8.356,6.221
2026,0.869,35.004,13.555,29.595,23.272,4.865,8.356,6.261
2027,0.866,35.149,13.563,29.585,23.272,4.906,8.437,6.262
2028,0.885,35.246,13.559,29.633,23.289,4.987,8.601,6.424
2029,0.898,34.816,13.59,29.643,23.293,4.988,8.562,6.344
2030,0.912,34.946,13.61,29.624,23.289,4.907,8.48,6.303
2031,0.895,35.033,13.575,29.614,23.282,4.906,8.52,6.302
2032,0.889,35.13,13.602,29.623,23.282,4.906,8.439,6.262
2033,0.879,34.853,13.551,29.604,23.286,4.947,8.519,6.262
2034,0.879,34.994,13.594,29.614,23.282,4.988,8.52,6.302
2035,0.895,35.139,13.594,29.623,23.286,4.988,8.439,6.302
2036,0.895,35.217,13.571,29.643,23.286,4.907,8.357,6.302
2037,0.886,34.883,13.559,29.604,23.279,4.784,8.234,6.18
2038,0.869,35.013,13.551,29.575,23.275,4.864,8.273,6.139
2039,0.869,35.159,13.598,29.623,23.282,4.906,8.355,6.219
2040,0.879,35.227,13.571,29.614,23.282,4.865,8.315,6.302
2041,0.866,34.854,13.586,29.614,23.279,4.784,8.193,6.14
2042,0.869,34.965,13.547,29.614,23.279,4.824,8.314,6.179
2043,0.879,35.091,13.559,29.595,23.279,4.783,8.193,6.098
2044,0.885,35.092,13.594,29.594,23.279,4.864,8.232,6.219
2045,0.905,34.853,13.614,29.623,23.289,4.946,8.477,6.302
2046,0.931,35.032,13.598,29.643,23.3,5.029,8.52,6.302
2047,0.954,35.13,13.583,29.624,23.279,4.907,8.479,6.18
2048,0.938,35.006,13.485,29.633,23.282,4.906,8.479,6.179
2049,0.951,34.928,13.515,29.614,23.279,4.906,8.52,6.22
2050,0.948,35.033,13.632,29.614,23.282,4.865,8.601,6.22
2051,0.954,35.178,13.54,29.623,23.286,4.946,8.643,6.22
2052,0.958,34.825,13.57,29.633,23.289,4.947,8.725,6.261
2053,0.961,34.936,13.621,29.604,23.279,4.825,8.603,6.099
2054,0.938,35.033,13.63,29.595,23.279,4.824,8.602,6.016
2055,0.922,35.12,13.556,29.585,23.275,4.783,8.643,6.137
2056,0.922,34.882,13.598,29.613,23.286,4.864,8.725,6.098
2057,0.922,35.023,13.563,29.623,23.282,4.865,8.726,6.097
2058,0.922,35.13,13.551,29.604,23.279,4.865,8.685,6.178
2059,0.925,35.237,13.555,29.604,23.275,4.784,8.684,6.139
2060,0.931,34.835,13.613,29.585,23.272,4.783,8.684,6.098
2061,0.922,34.984,13.536,29.604,23.279,4.824,8.766,6.178
2062,0.931,35.13,13.57,29.642,23.286,4.946,8.889,6.261
2063,0.948,35.217,13.551,29.652,23.293,5.029,8.89,6.262
2064,0.974,34.978,13.598,29.624,23.282,4.907,8.809,6.221
2065,0.964,35.082,13.606,29.604,23.289,4.906,8.808,6.18
2066,0.977,35.198,13.583,29.604,23.289,4.865,8.767,6.139
2067,0.984,35.256,13.575,29.614,23.286,4.946,8.767,6.179
2068,1.0,34.979,13.496,29.623,23.289,4.907,8.767,6.179
2069,1.004,35.129,13.574,29.614,23.286,4.865,8.726,6.139
2070,1.017,35.256,13.621,29.623,23.289,4.906,8.726,6.098
2071,1.02,35.276,13.513,29.614,23.276,4.825,8.563,5.975
2072,1.017,35.046,13.554,29.575,23.272,4.743,8.521,6.055
2073,1.02,35.169,13.535,29.604,23.286,4.864,8.642,6.137
2074,1.014,35.294,13.633,29.614,23.282,4.946,8.521,6.138
2075,1.004,35.286,13.587,29.604,23.279,4.825,8.479,6.138
2076,1.007,35.142,13.567,29.614,23.282,4.783,8.479,6.057
2077,0.994,35.275,13.578,29.595,23.279,4.864,8.438,6.015
2078,0.981,35.353,13.555,29.594,23.272,4.824,8.438,6.056
2079,0.987,35.152,13.582,29.614,23.289,4.946,8.601,6.137
2080,0.997,35.294,13.614,29.642,23.3,4.988,8.602,6.26
2081,0.997,35.382,13.591,29.624,23.283,4.866,8.44,6.139
2082,0.984,35.46,13.586,29.614,23.286,4.824,8.357,6.138
2083,0.991,35.077,13.532,29.614,23.286,4.865,8.275,6.057
2084,1.02,35.217,13.637,29.623,23.286,4.865,8.314,6.137
2085,1.02,35.343,13.634,29.614,23.286,4.865,8.315,6.138
2086,1.027,35.43,13.583,29.614,23.289,4.906,8.315,6.057
2087,1.046,35.211,13.582,29.604,23.286,4.825,8.193,5.975
2088,1.043,35.333,13.563,29.585,23.272,4.702,8.11,6.015
2089,1.043,35.44,13.567,29.604,23.282,4.823,8.191,6.096
2090,1.069,35.518,13.613,29.604,23.279,4.824,8.192,6.016
2091,1.079,35.423,13.54,29.595,23.279,4.824,8.151,6.056
2092,1.089,35.565,13.547,29.604,23.286,4.783,8.15,6.015
2093,1.079,35.682,13.566,29.604,23.275,4.783,8.069,5.974
2094,1.073,35.721,13.613,29.595,23.272,4.864,8.069,6.015
2095,1.069,35.415,13.563,29.604,23.286,4.824,8.191,6.096
2096,1.069,35.575,13.574,29.623,23.293,4.987,8.192,6.178
2097,1.073,35.701,13.571,29.643,23.303,4.866,8.11,6.017
2098,1.053,35.722,13.582,29.604,23.283,4.906,8.109,6.015
2099,1.056,35.703,13.555,29.633,23.282,4.825,8.109,6.096
2100,1.066,35.827,13.59,29.624,23.286,4.824,8.109,6.097
2101,1.056,35.924,13.614,29.633,23.286,4.865,8.191,6.097
2102,1.06,36.06,13.591,29.633,23.286,4.906,8.232,6.056
2103,1.076,35.85,13.559,29.614,23.282,4.825,8.233,6.056
2104,1.083,35.963,13.602,29.623,23.282,4.824,8.273,6.015
2105,1.083,36.041,13.629,29.576,23.279,4.743,8.152,5.852
2106,1.086,35.773,13.591,29.594,23.279,4.783,8.273,6.054
2107,1.125,35.914,13.582,29.604,23.282,4.824,8.233,5.975
2108,1.132,36.031,13.547,29.595,23.282,4.865,8.314,5.974
2109,1.138,36.118,13.563,29.585,23.279,4.784,8.315,6.096
2110,1.132,35.879,13.61,29.585,23.282,4.742,8.315,5.975
2111,1.142,35.992,13.524,29.594,23.279,4.823,8.356,5.974
2112,1.151,36.127,13.558,29.604,23.286,4.865,8.437,6.055
2113,1.145,36.244,13.586,29.623,23.296,4.987,8.56,6.137
2114,1.135,36.571,13.621,29.633,23.289,4.826,8.48,6.057
2115,1.125,36.689,13.587,29.614,23.282,4.824,8.479,6.015
2116,1.116,36.806,13.579,29.614,23.286,4.824,8.479,6.056
2117,1.115,36.874,13.559,29.604,23.289,4.865,8.52,6.056
2118,1.106,36.002,13.567,29.604,23.282,4.865,8.561,6.097
2119,1.109,36.147,13.574,29.604,23.289,4.906,8.602,6.056
2120,1.102,36.263,13.629,29.623,23.293,4.906,8.521,6.097
2121,1.099,36.312,13.575,29.623,23.276,4.865,8.439,6.016
2122,1.099,36.332,13.59,29.585,23.275,4.702,8.438,5.893
2123,1.106,36.476,13.579,29.594,23.279,4.823,8.479,6.095
2124,1.128,36.602,13.582,29.604,23.282,4.865,8.438,5.975
2125,1.129,36.613,13.59,29.614,23.282,4.743,8.438,6.096
2126,1.138,36.536,13.567,29.595,23.282,4.783,8.438,5.975
2127,1.135,36.67,13.567,29.594,23.279,4.742,8.397,6.015
2128,1.132,36.757,13.516,29.604,23.272,4.742,8.316,5.974
2129,1.129,37.123,13.586,29.604,23.286,4.783,8.437,6.096
2130,1.138,36.647,13.606,29.623,23.293,4.905,8.479,6.097
2131,1.151,36.795,13.555,29.652,23.293,4.947,8.479,6.056
2132,1.152,36.902,13.57,29.614,23.282,4.785,8.316,5.975
2133,1.126,36.76,13.574,29.604,23.293,4.824,8.356,5.974
2134,1.119,36.825,13.633,29.604,23.289,4.783,8.315,6.015
2135,1.122,36.941,13.61,29.595,23.286,4.824,8.315,6.015
2136,1.119,37.048,13.579,29.614,23.293,4.824,8.315,6.056
2137,1.122,36.819,13.61,29.614,23.293,4.824,8.315,6.056
2138,1.119,36.951,13.583,29.604,23.286,4.865,8.274,5.975
2139,1.099,37.057,13.598,29.585,23.279,4.662,8.111,5.893
2140,1.086,37.116,13.571,29.585,23.282,4.741,8.232,6.014
2141,1.076,36.944,13.571,29.613,23.282,4.742,8.233,5.934
2142,1.063,37.115,13.586,29.604,23.282,4.742,8.151,5.933
2143,1.066,37.222,13.54,29.604,23.279,4.783,8.11,5.892
2144,1.076,37.262,13.625,29.575,23.279,4.742,8.109,6.014
2145,1.07,37.061,13.618,29.585,23.279,4.742,8.028,5.893
