time,ecg,bvp,gsr,rsp,skt,emg_zygo,emg_coru,emg_trap
0,1.119,36.603,25.202,43.272,29.737,30.822,8.974,8.03
1,1.112,36.325,25.186,43.281,29.736,30.983,9.053,8.068
2,1.109,36.447,25.158,43.3,29.743,31.594,9.095,8.069
3,1.096,36.563,25.173,43.272,29.73,32.373,8.973,7.946
4,1.089,36.67,25.177,43.329,29.747,33.438,9.094,8.026
5,1.076,36.614,25.283,43.31,29.74,34.058,9.095,8.109
6,1.07,36.738,25.225,43.301,29.743,34.471,8.973,8.109
7,1.066,36.892,25.162,43.348,29.757,34.76,9.175,8.191
8,1.05,36.903,25.173,43.291,29.74,34.559,9.015,7.988
9,1.037,36.683,25.201,43.291,29.737,34.435,8.972,7.986
10,1.007,36.853,25.205,43.3,29.74,34.028,8.972,8.027
11,0.994,36.97,25.228,43.281,29.73,33.576,8.85,7.946
12,0.987,37.297,25.229,43.339,29.747,33.206,9.052,8.148
13,0.961,36.869,25.252,43.31,29.747,32.674,8.973,8.11
14,0.942,36.98,25.198,43.31,29.744,32.343,8.931,8.15
15,0.928,37.134,25.185,43.349,29.75,32.299,9.053,8.354
16,0.909,36.983,25.205,43.282,29.733,31.851,8.932,8.153
17,0.892,37.077,25.228,43.319,29.736,31.603,8.85,8.15
18,0.895,37.193,25.272,43.31,29.74,31.194,8.849,8.191
19,0.866,37.29,25.229,43.301,29.723,30.865,8.767,8.151
20,0.869,37.214,25.225,43.339,29.74,31.024,8.929,8.273
21,0.885,37.338,25.194,43.31,29.74,31.107,8.89,8.193
22,0.876,37.454,25.17,43.32,29.737,31.677,8.849,8.232
23,0.876,37.58,25.197,43.349,29.754,32.699,9.093,8.314
24,0.866,37.169,25.174,43.291,29.73,33.441,8.973,8.112
25,0.866,37.309,25.244,43.32,29.74,34.18,8.972,8.15
26,0.853,37.445,25.202,43.329,29.743,34.554,9.013,8.028
27,0.853,37.503,25.147,43.291,29.73,34.639,8.932,7.946
28,0.853,37.427,25.173,43.32,29.743,34.883,9.134,8.189
29,0.853,37.57,25.22,43.329,29.743,34.805,9.177,8.192
30,0.833,37.687,25.233,43.349,29.743,34.479,9.137,8.11
31,0.826,37.784,25.248,43.378,29.761,34.069,9.258,8.191
32,0.804,37.603,25.206,43.32,29.74,33.414,9.178,8.151
33,0.797,37.754,25.248,43.31,29.737,32.879,9.096,8.15
34,0.787,37.871,25.213,43.329,29.743,32.548,9.258,8.191
35,0.754,37.882,25.162,43.301,29.73,32.138,9.137,8.232
36,0.761,37.709,25.185,43.348,29.747,31.972,9.339,8.273
37,0.744,37.861,25.244,43.349,29.74,31.604,9.301,8.355
38,0.741,37.968,25.26,43.349,29.747,31.153,9.26,8.356
39,0.744,38.276,25.272,43.368,29.754,30.986,9.3,8.356
40,0.741,37.732,25.26,43.339,29.74,30.984,9.301,8.437
41,0.744,37.871,25.217,43.339,29.737,31.106,9.138,8.357
42,0.754,37.978,25.186,43.339,29.743,31.677,9.258,8.397
43,0.748,38.007,25.189,43.32,29.737,32.658,9.259,8.397
44,0.747,38.152,25.201,43.368,29.75,33.807,9.463,8.438
45,0.744,38.258,25.228,43.359,29.744,34.55,9.424,8.438
46,0.744,38.365,25.264,43.359,29.743,34.923,9.424,8.479
47,0.757,37.954,25.178,43.368,29.754,35.252,9.586,8.438
48,0.722,38.017,25.201,43.368,29.74,35.174,9.588,8.397
49,0.741,38.161,25.147,43.349,29.737,35.051,9.425,8.275
50,0.721,38.249,25.216,43.358,29.743,34.684,9.546,8.355
51,0.702,38.029,25.209,43.32,29.737,34.152,9.506,8.356
52,0.714,38.2,25.225,43.358,29.75,33.618,9.587,8.356
53,0.702,38.336,25.252,43.359,29.747,33.166,9.669,8.478
54,0.692,38.385,25.233,43.378,29.747,32.795,9.67,8.398
55,0.688,38.069,25.174,43.378,29.744,32.547,9.629,8.438
56,0.695,38.191,25.15,43.378,29.75,32.423,9.71,8.56
57,0.679,38.316,25.205,43.34,29.74,31.853,9.508,8.439
58,0.682,38.375,25.201,43.368,29.743,31.522,9.546,8.519
59,0.672,38.155,25.24,43.359,29.74,31.356,9.588,8.561
60,0.688,38.316,25.252,43.378,29.733,31.313,9.507,8.48
61,0.692,38.433,25.252,43.368,29.743,31.516,9.587,8.601
62,0.695,38.463,25.213,43.368,29.747,32.087,9.669,8.562
63,0.705,38.214,25.111,43.387,29.74,32.947,9.67,8.602
64,0.708,38.326,25.181,43.388,29.747,33.85,9.792,8.724
65,0.705,38.414,25.189,43.349,29.737,34.388,9.753,8.481
66,0.708,38.443,25.24,43.368,29.736,34.84,9.793,8.601
67,0.708,38.319,25.178,43.359,29.74,35.048,9.834,8.48
68,0.715,38.471,25.111,43.359,29.74,34.887,9.753,8.479
69,0.708,38.578,25.185,43.378,29.743,34.764,9.915,8.56
70,0.692,38.282,25.189,43.368,29.74,34.356,9.916,8.561
71,0.685,38.26,25.217,43.397,29.74,33.864,9.835,8.48
72,0.688,38.394,25.213,43.407,29.75,33.331,9.997,8.682
73,0.666,38.472,25.217,43.378,29.74,32.675,9.795,8.481
74,0.659,38.185,25.217,43.368,29.743,32.465,9.793,8.52
75,0.659,38.316,25.131,43.407,29.743,32.26,9.834,8.479
76,0.662,38.442,25.165,43.369,29.737,31.973,9.672,8.479
77,0.646,38.53,25.205,43.407,29.743,31.767,9.792,8.682
78,0.655,38.128,25.248,43.397,29.743,31.358,9.712,8.684
79,0.662,38.249,25.237,43.407,29.74,31.191,9.752,8.684
80,0.659,38.422,25.28,43.426,29.757,31.271,9.833,8.766
81,0.656,38.463,25.221,43.369,29.74,31.231,9.672,8.604
82,0.668,38.166,25.186,43.378,29.74,31.678,9.589,8.562
83,0.688,38.307,25.099,43.397,29.743,32.658,9.71,8.521
84,0.695,38.433,25.161,43.378,29.733,33.4,9.63,8.479
85,0.698,38.511,25.24,43.416,29.743,34.18,9.751,8.601
86,0.685,38.157,25.252,43.426,29.743,34.513,9.793,8.521
87,0.698,38.316,25.194,43.388,29.743,34.719,9.793,8.52
88,0.705,38.481,25.143,43.436,29.757,34.966,9.915,8.561
89,0.695,38.473,25.122,43.417,29.744,34.765,9.713,8.399
90,0.682,38.041,25.154,43.407,29.74,34.641,9.792,8.478
91,0.685,38.2,25.201,43.388,29.743,34.192,9.753,8.479
92,0.675,38.288,25.147,43.388,29.733,33.619,9.63,8.316
93,0.678,38.356,25.236,43.426,29.743,33.41,9.792,8.477
94,0.669,38.136,25.264,43.417,29.747,33.123,9.753,8.52
95,0.659,38.297,25.178,43.407,29.744,32.957,9.712,8.479
96,0.672,38.413,25.205,43.436,29.761,32.834,9.792,8.682
97,0.646,38.127,25.193,43.398,29.733,32.304,9.631,8.522
98,0.646,38.047,25.236,43.416,29.74,31.811,9.629,8.52
99,0.642,38.181,25.241,43.407,29.743,31.684,9.548,8.479
100,0.659,38.278,25.272,43.388,29.73,31.56,9.466,8.398
101,0.662,37.982,25.225,43.416,29.747,31.884,9.505,8.478
102,0.659,38.084,25.24,43.426,29.747,32.254,9.546,8.438
103,0.675,38.219,25.178,43.436,29.744,33.193,9.466,8.56
104,0.685,38.317,25.209,43.455,29.754,34.137,9.587,8.561
105,0.682,37.733,25.217,43.407,29.733,34.513,9.425,8.358
106,0.688,37.861,25.256,43.426,29.74,34.882,9.505,8.275
107,0.708,38.025,25.241,43.426,29.743,35.048,9.465,8.314
108,0.689,38.085,25.139,43.407,29.737,34.887,9.383,8.193
109,0.698,37.874,25.13,43.445,29.75,34.805,9.545,8.395
110,0.692,38.026,25.122,43.455,29.747,34.397,9.588,8.356
111,0.679,38.133,25.099,43.455,29.747,33.864,9.507,8.315
112,0.698,38.23,25.192,43.446,29.754,33.453,9.628,8.437
113,0.659,37.646,25.221,43.427,29.733,32.676,9.385,8.275
114,0.672,37.784,25.225,43.426,29.736,32.424,9.423,8.314
115,0.662,37.91,25.221,43.436,29.74,32.259,9.424,8.315
116,0.662,37.949,25.088,43.426,29.73,31.932,9.18,8.274
117,0.652,37.835,25.173,43.455,29.743,31.726,9.421,8.396
118,0.655,37.987,25.224,43.465,29.74,31.358,9.383,8.478
119,0.649,38.094,25.24,43.436,29.743,31.11,9.342,8.479
120,0.675,38.133,25.26,43.484,29.754,31.107,9.423,8.56
121,0.672,37.424,25.241,43.427,29.737,31.067,9.261,8.358
122,0.672,37.58,25.291,43.436,29.743,31.514,9.259,8.356
123,0.685,37.687,25.202,43.455,29.743,32.413,9.422,8.437
124,0.695,37.659,25.189,43.436,29.737,33.113,9.261,8.316
125,0.695,37.669,25.189,43.465,29.747,33.852,9.463,8.477
126,0.692,37.803,25.228,43.465,29.747,34.184,9.424,8.438
127,0.708,37.9,25.237,43.455,29.744,34.31,9.505,8.316
128,0.721,37.508,25.229,43.475,29.761,34.433,9.628,8.396
129,0.698,37.552,25.135,43.436,29.733,34.028,9.466,8.275
130,0.695,37.696,25.111,43.446,29.74,33.779,9.424,8.233
131,0.685,37.803,25.138,43.446,29.743,33.289,9.505,8.314
132,0.692,37.162,25.13,43.474,29.73,32.634,9.384,8.193
133,0.672,37.28,25.181,43.456,29.747,32.261,9.505,8.354
134,0.659,37.416,25.259,43.465,29.744,31.891,9.546,8.397
135,0.656,37.513,25.237,43.465,29.74,31.644,9.506,8.356
136,0.668,37.255,25.151,43.494,29.75,31.438,9.628,8.478
137,0.649,37.396,25.146,43.446,29.74,30.826,9.466,8.398
138,0.655,37.541,25.193,43.436,29.737,30.495,9.424,8.356
139,0.655,37.6,25.209,43.465,29.74,30.369,9.505,8.397
140,0.675,37.217,25.244,43.446,29.737,30.287,9.343,8.275
141,0.678,37.405,25.268,43.465,29.743,30.611,9.626,8.518
142,0.675,37.513,25.268,43.475,29.743,31.265,9.588,8.439
143,0.688,37.571,25.288,43.465,29.743,32.248,9.588,8.438
144,0.705,37.073,25.151,43.523,29.757,33.274,9.751,8.601
145,0.692,37.183,25.173,43.456,29.744,33.853,9.59,8.318
146,0.701,37.328,25.185,43.465,29.743,34.225,9.588,8.356
147,0.727,37.33,25.236,43.465,29.74,34.432,9.669,8.397
148,0.708,37.023,25.19,43.427,29.733,34.312,9.548,8.275
149,0.711,37.212,25.197,43.484,29.747,34.352,9.71,8.436
150,0.715,37.309,25.158,43.484,29.747,33.986,9.67,8.357
151,0.708,37.176,25.138,43.484,29.747,33.576,9.711,8.397
152,0.711,37.098,25.165,43.523,29.75,33.165,9.752,8.478
153,0.689,37.184,25.173,43.466,29.74,32.551,9.59,8.357
154,0.685,37.28,25.216,43.484,29.733,32.057,9.588,8.356
155,0.688,36.84,25.221,43.456,29.743,31.849,9.547,8.315
156,0.682,36.874,25.143,43.455,29.73,31.4,9.506,8.356
157,0.685,37.047,25.181,43.58,29.743,31.11,9.628,8.437
158,0.675,37.154,25.197,43.514,29.75,30.701,9.629,8.397
159,0.672,36.772,25.185,43.485,29.74,30.494,9.588,8.438
160,0.695,36.941,25.232,43.513,29.75,30.492,9.629,8.479
161,0.682,37.029,25.201,43.466,29.737,30.573,9.548,8.398
162,0.688,37.116,25.221,43.475,29.747,31.062,9.425,8.275
163,0.695,36.647,25.225,43.484,29.74,32.124,9.505,8.314
164,0.685,36.786,25.135,43.465,29.737,32.988,9.384,8.193
165,0.705,36.95,25.173,43.503,29.743,33.891,9.545,8.273
166,0.715,37.019,25.209,43.504,29.743,34.429,9.506,8.274
167,0.721,36.665,25.24,43.485,29.75,34.678,9.506,8.233
168,0.731,36.863,25.256,43.523,29.747,34.803,9.587,8.273
169,0.721,36.932,25.213,43.494,29.747,34.722,9.507,8.274
170,0.708,36.971,25.158,43.475,29.737,34.396,9.343,8.071
171,0.711,36.53,25.134,43.494,29.743,34.068,9.423,8.15
172,0.702,36.66,25.134,43.475,29.743,33.617,9.342,8.273
173,0.692,36.805,25.165,43.503,29.747,33.084,9.342,8.152
174,0.685,36.835,25.201,43.504,29.74,32.794,9.342,8.191
175,0.675,36.625,25.26,43.494,29.743,32.547,9.301,8.232
176,0.695,36.776,25.163,43.504,29.747,32.301,9.219,8.273
177,0.662,36.893,25.056,43.523,29.744,31.892,9.218,8.355
178,0.669,36.76,25.2,43.485,29.733,31.359,9.096,8.234
179,0.672,36.538,25.193,43.504,29.743,31.151,9.095,8.233
180,0.672,36.651,25.24,43.494,29.737,31.189,9.136,8.192
181,0.682,36.796,25.225,43.504,29.743,31.271,9.014,8.232
182,0.679,36.481,25.225,43.513,29.75,31.922,9.176,8.233
183,0.682,36.554,25.209,43.504,29.744,32.864,9.218,8.273
184,0.695,36.727,25.166,43.513,29.747,33.89,9.178,8.233
185,0.682,36.787,25.166,43.513,29.747,34.673,9.259,8.273
186,0.672,36.327,25.197,43.504,29.744,34.925,9.178,8.152
187,0.688,36.476,25.256,43.494,29.737,35.211,9.299,8.232
188,0.672,36.583,25.221,43.494,29.743,35.174,9.341,8.151
189,0.688,36.709,25.217,43.504,29.74,35.173,9.301,8.11
190,0.672,36.307,25.201,43.523,29.747,34.889,9.341,8.15
191,0.665,36.447,25.174,43.514,29.747,34.398,9.423,8.15
192,0.675,36.621,25.138,43.533,29.75,33.783,9.342,8.191
193,0.652,36.661,25.189,43.514,29.751,33.289,9.301,8.273
194,0.646,36.297,25.185,43.494,29.74,32.837,9.26,8.233
195,0.633,36.466,25.248,43.504,29.737,32.629,9.259,8.233
196,0.632,36.564,25.147,43.494,29.736,32.221,9.259,8.192
197,0.639,36.66,25.095,43.552,29.743,31.81,9.3,8.314
198,0.649,36.355,25.177,43.543,29.743,31.481,9.26,8.356
199,0.642,36.476,25.22,43.533,29.747,31.193,9.381,8.397
200,0.655,36.612,25.221,43.533,29.74,31.149,9.301,8.356
201,0.649,36.642,25.213,43.533,29.747,31.393,9.423,8.478
202,0.662,36.268,25.244,43.494,29.733,31.802,9.302,8.316
203,0.665,36.437,25.28,43.513,29.74,32.781,9.382,8.356
204,0.669,36.544,25.136,43.523,29.743,33.808,9.464,8.397
205,0.685,36.584,25.154,43.523,29.747,34.55,9.465,8.397
206,0.688,36.325,25.205,43.523,29.737,35.086,9.627,8.438
207,0.692,36.457,25.228,43.533,29.743,35.254,9.548,8.357
208,0.682,36.564,25.252,43.533,29.743,35.296,9.669,8.397
209,0.675,36.162,25.19,43.542,29.75,35.296,9.711,8.397
210,0.659,36.215,25.185,43.504,29.74,34.89,9.589,8.316
211,0.649,36.35,25.181,43.523,29.743,34.439,9.71,8.315
212,0.639,36.428,25.146,43.523,29.743,33.906,9.67,8.356
213,0.649,36.113,25.169,43.533,29.74,33.534,9.67,8.315
214,0.636,36.244,25.189,43.562,29.754,33.124,9.711,8.437
215,0.626,36.379,25.232,43.543,29.747,32.835,9.63,8.438
216,0.645,36.467,25.225,43.542,29.744,32.507,9.629,8.479
217,0.626,36.142,25.112,43.542,29.747,32.179,9.71,8.601
218,0.623,36.273,25.161,43.562,29.733,31.647,9.467,8.44
219,0.632,36.408,25.173,43.543,29.74,31.275,9.505,8.479
220,0.632,36.477,25.189,43.542,29.74,31.231,9.506,8.479
221,0.636,36.113,25.205,43.542,29.743,31.353,9.506,8.479
222,0.623,36.272,25.209,43.562,29.74,31.842,9.506,8.56
223,0.636,36.399,25.205,43.571,29.743,32.741,9.506,8.48
224,0.655,36.467,25.186,43.572,29.747,33.564,9.546,8.479
225,0.659,36.199,25.181,43.543,29.744,34.222,9.547,8.56
226,0.659,36.35,25.189,43.542,29.737,34.513,9.466,8.399
227,0.669,36.486,25.193,43.542,29.74,34.76,9.465,8.397
228,0.659,36.458,25.236,43.504,29.737,34.681,9.424,8.397
229,0.669,36.276,25.233,43.561,29.747,34.721,9.586,8.356
230,0.656,36.408,25.17,43.562,29.75,34.396,9.507,8.356
231,0.633,36.534,25.189,43.552,29.744,33.864,9.465,8.437
232,0.649,36.756,25.123,43.6,29.754,33.453,9.505,8.397
233,0.629,36.288,25.154,43.553,29.747,32.757,9.425,8.397
234,0.632,36.408,25.162,43.552,29.74,32.425,9.342,8.275
235,0.629,36.534,25.244,43.533,29.747,32.3,9.423,8.396
236,0.626,36.219,25.202,43.533,29.73,32.014,9.342,8.356
237,0.629,36.34,25.147,43.571,29.747,31.767,9.342,8.437
238,0.626,36.466,25.189,43.667,29.744,31.439,9.342,8.438
239,0.632,36.564,25.193,43.553,29.743,31.273,9.342,8.438
240,0.652,36.421,25.205,43.571,29.743,31.353,9.26,8.438
241,0.646,36.496,25.189,43.562,29.74,31.435,9.259,8.397
242,0.639,36.631,25.213,43.552,29.74,31.924,9.178,8.397
243,0.626,36.709,25.217,43.562,29.743,32.986,9.177,8.356
244,0.626,36.269,25.205,43.543,29.737,33.769,9.177,8.356
245,0.649,36.446,25.193,43.581,29.743,34.468,9.259,8.315
246,0.646,36.573,25.201,43.562,29.743,34.922,9.259,8.396
247,0.646,36.641,25.205,43.571,29.743,34.927,9.219,8.356
248,0.668,36.383,25.299,43.6,29.75,35.09,9.259,8.356
249,0.649,36.486,25.222,43.562,29.747,34.888,9.178,8.356
250,0.642,36.631,25.213,43.571,29.737,34.52,9.137,8.234
251,0.636,36.69,25.205,43.572,29.74,34.069,9.258,8.314
252,0.623,36.336,25.143,43.552,29.743,33.617,9.178,8.274
253,0.623,36.514,25.087,43.59,29.74,33.125,9.137,8.233
254,0.616,36.65,25.153,43.591,29.75,32.835,9.136,8.314
255,0.6,36.68,25.259,43.572,29.751,32.548,9.177,8.356
256,0.609,36.499,25.213,43.581,29.744,32.26,9.177,8.356
257,0.593,36.631,25.178,43.591,29.743,31.891,9.177,8.437
258,0.596,36.719,25.099,43.581,29.737,31.278,9.096,8.357
259,0.603,37.084,25.173,43.562,29.74,31.191,9.014,8.315
260,0.616,36.493,25.201,43.581,29.74,31.149,9.013,8.315
261,0.626,36.65,25.205,43.581,29.737,31.23,9.013,8.315
262,0.623,36.748,25.178,43.6,29.743,31.719,9.094,8.356
263,0.639,36.528,25.213,43.572,29.743,32.577,9.095,8.397
264,0.662,36.603,25.236,43.6,29.747,33.277,9.176,8.356
265,0.652,36.728,25.12,43.591,29.744,33.935,9.137,8.478
266,0.655,36.825,25.165,43.562,29.743,34.063,9.177,8.316
267,0.668,36.606,25.177,43.571,29.743,34.268,9.137,8.356
268,0.652,36.728,25.244,43.562,29.743,34.351,9.136,8.315
269,0.659,36.854,25.252,43.581,29.737,34.067,8.974,8.152
270,0.646,36.961,25.268,43.61,29.747,33.902,9.175,8.354
271,0.642,37.115,25.237,43.572,29.74,33.494,9.096,8.275
272,0.642,37.26,25.217,43.6,29.743,32.961,9.176,8.274
273,0.629,37.396,25.162,43.61,29.743,32.671,9.259,8.396
274,0.616,37.446,25.17,43.581,29.733,32.18,8.975,8.234
275,0.619,36.439,25.174,43.581,29.736,32.013,8.972,8.273
276,0.619,36.573,25.224,43.591,29.736,31.808,8.972,8.233
277,0.616,36.68,25.205,43.572,29.73,31.399,8.85,8.151
278,0.61,36.777,25.139,43.61,29.733,31.192,8.971,8.354
279,0.609,36.941,25.115,43.591,29.743,30.946,8.972,8.315
280,0.629,37.096,25.15,43.591,29.743,30.943,8.972,8.315
281,0.626,37.222,25.173,43.61,29.757,31.35,9.053,8.396
282,0.626,37.233,25.158,43.601,29.737,31.517,8.891,8.194
283,0.636,37.405,25.181,43.601,29.74,32.494,8.971,8.192
284,0.636,37.541,25.236,43.601,29.737,33.358,8.931,8.232
285,0.642,37.648,25.205,43.581,29.733,33.895,8.931,8.192
286,0.646,37.659,25.174,43.706,29.747,34.347,9.053,8.192
287,0.652,36.671,25.177,43.582,29.75,34.515,9.013,8.232
288,0.652,36.815,25.189,43.6,29.744,34.435,9.054,8.192
289,0.668,36.96,25.244,43.62,29.757,34.475,9.217,8.273
290,0.63,36.952,25.213,43.591,29.733,33.947,8.934,8.152
291,0.623,37.048,25.217,43.581,29.747,33.535,9.012,8.15
292,0.626,37.174,25.264,43.6,29.744,33.124,9.054,8.11
293,0.61,37.271,25.21,43.581,29.73,32.51,8.932,8.028
294,0.616,37.061,25.19,43.6,29.743,32.382,9.012,8.231
295,0.61,37.164,25.182,43.601,29.74,32.137,8.932,8.111
296,0.609,37.309,25.256,43.591,29.743,31.89,8.931,8.191
297,0.603,37.425,25.249,43.62,29.757,31.685,9.134,8.354
298,0.603,36.947,25.182,43.582,29.737,31.113,8.852,8.153
299,0.609,37.077,25.115,43.6,29.74,30.945,8.889,8.191
300,0.619,37.231,25.118,43.61,29.737,31.065,8.89,8.232
301,0.613,37.29,25.118,43.581,29.736,31.026,8.768,8.111
302,0.613,37.205,25.173,43.706,29.747,31.676,8.889,8.272
303,0.626,37.338,25.177,43.63,29.747,32.699,9.012,8.274
304,0.629,37.483,25.217,43.601,29.744,33.563,8.932,8.152
305,0.632,37.552,25.236,43.62,29.75,34.425,9.093,8.313
306,0.629,37.044,25.088,43.591,29.74,34.637,8.932,8.112
307,0.642,37.183,25.173,43.6,29.74,34.883,9.053,8.109
308,0.633,37.319,25.189,43.61,29.743,34.886,9.135,8.109
309,0.632,37.349,25.221,43.591,29.737,34.723,9.014,8.028
310,0.636,37.32,25.229,43.62,29.75,34.559,9.257,8.068
311,0.629,37.473,25.225,43.63,29.744,34.069,9.178,8.109
312,0.626,37.571,25.237,43.62,29.743,33.698,9.299,8.069
313,0.619,37.591,25.233,43.63,29.757,33.329,9.423,8.191
314,0.603,37.256,25.112,43.591,29.744,32.797,9.261,8.07
315,0.613,37.415,25.181,43.6,29.737,32.629,9.219,8.069
316,0.606,37.522,25.217,43.601,29.75,32.342,9.3,8.15
317,0.6,37.322,25.236,43.601,29.737,31.933,9.178,8.028
318,0.596,37.32,25.209,43.629,29.747,31.644,9.34,8.19
319,0.6,37.473,25.154,43.62,29.747,31.397,9.301,8.151
320,0.596,37.58,25.134,43.62,29.75,31.476,9.26,8.191
321,0.609,37.313,25.142,43.63,29.751,31.68,9.463,8.232
322,0.603,37.387,25.126,43.61,29.733,32.089,9.262,8.07
323,0.616,37.541,25.165,43.61,29.736,33.11,9.3,8.069
324,0.619,37.629,25.228,43.601,29.743,34.096,9.382,8.109
325,0.623,37.371,25.24,43.591,29.737,34.715,9.301,7.947
326,0.636,37.531,25.143,43.639,29.747,35.088,9.463,8.189
327,0.659,37.667,25.181,43.639,29.744,35.335,9.383,8.11
328,0.646,37.745,25.174,43.601,29.743,35.378,9.423,8.15
329,0.649,37.267,25.216,43.639,29.757,35.257,9.505,8.191
330,0.629,37.367,25.209,43.611,29.737,34.727,9.343,8.07
331,0.616,37.512,25.232,43.601,29.74,34.315,9.342,8.028
332,0.613,37.581,25.244,43.61,29.747,33.823,9.301,8.109
333,0.603,37.342,25.182,43.601,29.744,33.168,9.219,8.028
334,0.6,37.512,25.115,43.629,29.747,32.998,9.34,8.19
335,0.606,37.638,25.15,43.63,29.75,32.672,9.219,8.192
336,0.609,37.688,25.228,43.63,29.744,32.343,9.178,8.11
337,0.596,37.439,25.244,43.668,29.754,32.014,9.259,8.354
338,0.574,37.523,25.202,43.601,29.74,31.442,9.097,8.193
339,0.59,37.648,25.154,43.61,29.733,31.273,9.014,8.151
340,0.603,37.688,25.127,43.62,29.736,31.313,9.135,8.232
341,0.593,37.295,25.134,43.591,29.719,31.394,8.933,8.07
342,0.606,37.464,25.126,43.629,29.743,32.249,9.175,8.272
343,0.606,37.571,25.189,43.62,29.743,33.233,9.177,8.193
344,0.609,37.418,25.185,43.63,29.74,34.219,9.137,8.232
345,0.629,37.379,25.24,43.658,29.754,35.123,9.299,8.355
346,0.619,37.493,25.112,43.62,29.73,35.417,9.138,8.234
347,0.629,37.6,25.177,43.62,29.74,35.664,9.177,8.151
348,0.629,37.409,25.181,43.62,29.743,35.747,9.218,8.11
349,0.645,37.484,25.185,43.601,29.737,35.545,9.096,8.109
350,0.636,37.667,25.236,43.639,29.747,35.502,9.339,8.232
351,0.623,37.745,25.221,43.639,29.744,34.973,9.26,8.273
352,0.619,37.276,25.221,43.63,29.743,34.439,9.259,8.233
353,0.616,37.454,25.229,43.658,29.754,34.068,9.341,8.314
354,0.593,37.532,25.158,43.611,29.74,33.495,9.179,8.234
355,0.587,37.629,25.166,43.62,29.733,33.164,9.096,8.192
356,0.59,37.304,25.189,43.61,29.743,32.836,9.176,8.273
357,0.574,37.435,25.24,43.601,29.73,32.263,8.933,8.193
358,0.603,37.599,25.229,43.648,29.747,31.932,9.175,8.395
359,0.59,37.658,25.213,43.639,29.747,31.644,9.137,8.356
360,0.6,37.343,25.201,43.63,29.744,31.601,9.095,8.356
361,0.616,37.502,25.189,43.658,29.75,31.763,9.339,8.437
362,0.593,37.59,25.178,43.62,29.744,32.131,9.179,8.397
363,0.609,37.649,25.189,43.61,29.737,32.988,9.177,8.316
364,0.626,37.189,25.174,43.629,29.74,34.013,9.259,8.315
365,0.619,37.309,25.216,43.591,29.73,34.633,9.341,8.315
366,0.629,37.464,25.217,43.629,29.747,35.168,9.423,8.315
367,0.639,37.494,25.139,43.63,29.744,35.336,9.464,8.274
368,0.636,37.312,25.154,43.63,29.743,35.378,9.505,8.274
369,0.639,37.493,25.193,43.668,29.75,35.338,9.628,8.314
370,0.623,37.552,25.197,43.62,29.737,34.809,9.507,8.234
371,0.623,37.351,25.217,43.601,29.736,34.316,9.506,8.07
372,0.61,37.177,25.225,43.62,29.743,33.782,9.506,8.15
373,0.6,37.28,25.237,43.591,29.73,33.208,9.425,8.028
374,0.609,37.435,25.209,43.648,29.747,33.121,9.546,8.19
375,0.6,37.206,25.186,43.63,29.74,32.957,9.588,8.232
376,0.596,37.3,25.166,43.63,29.74,32.752,9.547,8.151
377,0.6,37.483,25.216,43.658,29.75,32.547,9.628,8.273
378,0.58,37.513,25.233,43.611,29.733,31.935,9.426,8.111
379,0.586,37.111,25.24,43.629,29.736,31.726,9.424,8.028
380,0.596,37.232,25.174,43.639,29.743,31.846,9.464,8.109
381,0.6,37.329,25.174,43.582,29.73,31.928,9.302,7.987
382,0.609,37.445,25.181,43.639,29.74,32.742,9.504,8.108
383,0.626,37.072,25.057,43.658,29.747,33.726,9.546,8.069
384,0.613,37.222,25.172,43.63,29.737,34.63,9.588,8.109
385,0.632,37.377,25.24,43.658,29.754,35.534,9.71,8.191
386,0.619,37.378,25.229,43.62,29.74,35.706,9.67,7.988
387,0.639,36.985,25.143,43.61,29.743,35.87,9.67,7.946
388,0.623,37.134,25.142,43.62,29.74,35.912,9.751,7.905
389,0.619,37.261,25.162,43.582,29.726,35.668,9.63,7.782
390,0.626,37.329,25.189,43.629,29.747,35.382,9.832,7.944
391,0.603,37.08,25.154,43.62,29.744,34.769,9.875,7.945
392,0.603,37.222,25.201,43.63,29.743,34.234,9.794,7.986
393,0.613,37.357,25.213,43.649,29.754,33.782,9.915,8.027
394,0.587,37.349,25.221,43.601,29.733,33.33,9.754,7.865
395,0.567,36.946,25.092,43.61,29.736,33.163,9.793,7.904
396,0.577,37.096,25.145,43.601,29.736,32.836,9.753,7.945
397,0.577,37.212,25.181,43.601,29.733,32.344,9.671,7.823
398,0.583,37.146,25.228,43.639,29.736,32.096,9.751,8.025
399,0.586,36.983,25.244,43.63,29.74,31.809,9.752,8.027
400,0.59,37.096,25.225,43.62,29.743,31.806,9.752,8.068
401,0.603,37.222,25.237,43.658,29.75,31.968,9.833,8.15
402,0.603,36.801,25.182,43.601,29.733,32.295,9.672,7.947
403,0.616,36.893,25.099,43.62,29.74,33.396,9.751,7.945
404,0.603,37.038,25.149,43.62,29.737,34.383,9.793,7.986
405,0.606,37.135,25.201,43.62,29.73,35.084,9.712,7.783
406,0.619,36.791,25.248,43.63,29.743,35.66,9.874,8.025
407,0.623,36.922,25.174,43.61,29.743,35.91,9.794,7.946
408,0.619,37.048,25.135,43.61,29.743,35.913,9.834,7.905
409,0.636,37.164,25.189,43.744,29.757,35.913,9.916,8.026
410,0.616,36.666,25.158,43.612,29.74,35.384,9.794,7.905
411,0.616,36.815,25.173,43.61,29.74,34.891,9.753,7.823
412,0.619,36.97,25.162,43.61,29.74,34.479,9.752,7.863
413,0.626,37.029,25.205,43.601,29.73,33.784,9.63,7.782
414,0.619,36.771,25.221,43.639,29.743,33.655,9.71,7.984
415,0.619,36.912,25.158,43.63,29.74,33.451,9.63,7.905
416,0.629,37.038,25.173,43.63,29.737,33.123,9.67,7.985
417,0.623,37.116,25.213,43.63,29.747,32.835,9.751,8.108
418,0.632,36.714,25.229,43.61,29.73,32.182,9.508,7.947
419,0.649,36.873,25.24,43.601,29.736,32.053,9.506,7.945
420,0.668,37.018,25.244,43.61,29.743,32.133,9.465,7.945
421,0.682,37.029,25.217,43.591,29.73,32.216,9.302,7.905
422,0.695,36.684,25.248,43.62,29.74,32.989,9.544,7.985
423,0.721,36.825,25.163,43.62,29.74,34.176,9.466,7.946
424,0.737,36.96,25.177,43.62,29.74,35.163,9.505,8.026
425,0.754,36.942,25.22,43.639,29.747,36.068,9.587,8.068
426,0.757,36.635,25.217,43.601,29.737,36.361,9.344,7.824
427,0.78,36.776,25.205,43.61,29.73,36.527,9.423,7.741
428,0.79,36.902,25.076,43.61,29.74,36.528,9.424,7.821
429,0.803,36.673,25.165,43.696,29.733,36.325,9.342,7.7
430,0.807,36.767,25.162,43.611,29.743,35.957,9.504,7.861
431,0.803,36.883,25.185,43.61,29.74,35.466,9.506,7.904
432,0.813,36.99,25.166,43.629,29.737,34.81,9.384,7.823
433,0.82,36.502,25.205,43.63,29.747,34.438,9.505,8.025
434,0.826,36.602,25.228,43.601,29.733,33.743,9.262,7.824
435,0.826,36.757,25.131,43.601,29.733,33.411,9.259,7.944
436,0.833,36.854,25.142,43.62,29.736,33.001,9.3,7.864
437,0.826,36.51,25.165,43.601,29.736,32.509,9.26,7.863
438,0.836,36.669,25.248,43.629,29.736,32.097,9.259,8.026
439,0.852,36.805,25.217,43.63,29.736,31.727,9.259,8.068
440,0.859,36.864,25.252,43.61,29.733,31.561,9.259,7.987
441,0.872,36.433,25.198,43.62,29.743,31.681,9.381,8.108
442,0.856,36.573,25.221,43.582,29.723,32.089,9.22,7.906
443,0.872,36.699,25.139,43.6,29.729,33.069,9.259,7.985
444,0.872,36.786,25.173,43.62,29.736,34.136,9.341,7.946
445,0.879,36.691,25.209,43.582,29.73,34.878,9.219,7.823
446,0.882,36.853,25.225,43.62,29.743,35.414,9.381,7.985
447,0.885,36.97,25.19,43.601,29.743,35.664,9.382,7.946
448,0.872,37.01,25.115,43.601,29.743,35.707,9.423,7.945
449,0.863,36.329,25.071,43.62,29.75,35.748,9.505,8.067
450,0.849,36.457,25.165,43.677,29.744,35.342,9.303,7.906
451,0.836,36.592,25.17,43.62,29.74,34.89,9.382,7.945
452,0.839,36.805,25.162,43.62,29.743,34.439,9.382,7.986
453,0.807,36.557,25.177,43.591,29.73,33.784,9.261,7.783
454,0.784,36.727,25.224,43.62,29.743,33.574,9.422,7.984
455,0.784,36.796,25.143,43.601,29.74,33.328,9.424,7.986
456,0.79,36.433,25.165,43.601,29.737,32.959,9.302,7.986
457,0.777,36.506,25.189,43.639,29.747,32.63,9.423,8.149
458,0.774,36.593,25.185,43.601,29.733,32.058,9.261,7.988
459,0.771,36.718,25.24,43.601,29.74,31.808,9.219,7.946
460,0.787,36.374,25.225,43.591,29.74,31.765,9.178,7.986
461,0.787,36.486,25.252,43.591,29.733,31.805,9.137,7.864
462,0.793,36.64,25.202,43.62,29.743,32.375,9.299,8.107
463,0.8,36.709,25.178,43.591,29.743,33.438,9.301,8.028
464,0.79,36.25,25.142,43.62,29.74,34.424,9.301,8.027
465,0.78,36.418,25.212,43.63,29.747,35.247,9.382,8.068
466,0.767,36.506,25.213,43.572,29.733,35.581,9.261,7.946
467,0.77,36.593,25.209,43.581,29.736,35.869,9.381,7.823
468,0.757,36.392,25.162,43.6,29.74,35.871,9.423,7.944
469,0.757,36.534,25.099,43.572,29.733,35.749,9.302,7.783
470,0.738,36.67,25.06,43.619,29.74,35.545,9.463,7.984
471,0.721,36.719,25.071,43.62,29.733,35.096,9.383,7.946
472,0.724,36.269,25.173,43.601,29.743,34.481,9.382,7.986
473,0.708,36.437,25.142,43.629,29.743,34.231,9.505,8.027
474,0.685,36.515,25.201,43.582,29.737,33.782,9.384,7.905
475,0.679,36.554,25.174,43.591,29.736,33.655,9.301,7.945
476,0.678,36.449,25.08,43.6,29.736,33.41,9.301,7.945
477,0.649,36.592,25.141,43.591,29.719,33.001,9.219,7.823
478,0.655,36.718,25.204,43.591,29.743,32.712,9.381,7.985
479,0.629,37.026,25.248,43.6,29.743,32.587,9.301,8.027
480,0.623,36.32,25.252,43.591,29.737,32.505,9.26,8.027
481,0.655,36.485,25.252,43.62,29.75,32.91,9.341,8.109
482,0.629,36.564,25.209,43.582,29.733,33.403,9.219,7.906
483,0.639,36.325,25.221,43.581,29.733,34.505,9.178,7.863
484,0.642,36.39,25.162,43.6,29.743,35.573,9.177,7.863
485,0.623,36.486,25.173,43.572,29.73,36.194,9.137,7.822
486,0.636,36.621,25.205,43.591,29.743,36.85,9.258,7.863
487,0.639,36.182,25.252,43.591,29.743,37.02,9.259,7.944
488,0.639,36.283,25.182,43.581,29.737,36.981,9.3,7.864
489,0.642,36.475,25.166,43.62,29.75,36.899,9.341,7.944
490,0.616,36.516,25.095,43.572,29.733,36.37,9.26,7.823
491,0.597,36.181,25.114,43.581,29.733,35.795,9.137,7.822
492,0.596,36.331,25.165,43.658,29.736,35.22,9.095,7.781
493,0.574,36.438,25.127,43.563,29.723,34.604,9.054,7.822
494,0.583,36.554,25.212,43.571,29.74,34.395,9.257,7.944
495,0.573,36.277,25.205,43.591,29.74,34.23,9.219,8.067
496,0.567,36.437,25.147,43.581,29.74,33.944,9.137,7.987
497,0.586,36.602,25.158,43.61,29.75,33.657,9.177,8.108
498,0.564,36.594,25.189,43.562,29.737,33.166,9.055,8.15
499,0.56,36.325,25.193,43.552,29.736,32.836,8.932,8.028
500,0.563,36.495,25.217,43.581,29.74,32.955,8.972,8.109
501,0.567,36.573,25.217,43.552,29.726,33.078,8.972,8.069
502,0.58,36.67,25.233,43.6,29.74,33.811,9.013,8.109
503,0.59,36.211,25.205,43.581,29.737,34.875,9.054,8.191
504,0.593,36.35,25.108,43.591,29.733,35.658,9.095,8.192
505,0.603,36.505,25.181,43.6,29.743,36.398,9.176,8.11
506,0.59,36.669,25.217,43.572,29.743,36.731,9.177,8.15
507,0.613,36.22,25.236,43.552,29.733,36.734,9.096,8.028
508,0.603,36.369,25.182,43.562,29.743,36.734,9.136,8.027
509,0.609,36.476,25.154,43.552,29.733,36.449,9.177,8.027
510,0.609,36.429,25.115,43.562,29.74,35.999,9.177,8.068
511,0.596,36.477,25.126,43.581,29.743,35.466,9.259,8.109
512,0.596,36.631,25.095,43.6,29.743,34.892,9.259,8.109
513,0.606,36.767,25.145,43.581,29.747,34.439,9.259,8.028
514,0.577,36.068,25.197,43.562,29.744,34.109,9.3,8.19
515,0.57,36.166,25.201,43.543,29.733,33.699,9.219,8.11
516,0.57,36.321,25.147,43.562,29.74,33.41,9.259,8.109
517,0.544,36.399,25.068,43.581,29.737,32.96,9.3,8.232
518,0.554,36.179,25.149,43.562,29.736,32.59,9.341,8.192
519,0.557,36.311,25.189,43.591,29.747,32.342,9.301,8.232
520,0.563,36.437,25.174,43.562,29.737,32.339,9.341,8.273
521,0.58,36.554,25.236,43.581,29.736,32.421,9.26,8.233
522,0.57,36.21,25.217,43.562,29.743,33.032,9.341,8.273
523,0.583,36.36,25.236,43.543,29.737,34.054,9.26,8.152
524,0.583,36.486,25.112,43.562,29.736,35.081,9.422,8.15
525,0.583,36.535,25.126,43.543,29.733,35.782,9.383,8.15
526,0.606,36.104,25.177,43.571,29.74,36.318,9.423,8.191
527,0.619,36.263,25.228,43.552,29.747,36.608,9.505,8.192
528,0.61,36.399,25.217,43.562,29.744,36.57,9.506,8.192
529,0.626,36.467,25.17,43.571,29.747,36.326,9.546,8.151
530,0.603,36.17,25.131,43.552,29.747,35.876,9.506,8.191
531,0.59,36.34,25.111,43.543,29.733,35.302,9.506,8.07
532,0.58,36.457,25.122,43.552,29.736,34.89,9.465,8.069
533,0.567,36.439,25.15,43.514,29.726,34.235,9.383,8.069
534,0.577,36.218,25.216,43.552,29.743,34.066,9.505,8.231
535,0.573,36.36,25.244,43.552,29.74,33.82,9.425,8.233
536,0.57,36.476,25.143,43.552,29.743,33.452,9.342,8.192
537,0.56,36.305,25.177,43.61,29.754,33.164,9.342,8.273
538,0.557,36.246,25.135,43.534,29.74,32.592,9.301,8.274
539,0.554,36.389,25.177,43.533,29.743,32.342,9.219,8.111
540,0.57,36.496,25.201,43.542,29.743,32.421,9.259,8.109
541,0.573,36.123,25.217,43.514,29.73,32.462,9.137,8.109
542,0.593,36.263,25.209,43.542,29.74,33.113,9.217,8.15
543,0.58,36.399,25.225,43.533,29.743,34.258,9.259,8.15
544,0.596,36.477,25.139,43.533,29.743,35.246,9.259,8.15
545,0.622,36.036,25.173,43.571,29.75,36.069,9.341,8.191
546,0.6,36.147,25.197,43.524,29.744,36.402,9.342,8.151
547,0.616,36.273,25.221,43.523,29.74,36.649,9.179,7.947
548,0.616,36.37,25.225,43.533,29.737,36.652,9.259,8.026
549,0.603,36.083,25.155,43.504,29.73,36.53,9.219,8.027
550,0.606,36.262,25.15,43.533,29.743,36.203,9.259,8.068
551,0.593,36.399,25.103,43.542,29.747,35.671,9.3,8.15
552,0.59,36.467,25.142,43.523,29.747,35.097,9.26,8.191
553,0.58,36.19,25.138,43.542,29.747,34.563,9.219,8.151
554,0.577,36.321,25.22,43.523,29.737,34.069,9.259,8.232
555,0.567,36.428,25.213,43.514,29.733,33.739,9.097,8.111
556,0.573,36.477,25.162,43.542,29.74,33.411,9.095,8.109
557,0.554,36.113,25.17,43.523,29.733,32.919,9.054,8.191
558,0.573,36.301,25.174,43.523,29.74,32.508,9.095,8.273
559,0.586,36.408,25.197,43.542,29.743,32.26,9.095,8.355
560,0.593,36.419,25.205,43.523,29.743,32.135,9.054,8.315
561,0.606,36.189,25.209,43.523,29.743,32.297,9.095,8.274
562,0.609,36.302,25.232,43.523,29.747,32.949,9.136,8.355
563,0.629,36.399,25.237,43.504,29.733,33.728,9.014,8.315
564,0.652,36.362,25.112,43.504,29.74,34.752,9.216,8.315
565,0.662,36.361,25.126,43.513,29.743,35.494,9.178,8.274
566,0.708,36.505,25.154,43.513,29.737,35.868,9.218,8.274
567,0.754,36.612,25.22,43.504,29.736,36.075,9.34,8.355
568,0.78,36.018,25.233,43.504,29.743,36.117,9.26,8.275
569,0.803,36.099,25.194,43.513,29.743,36.037,9.259,8.314
570,0.81,36.224,25.162,43.523,29.747,35.914,9.422,8.396
571,0.803,36.321,25.154,43.494,29.733,35.181,9.261,8.275
572,0.846,36.054,25.08,43.504,29.736,34.726,9.259,8.314
573,0.849,36.185,25.114,43.504,29.743,34.152,9.259,8.274
574,0.888,36.34,25.146,43.504,29.737,33.74,9.178,8.274
575,0.918,36.438,25.224,43.504,29.743,33.695,9.259,8.355
576,0.944,36.093,25.178,43.513,29.74,33.37,9.137,8.397
577,0.971,36.243,25.131,43.513,29.733,32.96,9.177,8.438
578,1.007,36.389,25.15,43.523,29.75,32.671,9.299,8.56
579,1.046,36.429,25.162,43.485,29.737,32.262,9.097,8.399
580,1.085,36.093,25.193,43.484,29.736,32.298,9.095,8.356
581,1.135,36.243,25.205,43.494,29.743,32.583,9.217,8.437
582,1.187,36.37,25.236,43.494,29.733,33.115,9.096,8.275
583,1.227,36.419,25.237,43.513,29.743,34.299,9.258,8.477
584,1.266,36.055,25.151,43.504,29.747,35.246,9.259,8.479
585,1.289,36.214,25.165,43.494,29.747,36.028,9.219,8.357
586,1.319,36.35,25.189,43.513,29.754,36.483,9.422,8.559
587,1.339,36.332,25.197,43.466,29.73,36.488,9.22,8.358
588,1.329,36.092,25.236,43.484,29.74,36.528,9.3,8.234
589,1.313,36.234,25.205,43.494,29.747,36.325,9.26,8.314
590,1.267,36.369,25.182,43.465,29.733,35.876,9.137,8.193
591,1.198,36.208,25.178,43.494,29.75,35.424,9.339,8.436
592,1.165,36.091,25.127,43.484,29.744,34.769,9.26,8.397
593,1.145,36.243,25.15,43.465,29.737,34.153,9.259,8.356
594,1.119,36.35,25.169,43.513,29.75,33.862,9.341,8.559
595,1.067,36.045,25.22,43.456,29.733,33.453,9.138,8.399
596,0.995,36.118,25.19,43.475,29.74,33.164,9.258,8.438
597,0.909,36.272,25.119,43.484,29.74,32.754,9.137,8.479
598,0.837,36.37,25.13,43.542,29.733,32.344,9.014,8.357
599,0.748,36.054,25.157,43.495,29.743,32.177,9.216,8.559
600,0.64,36.176,25.142,43.484,29.74,32.216,9.137,8.439
601,0.535,36.321,25.181,43.475,29.74,32.501,9.136,8.438
602,0.407,36.399,25.189,43.494,29.743,33.236,9.339,8.519
603,0.315,36.007,25.26,43.446,29.74,34.137,9.179,8.398
604,0.229,36.175,25.194,43.474,29.733,35.204,9.259,8.356
605,0.154,36.311,25.154,43.58,29.74,36.028,9.341,8.397
606,0.078,36.38,25.181,43.466,29.737,36.442,9.301,8.356
607,0.006,36.064,25.209,43.465,29.743,36.69,9.463,8.397
608,-0.089,36.186,25.229,43.465,29.74,36.734,9.465,8.275
609,-0.139,36.331,25.201,43.455,29.74,36.693,9.465,8.396
610,-0.156,36.399,25.205,43.475,29.743,36.408,9.546,8.478
611,-0.169,36.103,25.15,43.446,29.733,35.795,9.344,8.195
612,-0.137,36.234,25.15,43.455,29.74,35.301,9.382,8.232
613,-0.127,36.369,25.056,43.484,29.74,34.768,9.382,8.273
614,-0.074,36.419,25.149,43.465,29.733,34.437,9.301,8.233
615,-0.028,36.141,25.216,43.465,29.74,34.231,9.423,8.355
616,0.014,36.282,25.205,43.446,29.743,33.863,9.383,8.356
617,0.064,36.389,25.123,43.465,29.737,33.453,9.382,8.397
618,0.097,36.256,25.017,43.494,29.743,33.001,9.382,8.438
619,0.129,36.053,25.141,43.456,29.733,32.59,9.261,8.316
620,0.185,36.176,25.165,43.436,29.733,32.586,9.3,8.356
621,0.241,36.321,25.158,43.455,29.736,32.708,9.341,8.356
622,0.3,36.025,25.212,43.427,29.74,33.197,9.219,8.275
623,0.375,36.108,25.186,43.455,29.74,34.218,9.381,8.436
624,0.441,36.244,25.166,43.436,29.74,35.164,9.382,8.357
625,0.497,36.341,25.154,43.532,29.737,35.783,9.301,8.356
626,0.543,36.035,25.185,43.485,29.75,36.236,9.463,8.478
627,0.583,36.147,25.158,43.417,29.74,36.241,9.18,8.195
628,0.609,36.292,25.224,43.436,29.74,36.282,9.259,8.273
629,0.645,36.38,25.213,43.446,29.737,36.119,9.341,8.355
630,0.662,36.016,25.19,43.427,29.736,35.711,9.26,8.193
631,0.669,36.175,25.201,43.445,29.736,35.26,9.3,8.273
632,0.669,36.302,25.119,43.436,29.74,34.605,9.26,8.233
633,0.672,36.38,25.153,43.446,29.737,34.07,9.137,8.314
634,0.665,36.064,25.15,43.465,29.743,33.82,9.299,8.477
635,0.649,36.176,25.236,43.427,29.737,33.371,9.056,8.276
636,0.659,36.321,25.202,43.436,29.736,33.163,9.054,8.274
637,0.649,36.38,25.111,43.446,29.743,32.754,9.054,8.355
638,0.646,36.083,25.157,43.522,29.733,32.303,8.932,8.193
639,0.655,36.282,25.158,43.446,29.747,32.176,9.093,8.436
640,0.659,36.37,25.189,43.455,29.747,32.175,8.973,8.438
641,0.662,36.419,25.154,43.436,29.747,32.419,8.972,8.357
642,0.675,36.093,25.212,43.455,29.757,33.032,9.135,8.478
643,0.665,36.186,25.19,43.427,29.73,33.932,8.933,8.276
644,0.672,36.321,25.205,43.417,29.743,34.998,8.972,8.274
645,0.675,36.332,25.162,43.417,29.74,35.741,9.013,8.274
646,0.682,36.14,25.166,43.388,29.733,36.033,8.932,8.193
647,0.688,36.311,25.166,43.426,29.74,36.442,9.215,8.314
648,0.695,36.399,25.232,43.426,29.737,36.528,9.178,8.234
649,0.701,35.968,25.213,43.417,29.74,36.366,9.137,8.273
650,0.685,36.06,25.205,43.436,29.754,36.161,9.38,8.396
651,0.669,36.176,25.197,43.407,29.737,35.468,9.179,8.275
652,0.672,36.283,25.143,43.397,29.736,34.973,9.259,8.233
653,0.662,35.948,25.021,43.426,29.736,34.48,9.178,8.314
654,0.659,36.06,25.137,43.388,29.736,34.028,9.177,8.234
655,0.665,36.224,25.232,43.426,29.74,33.861,9.299,8.355
656,0.662,36.312,25.198,43.398,29.743,33.534,9.301,8.356
657,0.656,35.91,25.135,43.397,29.73,33.043,9.26,8.397
658,0.668,36.079,25.095,43.445,29.75,32.753,9.341,8.438
659,0.659,36.186,25.165,43.398,29.737,32.262,9.301,8.397
660,0.672,36.273,25.154,43.388,29.74,32.258,9.178,8.356
661,0.688,36.082,25.181,43.426,29.737,32.42,9.177,8.356
662,0.679,36.205,25.138,43.359,29.733,32.91,9.218,8.397
663,0.701,36.388,25.197,43.406,29.747,34.175,9.34,8.397
664,0.714,36.429,25.217,43.388,29.737,35.204,9.342,8.438
665,0.705,35.94,25.088,43.426,29.736,35.946,9.382,8.357
666,0.721,36.127,25.149,43.436,29.757,36.482,9.505,8.356
667,0.721,36.215,25.158,43.378,29.74,36.65,9.425,8.315
668,0.718,36.254,25.205,43.368,29.737,36.611,9.342,8.193
669,0.724,36.024,25.197,43.387,29.733,36.407,9.423,8.273
670,0.708,36.147,25.197,43.359,29.736,35.958,9.383,8.274
671,0.715,36.301,25.189,43.387,29.736,35.425,9.342,8.233
672,0.724,36.408,25.197,43.397,29.747,34.973,9.423,8.233
673,0.718,36.122,25.057,43.388,29.747,34.317,9.342,8.273
674,0.724,36.301,25.172,43.407,29.744,33.945,9.342,8.274
675,0.708,36.37,25.205,43.369,29.74,33.657,9.301,8.436
676,0.715,35.959,25.213,43.359,29.737,33.247,9.26,8.235
677,0.702,36.002,25.147,43.387,29.74,32.877,9.219,8.314
678,0.698,36.137,25.068,43.378,29.737,32.386,9.3,8.356
679,0.695,36.263,25.153,43.378,29.733,32.259,9.178,8.275
680,0.708,36.063,25.181,43.378,29.736,32.258,9.259,8.396
681,0.718,36.166,25.178,43.368,29.74,32.42,9.219,8.438
682,0.728,36.321,25.177,43.387,29.74,33.032,9.218,8.397
683,0.734,36.399,25.24,43.378,29.747,34.217,9.34,8.438
684,0.738,35.93,25.213,43.349,29.737,35.001,9.26,8.316
685,0.747,36.088,25.111,43.378,29.736,35.822,9.259,8.274
686,0.741,36.205,25.118,43.368,29.733,36.237,9.3,8.314
687,0.767,36.312,25.189,43.359,29.74,36.404,9.301,8.152
688,0.767,36.217,25.228,43.359,29.747,36.568,9.341,8.313
689,0.767,36.369,25.205,43.368,29.74,36.366,9.382,8.274
690,0.757,36.524,25.205,43.378,29.74,36.039,9.382,8.274
691,0.751,36.564,25.189,43.378,29.747,35.589,9.464,8.436
692,0.738,35.912,25.162,43.349,29.733,34.893,9.302,8.275
693,0.741,36.079,25.06,43.378,29.74,34.357,9.219,8.355
694,0.725,36.205,25.149,43.349,29.737,34.027,9.178,8.356
695,0.741,36.254,25.177,43.33,29.733,33.698,9.218,8.397
696,0.741,35.996,25.236,43.358,29.743,33.492,9.218,8.519
697,0.731,36.137,25.17,43.359,29.743,33.083,9.178,8.601
698,0.728,36.263,25.127,43.349,29.743,32.632,9.137,8.521
699,0.738,36.562,25.138,43.454,29.747,32.383,9.258,8.683
700,0.747,36.085,25.154,43.331,29.73,32.177,8.975,8.481
701,0.744,36.234,25.127,43.33,29.736,32.297,9.013,8.601
702,0.751,36.36,25.177,43.358,29.736,32.705,9.135,8.562
703,0.757,35.987,25.17,43.32,29.73,33.604,9.014,8.48
704,0.767,36.031,25.193,43.349,29.743,34.629,9.216,8.601
705,0.774,36.166,25.131,43.339,29.737,35.249,9.137,8.521
706,0.78,36.283,25.181,43.339,29.74,35.54,9.136,8.601
707,0.787,35.948,25.189,43.368,29.75,35.868,9.258,8.684
708,0.784,36.05,25.193,43.32,29.733,35.709,9.178,8.481
709,0.79,36.205,25.232,43.32,29.743,35.545,9.177,8.52
710,0.784,36.283,25.221,43.329,29.74,35.299,9.218,8.479
711,0.777,36.034,25.17,43.31,29.73,34.727,9.096,8.357
712,0.784,36.204,25.189,43.329,29.743,34.356,9.258,8.6
713,0.774,36.331,25.049,43.31,29.737,33.823,9.259,8.562
714,0.774,36.399,25.114,43.32,29.74,33.452,9.219,8.602
715,0.777,35.911,25.185,43.358,29.75,33.326,9.381,8.724
716,0.764,36.031,25.209,43.301,29.737,32.919,9.179,8.481
717,0.751,36.166,25.174,43.3,29.733,32.549,9.177,8.56
718,0.77,36.235,25.092,43.31,29.733,32.179,9.299,8.521
719,0.741,35.957,25.134,43.31,29.733,31.809,9.138,8.398
720,0.786,36.127,25.146,43.387,29.74,31.968,9.339,8.6
721,0.793,36.253,25.162,43.321,29.743,32.214,9.301,8.48
722,0.793,36.274,25.189,43.32,29.74,32.745,9.382,8.438
723,0.806,35.929,25.178,43.32,29.754,33.807,9.464,8.682
724,0.807,36.05,25.205,43.291,29.73,34.631,9.302,8.4
725,0.823,36.166,25.119,43.291,29.736,35.209,9.301,8.397
726,0.826,36.474,25.146,43.31,29.74,35.661,9.382,8.356
727,0.839,35.969,25.15,43.272,29.737,35.747,9.261,8.193
728,0.836,36.127,25.22,43.3,29.75,35.87,9.422,8.354
729,0.843,36.215,25.221,43.31,29.744,35.709,9.464,8.315
730,0.826,36.062,25.217,43.291,29.737,35.341,9.465,8.396
731,0.833,36.118,25.221,43.31,29.754,34.972,9.546,8.438
732,0.817,36.234,25.197,43.262,29.733,34.196,9.344,8.275
733,0.82,36.341,25.092,43.281,29.733,33.619,9.26,8.274
734,0.82,35.834,25.145,43.281,29.736,33.247,9.3,8.314
735,0.803,35.924,25.177,43.252,29.726,33.04,9.219,8.274
736,0.82,36.079,25.228,43.29,29.743,32.875,9.381,8.396
737,0.807,36.186,25.166,43.272,29.74,32.467,9.342,8.438
738,0.807,35.899,25.103,43.271,29.74,32.097,9.26,8.357
739,0.816,36.069,25.091,43.31,29.75,32.053,9.422,8.519
740,0.823,36.214,25.149,43.272,29.733,31.971,9.261,8.358
741,0.843,36.264,25.162,43.252,29.733,32.214,9.219,8.356
742,0.849,35.833,25.173,43.243,29.733,32.786,9.259,8.275
743,0.856,35.953,25.193,43.214,29.729,33.727,9.178,8.193
744,0.862,36.108,25.236,43.28,29.743,34.874,9.38,8.354
745,0.879,36.157,25.151,43.262,29.743,35.536,9.423,8.315
746,0.879,35.947,25.126,43.252,29.737,35.787,9.383,8.356
747,0.905,36.117,25.193,43.271,29.754,36.114,9.464,8.315
748,0.886,36.205,25.178,43.233,29.733,35.996,9.262,8.193
749,0.895,36.254,25.205,43.233,29.733,35.832,9.3,8.151
750,0.895,35.871,25.205,43.233,29.736,35.627,9.341,8.273
751,0.876,35.982,25.174,43.204,29.736,35.015,9.26,8.152
752,0.898,36.146,25.185,43.232,29.743,34.602,9.463,8.313
753,0.886,36.148,25.115,43.242,29.747,34.11,9.465,8.315
754,0.879,35.918,25.13,43.233,29.74,33.699,9.343,8.274
755,0.895,36.079,25.2,43.261,29.75,33.614,9.423,8.314
756,0.892,36.147,25.225,43.204,29.737,33.166,9.383,8.234
757,0.879,35.966,25.178,43.204,29.736,32.714,9.261,8.233
758,0.885,35.974,25.131,43.223,29.736,32.425,9.259,8.314
759,0.885,36.089,25.025,43.194,29.733,32.137,9.178,8.234
760,0.905,36.234,25.168,43.242,29.743,32.256,9.299,8.273
761,0.918,35.689,25.162,43.3,29.747,32.42,9.301,8.274
762,0.925,35.798,25.15,43.214,29.744,32.95,9.26,8.274
763,0.948,35.953,25.189,43.233,29.747,33.972,9.3,8.233
764,0.938,35.993,25.201,43.194,29.744,34.958,9.219,8.273
765,0.951,35.811,25.119,43.194,29.74,35.496,9.178,8.111
766,0.958,35.972,25.138,43.204,29.733,35.99,9.259,8.15
767,0.954,36.089,25.142,43.194,29.736,36.076,9.219,8.11
768,0.984,36.215,25.204,43.184,29.74,36.077,9.178,8.069
769,0.987,35.746,25.236,43.194,29.743,35.955,9.299,8.15
770,0.987,35.895,25.174,43.194,29.747,35.466,9.301,8.11
771,1.0,36.05,25.22,43.213,29.744,34.973,9.301,8.109
772,0.978,36.08,25.19,43.213,29.747,34.399,9.341,8.191
773,0.968,35.783,25.17,43.175,29.737,33.743,9.097,8.07
774,0.971,35.953,25.131,43.175,29.736,33.329,9.176,8.15
775,0.964,36.05,25.177,43.146,29.736,33.122,9.137,8.069
776,0.984,36.128,25.217,43.174,29.74,32.957,9.136,8.109
777,0.978,35.86,25.205,43.194,29.743,32.63,9.177,8.232
778,0.984,35.992,25.162,43.175,29.74,32.18,9.137,8.233
779,1.01,36.127,25.084,43.175,29.743,32.013,9.055,8.233
780,0.997,36.119,25.161,43.194,29.743,32.052,9.176,8.314
781,1.02,35.946,25.119,43.175,29.73,32.174,8.974,8.152
782,1.027,36.069,25.165,43.165,29.74,32.704,9.013,8.191
783,1.033,36.166,25.138,43.146,29.733,33.644,9.094,8.151
784,1.053,35.87,25.236,43.174,29.74,34.67,9.095,8.15
785,1.06,35.79,25.127,43.175,29.74,35.29,9.136,8.232
786,1.066,35.924,25.173,43.146,29.747,35.541,9.095,8.233
787,1.102,36.069,25.123,43.194,29.744,35.746,9.176,8.151
788,1.093,35.61,25.189,43.137,29.74,35.789,9.218,8.191
789,1.092,35.721,25.217,43.126,29.737,35.667,9.137,8.07
790,1.099,35.875,25.236,43.136,29.74,35.382,9.136,8.069
791,1.089,35.934,25.205,43.126,29.733,34.891,9.095,8.028
792,1.112,35.839,25.189,43.136,29.74,34.357,9.136,8.027
793,1.112,35.972,25.17,43.155,29.74,33.905,9.095,8.109
794,1.096,36.118,25.138,43.146,29.737,33.494,9.095,8.109
795,1.119,36.234,25.189,43.155,29.736,33.245,9.054,8.109
796,1.115,35.804,25.189,43.136,29.74,32.959,9.135,8.232
797,1.109,35.934,25.228,43.117,29.74,32.468,8.974,8.07
798,1.122,36.06,25.143,43.126,29.74,32.097,8.972,8.231
799,1.119,36.109,25.107,43.117,29.73,31.809,8.972,8.233
800,1.151,35.611,25.095,43.145,29.736,31.806,8.972,8.192
801,1.165,35.769,25.075,43.136,29.74,31.887,9.094,8.273
802,1.174,35.885,25.184,43.136,29.743,32.376,9.095,8.193
803,1.201,35.973,25.146,43.146,29.743,33.194,9.136,8.232
804,1.198,35.801,25.201,43.126,29.737,34.137,9.258,8.233
805,1.204,35.943,25.162,43.107,29.73,34.553,9.137,8.111
806,1.217,36.079,25.029,43.116,29.743,34.964,9.217,8.15
807,1.221,36.09,25.145,43.097,29.73,35.049,9.218,8.232
808,1.237,35.841,25.173,43.097,29.75,35.05,9.3,8.192
809,1.24,35.992,25.209,43.107,29.751,34.847,9.341,8.151
810,1.237,36.089,25.221,43.097,29.733,34.438,9.382,8.191
811,1.247,35.898,25.252,43.116,29.747,34.028,9.423,8.232
812,1.237,35.724,25.206,43.088,29.737,33.292,9.302,8.151
813,1.234,35.866,25.154,43.068,29.733,32.837,9.341,8.11
814,1.234,35.992,25.142,43.078,29.743,32.507,9.342,8.15
815,1.237,35.705,25.134,43.068,29.726,32.219,9.219,8.191
816,1.253,35.837,25.204,43.087,29.74,32.094,9.422,8.273
817,1.234,35.982,25.205,43.078,29.743,31.727,9.424,8.314
818,1.247,36.079,25.139,43.097,29.737,31.276,9.342,8.315
819,1.266,35.869,25.111,43.116,29.75,31.191,9.382,8.437
820,1.27,35.953,25.075,43.069,29.737,31.027,9.301,8.357
821,1.276,36.108,25.126,43.068,29.736,31.188,9.301,8.315
822,1.289,36.186,25.154,43.068,29.74,31.759,9.382,8.315
823,1.286,35.707,25.173,43.049,29.726,32.659,9.301,8.274
824,1.306,35.885,25.216,43.078,29.747,33.766,9.463,8.396
825,1.309,36.021,25.174,43.068,29.74,34.427,9.465,8.356
826,1.316,36.099,25.154,43.097,29.737,34.922,9.465,8.397
827,1.329,35.822,25.154,43.088,29.75,35.252,9.587,8.478
828,1.326,35.905,25.162,43.04,29.73,35.133,9.466,8.276
829,1.335,36.04,25.177,43.039,29.733,35.051,9.424,8.274
830,1.329,36.118,25.205,43.049,29.743,34.847,9.424,8.314
831,1.316,35.86,25.221,43.011,29.73,34.276,9.342,8.193
832,1.326,36.02,25.197,43.048,29.743,33.823,9.545,8.314
833,1.306,36.128,25.166,43.049,29.737,33.371,9.466,8.396
834,1.3,36.177,25.166,43.039,29.743,33.041,9.383,8.356
835,1.299,36.1,25.177,43.058,29.757,32.875,9.545,8.519
836,1.277,36.196,25.201,43.02,29.73,32.386,9.303,8.358
837,1.289,36.321,25.209,43.049,29.743,32.056,9.301,8.356
838,1.283,36.169,25.135,43.039,29.733,31.646,9.301,8.437
839,1.267,36.004,25.068,43.02,29.719,31.316,9.178,8.316
840,1.28,36.156,25.063,43.058,29.743,31.394,9.34,8.437
841,1.289,36.263,25.102,43.049,29.74,31.517,9.301,8.438
842,1.277,36.063,25.118,43.039,29.737,31.965,9.301,8.438
843,1.28,36.186,25.189,43.058,29.754,32.946,9.463,8.519
844,1.267,36.283,25.244,43.011,29.737,33.687,9.343,8.358
845,1.257,36.36,25.135,43.02,29.736,34.345,9.342,8.356
846,1.253,36.102,25.173,43.096,29.74,34.677,9.464,8.315
847,1.25,36.215,25.099,43.001,29.723,34.762,9.383,8.234
848,1.25,36.369,25.184,43.02,29.74,34.966,9.464,8.355
849,1.24,36.457,25.193,43.01,29.747,34.887,9.546,8.315
850,1.224,36.324,25.236,43.001,29.74,34.561,9.506,8.356
851,1.211,36.495,25.244,43.048,29.754,34.313,9.668,8.397
852,1.191,36.573,25.178,42.991,29.74,33.62,9.589,8.397
853,1.158,36.641,25.177,42.991,29.737,33.003,9.466,8.316
854,1.148,36.306,25.127,42.981,29.733,32.753,9.546,8.274
855,1.122,36.399,25.134,42.962,29.736,32.466,9.506,8.274
856,1.132,36.572,25.193,42.99,29.736,32.341,9.587,8.396
857,1.103,36.613,25.209,43.019,29.74,32.014,9.547,8.356
858,1.086,36.555,25.127,43.01,29.74,31.523,9.547,8.356
859,1.083,36.727,25.126,43.029,29.754,31.356,9.588,8.397
860,1.063,36.796,25.068,43.001,29.744,31.191,9.507,8.397
861,1.056,36.816,25.051,43.0,29.737,31.352,9.465,8.275
862,1.05,36.749,25.157,43.0,29.743,31.842,9.505,8.396
863,1.037,36.883,25.134,42.953,29.73,32.701,9.465,8.194
864,1.037,37.018,25.208,43.0,29.743,33.766,9.627,8.354
865,1.024,37.01,25.166,42.981,29.743,34.427,9.588,8.356
866,1.017,36.847,25.134,43.0,29.74,34.8,9.629,8.315
867,1.027,37.008,25.138,43.0,29.747,35.088,9.71,8.315
868,0.988,37.077,25.177,42.972,29.737,35.01,9.67,8.315
869,0.984,36.924,25.193,42.943,29.726,34.846,9.589,8.152
870,0.974,37.028,25.244,42.971,29.733,34.479,9.629,8.191
871,0.938,37.125,25.186,42.962,29.726,34.028,9.507,8.192
872,0.945,37.261,25.248,42.962,29.747,33.657,9.546,8.192
873,0.919,37.118,25.178,42.981,29.74,33.166,9.588,8.314
874,0.899,37.27,25.146,42.962,29.737,32.876,9.547,8.193
875,0.899,37.444,25.154,42.99,29.754,32.711,9.588,8.273
876,0.873,37.456,25.201,42.943,29.737,32.384,9.466,8.193
877,0.853,37.264,25.228,42.952,29.733,32.015,9.383,8.151
878,0.849,37.415,25.158,42.962,29.736,31.686,9.423,8.191
879,0.84,37.522,25.088,42.923,29.726,31.357,9.261,8.151
880,0.846,37.639,25.067,42.961,29.74,31.557,9.422,8.273
881,0.84,37.304,25.083,42.962,29.733,31.722,9.424,8.355
882,0.836,37.454,25.126,43.0,29.743,32.252,9.383,8.234
883,0.846,37.599,25.173,42.981,29.747,33.477,9.505,8.355
884,0.827,37.611,25.213,42.914,29.73,34.303,9.343,8.193
885,0.833,37.534,25.166,42.913,29.74,34.921,9.301,8.192
886,0.83,37.667,25.111,42.942,29.737,35.374,9.341,8.273
887,0.817,37.793,25.126,42.904,29.73,35.501,9.26,8.03
888,0.833,37.843,25.154,42.942,29.74,35.543,9.341,8.271
889,0.833,37.699,25.181,42.933,29.74,35.38,9.301,8.193
890,0.807,37.842,25.205,42.933,29.733,35.013,9.26,8.192
891,0.807,37.968,25.232,42.961,29.75,34.562,9.381,8.354
892,0.784,38.017,25.209,42.914,29.737,33.785,9.179,8.153
893,0.774,37.778,25.205,42.913,29.733,33.248,9.096,8.11
894,0.751,37.91,25.143,42.932,29.74,32.918,9.136,8.191
895,0.761,38.016,25.15,42.885,29.733,32.549,9.014,8.07
896,0.751,37.826,25.177,42.903,29.743,32.423,9.094,8.231
897,0.741,37.891,25.217,42.923,29.74,31.975,9.054,8.233
898,0.741,38.035,25.174,42.923,29.737,31.604,9.013,8.151
899,0.728,38.142,25.135,42.933,29.747,31.478,9.094,8.313
900,0.725,37.894,25.076,42.885,29.73,31.274,8.932,8.112
901,0.741,38.007,25.087,42.903,29.74,31.516,8.85,8.069
902,0.725,38.142,25.056,42.904,29.737,31.965,8.971,8.109
903,0.741,38.239,25.122,42.894,29.74,32.864,8.972,8.069
904,0.751,38.01,25.216,42.904,29.747,33.89,9.053,8.109
905,0.748,38.142,25.193,42.884,29.744,34.551,9.013,8.15
906,0.767,38.287,25.1,42.913,29.737,34.882,9.135,8.11
907,0.777,38.356,25.13,42.913,29.747,35.17,9.258,8.028
908,0.758,38.088,25.15,42.865,29.737,35.051,9.097,7.865
909,0.754,38.239,25.173,42.874,29.733,34.969,9.136,7.863
910,0.744,38.346,25.189,42.875,29.736,34.724,9.217,7.944
911,0.734,38.404,25.217,42.875,29.74,34.234,9.096,7.864
912,0.731,38.127,25.252,42.894,29.743,33.782,9.217,8.026
913,0.728,38.268,25.229,42.884,29.737,33.208,9.218,7.946
914,0.725,38.394,25.065,42.884,29.736,32.795,9.218,7.945
915,0.711,38.424,25.169,42.865,29.75,32.588,9.3,8.108
916,0.708,38.252,25.166,42.865,29.737,32.098,9.138,7.947
917,0.702,38.384,25.236,42.884,29.733,31.727,9.095,7.986
918,0.685,38.472,25.174,42.865,29.733,31.276,9.095,8.068
919,0.695,38.732,25.138,42.855,29.736,31.069,9.176,8.028
920,0.711,38.331,25.103,42.884,29.743,31.066,9.259,8.068
921,0.711,38.471,25.095,42.875,29.737,31.27,9.178,8.069
922,0.711,38.597,25.099,42.875,29.743,31.8,9.218,8.069
923,0.711,38.234,25.134,42.865,29.743,32.781,9.259,8.109
924,0.711,38.278,25.204,42.846,29.733,33.767,9.259,7.947
925,0.718,38.394,25.197,42.865,29.736,34.549,9.3,7.986
926,0.728,38.462,25.1,42.836,29.723,34.882,9.301,8.068
927,0.741,38.233,25.103,42.855,29.743,35.252,9.382,8.069
928,0.731,38.346,25.161,42.846,29.743,35.378,9.423,8.028
929,0.734,38.471,25.142,42.846,29.743,35.257,9.424,8.027
930,0.741,38.607,25.224,42.874,29.747,35.011,9.586,8.109
931,0.708,38.34,25.209,42.865,29.737,34.44,9.425,8.109
932,0.705,38.452,25.193,42.836,29.736,33.946,9.342,7.987
933,0.698,38.597,25.197,42.845,29.74,33.453,9.301,8.027
934,0.695,38.647,25.1,42.836,29.73,33.082,9.301,8.027
935,0.708,38.206,25.157,42.845,29.743,32.998,9.301,8.109
936,0.702,38.336,25.185,42.846,29.737,32.712,9.301,8.191
937,0.692,38.452,25.236,42.836,29.743,32.343,9.26,8.232
938,0.701,38.54,25.194,42.884,29.747,32.055,9.3,8.273
939,0.682,38.234,25.166,42.827,29.733,31.605,9.097,8.233
940,0.692,38.384,25.103,42.817,29.736,31.601,9.014,8.151
941,0.701,38.501,25.122,42.826,29.743,31.722,9.054,8.15
942,0.692,38.511,25.005,42.807,29.73,32.252,9.013,8.11
943,0.714,38.31,25.133,42.836,29.747,33.396,9.176,8.15
944,0.718,38.423,25.15,42.836,29.74,34.383,9.177,8.191
945,0.724,38.53,25.165,42.817,29.74,35.247,9.177,8.151
946,0.737,38.905,25.123,42.855,29.75,35.743,9.259,8.232
947,0.728,38.122,25.142,42.798,29.737,35.83,9.056,8.111
948,0.741,38.258,25.165,42.807,29.736,35.912,9.013,8.028
949,0.744,38.355,25.212,42.816,29.736,35.79,9.176,8.109
950,0.718,38.136,25.209,42.769,29.733,35.342,9.015,7.987
951,0.721,38.182,25.221,42.826,29.743,34.972,9.094,8.108
952,0.715,38.336,25.213,42.817,29.747,34.439,9.136,8.069
953,0.715,38.414,25.209,42.826,29.74,33.906,9.055,8.109
954,0.715,38.117,25.033,42.865,29.75,33.616,9.217,8.15
955,0.695,38.201,25.125,42.788,29.737,33.206,9.015,7.988
956,0.695,38.345,25.196,42.788,29.733,32.917,8.932,8.068
957,0.698,38.423,25.209,42.807,29.736,32.467,8.89,8.069
958,0.695,38.022,25.178,42.759,29.73,31.934,8.809,7.946
959,0.701,38.19,25.15,42.806,29.743,31.888,8.93,8.148
960,0.711,38.326,25.138,42.807,29.737,31.847,8.972,8.11
961,0.731,38.385,25.099,42.788,29.743,32.009,8.931,8.109
962,0.725,37.935,25.052,42.816,29.75,32.865,9.053,8.15
963,0.731,38.045,25.11,42.769,29.73,33.687,8.973,7.988
964,0.741,38.181,25.181,42.787,29.736,34.793,9.013,8.027
965,0.751,38.24,25.217,42.778,29.743,35.617,9.094,8.027
966,0.744,37.885,25.123,42.778,29.73,35.991,9.095,7.905
967,0.76,38.045,25.142,42.787,29.74,36.32,9.339,8.107
968,0.767,38.162,25.142,42.788,29.733,36.445,9.301,7.987
969,0.761,38.192,25.173,42.768,29.743,36.365,9.341,7.946
970,0.748,37.818,25.22,42.797,29.75,36.08,9.504,8.108
971,0.744,37.939,25.209,42.749,29.73,35.467,9.303,7.987
972,0.747,38.065,25.217,42.768,29.74,34.932,9.423,7.946
973,0.731,38.104,25.221,42.768,29.74,34.398,9.383,7.945
974,0.725,37.798,25.076,42.749,29.73,33.864,9.301,7.945
975,0.734,37.948,25.153,42.768,29.743,33.656,9.423,7.986
976,0.721,38.045,25.138,42.749,29.737,33.207,9.464,7.986
977,0.708,37.682,25.208,42.768,29.74,32.674,9.343,8.108
978,0.721,37.659,25.193,42.787,29.747,32.302,9.464,8.15
979,0.702,37.774,25.139,42.749,29.737,31.689,9.262,7.947
980,0.731,37.862,25.115,42.749,29.73,31.601,9.259,8.026
981,0.734,37.632,25.118,42.768,29.736,31.601,9.219,7.946
982,0.734,37.716,25.107,42.739,29.736,31.966,9.137,7.823
983,0.757,37.871,25.13,42.768,29.743,32.986,9.339,8.025
984,0.751,37.958,25.169,42.749,29.743,33.932,9.382,8.068
985,0.764,37.672,25.209,42.739,29.733,34.633,9.382,8.028
986,0.774,37.822,25.139,42.777,29.743,35.209,9.464,8.109
987,0.774,37.948,25.126,42.749,29.74,35.214,9.302,7.947
988,0.777,38.017,25.15,42.73,29.737,35.255,9.341,7.945
989,0.774,37.183,25.165,42.729,29.74,35.174,9.382,7.905
990,0.767,37.319,25.197,42.739,29.733,34.848,9.342,7.863
991,0.748,37.454,25.189,42.749,29.743,34.438,9.423,7.985
992,0.738,37.523,25.185,42.739,29.74,33.865,9.424,8.027
993,0.741,37.437,25.174,42.73,29.737,33.29,9.342,7.987
994,0.738,37.561,25.119,42.739,29.747,33.081,9.545,8.19
995,0.738,37.677,25.126,42.72,29.73,32.672,9.344,8.029
996,0.741,37.736,25.15,42.72,29.736,32.506,9.179,8.068
997,0.715,37.219,25.212,42.72,29.733,32.179,9.259,8.109
998,0.724,37.367,25.201,42.729,29.733,31.687,9.259,8.069
999,0.724,37.503,25.166,42.729,29.74,31.479,9.341,8.191
1000,0.737,37.504,25.099,42.682,29.733,31.599,9.26,8.151
1001,0.751,37.197,25.126,42.738,29.74,31.722,9.259,8.069
1002,0.735,37.309,25.103,42.71,29.737,32.252,9.259,8.272
1003,0.754,37.425,25.142,42.7,29.733,33.233,9.3,8.071
1004,0.761,37.235,25.154,42.7,29.733,34.259,9.301,8.109
1005,0.754,37.194,25.193,42.672,29.736,34.92,9.382,8.109
1006,0.764,37.357,25.135,42.719,29.747,35.496,9.382,8.069
1007,0.767,37.464,25.15,42.768,29.744,35.624,9.423,8.109
1008,0.767,36.919,25.146,42.691,29.74,35.747,9.505,8.069
1009,0.787,37.067,25.181,42.719,29.743,35.586,9.546,8.109
1010,0.761,37.154,25.185,42.681,29.74,35.096,9.588,8.028
1011,0.761,37.261,25.17,42.691,29.733,34.603,9.547,7.987
1012,0.751,37.061,25.197,42.691,29.74,34.07,9.588,8.108
1013,0.738,37.183,25.162,42.662,29.73,33.414,9.425,8.028
1014,0.754,37.347,25.142,42.7,29.74,33.204,9.586,8.068
1015,0.744,37.416,25.111,42.691,29.74,32.958,9.547,8.15
1016,0.738,36.803,25.173,42.672,29.74,32.712,9.547,8.11
1017,0.734,36.998,25.189,42.719,29.754,32.384,9.628,8.272
1018,0.734,37.077,25.228,42.653,29.733,31.812,9.426,8.193
1019,0.731,37.145,25.19,42.662,29.736,31.562,9.342,8.11
1020,0.751,36.877,25.127,42.662,29.736,31.803,9.382,8.15
1021,0.757,37.028,25.122,42.633,29.723,31.806,9.301,8.15
1022,0.764,37.212,25.087,42.7,29.743,32.66,9.382,8.232
1023,0.757,37.214,25.145,42.672,29.733,33.807,9.505,8.233
1024,0.757,37.444,25.123,42.671,29.736,34.794,9.465,8.273
1025,0.774,37.58,25.224,42.7,29.754,35.698,9.668,8.314
1026,0.767,37.658,25.104,42.662,29.73,35.992,9.426,8.152
1027,0.767,37.697,25.138,42.662,29.733,36.279,9.505,8.11
1028,0.78,36.643,25.091,42.652,29.74,36.241,9.546,8.191
1029,0.767,36.786,25.145,42.623,29.73,35.997,9.425,8.07
1030,0.764,36.893,25.189,42.661,29.74,35.791,9.627,8.191
1031,0.757,36.836,25.205,42.652,29.74,35.261,9.588,8.232
1032,0.754,36.817,25.186,42.652,29.74,34.686,9.588,8.192
1033,0.751,36.979,25.201,42.69,29.743,34.233,9.71,8.314
1034,0.741,37.039,25.107,42.633,29.733,33.782,9.508,8.112
1035,0.734,36.598,25.114,42.633,29.736,33.452,9.465,8.191
1036,0.728,36.709,25.177,42.633,29.733,33.204,9.424,8.151
1037,0.718,36.806,25.197,42.633,29.716,32.674,9.302,8.069
1038,0.728,36.922,25.213,42.652,29.736,32.302,9.382,8.272
1039,0.721,36.549,25.201,42.652,29.736,32.014,9.423,8.274
1040,0.731,36.679,25.166,42.662,29.74,31.97,9.424,8.233
1041,0.754,36.834,25.15,42.662,29.74,32.255,9.464,8.436
1042,0.741,36.884,25.052,42.623,29.737,32.786,9.302,8.153
1043,0.751,36.539,25.133,42.632,29.74,33.848,9.341,8.191
1044,0.757,36.699,25.154,42.642,29.74,34.875,9.301,8.232
1045,0.757,36.806,25.185,42.623,29.733,35.618,9.341,8.07
1046,0.757,36.893,25.139,42.652,29.736,36.154,9.464,8.15
1047,0.757,36.51,25.103,42.642,29.743,36.362,9.383,8.11
1048,0.764,36.669,25.146,42.614,29.743,36.527,9.423,8.15
1049,0.777,36.786,25.162,42.652,29.743,36.406,9.464,8.273
1050,0.761,36.845,25.193,42.604,29.733,35.958,9.343,8.071
1051,0.764,36.519,25.193,42.623,29.733,35.466,9.382,8.109
1052,0.764,36.66,25.217,42.613,29.743,34.973,9.342,8.15
1053,0.738,36.776,25.182,42.594,29.733,34.358,9.179,8.028
1054,0.741,36.826,25.115,42.632,29.743,34.189,9.299,8.231
1055,0.738,36.519,25.142,42.623,29.74,33.903,9.219,8.192
1056,0.741,36.65,25.15,42.613,29.737,33.575,9.178,8.232
1057,0.731,36.805,25.22,42.661,29.75,33.328,9.299,8.395
1058,0.721,36.538,25.186,42.604,29.73,32.634,9.097,8.234
1059,0.737,36.363,25.174,42.604,29.736,32.424,9.054,8.192
1060,0.734,36.505,25.127,42.623,29.74,32.462,9.095,8.232
1061,0.741,36.602,25.146,42.575,29.726,32.463,8.932,8.151
1062,0.76,36.364,25.111,42.613,29.743,33.235,9.175,8.354
1063,0.741,36.476,25.134,42.623,29.737,34.137,9.177,8.275
1064,0.738,36.612,25.158,42.604,29.74,35.082,9.137,8.314
1065,0.757,36.718,25.216,42.632,29.747,35.986,9.339,8.396
1066,0.748,36.183,25.143,42.585,29.737,36.157,9.097,8.275
1067,0.754,36.331,25.017,42.613,29.73,36.322,9.136,8.152
1068,0.767,36.476,25.133,42.594,29.74,36.364,9.217,8.273
1069,0.757,36.554,25.126,42.556,29.733,35.917,9.096,8.152
1070,0.748,36.258,25.196,42.603,29.74,35.709,9.176,8.232
1071,0.747,36.398,25.17,42.604,29.737,35.138,9.259,8.273
1072,0.747,36.534,25.197,42.613,29.74,34.522,9.259,8.233
1073,0.734,36.622,25.193,42.632,29.75,34.15,9.381,8.314
1074,0.721,36.306,25.115,42.566,29.73,33.577,9.179,8.193
1075,0.718,36.466,25.142,42.574,29.736,33.287,9.177,8.192
1076,0.721,36.612,25.154,42.594,29.733,33.04,9.177,8.151
1077,0.702,36.642,25.185,42.584,29.723,32.428,9.096,8.191
1078,0.718,36.306,25.205,42.603,29.736,32.259,9.176,8.273
1079,0.721,36.418,25.197,42.604,29.74,32.013,9.259,8.274
1080,0.721,36.563,25.139,42.604,29.737,32.133,9.178,8.274
1081,0.741,36.612,25.181,42.613,29.754,32.378,9.34,8.355
1082,0.725,36.306,25.064,42.585,29.737,32.828,9.179,8.234
1083,0.731,36.485,25.102,42.565,29.733,33.849,9.259,8.151
1084,0.738,36.602,25.126,42.574,29.74,34.875,9.219,8.232
1085,0.741,36.479,25.193,42.565,29.73,35.496,9.218,8.07
1086,0.747,36.324,25.158,42.574,29.736,35.99,9.462,8.272
1087,0.76,36.476,25.084,42.575,29.736,36.157,9.383,8.152
1088,0.764,36.592,25.134,42.584,29.74,36.2,9.423,8.15
1089,0.764,36.373,25.142,42.594,29.75,36.2,9.586,8.313
1090,0.741,36.428,25.154,42.575,29.73,35.712,9.344,8.03
1091,0.734,36.554,25.166,42.584,29.733,35.26,9.423,8.109
1092,0.731,36.67,25.197,42.584,29.74,34.767,9.424,8.109
1093,0.731,36.23,25.197,42.565,29.726,34.153,9.302,8.028
1094,0.728,36.389,25.17,42.594,29.743,33.862,9.423,8.19
1095,0.715,36.524,25.15,42.613,29.737,33.575,9.505,8.151
1096,0.711,36.612,25.142,42.565,29.733,33.206,9.384,8.15
1097,0.715,36.469,25.193,42.613,29.747,32.917,9.586,8.313
1098,0.702,36.564,25.174,42.565,29.73,32.305,9.344,8.071
1099,0.705,36.689,25.197,42.565,29.729,32.014,9.301,8.109
1100,0.721,36.777,25.182,42.574,29.729,32.011,9.341,8.069
1101,0.718,36.25,25.146,42.546,29.733,32.092,9.26,7.946
1102,0.728,36.427,25.173,42.574,29.747,32.866,9.463,8.189
1103,0.734,36.544,25.111,42.594,29.744,33.809,9.505,8.11
1104,0.731,36.612,25.11,42.565,29.737,34.875,9.465,8.109
1105,0.734,36.488,25.173,42.584,29.75,35.699,9.627,8.232
1106,0.728,36.602,25.185,42.546,29.73,35.951,9.548,7.989
1107,0.744,36.728,25.096,42.546,29.733,36.198,9.547,7.946
1108,0.734,36.768,25.103,42.555,29.74,36.241,9.628,7.986
1109,0.734,36.547,25.095,42.555,29.73,35.997,9.548,7.864
1110,0.728,36.708,25.161,42.565,29.74,35.751,9.71,7.985
1111,0.721,36.815,25.146,42.555,29.737,35.22,9.63,8.027
1112,0.715,36.855,25.134,42.565,29.74,34.645,9.629,7.987
1113,0.705,36.683,25.197,42.574,29.74,34.151,9.71,8.19
1114,0.702,36.805,25.158,42.536,29.733,33.496,9.589,7.948
1115,0.695,36.941,25.119,42.545,29.736,33.286,9.507,8.026
1116,0.708,36.501,25.122,42.546,29.74,33.04,9.465,8.027
1117,0.689,36.554,25.177,42.546,29.733,32.469,9.424,7.987
1118,0.698,36.689,25.166,42.565,29.743,32.097,9.546,8.149
1119,0.708,36.786,25.205,42.565,29.737,31.931,9.547,8.191
1120,0.721,36.586,25.205,42.536,29.74,31.97,9.506,8.151
1121,0.715,36.718,25.186,42.565,29.74,32.092,9.587,8.232
1122,0.708,36.825,25.17,42.536,29.73,32.581,9.425,8.111
1123,0.728,36.912,25.06,42.555,29.733,33.724,9.464,8.15
1124,0.734,36.683,25.118,42.526,29.736,34.793,9.505,8.11
1125,0.738,36.834,25.161,42.536,29.733,35.536,9.506,8.028
1126,0.741,36.98,25.197,42.545,29.74,36.153,9.587,8.109
1127,0.747,37.039,25.119,42.536,29.743,36.322,9.547,8.15
1128,0.754,36.771,25.095,42.536,29.733,36.404,9.628,8.15
1129,0.754,36.931,25.106,42.555,29.743,36.324,9.588,8.15
1130,0.731,37.019,25.157,42.517,29.73,35.917,9.507,8.028
1131,0.738,37.097,25.138,42.536,29.733,35.465,9.506,8.068
1132,0.718,36.79,25.181,42.545,29.74,34.892,9.587,8.109
1133,0.721,36.95,25.201,42.526,29.733,34.357,9.466,8.069
1134,0.715,37.067,25.178,42.536,29.743,34.067,9.587,8.15
1135,0.708,37.116,25.111,42.545,29.74,33.739,9.466,8.15
1136,0.711,36.954,25.122,42.536,29.733,33.411,9.505,8.15
1137,0.705,37.077,25.173,42.507,29.736,33.041,9.546,8.354
1138,0.708,37.193,25.174,42.526,29.736,32.509,9.303,8.153
1139,0.715,37.309,25.209,42.517,29.74,32.382,9.301,8.232
1140,0.705,36.888,25.17,42.526,29.733,32.421,9.423,8.192
1141,0.728,37.038,25.209,42.536,29.736,32.625,9.383,8.11
1142,0.715,37.164,25.166,42.526,29.74,33.237,9.423,8.272
1143,0.731,36.973,25.099,42.536,29.74,34.219,9.464,8.233
1144,0.747,37.096,25.122,42.545,29.74,35.123,9.505,8.192
1145,0.731,37.193,25.185,42.526,29.743,35.864,9.587,8.273
1146,0.741,37.271,25.205,42.497,29.733,36.034,9.547,8.152
1147,0.751,37.032,25.135,42.526,29.736,36.198,9.628,8.069
1148,0.735,37.135,25.06,42.517,29.736,36.241,9.629,8.109
1149,0.754,37.309,25.122,42.574,29.74,36.078,9.548,8.109
1150,0.744,37.378,25.099,42.536,29.74,35.792,9.669,8.15
1151,0.734,36.889,25.153,42.517,29.743,35.261,9.67,8.11
1152,0.731,37.047,25.158,42.555,29.743,34.686,9.711,8.15
1153,0.715,37.154,25.181,42.536,29.74,34.233,9.752,8.191
1154,0.705,37.232,25.181,42.498,29.73,33.741,9.59,8.07
1155,0.698,37.185,25.123,42.526,29.733,33.573,9.588,8.028
1156,0.698,37.319,25.114,42.517,29.736,33.206,9.547,8.109
1157,0.705,37.454,25.173,42.516,29.73,32.917,9.506,8.109
1158,0.702,37.504,25.197,42.526,29.743,32.589,9.628,8.191
1159,0.695,37.082,25.182,42.526,29.737,32.423,9.629,8.11
1160,0.714,37.231,25.178,42.526,29.736,32.503,9.548,8.028
1161,0.711,37.329,25.174,42.517,29.743,32.788,9.71,8.19
1162,0.708,37.339,25.138,42.488,29.733,33.279,9.508,7.988
1163,0.734,37.253,25.029,42.516,29.736,34.219,9.546,7.986
1164,0.728,37.377,25.133,42.507,29.736,35.204,9.506,8.068
1165,0.738,37.503,25.208,42.507,29.736,35.906,9.506,7.946
1166,0.741,37.801,25.201,42.516,29.743,36.197,9.628,8.067
1167,0.747,37.306,25.127,42.516,29.733,36.444,9.507,7.987
1168,0.747,37.454,25.087,42.507,29.74,36.365,9.587,7.946
1169,0.741,37.552,25.141,42.526,29.743,36.324,9.669,8.067
1170,0.728,37.342,25.15,42.507,29.733,35.795,9.467,7.865
1171,0.728,37.387,25.146,42.497,29.736,35.342,9.465,7.904
1172,0.725,37.512,25.13,42.516,29.743,34.809,9.465,7.945
1173,0.724,37.629,25.173,42.497,29.737,34.235,9.424,7.864
1174,0.715,37.314,25.166,42.516,29.74,33.944,9.424,8.066
1175,0.711,37.425,25.131,42.526,29.743,33.657,9.424,8.028
1176,0.711,37.59,25.126,42.507,29.74,33.369,9.342,7.946
1177,0.698,37.658,25.161,42.526,29.747,33.082,9.423,8.148
1178,0.692,37.362,25.193,42.488,29.726,32.55,9.302,7.988
1179,0.695,37.503,25.228,42.507,29.733,32.342,9.219,7.946
1180,0.701,37.629,25.178,42.497,29.736,32.339,9.137,7.945
1181,0.724,37.697,25.174,42.497,29.733,32.502,9.095,7.905
1182,0.721,37.257,25.154,42.497,29.74,33.073,9.298,8.026
1183,0.731,37.386,25.08,42.507,29.74,33.892,9.26,7.987
1184,0.734,37.532,25.134,42.507,29.733,34.795,9.259,7.946
1185,0.734,37.581,25.134,42.507,29.747,35.373,9.259,8.026
1186,0.734,37.399,25.204,42.478,29.733,35.623,9.097,7.946
1187,0.741,37.561,25.139,42.487,29.733,35.666,9.258,7.945
1188,0.741,37.668,25.099,42.497,29.74,35.747,9.259,7.864
1189,0.754,37.726,25.126,42.516,29.737,35.545,9.137,7.782
1190,0.741,37.41,25.142,42.507,29.736,35.258,9.339,7.944
1191,0.721,37.561,25.15,42.497,29.743,34.767,9.26,7.864
1192,0.721,37.677,25.169,42.497,29.74,34.193,9.178,7.944
1193,0.708,37.937,25.216,42.507,29.74,33.741,9.299,8.067
1194,0.718,37.345,25.178,42.488,29.733,33.289,9.138,7.865
1195,0.711,37.522,25.115,42.478,29.733,33.04,9.095,7.985
1196,0.698,37.6,25.11,42.497,29.736,32.753,9.176,7.986
1197,0.708,37.38,25.181,42.497,29.736,32.425,9.137,7.986
1198,0.705,37.426,25.178,42.478,29.74,32.015,9.136,8.027
1199,0.698,37.532,25.205,42.497,29.737,31.767,9.095,8.027
1200,0.708,37.658,25.205,42.497,29.736,31.805,9.095,8.027
1201,0.705,37.256,25.197,42.497,29.743,31.968,9.176,8.027
1202,0.715,37.367,25.154,42.468,29.733,32.539,9.096,7.905
1203,0.737,37.512,25.095,42.487,29.736,33.643,9.054,7.985
1204,0.725,37.571,25.11,42.459,29.726,34.548,9.013,7.946
1205,0.737,37.294,25.157,42.487,29.736,35.371,9.094,7.945
1206,0.734,37.444,25.193,42.507,29.747,35.826,9.176,7.986
1207,0.754,37.561,25.154,42.478,29.737,35.993,9.177,7.986
1208,0.754,37.648,25.111,42.516,29.75,36.157,9.177,7.946
1209,0.741,37.266,25.044,42.469,29.73,35.834,9.015,7.905
1210,0.731,37.454,25.036,42.497,29.729,35.505,9.094,7.863
1211,0.728,37.561,25.102,42.574,29.736,35.055,9.095,7.944
1212,0.715,37.601,25.161,42.46,29.73,34.44,8.973,7.783
1213,0.718,37.323,25.158,42.478,29.736,34.109,9.094,7.944
1214,0.711,37.445,25.216,42.487,29.74,33.74,9.014,7.945
1215,0.711,37.571,25.123,42.478,29.737,33.451,9.176,7.986
1216,0.721,37.668,25.157,42.507,29.743,33.245,9.218,8.068
1217,0.705,37.256,25.123,42.497,29.726,32.715,9.056,7.987
1218,0.695,37.386,25.154,42.449,29.733,32.425,9.013,7.946
1219,0.695,37.512,25.193,42.477,29.736,32.178,9.054,8.026
1220,0.708,37.523,25.139,42.459,29.723,31.85,8.973,7.865
1221,0.715,37.245,25.224,42.478,29.74,32.131,9.175,8.066
1222,0.721,37.386,25.174,42.468,29.74,32.541,9.259,8.028
1223,0.734,37.493,25.142,42.478,29.74,33.439,9.178,7.987
1224,0.734,37.303,25.126,42.497,29.747,34.424,9.421,8.23
1225,0.731,37.291,25.122,42.449,29.733,34.881,9.261,7.989
1226,0.738,37.435,25.173,42.468,29.729,35.292,9.341,7.905
1227,0.734,37.532,25.174,42.449,29.736,35.581,9.382,7.945
1228,0.754,37.111,25.119,42.449,29.73,35.543,9.342,7.864
1229,0.754,37.251,25.068,42.468,29.743,35.421,9.545,7.985
1230,0.728,37.377,25.044,42.478,29.743,35.176,9.466,7.986
1231,0.721,37.474,25.075,42.487,29.737,34.685,9.546,8.027
1232,0.734,37.034,25.145,42.478,29.74,34.233,9.588,8.027
1233,0.715,37.173,25.13,42.439,29.73,33.537,9.507,7.946
1234,0.711,37.299,25.197,42.458,29.733,33.246,9.506,7.945
1235,0.711,37.368,25.139,42.449,29.736,32.959,9.628,7.945
1236,0.708,37.119,25.134,42.458,29.733,32.671,9.548,7.945
1237,0.692,37.26,25.134,42.478,29.743,32.384,9.669,8.026
1238,0.698,37.387,25.161,42.449,29.733,31.893,9.629,8.068
1239,0.701,37.465,25.189,42.458,29.736,31.685,9.629,8.109
1240,0.701,37.005,25.189,42.468,29.74,31.723,9.751,8.109
1241,0.705,37.115,25.17,42.439,29.73,31.724,9.549,7.987
1242,0.705,37.26,25.189,42.458,29.729,32.252,9.588,7.946
1243,0.708,37.3,25.096,42.439,29.736,33.071,9.588,8.026
1244,0.724,37.003,25.122,42.458,29.733,34.014,9.588,7.987
1245,0.731,37.135,25.142,42.458,29.736,34.633,9.751,8.027
1246,0.731,37.261,25.181,42.468,29.736,35.005,9.59,8.068
1247,0.741,37.3,25.201,42.468,29.747,35.172,9.588,7.987
1248,0.731,36.975,25.135,42.458,29.74,35.133,9.629,7.986
1249,0.734,37.125,25.072,42.42,29.733,34.807,9.588,7.986
1250,0.725,37.251,25.036,42.458,29.74,34.519,9.588,7.946
1251,0.702,37.022,25.063,42.42,29.726,33.947,9.547,7.905
1252,0.721,37.039,25.118,42.468,29.743,33.535,9.547,8.026
1253,0.711,37.154,25.142,42.458,29.747,33.002,9.547,8.027
1254,0.705,37.242,25.189,42.449,29.74,32.712,9.466,8.109
1255,0.711,37.386,25.162,42.468,29.747,32.506,9.424,8.069
1256,0.698,37.474,25.052,42.439,29.74,32.179,9.383,8.109
1257,0.698,37.628,25.141,42.439,29.73,31.809,9.342,8.069
1258,0.698,37.707,25.15,42.439,29.736,31.44,9.382,8.15
1259,0.688,36.375,25.197,42.401,29.726,31.111,9.22,8.15
1260,0.701,36.543,25.213,42.467,29.74,31.189,9.34,8.191
1261,0.714,36.679,25.221,42.449,29.737,31.352,9.26,8.07
1262,0.702,36.748,25.174,42.43,29.736,31.801,9.259,8.109
1263,0.744,36.883,25.17,42.477,29.75,32.781,9.381,8.191
1264,0.738,37.009,25.119,42.439,29.73,33.401,9.301,8.151
1265,0.767,37.154,25.111,42.429,29.729,34.017,9.26,8.11
1266,0.79,37.213,25.2,42.429,29.736,34.471,9.259,8.15
1267,0.826,36.648,25.17,42.401,29.73,34.556,9.259,8.069
1268,0.849,36.824,25.146,42.448,29.743,34.598,9.341,8.109
1269,0.866,36.951,25.048,42.43,29.74,34.476,9.382,8.109
1270,0.879,37.019,25.086,42.429,29.737,34.15,9.382,8.028
1271,0.892,36.751,25.063,42.458,29.747,33.781,9.382,8.068
1272,0.879,36.873,25.137,42.487,29.737,33.045,9.382,8.069
1273,0.895,36.98,25.091,42.43,29.733,32.55,9.342,7.987
1274,0.918,36.991,25.2,42.429,29.733,32.26,9.301,8.027
1275,0.912,36.684,25.158,42.401,29.723,31.851,9.301,7.905
1276,0.948,36.873,25.076,42.439,29.736,31.644,9.382,8.026
1277,0.954,36.999,25.13,42.449,29.733,31.316,9.423,8.109
1278,0.967,36.789,25.122,42.439,29.733,30.866,9.464,8.028
1279,0.994,36.691,25.185,42.477,29.747,30.699,9.424,8.109
1280,0.997,36.786,25.154,42.43,29.737,30.575,9.342,8.028
1281,1.01,36.902,25.201,42.41,29.73,30.655,9.301,7.905
1282,1.014,36.558,25.174,42.42,29.736,31.144,9.301,7.985
1283,1.01,36.632,25.174,42.381,29.723,31.921,9.219,7.864
1284,1.02,36.824,25.06,42.438,29.736,33.027,9.381,7.944
1285,1.03,36.922,25.126,42.439,29.74,33.648,9.342,8.026
1286,1.024,36.626,25.173,42.429,29.74,34.101,9.301,7.946
1287,1.033,36.805,25.193,42.468,29.747,34.431,9.463,8.026
1288,1.004,36.874,25.146,42.401,29.733,34.271,9.343,7.946
1289,1.01,36.951,25.107,42.419,29.729,34.189,9.219,7.905
1290,1.014,36.329,25.079,42.42,29.733,33.903,9.218,7.945
1291,0.984,36.447,25.048,42.381,29.729,33.331,9.137,7.823
1292,1.01,36.621,25.047,42.458,29.736,33.0,9.299,7.944
1293,0.975,36.68,25.137,42.439,29.74,32.55,9.26,8.067
1294,0.964,36.633,25.161,42.401,29.743,32.26,9.259,8.069
1295,0.968,36.805,25.185,42.448,29.743,32.095,9.259,8.15
1296,0.961,36.874,25.111,42.401,29.73,31.849,9.097,8.028
1297,0.925,36.942,25.095,42.477,29.729,31.603,9.014,8.068
1298,0.922,36.463,25.114,42.42,29.733,31.316,9.013,8.15
1299,0.912,36.592,25.118,42.391,29.723,30.947,9.013,8.15
1300,0.915,36.747,25.165,42.429,29.736,31.187,9.094,8.273
1301,0.912,36.768,25.173,42.42,29.736,31.312,9.054,8.274
1302,0.902,36.375,25.205,42.42,29.736,31.801,9.054,8.274
1303,0.918,36.534,25.182,42.448,29.75,32.863,9.176,8.274
1304,0.899,36.603,25.088,42.42,29.733,33.483,9.096,8.193
1305,0.902,36.622,25.102,42.391,29.733,34.059,9.054,8.192
1306,0.902,36.594,25.177,42.419,29.736,34.349,9.054,8.232
1307,0.899,36.689,25.158,42.381,29.723,34.433,8.973,7.989
1308,0.902,36.825,25.201,42.419,29.736,34.597,9.135,8.271
1309,0.879,36.462,25.158,42.429,29.743,34.395,9.177,8.193
1310,0.869,36.544,25.115,42.42,29.74,34.027,9.096,8.151
1311,0.866,36.727,25.118,42.448,29.747,33.698,9.258,8.191
1312,0.849,36.768,25.04,42.382,29.74,32.922,9.056,8.07
1313,0.823,36.375,25.11,42.4,29.733,32.427,9.013,8.069
1314,0.823,36.524,25.103,42.41,29.733,32.3,9.094,8.109
1315,0.804,36.641,25.192,42.391,29.729,32.014,8.892,8.028
1316,0.8,36.757,25.111,42.429,29.74,32.011,9.093,8.19
1317,0.794,36.279,25.068,42.429,29.737,31.726,9.054,8.192
1318,0.793,36.427,25.13,42.42,29.74,31.398,9.054,8.151
1319,0.793,36.573,25.157,42.439,29.747,31.354,9.135,8.354
1320,0.784,36.603,25.162,42.401,29.73,31.191,8.974,8.153
1321,0.784,36.364,25.166,42.4,29.729,31.312,8.972,8.191
1322,0.777,36.495,25.189,42.4,29.733,31.801,9.094,8.192
1323,0.767,36.621,25.182,42.391,29.723,32.497,9.014,8.07
1324,0.767,36.69,25.119,42.41,29.74,33.317,9.257,8.231
1325,0.767,36.278,25.087,42.4,29.733,33.732,9.178,8.233
1326,0.764,36.437,25.141,42.4,29.733,34.021,9.218,8.151
1327,0.78,36.563,25.185,42.41,29.74,34.227,9.3,8.273
1328,0.754,36.555,25.158,42.381,29.733,34.026,9.138,8.071
1329,0.751,36.401,25.134,42.391,29.736,33.901,9.217,8.069
1330,0.735,36.534,25.091,42.41,29.733,33.575,9.259,8.069
1331,0.728,36.67,25.071,42.41,29.736,33.003,9.219,7.987
1332,0.721,36.892,25.032,42.42,29.743,32.631,9.259,8.19
1333,0.702,36.971,25.094,42.391,29.737,32.099,9.3,8.192
1334,0.705,37.134,25.153,42.41,29.73,31.768,9.219,8.232
1335,0.698,37.222,25.193,42.42,29.74,31.643,9.381,8.355
1336,0.695,36.111,25.1,42.362,29.73,31.357,9.22,8.112
1337,0.688,36.109,25.126,42.467,29.729,30.988,9.137,8.15
1338,0.682,36.224,25.13,42.401,29.733,30.659,9.177,8.313
1339,0.685,36.341,25.134,42.391,29.729,30.371,9.137,8.152
1340,0.698,36.236,25.173,42.4,29.74,30.572,9.177,8.273
1341,0.698,36.36,25.174,42.4,29.737,30.736,9.177,8.314
1342,0.701,36.495,25.185,42.391,29.73,31.307,9.137,8.274
1343,0.705,36.564,25.193,42.41,29.736,32.289,9.217,8.355
1344,0.695,36.171,25.068,42.4,29.726,33.152,9.137,8.234
1345,0.698,36.35,25.13,42.381,29.729,33.893,9.136,8.07
1346,0.708,36.467,25.134,42.381,29.733,34.307,9.217,8.272
1347,0.721,36.564,25.193,42.391,29.729,34.514,9.178,8.152
1348,0.718,36.229,25.174,42.391,29.729,34.679,9.218,8.191
1349,0.721,36.36,25.15,42.391,29.736,34.64,9.259,8.192
1350,0.715,36.495,25.126,42.4,29.733,34.314,9.259,8.151
1351,0.692,36.573,25.122,42.4,29.743,34.026,9.3,8.232
1352,0.685,36.143,25.111,42.381,29.733,33.495,9.097,8.07
1353,0.675,36.321,25.13,42.391,29.736,33.002,9.054,8.069
1354,0.669,36.409,25.15,42.4,29.73,32.753,9.095,8.109
1355,0.669,36.477,25.15,42.391,29.729,32.506,9.095,8.028
1356,0.685,36.257,25.15,42.41,29.736,32.382,9.136,8.149
1357,0.662,36.418,25.068,42.41,29.74,32.056,9.055,8.069
1358,0.669,36.525,25.126,42.391,29.737,31.605,9.095,8.109
1359,0.656,36.545,25.126,42.4,29.736,31.478,9.258,8.191
1360,0.659,36.123,25.181,42.381,29.726,31.315,9.015,8.029
1361,0.669,36.282,25.178,42.381,29.726,31.516,9.094,8.027
1362,0.665,36.399,25.158,42.381,29.726,31.965,9.176,8.027
1363,0.685,36.131,25.197,42.381,29.726,32.702,9.177,7.946
1364,0.685,36.215,25.096,42.4,29.743,33.563,9.38,8.026
1365,0.692,36.36,25.118,42.4,29.73,34.182,9.382,8.068
1366,0.688,36.447,25.118,42.4,29.729,34.472,9.382,8.028
1367,0.695,36.17,25.153,42.391,29.736,34.638,9.586,8.068
1368,0.692,36.254,25.166,42.371,29.726,34.477,9.466,7.824
1369,0.692,36.389,25.131,42.4,29.726,34.312,9.505,7.903
1370,0.679,36.486,25.111,42.372,29.736,33.945,9.546,7.945
1371,0.669,36.142,25.075,42.362,29.726,33.413,9.425,7.783
1372,0.672,36.301,25.083,42.4,29.74,32.96,9.586,8.066
1373,0.659,36.437,25.141,42.391,29.74,32.427,9.588,7.987
1374,0.659,36.515,25.142,42.391,29.74,32.097,9.588,8.027
1375,0.652,36.104,25.22,42.391,29.75,32.053,9.629,8.19
1376,0.642,36.224,25.108,42.381,29.737,31.605,9.426,7.988
1377,0.639,36.369,25.021,42.381,29.73,31.356,9.424,7.986
1378,0.642,36.428,25.11,42.391,29.736,30.988,9.383,8.068
1379,0.649,36.208,25.114,42.371,29.736,30.7,9.342,7.946
1380,0.665,36.369,25.173,42.41,29.736,30.778,9.423,8.148
1381,0.672,36.476,25.142,42.372,29.733,30.82,9.424,8.069
1382,0.662,36.506,25.197,42.381,29.736,31.349,9.383,8.069
1383,0.672,36.094,25.182,42.391,29.74,32.126,9.505,8.15
1384,0.669,36.205,25.092,42.371,29.73,32.826,9.384,7.947
1385,0.682,36.36,25.11,42.381,29.736,33.402,9.342,8.026
1386,0.675,36.601,25.142,42.371,29.733,33.733,9.423,8.109
1387,0.688,36.124,25.181,42.371,29.729,33.899,9.464,8.028
1388,0.685,36.263,25.178,42.381,29.736,33.941,9.424,8.068
1389,0.701,36.37,25.15,42.371,29.736,33.819,9.424,8.069
1390,0.695,36.169,25.087,42.39,29.736,33.452,9.383,8.028
1391,0.669,36.215,25.091,42.4,29.747,33.082,9.423,8.149
1392,0.669,36.35,25.044,42.372,29.73,32.51,9.261,7.988
1393,0.659,36.467,25.11,42.362,29.733,32.097,9.259,7.946
1394,0.633,35.998,25.091,42.362,29.733,31.646,9.259,7.986
1395,0.636,36.147,25.181,42.381,29.736,31.479,9.259,7.946
1396,0.649,36.282,25.127,42.381,29.743,31.233,9.422,8.108
1397,0.646,36.38,25.056,42.381,29.737,30.824,9.261,8.15
1398,0.646,36.15,25.133,42.381,29.74,30.535,9.259,8.11
1399,0.642,36.254,25.13,42.381,29.737,30.248,9.259,8.232
1400,0.649,36.398,25.126,42.343,29.726,30.367,9.178,8.151
1401,0.665,36.477,25.173,42.361,29.729,30.531,9.177,8.11
1402,0.659,36.113,25.15,42.342,29.729,31.021,9.218,8.15
1403,0.675,36.32,25.224,42.381,29.736,32.042,9.3,8.15
1404,0.675,36.437,25.127,42.371,29.74,32.987,9.382,8.313
1405,0.678,36.477,25.126,42.381,29.73,33.688,9.382,8.274
1406,0.711,36.161,25.146,42.41,29.743,34.183,9.464,8.274
1407,0.708,36.234,25.181,42.362,29.733,34.31,9.383,8.193
1408,0.724,36.36,25.185,42.352,29.733,34.27,9.342,8.11
1409,0.76,36.399,25.154,42.362,29.74,34.148,9.382,8.232
1410,0.767,35.978,25.111,42.323,29.723,33.699,9.342,8.111
1411,0.777,36.175,25.107,42.38,29.736,33.37,9.423,8.191
1412,0.81,36.302,25.107,42.381,29.736,32.838,9.464,8.232
1413,0.82,36.629,25.11,42.362,29.733,32.344,9.424,8.151
1414,0.843,36.134,25.142,42.4,29.743,32.177,9.464,8.273
1415,0.843,36.225,25.173,42.362,29.733,31.769,9.262,8.193
1416,0.872,36.331,25.158,42.352,29.729,31.358,9.259,8.232
1417,0.892,36.121,25.064,42.362,29.736,30.947,9.259,8.273
1418,0.934,36.157,25.114,42.342,29.73,30.415,9.097,8.152
1419,0.977,36.33,25.114,42.381,29.736,30.247,9.258,8.313
1420,1.023,36.447,25.161,42.362,29.736,30.326,9.219,8.356
1421,1.053,35.978,25.146,42.371,29.733,30.449,9.218,8.234
1422,1.069,36.118,25.181,42.4,29.747,31.223,9.3,8.355
1423,1.105,36.224,25.15,42.343,29.737,32.003,9.26,8.234
1424,1.145,36.302,25.119,42.342,29.733,33.027,9.219,8.192
1425,1.174,36.082,25.103,42.361,29.733,33.851,9.259,8.232
1426,1.204,36.215,25.095,42.333,29.723,34.144,9.178,8.192
1427,1.259,36.369,25.196,42.371,29.74,34.553,9.34,8.273
1428,1.299,36.448,25.185,42.371,29.743,34.598,9.342,8.193
1429,1.319,36.046,25.174,42.371,29.737,34.476,9.301,8.151
1430,1.293,36.214,25.15,42.39,29.75,34.353,9.423,8.313
1431,1.238,36.302,25.142,42.352,29.73,33.701,9.342,8.112
1432,1.211,36.38,25.091,42.362,29.729,33.329,9.301,8.15
1433,1.204,35.987,25.11,42.467,29.736,32.797,9.341,8.11
1434,1.178,36.108,25.095,42.315,29.726,32.344,9.219,7.987
1435,1.149,36.263,25.173,42.371,29.74,32.096,9.34,8.149
1436,1.109,36.283,25.154,42.362,29.733,31.768,9.382,8.191
1437,1.063,36.063,25.084,42.362,29.736,31.399,9.301,8.151
1438,1.037,36.243,25.02,42.419,29.747,31.029,9.382,8.354
1439,0.939,36.341,25.071,42.343,29.73,30.497,9.261,8.112
1440,0.893,36.351,25.149,42.352,29.729,30.532,9.178,8.109
1441,0.856,36.045,25.154,42.371,29.733,30.573,9.218,8.15
1442,0.791,36.166,25.181,42.333,29.723,30.94,9.137,7.988
1443,0.748,36.302,25.201,42.39,29.743,32.122,9.258,8.149
1444,0.617,36.025,25.174,42.381,29.74,32.948,9.259,8.069
1445,0.453,36.013,25.142,42.381,29.737,33.647,9.341,8.15
1446,0.348,36.175,25.119,42.391,29.743,34.223,9.382,8.273
1447,0.217,36.235,25.138,42.333,29.73,34.229,9.22,7.989
1448,0.124,36.015,25.15,42.342,29.729,34.391,9.3,7.986
1449,0.061,36.118,25.185,42.342,29.733,34.312,9.26,7.986
1450,0.009,36.253,25.166,42.323,29.723,33.823,9.178,7.946
1451,-0.06,36.36,25.17,42.361,29.743,33.493,9.299,8.067
1452,-0.119,35.882,25.127,42.362,29.733,33.042,9.301,8.109
1453,-0.201,36.021,25.083,42.352,29.736,32.591,9.219,8.028
1454,-0.238,36.195,25.118,42.39,29.75,32.383,9.3,8.068
1455,-0.254,36.225,25.181,42.343,29.726,31.934,9.097,7.946
1456,-0.216,36.024,25.166,42.323,29.729,31.604,9.054,7.986
1457,-0.176,36.176,25.103,42.352,29.733,31.275,9.095,8.068
1458,-0.114,36.292,25.025,42.323,29.723,30.662,8.892,7.987
1459,0.004,36.389,25.117,42.447,29.736,30.615,9.012,8.108
1460,0.132,35.987,25.091,42.353,29.736,30.655,9.013,8.15
1461,0.231,36.137,25.138,42.362,29.736,30.737,8.972,8.069
1462,0.359,36.292,25.115,42.381,29.747,31.429,9.013,8.15
1463,0.438,36.284,25.157,42.352,29.73,32.452,8.891,8.028
1464,0.523,36.082,25.138,42.352,29.733,33.479,8.89,8.027
1465,0.589,36.234,25.072,42.371,29.733,34.262,8.93,7.987
1466,0.635,36.35,25.102,42.314,29.719,34.676,8.89,7.905
1467,0.701,36.399,25.134,42.361,29.743,35.087,8.971,7.985
1468,0.737,36.007,25.197,42.342,29.74,35.172,8.972,7.946
1469,0.767,36.147,25.182,42.352,29.737,35.051,8.972,8.067
1470,0.783,36.273,25.189,42.362,29.75,34.887,9.216,8.15
1471,0.774,36.13,25.142,42.333,29.73,34.235,8.974,8.028
1472,0.777,36.11,25.173,42.352,29.733,33.741,8.972,7.946
1473,0.774,36.282,25.049,42.352,29.736,33.248,9.013,8.026
1474,0.78,36.38,25.102,42.342,29.719,32.877,8.932,7.946
1475,0.78,35.949,25.138,42.361,29.733,32.751,9.012,8.108
1476,0.78,36.05,25.193,42.352,29.733,32.425,9.054,8.069
1477,0.761,36.195,25.131,42.371,29.733,32.015,8.973,8.15
1478,0.777,36.302,25.111,42.39,29.75,31.686,9.053,8.354
1479,0.767,35.996,25.048,42.343,29.733,31.235,8.932,8.112
1480,0.77,36.147,25.04,42.361,29.733,31.19,8.89,8.069
1481,0.767,36.273,25.02,42.362,29.736,31.352,8.93,8.231
1482,0.774,36.351,25.11,42.342,29.723,31.801,8.85,8.029
1483,0.78,35.92,25.138,42.352,29.743,32.903,8.971,8.109
1484,0.79,36.069,25.173,42.352,29.737,33.931,8.972,8.191
1485,0.79,36.186,25.15,42.352,29.733,34.551,8.972,8.192
1486,0.8,36.273,25.095,42.438,29.747,35.126,9.135,8.314
1487,0.8,36.044,25.099,42.343,29.73,35.092,8.974,8.071
1488,0.797,36.185,25.13,42.342,29.729,35.132,9.013,8.069
1489,0.81,36.331,25.197,42.342,29.729,35.051,9.094,8.069
1490,0.803,36.39,25.185,42.342,29.733,34.644,9.014,8.028
1491,0.807,35.978,25.209,42.371,29.736,34.233,9.013,8.149
1492,0.807,36.108,25.162,42.362,29.736,33.7,9.013,8.11
1493,0.794,36.263,25.111,42.352,29.733,33.207,9.013,8.15
1494,0.784,36.264,25.142,42.352,29.74,32.917,9.094,8.273
1495,0.774,35.986,25.099,42.342,29.73,32.508,8.892,8.111
1496,0.771,36.146,25.165,42.342,29.726,32.219,8.93,8.15
1497,0.764,36.234,25.17,42.352,29.733,31.81,8.89,8.15
1498,0.774,36.091,25.142,42.342,29.733,31.318,8.849,8.11
1499,0.777,36.042,25.056,42.361,29.736,31.11,8.971,8.272
1500,0.78,36.166,25.071,42.362,29.736,31.148,8.931,8.274
1501,0.797,36.283,25.02,42.362,29.73,31.189,8.89,8.233
1502,0.781,35.929,25.149,42.352,29.747,31.84,8.971,8.314
1503,0.8,36.031,25.095,42.342,29.723,32.741,8.85,8.152
1504,0.813,36.176,25.181,42.352,29.74,33.767,9.011,8.15
1505,0.807,36.244,25.119,42.323,29.73,34.549,9.013,8.15
1506,0.816,35.861,25.013,42.352,29.736,35.004,9.135,8.11
1507,0.839,36.011,25.094,42.362,29.74,35.294,9.217,8.191
1508,0.826,36.137,25.138,42.362,29.74,35.215,9.259,8.151
1509,0.843,36.253,25.189,42.362,29.737,35.052,9.259,8.15
1510,0.823,35.986,25.182,42.362,29.74,34.725,9.341,8.232
1511,0.817,36.127,25.174,42.333,29.733,34.112,9.219,8.151
1512,0.829,36.282,25.185,42.352,29.733,33.618,9.259,8.191
1513,0.797,36.322,25.174,42.323,29.733,33.166,9.259,8.192
1514,0.813,35.824,25.115,42.419,29.74,32.836,9.259,8.192
1515,0.82,35.963,25.134,42.353,29.74,32.629,9.381,8.273
1516,0.83,36.108,25.119,42.352,29.73,32.464,9.342,8.274
1517,0.813,36.167,25.196,42.362,29.736,32.138,9.301,8.274
1518,0.803,35.995,25.127,42.342,29.736,31.768,9.301,8.314
1519,0.803,36.137,25.091,42.333,29.73,31.521,9.178,8.234
1520,0.82,36.263,25.06,42.352,29.736,31.559,9.177,8.273
1521,0.817,36.255,25.055,42.342,29.73,31.844,9.137,8.233
1522,0.816,35.948,25.137,42.361,29.736,32.457,9.136,8.233
1523,0.839,36.127,25.122,42.362,29.743,33.601,9.258,8.233
1524,0.846,36.215,25.204,42.342,29.73,34.588,9.259,8.192
1525,0.866,36.168,25.127,42.371,29.733,35.412,9.3,8.151
1526,0.853,36.043,25.056,42.343,29.729,35.908,9.341,8.232
1527,0.856,36.166,25.09,42.342,29.729,35.953,9.138,8.07
1528,0.856,36.283,25.11,42.342,29.729,35.994,9.177,8.069
1529,0.866,35.814,25.173,42.313,29.729,35.669,9.177,8.069
1530,0.859,35.924,25.189,42.351,29.743,35.422,9.218,8.069
1531,0.856,36.06,25.209,42.352,29.737,34.81,9.259,8.191
1532,0.846,36.147,25.174,42.362,29.733,34.153,9.259,8.11
1533,0.856,36.522,25.154,42.342,29.736,33.659,9.259,8.15
1534,0.843,36.622,25.056,42.352,29.73,33.247,9.178,8.11
1535,0.846,36.766,25.094,42.323,29.723,32.959,9.055,7.987
1536,0.856,36.854,25.153,42.361,29.729,32.712,9.054,7.986
1537,0.827,35.493,25.162,42.304,29.723,32.303,9.013,8.027
1538,0.843,35.691,25.17,42.361,29.733,31.973,9.094,8.149
1539,0.843,35.837,25.103,42.342,29.736,31.767,9.054,8.11
1540,0.853,35.886,25.083,42.361,29.733,31.724,8.973,8.109
1541,0.872,35.867,25.048,42.371,29.736,32.008,9.013,8.069
1542,0.863,35.992,25.016,42.343,29.736,32.499,8.932,8.028
1543,0.882,36.118,25.121,42.342,29.73,33.561,8.89,8.027
1544,0.905,36.177,25.13,42.342,29.733,34.588,8.971,7.946
1545,0.886,35.851,25.177,42.304,29.719,35.33,8.891,7.905
1546,0.895,36.059,25.088,42.351,29.74,35.826,8.93,7.863
1547,0.908,36.176,25.11,42.352,29.74,36.074,9.012,7.985
1548,0.912,36.215,25.126,42.323,29.733,36.077,8.891,7.864
1549,0.918,35.947,25.157,42.342,29.733,35.955,9.012,7.904
1550,0.905,36.069,25.185,42.342,29.729,35.588,8.972,7.945
1551,0.899,36.176,25.193,42.333,29.726,34.974,8.85,7.823
1552,0.886,36.12,25.17,42.352,29.733,34.48,8.849,7.741
1553,0.869,35.918,25.158,42.323,29.733,34.069,8.889,7.821
1554,0.889,36.069,25.068,42.332,29.726,33.617,8.727,7.781
1555,0.892,36.186,25.114,42.342,29.74,33.531,8.888,7.944
1556,0.892,35.88,25.153,42.323,29.733,33.246,8.809,7.864
1557,0.892,35.963,25.185,42.352,29.729,32.877,8.848,7.822
1558,0.889,36.108,25.185,42.342,29.736,32.589,8.971,7.985
1559,0.889,36.176,25.096,42.323,29.723,32.22,8.809,7.742
1560,0.908,35.822,25.099,42.342,29.726,32.257,8.808,7.74
1561,0.912,35.953,25.048,42.323,29.729,32.38,8.848,7.781
1562,0.922,36.108,24.985,42.323,29.729,32.95,8.808,7.7
1563,0.938,36.186,25.082,42.342,29.74,34.013,9.011,7.821
1564,0.941,35.784,25.149,42.313,29.733,34.877,9.013,7.781
1565,0.948,35.924,25.177,42.351,29.736,35.536,9.094,7.781
1566,0.954,36.069,25.084,42.342,29.743,35.949,9.258,7.862
1567,0.958,36.128,25.11,42.313,29.733,36.035,9.137,7.7
1568,0.954,35.803,25.099,42.313,29.729,36.076,9.177,7.658
1569,0.958,35.962,25.165,42.313,29.733,35.914,9.259,7.698
1570,0.958,36.079,25.162,42.304,29.729,35.547,9.137,7.536
1571,0.961,36.157,25.185,42.323,29.736,35.136,9.299,7.738
1572,0.945,35.774,25.162,42.332,29.733,34.522,9.382,7.699
1573,0.941,35.914,25.173,42.323,29.736,33.947,9.301,7.74
1574,0.945,36.088,25.037,42.352,29.743,33.697,9.504,7.821
1575,0.935,36.109,25.094,42.314,29.726,33.248,9.262,7.822
1576,0.938,35.889,25.173,42.294,29.729,32.877,9.341,7.781
1577,0.935,36.05,25.181,42.313,29.733,32.508,9.342,7.903
1578,0.928,36.147,25.166,42.294,29.723,31.935,9.179,7.863
1579,0.948,36.196,25.119,42.342,29.74,31.807,9.38,7.985
1580,0.958,35.918,25.122,42.313,29.733,31.643,9.301,8.108
1581,0.954,36.04,25.095,42.304,29.736,31.804,9.382,7.987
1582,0.964,36.185,25.118,42.361,29.743,32.416,9.464,8.108
1583,0.968,35.784,25.087,42.304,29.723,33.072,9.302,7.987
1584,0.984,35.847,25.157,42.304,29.722,34.014,9.382,8.068
1585,0.994,35.972,25.173,42.313,29.736,34.715,9.423,8.028
1586,0.994,36.07,25.056,42.275,29.716,34.925,9.302,7.946
1587,1.013,35.84,25.11,42.313,29.743,35.211,9.585,8.108
1588,1.01,35.963,25.087,42.313,29.743,35.214,9.507,8.109
1589,1.023,36.089,25.134,42.304,29.737,34.93,9.587,8.069
1590,1.017,36.205,25.181,42.351,29.75,34.683,9.629,8.15
1591,1.004,35.717,25.224,42.294,29.73,33.989,9.466,8.069
1592,1.014,35.856,25.17,42.303,29.726,33.372,9.465,7.987
1593,1.007,35.982,25.181,42.313,29.729,32.838,9.505,8.149
1594,0.988,36.06,25.072,42.284,29.719,32.344,9.343,7.947
1595,1.0,35.773,25.114,42.323,29.736,32.177,9.464,8.148
1596,0.994,35.914,25.15,42.313,29.733,31.769,9.505,8.11
1597,0.997,36.05,25.197,42.313,29.729,31.439,9.465,8.191
1598,1.013,36.118,25.154,42.342,29.743,31.152,9.505,8.232
1599,1.004,35.764,25.08,42.285,29.73,30.742,9.384,8.07
1600,1.01,35.924,25.071,42.303,29.729,30.779,9.382,8.069
1601,1.023,36.06,25.036,42.313,29.733,31.145,9.342,8.069
1602,1.023,36.08,25.0,42.275,29.719,31.555,9.26,8.069
1603,1.043,35.802,25.129,42.322,29.729,32.779,9.422,8.231
1604,1.053,35.943,25.154,42.323,29.726,33.727,9.383,8.192
1605,1.053,36.041,25.173,42.313,29.733,34.508,9.342,8.232
1606,1.066,36.281,25.092,42.351,29.747,35.045,9.545,8.233
1607,1.073,35.833,25.095,42.294,29.716,35.091,9.425,7.989
1608,1.076,35.972,25.079,42.294,29.729,35.091,9.464,8.068
1609,1.096,36.108,25.134,42.294,29.736,35.091,9.465,8.028
1610,1.083,35.716,25.146,42.294,29.719,34.644,9.343,7.946
1611,1.086,35.751,25.189,42.323,29.733,34.314,9.586,8.148
1612,1.083,35.885,25.174,42.304,29.736,33.782,9.547,8.15
1613,1.07,35.982,25.174,42.304,29.74,33.289,9.466,8.15
1614,1.082,35.763,25.092,42.323,29.747,32.959,9.627,8.354
1615,1.07,35.857,25.106,42.294,29.726,32.63,9.426,8.193
1616,1.089,36.011,25.142,42.313,29.729,32.342,9.464,8.151
1617,1.096,36.089,25.169,42.294,29.736,31.974,9.505,8.191
1618,1.089,35.687,25.134,42.275,29.726,31.441,9.425,8.11
1619,1.105,35.817,25.13,42.313,29.736,31.314,9.586,8.232
1620,1.122,35.963,25.091,42.294,29.733,31.394,9.466,8.273
1621,1.135,36.012,25.052,42.294,29.729,31.517,9.424,8.152
1622,1.148,35.667,25.047,42.332,29.75,32.21,9.546,8.273
1623,1.165,35.788,25.098,42.294,29.726,33.07,9.384,8.111
1624,1.168,35.924,25.142,42.303,29.733,34.136,9.382,8.109
1625,1.175,35.983,25.134,42.313,29.729,34.878,9.464,8.109
1626,1.178,35.753,25.079,42.265,29.726,35.252,9.343,7.987
1627,1.21,35.943,25.098,42.303,29.743,35.581,9.504,8.068
1628,1.22,36.05,25.114,42.313,29.74,35.706,9.506,8.069
1629,1.217,36.099,25.161,42.294,29.737,35.504,9.425,8.028
1630,1.221,35.716,25.173,42.342,29.75,35.339,9.627,8.19
1631,1.204,35.837,25.181,42.285,29.73,34.646,9.344,8.029
1632,1.214,35.972,25.17,42.284,29.733,34.233,9.382,8.027
1633,1.217,36.29,25.158,42.275,29.733,33.619,9.342,8.068
1634,1.214,35.689,24.986,42.274,29.723,33.247,9.26,8.028
1635,1.224,35.875,25.066,42.313,29.74,33.121,9.341,8.149
1636,1.234,35.982,25.133,42.294,29.733,32.957,9.301,8.15
1637,1.227,35.705,25.173,42.313,29.733,32.509,9.301,8.232
1638,1.237,35.741,25.189,42.323,29.736,32.179,9.382,8.273
1639,1.231,35.856,25.111,42.304,29.726,31.728,9.139,8.193
1640,1.256,35.973,25.103,42.294,29.736,31.683,9.177,8.151
1641,1.263,35.581,25.036,42.294,29.73,31.805,9.096,8.15
1642,1.273,35.701,25.016,42.294,29.723,32.172,9.014,8.11
1643,1.299,35.856,25.09,42.303,29.736,33.232,9.176,8.232
1644,1.309,35.944,25.169,42.304,29.736,34.097,9.259,8.233
1645,1.326,35.715,25.134,42.304,29.73,34.837,9.178,8.192
1646,1.339,35.904,25.064,42.332,29.743,35.414,9.299,8.395
1647,1.319,36.002,25.114,42.275,29.73,35.42,9.138,8.153
1648,1.342,36.089,25.114,42.265,29.736,35.542,9.177,8.191
1649,1.349,35.649,25.157,42.303,29.736,35.462,9.218,8.192
1650,1.352,35.788,25.138,42.265,29.723,35.054,9.096,8.11
1651,1.346,35.934,25.208,42.322,29.74,34.725,9.298,8.232
1652,1.355,35.983,25.182,42.304,29.743,34.152,9.301,8.192
1653,1.346,35.724,25.158,42.294,29.74,33.618,9.26,8.151
1654,1.362,35.923,25.08,42.323,29.75,33.41,9.3,8.273
1655,1.349,35.983,25.118,42.285,29.73,33.082,9.178,8.274
1656,1.358,36.031,25.111,42.294,29.726,32.754,9.096,8.193
1657,1.352,35.84,25.2,42.303,29.736,32.425,9.136,8.192
1658,1.359,35.944,25.162,42.246,29.723,31.853,9.055,8.151
1659,1.368,36.108,25.115,42.303,29.736,31.766,9.217,8.273
1660,1.375,36.138,25.11,42.313,29.736,31.805,9.137,8.274
1661,1.388,35.86,25.032,42.304,29.736,32.05,9.136,8.193
1662,1.404,36.03,25.106,42.332,29.75,32.784,9.258,8.232
1663,1.398,36.109,25.103,42.285,29.73,33.727,9.219,8.111
1664,1.421,35.793,25.169,42.284,29.733,34.793,9.218,8.028
1665,1.431,35.818,25.166,42.294,29.733,35.576,9.3,8.068
1666,1.424,35.905,25.076,42.265,29.723,35.95,9.301,8.028
1667,1.454,36.069,25.11,42.361,29.736,36.36,9.463,8.068
1668,1.454,35.956,25.118,42.295,29.736,36.486,9.424,8.028
1669,1.447,36.089,25.122,42.294,29.73,36.325,9.464,8.027
1670,1.457,36.243,25.181,42.332,29.747,36.079,9.505,7.946
1671,1.447,36.293,25.181,42.285,29.733,35.548,9.465,8.067
1672,1.438,35.958,25.174,42.265,29.733,34.892,9.343,7.987
1673,1.434,36.108,25.205,42.274,29.733,34.479,9.464,7.946
1674,1.421,36.234,25.076,42.274,29.726,34.109,9.424,7.945
1675,1.424,36.35,25.106,42.284,29.74,33.943,9.424,7.986
1676,1.421,36.083,25.114,42.284,29.743,33.657,9.505,8.108
1677,1.408,36.224,25.196,42.303,29.726,33.166,9.425,8.109
1678,1.421,36.398,25.166,42.313,29.743,32.754,9.464,8.069
1679,1.398,36.409,25.107,42.304,29.737,32.466,9.424,8.191
1680,1.405,36.285,25.052,42.275,29.733,32.382,9.302,7.988
1681,1.405,36.437,25.079,42.303,29.736,32.584,9.301,8.027
1682,1.405,36.535,25.036,42.275,29.73,32.993,9.382,8.027
1683,1.418,36.631,25.121,42.303,29.733,33.932,9.382,8.068
1684,1.414,36.431,25.126,42.294,29.736,34.917,9.423,8.069
1685,1.408,36.554,25.193,42.275,29.743,35.537,9.464,8.028
1686,1.392,36.699,25.111,42.303,29.73,35.868,9.505,7.987
1687,1.395,36.691,25.071,42.323,29.736,35.953,9.506,8.068
1688,1.382,36.767,25.11,42.285,29.723,35.832,9.425,7.906
1689,1.369,36.921,25.103,42.284,29.733,35.749,9.464,7.904
1690,1.339,37.028,25.146,42.255,29.723,35.301,9.465,7.945
1691,1.329,36.751,25.119,42.293,29.74,34.727,9.383,7.986
1692,1.323,36.681,25.181,42.294,29.737,34.112,9.423,8.068
1693,1.293,36.796,25.174,42.294,29.733,33.536,9.424,7.946
1694,1.28,36.931,25.092,42.294,29.74,33.083,9.424,8.026
1695,1.257,36.904,25.067,42.284,29.73,32.754,9.424,8.109
1696,1.24,37.028,25.137,42.275,29.723,32.344,9.22,7.947
1697,1.214,37.183,25.161,42.294,29.722,31.974,9.218,8.108
1698,1.194,37.242,25.166,42.256,29.722,31.482,9.137,8.028
1699,1.188,37.012,25.127,42.274,29.736,31.274,9.258,8.109
1700,1.175,37.154,25.103,42.294,29.733,31.313,9.259,8.15
1701,1.178,37.261,25.048,42.275,29.733,31.435,9.178,8.069
1702,1.178,37.367,25.083,42.303,29.747,32.127,9.259,8.15
1703,1.152,37.148,25.102,42.284,29.737,32.988,9.259,8.028
1704,1.145,37.28,25.134,42.284,29.73,33.85,9.137,8.027
1705,1.142,37.406,25.189,42.265,29.729,34.672,9.217,7.987
1706,1.119,37.446,25.107,42.255,29.723,35.006,9.137,7.946
1707,1.122,37.35,25.091,42.313,29.729,35.375,9.299,8.026
1708,1.109,37.503,25.095,42.284,29.733,35.419,9.26,8.027
1709,1.096,37.61,25.138,42.275,29.733,35.379,9.259,7.987
1710,1.079,37.678,25.173,42.303,29.736,35.135,9.259,7.946
1711,1.044,37.592,25.15,42.265,29.726,34.604,9.219,7.986
1712,1.027,37.735,25.185,42.265,29.729,34.11,9.137,7.864
1713,1.004,37.842,25.17,42.255,29.729,33.577,9.136,7.944
1714,0.987,37.862,25.072,42.246,29.729,33.206,9.136,8.026
1715,0.987,37.786,25.102,42.293,29.729,33.08,9.095,7.987
1716,0.971,37.91,25.134,42.284,29.729,32.754,9.176,8.068
1717,0.948,38.007,25.189,42.294,29.743,32.425,9.096,8.15
1718,0.958,37.941,25.185,42.313,29.737,32.097,9.136,8.15
1719,0.925,37.873,25.127,42.284,29.733,31.809,9.055,8.191
1720,0.918,37.997,25.087,42.265,29.729,31.806,9.054,8.07
1721,0.935,38.094,25.071,42.265,29.729,32.09,9.095,8.15
1722,0.912,37.961,25.032,42.255,29.723,32.662,9.095,8.069
1723,0.931,38.113,25.11,42.293,29.729,33.684,9.258,8.15
1724,0.931,38.239,25.142,42.284,29.736,34.63,9.3,8.232
1725,0.912,38.307,25.169,42.275,29.733,35.331,9.301,8.233
1726,0.922,38.126,25.099,42.313,29.747,35.744,9.463,8.314
1727,0.915,38.22,25.118,42.342,29.73,35.748,9.343,8.112
1728,0.905,38.317,25.111,42.266,29.729,35.708,9.301,8.15
1729,0.905,38.433,25.11,42.274,29.733,35.545,9.341,8.191
1730,0.886,38.175,25.165,42.255,29.723,35.136,9.301,8.07
1731,0.882,38.335,25.181,42.274,29.733,34.726,9.382,8.15
1732,0.866,38.471,25.197,42.274,29.74,34.152,9.382,8.232
1733,0.84,38.511,25.135,42.284,29.737,33.577,9.382,8.233
1734,0.856,38.368,25.068,42.313,29.743,33.246,9.423,8.314
1735,0.82,38.462,25.083,42.265,29.723,32.837,9.22,8.112
1736,0.823,38.578,25.141,42.255,29.722,32.507,9.218,8.109
1737,0.817,38.637,25.181,42.274,29.729,32.097,9.259,8.191
1738,0.807,38.417,25.115,42.255,29.726,31.605,9.178,8.151
1739,0.813,38.587,25.126,42.284,29.74,31.438,9.259,8.232
1740,0.807,38.714,25.103,42.275,29.73,31.558,9.259,8.192
1741,0.816,38.724,25.087,42.294,29.726,31.681,9.219,8.273
1742,0.833,38.514,25.048,42.323,29.743,32.414,9.259,8.355
1743,0.82,38.626,25.118,42.256,29.726,33.194,9.178,8.153
1744,0.826,38.724,25.126,42.274,29.726,34.178,9.218,8.11
1745,0.833,38.705,25.157,42.246,29.733,34.96,9.259,8.191
1746,0.813,38.657,25.06,42.255,29.719,35.171,9.137,8.07
1747,0.836,38.81,25.102,42.284,29.733,35.62,9.258,8.191
1748,0.823,38.908,25.106,42.265,29.736,35.584,9.3,8.192
1749,0.823,38.515,25.142,42.284,29.733,35.462,9.341,8.11
1750,0.817,38.617,25.142,42.303,29.743,35.298,9.423,8.232
1751,0.794,38.695,25.15,42.256,29.723,34.646,9.22,7.989
1752,0.797,38.801,25.134,42.265,29.733,34.192,9.218,8.068
1753,0.787,38.725,25.154,42.246,29.729,33.659,9.137,8.028
1754,0.771,38.849,25.037,42.245,29.719,33.247,9.055,7.946
1755,0.783,39.033,25.106,42.284,29.74,33.243,9.217,8.026
1756,0.784,39.092,25.138,42.275,29.733,32.959,9.137,8.149
1757,0.771,38.882,25.173,42.274,29.729,32.59,9.095,8.11
1758,0.774,39.062,25.193,42.313,29.743,32.342,9.258,8.232
1759,0.758,39.14,25.092,42.265,29.737,32.096,9.015,8.029
1760,0.767,39.218,25.083,42.265,29.726,32.134,9.094,7.987
1761,0.77,38.509,25.052,42.265,29.729,32.297,9.014,8.108
1762,0.761,38.646,24.977,42.246,29.719,32.827,8.891,7.947
1763,0.787,38.8,25.105,42.293,29.729,33.89,9.134,8.108
1764,0.784,38.821,25.146,42.265,29.736,34.835,9.136,8.069
1765,0.797,38.62,25.189,42.284,29.733,35.455,9.177,8.028
1766,0.807,38.8,25.096,42.313,29.75,35.949,9.259,8.149
1767,0.794,38.869,25.126,42.332,29.73,35.994,9.097,7.988
1768,0.797,38.899,25.111,42.275,29.729,35.954,9.095,7.946
1769,0.8,38.774,25.142,42.265,29.733,35.832,9.095,7.864
1770,0.784,38.869,25.134,42.226,29.723,35.383,9.014,7.863
1771,0.79,39.004,25.193,42.284,29.736,35.053,9.176,7.944
1772,0.777,38.852,25.146,42.265,29.736,34.44,9.137,7.986
1773,0.771,38.611,25.165,42.265,29.73,33.906,9.136,7.986
1774,0.774,38.771,25.068,42.294,29.743,33.656,9.177,8.068
1775,0.748,38.83,25.094,42.256,29.726,33.329,8.974,8.028
1776,0.747,38.668,25.149,42.265,29.722,33.0,8.972,7.946
1777,0.744,38.772,25.173,42.274,29.733,32.672,8.891,8.108
1778,0.741,38.869,25.166,42.227,29.716,32.18,8.809,8.109
1779,0.751,38.994,25.123,42.284,29.733,32.094,8.93,8.109
1780,0.761,38.497,25.079,42.265,29.733,32.093,8.89,8.191
1781,0.77,38.617,25.048,42.265,29.733,32.256,8.93,8.151
1782,0.787,38.781,25.036,42.284,29.747,32.908,9.012,8.273
1783,0.774,38.821,25.071,42.265,29.726,33.646,8.932,8.193
1784,0.774,38.534,25.122,42.265,29.726,34.467,8.89,8.07
1785,0.78,38.694,25.173,42.265,29.722,35.126,8.93,8.109
1786,0.777,38.782,25.084,42.226,29.722,35.295,8.85,8.028
1787,0.806,38.898,25.091,42.303,29.733,35.581,8.971,8.068
1788,0.8,38.41,25.106,42.265,29.736,35.543,8.931,8.028
1789,0.8,38.549,25.142,42.246,29.733,35.421,8.972,8.068
1790,0.79,38.704,25.15,42.303,29.743,35.176,9.094,8.191
1791,0.771,38.705,25.13,42.236,29.73,34.604,9.014,8.11
1792,0.774,38.398,25.181,42.265,29.729,34.07,8.972,8.028
1793,0.777,38.549,25.166,42.255,29.733,33.617,9.013,8.068
1794,0.764,38.646,25.049,42.226,29.719,33.288,8.81,7.987
1795,0.767,38.705,25.114,42.264,29.736,33.162,9.011,8.19
1796,0.767,38.274,25.122,42.255,29.73,32.795,8.932,8.232
1797,0.761,38.394,25.177,42.255,29.723,32.344,9.053,8.233
1798,0.77,38.529,25.189,42.284,29.743,32.055,9.095,8.395
1799,0.757,38.56,25.139,42.246,29.73,31.564,9.014,8.316
1800,0.754,38.301,25.099,42.236,29.726,31.641,8.891,8.234
1801,0.764,38.442,25.087,42.265,29.736,31.804,8.971,8.233
1802,0.774,38.53,25.067,42.226,29.716,32.294,8.85,8.192
1803,0.79,38.186,25.094,42.264,29.736,33.518,9.093,8.314
1804,0.787,38.23,25.122,42.265,29.73,34.425,9.136,8.234
1805,0.79,38.346,25.142,42.265,29.736,35.085,9.055,8.355
1806,0.826,38.5,25.115,42.294,29.747,35.701,9.257,8.397
1807,0.823,38.013,25.087,42.265,29.733,35.707,9.097,8.194
1808,0.804,38.132,25.099,42.236,29.729,35.626,9.054,8.232
1809,0.803,38.258,25.126,42.245,29.729,35.544,9.135,8.111
1810,0.781,38.336,25.142,42.226,29.723,35.055,9.014,8.109
1811,0.787,38.03,25.165,42.255,29.729,34.725,9.216,8.191
1812,0.774,38.152,25.181,42.284,29.736,34.234,9.056,8.232
1813,0.777,38.268,25.189,42.265,29.736,33.7,9.135,8.233
1814,0.774,38.384,25.096,42.274,29.75,33.492,9.177,8.314
1815,0.767,37.81,25.067,42.246,29.723,33.042,9.015,8.152
1816,0.77,37.996,25.102,42.265,29.722,32.794,8.972,8.11
1817,0.761,38.104,25.173,42.246,29.726,32.547,9.053,8.191
1818,0.764,38.153,25.166,42.245,29.719,32.016,8.851,8.151
1819,0.78,37.913,25.119,42.245,29.729,31.97,9.011,8.273
1820,0.777,38.055,25.111,42.255,29.736,32.011,9.013,8.274
1821,0.787,38.171,25.13,42.265,29.733,32.133,9.054,8.193
1822,0.793,38.22,25.079,42.294,29.743,32.866,9.135,8.314
1823,0.813,37.722,25.059,42.246,29.723,33.646,9.014,8.193
1824,0.81,37.88,25.11,42.226,29.729,34.548,9.094,8.151
1825,0.813,37.987,25.173,42.255,29.733,35.208,9.136,8.11
1826,0.81,38.171,25.084,42.226,29.716,35.458,9.095,8.028
1827,0.82,37.818,25.091,42.264,29.736,35.867,9.258,8.109
1828,0.83,37.939,25.095,42.265,29.736,35.871,9.341,8.15
1829,0.83,38.026,25.103,42.246,29.733,35.627,9.301,8.069
1830,0.826,37.644,25.13,42.274,29.74,35.422,9.423,8.109
1831,0.8,37.62,25.173,42.246,29.73,34.728,9.261,7.987
1832,0.8,37.745,25.131,42.245,29.729,34.152,9.3,8.027
1833,0.79,37.852,25.138,42.245,29.733,33.699,9.341,8.027
1834,0.78,37.642,25.08,42.217,29.719,33.329,9.219,7.905
1835,0.787,37.793,25.118,42.264,29.729,33.244,9.381,8.107
1836,0.793,37.929,25.138,42.246,29.729,32.999,9.301,8.069
1837,0.774,37.997,25.169,42.265,29.729,32.509,9.26,8.069
1838,0.79,37.499,25.205,42.284,29.74,32.301,9.381,8.191
1839,0.78,37.59,25.108,42.236,29.737,31.933,9.179,7.988
1840,0.8,37.735,25.095,42.245,29.73,31.929,9.177,7.986
1841,0.8,37.804,25.083,42.236,29.733,32.132,9.218,7.946
1842,0.794,37.258,25.036,42.245,29.719,32.541,9.178,7.945
1843,0.803,37.425,25.094,42.265,29.736,33.643,9.34,8.026
1844,0.816,37.551,25.142,42.255,29.736,34.508,9.342,8.027
1845,0.807,37.61,25.154,42.246,29.73,35.207,9.342,7.987
1846,0.813,37.342,25.099,42.255,29.729,35.661,9.504,8.149
1847,0.813,37.464,25.06,42.246,29.723,35.666,9.343,7.866
1848,0.826,37.6,25.063,42.245,29.733,35.747,9.342,7.944
1849,0.826,37.639,25.102,42.236,29.729,35.708,9.382,7.986
1850,0.826,37.342,25.126,42.226,29.726,35.301,9.423,7.864
1851,0.836,37.493,25.142,42.255,29.729,34.849,9.627,8.026
1852,0.813,37.571,25.126,42.246,29.736,34.357,9.588,8.027
1853,0.787,37.917,25.181,42.245,29.73,33.823,9.425,7.987
1854,0.79,37.384,25.057,42.274,29.743,33.493,9.505,8.068
1855,0.777,37.493,25.102,42.236,29.726,33.002,9.384,7.946
1856,0.797,37.619,25.099,42.245,29.733,32.672,9.382,7.864
1857,0.794,37.227,25.173,42.245,29.729,32.262,9.382,7.944
1858,0.79,37.223,25.166,42.236,29.719,31.729,9.301,7.823
1859,0.79,37.377,25.166,42.265,29.736,31.561,9.341,8.025
1860,0.8,37.474,25.095,42.246,29.736,31.6,9.382,8.109
1861,0.8,37.197,25.067,42.245,29.73,31.682,9.342,7.987
1862,0.807,37.328,24.993,42.274,29.736,32.374,9.464,8.027
1863,0.82,37.445,25.07,42.227,29.736,33.275,9.383,7.946
1864,0.817,37.542,25.118,42.226,29.73,34.26,9.301,7.945
1865,0.823,37.341,25.161,42.236,29.733,34.961,9.382,7.823
1866,0.826,37.464,25.115,42.207,29.716,35.293,9.342,7.781
1867,0.826,37.619,25.06,42.255,29.736,35.662,9.504,7.944
1868,0.83,37.716,25.102,42.265,29.733,35.666,9.506,7.905
1869,0.833,36.969,25.118,42.236,29.729,35.503,9.506,7.945
1870,0.83,37.173,25.165,42.274,29.75,35.299,9.587,7.986
1871,0.797,37.251,25.162,42.236,29.723,34.687,9.466,7.905
1872,0.803,37.319,25.134,42.236,29.729,34.071,9.424,7.823
1873,0.807,37.1,25.161,42.236,29.729,33.577,9.464,7.944
1874,0.784,37.232,25.029,42.217,29.726,33.165,9.343,7.945
1875,0.793,37.396,25.094,42.245,29.736,32.998,9.504,7.945
1876,0.784,37.417,25.118,42.245,29.736,32.753,9.465,8.108
1877,0.78,36.985,25.173,42.236,29.73,32.344,9.383,8.109
1878,0.79,37.144,25.17,42.284,29.74,32.014,9.545,8.109
1879,0.79,37.213,25.146,42.236,29.73,31.686,9.384,8.069
1880,0.8,37.329,25.099,42.226,29.733,31.764,9.261,8.069
1881,0.81,37.061,25.064,42.236,29.736,31.927,9.341,8.028
1882,0.8,37.193,25.051,42.226,29.726,32.579,9.342,8.027
1883,0.813,37.338,25.086,42.255,29.736,33.684,9.464,8.19
1884,0.826,37.042,25.11,42.265,29.74,34.671,9.465,8.11
1885,0.826,37.02,25.177,42.236,29.733,35.412,9.465,8.109
1886,0.833,37.192,25.127,42.265,29.74,35.867,9.465,8.109
1887,0.83,37.252,24.994,42.236,29.74,35.994,9.587,8.069
1888,0.83,36.917,25.086,42.226,29.726,36.076,9.507,7.987
1889,0.836,37.076,25.114,42.226,29.733,35.996,9.546,8.027
1890,0.807,37.183,25.126,42.197,29.723,35.629,9.506,8.068
1891,0.82,37.309,25.181,42.255,29.733,35.218,9.546,7.987
1892,0.81,36.936,25.154,42.246,29.733,34.767,9.547,8.108
1893,0.794,37.067,25.197,42.226,29.729,34.315,9.628,8.028
1894,0.803,37.212,25.131,42.264,29.736,34.026,9.548,8.068
1895,0.794,37.261,25.103,42.236,29.733,33.739,9.506,8.028
1896,0.797,36.945,25.106,42.207,29.726,33.411,9.425,8.027
1897,0.794,37.096,25.142,42.235,29.733,33.041,9.424,8.068
1898,0.78,37.193,25.162,42.207,29.729,32.591,9.383,8.069
1899,0.784,37.29,25.142,42.235,29.733,32.342,9.382,8.028
1900,0.78,36.821,25.115,42.236,29.74,32.38,9.382,8.149
1901,0.79,36.96,25.095,42.236,29.737,32.543,9.464,8.069
1902,0.803,37.096,25.099,42.255,29.74,33.073,9.587,8.069
1903,0.8,37.136,25.118,42.246,29.73,33.933,9.588,8.028
1904,0.807,36.983,25.134,42.226,29.726,34.917,9.588,7.946
1905,0.816,37.134,25.197,42.245,29.733,35.618,9.588,7.986
1906,0.803,37.222,25.111,42.217,29.719,35.869,9.669,7.946
1907,0.829,37.271,25.032,42.264,29.736,36.237,9.792,7.945
1908,0.823,36.907,25.098,42.255,29.736,36.119,9.834,7.986
1909,0.81,37.047,25.083,42.246,29.733,35.996,9.794,7.946
1910,0.813,37.183,25.145,42.284,29.743,35.751,9.915,8.026
1911,0.794,36.897,25.158,42.236,29.73,35.098,9.835,7.946
1912,0.784,36.856,25.166,42.236,29.736,34.441,9.794,7.864
1913,0.787,37.009,25.185,42.226,29.73,34.028,9.875,7.944
1914,0.771,37.077,25.053,42.207,29.723,33.576,9.753,7.945
1915,0.777,36.867,25.11,42.264,29.733,33.49,9.833,7.945
1916,0.79,36.97,25.122,42.236,29.736,33.245,9.753,8.026
1917,0.784,37.096,25.157,42.245,29.733,32.796,9.712,8.109
1918,0.784,37.232,25.173,42.274,29.74,32.507,9.67,8.069
1919,0.764,36.849,25.138,42.255,29.73,32.179,9.629,8.028
1920,0.787,36.999,25.111,42.246,29.723,32.175,9.466,7.987
1921,0.797,37.144,25.083,42.236,29.729,32.46,9.546,8.027
1922,0.784,37.184,25.059,42.217,29.723,33.113,9.506,7.946
1923,0.816,36.849,25.075,42.255,29.736,34.38,9.546,8.026
1924,0.803,36.989,25.141,42.255,29.736,35.531,9.588,8.068
1925,0.81,37.135,25.162,42.246,29.736,36.275,9.629,8.069
1926,0.826,37.222,25.154,42.274,29.747,36.851,9.67,8.028
1927,0.82,36.782,24.998,42.236,29.73,36.898,9.548,7.946
1928,0.81,36.931,25.098,42.255,29.733,37.101,9.425,7.864
1929,0.813,37.067,25.099,42.236,29.733,37.063,9.464,7.863
1930,0.813,37.107,25.138,42.217,29.729,36.778,9.302,7.782
1931,0.816,36.915,25.119,42.255,29.74,36.328,9.463,7.984
1932,0.81,37.057,25.15,42.255,29.74,35.835,9.383,7.986
1933,0.794,37.154,25.134,42.246,29.733,35.342,9.301,7.986
1934,0.8,37.194,25.076,42.274,29.743,35.134,9.423,8.149
1935,0.777,36.954,25.079,42.246,29.723,34.685,9.22,7.947
1936,0.787,37.105,25.087,42.245,29.733,34.396,9.178,7.986
1937,0.761,37.232,25.161,42.236,29.733,34.027,9.177,8.108
1938,0.764,37.041,25.158,42.236,29.723,33.373,9.096,7.947
1939,0.774,36.991,25.177,42.255,29.729,33.326,9.176,8.23
1940,0.777,37.106,25.092,42.265,29.733,33.285,9.096,8.192
1941,0.78,37.222,25.102,42.236,29.733,33.325,9.095,8.11
1942,0.79,36.945,25.04,42.265,29.74,33.976,9.258,8.272
1943,0.78,37.029,25.094,42.236,29.719,34.714,9.056,8.071
1944,0.793,37.173,25.091,42.236,29.726,35.697,9.054,8.109
1945,0.797,37.271,25.181,42.255,29.729,36.398,9.054,8.109
1946,0.803,36.869,25.092,42.236,29.726,36.69,8.973,8.028
1947,0.813,37.028,25.009,42.274,29.736,37.018,9.175,8.068
1948,0.813,37.173,25.09,42.246,29.73,37.021,9.177,8.109
1949,0.826,37.251,25.114,42.236,29.729,36.818,9.218,8.109
1950,0.813,37.099,25.165,42.255,29.743,36.613,9.259,8.191
1951,0.787,37.212,25.127,42.236,29.723,35.838,9.178,8.029
1952,0.79,37.338,25.161,42.255,29.733,35.383,9.137,7.946
1953,0.771,37.416,25.15,42.246,29.729,34.81,9.136,8.026
1954,0.764,36.995,25.041,42.226,29.723,34.316,9.014,7.865
1955,0.774,37.173,25.059,42.255,29.729,34.27,9.176,8.107
1956,0.767,37.29,25.133,42.246,29.736,33.863,9.218,8.028
1957,0.764,37.339,25.189,42.236,29.736,33.453,9.178,8.027
1958,0.764,37.061,25.182,42.274,29.743,33.123,9.259,8.149
1959,0.754,37.145,25.123,42.227,29.723,32.591,9.097,7.947
1960,0.767,37.29,25.048,42.226,29.729,32.545,9.095,7.823
1961,0.77,37.31,25.079,42.236,29.719,32.626,9.176,7.903
1962,0.767,37.186,24.997,42.226,29.722,33.115,9.055,7.742
1963,0.777,37.338,25.098,42.245,29.733,34.34,9.257,7.862
1964,0.784,37.445,25.114,42.255,29.733,35.206,9.341,7.904
1965,0.787,37.302,25.146,42.246,29.729,35.824,9.342,7.823
1966,0.797,37.243,25.115,42.265,29.743,36.359,9.504,7.944
1967,0.797,37.348,25.005,42.226,29.723,36.324,9.343,7.701
1968,0.82,37.493,25.102,42.226,29.726,36.364,9.382,7.78
1969,0.803,37.207,25.126,42.226,29.733,36.12,9.464,7.659
1970,0.787,37.29,25.142,42.236,29.719,35.671,9.383,7.658
1971,0.787,37.435,25.134,42.255,29.736,35.3,9.586,7.82
1972,0.777,37.513,25.173,42.236,29.743,34.646,9.507,7.7
1973,0.764,37.303,25.162,42.236,29.737,34.111,9.546,7.74
1974,0.774,37.445,25.111,42.255,29.743,33.78,9.669,7.862
1975,0.748,37.571,25.118,42.226,29.723,33.289,9.426,7.7
1976,0.754,37.658,25.134,42.217,29.726,32.918,9.424,7.618
1977,0.767,37.228,25.185,42.245,29.729,32.467,9.424,7.779
1978,0.751,37.348,25.135,42.217,29.719,31.853,9.302,7.618
1979,0.754,37.503,25.122,42.255,29.729,31.806,9.504,7.82
1980,0.774,37.562,25.075,42.246,29.729,31.765,9.465,7.822
1981,0.787,37.37,25.071,42.236,29.729,31.927,9.383,7.781
1982,0.79,37.522,25.048,42.265,29.74,32.701,9.586,7.862
1983,0.787,37.6,25.086,42.246,29.723,33.644,9.385,7.66
1984,0.78,37.678,25.141,42.236,29.719,34.67,9.382,7.658
1985,0.787,37.381,25.15,42.236,29.726,35.534,9.382,7.658
1986,0.8,37.522,25.103,42.226,29.726,35.909,9.301,7.576
1987,0.803,37.658,24.985,42.255,29.729,36.319,9.423,7.779
1988,0.803,37.688,25.101,42.255,29.733,36.404,9.546,7.659
1989,0.797,37.439,25.087,42.226,29.729,36.243,9.506,7.698
1990,0.8,37.599,25.141,42.274,29.747,36.078,9.587,7.821
1991,0.774,37.687,25.146,42.227,29.726,35.386,9.344,7.619
1992,0.78,37.669,25.146,42.226,29.729,34.85,9.342,7.657
1993,0.764,37.544,25.177,42.245,29.736,34.357,9.382,7.739
1994,0.761,37.677,25.072,42.217,29.73,33.945,9.261,7.577
1995,0.761,37.813,25.094,42.245,29.733,33.819,9.341,7.82
1996,0.761,37.45,25.091,42.236,29.733,33.574,9.301,7.741
1997,0.748,37.551,25.165,42.245,29.729,33.084,9.26,7.781
1998,0.747,37.677,25.146,42.255,29.74,32.794,9.341,7.984
1999,0.747,37.755,25.087,42.236,29.726,32.385,9.138,7.783
2000,0.764,37.516,25.071,42.245,29.722,32.503,9.095,7.822
2001,0.764,37.638,25.063,42.236,29.736,32.748,9.217,7.863
2002,0.777,37.784,25.094,42.226,29.73,33.319,9.178,7.782
2003,0.774,37.89,25.095,42.264,29.74,34.545,9.259,7.944
2004,0.787,37.508,25.118,42.246,29.733,35.533,9.259,7.945
2005,0.787,37.658,25.146,42.245,29.729,36.193,9.259,7.864
2006,0.78,37.803,25.111,42.274,29.74,36.729,9.341,7.985
2007,0.78,37.862,25.095,42.265,29.73,36.693,9.219,7.783
2008,0.784,37.527,25.103,42.226,29.729,36.734,9.259,7.822
2009,0.787,37.648,25.106,42.236,29.736,36.571,9.219,7.781
2010,0.784,37.803,25.134,42.236,29.73,36.122,9.218,7.822
2011,0.774,37.871,25.146,42.265,29.729,35.671,9.3,7.944
2012,0.771,37.671,25.123,42.226,29.729,35.056,9.301,7.905
2013,0.761,37.832,25.142,42.245,29.733,34.481,9.26,7.904
2014,0.744,37.939,25.037,42.245,29.736,34.028,9.381,7.985
2015,0.734,37.95,25.082,42.236,29.726,33.576,9.098,7.864
2016,0.751,37.624,25.095,42.245,29.733,33.246,9.136,7.985
2017,0.731,37.745,25.161,42.226,29.729,32.755,9.095,7.986
2018,0.751,37.89,25.173,42.245,29.733,32.262,9.136,7.864
2019,0.748,37.892,25.115,42.245,29.736,32.095,9.136,7.985
2020,0.764,37.69,25.099,42.236,29.73,32.134,9.095,7.946
2021,0.764,37.851,25.087,42.265,29.726,32.216,9.136,7.986
2022,0.748,37.929,25.005,42.255,29.736,32.826,9.258,7.986
2023,0.751,37.633,25.07,42.217,29.723,33.727,9.097,7.824
2024,0.751,37.716,25.11,42.226,29.729,34.63,9.176,7.863
2025,0.754,37.813,25.165,42.217,29.733,35.331,9.177,7.904
2026,0.774,37.948,25.076,42.245,29.733,35.704,9.218,7.863
2027,0.79,37.585,25.118,42.245,29.736,35.951,9.259,7.904
2028,0.784,37.716,25.091,42.255,29.73,36.035,9.219,7.823
2029,0.787,37.88,25.141,42.246,29.736,35.873,9.178,7.903
2030,0.777,37.92,25.15,42.245,29.733,35.587,9.34,7.945
2031,0.774,37.566,25.15,42.217,29.723,34.974,9.179,7.823
2032,0.78,37.716,25.165,42.226,29.729,34.48,9.218,7.863
2033,0.758,37.813,25.146,42.226,29.729,33.987,9.218,7.944
2034,0.751,37.948,25.064,42.245,29.733,33.616,9.178,7.945
2035,0.754,37.595,25.102,42.236,29.733,33.491,9.259,8.026
2036,0.751,37.716,25.118,42.245,29.729,33.245,9.259,8.068
2037,0.748,37.851,25.177,42.245,29.729,32.796,9.219,8.15
2038,0.738,37.891,25.158,42.245,29.736,32.507,9.259,8.15
2039,0.728,37.633,25.107,42.236,29.73,32.26,9.097,8.069
2040,0.751,37.793,25.083,42.245,29.729,32.258,9.095,8.069
2041,0.761,37.9,25.067,42.226,29.729,32.542,9.095,8.109
2042,0.764,37.94,25.028,42.245,29.733,32.992,9.095,8.109
2043,0.774,37.566,25.098,42.236,29.736,33.972,9.176,8.232
2044,0.767,37.716,25.142,42.245,29.733,34.714,9.177,8.192
2045,0.783,37.823,25.165,42.255,29.733,35.25,9.137,8.151
2046,0.787,37.939,25.068,42.265,29.736,35.621,9.299,8.232
2047,0.79,37.652,25.083,42.217,29.73,35.625,9.097,8.029
2048,0.797,37.822,25.091,42.226,29.736,35.666,9.095,8.109
2049,0.794,37.92,25.118,42.226,29.733,35.544,9.014,8.069
2050,0.79,37.451,25.146,42.245,29.726,35.136,9.054,8.028
2051,0.777,37.503,25.181,42.265,29.74,34.726,9.135,8.149
2052,0.78,37.619,25.142,42.255,29.737,34.193,9.136,8.11
2053,0.774,37.707,25.177,42.246,29.733,33.619,9.095,8.15
2054,0.774,37.458,25.033,42.265,29.743,33.41,9.136,8.273
2055,0.764,37.571,25.086,42.217,29.716,33.082,8.933,8.111
2056,0.761,37.716,25.118,42.245,29.729,32.794,8.972,8.069
2057,0.748,37.803,25.177,42.236,29.726,32.547,8.972,8.109
2058,0.744,37.382,25.131,42.217,29.729,32.098,8.85,8.069
2059,0.757,37.532,25.122,42.255,29.729,32.174,8.971,8.191
2060,0.767,37.667,25.099,42.246,29.74,32.094,8.972,8.192
2061,0.764,37.755,25.067,42.236,29.73,32.418,9.013,8.192
2062,0.787,37.42,25.071,42.274,29.743,33.113,9.094,8.354
2063,0.774,37.503,25.083,42.246,29.723,33.892,8.973,8.071
2064,0.78,37.638,25.098,42.226,29.729,34.795,9.013,8.109
2065,0.787,37.707,25.161,42.236,29.733,35.454,9.013,8.109
2066,0.793,37.324,25.076,42.207,29.723,35.705,8.891,8.109
2067,0.806,37.521,25.106,42.274,29.736,36.032,9.134,8.191
2068,0.81,37.639,25.083,42.255,29.74,36.036,9.055,8.151
2069,0.813,37.659,25.11,42.246,29.74,35.792,9.095,8.069
2070,0.813,37.323,25.165,42.274,29.747,35.627,9.136,8.191
2071,0.787,37.416,25.119,42.227,29.73,34.934,9.095,8.11
2072,0.777,37.551,25.157,42.236,29.723,34.358,8.932,8.069
2073,0.777,37.802,25.142,42.236,29.729,33.783,8.972,8.109
2074,0.764,37.219,25.033,42.217,29.729,33.33,8.85,8.069
2075,0.774,37.405,25.086,42.255,29.733,33.203,8.93,8.028
2076,0.767,37.503,25.126,42.246,29.729,32.917,9.012,8.149
2077,0.761,37.236,25.173,42.236,29.733,32.467,8.972,8.11
2078,0.774,37.31,25.142,42.274,29.74,32.016,8.931,8.191
2079,0.754,37.416,25.134,42.236,29.733,31.767,8.85,8.11
2080,0.767,37.513,25.068,42.217,29.729,31.643,8.767,8.028
2081,0.783,36.977,25.079,42.236,29.723,31.764,8.807,8.027
2082,0.774,37.038,24.97,42.236,29.722,32.253,8.848,8.027
2083,0.793,37.231,25.097,42.245,29.733,33.111,8.808,8.027
2084,0.8,37.329,25.126,42.245,29.74,33.933,8.93,8.027
2085,0.797,37.061,25.154,42.245,29.737,34.551,8.89,8.068
2086,0.807,37.25,25.119,42.274,29.733,34.842,8.849,7.946
2087,0.807,37.339,25.017,42.265,29.74,35.007,9.011,7.986
2088,0.8,37.416,25.102,42.226,29.719,34.928,8.85,7.783
2089,0.803,36.726,25.114,42.226,29.729,34.805,8.849,7.944
2090,0.787,36.863,25.15,42.226,29.733,34.6,8.889,7.945
2091,0.79,37.028,25.162,42.245,29.726,34.029,8.89,7.823
2092,0.793,37.058,25.134,42.245,29.736,33.617,8.971,7.863
2093,0.774,36.857,25.193,42.245,29.73,33.044,8.972,7.985
2094,0.78,37.018,25.057,42.245,29.733,32.672,8.972,7.946
2095,0.771,37.135,25.09,42.255,29.743,32.465,9.135,8.108
2096,0.764,37.146,25.095,42.236,29.726,32.056,8.892,7.906
2097,0.774,36.59,25.157,42.236,29.729,31.727,8.93,7.985
2098,0.758,36.718,25.158,42.236,29.733,31.276,9.012,8.027
2099,0.764,36.854,25.127,42.245,29.719,31.028,8.932,7.905
2100,0.787,37.191,25.103,42.255,29.729,31.269,9.012,8.026
2101,0.787,36.638,25.079,42.246,29.729,31.434,9.013,7.946
2102,0.797,36.786,25.052,42.255,29.723,31.965,9.054,7.986
2103,0.807,36.941,25.086,42.274,29.75,33.068,9.217,8.149
2104,0.797,36.568,25.118,42.217,29.726,33.77,9.056,7.988
2105,0.8,36.603,25.15,42.236,29.722,34.427,9.013,7.905
2106,0.813,36.747,25.091,42.245,29.722,34.841,9.054,7.945
2107,0.82,36.864,25.083,42.217,29.722,34.885,8.973,7.864
2108,0.83,36.328,25.083,42.255,29.74,35.089,9.094,8.026
2109,0.836,36.428,25.138,42.246,29.733,34.888,9.136,8.027
2110,0.83,36.554,25.13,42.236,29.736,34.561,9.014,8.027
2111,0.817,36.67,25.157,42.265,29.74,34.232,9.135,8.149
2112,0.784,36.134,25.142,42.226,29.73,33.497,9.014,7.988
2113,0.767,36.292,25.15,42.226,29.729,33.002,8.972,7.986
2114,0.777,36.437,25.091,42.226,29.733,32.631,8.891,7.986
2115,0.78,36.535,25.067,42.217,29.723,32.342,8.849,7.986
2116,0.79,36.066,25.13,42.245,29.736,32.096,8.93,8.19
2117,0.767,36.205,25.15,42.236,29.733,31.646,9.012,8.232
2118,0.777,36.321,25.142,42.245,29.726,31.194,8.891,8.192
2119,0.787,36.418,25.142,42.265,29.74,31.108,8.971,8.354
2120,0.787,35.978,25.15,42.207,29.726,30.945,8.85,8.112
2121,0.787,36.137,25.091,42.226,29.722,31.106,8.889,8.15
2122,0.784,36.263,25.099,42.226,29.733,31.636,8.849,8.15
2123,0.793,36.331,25.11,42.226,29.723,32.495,8.849,8.069
