time,ecg,bvp,gsr,rsp,skt,emg_zygo,emg_coru,emg_trap
0,0.777,37.345,33.899,45.556,28.376,7.821,5.973,5.89
1,0.777,37.464,33.863,45.537,28.359,7.781,5.852,5.729
2,0.764,37.638,33.925,45.536,28.359,7.781,5.851,5.687
3,0.764,37.755,33.879,45.546,28.366,7.74,5.891,5.809
4,0.77,37.449,33.945,45.527,28.362,7.699,5.851,5.728
5,0.767,37.561,33.938,45.488,28.352,7.577,5.729,5.646
6,0.757,37.725,33.895,45.526,28.362,7.616,5.85,5.686
7,0.761,37.823,33.934,45.517,28.355,7.617,5.769,5.687
8,0.754,37.402,33.926,45.517,28.352,7.576,5.687,5.687
9,0.761,37.541,33.93,45.508,28.362,7.454,5.768,5.687
10,0.777,37.735,33.793,45.536,28.369,7.615,5.891,5.849
11,0.777,37.813,33.917,45.536,28.369,7.495,5.811,5.688
12,0.78,37.306,33.903,45.527,28.355,7.494,5.769,5.727
13,0.774,37.483,33.934,45.546,28.366,7.453,5.85,5.768
14,0.777,37.619,33.942,45.537,28.366,7.493,5.81,5.809
15,0.771,37.678,33.848,45.517,28.352,7.331,5.728,5.647
16,0.77,37.362,33.902,45.517,28.359,7.289,5.768,5.686
17,0.777,37.56,33.914,45.517,28.362,7.288,5.809,5.727
18,0.774,37.706,33.949,45.498,28.355,7.329,5.688,5.565
19,0.761,37.717,33.825,45.517,28.355,7.289,5.687,5.685
20,0.767,37.449,33.925,45.527,28.366,7.41,5.768,5.849
21,0.774,37.647,33.93,45.556,28.369,7.452,5.809,5.769
22,0.764,37.764,33.891,45.517,28.359,7.452,5.688,5.687
23,0.767,37.564,33.984,45.508,28.362,7.493,5.768,5.809
24,0.767,37.217,33.833,45.536,28.366,7.534,5.809,5.81
25,0.774,37.377,33.913,45.527,28.362,7.616,5.728,5.728
26,0.758,37.474,33.942,45.498,28.348,7.454,5.687,5.687
27,0.761,37.293,33.833,45.555,28.359,7.615,5.727,5.727
28,0.761,37.31,33.913,45.527,28.362,7.617,5.768,5.768
29,0.761,37.473,33.891,45.508,28.355,7.657,5.647,5.647
30,0.774,37.571,33.961,45.527,28.359,7.861,5.767,5.808
31,0.777,37.438,33.876,45.556,28.369,8.148,5.85,5.81
32,0.774,37.542,33.918,45.537,28.359,8.11,5.769,5.769
33,0.774,37.715,33.895,45.556,28.362,8.313,5.768,5.809
34,0.784,37.813,33.902,45.527,28.362,8.356,5.809,5.769
35,0.774,37.2,33.965,45.517,28.359,8.478,5.769,5.768
36,0.784,37.328,33.821,45.565,28.348,8.276,5.687,5.606
37,0.774,37.483,33.89,45.508,28.355,8.518,5.727,5.726
38,0.774,37.6,33.848,45.507,28.359,8.642,5.768,5.727
39,0.771,36.815,33.898,45.507,28.355,8.562,5.647,5.727
40,0.764,36.979,33.875,45.517,28.355,8.602,5.767,5.809
41,0.777,37.163,33.871,45.536,28.366,8.846,5.85,5.81
42,0.771,37.232,33.906,45.527,28.355,8.686,5.729,5.728
43,0.777,37.032,33.848,45.536,28.362,8.766,5.727,5.768
44,0.767,37.202,33.91,45.517,28.362,8.767,5.809,5.728
45,0.767,37.348,33.922,45.546,28.366,8.767,5.728,5.809
46,0.761,37.416,33.871,45.527,28.355,8.645,5.687,5.688
47,0.748,36.966,33.941,45.527,28.355,8.684,5.768,5.727
48,0.76,37.125,33.801,45.536,28.362,8.684,5.687,5.687
49,0.774,37.27,33.87,45.508,28.355,8.644,5.687,5.687
50,0.767,37.329,33.812,45.517,28.348,8.521,5.727,5.687
51,0.764,36.841,33.866,45.546,28.366,8.683,5.809,5.89
52,0.783,37.037,33.941,45.546,28.359,8.562,5.769,5.811
53,0.764,37.145,33.852,45.517,28.352,8.521,5.768,5.81
54,0.77,37.184,33.914,45.546,28.362,8.479,5.809,5.769
55,0.777,36.782,33.864,45.537,28.366,8.438,5.81,5.85
56,0.78,36.979,33.906,45.517,28.362,8.316,5.81,5.729
57,0.767,37.086,33.883,45.498,28.348,8.234,5.688,5.727
58,0.774,36.925,33.891,45.517,28.359,8.233,5.727,5.768
59,0.767,36.741,33.973,45.498,28.359,8.151,5.727,5.768
60,0.774,36.912,33.868,45.507,28.359,8.191,5.727,5.728
61,0.764,37.047,33.902,45.527,28.348,8.11,5.809,5.85
62,0.78,36.809,33.828,45.575,28.369,8.191,5.891,5.891
63,0.767,36.845,33.831,45.585,28.366,8.11,5.811,5.77
64,0.761,37.018,33.933,45.537,28.362,8.109,5.728,5.85
65,0.754,37.144,33.93,45.517,28.359,8.191,5.768,5.81
66,0.754,36.58,33.95,45.536,28.359,8.11,5.728,5.85
67,0.764,36.68,33.864,45.517,28.355,7.906,5.646,5.688
68,0.757,36.844,33.972,45.536,28.362,7.945,5.808,5.768
69,0.774,36.961,33.884,45.517,28.355,8.026,5.769,5.809
70,0.767,36.53,33.828,45.527,28.359,7.987,5.728,5.728
71,0.754,36.689,33.886,45.527,28.355,7.946,5.727,5.768
72,0.774,36.853,33.887,45.556,28.366,8.189,5.85,6.053
73,0.784,36.98,33.91,45.537,28.362,8.11,5.769,5.812
74,0.771,36.329,33.832,45.536,28.369,8.109,5.809,5.85
75,0.774,36.505,33.956,45.546,28.362,8.191,5.769,5.932
76,0.777,36.669,33.915,45.537,28.362,8.11,5.85,5.892
77,0.777,36.748,33.883,45.527,28.355,8.028,5.688,5.689
78,0.764,36.423,33.949,45.508,28.355,8.027,5.687,5.849
79,0.77,36.621,33.919,45.517,28.355,8.068,5.687,5.729
80,0.764,36.757,33.907,45.517,28.355,7.987,5.727,5.85
81,0.764,36.816,33.817,45.536,28.352,7.946,5.727,5.81
82,0.764,36.289,33.87,45.527,28.366,8.026,5.85,5.932
83,0.783,36.504,33.949,45.565,28.366,7.987,5.851,5.892
84,0.764,36.612,33.868,45.527,28.362,7.946,5.851,5.892
85,0.767,36.671,33.937,45.546,28.366,7.945,5.851,5.811
86,0.77,36.403,33.922,45.556,28.362,7.823,5.851,5.891
87,0.774,36.582,33.891,45.546,28.359,7.822,5.769,5.811
88,0.758,36.689,33.926,45.498,28.352,7.781,5.768,5.81
89,0.764,37.007,33.86,45.536,28.359,7.781,5.768,5.85
90,0.761,36.32,33.797,45.527,28.355,7.74,5.728,5.81
91,0.754,36.476,33.886,45.527,28.355,7.659,5.727,5.728
92,0.77,36.583,33.883,45.527,28.355,7.78,5.85,5.931
93,0.79,36.315,33.926,45.546,28.366,7.903,5.851,5.892
94,0.777,36.188,33.829,45.537,28.355,7.701,5.81,5.851
95,0.774,36.35,33.913,45.536,28.362,7.74,5.85,5.891
96,0.777,36.486,33.817,45.527,28.366,7.781,5.851,5.851
97,0.777,36.171,33.87,45.546,28.362,7.781,5.81,5.851
98,0.78,36.235,33.918,45.498,28.352,7.618,5.728,5.648
99,0.764,36.398,33.91,45.536,28.359,7.779,5.768,5.849
100,0.767,36.525,33.91,45.536,28.352,7.74,5.768,5.81
101,0.774,36.008,33.801,45.536,28.352,7.74,5.768,5.728
102,0.761,36.156,33.862,45.517,28.359,7.781,5.728,5.809
103,0.777,36.359,33.964,45.651,28.373,7.944,5.972,5.891
104,0.771,36.447,33.86,45.538,28.359,7.823,5.852,5.851
105,0.77,35.959,33.957,45.527,28.362,7.781,5.851,5.851
106,0.767,36.165,33.825,45.651,28.362,7.822,5.891,5.932
107,0.78,36.34,33.894,45.557,28.362,7.863,5.811,5.892
108,0.767,36.399,33.863,45.537,28.352,7.741,5.688,5.811
109,0.774,35.968,33.886,45.527,28.348,7.903,5.727,5.728
110,0.771,36.165,33.887,45.536,28.359,7.945,5.768,5.768
111,0.764,36.33,33.824,45.536,28.355,7.864,5.809,5.768
112,0.761,36.39,33.925,45.527,28.352,7.904,5.769,5.85
113,0.77,35.796,33.848,45.556,28.373,8.067,5.931,5.932
114,0.787,36.01,33.945,45.556,28.359,8.028,5.811,5.811
115,0.774,36.118,33.801,45.546,28.359,8.068,5.81,5.769
116,0.787,36.196,33.862,45.546,28.362,8.069,5.891,5.809
117,0.78,35.89,33.972,45.537,28.366,8.109,5.892,5.769
118,0.787,36.04,33.868,45.517,28.355,7.987,5.729,5.687
119,0.777,36.176,33.855,45.536,28.355,7.986,5.809,5.727
120,0.797,36.263,33.832,45.556,28.362,8.027,5.85,5.809
121,0.807,35.804,33.902,45.527,28.355,8.068,5.769,5.728
122,0.8,35.972,33.93,45.498,28.355,7.987,5.728,5.727
123,0.8,36.137,33.903,45.536,28.369,8.068,5.89,5.89
124,0.826,36.215,33.941,45.546,28.359,8.028,5.851,5.811
125,0.82,35.957,33.868,45.556,28.359,7.946,5.851,5.728
126,0.83,36.117,33.933,45.537,28.359,7.986,5.891,5.89
127,0.839,36.272,33.883,45.556,28.366,8.068,5.811,5.729
128,0.833,35.747,33.902,45.537,28.359,7.987,5.85,5.646
129,0.83,35.645,33.938,45.508,28.355,8.068,5.729,5.727
130,0.859,35.855,33.907,45.546,28.359,8.069,5.768,5.727
131,0.853,35.953,33.887,45.537,28.355,8.028,5.728,5.646
132,0.862,35.657,33.848,45.517,28.355,7.987,5.768,5.645
133,0.862,35.769,33.91,45.536,28.355,8.149,5.891,5.889
134,0.892,35.991,33.965,45.565,28.369,8.11,5.851,5.729
135,0.892,36.089,33.899,45.537,28.359,8.028,5.851,5.768
136,0.895,35.553,33.902,45.536,28.355,8.068,5.851,5.687
137,0.899,35.72,33.977,45.546,28.366,8.028,5.851,5.809
138,0.899,35.875,33.938,45.537,28.355,7.987,5.81,5.688
139,0.882,35.925,33.895,45.498,28.352,7.946,5.728,5.809
140,0.895,35.513,33.777,45.526,28.359,8.108,5.727,5.688
141,0.895,35.691,33.886,45.517,28.352,8.191,5.85,5.727
142,0.889,35.827,33.871,45.508,28.355,8.232,5.769,5.687
143,0.899,35.924,33.929,45.517,28.362,8.233,5.809,5.727
144,0.908,35.561,33.95,45.555,28.373,8.355,5.972,5.768
145,0.918,35.711,33.864,45.527,28.359,8.275,5.893,5.728
146,0.928,35.856,33.976,45.527,28.359,8.314,5.851,5.727
147,0.938,35.944,33.798,45.546,28.359,8.315,5.891,5.85
148,0.941,35.484,33.886,45.546,28.362,8.315,5.851,5.769
149,0.951,35.643,33.93,45.527,28.352,8.112,5.729,5.565
150,0.958,35.798,33.891,45.536,28.366,8.191,5.809,5.766
151,0.964,35.857,33.91,45.536,28.362,8.11,5.769,5.728
152,0.984,35.359,33.801,45.527,28.355,8.15,5.728,5.646
153,0.974,35.507,33.882,45.527,28.355,8.028,5.809,5.767
154,0.981,35.681,33.914,45.556,28.366,8.19,5.972,5.891
155,0.987,35.721,33.899,45.537,28.362,8.07,5.811,5.729
156,0.987,35.501,33.902,45.527,28.362,8.109,5.81,5.687
157,0.978,35.691,33.859,45.527,28.362,8.069,5.85,5.687
158,0.971,35.808,33.964,45.536,28.362,8.069,5.891,5.849
159,0.964,35.608,33.926,45.546,28.359,7.946,5.77,5.648
160,0.958,35.366,33.778,45.527,28.355,7.823,5.809,5.727
161,0.971,35.584,33.866,45.536,28.366,7.944,5.81,5.727
162,0.968,35.701,33.836,45.527,28.362,7.823,5.769,5.687
163,0.961,35.367,33.933,45.517,28.355,7.781,5.728,5.646
164,0.948,35.45,33.832,45.555,28.359,7.862,5.89,5.889
165,0.954,35.681,33.906,45.565,28.366,7.944,5.77,5.77
166,0.925,35.731,33.844,45.527,28.362,7.783,5.809,5.768
167,0.938,35.262,33.824,45.546,28.359,7.781,5.81,5.809
168,0.932,35.391,33.933,45.546,28.359,7.862,5.769,5.81
169,0.935,35.565,33.911,45.537,28.366,7.944,5.809,5.688
170,0.915,35.653,33.922,45.508,28.345,7.783,5.688,5.727
171,0.912,35.251,33.875,45.546,28.359,7.862,5.768,5.768
172,0.915,35.41,33.879,45.546,28.359,7.863,5.728,5.728
173,0.912,35.585,33.828,45.517,28.359,7.782,5.727,5.687
174,0.915,35.682,33.863,45.527,28.355,7.822,5.809,5.768
175,0.922,35.252,33.953,45.556,28.373,8.025,5.972,5.972
176,0.909,35.429,33.844,45.527,28.355,7.865,5.771,5.771
177,0.899,35.585,33.925,45.546,28.362,7.904,5.768,5.809
178,0.886,35.682,33.891,45.556,28.369,7.863,5.85,5.81
179,0.853,35.089,33.934,45.537,28.362,7.985,5.81,5.81
180,0.846,35.246,33.778,45.536,28.355,7.783,5.606,5.728
181,0.827,35.401,33.882,45.527,28.355,7.984,5.726,5.809
182,0.823,35.489,33.941,45.536,28.355,7.986,5.727,5.85
183,0.82,35.211,33.872,45.517,28.355,7.986,5.768,5.769
184,0.8,35.372,33.902,45.527,28.355,7.986,5.728,5.809
185,0.807,35.565,33.867,45.536,28.369,8.23,5.89,6.013
186,0.813,35.624,33.906,45.565,28.362,8.151,5.851,5.893
187,0.79,35.126,33.91,45.537,28.362,8.15,5.81,5.892
188,0.8,35.304,33.856,45.546,28.362,8.15,5.81,5.973
189,0.803,35.459,33.96,45.556,28.369,8.11,5.85,5.974
190,0.787,35.719,33.88,45.537,28.359,8.069,5.729,5.852
191,0.78,35.07,33.828,45.517,28.352,8.109,5.85,5.891
192,0.79,35.284,33.913,45.546,28.362,8.109,5.769,5.892
193,0.777,35.411,33.879,45.537,28.355,8.069,5.728,5.892
194,0.777,35.201,33.918,45.527,28.348,8.109,5.768,5.851
195,0.784,35.113,33.856,45.546,28.362,8.232,5.891,5.973
196,0.793,35.351,33.906,45.556,28.366,8.273,5.811,5.933
197,0.761,35.431,33.945,45.537,28.359,8.314,5.81,5.974
198,0.767,35.009,33.918,45.527,28.362,8.437,5.769,5.974
199,0.754,35.091,33.918,45.556,28.369,8.479,5.809,5.974
200,0.748,35.265,33.774,45.556,28.359,8.438,5.769,5.811
201,0.734,35.343,33.94,45.527,28.355,8.519,5.768,5.891
202,0.741,35.037,33.868,45.536,28.362,8.479,5.728,5.892
203,0.728,35.168,33.933,45.546,28.352,8.479,5.768,5.933
204,0.728,35.342,33.934,45.517,28.355,8.438,5.728,5.811
205,0.728,35.478,33.911,45.555,28.369,8.682,5.931,5.972
206,0.738,35.019,33.961,45.565,28.362,8.481,5.811,5.974
207,0.721,35.149,33.747,45.556,28.366,8.56,5.769,5.974
208,0.728,35.313,33.92,45.556,28.359,8.48,5.768,6.055
209,0.738,35.401,33.879,45.565,28.373,8.438,5.85,6.056
210,0.728,34.942,33.941,45.546,28.362,8.275,5.729,5.975
211,0.705,35.062,33.86,45.517,28.359,8.314,5.809,5.933
212,0.728,35.245,33.879,45.546,28.355,8.315,5.728,5.892
213,0.712,35.343,33.89,45.584,28.362,8.234,5.768,5.851
214,0.705,34.98,33.836,45.518,28.352,8.233,5.768,5.851
215,0.715,35.158,33.925,45.546,28.366,8.273,5.85,5.973
216,0.734,35.371,33.848,45.613,28.373,8.314,5.81,5.974
217,0.721,35.402,33.886,45.537,28.366,8.234,5.81,5.974
218,0.711,35.019,33.945,45.536,28.359,8.192,5.891,5.893
219,0.715,35.197,33.876,45.556,28.362,8.232,5.892,5.973
220,0.708,35.333,33.851,45.565,28.362,8.233,5.77,5.852
221,0.708,35.344,33.804,45.518,28.355,8.192,5.728,5.891
222,0.715,34.884,33.925,45.546,28.369,8.232,5.727,5.892
223,0.711,35.042,33.875,45.527,28.362,8.314,5.687,5.892
224,0.702,35.188,33.887,45.517,28.348,8.396,5.727,5.851
225,0.705,35.304,33.879,45.536,28.366,8.478,5.809,5.973
226,0.705,35.066,33.844,45.594,28.373,8.682,5.85,5.974
227,0.705,35.217,33.921,45.556,28.362,8.644,5.769,5.893
228,0.689,35.343,33.883,45.546,28.366,8.725,5.768,5.973
229,0.711,34.97,33.832,45.565,28.366,8.766,5.768,5.974
230,0.705,34.938,33.835,45.565,28.362,8.726,5.728,5.893
231,0.702,35.091,33.835,45.518,28.348,8.685,5.687,5.892
232,0.711,35.227,33.894,45.555,28.355,8.847,5.727,5.851
233,0.702,34.825,33.883,45.537,28.359,8.727,5.687,5.851
234,0.711,34.907,33.836,45.546,28.355,8.685,5.687,5.769
235,0.715,35.062,33.925,45.537,28.362,8.725,5.727,5.809
236,0.721,35.217,33.832,45.575,28.369,8.888,5.931,5.891
237,0.721,34.825,33.906,45.537,28.359,8.768,5.77,5.851
238,0.715,34.965,33.871,45.546,28.366,8.767,5.809,5.851
239,0.715,35.139,33.933,45.556,28.366,8.807,5.81,5.891
240,0.715,35.256,33.891,45.556,28.369,8.767,5.932,5.892
241,0.715,34.845,33.68,45.537,28.352,8.563,5.648,5.77
242,0.705,35.003,33.9,45.536,28.359,8.724,5.767,5.85
243,0.711,35.187,33.832,45.527,28.362,8.603,5.809,5.891
244,0.702,35.295,33.925,45.536,28.362,8.562,5.728,5.77
245,0.701,34.797,33.848,45.527,28.355,8.602,5.687,5.891
246,0.701,34.993,33.894,45.594,28.373,8.684,5.931,6.014
247,0.721,35.197,33.934,45.537,28.366,8.644,5.77,5.893
248,0.708,35.247,33.911,45.546,28.369,8.521,5.809,5.933
249,0.721,34.749,33.942,45.546,28.362,8.561,5.85,5.933
250,0.718,34.945,33.817,45.556,28.366,8.561,5.81,5.933
251,0.715,35.12,33.898,45.546,28.362,8.439,5.728,5.852
252,0.708,35.131,33.836,45.517,28.352,8.357,5.768,5.891
253,0.721,34.882,33.925,45.527,28.355,8.397,5.768,5.892
254,0.721,35.071,33.836,45.527,28.355,8.438,5.809,5.892
255,0.721,35.217,33.902,45.527,28.355,8.357,5.769,5.851
256,0.721,35.247,33.902,45.536,28.369,8.356,5.891,5.973
257,0.737,34.845,33.859,45.565,28.369,8.437,5.851,5.974
258,0.721,34.994,33.933,45.546,28.352,8.275,5.851,5.852
259,0.728,35.139,33.957,45.537,28.362,8.233,5.891,6.013
260,0.715,35.006,33.981,45.546,28.362,8.233,5.811,5.974
261,0.728,34.804,33.825,45.556,28.366,8.233,5.85,5.974
262,0.712,34.965,33.87,45.527,28.352,8.029,5.769,5.771
263,0.715,35.11,33.847,45.527,28.359,8.109,5.809,5.85
264,0.721,34.834,33.882,45.517,28.362,8.028,5.728,5.851
265,0.715,34.85,33.93,45.527,28.355,7.987,5.687,5.81
266,0.702,35.023,33.848,45.536,28.355,7.946,5.809,5.932
267,0.721,35.168,33.933,45.556,28.373,8.23,5.932,6.055
268,0.718,34.662,33.879,45.556,28.362,7.989,5.892,5.975
269,0.708,34.752,33.902,45.546,28.359,7.986,5.811,5.974
270,0.705,34.926,33.84,45.537,28.355,7.986,5.81,5.852
271,0.705,35.043,33.878,45.556,28.362,7.905,5.891,5.932
272,0.711,34.679,33.965,45.527,28.362,7.823,5.729,5.892
273,0.695,34.781,33.798,45.498,28.359,7.863,5.809,5.933
274,0.708,34.974,33.882,45.546,28.359,7.944,5.81,5.892
275,0.702,35.091,33.871,45.527,28.359,7.905,5.728,5.851
276,0.724,34.699,33.836,45.498,28.362,7.945,5.727,5.891
277,0.731,34.887,33.878,45.546,28.359,7.986,5.85,6.014
278,0.76,35.1,33.879,45.565,28.376,8.149,5.851,5.974
279,0.748,35.16,33.937,45.527,28.359,7.988,5.81,5.893
280,0.78,34.537,33.821,45.546,28.366,8.068,5.85,5.973
281,0.793,34.722,33.847,45.565,28.359,7.987,5.851,6.055
282,0.819,34.906,33.917,45.546,28.362,8.027,5.769,5.853
283,0.839,34.947,33.84,45.508,28.352,7.824,5.687,5.891
284,0.869,35.628,33.906,45.527,28.359,7.944,5.809,5.973
285,0.898,35.788,33.793,45.536,28.359,8.026,5.81,5.893
286,0.921,35.934,33.866,45.517,28.352,7.946,5.688,5.851
287,0.961,35.973,33.867,45.536,28.362,8.026,5.727,5.973
288,1.013,34.094,33.894,45.565,28.373,8.19,5.931,6.137
289,1.056,34.267,33.871,45.537,28.359,8.029,5.73,5.976
290,1.095,34.422,33.746,45.546,28.362,8.19,5.768,6.015
291,1.158,34.424,33.909,45.537,28.362,8.07,5.85,5.974
292,1.2,34.788,33.848,45.556,28.359,8.069,5.851,6.015
293,1.224,34.945,33.859,45.537,28.355,7.946,5.648,5.893
294,1.256,35.081,33.793,45.536,28.362,8.067,5.767,6.054
295,1.299,34.699,33.913,45.546,28.352,7.946,5.85,6.015
296,1.299,34.465,33.809,45.517,28.355,7.986,5.688,6.056
297,1.283,34.674,33.855,45.517,28.355,7.946,5.687,6.097
298,1.293,34.8,33.941,45.527,28.366,8.067,5.931,6.26
299,1.312,34.687,33.899,45.565,28.369,8.028,5.811,6.221
300,1.329,34.724,33.879,45.556,28.366,8.027,5.769,6.22
301,1.362,34.916,33.738,45.575,28.355,8.027,5.768,6.22
302,1.381,35.033,33.909,45.546,28.362,8.027,5.809,6.302
303,1.385,34.545,33.914,45.537,28.359,8.027,5.728,6.221
304,1.333,34.627,33.895,45.527,28.359,8.027,5.768,6.302
305,1.28,34.829,33.918,45.527,28.359,8.109,5.728,6.343
306,1.254,34.955,33.817,45.527,28.355,8.272,5.727,6.303
307,1.25,34.401,33.921,45.517,28.352,8.396,5.687,6.343
308,1.208,34.567,33.895,45.546,28.369,8.641,5.89,6.628
309,1.103,34.771,33.891,45.575,28.366,8.847,5.77,6.631
310,0.943,34.84,33.781,45.556,28.359,8.889,5.768,6.712
311,0.847,34.476,33.854,45.537,28.366,9.093,5.768,6.835
312,0.758,34.655,33.918,45.556,28.359,9.217,5.768,6.958
313,0.67,34.8,33.789,45.537,28.362,9.178,5.687,7.082
314,0.555,34.869,33.882,45.508,28.345,9.259,5.687,7.123
315,0.479,34.486,33.859,45.536,28.359,9.341,5.768,7.368
316,0.407,34.674,33.855,45.527,28.355,9.382,5.728,7.411
317,0.341,34.81,33.894,45.517,28.359,9.464,5.687,7.452
318,0.295,34.898,33.875,45.536,28.366,9.587,5.849,7.737
319,0.275,34.553,33.992,45.536,28.373,9.669,5.851,7.781
320,0.222,34.684,33.849,45.527,28.369,9.507,5.729,7.822
321,0.206,34.848,33.882,45.546,28.362,9.546,5.768,7.985
322,0.179,34.908,33.867,45.546,28.369,9.628,5.768,8.068
323,0.163,34.448,33.871,45.556,28.366,9.629,5.728,7.987
324,0.117,34.616,33.914,45.508,28.345,9.466,5.687,8.108
325,0.104,34.752,33.871,45.546,28.359,9.627,5.687,8.109
326,0.084,35.051,33.894,45.556,28.362,9.548,5.687,8.191
327,0.058,34.584,33.82,45.537,28.355,9.506,5.646,8.273
328,0.022,34.761,33.96,45.536,28.366,9.546,5.767,8.477
329,0.041,34.926,33.93,45.565,28.373,9.588,5.809,8.479
330,0.038,34.477,33.801,45.556,28.362,9.547,5.769,8.601
331,0.061,34.434,33.925,45.556,28.359,9.506,5.728,8.643
332,0.097,34.587,33.868,45.546,28.369,9.506,5.768,8.765
333,0.139,34.713,33.859,45.556,28.359,9.384,5.687,8.807
334,0.159,34.293,33.785,45.517,28.345,9.301,5.687,8.808
335,0.192,34.403,33.929,45.546,28.362,9.382,5.727,9.011
336,0.222,34.577,33.848,45.537,28.355,9.261,5.687,9.054
337,0.235,34.694,33.847,45.517,28.352,9.259,5.646,9.135
338,0.241,34.369,33.91,45.517,28.359,9.259,5.686,9.339
339,0.281,34.558,33.879,45.555,28.376,9.503,5.809,9.464
340,0.291,34.713,33.894,45.537,28.362,9.303,5.728,9.465
341,0.301,34.82,33.781,45.556,28.359,9.341,5.809,9.465
342,0.314,34.275,33.897,45.546,28.362,9.342,5.81,9.505
343,0.324,34.451,33.891,45.556,28.369,9.301,5.81,9.546
344,0.33,34.616,33.852,45.537,28.352,9.178,5.647,9.425
345,0.343,34.675,33.871,45.527,28.355,9.259,5.686,9.586
346,0.369,34.407,33.797,45.536,28.359,9.178,5.727,9.547
347,0.409,34.558,33.894,45.527,28.362,9.218,5.646,9.466
348,0.432,34.713,33.945,45.527,28.355,9.218,5.645,9.465
349,0.478,34.81,33.833,45.565,28.369,9.218,5.889,9.587
350,0.498,34.332,33.808,45.546,28.366,9.137,5.729,9.466
351,0.511,34.49,33.843,45.546,28.366,9.136,5.768,9.383
352,0.55,34.636,33.867,45.565,28.366,9.136,5.85,9.301
353,0.57,34.704,33.859,45.556,28.362,9.095,5.769,9.382
354,0.59,34.369,33.867,45.546,28.362,8.973,5.606,9.139
355,0.6,34.519,33.91,45.517,28.355,8.85,5.726,9.136
356,0.629,34.674,33.824,45.536,28.362,8.767,5.768,9.095
357,0.639,34.743,33.882,45.536,28.359,8.807,5.687,8.932
358,0.665,34.235,33.848,45.517,28.352,8.726,5.646,8.972
359,0.665,34.422,33.945,45.546,28.359,8.766,5.808,9.053
360,0.695,34.616,33.958,45.575,28.369,8.848,5.769,8.932
361,0.698,34.579,33.786,45.566,28.359,8.727,5.768,8.809
362,0.705,34.406,33.893,45.546,28.366,8.685,5.768,8.767
363,0.724,34.596,33.879,45.556,28.366,8.644,5.768,8.807
364,0.734,34.723,33.91,45.565,28.362,8.603,5.728,8.726
365,0.741,34.36,33.824,45.518,28.352,8.358,5.646,8.563
366,0.754,34.385,33.878,45.555,28.362,8.437,5.767,8.602
367,0.761,34.558,33.914,45.537,28.359,8.479,5.687,8.48
368,0.767,34.665,33.91,45.536,28.355,8.357,5.646,8.357
369,0.777,34.225,33.895,45.536,28.359,8.397,5.767,8.478
370,0.793,34.384,33.793,45.575,28.376,8.478,5.85,8.479
371,0.8,34.539,33.917,45.537,28.359,8.357,5.81,8.357
372,0.803,34.655,33.879,45.556,28.366,8.437,5.769,8.275
373,0.81,34.11,33.91,45.565,28.362,8.438,5.768,8.274
374,0.813,34.277,33.84,45.565,28.369,8.479,5.768,8.193
375,0.826,34.422,33.902,45.537,28.355,8.357,5.647,8.029
376,0.82,34.52,33.883,45.536,28.352,8.519,5.767,8.068
377,0.82,34.137,33.824,45.556,28.359,8.439,5.768,8.069
378,0.82,34.296,33.913,45.527,28.355,8.438,5.728,7.946
379,0.807,34.461,33.852,45.517,28.355,8.357,5.646,7.986
380,0.81,34.568,33.894,45.565,28.369,8.559,5.93,8.027
381,0.823,34.138,33.883,45.565,28.359,8.521,5.77,7.946
382,0.813,34.277,33.879,45.546,28.369,8.439,5.809,7.905
383,0.82,34.451,33.945,45.556,28.359,8.438,5.728,7.904
384,0.823,34.539,33.868,45.565,28.366,8.438,5.85,7.823
385,0.83,34.214,33.894,45.537,28.359,8.397,5.81,7.659
386,0.82,34.374,33.801,45.527,28.355,8.275,5.688,7.698
387,0.836,34.548,33.882,45.556,28.359,8.436,5.768,7.658
388,0.826,34.598,33.957,45.527,28.355,8.316,5.728,7.617
389,0.83,34.042,33.829,45.527,28.352,8.356,5.727,7.495
390,0.826,34.238,33.835,45.517,28.359,8.397,5.768,7.575
391,0.836,34.432,33.828,45.594,28.38,8.478,5.891,7.657
392,0.839,34.443,33.937,45.547,28.366,8.398,5.811,7.495
393,0.839,34.117,33.817,45.556,28.359,8.397,5.85,7.494
394,0.843,34.296,33.87,45.556,28.366,8.356,5.81,7.534
395,0.856,34.442,33.945,45.565,28.369,8.397,5.85,7.412
396,0.846,34.271,33.805,45.518,28.359,8.234,5.688,7.208
397,0.846,34.116,33.874,45.527,28.352,8.355,5.809,7.328
398,0.846,34.315,33.805,45.546,28.359,8.315,5.81,7.289
399,0.846,34.452,33.929,45.527,28.355,8.356,5.728,7.207
400,0.84,33.964,33.891,45.527,28.359,8.275,5.727,7.206
401,0.856,34.026,33.77,45.556,28.373,8.396,5.972,7.45
402,0.862,34.247,33.87,45.565,28.369,8.356,5.811,7.168
403,0.859,34.355,33.808,45.546,28.359,8.356,5.891,7.246
404,0.843,34.011,33.898,45.537,28.359,8.275,5.892,7.247
405,0.856,34.151,33.918,45.556,28.369,8.314,5.933,7.084
406,0.853,34.306,33.825,45.556,28.355,8.152,5.73,7.042
407,0.836,34.394,33.878,45.537,28.352,8.232,5.89,7.042
408,0.843,33.896,33.883,45.546,28.359,8.192,5.77,6.96
409,0.849,34.045,33.894,45.527,28.355,8.192,5.728,6.919
410,0.853,34.219,33.746,45.517,28.352,8.11,5.768,6.878
411,0.856,34.326,33.85,45.555,28.369,8.313,5.972,7.081
412,0.879,33.953,33.933,45.594,28.369,8.356,5.974,6.961
413,0.863,34.084,33.848,45.556,28.362,8.315,5.893,6.919
414,0.866,34.258,33.871,45.556,28.362,8.315,5.892,6.878
415,0.866,34.365,33.859,45.556,28.366,8.396,5.933,6.959
416,0.879,33.8,33.875,45.537,28.366,8.397,5.852,6.797
417,0.859,33.957,33.879,45.508,28.359,8.356,5.81,6.795
418,0.866,34.16,33.855,45.546,28.362,8.315,5.81,6.795
419,0.859,34.22,33.945,45.527,28.359,8.274,5.81,6.795
420,0.866,33.943,33.868,45.536,28.359,8.233,5.769,6.795
421,0.869,34.131,33.847,45.536,28.366,8.355,5.972,6.836
422,0.876,34.325,33.824,45.565,28.366,8.315,5.852,6.755
423,0.866,34.356,33.835,45.623,28.366,8.193,5.891,6.795
424,0.862,33.906,33.902,45.537,28.362,8.192,5.851,6.795
425,0.869,34.054,33.895,45.556,28.362,8.232,5.932,6.795
426,0.863,34.229,33.77,45.556,28.362,8.192,5.852,6.714
427,0.862,34.537,33.796,45.508,28.348,8.151,5.851,6.672
428,0.869,33.907,33.909,45.536,28.366,8.11,5.851,6.672
429,0.872,34.045,33.903,45.517,28.366,8.069,5.81,6.591
430,0.869,34.2,33.82,45.508,28.355,8.069,5.81,6.631
431,0.872,33.942,33.886,45.527,28.359,8.15,5.85,6.672
432,0.892,33.93,33.863,45.575,28.376,8.273,5.973,6.753
433,0.889,34.055,33.945,45.537,28.359,8.111,5.974,6.754
434,0.892,34.2,33.821,45.527,28.359,8.069,5.933,6.754
435,0.895,33.693,33.859,45.527,28.359,8.028,5.974,6.754
436,0.892,33.774,33.937,45.527,28.362,8.027,5.933,6.632
437,0.886,33.919,33.743,45.508,28.359,7.946,5.77,6.509
438,0.889,34.045,33.901,45.527,28.369,7.986,5.891,6.63
439,0.899,33.739,33.863,45.527,28.359,7.946,5.851,6.672
440,0.895,33.871,33.933,45.517,28.355,8.026,5.851,6.631
441,0.899,34.035,33.891,45.498,28.355,7.946,5.851,6.672
442,0.905,34.19,33.832,45.526,28.369,8.108,6.013,6.835
443,0.902,33.664,33.851,45.527,28.369,8.069,5.852,6.714
444,0.905,33.812,33.828,45.527,28.369,8.109,5.891,6.754
445,0.899,33.967,33.96,45.517,28.359,8.109,5.892,6.714
446,0.899,34.103,33.833,45.546,28.362,8.232,5.933,6.794
447,0.912,33.596,33.851,45.537,28.366,8.151,5.811,6.633
448,0.902,33.735,33.941,45.489,28.355,8.15,5.85,6.672
449,0.912,33.928,33.86,45.507,28.359,8.15,5.891,6.672
450,0.912,33.997,33.871,45.507,28.359,8.191,5.811,6.672
451,0.915,33.71,33.855,45.507,28.362,8.151,5.769,6.672
452,0.915,33.889,33.89,45.517,28.359,8.273,5.891,6.753
453,0.931,34.073,33.918,45.565,28.373,8.396,5.973,6.795
454,0.918,34.152,33.825,45.518,28.362,8.194,5.852,6.795
455,0.915,33.625,33.909,45.517,28.362,8.273,5.851,6.755
456,0.922,33.812,33.891,45.527,28.369,8.274,5.851,6.714
457,0.931,33.967,33.852,45.517,28.369,8.233,5.891,6.672
458,0.928,33.978,33.902,45.479,28.352,8.07,5.729,6.631
459,0.905,33.557,33.859,45.498,28.362,8.191,5.809,6.672
460,0.921,33.754,33.953,45.517,28.359,8.192,5.769,6.672
461,0.918,33.871,33.88,45.498,28.355,8.029,5.728,6.591
462,0.912,33.91,33.851,45.526,28.362,8.149,5.809,6.671
463,0.925,33.642,33.886,45.527,28.373,8.273,5.932,6.794
464,0.935,33.85,33.801,45.527,28.362,8.111,5.811,6.633
465,0.922,33.977,33.89,45.517,28.362,8.109,5.85,6.672
466,0.928,33.557,33.754,45.517,28.366,8.109,5.769,6.713
467,0.941,33.552,33.835,45.517,28.362,8.109,5.85,6.713
468,0.945,33.725,33.886,45.488,28.355,8.028,5.688,6.551
469,0.932,33.813,33.836,45.469,28.352,8.027,5.809,6.59
470,0.944,33.478,33.863,45.507,28.366,8.027,5.769,6.631
471,0.941,33.59,33.758,45.507,28.359,8.027,5.768,6.55
472,0.938,33.754,33.839,45.498,28.359,8.027,5.768,6.508
473,0.945,33.871,33.89,45.507,28.362,8.068,5.85,6.67
474,0.954,33.354,33.855,45.536,28.376,8.231,5.851,6.631
475,0.951,33.474,33.902,45.517,28.359,8.07,5.769,6.59
476,0.951,33.628,33.828,45.517,28.362,8.069,5.768,6.549
477,0.954,33.774,33.882,45.498,28.369,8.15,5.809,6.549
478,0.964,33.411,33.82,45.517,28.373,8.069,5.81,6.508
479,0.951,33.56,33.909,45.479,28.352,8.028,5.606,6.386
480,0.948,33.735,33.879,45.507,28.362,8.149,5.767,6.466
481,0.948,33.851,33.789,45.555,28.359,8.028,5.768,6.426
482,0.941,33.325,33.87,45.489,28.355,8.149,5.687,6.344
483,0.951,33.502,33.836,45.498,28.352,8.028,5.687,6.384
484,0.951,33.696,33.921,45.546,28.373,8.271,5.89,6.588
485,0.954,33.784,33.852,45.508,28.362,8.111,5.77,6.427
486,0.961,33.315,33.894,45.507,28.362,8.15,5.768,6.385
487,0.964,33.502,33.84,45.507,28.366,8.11,5.85,6.466
488,0.968,33.676,33.917,45.517,28.366,8.15,5.81,6.467
489,0.971,33.726,33.903,45.498,28.362,8.069,5.769,6.304
490,0.958,33.353,33.75,45.498,28.359,8.069,5.728,6.465
491,0.968,33.55,33.846,45.507,28.355,8.028,5.727,6.386
492,0.971,33.687,33.82,45.498,28.359,7.946,5.687,6.303
493,0.971,33.717,33.87,45.498,28.359,7.864,5.727,6.262
494,0.968,33.429,33.824,45.526,28.359,7.985,5.809,6.424
495,0.994,33.637,33.929,45.556,28.373,7.986,5.891,6.344
496,0.984,33.735,33.907,45.517,28.369,7.824,5.729,6.262
497,0.987,33.583,33.84,45.517,28.359,7.781,5.768,6.302
498,0.987,33.418,33.917,45.517,28.362,7.822,5.768,6.302
499,0.994,33.618,33.899,45.517,28.369,7.781,5.809,6.262
500,0.991,33.687,33.883,45.488,28.355,7.578,5.647,6.18
501,0.987,33.276,33.754,45.517,28.362,7.657,5.808,6.22
502,0.991,33.3,33.827,45.508,28.359,7.617,5.769,6.18
503,0.991,33.483,33.894,45.488,28.355,7.535,5.687,6.179
504,0.994,33.6,33.832,45.507,28.359,7.616,5.768,6.22
505,1.0,33.332,33.925,45.536,28.38,7.657,5.809,6.261
506,0.991,33.464,33.852,45.527,28.359,7.576,5.769,6.262
507,0.997,33.647,33.879,45.517,28.366,7.535,5.768,6.221
508,0.997,33.764,33.969,45.527,28.362,7.534,5.809,6.22
509,1.017,33.238,33.872,45.517,28.362,7.616,5.85,6.22
510,1.01,33.405,33.851,45.498,28.348,7.454,5.607,6.058
511,1.001,33.56,33.793,45.517,28.359,7.574,5.767,6.178
512,1.01,33.687,33.854,45.498,28.362,7.494,5.728,6.098
513,1.014,33.237,33.89,45.488,28.362,7.534,5.727,6.056
514,1.014,33.434,33.801,45.498,28.355,7.575,5.727,6.137
515,1.02,33.609,33.929,45.517,28.373,7.698,5.85,6.301
516,1.033,33.725,33.809,45.508,28.366,7.577,5.729,6.18
517,1.037,33.305,33.87,45.498,28.366,7.616,5.768,6.139
518,1.037,33.483,33.926,45.526,28.373,7.576,5.85,6.179
519,1.033,33.647,33.91,45.508,28.369,7.657,5.851,6.139
520,1.03,33.707,33.934,45.498,28.359,7.495,5.648,5.976
521,1.037,33.257,33.762,45.507,28.359,7.575,5.808,6.015
522,1.043,33.463,33.854,45.498,28.359,7.535,5.688,6.056
523,1.043,33.609,33.828,45.574,28.359,7.494,5.768,5.975
524,1.046,33.677,33.839,45.508,28.352,7.453,5.728,5.974
525,1.05,33.554,33.914,45.517,28.366,7.615,5.89,6.177
526,1.063,33.773,33.743,45.565,28.369,7.535,5.77,6.057
527,1.053,33.89,33.87,45.518,28.362,7.453,5.768,6.015
528,1.063,34.083,33.816,45.517,28.359,7.493,5.809,6.056
529,1.069,33.443,33.902,45.508,28.373,7.453,5.769,6.097
530,1.073,33.609,33.844,45.517,28.362,7.371,5.687,5.935
531,1.066,33.725,33.855,45.488,28.359,7.248,5.687,5.892
532,1.082,33.688,33.867,45.517,28.362,7.369,5.727,5.973
533,1.083,33.678,33.863,45.498,28.355,7.33,5.687,6.015
534,1.089,33.832,33.851,45.488,28.359,7.329,5.646,5.974
535,1.089,33.977,33.824,45.498,28.359,7.37,5.767,6.015
536,1.109,33.796,33.906,45.526,28.38,7.492,5.85,6.015
537,1.093,33.862,33.86,45.565,28.359,7.453,5.729,5.974
538,1.092,34.054,33.843,45.498,28.359,7.452,5.768,6.015
539,1.096,34.161,33.902,45.507,28.369,7.493,5.728,6.015
540,1.106,34.028,33.856,45.517,28.366,7.534,5.687,6.015
541,1.102,34.161,33.851,45.479,28.355,7.453,5.605,5.852
542,1.102,34.316,33.886,45.488,28.359,7.615,5.726,5.932
543,1.109,34.452,33.793,45.498,28.362,7.617,5.687,5.933
544,1.106,34.146,33.886,45.479,28.359,7.617,5.687,5.852
545,1.106,34.287,33.84,45.488,28.355,7.576,5.687,5.81
546,1.109,34.48,33.8,45.536,28.38,7.86,5.849,6.054
547,1.125,34.616,33.917,45.536,28.373,7.741,5.729,5.893
548,1.112,34.474,33.887,45.517,28.366,7.781,5.687,5.973
549,1.125,34.655,33.949,45.517,28.362,7.862,5.687,5.893
550,1.122,34.819,33.837,45.527,28.366,7.863,5.687,5.973
551,1.135,34.917,33.867,45.517,28.362,7.782,5.646,5.852
552,1.132,34.707,33.816,45.46,28.355,7.781,5.645,5.891
553,1.151,34.925,33.929,45.497,28.366,7.862,5.686,5.851
554,1.152,35.081,33.821,45.594,28.359,7.904,5.646,5.932
555,1.145,35.14,33.866,45.499,28.355,7.823,5.686,5.852
556,1.148,34.987,33.941,45.488,28.355,8.025,5.687,5.932
557,1.158,35.197,33.786,45.536,28.376,8.149,5.809,5.974
558,1.155,35.333,33.878,45.517,28.362,7.988,5.647,5.974
559,1.148,35.373,33.848,45.498,28.369,8.068,5.645,5.893
560,1.155,35.421,33.937,45.488,28.366,8.109,5.808,5.973
561,1.155,35.585,33.942,45.507,28.369,8.069,5.688,5.893
562,1.139,35.692,33.848,45.469,28.355,7.987,5.605,5.851
563,1.158,35.942,33.851,45.517,28.362,8.108,5.726,5.891
564,1.165,35.791,33.824,45.479,28.359,8.109,5.687,5.851
565,1.148,35.934,33.913,45.498,28.355,8.109,5.605,5.851
566,1.145,36.079,33.848,45.517,28.359,8.109,5.686,5.891
567,1.171,36.042,33.847,45.536,28.373,8.272,5.849,6.095
568,1.178,36.061,33.902,45.517,28.366,8.111,5.688,5.975
569,1.175,36.214,33.852,45.488,28.362,8.15,5.646,5.974
570,1.171,36.331,33.879,45.507,28.366,8.11,5.727,5.893
571,1.181,36.361,33.91,45.517,28.366,8.15,5.727,5.973
572,1.184,36.486,33.848,45.508,28.362,8.069,5.565,5.73
573,1.178,36.621,33.894,45.479,28.359,8.15,5.645,5.89
574,1.188,36.747,33.832,45.517,28.362,8.15,5.727,5.851
575,1.178,36.499,33.886,45.479,28.362,8.191,5.646,5.81
576,1.178,36.612,33.91,45.469,28.362,8.07,5.645,5.769
577,1.175,36.786,33.805,45.507,28.366,8.231,5.727,5.972
578,1.197,36.922,33.905,45.527,28.366,8.273,5.727,5.893
579,1.181,37.009,33.821,45.508,28.362,8.233,5.687,5.892
580,1.175,37.183,33.874,45.498,28.366,8.151,5.768,5.892
581,1.178,37.319,33.82,45.536,28.369,8.232,5.809,5.933
582,1.181,37.426,33.827,45.508,28.362,8.151,5.647,5.811
583,1.175,37.235,33.792,45.469,28.355,7.988,5.564,5.85
584,1.178,37.405,33.819,45.507,28.362,8.108,5.645,5.81
585,1.168,37.561,33.921,45.507,28.373,7.987,5.645,5.85
586,1.171,37.61,33.743,45.498,28.359,8.027,5.564,5.81
587,1.165,37.553,33.842,45.488,28.359,7.987,5.645,5.891
588,1.171,37.744,33.902,45.546,28.373,8.108,5.767,5.973
589,1.171,37.89,33.883,45.508,28.366,7.987,5.728,5.933
590,1.158,37.93,33.883,45.498,28.362,8.068,5.727,5.933
591,1.161,37.662,33.809,45.517,28.362,7.987,5.687,5.933
592,1.161,37.822,33.882,45.508,28.369,8.068,5.727,5.892
593,1.158,37.948,33.82,45.507,28.366,7.946,5.565,5.811
594,1.148,37.95,33.847,45.488,28.359,7.986,5.685,5.972
595,1.152,38.199,33.851,45.488,28.359,8.027,5.646,5.893
596,1.145,38.345,33.863,45.507,28.362,7.987,5.605,5.851
597,1.132,38.471,33.82,45.498,28.359,7.905,5.564,5.81
598,1.125,38.463,33.8,45.498,28.369,8.026,5.726,6.054
599,1.138,38.367,33.964,45.517,28.369,8.027,5.687,5.975
600,1.112,38.5,33.837,45.498,28.366,8.068,5.687,5.974
601,1.119,38.626,33.855,45.517,28.366,7.987,5.646,5.974
602,1.106,38.513,33.777,45.517,28.369,8.027,5.727,5.974
603,1.099,38.55,33.819,45.517,28.362,7.946,5.646,5.852
604,1.076,38.675,33.847,45.488,28.355,7.945,5.645,5.932
605,1.083,38.81,33.875,45.507,28.359,7.905,5.686,5.974
606,1.073,38.697,33.828,45.498,28.366,7.863,5.646,5.933
607,1.066,38.801,33.8,45.488,28.359,7.904,5.523,5.892
608,1.06,38.975,33.909,45.507,28.366,7.985,5.685,6.095
609,1.076,39.082,33.883,45.555,28.373,8.068,5.687,5.975
610,1.057,38.795,33.871,45.498,28.366,7.865,5.687,5.974
611,1.053,38.946,33.918,45.517,28.362,7.944,5.646,5.974
612,1.05,39.11,33.848,45.517,28.369,7.945,5.767,6.015
613,1.043,39.189,33.964,45.498,28.373,7.986,5.728,5.893
614,1.027,38.95,33.798,45.498,28.355,7.864,5.524,5.892
615,1.03,39.139,33.87,45.517,28.369,7.944,5.644,5.973
616,1.024,39.275,33.941,45.498,28.366,7.864,5.645,5.974
617,1.017,39.344,33.778,45.488,28.362,7.904,5.564,5.811
618,1.014,39.076,33.878,45.488,28.362,7.945,5.645,5.972
619,1.007,39.284,33.879,45.536,28.383,8.026,5.686,6.015
620,1.001,39.421,33.949,45.498,28.362,7.865,5.646,5.934
621,0.984,39.451,33.821,45.507,28.373,7.944,5.645,5.974
622,0.974,39.23,33.866,45.517,28.362,7.905,5.767,5.974
623,0.971,39.401,33.886,45.498,28.362,7.863,5.647,5.974
624,0.955,39.518,33.813,45.488,28.359,7.741,5.564,5.893
625,0.938,39.576,33.917,45.517,28.369,7.821,5.685,5.892
626,0.941,39.299,33.774,45.508,28.362,7.863,5.646,5.973
627,0.938,39.459,33.854,45.488,28.362,7.822,5.605,5.893
628,0.932,39.595,33.894,45.488,28.362,7.944,5.645,5.973
629,0.935,39.606,33.895,45.536,28.376,8.189,5.727,6.015
630,0.928,39.405,33.91,45.517,28.362,8.11,5.646,5.974
631,0.922,39.566,33.785,45.508,28.366,8.109,5.727,5.974
632,0.918,39.682,33.87,45.527,28.369,8.191,5.687,6.055
633,0.918,39.568,33.922,45.517,28.373,8.192,5.646,6.056
634,0.912,39.481,33.836,45.517,28.355,8.151,5.564,5.853
635,0.895,39.605,33.874,45.498,28.359,8.15,5.685,6.013
636,0.915,39.74,33.871,45.498,28.362,8.15,5.646,5.974
637,0.896,39.473,33.824,45.507,28.362,8.11,5.523,5.974
638,0.882,39.518,33.788,45.488,28.362,8.028,5.563,5.933
639,0.876,39.682,33.878,45.507,28.373,8.149,5.766,6.055
640,0.889,39.827,33.922,45.527,28.373,8.15,5.687,5.975
641,0.876,39.522,33.852,45.488,28.369,8.11,5.687,5.974
642,0.856,39.672,33.847,45.498,28.366,8.109,5.768,6.015
643,0.853,39.789,33.765,45.517,28.369,8.109,5.768,6.056
644,0.869,39.905,33.878,45.498,28.366,8.028,5.687,5.893
645,0.863,39.484,33.844,45.469,28.359,8.027,5.564,6.014
646,0.849,39.662,33.796,45.507,28.366,8.027,5.604,5.974
647,0.849,39.808,33.776,45.488,28.362,7.987,5.604,5.974
648,0.836,39.886,33.843,45.526,28.359,7.905,5.604,5.893
649,0.849,39.427,33.925,45.488,28.362,7.985,5.767,6.054
650,0.849,39.642,33.813,45.536,28.373,8.027,5.728,5.975
651,0.84,39.76,33.847,45.508,28.369,7.946,5.687,6.015
652,0.839,39.838,33.832,45.517,28.369,7.905,5.687,6.015
653,0.833,39.503,33.894,45.517,28.373,7.863,5.768,6.056
654,0.839,39.672,33.801,45.517,28.369,7.863,5.687,5.893
655,0.823,39.798,33.819,45.508,28.355,7.7,5.605,5.892
656,0.833,39.848,33.917,45.488,28.359,7.821,5.645,5.933
657,0.83,39.464,33.793,45.488,28.362,7.781,5.605,5.933
658,0.826,39.633,33.862,45.498,28.359,7.74,5.686,5.933
659,0.817,39.76,33.828,45.488,28.369,7.74,5.727,5.974
660,0.833,39.809,33.925,45.546,28.376,7.943,5.85,6.015
661,0.817,39.426,33.832,45.517,28.362,7.783,5.729,6.015
662,0.82,39.594,33.851,45.517,28.369,7.822,5.687,5.974
663,0.817,39.721,33.847,45.517,28.366,7.863,5.768,5.974
664,0.82,40.01,33.812,45.527,28.369,7.863,5.687,5.974
665,0.82,39.476,33.894,45.508,28.355,7.782,5.564,5.893
666,0.797,39.614,33.777,45.517,28.362,7.984,5.726,5.973
667,0.807,39.769,33.878,45.517,28.362,7.986,5.727,5.933
668,0.813,39.425,33.879,45.498,28.359,8.027,5.727,5.933
669,0.807,39.316,33.867,45.498,28.359,8.068,5.646,5.892
670,0.803,39.507,33.89,45.517,28.369,8.231,5.889,6.014
671,0.82,39.653,33.789,45.546,28.366,8.273,5.689,5.893
672,0.807,39.415,33.89,45.517,28.369,8.233,5.727,5.973
673,0.803,39.498,33.813,45.517,28.369,8.273,5.727,6.015
674,0.813,39.653,33.761,45.555,28.369,8.355,5.646,6.015
675,0.829,39.789,33.881,45.508,28.366,8.315,5.645,5.893
676,0.813,39.061,33.863,45.479,28.355,8.274,5.686,5.851
677,0.807,39.198,33.836,45.488,28.366,8.274,5.687,5.851
678,0.813,39.362,33.816,45.517,28.362,8.233,5.605,5.851
679,0.807,39.469,33.902,45.498,28.362,8.192,5.604,5.851
680,0.813,39.173,33.918,45.488,28.355,8.273,5.686,5.932
681,0.816,39.352,33.891,45.526,28.383,8.396,5.768,6.014
682,0.813,39.508,33.879,45.527,28.362,8.275,5.728,5.893
683,0.81,39.576,33.781,45.498,28.369,8.274,5.768,6.014
684,0.803,39.021,33.878,45.526,28.376,8.233,5.728,5.974
685,0.8,39.188,33.836,45.517,28.366,8.273,5.768,5.974
686,0.794,39.314,33.835,45.517,28.366,8.071,5.606,5.852
687,0.797,39.363,33.867,45.498,28.366,8.069,5.686,6.013
688,0.81,39.114,33.863,45.507,28.366,8.109,5.727,5.934
689,0.81,39.285,33.953,45.507,28.362,7.987,5.646,5.933
690,0.807,39.421,33.848,45.498,28.362,7.986,5.645,5.892
691,0.81,39.489,33.867,45.526,28.369,8.068,5.767,6.014
692,0.836,38.972,33.808,45.546,28.373,8.069,5.768,5.893
693,0.817,39.091,33.917,45.517,28.369,8.109,5.728,5.973
694,0.813,39.256,33.875,45.517,28.369,8.069,5.727,5.974
695,0.823,39.296,33.855,45.536,28.369,8.069,5.768,5.974
696,0.826,38.932,33.921,45.527,28.369,8.028,5.728,5.893
697,0.817,39.062,33.77,45.479,28.359,7.987,5.646,5.851
698,0.807,39.236,33.878,45.498,28.362,8.108,5.727,5.973
699,0.813,39.161,33.848,45.526,28.362,8.069,5.727,5.852
700,0.81,38.921,33.898,45.508,28.362,8.15,5.687,5.81
701,0.807,39.052,33.895,45.498,28.362,8.273,5.727,5.932
702,0.816,39.236,33.875,45.555,28.38,8.558,5.972,6.055
703,0.823,38.854,33.863,45.517,28.362,8.602,5.771,5.934
704,0.82,38.86,33.812,45.498,28.366,8.684,5.809,5.974
705,0.813,39.023,33.913,45.526,28.362,8.725,5.81,6.055
706,0.81,39.13,33.809,45.517,28.376,8.888,5.891,5.975
707,0.81,38.594,33.816,45.488,28.359,8.89,5.648,5.811
708,0.803,38.666,33.843,45.498,28.366,9.012,5.849,5.932
709,0.82,38.858,33.843,45.498,28.362,9.054,5.769,5.852
710,0.81,38.946,33.898,45.507,28.362,9.095,5.768,5.81
711,0.813,38.64,33.758,45.479,28.362,9.258,5.809,5.85
712,0.826,38.791,33.854,45.526,28.373,9.341,5.972,6.013
713,0.826,38.994,33.777,45.546,28.369,9.301,5.811,5.934
714,0.823,39.044,33.835,45.508,28.362,9.341,5.81,5.933
715,0.82,38.545,33.929,45.517,28.369,9.342,5.891,5.974
716,0.83,38.703,33.715,45.536,28.373,9.423,5.973,5.933
717,0.83,38.887,33.865,45.527,28.369,9.261,5.811,5.811
718,0.817,38.908,33.773,45.488,28.359,9.259,5.81,5.85
719,0.82,38.314,33.835,45.517,28.366,9.259,5.891,5.851
720,0.813,38.49,33.863,45.488,28.359,9.259,5.892,5.81
721,0.813,38.655,33.769,45.488,28.355,9.137,5.77,5.769
722,0.8,38.695,33.893,45.488,28.366,9.177,5.891,5.85
723,0.82,38.858,33.82,45.536,28.376,9.218,6.054,5.973
724,0.82,39.014,33.82,45.517,28.366,9.096,5.934,5.893
725,0.82,39.159,33.831,45.508,28.366,9.014,5.974,5.892
726,0.82,39.199,33.859,45.527,28.369,8.972,5.893,5.973
727,0.82,38.173,33.898,45.517,28.373,8.931,5.933,5.852
728,0.817,38.326,33.754,45.508,28.362,8.768,5.811,5.769
729,0.81,38.452,33.831,45.498,28.362,8.767,5.891,5.85
730,0.826,38.501,33.8,45.498,28.366,8.685,5.892,5.851
731,0.823,38.348,33.913,45.488,28.362,8.603,5.892,5.81
732,0.82,38.5,33.836,45.488,28.362,8.521,5.892,5.85
733,0.826,38.646,33.851,45.517,28.369,8.683,6.054,5.973
734,0.826,38.446,33.89,45.555,28.383,8.562,5.934,5.893
735,0.81,38.233,33.816,45.498,28.362,8.48,5.933,5.811
736,0.826,38.413,33.87,45.517,28.366,8.479,6.014,5.85
737,0.826,38.539,33.797,45.536,28.369,8.438,5.974,5.851
738,0.826,38.167,33.866,45.508,28.369,8.519,5.933,5.891
739,0.81,38.172,33.894,45.479,28.355,8.439,5.852,5.811
740,0.826,38.355,33.871,45.517,28.366,8.641,5.891,5.81
741,0.826,38.443,33.746,45.527,28.362,8.684,5.933,5.85
742,0.817,37.916,33.78,45.488,28.362,8.766,5.811,5.81
743,0.8,38.026,33.815,45.507,28.359,8.889,6.013,5.85
744,0.813,38.248,33.878,45.536,28.383,9.052,6.096,5.932
745,0.829,38.327,33.883,45.517,28.369,9.095,5.975,5.892
746,0.807,38.068,33.816,45.536,28.369,9.095,5.933,5.851
747,0.813,38.21,33.824,45.527,28.362,9.258,5.892,5.891
748,0.813,38.365,33.929,45.527,28.373,9.3,6.014,5.851
749,0.82,38.452,33.868,45.517,28.355,9.26,5.852,5.769
750,0.807,37.667,33.844,45.488,28.355,9.259,5.932,5.891
751,0.81,37.86,33.738,45.507,28.366,9.341,5.892,5.851
752,0.826,38.006,33.85,45.507,28.362,9.423,5.892,5.81
753,0.817,38.084,33.918,45.498,28.362,9.383,5.892,5.85
754,0.82,37.798,33.852,45.526,28.369,9.505,5.933,5.973
755,0.839,38.006,33.886,45.546,28.373,9.546,5.974,5.893
756,0.833,38.104,33.84,45.517,28.369,9.425,5.811,5.892
757,0.82,38.181,33.843,45.527,28.366,9.383,5.85,5.851
758,0.826,37.703,33.781,45.536,28.373,9.423,5.891,5.891
759,0.804,37.87,33.893,45.527,28.369,9.342,5.892,5.851
760,0.8,37.968,33.91,45.488,28.359,9.138,5.729,5.729
761,0.81,38.046,33.836,45.517,28.362,9.258,5.85,5.85
762,0.79,37.625,33.835,45.508,28.359,9.219,5.851,5.81
763,0.79,37.764,33.816,45.507,28.362,9.137,5.769,5.728
764,0.78,37.929,33.804,45.498,28.369,9.095,5.809,5.89
765,0.8,38.266,33.913,45.536,28.376,9.217,5.932,6.014
766,0.803,37.598,33.813,45.527,28.369,9.096,5.852,5.934
767,0.8,37.754,33.847,45.527,28.362,9.014,5.973,5.892
768,0.807,37.881,33.816,45.527,28.369,9.094,5.852,5.851
769,0.81,37.69,33.898,45.536,28.369,9.014,5.891,5.851
770,0.803,37.602,33.887,45.517,28.362,8.81,5.729,5.81
771,0.79,37.735,33.758,45.508,28.362,8.808,5.85,5.891
772,0.806,37.89,33.858,45.517,28.366,8.808,5.81,5.933
773,0.81,37.355,33.832,45.527,28.366,8.686,5.769,5.77
774,0.803,37.407,33.847,45.508,28.355,8.522,5.728,5.768
775,0.81,37.58,33.812,45.517,28.369,8.601,5.85,5.891
776,0.826,37.735,33.902,45.555,28.383,8.684,5.932,5.851
777,0.807,37.305,33.785,45.517,28.373,8.603,5.811,5.851
778,0.803,37.445,33.815,45.536,28.362,8.521,5.85,5.973
779,0.8,37.628,33.898,45.527,28.366,8.642,5.891,5.893
780,0.803,37.716,33.875,45.536,28.376,8.603,5.892,5.892
781,0.8,37.238,33.875,45.508,28.362,8.48,5.77,5.77
782,0.784,37.367,33.762,45.517,28.359,8.56,5.85,5.809
783,0.79,37.551,33.784,45.527,28.369,8.521,5.851,5.85
784,0.793,37.648,33.847,45.527,28.366,8.439,5.81,5.851
785,0.78,37.093,33.836,45.517,28.362,8.438,5.81,5.932
786,0.777,37.27,33.839,45.536,28.362,8.56,5.972,5.974
787,0.8,37.454,33.8,45.565,28.38,8.602,6.015,5.893
788,0.787,37.504,33.858,45.518,28.366,8.44,5.852,5.892
789,0.784,37.197,33.949,45.546,28.366,8.357,5.851,5.933
790,0.784,37.348,33.864,45.546,28.369,8.397,5.932,5.933
791,0.79,37.512,33.914,45.556,28.376,8.316,5.811,5.892
792,0.79,37.533,33.801,45.508,28.355,8.152,5.81,5.77
793,0.787,37.063,33.909,45.536,28.366,8.273,5.85,5.891
794,0.777,37.25,33.856,45.536,28.359,8.314,5.851,5.851
795,0.784,37.367,33.832,45.508,28.366,8.274,5.81,5.729
796,0.793,37.407,33.91,45.527,28.362,8.274,5.85,5.85
797,0.79,37.072,33.762,45.556,28.38,8.518,6.013,5.973
798,0.793,37.26,33.881,45.546,28.369,8.398,5.934,5.893
799,0.79,37.387,33.812,45.527,28.366,8.438,5.892,5.933
800,0.793,37.397,33.933,45.536,28.369,8.519,5.892,5.974
801,0.787,37.052,33.895,45.546,28.373,8.601,5.973,5.933
802,0.777,37.221,33.867,45.527,28.359,8.602,5.811,5.73
803,0.764,37.338,33.855,45.546,28.373,8.684,5.891,5.809
804,0.78,37.224,33.816,45.527,28.366,8.644,5.811,5.85
805,0.774,37.233,33.878,45.527,28.362,8.644,5.81,5.81
806,0.774,37.396,33.75,45.508,28.362,8.644,5.81,5.81
807,0.784,37.541,33.842,45.555,28.366,8.806,6.013,6.054
808,0.793,36.948,33.867,45.556,28.369,8.645,5.893,5.853
809,0.797,37.009,33.879,45.556,28.362,8.725,5.851,5.973
810,0.787,37.154,33.898,45.556,28.369,8.766,5.932,5.893
811,0.797,37.299,33.817,45.565,28.366,8.929,5.974,5.892
812,0.784,37.032,33.874,45.537,28.366,8.931,5.852,5.729
813,0.767,37.173,33.918,45.527,28.359,9.134,5.81,5.89
814,0.774,37.347,33.844,45.565,28.366,9.177,5.85,5.851
815,0.78,37.455,33.875,45.546,28.366,9.299,5.81,5.729
816,0.78,37.12,33.832,45.517,28.359,9.341,5.81,5.727
817,0.777,37.299,33.843,45.575,28.373,9.586,5.932,5.931
818,0.787,37.492,33.781,45.575,28.373,9.588,5.933,5.852
819,0.78,37.571,33.87,45.556,28.369,9.588,5.852,5.81
820,0.774,36.929,33.886,45.575,28.373,9.588,5.891,5.85
821,0.774,37.086,33.832,45.556,28.369,9.629,5.892,5.891
822,0.771,37.27,33.874,45.565,28.362,9.507,5.811,5.729
823,0.767,37.291,33.766,45.537,28.359,9.465,5.81,5.809
824,0.777,36.898,33.839,45.546,28.359,9.465,5.81,5.85
825,0.774,37.076,33.906,45.546,28.369,9.383,5.769,5.81
826,0.767,37.203,33.801,45.527,28.359,9.301,5.768,5.728
827,0.767,37.271,33.862,45.556,28.373,9.463,5.85,5.931
828,0.793,37.233,33.804,45.594,28.38,9.424,5.81,5.892
829,0.787,37.386,33.886,45.575,28.366,9.261,5.81,5.851
830,0.784,37.512,33.848,45.566,28.369,9.259,5.81,5.81
831,0.79,37.562,33.832,45.556,28.369,9.259,5.85,5.891
832,0.793,36.996,33.863,45.565,28.369,9.056,5.851,5.77
833,0.777,37.135,33.812,45.546,28.352,8.932,5.729,5.809
834,0.774,37.289,33.812,45.565,28.362,9.093,5.727,5.891
835,0.777,37.253,33.722,45.565,28.359,9.014,5.809,5.811
836,0.777,37.137,33.862,45.527,28.362,8.891,5.688,5.688
837,0.774,37.309,33.82,45.575,28.366,8.89,5.809,5.849
838,0.784,37.493,33.82,45.604,28.38,8.93,5.85,5.891
839,0.767,37.063,33.87,45.575,28.366,8.768,5.769,5.851
840,0.767,37.097,33.847,45.566,28.369,8.767,5.809,5.851
841,0.777,37.27,33.863,45.565,28.366,8.726,5.85,5.891
842,0.771,37.415,33.875,45.594,28.369,8.685,5.769,5.811
843,0.764,37.148,33.793,45.566,28.362,8.4,5.606,5.769
844,0.754,37.27,33.851,45.565,28.362,8.519,5.686,5.809
845,0.761,37.425,33.812,45.556,28.359,8.439,5.727,5.85
846,0.764,37.542,33.808,45.565,28.359,8.357,5.687,5.891
847,0.761,37.035,33.792,45.556,28.362,8.356,5.727,5.851
848,0.767,37.212,33.835,45.594,28.373,8.437,5.89,6.013
849,0.787,37.396,33.941,45.604,28.366,8.316,5.729,5.934
850,0.767,37.455,33.825,45.575,28.366,8.315,5.768,5.892
851,0.774,37.11,33.855,45.585,28.366,8.315,5.728,5.892
852,0.777,37.27,33.863,45.575,28.366,8.274,5.809,5.973
853,0.767,37.435,33.875,45.585,28.369,8.193,5.688,5.852
854,0.764,37.484,33.844,45.566,28.355,8.151,5.727,5.851
855,0.774,37.178,33.785,45.585,28.362,8.15,5.687,5.769
856,0.78,37.357,33.897,45.575,28.366,8.15,5.727,5.768
857,0.787,37.474,33.762,45.556,28.359,8.11,5.687,5.768
858,0.784,37.552,33.846,45.575,28.369,8.109,5.809,5.891
859,0.787,37.418,33.812,45.623,28.383,8.272,5.891,5.933
860,0.784,37.561,33.917,45.576,28.366,8.111,5.811,5.77
861,0.777,37.687,33.91,45.594,28.369,8.069,5.85,5.891
862,0.767,37.765,33.852,45.595,28.373,8.069,5.769,5.851
863,0.774,37.229,33.886,45.595,28.373,8.028,5.85,5.891
864,0.761,37.396,33.805,45.575,28.359,7.865,5.688,5.77
865,0.751,37.513,33.894,45.575,28.366,7.944,5.727,5.891
866,0.761,37.61,33.809,45.594,28.369,7.945,5.809,5.77
867,0.757,37.304,33.847,45.595,28.362,7.783,5.769,5.85
868,0.764,37.454,33.871,45.566,28.362,7.781,5.687,5.851
869,0.757,37.599,33.89,45.594,28.373,7.903,5.89,5.973
870,0.764,37.438,33.926,45.614,28.373,7.945,5.811,5.852
871,0.764,37.312,33.754,45.595,28.362,7.823,5.85,5.891
872,0.774,37.502,33.87,45.595,28.369,7.822,5.851,5.933
873,0.764,37.619,33.793,45.71,28.376,7.863,5.891,6.055
874,0.777,37.323,33.878,45.605,28.369,7.782,5.811,5.975
875,0.771,37.358,33.848,45.566,28.355,7.659,5.769,5.893
876,0.764,37.522,33.773,45.613,28.366,7.78,5.809,5.851
877,0.777,37.667,33.874,45.595,28.362,7.7,5.85,5.891
878,0.774,37.266,33.863,45.566,28.366,7.78,5.769,5.811
879,0.761,37.387,33.894,45.594,28.369,7.822,5.809,5.891
880,0.78,37.589,33.801,45.652,28.376,7.903,5.972,5.973
881,0.761,37.668,33.851,45.614,28.366,7.782,5.933,5.933
882,0.767,37.371,33.828,45.604,28.362,7.822,5.811,5.974
883,0.764,37.541,33.878,45.604,28.376,7.781,5.81,5.933
884,0.767,37.687,33.824,45.633,28.369,7.74,5.891,5.892
885,0.774,37.765,33.8,45.604,28.362,7.618,5.689,5.77
886,0.761,38.14,33.901,45.614,28.369,7.739,5.809,5.891
887,0.764,38.306,33.766,45.595,28.362,7.74,5.769,5.851
888,0.757,38.452,33.831,45.595,28.362,7.577,5.728,5.891
889,0.754,38.511,33.804,45.595,28.362,7.698,5.85,5.933
890,0.764,37.035,33.878,45.633,28.376,7.861,5.973,6.014
891,0.777,37.192,33.859,45.614,28.369,7.7,5.73,5.934
892,0.761,37.338,33.832,45.614,28.373,7.74,5.85,5.892
893,0.767,37.407,33.812,45.623,28.376,7.821,5.891,5.973
894,0.77,37.446,33.792,45.633,28.373,7.822,5.811,5.974
895,0.777,37.609,33.854,45.604,28.355,7.781,5.769,5.852
896,0.774,37.716,33.734,45.604,28.366,7.862,5.85,5.973
897,0.777,37.784,33.823,45.614,28.366,7.904,5.851,5.852
898,0.774,37.315,33.878,45.595,28.366,7.904,5.648,5.769
899,0.761,37.464,33.777,45.604,28.362,7.823,5.767,5.931
900,0.751,37.628,33.835,45.652,28.376,8.066,5.972,6.096
901,0.757,37.851,33.757,45.624,28.369,7.946,5.811,5.975
902,0.761,37.44,33.854,45.624,28.369,8.067,5.891,5.933
903,0.764,37.618,33.894,45.633,28.376,7.987,5.851,5.974
904,0.751,37.735,33.801,45.643,28.369,8.068,5.891,5.893
905,0.757,37.478,33.827,45.605,28.355,7.946,5.729,5.892
906,0.754,37.437,33.828,45.614,28.369,7.986,5.809,5.973
907,0.764,37.599,33.867,45.643,28.369,7.946,5.81,5.933
908,0.754,37.726,33.672,45.624,28.362,7.864,5.85,5.933
909,0.754,37.305,33.822,45.614,28.362,7.904,5.81,5.974
910,0.767,37.387,33.847,45.662,28.38,8.026,5.972,6.055
911,0.77,37.551,33.859,45.634,28.369,7.905,5.933,5.934
912,0.767,37.658,33.855,45.614,28.369,7.985,5.811,5.933
913,0.764,37.304,33.789,45.633,28.369,8.027,5.891,6.014
914,0.783,37.464,33.854,45.652,28.362,8.068,5.892,6.056
915,0.784,37.628,33.82,45.614,28.362,8.028,5.77,5.812
916,0.761,37.678,33.863,45.623,28.362,8.149,5.809,5.891
917,0.757,37.189,33.824,45.633,28.362,8.11,5.81,5.892
918,0.774,37.367,33.839,45.604,28.369,8.191,5.81,5.851
919,0.764,37.503,33.878,45.623,28.362,8.232,5.85,5.973
920,0.757,37.619,33.82,45.671,28.376,8.395,6.013,6.137
921,0.774,37.189,33.835,45.653,28.369,8.397,5.893,6.016
922,0.761,37.357,33.867,45.653,28.366,8.316,5.851,5.974
923,0.757,37.493,33.777,45.643,28.369,8.315,5.851,5.974
924,0.77,37.609,33.87,45.662,28.376,8.356,5.851,6.015
925,0.757,37.16,33.824,45.634,28.362,8.234,5.769,5.934
926,0.741,37.309,33.816,45.643,28.362,8.273,5.85,5.933
927,0.754,37.493,33.878,45.653,28.369,8.274,5.891,5.892
928,0.757,37.552,33.828,45.624,28.362,8.274,5.77,5.892
929,0.761,37.169,33.913,45.633,28.362,8.193,5.728,5.892
930,0.761,37.338,33.832,45.662,28.376,8.354,5.972,6.095
931,0.777,37.512,33.843,45.662,28.369,8.234,5.811,5.935
932,0.774,37.533,33.824,45.653,28.369,8.233,5.85,5.892
933,0.777,37.159,33.882,45.653,28.366,8.233,5.81,6.014
934,0.774,37.328,33.754,45.662,28.373,8.273,5.85,5.974
935,0.78,37.474,33.846,45.662,28.369,8.152,5.769,5.73
936,0.767,37.35,33.808,45.614,28.362,8.069,5.85,5.931
937,0.761,37.138,33.808,45.652,28.366,8.069,5.81,5.852
938,0.757,37.289,33.882,45.653,28.362,7.946,5.769,5.851
939,0.754,37.435,33.816,45.643,28.362,7.945,5.768,5.81
940,0.764,37.043,33.909,45.653,28.362,7.905,5.85,5.891
941,0.774,37.058,33.836,45.701,28.387,8.026,5.932,6.014
942,0.771,37.231,33.859,45.672,28.369,7.865,5.811,5.893
943,0.77,37.319,33.793,45.662,28.369,7.863,5.769,5.851
944,0.761,37.052,33.819,45.672,28.369,7.741,5.809,5.932
945,0.757,37.174,33.847,45.672,28.369,7.74,5.85,5.892
946,0.751,37.319,33.816,45.653,28.359,7.577,5.648,5.729
947,0.761,37.435,33.847,45.672,28.369,7.575,5.849,5.89
948,0.767,36.727,33.777,45.653,28.369,7.616,5.729,5.851
949,0.767,36.863,33.893,45.633,28.359,7.495,5.687,5.729
950,0.761,37.037,33.824,45.662,28.369,7.534,5.727,5.768
951,0.767,37.154,33.855,45.691,28.38,7.657,5.85,5.972
952,0.777,36.896,33.867,45.672,28.369,7.536,5.769,5.852
953,0.761,37.047,33.816,45.672,28.369,7.412,5.809,5.891
954,0.767,37.212,33.781,45.682,28.366,7.533,5.81,5.811
955,0.77,37.3,33.757,45.682,28.366,7.534,5.81,5.891
956,0.774,36.879,33.878,45.643,28.362,7.331,5.606,5.689
957,0.754,37.009,33.797,45.653,28.355,7.329,5.726,5.768
958,0.764,37.183,33.78,45.748,28.362,7.37,5.687,5.768
959,0.767,37.261,33.854,45.663,28.362,7.33,5.687,5.809
960,0.764,37.291,33.8,45.653,28.366,7.329,5.687,5.769
961,0.764,37.483,33.866,45.681,28.369,7.37,5.768,5.891
962,0.774,37.667,33.867,45.701,28.369,7.411,5.728,5.851
963,0.761,37.678,33.808,45.682,28.366,7.33,5.768,5.891
964,0.764,36.259,33.839,45.672,28.369,7.329,5.768,5.892
965,0.767,36.418,33.816,45.701,28.376,7.451,5.85,5.933
966,0.77,36.592,33.863,45.701,28.369,7.452,5.729,5.933
967,0.764,36.594,33.754,45.663,28.359,7.33,5.646,5.77
968,0.761,36.766,33.807,45.691,28.362,7.532,5.727,5.891
969,0.774,36.941,33.882,45.682,28.362,7.534,5.768,5.77
970,0.767,37.048,33.828,45.691,28.362,7.616,5.728,5.809
971,0.767,36.732,33.847,45.682,28.359,7.617,5.727,5.85
972,0.774,36.557,33.773,45.71,28.383,7.861,5.85,5.973
973,0.78,36.718,33.862,45.692,28.362,7.7,5.81,5.933
974,0.767,36.835,33.746,45.72,28.373,7.74,5.769,5.974
975,0.79,36.481,33.784,45.701,28.369,7.74,5.809,5.933
976,0.784,36.525,33.878,45.711,28.373,7.903,5.769,5.974
977,0.771,36.689,33.715,45.692,28.362,7.782,5.687,5.811
978,0.764,36.796,33.826,45.691,28.366,7.944,5.768,5.891
979,0.767,36.279,33.8,45.691,28.366,8.026,5.768,5.892
980,0.774,36.379,33.898,45.701,28.362,8.109,5.728,5.851
981,0.764,36.534,33.895,45.672,28.362,8.109,5.687,5.891
982,0.764,36.689,33.844,45.72,28.376,8.354,5.931,6.054
983,0.777,36.364,33.839,45.711,28.369,8.315,5.77,5.893
984,0.767,36.515,33.765,45.711,28.369,8.356,5.728,5.892
985,0.761,36.67,33.889,45.72,28.373,8.397,5.809,5.973
986,0.764,36.777,33.727,45.72,28.373,8.478,5.81,5.974
987,0.77,36.174,33.823,45.692,28.359,8.316,5.606,5.893
988,0.757,36.311,33.878,45.71,28.366,8.396,5.686,5.933
989,0.77,36.485,33.867,45.711,28.362,8.438,5.727,5.892
990,0.754,36.554,33.847,45.711,28.369,8.438,5.727,5.851
991,0.767,36.133,33.793,45.692,28.359,8.275,5.768,5.851
992,0.774,36.33,33.874,45.73,28.376,8.436,5.85,6.095
993,0.784,36.514,33.883,45.74,28.376,8.397,5.729,5.935
994,0.78,36.535,33.832,45.74,28.373,8.356,5.687,5.974
995,0.774,36.075,33.835,45.721,28.369,8.437,5.768,5.933
996,0.784,36.253,33.828,45.701,28.369,8.438,5.728,6.014
997,0.784,36.398,33.8,45.739,28.376,8.438,5.727,5.893
998,0.767,36.438,33.745,45.692,28.355,8.397,5.687,5.892
999,0.774,36.141,33.858,45.71,28.369,8.478,5.768,5.973
1000,0.771,36.33,33.875,45.701,28.369,8.398,5.687,5.852
1001,0.767,36.457,33.773,45.711,28.359,8.438,5.687,5.932
1002,0.757,36.765,33.839,45.711,28.366,8.479,5.809,6.014
1003,0.777,36.068,33.765,45.749,28.376,8.601,5.81,5.974
1004,0.767,36.205,33.823,45.721,28.373,8.44,5.769,5.893
1005,0.767,36.35,33.839,45.73,28.373,8.479,5.809,6.014
1006,0.767,36.208,33.793,45.73,28.369,8.479,5.769,6.015
1007,0.777,36.187,33.854,45.749,28.373,8.398,5.728,5.974
1008,0.767,36.311,33.765,45.711,28.359,8.234,5.727,5.852
1009,0.79,36.466,33.878,45.739,28.366,8.273,5.727,5.891
1010,0.797,35.873,33.805,45.73,28.369,8.274,5.687,5.933
1011,0.79,35.925,33.8,45.74,28.359,8.193,5.727,5.974
1012,0.797,36.117,33.843,45.721,28.359,8.232,5.768,6.015
1013,0.813,36.244,33.82,45.768,28.376,8.355,5.972,6.056
1014,0.826,35.909,33.851,45.826,28.369,8.193,5.771,6.015
1015,0.833,36.069,33.785,45.741,28.373,8.192,5.768,5.974
1016,0.843,36.214,33.913,45.759,28.369,8.11,5.809,5.974
1017,0.846,36.312,33.75,45.749,28.373,8.109,5.81,6.015
1018,0.843,35.709,33.85,45.73,28.355,7.947,5.647,5.852
1019,0.833,35.866,33.839,45.74,28.366,7.945,5.808,5.973
1020,0.83,36.04,33.835,45.749,28.362,7.986,5.728,5.974
1021,0.839,36.118,33.839,45.74,28.366,7.783,5.727,5.933
1022,0.843,35.812,33.742,45.73,28.359,7.781,5.768,5.852
1023,0.853,36.001,33.792,45.759,28.383,7.944,5.931,6.135
1024,0.879,36.185,33.753,45.778,28.376,7.783,5.811,5.976
1025,0.872,36.225,33.885,45.759,28.369,7.781,5.769,6.055
1026,0.882,35.612,33.754,45.769,28.369,7.659,5.85,6.015
1027,0.882,35.817,33.811,45.788,28.373,7.739,5.851,6.015
1028,0.885,35.963,33.855,45.75,28.369,7.537,5.769,5.893
1029,0.879,35.993,33.836,45.74,28.366,7.534,5.768,5.933
1030,0.895,35.619,33.871,45.74,28.362,7.534,5.809,5.933
1031,0.899,35.778,33.766,45.749,28.362,7.453,5.769,5.892
1032,0.892,35.933,33.823,45.74,28.359,7.371,5.768,5.973
1033,0.895,35.973,33.867,45.749,28.373,7.533,5.891,6.055
1034,0.918,35.638,33.773,45.788,28.369,7.453,5.811,5.975
1035,0.925,35.769,33.85,45.769,28.366,7.452,5.81,6.015
1036,0.925,35.914,33.832,45.759,28.369,7.493,5.85,6.015
1037,0.948,35.954,33.843,45.778,28.373,7.494,5.81,5.893
1038,0.954,35.705,33.8,45.884,28.369,7.494,5.85,5.933
1039,0.935,35.856,33.831,45.751,28.355,7.371,5.688,5.933
1040,0.954,36.03,33.87,45.769,28.369,7.452,5.809,5.933
1041,0.961,35.533,33.867,45.769,28.362,7.412,5.688,6.014
1042,0.958,35.49,33.847,45.759,28.366,7.452,5.687,5.974
1043,0.951,35.643,33.777,45.749,28.355,7.452,5.768,5.974
1044,0.964,35.827,33.827,45.788,28.38,7.696,5.891,6.137
1045,0.958,35.454,33.855,45.769,28.369,7.536,5.811,5.976
1046,0.958,35.556,33.828,45.807,28.362,7.534,5.81,6.015
1047,0.964,35.72,33.874,45.798,28.366,7.575,5.81,6.015
1048,0.961,35.875,33.824,45.779,28.373,7.616,5.769,6.056
1049,0.968,35.397,33.882,45.769,28.369,7.495,5.728,5.812
1050,0.951,35.527,33.809,45.75,28.359,7.575,5.727,5.932
1051,0.961,35.72,33.851,45.778,28.369,7.535,5.727,6.014
1052,0.961,35.799,33.797,45.769,28.366,7.534,5.727,5.934
1053,0.961,36.087,33.87,45.769,28.362,7.453,5.727,5.852
1054,0.968,36.272,33.883,45.788,28.373,7.615,5.809,6.095
1055,0.971,36.456,33.836,45.807,28.376,7.576,5.688,6.016
1056,0.945,36.516,33.871,45.788,28.366,7.616,5.768,5.974
1057,0.941,34.819,33.726,45.807,28.369,7.535,5.768,5.974
1058,0.938,35.013,33.819,45.807,28.373,7.534,5.85,6.015
1059,0.932,35.187,33.812,45.807,28.369,7.575,5.81,5.934
1060,0.922,35.218,33.847,45.769,28.359,7.372,5.688,5.933
1061,0.928,35.4,33.836,45.788,28.369,7.452,5.809,5.933
1062,0.918,35.594,33.785,45.788,28.369,7.452,5.688,5.933
1063,0.918,35.74,33.827,45.769,28.362,7.412,5.727,5.892
1064,0.912,35.808,33.765,45.778,28.362,7.493,5.727,6.014
1065,0.902,35.138,33.885,45.826,28.376,7.616,5.931,6.137
1066,0.905,35.323,33.797,45.808,28.369,7.413,5.811,6.016
1067,0.889,35.469,33.804,45.798,28.366,7.33,5.81,6.015
1068,0.876,35.508,33.859,45.827,28.369,7.451,5.81,6.096
1069,0.869,35.221,33.82,45.798,28.373,7.493,5.85,6.056
1070,0.859,35.4,33.882,45.798,28.369,7.371,5.729,5.853
1071,0.84,35.517,33.766,45.779,28.366,7.37,5.768,5.973
1072,0.846,35.336,33.846,45.798,28.362,7.37,5.687,5.974
1073,0.827,35.076,33.785,45.798,28.369,7.248,5.687,5.933
1074,0.82,35.265,33.827,45.894,28.359,7.247,5.646,5.933
1075,0.817,35.372,33.769,45.789,28.369,7.369,5.849,6.055
1076,0.82,35.21,33.878,45.846,28.373,7.452,5.769,5.975
1077,0.803,35.228,33.82,45.817,28.366,7.371,5.809,5.974
1078,0.797,35.41,33.777,45.808,28.369,7.411,5.769,6.015
1079,0.79,35.546,33.878,45.827,28.373,7.533,5.809,6.015
1080,0.787,34.972,33.793,45.808,28.369,7.534,5.85,5.974
1081,0.777,35.043,33.835,45.788,28.352,7.494,5.688,5.893
1082,0.764,35.274,33.824,45.798,28.376,7.575,5.768,5.973
1083,0.764,35.372,33.761,45.807,28.373,7.698,5.728,5.974
1084,0.764,35.009,33.815,45.788,28.366,7.74,5.687,5.974
1085,0.767,35.149,33.808,45.807,28.366,7.943,5.687,6.015
1086,0.777,35.352,33.831,45.846,28.383,8.108,5.89,6.096
1087,0.767,35.45,33.753,45.808,28.366,8.069,5.77,6.016
1088,0.748,35.01,33.838,45.827,28.366,8.109,5.809,6.015
1089,0.751,35.206,33.878,45.827,28.369,8.109,5.769,6.015
1090,0.748,35.352,33.836,45.836,28.366,8.191,5.891,5.974
1091,0.751,35.421,33.863,45.808,28.362,8.151,5.689,5.852
1092,0.735,34.961,33.754,45.807,28.369,8.191,5.768,5.891
1093,0.744,35.187,33.858,45.827,28.362,8.314,5.768,5.892
1094,0.741,35.323,33.777,45.817,28.366,8.356,5.728,5.933
1095,0.747,35.401,33.804,45.808,28.362,8.397,5.727,5.974
1096,0.738,34.942,33.886,45.827,28.373,8.519,5.85,6.137
1097,0.754,35.148,33.816,45.865,28.38,8.439,5.769,5.935
1098,0.725,35.294,33.824,45.923,28.369,8.479,5.768,5.933
1099,0.718,35.344,33.812,45.837,28.369,8.52,5.768,6.055
1100,0.728,34.989,33.878,45.846,28.376,8.601,5.809,6.056
1101,0.725,35.168,33.801,45.846,28.369,8.521,5.728,5.975
1102,0.702,35.275,33.835,45.817,28.359,8.439,5.727,5.893
1103,0.711,35.411,33.863,45.827,28.373,8.519,5.768,5.973
1104,0.708,34.99,33.773,45.846,28.362,8.479,5.728,5.893
1105,0.692,35.158,33.858,45.827,28.362,8.357,5.768,5.892
1106,0.701,35.294,33.801,45.836,28.38,8.437,5.85,6.054
1107,0.714,35.066,33.835,45.932,28.373,8.438,5.81,6.015
1108,0.711,34.891,33.867,45.838,28.373,8.438,5.81,5.974
1109,0.708,35.081,33.855,45.846,28.369,8.357,5.81,5.974
1110,0.711,35.226,33.914,45.837,28.373,8.356,5.81,5.933
1111,0.705,34.911,33.801,45.846,28.366,8.275,5.81,5.974
1112,0.702,34.956,33.835,45.817,28.355,8.111,5.688,5.933
1113,0.711,35.158,33.816,45.855,28.366,8.15,5.727,5.892
1114,0.715,35.266,33.792,45.856,28.373,8.11,5.646,5.933
1115,0.715,34.758,33.847,45.827,28.369,8.069,5.645,5.852
1116,0.708,34.878,33.816,45.827,28.366,7.987,5.727,5.973
1117,0.721,35.1,33.839,45.875,28.38,8.19,5.85,6.055
1118,0.731,35.188,33.765,45.856,28.366,8.029,5.769,5.975
1119,0.715,34.786,33.862,45.856,28.369,8.027,5.728,6.015
1120,0.721,34.965,33.898,45.856,28.366,7.946,5.809,6.056
1121,0.721,35.129,33.879,45.856,28.369,8.067,5.728,5.975
1122,0.715,35.237,33.836,45.827,28.359,7.865,5.605,5.852
1123,0.698,34.739,33.769,45.836,28.369,7.944,5.767,5.973
1124,0.711,34.916,33.846,45.865,28.369,7.945,5.728,5.974
1125,0.698,35.081,33.754,45.837,28.369,7.945,5.727,5.974
1126,0.692,35.14,33.838,45.837,28.359,7.945,5.727,5.974
1127,0.708,34.68,33.777,45.952,28.383,8.189,5.89,6.137
1128,0.715,34.858,33.808,45.886,28.369,8.11,5.77,5.976
1129,0.715,34.984,33.862,45.837,28.369,8.232,5.728,6.015
1130,0.705,35.072,33.843,45.865,28.373,8.273,5.727,6.056
1131,0.708,34.776,33.824,45.875,28.373,8.477,5.809,6.015
1132,0.721,34.945,33.788,45.856,28.362,8.316,5.606,5.974
1133,0.715,35.052,33.823,45.856,28.366,8.518,5.686,6.015
1134,0.721,35.13,33.777,45.865,28.366,8.479,5.727,6.015
1135,0.715,34.834,33.757,45.846,28.366,8.601,5.646,5.893
1136,0.711,34.994,33.854,45.827,28.366,8.602,5.727,5.933
1137,0.718,35.149,33.769,45.865,28.383,8.724,5.809,6.136
1138,0.734,35.304,33.702,45.904,28.369,8.685,5.728,6.057
1139,0.718,34.749,33.807,45.866,28.373,8.684,5.768,5.975
1140,0.721,34.897,33.82,45.866,28.373,8.725,5.768,6.055
1141,0.721,35.042,33.902,45.875,28.373,8.726,5.768,5.975
1142,0.721,34.785,33.801,45.866,28.366,8.603,5.728,5.933
1143,0.705,34.715,33.831,45.846,28.362,8.521,5.727,5.974
1144,0.702,34.935,33.738,45.865,28.369,8.561,5.687,5.933
1145,0.708,35.052,33.823,45.875,28.362,8.48,5.727,5.974
1146,0.702,34.708,33.843,45.856,28.359,8.438,5.605,5.893
1147,0.705,34.83,33.672,45.894,28.366,8.56,5.808,6.054
1148,0.721,35.042,33.857,45.904,28.376,8.48,5.728,5.975
1149,0.721,35.111,33.789,45.885,28.369,8.438,5.727,5.974
1150,0.715,34.565,33.882,45.866,28.373,8.397,5.768,6.015
1151,0.711,34.713,33.82,45.885,28.373,8.438,5.768,6.015
1152,0.724,34.887,33.812,45.885,28.373,8.357,5.768,5.974
1153,0.715,34.966,33.851,45.847,28.355,8.153,5.647,5.893
1154,0.718,34.64,33.769,45.875,28.362,8.191,5.686,5.973
1155,0.705,34.829,33.839,45.866,28.362,8.192,5.687,5.974
1156,0.702,34.975,33.796,45.856,28.366,7.988,5.687,5.893
1157,0.708,35.082,33.851,45.865,28.369,8.068,5.809,6.014
1158,0.711,34.622,33.804,45.913,28.383,8.272,5.85,6.015
1159,0.702,34.762,33.808,45.885,28.373,8.193,5.81,5.974
1160,0.695,34.926,33.847,45.904,28.369,8.192,5.728,5.974
1161,0.698,35.004,33.863,45.885,28.369,8.273,5.809,5.974
1162,0.708,34.602,33.875,45.904,28.366,8.233,5.728,5.974
1163,0.689,34.761,33.762,45.856,28.362,8.151,5.646,5.852
1164,0.685,34.916,33.839,45.904,28.362,8.313,5.727,5.891
1165,0.705,35.004,33.839,45.904,28.366,8.315,5.727,5.851
1166,0.721,34.602,33.835,45.876,28.366,8.274,5.727,5.891
1167,0.744,34.819,33.789,45.894,28.352,8.355,5.809,5.933
1168,0.754,34.965,33.815,45.923,28.373,8.478,5.891,6.055
1169,0.78,35.034,33.882,45.914,28.366,8.398,5.77,5.893
1170,0.793,34.679,33.848,45.895,28.373,8.356,5.768,5.933
1171,0.826,34.848,33.781,45.904,28.373,8.315,5.809,5.974
1172,0.859,35.004,33.835,45.904,28.373,8.356,5.81,5.974
1173,0.882,34.909,33.769,45.885,28.362,8.234,5.728,5.811
1174,0.892,34.649,33.835,45.875,28.359,8.192,5.646,5.932
1175,0.941,34.839,33.816,45.885,28.373,8.273,5.727,5.892
1176,0.967,34.965,33.765,45.875,28.366,8.111,5.727,5.77
1177,1.0,34.66,33.858,45.885,28.366,8.069,5.646,5.768
1178,1.036,34.685,33.832,45.894,28.373,8.109,5.808,6.013
1179,1.105,34.935,33.902,45.933,28.376,8.028,5.728,5.934
1180,1.154,35.014,33.766,45.885,28.373,7.987,5.727,5.974
1181,1.191,34.439,33.811,45.904,28.369,8.027,5.727,5.933
1182,1.224,34.558,33.784,45.914,28.373,7.865,5.85,5.974
1183,1.247,34.751,33.847,45.914,28.373,7.904,5.769,5.974
1184,1.26,34.83,33.8,45.866,28.362,7.66,5.647,5.893
1185,1.267,34.505,33.773,45.904,28.366,7.78,5.767,5.973
1186,1.263,34.664,33.866,45.904,28.366,7.7,5.647,6.015
1187,1.26,34.8,33.777,45.904,28.366,7.658,5.727,6.015
1188,1.289,34.926,33.737,45.895,28.366,7.658,5.727,6.096
1189,1.322,34.63,33.752,45.933,28.383,7.739,5.85,6.219
1190,1.371,34.8,33.823,45.914,28.369,7.577,5.688,6.139
1191,1.401,34.936,33.867,45.904,28.373,7.494,5.727,6.179
1192,1.375,35.033,33.777,45.923,28.362,7.534,5.809,6.179
1193,1.323,34.449,33.823,45.933,28.369,7.534,5.81,6.261
1194,1.287,34.635,33.749,45.914,28.359,7.412,5.647,6.139
1195,1.257,34.762,33.854,45.885,28.369,7.371,5.686,6.26
1196,1.25,34.859,33.84,45.914,28.373,7.411,5.687,6.302
1197,1.205,34.534,33.796,45.895,28.362,7.33,5.727,6.384
1198,1.094,34.703,33.819,45.885,28.362,7.289,5.687,6.344
1199,0.933,34.839,33.816,45.933,28.373,7.451,5.849,6.628
1200,0.847,34.984,33.863,45.962,28.38,7.371,5.729,6.672
1201,0.729,34.583,33.746,45.924,28.369,7.289,5.768,6.794
1202,0.653,34.78,33.823,45.933,28.373,7.369,5.809,6.877
1203,0.564,34.945,33.753,45.924,28.38,7.452,5.769,7.0
1204,0.479,34.928,33.838,45.933,28.373,7.33,5.728,7.001
1205,0.4,34.487,33.734,45.905,28.366,7.248,5.727,7.245
1206,0.36,34.703,33.815,45.914,28.366,7.328,5.768,7.328
1207,0.314,34.82,33.866,45.933,28.366,7.289,5.728,7.329
1208,0.272,34.61,33.726,45.924,28.362,7.369,5.646,7.492
1209,0.248,34.483,33.713,45.952,28.369,7.289,5.727,7.616
1210,0.255,34.722,33.772,45.962,28.383,7.451,5.809,7.739
1211,0.238,34.82,33.839,45.934,28.373,7.29,5.728,7.781
1212,0.215,34.505,33.832,45.943,28.376,7.369,5.768,7.944
1213,0.209,34.569,33.831,45.943,28.376,7.33,5.809,7.986
1214,0.17,34.761,33.835,45.953,28.373,7.289,5.769,7.905
1215,0.14,34.859,33.761,45.905,28.355,7.125,5.647,7.985
1216,0.104,34.428,33.846,45.914,28.369,7.246,5.767,7.986
1217,0.094,34.549,33.746,45.933,28.362,7.206,5.687,8.068
1218,0.068,34.732,33.764,45.914,28.362,7.165,5.727,8.15
1219,0.067,34.839,33.862,45.924,28.366,7.124,5.85,8.354
1220,0.103,34.38,33.847,45.962,28.383,7.205,5.891,8.6
1221,0.13,34.519,33.867,45.953,28.366,7.043,5.77,8.643
1222,0.153,34.703,33.867,45.962,28.369,7.082,5.809,8.725
1223,0.192,34.782,33.793,45.953,28.376,7.002,5.81,8.929
1224,0.215,34.332,33.87,45.962,28.369,7.041,5.769,9.053
1225,0.225,34.49,33.801,45.943,28.362,6.879,5.687,9.054
1226,0.232,34.626,33.831,45.943,28.369,6.959,5.727,9.298
1227,0.248,34.752,33.831,46.039,28.362,6.919,5.687,9.382
1228,0.255,34.379,33.808,45.925,28.362,6.837,5.727,9.423
1229,0.271,34.548,33.878,45.952,28.362,6.837,5.646,9.546
1230,0.294,34.723,33.832,45.962,28.38,6.958,5.808,9.71
1231,0.314,34.82,33.878,45.982,28.376,6.878,5.688,9.752
1232,0.301,34.303,33.789,45.963,28.376,6.918,5.727,9.752
1233,0.317,34.48,33.905,45.982,28.376,6.837,5.768,9.712
1234,0.34,34.626,33.828,45.982,28.376,6.837,5.687,9.833
1235,0.366,34.694,33.804,45.963,28.369,6.796,5.727,9.712
1236,0.373,34.273,33.894,45.914,28.366,6.673,5.646,9.752
1237,0.409,34.461,33.785,45.962,28.362,6.794,5.686,9.712
1238,0.429,34.635,33.73,45.982,28.362,6.673,5.687,9.67
1239,0.452,34.934,33.745,45.953,28.369,6.753,5.646,9.67
1240,0.468,34.256,33.846,45.962,28.376,6.795,5.727,9.711
1241,0.507,34.47,33.91,46.02,28.38,6.999,5.809,9.711
1242,0.521,34.578,33.848,45.992,28.369,6.919,5.769,9.63
1243,0.537,34.406,33.855,45.972,28.373,6.959,5.809,9.507
1244,0.56,34.385,33.761,45.982,28.366,7.041,5.85,9.465
1245,0.58,34.577,33.862,46.001,28.373,7.245,5.891,9.465
1246,0.599,34.684,33.824,45.972,28.366,7.125,5.689,9.262
1247,0.6,34.331,33.66,46.001,28.362,7.287,5.809,9.3
1248,0.642,34.461,33.838,45.972,28.369,7.288,5.81,9.341
1249,0.662,34.626,33.781,45.962,28.366,7.288,5.81,9.179
1250,0.662,34.742,33.839,45.962,28.369,7.247,5.891,9.137
1251,0.675,34.293,33.714,46.01,28.383,7.572,5.973,9.299
1252,0.695,34.442,33.83,46.011,28.373,7.413,5.852,9.097
1253,0.705,34.597,33.785,45.982,28.373,7.411,5.891,8.973
1254,0.711,34.704,33.769,46.001,28.376,7.411,6.014,8.891
1255,0.731,34.206,33.819,46.02,28.373,7.533,5.934,8.89
1256,0.728,34.383,33.839,46.001,28.369,7.494,5.933,8.768
1257,0.734,34.5,33.835,45.982,28.369,7.453,5.892,8.767
1258,0.741,34.645,33.777,46.068,28.366,7.493,6.014,8.685
1259,0.751,34.187,33.815,45.973,28.366,7.412,5.974,8.603
1260,0.748,34.374,33.831,46.001,28.359,7.452,5.974,8.521
1261,0.76,34.529,33.792,45.991,28.369,7.493,6.015,8.561
1262,0.767,34.655,33.819,46.039,28.38,7.534,6.056,8.48
1263,0.761,34.273,33.761,45.992,28.373,7.453,6.097,8.438
1264,0.767,34.47,33.792,46.011,28.369,7.493,6.056,8.397
1265,0.774,34.626,33.784,46.001,28.376,7.453,6.056,8.356
1266,0.787,34.694,33.815,46.001,28.373,7.452,6.137,8.234
1267,0.771,34.129,33.773,45.982,28.359,7.249,5.976,8.111
1268,0.774,34.306,33.804,46.02,28.369,7.328,6.137,8.15
1269,0.793,34.461,33.882,46.001,28.366,7.37,6.016,8.069
1270,0.793,34.491,33.809,45.982,28.362,7.289,6.056,7.946
1271,0.79,34.175,33.796,45.991,28.369,7.329,6.056,7.945
1272,0.803,34.393,33.753,46.02,28.383,7.41,6.178,8.108
1273,0.807,34.567,33.831,46.02,28.373,7.289,6.057,7.947
1274,0.797,34.512,33.769,46.03,28.376,7.329,6.137,7.864
1275,0.807,34.243,33.772,46.001,28.369,7.289,6.138,7.822
1276,0.81,34.393,33.878,46.02,28.369,7.329,6.138,7.863
1277,0.813,34.539,33.746,46.011,28.369,7.329,5.976,7.7
1278,0.8,34.31,33.815,45.992,28.366,7.289,5.974,7.74
1279,0.797,34.375,33.847,46.011,28.373,7.329,6.015,7.659
1280,0.8,34.51,33.816,46.011,28.362,7.329,6.056,7.536
1281,0.797,34.645,33.882,45.982,28.369,7.289,5.975,7.534
1282,0.797,34.014,33.75,46.01,28.376,7.369,6.137,7.657
1283,0.81,34.151,33.838,46.049,28.383,7.492,6.098,7.495
1284,0.803,34.325,33.82,46.011,28.366,7.453,6.016,7.494
1285,0.8,34.433,33.816,46.03,28.369,7.452,6.096,7.453
1286,0.81,34.108,33.831,46.021,28.373,7.29,6.056,7.493
1287,0.813,34.287,33.75,46.049,28.383,7.41,6.056,7.412
1288,0.816,34.442,33.792,46.011,28.359,7.249,5.853,7.208
1289,0.816,34.539,33.87,46.011,28.366,7.369,6.054,7.287
1290,0.813,34.022,33.847,46.02,28.369,7.37,5.893,7.288
1291,0.82,34.199,33.839,46.02,28.366,7.289,5.973,7.207
1292,0.82,34.364,33.793,46.02,28.366,7.329,5.933,7.206
1293,0.823,34.471,33.882,46.049,28.383,7.532,6.217,7.369
1294,0.839,33.955,33.668,46.069,28.376,7.453,6.017,7.248
1295,0.833,34.112,33.834,46.03,28.369,7.371,6.056,7.125
1296,0.83,34.267,33.91,46.021,28.373,7.452,6.097,7.205
1297,0.83,34.346,33.742,46.03,28.376,7.493,6.056,7.206
1298,0.83,33.915,33.799,46.011,28.366,7.371,5.975,7.043
1299,0.82,34.083,33.792,46.02,28.369,7.533,6.096,7.082
1300,0.826,34.267,33.854,46.011,28.369,7.534,6.016,7.042
1301,0.826,34.317,33.777,46.001,28.366,7.412,6.056,7.001
1302,0.817,34.02,33.815,46.02,28.366,7.493,5.975,7.041
1303,0.829,34.199,33.855,46.049,28.387,7.616,6.177,7.204
1304,0.836,34.383,33.765,46.021,28.369,7.576,6.057,7.043
1305,0.826,34.395,33.858,46.03,28.369,7.535,6.056,7.042
1306,0.833,34.011,33.781,46.03,28.369,7.534,6.015,7.042
1307,0.846,34.19,33.835,46.088,28.373,7.575,6.137,7.042
1308,0.843,34.326,33.828,46.031,28.369,7.372,5.854,6.92
1309,0.839,34.116,33.804,46.021,28.369,7.492,6.054,6.919
1310,0.839,33.97,33.862,46.011,28.369,7.412,6.015,6.878
1311,0.839,34.132,33.738,46.02,28.366,7.33,5.974,6.837
1312,0.839,34.287,33.815,46.02,28.362,7.37,5.933,6.877
1313,0.852,33.876,33.788,46.04,28.376,7.533,6.136,7.04
1314,0.862,33.949,33.784,46.069,28.373,7.494,6.016,6.879
1315,0.859,34.084,33.819,46.04,28.366,7.453,5.974,6.837
1316,0.856,34.21,33.792,46.04,28.376,7.493,6.015,6.796
1317,0.859,34.125,33.851,46.03,28.369,7.453,5.974,6.917
1318,0.862,34.258,33.679,46.03,28.373,7.412,5.893,6.593
1319,0.833,34.394,33.818,46.011,28.359,7.371,6.014,6.753
1320,0.852,34.529,33.742,46.04,28.366,7.411,6.015,6.714
1321,0.856,33.715,33.858,46.021,28.373,7.33,5.974,6.672
1322,0.846,33.88,33.832,46.001,28.369,7.329,5.893,6.631
1323,0.846,34.054,33.816,46.02,28.373,7.492,6.095,6.794
1324,0.853,34.229,33.859,46.078,28.38,7.453,6.016,6.673
1325,0.846,33.827,33.758,46.04,28.369,7.371,6.056,6.672
1326,0.846,34.006,33.835,46.04,28.373,7.452,6.015,6.753
1327,0.859,34.17,33.796,46.04,28.376,7.452,5.974,6.673
1328,0.859,34.287,33.773,46.04,28.369,7.452,5.974,6.55
1329,0.859,33.732,33.784,46.011,28.359,7.33,5.893,6.549
1330,0.866,33.928,33.788,46.049,28.362,7.329,6.014,6.59
1331,0.866,34.074,33.796,46.021,28.362,7.329,5.934,6.509
1332,0.866,34.162,33.808,46.03,28.366,7.37,5.892,6.508
1333,0.859,33.779,33.753,46.021,28.369,7.411,5.973,6.508
1334,0.879,34.005,33.846,46.078,28.383,7.452,6.137,6.711
1335,0.898,34.151,33.832,46.04,28.373,7.371,5.976,6.469
1336,0.882,34.182,33.808,46.049,28.373,7.37,6.015,6.467
1337,0.885,33.722,33.73,46.049,28.369,7.37,6.056,6.507
1338,0.885,33.889,33.819,46.049,28.373,7.37,6.056,6.549
1339,0.879,34.035,33.816,46.021,28.362,7.208,5.853,6.386
1340,0.869,34.324,33.8,46.02,28.373,7.328,5.973,6.466
1341,0.872,33.79,33.8,46.049,28.369,7.289,6.055,6.386
1342,0.876,33.948,33.737,46.021,28.369,7.288,5.975,6.385
1343,0.866,34.093,33.862,46.04,28.362,7.166,5.893,6.385
1344,0.879,33.836,33.793,46.059,28.383,7.328,6.095,6.588
1345,0.879,33.814,33.835,46.04,28.376,7.167,6.016,6.427
1346,0.863,33.958,33.855,46.059,28.369,7.165,5.934,6.466
1347,0.885,34.084,33.843,46.059,28.376,7.165,6.014,6.467
1348,0.889,33.586,33.796,46.059,28.38,7.206,5.974,6.426
1349,0.892,33.677,33.745,46.069,28.366,7.003,5.811,6.263
1350,0.876,33.803,33.815,46.021,28.362,7.082,5.972,6.343
1351,0.892,33.957,33.82,46.059,28.373,7.002,5.893,6.303
1352,0.886,33.528,33.839,46.05,28.369,7.001,5.892,6.262
1353,0.895,33.648,33.835,46.03,28.369,6.96,5.892,6.302
1354,0.892,33.841,33.812,46.068,28.383,7.163,6.054,6.506
1355,0.912,34.015,33.87,46.059,28.376,7.124,5.975,6.427
1356,0.905,33.576,33.824,46.04,28.369,7.124,5.974,6.385
1357,0.902,33.754,33.749,46.04,28.376,7.124,5.974,6.344
1358,0.902,33.938,33.788,46.059,28.373,7.165,6.055,6.384
1359,0.899,34.026,33.839,46.069,28.373,7.084,5.893,6.222
1360,0.889,33.816,33.867,46.04,28.362,7.042,5.892,6.302
1361,0.905,34.006,33.781,46.049,28.362,7.123,5.892,6.343
1362,0.905,34.18,33.819,46.049,28.369,7.124,5.851,6.303
1363,0.902,34.249,33.753,46.03,28.366,7.124,5.81,6.262
1364,0.902,33.204,33.803,46.059,28.369,7.246,5.972,6.302
1365,0.912,33.414,33.878,46.097,28.376,7.166,5.974,6.302
1366,0.905,33.532,33.793,46.069,28.373,7.206,5.893,6.343
1367,0.915,33.638,33.831,46.069,28.369,7.206,5.892,6.303
1368,0.915,33.659,33.785,46.078,28.369,7.287,5.892,6.384
1369,0.931,33.822,33.882,46.069,28.369,7.329,5.811,6.181
1370,0.912,33.939,33.781,46.03,28.362,7.289,5.728,6.261
1371,0.922,34.016,33.808,46.049,28.369,7.41,5.89,6.302
1372,0.918,33.432,33.839,46.059,28.369,7.493,5.77,6.262
1373,0.925,33.599,33.773,46.059,28.366,7.412,5.809,6.139
1374,0.915,33.764,33.815,46.059,28.369,7.574,5.891,6.26
1375,0.931,33.852,33.773,46.107,28.387,7.738,5.973,6.343
1376,0.935,33.383,33.862,46.079,28.369,7.618,5.893,6.262
1377,0.931,33.541,33.765,46.069,28.373,7.739,5.811,6.262
1378,0.931,33.696,33.733,46.107,28.373,7.699,5.81,6.302
1379,0.935,33.439,33.823,46.079,28.376,7.699,5.891,6.262
1380,0.928,33.407,33.761,46.069,28.369,7.618,5.729,6.139
1381,0.925,33.551,33.846,46.078,28.369,7.617,5.85,6.301
1382,0.931,33.715,33.757,46.069,28.376,7.617,5.729,6.221
1383,0.922,33.295,33.827,46.059,28.366,7.657,5.809,6.261
1384,0.931,33.396,33.714,46.069,28.366,7.576,5.728,6.18
1385,0.935,33.551,33.795,46.107,28.373,7.82,5.89,6.383
1386,0.948,33.725,33.858,46.108,28.387,7.781,5.811,6.344
1387,0.938,33.314,33.668,46.098,28.369,7.659,5.85,6.303
1388,0.948,33.473,33.81,46.107,28.373,7.658,5.891,6.262
1389,0.951,33.647,33.847,46.108,28.373,7.78,5.892,6.302
1390,0.958,33.745,33.832,46.088,28.376,7.7,5.851,6.18
1391,0.948,33.228,33.789,46.059,28.355,7.536,5.81,6.22
1392,0.958,33.443,33.753,46.107,28.369,7.616,5.932,6.22
1393,0.961,33.609,33.838,46.088,28.369,7.617,5.852,6.22
1394,0.961,33.687,33.785,46.079,28.366,7.535,5.851,6.139
1395,0.964,33.208,33.78,46.079,28.366,7.616,5.973,6.26
1396,0.987,33.443,33.889,46.126,28.383,7.779,6.055,6.302
1397,0.974,33.58,33.82,46.098,28.369,7.578,5.934,6.18
1398,0.964,33.687,33.745,46.107,28.369,7.575,5.974,6.22
1399,0.958,33.314,33.776,46.117,28.376,7.616,5.974,6.22
1400,0.987,33.502,33.847,46.136,28.376,7.535,5.974,6.18
1401,0.987,33.657,33.793,46.098,28.359,7.372,5.811,6.098
1402,0.978,33.726,33.827,46.088,28.369,7.492,5.972,6.178
1403,0.971,33.228,33.773,46.098,28.366,7.453,5.933,6.139
1404,0.974,33.415,33.8,46.079,28.362,7.452,5.892,6.057
1405,0.971,33.57,33.831,46.098,28.373,7.493,5.973,6.137
1406,0.994,33.668,33.812,46.165,28.38,7.575,6.137,6.219
1407,0.971,33.285,33.761,46.118,28.376,7.535,5.976,6.18
1408,0.981,33.473,33.815,46.127,28.373,7.494,6.015,6.139
1409,0.987,33.628,33.792,46.127,28.369,7.534,6.015,6.138
1410,0.981,33.476,33.874,46.117,28.376,7.575,5.974,6.057
1411,0.994,33.206,33.762,46.098,28.362,7.372,5.811,6.015
1412,1.007,33.405,33.784,46.107,28.369,7.533,5.972,6.056
1413,1.01,33.541,33.733,46.117,28.366,7.453,5.933,6.015
1414,1.014,33.466,33.795,46.108,28.359,7.371,5.933,5.974
1415,1.017,33.551,33.897,46.079,28.366,7.452,5.974,6.015
1416,1.03,33.744,33.797,46.155,28.38,7.615,6.137,6.218
1417,1.03,33.861,33.843,46.108,28.359,7.495,5.976,6.017
1418,1.024,33.181,33.761,46.127,28.369,7.534,6.055,6.056
1419,1.027,33.299,33.854,46.136,28.38,7.534,5.975,6.056
1420,1.037,33.492,33.91,46.127,28.383,7.657,5.974,6.056
1421,1.024,33.571,33.762,46.098,28.366,7.455,5.893,5.934
1422,1.027,33.409,33.835,46.127,28.373,7.493,5.973,5.974
1423,1.037,33.589,33.75,46.117,28.369,7.534,5.933,5.974
1424,1.03,33.744,33.831,46.108,28.369,7.575,5.933,5.893
1425,1.03,33.861,33.835,46.117,28.369,7.575,6.014,6.014
1426,1.053,33.402,33.808,46.165,28.383,7.698,6.137,6.137
1427,1.053,33.579,33.874,46.127,28.373,7.658,5.976,6.016
1428,1.05,33.735,33.695,46.117,28.373,7.617,5.974,6.015
1429,1.06,33.823,33.67,46.165,28.373,7.617,6.015,6.096
1430,1.06,33.747,33.74,46.156,28.373,7.617,6.015,6.016
1431,1.073,33.899,33.823,46.118,28.366,7.454,5.852,5.852
1432,1.066,34.035,33.812,46.127,28.369,7.574,5.973,5.973
1433,1.063,34.132,33.808,46.136,28.366,7.535,5.933,5.933
1434,1.066,33.846,33.816,46.108,28.369,7.494,5.974,5.974
1435,1.073,33.996,33.757,46.127,28.366,7.453,5.893,5.893
1436,1.076,34.18,33.874,46.136,28.376,7.696,6.095,6.054
1437,1.092,34.249,33.676,46.156,28.369,7.536,6.016,5.934
1438,1.076,34.183,33.799,46.137,28.373,7.494,5.974,5.974
1439,1.079,34.354,33.812,46.156,28.373,7.453,5.974,5.933
1440,1.073,34.481,33.812,46.156,28.376,7.493,6.015,5.933
1441,1.079,34.511,33.784,46.146,28.376,7.331,5.934,5.852
1442,1.063,34.319,33.714,46.108,28.366,7.289,5.811,5.81
1443,1.079,34.519,33.791,46.127,28.369,7.41,5.972,5.891
1444,1.079,34.665,33.792,46.146,28.369,7.33,5.933,5.851
1445,1.089,34.666,33.776,46.137,28.359,7.329,5.892,5.851
1446,1.086,34.637,33.796,46.137,28.366,7.37,5.973,5.932
1447,1.099,34.858,33.765,46.165,28.383,7.533,6.096,6.014
1448,1.099,34.965,33.8,46.156,28.366,7.453,6.056,5.934
1449,1.109,34.976,33.823,46.156,28.369,7.33,5.975,5.892
1450,1.109,35.082,33.824,46.146,28.373,7.41,6.015,5.973
1451,1.112,35.274,33.827,46.175,28.369,7.411,6.056,5.893
1452,1.099,35.382,33.734,46.127,28.366,7.289,5.893,5.811
1453,1.102,35.191,33.811,46.136,28.376,7.41,5.973,5.972
1454,1.112,35.343,33.706,46.156,28.366,7.33,5.974,5.852
1455,1.115,35.498,33.764,46.137,28.369,7.289,5.893,5.851
1456,1.122,35.585,33.866,46.127,28.373,7.329,5.973,5.81
1457,1.129,35.529,33.781,46.156,28.38,7.451,6.137,6.054
1458,1.135,35.73,33.757,46.166,28.376,7.371,5.976,5.893
1459,1.112,35.866,33.772,46.166,28.376,7.492,6.015,5.892
1460,1.119,35.944,33.823,46.137,28.376,7.494,6.015,5.933
1461,1.132,36.338,33.839,46.156,28.376,7.534,6.015,5.892
1462,1.122,36.495,33.816,46.156,28.366,7.453,5.893,5.77
1463,1.116,36.593,33.847,46.127,28.366,7.534,5.973,5.85
1464,1.128,36.709,33.75,46.156,28.373,7.575,5.974,5.81
1465,1.119,36.01,33.815,46.166,28.366,7.535,5.893,5.85
1466,1.119,36.147,33.812,46.146,28.369,7.616,5.851,5.81
1467,1.119,36.321,33.738,46.156,28.376,7.698,6.054,5.972
1468,1.142,36.437,33.834,46.213,28.38,7.821,6.015,5.933
1469,1.132,37.282,33.804,46.176,28.373,7.7,5.974,5.892
1470,1.132,37.464,33.878,46.175,28.376,7.658,6.015,5.851
1471,1.142,37.59,33.789,46.185,28.38,7.739,6.015,5.932
1472,1.142,37.61,33.827,46.175,28.376,7.781,5.974,5.852
1473,1.138,36.402,33.847,46.147,28.362,7.618,5.811,5.729
1474,1.135,36.553,33.734,46.175,28.369,7.779,5.972,5.85
1475,1.142,36.718,33.827,46.175,28.373,7.822,5.893,5.769
1476,1.129,37.141,33.792,46.147,28.362,7.781,5.892,5.728
1477,1.116,37.174,33.804,46.165,28.366,7.822,5.892,5.809
1478,1.125,37.376,33.757,46.223,28.376,8.066,6.095,5.972
1479,1.125,37.522,33.788,46.176,28.373,7.946,5.975,5.811
1480,1.125,37.447,33.874,46.175,28.376,8.026,6.015,5.891
1481,1.129,37.436,33.793,46.185,28.38,8.027,5.974,5.851
1482,1.129,37.618,33.862,46.195,28.373,8.109,6.015,5.851
1483,1.103,37.716,33.765,46.166,28.373,7.947,5.852,5.648
1484,1.109,37.583,33.792,46.156,28.366,7.905,5.973,5.808
1485,1.106,37.706,33.854,46.185,28.376,7.985,5.893,5.81
1486,1.102,37.842,33.781,46.166,28.376,7.946,5.892,5.728
1487,1.099,37.977,33.733,46.204,28.362,7.823,5.933,5.768
1488,1.093,37.883,33.702,46.195,28.38,7.944,6.055,5.931
1489,1.105,38.064,33.846,46.214,28.383,7.905,5.975,5.77
1490,1.099,38.181,33.761,46.157,28.376,7.823,5.893,5.809
1491,1.083,38.268,33.788,46.194,28.373,7.822,5.973,5.85
1492,1.086,38.097,33.812,46.195,28.376,7.863,5.893,5.81
1493,1.083,38.248,33.788,46.204,28.373,7.782,5.973,5.769
1494,1.066,38.375,33.776,46.147,28.366,7.7,5.893,5.768
1495,1.079,38.472,33.726,46.194,28.373,7.74,5.892,5.687
1496,1.073,38.319,33.83,46.156,28.369,7.618,5.933,5.727
1497,1.063,38.471,33.812,46.166,28.366,7.657,5.892,5.687
1498,1.066,38.617,33.714,46.175,28.373,7.82,6.014,5.849
1499,1.056,38.714,33.791,46.233,28.38,7.985,6.096,5.81
1500,1.05,38.59,33.784,46.176,28.373,7.905,6.056,5.769
1501,1.037,38.733,33.839,46.194,28.376,7.985,6.056,5.768
1502,1.033,38.878,33.742,46.204,28.376,8.027,6.015,5.809
1503,1.03,38.956,33.823,46.204,28.383,8.068,6.015,5.769
1504,1.017,38.66,33.796,46.166,28.366,7.824,5.852,5.647
1505,1.007,38.858,33.745,46.185,28.373,8.107,5.973,5.767
1506,1.01,38.994,33.846,46.185,28.369,8.069,5.974,5.768
1507,1.007,38.996,33.672,46.214,28.373,8.109,5.893,5.768
1508,0.994,38.881,33.748,46.195,28.362,8.15,6.014,5.768
1509,1.004,39.081,33.838,46.233,28.383,8.313,6.137,5.931
1510,0.997,39.198,33.789,46.214,28.373,8.274,5.976,5.73
1511,0.978,39.209,33.831,46.214,28.373,8.314,6.015,5.85
1512,0.984,39.027,33.722,46.224,28.373,8.315,5.974,5.891
1513,0.984,39.178,33.78,46.224,28.373,8.274,6.055,5.851
1514,0.974,39.304,33.761,46.214,28.369,8.233,5.975,5.688
1515,0.958,39.047,33.811,46.157,28.369,8.233,6.015,5.768
1516,0.961,39.092,33.816,46.204,28.369,8.314,5.934,5.728
1517,0.951,39.236,33.745,46.185,28.38,8.234,5.974,5.768
1518,0.938,39.353,33.823,46.175,28.369,8.273,5.852,5.768
1519,0.932,39.258,33.753,46.204,28.373,8.193,6.013,5.85
1520,0.944,39.391,33.835,46.224,28.39,8.273,5.974,5.851
1521,0.925,39.517,33.796,46.195,28.373,8.111,6.015,5.891
1522,0.931,39.615,33.761,46.204,28.376,8.109,6.056,5.811
1523,0.925,39.107,33.831,46.224,28.376,8.15,6.015,5.891
1524,0.922,39.265,33.769,46.214,28.376,8.11,6.015,5.851
1525,0.896,39.382,33.792,46.195,28.369,7.906,5.852,5.769
1526,0.902,39.479,33.792,46.214,28.373,7.985,5.932,5.809
1527,0.895,40.055,33.815,46.214,28.373,7.946,5.974,5.81
1528,0.899,40.215,33.796,46.195,28.362,7.864,5.933,5.81
1529,0.902,40.35,33.698,46.204,28.369,7.985,6.014,5.932
1530,0.908,40.467,33.826,46.262,28.387,7.986,6.056,5.933
1531,0.892,38.876,33.761,46.224,28.373,7.946,5.934,5.933
1532,0.886,39.052,33.815,46.214,28.376,7.742,5.974,5.892
1533,0.882,39.198,33.835,46.233,28.383,7.821,5.933,5.933
1534,0.882,39.276,33.792,46.233,28.376,7.781,5.974,5.974
1535,0.882,39.468,33.815,46.185,28.369,7.618,5.852,5.73
1536,0.879,39.624,33.753,46.204,28.369,7.739,5.891,5.89
1537,0.872,39.779,33.721,46.214,28.373,7.699,5.851,5.851
1538,0.866,39.819,33.784,46.204,28.362,7.618,5.851,5.851
1539,0.866,39.311,33.804,46.204,28.373,7.698,5.891,5.891
1540,0.876,39.526,33.886,46.262,28.383,7.861,6.014,5.973
1541,0.872,39.643,33.762,46.243,28.38,7.7,5.893,5.893
1542,0.859,39.654,33.835,46.243,28.373,7.78,5.892,5.892
1543,0.853,39.415,33.773,46.214,28.373,7.74,5.973,5.933
1544,0.853,39.566,33.819,46.224,28.38,7.821,5.933,5.892
1545,0.853,39.711,33.816,46.224,28.366,7.619,5.77,5.729
1546,0.84,39.53,33.781,46.224,28.369,7.698,5.891,5.931
1547,0.846,39.365,33.878,46.214,28.376,7.658,5.851,5.892
1548,0.849,39.517,33.758,46.224,28.366,7.576,5.851,5.851
1549,0.849,39.643,33.675,46.214,28.366,7.575,5.81,5.81
1550,0.846,39.395,33.803,46.224,28.38,7.698,6.013,6.054
1551,0.856,39.47,33.827,46.252,28.376,7.618,5.812,5.893
1552,0.843,39.585,33.863,46.243,28.373,7.617,5.81,5.851
1553,0.843,39.711,33.816,46.233,28.376,7.739,5.932,5.851
1554,0.853,39.156,33.827,46.233,28.383,7.74,5.811,5.932
1555,0.846,39.275,33.746,46.224,28.369,7.577,5.769,5.77
1556,0.84,39.411,33.842,46.195,28.362,7.616,5.809,5.85
1557,0.852,39.527,33.621,46.252,28.369,7.657,5.81,5.729
1558,0.843,39.25,33.747,46.224,28.366,7.698,5.85,5.809
1559,0.836,39.391,33.831,46.214,28.369,7.658,5.769,5.81
1560,0.836,39.556,33.808,46.214,28.376,7.78,5.891,5.972
1561,0.846,39.673,33.816,46.252,28.383,7.903,5.973,5.893
1562,0.849,39.156,33.734,46.234,28.373,7.782,5.852,5.892
1563,0.84,39.333,33.815,46.233,28.369,7.862,5.851,5.851
1564,0.843,39.488,33.753,46.233,28.383,7.822,5.891,5.851
1565,0.836,39.557,33.807,46.243,28.383,7.903,5.892,5.851
1566,0.826,39.088,33.796,46.186,28.366,7.701,5.77,5.769
1567,0.826,39.265,33.749,46.233,28.373,7.78,5.891,5.85
1568,0.83,39.411,33.823,46.224,28.369,7.822,5.811,5.81
1569,0.823,39.46,33.746,46.224,28.373,7.781,5.81,5.81
1570,0.833,39.029,33.819,46.205,28.369,7.74,5.81,5.85
1571,0.839,39.236,33.785,46.262,28.38,7.862,6.054,6.013
1572,0.852,39.391,33.784,46.253,28.376,7.741,5.853,5.852
1573,0.846,39.402,33.843,46.243,28.376,7.74,5.851,5.891
1574,0.846,39.0,33.699,46.233,28.369,7.74,5.81,5.892
1575,0.846,39.188,33.795,46.233,28.383,7.699,5.891,5.892
1576,0.843,39.314,33.761,46.224,28.366,7.658,5.811,5.77
1577,0.836,39.498,33.803,46.195,28.366,7.536,5.81,5.809
1578,0.846,39.001,33.691,46.233,28.369,7.616,5.85,5.81
1579,0.836,39.178,33.756,46.224,28.369,7.617,5.851,5.81
1580,0.833,39.295,33.831,46.224,28.362,7.576,5.851,5.85
1581,0.843,39.008,33.773,46.224,28.373,7.616,5.851,5.932
1582,0.853,38.938,33.804,46.272,28.383,7.657,5.851,5.933
1583,0.846,39.062,33.753,46.234,28.383,7.576,5.891,5.892
1584,0.836,39.217,33.799,46.233,28.373,7.616,5.892,5.892
1585,0.839,38.768,33.835,46.243,28.376,7.617,5.892,5.973
1586,0.846,38.83,33.8,46.243,28.38,7.576,5.892,5.893
1587,0.833,38.956,33.737,46.224,28.359,7.535,5.77,5.851
1588,0.833,39.082,33.737,46.233,28.373,7.738,5.891,5.851
1589,0.846,38.728,33.788,46.243,28.376,7.781,5.892,5.81
1590,0.843,38.849,33.851,46.224,28.373,7.74,5.77,5.81
1591,0.833,38.994,33.722,46.224,28.369,7.781,5.891,5.81
1592,0.846,39.149,33.815,46.262,28.39,8.066,5.933,6.013
1593,0.843,38.575,33.753,46.234,28.383,7.824,5.892,5.852
1594,0.839,38.704,33.776,46.233,28.373,7.903,5.973,5.932
1595,0.833,38.859,33.741,46.233,28.369,7.985,5.852,5.892
1596,0.843,38.956,33.827,46.272,28.387,8.027,5.891,5.933
1597,0.849,38.602,33.851,46.224,28.373,7.946,5.729,5.77
1598,0.836,38.752,33.722,46.205,28.362,7.945,5.768,5.809
1599,0.839,38.917,33.83,46.224,28.366,7.986,5.809,5.891
1600,0.849,38.985,33.765,46.224,28.366,7.986,5.769,5.77
1601,0.843,38.439,33.8,46.243,28.366,7.946,5.768,5.809
1602,0.843,38.597,33.8,46.224,28.373,8.067,5.891,5.972
1603,0.853,38.8,33.823,46.272,28.387,8.109,5.933,5.852
1604,0.846,38.802,33.839,46.243,28.373,8.109,5.811,5.81
1605,0.843,38.476,33.761,46.233,28.373,8.15,5.891,5.932
1606,0.839,38.655,33.87,46.253,28.376,8.232,5.811,5.933
1607,0.846,38.781,33.715,46.262,28.383,8.151,5.81,5.892
1608,0.836,38.811,33.78,46.224,28.362,8.069,5.728,5.77
1609,0.849,38.351,33.847,46.224,28.373,8.109,5.809,5.891
1610,0.849,38.519,33.793,46.214,28.376,8.069,5.769,5.851
1611,0.849,38.655,33.773,46.233,28.369,8.069,5.728,5.851
1612,0.853,38.724,33.698,46.233,28.369,8.15,5.768,5.891
1613,0.862,38.322,33.822,46.262,28.383,8.273,5.972,6.014
1614,0.862,38.49,33.792,46.243,28.373,8.152,5.893,5.852
1615,0.856,38.607,33.733,46.233,28.366,8.232,5.851,5.891
1616,0.856,38.225,33.85,46.243,28.376,8.192,5.81,5.933
1617,0.856,38.211,33.797,46.253,28.376,8.273,5.85,5.892
1618,0.856,38.345,33.769,46.253,28.369,8.274,5.769,5.729
1619,0.836,38.462,33.718,46.224,28.369,8.274,5.809,5.809
1620,0.846,38.118,33.811,46.252,28.369,8.314,5.81,5.81
1621,0.843,38.21,33.823,46.224,28.373,8.396,5.85,5.769
1622,0.833,38.355,33.773,46.224,28.369,8.316,5.81,5.809
1623,0.843,38.452,33.846,46.252,28.376,8.477,5.85,5.932
1624,0.846,38.07,33.754,46.281,28.387,8.52,5.891,5.852
1625,0.84,38.162,33.788,46.234,28.369,8.398,5.892,5.932
1626,0.846,38.307,33.757,46.243,28.373,8.478,5.851,5.811
1627,0.846,38.423,33.725,46.253,28.376,8.479,5.973,5.891
1628,0.853,37.878,33.76,46.253,28.376,8.438,5.852,5.851
1629,0.849,38.016,33.757,46.214,28.366,8.235,5.688,5.729
1630,0.846,38.152,33.823,46.233,28.376,8.355,5.809,5.85
1631,0.853,38.268,33.738,46.224,28.366,8.275,5.81,5.729
1632,0.853,37.867,33.795,46.233,28.369,8.274,5.769,5.768
1633,0.843,38.035,33.749,46.253,28.369,8.314,5.85,5.85
1634,0.859,38.209,33.823,46.272,28.387,8.356,5.973,5.891
1635,0.853,38.269,33.785,46.243,28.373,8.234,5.893,5.811
1636,0.853,37.761,33.757,46.243,28.376,8.192,5.851,5.81
1637,0.859,37.957,33.858,46.233,28.376,8.314,5.851,5.932
1638,0.853,38.094,33.761,46.243,28.373,8.274,5.851,5.852
1639,0.846,38.143,33.71,46.243,28.369,8.152,5.729,5.729
1640,0.84,37.721,33.783,46.253,28.373,8.191,5.809,5.768
1641,0.839,37.89,33.823,46.243,28.369,8.192,5.769,5.728
1642,0.839,38.026,33.855,46.243,28.373,8.151,5.728,5.727
1643,0.839,38.046,33.777,46.224,28.366,8.191,5.809,5.687
1644,0.839,37.567,33.839,46.348,28.383,8.273,5.932,5.931
1645,0.856,37.754,33.726,46.282,28.376,8.152,5.77,5.811
1646,0.84,37.861,33.83,46.263,28.369,8.15,5.85,5.81
1647,0.836,37.795,33.714,46.262,28.376,8.11,5.891,5.769
1648,0.846,37.66,33.772,46.262,28.38,8.069,5.811,5.85
1649,0.856,37.803,33.815,46.253,28.376,8.069,5.81,5.81
1650,0.836,37.919,33.753,46.214,28.355,7.987,5.769,5.688
1651,0.843,37.46,33.838,46.233,28.373,8.027,5.85,5.727
1652,0.846,37.436,33.738,46.233,28.369,8.027,5.729,5.727
1653,0.853,37.618,33.846,46.233,28.369,7.987,5.768,5.768
1654,0.843,37.707,33.824,46.233,28.369,8.108,5.85,5.809
1655,0.856,37.247,33.8,46.272,28.387,8.272,5.973,5.85
1656,0.849,37.348,33.827,46.253,28.373,8.111,5.811,5.769
1657,0.833,37.512,33.804,46.253,28.376,8.15,5.85,5.809
1658,0.833,37.619,33.769,46.253,28.38,8.069,5.891,5.891
1659,0.836,37.035,33.757,46.262,28.38,8.15,5.811,5.851
1660,0.836,37.154,33.846,46.214,28.366,8.028,5.728,5.688
1661,0.836,37.309,33.793,46.243,28.373,8.109,5.809,5.768
1662,0.836,37.416,33.8,46.233,28.366,8.069,5.81,5.728
1663,0.833,37.062,33.819,46.233,28.369,8.109,5.769,5.727
1664,0.833,37.222,33.73,46.253,28.376,8.109,5.768,5.727
1665,0.839,37.415,33.807,46.281,28.383,8.313,6.013,5.972
1666,0.839,37.494,33.734,46.253,28.373,8.193,5.852,5.852
1667,0.826,36.957,33.694,46.243,28.369,8.151,5.81,5.81
1668,0.826,37.144,33.783,46.253,28.369,8.15,5.891,5.769
1669,0.826,37.299,33.733,46.272,28.376,8.15,5.851,5.768
1670,0.843,37.349,33.788,46.253,28.376,7.988,5.729,5.647
1671,0.83,36.908,33.706,46.234,28.369,8.068,5.809,5.727
1672,0.843,37.124,33.803,46.243,28.369,8.028,5.728,5.727
1673,0.836,37.27,33.784,46.233,28.369,7.987,5.768,5.727
1674,0.833,37.3,33.73,46.233,28.369,7.946,5.768,5.727
1675,0.83,36.908,33.799,46.243,28.376,7.986,5.891,5.85
1676,0.839,37.114,33.816,46.272,28.383,7.946,5.851,5.81
1677,0.836,37.213,33.851,46.234,28.376,7.945,5.769,5.769
1678,0.836,37.233,33.629,46.272,28.373,7.945,5.768,5.809
1679,0.826,37.06,33.783,46.272,28.376,7.986,5.85,5.81
1680,0.836,37.222,33.737,46.253,28.373,7.946,5.81,5.769
1681,0.82,37.3,33.803,46.214,28.362,7.864,5.81,5.687
1682,0.82,36.965,33.784,46.233,28.373,7.863,5.769,5.687
1683,0.826,36.751,33.753,46.224,28.373,7.822,5.768,5.727
1684,0.826,36.921,33.792,46.224,28.373,7.822,5.809,5.646
1685,0.817,37.028,33.737,46.252,28.369,7.903,5.769,5.808
1686,0.81,36.838,33.834,46.262,28.383,8.107,5.972,5.972
1687,0.82,36.922,33.773,46.243,28.376,8.069,5.852,5.771
1688,0.817,37.076,33.776,46.233,28.376,8.109,5.81,5.809
1689,0.82,37.212,33.866,46.253,28.38,8.15,5.891,5.81
1690,0.826,36.581,33.762,46.253,28.376,8.191,5.892,5.769
1691,0.83,36.747,33.784,46.234,28.369,8.07,5.77,5.687
1692,0.82,36.864,33.706,46.214,28.369,8.191,5.809,5.768
1693,0.826,36.98,33.819,46.252,28.373,8.314,5.81,5.809
1694,0.833,36.703,33.788,46.234,28.366,8.152,5.81,5.728
1695,0.826,36.863,33.776,46.224,28.366,8.191,5.85,5.727
1696,0.813,37.018,33.831,46.233,28.376,8.273,5.891,5.89
1697,0.836,37.164,33.75,46.272,28.383,8.314,5.851,5.811
1698,0.82,36.599,33.721,46.243,28.38,8.234,5.851,5.81
1699,0.823,36.805,33.787,46.253,28.373,8.192,5.851,5.891
1700,0.813,36.951,33.772,46.243,28.38,8.232,5.81,5.851
1701,0.816,37.048,33.85,46.253,28.376,8.192,5.81,5.81
1702,0.794,36.828,33.699,46.195,28.369,8.11,5.769,5.769
1703,0.813,37.018,33.775,46.233,28.376,8.109,5.809,5.85
1704,0.803,37.192,33.804,46.224,28.369,8.069,5.81,5.81
1705,0.8,37.233,33.741,46.224,28.369,8.028,5.81,5.769
1706,0.8,36.725,33.866,46.233,28.369,8.109,5.891,5.891
1707,0.813,36.94,33.68,46.262,28.387,8.109,5.892,5.851
1708,0.807,37.057,33.748,46.234,28.373,8.069,5.851,5.891
1709,0.81,37.097,33.827,46.233,28.383,7.987,5.851,5.851
1710,0.81,36.8,33.792,46.243,28.38,8.027,5.851,5.851
1711,0.813,36.979,33.827,46.262,28.38,7.946,5.81,5.891
1712,0.82,37.096,33.687,46.214,28.362,7.945,5.688,5.77
1713,0.81,37.318,33.791,46.224,28.362,7.945,5.849,5.809
1714,0.82,36.812,33.792,46.233,28.373,7.905,5.81,5.85
1715,0.82,37.008,33.71,46.233,28.369,7.945,5.728,5.81
1716,0.813,37.135,33.822,46.214,28.373,7.905,5.809,5.769
1717,0.82,36.925,33.722,46.252,28.383,8.107,5.891,5.972
1718,0.82,36.923,33.752,46.234,28.383,7.947,5.811,5.811
1719,0.813,37.076,33.698,46.3,28.376,7.986,5.81,5.932
1720,0.816,37.222,33.791,46.244,28.376,8.027,5.81,5.852
1721,0.81,36.916,33.89,46.233,28.376,8.068,5.85,5.891
1722,0.81,37.0,33.793,46.243,28.369,7.906,5.648,5.811
1723,0.797,37.135,33.843,46.195,28.366,7.945,5.727,5.769
1724,0.807,37.28,33.742,46.214,28.376,8.026,5.85,5.768
1725,0.8,36.821,33.823,46.233,28.373,8.027,5.81,5.85
1726,0.8,36.922,33.831,46.205,28.366,7.946,5.769,5.81
1727,0.8,37.076,33.75,46.204,28.373,7.986,5.85,5.81
1728,0.807,37.25,33.827,46.262,28.387,8.19,5.973,5.972
1729,0.81,36.955,33.769,46.234,28.373,8.11,5.893,5.811
1730,0.8,37.115,33.846,46.233,28.373,8.15,5.77,5.81
1731,0.81,37.28,33.734,46.253,28.38,8.232,5.809,5.85
1732,0.813,37.396,33.811,46.234,28.376,8.151,5.891,5.851
1733,0.813,36.966,33.839,46.214,28.366,8.028,5.689,5.648
1734,0.803,37.125,33.769,46.214,28.369,8.149,5.849,5.849
1735,0.813,37.289,33.807,46.224,28.376,8.11,5.81,5.769
1736,0.803,37.368,33.769,46.205,28.373,8.109,5.728,5.768
1737,0.816,37.081,33.796,46.195,28.373,8.069,5.687,5.768
1738,0.81,37.241,33.675,46.243,28.383,8.191,5.931,5.891
1739,0.816,37.454,33.81,46.253,28.38,8.11,5.852,5.77
1740,0.803,37.456,33.761,46.224,28.373,8.069,5.851,5.687
1741,0.807,37.091,33.811,46.214,28.383,8.109,5.891,5.809
1742,0.807,37.279,33.823,46.233,28.387,8.069,5.892,5.85
1743,0.803,37.406,33.785,46.214,28.376,8.028,5.811,5.729
1744,0.8,37.436,33.784,46.185,28.362,7.865,5.769,5.768
1745,0.797,37.34,33.722,46.214,28.373,7.863,5.891,5.809
1746,0.797,37.493,33.807,46.204,28.376,7.822,5.77,5.81
1747,0.8,37.629,33.679,46.214,28.366,7.781,5.85,5.85
1748,0.794,37.496,33.705,46.204,28.369,7.74,5.851,5.81
1749,0.81,37.226,33.791,46.252,28.387,7.862,5.973,5.932
1750,0.816,37.377,33.769,46.214,28.38,7.741,5.852,5.77
1751,0.8,37.493,33.784,46.224,28.376,7.699,5.851,5.809
1752,0.807,37.379,33.804,46.224,28.376,7.618,5.851,5.85
1753,0.813,37.426,33.777,46.224,28.383,7.617,5.891,5.851
1754,0.81,37.57,33.733,46.205,28.369,7.535,5.77,5.729
1755,0.8,37.668,33.713,46.176,28.369,7.534,5.809,5.809
1756,0.807,37.218,33.819,46.185,28.376,7.494,5.769,5.81
1757,0.803,37.329,33.714,46.195,28.373,7.453,5.768,5.85
1758,0.803,37.483,33.698,46.185,28.369,7.33,5.728,5.769
1759,0.8,37.609,33.76,46.195,28.38,7.41,5.972,5.931
1760,0.81,37.371,33.807,46.243,28.387,7.452,5.852,5.852
1761,0.81,37.484,33.855,46.205,28.373,7.29,5.81,5.851
1762,0.803,37.657,33.773,46.214,28.376,7.369,5.81,5.851
1763,0.803,37.765,33.854,46.204,28.383,7.37,5.85,5.851
1764,0.803,37.344,33.734,46.214,28.38,7.37,5.769,5.769
1765,0.79,37.493,33.807,46.176,28.362,7.086,5.647,5.687
1766,0.793,37.629,33.843,46.204,28.376,7.205,5.808,5.809
1767,0.8,37.726,33.687,46.214,28.376,7.043,5.647,5.728
1768,0.8,37.362,33.756,46.185,28.366,7.123,5.686,5.768
1769,0.8,37.522,33.721,46.166,28.366,7.083,5.687,5.809
1770,0.81,37.686,33.807,46.223,28.383,7.286,5.971,5.932
1771,0.816,37.774,33.761,46.205,28.376,7.166,5.73,5.77
1772,0.803,37.449,33.737,46.204,28.373,7.124,5.809,5.85
1773,0.807,37.628,33.823,46.176,28.376,7.246,5.728,5.851
1774,0.807,37.774,33.703,46.204,28.376,7.288,5.809,5.891
1775,0.816,37.833,33.791,46.185,28.373,7.207,5.728,5.851
1776,0.8,37.469,33.835,46.166,28.369,7.206,5.768,5.81
1777,0.81,37.667,33.769,46.175,28.376,7.328,5.687,5.728
1778,0.8,37.803,33.733,46.185,28.369,7.37,5.727,5.809
1779,0.803,37.814,33.745,46.166,28.373,7.289,5.687,5.769
1780,0.794,37.613,33.772,46.185,28.38,7.451,5.809,5.972
1781,0.816,37.822,33.811,46.223,28.383,7.493,5.81,5.893
1782,0.79,37.92,33.738,46.176,28.373,7.494,5.769,5.851
1783,0.797,37.652,33.791,46.185,28.373,7.494,5.809,5.851
1784,0.79,37.486,33.687,46.185,28.376,7.575,5.728,5.891
1785,0.793,37.657,33.795,46.195,28.373,7.535,5.809,5.811
1786,0.793,37.726,33.792,46.166,28.362,7.412,5.647,5.81
1787,0.797,37.535,33.73,46.166,28.376,7.574,5.686,5.81
1788,0.803,37.581,33.815,46.166,28.369,7.616,5.768,5.81
1789,0.803,37.716,33.745,46.146,28.373,7.617,5.647,5.769
1790,0.8,37.832,33.815,46.156,28.373,7.576,5.767,5.809
1791,0.813,37.517,33.745,46.213,28.383,7.698,5.85,5.85
1792,0.81,37.629,33.795,46.185,28.373,7.577,5.729,5.891
1793,0.81,37.793,33.819,46.175,28.373,7.616,5.809,5.851
1794,0.813,37.891,33.722,46.175,28.38,7.617,5.728,5.851
1795,0.813,37.45,33.83,46.166,28.376,7.657,5.768,5.891
1796,0.82,37.58,33.769,46.118,28.366,7.455,5.565,5.729
1797,0.813,37.745,33.804,46.146,28.376,7.534,5.726,5.809
1798,0.8,37.833,33.698,46.165,28.376,7.534,5.727,5.769
1799,0.794,37.306,33.783,46.137,28.362,7.494,5.687,5.728
1800,0.8,37.492,33.792,46.127,28.369,7.494,5.727,5.768
1801,0.81,37.657,33.808,46.175,28.387,7.656,5.85,6.013
1802,0.813,37.765,33.804,46.166,28.373,7.536,5.729,5.852
1803,0.797,37.478,33.784,46.156,28.373,7.534,5.687,5.851
1804,0.8,37.657,33.784,46.156,28.376,7.453,5.768,5.851
1805,0.8,37.803,33.772,46.166,28.383,7.534,5.809,5.932
1806,0.797,37.843,33.807,46.156,28.366,7.331,5.647,5.77
1807,0.784,37.383,33.714,46.118,28.369,7.451,5.727,5.809
1808,0.793,37.589,33.76,46.136,28.38,7.371,5.687,5.81
1809,0.806,37.716,33.815,46.146,28.376,7.411,5.605,5.728
1810,0.797,37.746,33.773,46.118,28.369,7.371,5.645,5.809
1811,0.797,37.382,33.768,46.156,28.383,7.533,5.808,6.013
1812,0.82,37.618,33.858,46.166,28.383,7.453,5.728,5.893
1813,0.807,37.716,33.769,46.137,28.38,7.452,5.727,5.892
1814,0.803,38.014,33.792,46.127,28.38,7.574,5.727,5.892
1815,0.807,37.337,33.691,46.127,28.383,7.494,5.687,5.892
1816,0.81,37.522,33.795,46.156,28.376,7.453,5.646,5.77
1817,0.803,37.619,33.788,46.108,28.373,7.371,5.686,5.85
1818,0.803,38.033,33.663,46.108,28.376,7.411,5.605,5.851
1819,0.797,38.181,33.775,46.108,28.376,7.371,5.604,5.769
1820,0.79,38.307,33.702,46.117,28.376,7.411,5.564,5.809
1821,0.797,38.423,33.791,46.136,28.38,7.493,5.726,5.932
1822,0.82,37.063,33.804,46.156,28.383,7.534,5.687,5.852
1823,0.803,37.02,33.765,46.118,28.376,7.453,5.646,5.851
1824,0.807,37.192,33.8,46.156,28.369,7.534,5.645,5.851
1825,0.794,37.309,33.753,46.146,28.383,7.534,5.727,5.891
1826,0.797,37.282,33.823,46.137,28.383,7.534,5.687,5.892
1827,0.794,37.387,33.656,46.098,28.369,7.372,5.564,5.689
1828,0.8,37.57,33.767,46.107,28.376,7.452,5.645,5.849
1829,0.81,37.687,33.804,46.098,28.373,7.493,5.605,5.769
1830,0.8,36.979,33.788,46.088,28.373,7.494,5.645,5.768
1831,0.79,37.154,33.757,46.098,28.369,7.494,5.564,5.809
1832,0.816,37.347,33.76,46.155,28.387,7.616,5.726,6.013
1833,0.813,37.445,33.796,46.118,28.373,7.454,5.687,5.771
1834,0.81,37.082,33.749,46.117,28.376,7.493,5.646,5.809
1835,0.807,37.25,33.799,46.117,28.373,7.534,5.605,5.891
1836,0.816,37.406,33.734,46.108,28.38,7.453,5.686,5.811
1837,0.81,37.474,33.819,46.098,28.373,7.33,5.564,5.688
1838,0.794,36.967,33.757,46.079,28.369,7.41,5.604,5.809
1839,0.806,37.173,33.651,46.107,28.376,7.371,5.604,5.81
1840,0.807,37.319,33.818,46.088,28.376,7.411,5.564,5.85
1841,0.803,37.358,33.785,46.059,28.366,7.33,5.563,5.729
1842,0.807,36.956,33.796,46.107,28.38,7.41,5.685,5.931
1843,0.816,37.163,33.882,46.127,28.383,7.493,5.687,5.73
1844,0.8,37.271,33.77,46.108,28.376,7.412,5.646,5.809
1845,0.8,37.329,33.815,46.098,28.369,7.452,5.686,5.85
1846,0.81,36.994,33.784,46.107,28.383,7.493,5.727,5.851
1847,0.797,37.154,33.772,46.117,28.38,7.575,5.646,5.891
1848,0.797,37.27,33.745,46.06,28.359,7.535,5.523,5.729
1849,0.816,37.214,33.753,46.088,28.376,7.657,5.603,5.809
1850,0.81,36.83,33.831,46.098,28.369,7.698,5.645,5.728
1851,0.794,36.999,33.73,46.088,28.366,7.821,5.564,5.727
1852,0.803,37.135,33.795,46.079,28.373,7.944,5.685,5.809
1853,0.816,36.714,33.714,46.117,28.387,8.108,5.768,5.891
1854,0.797,36.681,33.752,46.079,28.376,8.069,5.606,5.77
1855,0.813,36.844,33.792,46.079,28.376,8.069,5.645,5.809
1856,0.81,36.989,33.757,46.079,28.38,8.15,5.686,5.85
1857,0.807,36.751,33.827,46.088,28.383,8.191,5.646,5.81
1858,0.807,36.873,33.621,46.069,28.369,8.07,5.483,5.647
1859,0.807,37.018,33.759,46.088,28.376,8.15,5.603,5.808
1860,0.807,37.144,33.721,46.079,28.376,8.11,5.645,5.81
1861,0.803,36.58,33.815,46.069,28.369,8.069,5.564,5.728
1862,0.8,36.718,33.796,46.069,28.373,8.109,5.604,5.768
1863,0.8,36.892,33.808,46.088,28.39,8.191,5.808,5.931
1864,0.807,37.028,33.82,46.098,28.38,8.11,5.647,5.77
1865,0.79,36.502,33.714,46.079,28.376,8.109,5.686,5.85
1866,0.793,36.66,33.819,46.088,28.376,7.987,5.646,5.851
1867,0.803,36.824,33.745,46.069,28.38,8.027,5.686,5.851
1868,0.803,36.912,33.721,46.088,28.373,7.905,5.605,5.769
1869,0.797,36.463,33.764,46.05,28.369,7.823,5.523,5.809
1870,0.807,36.669,33.764,46.069,28.383,7.863,5.563,5.81
1871,0.813,36.805,33.761,46.059,28.373,7.782,5.563,5.769
1872,0.803,36.883,33.803,46.069,28.373,7.781,5.604,5.728
1873,0.81,36.644,33.784,46.059,28.373,7.74,5.686,5.89
1874,0.836,36.853,33.827,46.107,28.394,7.903,5.768,5.973
1875,0.833,36.989,33.777,46.06,28.373,7.742,5.565,5.811
1876,0.839,37.039,33.85,46.059,28.38,7.699,5.685,5.85
1877,0.846,36.262,33.789,46.059,28.383,7.78,5.687,5.769
1878,0.843,36.437,33.749,46.078,28.383,7.659,5.646,5.85
1879,0.853,36.573,33.807,46.031,28.362,7.495,5.442,5.688
1880,0.84,36.603,33.784,46.049,28.376,7.738,5.643,5.809
1881,0.852,36.459,33.847,46.059,28.376,7.618,5.523,5.728
1882,0.853,36.631,33.695,46.04,28.373,7.617,5.522,5.727
1883,0.859,36.747,33.772,46.04,28.369,7.617,5.563,5.727
1884,0.869,36.49,33.753,46.069,28.387,7.779,5.685,5.972
1885,0.882,36.228,33.764,46.059,28.376,7.74,5.646,5.852
1886,0.872,36.379,33.811,46.05,28.383,7.74,5.645,5.81
1887,0.892,36.515,33.667,46.069,28.376,7.821,5.645,5.891
1888,0.899,36.324,33.771,46.069,28.383,7.822,5.686,5.892
1889,0.912,36.39,33.815,46.05,28.366,7.7,5.564,5.689
1890,0.899,36.505,33.792,46.021,28.373,7.78,5.604,5.809
1891,0.918,36.669,33.823,46.059,28.373,7.822,5.604,5.81
1892,0.912,36.134,33.753,46.05,28.373,7.741,5.564,5.728
1893,0.905,36.244,33.807,46.04,28.369,7.781,5.523,5.768
1894,0.915,36.398,33.718,46.04,28.376,7.862,5.725,5.931
1895,0.944,36.563,33.78,46.069,28.387,7.863,5.646,5.77
1896,0.932,36.037,33.733,46.04,28.38,7.863,5.645,5.85
1897,0.938,36.185,33.772,46.049,28.373,7.863,5.686,5.851
1898,0.945,36.359,33.714,46.049,28.376,7.863,5.646,5.81
1899,0.954,36.476,33.729,46.107,28.376,7.904,5.564,5.728
1900,0.958,35.988,33.819,46.012,28.362,7.701,5.523,5.687
1901,0.961,36.175,33.73,46.04,28.376,7.78,5.603,5.727
1902,0.964,36.331,33.784,46.011,28.373,7.781,5.604,5.768
1903,0.968,36.418,33.835,46.03,28.369,7.781,5.564,5.687
1904,0.977,35.988,33.699,46.078,28.376,7.862,5.645,5.849
1905,1.0,36.223,33.822,46.069,28.387,7.944,5.686,5.851
1906,0.994,36.35,33.753,46.03,28.38,7.783,5.646,5.729
1907,1.0,36.399,33.749,46.03,28.376,7.862,5.605,5.809
1908,1.0,35.93,33.764,46.03,28.376,7.985,5.645,5.891
1909,1.01,36.117,33.768,46.04,28.383,7.864,5.605,5.648
1910,0.991,36.234,33.835,46.001,28.369,7.741,5.482,5.645
1911,1.0,36.293,33.73,46.03,28.373,7.903,5.562,5.767
1912,1.004,35.977,33.83,46.011,28.373,7.904,5.563,5.768
1913,1.004,36.137,33.742,46.02,28.369,7.863,5.604,5.728
1914,0.994,36.253,33.799,46.001,28.366,7.944,5.523,5.727
1915,1.01,36.561,33.788,46.039,28.387,8.108,5.807,5.85
1916,1.027,35.845,33.784,46.021,28.383,7.947,5.688,5.769
1917,1.014,36.001,33.827,46.011,28.376,7.945,5.646,5.768
1918,1.001,36.137,33.683,46.03,28.383,8.026,5.727,5.728
1919,0.991,35.985,33.76,46.097,28.383,7.987,5.727,5.768
1920,0.991,35.907,33.807,46.031,28.376,7.946,5.646,5.768
1921,0.974,36.04,33.777,45.992,28.369,7.864,5.645,5.768
1922,0.974,36.205,33.761,46.001,28.383,7.904,5.645,5.809
1923,0.958,35.698,33.764,46.001,28.376,7.823,5.645,5.728
1924,0.964,35.75,33.757,46.039,28.369,7.822,5.605,5.768
1925,0.958,35.943,33.718,46.021,28.383,7.863,5.726,5.85
1926,0.964,36.088,33.815,46.049,28.39,7.985,5.768,5.81
1927,0.958,35.773,33.777,46.002,28.383,7.824,5.687,5.769
1928,0.954,35.914,33.686,46.001,28.373,7.822,5.727,5.809
1929,0.958,36.098,33.795,46.011,28.376,7.781,5.85,5.85
1930,0.945,36.176,33.737,46.02,28.376,7.822,5.769,5.81
1931,0.938,35.525,33.698,45.982,28.369,7.7,5.647,5.728
1932,0.932,35.701,33.772,46.001,28.376,7.699,5.727,5.727
1933,0.928,35.866,33.737,45.991,28.373,7.699,5.768,5.727
1934,0.905,35.944,33.776,45.982,28.373,7.699,5.728,5.727
1935,0.889,35.475,33.675,46.001,28.376,7.74,5.768,5.809
1936,0.899,35.691,33.783,46.049,28.394,7.903,5.891,5.81
1937,0.889,35.817,33.847,46.011,28.376,7.782,5.729,5.728
1938,0.872,35.915,33.711,46.011,28.373,7.7,5.809,5.727
1939,0.856,35.513,33.807,46.097,28.376,7.78,5.891,5.809
1940,0.862,35.681,33.714,46.012,28.38,7.618,5.811,5.769
1941,0.853,35.827,33.838,45.963,28.366,7.535,5.728,5.647
1942,0.833,35.905,33.812,45.991,28.369,7.575,5.809,5.767
1943,0.826,35.522,33.784,45.982,28.373,7.575,5.728,5.728
1944,0.823,35.701,33.784,45.982,28.373,7.535,5.768,5.646
1945,0.817,35.827,33.73,45.991,28.369,7.453,5.809,5.808
1946,0.82,35.896,33.85,46.02,28.383,7.696,5.891,5.891
1947,0.817,35.503,33.738,46.001,28.373,7.536,5.77,5.729
1948,0.813,35.681,33.71,45.991,28.376,7.494,5.85,5.687
1949,0.816,35.798,33.807,45.991,28.38,7.494,5.851,5.809
1950,0.81,35.895,33.777,45.991,28.383,7.616,5.81,5.728
1951,0.813,35.503,33.749,45.982,28.369,7.495,5.688,5.646
1952,0.797,35.662,33.694,45.982,28.369,7.534,5.809,5.727
1953,0.797,35.817,33.772,45.982,28.373,7.534,5.81,5.687
1954,0.787,35.531,33.807,45.963,28.373,7.453,5.728,5.687
1955,0.767,35.499,33.726,45.962,28.369,7.452,5.687,5.605
1956,0.774,35.672,33.83,45.982,28.38,7.452,5.931,5.767
1957,0.797,35.836,33.796,46.001,28.387,7.534,5.892,5.728
1958,0.781,35.368,33.757,45.972,28.376,7.412,5.851,5.727
1959,0.78,35.469,33.718,45.991,28.376,7.452,5.891,5.768
1960,0.787,35.643,33.737,45.982,28.383,7.452,5.892,5.728
1961,0.767,35.779,33.791,45.982,28.383,7.412,5.811,5.646
1962,0.754,35.166,33.691,45.934,28.366,7.208,5.728,5.564
1963,0.754,35.342,33.814,45.952,28.376,7.369,5.768,5.685
1964,0.764,35.498,33.679,45.981,28.376,7.289,5.85,5.605
1965,0.751,35.585,33.728,45.963,28.369,7.247,5.769,5.686
1966,0.738,35.299,33.823,45.953,28.376,7.288,5.768,5.687
1967,0.754,35.497,33.722,46.02,28.39,7.491,5.931,5.809
1968,0.757,35.643,33.733,45.982,28.383,7.331,5.77,5.728
1969,0.761,35.74,33.713,45.972,28.383,7.329,5.809,5.687
1970,0.751,35.223,33.803,45.972,28.383,7.289,5.769,5.687
1971,0.764,35.4,33.804,45.982,28.376,7.329,5.891,5.768
1972,0.754,35.556,33.726,45.943,28.366,7.126,5.689,5.565
1973,0.744,35.634,33.807,45.962,28.383,7.287,5.809,5.645
1974,0.747,35.213,33.691,45.953,28.373,7.288,5.85,5.727
1975,0.751,35.391,33.76,45.943,28.369,7.288,5.81,5.646
1976,0.751,35.556,33.803,45.953,28.38,7.247,5.81,5.645
1977,0.757,35.615,33.812,45.972,28.39,7.491,5.972,5.808
1978,0.757,35.155,33.788,45.972,28.373,7.29,5.811,5.688
1979,0.748,35.323,33.679,45.982,28.376,7.329,5.81,5.727
1980,0.754,35.488,33.799,45.963,28.38,7.37,5.891,5.768
1981,0.748,35.509,33.745,45.962,28.376,7.37,5.811,5.728
1982,0.738,35.269,33.776,45.953,28.373,7.208,5.769,5.605
1983,0.725,35.43,33.8,45.924,28.373,7.247,5.728,5.686
1984,0.744,35.585,33.745,45.943,28.383,7.288,5.768,5.687
1985,0.741,35.452,33.784,45.962,28.373,7.207,5.768,5.687
1986,0.738,35.23,33.741,45.924,28.369,7.165,5.728,5.646
1987,0.738,35.42,33.733,45.962,28.38,7.287,5.89,5.808
1988,0.754,35.585,33.811,45.972,28.38,7.247,5.851,5.647
1989,0.754,35.136,33.769,45.953,28.373,7.247,5.81,5.686
1990,0.748,35.16,33.823,45.953,28.383,7.206,5.81,5.727
1991,0.76,35.323,33.718,45.962,28.376,7.287,5.891,5.687
1992,0.754,35.478,33.787,45.962,28.383,7.166,5.729,5.646
1993,0.744,35.01,33.706,45.914,28.369,7.084,5.768,5.686
1994,0.757,35.12,33.729,45.943,28.376,7.123,5.809,5.646
1995,0.761,35.332,33.772,45.924,28.369,7.124,5.769,5.645
1996,0.761,35.411,33.737,45.914,28.369,7.083,5.728,5.645
1997,0.754,34.99,33.768,45.924,28.376,7.123,5.89,5.727
1998,0.767,35.178,33.651,45.981,28.383,7.165,5.811,5.687
1999,0.744,35.323,33.724,45.924,28.376,7.084,5.891,5.646
2000,0.754,35.43,33.799,45.924,28.38,7.164,5.851,5.686
2001,0.751,40.542,33.765,45.943,28.38,7.165,5.851,5.727
2002,0.754,40.728,33.764,45.943,28.376,7.124,5.81,5.646
2003,0.748,40.777,33.718,45.895,28.376,7.124,5.81,5.645
2004,0.747,40.864,33.783,45.914,28.376,7.205,5.81,5.645
2005,0.741,32.667,33.823,45.924,28.376,7.084,5.728,5.605
2006,0.744,32.814,33.781,45.914,28.376,7.002,5.687,5.645
2007,0.741,33.037,33.761,45.943,28.38,7.204,5.89,5.808
2008,0.77,33.192,33.71,45.953,28.373,7.206,5.811,5.688
2009,0.754,35.783,33.752,45.924,28.376,7.125,5.769,5.687
2010,0.757,35.991,33.753,45.933,28.38,7.246,5.728,5.646
2011,0.757,36.147,33.764,45.943,28.383,7.288,5.809,5.727
2012,0.761,36.186,33.78,45.933,28.376,7.207,5.728,5.565
2013,0.751,34.595,33.698,45.895,28.369,7.206,5.687,5.685
2014,0.754,34.761,33.83,45.904,28.369,7.247,5.727,5.727
2015,0.754,34.945,33.695,45.904,28.373,7.247,5.687,5.687
2016,0.754,34.947,33.779,45.904,28.373,7.125,5.687,5.605
2017,0.754,35.148,33.847,45.904,28.373,7.287,5.849,5.808
2018,0.748,35.352,33.738,45.933,28.394,7.369,5.769,5.688
2019,0.741,35.469,33.749,45.914,28.376,7.289,5.768,5.687
2020,0.747,35.106,33.721,45.914,28.373,7.247,5.768,5.727
2021,0.744,34.862,33.776,45.904,28.383,7.247,5.768,5.727
2022,0.751,35.052,33.839,45.914,28.376,7.328,5.728,5.646
2023,0.741,35.159,33.757,45.885,28.366,7.207,5.646,5.686
2024,0.731,34.93,33.78,45.914,28.376,7.247,5.686,5.768
2025,0.731,35.024,33.671,45.914,28.376,7.288,5.727,5.647
2026,0.728,35.168,33.814,45.895,28.373,7.207,5.768,5.645
2027,0.718,35.285,33.683,45.885,28.376,7.206,5.687,5.727
2028,0.731,34.778,33.627,45.952,28.387,7.369,5.849,5.809
2029,0.734,34.897,33.751,45.914,28.383,7.289,5.729,5.728
2030,0.751,35.052,33.78,45.904,28.376,7.247,5.687,5.768
2031,0.774,35.169,33.804,45.923,28.376,7.247,5.727,5.768
2032,0.787,34.911,33.726,45.914,28.38,7.166,5.687,5.768
2033,0.787,35.043,33.787,45.876,28.362,7.002,5.564,5.728
2034,0.793,35.207,33.769,45.885,28.376,7.123,5.645,5.727
2035,0.836,35.324,33.768,45.875,28.369,7.124,5.645,5.646
2036,0.859,34.884,33.811,45.885,28.376,7.002,5.686,5.645
2037,0.888,35.023,33.784,45.904,28.383,7.041,5.687,5.808
2038,0.938,35.235,33.808,45.923,28.39,7.164,5.768,5.81
2039,0.948,35.314,33.656,45.904,28.383,7.043,5.687,5.728
2040,0.974,34.893,33.752,45.885,28.38,7.001,5.687,5.768
2041,1.01,35.061,33.753,45.904,28.376,6.96,5.809,5.768
2042,1.04,35.236,33.796,45.895,28.38,6.96,5.769,5.728
2043,1.072,35.266,33.835,45.856,28.369,6.797,5.606,5.687
2044,1.128,34.969,33.703,45.904,28.376,6.877,5.686,5.727
2045,1.181,35.149,33.779,45.895,28.383,6.877,5.605,5.727
2046,1.217,35.294,33.718,45.866,28.369,6.837,5.604,5.687
2047,1.253,35.344,33.744,45.866,28.376,6.918,5.767,5.849
2048,1.296,34.836,33.721,45.961,28.387,7.0,5.809,5.851
2049,1.299,34.965,33.737,45.886,28.383,6.879,5.728,5.81
2050,1.312,35.139,33.819,45.875,28.373,6.877,5.646,5.891
2051,1.313,35.457,33.734,45.894,28.38,6.837,5.727,5.851
2052,1.319,34.952,33.795,45.943,28.38,6.877,5.687,5.81
2053,1.322,35.081,33.71,45.857,28.369,6.674,5.483,5.85
2054,1.345,35.207,33.787,45.865,28.373,6.835,5.684,5.851
2055,1.384,34.988,33.769,45.875,28.373,6.755,5.646,5.769
2056,1.424,34.919,33.69,45.837,28.369,6.714,5.564,5.809
2057,1.392,35.11,33.791,45.856,28.373,6.754,5.645,5.972
2058,1.352,35.256,33.722,45.913,28.394,6.957,5.808,6.015
2059,1.326,34.777,33.694,45.866,28.376,6.797,5.688,5.974
2060,1.303,34.849,33.752,45.894,28.376,6.755,5.646,6.015
2061,1.27,35.023,33.764,45.875,28.38,6.836,5.727,6.137
2062,1.228,35.14,33.776,45.894,28.383,6.755,5.727,6.138
2063,1.107,34.719,33.745,45.847,28.369,6.673,5.565,6.179
2064,0.966,34.858,33.721,45.875,28.376,6.794,5.645,6.301
2065,0.873,35.042,33.69,45.875,28.373,6.836,5.645,6.465
2066,0.765,35.13,33.768,45.856,28.373,6.796,5.605,6.548
2067,0.673,34.91,33.772,45.856,28.369,6.877,5.564,6.793
2068,0.591,35.119,33.686,45.904,28.387,7.121,5.807,7.039
2069,0.525,35.284,33.807,45.876,28.383,7.043,5.606,7.042
2070,0.453,35.353,33.753,45.846,28.383,7.082,5.645,7.204
2071,0.416,34.759,33.788,45.875,28.383,7.123,5.686,7.328
2072,0.373,34.974,33.706,45.914,28.376,7.287,5.687,7.451
2073,0.344,35.101,33.768,45.847,28.373,7.207,5.483,7.412
2074,0.304,35.16,33.819,45.846,28.373,7.287,5.644,7.615
2075,0.291,34.911,33.745,45.856,28.376,7.369,5.645,7.617
2076,0.281,35.081,33.795,45.827,28.369,7.289,5.605,7.698
2077,0.268,35.236,33.737,45.836,28.376,7.41,5.645,7.821
2078,0.265,35.324,33.752,45.884,28.387,7.533,5.727,7.944
2079,0.225,34.721,33.612,45.847,28.383,7.412,5.687,7.986
2080,0.193,34.887,33.767,45.856,28.38,7.411,5.687,8.027
2081,0.16,35.042,33.776,45.856,28.38,7.452,5.646,8.19
2082,0.146,35.101,33.776,45.865,28.383,7.452,5.727,8.192
2083,0.117,34.805,33.827,45.827,28.369,7.208,5.484,8.273
2084,0.12,35.003,33.613,45.856,28.376,7.409,5.684,8.477
2085,0.146,35.139,33.767,45.846,28.373,7.411,5.564,8.601
2086,0.169,35.083,33.737,45.846,28.373,7.371,5.523,8.724
2087,0.208,34.757,33.752,45.837,28.376,7.533,5.603,8.848
2088,0.254,34.983,33.714,45.904,28.383,7.697,5.767,9.255
2089,0.264,35.11,33.729,45.856,28.376,7.536,5.687,9.219
2090,0.278,34.834,33.803,45.837,28.38,7.616,5.727,9.381
2091,0.297,34.85,33.702,45.837,28.373,7.698,5.727,9.505
2092,0.327,35.042,33.779,45.865,28.376,7.78,5.768,9.628
2093,0.32,35.149,33.792,45.818,28.369,7.618,5.525,9.548
2094,0.317,34.767,33.73,45.836,28.376,7.739,5.725,9.75
2095,0.34,34.907,33.78,45.837,28.376,7.699,5.646,9.793
2096,0.356,35.052,33.737,45.827,28.373,7.699,5.605,9.753
2097,0.353,35.169,33.795,45.817,28.373,7.618,5.645,9.833
2098,0.373,34.623,33.737,45.865,28.39,7.942,5.727,10.119
2099,0.396,34.79,33.733,45.961,28.38,7.783,5.646,9.837
2100,0.406,34.936,33.788,45.847,28.376,7.781,5.727,9.875
2101,0.419,35.043,33.753,45.837,28.376,7.862,5.646,9.876
2102,0.445,34.689,33.803,45.865,28.38,7.782,5.686,9.876
2103,0.458,34.81,33.726,45.827,28.373,7.74,5.564,9.591
2104,0.481,34.984,33.639,45.865,28.38,7.903,5.645,9.71
2105,0.504,35.101,33.779,45.837,28.369,7.782,5.645,9.711
2106,0.514,34.718,33.737,45.808,28.369,7.862,5.645,9.548
2107,0.537,34.878,33.768,45.827,28.373,7.822,5.605,9.588
2108,0.566,35.1,33.694,45.875,28.39,7.985,5.767,9.751
2109,0.603,35.16,33.775,45.846,28.376,7.905,5.687,9.59
2110,0.619,45.929,33.788,45.846,28.38,7.945,5.727,9.629
2111,0.645,46.076,33.741,45.837,28.383,7.986,5.727,9.507
2112,0.662,46.134,33.752,45.856,28.383,8.027,5.687,9.506
2113,0.675,46.067,33.706,45.837,28.373,7.865,5.564,9.262
2114,0.685,29.851,33.846,45.827,28.376,7.904,5.604,9.3
2115,0.705,29.994,33.683,45.827,28.373,7.945,5.564,9.138
2116,0.711,30.256,33.752,45.827,28.376,7.823,5.645,9.055
2117,0.731,30.355,33.714,45.779,28.373,7.781,5.605,9.013
2118,0.741,36.531,33.791,45.846,28.383,7.944,5.767,9.257
2119,0.76,36.757,33.773,45.827,28.383,7.823,5.647,9.015
2120,0.761,36.854,33.659,45.846,28.383,7.822,5.645,8.932
2121,0.767,35.187,33.713,45.837,28.383,7.822,5.605,8.931
2122,0.78,33.818,33.674,45.827,28.383,7.822,5.645,8.85
2123,0.787,34.025,33.767,45.846,28.369,7.619,5.564,8.727
2124,0.784,34.123,33.714,45.817,28.373,7.698,5.645,8.644
2125,0.8,34.737,33.729,45.827,28.383,7.658,5.605,8.644
2126,0.807,34.916,33.784,45.827,28.369,7.658,5.523,8.562
2127,0.797,35.062,33.776,45.817,28.376,7.617,5.563,8.439
2128,0.807,35.169,33.761,45.836,28.38,7.739,5.726,8.641
2129,0.826,34.383,33.612,45.865,28.387,7.699,5.646,8.44
2130,0.826,34.462,33.736,45.837,28.38,7.658,5.645,8.316
2131,0.836,34.645,33.795,45.827,28.376,7.617,5.727,8.437
2132,0.826,34.762,33.784,45.836,28.383,7.576,5.646,8.357
2133,0.843,34.6,33.823,45.837,28.383,7.535,5.605,8.153
2134,0.826,34.752,33.714,45.865,28.369,7.534,5.604,8.15
2135,0.839,34.945,33.787,45.808,28.376,7.534,5.604,8.11
2136,0.833,35.024,33.737,45.807,28.376,7.534,5.604,8.028
2137,0.83,34.353,33.733,45.788,28.369,7.534,5.564,7.946
2138,0.82,34.538,33.784,45.817,28.376,7.616,5.645,8.026
2139,0.849,34.751,33.761,45.846,28.387,7.698,5.686,8.027
2140,0.84,34.811,33.827,45.817,28.376,7.618,5.646,7.946
2141,0.849,34.61,33.734,45.808,28.376,7.576,5.645,7.905
2142,0.84,34.79,33.752,45.827,28.387,7.616,5.686,7.782
2143,0.849,34.965,33.792,45.817,28.376,7.535,5.605,7.74
2144,0.846,35.005,33.769,45.788,28.369,7.453,5.564,7.659
2145,0.84,34.42,33.757,45.836,28.373,7.493,5.604,7.698
2146,0.846,34.625,33.698,45.817,28.383,7.534,5.564,7.618
2147,0.853,34.742,33.748,45.808,28.376,7.534,5.563,7.535
2148,0.849,34.811,33.768,45.807,28.376,7.575,5.645,7.657
2149,0.866,34.485,33.718,45.836,28.39,7.616,5.645,7.576
2150,0.862,34.635,33.709,45.808,28.373,7.454,5.605,7.535
2151,0.859,34.781,33.678,45.817,28.376,7.534,5.686,7.453
2152,0.866,34.926,33.795,45.817,28.383,7.494,5.605,7.452
2153,0.869,34.477,33.808,45.817,28.383,7.534,5.604,7.371
2154,0.863,34.655,33.675,45.798,28.369,7.372,5.482,7.289
