time,ecg,bvp,gsr,rsp,skt,emg_zygo,emg_coru,emg_trap
0,0.78,35.993,41.768,33.882,24.523,4.824,7.494,10.204
1,0.797,36.109,41.807,33.921,24.516,4.824,7.575,10.368
2,0.816,35.828,41.847,33.921,24.534,4.947,7.534,10.697
3,0.807,35.857,41.811,33.931,24.53,4.906,7.494,10.82
4,0.816,35.954,41.776,33.902,24.53,4.824,7.494,10.902
5,0.82,36.071,41.863,33.892,24.53,4.865,7.452,11.149
6,0.816,35.848,41.847,33.921,24.534,4.865,7.452,11.313
7,0.793,35.974,41.811,33.902,24.53,4.906,7.534,11.518
8,0.816,36.138,41.764,33.95,24.544,5.03,7.658,11.764
9,0.807,36.187,41.768,33.902,24.52,4.865,7.452,11.683
10,0.79,35.79,41.764,33.882,24.527,4.783,7.452,11.723
11,0.777,35.983,41.807,33.921,24.537,4.988,7.534,11.888
12,0.8,36.061,41.851,33.911,24.527,4.906,7.575,11.806
13,0.79,36.158,41.768,33.902,24.527,4.824,7.575,11.764
14,0.784,35.693,41.788,33.921,24.534,4.865,7.534,11.641
15,0.787,35.857,41.799,33.921,24.53,4.824,7.575,11.683
16,0.8,35.945,41.843,33.911,24.53,4.906,7.617,11.641
17,0.793,36.022,41.839,33.96,24.544,4.988,7.74,11.723
18,0.777,35.925,41.807,33.882,24.53,4.824,7.534,11.436
19,0.774,36.042,41.784,33.882,24.527,4.947,7.575,11.313
20,0.8,36.196,41.681,33.931,24.534,4.947,7.658,11.313
21,0.777,36.226,41.768,33.911,24.53,4.865,7.658,11.189
22,0.79,35.809,41.835,33.882,24.53,4.824,7.617,11.066
23,0.79,35.974,41.772,33.911,24.527,4.906,7.658,10.943
24,0.793,36.09,41.768,33.921,24.53,4.947,7.575,10.82
25,0.787,36.41,41.788,33.902,24.53,4.865,7.658,10.779
26,0.784,35.799,41.847,33.94,24.548,5.112,7.699,10.779
27,0.774,35.906,41.859,33.882,24.523,4.865,7.575,10.491
28,0.757,35.993,41.827,33.892,24.527,4.906,7.617,10.368
29,0.764,35.819,41.847,33.921,24.534,4.988,7.699,10.368
30,0.754,35.877,41.752,33.902,24.527,4.988,7.617,10.163
31,0.754,35.993,41.831,33.892,24.527,4.865,7.534,10.081
32,0.767,36.09,41.867,33.902,24.53,4.947,7.617,9.999
33,0.774,35.79,41.819,33.892,24.527,4.906,7.494,9.752
34,0.77,35.974,41.78,33.931,24.534,4.988,7.575,9.916
35,0.767,36.109,41.784,33.921,24.544,5.03,7.658,9.876
36,0.761,36.158,41.796,33.892,24.523,4.906,7.534,9.588
37,0.784,35.751,41.819,33.882,24.534,4.906,7.534,9.506
38,0.807,35.935,41.839,33.921,24.537,4.988,7.575,9.506
39,0.78,36.022,41.843,33.902,24.53,4.947,7.575,9.465
40,0.777,36.08,41.784,33.902,24.534,4.947,7.494,9.342
41,0.787,35.702,41.792,33.902,24.516,4.906,7.452,9.259
42,0.787,35.877,41.807,33.892,24.523,4.906,7.411,9.095
43,0.79,35.974,41.874,33.902,24.534,4.906,7.534,9.095
44,0.793,36.071,41.792,33.921,24.537,5.03,7.658,9.054
45,0.79,35.741,41.799,33.882,24.53,4.865,7.452,8.808
46,0.774,35.867,41.788,33.882,24.53,4.947,7.494,8.767
47,0.777,36.012,41.819,33.902,24.537,4.988,7.575,8.726
48,0.767,36.032,41.839,33.882,24.527,4.865,7.452,8.726
49,0.761,35.828,41.839,33.873,24.527,4.865,7.411,8.602
50,0.774,35.964,41.819,33.892,24.53,4.824,7.452,8.52
51,0.784,36.071,41.815,33.902,24.527,4.865,7.411,8.438
52,0.793,36.216,41.792,33.902,24.534,4.947,7.494,8.438
53,0.797,35.78,41.863,33.921,24.541,4.906,7.452,8.397
54,0.751,35.877,41.819,33.873,24.527,4.783,7.37,8.233
55,0.761,35.974,41.744,33.902,24.534,4.906,7.37,8.274
56,0.784,35.78,41.815,33.902,24.53,4.906,7.494,8.233
57,0.787,35.857,41.819,33.892,24.53,4.824,7.411,8.15
58,0.777,35.964,41.851,33.892,24.537,4.865,7.452,8.109
59,0.787,36.051,41.811,33.892,24.53,4.865,7.37,7.945
60,0.79,35.761,41.843,33.863,24.523,4.824,7.288,7.822
61,0.803,35.916,41.76,33.892,24.537,4.906,7.411,8.027
62,0.807,36.08,41.796,33.911,24.537,4.988,7.411,7.945
63,0.793,36.1,41.811,33.863,24.527,4.865,7.37,7.781
64,0.8,35.606,41.851,33.863,24.537,4.865,7.37,7.822
65,0.803,35.741,41.772,33.902,24.534,4.906,7.411,7.822
66,0.787,35.867,41.807,33.911,24.534,4.865,7.288,7.781
67,0.79,35.945,41.788,33.882,24.534,4.947,7.494,7.781
68,0.777,35.751,41.819,33.902,24.523,4.824,7.288,7.617
69,0.774,35.896,41.811,33.863,24.52,4.742,7.288,7.534
70,0.79,36.042,41.807,33.892,24.537,4.865,7.494,7.658
71,0.777,36.1,41.859,33.892,24.53,4.906,7.37,7.617
72,0.774,35.722,41.796,33.853,24.52,4.824,7.288,7.494
73,0.79,35.887,41.807,33.873,24.52,4.906,7.37,7.494
74,0.79,36.003,41.843,33.892,24.523,4.988,7.37,7.494
75,0.787,36.012,41.851,33.902,24.527,4.824,7.288,7.494
76,0.813,35.751,41.756,33.902,24.537,4.988,7.411,7.534
77,0.826,35.867,41.796,33.94,24.53,4.783,7.288,7.37
78,0.787,35.954,41.772,33.863,24.523,4.783,7.206,7.288
79,0.8,36.051,41.827,33.902,24.534,4.906,7.329,7.411
80,0.807,35.896,41.811,33.873,24.527,4.906,7.288,7.288
81,0.797,35.983,41.851,33.853,24.527,4.783,7.206,7.288
82,0.8,36.109,41.764,33.902,24.53,4.906,7.288,7.329
83,0.813,35.635,41.76,33.882,24.53,4.988,7.329,7.288
84,0.83,35.673,41.847,33.873,24.534,4.947,7.37,7.329
85,0.83,35.819,41.859,33.902,24.537,4.988,7.37,7.452
86,0.793,35.877,41.807,33.873,24.527,4.824,7.206,7.206
87,0.807,35.712,41.709,33.863,24.527,4.865,7.288,7.247
88,0.813,35.887,41.788,33.95,24.541,4.865,7.329,7.288
89,0.813,36.012,41.768,33.882,24.53,4.906,7.288,7.247
90,0.813,36.08,41.78,33.853,24.527,4.824,7.288,7.206
91,0.8,35.577,41.835,33.863,24.53,4.824,7.288,7.165
92,0.803,35.722,41.788,33.882,24.527,4.824,7.329,7.083
93,0.797,35.867,41.803,33.882,24.534,4.865,7.452,7.206
94,0.803,35.945,41.819,33.911,24.534,4.988,7.575,7.288
95,0.793,35.751,41.859,33.853,24.523,4.824,7.411,7.124
96,0.79,35.896,41.819,33.863,24.527,4.865,7.534,7.124
97,0.803,36.022,41.788,33.882,24.534,4.906,7.658,7.165
98,0.81,36.071,41.729,33.853,24.534,4.906,7.658,7.124
99,0.83,35.596,41.756,33.853,24.53,4.824,7.617,7.042
100,0.816,35.77,41.792,33.873,24.527,4.906,7.658,7.083
101,0.823,35.877,41.807,33.882,24.523,4.865,7.617,7.001
102,0.836,35.887,41.839,33.853,24.52,4.906,7.781,7.124
103,0.849,35.77,41.803,33.921,24.537,4.947,7.945,7.165
104,0.826,35.838,41.788,33.844,24.527,4.824,7.74,7.042
105,0.8,35.935,41.811,33.834,24.53,4.865,7.822,7.001
106,0.816,35.838,41.851,33.853,24.534,4.947,7.863,7.042
107,0.82,35.596,41.796,33.863,24.53,4.824,7.822,7.042
108,0.807,35.722,41.768,33.844,24.527,4.865,7.74,7.042
109,0.82,35.848,41.736,33.853,24.523,4.906,7.74,7.001
110,0.82,35.654,41.764,33.853,24.53,4.865,7.658,6.96
111,0.813,35.761,41.796,33.853,24.534,4.947,7.822,7.042
112,0.83,35.916,41.855,33.863,24.537,5.07,7.781,7.042
113,0.82,35.974,41.748,33.844,24.516,4.783,7.658,6.919
114,0.787,35.509,41.78,33.834,24.527,4.824,7.699,7.042
115,0.81,35.683,41.819,33.873,24.523,4.947,7.74,7.042
116,0.81,35.79,41.847,33.853,24.53,4.865,7.658,6.96
117,0.81,35.848,41.847,33.844,24.53,4.906,7.658,6.919
118,0.833,35.557,41.796,33.863,24.527,4.865,7.617,6.919
119,0.839,35.693,41.811,33.863,24.527,4.783,7.658,6.919
120,0.83,35.819,41.772,33.863,24.53,4.824,7.699,6.96
121,0.836,35.906,41.799,33.873,24.537,5.03,7.781,7.124
122,0.833,35.518,41.811,33.844,24.53,4.865,7.617,6.96
123,0.823,35.664,41.792,33.824,24.52,4.824,7.534,6.96
124,0.853,35.819,41.827,33.863,24.53,4.906,7.658,6.96
125,0.853,35.828,41.803,33.853,24.527,4.947,7.617,6.96
126,0.826,35.673,41.831,33.834,24.52,4.865,7.575,6.919
127,0.833,35.838,41.839,33.853,24.527,4.865,7.494,6.877
128,0.833,35.945,41.843,33.834,24.523,4.824,7.534,6.837
129,0.839,35.964,41.807,33.844,24.53,4.906,7.617,6.96
130,0.836,35.644,41.776,33.882,24.534,4.988,7.74,7.124
131,0.826,35.751,41.776,33.834,24.52,4.783,7.617,6.877
132,0.81,35.857,41.784,33.834,24.527,4.824,7.658,6.919
133,0.826,35.732,41.835,33.844,24.534,4.947,7.699,6.919
134,0.826,35.606,41.76,33.834,24.527,4.824,7.699,7.001
135,0.839,35.732,41.796,33.834,24.527,4.783,7.699,6.877
136,0.839,35.848,41.799,33.824,24.523,4.824,7.699,6.96
137,0.859,35.489,41.847,33.824,24.527,4.824,7.74,6.837
138,0.859,35.586,41.859,33.815,24.53,4.906,7.822,6.96
139,0.853,35.741,41.882,33.863,24.541,5.03,7.904,7.042
140,0.856,35.79,41.796,33.805,24.527,4.742,7.699,6.837
141,0.839,35.383,41.815,33.815,24.523,4.824,7.822,6.877
142,0.859,35.557,41.807,33.844,24.53,4.865,7.863,6.919
143,0.859,35.664,41.851,33.815,24.527,4.906,7.781,6.837
144,0.856,35.722,41.756,33.815,24.527,4.824,7.822,6.837
145,0.862,35.567,41.807,33.824,24.53,4.824,7.781,6.754
146,0.856,35.722,41.811,33.824,24.527,4.824,7.781,6.713
147,0.849,35.848,41.819,33.824,24.527,4.906,7.945,6.754
148,0.862,35.935,41.851,33.853,24.541,4.947,8.027,6.877
149,0.859,35.47,41.835,33.805,24.527,4.824,7.822,6.713
150,0.843,35.606,41.855,33.795,24.527,4.824,7.945,6.754
151,0.856,35.751,41.701,33.844,24.541,4.906,7.986,6.837
152,0.853,35.809,41.78,33.805,24.527,4.824,7.945,6.795
153,0.849,35.538,41.839,33.815,24.527,4.824,7.945,6.795
154,0.859,35.673,41.807,33.815,24.527,4.865,7.904,6.795
155,0.869,35.828,41.78,33.844,24.52,4.783,7.904,6.713
156,0.866,35.838,41.796,33.815,24.527,4.906,8.027,6.877
157,0.879,35.528,41.811,33.844,24.534,4.906,7.986,6.877
158,0.869,35.625,41.847,33.795,24.523,4.783,7.822,6.672
159,0.889,35.741,41.843,33.805,24.53,4.824,7.945,6.795
160,0.899,35.673,41.867,33.824,24.537,4.906,7.945,6.795
161,0.882,35.654,41.768,33.805,24.53,4.865,7.822,6.754
162,0.872,35.77,41.784,33.805,24.527,4.865,7.822,6.754
163,0.892,35.877,41.851,33.815,24.527,4.865,7.822,6.672
164,0.899,35.402,41.863,33.786,24.52,4.824,7.658,6.672
165,0.892,35.538,41.764,33.805,24.53,4.865,7.822,6.713
166,0.915,35.693,41.784,33.844,24.544,4.988,7.863,6.754
167,0.899,35.732,41.803,33.795,24.53,4.783,7.699,6.631
168,0.892,35.373,41.807,33.786,24.53,4.865,7.781,6.672
169,0.899,35.528,41.839,33.824,24.534,4.865,7.781,6.672
170,0.892,35.644,41.831,33.795,24.53,4.865,7.74,6.713
171,0.889,35.702,41.831,33.795,24.53,4.824,7.658,6.672
172,0.895,35.499,41.788,33.805,24.527,4.865,7.781,6.672
173,0.899,35.644,41.784,33.805,24.53,4.783,7.74,6.631
174,0.912,35.761,41.843,33.824,24.534,4.865,7.781,6.754
175,0.925,35.857,41.823,33.834,24.544,4.988,8.027,6.837
176,0.912,35.528,41.776,33.786,24.527,4.783,7.74,6.631
177,0.922,35.683,41.803,33.795,24.53,4.824,7.863,6.631
178,0.918,35.799,41.835,33.805,24.534,4.947,7.945,6.754
179,0.935,35.819,41.827,33.795,24.527,4.865,7.904,6.631
180,0.918,35.644,41.831,33.776,24.527,4.824,7.904,6.713
181,0.928,35.761,41.898,33.795,24.527,4.865,7.822,6.631
182,0.945,35.896,41.835,33.824,24.523,4.783,7.822,6.549
183,0.938,35.916,41.819,33.795,24.534,4.865,7.945,6.713
184,0.951,35.586,41.87,33.824,24.541,4.947,7.945,6.713
185,0.941,35.664,41.843,33.766,24.523,4.824,7.781,6.508
186,0.968,35.78,41.764,33.786,24.534,4.865,7.781,6.631
187,0.968,35.751,41.709,33.786,24.534,4.906,7.945,6.713
188,0.958,35.77,41.792,33.786,24.534,4.865,7.863,6.672
189,0.951,35.896,41.827,33.766,24.527,4.906,7.945,6.713
190,0.958,35.974,41.835,33.776,24.527,4.865,7.863,6.631
191,0.948,35.761,41.867,33.766,24.527,4.824,7.863,6.508
192,0.945,35.896,41.792,33.776,24.53,4.947,7.945,6.672
193,0.958,36.032,41.823,33.824,24.541,4.988,8.027,6.672
194,0.948,36.08,41.796,33.766,24.527,4.824,7.945,6.549
195,0.938,35.916,41.823,33.786,24.523,4.865,8.027,6.549
196,0.974,36.071,41.815,33.786,24.534,4.906,8.069,6.713
197,0.977,36.187,41.752,33.776,24.53,4.906,7.986,6.631
198,0.984,36.274,41.717,33.766,24.527,4.906,7.945,6.672
199,0.997,36.022,41.772,33.757,24.527,4.824,7.945,6.549
200,1.004,36.177,41.784,33.757,24.516,4.824,7.781,6.467
201,1.0,36.293,41.878,33.776,24.534,4.865,7.904,6.631
202,1.014,36.381,41.835,33.795,24.537,4.865,7.863,6.549
203,1.014,36.1,41.819,33.766,24.52,4.783,7.74,6.508
204,1.03,36.255,41.796,33.737,24.53,4.865,7.781,6.508
205,1.037,36.361,41.855,33.766,24.537,4.906,7.863,6.549
206,1.017,36.4,41.839,33.766,24.527,4.865,7.781,6.549
207,1.007,36.39,41.831,33.786,24.541,4.988,7.863,6.631
208,1.01,36.516,41.752,33.757,24.527,4.824,7.781,6.549
209,1.017,36.613,41.74,33.737,24.52,4.783,7.658,6.467
210,1.027,36.7,41.796,33.766,24.534,4.906,7.74,6.508
211,1.03,36.594,41.819,33.766,24.527,4.824,7.74,6.549
212,0.994,36.69,41.835,33.737,24.53,4.783,7.617,6.467
213,1.023,36.787,41.681,33.786,24.527,4.865,7.617,6.426
214,1.017,36.69,41.796,33.776,24.527,4.947,7.699,6.508
215,1.017,36.729,41.819,33.766,24.537,4.865,7.617,6.508
216,1.037,36.865,41.878,33.786,24.534,4.988,7.658,6.59
217,1.03,36.942,41.839,33.757,24.534,4.865,7.452,6.426
218,1.03,36.865,41.788,33.718,24.516,4.742,7.452,6.426
219,1.05,37.049,41.792,33.757,24.534,4.906,7.658,6.508
220,1.037,37.194,41.807,33.824,24.537,4.906,7.534,6.508
221,1.033,37.243,41.78,33.718,24.523,4.783,7.411,6.467
222,1.056,36.971,41.831,33.747,24.53,4.865,7.452,6.467
223,1.05,37.117,41.784,33.766,24.534,4.947,7.575,6.549
224,1.066,37.252,41.78,33.737,24.53,4.906,7.534,6.508
225,1.053,37.31,41.807,33.757,24.537,4.988,7.617,6.631
226,1.046,37.368,41.847,33.718,24.52,4.865,7.411,6.508
227,1.04,37.475,41.87,33.708,24.516,4.701,7.329,6.385
228,1.04,37.601,41.843,33.728,24.527,4.947,7.452,6.549
229,1.053,37.678,41.819,33.737,24.53,4.947,7.494,6.59
230,1.037,37.184,41.748,33.728,24.527,4.783,7.329,6.467
231,1.037,37.339,41.796,33.728,24.534,4.865,7.329,6.508
232,1.05,37.485,41.839,33.747,24.534,4.906,7.37,6.508
233,1.053,37.485,41.843,33.728,24.537,4.906,7.329,6.508
234,1.046,37.407,41.799,33.747,24.537,4.988,7.452,6.631
235,1.05,37.504,41.78,33.718,24.527,4.783,7.288,6.467
236,1.043,37.591,41.815,33.708,24.52,4.742,7.124,6.385
237,1.06,37.988,41.859,33.728,24.537,4.906,7.37,6.549
238,1.069,37.533,41.847,33.718,24.527,4.865,7.165,6.426
239,1.056,37.64,41.827,33.698,24.523,4.865,7.124,6.385
240,1.043,37.737,41.764,33.718,24.534,4.865,7.247,6.385
241,1.053,37.533,41.776,33.737,24.541,4.906,7.247,6.467
242,1.04,37.543,41.799,33.728,24.534,4.865,7.288,6.467
243,1.043,37.669,41.863,33.728,24.537,4.947,7.329,6.631
244,1.05,37.746,41.736,33.708,24.523,4.906,7.206,6.385
245,1.037,37.591,41.78,33.679,24.52,4.824,7.042,6.385
246,1.03,37.737,41.819,33.708,24.534,4.988,7.206,6.467
247,1.027,37.872,41.874,33.689,24.527,4.865,7.288,6.385
248,1.0,37.921,41.874,33.679,24.53,4.824,7.124,6.467
249,1.023,37.649,41.874,33.708,24.534,4.865,7.206,6.385
250,1.004,37.795,41.855,33.718,24.541,4.947,7.247,6.426
251,0.997,37.911,41.803,33.718,24.53,4.906,7.329,6.467
252,0.994,37.988,41.827,33.737,24.548,5.07,7.452,6.59
253,0.991,37.756,41.839,33.679,24.527,4.824,7.329,6.343
254,0.994,37.872,41.811,33.689,24.527,4.865,7.411,6.467
255,0.991,38.037,41.807,33.718,24.534,4.906,7.452,6.467
256,0.997,38.056,41.811,33.698,24.53,4.947,7.411,6.549
257,0.991,38.54,41.847,33.669,24.53,4.865,7.411,6.467
258,0.981,38.686,41.859,33.679,24.53,4.865,7.411,6.467
259,0.981,38.792,41.898,33.679,24.53,4.824,7.452,6.343
260,0.964,38.802,41.89,33.698,24.541,4.906,7.617,6.467
261,0.961,37.514,41.768,33.737,24.541,5.03,7.699,6.549
262,0.935,37.601,41.768,33.669,24.523,4.865,7.575,6.385
263,0.938,37.698,41.827,33.669,24.527,4.906,7.699,6.426
264,0.945,38.076,41.796,33.679,24.534,4.906,7.781,6.508
265,0.925,38.017,41.76,33.669,24.527,4.906,7.822,6.385
266,0.922,38.134,41.776,33.65,24.523,4.906,7.822,6.343
267,0.915,38.231,41.803,33.679,24.527,4.906,7.904,6.385
268,0.908,37.756,41.831,33.66,24.53,4.783,7.863,6.385
269,0.895,37.775,41.87,33.679,24.537,4.906,7.945,6.467
270,0.889,37.95,41.898,33.698,24.541,5.03,8.109,6.508
271,0.882,37.969,41.855,33.64,24.523,4.783,7.945,6.343
272,0.879,37.795,41.819,33.65,24.53,4.988,8.069,6.385
273,0.872,37.921,41.811,33.669,24.541,4.865,8.15,6.508
274,0.866,38.027,41.882,33.65,24.53,4.906,8.027,6.508
275,0.866,38.085,41.823,33.65,24.53,4.865,8.069,6.467
276,0.862,37.659,41.713,33.64,24.527,4.824,8.069,6.467
277,0.862,37.824,41.78,33.65,24.527,4.783,8.069,6.426
278,0.856,37.921,41.799,33.64,24.527,4.865,8.069,6.467
279,0.862,38.017,41.851,33.669,24.544,4.988,8.233,6.631
280,0.853,37.853,41.835,33.631,24.527,4.824,8.027,6.385
281,0.853,37.979,41.882,33.631,24.527,4.947,8.069,6.59
282,0.859,38.134,41.796,33.689,24.534,4.947,7.986,6.549
283,0.843,38.182,41.807,33.631,24.53,4.865,7.986,6.467
284,0.836,37.63,41.835,33.631,24.534,4.865,8.109,6.549
285,0.833,37.775,41.87,33.631,24.534,4.865,7.945,6.426
286,0.83,37.882,41.788,33.602,24.52,4.742,7.863,6.426
287,0.843,37.921,41.717,33.631,24.534,4.865,7.986,6.549
288,0.836,37.756,41.811,33.65,24.541,4.906,7.945,6.508
289,0.823,37.824,41.78,33.611,24.52,4.742,7.863,6.508
290,0.816,37.95,41.796,33.611,24.527,4.824,7.822,6.467
291,0.82,37.95,41.851,33.631,24.534,4.906,7.863,6.59
292,0.797,37.591,41.803,33.611,24.537,4.947,7.822,6.549
293,0.793,37.737,41.819,33.611,24.534,4.906,7.822,6.549
294,0.803,37.824,41.815,33.611,24.53,4.865,7.699,6.467
295,0.8,37.514,41.847,33.602,24.513,4.701,7.617,6.385
296,0.787,37.582,41.847,33.611,24.527,4.865,7.699,6.508
297,0.803,37.717,41.792,33.631,24.537,4.906,7.74,6.549
298,0.8,37.785,41.752,33.592,24.516,4.742,7.617,6.385
299,0.79,37.465,41.74,33.621,24.523,4.906,7.658,6.426
300,0.78,37.63,41.811,33.611,24.53,4.865,7.74,6.508
301,0.797,37.707,41.799,33.602,24.523,4.947,7.658,6.467
302,0.793,37.766,41.827,33.592,24.516,4.865,7.617,6.467
303,0.793,37.339,41.819,33.669,24.516,4.865,7.617,6.467
304,0.774,37.485,41.78,33.563,24.516,4.742,7.534,6.343
305,0.78,37.601,41.847,33.573,24.53,4.947,7.617,6.426
306,0.797,37.707,41.859,33.611,24.537,4.988,7.74,6.467
307,0.767,37.378,41.827,33.573,24.523,4.824,7.452,6.343
308,0.764,37.523,41.772,33.573,24.527,4.783,7.534,6.426
309,0.793,37.649,41.764,33.592,24.53,4.906,7.617,6.467
310,0.777,37.688,41.799,33.592,24.53,4.906,7.617,6.426
311,0.77,37.33,41.807,33.553,24.527,4.865,7.575,6.385
312,0.764,37.475,41.867,33.563,24.523,4.824,7.575,6.426
313,0.764,37.572,41.788,33.563,24.534,4.824,7.452,6.385
314,0.757,37.62,41.827,33.582,24.53,4.988,7.575,6.467
315,0.774,37.301,41.827,33.602,24.541,5.03,7.699,6.549
316,0.77,37.407,41.847,33.553,24.527,4.865,7.534,6.343
317,0.754,37.494,41.827,33.544,24.527,4.865,7.575,6.426
318,0.774,37.523,41.831,33.573,24.537,4.906,7.699,6.426
319,0.774,37.359,41.827,33.563,24.53,4.865,7.617,6.385
320,0.767,37.465,41.74,33.544,24.53,4.824,7.617,6.385
321,0.78,37.601,41.788,33.553,24.527,4.865,7.617,6.426
322,0.77,37.175,41.827,33.563,24.534,4.906,7.617,6.385
323,0.754,37.252,41.843,33.553,24.534,4.906,7.699,6.467
324,0.767,37.398,41.756,33.582,24.537,5.03,7.699,6.508
325,0.764,37.446,41.799,33.524,24.527,4.783,7.617,6.302
326,0.757,37.039,41.807,33.515,24.523,4.824,7.575,6.343
327,0.774,37.223,41.867,33.544,24.53,4.906,7.74,6.467
328,0.774,37.33,41.847,33.553,24.53,4.906,7.658,6.508
329,0.761,37.388,41.863,33.524,24.527,4.824,7.575,6.385
330,0.761,37.078,41.803,33.534,24.527,4.947,7.575,6.385
331,0.767,37.223,41.815,33.553,24.534,4.906,7.617,6.426
332,0.754,37.368,41.815,33.534,24.53,4.947,7.658,6.467
333,0.751,37.417,41.851,33.553,24.544,5.07,7.74,6.549
334,0.734,37.107,41.803,33.534,24.527,4.824,7.617,6.343
335,0.734,37.252,41.799,33.515,24.52,4.824,7.494,6.343
336,0.754,37.388,41.815,33.534,24.534,4.865,7.699,6.426
337,0.767,37.436,41.823,33.534,24.534,4.988,7.658,6.426
338,0.761,37.088,41.839,33.515,24.52,4.783,7.534,6.343
339,0.754,37.252,41.874,33.524,24.53,4.906,7.534,6.385
340,0.777,37.339,41.874,33.544,24.534,4.988,7.617,6.426
341,0.784,37.388,41.76,33.534,24.537,4.824,7.534,6.467
342,0.77,37.088,41.831,33.544,24.537,4.906,7.699,6.467
343,0.761,37.204,41.843,33.505,24.527,4.906,7.534,6.343
344,0.754,37.301,41.819,33.495,24.523,4.783,7.37,6.302
345,0.764,37.262,41.784,33.534,24.537,4.947,7.534,6.467
346,0.767,37.175,41.803,33.524,24.534,4.906,7.575,6.467
347,0.761,37.272,41.811,33.495,24.52,4.906,7.452,6.343
348,0.767,37.349,41.831,33.495,24.523,4.906,7.534,6.385
349,0.761,36.942,41.878,33.505,24.537,5.03,7.575,6.467
350,0.761,37.02,41.867,33.505,24.527,4.947,7.534,6.467
351,0.754,37.117,41.835,33.505,24.534,4.947,7.494,6.467
352,0.757,37.214,41.827,33.495,24.53,4.906,7.411,6.343
353,0.751,36.942,41.803,33.457,24.527,4.824,7.288,6.302
354,0.757,37.078,41.863,33.486,24.534,4.988,7.494,6.385
355,0.744,37.204,41.784,33.495,24.53,4.906,7.411,6.385
356,0.747,37.272,41.811,33.534,24.52,4.906,7.37,6.343
357,0.757,36.991,41.799,33.476,24.527,4.906,7.37,6.343
358,0.767,37.136,41.835,33.476,24.534,4.947,7.411,6.385
359,0.774,37.252,41.863,33.476,24.527,4.947,7.452,6.508
360,0.767,37.301,41.859,33.515,24.534,4.988,7.534,6.508
361,0.767,36.923,41.855,33.466,24.53,4.906,7.411,6.385
362,0.754,37.039,41.823,33.457,24.52,4.824,7.247,6.302
363,0.754,37.175,41.815,33.476,24.534,5.03,7.452,6.467
364,0.78,37.223,41.843,33.476,24.527,4.988,7.411,6.385
365,0.761,36.923,41.823,33.427,24.52,4.906,7.452,6.343
366,0.764,37.059,41.76,33.447,24.527,4.906,7.452,6.343
367,0.744,37.194,41.788,33.466,24.537,4.988,7.494,6.426
368,0.744,37.204,41.799,33.457,24.53,4.906,7.494,6.426
369,0.724,37.0,41.827,33.447,24.53,4.988,7.494,6.549
370,0.738,37.117,41.831,33.418,24.52,4.906,7.411,6.508
371,0.734,37.233,41.851,33.418,24.516,4.865,7.411,6.302
372,0.738,37.126,41.764,33.466,24.527,4.947,7.534,6.549
373,0.757,37.117,41.815,33.466,24.541,5.03,7.575,6.549
374,0.761,37.204,41.827,33.427,24.516,4.865,7.452,6.467
375,0.764,37.291,41.827,33.427,24.527,4.988,7.452,6.508
376,0.754,36.913,41.827,33.437,24.527,4.947,7.575,6.631
377,0.761,37.029,41.732,33.427,24.527,4.865,7.534,6.467
378,0.784,37.136,41.827,33.466,24.537,4.947,7.534,6.549
379,0.78,37.243,41.788,33.408,24.534,4.906,7.452,6.508
380,0.774,36.942,41.796,33.389,24.527,4.783,7.411,6.426
381,0.774,37.078,41.859,33.418,24.534,5.03,7.617,6.59
382,0.787,37.233,41.815,33.427,24.534,4.988,7.74,6.59
383,0.774,37.272,41.803,33.398,24.527,4.824,7.617,6.467
384,0.793,36.884,41.811,33.389,24.53,4.947,7.617,6.59
385,0.767,37.039,41.835,33.398,24.537,4.988,7.781,6.549
386,0.757,37.146,41.835,33.408,24.527,4.947,7.74,6.508
387,0.751,37.194,41.756,33.398,24.53,4.906,7.822,6.631
388,0.757,37.029,41.729,33.389,24.53,4.865,7.74,6.467
389,0.754,37.204,41.772,33.379,24.52,4.824,7.699,6.549
390,0.754,37.31,41.803,33.389,24.537,4.906,7.945,6.549
391,0.757,37.368,41.835,33.408,24.541,5.03,7.904,6.631
392,0.751,36.836,41.843,33.369,24.523,4.906,7.822,6.508
393,0.751,37.02,41.807,33.36,24.534,4.865,7.822,6.549
394,0.754,37.136,41.815,33.369,24.534,4.988,7.863,6.549
395,0.744,37.136,41.867,33.379,24.53,4.947,7.822,6.59
396,0.757,37.029,41.878,33.369,24.53,4.988,7.904,6.672
397,0.77,37.146,41.847,33.36,24.527,4.824,7.74,6.549
398,0.77,37.243,41.78,33.35,24.52,4.865,7.658,6.508
399,0.774,37.126,41.772,33.379,24.527,4.947,7.781,6.59
400,0.78,37.194,41.772,33.36,24.537,4.947,7.781,6.59
401,0.774,37.252,41.796,33.331,24.52,4.865,7.617,6.508
402,0.77,37.349,41.843,33.34,24.523,4.947,7.658,6.549
403,0.78,36.942,41.815,33.369,24.537,4.988,7.781,6.672
404,0.77,37.049,41.803,33.35,24.534,4.988,7.699,6.631
405,0.784,37.184,41.819,33.331,24.541,4.947,7.699,6.672
406,0.777,37.233,41.87,33.331,24.523,4.906,7.575,6.631
407,0.757,37.02,41.851,33.302,24.52,4.824,7.452,6.467
408,0.747,37.214,41.867,33.321,24.534,5.03,7.658,6.59
409,0.78,37.33,41.819,33.34,24.534,4.988,7.617,6.59
410,0.754,37.349,41.772,33.292,24.52,4.865,7.534,6.467
411,0.757,36.865,41.756,33.311,24.53,4.824,7.658,6.59
412,0.764,37.0,41.807,33.321,24.534,4.988,7.617,6.549
413,0.754,37.117,41.835,33.321,24.534,4.947,7.575,6.508
414,0.751,37.165,41.764,33.321,24.53,4.947,7.575,6.631
415,0.764,36.962,41.811,33.302,24.534,4.947,7.494,6.631
416,0.764,37.097,41.807,33.302,24.53,4.824,7.411,6.467
417,0.761,37.223,41.874,33.302,24.534,4.988,7.575,6.631
418,0.78,37.272,41.89,33.321,24.534,5.03,7.534,6.631
419,0.777,36.913,41.843,33.282,24.52,4.906,7.452,6.549
420,0.774,37.088,41.827,33.292,24.53,4.906,7.494,6.508
421,0.787,37.214,41.831,33.311,24.534,5.03,7.575,6.631
422,0.787,37.233,41.807,33.282,24.523,4.947,7.575,6.631
423,0.787,37.02,41.863,33.292,24.527,4.988,7.575,6.631
424,0.78,37.175,41.784,33.282,24.53,4.947,7.494,6.508
425,0.761,37.252,41.796,33.253,24.523,4.824,7.411,6.385
426,0.78,36.952,41.796,33.302,24.541,5.03,7.617,6.59
427,0.777,36.942,41.831,33.292,24.534,4.906,7.617,6.59
428,0.761,37.039,41.855,33.244,24.527,4.865,7.534,6.467
429,0.761,37.126,41.89,33.273,24.534,4.988,7.617,6.59
430,0.767,36.845,41.863,33.282,24.527,5.03,7.658,6.631
431,0.761,36.952,41.772,33.282,24.527,4.988,7.699,6.631
432,0.751,37.097,41.803,33.263,24.534,4.906,7.699,6.631
433,0.764,37.155,41.835,33.224,24.527,4.906,7.617,6.508
434,0.761,36.836,41.796,33.215,24.523,4.783,7.494,6.426
435,0.751,37.0,41.772,33.244,24.53,4.947,7.658,6.549
436,0.764,37.155,41.811,33.273,24.53,4.988,7.617,6.549
437,0.761,37.175,41.811,33.234,24.527,4.824,7.617,6.508
438,0.774,36.826,41.827,33.244,24.53,4.947,7.575,6.549
439,0.774,36.971,41.855,33.244,24.527,4.947,7.658,6.59
440,0.767,37.068,41.874,33.224,24.523,4.947,7.534,6.549
441,0.767,37.117,41.792,33.253,24.534,5.03,7.658,6.631
442,0.767,36.739,41.835,33.244,24.52,4.824,7.575,6.467
443,0.774,36.845,41.811,33.234,24.513,4.906,7.452,6.385
444,0.78,36.971,41.878,33.224,24.53,4.906,7.699,6.549
445,0.79,37.029,41.756,33.215,24.527,4.988,7.575,6.467
446,0.774,36.816,41.799,33.205,24.52,4.906,7.452,6.549
447,0.751,36.962,41.796,33.224,24.534,4.906,7.575,6.467
448,0.751,37.088,41.827,33.224,24.53,4.988,7.534,6.508
449,0.751,37.417,41.859,33.205,24.523,4.865,7.617,6.549
450,0.764,36.749,41.882,33.215,24.53,5.03,7.781,6.59
451,0.747,36.865,41.823,33.176,24.527,4.906,7.658,6.467
452,0.757,36.962,41.803,33.185,24.516,4.906,7.534,6.508
453,0.774,36.671,41.835,33.205,24.527,4.947,7.658,6.508
454,0.757,36.671,41.863,33.185,24.527,4.947,7.658,6.549
455,0.774,36.807,41.827,33.185,24.52,4.906,7.494,6.508
456,0.754,36.904,41.756,33.205,24.52,4.947,7.575,6.508
457,0.777,36.72,41.811,33.185,24.523,4.906,7.617,6.426
458,0.764,36.836,41.815,33.185,24.527,4.906,7.617,6.549
459,0.784,37.0,41.839,33.215,24.541,5.112,7.74,6.672
460,0.777,37.039,41.827,33.166,24.527,4.906,7.575,6.508
461,0.774,36.526,41.87,33.166,24.53,4.906,7.575,6.549
462,0.787,36.729,41.815,33.195,24.52,4.988,7.658,6.672
463,0.777,36.836,41.815,33.185,24.527,4.906,7.658,6.59
464,0.761,36.874,41.843,33.156,24.523,4.906,7.658,6.549
465,0.764,36.71,41.827,33.147,24.527,4.865,7.617,6.549
466,0.764,36.865,41.772,33.156,24.523,4.865,7.575,6.426
467,0.751,36.991,41.799,33.215,24.523,4.947,7.658,6.713
468,0.774,37.068,41.803,33.185,24.537,4.988,7.74,6.631
469,0.744,36.603,41.803,33.137,24.52,4.865,7.494,6.549
470,0.731,36.787,41.835,33.147,24.52,4.865,7.617,6.508
471,0.761,36.865,41.894,33.147,24.527,4.906,7.699,6.508
472,0.754,36.923,41.807,33.137,24.527,4.824,7.617,6.508
473,0.761,36.72,41.815,33.137,24.53,4.906,7.74,6.508
474,0.767,36.865,41.863,33.147,24.53,4.906,7.658,6.508
475,0.77,36.981,41.867,33.137,24.53,4.824,7.658,6.508
476,0.754,37.184,41.807,33.147,24.523,4.906,7.699,6.59
477,0.767,36.807,41.721,33.176,24.541,5.03,7.822,6.59
478,0.764,36.884,41.772,33.166,24.527,4.824,7.617,6.426
479,0.764,36.962,41.764,33.118,24.53,4.865,7.658,6.426
480,0.767,36.671,41.811,33.147,24.53,4.947,7.74,6.549
481,0.77,36.69,41.819,33.127,24.53,4.865,7.658,6.549
482,0.761,36.797,41.807,33.108,24.527,4.865,7.617,6.549
483,0.764,36.894,41.819,33.127,24.53,4.824,7.617,6.59
484,0.761,36.594,41.819,33.098,24.527,4.824,7.575,6.426
485,0.774,36.749,41.878,33.118,24.527,4.906,7.658,6.508
486,0.761,36.884,41.859,33.156,24.537,5.03,7.781,6.549
487,0.754,36.942,41.796,33.079,24.527,4.824,7.575,6.467
488,0.761,36.642,41.74,33.108,24.534,4.865,7.699,6.549
489,0.751,36.797,41.784,33.166,24.534,4.906,7.74,6.549
490,0.747,36.894,41.788,33.098,24.534,4.906,7.617,6.508
491,0.751,36.952,41.831,33.098,24.534,4.906,7.699,6.549
492,0.741,36.652,41.823,33.089,24.527,4.824,7.617,6.467
493,0.747,36.787,41.823,33.069,24.527,4.701,7.494,6.343
494,0.744,36.913,41.803,33.089,24.53,4.865,7.658,6.467
495,0.754,36.981,41.863,33.098,24.537,4.906,7.617,6.426
496,0.747,36.671,41.874,33.079,24.527,4.783,7.534,6.385
497,0.757,36.836,41.831,33.089,24.53,4.865,7.617,6.385
498,0.767,36.933,41.788,33.108,24.53,4.906,7.617,6.426
499,0.767,36.962,41.744,33.098,24.534,4.824,7.617,6.385
500,0.767,36.7,41.803,33.098,24.541,4.988,7.699,6.467
501,0.77,36.826,41.803,33.069,24.527,4.906,7.494,6.302
502,0.754,36.894,41.839,33.021,24.52,4.742,7.411,6.302
503,0.757,37.059,41.768,33.098,24.534,4.865,7.575,6.385
504,0.754,36.894,41.811,33.079,24.53,4.906,7.534,6.385
505,0.767,36.991,41.815,33.031,24.527,4.783,7.411,6.22
506,0.757,37.107,41.843,33.06,24.523,4.906,7.494,6.302
507,0.757,36.71,41.855,33.079,24.53,4.865,7.494,6.385
508,0.744,36.739,41.819,33.06,24.537,4.824,7.494,6.343
509,0.754,36.894,41.827,33.069,24.541,4.988,7.575,6.508
510,0.741,36.971,41.717,33.069,24.527,4.783,7.37,6.302
511,0.728,36.594,41.811,33.021,24.52,4.783,7.288,6.22
512,0.731,36.768,41.851,33.05,24.534,4.906,7.452,6.385
513,0.734,36.865,41.827,33.05,24.527,4.906,7.452,6.343
514,0.734,36.952,41.807,33.021,24.527,4.824,7.37,6.302
515,0.738,36.69,41.819,33.05,24.527,4.824,7.37,6.343
516,0.751,36.845,41.855,33.06,24.53,4.865,7.452,6.385
517,0.751,36.952,41.859,33.031,24.534,4.906,7.411,6.385
518,0.77,37.039,41.851,33.06,24.534,4.906,7.534,6.508
519,0.751,36.758,41.827,33.021,24.527,4.824,7.37,6.343
520,0.744,36.874,41.764,33.002,24.52,4.783,7.329,6.302
521,0.764,37.039,41.796,33.05,24.534,4.906,7.452,6.426
522,0.767,37.088,41.811,33.021,24.527,4.865,7.452,6.385
523,0.744,36.739,41.839,33.002,24.52,4.742,7.411,6.343
524,0.751,36.884,41.752,33.031,24.53,4.783,7.411,6.343
525,0.757,37.039,41.78,33.021,24.53,4.865,7.452,6.343
526,0.754,37.049,41.819,33.011,24.534,4.824,7.37,6.302
527,0.751,36.826,41.882,33.04,24.534,4.988,7.452,6.467
528,0.724,36.942,41.867,32.992,24.527,4.824,7.37,6.302
529,0.721,37.01,41.87,32.973,24.516,4.783,7.288,6.262
530,0.738,36.981,41.811,33.011,24.534,4.865,7.411,6.385
531,0.738,36.787,41.819,33.011,24.534,4.906,7.206,6.385
532,0.731,36.904,41.784,32.982,24.523,4.824,7.206,6.262
533,0.738,37.01,41.831,32.992,24.534,4.824,7.288,6.343
534,0.754,36.739,41.788,33.011,24.53,4.865,7.288,6.467
535,0.747,36.836,41.799,32.992,24.534,4.988,7.288,6.426
536,0.757,36.971,41.819,33.021,24.537,4.947,7.411,6.508
537,0.738,37.049,41.827,32.973,24.52,4.865,7.206,6.302
538,0.741,36.787,41.851,32.953,24.523,4.783,7.124,6.343
539,0.754,36.952,41.89,32.982,24.534,4.906,7.247,6.426
540,0.767,37.068,41.898,32.982,24.534,4.824,7.165,6.426
541,0.747,37.117,41.788,32.963,24.52,4.824,7.165,6.343
542,0.761,36.787,41.796,32.973,24.53,4.906,7.206,6.426
543,0.761,36.952,41.831,32.982,24.534,4.906,7.329,6.426
544,0.754,37.039,41.811,32.982,24.53,4.865,7.247,6.467
545,0.761,37.117,41.823,33.031,24.537,4.947,7.329,6.467
546,0.754,36.807,41.796,32.953,24.523,4.824,7.165,6.302
547,0.744,36.913,41.792,32.934,24.52,4.783,7.165,6.262
548,0.757,37.068,41.851,32.963,24.53,4.824,7.288,6.467
549,0.757,37.117,41.863,32.973,24.527,4.947,7.329,6.508
550,0.741,36.816,41.807,32.943,24.523,4.824,7.247,6.343
551,0.747,36.981,41.78,32.943,24.53,4.824,7.329,6.426
552,0.724,37.097,41.796,32.973,24.534,4.824,7.37,6.467
553,0.747,37.126,41.855,32.953,24.534,4.865,7.452,6.508
554,0.747,36.923,41.843,32.982,24.541,4.988,7.534,6.59
555,0.741,37.0,41.748,32.934,24.53,4.824,7.411,6.467
556,0.744,37.117,41.768,32.914,24.523,4.783,7.494,6.426
557,0.757,36.971,41.811,32.953,24.541,4.906,7.494,6.508
558,0.751,36.807,41.827,32.934,24.527,4.824,7.575,6.467
559,0.761,36.933,41.855,32.924,24.53,4.824,7.452,6.385
560,0.761,37.039,41.878,32.914,24.527,4.783,7.494,6.385
561,0.764,36.797,41.811,32.934,24.527,4.742,7.411,6.302
562,0.757,36.923,41.819,32.943,24.53,4.865,7.534,6.467
563,0.77,37.088,41.839,32.963,24.544,4.947,7.617,6.549
564,0.754,37.107,41.874,32.905,24.527,4.783,7.411,6.343
565,0.734,36.671,41.752,32.914,24.527,4.865,7.411,6.343
566,0.744,36.855,41.815,32.914,24.534,4.906,7.534,6.426
567,0.734,36.942,41.807,32.895,24.527,4.824,7.452,6.385
568,0.728,37.0,41.811,32.895,24.527,4.824,7.452,6.385
569,0.734,36.671,41.823,32.905,24.534,4.824,7.452,6.426
570,0.754,36.826,41.859,32.914,24.523,4.824,7.494,6.302
571,0.741,36.942,41.847,32.905,24.534,4.906,7.534,6.467
572,0.744,37.039,41.792,32.943,24.541,4.947,7.699,6.467
573,0.731,36.768,41.811,32.885,24.53,4.824,7.534,6.385
574,0.734,36.894,41.835,32.885,24.534,4.824,7.617,6.385
575,0.738,37.029,41.835,32.914,24.537,4.906,7.699,6.467
576,0.751,37.068,41.705,32.914,24.53,4.865,7.658,6.343
577,0.741,36.739,41.815,32.866,24.523,4.783,7.617,6.385
578,0.747,36.865,41.823,32.905,24.527,4.824,7.617,6.302
579,0.747,36.981,41.827,32.885,24.527,4.824,7.617,6.302
580,0.761,37.01,41.847,32.876,24.53,4.783,7.699,6.343
581,0.774,36.729,41.867,32.905,24.541,4.988,7.74,6.508
582,0.761,36.826,41.815,32.866,24.52,4.824,7.617,6.302
583,0.754,36.942,41.811,32.866,24.53,4.824,7.658,6.343
584,0.757,36.787,41.855,32.885,24.534,4.906,7.74,6.385
585,0.757,36.681,41.855,32.885,24.527,4.783,7.658,6.302
586,0.741,36.826,41.807,32.866,24.534,4.865,7.699,6.302
587,0.738,36.923,41.843,32.924,24.527,4.865,7.658,6.302
588,0.744,36.545,41.803,32.847,24.527,4.783,7.617,6.138
589,0.734,36.681,41.792,32.866,24.534,4.906,7.658,6.385
590,0.764,36.797,41.796,32.876,24.537,4.947,7.699,6.343
591,0.728,36.855,41.851,32.837,24.523,4.824,7.452,6.179
592,0.744,36.632,41.748,32.856,24.527,4.865,7.617,6.22
593,0.764,36.778,41.807,32.856,24.541,4.906,7.658,6.385
594,0.764,36.904,41.827,32.827,24.53,4.865,7.575,6.262
595,0.757,36.971,41.863,32.856,24.527,4.906,7.658,6.343
596,0.761,36.574,41.796,32.827,24.527,4.865,7.534,6.179
597,0.774,36.729,41.764,32.837,24.523,4.742,7.534,6.138
598,0.774,36.855,41.831,32.905,24.53,4.947,7.575,6.302
599,0.8,36.942,41.815,32.866,24.541,5.03,7.699,6.22
600,0.78,36.613,41.819,32.818,24.527,4.824,7.534,6.138
601,0.793,36.758,41.847,32.837,24.534,4.906,7.575,6.179
602,0.8,36.874,41.839,32.847,24.527,4.947,7.658,6.22
603,0.803,36.913,41.796,32.847,24.534,4.947,7.617,6.22
604,0.807,36.545,41.827,32.837,24.53,4.947,7.658,6.302
605,0.823,36.671,41.851,32.818,24.527,4.865,7.494,6.138
606,0.813,36.758,41.827,32.798,24.516,4.742,7.494,6.056
607,0.807,36.816,41.792,32.818,24.537,4.865,7.617,6.179
608,0.813,36.526,41.756,32.827,24.53,4.906,7.617,6.179
609,0.803,36.652,41.803,32.866,24.523,4.865,7.494,6.056
610,0.816,36.749,41.788,32.818,24.53,4.865,7.534,6.22
611,0.823,36.613,41.815,32.837,24.537,4.947,7.575,6.22
612,0.826,36.584,41.819,32.808,24.534,4.988,7.534,6.22
613,0.843,36.739,41.827,32.905,24.534,4.947,7.575,6.343
614,0.843,36.807,41.784,32.798,24.527,4.824,7.411,6.138
615,0.813,36.429,41.827,32.789,24.52,4.742,7.411,6.097
616,0.846,36.584,41.827,32.808,24.527,4.947,7.534,6.262
617,0.862,36.69,41.851,32.798,24.523,4.906,7.494,6.302
618,0.856,36.749,41.764,32.779,24.52,4.865,7.37,6.097
619,0.866,36.351,41.772,32.798,24.527,4.865,7.411,6.179
620,0.866,36.497,41.827,32.808,24.53,4.947,7.37,6.302
621,0.866,36.613,41.831,32.789,24.527,4.947,7.411,6.302
622,0.862,36.7,41.89,32.808,24.537,5.03,7.534,6.343
623,0.866,36.332,41.776,32.798,24.523,4.865,7.37,6.262
624,0.846,36.477,41.811,32.769,24.52,4.783,7.288,6.179
625,0.859,36.603,41.823,32.779,24.523,4.906,7.329,6.343
626,0.853,36.671,41.859,32.798,24.534,4.906,7.411,6.302
627,0.843,36.293,41.843,32.779,24.527,4.824,7.247,6.22
628,0.853,36.458,41.807,32.798,24.513,4.906,7.288,6.262
629,0.853,36.565,41.796,32.798,24.527,4.906,7.37,6.302
630,0.853,36.613,41.78,32.789,24.53,4.906,7.329,6.343
631,0.83,36.419,41.799,32.789,24.537,4.947,7.452,6.385
632,0.813,36.535,41.839,32.76,24.53,4.824,7.288,6.302
633,0.81,36.623,41.803,32.74,24.52,4.783,7.206,6.097
634,0.826,36.7,41.792,32.769,24.53,4.906,7.411,6.343
635,0.836,36.439,41.799,32.769,24.53,4.906,7.37,6.302
636,0.826,36.545,41.827,32.731,24.527,4.824,7.288,6.262
637,0.843,36.632,41.839,32.76,24.523,4.947,7.329,6.302
638,0.869,36.439,41.843,32.769,24.527,4.947,7.452,6.262
639,0.885,36.448,41.803,32.769,24.53,4.906,7.37,6.302
640,0.876,36.584,41.792,32.76,24.534,4.906,7.37,6.343
641,0.866,36.681,41.796,32.76,24.527,4.865,7.329,6.22
642,0.866,36.255,41.827,32.74,24.523,4.783,7.247,6.138
643,0.902,36.4,41.835,32.769,24.53,4.906,7.452,6.302
644,0.889,36.545,41.827,32.798,24.534,4.906,7.329,6.262
645,0.872,36.603,41.799,32.731,24.527,4.824,7.37,6.097
646,0.866,36.187,41.851,32.75,24.527,4.947,7.411,6.262
647,0.862,36.361,41.874,32.75,24.537,4.947,7.575,6.262
648,0.849,36.477,41.87,32.74,24.534,4.865,7.534,6.302
649,0.826,36.545,41.87,32.75,24.534,4.947,7.617,6.302
650,0.833,36.167,41.776,32.75,24.53,4.783,7.575,6.22
651,0.813,36.342,41.803,32.721,24.523,4.824,7.575,6.097
652,0.826,36.477,41.807,32.74,24.53,4.906,7.74,6.262
653,0.83,36.516,41.867,32.731,24.527,4.906,7.74,6.22
654,0.81,36.274,41.725,32.711,24.516,4.824,7.699,6.179
655,0.82,36.439,41.788,32.74,24.53,4.906,7.822,6.262
656,0.82,36.555,41.827,32.74,24.53,5.03,7.822,6.262
657,0.826,36.565,41.847,32.721,24.534,4.988,7.904,6.302
658,0.83,36.138,41.859,32.75,24.534,5.03,7.986,6.302
659,0.826,36.264,41.863,32.721,24.53,4.906,7.822,6.179
660,0.797,36.361,41.851,32.692,24.52,4.783,7.781,6.138
661,0.81,36.787,41.823,32.721,24.534,4.947,7.945,6.262
662,0.813,36.4,41.819,32.711,24.534,4.906,7.904,6.22
663,0.81,36.497,41.839,32.701,24.527,4.865,7.945,6.179
664,0.8,36.623,41.815,32.721,24.53,4.906,7.945,6.302
665,0.813,36.167,41.803,32.721,24.527,4.906,7.986,6.302
666,0.793,36.148,41.807,32.701,24.527,4.865,7.904,6.302
667,0.784,36.284,41.835,32.731,24.527,5.03,8.069,6.508
668,0.784,36.371,41.851,32.682,24.523,4.865,7.781,6.22
669,0.777,36.206,41.855,32.682,24.52,4.824,7.863,6.343
670,0.797,36.361,41.882,32.711,24.53,4.947,7.945,6.385
671,0.77,36.497,41.776,32.711,24.534,4.865,7.904,6.385
672,0.751,36.555,41.799,32.701,24.527,4.906,7.863,6.343
673,0.757,36.071,41.847,32.692,24.53,4.865,7.863,6.343
674,0.751,36.245,41.827,32.692,24.534,4.865,7.904,6.385
675,0.747,36.39,41.74,32.711,24.527,4.947,7.945,6.59
676,0.761,36.458,41.803,32.74,24.541,5.07,8.069,6.631
677,0.744,36.09,41.803,32.692,24.53,4.824,7.822,6.426
678,0.744,36.255,41.839,32.682,24.527,4.906,7.822,6.508
679,0.754,36.4,41.863,32.701,24.534,4.947,7.986,6.59
680,0.747,36.429,41.898,32.672,24.537,4.906,7.863,6.508
681,0.751,36.148,41.799,32.672,24.52,4.865,7.822,6.549
682,0.741,36.313,41.788,32.682,24.52,4.947,7.781,6.549
683,0.747,36.419,41.796,32.682,24.527,4.906,7.699,6.549
684,0.718,36.448,41.851,32.682,24.53,4.988,7.781,6.631
685,0.738,36.129,41.796,32.711,24.541,4.988,7.945,6.672
686,0.738,36.235,41.811,32.721,24.52,4.824,7.74,6.467
687,0.721,36.332,41.807,32.672,24.527,4.906,7.781,6.631
688,0.711,36.574,41.851,32.682,24.534,4.988,7.781,6.631
689,0.721,36.177,41.878,32.682,24.53,4.865,7.781,6.59
690,0.711,36.293,41.87,32.672,24.527,4.865,7.74,6.59
691,0.698,36.4,41.867,32.663,24.523,4.906,7.617,6.508
692,0.701,36.167,41.796,32.672,24.527,4.865,7.575,6.467
693,0.692,36.226,41.788,32.682,24.534,4.947,7.699,6.549
694,0.711,36.381,41.847,32.711,24.541,4.988,7.74,6.713
695,0.695,36.429,41.839,32.663,24.527,4.783,7.534,6.508
696,0.711,35.964,41.744,32.663,24.53,4.906,7.617,6.631
697,0.708,36.119,41.799,32.75,24.534,4.865,7.617,6.59
698,0.711,36.226,41.811,32.663,24.527,4.947,7.575,6.631
699,0.718,36.284,41.807,32.663,24.527,4.947,7.575,6.631
700,0.705,36.09,41.827,32.663,24.527,4.865,7.617,6.549
701,0.701,36.206,41.863,32.643,24.516,4.824,7.494,6.426
702,0.715,36.351,41.788,32.672,24.541,4.906,7.658,6.549
703,0.721,36.439,41.811,32.682,24.537,4.947,7.658,6.549
704,0.701,36.012,41.823,32.643,24.52,4.865,7.699,6.508
705,0.711,36.187,41.827,32.653,24.534,4.865,7.658,6.549
706,0.711,36.313,41.792,32.663,24.537,4.906,7.74,6.508
707,0.698,36.361,41.748,32.643,24.534,4.906,7.74,6.549
708,0.701,36.071,41.799,32.663,24.537,4.947,7.863,6.631
709,0.701,36.206,41.815,32.643,24.523,4.824,7.658,6.467
710,0.692,36.284,41.815,32.624,24.513,4.742,7.575,6.508
711,0.705,36.342,41.882,32.643,24.534,4.906,7.74,6.59
712,0.711,36.061,41.831,32.634,24.527,4.906,7.658,6.549
713,0.688,36.187,41.819,32.624,24.52,4.783,7.617,6.467
714,0.701,36.313,41.811,32.624,24.523,4.865,7.617,6.508
715,0.718,36.351,41.874,32.653,24.53,4.906,7.74,6.549
716,0.701,36.061,41.847,32.624,24.534,4.906,7.699,6.549
717,0.701,36.196,41.792,32.643,24.541,4.947,7.699,6.549
718,0.705,36.284,41.713,32.624,24.527,4.824,7.575,6.426
719,0.705,35.964,41.693,32.595,24.523,4.783,7.534,6.385
720,0.718,36.09,41.796,32.643,24.53,4.947,7.658,6.426
721,0.728,36.206,41.799,32.624,24.534,4.865,7.534,6.385
722,0.711,36.255,41.827,32.624,24.53,4.824,7.617,6.385
723,0.708,35.935,41.807,32.614,24.534,4.865,7.534,6.385
724,0.708,36.061,41.803,32.605,24.53,4.824,7.452,6.302
725,0.718,36.196,41.843,32.614,24.53,4.865,7.617,6.385
726,0.698,36.303,41.882,32.653,24.541,4.988,7.617,6.508
727,0.698,35.906,41.799,32.585,24.527,4.783,7.452,6.302
728,0.695,36.071,41.788,32.605,24.527,4.906,7.494,6.302
729,0.688,36.216,41.74,32.605,24.537,4.906,7.494,6.343
730,0.672,36.255,41.819,32.614,24.53,4.865,7.534,6.302
731,0.672,35.983,41.796,32.595,24.523,4.865,7.452,6.302
732,0.665,36.129,41.851,32.585,24.527,4.824,7.411,6.302
733,0.665,36.235,41.764,32.595,24.52,4.865,7.411,6.22
734,0.675,36.303,41.815,32.614,24.527,4.865,7.534,6.343
735,0.682,36.042,41.839,32.624,24.541,4.988,7.575,6.385
736,0.688,36.148,41.874,32.595,24.52,4.783,7.411,6.22
737,0.692,36.264,41.886,32.585,24.53,4.906,7.452,6.262
738,0.711,36.313,41.815,32.605,24.534,4.947,7.494,6.302
739,0.715,36.09,41.788,32.595,24.527,4.906,7.411,6.302
740,0.754,36.245,41.752,32.624,24.527,4.947,7.411,6.385
741,0.787,36.322,41.803,32.595,24.527,4.824,7.288,6.179
742,0.839,36.167,41.807,32.576,24.516,4.824,7.288,6.179
743,0.892,35.935,41.811,32.585,24.53,4.906,7.37,6.302
744,0.899,36.119,41.811,32.624,24.537,4.988,7.452,6.22
745,0.941,36.167,41.811,32.566,24.523,4.824,7.329,6.179
746,0.974,35.964,41.819,32.576,24.527,4.865,7.37,6.22
747,0.997,36.08,41.859,32.595,24.53,4.906,7.37,6.302
748,1.046,36.206,41.827,32.595,24.527,4.906,7.288,6.343
749,1.135,36.264,41.815,32.585,24.527,4.988,7.411,6.343
750,1.191,35.857,41.772,32.556,24.527,4.906,7.247,6.385
751,1.234,35.993,41.803,32.547,24.513,4.742,7.165,6.22
752,1.303,36.148,41.851,32.566,24.523,4.947,7.37,6.508
753,1.375,36.216,41.855,32.585,24.53,4.906,7.37,6.426
754,1.421,35.916,41.784,32.556,24.52,4.824,7.247,6.385
755,1.49,36.1,41.819,32.576,24.523,4.865,7.329,6.467
756,1.546,36.216,41.855,32.576,24.534,4.906,7.329,6.426
757,1.579,36.245,41.863,32.566,24.52,4.906,7.411,6.508
758,1.612,35.877,41.878,32.576,24.537,4.988,7.452,6.59
759,1.625,36.012,41.831,32.556,24.527,4.783,7.206,6.426
760,1.572,36.09,41.784,32.527,24.52,4.824,7.206,6.467
761,1.572,36.187,41.803,32.566,24.534,4.988,7.37,6.549
762,1.579,36.071,41.803,32.556,24.527,4.947,7.288,6.508
763,1.582,36.196,41.827,32.547,24.523,4.783,7.165,6.385
764,1.579,36.313,41.792,32.556,24.527,4.906,7.247,6.508
765,1.569,36.351,41.796,32.537,24.527,4.906,7.288,6.549
766,1.552,35.945,41.796,32.547,24.527,4.947,7.206,6.508
767,1.503,36.09,41.847,32.576,24.53,4.988,7.37,6.631
768,1.441,36.167,41.839,32.547,24.523,4.865,7.165,6.508
769,1.345,36.051,41.851,32.518,24.516,4.742,7.124,6.508
770,1.283,36.012,41.843,32.537,24.527,4.988,7.247,6.754
771,1.138,36.138,41.78,32.527,24.527,4.906,7.165,6.837
772,1.023,36.226,41.792,32.537,24.516,4.865,7.206,6.96
773,0.954,35.916,41.831,32.537,24.523,4.947,7.206,7.329
774,0.925,36.022,41.839,32.537,24.527,4.906,7.206,7.699
775,0.899,36.167,41.74,32.547,24.527,4.947,7.165,8.027
776,0.892,36.264,41.807,32.547,24.537,5.03,7.452,8.479
777,0.866,35.887,41.839,32.508,24.516,4.865,7.165,8.644
778,0.866,36.022,41.843,32.518,24.52,4.824,7.083,8.931
779,0.889,36.177,41.874,32.527,24.541,4.988,7.247,9.342
780,0.879,36.235,41.867,32.518,24.523,4.988,7.124,9.465
781,0.869,35.867,41.815,32.518,24.527,4.947,7.124,9.67
782,0.849,36.042,41.796,32.527,24.53,4.906,7.124,9.834
783,0.82,36.148,41.815,32.527,24.523,4.865,7.083,9.916
784,0.807,36.216,41.815,32.518,24.53,4.947,7.165,10.122
785,0.787,35.974,41.784,32.537,24.541,5.112,7.247,10.245
786,0.741,36.08,41.756,32.498,24.52,4.906,7.042,10.122
787,0.751,36.196,41.752,32.518,24.527,4.947,7.083,10.245
788,0.721,36.255,41.815,32.527,24.534,4.988,7.206,10.409
789,0.711,35.887,41.839,32.498,24.527,4.906,7.042,10.286
790,0.721,36.012,41.874,32.518,24.53,4.988,7.083,10.45
791,0.741,36.129,41.855,32.498,24.523,4.906,7.042,10.368
792,0.731,36.158,41.843,32.479,24.523,4.906,7.001,10.491
793,0.741,35.925,41.811,32.508,24.523,4.988,7.083,10.656
794,0.761,36.071,41.89,32.547,24.534,5.07,7.124,10.861
795,0.751,36.119,41.827,32.498,24.52,4.865,7.083,10.943
796,0.764,35.983,41.744,32.518,24.523,4.947,7.042,11.231
797,0.77,35.974,41.799,32.518,24.534,4.988,7.124,11.436
798,0.764,36.09,41.799,32.498,24.53,4.988,7.083,11.477
799,0.764,36.167,41.819,32.498,24.534,4.988,7.083,11.683
800,0.761,35.896,41.823,32.498,24.527,4.947,6.96,11.641
801,0.757,36.012,41.859,32.469,24.523,4.865,6.96,11.723
802,0.767,36.148,41.752,32.518,24.534,4.988,7.083,11.888
803,0.777,36.264,41.823,32.527,24.534,4.988,7.083,11.847
804,0.738,35.77,41.811,32.469,24.527,4.988,7.001,11.723
805,0.751,35.916,41.835,32.498,24.527,4.988,7.001,11.723
806,0.754,36.051,41.788,32.489,24.527,4.947,7.001,11.764
807,0.744,36.119,41.725,32.489,24.527,4.988,6.96,11.683
808,0.721,35.935,41.78,32.489,24.527,5.03,7.042,11.6
809,0.728,36.071,41.772,32.479,24.52,4.988,6.919,11.436
810,0.721,36.187,41.799,32.469,24.523,4.865,6.919,11.231
811,0.721,36.245,41.847,32.479,24.527,5.03,7.083,11.313
812,0.738,35.78,41.803,32.508,24.53,4.988,7.001,11.108
813,0.718,35.906,41.811,32.469,24.516,4.824,7.001,10.984
814,0.731,36.032,41.827,32.479,24.516,4.906,7.001,10.943
815,0.724,36.071,41.863,32.479,24.534,4.988,7.083,10.902
816,0.741,35.925,41.815,32.479,24.53,4.906,7.042,10.697
817,0.724,36.061,41.788,32.479,24.53,5.03,7.124,10.656
818,0.734,36.177,41.74,32.469,24.523,4.947,7.001,10.409
819,0.728,36.167,41.721,32.44,24.516,4.824,6.877,10.245
820,0.741,36.129,41.796,32.469,24.527,4.947,7.165,10.286
821,0.757,36.274,41.811,32.469,24.527,4.988,7.001,10.122
822,0.731,36.351,41.835,32.43,24.52,4.947,6.919,9.916
823,0.734,35.974,41.815,32.508,24.53,4.906,7.042,9.916
824,0.734,35.896,41.796,32.469,24.527,5.03,7.042,9.793
825,0.738,36.012,41.811,32.45,24.52,4.988,7.042,9.711
826,0.747,36.109,41.855,32.46,24.534,5.07,7.124,9.67
827,0.724,36.235,41.827,32.43,24.523,4.947,7.001,9.424
828,0.715,36.361,41.764,32.411,24.513,4.865,6.96,9.218
829,0.721,36.497,41.744,32.46,24.53,4.988,7.124,9.382
830,0.728,36.632,41.788,32.469,24.53,4.947,6.96,9.218
831,0.721,35.577,41.752,32.43,24.52,4.906,6.96,9.054
832,0.721,35.722,41.855,32.44,24.527,4.988,6.96,9.054
833,0.721,35.887,41.756,32.45,24.53,4.947,7.124,8.972
834,0.721,35.945,41.796,32.44,24.527,4.906,7.042,8.849
835,0.715,35.935,41.827,32.45,24.534,5.03,7.124,8.89
836,0.724,36.071,41.843,32.44,24.527,4.906,7.083,8.684
837,0.724,36.167,41.847,32.43,24.516,4.824,6.96,8.602
838,0.744,36.255,41.799,32.46,24.534,4.906,7.165,8.684
839,0.754,35.79,41.792,32.45,24.534,4.988,7.083,8.561
840,0.731,35.887,41.725,32.44,24.52,4.906,7.083,8.397
841,0.747,36.032,41.78,32.44,24.523,4.906,7.165,8.397
842,0.754,36.071,41.811,32.45,24.53,4.947,7.206,8.397
843,0.751,35.838,41.807,32.43,24.527,4.947,7.124,8.356
844,0.747,35.983,41.784,32.44,24.53,4.988,7.247,8.274
845,0.738,36.071,41.811,32.411,24.523,4.906,7.206,8.233
846,0.731,36.09,41.815,32.411,24.516,4.865,7.001,7.986
847,0.734,35.887,41.87,32.43,24.527,4.947,7.165,8.15
848,0.741,36.051,41.886,32.45,24.527,4.988,7.206,8.069
849,0.715,36.109,41.819,32.411,24.523,4.906,7.083,7.945
850,0.715,35.887,41.756,32.421,24.523,4.947,7.124,7.904
851,0.731,35.896,41.752,32.43,24.53,4.988,7.206,7.945
852,0.731,36.012,41.819,32.411,24.53,4.947,7.124,7.904
853,0.724,36.09,41.799,32.43,24.534,4.988,7.206,7.945
854,0.734,35.838,41.799,32.469,24.52,4.865,7.124,7.74
855,0.721,35.935,41.78,32.392,24.513,4.783,7.083,7.658
856,0.734,36.09,41.827,32.421,24.53,4.947,7.247,7.699
857,0.757,36.196,41.855,32.43,24.534,4.988,7.165,7.658
858,0.744,35.644,41.835,32.401,24.523,4.824,7.124,7.617
859,0.751,35.799,41.839,32.411,24.523,4.906,7.124,7.575
860,0.747,35.925,41.807,32.421,24.53,4.906,7.247,7.617
861,0.734,35.983,41.823,32.411,24.527,4.906,7.206,7.617
862,0.744,35.828,41.815,32.43,24.53,4.988,7.288,7.575
863,0.747,35.954,41.839,32.411,24.523,4.906,7.165,7.411
864,0.741,36.061,41.756,32.392,24.513,4.783,7.083,7.288
865,0.761,36.148,41.799,32.392,24.53,4.947,7.124,7.452
866,0.78,35.857,41.819,32.401,24.523,4.988,7.165,7.37
867,0.744,35.974,41.819,32.372,24.527,4.865,7.124,7.247
868,0.741,36.09,41.878,32.392,24.523,4.947,7.165,7.329
869,0.747,36.138,41.855,32.401,24.541,4.947,7.288,7.329
870,0.747,35.877,41.819,32.392,24.53,4.906,7.247,7.288
871,0.731,36.032,41.796,32.411,24.537,4.947,7.329,7.329
872,0.741,36.119,41.768,32.392,24.523,4.947,7.206,7.165
873,0.734,36.448,41.835,32.353,24.52,4.824,7.165,7.083
874,0.747,35.857,41.772,32.382,24.53,4.988,7.37,7.165
875,0.747,36.012,41.811,32.401,24.53,4.988,7.37,7.124
876,0.734,36.1,41.788,32.382,24.52,4.906,7.288,7.083
877,0.744,35.809,41.815,32.382,24.523,4.988,7.329,7.124
878,0.761,35.857,41.843,32.372,24.534,4.988,7.411,7.083
879,0.764,35.964,41.863,32.392,24.527,4.988,7.411,7.042
880,0.767,36.061,41.874,32.401,24.534,5.03,7.494,7.165
881,0.77,35.78,41.776,32.363,24.527,4.906,7.37,6.96
882,0.757,35.906,41.772,32.353,24.523,4.824,7.288,6.96
883,0.754,36.051,41.835,32.372,24.534,5.03,7.411,7.042
884,0.767,36.129,41.843,32.363,24.527,4.947,7.37,6.96
885,0.764,35.722,41.736,32.343,24.523,4.906,7.247,6.919
886,0.764,35.887,41.803,32.363,24.527,4.988,7.37,6.877
887,0.764,36.022,41.807,32.382,24.53,4.988,7.288,6.919
888,0.761,36.061,41.815,32.382,24.523,4.947,7.37,6.96
889,0.754,35.78,41.851,32.392,24.541,5.07,7.37,7.124
890,0.751,35.906,41.89,32.353,24.527,4.988,7.288,6.795
891,0.761,35.983,41.823,32.343,24.52,4.865,7.288,6.837
892,0.754,36.08,41.803,32.363,24.534,4.988,7.37,6.919
893,0.734,35.78,41.784,32.363,24.53,4.947,7.288,6.795
894,0.757,35.906,41.823,32.343,24.53,4.906,7.247,6.754
895,0.751,36.032,41.772,32.353,24.527,4.988,7.206,6.877
896,0.764,36.1,41.689,32.353,24.53,5.03,7.206,6.837
897,0.77,35.819,41.78,32.343,24.534,4.906,7.247,6.877
898,0.774,35.954,41.796,32.392,24.541,5.07,7.37,6.96
899,0.777,36.051,41.803,32.353,24.53,4.906,7.288,6.713
900,0.751,36.274,41.823,32.324,24.516,4.906,7.165,6.672
901,0.784,35.702,41.867,32.353,24.527,4.988,7.206,6.795
902,0.784,35.838,41.776,32.392,24.516,4.988,7.247,6.795
903,0.767,35.935,41.796,32.324,24.513,4.824,7.247,6.631
904,0.777,35.702,41.819,32.324,24.53,4.906,7.247,6.713
905,0.78,35.751,41.839,32.343,24.53,4.988,7.288,6.713
906,0.787,35.887,41.792,32.353,24.53,4.906,7.288,6.672
907,0.784,35.993,41.796,32.343,24.534,5.03,7.329,6.754
908,0.77,35.586,41.792,32.334,24.527,4.906,7.247,6.59
909,0.764,35.693,41.768,32.295,24.516,4.824,7.124,6.508
910,0.77,35.819,41.784,32.324,24.527,4.947,7.247,6.713
911,0.77,35.925,41.835,32.372,24.534,5.07,7.247,6.631
912,0.764,35.712,41.76,32.334,24.52,4.865,7.042,6.59
913,0.77,35.857,41.811,32.314,24.523,4.906,7.206,6.59
914,0.787,35.993,41.827,32.334,24.516,4.906,7.247,6.549
915,0.78,36.061,41.855,32.314,24.534,4.947,7.165,6.631
916,0.797,35.635,41.799,32.334,24.53,4.988,7.247,6.672
917,0.784,35.78,41.744,32.334,24.52,4.865,7.124,6.549
918,0.797,35.896,41.772,32.324,24.523,4.824,7.001,6.426
919,0.79,35.945,41.788,32.343,24.527,4.988,7.206,6.631
920,0.81,35.635,41.78,32.343,24.527,5.07,7.206,6.631
921,0.787,35.761,41.788,32.305,24.52,4.824,7.042,6.467
922,0.797,35.867,41.792,32.343,24.53,4.906,7.083,6.508
923,0.813,35.935,41.78,32.343,24.527,5.03,7.165,6.549
924,0.807,35.673,41.819,32.314,24.523,4.988,7.083,6.549
925,0.8,35.809,41.867,32.324,24.527,4.988,7.206,6.59
926,0.803,35.877,41.863,32.314,24.523,4.906,7.083,6.467
927,0.79,36.012,41.788,32.295,24.523,4.865,6.96,6.385
928,0.78,35.828,41.756,32.314,24.53,4.988,7.124,6.508
929,0.8,35.974,41.788,32.382,24.53,4.988,7.083,6.508
930,0.784,36.032,41.784,32.305,24.527,4.824,6.96,6.385
931,0.803,35.548,41.811,32.314,24.53,4.988,7.001,6.467
932,0.813,35.577,41.847,32.334,24.53,4.988,7.042,6.508
933,0.8,35.712,41.756,32.324,24.527,4.906,7.083,6.385
934,0.8,35.799,41.792,32.314,24.527,4.906,7.042,6.385
935,0.816,35.673,41.839,32.305,24.527,4.947,6.96,6.426
936,0.81,35.819,41.855,32.305,24.527,4.824,6.877,6.302
937,0.82,35.935,41.839,32.314,24.527,4.906,7.042,6.426
938,0.823,36.061,41.811,32.343,24.537,5.07,7.165,6.467
939,0.807,35.538,41.768,32.285,24.52,4.947,6.96,6.302
940,0.807,35.683,41.764,32.314,24.527,4.906,7.124,6.343
941,0.836,35.838,41.776,32.324,24.527,4.988,7.083,6.385
942,0.826,35.887,41.827,32.324,24.53,4.947,7.001,6.426
943,0.82,35.596,41.78,32.305,24.527,4.947,6.96,6.385
944,0.836,35.761,41.796,32.324,24.52,4.947,7.001,6.385
945,0.839,35.887,41.811,32.305,24.527,4.906,6.919,6.262
946,0.826,35.935,41.851,32.305,24.534,4.947,7.165,6.385
947,0.823,35.557,41.847,32.334,24.541,5.07,7.124,6.467
948,0.81,35.683,41.803,32.276,24.527,4.906,6.96,6.302
949,0.813,35.77,41.744,32.285,24.527,4.865,7.042,6.302
950,0.836,35.828,41.732,32.314,24.53,4.906,7.124,6.385
951,0.839,35.751,41.776,32.295,24.53,4.865,7.042,6.302
952,0.82,35.877,41.831,32.295,24.53,4.947,7.083,6.385
953,0.833,35.964,41.815,32.295,24.527,4.865,7.001,6.343
954,0.843,35.945,41.811,32.276,24.52,4.824,6.877,6.138
955,0.849,35.732,41.799,32.295,24.534,4.947,7.124,6.385
956,0.866,35.887,41.803,32.334,24.53,4.988,7.042,6.343
957,0.846,35.935,41.839,32.285,24.516,4.865,6.96,6.262
958,0.856,35.644,41.843,32.305,24.53,4.906,6.919,6.343
959,0.872,35.761,41.792,32.295,24.527,4.988,7.083,6.385
960,0.869,35.867,41.784,32.305,24.527,4.906,7.042,6.302
961,0.872,35.964,41.764,32.305,24.534,4.947,7.083,6.343
962,0.879,35.528,41.788,32.295,24.52,4.824,6.96,6.302
963,0.876,35.683,41.819,32.285,24.52,4.701,6.96,6.262
964,0.879,35.819,41.756,32.295,24.53,4.988,7.083,6.343
965,0.879,35.935,41.811,32.334,24.534,4.988,7.083,6.302
966,0.869,35.77,41.776,32.285,24.523,4.865,6.96,6.179
967,0.872,35.925,41.843,32.295,24.53,4.865,7.083,6.302
968,0.882,36.061,41.843,32.305,24.53,4.947,7.083,6.385
969,0.882,36.1,41.851,32.285,24.53,4.947,7.165,6.343
970,0.885,35.702,41.788,32.285,24.53,4.988,7.165,6.343
971,0.892,35.857,41.799,32.305,24.523,4.865,7.206,6.262
972,0.885,35.964,41.796,32.285,24.523,4.865,7.124,6.22
973,0.885,36.032,41.859,32.295,24.523,4.947,7.247,6.302
974,0.905,35.954,41.807,32.314,24.544,4.988,7.411,6.302
975,0.908,36.051,41.803,32.305,24.52,4.906,7.288,6.262
976,0.912,36.196,41.792,32.276,24.527,4.947,7.494,6.343
977,0.915,36.206,41.827,32.314,24.53,4.947,7.575,6.385
978,0.905,36.022,41.882,32.276,24.53,4.988,7.617,6.302
979,0.905,36.167,41.847,32.285,24.534,5.03,7.74,6.467
980,0.915,36.255,41.851,32.276,24.53,4.947,7.617,6.22
981,0.922,36.177,41.764,32.237,24.52,4.865,7.658,6.22
982,0.938,36.09,41.796,32.276,24.527,4.988,7.74,6.343
983,0.938,36.226,41.811,32.285,24.527,4.947,7.74,6.343
984,0.931,36.274,41.835,32.247,24.52,4.906,7.658,6.262
985,0.938,36.187,41.736,32.276,24.52,4.988,7.699,6.262
986,0.941,36.342,41.772,32.285,24.537,5.03,7.781,6.343
987,0.941,36.458,41.776,32.276,24.534,4.906,7.781,6.302
988,0.935,36.526,41.827,32.276,24.537,4.988,7.74,6.343
989,0.941,36.371,41.811,32.266,24.52,4.906,7.699,6.22
990,0.941,36.497,41.859,32.247,24.523,4.865,7.658,6.138
991,0.948,36.632,41.827,32.276,24.527,4.988,7.699,6.302
992,0.964,36.739,41.831,32.285,24.53,5.03,7.781,6.302
993,0.945,36.535,41.819,32.247,24.52,4.865,7.658,6.22
994,0.958,36.69,41.847,32.256,24.527,4.906,7.74,6.262
995,0.977,36.816,41.819,32.285,24.534,4.988,7.822,6.302
996,0.977,36.865,41.709,32.285,24.53,4.988,7.74,6.343
997,0.971,36.778,41.792,32.266,24.534,4.988,7.781,6.343
998,0.987,36.913,41.799,32.256,24.527,4.906,7.74,6.22
999,0.997,37.029,41.799,32.256,24.513,4.865,7.617,6.138
1000,1.0,37.078,41.815,32.276,24.53,4.947,7.904,6.302
1001,1.004,36.894,41.855,32.256,24.534,4.947,7.863,6.343
1002,0.981,37.0,41.748,32.247,24.523,4.865,7.74,6.179
1003,0.994,37.107,41.78,32.256,24.523,4.865,7.781,6.22
1004,0.994,37.146,41.835,32.285,24.534,4.947,7.945,6.302
1005,1.004,37.059,41.819,32.256,24.53,4.906,7.863,6.262
1006,1.0,37.175,41.772,32.266,24.53,4.947,7.986,6.262
1007,1.014,37.32,41.756,32.276,24.527,4.906,7.904,6.179
1008,0.997,37.214,41.796,32.237,24.52,4.824,7.822,6.056
1009,0.997,37.184,41.78,32.256,24.527,4.906,7.945,6.262
1010,1.01,37.33,41.827,32.276,24.537,4.988,7.986,6.179
1011,0.997,37.368,41.803,32.237,24.523,4.824,7.822,6.179
1012,1.004,37.262,41.788,32.237,24.527,4.906,7.945,6.097
1013,1.014,37.388,41.772,32.256,24.527,4.906,7.986,6.22
1014,1.023,37.514,41.792,32.247,24.53,4.906,7.945,6.179
1015,1.007,37.582,41.839,32.256,24.53,4.988,7.986,6.22
1016,1.004,37.378,41.847,32.237,24.523,4.906,7.945,6.138
1017,1.02,37.514,41.788,32.237,24.52,4.865,7.945,6.097
1018,1.014,37.63,41.772,32.256,24.53,4.906,7.945,6.22
1019,1.027,37.746,41.792,32.324,24.537,5.03,8.109,6.22
1020,1.007,37.523,41.764,32.237,24.523,4.824,7.863,5.974
1021,1.01,37.669,41.788,32.256,24.527,4.947,7.945,6.179
1022,1.02,37.775,41.831,32.256,24.534,4.947,7.863,6.22
1023,1.023,37.814,41.819,32.314,24.534,4.906,7.863,6.179
1024,1.027,37.678,41.772,32.247,24.523,4.906,7.863,6.262
1025,1.027,37.804,41.799,32.237,24.523,4.865,7.781,6.097
1026,1.023,37.93,41.799,32.218,24.527,4.783,7.781,6.097
1027,1.017,37.959,41.811,32.256,24.527,4.906,7.781,6.179
1028,1.023,37.775,41.772,32.256,24.541,4.988,7.986,6.262
1029,0.987,37.872,41.744,32.237,24.52,4.824,7.781,6.056
1030,1.0,37.959,41.788,32.237,24.527,4.865,7.781,6.138
1031,1.017,38.008,41.776,32.256,24.537,5.03,7.822,6.22
1032,1.01,37.882,41.835,32.237,24.527,4.906,7.863,6.179
1033,1.004,38.008,41.748,32.227,24.527,4.906,7.74,6.138
1034,1.004,38.105,41.788,32.237,24.523,4.947,7.781,6.056
1035,1.004,37.921,41.803,32.237,24.523,4.865,7.699,6.097
1036,0.991,37.872,41.831,32.247,24.534,4.988,7.863,6.179
1037,1.004,38.037,41.843,32.276,24.541,5.112,7.945,6.22
1038,1.004,38.046,41.815,32.218,24.52,4.865,7.822,6.056
1039,0.991,37.833,41.74,32.247,24.527,4.947,7.904,6.097
1040,0.984,37.979,41.807,32.256,24.53,4.988,7.945,6.138
1041,0.991,38.105,41.78,32.237,24.527,4.947,7.945,6.097
1042,0.971,38.172,41.827,32.256,24.523,4.947,7.904,6.22
1043,0.968,37.843,41.811,32.237,24.527,4.947,7.986,6.138
1044,0.961,38.008,41.788,32.237,24.527,4.906,7.904,6.138
1045,0.958,38.124,41.796,32.247,24.523,4.988,8.027,6.138
1046,0.961,38.201,41.819,32.266,24.537,5.03,8.109,6.262
1047,0.958,37.892,41.843,32.188,24.52,4.906,7.945,6.138
1048,0.928,38.037,41.823,32.208,24.527,4.947,7.986,6.138
1049,0.931,38.163,41.811,32.247,24.527,4.988,8.027,6.22
1050,0.938,38.231,41.744,32.237,24.534,4.988,8.027,6.22
1051,0.922,37.969,41.76,32.208,24.527,4.906,8.069,6.22
1052,0.912,38.105,41.799,32.218,24.527,4.988,7.945,6.097
1053,0.902,38.192,41.811,32.208,24.513,4.865,7.904,5.974
1054,0.892,38.25,41.732,32.237,24.53,4.947,8.027,6.22
1055,0.912,38.056,41.784,32.256,24.534,5.03,8.027,6.22
1056,0.895,38.163,41.796,32.208,24.516,4.988,7.904,6.097
1057,0.899,38.269,41.811,32.227,24.53,4.988,7.986,6.179
1058,0.895,38.269,41.859,32.247,24.527,5.03,7.986,6.22
1059,0.908,37.998,41.819,32.218,24.527,4.906,7.945,6.179
1060,0.895,38.095,41.803,32.218,24.537,4.988,7.986,6.262
1061,0.892,38.192,41.803,32.285,24.527,4.906,7.945,6.179
1062,0.876,37.959,41.796,32.198,24.52,4.824,7.822,6.138
1063,0.872,37.969,41.87,32.227,24.527,4.947,7.986,6.262
1064,0.885,38.114,41.796,32.237,24.537,5.03,7.945,6.302
1065,0.862,38.153,41.792,32.188,24.523,4.906,7.822,6.138
1066,0.856,37.795,41.796,32.198,24.527,4.988,7.863,6.22
1067,0.849,37.94,41.843,32.227,24.534,4.988,8.027,6.22
1068,0.833,38.066,41.835,32.218,24.527,4.988,7.822,6.302
1069,0.82,38.114,41.843,32.218,24.527,4.947,7.945,6.262
1070,0.813,37.833,41.835,32.208,24.523,4.947,7.74,6.179
1071,0.813,37.969,41.732,32.198,24.52,4.906,7.781,6.138
1072,0.813,38.095,41.752,32.208,24.534,4.947,7.863,6.22
1073,0.82,38.201,41.835,32.227,24.541,4.988,7.945,6.22
1074,0.8,37.785,41.803,32.188,24.527,4.865,7.781,6.097
1075,0.803,37.95,41.701,32.218,24.53,4.906,7.822,6.22
1076,0.807,38.085,41.811,32.218,24.53,5.03,7.945,6.262
1077,0.797,38.114,41.772,32.208,24.534,4.947,7.781,6.262
1078,0.797,37.669,41.807,32.198,24.523,4.988,7.781,6.262
1079,0.8,37.804,41.843,32.188,24.527,4.947,7.822,6.138
1080,0.803,37.921,41.851,32.198,24.52,4.906,7.74,6.097
1081,0.816,37.95,41.772,32.208,24.52,4.906,7.781,6.22
1082,0.807,37.678,41.827,32.256,24.541,5.07,7.863,6.302
1083,0.784,37.766,41.811,32.179,24.516,4.865,7.699,6.179
1084,0.79,37.882,41.851,32.198,24.527,4.906,7.699,6.22
1085,0.793,38.231,41.78,32.208,24.53,4.947,7.74,6.22
1086,0.787,37.795,41.803,32.198,24.534,4.947,7.822,6.179
1087,0.777,37.921,41.807,32.208,24.53,4.988,7.781,6.262
1088,0.774,38.037,41.799,32.188,24.523,4.824,7.74,6.179
1089,0.764,37.543,41.823,32.169,24.516,4.824,7.617,6.015
1090,0.764,37.523,41.807,32.198,24.52,4.906,7.781,6.262
1091,0.761,37.649,41.859,32.218,24.541,4.988,7.904,6.179
1092,0.757,37.717,41.756,32.179,24.52,4.824,7.74,6.097
1093,0.757,37.485,41.78,32.188,24.523,4.947,7.781,6.22
1094,0.774,37.63,41.811,32.208,24.537,4.906,7.822,6.179
1095,0.751,37.737,41.827,32.198,24.53,4.906,7.904,6.22
1096,0.757,37.824,41.732,32.188,24.53,4.906,7.904,6.302
1097,0.767,37.494,41.788,32.179,24.523,4.865,7.863,6.179
1098,0.754,37.63,41.76,32.159,24.523,4.783,7.781,6.097
1099,0.77,37.746,41.768,32.188,24.534,4.947,7.863,6.22
1100,0.787,37.843,41.831,32.218,24.544,5.03,7.945,6.302
1101,0.767,37.417,41.851,32.169,24.527,4.824,7.822,6.138
1102,0.774,37.562,41.796,32.179,24.523,4.906,7.863,6.179
1103,0.774,37.688,41.796,32.198,24.537,4.947,7.945,6.22
1104,0.751,37.717,41.819,32.198,24.534,4.906,7.945,6.262
1105,0.751,37.436,41.835,32.159,24.53,4.906,7.986,6.179
1106,0.761,37.572,41.803,32.159,24.527,4.865,7.986,6.138
1107,0.767,37.707,41.709,32.169,24.523,4.865,7.945,6.138
1108,0.761,37.727,41.799,32.188,24.53,4.947,8.069,6.179
1109,0.767,37.388,41.784,32.218,24.541,5.03,8.109,6.302
1110,0.747,37.494,41.796,32.179,24.523,4.824,7.863,6.097
1111,0.738,37.591,41.811,32.159,24.53,4.865,7.986,6.138
1112,0.757,37.872,41.823,32.179,24.527,4.906,8.027,6.262
1113,0.734,37.388,41.788,32.169,24.527,4.947,7.986,6.179
1114,0.715,37.494,41.764,32.179,24.523,4.824,7.945,6.138
1115,0.754,37.601,41.823,32.159,24.527,4.865,7.945,6.097
1116,0.741,37.33,41.803,32.179,24.53,4.865,7.863,6.138
1117,0.747,37.398,41.748,32.188,24.53,4.865,7.986,6.22
1118,0.764,37.553,41.732,32.198,24.544,4.988,8.069,6.343
1119,0.761,37.611,41.736,32.169,24.523,4.865,7.822,6.097
1120,0.761,37.194,41.764,32.169,24.523,4.783,7.863,6.138
1121,0.777,37.378,41.788,32.198,24.53,4.824,7.945,6.22
1122,0.754,37.475,41.835,32.169,24.527,4.865,7.822,6.179
1123,0.734,37.543,41.729,32.179,24.523,4.824,7.781,6.138
1124,0.741,37.117,41.768,32.179,24.53,4.865,7.74,6.138
1125,0.734,37.272,41.811,32.179,24.527,4.865,7.699,6.138
1126,0.747,37.359,41.843,32.188,24.53,4.947,7.74,6.179
1127,0.767,37.456,41.831,32.198,24.534,5.03,7.822,6.22
1128,0.747,37.243,41.76,32.159,24.527,4.824,7.575,6.179
1129,0.731,37.349,41.74,32.14,24.523,4.783,7.658,6.138
1130,0.731,37.543,41.764,32.237,24.537,4.947,7.699,6.262
1131,0.734,37.572,41.792,32.179,24.527,4.906,7.658,6.22
1132,0.731,37.136,41.831,32.15,24.523,4.865,7.617,6.179
1133,0.741,37.281,41.799,32.188,24.527,4.824,7.617,6.179
1134,0.747,37.417,41.772,32.159,24.53,4.906,7.617,6.262
1135,0.741,37.456,41.772,32.179,24.53,4.906,7.658,6.302
1136,0.751,37.339,41.807,32.198,24.537,5.07,7.781,6.467
1137,0.738,37.465,41.803,32.159,24.527,4.906,7.575,6.262
1138,0.734,37.533,41.807,32.14,24.523,4.824,7.494,6.262
1139,0.747,37.572,41.807,32.169,24.53,4.865,7.617,6.302
1140,0.747,37.175,41.748,32.169,24.53,4.947,7.617,6.262
1141,0.744,37.291,41.776,32.15,24.516,4.824,7.494,6.302
1142,0.751,37.398,41.807,32.169,24.53,4.865,7.617,6.262
1143,0.767,37.262,41.827,32.179,24.527,4.947,7.534,6.262
1144,0.757,37.368,41.772,32.179,24.527,4.906,7.658,6.385
1145,0.751,37.504,41.772,32.188,24.541,5.07,7.74,6.426
1146,0.747,37.543,41.792,32.14,24.523,4.865,7.534,6.22
1147,0.747,36.991,41.799,32.14,24.52,4.783,7.617,6.302
1148,0.741,37.155,41.831,32.159,24.53,4.906,7.699,6.385
1149,0.734,37.262,41.819,32.169,24.53,4.988,7.658,6.426
1150,0.734,37.339,41.815,32.121,24.523,4.824,7.575,6.302
1151,0.761,37.223,41.788,32.198,24.523,4.906,7.617,6.262
1152,0.761,37.388,41.78,32.159,24.527,4.824,7.658,6.302
1153,0.754,37.465,41.827,32.15,24.53,4.906,7.658,6.426
1154,0.744,37.572,41.803,32.179,24.541,4.988,7.658,6.508
1155,0.728,37.155,41.78,32.13,24.523,4.824,7.575,6.302
1156,0.741,37.281,41.768,32.15,24.523,4.865,7.575,6.302
1157,0.754,37.436,41.819,32.15,24.53,4.988,7.617,6.385
1158,0.747,37.456,41.815,32.159,24.53,4.906,7.494,6.343
1159,0.747,37.214,41.851,32.14,24.53,4.947,7.617,6.385
1160,0.747,37.339,41.827,32.14,24.527,4.865,7.534,6.302
1161,0.754,37.446,41.748,32.14,24.523,4.783,7.452,6.22
1162,0.757,37.494,41.756,32.14,24.53,4.906,7.534,6.426
1163,0.78,37.243,41.827,32.169,24.537,4.988,7.617,6.302
1164,0.77,37.32,41.819,32.14,24.52,4.865,7.411,6.262
1165,0.757,37.436,41.744,32.159,24.53,4.865,7.494,6.343
1166,0.764,37.436,41.784,32.15,24.53,4.906,7.534,6.343
1167,0.754,37.233,41.78,32.13,24.53,4.906,7.452,6.302
1168,0.754,37.359,41.835,32.13,24.534,4.906,7.534,6.302
1169,0.754,37.456,41.823,32.14,24.534,4.865,7.452,6.302
1170,0.744,37.136,41.843,32.13,24.53,4.783,7.411,6.22
1171,0.741,37.223,41.776,32.14,24.534,4.947,7.534,6.302
1172,0.767,37.378,41.803,32.15,24.541,4.947,7.534,6.262
1173,0.741,37.427,41.78,32.111,24.523,4.865,7.411,6.22
1174,0.747,37.291,41.827,32.121,24.53,4.906,7.452,6.302
1175,0.764,37.446,41.772,32.15,24.534,4.947,7.494,6.385
1176,0.754,37.562,41.689,32.14,24.53,4.865,7.37,6.262
1177,0.754,37.63,41.796,32.15,24.537,4.906,7.452,6.343
1178,0.764,37.243,41.788,32.14,24.52,4.865,7.329,6.22
1179,0.764,37.359,41.811,32.111,24.516,4.824,7.288,6.138
1180,0.767,37.494,41.831,32.13,24.534,4.906,7.411,6.302
1181,0.787,37.562,41.851,32.14,24.537,4.906,7.37,6.22
1182,0.77,37.126,41.725,32.13,24.527,4.742,7.288,6.22
1183,0.774,37.291,41.756,32.101,24.527,4.865,7.37,6.22
1184,0.77,37.427,41.807,32.13,24.534,4.947,7.37,6.302
1185,0.774,37.436,41.811,32.121,24.53,4.947,7.37,6.22
1186,0.777,37.417,41.76,32.13,24.541,4.906,7.452,6.302
1187,0.754,37.523,41.717,32.14,24.53,4.824,7.288,6.138
1188,0.738,37.611,41.764,32.121,24.516,4.906,7.288,6.138
1189,0.757,37.678,41.78,32.13,24.534,4.906,7.37,6.302
1190,0.747,37.243,41.76,32.13,24.527,4.947,7.37,6.22
1191,0.761,37.33,41.796,32.121,24.523,4.783,7.329,6.138
1192,0.767,37.446,41.807,32.121,24.52,4.865,7.37,6.138
1193,0.767,37.465,41.772,32.121,24.527,4.906,7.37,6.22
1194,0.77,37.388,41.772,32.13,24.53,4.865,7.411,6.179
1195,0.764,37.543,41.855,32.15,24.537,5.03,7.575,6.302
1196,0.731,37.582,41.827,32.121,24.527,4.865,7.411,6.138
1197,0.741,37.097,41.776,32.082,24.52,4.824,7.288,6.138
1198,0.774,37.223,41.721,32.121,24.541,4.824,7.534,6.22
1199,0.774,37.339,41.756,32.15,24.53,4.865,7.452,6.262
1200,0.761,37.407,41.768,32.121,24.52,4.865,7.452,6.138
1201,0.787,37.184,41.78,32.101,24.53,4.824,7.452,6.179
1202,0.777,37.31,41.811,32.13,24.53,4.906,7.37,6.22
1203,0.77,37.446,41.721,32.121,24.53,4.947,7.534,6.262
1204,0.767,37.523,41.792,32.14,24.544,4.906,7.617,6.385
1205,0.774,37.204,41.784,32.092,24.527,4.742,7.411,6.179
1206,0.761,37.339,41.827,32.082,24.516,4.742,7.37,6.179
1207,0.767,37.494,41.799,32.121,24.537,4.988,7.534,6.302
1208,0.767,37.533,41.776,32.121,24.534,4.865,7.452,6.22
1209,0.761,37.107,41.709,32.082,24.52,4.824,7.411,6.22
1210,0.761,37.272,41.772,32.101,24.527,4.824,7.411,6.22
1211,0.764,37.388,41.764,32.111,24.534,4.865,7.452,6.22
1212,0.761,37.417,41.843,32.121,24.537,4.865,7.452,6.343
1213,0.774,37.204,41.78,32.13,24.541,4.865,7.575,6.385
1214,0.761,37.33,41.748,32.072,24.527,4.824,7.329,6.22
1215,0.741,37.417,41.768,32.072,24.516,4.701,7.329,6.262
1216,0.751,37.446,41.811,32.121,24.53,4.906,7.452,6.343
1217,0.757,37.301,41.851,32.111,24.527,4.865,7.37,6.343
1218,0.754,37.398,41.792,32.072,24.523,4.824,7.288,6.262
1219,0.774,37.514,41.788,32.092,24.527,4.742,7.329,6.302
1220,0.787,37.446,41.732,32.111,24.527,4.906,7.411,6.302
1221,0.787,37.417,41.796,32.111,24.523,4.906,7.329,6.343
1222,0.777,37.533,41.819,32.111,24.537,4.906,7.411,6.426
1223,0.764,37.611,41.819,32.082,24.523,4.783,7.288,6.302
1224,0.764,36.971,41.74,32.072,24.513,4.783,7.206,6.22
1225,0.774,37.078,41.764,32.101,24.527,4.906,7.288,6.467
1226,0.793,37.184,41.807,32.092,24.523,4.865,7.288,6.385
1227,0.774,37.262,41.803,32.072,24.52,4.783,7.206,6.302
1228,0.767,37.059,41.811,32.092,24.53,4.824,7.288,6.302
1229,0.767,37.214,41.796,32.121,24.527,4.783,7.37,6.385
1230,0.757,37.33,41.776,32.101,24.527,4.865,7.288,6.385
1231,0.764,37.427,41.76,32.111,24.541,4.988,7.452,6.467
1232,0.767,37.0,41.788,32.063,24.523,4.824,7.206,6.302
1233,0.754,37.117,41.811,32.063,24.513,4.783,7.165,6.262
1234,0.761,37.252,41.784,32.092,24.541,4.865,7.37,6.467
1235,0.757,37.33,41.788,32.092,24.52,4.865,7.288,6.343
1236,0.747,37.0,41.768,32.072,24.516,4.783,7.288,6.262
1237,0.761,37.155,41.827,32.072,24.527,4.865,7.288,6.385
1238,0.793,37.272,41.819,32.092,24.523,4.824,7.329,6.343
1239,0.787,37.31,41.811,32.072,24.53,4.824,7.37,6.426
1240,0.787,36.952,41.839,32.111,24.537,5.03,7.452,6.467
1241,0.774,37.068,41.717,32.063,24.52,4.865,7.247,6.343
1242,0.764,37.155,41.744,32.053,24.523,4.742,7.247,6.22
1243,0.793,37.204,41.819,32.092,24.527,4.906,7.329,6.343
1244,0.79,36.942,41.799,32.082,24.53,4.824,7.37,6.302
1245,0.78,37.068,41.768,32.053,24.516,4.783,7.37,6.302
1246,0.774,37.165,41.784,32.082,24.52,4.865,7.452,6.302
1247,0.774,37.02,41.807,32.072,24.534,4.906,7.452,6.385
1248,0.77,37.029,41.835,32.092,24.52,4.865,7.575,6.302
1249,0.767,37.155,41.815,32.101,24.534,5.03,7.658,6.467
1250,0.751,37.223,41.819,32.063,24.52,4.783,7.494,6.22
1251,0.744,36.758,41.709,32.043,24.523,4.742,7.494,6.22
1252,0.761,36.942,41.76,32.101,24.53,5.03,7.617,6.302
1253,0.757,37.029,41.799,32.092,24.527,4.906,7.658,6.262
1254,0.754,37.107,41.819,32.053,24.52,4.824,7.575,6.22
1255,0.761,36.855,41.748,32.063,24.516,4.865,7.575,6.302
1256,0.754,37.02,41.764,32.053,24.52,4.865,7.534,6.179
1257,0.761,37.136,41.78,32.072,24.527,4.824,7.617,6.262
1258,0.777,37.243,41.815,32.101,24.534,4.988,7.699,6.426
1259,0.774,36.826,41.843,32.053,24.52,4.824,7.411,6.22
1260,0.77,36.952,41.815,32.043,24.52,4.824,7.534,6.22
1261,0.787,37.117,41.792,32.082,24.527,4.906,7.617,6.22
1262,0.777,37.155,41.796,32.072,24.53,4.947,7.494,6.262
1263,0.784,36.787,41.788,32.043,24.527,4.824,7.494,6.22
1264,0.784,36.894,41.847,32.072,24.523,4.865,7.494,6.22
1265,0.777,37.029,41.772,32.063,24.523,4.824,7.411,6.22
1266,0.784,37.088,41.788,32.13,24.527,4.906,7.494,6.22
1267,0.784,36.845,41.76,32.121,24.541,5.03,7.617,6.343
1268,0.767,36.952,41.784,32.053,24.527,4.824,7.37,6.22
1269,0.757,37.049,41.772,32.043,24.527,4.824,7.411,6.179
1270,0.761,37.097,41.819,32.072,24.53,4.906,7.411,6.262
1271,0.757,36.845,41.823,32.063,24.527,4.906,7.411,6.262
1272,0.751,37.02,41.768,32.063,24.52,4.865,7.329,6.22
1273,0.764,37.097,41.772,32.043,24.527,4.865,7.329,6.056
1274,0.757,36.874,41.819,32.063,24.527,4.906,7.206,6.138
1275,0.757,36.865,41.827,32.063,24.541,4.988,7.411,6.262
1276,0.777,37.02,41.736,32.082,24.541,4.988,7.411,6.302
1277,0.757,37.059,41.768,32.043,24.523,4.824,7.206,6.179
1278,0.77,36.71,41.756,32.043,24.527,4.906,7.288,6.179
1279,0.77,36.874,41.796,32.063,24.534,4.988,7.329,6.302
1280,0.777,36.952,41.776,32.063,24.53,4.906,7.247,6.22
1281,0.751,37.02,41.784,32.063,24.534,4.947,7.247,6.302
1282,0.764,36.739,41.74,32.053,24.53,4.947,7.206,6.262
1283,0.764,36.894,41.772,32.043,24.513,4.783,7.124,6.056
1284,0.767,37.0,41.807,32.063,24.53,4.988,7.288,6.302
1285,0.774,37.097,41.835,32.072,24.534,4.947,7.288,6.262
1286,0.761,36.69,41.796,32.043,24.52,4.824,7.124,6.138
1287,0.767,36.884,41.732,32.043,24.523,4.947,7.206,6.262
1288,0.761,37.0,41.744,32.082,24.534,4.906,7.247,6.262
1289,0.757,37.029,41.752,32.053,24.53,4.947,7.206,6.22
1290,0.754,36.855,41.772,32.053,24.53,4.947,7.247,6.385
1291,0.754,36.981,41.768,32.063,24.53,4.906,7.124,6.138
1292,0.757,37.078,41.807,32.034,24.52,4.824,7.083,6.138
1293,0.764,37.126,41.701,32.063,24.53,4.947,7.247,6.302
1294,0.764,36.845,41.78,32.063,24.523,4.947,7.288,6.262
1295,0.741,36.933,41.772,32.043,24.52,4.865,7.124,6.22
1296,0.751,37.059,41.843,32.053,24.53,4.947,7.083,6.262
1297,0.761,37.417,41.788,32.053,24.537,4.988,7.206,6.22
1298,0.754,36.971,41.725,32.043,24.527,4.988,7.165,6.262
1299,0.754,37.068,41.705,32.043,24.534,4.988,7.247,6.343
1300,0.767,37.184,41.788,32.092,24.527,4.906,7.124,6.22
1301,0.764,36.807,41.736,32.043,24.523,4.906,7.124,6.179
1302,0.767,36.816,41.823,32.053,24.537,4.906,7.206,6.262
1303,0.777,36.981,41.807,32.082,24.541,5.03,7.329,6.343
1304,0.767,37.029,41.748,32.043,24.523,4.865,7.124,6.22
1305,0.774,36.845,41.764,32.034,24.523,4.947,7.083,6.179
1306,0.761,36.991,41.815,32.053,24.534,4.947,7.124,6.302
1307,0.754,37.097,41.831,32.034,24.523,4.988,7.124,6.262
1308,0.747,37.184,41.788,32.034,24.523,4.906,7.124,6.262
1309,0.747,36.778,41.744,32.043,24.527,4.906,7.083,6.22
1310,0.761,36.923,41.748,32.043,24.523,4.947,7.124,6.138
1311,0.741,37.068,41.803,32.043,24.534,4.988,7.124,6.22
1312,0.757,37.175,41.819,32.063,24.534,5.03,7.247,6.262
1313,0.738,36.768,41.799,32.024,24.523,4.906,7.042,6.138
1314,0.738,36.923,41.76,32.053,24.527,4.947,7.124,6.22
1315,0.751,37.088,41.756,32.043,24.527,4.988,7.206,6.262
1316,0.747,37.097,41.784,32.043,24.53,4.906,7.124,6.262
1317,0.751,36.904,41.819,32.034,24.527,4.865,7.165,6.138
1318,0.761,37.059,41.792,32.034,24.527,4.906,7.083,6.138
1319,0.754,37.175,41.819,32.043,24.523,4.865,7.165,6.056
1320,0.767,37.214,41.776,32.043,24.534,4.988,7.247,6.138
1321,0.767,36.874,41.807,32.072,24.541,5.07,7.329,6.262
1322,0.767,36.971,41.744,32.024,24.527,4.865,7.124,6.138
1323,0.754,37.049,41.823,32.024,24.527,4.906,7.124,6.179
1324,0.754,37.388,41.744,32.053,24.527,4.947,7.288,6.138
1325,0.761,37.059,41.756,32.043,24.527,4.947,7.165,6.056
1326,0.738,37.184,41.768,32.005,24.513,4.865,7.206,6.179
1327,0.751,37.262,41.792,32.014,24.527,4.906,7.124,6.097
1328,0.751,36.874,41.839,32.024,24.523,4.865,7.124,6.056
1329,0.747,36.913,41.799,32.034,24.516,4.988,7.206,6.097
1330,0.747,37.059,41.835,32.063,24.541,5.03,7.288,6.262
1331,0.724,37.126,41.693,32.014,24.523,4.906,7.042,6.056
1332,0.747,36.913,41.768,32.005,24.527,4.824,7.083,6.056
1333,0.757,37.107,41.803,32.024,24.537,4.988,7.165,6.138
1334,0.747,37.194,41.815,32.024,24.523,4.906,7.124,6.097
1335,0.731,37.281,41.709,32.014,24.523,4.865,7.124,6.015
1336,0.754,36.855,41.772,32.014,24.527,4.906,7.124,6.056
1337,0.761,37.01,41.792,32.024,24.527,4.824,7.124,6.097
1338,0.761,37.126,41.803,32.034,24.53,4.947,7.124,6.138
1339,0.77,37.194,41.803,32.053,24.541,5.07,7.288,6.262
1340,0.761,36.845,41.796,32.005,24.52,4.865,7.124,5.974
1341,0.761,36.962,41.744,32.005,24.523,4.906,7.124,6.138
1342,0.774,37.126,41.796,32.034,24.527,4.988,7.124,6.138
1343,0.751,37.175,41.796,32.034,24.527,4.988,7.247,6.056
1344,0.754,36.855,41.835,32.005,24.527,4.824,7.165,6.097
1345,0.751,37.01,41.729,32.014,24.534,4.906,7.165,6.056
1346,0.764,37.136,41.764,32.014,24.52,4.824,7.165,5.974
1347,0.747,37.165,41.776,32.014,24.53,4.947,7.206,6.097
1348,0.751,36.816,41.827,32.053,24.534,5.03,7.37,6.179
1349,0.744,36.913,41.807,31.985,24.52,4.865,7.124,5.974
1350,0.734,37.0,41.839,32.014,24.523,4.865,7.247,6.056
1351,0.731,37.155,41.78,32.034,24.53,4.988,7.288,6.138
1352,0.761,36.971,41.756,32.024,24.53,4.947,7.288,6.138
1353,0.751,37.107,41.78,32.024,24.527,4.906,7.411,6.097
1354,0.751,37.204,41.831,32.005,24.52,4.824,7.329,6.015
1355,0.751,36.894,41.756,32.005,24.523,4.783,7.329,6.015
1356,0.747,37.01,41.776,32.092,24.527,4.865,7.452,6.097
1357,0.764,37.146,41.827,32.043,24.537,4.947,7.494,6.097
1358,0.734,37.175,41.764,31.985,24.506,4.824,7.411,5.933
1359,0.764,36.758,41.792,32.005,24.52,4.865,7.452,5.974
1360,0.764,36.894,41.827,32.005,24.53,4.906,7.494,6.138
1361,0.751,36.981,41.803,32.014,24.527,4.865,7.534,6.015
1362,0.731,37.088,41.772,32.053,24.523,4.865,7.575,6.056
1363,0.741,36.768,41.725,32.014,24.523,4.865,7.452,6.056
1364,0.751,36.904,41.819,31.995,24.523,4.783,7.37,5.892
1365,0.774,37.029,41.772,32.005,24.527,4.865,7.494,6.056
1366,0.774,37.136,41.736,32.053,24.537,5.03,7.617,6.056
1367,0.754,36.729,41.732,32.005,24.523,4.783,7.411,5.933
1368,0.744,36.865,41.792,32.014,24.527,4.906,7.452,5.974
1369,0.754,37.0,41.811,32.034,24.534,4.947,7.494,6.056
1370,0.764,37.029,41.815,32.005,24.53,4.906,7.411,6.015
1371,0.764,36.739,41.796,31.995,24.527,4.865,7.452,6.056
1372,0.751,36.884,41.729,32.005,24.527,4.865,7.37,5.974
1373,0.731,37.0,41.756,31.985,24.52,4.824,7.37,5.933
1374,0.751,37.029,41.799,32.014,24.53,4.947,7.534,6.056
1375,0.747,36.836,41.827,32.014,24.53,4.906,7.452,6.015
1376,0.724,36.942,41.76,31.976,24.523,4.824,7.452,5.933
1377,0.747,37.049,41.701,32.024,24.534,4.824,7.534,6.056
1378,0.754,37.02,41.736,32.034,24.527,4.906,7.617,6.015
1379,0.761,36.816,41.776,32.005,24.523,4.865,7.452,5.974
1380,0.761,36.952,41.788,32.014,24.52,4.988,7.575,6.056
1381,0.754,37.039,41.811,31.995,24.523,4.906,7.37,5.933
1382,0.757,36.739,41.772,31.966,24.516,4.742,7.288,5.892
1383,0.757,36.894,41.768,32.014,24.527,4.906,7.494,6.015
1384,0.78,37.02,41.784,32.014,24.527,4.947,7.452,6.015
1385,0.761,37.059,41.819,31.976,24.52,4.783,7.37,5.892
1386,0.751,36.758,41.823,31.985,24.523,4.906,7.452,5.974
1387,0.754,36.904,41.744,32.014,24.527,4.906,7.411,5.974
1388,0.744,37.049,41.701,32.005,24.53,4.906,7.411,5.933
1389,0.744,37.117,41.732,32.043,24.527,4.906,7.411,5.974
1390,0.757,36.584,41.74,31.995,24.527,4.865,7.329,5.851
1391,0.751,36.7,41.811,31.985,24.513,4.783,7.206,5.892
1392,0.747,36.845,41.819,32.005,24.534,4.906,7.411,5.974
1393,0.761,36.942,41.756,32.014,24.53,4.988,7.329,5.974
1394,0.744,36.642,41.764,31.976,24.523,4.824,7.247,5.851
1395,0.747,36.778,41.803,32.005,24.52,4.824,7.37,5.933
1396,0.751,36.923,41.831,32.014,24.527,4.947,7.288,5.933
1397,0.761,36.962,41.803,32.005,24.527,4.947,7.329,5.974
1398,0.764,36.574,41.764,32.005,24.53,4.906,7.37,5.933
1399,0.764,36.7,41.717,31.985,24.516,4.824,7.288,5.81
1400,0.774,36.816,41.701,31.976,24.516,4.742,7.206,5.851
1401,0.78,36.845,41.729,32.005,24.527,4.906,7.288,6.015
1402,0.797,36.681,41.803,32.014,24.534,5.03,7.329,6.015
1403,0.787,36.758,41.772,31.976,24.516,4.824,7.165,5.851
1404,0.784,36.874,41.768,31.995,24.516,4.824,7.288,5.933
1405,0.787,36.749,41.768,31.985,24.534,4.865,7.247,6.015
1406,0.797,36.594,41.784,31.985,24.523,4.783,7.206,5.974
1407,0.78,36.7,41.796,31.966,24.523,4.865,7.288,5.974
1408,0.79,36.807,41.799,31.995,24.52,4.824,7.206,5.933
1409,0.797,36.661,41.768,31.985,24.53,4.824,7.247,5.851
1410,0.8,36.778,41.732,31.995,24.53,4.906,7.206,5.974
1411,0.803,36.942,41.768,32.034,24.541,4.988,7.452,6.097
1412,0.8,37.01,41.744,31.985,24.523,4.824,7.288,5.892
1413,0.79,36.439,41.835,31.985,24.52,4.824,7.329,5.974
1414,0.807,36.584,41.736,32.005,24.527,4.906,7.411,6.015
1415,0.82,36.71,41.78,31.995,24.527,4.865,7.37,6.015
1416,0.816,36.787,41.768,31.995,24.52,4.824,7.37,5.933
1417,0.836,36.39,41.823,31.966,24.52,4.865,7.37,5.974
1418,0.843,36.545,41.839,31.995,24.527,4.865,7.452,5.974
1419,0.846,36.661,41.843,31.995,24.527,4.906,7.534,6.015
1420,0.869,36.739,41.823,32.034,24.537,5.03,7.699,6.056
1421,0.862,36.477,41.725,31.976,24.52,4.824,7.494,5.933
1422,0.833,36.584,41.764,31.976,24.516,4.865,7.494,5.933
1423,0.872,36.739,41.807,32.005,24.534,4.988,7.617,5.974
1424,0.866,36.787,41.803,31.995,24.527,4.865,7.575,6.056
1425,0.869,36.429,41.752,32.043,24.52,4.824,7.575,5.974
1426,0.879,36.574,41.776,31.985,24.523,4.947,7.617,5.974
1427,0.856,36.7,41.784,31.985,24.53,4.865,7.617,5.974
1428,0.859,36.72,41.815,31.985,24.534,4.947,7.699,6.015
1429,0.853,36.584,41.811,32.014,24.537,5.03,7.822,6.138
1430,0.856,36.661,41.803,31.956,24.52,4.865,7.699,5.974
1431,0.83,36.778,41.709,31.976,24.523,4.865,7.699,5.974
1432,0.843,36.642,41.748,31.985,24.534,4.906,7.781,5.974
1433,0.836,36.535,41.776,31.985,24.53,4.865,7.699,6.015
1434,0.843,36.652,41.815,31.966,24.53,4.865,7.822,5.974
1435,0.869,36.778,41.764,31.976,24.53,4.824,7.781,5.892
1436,0.856,36.332,41.78,31.976,24.52,4.824,7.699,5.892
1437,0.866,36.448,41.776,31.995,24.523,4.947,7.781,5.974
1438,0.862,36.613,41.831,32.024,24.537,5.03,7.822,6.056
1439,0.853,36.623,41.807,31.976,24.523,4.824,7.658,5.892
1440,0.846,36.439,41.831,32.005,24.53,4.824,7.699,5.974
1441,0.866,36.594,41.827,31.995,24.53,4.988,7.781,5.974
1442,0.853,36.72,41.756,31.985,24.527,4.906,7.699,5.974
1443,0.859,36.778,41.744,31.985,24.534,4.906,7.699,6.056
1444,0.856,36.342,41.803,31.985,24.523,4.865,7.658,5.933
1445,0.872,36.487,41.772,31.946,24.527,4.824,7.658,5.933
1446,0.866,36.632,41.721,32.014,24.527,4.988,7.699,6.015
1447,0.902,36.7,41.78,32.005,24.534,4.988,7.781,6.056
1448,0.869,36.351,41.752,31.966,24.52,4.865,7.617,5.974
1449,0.879,36.497,41.792,31.985,24.527,4.865,7.699,6.097
1450,0.879,36.613,41.796,31.985,24.53,4.988,7.74,6.138
1451,0.856,36.652,41.823,31.995,24.527,4.906,7.699,6.056
1452,0.856,36.429,41.772,32.063,24.527,5.03,7.781,6.262
1453,0.849,36.555,41.764,31.976,24.523,4.865,7.658,6.056
1454,0.843,36.632,41.78,31.966,24.52,4.783,7.658,6.015
1455,0.836,36.681,41.788,31.995,24.534,4.988,7.74,6.179
1456,0.839,36.371,41.74,32.005,24.53,4.988,7.781,6.097
1457,0.846,36.458,41.729,31.985,24.516,4.865,7.658,6.097
1458,0.849,36.594,41.788,31.976,24.53,4.824,7.699,6.097
1459,0.853,36.419,41.796,31.995,24.53,4.865,7.74,6.179
1460,0.843,36.371,41.835,31.976,24.523,4.906,7.658,6.138
1461,0.836,36.487,41.776,31.985,24.523,4.947,7.74,6.179
1462,0.82,36.584,41.764,31.976,24.527,4.865,7.617,6.138
1463,0.826,36.226,41.764,31.966,24.527,4.783,7.575,6.056
1464,0.816,36.351,41.784,31.985,24.53,4.906,7.617,6.22
1465,0.836,36.506,41.827,31.995,24.534,4.947,7.617,6.179
1466,0.803,36.526,41.74,31.946,24.516,4.783,7.452,6.056
1467,0.793,36.196,41.701,31.976,24.527,4.906,7.575,6.179
1468,0.803,36.351,41.717,31.985,24.534,4.906,7.575,6.179
1469,0.807,36.458,41.74,31.966,24.527,4.865,7.534,6.179
1470,0.797,36.535,41.776,31.976,24.523,4.947,7.452,6.22
1471,0.793,36.284,41.807,31.966,24.53,4.824,7.411,6.138
1472,0.787,36.439,41.803,31.956,24.527,4.865,7.37,6.097
1473,0.793,36.565,41.784,31.976,24.527,4.947,7.452,6.179
1474,0.813,36.632,41.768,31.995,24.537,5.03,7.534,6.22
1475,0.79,36.148,41.811,31.937,24.523,4.906,7.37,6.262
1476,0.803,36.274,41.799,31.985,24.53,4.906,7.411,6.138
1477,0.807,36.429,41.764,31.976,24.53,4.947,7.411,6.179
1478,0.787,36.439,41.701,31.966,24.527,4.906,7.411,6.179
1479,0.797,36.216,41.673,31.966,24.53,4.947,7.452,6.179
1480,0.787,36.371,41.732,31.966,24.527,4.906,7.288,6.138
1481,0.787,36.477,41.752,31.956,24.516,4.865,7.288,6.097
1482,0.761,36.497,41.807,31.966,24.53,4.906,7.329,6.302
1483,0.77,36.177,41.764,31.985,24.541,5.07,7.494,6.302
1484,0.757,36.264,41.74,31.946,24.516,4.824,7.247,6.179
1485,0.757,36.371,41.78,31.946,24.53,4.947,7.37,6.097
1486,0.757,36.303,41.803,31.976,24.527,4.988,7.37,6.343
1487,0.747,36.351,41.792,31.966,24.523,4.988,7.329,6.138
1488,0.728,36.468,41.756,31.966,24.53,4.988,7.452,6.262
1489,0.728,36.565,41.74,31.966,24.516,4.906,7.411,6.097
1490,0.724,36.042,41.689,31.946,24.523,4.906,7.37,6.097
1491,0.731,36.167,41.756,31.966,24.537,4.947,7.37,6.262
1492,0.741,36.322,41.796,31.995,24.534,4.988,7.494,6.343
1493,0.738,36.381,41.78,31.956,24.52,4.865,7.411,6.138
1494,0.724,36.177,41.685,31.966,24.523,4.947,7.494,6.262
1495,0.718,36.351,41.748,31.966,24.534,4.988,7.494,6.302
1496,0.738,36.458,41.803,31.976,24.53,4.988,7.494,6.302
1497,0.734,36.516,41.811,31.946,24.527,4.947,7.452,6.22
1498,0.738,36.08,41.803,31.946,24.527,5.03,7.452,6.179
1499,0.754,36.245,41.764,31.946,24.523,4.865,7.452,6.179
1500,0.734,36.361,41.788,31.956,24.523,4.947,7.494,6.262
1501,0.744,36.448,41.784,32.005,24.53,5.153,7.534,6.343
1502,0.731,36.109,41.764,31.966,24.516,4.906,7.37,6.179
1503,0.728,36.255,41.819,31.927,24.52,4.947,7.329,6.22
1504,0.741,36.4,41.764,31.966,24.527,5.03,7.452,6.262
1505,0.728,36.429,41.776,31.976,24.523,4.988,7.452,6.22
1506,0.728,36.361,41.772,31.937,24.523,4.906,7.329,6.22
1507,0.731,36.516,41.831,31.946,24.516,5.03,7.288,6.179
1508,0.738,36.632,41.803,31.966,24.527,4.947,7.37,6.22
1509,0.741,36.942,41.827,31.946,24.523,4.988,7.37,6.22
1510,0.734,35.983,41.78,31.985,24.534,5.07,7.452,6.343
1511,0.721,36.129,41.689,31.946,24.52,4.947,7.288,6.138
1512,0.711,36.216,41.705,31.937,24.513,4.906,7.165,6.22
1513,0.734,36.138,41.807,31.966,24.53,5.03,7.37,6.262
1514,0.705,36.206,41.748,31.946,24.523,4.906,7.288,6.262
1515,0.708,36.303,41.748,32.005,24.52,4.906,7.206,6.179
1516,0.724,36.419,41.756,31.946,24.523,4.906,7.206,6.302
1517,0.738,36.012,41.784,31.956,24.523,4.988,7.37,6.302
1518,0.738,36.138,41.835,31.937,24.53,4.947,7.37,6.262
1519,0.747,36.274,41.827,31.966,24.534,5.03,7.452,6.426
1520,0.738,36.313,41.843,31.927,24.513,4.906,7.329,6.262
1521,0.738,36.003,41.713,31.908,24.513,4.824,7.288,6.22
1522,0.744,36.216,41.748,31.956,24.523,4.988,7.494,6.343
1523,0.747,36.332,41.764,31.946,24.527,4.947,7.534,6.343
1524,0.731,36.361,41.78,31.927,24.516,4.865,7.411,6.262
1525,0.741,36.061,41.693,31.946,24.527,4.988,7.494,6.262
1526,0.744,36.226,41.78,31.966,24.534,4.906,7.575,6.385
1527,0.734,36.322,41.768,31.946,24.527,4.988,7.494,6.343
1528,0.724,36.39,41.792,31.937,24.527,4.947,7.575,6.467
1529,0.724,35.974,41.799,31.937,24.523,4.906,7.452,6.302
1530,0.718,36.09,41.772,31.946,24.516,4.824,7.37,6.22
1531,0.721,36.226,41.78,31.946,24.527,4.988,7.494,6.343
1532,0.731,36.293,41.748,31.946,24.527,4.947,7.534,6.302
1533,0.721,36.177,41.732,31.908,24.52,4.865,7.452,6.22
1534,0.718,36.332,41.784,31.937,24.527,4.906,7.494,6.302
1535,0.731,36.458,41.736,31.966,24.53,4.988,7.617,6.385
1536,0.718,36.681,41.732,31.966,24.53,4.947,7.699,6.262
1537,0.701,36.08,41.748,31.956,24.527,5.03,7.617,6.343
1538,0.705,36.187,41.764,31.946,24.523,4.947,7.494,6.302
1539,0.698,36.264,41.784,31.927,24.513,4.865,7.452,6.22
1540,0.705,36.08,41.819,31.946,24.527,4.947,7.575,6.302
1541,0.721,36.167,41.799,31.937,24.527,4.906,7.534,6.343
1542,0.692,36.255,41.76,31.917,24.52,4.824,7.452,6.22
1543,0.708,36.351,41.764,31.927,24.523,4.906,7.494,6.343
1544,0.711,36.051,41.827,31.946,24.53,4.988,7.617,6.302
1545,0.731,36.177,41.764,31.917,24.527,4.947,7.575,6.262
1546,0.747,36.284,41.677,31.927,24.53,5.03,7.617,6.343
1547,0.787,36.371,41.744,31.917,24.52,4.947,7.494,6.262
1548,0.803,35.954,41.784,31.888,24.516,4.824,7.494,6.262
1549,0.853,36.129,41.796,31.937,24.527,4.988,7.534,6.302
1550,0.908,36.264,41.815,31.956,24.523,5.03,7.494,6.262
1551,0.918,36.293,41.796,31.898,24.516,4.906,7.494,6.179
1552,0.948,36.022,41.736,31.937,24.527,4.906,7.494,6.262
1553,0.974,36.177,41.732,31.937,24.52,4.906,7.617,6.262
1554,1.01,36.293,41.792,31.927,24.527,4.988,7.534,6.22
1555,1.05,36.332,41.784,31.937,24.527,4.988,7.699,6.302
1556,1.112,35.974,41.717,31.927,24.52,4.865,7.575,6.22
1557,1.178,36.119,41.74,31.956,24.513,4.824,7.494,6.097
1558,1.267,36.245,41.74,31.927,24.53,4.947,7.617,6.302
1559,1.342,36.303,41.768,31.946,24.53,4.947,7.699,6.22
1560,1.398,36.051,41.772,31.908,24.52,4.824,7.699,6.056
1561,1.474,36.206,41.835,31.927,24.523,4.906,7.617,6.22
1562,1.536,36.322,41.78,31.937,24.537,4.988,7.699,6.262
1563,1.559,36.361,41.764,31.927,24.527,4.947,7.699,6.262
1564,1.575,35.974,41.764,31.937,24.527,4.988,7.74,6.262
1565,1.615,36.09,41.788,31.917,24.523,4.906,7.658,6.22
1566,1.621,36.216,41.76,31.898,24.516,4.865,7.534,6.056
1567,1.612,36.042,41.709,31.917,24.53,5.03,7.658,6.262
1568,1.615,36.158,41.756,31.976,24.53,4.988,7.617,6.343
1569,1.585,36.226,41.756,31.908,24.52,4.865,7.575,6.179
1570,1.598,36.332,41.78,31.917,24.52,4.947,7.575,6.262
1571,1.575,35.974,41.823,31.917,24.534,5.07,7.617,6.302
1572,1.552,36.09,41.807,31.927,24.53,4.947,7.575,6.22
1573,1.536,36.206,41.772,31.908,24.53,4.906,7.534,6.302
1574,1.513,36.322,41.768,31.908,24.523,4.988,7.575,6.262
1575,1.451,35.935,41.792,31.908,24.52,4.865,7.37,6.262
1576,1.365,36.08,41.803,31.917,24.527,4.988,7.494,6.426
1577,1.276,36.235,41.76,31.946,24.541,5.07,7.575,6.385
1578,1.191,36.264,41.685,31.917,24.516,4.906,7.37,6.343
1579,1.079,36.003,41.65,31.917,24.527,4.906,7.329,6.631
1580,1.014,36.167,41.729,31.927,24.527,5.07,7.494,6.877
1581,0.977,36.264,41.74,31.917,24.527,4.906,7.37,7.083
1582,0.931,36.284,41.788,31.898,24.52,4.988,7.37,7.411
1583,0.931,36.071,41.74,31.927,24.52,4.988,7.37,7.699
1584,0.899,36.187,41.764,31.908,24.516,4.906,7.247,8.027
1585,0.912,36.332,41.776,31.908,24.527,4.988,7.288,8.438
1586,0.928,36.371,41.815,31.937,24.534,5.03,7.452,8.684
1587,0.899,36.051,41.792,31.898,24.52,4.947,7.288,8.808
1588,0.895,36.206,41.736,31.908,24.52,4.988,7.329,9.136
1589,0.885,36.322,41.705,31.937,24.534,5.03,7.37,9.342
1590,0.846,36.274,41.673,31.927,24.527,4.988,7.288,9.424
1591,0.826,36.022,41.744,31.908,24.527,4.947,7.329,9.588
1592,0.813,36.177,41.799,31.908,24.52,4.988,7.247,9.67
1593,0.78,36.264,41.772,31.908,24.52,4.906,7.247,9.588
1594,0.774,35.954,41.803,31.917,24.527,4.947,7.329,9.711
1595,0.774,36.09,41.768,31.946,24.534,4.988,7.452,9.876
1596,0.757,36.167,41.784,31.888,24.523,4.906,7.288,9.711
1597,0.744,36.264,41.788,31.908,24.527,4.947,7.329,9.834
1598,0.767,36.187,41.788,31.927,24.527,5.07,7.411,9.957
1599,0.77,36.322,41.756,31.917,24.527,4.988,7.37,9.916
1600,0.797,36.419,41.732,31.917,24.523,4.947,7.411,9.999
1601,0.81,36.506,41.732,31.917,24.52,4.906,7.411,9.999
1602,0.83,35.78,41.732,31.898,24.523,4.906,7.37,9.999
1603,0.82,35.925,41.784,31.927,24.527,4.988,7.494,10.327
1604,0.836,36.08,41.713,31.946,24.53,5.03,7.534,10.45
1605,0.807,36.109,41.732,31.908,24.52,4.865,7.452,10.574
1606,0.787,35.983,41.744,31.908,24.53,4.947,7.575,10.779
1607,0.79,36.158,41.784,31.937,24.53,4.906,7.617,11.025
1608,0.78,36.274,41.799,31.927,24.53,4.906,7.617,11.108
1609,0.77,36.284,41.811,31.888,24.53,4.906,7.658,11.231
1610,0.777,35.935,41.784,31.917,24.523,4.947,7.658,11.189
1611,0.767,36.09,41.725,31.937,24.527,4.865,7.534,11.231
1612,0.764,36.206,41.756,31.927,24.527,5.03,7.699,11.354
1613,0.784,36.235,41.811,31.966,24.53,5.07,7.781,11.436
1614,0.764,35.935,41.78,31.888,24.513,4.865,7.617,11.231
1615,0.747,36.061,41.756,31.976,24.523,4.906,7.617,11.231
1616,0.767,36.206,41.756,31.937,24.53,5.03,7.699,11.272
1617,0.77,36.148,41.748,31.927,24.53,4.947,7.658,11.231
1618,0.774,36.061,41.796,31.917,24.523,4.906,7.699,11.149
1619,0.767,36.187,41.792,31.908,24.523,4.947,7.617,11.025
1620,0.777,36.274,41.819,31.927,24.523,4.906,7.699,10.861
1621,0.77,35.867,41.744,31.937,24.527,4.988,7.699,10.861
1622,0.793,35.993,41.764,31.956,24.534,5.07,7.781,10.82
1623,0.767,36.061,41.748,31.917,24.52,4.865,7.699,10.615
1624,0.761,36.148,41.796,31.898,24.509,4.824,7.617,10.574
1625,0.774,35.867,41.701,31.937,24.523,5.03,7.699,10.491
1626,0.764,36.022,41.748,31.927,24.527,4.947,7.699,10.368
1627,0.754,36.109,41.744,31.908,24.52,4.906,7.658,10.163
1628,0.754,36.206,41.772,31.917,24.523,4.947,7.658,10.163
1629,0.751,35.925,41.811,31.927,24.523,4.947,7.617,9.999
1630,0.754,36.071,41.807,31.908,24.527,5.03,7.699,9.957
1631,0.747,36.187,41.827,31.946,24.541,5.07,7.863,9.999
1632,0.77,36.245,41.752,31.908,24.523,4.824,7.699,9.711
1633,0.754,35.877,41.752,31.898,24.52,4.824,7.658,9.67
1634,0.78,36.051,41.799,31.937,24.534,5.03,7.822,9.67
1635,0.757,36.167,41.784,31.927,24.527,4.947,7.863,9.547
1636,0.754,36.206,41.65,31.908,24.523,4.865,7.74,9.465
1637,0.754,36.032,41.768,31.937,24.523,4.988,7.74,9.382
1638,0.761,36.158,41.784,31.917,24.523,4.906,7.863,9.342
1639,0.761,36.284,41.78,31.908,24.527,4.988,7.945,9.177
1640,0.764,36.293,41.831,31.937,24.534,5.07,7.945,9.259
1641,0.78,35.848,41.815,31.917,24.52,4.906,7.863,9.013
1642,0.761,35.974,41.681,31.888,24.516,4.865,7.863,8.931
1643,0.77,36.109,41.729,31.946,24.534,4.988,8.069,8.931
1644,0.774,36.032,41.764,31.908,24.527,4.906,7.986,8.931
1645,0.78,35.964,41.729,31.898,24.52,4.865,8.069,8.684
1646,0.793,36.119,41.705,31.917,24.527,4.906,8.069,8.684
1647,0.774,36.235,41.729,31.927,24.527,4.906,8.027,8.644
1648,0.757,35.867,41.725,31.917,24.527,4.947,8.109,8.602
1649,0.761,35.993,41.764,31.966,24.534,5.07,8.274,8.644
1650,0.757,36.071,41.792,31.917,24.516,4.865,8.109,8.438
1651,0.751,36.167,41.803,31.888,24.52,4.824,8.069,8.356
1652,0.761,35.857,41.764,31.908,24.534,4.988,8.15,8.479
1653,0.764,35.974,41.772,31.927,24.53,4.988,8.15,8.315
1654,0.761,36.09,41.76,31.898,24.52,4.865,8.069,8.233
1655,0.754,36.177,41.792,31.927,24.523,4.865,8.109,8.233
1656,0.761,35.925,41.78,31.917,24.523,4.865,8.027,8.069
1657,0.764,36.09,41.705,31.937,24.523,4.988,8.109,8.15
1658,0.777,36.206,41.665,31.956,24.537,5.03,8.192,8.192
1659,0.761,36.235,41.717,31.898,24.516,4.865,7.986,7.945
1660,0.767,35.819,41.748,31.908,24.523,4.865,7.986,7.945
1661,0.78,35.993,41.776,31.927,24.527,5.03,8.027,7.945
1662,0.767,36.109,41.792,31.908,24.53,4.906,7.986,7.945
1663,0.774,36.148,41.705,31.937,24.527,4.906,7.945,7.863
1664,0.784,36.071,41.736,31.927,24.523,4.865,7.945,7.74
1665,0.78,36.206,41.756,31.927,24.52,4.906,7.822,7.699
1666,0.787,36.313,41.78,31.908,24.53,4.947,7.904,7.74
1667,0.793,36.361,41.76,31.946,24.541,4.988,8.027,7.781
1668,0.767,35.877,41.681,31.917,24.52,4.742,7.74,7.617
1669,0.764,36.012,41.646,31.898,24.523,4.824,7.74,7.617
1670,0.774,36.129,41.717,31.927,24.527,4.947,7.74,7.658
1671,0.77,36.012,41.736,31.908,24.52,4.906,7.74,7.575
1672,0.754,36.003,41.76,31.898,24.52,4.824,7.781,7.494
1673,0.774,36.129,41.732,31.908,24.52,4.865,7.699,7.452
1674,0.777,36.235,41.725,31.927,24.523,4.865,7.74,7.37
1675,0.774,35.78,41.768,31.927,24.523,4.906,7.699,7.494
1676,0.777,35.916,41.815,31.937,24.541,4.988,7.822,7.494
1677,0.78,35.983,41.799,31.917,24.52,4.824,7.575,7.329
1678,0.777,36.08,41.736,31.888,24.516,4.824,7.617,7.329
1679,0.78,35.799,41.701,31.908,24.53,4.906,7.617,7.288
1680,0.79,35.925,41.685,31.908,24.52,4.906,7.617,7.247
1681,0.787,36.032,41.689,31.888,24.52,4.824,7.494,7.206
1682,0.784,36.109,41.744,31.898,24.527,4.783,7.575,7.206
1683,0.8,35.838,41.748,31.937,24.523,4.865,7.534,7.288
1684,0.803,36.003,41.732,31.927,24.527,4.865,7.575,7.165
1685,0.797,36.148,41.74,31.937,24.541,5.03,7.575,7.206
1686,0.78,36.148,41.784,31.898,24.523,4.824,7.452,7.001
1687,0.774,35.722,41.799,31.879,24.516,4.824,7.411,7.083
1688,0.767,35.896,41.799,31.917,24.53,4.906,7.534,7.083
1689,0.78,36.012,41.764,31.908,24.523,4.906,7.452,7.083
1690,0.774,36.032,41.709,31.888,24.52,4.824,7.37,6.96
1691,0.78,35.809,41.713,31.898,24.52,4.906,7.411,6.96
1692,0.784,35.954,41.709,31.888,24.523,4.824,7.452,6.919
1693,0.784,36.042,41.788,31.908,24.527,4.906,7.37,6.96
1694,0.793,36.09,41.729,31.917,24.537,5.03,7.534,7.083
1695,0.78,35.925,41.76,31.898,24.52,4.701,7.37,6.877
1696,0.784,36.032,41.729,31.888,24.52,4.824,7.37,6.837
1697,0.79,36.158,41.772,31.917,24.53,4.947,7.37,6.877
1698,0.793,35.751,41.776,31.888,24.52,4.947,7.288,6.877
1699,0.787,35.644,41.792,31.859,24.52,4.824,7.288,6.837
1700,0.8,35.799,41.78,31.879,24.523,4.906,7.329,6.795
1701,0.81,35.906,41.689,31.869,24.527,4.988,7.288,6.754
1702,0.813,35.722,41.725,31.888,24.527,5.03,7.37,6.795
1703,0.816,35.867,41.799,31.898,24.537,5.03,7.452,6.837
1704,0.803,35.935,41.776,31.859,24.513,4.824,7.288,6.672
1705,0.813,36.012,41.717,31.84,24.513,4.824,7.206,6.631
1706,0.813,35.712,41.752,31.879,24.53,4.865,7.288,6.754
1707,0.797,35.867,41.764,31.879,24.523,4.906,7.288,6.672
1708,0.793,35.954,41.756,31.859,24.523,4.947,7.206,6.672
1709,0.8,36.042,41.78,31.869,24.527,4.906,7.206,6.631
1710,0.813,35.77,41.827,31.869,24.527,4.988,7.206,6.631
1711,0.79,35.916,41.772,31.898,24.516,4.906,7.288,6.631
1712,0.78,36.08,41.764,31.908,24.534,4.988,7.329,6.754
1713,0.777,36.1,41.725,31.879,24.52,4.865,7.124,6.508
1714,0.78,35.712,41.788,31.85,24.516,4.824,7.165,6.549
1715,0.8,35.877,41.732,31.898,24.523,4.947,7.288,6.59
1716,0.8,36.003,41.65,31.898,24.523,4.988,7.329,6.631
1717,0.807,36.012,41.705,31.85,24.52,4.865,7.206,6.467
1718,0.807,35.722,41.74,31.869,24.527,4.906,7.247,6.508
1719,0.816,35.838,41.764,31.888,24.53,4.947,7.288,6.59
1720,0.816,35.964,41.803,31.898,24.523,4.988,7.37,6.549
1721,0.82,36.235,41.796,31.908,24.537,5.07,7.494,6.672
1722,0.81,35.79,41.693,31.879,24.527,4.906,7.411,6.426
1723,0.803,35.906,41.717,31.859,24.516,4.824,7.247,6.467
1724,0.81,36.051,41.764,31.898,24.527,4.947,7.452,6.549
1725,0.826,35.751,41.796,31.879,24.52,4.906,7.411,6.467
1726,0.816,35.741,41.713,31.869,24.523,4.906,7.37,6.385
1727,0.82,35.906,41.654,31.888,24.527,4.906,7.411,6.467
1728,0.823,36.022,41.732,31.908,24.527,4.988,7.411,6.467
1729,0.813,35.702,41.744,31.888,24.53,4.988,7.452,6.508
1730,0.813,35.857,41.748,31.927,24.537,5.07,7.658,6.59
1731,0.81,35.935,41.784,31.879,24.516,4.906,7.329,6.385
1732,0.803,36.022,41.752,31.84,24.513,4.865,7.411,6.385
1733,0.82,35.518,41.744,31.888,24.53,4.988,7.494,6.467
1734,0.83,35.664,41.732,31.879,24.523,4.988,7.452,6.467
1735,0.82,35.77,41.776,31.859,24.516,4.906,7.37,6.467
1736,0.83,35.857,41.756,31.888,24.527,4.906,7.452,6.467
1737,0.839,35.635,41.689,31.898,24.53,4.988,7.452,6.467
1738,0.833,35.78,41.665,31.908,24.527,4.988,7.452,6.467
1739,0.843,35.935,41.752,31.927,24.534,5.03,7.534,6.467
1740,0.836,35.954,41.709,31.859,24.516,4.947,7.288,6.385
1741,0.823,35.625,41.768,31.859,24.52,4.906,7.329,6.343
1742,0.853,35.78,41.803,31.888,24.53,4.988,7.452,6.426
1743,0.846,35.896,41.744,31.888,24.527,4.947,7.329,6.343
1744,0.843,35.925,41.721,31.859,24.52,4.906,7.288,6.385
1745,0.839,35.644,41.764,31.879,24.523,4.906,7.329,6.262
1746,0.839,35.828,41.776,31.888,24.523,4.906,7.206,6.262
1747,0.839,35.925,41.744,31.898,24.53,4.947,7.288,6.343
1748,0.856,36.245,41.689,31.908,24.537,5.07,7.411,6.467
1749,0.849,35.683,41.685,31.859,24.523,4.865,7.288,6.302
1750,0.846,35.78,41.729,31.859,24.516,4.906,7.288,6.302
1751,0.843,35.935,41.732,31.917,24.53,5.03,7.411,6.426
1752,0.843,35.615,41.792,31.888,24.527,5.03,7.37,6.302
1753,0.839,35.644,41.713,31.869,24.516,4.906,7.329,6.385
1754,0.849,35.799,41.74,31.869,24.527,4.947,7.288,6.343
1755,0.866,35.877,41.732,31.898,24.52,4.906,7.288,6.343
1756,0.872,35.615,41.788,31.898,24.53,4.988,7.411,6.385
1757,0.862,35.78,41.78,31.908,24.537,5.07,7.494,6.508
1758,0.869,35.857,41.732,31.869,24.52,4.865,7.247,6.302
1759,0.872,35.945,41.701,31.859,24.523,4.865,7.411,6.343
1760,0.882,35.548,41.669,31.888,24.534,4.947,7.452,6.385
1761,0.882,35.693,41.725,31.879,24.53,4.906,7.411,6.343
1762,0.866,35.79,41.732,31.869,24.52,4.906,7.452,6.343
1763,0.876,35.896,41.788,31.879,24.527,4.906,7.494,6.343
1764,0.885,35.635,41.748,31.917,24.523,4.906,7.494,6.302
1765,0.892,35.78,41.74,31.898,24.527,4.906,7.534,6.343
1766,0.889,35.916,41.776,31.898,24.534,5.03,7.781,6.426
1767,0.885,35.916,41.792,31.85,24.523,4.824,7.534,6.262
1768,0.866,35.615,41.744,31.859,24.52,4.742,7.617,6.22
1769,0.895,35.819,41.74,31.898,24.53,4.906,7.781,6.343
1770,0.889,35.916,41.685,31.888,24.523,4.906,7.781,6.343
1771,0.879,35.935,41.705,31.869,24.527,4.906,7.699,6.179
1772,0.892,35.751,41.721,31.888,24.527,4.824,7.699,6.22
1773,0.902,35.916,41.764,31.869,24.527,4.906,7.781,6.302
1774,0.892,36.012,41.709,31.869,24.53,4.865,7.822,6.262
1775,0.915,36.167,41.748,31.917,24.527,5.07,7.945,6.343
1776,0.912,35.819,41.725,31.879,24.523,4.906,7.781,6.22
1777,0.899,35.935,41.76,31.85,24.516,4.824,7.699,6.138
1778,0.931,36.071,41.78,31.888,24.527,4.988,7.863,6.302
1779,0.928,35.916,41.788,31.879,24.53,4.906,7.863,6.343
1780,0.941,36.003,41.772,31.869,24.523,4.824,7.781,6.22
1781,0.931,36.138,41.681,31.888,24.527,4.824,7.863,6.22
1782,0.941,36.255,41.705,31.888,24.523,4.865,7.863,6.179
1783,0.935,35.857,41.768,31.888,24.527,4.824,7.863,6.22
1784,0.948,36.012,41.796,31.908,24.537,5.03,7.945,6.262
1785,0.935,36.1,41.697,31.859,24.52,4.824,7.74,6.138
1786,0.948,36.167,41.74,31.85,24.516,4.824,7.781,6.138
1787,0.954,36.051,41.764,31.879,24.527,4.906,7.822,6.22
1788,0.951,36.196,41.772,31.869,24.527,4.865,7.822,6.22
1789,0.935,36.293,41.776,31.869,24.52,4.865,7.74,6.138
1790,0.951,36.381,41.776,31.869,24.527,4.988,7.74,6.138
1791,0.958,36.255,41.764,31.879,24.53,4.906,7.74,6.138
1792,0.977,36.41,41.717,31.869,24.534,4.947,7.781,6.22
1793,0.948,36.545,41.744,31.908,24.534,5.112,7.822,6.302
1794,0.958,36.535,41.752,31.859,24.523,4.824,7.699,6.097
1795,0.951,36.448,41.729,31.869,24.52,4.824,7.658,6.097
1796,0.964,36.594,41.697,31.898,24.527,4.988,7.74,6.262
1797,0.984,36.71,41.736,31.879,24.527,4.906,7.699,6.179
1798,0.987,36.71,41.689,31.869,24.52,4.783,7.617,6.097
1799,0.984,36.661,41.78,31.869,24.523,4.988,7.658,6.138
1800,1.0,36.807,41.796,31.879,24.53,4.947,7.74,6.138
1801,1.01,36.904,41.815,31.879,24.523,4.988,7.74,6.097
1802,0.997,37.039,41.721,31.898,24.537,5.07,7.822,6.262
1803,1.0,36.981,41.729,31.869,24.523,4.947,7.699,6.056
1804,0.987,37.088,41.748,31.84,24.516,4.824,7.658,6.056
1805,1.01,37.214,41.776,31.879,24.527,4.988,7.781,6.097
1806,1.014,36.913,41.697,31.879,24.523,4.947,7.658,6.138
1807,1.004,36.981,41.697,31.869,24.52,4.865,7.617,6.015
1808,1.007,37.117,41.736,31.879,24.523,4.947,7.699,6.138
1809,1.017,37.204,41.729,31.888,24.534,5.03,7.781,6.138
1810,1.007,37.107,41.764,31.869,24.527,4.988,7.781,6.138
1811,1.033,37.233,41.792,31.888,24.534,5.07,7.822,6.22
1812,1.023,37.33,41.78,31.85,24.527,4.906,7.617,6.056
1813,1.017,37.388,41.725,31.84,24.509,4.824,7.575,5.974
1814,1.033,37.214,41.752,31.879,24.527,4.988,7.74,6.138
1815,1.027,37.368,41.784,31.888,24.53,4.906,7.575,6.097
1816,1.023,37.446,41.744,31.85,24.513,4.865,7.617,6.056
1817,1.037,37.504,41.701,31.898,24.52,4.947,7.617,6.138
1818,1.053,37.378,41.634,31.888,24.53,4.988,7.658,6.056
1819,1.05,37.543,41.721,31.956,24.53,4.947,7.575,6.138
1820,1.053,37.649,41.713,31.898,24.53,5.03,7.658,6.22
1821,1.043,37.659,41.74,31.859,24.52,4.865,7.534,6.015
1822,1.03,37.494,41.74,31.85,24.516,4.824,7.37,6.015
1823,1.043,37.678,41.689,31.888,24.53,4.988,7.575,6.138
1824,1.056,37.795,41.736,31.869,24.523,4.906,7.452,6.097
1825,1.063,37.775,41.744,31.84,24.523,4.824,7.452,6.015
1826,1.073,37.485,41.796,31.85,24.523,4.947,7.37,6.097
1827,1.069,37.63,41.752,31.859,24.527,4.947,7.452,6.056
1828,1.043,37.717,41.673,31.879,24.523,5.03,7.37,6.138
1829,1.027,37.795,41.642,31.879,24.53,5.03,7.411,6.179
1830,1.014,37.746,41.717,31.85,24.527,4.865,7.288,6.056
1831,1.02,37.843,41.729,31.84,24.516,4.783,7.206,6.015
1832,1.037,37.979,41.776,31.869,24.523,4.988,7.37,6.179
1833,1.05,37.727,41.744,31.869,24.523,4.906,7.206,6.138
1834,1.03,37.785,41.705,31.811,24.52,4.865,7.206,6.138
1835,1.027,37.921,41.744,31.85,24.523,4.906,7.206,6.179
1836,1.037,38.017,41.796,31.85,24.527,4.906,7.288,6.22
1837,1.037,38.046,41.792,31.84,24.523,4.947,7.165,6.097
1838,1.037,38.201,41.74,31.859,24.527,4.988,7.206,6.262
1839,1.04,38.289,41.701,31.84,24.523,4.865,7.083,6.097
1840,1.023,38.356,41.654,31.811,24.509,4.783,6.96,6.097
1841,1.046,37.727,41.685,31.85,24.527,4.906,7.165,6.22
1842,1.027,37.882,41.721,31.869,24.527,4.947,7.165,6.262
1843,1.02,37.95,41.721,31.83,24.52,4.865,7.042,6.138
1844,1.043,38.037,41.729,31.859,24.527,4.865,7.083,6.22
1845,1.06,37.969,41.713,31.869,24.527,4.988,7.083,6.138
1846,1.056,38.076,41.756,31.85,24.52,4.906,7.083,6.138
1847,1.014,38.201,41.764,31.859,24.527,4.947,7.165,6.302
1848,0.981,38.192,41.725,31.85,24.52,4.824,7.083,6.179
1849,0.954,37.94,41.717,31.85,24.513,4.824,6.919,6.056
1850,0.964,38.085,41.717,31.859,24.53,4.906,7.083,6.22
1851,0.977,38.211,41.705,31.879,24.53,4.906,7.083,6.22
1852,0.974,38.201,41.721,31.821,24.52,4.865,7.001,6.138
1853,0.968,37.998,41.799,31.84,24.52,4.865,7.042,6.179
1854,0.971,38.124,41.685,31.869,24.527,4.906,7.124,6.179
1855,0.954,38.231,41.76,31.859,24.527,4.906,7.083,6.302
1856,0.951,38.095,41.744,31.869,24.537,4.988,7.206,6.302
1857,0.945,37.988,41.784,31.83,24.52,4.865,7.042,6.22
1858,0.931,38.095,41.748,31.83,24.513,4.824,6.96,6.179
1859,0.958,38.221,41.748,31.869,24.523,4.947,7.124,6.302
1860,0.958,38.54,41.677,31.85,24.527,4.906,7.042,6.262
1861,0.922,38.657,41.665,31.879,24.516,4.865,7.042,6.138
1862,0.931,38.792,41.689,31.84,24.527,4.906,7.042,6.138
1863,0.928,38.87,41.752,31.85,24.527,4.947,7.165,6.22
1864,0.925,37.562,41.713,31.859,24.52,4.947,7.124,6.22
1865,0.915,37.717,41.729,31.879,24.534,5.03,7.165,6.302
1866,0.908,37.824,41.709,31.85,24.527,4.865,7.042,6.138
1867,0.905,37.862,41.744,31.811,24.52,4.865,6.96,6.097
1868,0.902,37.998,41.78,31.85,24.527,4.988,7.124,6.262
1869,0.889,38.153,41.772,31.85,24.527,4.906,7.083,6.22
1870,0.879,38.231,41.756,31.83,24.52,4.865,7.001,6.056
1871,0.872,38.298,41.634,31.84,24.52,4.906,7.001,6.138
1872,0.872,37.824,41.693,31.859,24.53,4.947,7.042,6.179
1873,0.849,37.93,41.732,31.859,24.527,4.906,6.96,6.179
1874,0.853,38.056,41.784,31.859,24.53,4.947,7.083,6.262
1875,0.843,38.085,41.74,31.859,24.523,4.865,6.877,6.056
1876,0.843,37.843,41.701,31.821,24.516,4.906,6.877,6.097
1877,0.853,38.008,41.768,31.859,24.527,4.947,6.96,6.179
1878,0.856,38.105,41.776,31.859,24.527,4.988,6.919,6.138
1879,0.853,38.095,41.807,31.83,24.523,4.906,6.877,6.097
1880,0.859,37.843,41.784,31.85,24.527,4.947,6.96,6.138
1881,0.859,37.969,41.78,31.859,24.534,5.03,7.001,6.138
1882,0.839,38.076,41.744,31.85,24.527,4.906,6.96,6.097
1883,0.839,37.824,41.725,31.869,24.537,5.07,7.042,6.22
1884,0.826,37.717,41.768,31.85,24.516,4.906,6.877,6.138
1885,0.83,37.833,41.697,31.811,24.513,4.824,6.837,6.056
1886,0.836,37.959,41.721,31.859,24.523,4.988,6.96,6.138
1887,0.816,37.659,41.705,31.84,24.523,4.947,6.96,6.056
1888,0.8,37.756,41.721,31.811,24.523,4.906,6.96,6.056
1889,0.797,37.872,41.764,31.83,24.523,4.988,6.919,6.056
1890,0.797,37.979,41.764,31.859,24.527,4.988,7.042,6.056
1891,0.8,37.717,41.792,31.84,24.52,4.947,7.042,6.097
1892,0.803,37.882,41.693,31.879,24.541,5.112,7.247,6.179
1893,0.787,37.95,41.721,31.84,24.52,4.906,7.083,5.974
1894,0.774,38.027,41.732,31.821,24.516,4.865,7.165,6.015
1895,0.793,37.523,41.748,31.859,24.534,5.03,7.288,6.138
1896,0.787,37.649,41.665,31.859,24.523,4.988,7.247,6.097
1897,0.78,37.775,41.713,31.83,24.516,4.906,7.247,6.015
1898,0.793,37.814,41.685,31.84,24.52,4.947,7.288,6.056
1899,0.8,37.427,41.74,31.859,24.523,5.03,7.411,5.974
1900,0.79,37.572,41.772,31.85,24.527,4.988,7.452,6.138
1901,0.816,37.678,41.819,31.859,24.534,5.07,7.411,6.138
1902,0.803,37.698,41.701,31.84,24.523,4.947,7.288,6.015
1903,0.787,37.494,41.721,31.811,24.513,4.865,7.329,6.015
1904,0.8,37.63,41.736,31.85,24.523,4.988,7.37,6.097
1905,0.784,37.727,41.764,31.83,24.527,4.988,7.329,6.056
1906,0.78,37.737,41.709,31.821,24.52,4.865,7.329,5.892
1907,0.787,37.446,41.705,31.85,24.523,4.988,7.288,6.015
1908,0.803,37.591,41.713,31.85,24.527,4.947,7.288,6.015
1909,0.78,37.678,41.681,31.85,24.527,4.947,7.411,6.056
1910,0.774,37.427,41.725,31.85,24.534,4.988,7.452,6.22
1911,0.747,37.378,41.701,31.811,24.52,4.947,7.247,5.974
1912,0.757,37.485,41.732,31.811,24.52,4.865,7.247,6.015
1913,0.767,37.64,41.74,31.85,24.53,4.906,7.37,6.056
1914,0.761,37.281,41.705,31.84,24.527,4.988,7.37,6.097
1915,0.754,37.388,41.764,31.821,24.52,4.865,7.288,6.056
1916,0.767,37.523,41.756,31.811,24.523,4.988,7.329,6.097
1917,0.761,37.64,41.705,31.83,24.523,4.865,7.37,6.097
1918,0.751,37.262,41.658,31.83,24.523,4.947,7.329,6.097
1919,0.757,37.427,41.721,31.908,24.534,4.988,7.411,6.22
1920,0.764,37.523,41.701,31.821,24.52,4.865,7.288,6.015
1921,0.77,37.572,41.717,31.811,24.513,4.824,7.247,6.056
1922,0.793,37.378,41.788,31.84,24.527,4.988,7.288,6.138
1923,0.787,37.523,41.669,31.85,24.523,4.906,7.37,6.138
1924,0.764,37.62,41.701,31.83,24.52,4.865,7.288,6.056
1925,0.764,37.669,41.721,31.83,24.527,4.906,7.37,6.097
1926,0.764,37.223,41.78,31.85,24.527,4.947,7.452,6.138
1927,0.777,37.349,41.736,31.85,24.523,4.947,7.411,6.138
1928,0.761,37.485,41.669,31.869,24.53,4.947,7.534,6.22
1929,0.757,37.494,41.598,31.85,24.52,4.824,7.411,6.097
1930,0.764,37.339,41.693,31.821,24.513,4.824,7.411,6.056
1931,0.754,37.494,41.732,31.859,24.523,4.906,7.452,6.138
1932,0.77,37.601,41.756,31.85,24.523,4.947,7.534,6.138
1933,0.757,37.824,41.713,31.83,24.52,4.824,7.452,6.097
1934,0.754,37.33,41.729,31.83,24.527,4.865,7.494,6.138
1935,0.757,37.456,41.736,31.869,24.527,4.947,7.534,6.179
1936,0.757,37.562,41.74,31.85,24.527,4.865,7.575,6.179
1937,0.761,37.359,41.76,31.84,24.523,4.947,7.617,6.302
1938,0.754,37.378,41.709,31.84,24.523,4.906,7.494,6.138
1939,0.754,37.494,41.669,31.821,24.516,4.783,7.452,6.097
1940,0.79,37.611,41.658,31.85,24.523,4.906,7.534,6.22
1941,0.79,37.078,41.709,31.859,24.527,4.865,7.617,6.138
1942,0.764,37.165,41.752,31.83,24.513,4.824,7.411,6.056
1943,0.777,37.301,41.748,31.85,24.527,4.947,7.494,6.056
1944,0.764,37.398,41.744,31.859,24.534,4.906,7.575,6.22
1945,0.754,37.223,41.709,31.859,24.523,4.865,7.534,6.22
1946,0.764,37.368,41.768,31.85,24.534,4.906,7.617,6.22
1947,0.761,37.446,41.764,31.83,24.516,4.824,7.494,6.097
1948,0.754,37.504,41.748,31.83,24.516,4.742,7.37,6.056
1949,0.754,37.233,41.669,31.869,24.523,4.988,7.494,6.22
1950,0.77,37.388,41.634,31.859,24.523,4.824,7.452,6.22
1951,0.747,37.475,41.665,31.85,24.52,4.824,7.452,6.179
1952,0.751,37.562,41.693,31.859,24.523,4.865,7.37,6.179
1953,0.77,37.214,41.748,31.859,24.527,4.865,7.452,6.262
1954,0.77,37.359,41.614,31.869,24.52,4.865,7.452,6.22
1955,0.777,37.465,41.725,31.869,24.534,4.906,7.494,6.385
1956,0.757,37.504,41.717,31.859,24.523,4.783,7.37,6.22
1957,0.751,37.272,41.764,31.84,24.513,4.783,7.329,6.179
1958,0.774,37.427,41.788,31.859,24.53,4.906,7.411,6.302
1959,0.767,37.533,41.788,31.859,24.523,4.906,7.411,6.302
1960,0.767,37.833,41.701,31.821,24.52,4.783,7.411,6.22
1961,0.774,37.436,41.709,31.917,24.523,4.824,7.329,6.302
1962,0.774,37.572,41.705,31.859,24.523,4.865,7.452,6.343
1963,0.764,37.659,41.748,31.85,24.527,4.783,7.411,6.343
1964,0.774,37.301,41.681,31.859,24.527,4.947,7.575,6.385
1965,0.777,37.33,41.693,31.84,24.52,4.906,7.452,6.302
1966,0.761,37.427,41.705,31.821,24.513,4.742,7.411,6.22
1967,0.767,37.543,41.776,31.859,24.53,4.906,7.494,6.343
1968,0.784,37.31,41.803,31.85,24.527,4.947,7.452,6.302
1969,0.757,37.436,41.756,31.85,24.516,4.824,7.452,6.262
1970,0.761,37.562,41.768,31.85,24.523,4.824,7.534,6.385
1971,0.761,37.649,41.713,31.859,24.527,4.906,7.494,6.385
1972,0.747,37.214,41.721,31.859,24.527,4.865,7.452,6.426
1973,0.751,37.349,41.768,31.859,24.534,4.947,7.617,6.508
1974,0.754,37.456,41.717,31.83,24.527,4.824,7.494,6.302
1975,0.747,37.553,41.677,31.84,24.516,4.742,7.452,6.343
1976,0.767,37.31,41.689,31.859,24.53,4.865,7.534,6.467
1977,0.767,37.456,41.701,31.84,24.523,4.824,7.534,6.467
1978,0.757,37.553,41.721,31.83,24.516,4.824,7.452,6.343
1979,0.777,37.591,41.78,31.84,24.523,4.824,7.494,6.302
1980,0.774,37.301,41.756,31.84,24.53,4.824,7.534,6.426
1981,0.764,37.407,41.713,31.84,24.527,4.865,7.575,6.343
1982,0.78,37.562,41.709,31.869,24.527,4.988,7.617,6.508
1983,0.787,37.543,41.721,31.83,24.523,4.824,7.494,6.343
1984,0.764,37.339,41.74,31.811,24.513,4.742,7.452,6.262
1985,0.764,37.504,41.685,31.859,24.527,4.824,7.617,6.343
1986,0.793,37.601,41.713,31.84,24.527,4.824,7.534,6.343
1987,0.767,37.698,41.693,31.83,24.52,4.783,7.452,6.262
1988,0.767,37.407,41.725,31.84,24.527,4.824,7.494,6.302
1989,0.77,37.543,41.76,31.859,24.523,4.865,7.534,6.426
1990,0.787,37.62,41.784,31.84,24.527,4.824,7.534,6.302
1991,0.777,37.456,41.756,31.859,24.534,4.947,7.617,6.426
1992,0.767,37.543,41.713,31.821,24.52,4.824,7.494,6.262
1993,0.757,37.649,41.697,31.811,24.513,4.742,7.411,6.138
1994,0.767,37.746,41.756,31.83,24.523,4.865,7.617,6.302
1995,0.764,37.262,41.713,31.85,24.53,4.865,7.534,6.343
1996,0.761,37.368,41.579,31.83,24.516,4.824,7.37,6.262
1997,0.764,37.523,41.693,31.84,24.527,4.865,7.494,6.262
1998,0.777,37.591,41.709,31.85,24.53,4.824,7.534,6.262
1999,0.774,37.32,41.74,31.84,24.53,4.865,7.534,6.302
2000,0.777,37.465,41.748,31.85,24.53,4.865,7.699,6.385
2001,0.793,37.562,41.744,31.801,24.516,4.824,7.617,6.22
2002,0.784,37.63,41.658,31.811,24.513,4.701,7.534,6.097
2003,0.787,37.32,41.709,31.83,24.527,4.824,7.617,6.302
2004,0.79,37.465,41.736,31.83,24.534,4.824,7.658,6.22
2005,0.777,37.523,41.756,31.811,24.516,4.742,7.617,6.179
2006,0.77,37.601,41.673,31.83,24.527,4.865,7.617,6.22
2007,0.774,37.368,41.713,31.84,24.53,4.824,7.74,6.22
2008,0.774,37.504,41.701,31.84,24.527,4.865,7.699,6.22
2009,0.767,37.601,41.697,31.83,24.523,4.906,7.781,6.302
2010,0.774,37.611,41.721,31.821,24.523,4.783,7.658,6.138
2011,0.777,37.301,41.768,31.782,24.516,4.742,7.534,6.138
2012,0.77,37.465,41.725,31.84,24.527,4.824,7.699,6.302
2013,0.784,37.591,41.717,31.821,24.527,4.783,7.617,6.22
2014,0.764,37.562,41.717,31.801,24.52,4.742,7.575,6.179
2015,0.777,37.378,41.764,31.821,24.52,4.824,7.575,6.262
2016,0.774,37.504,41.697,31.84,24.527,4.824,7.534,6.262
2017,0.774,37.63,41.661,31.83,24.523,4.865,7.658,6.262
2018,0.78,37.301,41.677,31.83,24.53,4.824,7.575,6.385
2019,0.777,37.388,41.685,31.801,24.516,4.742,7.452,6.22
2020,0.787,37.485,41.677,31.792,24.509,4.742,7.37,6.097
2021,0.793,37.601,41.732,31.821,24.53,4.824,7.534,6.343
2022,0.8,37.252,41.721,31.821,24.523,4.824,7.452,6.22
2023,0.784,37.339,41.701,31.792,24.52,4.783,7.37,6.22
2024,0.777,37.485,41.697,31.811,24.527,4.783,7.37,6.262
2025,0.774,37.553,41.756,31.811,24.53,4.865,7.494,6.302
2026,0.774,37.117,41.756,31.811,24.527,4.824,7.452,6.22
2027,0.77,37.281,41.673,31.811,24.523,4.865,7.411,6.343
2028,0.747,37.378,41.685,31.811,24.523,4.742,7.288,6.179
2029,0.77,37.446,41.677,31.792,24.513,4.742,7.165,6.138
2030,0.764,37.078,41.701,31.821,24.527,4.824,7.288,6.302
2031,0.774,37.252,41.701,31.83,24.534,4.824,7.329,6.22
2032,0.757,37.32,41.736,31.782,24.52,4.783,7.247,6.22
2033,0.764,37.398,41.658,31.811,24.52,4.742,7.288,6.22
2034,0.78,37.243,41.717,31.811,24.527,4.865,7.37,6.22
2035,0.77,37.378,41.736,31.811,24.516,4.824,7.329,6.302
2036,0.757,37.465,41.756,31.811,24.527,4.865,7.37,6.302
2037,0.764,37.494,41.732,31.801,24.523,4.742,7.288,6.179
2038,0.774,37.175,41.658,31.782,24.513,4.66,7.206,6.056
2039,0.79,37.339,41.634,31.811,24.527,4.824,7.37,6.262
2040,0.787,37.475,41.713,31.821,24.527,4.824,7.329,6.179
2041,0.777,37.33,41.685,31.792,24.516,4.742,7.165,6.138
2042,0.787,37.165,41.744,31.811,24.52,4.824,7.288,6.179
2043,0.78,37.31,41.669,31.801,24.534,4.865,7.329,6.262
2044,0.784,37.398,41.689,31.811,24.527,4.783,7.411,6.262
2045,0.784,37.059,41.697,31.811,24.527,4.824,7.37,6.262
2046,0.761,37.165,41.736,31.792,24.523,4.742,7.329,6.097
2047,0.774,37.262,41.717,31.772,24.52,4.701,7.288,6.056
2048,0.79,37.368,41.673,31.811,24.527,4.783,7.37,6.22
2049,0.797,37.02,41.642,31.821,24.53,4.783,7.452,6.302
2050,0.751,37.107,41.725,31.83,24.52,4.783,7.329,6.138
2051,0.754,37.223,41.697,31.792,24.53,4.824,7.37,6.179
2052,0.764,37.33,41.748,31.801,24.527,4.865,7.288,6.22
2053,0.754,37.02,41.732,31.811,24.527,4.865,7.37,6.179
2054,0.757,37.194,41.705,31.83,24.53,4.947,7.37,6.262
2055,0.751,37.291,41.709,31.811,24.523,4.824,7.247,6.097
2056,0.761,37.31,41.736,31.753,24.513,4.742,7.165,6.056
2057,0.757,36.971,41.74,31.801,24.527,4.865,7.329,6.22
2058,0.774,37.136,41.685,31.801,24.53,4.783,7.288,6.179
2059,0.761,37.204,41.642,31.792,24.516,4.742,7.206,6.138
2060,0.78,37.252,41.618,31.792,24.523,4.824,7.288,6.179
2061,0.784,36.971,41.685,31.801,24.523,4.783,7.288,6.138
2062,0.764,37.097,41.681,31.801,24.527,4.865,7.329,6.179
2063,0.777,37.204,41.748,31.811,24.523,4.824,7.37,6.262
2064,0.761,37.233,41.701,31.772,24.52,4.742,7.247,6.097
2065,0.757,36.681,41.65,31.772,24.513,4.701,7.124,6.015
2066,0.757,36.826,41.725,31.792,24.527,4.906,7.329,6.179
2067,0.767,36.952,41.744,31.792,24.53,4.824,7.329,6.179
2068,0.757,37.0,41.736,31.782,24.516,4.742,7.206,6.056
2069,0.77,37.068,41.697,31.792,24.527,4.701,7.247,6.179
2070,0.774,37.175,41.689,31.792,24.527,4.824,7.329,6.179
2071,0.761,37.272,41.681,31.792,24.527,4.783,7.329,6.138
2072,0.751,36.836,41.705,31.792,24.53,4.783,7.329,6.22
2073,0.741,36.942,41.717,31.782,24.53,4.824,7.288,6.056
2074,0.761,37.049,41.661,31.792,24.52,4.701,7.288,6.056
2075,0.777,37.175,41.689,31.811,24.534,4.906,7.329,6.179
2076,0.774,36.894,41.701,31.811,24.534,4.865,7.411,6.138
2077,0.757,36.981,41.732,31.782,24.52,4.701,7.37,6.097
2078,0.774,37.117,41.744,31.792,24.534,4.824,7.37,6.138
2079,0.77,37.204,41.764,31.811,24.53,4.865,7.452,6.097
2080,0.751,36.787,41.717,31.801,24.534,4.783,7.411,6.138
2081,0.77,36.942,41.685,31.801,24.534,4.824,7.534,6.138
2082,0.767,37.059,41.693,31.782,24.527,4.701,7.452,6.097
2083,0.761,37.097,41.725,31.763,24.513,4.742,7.37,5.933
2084,0.767,36.768,41.685,31.792,24.53,4.824,7.494,6.138
2085,0.774,36.952,41.701,31.801,24.53,4.824,7.575,6.056
2086,0.764,37.01,41.654,31.763,24.523,4.701,7.452,5.974
2087,0.767,37.068,41.725,31.792,24.53,4.824,7.534,6.056
2088,0.757,36.913,41.736,31.792,24.534,4.824,7.575,6.056
2089,0.754,37.049,41.709,31.801,24.527,4.824,7.534,6.097
2090,0.751,37.126,41.752,31.782,24.53,4.906,7.575,6.097
2091,0.741,37.155,41.669,31.792,24.527,4.701,7.452,5.974
2092,0.738,36.894,41.705,31.763,24.523,4.619,7.37,5.892
2093,0.747,37.039,41.721,31.811,24.527,4.742,7.494,6.097
2094,0.754,37.175,41.764,31.811,24.537,4.865,7.534,6.138
2095,0.747,37.31,41.638,31.772,24.52,4.66,7.452,6.015
2096,0.754,37.417,41.701,31.792,24.523,4.783,7.452,6.097
2097,0.764,37.562,41.713,31.792,24.534,4.742,7.494,6.138
2098,0.754,37.601,41.713,31.782,24.527,4.742,7.37,6.056
2099,0.744,36.574,41.748,31.772,24.527,4.742,7.411,6.138
2100,0.754,36.661,41.732,31.782,24.52,4.742,7.452,5.933
2101,0.761,36.778,41.725,31.772,24.523,4.66,7.37,5.892
2102,0.761,36.884,41.701,31.85,24.527,4.824,7.452,6.056
2103,0.78,37.0,41.705,31.821,24.534,4.865,7.452,6.138
2104,0.754,37.126,41.729,31.753,24.523,4.701,7.329,6.015
2105,0.754,37.214,41.717,31.792,24.53,4.701,7.37,6.015
2106,0.767,37.33,41.646,31.782,24.534,4.783,7.411,6.056
2107,0.761,36.72,41.693,31.772,24.53,4.824,7.452,6.015
2108,0.751,36.845,41.661,31.782,24.53,4.783,7.452,6.015
2109,0.747,36.981,41.701,31.792,24.523,4.701,7.411,5.974
2110,0.751,37.02,41.701,31.772,24.52,4.742,7.329,5.933
2111,0.754,36.962,41.717,31.782,24.513,4.783,7.452,6.015
2112,0.757,37.126,41.725,31.811,24.537,4.906,7.575,6.056
2113,0.751,37.194,41.677,31.753,24.513,4.742,7.411,5.974
2114,0.738,37.233,41.709,31.782,24.52,4.701,7.452,5.974
2115,0.754,36.923,41.732,31.792,24.502,4.824,7.575,6.056
2116,0.751,37.039,41.721,31.801,24.52,4.824,7.494,6.015
2117,0.734,37.165,41.658,31.792,24.523,4.783,7.575,6.097
2118,0.741,37.175,41.709,31.84,24.52,4.824,7.534,6.015
2119,0.747,36.933,41.685,31.772,24.52,4.742,7.411,5.933
2120,0.747,37.059,41.677,31.792,24.53,4.783,7.617,6.056
2121,0.774,37.184,41.701,31.821,24.541,4.865,7.617,6.138
2122,0.747,36.942,41.74,31.753,24.527,4.701,7.494,5.974
2123,0.747,36.952,41.685,31.772,24.527,4.742,7.617,6.015
2124,0.77,37.088,41.681,31.801,24.541,4.824,7.617,6.097
2125,0.77,37.155,41.717,31.792,24.53,4.824,7.699,6.015
2126,0.764,36.826,41.721,31.782,24.53,4.742,7.658,6.015
2127,0.754,36.962,41.697,31.772,24.523,4.742,7.658,6.015
2128,0.738,37.078,41.622,31.772,24.52,4.66,7.699,5.974
2129,0.741,37.175,41.614,31.792,24.527,4.824,7.904,6.138
2130,0.754,36.933,41.697,31.821,24.537,4.824,7.822,6.097
2131,0.738,37.01,41.661,31.753,24.527,4.701,7.699,6.015
2132,0.747,37.136,41.764,31.772,24.523,4.783,7.822,6.097
2133,0.731,37.223,41.701,31.801,24.534,4.783,7.945,6.179
2134,0.738,36.884,41.681,31.772,24.527,4.742,7.822,6.056
2135,0.744,37.049,41.685,31.792,24.534,4.824,7.904,6.179
2136,0.747,37.146,41.744,31.772,24.527,4.742,7.863,6.056
2137,0.747,37.155,41.709,31.753,24.52,4.66,7.74,5.974
2138,0.747,36.971,41.709,31.801,24.534,4.783,7.863,6.097
2139,0.764,37.126,41.673,31.792,24.527,4.783,7.904,6.097
2140,0.731,37.184,41.594,31.753,24.52,4.701,7.822,6.056
2141,0.738,37.262,41.689,31.772,24.527,4.824,7.863,6.056
2142,0.751,36.874,41.693,31.782,24.534,4.824,7.904,6.138
2143,0.744,36.991,41.736,31.763,24.527,4.824,7.863,6.138
2144,0.761,37.126,41.689,31.83,24.53,4.742,7.945,6.22
2145,0.761,37.184,41.701,31.763,24.52,4.783,7.822,6.056
2146,0.764,36.962,41.689,31.743,24.52,4.66,7.658,6.015
2147,0.747,37.107,41.74,31.763,24.53,4.824,7.822,6.138
2148,0.731,37.223,41.725,31.772,24.52,4.783,7.781,6.179
2149,0.731,37.0,41.677,31.753,24.516,4.701,7.699,6.097
2150,0.738,37.039,41.638,31.763,24.527,4.742,7.699,6.138
2151,0.741,37.204,41.669,31.782,24.527,4.824,7.781,6.179
2152,0.731,37.272,41.709,31.763,24.527,4.824,7.781,6.179
2153,0.741,36.865,41.721,31.782,24.534,4.865,7.822,6.22
2154,0.741,36.962,41.65,31.763,24.527,4.701,7.74,6.097
2155,0.721,37.088,41.646,31.734,24.516,4.66,7.699,6.056
2156,0.741,37.184,41.685,31.792,24.53,4.824,7.781,6.22
2157,0.754,36.874,41.725,31.763,24.527,4.824,7.74,6.179
2158,0.757,36.991,41.764,31.734,24.52,4.701,7.658,6.097
2159,0.764,37.126,41.717,31.743,24.52,4.742,7.617,6.138
2160,0.757,37.214,41.721,31.753,24.527,4.783,7.74,6.179
