time,ecg,bvp,gsr,rsp,skt,emg_zygo,emg_coru,emg_trap
0,1.132,35.606,39.954,44.559,34.511,5.399,6.015,14.516
1,1.138,35.489,39.868,44.588,34.515,5.399,6.015,14.393
2,1.142,35.751,39.962,44.627,34.532,5.563,6.22,14.475
3,1.125,35.877,39.939,44.559,34.508,5.44,6.138,14.352
4,1.145,35.983,39.982,44.559,34.518,5.481,6.056,14.311
5,1.129,35.596,39.982,44.569,34.511,5.44,5.974,14.146
6,1.129,35.819,39.974,44.569,34.515,5.481,6.097,14.188
7,1.122,36.003,39.986,44.559,34.508,5.399,5.974,13.982
8,1.132,36.071,39.95,44.578,34.525,5.522,6.015,13.9
9,1.138,35.877,40.021,44.598,34.522,5.522,6.138,13.9
10,1.152,36.08,39.994,44.559,34.504,5.276,5.851,13.695
11,1.158,36.293,39.891,44.598,34.522,5.481,5.974,13.654
12,1.138,36.293,39.954,44.569,34.511,5.522,5.974,13.613
13,1.148,36.061,39.97,44.588,34.515,5.481,6.015,13.571
14,1.135,36.284,40.006,44.569,34.515,5.399,5.851,13.448
15,1.148,36.448,39.954,44.588,34.525,5.563,5.974,13.571
16,1.132,36.429,39.966,44.559,34.518,5.481,5.892,13.531
17,1.135,36.216,39.978,44.588,34.508,5.44,5.81,13.366
18,1.129,36.448,39.982,44.607,34.525,5.645,6.015,13.654
19,1.125,36.565,40.017,44.53,34.511,5.522,5.974,13.9
20,1.112,36.574,39.931,44.559,34.511,5.522,5.974,14.228
21,1.099,36.613,39.797,44.588,34.508,5.563,5.851,14.516
22,1.096,36.826,39.962,44.559,34.518,5.604,5.933,14.927
23,1.079,36.942,39.935,44.559,34.508,5.522,5.851,15.214
24,1.076,36.535,39.97,44.598,34.522,5.645,5.933,15.461
25,1.06,36.584,39.966,44.578,34.518,5.604,6.015,15.707
26,1.053,36.807,39.946,44.569,34.504,5.358,5.768,15.666
27,1.043,36.981,39.978,44.607,34.518,5.563,5.974,15.995
28,1.02,36.506,39.911,44.569,34.518,5.563,5.933,15.995
29,1.03,36.7,40.002,44.588,34.522,5.604,5.974,16.159
30,1.037,36.884,39.943,44.569,34.515,5.522,5.851,16.035
31,1.023,37.039,39.883,44.636,34.515,5.604,5.974,16.159
32,1.004,36.671,39.915,44.559,34.515,5.481,5.892,15.995
33,1.0,36.913,39.954,44.598,34.518,5.522,5.851,15.871
34,0.991,37.126,39.958,44.598,34.529,5.727,6.138,15.912
35,0.974,37.214,39.974,44.549,34.511,5.522,5.851,15.625
36,0.974,36.758,39.935,44.569,34.511,5.522,5.892,15.461
37,0.971,37.0,39.966,44.578,34.515,5.522,5.892,15.214
38,0.964,37.194,39.946,44.588,34.518,5.563,5.933,15.009
39,0.954,37.281,39.998,44.578,34.511,5.522,5.851,14.722
40,0.945,36.874,39.907,44.598,34.522,5.563,5.974,14.68
41,0.922,37.097,39.852,44.646,34.518,5.563,6.056,14.434
42,0.895,37.291,39.927,44.569,34.508,5.399,5.81,14.146
43,0.885,37.417,39.95,44.607,34.518,5.563,5.974,14.064
44,0.853,37.01,39.962,44.569,34.515,5.522,5.892,13.941
45,0.859,37.262,39.978,44.598,34.515,5.522,6.015,13.818
46,0.846,37.436,39.966,44.578,34.515,5.44,5.974,13.654
47,0.83,37.523,39.962,44.598,34.522,5.563,6.015,13.571
48,0.82,37.049,39.919,44.569,34.522,5.44,5.933,13.448
49,0.82,37.31,40.013,44.578,34.525,5.44,5.974,13.284
50,0.82,37.465,39.962,44.607,34.529,5.645,6.097,13.448
51,0.807,37.485,39.793,44.549,34.511,5.481,5.974,13.202
52,0.82,37.049,39.907,44.569,34.515,5.563,5.933,13.202
53,0.8,37.272,39.907,44.569,34.515,5.481,5.974,13.079
54,0.784,37.456,39.946,44.588,34.522,5.481,5.974,13.079
55,0.78,37.485,39.966,44.569,34.508,5.44,5.851,13.038
56,0.79,37.136,39.923,44.578,34.518,5.563,5.974,13.243
57,0.78,37.368,39.95,44.549,34.518,5.522,6.097,13.366
58,0.767,37.543,39.943,44.559,34.508,5.358,5.81,13.284
59,0.764,37.572,40.037,44.607,34.518,5.522,5.974,13.448
60,0.747,37.107,39.879,44.569,34.511,5.481,5.892,13.531
61,0.751,37.339,39.946,44.675,34.522,5.44,5.974,13.736
62,0.734,37.485,39.927,44.569,34.515,5.44,5.933,13.859
63,0.731,37.378,39.97,44.588,34.518,5.563,5.974,14.064
64,0.721,37.165,39.935,44.559,34.508,5.481,5.933,14.188
65,0.715,37.427,39.939,44.588,34.511,5.522,5.851,14.146
66,0.688,37.562,39.986,44.598,34.529,5.645,6.056,14.475
67,0.669,37.184,39.907,44.549,34.518,5.481,5.974,14.352
68,0.678,37.204,39.923,44.578,34.515,5.399,5.974,14.352
69,0.665,37.398,40.002,44.569,34.518,5.481,5.892,14.311
70,0.675,37.543,39.907,44.588,34.522,5.563,5.933,14.228
71,0.682,37.068,39.891,44.578,34.511,5.399,5.851,14.064
72,0.682,37.175,39.923,44.578,34.525,5.44,5.892,14.105
73,0.688,37.378,39.911,44.559,34.518,5.44,5.974,14.105
74,0.678,37.523,39.946,44.569,34.501,5.317,5.81,13.818
75,0.678,36.933,39.943,44.607,34.518,5.481,5.892,13.695
76,0.655,37.068,39.911,44.569,34.511,5.44,5.851,13.571
77,0.682,37.301,39.923,44.569,34.511,5.399,5.892,13.49
78,0.685,37.407,39.899,44.578,34.511,5.399,5.851,13.243
79,0.682,37.591,39.958,44.569,34.525,5.481,5.974,13.202
80,0.675,37.785,39.887,44.549,34.515,5.317,5.892,13.038
81,0.669,38.008,39.923,44.627,34.518,5.44,5.933,12.791
82,0.646,38.114,39.919,44.588,34.525,5.645,6.056,12.832
83,0.636,36.477,39.919,44.539,34.508,5.399,5.933,12.627
84,0.652,36.758,39.931,44.588,34.518,5.44,5.974,12.463
85,0.639,36.952,39.935,44.549,34.511,5.399,5.933,12.381
86,0.642,37.049,39.927,44.588,34.515,5.481,5.974,12.339
87,0.629,36.884,39.943,44.569,34.508,5.358,5.892,12.093
88,0.632,37.146,39.899,44.578,34.525,5.481,5.974,12.093
89,0.626,37.33,39.974,44.569,34.508,5.358,5.933,11.929
90,0.642,37.427,39.927,44.578,34.508,5.317,5.81,11.683
91,0.649,36.69,39.856,44.617,34.529,5.522,5.974,11.723
92,0.632,36.904,39.903,44.549,34.518,5.399,5.933,11.641
93,0.649,37.117,39.911,44.559,34.518,5.44,5.974,11.559
94,0.649,37.184,39.943,44.559,34.511,5.399,5.892,11.395
95,0.659,36.72,39.958,44.588,34.518,5.44,5.974,11.395
96,0.665,36.933,39.895,44.539,34.515,5.358,5.892,11.149
97,0.672,37.136,39.911,44.569,34.518,5.44,5.892,11.066
98,0.659,37.204,39.887,44.569,34.522,5.399,6.015,11.149
99,0.659,36.565,39.97,44.53,34.501,5.317,5.81,10.902
100,0.672,36.836,39.915,44.578,34.515,5.399,5.933,10.861
101,0.655,37.01,39.773,44.598,34.515,5.399,5.892,10.943
102,0.659,37.029,39.895,44.588,34.518,5.399,5.974,11.231
103,0.646,36.555,39.887,44.549,34.515,5.399,5.851,11.231
104,0.636,36.807,39.943,44.588,34.518,5.481,5.974,11.723
105,0.619,36.942,39.919,44.559,34.522,5.399,5.892,12.422
106,0.623,37.039,39.907,44.569,34.508,5.317,5.768,13.12
107,0.629,36.555,39.939,44.627,34.525,5.44,5.974,14.311
108,0.619,36.739,39.86,44.549,34.508,5.358,5.933,15.297
109,0.629,36.913,39.962,44.569,34.511,5.358,5.851,16.241
110,0.639,36.69,39.895,44.549,34.518,5.358,5.892,16.857
111,0.623,36.497,39.86,44.578,34.511,5.399,5.892,17.473
112,0.642,36.71,39.879,44.549,34.508,5.317,5.851,17.884
113,0.646,36.884,39.931,44.578,34.515,5.358,5.892,18.377
114,0.646,36.41,39.923,44.569,34.518,5.358,5.974,18.582
115,0.652,36.439,39.978,44.549,34.504,5.194,5.81,18.541
116,0.672,36.69,39.887,44.578,34.518,5.399,5.892,18.623
117,0.659,36.807,39.919,44.569,34.518,5.399,5.768,18.541
118,0.659,36.177,39.931,44.569,34.511,5.317,5.81,18.459
119,0.662,36.293,39.946,44.539,34.511,5.317,5.81,18.335
120,0.665,36.526,39.891,44.569,34.522,5.399,5.892,18.212
121,0.655,36.642,39.836,44.549,34.504,5.276,5.81,18.048
122,0.662,36.216,39.891,44.569,34.518,5.235,5.81,17.884
123,0.649,36.419,39.954,44.588,34.525,5.522,5.974,17.925
124,0.636,36.574,39.879,44.539,34.511,5.358,5.81,17.842
125,0.649,36.739,39.919,44.569,34.511,5.317,5.892,17.802
126,0.646,35.993,39.86,44.559,34.508,5.317,5.851,17.72
127,0.646,36.245,39.891,44.578,34.515,5.317,5.81,17.76
128,0.652,36.439,39.927,44.549,34.508,5.235,5.81,17.596
129,0.655,36.565,39.943,44.559,34.515,5.358,5.81,17.473
130,0.669,36.012,39.875,44.559,34.515,5.399,5.974,17.514
131,0.682,36.274,39.824,44.636,34.497,5.276,5.687,17.145
132,0.695,36.497,39.879,44.588,34.511,5.358,5.892,17.062
133,0.675,36.574,39.895,44.569,34.511,5.358,5.892,16.775
134,0.669,35.906,39.895,44.549,34.515,5.399,5.81,16.652
135,0.652,36.167,39.927,44.539,34.504,5.358,5.768,16.323
136,0.669,36.342,39.848,44.559,34.522,5.44,5.892,16.282
137,0.662,36.429,39.879,44.549,34.511,5.358,5.892,16.405
138,0.675,36.167,39.927,44.539,34.508,5.317,5.687,16.323
139,0.678,36.419,39.958,44.569,34.518,5.358,5.851,16.775
140,0.655,36.565,39.852,44.549,34.508,5.317,5.81,16.939
141,0.655,36.671,39.864,44.549,34.515,5.358,5.851,17.227
142,0.655,35.877,39.891,44.53,34.515,5.317,5.81,17.309
143,0.646,36.109,39.915,44.549,34.515,5.399,5.892,17.473
144,0.649,36.293,39.883,44.539,34.511,5.317,5.768,17.432
145,0.649,36.371,39.931,44.549,34.515,5.317,5.851,17.391
146,0.649,35.896,39.868,44.559,34.532,5.522,6.056,17.514
147,0.649,36.129,39.879,44.53,34.508,5.235,5.81,17.432
148,0.669,36.342,39.923,44.539,34.518,5.317,5.974,17.35
149,0.665,36.361,39.927,44.539,34.525,5.358,5.81,17.185
150,0.669,35.916,39.868,44.549,34.511,5.358,5.892,17.062
151,0.675,36.148,39.852,44.627,34.511,5.276,5.81,16.775
152,0.665,36.322,39.872,44.539,34.525,5.399,5.851,16.775
153,0.669,36.458,39.911,44.52,34.508,5.317,5.933,16.57
154,0.672,35.877,39.864,44.53,34.511,5.235,5.81,16.2
155,0.688,36.138,39.931,44.559,34.529,5.44,5.974,16.159
156,0.669,36.226,39.84,44.51,34.511,5.276,5.851,15.871
157,0.685,36.022,39.872,44.539,34.511,5.276,6.015,15.707
158,0.675,35.896,39.919,44.501,34.511,5.317,5.974,15.378
159,0.675,36.119,39.935,44.51,34.515,5.399,6.015,15.255
160,0.669,36.264,39.872,44.51,34.508,5.317,5.933,14.968
161,0.665,35.867,39.86,44.549,34.515,5.358,6.056,14.845
162,0.646,35.896,39.891,44.539,34.525,5.358,6.138,14.763
163,0.642,36.119,39.907,44.472,34.501,5.194,5.933,14.475
164,0.662,36.303,39.899,44.53,34.522,5.317,6.056,14.27
165,0.655,35.683,39.903,44.501,34.518,5.317,5.974,14.023
166,0.669,35.857,39.832,44.52,34.522,5.276,6.056,13.941
167,0.659,36.042,39.852,44.52,34.522,5.317,5.974,13.695
168,0.649,36.196,39.903,44.52,34.515,5.358,6.056,13.571
169,0.655,35.702,39.919,44.491,34.508,5.235,6.015,13.284
170,0.669,35.925,39.891,44.51,34.515,5.317,5.933,13.038
171,0.678,36.138,39.828,44.588,34.532,5.399,6.138,12.996
172,0.682,36.226,39.887,44.481,34.508,5.276,6.015,12.791
173,0.692,35.518,39.895,44.51,34.522,5.358,6.056,12.791
174,0.685,35.751,39.887,44.51,34.515,5.358,6.015,12.791
175,0.692,35.945,39.915,44.51,34.525,5.317,6.015,12.956
176,0.698,36.051,39.808,44.51,34.511,5.276,5.974,12.915
177,0.685,35.664,39.887,44.51,34.522,5.276,6.056,13.202
178,0.678,35.867,39.872,44.491,34.522,5.317,6.056,13.613
179,0.688,36.109,39.895,44.491,34.508,5.194,5.892,13.777
180,0.688,36.216,39.84,44.52,34.525,5.276,6.056,14.311
181,0.665,35.528,39.832,44.51,34.518,5.235,6.015,14.639
182,0.669,35.809,39.887,44.51,34.515,5.276,6.097,15.091
183,0.662,36.012,39.895,44.491,34.518,5.235,5.974,15.338
184,0.652,36.1,39.903,44.51,34.522,5.276,6.056,15.625
185,0.642,35.625,39.911,44.481,34.508,5.194,5.974,15.666
186,0.652,35.887,39.832,44.491,34.518,5.235,5.974,15.748
187,0.652,36.08,39.856,44.51,34.525,5.317,6.138,15.871
188,0.629,36.1,39.887,44.452,34.504,5.235,5.974,15.707
189,0.639,35.518,39.899,44.491,34.518,5.235,6.015,15.666
190,0.642,35.732,39.848,44.491,34.511,5.235,5.974,15.625
191,0.649,35.935,39.828,44.491,34.518,5.276,5.974,15.502
192,0.646,35.974,39.872,44.491,34.511,5.153,5.974,15.297
193,0.655,35.509,39.887,44.491,34.525,5.235,6.015,15.255
194,0.652,35.741,39.86,44.472,34.515,5.194,5.974,15.05
195,0.669,35.925,39.919,44.481,34.508,5.194,5.892,14.722
196,0.672,35.964,39.848,44.52,34.529,5.317,6.015,14.639
197,0.669,35.499,39.84,44.481,34.504,5.235,6.015,14.434
198,0.678,35.761,39.883,44.491,34.511,5.153,6.015,14.228
199,0.675,35.906,39.895,44.472,34.511,5.153,6.015,14.064
200,0.662,35.896,39.848,44.51,34.515,5.235,6.056,13.982
201,0.646,35.489,39.824,44.578,34.508,5.112,5.933,13.859
202,0.652,35.741,39.856,44.501,34.515,5.235,5.974,13.818
203,0.629,35.877,39.903,44.481,34.518,5.358,6.179,14.064
204,0.636,35.567,39.852,44.452,34.504,5.07,5.974,13.982
205,0.646,35.528,39.911,44.472,34.515,5.153,6.056,14.064
206,0.632,35.732,39.883,44.472,34.508,5.153,5.933,14.188
207,0.636,35.877,39.864,44.481,34.518,5.235,6.015,14.352
208,0.626,35.393,39.879,44.452,34.508,5.112,5.974,14.393
209,0.626,35.499,39.907,44.51,34.518,5.276,6.056,14.639
210,0.629,35.702,39.84,44.472,34.511,5.153,6.056,14.886
211,0.636,35.857,39.808,44.559,34.504,5.03,5.892,14.803
212,0.632,35.276,39.864,44.51,34.525,5.194,6.015,15.173
213,0.626,35.383,39.883,44.462,34.511,5.153,5.974,15.132
214,0.632,35.635,39.848,44.472,34.511,5.153,6.015,15.214
215,0.642,35.751,39.887,44.472,34.518,5.07,5.892,15.132
216,0.642,35.276,39.844,44.462,34.515,5.153,6.015,15.091
217,0.636,35.48,39.836,44.452,34.515,5.112,5.851,14.968
218,0.639,35.722,39.887,44.472,34.522,5.153,5.974,14.968
219,0.639,35.819,39.895,44.462,34.525,5.317,6.097,15.05
220,0.639,35.257,39.852,44.433,34.504,5.153,5.892,14.803
221,0.652,35.548,39.769,44.51,34.515,5.153,5.974,14.722
222,0.636,35.732,39.848,44.472,34.515,5.153,5.974,14.639
223,0.616,35.828,39.891,44.472,34.508,5.194,5.933,14.557
224,0.603,35.218,39.82,44.462,34.511,5.153,5.892,14.393
225,0.596,35.489,39.883,44.481,34.515,5.276,5.974,14.434
226,0.603,35.654,39.84,44.462,34.511,5.153,5.974,14.27
227,0.603,35.799,39.84,44.472,34.515,5.153,5.892,14.023
228,0.616,35.296,39.915,44.51,34.532,5.276,5.974,14.105
229,0.596,35.499,39.879,44.462,34.511,5.235,5.892,14.023
230,0.623,35.722,39.836,44.472,34.511,5.235,5.974,14.023
231,0.616,35.819,39.852,44.462,34.508,5.153,5.892,13.9
232,0.629,35.325,39.848,44.472,34.518,5.235,5.933,13.982
233,0.616,35.538,39.895,44.452,34.508,5.07,5.851,13.859
234,0.629,35.77,39.852,44.472,34.515,5.235,5.892,13.9
235,0.632,35.799,39.907,44.472,34.518,5.235,6.015,13.941
236,0.632,35.325,39.797,44.433,34.508,5.07,5.768,13.736
237,0.655,35.606,39.824,44.462,34.515,5.153,5.892,13.818
238,0.642,35.732,39.919,44.423,34.511,5.153,5.851,13.982
239,0.655,35.77,39.879,44.443,34.515,5.194,5.892,14.105
240,0.629,35.412,39.773,44.452,34.515,5.07,5.851,14.352
241,0.629,35.664,39.808,44.462,34.522,5.194,6.015,14.516
242,0.609,35.819,39.872,44.414,34.508,5.153,5.892,14.639
243,0.619,35.857,39.911,44.452,34.511,5.194,5.933,14.68
244,0.609,35.412,39.848,44.491,34.529,5.317,6.056,14.803
245,0.59,35.596,39.879,44.452,34.515,5.194,5.974,14.803
246,0.609,35.761,39.805,44.462,34.518,5.276,5.933,14.803
247,0.603,35.654,39.824,44.452,34.515,5.235,5.933,14.722
248,0.603,35.441,39.899,44.462,34.518,5.235,6.056,14.68
249,0.603,35.644,39.875,44.433,34.515,5.194,5.974,14.434
250,0.619,35.828,39.844,44.443,34.522,5.276,6.015,14.393
251,0.606,35.46,39.812,44.423,34.522,5.358,6.097,14.434
252,0.619,35.47,39.856,44.414,34.501,5.112,5.933,14.105
253,0.642,35.722,39.903,44.472,34.518,5.317,6.097,13.982
254,0.629,35.828,39.84,44.452,34.518,5.317,5.974,13.695
255,0.646,35.431,39.899,44.433,34.522,5.317,6.056,13.613
256,0.632,35.528,39.789,44.433,34.511,5.276,6.015,13.407
257,0.642,35.761,39.828,44.452,34.515,5.358,6.015,13.325
258,0.639,35.887,39.887,44.423,34.508,5.235,5.974,13.202
259,0.629,35.809,39.875,44.433,34.518,5.276,5.974,12.956
260,0.623,36.022,39.745,44.452,34.532,5.399,6.138,12.996
261,0.616,36.187,39.832,44.414,34.511,5.317,5.974,13.038
262,0.626,36.332,39.848,44.443,34.511,5.317,5.974,13.243
263,0.609,35.083,39.907,44.433,34.511,5.276,5.974,13.531
264,0.613,35.305,39.856,44.443,34.518,5.317,6.015,13.9
265,0.606,35.509,39.856,44.414,34.508,5.276,5.974,14.105
266,0.616,35.635,39.852,44.423,34.525,5.358,5.974,14.803
267,0.6,35.354,39.832,44.443,34.511,5.358,6.056,15.338
268,0.613,35.606,39.891,44.404,34.504,5.153,5.851,15.543
269,0.619,35.848,39.903,44.462,34.522,5.358,5.933,16.035
270,0.606,35.896,39.836,44.423,34.518,5.317,5.892,16.2
271,0.596,35.354,39.805,44.452,34.515,5.317,5.974,16.487
272,0.609,35.625,39.828,44.433,34.515,5.235,5.933,16.405
273,0.623,35.819,39.879,44.423,34.515,5.317,5.974,16.487
274,0.609,35.906,39.844,44.404,34.508,5.235,5.851,16.323
275,0.632,35.431,39.875,44.414,34.515,5.317,5.974,16.364
276,0.619,35.664,39.852,44.443,34.529,5.358,6.056,16.364
277,0.629,35.857,39.808,44.394,34.497,5.317,5.892,16.118
278,0.646,35.954,39.887,44.404,34.515,5.317,5.933,15.995
279,0.626,35.393,39.856,44.404,34.511,5.276,5.851,15.912
280,0.619,35.654,39.82,44.433,34.511,5.317,5.974,15.871
281,0.629,35.848,39.84,44.491,34.511,5.276,5.851,15.666
282,0.619,35.916,39.797,44.404,34.518,5.399,5.974,15.666
283,0.606,35.586,39.864,44.394,34.508,5.235,5.933,15.584
284,0.606,35.857,39.828,44.414,34.511,5.276,5.81,15.255
285,0.6,36.051,39.864,44.452,34.518,5.399,5.851,15.297
286,0.6,36.022,39.824,44.394,34.511,5.317,5.892,15.091
287,0.593,35.596,39.805,44.414,34.515,5.358,5.892,14.968
288,0.6,35.819,39.872,44.414,34.511,5.317,5.933,14.803
289,0.606,35.993,39.86,44.404,34.515,5.399,5.974,14.722
290,0.609,35.954,39.801,44.404,34.501,5.317,5.81,14.557
291,0.616,35.625,39.852,44.452,34.515,5.358,5.933,14.434
292,0.606,35.838,39.805,44.394,34.515,5.399,6.015,14.434
293,0.619,35.974,39.848,44.356,34.508,5.235,5.851,14.27
294,0.636,35.848,39.824,44.414,34.515,5.399,5.851,14.146
295,0.623,35.683,39.883,44.394,34.525,5.317,5.892,13.982
296,0.626,35.887,39.812,44.404,34.522,5.317,5.892,14.023
297,0.632,36.051,39.824,44.385,34.515,5.235,5.892,13.9
298,0.632,35.673,39.903,44.394,34.515,5.358,5.933,13.818
299,0.619,35.683,39.844,44.365,34.508,5.317,5.933,13.818
300,0.629,35.916,39.773,44.394,34.511,5.235,5.768,13.695
301,0.632,36.09,39.828,44.443,34.529,5.44,5.892,13.982
302,0.603,35.538,39.816,44.404,34.515,5.317,5.892,14.064
303,0.609,35.673,39.848,44.385,34.515,5.276,5.933,14.188
304,0.609,35.906,39.824,44.365,34.518,5.317,5.851,14.188
305,0.603,36.051,39.868,44.394,34.522,5.358,5.851,14.311
306,0.609,35.635,39.844,44.394,34.515,5.276,5.81,14.27
307,0.593,35.877,39.82,44.394,34.511,5.317,5.768,14.188
308,0.59,36.109,39.879,44.423,34.532,5.481,5.892,14.188
309,0.58,36.187,39.868,44.394,34.518,5.276,5.851,14.146
310,0.613,35.567,39.824,44.394,34.522,5.235,5.81,14.023
311,0.619,35.809,39.781,44.433,34.511,5.317,5.81,13.941
312,0.606,36.022,39.816,44.404,34.515,5.399,5.892,13.9
313,0.606,36.1,39.844,44.375,34.504,5.276,5.81,13.777
314,0.603,35.654,39.797,44.404,34.518,5.317,5.81,13.695
315,0.609,35.887,39.872,44.394,34.525,5.481,5.974,13.9
316,0.619,36.042,39.805,44.346,34.504,5.276,5.81,13.571
317,0.632,36.196,39.824,44.385,34.515,5.358,5.768,13.448
318,0.609,35.615,39.864,44.356,34.511,5.358,5.81,13.366
319,0.616,35.906,39.872,44.375,34.511,5.44,5.851,13.284
320,0.609,36.071,39.824,44.356,34.511,5.358,5.768,13.038
321,0.616,36.177,39.686,44.414,34.522,5.44,5.851,13.12
322,0.603,35.654,39.808,44.394,34.511,5.481,5.933,13.12
323,0.603,35.877,39.848,44.336,34.511,5.235,5.645,12.915
324,0.593,36.129,39.856,44.404,34.522,5.317,5.81,12.996
325,0.58,36.158,39.852,44.385,34.508,5.317,5.81,12.996
326,0.593,35.732,39.832,44.365,34.518,5.399,5.851,12.996
327,0.58,35.983,39.832,44.385,34.511,5.317,5.727,12.791
328,0.586,36.167,39.82,44.404,34.511,5.399,5.851,12.791
329,0.586,36.196,39.887,44.365,34.511,5.317,5.768,12.709
330,0.603,35.606,39.856,44.365,34.508,5.358,5.727,12.504
331,0.606,35.857,39.686,44.404,34.529,5.563,5.933,12.668
332,0.6,35.974,39.816,44.336,34.504,5.358,5.768,12.381
333,0.626,36.061,39.828,44.365,34.508,5.399,5.81,12.381
334,0.623,35.896,39.868,44.375,34.511,5.399,5.768,12.216
335,0.629,36.148,39.887,44.375,34.515,5.399,5.81,12.216
336,0.613,36.284,39.805,44.346,34.511,5.358,5.727,12.011
337,0.623,36.487,39.812,44.375,34.518,5.44,5.81,12.052
338,0.616,35.702,39.808,44.346,34.508,5.399,5.851,12.052
339,0.6,35.925,39.879,44.327,34.504,5.317,5.727,11.806
340,0.623,36.119,39.824,44.385,34.518,5.399,5.768,11.929
341,0.596,35.867,39.816,44.365,34.515,5.399,5.768,11.806
342,0.6,35.77,39.824,44.365,34.518,5.399,5.768,11.723
343,0.609,35.954,39.848,44.365,34.518,5.399,5.768,11.641
344,0.616,36.129,39.844,44.356,34.522,5.44,5.851,11.683
345,0.59,35.722,39.872,44.327,34.515,5.399,5.768,11.559
346,0.606,35.78,39.789,44.356,34.515,5.399,5.768,11.436
347,0.596,36.032,39.84,44.394,34.525,5.522,5.892,11.559
348,0.59,36.109,39.808,44.327,34.515,5.44,5.768,11.395
349,0.6,35.741,39.879,44.365,34.522,5.44,5.851,11.354
350,0.606,35.877,39.777,44.346,34.504,5.399,5.727,11.272
351,0.609,36.109,39.785,44.462,34.518,5.44,5.892,11.354
352,0.603,36.216,39.82,44.327,34.511,5.358,5.727,11.354
353,0.616,35.567,39.808,44.356,34.525,5.481,5.851,11.395
354,0.616,35.77,39.852,44.356,34.515,5.481,5.933,11.641
355,0.629,35.954,39.864,44.317,34.504,5.358,5.687,11.6
356,0.632,36.129,39.797,44.356,34.511,5.44,5.851,11.723
357,0.623,35.509,39.82,44.346,34.515,5.358,5.768,11.97
358,0.619,35.761,39.836,44.327,34.518,5.44,5.851,12.216
359,0.609,35.954,39.856,44.317,34.515,5.317,5.727,12.298
360,0.603,36.061,39.793,44.346,34.522,5.522,5.892,12.586
361,0.59,35.586,39.757,44.327,34.508,5.44,5.81,12.873
362,0.586,35.848,39.812,44.327,34.511,5.317,5.727,13.079
363,0.59,36.061,39.848,44.375,34.529,5.563,5.892,13.448
364,0.577,36.1,39.805,44.327,34.515,5.399,5.81,13.777
365,0.573,35.548,39.864,44.327,34.511,5.399,5.768,14.146
366,0.577,35.78,39.773,44.327,34.511,5.317,5.851,14.475
367,0.564,35.983,39.824,44.336,34.515,5.44,5.851,14.845
368,0.57,36.071,39.808,44.317,34.504,5.399,5.768,15.091
369,0.58,35.538,39.872,44.336,34.518,5.481,5.81,15.502
370,0.59,35.761,39.808,44.327,34.525,5.563,5.933,15.995
371,0.58,35.935,39.718,44.365,34.501,5.358,5.81,15.995
372,0.603,36.042,39.789,44.336,34.518,5.44,5.81,16.2
373,0.609,35.654,39.832,44.327,34.515,5.399,5.81,16.364
374,0.616,35.906,39.808,44.327,34.511,5.481,5.851,16.734
375,0.632,36.1,39.872,44.307,34.511,5.317,5.727,17.021
376,0.636,36.138,39.801,44.307,34.522,5.563,5.81,17.35
377,0.639,35.509,39.82,44.307,34.508,5.522,5.81,17.473
378,0.642,35.77,39.883,44.307,34.515,5.399,5.687,17.555
379,0.642,35.935,39.895,44.356,34.529,5.645,5.81,17.678
380,0.632,35.945,39.773,44.307,34.511,5.481,5.687,17.678
381,0.639,35.615,39.761,44.297,34.508,5.563,5.81,17.555
382,0.632,35.828,39.824,44.317,34.508,5.522,5.727,17.35
383,0.616,36.003,39.832,44.317,34.515,5.604,5.727,17.309
384,0.629,35.954,39.797,44.297,34.508,5.522,5.687,17.104
385,0.629,35.518,39.856,44.307,34.515,5.604,5.768,17.021
386,0.636,35.683,39.785,44.317,34.518,5.604,5.892,17.104
387,0.649,35.896,39.808,44.288,34.504,5.399,5.687,16.734
388,0.672,35.712,39.875,44.346,34.518,5.522,5.768,16.652
389,0.665,35.615,39.864,44.297,34.508,5.563,5.81,16.487
390,0.705,35.848,39.832,44.297,34.511,5.563,5.81,16.282
391,0.718,35.974,39.832,44.375,34.508,5.481,5.727,16.077
392,0.741,35.499,39.797,44.317,34.518,5.563,5.81,15.953
393,0.738,35.538,39.844,44.297,34.511,5.522,5.768,15.83
394,0.751,35.809,39.805,44.307,34.515,5.481,5.727,15.502
395,0.754,35.935,39.856,44.327,34.525,5.687,5.851,15.543
396,0.744,35.412,39.749,44.278,34.511,5.522,5.768,15.297
397,0.764,35.625,39.816,44.307,34.518,5.481,5.81,15.297
398,0.744,35.828,39.856,44.278,34.511,5.481,5.768,15.255
399,0.741,35.964,39.86,44.297,34.515,5.481,5.768,15.543
400,0.718,35.315,39.773,44.288,34.511,5.481,5.687,15.625
401,0.731,35.567,39.828,44.307,34.515,5.563,5.892,15.995
402,0.728,35.751,39.793,44.297,34.518,5.604,5.974,16.364
403,0.718,35.867,39.856,44.259,34.501,5.358,5.727,16.364
404,0.731,35.354,39.785,44.297,34.515,5.481,5.81,16.487
405,0.728,35.557,39.832,44.268,34.511,5.522,5.81,16.446
406,0.728,35.741,39.812,44.288,34.515,5.481,5.768,16.528
407,0.738,35.838,39.789,44.278,34.508,5.44,5.727,16.364
408,0.741,35.364,39.872,44.288,34.515,5.481,5.851,16.487
409,0.744,35.615,39.82,44.288,34.511,5.44,5.768,16.323
410,0.774,35.809,39.773,44.259,34.515,5.399,5.768,15.953
411,0.777,35.916,39.808,44.307,34.522,5.563,5.768,15.912
412,0.761,35.325,39.761,44.268,34.511,5.44,5.727,15.707
413,0.77,35.606,39.832,44.278,34.518,5.44,5.851,15.543
414,0.767,35.79,39.828,44.268,34.511,5.44,5.727,15.338
415,0.774,35.867,39.824,44.278,34.518,5.563,5.727,15.173
416,0.761,35.315,39.789,44.249,34.501,5.44,5.768,14.803
417,0.747,35.606,39.765,44.278,34.522,5.522,5.768,14.639
418,0.728,35.761,39.852,44.278,34.518,5.604,5.892,14.557
419,0.708,35.828,39.844,44.23,34.504,5.399,5.687,14.228
420,0.708,35.354,39.753,44.288,34.515,5.522,5.768,14.064
421,0.698,35.586,39.828,44.259,34.511,5.481,5.768,13.9
422,0.711,35.761,39.777,44.278,34.515,5.563,5.768,13.859
423,0.698,35.799,39.848,44.239,34.508,5.563,5.727,13.695
424,0.695,35.344,39.848,44.278,34.511,5.645,5.81,13.654
425,0.675,35.548,39.824,44.239,34.511,5.563,5.727,13.407
426,0.685,35.751,39.789,44.268,34.511,5.604,5.727,13.243
427,0.662,35.78,39.789,44.278,34.525,5.81,5.851,13.407
428,0.636,35.286,39.856,44.23,34.508,5.687,5.645,13.12
429,0.649,35.538,39.864,44.259,34.515,5.727,5.768,12.956
430,0.639,35.683,39.698,44.259,34.515,5.768,5.727,12.873
431,0.642,35.586,39.805,44.259,34.515,5.81,5.768,12.873
432,0.649,35.315,39.769,44.249,34.508,5.687,5.645,12.791
433,0.655,35.548,39.848,44.249,34.515,5.851,5.727,12.873
434,0.646,35.683,39.836,44.249,34.511,5.851,5.851,12.996
435,0.632,35.315,39.84,44.23,34.501,5.727,5.604,12.791
436,0.646,35.334,39.824,44.268,34.515,5.892,5.727,12.791
437,0.639,35.518,39.757,44.249,34.515,5.851,5.645,12.791
438,0.642,35.673,39.84,44.23,34.515,5.851,5.81,12.709
439,0.636,35.17,39.844,44.23,34.508,5.851,5.645,12.586
440,0.636,35.296,39.769,44.249,34.518,5.933,5.727,12.75
441,0.613,35.489,39.793,44.22,34.511,5.892,5.645,12.627
442,0.616,35.664,39.777,44.23,34.511,5.892,5.563,12.422
443,0.606,35.276,39.84,44.268,34.522,6.015,5.768,12.463
444,0.59,35.431,39.824,44.22,34.504,5.974,5.727,12.422
445,0.59,35.644,39.801,44.23,34.518,5.892,5.645,12.422
446,0.583,35.78,39.797,44.22,34.515,5.892,5.645,12.216
447,0.58,35.054,39.757,44.239,34.518,5.933,5.727,12.257
448,0.57,35.257,39.832,44.21,34.508,5.851,5.604,12.134
449,0.583,35.47,39.883,44.239,34.511,5.892,5.687,12.134
450,0.583,35.596,39.741,44.23,34.525,5.974,5.81,12.175
451,0.583,35.189,39.812,44.191,34.504,5.81,5.563,11.97
452,0.59,35.46,39.781,44.239,34.515,5.892,5.645,12.011
453,0.567,35.644,39.824,44.21,34.511,5.892,5.645,11.888
454,0.58,35.751,39.824,44.23,34.511,5.892,5.727,11.97
455,0.59,35.15,39.812,44.21,34.511,5.851,5.563,11.929
456,0.593,35.402,39.781,44.22,34.525,5.851,5.768,12.093
457,0.59,35.586,39.781,44.21,34.511,5.768,5.687,12.175
458,0.586,35.702,39.848,44.21,34.511,5.768,5.563,12.175
459,0.59,35.112,39.875,44.239,34.529,5.892,5.768,12.586
460,0.586,35.344,39.706,44.181,34.504,5.851,5.727,12.832
461,0.596,35.567,39.773,44.21,34.515,5.851,5.727,13.243
462,0.583,35.625,39.793,44.201,34.508,5.768,5.727,13.654
463,0.573,35.189,39.789,44.201,34.508,5.851,5.81,14.105
464,0.573,35.431,39.812,44.191,34.511,5.768,5.687,14.352
465,0.567,35.625,39.805,44.201,34.515,5.81,5.851,14.68
466,0.557,35.654,39.808,44.191,34.508,5.851,5.892,15.05
467,0.557,35.092,39.801,44.21,34.504,5.687,5.687,14.968
468,0.56,35.354,39.84,44.249,34.525,5.851,5.81,15.214
469,0.55,35.489,39.864,44.201,34.511,5.768,5.81,15.297
470,0.567,35.557,39.761,44.21,34.515,5.81,5.81,15.297
471,0.56,35.267,39.765,44.201,34.501,5.81,5.768,15.214
472,0.564,35.509,39.82,44.181,34.508,5.81,5.892,15.214
473,0.577,35.635,39.781,44.172,34.504,5.768,5.727,15.05
474,0.58,35.664,39.832,44.201,34.515,5.851,5.851,15.05
475,0.583,35.15,39.801,44.21,34.518,5.892,5.933,15.009
476,0.577,35.373,39.785,44.172,34.501,5.645,5.768,14.722
477,0.603,35.586,39.777,44.201,34.515,5.768,5.851,14.639
478,0.58,35.325,39.816,44.181,34.508,5.727,5.851,14.393
479,0.586,35.141,39.86,44.172,34.508,5.81,5.892,14.228
480,0.583,35.344,39.745,44.172,34.511,5.768,5.851,14.105
481,0.583,35.538,39.808,44.181,34.518,5.851,5.933,14.27
482,0.567,35.209,39.773,44.162,34.508,5.727,5.851,14.188
483,0.573,35.247,39.824,44.181,34.511,5.851,5.892,14.311
484,0.557,35.47,39.816,44.21,34.525,5.851,6.097,14.557
485,0.55,35.586,39.793,44.143,34.501,5.687,5.81,14.352
486,0.567,35.034,39.769,44.162,34.511,5.768,5.851,14.434
487,0.554,35.131,39.808,44.172,34.511,5.687,5.851,14.352
488,0.564,35.354,39.789,44.181,34.518,5.768,5.81,14.434
489,0.564,35.47,39.848,44.172,34.508,5.687,5.81,14.228
490,0.577,35.005,39.73,44.181,34.515,5.727,5.892,14.228
491,0.573,35.17,39.757,44.162,34.511,5.727,5.933,14.146
492,0.57,35.412,39.808,44.162,34.504,5.645,5.768,13.941
493,0.583,35.557,39.816,44.21,34.532,5.768,5.933,13.9
494,0.583,34.966,39.812,44.162,34.511,5.727,5.81,13.9
495,0.593,35.218,39.808,44.162,34.511,5.727,5.851,14.023
496,0.603,35.422,39.769,44.152,34.515,5.645,5.851,14.27
497,0.6,35.528,39.793,44.172,34.518,5.604,5.892,14.639
498,0.6,35.005,39.805,44.143,34.504,5.563,5.81,14.886
499,0.609,35.257,39.844,44.162,34.518,5.645,5.892,15.338
500,0.603,35.451,39.71,44.162,34.515,5.768,6.056,15.789
501,0.596,35.557,39.761,44.133,34.504,5.481,5.81,15.995
502,0.606,34.957,39.84,44.152,34.508,5.687,5.81,16.118
503,0.58,35.179,39.812,44.143,34.508,5.604,5.851,16.323
504,0.58,35.383,39.832,44.152,34.511,5.645,5.892,16.405
505,0.577,35.46,39.793,44.133,34.515,5.604,5.81,16.323
506,0.573,35.024,39.781,44.152,34.518,5.604,5.933,16.405
507,0.557,35.238,39.797,44.152,34.515,5.563,6.056,16.323
508,0.564,35.441,39.797,44.143,34.501,5.481,5.727,16.035
509,0.57,35.567,39.86,44.162,34.518,5.604,5.933,15.953
510,0.567,34.908,39.706,44.133,34.511,5.522,5.892,15.707
511,0.577,35.17,39.741,44.152,34.515,5.563,5.933,15.543
512,0.59,35.344,39.781,44.143,34.504,5.522,5.892,15.214
513,0.6,35.412,39.801,44.152,34.518,5.604,5.974,15.173
514,0.6,34.966,39.816,44.133,34.508,5.481,5.892,15.009
515,0.616,35.228,39.812,44.133,34.508,5.563,5.81,14.803
516,0.619,35.412,39.753,44.181,34.518,5.645,6.015,14.722
517,0.609,35.402,39.777,44.094,34.508,5.522,5.974,14.475
518,0.616,35.044,39.82,44.123,34.515,5.44,5.933,14.475
519,0.619,35.286,39.824,44.123,34.511,5.481,5.892,14.188
520,0.606,35.451,39.659,44.114,34.511,5.522,5.933,14.105
521,0.6,35.644,39.753,44.114,34.508,5.399,5.892,13.9
522,0.6,35.024,39.832,44.133,34.515,5.481,6.015,13.859
523,0.59,35.257,39.797,44.123,34.522,5.522,6.056,13.818
524,0.593,35.412,39.832,44.085,34.497,5.399,5.851,13.531
525,0.606,35.131,39.84,44.123,34.515,5.522,5.933,13.448
526,0.59,34.937,39.777,44.114,34.511,5.481,5.892,13.284
527,0.583,35.17,39.785,44.123,34.511,5.481,5.933,13.202
528,0.596,35.305,39.789,44.094,34.508,5.522,5.892,12.996
529,0.606,35.015,39.828,44.114,34.515,5.481,5.974,12.915
530,0.616,35.054,39.737,44.085,34.504,5.399,5.933,12.791
531,0.636,35.305,39.757,44.114,34.504,5.399,5.892,12.545
532,0.665,35.451,39.801,44.133,34.525,5.604,6.015,12.545
533,0.669,34.86,39.769,44.104,34.515,5.399,5.933,12.422
534,0.705,35.054,39.797,44.094,34.511,5.399,5.933,12.422
535,0.724,35.257,39.844,44.085,34.511,5.399,5.892,12.298
536,0.741,35.402,39.726,44.114,34.511,5.44,5.974,12.298
537,0.757,34.802,39.793,44.085,34.508,5.399,5.81,12.175
538,0.77,35.024,39.808,44.104,34.518,5.481,5.933,12.216
539,0.764,35.218,39.824,44.104,34.522,5.522,5.974,12.257
540,0.751,35.354,39.745,44.056,34.501,5.358,5.81,12.011
541,0.777,34.811,39.789,44.104,34.511,5.399,5.974,12.011
542,0.757,35.024,39.797,44.094,34.511,5.358,5.892,11.97
543,0.738,35.218,39.785,44.094,34.508,5.481,5.892,12.011
544,0.738,35.344,39.808,44.065,34.511,5.358,5.892,11.806
545,0.77,34.87,39.872,44.094,34.515,5.481,5.974,11.888
546,0.784,35.092,39.73,44.094,34.504,5.358,5.933,11.847
547,0.816,35.315,39.808,44.085,34.515,5.44,5.892,11.806
548,0.853,35.431,39.824,44.114,34.522,5.563,6.056,11.888
549,0.885,34.724,39.816,44.046,34.511,5.44,5.892,11.888
550,0.987,35.024,39.749,44.104,34.508,5.44,5.974,11.847
551,1.043,35.218,39.753,44.065,34.511,5.399,5.933,11.764
552,1.109,35.296,39.801,44.085,34.511,5.44,6.056,11.806
553,1.142,34.773,39.761,44.056,34.504,5.358,5.892,11.888
554,1.155,35.054,39.824,44.085,34.511,5.481,5.974,12.134
555,1.184,35.238,39.84,44.065,34.525,5.44,6.015,12.586
556,1.253,35.276,39.741,44.036,34.501,5.276,5.851,12.832
557,1.329,34.86,39.797,44.065,34.508,5.317,6.015,13.202
558,1.385,35.083,39.812,44.056,34.508,5.481,5.892,13.736
559,1.441,35.247,39.812,44.056,34.515,5.399,5.933,14.311
560,1.506,35.315,39.749,44.046,34.511,5.358,5.851,14.763
561,1.529,34.85,39.753,44.075,34.515,5.481,6.015,15.297
562,1.539,35.063,39.808,44.026,34.515,5.44,5.974,15.748
563,1.533,35.247,39.777,44.046,34.515,5.358,5.851,15.953
564,1.48,35.334,39.801,44.094,34.522,5.522,6.097,16.323
565,1.421,34.889,39.824,44.046,34.508,5.481,5.974,16.487
566,1.385,35.16,39.753,44.046,34.518,5.44,5.974,16.652
567,1.339,35.325,39.824,44.046,34.511,5.358,5.974,16.57
568,1.293,35.276,39.761,44.056,34.515,5.399,5.974,16.652
569,1.247,34.811,39.824,44.026,34.508,5.399,5.892,16.446
570,1.217,35.054,39.761,44.056,34.522,5.481,6.015,16.487
571,1.145,35.209,39.753,44.046,34.508,5.481,6.138,16.364
572,1.056,34.957,39.773,44.007,34.497,5.317,5.933,16.159
573,1.01,34.947,39.828,44.056,34.515,5.44,6.056,16.118
574,0.931,35.141,39.777,44.036,34.515,5.358,5.974,15.912
575,0.895,35.286,39.836,44.026,34.511,5.399,6.056,15.83
576,0.879,34.85,39.718,44.017,34.504,5.399,5.974,15.584
577,0.918,34.947,39.757,44.046,34.515,5.44,6.138,15.543
578,0.925,35.131,39.824,44.017,34.501,5.358,5.933,15.584
579,0.941,35.315,39.793,44.046,34.511,5.399,5.892,15.42
580,0.915,34.666,39.793,44.056,34.529,5.522,6.22,15.584
581,0.862,34.782,39.714,44.026,34.508,5.399,5.974,15.502
582,0.807,35.015,39.793,44.036,34.515,5.399,6.056,15.502
583,0.711,35.141,39.781,44.007,34.511,5.358,6.015,15.42
584,0.58,34.715,39.816,44.026,34.515,5.44,6.138,15.461
585,0.449,34.918,39.84,43.988,34.504,5.399,5.974,15.297
586,0.38,35.15,39.749,44.026,34.518,5.44,6.056,15.378
587,0.33,35.238,39.765,44.026,34.511,5.44,6.138,15.461
588,0.32,34.676,39.773,43.968,34.497,5.235,5.933,15.214
589,0.324,34.966,39.824,44.036,34.511,5.317,6.015,15.255
590,0.324,35.112,39.726,44.007,34.515,5.317,5.974,15.091
591,0.363,35.228,39.765,44.007,34.511,5.276,6.097,15.173
592,0.38,34.734,39.797,44.007,34.504,5.358,5.974,15.091
593,0.396,34.995,39.789,44.017,34.518,5.358,6.179,15.461
594,0.396,35.17,39.793,44.007,34.508,5.317,6.056,15.584
595,0.452,35.315,39.852,44.007,34.508,5.235,6.056,15.748
596,0.504,34.724,39.702,44.046,34.518,5.481,6.138,16.035
597,0.534,34.957,39.769,43.968,34.508,5.317,6.015,16.241
598,0.59,35.179,39.797,43.997,34.511,5.358,6.179,16.528
599,0.636,35.247,39.801,43.978,34.511,5.317,6.056,16.652
600,0.655,34.579,39.769,44.017,34.515,5.399,6.179,16.857
601,0.698,34.831,39.73,43.988,34.508,5.276,6.138,16.898
602,0.718,35.044,39.797,44.007,34.518,5.358,6.262,17.268
603,0.734,35.092,39.769,43.997,34.518,5.399,6.302,17.473
604,0.747,34.724,39.761,43.968,34.497,5.235,6.138,17.514
605,0.777,35.024,39.844,43.988,34.515,5.317,6.22,17.637
606,0.767,35.16,39.726,43.988,34.511,5.235,6.179,17.72
607,0.774,35.218,39.749,43.978,34.515,5.317,6.302,17.842
608,0.777,34.724,39.808,43.968,34.511,5.276,6.262,17.76
609,0.787,34.966,39.801,43.997,34.522,5.358,6.302,17.925
610,0.784,35.121,39.722,43.978,34.515,5.317,6.302,17.966
611,0.793,35.17,39.722,43.988,34.504,5.112,6.138,17.678
612,0.793,34.705,39.785,43.997,34.518,5.317,6.262,17.72
613,0.793,34.889,39.789,43.988,34.501,5.317,6.262,17.555
614,0.807,35.083,39.769,43.978,34.511,5.317,6.343,17.432
615,0.81,34.966,39.832,43.988,34.504,5.235,6.179,17.145
616,0.807,34.705,39.726,43.968,34.511,5.358,6.302,17.062
617,0.81,34.937,39.769,43.949,34.508,5.194,6.179,16.693
618,0.82,35.112,39.844,43.978,34.518,5.317,6.262,16.446
619,0.813,34.821,39.797,43.968,34.525,5.44,6.385,16.405
620,0.81,34.821,39.682,43.949,34.504,5.235,6.302,16.118
621,0.82,35.054,39.706,43.988,34.511,5.235,6.262,15.953
622,0.81,35.199,39.749,43.959,34.508,5.317,6.22,15.666
623,0.793,34.656,39.793,43.978,34.508,5.235,6.262,15.502
624,0.78,34.753,39.749,43.939,34.504,5.194,6.179,15.297
625,0.787,34.986,39.832,43.959,34.518,5.194,6.262,15.255
626,0.79,35.112,39.702,43.92,34.511,5.276,6.22,15.132
627,0.797,34.579,39.757,43.949,34.508,5.153,6.138,14.763
628,0.797,34.773,39.832,43.988,34.525,5.358,6.262,14.722
629,0.784,34.937,39.785,43.949,34.511,5.276,6.262,14.516
630,0.803,35.092,39.734,43.968,34.511,5.194,6.138,14.393
631,0.803,34.647,39.737,43.949,34.504,5.194,6.138,14.146
632,0.803,34.86,39.769,43.968,34.518,5.276,6.22,13.982
633,0.813,35.063,39.797,43.92,34.501,5.153,6.097,13.818
634,0.826,35.199,39.765,43.968,34.515,5.235,6.22,13.695
635,0.813,34.54,39.836,43.949,34.511,5.317,6.22,13.777
636,0.83,34.782,39.706,43.939,34.501,5.07,6.097,13.571
637,0.853,35.024,39.773,43.968,34.515,5.317,6.138,13.695
638,0.826,35.102,39.836,43.93,34.508,5.194,6.138,13.695
639,0.839,34.53,39.769,43.949,34.511,5.235,6.179,13.859
640,0.83,34.792,39.682,43.93,34.508,5.194,6.056,13.982
641,0.83,35.015,39.741,43.949,34.511,5.235,6.138,14.228
642,0.833,35.054,39.761,43.939,34.504,5.194,6.097,14.516
643,0.826,34.666,39.801,43.949,34.508,5.235,6.056,14.68
644,0.81,34.937,39.765,43.978,34.525,5.358,6.179,15.091
645,0.797,35.063,39.789,43.92,34.504,5.276,6.056,15.132
646,0.82,35.17,39.734,43.93,34.511,5.235,6.056,15.378
647,0.813,34.53,39.726,43.949,34.511,5.235,6.056,15.42
648,0.816,34.811,39.808,43.939,34.518,5.358,6.138,15.543
649,0.813,34.976,39.777,43.939,34.504,5.194,6.015,15.42
650,0.836,35.063,39.698,43.93,34.515,5.317,6.097,15.461
651,0.83,34.676,39.777,43.93,34.511,5.358,6.138,15.584
652,0.846,34.937,39.749,43.901,34.497,5.235,6.015,15.338
653,0.859,35.15,39.816,43.959,34.511,5.276,6.015,15.255
654,0.859,35.16,39.757,43.93,34.508,5.317,6.015,15.091
655,0.853,34.686,39.828,43.93,34.511,5.235,6.015,14.968
656,0.859,34.928,39.726,43.92,34.511,5.235,5.974,14.68
657,0.866,35.092,39.745,43.93,34.508,5.276,6.056,14.557
658,0.866,35.054,39.816,43.91,34.504,5.235,6.015,14.393
659,0.872,34.608,39.761,43.93,34.511,5.276,5.933,13.982
660,0.856,34.84,39.659,43.949,34.522,5.481,6.097,13.982
661,0.843,34.976,39.73,43.901,34.504,5.276,5.974,13.859
662,0.853,34.87,39.749,43.92,34.515,5.317,6.015,13.695
663,0.839,34.734,39.793,43.891,34.508,5.235,5.892,13.613
664,0.839,34.976,39.745,43.91,34.511,5.317,6.056,13.531
665,0.853,35.121,39.793,43.901,34.504,5.235,5.892,13.366
666,0.843,34.627,39.769,43.901,34.522,5.317,5.933,13.284
667,0.836,34.627,39.722,43.91,34.515,5.399,6.097,13.366
668,0.846,34.86,39.797,43.872,34.508,5.194,5.933,12.996
669,0.866,35.044,39.793,43.92,34.508,5.358,6.015,12.956
670,0.849,34.56,39.698,43.891,34.511,5.317,5.851,12.791
671,0.862,34.715,39.745,43.91,34.511,5.317,5.974,12.627
672,0.866,34.928,39.753,43.881,34.504,5.276,5.933,12.586
673,0.879,35.054,39.785,43.881,34.511,5.358,5.974,12.545
674,0.872,34.472,39.749,43.862,34.508,5.358,5.974,12.339
675,0.892,34.695,39.828,43.901,34.508,5.358,5.81,12.134
676,0.899,34.937,39.73,43.959,34.518,5.481,6.015,12.175
677,0.885,34.995,39.745,43.852,34.511,5.317,5.892,11.97
678,0.902,34.482,39.812,43.891,34.504,5.399,5.974,11.806
679,0.902,34.724,39.745,43.862,34.511,5.317,5.851,11.683
680,0.899,34.947,39.757,43.891,34.511,5.358,5.892,11.641
681,0.892,35.044,39.73,43.862,34.501,5.399,5.851,11.518
682,0.895,34.56,39.785,43.881,34.511,5.44,5.892,11.559
683,0.889,34.792,39.812,43.872,34.515,5.481,6.015,11.641
684,0.905,35.015,39.745,43.862,34.497,5.235,5.81,11.395
685,0.912,35.131,39.84,43.901,34.511,5.399,5.892,11.518
686,0.885,34.492,39.667,43.862,34.511,5.358,5.851,11.395
687,0.895,34.763,39.734,43.862,34.511,5.358,5.892,11.395
688,0.905,34.928,39.832,43.872,34.508,5.399,5.851,11.313
689,0.912,35.044,39.757,43.862,34.515,5.399,5.892,11.313
690,0.922,34.501,39.651,43.862,34.501,5.276,5.81,11.149
691,0.938,34.782,39.682,43.862,34.508,5.317,5.81,11.066
692,0.931,34.966,39.773,43.872,34.522,5.522,6.015,11.231
693,0.931,35.005,39.757,43.833,34.501,5.44,5.933,11.149
694,0.958,34.569,39.749,43.862,34.508,5.44,5.851,11.231
695,0.951,34.802,39.816,43.852,34.508,5.399,5.81,11.231
696,0.951,35.005,39.647,43.881,34.515,5.44,5.933,11.313
697,0.948,35.054,39.737,43.852,34.504,5.399,5.768,11.354
698,0.958,34.608,39.836,43.833,34.515,5.522,5.933,11.641
699,0.958,34.84,39.745,43.843,34.511,5.44,5.892,11.929
700,0.958,35.054,39.714,43.872,34.501,5.358,5.687,11.888
701,0.958,35.121,39.714,43.872,34.522,5.44,5.851,12.216
702,0.945,34.53,39.765,43.823,34.511,5.399,5.892,12.668
703,0.935,34.763,39.765,43.833,34.515,5.399,5.851,13.325
704,0.941,34.928,39.745,43.843,34.515,5.399,5.768,13.941
705,0.941,35.131,39.801,43.833,34.518,5.481,5.851,14.722
706,0.948,34.482,39.686,43.823,34.501,5.399,5.768,15.378
707,0.958,34.763,39.753,43.843,34.508,5.317,5.768,15.83
708,0.951,34.928,39.757,43.862,34.518,5.481,5.892,16.364
709,0.935,34.666,39.765,43.823,34.504,5.399,5.81,16.734
710,0.977,34.579,39.686,43.852,34.511,5.399,5.851,17.104
711,0.994,34.811,39.698,43.823,34.508,5.317,5.81,17.185
712,0.987,34.966,39.73,43.843,34.511,5.399,5.851,17.268
713,0.994,34.56,39.757,43.823,34.508,5.276,5.768,17.268
714,1.01,34.637,39.722,43.843,34.511,5.399,5.851,17.227
715,1.014,34.821,39.808,43.852,34.522,5.44,5.974,17.268
716,1.004,34.976,39.635,43.814,34.501,5.194,5.81,16.898
717,1.02,34.366,39.737,43.833,34.508,5.317,5.933,16.734
718,1.017,34.501,39.816,43.823,34.511,5.317,5.892,16.528
719,1.027,34.715,39.761,43.823,34.501,5.399,6.015,16.323
720,1.017,34.86,39.663,43.823,34.511,5.317,6.056,16.077
721,1.023,34.501,39.686,43.814,34.518,5.358,6.138,15.995
722,1.01,34.695,39.761,43.814,34.501,5.317,6.097,15.871
723,1.017,34.928,39.789,43.833,34.508,5.358,6.138,15.584
724,1.027,35.063,39.765,43.833,34.522,5.481,6.343,15.666
725,1.023,34.269,39.769,43.784,34.508,5.276,6.179,15.42
726,1.03,34.54,39.714,43.823,34.508,5.317,6.22,15.42
727,1.023,34.763,39.73,43.814,34.508,5.235,6.22,15.338
728,1.027,34.86,39.777,43.833,34.508,5.358,6.343,15.255
729,1.017,34.414,39.757,43.804,34.508,5.194,6.343,15.132
730,1.053,34.695,39.722,43.814,34.515,5.276,6.343,15.091
731,1.05,34.889,39.718,43.814,34.511,5.358,6.467,15.173
732,1.053,34.966,39.714,43.775,34.504,5.194,6.302,14.886
733,1.073,34.453,39.793,43.823,34.511,5.317,6.385,14.886
734,1.073,34.695,39.714,43.804,34.504,5.276,6.385,14.763
735,1.092,34.879,39.801,43.804,34.511,5.317,6.385,14.722
736,1.099,34.957,39.714,43.794,34.501,5.276,6.343,14.434
737,1.102,34.405,39.722,43.814,34.518,5.317,6.426,14.475
738,1.102,34.627,39.801,43.775,34.504,5.235,6.262,14.228
739,1.112,34.831,39.757,43.804,34.504,5.317,6.302,14.023
740,1.102,34.908,39.69,43.852,34.525,5.44,6.508,14.064
741,1.106,34.395,39.718,43.775,34.504,5.194,6.343,13.859
742,1.125,34.686,39.749,43.794,34.501,5.317,6.343,13.9
743,1.115,34.84,39.777,43.784,34.504,5.276,6.302,13.695
744,1.115,34.947,39.722,43.804,34.508,5.358,6.343,13.695
745,1.119,34.482,39.769,43.784,34.511,5.317,6.302,13.448
746,1.132,34.734,39.722,43.794,34.515,5.358,6.385,13.531
747,1.122,34.899,39.682,43.823,34.511,5.399,6.385,13.695
748,1.145,34.937,39.761,43.775,34.504,5.153,6.22,13.654
749,1.148,34.463,39.734,43.823,34.518,5.358,6.302,13.9
750,1.138,34.666,39.706,43.804,34.508,5.317,6.262,14.146
751,1.155,34.86,39.71,43.794,34.504,5.399,6.343,14.763
752,1.171,34.87,39.726,43.784,34.504,5.358,6.302,15.543
753,1.178,34.501,39.757,43.814,34.511,5.44,6.262,16.364
754,1.178,34.715,39.71,43.775,34.508,5.317,6.22,16.98
755,1.198,34.899,39.781,43.804,34.515,5.317,6.262,17.473
756,1.188,34.676,39.71,43.814,34.522,5.563,6.426,18.007
757,1.194,34.618,39.678,43.755,34.501,5.317,6.22,18.253
758,1.221,34.87,39.777,43.784,34.508,5.44,6.262,18.294
759,1.214,34.986,39.741,43.775,34.508,5.358,6.22,18.459
760,1.211,34.647,39.667,43.794,34.511,5.358,6.22,18.417
761,1.214,34.734,39.714,43.794,34.504,5.317,6.179,18.212
762,1.207,34.957,39.726,43.794,34.508,5.399,6.262,18.253
763,1.207,35.083,39.769,43.765,34.515,5.358,6.22,18.048
764,1.221,34.715,39.73,43.775,34.508,5.317,6.015,17.637
765,1.217,34.899,39.785,43.814,34.525,5.522,6.22,17.555
766,1.201,35.073,39.69,43.775,34.511,5.358,6.097,17.185
767,1.204,35.238,39.714,43.775,34.511,5.399,6.138,17.021
768,1.214,34.734,39.761,43.765,34.501,5.399,6.056,16.693
769,1.211,34.957,39.749,43.775,34.515,5.399,6.179,16.446
770,1.217,35.141,39.682,43.775,34.501,5.358,6.097,16.077
771,1.234,35.296,39.73,43.784,34.511,5.522,6.179,15.83
772,1.234,34.773,39.722,43.775,34.511,5.522,6.179,15.748
773,1.247,35.054,39.749,43.775,34.497,5.358,6.056,15.255
774,1.25,35.267,39.702,43.794,34.518,5.481,6.138,15.091
775,1.25,35.334,39.785,43.775,34.511,5.399,6.138,14.803
776,1.253,35.112,39.706,43.765,34.511,5.44,6.179,14.639
777,1.263,35.354,39.722,43.746,34.501,5.399,6.056,14.434
778,1.27,35.548,39.785,43.755,34.511,5.481,6.138,14.311
779,1.27,35.606,39.682,43.736,34.511,5.399,6.056,14.064
780,1.276,35.315,39.73,43.755,34.515,5.481,6.056,13.982
781,1.267,35.577,39.694,43.784,34.515,5.522,6.22,14.023
782,1.27,35.722,39.757,43.736,34.501,5.317,6.056,13.695
783,1.276,35.838,39.714,43.765,34.518,5.399,6.097,13.613
784,1.257,35.654,39.745,43.746,34.497,5.358,6.097,13.448
785,1.26,35.906,39.801,43.736,34.511,5.399,6.179,13.407
786,1.26,36.051,39.659,43.746,34.501,5.358,6.056,13.079
787,1.276,36.158,39.71,43.755,34.511,5.44,6.138,13.12
788,1.27,35.761,39.745,43.707,34.504,5.358,6.056,12.996
789,1.273,36.003,39.769,43.736,34.504,5.399,6.015,12.709
790,1.273,36.196,39.71,43.784,34.522,5.522,6.179,12.709
791,1.263,36.196,39.659,43.736,34.504,5.358,6.138,12.627
792,1.263,36.012,39.726,43.746,34.508,5.399,6.097,12.545
793,1.263,36.226,39.706,43.736,34.508,5.358,6.056,12.422
794,1.276,36.419,39.706,43.755,34.508,5.44,6.097,12.422
795,1.27,36.41,39.785,43.717,34.501,5.317,5.974,12.463
796,1.28,36.206,39.627,43.746,34.515,5.44,6.138,12.627
797,1.276,36.439,39.714,43.736,34.518,5.44,6.138,13.038
798,1.276,36.574,39.718,43.688,34.497,5.276,5.974,13.284
799,1.293,36.574,39.745,43.746,34.508,5.358,6.056,13.736
800,1.26,36.39,39.651,43.736,34.515,5.399,5.974,14.064
801,1.234,36.632,39.69,43.736,34.515,5.399,6.097,14.475
802,1.207,36.768,39.71,43.717,34.504,5.235,5.974,14.639
803,1.204,36.623,39.757,43.736,34.518,5.44,6.056,14.968
804,1.178,36.623,39.682,43.717,34.501,5.317,6.056,15.091
805,1.178,36.865,39.757,43.726,34.504,5.235,6.015,15.009
806,1.184,37.02,39.67,43.755,34.518,5.358,6.056,15.173
807,1.145,36.584,39.714,43.726,34.508,5.317,6.056,15.091
808,1.142,36.7,39.757,43.736,34.508,5.358,6.179,15.091
809,1.145,36.923,39.765,43.726,34.508,5.276,6.056,14.968
810,1.135,37.059,39.682,43.736,34.515,5.399,6.179,15.05
811,1.125,36.778,39.682,43.707,34.504,5.317,6.097,15.091
812,1.115,36.981,39.73,43.717,34.508,5.317,6.097,15.009
813,1.119,37.194,39.757,43.736,34.525,5.44,6.22,15.255
814,1.092,37.272,39.702,43.707,34.508,5.276,6.22,15.338
815,1.099,36.778,39.749,43.697,34.508,5.317,6.262,15.42
816,1.089,37.01,39.655,43.717,34.504,5.317,6.22,15.378
817,1.069,37.214,39.734,43.707,34.515,5.358,6.302,15.502
818,1.056,37.31,39.753,43.697,34.501,5.317,6.22,15.338
819,1.04,36.904,39.722,43.707,34.511,5.44,6.262,15.338
820,1.017,37.136,39.678,43.736,34.515,5.399,6.467,15.502
821,1.0,37.33,39.667,43.688,34.504,5.235,6.262,15.338
822,1.017,37.465,39.722,43.717,34.515,5.358,6.262,15.502
823,0.981,36.952,39.749,43.697,34.508,5.358,6.179,15.297
824,0.971,37.204,39.706,43.717,34.511,5.399,6.302,15.297
825,0.945,37.368,39.761,43.688,34.504,5.317,6.22,15.173
826,0.938,37.465,39.631,43.717,34.518,5.44,6.343,15.255
827,0.915,37.049,39.686,43.717,34.508,5.317,6.302,15.173
828,0.908,37.31,39.702,43.697,34.508,5.276,6.22,14.845
829,0.908,37.514,39.73,43.736,34.515,5.399,6.302,14.845
830,0.885,37.533,39.667,43.707,34.504,5.358,6.343,14.598
831,0.885,37.078,39.655,43.697,34.508,5.399,6.343,14.434
832,0.879,37.33,39.71,43.707,34.504,5.317,6.302,14.228
833,0.879,37.504,39.726,43.707,34.508,5.358,6.343,14.188
834,0.862,37.533,39.71,43.697,34.497,5.317,6.302,14.023
835,0.866,37.155,39.769,43.717,34.508,5.358,6.302,13.9
836,0.856,37.378,39.635,43.736,34.518,5.44,6.467,13.941
837,0.859,37.523,39.674,43.678,34.494,5.317,6.302,13.613
838,0.859,37.582,39.757,43.707,34.504,5.317,6.302,13.736
839,0.839,37.194,39.702,43.678,34.504,5.317,6.343,13.654
840,0.833,37.427,39.611,43.717,34.511,5.358,6.343,13.859
841,0.826,37.591,39.635,43.717,34.511,5.235,6.302,13.859
842,0.826,37.553,39.73,43.717,34.515,5.317,6.426,14.105
843,0.8,37.078,39.73,43.668,34.515,5.276,6.343,14.516
844,0.793,37.339,39.698,43.688,34.504,5.153,6.179,14.845
845,0.803,37.533,39.753,43.726,34.515,5.276,6.302,15.666
846,0.761,37.388,39.702,43.697,34.508,5.317,6.302,16.241
847,0.767,37.291,39.682,43.707,34.518,5.276,6.385,16.816
848,0.774,37.523,39.73,43.697,34.508,5.317,6.262,17.185
849,0.764,37.659,39.722,43.707,34.511,5.317,6.343,17.72
850,0.77,37.204,39.635,43.668,34.504,5.194,6.22,17.884
851,0.767,37.214,39.647,43.707,34.511,5.235,6.262,17.966
852,0.764,37.436,39.663,43.736,34.522,5.44,6.385,18.171
853,0.754,37.533,39.702,43.659,34.501,5.235,6.22,18.048
854,0.77,37.136,39.663,43.688,34.508,5.235,6.22,18.007
855,0.764,37.301,39.741,43.697,34.504,5.194,6.22,17.802
856,0.761,37.485,39.627,43.717,34.508,5.276,6.22,17.72
857,0.751,37.611,39.67,43.688,34.508,5.194,6.138,17.309
858,0.754,36.942,39.749,43.688,34.511,5.276,6.262,17.227
859,0.744,37.107,39.718,43.697,34.515,5.317,6.302,17.062
860,0.731,37.33,39.631,43.678,34.497,5.194,6.138,16.652
861,0.747,37.494,39.698,43.697,34.508,5.276,6.179,16.405
862,0.728,37.0,39.667,43.688,34.508,5.276,6.179,16.118
863,0.728,37.243,39.71,43.678,34.511,5.235,6.22,15.912
864,0.715,37.417,39.667,43.678,34.504,5.235,6.138,15.502
865,0.718,37.572,39.726,43.697,34.508,5.317,6.179,15.42
866,0.701,36.855,39.655,43.668,34.504,5.194,6.138,15.173
867,0.711,37.117,39.674,43.697,34.508,5.235,6.097,14.763
868,0.718,37.33,39.745,43.717,34.518,5.317,6.179,14.639
869,0.695,37.368,39.682,43.697,34.504,5.235,6.138,14.352
870,0.705,36.874,39.655,43.697,34.511,5.235,6.179,14.146
871,0.705,37.126,39.682,43.775,34.497,5.235,6.138,13.941
872,0.711,37.31,39.667,43.668,34.508,5.276,6.179,13.859
873,0.715,37.388,39.718,43.668,34.494,5.194,6.138,13.613
874,0.721,36.797,39.674,43.707,34.515,5.194,6.22,13.407
875,0.724,37.01,39.726,43.688,34.515,5.235,6.302,13.49
876,0.728,37.184,39.643,43.668,34.504,4.988,6.097,13.12
877,0.747,37.301,39.674,43.688,34.511,5.194,6.22,12.956
878,0.721,36.768,39.745,43.668,34.508,5.194,6.179,12.832
879,0.721,37.029,39.698,43.678,34.504,5.194,6.179,12.791
880,0.701,37.184,39.623,43.659,34.504,5.194,6.097,12.545
881,0.698,37.243,39.682,43.678,34.511,5.276,6.22,12.586
882,0.685,36.971,39.667,43.678,34.501,5.194,6.262,12.504
883,0.688,37.214,39.71,43.668,34.501,5.07,6.097,12.381
884,0.685,37.427,39.682,43.707,34.515,5.317,6.262,12.339
885,0.675,37.407,39.722,43.659,34.508,5.194,6.179,12.257
886,0.701,36.545,39.651,43.668,34.504,5.235,6.179,12.216
887,0.692,36.797,39.647,43.688,34.501,5.194,6.22,12.093
888,0.688,36.942,39.702,43.678,34.504,5.235,6.179,12.011
889,0.688,37.165,39.678,43.639,34.497,5.07,6.097,11.888
890,0.701,36.768,39.651,43.678,34.508,5.194,6.22,11.764
891,0.705,36.991,39.69,43.697,34.515,5.276,6.343,11.723
892,0.718,37.136,39.659,43.639,34.487,5.03,6.097,11.477
893,0.721,36.826,39.714,43.678,34.511,5.153,6.179,11.559
894,0.698,36.574,39.659,43.659,34.508,5.235,6.22,11.477
895,0.711,36.816,39.706,43.668,34.504,5.153,6.22,11.477
896,0.715,36.962,39.631,43.688,34.508,5.153,6.138,11.395
897,0.724,36.526,39.627,43.688,34.508,5.194,6.22,11.683
898,0.715,36.555,39.726,43.659,34.504,5.194,6.179,12.257
899,0.718,36.778,39.706,43.668,34.504,5.03,6.056,12.996
900,0.724,36.933,39.576,43.726,34.515,5.276,6.262,14.064
901,0.711,36.351,39.674,43.659,34.508,5.112,6.179,15.009
902,0.708,36.516,39.651,43.688,34.511,5.194,6.22,15.912
903,0.698,36.72,39.706,43.668,34.508,5.112,6.097,16.57
904,0.695,36.874,39.706,43.678,34.515,5.153,6.179,17.227
905,0.685,36.245,39.706,43.649,34.504,5.112,6.056,17.514
906,0.708,36.468,39.647,43.678,34.511,5.153,6.097,17.842
907,0.688,36.661,39.651,43.688,34.515,5.317,6.262,18.253
908,0.695,36.768,39.694,43.639,34.501,5.153,6.138,18.171
909,0.708,36.274,39.69,43.678,34.508,5.276,6.097,18.171
910,0.711,36.497,39.615,43.688,34.497,5.194,6.056,18.048
911,0.715,36.729,39.659,43.688,34.501,5.235,6.097,17.966
912,0.715,36.797,39.655,43.649,34.497,5.153,6.097,17.76
913,0.728,36.235,39.71,43.678,34.511,5.317,6.097,17.637
914,0.731,36.468,39.643,43.668,34.511,5.317,6.179,17.514
915,0.744,36.652,39.698,43.639,34.497,5.07,5.974,17.145
916,0.747,36.787,39.659,43.678,34.508,5.194,6.097,16.939
917,0.738,36.061,39.623,43.649,34.508,5.194,6.097,16.652
918,0.738,36.322,39.734,43.659,34.501,5.276,6.056,16.487
919,0.741,36.487,39.651,43.659,34.504,5.276,5.933,16.118
920,0.734,36.594,39.619,43.668,34.515,5.276,6.097,15.995
921,0.724,36.148,39.651,43.639,34.504,5.235,6.056,15.995
922,0.728,36.439,39.659,43.639,34.497,5.194,5.974,15.912
923,0.731,36.613,39.722,43.678,34.518,5.358,6.056,16.2
924,0.711,36.642,39.67,43.639,34.501,5.317,6.056,16.364
925,0.721,36.119,39.69,43.649,34.515,5.317,6.097,16.487
926,0.721,36.361,39.651,43.659,34.511,5.235,6.015,16.57
927,0.721,36.545,39.647,43.668,34.508,5.317,6.056,16.816
928,0.728,36.594,39.702,43.649,34.504,5.235,5.974,16.775
929,0.728,36.08,39.674,43.668,34.515,5.317,6.015,16.816
930,0.724,36.303,39.603,43.659,34.515,5.358,6.138,16.939
931,0.728,36.497,39.615,43.63,34.497,5.112,5.974,16.816
932,0.734,36.565,39.651,43.668,34.508,5.276,6.015,16.734
933,0.744,36.109,39.698,43.659,34.511,5.235,5.974,16.693
934,0.744,36.361,39.643,43.649,34.504,5.317,6.056,16.734
935,0.744,36.526,39.73,43.62,34.504,5.235,6.056,16.487
936,0.741,36.526,39.631,43.678,34.508,5.317,6.097,16.57
937,0.761,36.08,39.647,43.639,34.504,5.276,6.097,16.61
938,0.777,36.332,39.67,43.639,34.501,5.194,5.933,16.528
939,0.774,36.477,39.686,43.678,34.515,5.317,6.056,16.734
940,0.738,36.196,39.651,43.717,34.504,5.153,6.097,16.775
941,0.741,36.129,39.619,43.639,34.511,5.235,6.056,16.857
942,0.751,36.361,39.67,43.639,34.501,5.317,6.056,16.98
943,0.747,36.487,39.631,43.649,34.511,5.276,6.138,17.104
944,0.724,36.022,39.659,43.601,34.497,5.194,6.056,17.185
945,0.711,36.119,39.722,43.639,34.511,5.235,6.138,17.35
946,0.695,36.322,39.599,43.639,34.508,5.276,6.179,17.555
947,0.705,36.477,39.631,43.63,34.497,5.112,5.974,17.432
948,0.711,35.809,39.682,43.649,34.508,5.194,6.097,17.514
949,0.688,35.916,39.67,43.639,34.504,5.153,6.056,17.555
950,0.715,36.167,39.592,43.639,34.504,5.276,6.056,17.514
951,0.728,36.284,39.607,43.62,34.504,5.194,6.015,17.35
952,0.728,35.983,39.67,43.649,34.511,5.235,6.097,17.309
953,0.741,36.167,39.639,43.62,34.497,5.153,6.097,17.104
954,0.741,36.419,39.647,43.639,34.508,5.153,6.138,16.857
955,0.734,36.516,39.718,43.678,34.518,5.317,6.138,16.775
956,0.731,35.751,39.568,43.61,34.504,5.153,6.056,16.528
957,0.747,36.012,39.631,43.62,34.508,5.194,6.097,16.364
958,0.738,36.187,39.73,43.63,34.501,5.235,6.015,15.995
959,0.741,36.303,39.674,43.63,34.511,5.194,6.056,15.83
960,0.728,35.838,39.627,43.639,34.501,5.153,6.015,15.461
961,0.724,36.109,39.596,43.649,34.508,5.276,6.138,15.378
962,0.715,36.284,39.659,43.61,34.504,5.235,6.138,15.338
963,0.708,36.381,39.682,43.601,34.497,5.112,5.933,14.927
964,0.718,35.857,39.635,43.63,34.508,5.153,6.138,14.927
965,0.705,36.08,39.694,43.61,34.508,5.194,6.056,14.722
966,0.718,36.245,39.564,43.63,34.508,5.153,6.015,14.557
967,0.715,36.322,39.603,43.62,34.501,5.153,5.974,14.352
968,0.715,35.877,39.686,43.62,34.508,5.276,6.097,14.188
969,0.705,36.1,39.651,43.61,34.511,5.194,6.015,14.064
970,0.715,36.322,39.58,43.62,34.504,5.235,5.974,13.736
971,0.711,36.381,39.615,43.649,34.518,5.358,6.138,13.777
972,0.708,35.799,39.647,43.61,34.508,5.194,6.097,13.613
973,0.724,36.08,39.686,43.63,34.501,5.194,6.015,13.448
974,0.724,36.245,39.623,43.601,34.511,5.235,6.015,13.325
975,0.731,36.293,39.698,43.62,34.504,5.235,6.097,13.325
976,0.728,35.654,39.592,43.62,34.497,5.07,6.015,13.12
977,0.744,35.925,39.631,43.63,34.504,5.194,6.015,13.038
978,0.731,36.08,39.722,43.63,34.511,5.235,6.179,13.079
979,0.738,36.1,39.611,43.591,34.483,5.03,5.892,12.832
980,0.741,35.78,39.639,43.717,34.508,5.153,6.056,12.832
981,0.715,35.983,39.615,43.62,34.504,5.235,6.015,12.832
982,0.718,36.148,39.667,43.63,34.501,5.194,6.056,12.75
983,0.711,36.061,39.663,43.62,34.501,5.112,5.974,12.586
984,0.708,35.799,39.635,43.63,34.504,5.194,6.056,12.586
985,0.698,36.012,39.674,43.581,34.508,5.07,6.015,12.545
986,0.701,36.206,39.584,43.62,34.504,5.194,6.015,12.381
987,0.695,35.799,39.631,43.649,34.518,5.317,6.097,12.381
988,0.688,35.702,39.667,43.61,34.501,5.235,6.015,12.216
989,0.708,35.945,39.678,43.62,34.508,5.153,6.015,12.216
990,0.711,36.08,39.607,43.62,34.504,5.153,5.974,12.011
991,0.705,35.577,39.592,43.61,34.508,5.194,5.974,11.888
992,0.698,35.654,39.603,43.61,34.501,5.194,5.851,11.806
993,0.711,35.877,39.67,43.63,34.511,5.112,5.974,11.806
994,0.711,36.003,39.611,43.62,34.511,5.194,6.097,11.888
995,0.715,35.548,39.67,43.581,34.49,5.07,5.933,11.641
996,0.738,35.799,39.584,43.63,34.508,5.153,6.015,11.518
997,0.734,35.954,39.619,43.62,34.501,5.153,5.974,11.395
998,0.728,36.09,39.682,43.601,34.511,5.194,6.015,11.354
999,0.721,35.393,39.639,43.581,34.501,5.153,6.015,11.189
1000,0.711,35.644,39.556,43.63,34.515,5.194,6.056,11.231
1001,0.711,35.819,39.572,43.62,34.508,5.07,6.056,11.313
1002,0.711,35.974,39.635,43.601,34.511,5.07,5.974,11.231
1003,0.698,35.615,39.682,43.63,34.522,5.235,6.015,11.518
1004,0.682,35.819,39.603,43.581,34.504,5.153,6.056,11.723
1005,0.692,36.061,39.651,43.601,34.504,5.153,6.015,12.052
1006,0.688,36.129,39.596,43.601,34.504,5.07,5.974,12.422
1007,0.685,35.46,39.599,43.62,34.511,5.153,6.015,12.956
1008,0.692,35.683,39.663,43.591,34.497,5.07,5.933,13.366
1009,0.685,35.896,39.674,43.62,34.504,5.112,5.933,13.695
1010,0.695,35.974,39.584,43.62,34.515,5.235,6.179,14.105
1011,0.688,35.431,39.564,43.572,34.497,5.03,5.974,14.188
1012,0.711,35.722,39.623,43.61,34.501,5.07,6.015,14.434
1013,0.708,35.896,39.627,43.62,34.508,5.112,5.974,14.516
1014,0.695,36.003,39.678,43.62,34.504,5.153,6.015,14.639
1015,0.695,35.489,39.655,43.601,34.497,5.03,5.933,14.516
1016,0.711,35.741,39.611,43.61,34.511,5.112,6.015,14.598
1017,0.701,35.916,39.588,43.601,34.508,5.153,6.097,14.557
1018,0.708,35.983,39.67,43.601,34.497,4.906,5.892,14.311
1019,0.724,35.499,39.667,43.639,34.508,5.07,5.892,14.228
1020,0.688,35.693,39.446,43.62,34.504,5.112,5.933,14.188
1021,0.692,35.877,39.588,43.61,34.501,5.153,5.974,14.105
1022,0.682,35.925,39.584,43.62,34.504,5.112,5.892,13.982
1023,0.682,35.596,39.639,43.601,34.508,5.153,5.974,14.146
1024,0.669,35.819,39.619,43.591,34.501,5.03,5.933,14.352
1025,0.682,36.003,39.651,43.61,34.504,5.112,5.892,14.557
1026,0.672,35.954,39.607,43.639,34.518,5.317,6.056,15.255
1027,0.655,35.548,39.54,43.591,34.504,5.153,5.851,15.707
1028,0.675,35.799,39.643,43.61,34.504,5.153,5.892,16.241
1029,0.675,35.954,39.682,43.601,34.501,5.112,5.851,16.57
1030,0.682,35.964,39.556,43.62,34.501,5.194,5.892,17.268
1031,0.685,35.877,39.576,43.591,34.497,5.07,5.768,17.842
1032,0.688,36.109,39.572,43.63,34.511,5.153,5.892,18.541
1033,0.688,36.235,39.611,43.61,34.515,5.235,5.974,19.116
1034,0.705,35.557,39.631,43.581,34.497,5.03,5.727,19.403
1035,0.708,35.509,39.655,43.62,34.504,5.112,5.81,19.691
1036,0.688,35.702,39.596,43.61,34.508,5.112,5.81,19.855
1037,0.692,35.867,39.556,43.62,34.504,5.153,5.892,19.937
1038,0.685,35.548,39.639,43.581,34.497,5.153,5.81,19.773
1039,0.698,35.693,39.639,43.61,34.508,5.235,5.892,19.773
1040,0.685,35.887,39.469,43.62,34.501,5.194,5.851,19.567
1041,0.675,36.042,39.607,43.61,34.497,5.07,5.727,19.157
1042,0.675,35.402,39.631,43.639,34.515,5.276,5.892,19.116
1043,0.659,35.538,39.619,43.591,34.508,5.194,5.81,18.705
1044,0.662,35.79,39.619,43.61,34.501,5.153,5.851,18.417
1045,0.649,35.925,39.643,43.601,34.508,5.153,5.727,18.007
1046,0.649,35.538,39.572,43.601,34.508,5.194,5.81,17.72
1047,0.649,35.78,39.588,43.591,34.501,5.112,5.727,17.227
1048,0.659,35.983,39.682,43.62,34.511,5.194,5.81,17.062
1049,0.655,36.061,39.611,43.62,34.511,5.235,5.974,16.939
1050,0.672,35.499,39.532,43.572,34.494,5.07,5.727,16.57
1051,0.695,35.79,39.603,43.61,34.504,5.194,5.768,16.446
1052,0.675,35.954,39.584,43.591,34.508,5.194,5.81,16.159
1053,0.672,36.051,39.635,43.62,34.501,5.235,5.851,16.077
1054,0.685,35.538,39.599,43.601,34.497,5.153,5.768,15.748
1055,0.698,35.79,39.682,43.62,34.511,5.276,5.851,15.584
1056,0.675,35.983,39.548,43.649,34.501,5.194,5.892,15.502
1057,0.688,36.1,39.596,43.572,34.497,5.153,5.687,15.05
1058,0.685,35.586,39.639,43.639,34.522,5.276,5.851,15.091
1059,0.662,35.79,39.572,43.591,34.504,5.194,5.768,14.927
1060,0.662,36.012,39.596,43.61,34.504,5.235,5.851,14.886
1061,0.649,36.071,39.568,43.62,34.501,5.194,5.81,14.763
1062,0.655,35.528,39.635,43.601,34.504,5.276,5.933,14.722
1063,0.652,35.761,39.584,43.601,34.494,5.194,5.768,14.557
1064,0.662,35.964,39.623,43.62,34.508,5.276,5.851,14.434
1065,0.655,36.012,39.619,43.62,34.508,5.358,5.974,14.598
1066,0.662,35.683,39.54,43.581,34.49,5.194,5.768,14.311
1067,0.669,35.954,39.588,43.62,34.508,5.317,5.81,14.311
1068,0.649,36.09,39.611,43.601,34.504,5.194,5.81,14.27
1069,0.646,36.138,39.607,43.63,34.511,5.276,5.851,14.393
1070,0.646,35.712,39.529,43.601,34.501,5.194,5.768,14.311
1071,0.669,35.954,39.572,43.63,34.504,5.235,5.851,14.516
1072,0.655,36.109,39.596,43.601,34.497,5.194,5.892,14.516
1073,0.662,36.332,39.596,43.62,34.508,5.153,5.768,14.393
1074,0.675,35.644,39.635,43.639,34.518,5.358,5.851,14.763
1075,0.659,35.828,39.651,43.601,34.501,5.194,5.81,15.091
1076,0.675,36.012,39.477,43.639,34.501,5.276,5.81,15.707
1077,0.678,35.857,39.58,43.601,34.501,5.235,5.81,16.2
1078,0.669,35.751,39.596,43.601,34.504,5.276,5.933,16.775
1079,0.659,35.964,39.607,43.581,34.501,5.194,5.727,17.062
1080,0.662,36.167,39.603,43.668,34.504,5.317,5.81,17.35
1081,0.655,35.732,39.556,43.601,34.511,5.317,5.933,17.678
1082,0.665,35.741,39.592,43.572,34.497,5.112,5.687,17.637
1083,0.672,36.022,39.599,43.639,34.511,5.235,5.851,17.802
1084,0.636,36.119,39.584,43.62,34.511,5.235,5.851,17.72
1085,0.649,35.78,39.659,43.601,34.508,5.317,5.851,17.76
1086,0.646,35.925,39.521,43.62,34.504,5.235,5.768,17.555
1087,0.646,36.167,39.576,43.61,34.508,5.317,5.892,17.473
1088,0.636,36.264,39.647,43.591,34.497,5.235,5.81,17.185
1089,0.646,35.567,39.572,43.61,34.504,5.235,5.81,16.898
1090,0.632,35.78,39.584,43.659,34.515,5.317,6.015,16.857
1091,0.642,35.954,39.525,43.591,34.497,5.235,5.81,16.528
1092,0.659,36.119,39.631,43.61,34.504,5.317,5.768,16.323
1093,0.665,35.819,39.603,43.601,34.501,5.235,5.768,16.159
1094,0.665,36.061,39.58,43.61,34.504,5.317,5.851,16.118
1095,0.659,36.235,39.639,43.581,34.501,5.235,5.81,15.953
1096,0.662,36.361,39.525,43.639,34.511,5.194,5.892,15.995
1097,0.649,35.673,39.56,43.591,34.508,5.317,5.851,16.035
1098,0.649,35.925,39.643,43.581,34.501,5.112,5.687,15.666
1099,0.655,36.167,39.584,43.63,34.522,5.317,5.81,15.707
1100,0.632,36.206,39.564,43.63,34.504,5.235,5.768,15.584
1101,0.639,35.887,39.525,43.601,34.515,5.235,5.81,15.666
1102,0.649,36.129,39.588,43.601,34.508,5.194,5.768,15.502
1103,0.642,36.332,39.619,43.61,34.504,5.358,5.768,15.707
1104,0.646,36.4,39.568,43.581,34.49,5.153,5.768,15.748
1105,0.652,35.741,39.619,43.61,34.508,5.194,5.768,15.953
1106,0.649,35.983,39.521,43.62,34.515,5.317,5.892,16.652
1107,0.626,36.129,39.556,43.581,34.497,5.153,5.768,17.227
1108,0.642,36.226,39.588,43.62,34.508,5.194,5.81,17.802
1109,0.632,35.838,39.596,43.601,34.501,5.235,5.81,18.212
1110,0.649,36.09,39.497,43.62,34.504,5.235,5.81,18.664
1111,0.646,36.245,39.513,43.601,34.508,5.07,5.727,18.705
1112,0.652,36.322,39.568,43.61,34.504,5.153,5.892,18.869
1113,0.652,35.799,39.536,43.601,34.515,5.317,5.933,19.116
1114,0.659,36.042,39.572,43.581,34.49,5.07,5.768,18.91
1115,0.678,36.245,39.643,43.62,34.504,5.153,5.81,18.828
1116,0.659,36.255,39.505,43.601,34.504,5.153,5.81,18.705
1117,0.652,35.906,39.556,43.601,34.508,5.194,5.851,18.541
1118,0.642,36.119,39.588,43.581,34.501,5.112,5.768,18.253
1119,0.649,36.264,39.615,43.62,34.504,5.235,5.974,18.13
1120,0.639,36.361,39.596,43.659,34.504,5.153,5.81,17.802
1121,0.652,35.877,39.521,43.62,34.508,5.153,5.768,17.35
1122,0.639,36.1,39.619,43.639,34.518,5.317,6.015,17.268
1123,0.616,36.196,39.532,43.572,34.501,5.153,5.892,16.898
1124,0.636,36.003,39.564,43.601,34.508,5.153,5.851,16.61
1125,0.636,35.935,39.607,43.601,34.504,5.194,5.768,16.241
1126,0.655,36.138,39.513,43.61,34.508,5.194,5.851,15.995
1127,0.639,36.293,39.564,43.581,34.504,5.07,5.768,15.707
1128,0.649,35.799,39.58,43.62,34.504,5.235,5.851,15.584
1129,0.639,35.848,39.619,43.601,34.508,5.276,5.933,15.666
1130,0.646,36.09,39.529,43.581,34.497,4.988,5.727,15.338
1131,0.662,36.264,39.529,43.62,34.504,5.153,5.892,15.338
1132,0.652,35.77,39.568,43.61,34.497,5.153,5.892,15.297
1133,0.659,35.925,39.532,43.601,34.508,5.153,5.851,15.42
1134,0.652,36.129,39.564,43.601,34.497,5.112,5.768,15.297
1135,0.662,36.284,39.58,43.601,34.508,5.153,5.892,15.378
1136,0.669,35.741,39.497,43.581,34.497,5.07,5.851,15.297
1137,0.675,35.983,39.58,43.601,34.508,5.112,5.851,15.132
1138,0.669,36.177,39.611,43.61,34.515,5.358,6.056,15.255
1139,0.665,36.264,39.592,43.562,34.497,5.194,5.851,15.009
1140,0.669,35.702,39.517,43.601,34.508,5.235,5.851,14.968
1141,0.649,35.906,39.572,43.601,34.501,5.194,5.892,14.763
1142,0.652,36.129,39.544,43.61,34.511,5.235,5.974,14.68
1143,0.646,36.216,39.576,43.572,34.497,5.112,5.851,14.516
1144,0.636,35.751,39.596,43.601,34.504,5.235,6.015,14.516
1145,0.636,35.983,39.556,43.581,34.504,5.235,6.056,14.434
1146,0.642,36.196,39.517,43.581,34.494,5.112,5.933,14.146
1147,0.636,36.322,39.532,43.62,34.511,5.235,5.974,14.023
1148,0.616,35.79,39.584,43.591,34.508,5.235,6.015,13.818
1149,0.636,36.042,39.58,43.591,34.504,5.235,6.097,13.695
1150,0.632,36.216,39.469,43.61,34.501,5.153,6.015,13.448
1151,0.652,36.322,39.548,43.62,34.504,5.235,6.138,13.366
1152,0.632,35.712,39.596,43.581,34.501,5.235,6.138,13.12
1153,0.659,35.993,39.564,43.601,34.504,5.235,5.974,12.956
1154,0.659,36.177,39.607,43.63,34.515,5.399,6.22,13.038
1155,0.649,36.216,39.544,43.581,34.504,5.235,6.138,13.038
1156,0.669,35.79,39.505,43.61,34.504,5.276,6.179,13.202
1157,0.669,36.032,39.493,43.581,34.508,5.153,6.097,13.448
1158,0.675,36.206,39.584,43.601,34.504,5.276,6.22,13.982
1159,0.665,36.235,39.58,43.552,34.497,5.276,6.097,14.516
1160,0.662,35.654,39.434,43.61,34.508,5.317,6.22,15.091
1161,0.652,35.877,39.517,43.601,34.518,5.358,6.302,15.707
1162,0.655,36.042,39.521,43.562,34.497,5.194,6.056,15.83
1163,0.665,36.109,39.596,43.61,34.511,5.194,6.22,16.159
1164,0.646,35.722,39.56,43.581,34.504,5.317,6.138,16.282
1165,0.649,35.954,39.564,43.591,34.504,5.317,6.138,16.446
1166,0.639,36.109,39.501,43.581,34.501,5.235,6.056,16.323
1167,0.639,36.042,39.493,43.581,34.508,5.399,6.179,16.446
1168,0.636,35.702,39.584,43.591,34.497,5.276,6.097,16.2
1169,0.639,35.935,39.596,43.61,34.508,5.317,6.097,15.995
1170,0.642,36.1,39.473,43.61,34.518,5.44,6.302,15.995
1171,0.639,35.77,39.505,43.581,34.504,5.276,6.138,15.666
1172,0.662,35.761,39.501,43.591,34.504,5.317,6.179,15.502
1173,0.662,35.964,39.544,43.591,34.504,5.276,6.097,15.255
1174,0.659,36.109,39.58,43.601,34.497,5.317,6.138,15.091
1175,0.659,35.625,39.556,43.572,34.497,5.235,6.097,14.845
1176,0.669,35.761,39.493,43.601,34.508,5.399,6.138,14.763
1177,0.672,35.964,39.513,43.601,34.511,5.44,6.179,14.68
1178,0.665,36.1,39.576,43.562,34.49,5.153,5.974,14.352
1179,0.678,35.509,39.568,43.601,34.508,5.317,6.097,14.27
1180,0.655,35.644,39.477,43.63,34.508,5.358,6.056,14.023
1181,0.662,35.848,39.54,43.581,34.508,5.317,6.138,13.941
1182,0.662,35.983,39.532,43.581,34.497,5.317,6.015,13.777
1183,0.652,35.528,39.548,43.591,34.504,5.317,6.138,13.818
1184,0.642,35.732,39.548,43.581,34.501,5.276,6.097,13.654
1185,0.646,35.974,39.548,43.601,34.501,5.276,6.015,13.366
1186,0.649,36.09,39.525,43.62,34.515,5.481,6.138,13.407
1187,0.613,35.451,39.489,43.581,34.497,5.276,6.056,13.243
1188,0.629,35.712,39.548,43.581,34.501,5.358,6.056,13.161
1189,0.623,35.916,39.572,43.581,34.501,5.317,6.056,12.956
1190,0.636,36.022,39.434,43.601,34.504,5.317,6.056,12.915
1191,0.629,35.48,39.505,43.572,34.504,5.235,5.892,12.627
1192,0.642,35.761,39.552,43.61,34.504,5.317,6.056,12.627
1193,0.642,35.935,39.548,43.591,34.508,5.399,6.138,12.873
1194,0.649,36.022,39.544,43.572,34.494,5.153,5.974,12.75
1195,0.655,35.518,39.568,43.591,34.504,5.317,5.974,12.956
1196,0.646,35.712,39.481,43.581,34.504,5.317,6.015,13.202
1197,0.652,35.916,39.505,43.581,34.497,5.276,6.056,13.531
1198,0.649,36.003,39.584,43.591,34.501,5.276,5.974,14.023
1199,0.659,35.431,39.556,43.572,34.508,5.399,6.097,14.803
1200,0.642,35.673,39.438,43.581,34.501,5.276,5.974,15.584
1201,0.649,35.877,39.505,43.581,34.497,5.276,5.892,16.118
1202,0.655,35.945,39.548,43.62,34.515,5.276,6.056,16.734
1203,0.629,35.518,39.544,43.581,34.504,5.317,6.056,17.145
1204,0.636,35.79,39.513,43.591,34.508,5.317,6.015,17.473
1205,0.642,35.945,39.564,43.581,34.501,5.235,5.974,17.637
1206,0.642,35.993,39.532,43.591,34.508,5.317,6.056,17.72
1207,0.646,35.509,39.477,43.581,34.501,5.235,6.015,17.72
1208,0.659,35.77,39.548,43.581,34.508,5.235,5.892,17.432
1209,0.659,35.945,39.556,43.63,34.518,5.44,6.056,17.432
1210,0.659,35.867,39.473,43.572,34.504,5.276,5.974,17.227
1211,0.675,35.499,39.513,43.591,34.508,5.276,6.015,17.062
1212,0.678,35.712,39.481,43.572,34.501,5.276,5.974,16.775
1213,0.678,35.896,39.548,43.601,34.508,5.317,6.015,16.652
1214,0.682,35.702,39.485,43.572,34.494,5.194,5.892,16.323
1215,0.695,35.509,39.544,43.591,34.511,5.317,6.056,16.2
1216,0.688,35.702,39.461,43.581,34.501,5.317,6.097,16.077
1217,0.701,35.887,39.465,43.552,34.487,5.153,5.81,15.748
1218,0.705,35.47,39.584,43.581,34.501,5.317,5.892,15.543
1219,0.698,35.431,39.552,43.572,34.504,5.276,5.933,15.338
1220,0.708,35.664,39.473,43.591,34.501,5.399,6.056,15.214
1221,0.711,35.799,39.521,43.562,34.504,5.276,5.933,14.968
1222,0.724,35.344,39.485,43.581,34.508,5.44,6.056,14.927
1223,0.728,35.451,39.532,43.552,34.501,5.317,5.974,14.886
1224,0.751,35.712,39.481,43.601,34.497,5.317,5.81,14.557
1225,0.754,35.848,39.548,43.61,34.522,5.522,6.015,14.598
1226,0.751,35.238,39.493,43.562,34.508,5.317,6.015,14.475
1227,0.767,35.48,39.485,43.581,34.504,5.317,5.974,14.393
1228,0.761,35.702,39.525,43.572,34.501,5.317,5.851,14.146
1229,0.751,35.819,39.552,43.581,34.504,5.399,6.015,14.023
1230,0.757,35.257,39.454,43.562,34.494,5.317,5.892,13.818
1231,0.777,35.509,39.501,43.591,34.511,5.44,5.933,13.736
1232,0.761,35.702,39.501,43.572,34.504,5.44,5.974,13.695
1233,0.774,35.809,39.529,43.562,34.49,5.235,5.81,13.366
1234,0.774,35.257,39.517,43.601,34.504,5.399,5.933,13.366
1235,0.764,35.441,39.56,43.581,34.501,5.399,5.892,13.448
1236,0.78,35.644,39.465,43.601,34.501,5.399,5.933,13.9
1237,0.787,35.761,39.477,43.572,34.494,5.317,5.81,14.27
1238,0.8,35.431,39.564,43.572,34.504,5.399,5.933,15.091
1239,0.79,35.654,39.481,43.562,34.501,5.399,5.851,15.748
1240,0.8,35.877,39.422,43.591,34.504,5.399,5.81,16.364
1241,0.807,35.954,39.489,43.601,34.522,5.563,6.015,17.145
1242,0.803,35.16,39.493,43.552,34.494,5.358,5.81,17.596
1243,0.82,35.47,39.532,43.581,34.508,5.44,5.81,17.966
1244,0.803,35.635,39.477,43.572,34.497,5.358,5.851,18.294
1245,0.81,35.732,39.517,43.581,34.508,5.399,5.892,18.541
1246,0.807,35.276,39.497,43.562,34.501,5.317,5.81,18.582
1247,0.803,35.548,39.469,43.591,34.504,5.44,5.892,18.746
1248,0.793,35.722,39.501,43.572,34.501,5.481,5.933,18.787
1249,0.787,35.78,39.517,43.562,34.49,5.317,5.727,18.459
1250,0.8,35.286,39.469,43.62,34.511,5.399,5.851,18.459
1251,0.757,35.48,39.465,43.63,34.501,5.399,5.851,18.171
1252,0.751,35.664,39.493,43.572,34.501,5.399,5.892,18.048
1253,0.747,35.722,39.548,43.572,34.494,5.358,5.851,17.802
1254,0.738,35.315,39.493,43.581,34.504,5.522,5.851,17.596
1255,0.741,35.518,39.556,43.552,34.49,5.358,5.81,17.309
1256,0.751,35.712,39.438,43.591,34.504,5.481,5.933,17.145
1257,0.761,35.916,39.489,43.572,34.511,5.563,6.015,17.145
1258,0.747,35.189,39.505,43.542,34.49,5.358,5.892,16.775
1259,0.751,35.46,39.509,43.581,34.497,5.481,5.974,16.693
1260,0.721,35.615,39.45,43.572,34.504,5.44,5.892,16.487
1261,0.718,35.402,39.422,43.562,34.501,5.44,5.933,16.446
1262,0.695,35.257,39.481,43.562,34.504,5.399,5.892,16.077
1263,0.692,35.489,39.509,43.572,34.501,5.44,5.974,16.118
1264,0.672,35.615,39.485,43.542,34.501,5.399,5.974,15.912
1265,0.678,35.238,39.544,43.562,34.501,5.358,5.81,15.584
1266,0.698,35.276,39.438,43.591,34.511,5.522,5.974,15.543
1267,0.678,35.451,39.481,43.581,34.504,5.44,5.974,15.378
1268,0.692,35.625,39.501,43.562,34.511,5.481,5.974,15.214
1269,0.675,35.257,39.525,43.562,34.501,5.44,5.892,15.009
1270,0.672,35.431,39.461,43.581,34.501,5.44,5.974,14.845
1271,0.678,35.625,39.43,43.562,34.497,5.317,5.851,14.639
1272,0.682,35.761,39.485,43.572,34.504,5.44,6.015,14.475
1273,0.675,35.063,39.469,43.572,34.508,5.522,6.015,14.393
1274,0.678,35.305,39.481,43.542,34.494,5.358,5.892,13.982
1275,0.685,35.557,39.56,43.591,34.511,5.399,5.974,13.982
1276,0.652,35.615,39.414,43.581,34.501,5.399,5.892,13.736
1277,0.659,35.083,39.465,43.562,34.501,5.44,5.974,13.531
1278,0.639,35.305,39.485,43.542,34.501,5.358,5.892,13.243
1279,0.642,35.528,39.517,43.581,34.504,5.481,6.015,13.243
1280,0.629,35.635,39.383,43.581,34.497,5.358,5.974,12.915
1281,0.626,35.083,39.461,43.581,34.504,5.481,5.851,12.75
1282,0.629,35.325,39.493,43.572,34.515,5.604,6.097,12.791
1283,0.619,35.509,39.461,43.542,34.49,5.399,5.933,12.504
1284,0.636,35.654,39.485,43.581,34.501,5.44,5.974,12.381
1285,0.623,35.092,39.497,43.562,34.504,5.44,5.892,12.339
1286,0.626,35.354,39.461,43.552,34.504,5.481,5.892,12.175
1287,0.619,35.548,39.473,43.572,34.497,5.358,5.851,12.052
1288,0.626,35.644,39.517,43.552,34.508,5.481,5.974,12.052
1289,0.616,35.015,39.505,43.562,34.497,5.44,5.933,12.134
1290,0.632,35.296,39.387,43.562,34.501,5.358,5.768,12.093
1291,0.629,35.509,39.442,43.601,34.518,5.563,5.974,12.381
1292,0.603,35.499,39.481,43.572,34.504,5.481,5.81,12.75
1293,0.623,35.112,39.485,43.562,34.497,5.481,5.892,13.12
1294,0.629,35.364,39.497,43.552,34.504,5.399,5.851,13.613
1295,0.629,35.557,39.509,43.552,34.504,5.522,5.892,14.146
1296,0.623,35.596,39.394,43.552,34.497,5.44,5.81,14.557
1297,0.626,35.063,39.477,43.581,34.508,5.481,5.851,15.091
1298,0.603,35.286,39.493,43.572,34.508,5.522,5.892,15.543
1299,0.632,35.499,39.493,43.552,34.487,5.317,5.768,15.707
1300,0.632,35.567,39.394,43.601,34.508,5.44,5.851,15.995
1301,0.603,35.083,39.461,43.572,34.501,5.399,5.81,16.241
1302,0.616,35.334,39.481,43.581,34.508,5.522,5.933,16.487
1303,0.593,35.489,39.477,43.562,34.497,5.44,5.851,16.446
1304,0.6,35.586,39.517,43.572,34.508,5.522,5.892,16.652
1305,0.583,35.112,39.465,43.542,34.501,5.44,5.851,16.652
1306,0.593,35.354,39.43,43.552,34.497,5.399,5.768,16.446
1307,0.593,35.557,39.477,43.601,34.508,5.522,5.933,16.528
1308,0.58,35.16,39.45,43.562,34.501,5.399,5.851,16.323
1309,0.59,35.054,39.532,43.562,34.508,5.44,5.892,16.2
1310,0.586,35.286,39.394,43.542,34.501,5.44,5.851,15.953
1311,0.603,35.46,39.434,43.562,34.504,5.522,5.974,15.748
1312,0.596,35.034,39.458,43.542,34.497,5.399,5.81,15.543
1313,0.619,35.15,39.446,43.572,34.504,5.481,5.974,15.338
1314,0.606,35.334,39.489,43.581,34.504,5.522,6.015,15.378
1315,0.619,35.48,39.473,43.552,34.49,5.358,5.851,15.009
1316,0.626,35.015,39.43,43.581,34.497,5.399,5.974,14.886
1317,0.616,35.131,39.414,43.552,34.504,5.399,5.892,14.68
1318,0.609,35.354,39.489,43.562,34.511,5.481,5.851,14.598
1319,0.609,35.48,39.497,43.562,34.501,5.358,5.851,14.393
1320,0.606,34.899,39.371,43.581,34.504,5.358,5.933,14.27
1321,0.596,35.083,39.434,43.542,34.494,5.358,5.851,14.105
1322,0.603,35.354,39.501,43.562,34.497,5.399,5.892,13.859
1323,0.59,35.441,39.477,43.601,34.515,5.563,6.056,13.859
1324,0.586,34.792,39.485,43.552,34.497,5.317,5.892,13.654
1325,0.593,35.083,39.481,43.552,34.501,5.358,5.974,13.448
1326,0.59,35.276,39.422,43.552,34.494,5.358,5.974,13.325
1327,0.59,35.373,39.41,43.581,34.515,5.399,6.015,13.243
1328,0.603,34.957,39.481,43.542,34.497,5.317,5.933,12.915
1329,0.6,35.238,39.493,43.581,34.508,5.399,6.015,12.996
1330,0.603,35.383,39.375,43.562,34.497,5.44,6.138,13.079
1331,0.619,35.518,39.45,43.562,34.497,5.358,5.892,13.079
1332,0.613,34.899,39.473,43.601,34.511,5.481,6.056,13.531
1333,0.603,35.073,39.469,43.562,34.504,5.358,5.974,13.9
1334,0.609,35.315,39.473,43.581,34.508,5.44,6.056,14.434
1335,0.626,35.393,39.485,43.552,34.501,5.358,6.015,14.886
1336,0.623,34.976,39.41,43.581,34.504,5.44,6.056,15.42
1337,0.616,35.228,39.387,43.552,34.504,5.358,5.974,15.748
1338,0.629,35.422,39.481,43.572,34.511,5.399,6.056,16.159
1339,0.626,35.489,39.469,43.572,34.518,5.522,6.179,16.734
1340,0.623,34.831,39.43,43.581,34.497,5.358,5.974,16.939
1341,0.626,35.141,39.414,43.581,34.497,5.44,6.015,17.227
1342,0.613,35.296,39.43,43.562,34.504,5.399,5.974,17.473
1343,0.616,35.334,39.461,43.562,34.501,5.481,6.056,17.76
1344,0.626,34.928,39.454,43.542,34.494,5.358,5.892,17.802
1345,0.616,35.189,39.477,43.562,34.508,5.44,6.097,17.966
1346,0.616,35.325,39.418,43.552,34.504,5.399,6.015,18.048
1347,0.623,35.412,39.383,43.562,34.497,5.317,5.851,17.925
1348,0.629,34.995,39.493,43.61,34.515,5.399,6.015,18.007
1349,0.6,35.179,39.485,43.552,34.504,5.358,5.933,17.884
1350,0.626,35.364,39.327,43.562,34.504,5.399,5.933,17.802
1351,0.623,35.276,39.418,43.562,34.497,5.317,5.933,17.596
1352,0.632,34.966,39.43,43.562,34.501,5.44,6.056,17.596
1353,0.626,35.17,39.45,43.542,34.494,5.399,5.933,17.268
1354,0.642,35.354,39.465,43.591,34.504,5.358,5.974,17.145
1355,0.642,35.015,39.485,43.562,34.515,5.481,6.097,17.145
1356,0.642,34.947,39.371,43.533,34.494,5.399,5.974,16.775
1357,0.655,35.199,39.398,43.562,34.497,5.399,5.974,16.528
1358,0.646,35.325,39.485,43.552,34.497,5.399,5.933,16.282
1359,0.655,35.354,39.469,43.552,34.504,5.399,5.974,16.118
1360,0.662,35.499,39.379,43.601,34.497,5.276,5.892,15.83
1361,0.662,35.741,39.406,43.572,34.504,5.399,5.974,15.789
1362,0.672,35.848,39.446,43.533,34.501,5.358,5.892,15.461
1363,0.692,34.598,39.446,43.552,34.504,5.317,5.81,15.091
1364,0.701,34.753,39.442,43.591,34.511,5.481,5.892,15.091
1365,0.708,34.937,39.434,43.562,34.501,5.399,5.851,14.803
1366,0.734,35.083,39.391,43.562,34.497,5.358,5.974,14.639
1367,0.741,34.879,39.438,43.552,34.501,5.317,5.81,14.516
1368,0.754,35.102,39.458,43.562,34.508,5.399,5.933,14.352
1369,0.764,35.286,39.473,43.533,34.501,5.358,5.768,14.023
1370,0.78,35.441,39.379,43.581,34.511,5.481,5.892,13.818
1371,0.777,34.666,39.387,43.542,34.508,5.481,6.015,13.736
1372,0.78,34.908,39.43,43.523,34.494,5.276,5.727,13.407
1373,0.82,35.15,39.438,43.562,34.497,5.399,5.851,13.243
1374,0.816,35.238,39.442,43.562,34.504,5.358,5.81,12.996
1375,0.833,34.744,39.442,43.552,34.501,5.358,5.892,12.832
1376,0.836,34.986,39.371,43.562,34.497,5.317,5.81,12.586
1377,0.869,35.199,39.418,43.572,34.504,5.399,5.81,12.422
1378,0.879,35.257,39.446,43.523,34.497,5.358,5.81,12.257
1379,0.925,34.676,39.461,43.542,34.501,5.358,5.727,12.052
1380,0.935,34.937,39.339,43.581,34.515,5.563,5.933,12.175
1381,0.958,35.102,39.414,43.533,34.497,5.399,5.81,12.134
1382,1.04,35.209,39.458,43.552,34.504,5.44,5.768,12.216
1383,1.066,34.85,39.438,43.542,34.501,5.44,5.768,12.381
1384,1.106,35.121,39.446,43.572,34.501,5.522,5.851,12.873
1385,1.119,35.286,39.402,43.542,34.497,5.399,5.768,13.202
1386,1.145,35.344,39.402,43.562,34.501,5.481,5.81,13.859
1387,1.171,34.744,39.41,43.542,34.508,5.522,5.851,14.311
1388,1.234,35.005,39.418,43.533,34.487,5.399,5.687,14.598
1389,1.303,35.218,39.489,43.562,34.504,5.44,5.851,15.009
1390,1.362,35.238,39.402,43.562,34.501,5.44,5.687,15.378
1391,1.441,34.889,39.383,43.562,34.504,5.44,5.851,15.625
1392,1.503,35.112,39.414,43.542,34.497,5.399,5.768,15.789
1393,1.559,35.305,39.43,43.552,34.504,5.522,5.81,15.995
1394,1.556,35.286,39.418,43.533,34.501,5.399,5.727,15.912
1395,1.552,34.811,39.442,43.581,34.504,5.481,5.727,15.912
1396,1.51,35.054,39.391,43.572,34.518,5.604,5.81,15.995
1397,1.467,35.189,39.398,43.523,34.501,5.44,5.687,15.83
1398,1.431,35.024,39.426,43.542,34.504,5.481,5.727,15.748
1399,1.405,34.792,39.461,43.542,34.497,5.481,5.687,15.584
1400,1.349,35.024,39.367,43.562,34.504,5.481,5.81,15.625
1401,1.319,35.179,39.391,43.542,34.494,5.399,5.645,15.543
1402,1.276,34.87,39.43,43.552,34.508,5.522,5.687,15.543
1403,1.171,34.85,39.394,43.552,34.504,5.563,5.81,15.748
1404,1.092,35.083,39.43,43.513,34.49,5.399,5.727,15.666
1405,1.023,35.238,39.414,43.552,34.501,5.481,5.687,15.748
1406,0.948,34.811,39.383,43.533,34.504,5.399,5.687,15.871
1407,0.905,34.957,39.41,43.562,34.504,5.522,5.727,15.995
1408,0.905,35.16,39.387,43.533,34.497,5.399,5.645,15.953
1409,0.931,35.296,39.469,43.542,34.504,5.604,5.727,15.995
1410,0.918,34.695,39.371,43.542,34.501,5.604,5.727,16.077
1411,0.931,34.899,39.375,43.552,34.49,5.481,5.604,15.953
1412,0.938,35.17,39.41,43.562,34.508,5.563,5.687,16.159
1413,0.872,35.238,39.394,43.542,34.501,5.604,5.604,16.364
1414,0.833,34.666,39.414,43.552,34.497,5.522,5.645,16.57
1415,0.77,34.899,39.477,43.523,34.497,5.522,5.563,16.693
1416,0.688,35.121,39.351,43.552,34.501,5.645,5.645,16.857
1417,0.577,35.238,39.414,43.533,34.494,5.522,5.645,17.021
1418,0.508,34.753,39.41,43.533,34.501,5.522,5.645,17.062
1419,0.435,35.015,39.454,43.562,34.515,5.727,5.81,17.35
1420,0.383,35.17,39.327,43.523,34.494,5.563,5.604,17.309
1421,0.38,35.325,39.359,43.533,34.501,5.563,5.645,17.432
1422,0.37,34.598,39.406,43.542,34.501,5.563,5.604,17.268
1423,0.396,34.84,39.394,43.542,34.501,5.604,5.645,17.268
1424,0.412,35.034,39.406,43.513,34.49,5.563,5.522,17.104
1425,0.419,35.16,39.414,43.542,34.501,5.687,5.645,17.021
1426,0.449,34.705,39.371,43.533,34.504,5.645,5.687,16.98
1427,0.485,34.976,39.402,43.533,34.49,5.522,5.522,16.775
1428,0.557,35.199,39.406,43.562,34.504,5.563,5.687,16.693
1429,0.577,35.238,39.41,43.523,34.494,5.645,5.645,16.693
1430,0.629,34.647,39.339,43.533,34.501,5.563,5.687,16.693
1431,0.682,34.899,39.343,43.542,34.504,5.563,5.645,16.652
1432,0.721,35.092,39.418,43.542,34.501,5.645,5.687,16.652
1433,0.747,35.141,39.351,43.523,34.497,5.604,5.645,16.61
1434,0.777,34.763,39.406,43.533,34.497,5.645,5.645,16.405
1435,0.803,35.005,39.481,43.552,34.518,5.727,5.768,16.57
1436,0.797,35.131,39.308,43.513,34.497,5.645,5.727,16.364
1437,0.826,35.209,39.394,43.513,34.501,5.604,5.687,16.323
1438,0.816,34.686,39.414,43.513,34.497,5.563,5.604,16.118
1439,0.823,34.908,39.418,43.533,34.501,5.604,5.81,16.077
1440,0.826,35.083,39.394,43.601,34.497,5.522,5.604,15.871
1441,0.813,35.257,39.351,43.542,34.501,5.687,5.727,15.912
1442,0.82,34.715,39.418,43.513,34.497,5.687,5.851,16.035
1443,0.816,34.966,39.371,43.494,34.49,5.481,5.645,15.912
1444,0.816,35.16,39.391,43.523,34.508,5.604,5.81,16.077
1445,0.797,34.918,39.438,43.533,34.497,5.563,5.727,16.118
1446,0.807,34.734,39.3,43.523,34.508,5.604,5.768,16.159
1447,0.8,34.976,39.371,43.523,34.501,5.522,5.727,16.159
1448,0.807,35.131,39.458,43.523,34.504,5.604,5.81,16.159
1449,0.79,34.831,39.418,43.523,34.49,5.399,5.768,16.035
1450,0.81,34.918,39.339,43.533,34.501,5.522,5.727,15.83
1451,0.813,35.141,39.339,43.552,34.522,5.604,5.892,15.871
1452,0.8,35.238,39.359,43.494,34.497,5.563,5.851,15.748
1453,0.826,34.569,39.414,43.523,34.497,5.604,5.851,15.748
1454,0.826,34.715,39.359,43.513,34.501,5.522,5.851,15.83
1455,0.846,34.928,39.422,43.523,34.508,5.604,5.892,15.995
1456,0.836,35.044,39.312,43.523,34.497,5.481,5.768,15.953
1457,0.843,34.618,39.371,43.513,34.504,5.645,5.81,16.077
1458,0.83,34.792,39.418,43.513,34.508,5.645,5.974,16.652
1459,0.83,35.024,39.375,43.465,34.483,5.399,5.81,17.021
1460,0.833,35.17,39.343,43.523,34.501,5.481,5.81,17.637
1461,0.813,34.569,39.343,43.504,34.501,5.604,5.851,18.13
1462,0.81,34.811,39.398,43.533,34.501,5.563,5.892,18.582
1463,0.8,35.024,39.391,43.504,34.497,5.522,5.81,18.705
1464,0.826,35.16,39.367,43.523,34.504,5.687,5.851,19.034
1465,0.81,34.715,39.43,43.494,34.501,5.687,5.933,19.157
1466,0.816,34.986,39.28,43.504,34.49,5.563,5.687,18.952
1467,0.807,35.209,39.371,43.542,34.511,5.727,5.892,19.034
1468,0.8,35.267,39.41,43.513,34.501,5.645,5.851,18.91
1469,0.816,34.569,39.402,43.494,34.504,5.768,5.892,18.746
1470,0.823,34.802,39.308,43.513,34.497,5.645,5.851,18.582
1471,0.839,35.015,39.339,43.523,34.504,5.687,5.892,18.459
1472,0.83,35.092,39.371,43.494,34.497,5.645,5.768,18.171
1473,0.849,34.695,39.426,43.523,34.504,5.687,5.851,17.925
1474,0.836,34.928,39.375,43.523,34.504,5.768,5.933,17.842
1475,0.843,35.121,39.414,43.475,34.494,5.645,5.768,17.596
1476,0.856,35.238,39.312,43.533,34.504,5.727,5.892,17.473
1477,0.856,34.569,39.367,43.484,34.497,5.727,5.81,17.473
1478,0.859,34.802,39.43,43.504,34.501,5.768,5.892,17.637
1479,0.853,34.995,39.355,43.504,34.501,5.727,5.892,17.555
1480,0.853,35.054,39.363,43.523,34.508,5.851,5.892,17.802
1481,0.849,34.802,39.316,43.484,34.501,5.81,5.892,17.884
1482,0.843,35.063,39.391,43.494,34.494,5.768,5.687,17.76
1483,0.83,35.247,39.43,43.533,34.511,5.974,5.81,17.884
1484,0.823,35.247,39.343,43.494,34.501,5.892,5.851,17.842
1485,0.843,34.705,39.41,43.513,34.497,5.892,5.851,17.802
1486,0.846,34.947,39.335,43.484,34.49,5.851,5.768,17.637
1487,0.853,35.131,39.331,43.523,34.497,5.851,5.974,17.555
1488,0.843,35.238,39.414,43.484,34.49,5.727,5.727,17.309
1489,0.856,34.676,39.343,43.513,34.504,5.892,5.851,17.062
1490,0.856,34.928,39.331,43.523,34.511,6.015,5.974,16.898
1491,0.866,35.044,39.304,43.475,34.49,5.81,5.81,16.528
1492,0.892,34.821,39.343,43.504,34.501,5.851,5.81,16.282
1493,0.885,34.686,39.343,43.494,34.497,5.892,5.768,16.035
1494,0.895,34.908,39.355,43.504,34.497,5.851,5.892,15.666
1495,0.889,35.063,39.394,43.484,34.497,5.81,5.81,15.42
1496,0.892,34.695,39.292,43.513,34.501,5.851,5.851,15.255
1497,0.889,34.753,39.331,43.484,34.497,5.851,5.851,15.009
1498,0.899,35.024,39.394,43.494,34.494,5.727,5.727,14.516
1499,0.918,35.15,39.347,43.533,34.515,5.974,5.851,14.434
1500,0.869,34.521,39.316,43.494,34.497,5.851,5.727,14.146
1501,0.905,34.715,39.363,43.504,34.497,5.892,5.851,14.064
1502,0.885,34.928,39.355,43.494,34.504,5.81,5.727,13.859
1503,0.885,35.073,39.383,43.504,34.501,5.892,5.81,13.736
1504,0.885,34.54,39.347,43.475,34.487,5.768,5.645,13.49
1505,0.892,34.782,39.422,43.494,34.501,5.851,5.81,13.325
1506,0.885,34.995,39.347,43.513,34.508,6.015,5.974,13.366
1507,0.872,35.092,39.308,43.455,34.487,5.768,5.851,13.161
1508,0.899,34.569,39.406,43.494,34.501,5.768,5.768,13.038
1509,0.885,34.773,39.375,43.504,34.501,5.81,5.81,12.832
1510,0.892,34.995,39.316,43.513,34.501,5.81,5.851,12.873
1511,0.899,35.092,39.324,43.455,34.487,5.687,5.768,12.873
1512,0.908,34.492,39.355,43.504,34.504,5.81,5.892,13.161
1513,0.912,34.715,39.375,43.494,34.504,5.81,5.892,13.571
1514,0.918,34.947,39.32,43.484,34.487,5.645,5.727,13.613
1515,0.928,35.083,39.41,43.513,34.504,5.81,5.892,13.982
1516,0.925,34.511,39.316,43.484,34.501,5.727,5.81,14.146
1517,0.941,34.792,39.324,43.484,34.494,5.727,5.81,14.352
1518,0.938,34.966,39.391,43.494,34.497,5.687,5.81,14.352
1519,0.935,35.054,39.335,43.504,34.501,5.81,5.851,14.516
1520,0.928,34.53,39.241,43.484,34.497,5.727,5.768,14.516
1521,0.935,34.802,39.272,43.504,34.504,5.768,5.768,14.516
1522,0.922,34.995,39.375,43.504,34.508,5.851,5.974,14.639
1523,0.918,35.034,39.347,43.455,34.487,5.687,5.727,14.516
1524,0.938,34.56,39.324,43.484,34.504,5.727,5.81,14.434
1525,0.925,34.782,39.383,43.494,34.497,5.768,5.768,14.311
1526,0.928,34.957,39.256,43.484,34.497,5.687,5.851,14.27
1527,0.922,35.034,39.312,43.494,34.497,5.645,5.768,14.146
1528,0.931,34.598,39.379,43.494,34.497,5.727,5.933,14.023
1529,0.935,34.811,39.367,43.475,34.497,5.687,5.851,13.9
1530,0.951,35.024,39.264,43.484,34.497,5.687,5.727,13.571
1531,0.961,35.063,39.308,43.523,34.511,5.81,5.81,13.613
1532,0.954,34.395,39.335,43.475,34.497,5.687,5.851,13.407
1533,0.964,34.686,39.367,43.484,34.501,5.727,5.851,13.243
1534,0.968,34.85,39.324,43.494,34.497,5.687,5.768,13.079
1535,0.981,34.85,39.387,43.475,34.501,5.768,5.851,12.996
1536,0.977,34.598,39.304,43.484,34.501,5.687,5.851,12.75
1537,0.984,34.85,39.324,43.484,34.497,5.768,5.892,12.709
1538,0.984,34.976,39.398,43.465,34.494,5.768,5.933,12.586
1539,1.01,34.686,39.324,43.484,34.487,5.604,5.727,12.463
1540,1.0,34.676,39.343,43.533,34.511,5.768,5.974,12.873
1541,0.987,34.85,39.32,43.484,34.494,5.727,5.933,13.243
1542,1.0,35.005,39.367,43.484,34.494,5.768,5.892,13.818
1543,0.994,34.501,39.359,43.475,34.497,5.768,5.768,14.393
1544,0.984,34.598,39.316,43.484,34.501,5.727,5.974,15.461
1545,0.987,34.821,39.379,43.465,34.49,5.645,5.81,16.652
1546,0.984,34.976,39.363,43.504,34.497,5.81,5.933,17.966
1547,0.984,34.279,39.316,43.494,34.511,5.81,6.056,19.403
1548,0.997,34.453,39.391,43.465,34.487,5.604,5.851,20.224
1549,1.01,34.686,39.296,43.494,34.494,5.727,5.892,21.169
1550,1.007,34.802,39.339,43.504,34.49,5.727,5.851,21.703
1551,1.01,34.463,39.316,43.494,34.508,5.727,6.056,22.237
1552,1.023,34.686,39.351,43.475,34.497,5.687,5.851,22.319
1553,1.03,34.889,39.347,43.494,34.497,5.727,6.015,22.442
1554,1.023,34.995,39.3,43.484,34.494,5.687,5.974,22.442
1555,1.046,34.414,39.398,43.475,34.487,5.604,5.81,21.991
1556,1.033,34.676,39.28,43.542,34.508,5.727,6.015,21.991
1557,1.046,34.84,39.308,43.475,34.494,5.727,5.933,21.621
1558,1.053,34.976,39.391,43.465,34.497,5.727,5.974,21.169
1559,1.063,34.385,39.316,43.475,34.497,5.687,5.933,20.759
1560,1.069,34.656,39.331,43.552,34.497,5.687,5.974,20.553
1561,1.066,34.84,39.32,43.475,34.494,5.563,5.851,20.101
1562,1.076,34.947,39.379,43.484,34.497,5.687,5.933,19.937
1563,1.063,34.346,39.391,43.513,34.515,5.81,6.015,19.937
1564,1.073,34.589,39.304,43.446,34.49,5.727,5.933,19.609
1565,1.089,34.821,39.391,43.484,34.494,5.727,5.892,19.527
1566,1.076,34.879,39.241,43.465,34.494,5.645,5.974,19.28
1567,1.096,34.453,39.296,43.513,34.504,5.727,5.933,19.157
1568,1.096,34.686,39.379,43.465,34.487,5.645,5.81,18.91
1569,1.109,34.899,39.288,43.513,34.501,5.687,6.015,18.828
1570,1.115,34.937,39.288,43.484,34.497,5.727,5.933,18.787
1571,1.122,34.463,39.312,43.465,34.487,5.563,5.81,18.417
1572,1.132,34.744,39.343,43.513,34.511,5.727,5.933,18.253
1573,1.125,34.86,39.351,43.484,34.494,5.687,5.933,17.966
1574,1.129,34.928,39.312,43.494,34.494,5.645,5.974,17.802
1575,1.152,34.317,39.355,43.455,34.497,5.645,5.892,17.432
1576,1.148,34.56,39.276,43.494,34.504,5.727,5.974,17.227
1577,1.165,34.744,39.26,43.465,34.497,5.645,5.851,16.939
1578,1.168,34.773,39.383,43.504,34.501,5.687,5.892,16.652
1579,1.168,34.443,39.288,43.475,34.508,5.768,6.015,16.693
1580,1.161,34.676,39.292,43.475,34.483,5.604,5.892,16.405
1581,1.175,34.87,39.308,43.494,34.508,5.604,5.933,16.241
1582,1.171,34.773,39.312,43.475,34.494,5.645,5.851,15.953
1583,1.168,34.618,39.343,43.475,34.497,5.645,5.974,15.83
1584,1.178,34.85,39.276,43.475,34.487,5.563,5.892,15.502
1585,1.178,35.015,39.351,43.494,34.504,5.645,5.974,15.297
1586,1.178,34.627,39.221,43.475,34.497,5.727,5.892,15.173
1587,1.181,34.598,39.288,43.465,34.487,5.522,5.768,14.803
1588,1.201,34.87,39.371,43.504,34.504,5.687,5.892,14.722
1589,1.184,34.976,39.3,43.494,34.497,5.645,5.892,14.557
1590,1.198,34.521,39.186,43.494,34.501,5.645,5.892,14.475
1591,1.207,34.666,39.284,43.484,34.49,5.563,5.81,14.27
1592,1.211,34.889,39.296,43.484,34.497,5.604,5.851,14.27
1593,1.224,35.005,39.335,43.465,34.497,5.522,5.81,14.064
1594,1.237,34.715,39.292,43.504,34.494,5.563,5.81,13.859
1595,1.237,34.908,39.363,43.494,34.508,5.768,5.974,13.982
1596,1.23,35.102,39.272,43.455,34.487,5.522,5.851,13.654
1597,1.26,35.286,39.26,43.475,34.49,5.645,5.892,13.613
1598,1.257,34.724,39.347,43.465,34.497,5.645,5.851,13.571
1599,1.257,34.947,39.26,43.465,34.501,5.645,5.851,13.695
1600,1.25,35.16,39.304,43.572,34.497,5.522,5.851,13.777
1601,1.26,35.296,39.256,43.494,34.501,5.645,5.974,13.941
1602,1.26,35.083,39.304,43.484,34.501,5.645,5.974,14.146
1603,1.263,35.325,39.312,43.446,34.487,5.399,5.81,14.023
1604,1.273,35.586,39.284,43.494,34.497,5.563,5.933,14.105
1605,1.257,35.644,39.335,43.475,34.494,5.563,5.892,14.105
1606,1.26,35.238,39.233,43.475,34.497,5.604,5.851,14.188
1607,1.26,35.489,39.26,43.465,34.494,5.563,5.81,14.105
1608,1.28,35.702,39.371,43.494,34.501,5.563,5.974,14.146
1609,1.276,35.761,39.316,43.475,34.494,5.522,5.892,14.228
1610,1.286,35.489,39.288,43.484,34.49,5.481,5.727,14.023
1611,1.316,35.761,39.272,43.504,34.508,5.645,5.851,14.105
1612,1.29,35.906,39.304,43.484,34.494,5.563,5.892,14.105
1613,1.299,35.983,39.331,43.475,34.494,5.563,5.892,14.105
1614,1.313,35.722,39.28,43.465,34.501,5.522,5.81,13.982
1615,1.316,35.964,39.359,43.484,34.501,5.604,5.892,13.982
1616,1.316,36.129,39.205,43.465,34.49,5.44,5.851,13.777
1617,1.319,36.216,39.284,43.484,34.494,5.522,5.851,13.571
1618,1.309,35.974,39.339,43.484,34.504,5.687,6.056,13.613
1619,1.313,36.167,39.253,43.426,34.487,5.481,5.892,13.407
1620,1.309,36.371,39.256,43.504,34.497,5.522,5.892,13.325
1621,1.309,36.4,39.241,43.475,34.497,5.563,5.851,13.12
1622,1.303,36.235,39.312,43.475,34.497,5.522,5.933,12.996
1623,1.29,36.448,39.32,43.465,34.49,5.44,5.768,12.873
1624,1.29,36.623,39.268,43.475,34.504,5.481,5.974,12.832
1625,1.273,36.69,39.335,43.455,34.501,5.604,5.974,12.791
1626,1.273,36.381,39.241,43.446,34.483,5.399,5.81,12.545
1627,1.276,36.642,39.28,43.504,34.508,5.563,5.933,12.668
1628,1.26,36.749,39.351,43.465,34.501,5.522,5.974,12.627
1629,1.267,36.768,39.292,43.475,34.497,5.563,5.974,12.832
1630,1.263,36.749,39.237,43.465,34.497,5.522,5.892,13.079
1631,1.267,36.971,39.249,43.484,34.494,5.563,6.015,13.613
1632,1.253,37.097,39.276,43.455,34.49,5.522,5.933,14.434
1633,1.26,36.826,39.335,43.475,34.494,5.481,5.851,15.091
1634,1.26,36.865,39.296,43.494,34.504,5.687,6.056,15.995
1635,1.244,37.02,39.331,43.455,34.497,5.563,5.933,16.57
1636,1.24,37.184,39.3,43.504,34.501,5.604,6.056,17.062
1637,1.24,36.836,39.253,43.455,34.494,5.522,5.933,17.391
1638,1.24,37.0,39.335,43.475,34.501,5.563,5.974,17.76
1639,1.227,37.184,39.245,43.436,34.49,5.481,5.933,17.802
1640,1.217,37.33,39.264,43.484,34.504,5.604,5.933,17.884
1641,1.201,36.991,39.3,43.465,34.508,5.727,6.138,18.007
1642,1.184,37.175,39.272,43.446,34.48,5.522,5.933,17.842
1643,1.184,37.417,39.324,43.455,34.501,5.522,6.056,17.678
1644,1.155,37.543,39.256,43.475,34.497,5.481,5.974,17.514
1645,1.138,37.088,39.343,43.465,34.497,5.563,6.015,17.35
1646,1.112,37.301,39.225,43.465,34.487,5.481,5.933,17.021
1647,1.096,37.504,39.241,43.475,34.504,5.604,5.933,16.857
1648,1.083,37.601,39.312,43.446,34.497,5.481,5.892,16.652
1649,1.076,37.272,39.308,43.446,34.497,5.481,5.81,16.282
1650,1.063,37.533,39.189,43.523,34.515,5.645,5.974,16.241
1651,1.05,37.678,39.268,43.465,34.497,5.563,5.974,16.035
1652,1.056,37.785,39.276,43.446,34.497,5.522,5.933,15.871
1653,1.046,37.31,39.347,43.446,34.49,5.481,5.933,15.584
1654,1.037,37.553,39.28,43.475,34.497,5.563,5.892,15.584
1655,1.023,37.717,39.316,43.446,34.494,5.44,5.81,15.338
1656,1.017,37.824,39.256,43.475,34.504,5.563,5.974,15.214
1657,1.0,37.368,39.233,43.465,34.501,5.645,6.056,15.378
1658,0.984,37.572,39.32,43.426,34.49,5.399,5.851,15.378
1659,0.994,37.804,39.256,43.465,34.497,5.522,5.892,15.748
1660,0.958,37.882,39.253,43.475,34.494,5.481,5.892,16.077
1661,0.948,37.456,39.268,43.475,34.497,5.481,5.933,16.528
1662,0.931,37.678,39.292,43.446,34.497,5.44,5.81,16.61
1663,0.931,37.862,39.312,43.475,34.504,5.522,5.892,16.898
1664,0.912,37.882,39.28,43.436,34.487,5.44,5.892,17.062
1665,0.912,37.533,39.312,43.446,34.494,5.481,5.851,16.857
1666,0.895,37.775,39.241,43.484,34.504,5.563,5.892,17.021
1667,0.866,37.901,39.245,43.446,34.497,5.522,5.851,16.898
1668,0.872,37.93,39.32,43.465,34.501,5.522,5.851,16.816
1669,0.856,37.456,39.288,43.446,34.497,5.522,5.892,16.61
1670,0.853,37.698,39.182,43.465,34.497,5.563,5.933,16.487
1671,0.843,37.833,39.229,43.436,34.49,5.522,5.768,16.159
1672,0.849,38.027,39.241,43.455,34.504,5.522,5.892,15.995
1673,0.839,37.504,39.292,43.475,34.501,5.563,5.974,15.912
1674,0.836,37.727,39.241,43.426,34.487,5.358,5.768,15.584
1675,0.833,37.94,39.335,43.465,34.501,5.481,5.892,15.42
1676,0.816,37.688,39.229,43.465,34.501,5.481,5.892,15.255
1677,0.83,37.582,39.268,43.455,34.497,5.563,5.892,15.091
1678,0.816,37.795,39.331,43.446,34.494,5.481,5.81,14.886
1679,0.82,37.94,39.288,43.465,34.501,5.522,5.933,14.763
1680,0.79,37.523,39.182,43.436,34.49,5.44,5.851,14.598
1681,0.793,37.591,39.229,43.475,34.494,5.481,5.81,14.393
1682,0.78,37.785,39.288,43.484,34.508,5.645,6.056,14.393
1683,0.767,37.892,39.229,43.407,34.483,5.44,5.892,14.146
1684,0.777,37.359,39.272,43.446,34.494,5.604,5.81,13.982
1685,0.767,37.475,39.316,43.436,34.494,5.522,5.81,13.777
1686,0.767,37.678,39.182,43.465,34.497,5.645,5.892,13.695
1687,0.747,37.814,39.249,43.455,34.49,5.563,5.768,13.531
1688,0.744,37.272,39.331,43.455,34.497,5.604,5.81,13.448
1689,0.734,37.446,39.284,43.446,34.497,5.604,5.892,13.366
1690,0.757,37.678,39.209,43.436,34.483,5.522,5.81,12.996
1691,0.764,37.824,39.225,43.475,34.504,5.687,5.81,12.915
1692,0.741,37.233,39.268,43.455,34.497,5.645,5.81,12.791
1693,0.754,37.475,39.264,43.446,34.497,5.604,5.851,12.709
1694,0.754,37.678,39.26,43.436,34.487,5.687,5.81,12.463
1695,0.751,37.775,39.335,43.465,34.497,5.727,5.892,12.545
1696,0.757,37.31,39.213,43.436,34.49,5.687,5.81,12.298
1697,0.751,37.572,39.268,43.446,34.504,5.645,5.81,12.052
1698,0.734,37.766,39.296,43.465,34.511,5.851,5.933,12.134
1699,0.731,37.804,39.284,43.426,34.497,5.687,5.81,11.929
1700,0.721,37.146,39.256,43.465,34.497,5.727,5.81,11.847
1701,0.724,37.398,39.213,43.455,34.49,5.727,5.768,11.723
1702,0.731,37.591,39.28,43.455,34.501,5.768,5.851,11.764
1703,0.721,37.659,39.288,43.446,34.497,5.768,5.687,11.518
1704,0.724,37.126,39.253,43.465,34.501,5.81,5.81,11.559
1705,0.708,37.359,39.3,43.475,34.504,5.892,6.056,11.723
1706,0.705,37.523,39.158,43.426,34.483,5.645,5.81,11.683
1707,0.715,37.659,39.237,43.465,34.497,5.768,5.851,11.888
1708,0.695,37.146,39.324,43.446,34.497,5.851,5.851,12.011
1709,0.708,37.388,39.284,43.455,34.501,5.851,5.851,12.216
1710,0.698,37.572,39.209,43.436,34.49,5.81,5.768,12.175
1711,0.705,37.611,39.225,43.465,34.494,5.933,5.81,12.339
1712,0.711,37.01,39.276,43.455,34.497,5.974,5.974,12.504
1713,0.724,37.262,39.237,43.426,34.483,5.768,5.687,12.381
1714,0.731,37.475,39.272,43.475,34.497,5.974,5.81,12.381
1715,0.721,37.436,39.32,43.446,34.501,5.892,5.851,12.422
1716,0.741,36.933,39.308,43.523,34.497,5.974,5.851,12.381
1717,0.728,37.175,39.264,43.446,34.487,5.851,5.851,12.257
1718,0.728,37.339,39.296,43.436,34.504,5.892,5.851,12.339
1719,0.731,37.339,39.264,43.446,34.487,5.851,5.851,12.134
1720,0.721,37.078,39.272,43.455,34.49,5.974,5.81,11.929
1721,0.708,37.32,39.241,43.494,34.511,6.015,5.974,12.093
1722,0.698,37.427,39.296,43.436,34.494,5.892,5.851,11.929
1723,0.705,37.049,39.256,43.436,34.497,5.974,5.851,12.052
1724,0.698,36.942,39.256,43.436,34.494,5.892,5.81,12.011
1725,0.718,37.155,39.324,43.436,34.497,5.933,5.892,12.216
1726,0.721,37.272,39.205,43.426,34.497,5.81,5.768,12.257
1727,0.711,36.787,39.256,43.465,34.504,5.974,5.892,12.627
1728,0.701,36.855,39.268,43.436,34.504,5.974,5.933,12.956
1729,0.701,37.068,39.256,43.407,34.48,5.727,5.768,13.12
1730,0.728,37.233,39.241,43.465,34.501,5.892,5.892,13.695
1731,0.721,36.681,39.233,43.465,34.494,5.851,5.851,14.311
1732,0.724,36.845,39.268,43.436,34.501,5.81,5.892,15.173
1733,0.731,37.068,39.225,43.465,34.494,5.768,5.81,15.83
1734,0.731,37.204,39.268,43.455,34.501,5.81,5.933,16.61
1735,0.715,36.545,39.292,43.426,34.483,5.727,5.81,17.104
1736,0.718,36.768,39.264,43.475,34.497,5.81,5.851,17.432
1737,0.731,36.991,39.288,43.475,34.511,5.892,5.974,17.802
1738,0.721,37.039,39.296,43.407,34.49,5.727,5.933,17.884
1739,0.738,36.603,39.249,43.465,34.497,5.81,5.892,17.966
1740,0.731,36.826,39.217,43.446,34.49,5.727,5.851,17.925
1741,0.721,37.02,39.233,43.455,34.511,5.851,5.81,17.884
1742,0.728,37.117,39.288,43.436,34.49,5.727,5.81,17.72
1743,0.715,36.526,39.272,43.446,34.504,5.81,5.892,17.678
1744,0.711,36.749,39.292,43.446,34.49,5.768,6.015,17.473
1745,0.721,36.962,39.26,43.436,34.487,5.645,5.81,16.98
1746,0.731,37.097,39.213,43.484,34.501,5.81,5.974,16.816
1747,0.711,36.313,39.256,43.446,34.497,5.768,5.933,16.57
1748,0.708,36.545,39.292,43.426,34.497,5.851,5.933,16.364
1749,0.705,36.739,39.264,43.426,34.497,5.727,5.892,16.159
1750,0.718,36.826,39.249,43.446,34.497,5.81,5.974,16.035
1751,0.718,36.506,39.237,43.436,34.494,5.727,5.933,15.871
1752,0.724,36.758,39.3,43.446,34.497,5.768,5.933,15.502
1753,0.728,36.923,39.264,43.455,34.504,5.974,6.097,15.502
1754,0.715,36.971,39.26,43.397,34.494,5.81,5.974,15.297
1755,0.734,36.381,39.331,43.426,34.497,5.851,5.933,15.173
1756,0.731,36.642,39.245,43.475,34.497,5.768,5.974,14.927
1757,0.738,36.797,39.284,43.436,34.494,5.892,6.015,14.803
1758,0.741,36.826,39.268,43.397,34.49,5.768,5.851,14.598
1759,0.761,36.381,39.276,43.436,34.501,5.851,6.015,14.557
1760,0.738,36.613,39.241,43.475,34.49,5.892,6.015,14.475
1761,0.724,36.797,39.209,43.397,34.487,5.727,5.768,14.188
1762,0.731,36.845,39.284,43.455,34.501,5.81,5.974,14.188
1763,0.718,36.4,39.253,43.426,34.494,5.851,5.974,14.105
1764,0.715,36.652,39.284,43.426,34.497,5.81,5.974,14.188
1765,0.721,36.807,39.304,43.426,34.497,5.768,5.974,14.146
1766,0.721,36.884,39.229,43.426,34.504,5.81,5.974,14.393
1767,0.708,36.807,39.245,43.407,34.494,5.768,5.892,14.639
1768,0.724,37.039,39.288,43.426,34.501,5.768,5.933,14.927
1769,0.721,37.184,39.296,43.455,34.508,5.933,6.056,15.255
1770,0.721,36.322,39.182,43.397,34.49,5.687,5.892,15.297
1771,0.747,36.187,39.229,43.426,34.494,5.81,5.974,15.378
1772,0.741,36.4,39.253,43.426,34.497,5.727,5.892,15.461
1773,0.738,36.545,39.217,43.426,34.49,5.687,5.933,15.502
1774,0.734,36.322,39.264,43.417,34.487,5.645,5.851,15.502
1775,0.751,36.458,39.256,43.436,34.497,5.768,5.933,15.42
1776,0.747,36.652,39.158,43.426,34.497,5.687,6.015,15.338
1777,0.741,36.826,39.264,43.407,34.487,5.563,5.768,15.091
1778,0.754,36.138,39.316,43.436,34.511,5.727,5.933,15.091
1779,0.734,36.264,39.296,43.407,34.497,5.768,5.933,14.845
1780,0.728,36.516,39.193,43.465,34.497,5.687,5.974,14.763
1781,0.731,36.632,39.237,43.407,34.49,5.687,5.851,14.516
1782,0.728,36.226,39.288,43.417,34.494,5.687,6.015,14.475
1783,0.711,36.439,39.229,43.417,34.487,5.604,5.933,14.311
1784,0.715,36.681,39.245,43.436,34.501,5.727,5.974,14.105
1785,0.715,36.778,39.339,43.426,34.501,5.851,6.138,14.228
1786,0.701,36.119,39.205,43.388,34.483,5.687,5.974,13.941
1787,0.715,36.4,39.253,43.417,34.497,5.727,6.015,13.859
1788,0.715,36.574,39.272,43.426,34.497,5.687,6.015,13.695
1789,0.728,36.671,39.288,43.426,34.494,5.727,6.056,13.571
1790,0.728,36.187,39.142,43.426,34.497,5.645,6.015,13.49
1791,0.741,36.448,39.217,43.436,34.497,5.768,6.056,13.366
1792,0.738,36.613,39.249,43.397,34.494,5.768,6.015,13.407
1793,0.747,36.72,39.245,43.417,34.49,5.604,5.974,13.161
1794,0.757,36.109,39.28,43.446,34.501,5.851,6.056,13.284
1795,0.751,36.293,39.324,43.407,34.49,5.768,6.015,13.202
1796,0.761,36.516,39.17,43.426,34.501,5.727,5.974,13.202
1797,0.767,36.565,39.249,43.397,34.49,5.727,5.974,13.038
1798,0.764,36.08,39.324,43.417,34.497,5.81,6.056,13.079
1799,0.767,36.303,39.237,43.388,34.487,5.768,5.974,13.038
1800,0.744,36.535,39.264,43.513,34.501,5.727,5.974,12.956
1801,0.724,36.574,39.221,43.436,34.501,5.892,6.138,12.996
1802,0.721,36.119,39.296,43.378,34.49,5.81,6.015,12.832
1803,0.731,36.41,39.268,43.426,34.497,5.81,5.974,12.791
1804,0.715,36.574,39.276,43.407,34.494,5.768,5.933,12.627
1805,0.705,36.613,39.316,43.407,34.497,5.81,6.015,12.709
1806,0.711,36.032,39.154,43.388,34.494,5.768,5.851,12.422
1807,0.721,36.303,39.256,43.426,34.501,5.892,5.933,12.463
1808,0.721,36.429,39.292,43.417,34.497,5.851,6.056,12.463
1809,0.715,36.4,39.264,43.407,34.483,5.768,5.81,12.257
1810,0.731,36.255,39.213,43.446,34.487,5.768,5.974,12.257
1811,0.721,36.468,39.225,43.388,34.49,5.851,5.933,12.134
1812,0.731,36.603,39.249,43.417,34.501,5.851,5.974,12.216
1813,0.738,36.371,39.28,43.407,34.497,5.768,5.81,12.134
1814,0.738,36.129,39.245,43.426,34.501,5.851,5.974,12.093
1815,0.721,36.332,39.324,43.388,34.49,5.851,5.933,12.052
1816,0.734,36.497,39.217,43.426,34.487,5.81,5.727,11.847
1817,0.741,36.071,39.26,43.436,34.511,5.892,5.933,11.806
1818,0.718,36.022,39.272,43.426,34.487,5.851,5.892,11.806
1819,0.741,36.284,39.26,43.407,34.501,5.892,5.974,11.806
1820,0.728,36.429,39.264,43.484,34.494,5.81,5.892,11.723
1821,0.711,35.974,39.241,43.407,34.497,5.892,5.933,11.888
1822,0.705,36.09,39.296,43.388,34.49,5.727,5.81,11.641
1823,0.705,36.332,39.268,43.426,34.497,5.81,5.974,11.723
1824,0.688,36.448,39.256,43.426,34.501,5.892,6.056,11.847
1825,0.688,35.935,39.308,43.378,34.48,5.645,5.81,11.641
1826,0.701,36.167,39.178,43.426,34.497,5.768,5.892,11.641
1827,0.695,36.351,39.241,43.417,34.487,5.81,5.933,11.559
1828,0.705,36.468,39.28,43.417,34.497,5.768,5.974,11.559
1829,0.692,35.799,39.26,43.407,34.483,5.687,5.81,11.436
1830,0.698,36.051,39.237,43.426,34.497,5.768,5.933,11.518
1831,0.708,36.226,39.205,43.397,34.483,5.768,5.81,11.559
1832,0.715,36.351,39.276,43.426,34.49,5.645,5.645,11.477
1833,0.724,35.877,39.272,43.446,34.508,5.81,5.892,11.723
1834,0.711,36.061,39.264,43.397,34.49,5.645,5.81,11.641
1835,0.728,36.284,39.351,43.407,34.494,5.727,5.892,11.929
1836,0.738,36.4,39.229,43.455,34.49,5.645,5.81,12.093
1837,0.731,35.79,39.268,43.426,34.49,5.727,5.851,12.709
1838,0.718,36.022,39.28,43.388,34.49,5.727,5.768,13.079
1839,0.734,36.226,39.264,43.407,34.497,5.81,5.851,13.736
1840,0.708,36.313,39.26,43.397,34.497,5.768,5.933,14.27
1841,0.708,35.838,39.229,43.397,34.483,5.645,5.768,14.557
1842,0.721,36.109,39.308,43.436,34.501,5.768,5.851,15.173
1843,0.685,36.274,39.308,43.407,34.494,5.645,5.81,15.378
1844,0.701,36.361,39.256,43.407,34.487,5.727,5.892,15.748
1845,0.692,35.867,39.324,43.407,34.497,5.687,5.851,15.83
1846,0.695,36.138,39.189,43.417,34.497,5.727,5.974,16.035
1847,0.678,36.274,39.245,43.407,34.49,5.645,5.81,15.912
1848,0.688,36.361,39.288,43.407,34.494,5.727,5.933,15.912
1849,0.675,35.761,39.276,43.417,34.511,5.768,6.097,15.995
1850,0.675,35.964,39.174,43.397,34.483,5.604,5.892,15.748
1851,0.705,36.196,39.217,43.436,34.497,5.645,5.892,15.625
1852,0.698,36.216,39.292,43.407,34.49,5.604,5.892,15.42
1853,0.711,35.896,39.272,43.407,34.49,5.645,5.974,15.42
1854,0.705,36.119,39.28,43.388,34.483,5.604,5.933,15.297
1855,0.715,36.293,39.335,43.426,34.494,5.604,6.056,15.502
1856,0.701,36.71,39.166,43.407,34.497,5.645,6.056,15.748
1857,0.715,36.167,39.256,43.397,34.49,5.563,5.851,15.707
1858,0.711,36.39,39.292,43.446,34.497,5.727,5.974,16.035
1859,0.701,36.487,39.268,43.378,34.497,5.604,6.056,16.2
1860,0.701,36.109,39.245,43.436,34.497,5.563,5.892,16.61
1861,0.685,35.838,39.217,43.417,34.487,5.563,5.974,16.775
1862,0.695,36.051,39.268,43.426,34.497,5.563,6.056,17.062
1863,0.685,36.216,39.233,43.407,34.487,5.481,5.974,17.227
1864,0.688,36.032,39.288,43.426,34.504,5.563,6.015,17.309
1865,0.678,36.08,39.324,43.436,34.501,5.645,6.179,17.432
1866,0.682,36.284,39.237,43.378,34.48,5.481,5.974,17.309
1867,0.675,36.487,39.276,43.446,34.497,5.481,6.056,17.185
1868,0.662,35.819,39.296,43.407,34.49,5.563,6.097,17.021
1869,0.669,35.954,39.292,43.436,34.497,5.563,6.138,16.857
1870,0.675,36.167,39.17,43.436,34.49,5.481,6.056,16.57
1871,0.678,36.313,39.249,43.417,34.494,5.604,6.138,16.487
1872,0.665,35.819,39.276,43.388,34.483,5.481,6.097,16.323
1873,0.695,36.051,39.292,43.426,34.497,5.44,6.097,15.995
1874,0.692,36.274,39.312,43.446,34.511,5.645,6.262,15.871
1875,0.685,36.342,39.308,43.397,34.494,5.522,6.179,15.666
1876,0.685,35.848,39.276,43.407,34.49,5.481,6.262,15.461
1877,0.688,36.051,39.28,43.426,34.483,5.399,6.179,15.132
1878,0.685,36.264,39.304,43.407,34.494,5.522,6.302,15.05
1879,0.688,36.371,39.264,43.388,34.49,5.44,6.179,14.722
1880,0.685,35.877,39.221,43.426,34.501,5.604,6.302,14.598
1881,0.672,36.1,39.272,43.407,34.497,5.481,6.426,14.516
1882,0.675,36.293,39.343,43.407,34.483,5.358,6.179,14.27
1883,0.678,36.439,39.308,43.436,34.497,5.522,6.343,14.228
1884,0.669,35.78,39.316,43.407,34.494,5.481,6.302,14.023
1885,0.669,36.042,39.3,43.407,34.49,5.481,6.343,14.023
1886,0.672,36.264,39.256,43.455,34.49,5.399,6.262,13.695
1887,0.669,36.342,39.284,43.426,34.494,5.563,6.426,13.736
1888,0.655,35.896,39.304,43.407,34.487,5.399,6.343,13.448
1889,0.662,36.187,39.272,43.417,34.494,5.44,6.302,13.243
1890,0.669,36.371,39.245,43.446,34.501,5.604,6.467,13.243
1891,0.659,36.381,39.253,43.397,34.487,5.44,6.426,13.038
1892,0.682,35.954,39.347,43.436,34.487,5.44,6.426,12.956
1893,0.682,36.206,39.304,43.417,34.49,5.44,6.385,12.75
1894,0.678,36.381,39.32,43.407,34.49,5.44,6.508,12.627
1895,0.678,36.4,39.355,43.417,34.494,5.358,6.385,12.422
1896,0.685,35.906,39.272,43.436,34.501,5.481,6.467,12.422
1897,0.688,36.138,39.276,43.426,34.504,5.481,6.467,12.339
1898,0.695,36.293,39.304,43.397,34.48,5.317,6.302,12.052
1899,0.701,36.371,39.26,43.446,34.497,5.358,6.385,11.97
1900,0.685,36.003,39.276,43.426,34.487,5.399,6.426,11.888
1901,0.692,36.226,39.28,43.436,34.49,5.399,6.508,11.929
1902,0.695,36.381,39.335,43.426,34.494,5.399,6.385,11.723
1903,0.685,36.497,39.249,43.436,34.494,5.44,6.467,11.723
1904,0.672,36.051,39.276,43.407,34.49,5.399,6.426,11.723
1905,0.669,36.284,39.347,43.417,34.487,5.317,6.302,11.6
1906,0.672,36.448,39.225,43.465,34.501,5.481,6.343,11.847
1907,0.652,36.167,39.272,43.426,34.487,5.358,6.302,11.888
1908,0.659,36.119,39.284,43.426,34.487,5.44,6.343,11.929
1909,0.655,36.332,39.276,43.436,34.49,5.358,6.343,12.052
1910,0.669,36.506,39.233,43.446,34.494,5.522,6.385,12.093
1911,0.659,36.071,39.225,43.426,34.487,5.358,6.302,12.052
1912,0.665,36.167,39.304,43.436,34.494,5.399,6.385,11.97
1913,0.675,36.381,39.284,43.446,34.504,5.563,6.467,12.134
1914,0.678,36.497,39.284,43.426,34.483,5.44,6.302,12.052
1915,0.688,36.012,39.351,43.426,34.497,5.399,6.262,11.97
1916,0.675,36.167,39.312,43.523,34.49,5.399,6.262,11.97
1917,0.685,36.39,39.288,43.436,34.497,5.399,6.343,11.97
1918,0.678,36.516,39.355,43.407,34.487,5.317,6.22,11.723
1919,0.675,36.08,39.272,43.436,34.494,5.481,6.22,11.723
1920,0.665,36.293,39.272,43.446,34.487,5.522,6.385,11.723
1921,0.672,36.497,39.264,43.417,34.483,5.276,6.138,11.477
1922,0.675,36.652,39.324,43.455,34.497,5.399,6.302,11.477
1923,0.642,36.051,39.304,43.446,34.497,5.481,6.302,11.395
1924,0.659,36.332,39.304,43.436,34.487,5.44,6.262,11.354
1925,0.662,36.506,39.367,43.407,34.487,5.358,6.179,11.189
1926,0.669,36.623,39.174,43.455,34.49,5.399,6.302,11.231
1927,0.646,35.954,39.296,43.426,34.483,5.358,6.097,11.231
1928,0.655,36.264,39.296,43.436,34.497,5.44,6.179,11.149
1929,0.655,36.448,39.308,43.465,34.508,5.522,6.302,11.477
1930,0.652,36.487,39.296,43.426,34.487,5.399,6.138,11.806
1931,0.665,36.119,39.256,43.436,34.497,5.44,6.138,12.216
1932,0.675,36.361,39.316,43.455,34.497,5.399,6.138,12.627
1933,0.675,36.535,39.308,43.455,34.494,5.481,6.179,13.161
1934,0.672,36.613,39.3,43.426,34.483,5.317,6.097,13.695
1935,0.675,36.042,39.363,43.446,34.497,5.44,6.22,14.516
1936,0.675,36.284,39.288,43.436,34.494,5.481,6.22,15.255
1937,0.678,36.477,39.296,43.417,34.483,5.276,6.015,15.789
1938,0.682,36.574,39.359,43.465,34.497,5.481,6.097,16.405
1939,0.655,36.09,39.26,43.446,34.497,5.399,6.179,16.857
1940,0.659,36.351,39.316,43.436,34.497,5.481,6.138,17.268
1941,0.665,36.535,39.284,43.455,34.49,5.358,6.097,17.514
1942,0.665,36.574,39.367,43.446,34.494,5.358,6.138,17.966
1943,0.652,36.1,39.28,43.446,34.49,5.358,6.015,18.048
1944,0.659,36.381,39.331,43.455,34.494,5.44,6.097,18.13
1945,0.655,36.535,39.339,43.475,34.511,5.522,6.262,18.294
1946,0.642,36.535,39.28,43.455,34.49,5.358,6.056,18.171
1947,0.632,36.477,39.312,43.446,34.487,5.44,6.056,18.13
1948,0.626,36.69,39.32,43.446,34.49,5.358,6.015,17.802
1949,0.636,36.845,39.3,43.465,34.49,5.399,6.097,17.802
1950,0.642,36.652,39.272,43.446,34.487,5.358,6.015,17.473
1951,0.659,36.109,39.312,43.446,34.501,5.522,6.138,17.227
1952,0.655,36.313,39.327,43.446,34.504,5.399,6.015,17.062
1953,0.665,36.458,39.324,43.455,34.476,5.317,5.892,16.61
1954,0.672,36.293,39.355,43.475,34.497,5.44,6.015,16.487
1955,0.662,36.216,39.335,43.455,34.49,5.399,6.015,16.159
1956,0.665,36.448,39.339,43.446,34.494,5.44,6.056,15.995
1957,0.669,36.603,39.316,43.436,34.483,5.358,5.933,15.666
1958,0.669,36.109,39.347,43.455,34.497,5.481,6.015,15.625
1959,0.669,36.167,39.288,43.446,34.49,5.317,5.933,15.214
1960,0.672,36.419,39.276,43.446,34.494,5.399,5.974,15.009
1961,0.659,36.535,39.331,43.465,34.504,5.604,6.097,15.05
1962,0.665,36.051,39.351,43.417,34.48,5.358,5.851,14.722
1963,0.662,36.293,39.335,43.465,34.49,5.399,5.933,14.598
1964,0.642,36.477,39.339,43.436,34.49,5.399,5.933,14.516
1965,0.662,36.603,39.335,43.455,34.497,5.44,5.892,14.434
1966,0.655,36.08,39.316,43.533,34.487,5.317,5.81,14.393
1967,0.659,36.322,39.308,43.465,34.497,5.481,5.851,14.516
1968,0.646,36.516,39.347,43.446,34.483,5.399,5.974,14.598
1969,0.652,36.623,39.316,43.455,34.49,5.358,5.81,14.598
1970,0.665,36.032,39.335,43.484,34.501,5.563,5.892,14.845
1971,0.646,36.206,39.272,43.455,34.497,5.399,5.851,14.845
1972,0.655,36.429,39.359,43.475,34.49,5.399,5.933,14.886
1973,0.665,36.526,39.324,43.446,34.497,5.399,5.81,14.763
1974,0.669,36.09,39.367,43.465,34.49,5.399,5.933,14.845
1975,0.669,36.332,39.375,43.436,34.487,5.358,5.81,14.68
1976,0.682,36.535,39.359,43.465,34.494,5.481,5.851,14.639
1977,0.672,36.613,39.304,43.465,34.497,5.481,6.015,14.639
1978,0.675,36.032,39.347,43.436,34.483,5.358,5.727,14.311
1979,0.695,36.303,39.331,43.475,34.49,5.399,5.892,14.27
1980,0.652,36.468,39.296,43.465,34.497,5.358,5.892,14.188
1981,0.655,36.535,39.32,43.475,34.497,5.44,5.851,14.146
1982,0.659,36.071,39.343,43.465,34.49,5.358,5.81,13.941
1983,0.649,36.322,39.359,43.475,34.501,5.522,5.892,13.982
1984,0.649,36.487,39.351,43.475,34.487,5.481,5.892,13.859
1985,0.649,36.565,39.363,43.465,34.49,5.358,5.768,13.571
1986,0.659,36.1,39.359,43.504,34.511,5.563,6.015,13.695
1987,0.642,36.293,39.276,43.436,34.49,5.44,5.933,13.366
1988,0.662,36.497,39.363,43.484,34.497,5.481,5.892,13.448
1989,0.655,36.535,39.296,43.446,34.487,5.44,5.892,13.161
1990,0.669,36.119,39.276,43.475,34.49,5.44,5.933,13.202
1991,0.662,36.342,39.324,43.436,34.487,5.358,5.81,12.956
1992,0.655,36.516,39.398,43.475,34.497,5.522,5.892,12.915
1993,0.655,36.506,39.363,43.475,34.494,5.481,6.015,12.873
1994,0.669,36.022,39.367,43.465,34.483,5.317,5.768,12.545
1995,0.685,36.284,39.363,43.513,34.494,5.44,5.892,12.627
1996,0.669,36.41,39.375,43.484,34.49,5.399,5.892,12.463
1997,0.682,36.303,39.347,43.465,34.497,5.481,5.851,12.422
1998,0.678,36.1,39.383,43.455,34.49,5.358,5.768,12.257
1999,0.682,36.342,39.335,43.484,34.49,5.44,5.933,12.298
2000,0.662,36.477,39.292,43.455,34.494,5.44,5.892,12.134
2001,0.662,36.1,39.32,43.494,34.497,5.44,5.81,12.052
2002,0.662,36.109,39.398,43.523,34.511,5.563,5.974,12.134
2003,0.649,36.274,39.32,43.465,34.49,5.317,5.851,12.011
2004,0.678,36.439,39.359,43.475,34.494,5.399,5.892,12.011
2005,0.665,35.945,39.383,43.465,34.487,5.399,5.81,11.888
2006,0.662,36.061,39.292,43.494,34.483,5.399,5.974,11.929
2007,0.652,36.264,39.327,43.475,34.494,5.317,5.81,11.806
2008,0.646,36.41,39.367,43.504,34.494,5.399,5.892,11.888
2009,0.632,35.877,39.359,43.504,34.497,5.563,6.056,11.847
2010,0.632,36.061,39.316,43.542,34.48,5.276,5.768,11.641
2011,0.659,36.322,39.343,43.494,34.49,5.358,5.933,11.641
2012,0.652,36.39,39.351,43.484,34.49,5.317,5.892,11.559
2013,0.659,35.838,39.351,43.504,34.49,5.399,5.892,11.559
2014,0.649,36.071,39.351,43.484,34.487,5.358,5.892,11.395
2015,0.659,36.274,39.391,43.513,34.497,5.399,5.974,11.559
2016,0.659,36.361,39.367,43.484,34.483,5.317,5.892,11.436
2017,0.675,35.79,39.347,43.504,34.483,5.317,5.81,11.231
2018,0.675,36.051,39.418,43.523,34.508,5.44,6.015,11.313
2019,0.678,36.187,39.351,43.465,34.487,5.358,5.974,11.149
2020,0.675,36.342,39.343,43.504,34.487,5.317,5.933,11.189
2021,0.672,35.877,39.367,43.494,34.49,5.276,5.81,11.149
2022,0.662,36.119,39.391,43.494,34.49,5.399,5.974,11.189
2023,0.646,36.284,39.375,43.484,34.487,5.317,5.81,11.108
2024,0.646,36.419,39.379,43.523,34.49,5.44,5.892,11.231
2025,0.629,35.722,39.375,43.504,34.49,5.399,5.933,11.272
2026,0.649,36.003,39.375,43.562,34.48,5.317,5.768,11.066
2027,0.659,36.216,39.335,43.533,34.494,5.44,5.851,11.231
2028,0.636,36.235,39.442,43.523,34.487,5.358,5.851,11.108
2029,0.642,35.683,39.371,43.523,34.49,5.358,5.81,11.272
2030,0.655,35.935,39.343,43.513,34.49,5.399,5.81,11.149
2031,0.675,36.138,39.363,43.533,34.497,5.399,5.892,11.354
2032,0.672,36.167,39.371,43.494,34.49,5.358,5.892,11.272
2033,0.678,35.887,39.394,43.513,34.494,5.481,5.851,11.272
2034,0.678,36.119,39.387,43.523,34.504,5.604,6.015,11.518
2035,0.675,36.274,39.383,43.484,34.483,5.358,5.851,11.847
2036,0.685,36.371,39.394,43.523,34.49,5.522,5.933,12.627
2037,0.685,35.799,39.327,43.504,34.49,5.399,5.851,13.859
2038,0.678,36.051,39.438,43.513,34.497,5.44,5.892,15.214
2039,0.672,36.196,39.343,43.484,34.487,5.399,5.81,16.528
2040,0.665,36.371,39.347,43.533,34.49,5.481,5.892,17.842
2041,0.665,35.712,39.394,43.513,34.49,5.358,5.892,18.992
2042,0.682,35.974,39.402,43.523,34.487,5.358,5.727,19.814
2043,0.665,36.129,39.43,43.552,34.511,5.563,5.974,20.717
2044,0.652,35.916,39.367,43.504,34.494,5.44,5.933,21.169
2045,0.665,35.799,39.418,43.533,34.49,5.481,5.851,21.498
2046,0.665,36.012,39.41,43.533,34.49,5.44,5.851,21.662
2047,0.649,36.187,39.347,43.542,34.497,5.481,5.892,21.785
2048,0.655,35.828,39.45,43.523,34.48,5.399,5.768,21.498
2049,0.665,35.877,39.355,43.542,34.494,5.522,5.892,21.416
2050,0.652,36.08,39.367,43.552,34.494,5.563,5.974,21.334
2051,0.659,36.235,39.379,43.504,34.476,5.317,5.727,20.841
2052,0.669,35.741,39.406,43.542,34.497,5.481,5.892,20.594
2053,0.659,35.838,39.422,43.552,34.49,5.44,5.892,20.224
2054,0.665,36.071,39.391,43.552,34.494,5.481,5.851,20.101
2055,0.655,36.196,39.43,43.533,34.497,5.44,5.851,19.896
2056,0.662,35.577,39.434,43.533,34.494,5.522,5.933,19.937
2057,0.659,35.78,39.351,43.533,34.487,5.481,5.81,19.814
2058,0.672,35.983,39.45,43.523,34.487,5.481,5.81,19.527
2059,0.682,36.129,39.375,43.572,34.511,5.563,5.933,19.485
2060,0.672,35.586,39.371,43.533,34.49,5.481,5.81,19.321
2061,0.675,35.857,39.41,43.542,34.483,5.563,5.851,19.034
2062,0.672,36.061,39.398,43.542,34.497,5.481,5.768,18.705
2063,0.669,36.177,39.434,43.552,34.497,5.481,5.892,18.541
2064,0.675,35.654,39.402,43.533,34.487,5.44,5.81,18.294
2065,0.675,35.906,39.434,43.552,34.497,5.481,5.81,18.212
2066,0.675,36.1,39.359,43.562,34.497,5.604,5.933,18.294
2067,0.682,36.196,39.335,43.533,34.48,5.399,5.727,18.007
2068,0.698,35.528,39.461,43.572,34.494,5.481,5.892,18.13
2069,0.685,35.761,39.414,43.552,34.49,5.481,5.81,17.925
2070,0.698,35.983,39.312,43.601,34.497,5.522,5.81,17.884
2071,0.715,36.051,39.398,43.552,34.49,5.522,5.81,17.596
2072,0.724,35.635,39.418,43.542,34.497,5.522,5.892,17.555
2073,0.734,35.877,39.438,43.552,34.487,5.399,5.768,17.35
2074,0.751,36.109,39.422,43.562,34.49,5.481,5.687,16.98
2075,0.777,36.158,39.45,43.61,34.501,5.645,5.933,16.898
2076,0.774,35.47,39.418,43.542,34.487,5.481,5.768,16.652
2077,0.787,35.751,39.394,43.581,34.487,5.481,5.81,16.323
2078,0.787,35.906,39.477,43.552,34.483,5.522,5.727,15.995
2079,0.793,35.964,39.32,43.581,34.494,5.522,5.81,15.871
2080,0.793,35.606,39.371,43.562,34.48,5.481,5.727,15.461
2081,0.787,35.857,39.406,43.591,34.494,5.604,5.851,15.297
2082,0.774,35.993,39.422,43.581,34.497,5.645,5.974,15.173
2083,0.754,36.042,39.43,43.552,34.476,5.358,5.727,14.845
2084,0.777,35.683,39.473,43.562,34.494,5.522,5.81,14.68
2085,0.747,35.877,39.465,43.572,34.483,5.522,5.768,14.434
2086,0.761,36.032,39.398,43.601,34.49,5.645,5.81,14.27
2087,0.77,36.177,39.375,43.572,34.487,5.563,5.768,14.023
2088,0.774,35.664,39.477,43.601,34.494,5.563,5.851,13.859
2089,0.767,35.867,39.375,43.581,34.483,5.563,5.851,13.736
2090,0.803,36.051,39.406,43.639,34.487,5.563,5.687,13.325
2091,0.81,35.741,39.422,43.61,34.501,5.768,5.851,13.284
2092,0.807,35.538,39.414,43.572,34.49,5.645,5.727,13.12
2093,0.83,35.799,39.45,43.581,34.497,5.645,5.81,12.915
2094,0.823,35.954,39.398,43.581,34.49,5.645,5.768,12.75
2095,0.83,35.509,39.473,43.581,34.501,5.645,5.81,12.668
2096,0.833,35.577,39.454,43.581,34.483,5.645,5.687,12.422
2097,0.849,35.809,39.422,43.601,34.497,5.727,5.81,12.381
2098,0.833,35.916,39.485,43.581,34.494,5.768,5.81,12.381
2099,0.843,35.46,39.422,43.572,34.487,5.604,5.645,11.929
2100,0.826,35.664,39.43,43.62,34.49,5.727,5.81,11.888
2101,0.79,35.838,39.442,43.61,34.483,5.727,5.727,11.723
2102,0.793,35.954,39.442,43.601,34.49,5.851,5.851,11.764
2103,0.787,35.402,39.414,43.591,34.494,5.727,5.687,11.436
2104,0.761,35.615,39.446,43.601,34.497,5.851,5.768,11.477
2105,0.747,35.799,39.465,43.591,34.48,5.81,5.81,11.354
2106,0.754,35.945,39.379,43.601,34.483,5.768,5.563,11.149
2107,0.751,35.48,39.418,43.649,34.501,5.892,5.851,11.149
2108,0.728,35.644,39.489,43.601,34.494,5.851,5.768,11.025
2109,0.741,35.877,39.43,43.61,34.487,5.892,5.727,10.943
2110,0.747,36.012,39.442,43.678,34.49,5.851,5.727,10.82
2111,0.747,35.334,39.45,43.62,34.49,5.851,5.81,10.779
2112,0.724,35.557,39.458,43.601,34.487,5.851,5.645,10.656
2113,0.734,35.77,39.477,43.63,34.497,5.851,5.768,10.574
2114,0.721,35.877,39.477,43.649,34.504,5.933,5.933,10.697
2115,0.705,35.344,39.454,43.581,34.48,5.81,5.727,10.491
2116,0.731,35.654,39.473,43.62,34.494,5.892,5.727,10.45
