time,ecg,bvp,gsr,rsp,skt,emg_zygo,emg_coru,emg_trap
0,0.958,37.222,5.492,36.545,26.515,14.351,7.658,8.93
1,0.941,37.281,5.539,36.563,26.518,14.271,7.739,9.053
2,0.948,37.061,5.434,36.573,26.515,14.107,7.699,9.013
3,0.951,37.222,5.507,36.573,26.518,14.065,7.699,9.013
4,0.958,37.281,5.453,36.564,26.518,13.983,7.699,8.972
5,0.954,37.32,5.461,36.535,26.511,13.942,7.699,9.053
6,0.958,37.157,5.531,36.563,26.522,13.819,7.78,9.095
7,0.951,37.29,5.504,36.564,26.522,13.777,7.659,9.054
8,0.945,37.387,5.481,36.573,26.518,13.655,7.658,9.013
9,0.932,37.378,5.414,36.545,26.511,13.532,7.78,9.094
10,0.928,37.349,5.527,36.554,26.518,13.531,7.7,9.095
11,0.928,37.493,5.442,36.573,26.525,13.449,7.78,9.095
12,0.925,37.562,5.507,36.564,26.525,13.245,7.618,9.014
13,0.912,37.303,5.524,36.535,26.515,13.162,7.698,9.135
14,0.908,37.416,5.465,36.563,26.522,13.08,7.699,9.055
15,0.902,37.561,5.523,36.573,26.525,13.038,7.699,9.095
16,0.899,37.629,5.497,36.554,26.515,12.794,7.74,9.054
17,0.912,37.697,5.508,36.535,26.508,12.71,7.699,9.054
18,0.915,37.851,5.461,36.573,26.518,12.546,7.74,9.013
19,0.909,37.987,5.433,36.573,26.522,12.504,7.781,9.054
20,0.895,38.008,5.507,36.554,26.515,12.219,7.7,9.013
21,0.899,37.145,5.45,36.544,26.515,12.216,7.618,9.054
22,0.915,37.309,5.492,36.573,26.522,12.135,7.739,8.973
23,0.896,37.425,5.539,36.564,26.522,12.134,7.781,9.053
24,0.882,37.427,5.442,36.544,26.518,12.053,7.7,8.932
25,0.882,37.532,5.523,36.544,26.515,12.011,7.699,8.931
26,0.902,37.725,5.493,36.554,26.515,12.052,7.74,9.012
27,0.889,37.804,5.52,36.573,26.522,12.093,7.781,8.932
28,0.856,37.804,5.504,36.535,26.515,12.012,7.7,8.89
29,0.859,37.488,5.438,36.525,26.511,12.133,7.78,8.849
30,0.872,37.676,5.507,36.573,26.515,12.256,7.74,8.93
31,0.853,37.736,5.52,36.564,26.522,12.461,7.943,9.012
32,0.849,37.727,5.43,36.525,26.511,12.625,7.823,8.85
33,0.84,37.65,5.484,36.544,26.511,12.627,7.781,8.808
34,0.839,37.793,5.555,36.592,26.525,12.871,7.944,8.93
35,0.833,37.881,5.493,36.564,26.522,12.995,7.986,8.931
36,0.83,37.575,5.508,36.516,26.511,13.119,7.946,8.972
37,0.823,37.543,5.446,36.525,26.511,13.404,7.905,8.891
38,0.846,37.696,5.523,36.573,26.532,13.854,8.026,9.012
39,0.823,37.775,5.504,36.554,26.515,14.062,8.027,8.932
40,0.826,37.507,5.473,36.525,26.508,14.308,7.987,8.931
41,0.82,37.658,5.5,36.554,26.511,14.921,7.986,8.89
42,0.826,37.803,5.449,36.602,26.532,15.862,8.149,9.012
43,0.826,37.871,5.511,36.554,26.522,16.481,8.028,8.972
44,0.836,37.565,5.485,36.506,26.501,17.016,7.905,8.85
45,0.826,37.725,5.488,36.544,26.518,17.59,7.985,8.849
46,0.83,37.861,5.523,36.563,26.529,18.287,8.23,9.011
47,0.833,37.92,5.5,36.544,26.518,18.498,8.07,8.932
48,0.813,37.393,5.446,36.535,26.515,18.703,7.946,8.768
49,0.803,37.503,5.414,36.525,26.511,18.99,7.986,8.807
50,0.797,37.619,5.441,36.544,26.529,19.277,8.068,8.97
51,0.794,37.687,5.531,36.554,26.522,19.321,8.109,8.809
52,0.793,37.611,5.419,36.544,26.522,19.28,8.028,8.686
53,0.78,37.726,5.515,36.554,26.511,19.158,8.027,8.807
54,0.78,37.813,5.551,36.544,26.522,19.116,8.109,8.889
55,0.767,37.852,5.481,36.554,26.522,18.831,8.028,8.849
56,0.777,37.584,5.52,36.554,26.522,18.584,7.987,8.808
57,0.764,37.697,5.489,36.544,26.515,18.257,7.946,8.767
58,0.767,37.775,5.442,36.535,26.518,17.928,7.986,8.767
59,0.78,38.14,5.507,36.535,26.518,17.681,8.027,8.726
60,0.784,37.549,5.442,36.544,26.522,17.353,8.027,8.766
61,0.777,37.639,5.519,36.525,26.515,16.984,7.865,8.726
62,0.771,37.726,5.407,36.525,26.508,16.614,7.863,8.685
63,0.78,37.506,5.491,36.544,26.518,16.407,7.863,8.684
64,0.78,37.581,5.535,36.554,26.525,16.161,7.944,8.644
65,0.784,37.697,5.45,36.525,26.518,15.793,7.905,8.765
66,0.78,37.784,5.539,36.525,26.508,15.627,7.782,8.685
67,0.784,37.43,5.524,36.525,26.515,15.544,7.822,8.807
68,0.764,37.599,5.508,36.611,26.518,15.583,7.944,8.93
69,0.761,37.706,5.504,36.545,26.522,15.503,7.823,9.012
70,0.761,37.746,5.446,36.525,26.515,15.38,7.741,9.013
71,0.757,37.497,5.507,36.544,26.522,15.541,7.781,9.216
72,0.754,37.638,5.539,36.544,26.522,15.421,7.822,9.381
73,0.748,37.736,5.446,36.525,26.515,15.298,7.7,9.301
74,0.741,37.784,5.543,36.525,26.515,15.134,7.658,9.301
75,0.767,37.564,5.493,36.544,26.518,15.091,7.658,9.423
76,0.748,37.687,5.461,36.544,26.518,14.928,7.698,9.505
77,0.747,37.746,5.551,36.525,26.515,14.683,7.618,9.506
78,0.747,37.804,5.395,36.525,26.515,14.477,7.535,9.425
79,0.773,37.497,5.507,36.544,26.518,14.312,7.534,9.546
80,0.764,37.581,5.508,36.554,26.522,14.108,7.616,9.588
81,0.751,37.677,5.45,36.516,26.518,13.861,7.617,9.547
82,0.764,37.717,5.515,36.525,26.511,13.574,7.535,9.506
83,0.787,37.554,5.45,36.554,26.522,13.449,7.534,9.628
84,0.78,37.648,5.507,36.544,26.515,13.164,7.616,9.629
85,0.771,37.736,5.516,36.496,26.511,12.876,7.576,9.588
86,0.767,37.66,5.43,36.515,26.518,12.629,7.535,9.588
87,0.783,37.438,5.519,36.554,26.532,12.627,7.657,9.751
88,0.754,37.523,5.391,36.554,26.518,12.424,7.698,9.833
89,0.754,37.591,5.464,36.506,26.511,12.218,7.536,9.753
90,0.751,37.399,5.519,36.496,26.515,12.216,7.657,9.833
91,0.764,37.532,5.496,36.553,26.525,12.501,7.739,9.997
92,0.748,37.648,5.551,36.535,26.522,12.423,7.659,10.08
93,0.754,37.726,5.419,36.496,26.511,12.3,7.536,9.999
94,0.744,37.305,5.538,36.525,26.515,12.461,7.616,10.039
95,0.76,37.473,5.528,36.573,26.532,12.829,7.82,10.121
96,0.751,37.58,5.43,36.535,26.518,13.401,7.7,10.122
97,0.748,37.63,5.539,36.515,26.504,14.261,7.618,9.959
98,0.744,37.304,5.387,36.515,26.518,15.489,7.657,10.08
99,0.754,37.464,5.499,36.554,26.529,16.721,7.78,10.203
100,0.767,37.561,5.531,36.535,26.518,17.588,7.74,10.001
101,0.757,37.629,5.442,36.515,26.504,18.287,7.577,9.999
102,0.77,37.371,5.531,36.525,26.518,18.863,7.616,9.999
103,0.761,37.512,5.481,36.563,26.525,19.438,7.82,10.039
104,0.767,37.619,5.52,36.535,26.515,19.526,7.659,9.918
105,0.783,37.678,5.539,36.525,26.518,19.648,7.617,9.754
106,0.78,37.42,5.45,36.515,26.522,19.894,7.657,9.752
107,0.764,37.551,5.547,36.534,26.518,20.221,7.78,9.915
108,0.777,37.668,5.481,36.535,26.522,20.184,7.7,9.794
109,0.771,37.688,5.457,36.525,26.522,20.306,7.618,9.59
110,0.764,37.362,5.515,36.515,26.518,20.388,7.535,9.547
111,0.751,37.474,5.442,36.515,26.518,20.592,7.697,9.628
112,0.754,37.59,5.507,36.525,26.525,20.757,7.618,9.588
113,0.741,37.438,5.531,36.525,26.525,20.921,7.617,9.466
114,0.744,37.331,5.454,36.534,26.522,21.004,7.617,9.465
115,0.744,37.445,5.511,36.525,26.511,21.046,7.657,9.383
116,0.751,37.542,5.504,36.534,26.522,21.168,7.617,9.423
117,0.757,37.265,5.492,36.535,26.522,21.372,7.657,9.302
118,0.754,37.348,5.492,36.535,26.511,21.537,7.576,9.26
119,0.757,37.464,5.41,36.515,26.511,21.62,7.616,9.178
120,0.764,37.542,5.503,36.534,26.518,21.824,7.657,9.218
121,0.748,37.255,5.52,36.535,26.518,21.948,7.658,9.259
122,0.77,37.377,5.434,36.535,26.522,21.909,7.617,9.056
123,0.774,37.474,5.484,36.515,26.508,21.908,7.576,9.095
124,0.784,37.571,5.551,36.515,26.518,22.152,7.616,9.054
125,0.767,37.16,5.446,36.544,26.525,22.561,7.617,9.135
126,0.757,37.27,5.511,36.515,26.515,23.094,7.576,9.014
127,0.767,37.348,5.45,36.496,26.508,23.668,7.494,8.891
128,0.777,37.455,5.449,36.525,26.522,24.203,7.616,8.93
129,0.767,37.36,5.496,36.534,26.525,24.737,7.617,9.012
130,0.757,37.464,5.442,36.515,26.515,24.905,7.495,8.85
131,0.754,37.561,5.523,36.506,26.515,24.866,7.453,8.849
132,0.77,37.668,5.407,36.506,26.525,24.906,7.534,8.849
133,0.767,37.218,5.527,36.534,26.525,25.028,7.534,8.889
134,0.757,37.309,5.532,36.525,26.522,25.03,7.494,8.809
135,0.744,37.416,5.461,36.515,26.511,25.03,7.453,8.604
136,0.76,37.503,5.535,36.525,26.522,25.314,7.493,8.684
137,0.754,37.379,5.465,36.534,26.522,25.602,7.616,8.766
138,0.748,37.455,5.476,36.515,26.518,25.848,7.535,8.645
139,0.747,37.561,5.414,36.506,26.515,25.932,7.453,8.521
140,0.773,37.255,5.488,36.525,26.518,26.096,7.452,8.642
141,0.774,37.223,5.512,36.534,26.525,26.138,7.493,8.684
142,0.754,37.3,5.414,36.506,26.518,25.894,7.453,8.644
143,0.761,37.416,5.492,36.506,26.515,25.485,7.371,8.481
144,0.79,37.321,5.563,36.525,26.525,25.278,7.411,8.52
145,0.784,37.435,5.477,36.525,26.525,24.91,7.411,8.601
146,0.767,37.513,5.512,36.477,26.511,24.418,7.371,8.602
147,0.77,37.619,5.485,36.496,26.511,23.844,7.289,8.521
148,0.774,37.074,5.5,36.544,26.522,23.351,7.369,8.52
149,0.758,37.174,5.52,36.525,26.525,22.777,7.37,8.601
150,0.764,37.261,5.469,36.506,26.515,22.079,7.33,8.521
151,0.754,37.348,5.539,36.486,26.511,21.625,7.248,8.439
152,0.764,37.263,5.419,36.534,26.525,21.336,7.328,8.479
153,0.761,37.387,5.523,36.506,26.518,21.008,7.451,8.601
154,0.748,37.455,5.547,36.486,26.515,20.558,7.33,8.602
155,0.767,37.532,5.477,36.515,26.518,20.35,7.289,8.562
156,0.783,37.178,5.512,36.534,26.525,20.348,7.329,8.643
157,0.764,37.271,5.481,36.525,26.522,20.185,7.37,8.765
158,0.767,37.358,5.43,36.477,26.522,19.939,7.248,8.726
159,0.767,37.378,5.499,36.486,26.511,19.774,7.247,8.644
160,0.787,37.206,5.442,36.524,26.522,19.61,7.288,8.765
161,0.777,37.29,5.523,36.506,26.518,19.446,7.369,8.767
162,0.774,37.368,5.504,36.477,26.508,19.078,7.289,8.685
163,0.777,37.57,5.465,36.486,26.518,18.749,7.207,8.684
164,0.79,37.217,5.543,36.524,26.525,18.583,7.328,8.807
165,0.78,37.329,5.442,36.515,26.522,18.257,7.289,8.808
166,0.774,37.378,5.48,36.467,26.511,17.806,7.207,8.726
167,0.777,37.119,5.523,36.476,26.515,17.842,7.287,8.685
168,0.787,37.222,5.458,36.591,26.525,17.924,7.369,8.847
169,0.771,37.319,5.492,36.516,26.515,17.884,7.37,8.767
170,0.764,37.406,5.512,36.477,26.504,18.046,7.289,8.645
171,0.764,37.043,5.465,36.486,26.515,18.333,7.451,8.684
172,0.764,37.193,5.554,36.515,26.532,18.742,7.656,8.847
173,0.767,37.309,5.458,36.496,26.522,18.705,7.536,8.767
174,0.761,37.378,5.55,36.486,26.511,18.705,7.575,8.645
175,0.761,37.043,5.493,36.505,26.515,18.786,7.738,8.725
176,0.77,37.164,5.457,36.496,26.525,18.95,7.862,8.888
177,0.774,37.29,5.531,36.505,26.525,18.911,7.863,8.809
178,0.774,37.368,5.399,36.515,26.525,18.87,7.944,8.767
179,0.767,37.014,5.472,36.496,26.518,18.829,7.945,8.807
180,0.77,37.116,5.527,36.505,26.515,18.991,8.067,8.93
181,0.787,37.251,5.469,36.515,26.518,19.074,8.069,8.89
182,0.78,37.319,5.539,36.525,26.518,19.115,8.069,8.93
183,0.787,37.032,5.446,36.496,26.518,19.116,8.069,8.931
184,0.777,37.145,5.519,36.486,26.515,18.912,8.028,8.931
185,0.787,37.27,5.422,36.496,26.522,18.87,8.109,9.012
186,0.793,37.31,5.48,36.525,26.522,18.585,8.109,8.972
187,0.78,37.061,5.531,36.487,26.515,18.297,8.028,8.931
188,0.761,37.174,5.368,36.505,26.515,18.01,8.068,9.012
189,0.777,37.309,5.483,36.515,26.518,17.763,8.069,9.054
190,0.78,37.176,5.508,36.534,26.525,17.598,8.191,9.054
191,0.771,36.964,5.477,36.506,26.515,17.23,8.11,9.013
192,0.761,37.058,5.519,36.477,26.508,16.82,8.069,8.932
193,0.767,37.183,5.43,36.505,26.518,16.572,8.15,9.053
194,0.761,36.916,5.523,36.515,26.525,16.366,8.11,9.054
195,0.754,37.019,5.528,36.496,26.518,15.958,8.109,9.054
196,0.754,37.125,5.426,36.496,26.508,15.628,8.028,9.054
197,0.767,37.222,5.531,36.515,26.518,15.422,8.109,8.932
198,0.774,36.83,5.461,36.534,26.525,15.216,8.15,9.012
199,0.774,36.951,5.472,36.496,26.518,14.848,7.988,8.972
200,0.767,37.048,5.5,36.486,26.515,14.479,7.986,8.931
201,0.774,37.164,5.465,36.515,26.515,14.394,8.027,8.931
202,0.774,36.906,5.531,36.525,26.525,14.312,8.109,8.85
203,0.761,37.019,5.438,36.506,26.525,14.108,7.947,8.808
204,0.78,37.116,5.511,36.486,26.515,14.187,7.986,8.604
205,0.8,37.222,5.535,36.496,26.518,14.472,8.027,8.724
206,0.794,36.801,5.43,36.534,26.522,14.882,8.027,8.685
207,0.79,36.893,5.546,36.496,26.522,15.17,7.946,8.603
208,0.767,37.019,5.45,36.505,26.511,15.458,7.823,8.602
209,0.774,37.087,5.461,36.506,26.515,15.867,7.944,8.602
210,0.774,36.877,5.515,36.515,26.525,16.156,7.945,8.602
211,0.761,36.999,5.438,36.506,26.511,16.281,7.905,8.48
212,0.764,37.096,5.503,36.486,26.508,16.323,7.863,8.438
213,0.761,37.136,5.528,36.505,26.518,16.364,7.822,8.479
214,0.757,36.82,5.524,36.525,26.518,16.445,7.863,8.601
215,0.754,36.96,5.528,36.506,26.518,16.284,7.782,8.521
216,0.761,37.019,5.407,36.496,26.515,16.119,7.781,8.479
217,0.774,36.838,5.503,36.525,26.518,16.077,7.781,8.479
218,0.771,36.797,5.473,36.515,26.518,16.036,7.822,8.52
219,0.764,36.883,5.441,36.506,26.518,15.873,7.741,8.439
220,0.774,36.98,5.527,36.486,26.511,15.749,7.781,8.397
221,0.793,36.76,5.43,36.515,26.522,15.707,7.74,8.438
222,0.774,36.854,5.507,36.506,26.518,15.626,7.862,8.519
223,0.767,36.961,5.524,36.506,26.522,15.503,7.782,8.398
224,0.774,37.038,5.465,36.477,26.511,15.339,7.7,8.316
225,0.79,36.627,5.535,36.486,26.518,15.419,7.78,8.396
226,0.787,36.747,5.43,36.505,26.522,15.46,7.822,8.316
227,0.767,36.825,5.523,36.467,26.515,15.461,7.741,8.274
228,0.761,36.912,5.461,36.496,26.508,15.42,7.74,8.274
229,0.774,36.731,5.469,36.515,26.525,15.664,7.74,8.274
230,0.764,36.863,5.512,36.515,26.518,16.032,7.821,8.274
231,0.751,36.942,5.434,36.496,26.515,16.483,7.7,8.274
232,0.757,37.019,5.468,36.477,26.518,16.853,7.618,8.193
233,0.783,36.665,5.551,36.515,26.525,17.507,7.739,8.192
234,0.761,36.786,5.466,36.525,26.529,18.124,7.781,8.314
235,0.754,36.864,5.539,36.477,26.511,18.781,7.7,8.152
236,0.744,36.922,5.512,36.486,26.511,19.438,7.658,8.11
237,0.764,36.693,5.52,36.524,26.525,20.054,7.82,8.15
238,0.761,36.786,5.493,36.496,26.522,20.467,7.741,8.15
239,0.757,36.864,5.406,36.477,26.508,20.715,7.699,7.947
240,0.767,37.277,5.511,36.476,26.511,20.921,7.658,7.945
241,0.78,36.85,5.442,36.524,26.529,21.248,7.861,8.067
242,0.777,36.961,5.492,36.496,26.522,21.414,7.741,8.028
243,0.777,37.038,5.508,36.486,26.504,21.497,7.618,7.946
244,0.787,36.56,5.492,36.477,26.515,21.782,7.617,7.905
245,0.79,36.574,5.524,36.534,26.532,22.07,7.739,8.026
246,0.771,36.689,5.469,36.496,26.522,21.991,7.659,8.027
247,0.767,36.777,5.535,36.486,26.511,21.828,7.536,7.824
248,0.757,36.538,5.536,36.515,26.518,21.826,7.616,7.822
249,0.757,36.67,5.477,36.506,26.522,21.664,7.739,8.025
250,0.757,36.786,5.547,36.496,26.522,21.377,7.618,7.946
251,0.754,36.893,5.45,36.477,26.518,21.008,7.576,7.823
252,0.748,36.539,5.484,36.486,26.518,20.761,7.616,7.863
253,0.751,36.679,5.523,36.524,26.525,20.636,7.779,8.066
254,0.744,36.805,5.45,36.487,26.522,20.269,7.618,7.987
255,0.757,36.883,5.507,36.486,26.518,20.103,7.495,7.864
256,0.751,36.52,5.504,36.486,26.518,20.02,7.616,7.985
257,0.748,36.66,5.504,36.486,26.515,20.06,7.617,8.149
258,0.757,36.767,5.473,36.486,26.522,19.979,7.617,8.11
259,0.767,36.825,5.43,36.496,26.522,19.978,7.535,8.109
260,0.764,36.625,5.492,36.477,26.515,20.1,7.494,8.272
261,0.754,36.747,5.457,36.476,26.515,20.061,7.534,8.436
262,0.761,36.873,5.465,36.496,26.522,20.101,7.534,8.438
263,0.761,36.913,5.523,36.496,26.518,20.061,7.453,8.519
264,0.78,36.53,5.418,36.467,26.511,19.816,7.534,8.561
265,0.771,36.66,5.492,36.467,26.518,19.611,7.453,8.683
266,0.78,36.757,5.465,36.476,26.515,19.446,7.452,8.684
267,0.761,36.758,5.473,36.476,26.518,19.241,7.534,8.725
268,0.757,36.461,5.484,36.476,26.518,18.914,7.453,8.685
269,0.751,36.573,5.438,36.457,26.515,18.585,7.412,8.807
270,0.757,36.68,5.523,36.486,26.518,18.379,7.533,8.767
271,0.764,36.556,5.493,36.515,26.525,18.132,7.494,8.807
272,0.751,36.66,5.5,36.477,26.511,17.683,7.494,8.726
273,0.751,36.757,5.52,36.467,26.511,17.312,7.412,8.685
274,0.741,36.854,5.465,36.486,26.511,17.227,7.493,8.766
275,0.751,36.529,5.5,36.486,26.522,17.186,7.534,8.807
276,0.748,36.641,5.524,36.477,26.518,17.226,7.372,8.726
277,0.754,36.748,5.454,36.448,26.508,17.389,7.37,8.685
278,0.761,36.835,5.48,36.495,26.518,17.635,7.492,8.725
279,0.767,36.51,5.387,36.486,26.529,17.759,7.453,8.685
280,0.757,36.612,5.48,36.486,26.515,17.76,7.412,8.603
281,0.761,36.738,5.5,36.467,26.511,17.801,7.411,8.602
282,0.767,36.835,5.43,36.476,26.522,18.046,7.493,8.643
283,0.764,36.462,5.535,36.505,26.522,18.495,7.534,8.684
284,0.764,36.564,5.458,36.467,26.518,19.191,7.494,8.603
285,0.754,36.68,5.515,36.467,26.504,20.011,7.371,8.399
286,0.787,36.786,5.512,36.486,26.518,21.076,7.533,8.478
287,0.764,36.548,5.512,36.467,26.522,21.981,7.494,8.479
288,0.741,36.689,5.465,36.486,26.511,22.682,7.453,8.479
289,0.741,36.777,5.406,36.457,26.511,23.177,7.452,8.479
290,0.76,36.835,5.495,36.495,26.525,23.507,7.534,8.601
291,0.754,36.558,5.527,36.467,26.518,23.713,7.575,8.684
292,0.744,36.689,5.45,36.448,26.511,23.634,7.454,8.644
293,0.751,36.806,5.531,36.447,26.515,23.633,7.534,8.603
294,0.757,36.634,5.485,36.495,26.518,23.755,7.575,8.724
295,0.751,36.498,5.484,36.477,26.522,24.0,7.535,8.807
296,0.735,36.583,5.492,36.448,26.511,24.125,7.575,8.767
297,0.747,36.699,5.492,36.457,26.511,24.573,7.454,8.726
298,0.767,36.451,5.492,36.495,26.522,25.432,7.493,8.807
299,0.757,36.525,5.492,36.477,26.522,26.497,7.534,8.889
300,0.757,36.641,5.449,36.457,26.504,27.402,7.494,8.768
301,0.761,36.738,5.5,36.467,26.515,28.387,7.494,8.767
302,0.764,36.432,5.449,36.496,26.529,29.332,7.575,8.929
303,0.774,36.554,5.507,36.477,26.525,29.83,7.575,9.093
304,0.764,36.641,5.516,36.429,26.511,30.241,7.454,9.136
305,0.757,36.728,5.473,36.466,26.518,30.652,7.493,9.177
306,0.77,36.442,5.512,36.505,26.529,31.103,7.697,9.38
307,0.774,36.554,5.477,36.477,26.518,30.945,7.618,9.505
308,0.761,36.651,5.465,36.467,26.508,30.781,7.413,9.425
309,0.767,36.738,5.437,36.476,26.515,30.535,7.533,9.586
310,0.77,36.547,5.488,36.496,26.525,30.289,7.657,9.832
311,0.757,36.641,5.539,36.486,26.518,29.676,7.576,9.794
312,0.757,36.767,5.45,36.457,26.518,29.06,7.454,9.753
313,0.764,36.816,5.531,36.476,26.515,28.526,7.493,9.955
314,0.748,36.5,5.493,36.476,26.522,27.91,7.697,10.324
315,0.773,36.65,5.469,36.476,26.525,27.335,7.618,10.327
316,0.774,36.767,5.519,36.505,26.518,26.557,7.617,10.327
317,0.777,36.768,5.426,36.477,26.518,26.061,7.617,10.408
318,0.777,36.423,5.48,36.476,26.522,25.568,7.739,10.613
319,0.8,36.573,5.516,36.476,26.522,25.116,7.699,10.615
320,0.797,36.689,5.457,36.505,26.522,24.868,7.699,10.615
321,0.813,36.604,5.5,36.467,26.518,24.459,7.78,10.574
322,0.81,36.622,5.465,36.457,26.515,24.211,7.74,10.655
323,0.807,36.757,5.512,36.486,26.518,24.045,7.781,10.615
324,0.846,36.854,5.543,36.486,26.522,23.841,7.74,10.615
325,0.843,36.395,5.473,36.477,26.518,23.716,7.821,10.533
326,0.817,36.505,5.5,36.438,26.511,24.162,7.822,10.451
327,0.836,36.65,5.449,36.467,26.522,25.183,7.863,10.41
328,0.82,36.738,5.515,36.486,26.525,26.698,7.985,10.369
329,0.81,36.375,5.504,36.467,26.515,28.014,7.905,10.287
330,0.807,36.515,5.453,36.457,26.518,29.003,7.904,10.205
331,0.82,36.66,5.539,36.467,26.518,29.907,7.945,10.326
332,0.826,36.729,5.446,36.486,26.525,30.567,8.067,10.368
333,0.807,36.499,5.484,36.467,26.522,30.98,8.028,10.246
334,0.82,36.631,5.539,36.457,26.511,31.025,7.946,10.286
335,0.846,36.786,5.419,36.486,26.522,31.107,8.067,10.408
336,0.843,36.807,5.468,36.486,26.518,30.864,8.15,10.45
337,0.836,36.414,5.508,36.457,26.518,30.373,8.069,10.45
338,0.865,36.553,5.395,36.457,26.511,29.758,7.946,10.328
339,0.892,36.718,5.538,36.486,26.522,29.183,8.067,10.449
340,0.902,36.72,5.442,36.467,26.525,28.527,8.109,10.572
341,0.899,36.509,5.48,36.457,26.515,27.666,8.028,10.492
342,0.899,36.669,5.5,36.438,26.515,27.007,8.027,10.491
343,0.925,36.825,5.465,36.514,26.529,26.269,8.109,10.695
344,0.935,36.96,5.558,36.486,26.518,25.611,8.15,10.616
345,0.931,36.386,5.419,36.438,26.511,24.751,8.11,10.493
346,0.935,36.505,5.511,36.447,26.518,24.173,8.069,10.451
347,0.928,36.65,5.571,36.495,26.532,23.801,8.272,10.613
348,0.912,36.479,5.458,36.534,26.525,23.188,8.193,10.574
349,0.912,36.554,5.5,36.458,26.511,22.653,7.988,10.33
350,0.905,36.67,5.422,36.457,26.518,22.404,8.108,10.368
351,0.895,36.777,5.488,36.486,26.532,22.198,8.272,10.531
352,0.879,36.365,5.5,36.467,26.518,21.708,8.233,10.37
353,0.872,36.486,5.434,36.457,26.515,21.296,8.029,10.043
354,0.866,36.602,5.531,36.467,26.511,20.967,8.19,10.202
355,0.869,36.699,5.528,36.486,26.525,20.883,8.232,10.245
356,0.872,36.345,5.477,36.457,26.518,20.597,8.111,10.082
357,0.876,36.476,5.57,36.486,26.522,20.432,8.109,9.878
358,0.872,36.631,5.435,36.486,26.511,20.308,8.109,9.794
359,0.866,36.652,5.46,36.457,26.518,20.144,8.109,9.834
360,0.872,36.326,5.5,36.467,26.518,19.98,8.109,9.712
361,0.879,36.485,5.465,36.476,26.522,19.897,8.069,9.63
362,0.859,36.602,5.523,36.467,26.511,19.733,8.028,9.548
363,0.853,36.632,5.43,36.438,26.515,19.529,7.946,9.547
364,0.859,36.412,5.472,36.467,26.518,19.445,8.026,9.425
365,0.846,36.563,5.504,36.486,26.529,19.2,7.987,9.383
366,0.84,36.66,5.508,36.467,26.522,18.873,7.905,9.261
367,0.823,36.652,5.512,36.448,26.511,18.544,7.823,9.3
368,0.833,36.364,5.403,36.467,26.522,18.216,7.822,9.301
369,0.83,36.486,5.472,36.457,26.518,17.928,7.863,9.301
370,0.81,36.564,5.476,36.467,26.518,17.559,7.782,9.26
371,0.81,36.545,5.434,36.448,26.515,17.108,7.659,9.097
372,0.803,36.43,5.515,36.447,26.518,16.819,7.739,9.176
373,0.803,36.554,5.528,36.467,26.518,16.491,7.821,9.259
374,0.761,36.612,5.446,36.457,26.518,16.081,7.781,9.259
375,0.767,36.354,5.5,36.467,26.511,15.711,7.618,9.097
376,0.783,36.486,5.453,36.476,26.518,15.829,7.739,9.176
377,0.764,36.583,5.523,36.476,26.525,15.993,7.74,9.096
378,0.767,36.632,5.516,36.457,26.511,16.279,7.699,9.095
379,0.764,36.191,5.399,36.438,26.511,16.648,7.618,9.014
380,0.783,36.379,5.499,36.467,26.515,17.505,7.698,9.094
381,0.771,36.457,5.465,36.467,26.518,18.734,7.74,9.176
382,0.754,36.506,5.484,36.438,26.515,19.884,7.699,9.015
383,0.764,36.267,5.543,36.438,26.511,21.034,7.658,8.932
384,0.78,36.446,5.45,36.476,26.522,22.225,7.78,8.972
385,0.761,36.535,5.488,36.467,26.522,23.294,7.74,8.972
386,0.741,36.564,5.527,36.428,26.508,23.874,7.781,8.85
387,0.741,36.325,5.458,36.447,26.515,24.449,7.74,8.849
388,0.744,36.505,5.547,36.476,26.532,24.942,7.821,8.889
389,0.728,36.583,5.399,36.467,26.515,24.988,7.863,8.849
390,0.731,36.613,5.456,36.428,26.504,24.826,7.782,8.767
391,0.712,36.268,5.476,36.447,26.515,24.743,7.822,8.726
392,0.734,36.408,5.484,36.486,26.525,24.742,8.025,8.888
393,0.725,36.515,5.527,36.457,26.522,24.376,7.946,8.809
394,0.721,36.526,5.465,36.438,26.508,24.21,7.823,8.686
395,0.724,36.238,5.48,36.467,26.518,24.249,7.944,8.725
396,0.724,36.379,5.52,36.486,26.532,24.168,8.026,8.848
397,0.721,36.476,5.481,36.467,26.518,23.882,7.946,8.727
398,0.731,36.372,5.465,36.448,26.511,23.554,7.783,8.603
399,0.721,36.323,5.441,36.457,26.515,23.266,7.862,8.602
400,0.728,36.457,5.507,36.486,26.532,23.06,8.026,8.724
401,0.734,36.554,5.52,36.467,26.522,22.611,7.865,8.603
402,0.741,36.104,5.481,36.457,26.508,22.078,7.782,8.399
403,0.725,36.224,5.527,36.457,26.515,21.747,7.862,8.478
404,0.747,36.321,5.419,36.457,26.525,21.581,8.026,8.601
405,0.741,36.428,5.523,36.467,26.518,21.133,7.946,8.521
406,0.747,36.189,5.524,36.448,26.515,20.6,7.783,8.439
407,0.734,36.321,5.5,36.438,26.518,20.31,7.903,8.519
408,0.728,36.457,5.528,36.514,26.525,20.022,7.985,8.805
409,0.734,36.535,5.461,36.467,26.518,19.572,7.864,8.645
410,0.725,36.094,5.539,36.457,26.522,19.161,7.822,8.562
411,0.715,36.215,5.462,36.457,26.515,18.913,7.822,8.724
412,0.708,36.312,5.508,36.448,26.522,18.666,7.863,8.766
413,0.721,36.409,5.539,36.447,26.525,18.542,7.904,8.848
414,0.715,36.151,5.462,36.476,26.525,18.581,7.782,8.808
415,0.715,36.301,5.496,36.457,26.518,18.582,7.862,8.889
416,0.715,36.389,5.442,36.428,26.515,18.785,7.782,9.093
417,0.724,36.419,5.468,36.457,26.518,19.194,7.862,9.095
418,0.734,36.18,5.523,36.534,26.525,19.889,7.822,9.136
419,0.725,36.302,5.395,36.458,26.518,20.628,7.7,9.136
420,0.724,36.38,5.491,36.438,26.511,21.448,7.78,9.177
421,0.724,36.716,5.516,36.476,26.515,22.188,7.822,9.218
422,0.734,36.269,5.489,36.486,26.525,22.806,7.781,9.3
423,0.725,36.37,5.516,36.438,26.511,23.096,7.822,9.219
424,0.728,36.438,5.414,36.428,26.508,23.181,7.741,9.137
425,0.741,36.141,5.468,36.457,26.522,23.304,7.821,9.258
426,0.751,36.167,5.531,36.448,26.518,23.345,7.903,9.178
427,0.731,36.263,5.481,36.457,26.515,23.142,7.904,9.096
428,0.725,36.36,5.504,36.438,26.515,22.978,7.863,9.095
429,0.731,35.968,5.434,36.457,26.522,22.813,7.904,9.176
430,0.725,36.098,5.515,36.457,26.525,22.568,7.945,9.137
431,0.715,36.215,5.528,36.457,26.525,22.199,7.945,9.095
432,0.711,36.293,5.446,36.438,26.515,21.789,7.905,8.973
433,0.731,36.082,5.511,36.457,26.525,21.501,7.945,9.053
434,0.715,36.215,5.422,36.467,26.522,21.091,8.026,9.054
435,0.702,36.321,5.488,36.457,26.522,20.64,7.946,8.932
436,0.698,36.399,5.523,36.438,26.511,20.229,7.945,8.89
437,0.721,36.064,5.481,36.467,26.522,20.102,8.026,8.89
438,0.724,36.186,5.496,36.457,26.522,20.02,8.109,8.89
439,0.715,36.263,5.403,36.428,26.518,20.06,8.069,8.768
440,0.741,36.341,5.488,36.457,26.511,20.263,8.028,8.685
441,0.764,36.121,5.434,36.486,26.522,20.754,8.109,8.644
442,0.767,36.234,5.468,36.457,26.525,21.165,8.109,8.725
443,0.761,36.331,5.519,36.419,26.511,21.698,8.069,8.603
444,0.796,36.37,5.43,36.428,26.515,22.719,8.028,8.44
445,0.836,36.035,5.527,36.476,26.525,24.275,8.068,8.438
446,0.869,36.137,5.536,36.438,26.525,25.673,8.028,8.479
447,0.895,36.196,5.477,36.419,26.504,26.784,7.946,8.398
448,0.905,36.321,5.5,36.438,26.518,27.731,7.945,8.397
449,0.951,36.054,5.434,36.476,26.536,28.553,8.067,8.56
450,0.99,36.147,5.5,36.457,26.522,28.846,8.028,8.643
451,1.02,36.244,5.504,36.428,26.508,28.808,7.946,8.481
452,1.04,35.967,5.461,36.438,26.518,28.726,7.986,8.601
453,1.089,36.089,5.523,36.476,26.532,28.685,8.149,8.765
454,1.128,36.167,5.45,36.457,26.522,28.156,8.028,8.889
455,1.171,36.244,5.445,36.438,26.504,27.459,7.865,8.768
456,1.194,35.804,5.531,36.438,26.515,27.005,7.904,8.97
457,1.217,35.943,5.438,36.486,26.532,26.635,7.985,9.175
458,1.25,36.079,5.511,36.544,26.518,25.818,7.946,9.259
459,1.292,36.147,5.403,36.439,26.508,25.078,7.783,9.259
460,1.355,35.966,5.46,36.419,26.511,24.542,7.862,9.422
461,1.424,36.127,5.519,36.466,26.525,24.252,8.066,9.708
462,1.483,36.234,5.481,36.448,26.515,23.883,7.784,9.792
463,1.526,36.302,5.523,36.457,26.515,23.758,7.7,9.671
464,1.585,35.804,5.399,36.428,26.515,23.756,7.78,9.995
465,1.628,35.953,5.468,36.438,26.522,24.0,7.944,10.324
466,1.706,36.05,5.558,36.438,26.522,24.043,7.823,10.449
467,1.713,36.099,5.454,36.438,26.518,24.207,7.7,10.694
468,1.697,35.956,5.488,36.447,26.515,24.493,7.699,10.981
469,1.71,36.089,5.504,36.428,26.518,24.862,7.861,11.391
470,1.72,36.205,5.43,36.457,26.518,25.028,7.782,11.558
471,1.697,36.245,5.542,36.448,26.522,25.03,7.7,11.64
472,1.668,35.9,5.411,36.419,26.515,24.989,7.658,11.723
473,1.641,36.03,5.484,36.438,26.522,24.948,7.861,12.049
474,1.566,36.156,5.547,36.447,26.525,24.907,7.944,12.052
475,1.549,36.148,5.454,36.457,26.518,24.744,7.945,12.133
476,1.53,36.091,5.515,36.438,26.522,24.62,7.864,12.134
477,1.513,36.186,5.422,36.428,26.515,24.375,8.107,12.5
478,1.461,36.321,5.515,36.438,26.515,24.128,8.15,12.544
479,1.373,35.843,5.512,36.438,26.522,23.801,8.273,12.667
480,1.258,35.924,5.453,36.438,26.518,23.35,8.314,13.034
481,1.136,36.021,5.496,36.428,26.511,23.102,8.437,13.485
482,1.038,36.137,5.457,36.438,26.518,22.815,8.56,13.937
483,0.936,35.832,5.492,36.457,26.525,22.487,8.602,14.51
484,0.886,35.934,5.531,36.428,26.518,22.199,8.562,15.207
485,0.833,36.06,5.434,36.428,26.511,21.993,8.643,16.109
486,0.787,36.147,5.523,36.428,26.518,21.787,8.765,17.094
487,0.741,35.784,5.45,36.438,26.522,21.704,8.726,18.12
488,0.695,35.933,5.523,36.457,26.515,21.703,8.766,19.106
489,0.695,36.04,5.504,36.419,26.508,21.703,8.685,20.051
490,0.718,36.128,5.469,36.457,26.525,21.825,8.807,20.833
491,0.75,35.812,5.558,36.448,26.525,21.867,8.808,21.532
492,0.744,35.943,5.431,36.447,26.511,21.745,8.848,21.864
493,0.76,36.06,5.515,36.428,26.508,21.459,8.767,22.03
494,0.793,36.118,5.496,36.438,26.515,21.375,8.807,22.154
495,0.8,35.898,5.461,36.457,26.525,21.13,8.889,22.114
496,0.79,36.011,5.508,36.438,26.522,20.803,8.768,21.87
497,0.797,36.108,5.43,36.409,26.508,20.555,8.726,21.542
498,0.82,36.167,5.472,36.418,26.522,20.431,8.766,21.295
499,0.813,35.851,5.469,36.438,26.525,20.227,8.848,21.008
500,0.813,35.944,5.484,36.428,26.518,20.062,8.767,20.761
501,0.826,36.05,5.562,36.428,26.515,19.816,8.645,20.474
502,0.836,35.917,5.446,36.447,26.518,19.855,8.765,20.512
503,0.817,35.916,5.496,36.457,26.525,19.855,8.807,20.593
504,0.807,35.992,5.485,36.457,26.518,19.814,8.726,20.675
505,0.787,36.108,5.453,36.428,26.518,19.773,8.685,21.001
506,0.777,35.726,5.543,36.428,26.518,19.854,8.684,21.411
507,0.787,35.856,5.462,36.447,26.522,19.977,8.807,21.944
508,0.738,35.973,5.469,36.457,26.518,20.263,8.726,22.356
509,0.738,36.031,5.391,36.428,26.508,20.591,8.644,22.645
510,0.747,35.725,5.499,36.438,26.518,21.082,8.725,22.973
511,0.728,35.866,5.539,36.438,26.525,21.575,8.726,23.22
512,0.721,35.953,5.45,36.419,26.518,21.783,8.685,23.304
513,0.731,36.05,5.507,36.409,26.511,21.988,8.603,23.264
514,0.738,35.668,5.453,36.428,26.518,22.194,8.684,23.223
515,0.734,35.827,5.476,36.457,26.525,22.237,8.562,23.141
516,0.731,35.915,5.519,36.419,26.515,22.074,8.602,22.774
517,0.738,35.954,5.446,36.409,26.511,21.829,8.48,22.324
518,0.738,35.715,5.488,36.428,26.522,21.664,8.52,22.034
519,0.738,35.837,5.504,36.447,26.532,21.337,8.52,21.584
520,0.731,35.934,5.43,36.428,26.518,20.927,8.439,21.133
521,0.728,35.973,5.492,36.418,26.511,20.476,8.479,20.6
522,0.741,35.811,5.457,36.438,26.518,20.186,8.479,20.188
523,0.747,35.924,5.515,36.457,26.529,19.817,8.52,19.817
524,0.728,36.002,5.399,36.419,26.515,19.285,8.398,19.326
525,0.734,36.348,5.468,36.418,26.508,18.833,8.275,18.874
526,0.754,35.767,5.547,36.438,26.522,18.503,8.355,18.544
527,0.744,35.866,5.473,36.438,26.529,18.053,8.397,18.175
528,0.734,35.953,5.492,36.419,26.518,17.601,8.275,17.846
529,0.728,35.724,5.387,36.409,26.518,17.149,8.193,17.355
530,0.731,35.818,5.507,36.428,26.518,16.819,8.273,17.147
531,0.721,35.924,5.434,36.438,26.518,16.735,8.233,16.9
532,0.715,35.992,5.48,36.409,26.515,16.653,8.273,16.451
533,0.718,35.677,5.527,36.428,26.515,16.652,8.111,15.999
534,0.724,35.846,5.45,36.457,26.522,17.14,8.109,15.832
535,0.715,35.963,5.5,36.457,26.525,17.592,8.191,15.627
536,0.702,35.993,5.407,36.419,26.518,18.165,8.151,15.178
537,0.708,35.638,5.515,36.399,26.504,18.781,8.11,14.807
538,0.737,35.846,5.489,36.457,26.522,19.438,8.15,14.56
539,0.731,35.934,5.457,36.409,26.525,19.932,8.15,14.313
540,0.728,35.973,5.5,36.39,26.511,20.222,8.069,14.026
541,0.741,35.619,5.399,36.418,26.515,20.428,8.069,13.698
542,0.741,35.788,5.499,36.466,26.532,20.796,8.191,13.532
543,0.741,35.876,5.52,36.457,26.522,20.84,8.11,13.286
544,0.741,35.906,5.415,36.4,26.504,20.841,8.109,12.959
545,0.731,35.714,5.499,36.418,26.515,20.922,8.028,12.671
546,0.744,35.894,5.461,36.457,26.532,21.126,8.149,12.465
547,0.734,35.963,5.461,36.428,26.518,21.169,8.15,12.3
548,0.728,35.993,5.511,36.409,26.511,21.047,8.028,12.014
549,0.731,36.664,5.387,36.409,26.511,21.249,8.068,11.808
550,0.731,36.825,5.515,36.457,26.539,21.414,8.191,11.724
551,0.725,36.893,5.43,36.428,26.518,21.334,8.029,11.601
552,0.721,36.175,5.468,36.399,26.508,21.13,7.987,11.356
553,0.728,35.209,5.496,36.418,26.515,21.087,7.986,11.273
554,0.725,35.352,5.477,36.466,26.532,21.25,8.149,11.19
555,0.734,35.45,5.531,36.428,26.515,21.211,8.11,11.068
556,0.725,35.662,5.407,36.399,26.511,21.169,7.825,10.782
557,0.728,35.827,5.495,36.409,26.518,21.494,7.985,10.698
558,0.738,35.972,5.508,36.457,26.525,21.823,8.19,10.778
559,0.738,36.06,5.446,36.419,26.522,22.111,8.07,10.576
560,0.734,35.601,5.523,36.418,26.511,22.48,7.946,10.248
561,0.741,35.721,5.45,36.428,26.515,22.849,8.026,10.286
562,0.741,35.866,5.511,36.438,26.522,23.259,8.149,10.408
563,0.747,35.944,5.504,36.419,26.518,23.508,8.028,10.206
564,0.76,35.599,5.418,36.409,26.522,23.876,7.824,9.919
565,0.757,35.74,5.492,36.418,26.511,24.286,7.944,9.916
566,0.741,35.837,5.461,36.409,26.522,24.534,7.945,9.916
567,0.747,35.924,5.461,36.409,26.525,24.903,7.945,9.835
568,0.747,35.523,5.504,36.418,26.518,25.272,7.864,9.712
569,0.728,35.643,5.453,36.399,26.522,25.682,7.944,9.589
570,0.731,35.759,5.519,36.418,26.515,26.093,7.986,9.588
571,0.734,35.837,5.418,36.418,26.522,26.585,7.905,9.425
572,0.738,35.79,5.499,36.438,26.522,27.363,8.026,9.383
573,0.738,35.924,5.512,36.419,26.515,28.184,8.027,9.301
574,0.728,36.002,5.45,36.409,26.511,28.964,8.027,9.26
575,0.728,36.041,5.504,36.418,26.515,29.948,8.068,9.259
576,0.738,35.639,5.453,36.418,26.522,31.299,8.069,9.178
577,0.734,35.75,5.492,36.428,26.515,32.289,8.028,9.096
578,0.741,35.856,5.481,36.409,26.515,33.234,8.027,9.014
579,0.747,35.714,5.465,36.428,26.518,33.975,8.068,8.932
580,0.767,35.645,5.543,36.428,26.518,34.633,8.15,8.931
581,0.757,35.75,5.462,36.418,26.518,35.005,8.028,8.89
582,0.757,35.847,5.508,36.399,26.515,35.172,8.027,8.849
583,0.764,35.56,5.512,36.418,26.515,35.336,8.109,8.767
584,0.774,35.682,5.465,36.418,26.522,35.094,8.15,8.767
585,0.777,35.817,5.504,36.418,26.522,34.685,8.11,8.645
586,0.784,35.876,5.41,36.38,26.522,34.03,8.028,8.603
587,0.774,35.465,5.464,36.399,26.515,33.332,8.149,8.562
588,0.764,35.623,5.508,36.495,26.529,32.553,8.191,8.602
589,0.764,35.721,5.446,36.41,26.518,31.61,8.11,8.521
590,0.761,35.789,5.527,36.399,26.511,30.584,8.109,8.398
591,0.774,35.512,5.45,36.409,26.518,29.801,8.15,8.438
592,0.764,35.691,5.523,36.418,26.525,28.94,8.273,8.519
593,0.741,35.779,5.497,36.39,26.522,28.077,8.193,8.479
594,0.731,35.838,5.473,36.38,26.511,27.499,8.11,8.479
595,0.751,35.522,5.519,36.399,26.515,27.168,8.069,8.601
596,0.754,35.662,5.438,36.409,26.532,26.962,8.15,8.602
597,0.751,35.76,5.488,36.399,26.515,26.635,8.15,8.521
598,0.757,35.789,5.418,36.399,26.508,26.265,8.028,8.601
599,0.787,35.531,5.394,36.389,26.522,26.018,8.068,8.724
600,0.784,35.653,5.499,36.418,26.518,25.852,8.191,8.888
601,0.774,35.75,5.539,36.399,26.522,25.607,8.029,8.971
602,0.784,35.818,5.458,36.389,26.515,25.442,7.987,9.013
603,0.78,35.56,5.531,36.409,26.511,25.278,7.986,9.257
604,0.8,35.672,5.446,36.409,26.525,25.154,8.027,9.259
605,0.787,35.769,5.453,36.399,26.518,25.071,7.865,9.259
606,0.787,35.454,5.531,36.38,26.511,24.908,7.944,9.3
607,0.787,35.46,5.446,36.389,26.515,24.784,7.945,9.382
608,0.78,35.604,5.5,36.447,26.525,24.702,7.864,9.382
609,0.771,35.673,5.488,36.409,26.522,24.538,7.863,9.382
610,0.777,35.539,5.418,36.39,26.515,24.455,7.782,9.301
611,0.787,35.73,5.503,36.418,26.525,24.78,7.781,9.341
612,0.777,35.837,5.465,36.409,26.518,24.946,7.862,9.342
613,0.771,35.905,5.48,36.39,26.518,24.947,7.782,9.301
614,0.774,35.34,5.52,36.409,26.508,25.069,7.781,9.301
615,0.787,35.536,5.442,36.418,26.518,25.396,7.74,9.26
616,0.787,35.643,5.507,36.418,26.518,25.521,7.781,9.3
617,0.78,35.683,5.516,36.39,26.515,25.604,7.618,9.26
618,0.777,35.405,5.469,36.466,26.511,25.442,7.576,9.097
619,0.797,35.565,5.5,36.419,26.515,25.318,7.698,9.176
620,0.803,35.692,5.418,36.418,26.522,25.114,7.74,9.177
621,0.8,35.693,5.456,36.399,26.515,24.665,7.618,9.137
622,0.79,35.501,5.476,36.38,26.515,24.131,7.617,9.095
623,0.826,35.662,5.473,36.428,26.518,23.76,7.657,9.176
624,0.817,35.76,5.496,36.409,26.522,23.309,7.658,9.096
625,0.8,35.78,5.434,36.399,26.518,23.02,7.658,8.973
626,0.813,35.435,5.527,36.38,26.515,23.058,7.455,8.85
627,0.826,35.594,5.473,36.418,26.522,23.546,7.574,8.93
628,0.813,35.711,5.519,36.409,26.515,24.242,7.657,8.931
629,0.8,35.856,5.516,36.39,26.511,25.144,7.536,8.89
630,0.8,35.512,5.473,36.38,26.511,26.738,7.494,8.768
631,0.816,35.681,5.516,36.428,26.529,28.828,7.534,8.848
632,0.807,35.75,5.414,36.418,26.518,30.8,7.616,8.849
633,0.787,35.406,5.452,36.38,26.508,32.243,7.495,8.808
634,0.793,35.469,5.531,36.399,26.515,33.315,7.453,8.686
635,0.813,35.671,5.438,36.447,26.522,34.26,7.452,8.766
636,0.807,35.741,5.523,36.428,26.522,34.92,7.452,8.726
637,0.807,35.425,5.442,36.38,26.515,35.171,7.33,8.726
638,0.816,35.575,5.504,36.485,26.511,35.133,7.329,8.685
639,0.833,35.749,5.5,36.429,26.532,35.01,7.329,8.644
640,0.826,35.789,5.449,36.409,26.518,34.724,7.37,8.725
641,0.823,35.339,5.496,36.38,26.511,33.949,7.289,8.685
642,0.843,35.507,5.43,36.408,26.515,33.413,7.329,8.684
643,0.846,35.653,5.527,36.457,26.536,32.797,7.614,8.888
644,0.849,35.702,5.446,36.419,26.525,31.856,7.495,8.849
645,0.843,35.511,5.461,36.38,26.504,30.993,7.331,8.767
646,0.843,35.643,5.539,36.399,26.511,30.334,7.37,8.889
647,0.843,35.779,5.438,36.447,26.532,29.921,7.614,9.012
648,0.833,35.828,5.484,36.409,26.525,29.347,7.535,9.094
649,0.836,35.512,5.52,36.39,26.515,28.65,7.494,8.892
650,0.83,35.662,5.43,36.409,26.522,28.399,7.494,9.052
651,0.833,35.798,5.523,36.447,26.536,28.397,7.697,9.217
652,0.83,35.828,5.418,36.428,26.525,28.275,7.618,9.096
653,0.83,35.454,5.48,36.409,26.515,28.111,7.495,8.932
654,0.833,35.566,5.496,36.409,26.515,28.028,7.616,9.053
655,0.833,35.682,5.469,36.447,26.522,28.109,7.82,9.257
656,0.83,35.702,5.523,36.419,26.522,27.906,7.7,9.097
657,0.846,35.645,5.434,36.418,26.518,27.66,7.658,8.973
658,0.849,35.759,5.484,36.409,26.518,27.333,7.739,9.013
659,0.84,35.837,5.504,36.428,26.518,27.004,7.862,9.216
660,0.859,35.503,5.485,36.409,26.518,26.432,7.741,8.974
661,0.866,35.605,5.508,36.418,26.518,25.938,7.781,8.972
662,0.866,35.74,5.453,36.418,26.522,25.364,7.862,8.891
663,0.876,35.799,5.484,36.409,26.511,24.951,7.863,8.971
664,0.876,35.502,5.473,36.399,26.515,24.785,8.026,9.013
665,0.879,35.653,5.476,36.428,26.522,24.986,8.027,8.932
666,0.879,35.769,5.555,36.418,26.518,25.314,8.027,8.931
667,0.879,35.837,5.399,36.409,26.511,25.805,8.068,8.85
668,0.885,35.579,5.48,36.418,26.518,26.216,8.069,8.93
669,0.872,35.711,5.516,36.418,26.532,26.505,8.069,8.85
670,0.869,35.827,5.485,36.409,26.518,26.996,8.15,8.849
671,0.866,35.867,5.508,36.409,26.515,27.163,8.11,8.889
672,0.879,35.762,5.43,36.409,26.518,27.653,8.191,8.89
673,0.879,35.914,5.507,36.428,26.525,27.902,8.232,8.89
674,0.863,36.011,5.512,36.409,26.522,27.945,8.233,8.849
675,0.859,36.041,5.418,36.399,26.511,27.742,8.192,8.808
676,0.882,35.763,5.507,36.399,26.522,27.821,8.273,8.93
677,0.882,35.914,5.442,36.418,26.525,27.659,8.396,8.89
678,0.885,35.992,5.476,36.457,26.525,27.536,8.316,8.809
679,0.885,35.993,5.484,36.38,26.511,27.209,8.315,8.686
680,0.908,35.897,5.457,36.408,26.518,27.003,8.274,8.684
681,0.902,36.011,5.527,36.399,26.525,26.716,8.396,8.684
682,0.899,36.099,5.426,36.399,26.515,26.144,8.356,8.684
683,0.908,36.052,5.527,36.389,26.511,25.65,8.315,8.522
684,0.934,36.099,5.442,36.409,26.518,25.28,8.396,8.601
685,0.928,36.215,5.496,36.399,26.518,24.951,8.438,8.684
686,0.918,36.273,5.524,36.38,26.518,24.541,8.397,8.522
687,0.922,36.571,5.434,36.38,26.508,24.212,8.316,8.561
688,0.931,36.785,5.523,36.428,26.522,24.005,8.396,8.602
689,0.928,36.864,5.411,36.409,26.518,23.84,8.356,8.643
690,0.902,36.903,5.491,36.38,26.511,23.554,8.315,8.603
691,0.908,35.82,5.418,36.38,26.515,23.47,8.274,8.602
692,0.918,35.991,5.527,36.418,26.525,23.428,8.396,8.643
693,0.912,36.089,5.512,36.409,26.525,23.184,8.356,8.603
694,0.918,36.128,5.465,36.38,26.508,22.937,8.397,8.602
695,0.909,36.311,5.504,36.389,26.508,22.813,8.397,8.562
696,0.921,36.514,5.489,36.437,26.525,22.812,8.478,8.521
697,0.918,36.583,5.52,36.409,26.515,23.015,8.398,8.642
698,0.928,36.613,5.469,36.38,26.508,23.139,8.356,8.521
699,0.925,36.258,5.441,36.38,26.518,23.425,8.315,8.561
700,0.944,36.427,5.504,36.437,26.532,23.672,8.477,8.602
701,0.954,36.534,5.43,36.409,26.518,23.796,8.438,8.562
702,0.941,36.535,5.453,36.38,26.508,23.635,8.275,8.521
703,0.951,36.516,5.527,36.38,26.515,23.674,8.274,8.52
704,0.964,36.65,5.454,36.418,26.529,23.715,8.436,8.601
705,0.958,36.757,5.515,36.409,26.518,23.553,8.316,8.643
706,0.958,37.075,5.414,36.361,26.511,23.429,8.152,8.481
707,0.961,36.637,5.519,36.36,26.515,23.834,8.191,8.438
708,0.961,36.795,5.504,36.427,26.525,24.57,8.354,8.682
709,0.945,36.874,5.434,36.39,26.522,25.106,8.193,8.562
710,0.964,36.74,5.5,36.389,26.508,25.762,8.11,8.48
711,0.938,36.777,5.52,36.38,26.511,26.46,8.15,8.438
712,0.938,36.902,5.454,36.389,26.525,27.321,8.232,8.601
713,0.941,36.999,5.5,36.389,26.518,27.858,8.151,8.562
714,0.951,37.499,5.438,36.389,26.525,28.351,8.069,8.439
715,0.958,37.658,5.464,36.38,26.515,28.519,8.028,8.438
716,0.945,37.774,5.515,36.38,26.522,28.602,8.149,8.56
717,0.951,37.833,5.465,36.399,26.515,28.44,8.15,8.48
718,0.967,36.596,5.531,36.485,26.529,28.032,8.191,8.398
719,0.968,36.709,5.454,36.381,26.515,27.54,8.11,8.275
720,0.961,36.806,5.468,36.389,26.515,26.966,8.109,8.314
721,0.968,36.903,5.5,36.389,26.515,26.309,8.109,8.274
722,0.968,37.134,5.446,36.409,26.522,25.774,8.191,8.355
723,0.971,37.27,5.496,36.39,26.518,25.159,8.11,8.234
724,0.977,37.348,5.531,36.38,26.511,24.665,8.15,8.192
725,0.984,37.445,5.45,36.399,26.515,24.335,8.191,8.232
726,0.978,37.005,5.55,36.399,26.518,24.087,8.273,8.192
727,0.964,37.125,5.462,36.399,26.518,23.841,8.274,8.11
728,0.948,37.222,5.508,36.38,26.504,23.594,8.274,8.109
729,0.977,37.271,5.531,36.38,26.518,23.592,8.396,8.109
730,0.948,37.367,5.465,36.408,26.518,23.795,8.438,8.191
731,0.925,37.474,5.547,36.38,26.511,24.082,8.56,8.151
732,0.935,37.58,5.395,36.38,26.508,24.41,8.561,8.028
733,0.945,37.658,5.48,36.399,26.518,24.983,8.764,8.19
734,0.928,37.323,5.512,36.409,26.525,25.761,8.767,8.232
735,0.915,37.426,5.446,36.38,26.522,26.541,8.807,8.111
736,0.922,37.522,5.496,36.389,26.508,27.118,8.808,8.109
737,0.931,37.408,5.434,36.418,26.522,27.815,8.848,8.191
738,0.928,37.484,5.492,36.409,26.529,28.269,8.849,8.232
739,0.915,37.571,5.481,36.361,26.515,28.477,8.808,8.192
740,0.918,37.668,5.477,36.379,26.511,28.804,8.848,8.232
741,0.925,37.41,5.504,36.418,26.525,29.377,8.93,8.273
742,0.922,37.503,5.453,36.418,26.522,29.627,8.972,8.274
743,0.922,37.59,5.484,36.38,26.508,29.832,8.931,8.314
744,0.925,37.668,5.43,36.389,26.511,30.038,8.85,8.193
745,0.922,37.4,5.472,36.428,26.532,30.609,9.011,8.354
746,0.905,37.522,5.519,36.39,26.522,30.737,8.972,8.315
747,0.895,37.61,5.43,36.37,26.511,30.657,8.769,8.193
748,0.882,37.735,5.472,36.418,26.511,30.778,8.889,8.232
749,0.895,37.602,5.484,36.428,26.529,30.86,9.012,8.395
750,0.879,37.745,5.445,36.409,26.522,30.699,8.932,8.275
751,0.872,37.861,5.527,36.38,26.515,30.453,8.768,8.111
752,0.856,37.862,5.43,36.399,26.522,30.166,8.848,8.191
753,0.849,37.46,5.507,36.418,26.532,30.285,9.011,8.354
754,0.843,37.59,5.524,36.399,26.518,30.205,8.932,8.234
755,0.839,37.706,5.465,36.418,26.511,30.163,8.687,8.111
756,0.839,37.717,5.523,36.399,26.518,30.122,8.766,8.109
757,0.836,37.516,5.45,36.389,26.532,30.163,8.929,8.272
758,0.849,37.658,5.457,36.447,26.522,29.878,8.768,8.193
759,0.836,37.765,5.508,36.4,26.518,29.631,8.726,8.192
760,0.843,37.66,5.446,36.389,26.518,29.345,8.685,8.273
761,0.836,37.582,5.523,36.399,26.525,29.138,8.725,8.518
762,0.843,37.716,5.426,36.399,26.518,28.689,8.644,8.479
763,0.843,37.813,5.507,36.418,26.522,28.278,8.521,8.479
764,0.846,37.507,5.485,36.38,26.518,27.745,8.52,8.479
765,0.84,37.619,5.453,36.37,26.518,27.415,8.561,8.682
766,0.839,37.745,5.554,36.38,26.518,27.167,8.439,8.644
767,0.833,37.833,5.466,36.399,26.518,26.962,8.438,8.684
768,0.817,37.431,5.465,36.38,26.511,26.756,8.357,8.684
769,0.816,37.542,5.484,36.389,26.522,26.917,8.356,8.725
770,0.813,37.667,5.434,36.399,26.525,27.163,8.275,8.766
771,0.807,37.755,5.511,36.409,26.525,27.409,8.274,8.767
772,0.803,37.602,5.516,36.39,26.518,27.655,8.193,8.685
773,0.79,37.706,5.461,36.37,26.511,28.024,8.192,8.766
774,0.771,37.832,5.523,36.418,26.522,28.475,8.11,8.767
775,0.783,37.91,5.418,36.409,26.522,28.804,8.109,8.807
776,0.777,37.585,5.507,36.399,26.522,28.889,7.947,8.604
777,0.774,37.697,5.504,36.38,26.518,28.849,7.945,8.684
778,0.79,37.832,5.422,36.399,26.518,28.768,7.986,8.603
779,0.79,37.891,5.507,36.409,26.518,28.442,8.027,8.643
780,0.777,37.565,5.434,36.399,26.515,28.032,7.865,8.562
781,0.777,37.668,5.492,36.389,26.511,27.418,7.782,8.521
782,0.78,37.793,5.504,36.399,26.522,26.964,7.862,8.479
783,0.79,37.804,5.469,36.418,26.518,26.309,7.741,8.52
784,0.79,37.68,5.488,36.39,26.518,25.53,7.659,8.439
785,0.78,37.822,5.43,36.361,26.511,24.79,7.617,8.357
786,0.793,37.939,5.515,36.399,26.518,24.214,7.657,8.437
787,0.784,37.662,5.508,36.389,26.518,23.517,7.78,8.397
788,0.774,37.63,5.453,36.389,26.518,22.86,7.618,8.356
789,0.774,37.755,5.472,36.38,26.515,22.121,7.617,8.193
790,0.774,37.842,5.418,36.408,26.522,21.545,7.617,8.314
791,0.767,37.507,5.492,36.409,26.525,20.97,7.617,8.274
792,0.748,37.581,5.524,36.399,26.522,20.272,7.495,8.274
793,0.754,37.716,5.446,36.38,26.511,19.656,7.494,8.193
794,0.757,37.803,5.531,36.399,26.518,19.202,7.616,8.192
795,0.754,37.459,5.419,36.428,26.522,18.669,7.617,8.192
796,0.754,37.561,5.507,36.409,26.518,18.217,7.454,8.029
797,0.761,37.687,5.543,36.37,26.511,17.846,7.452,8.068
798,0.77,37.755,5.497,36.408,26.518,17.802,7.452,8.028
799,0.77,37.564,5.508,36.418,26.525,17.883,7.493,8.068
800,0.774,37.687,5.453,36.399,26.522,17.965,7.371,7.987
801,0.774,37.774,5.48,36.38,26.515,18.047,7.33,7.946
802,0.78,37.852,5.488,36.408,26.525,18.333,7.37,7.986
803,0.777,37.536,5.477,36.418,26.522,18.62,7.452,8.027
804,0.777,37.619,5.508,36.39,26.518,18.826,7.33,7.865
805,0.78,37.735,5.414,36.38,26.518,19.031,7.289,7.863
806,0.784,37.784,5.488,36.389,26.522,19.278,7.369,7.944
807,0.78,37.564,5.52,36.399,26.522,19.321,7.37,7.986
808,0.754,37.677,5.45,36.38,26.515,19.199,7.289,7.946
809,0.764,37.784,5.507,36.38,26.511,19.157,7.207,7.905
810,0.764,38.073,5.43,36.408,26.518,19.36,7.328,8.026
811,0.751,37.424,5.507,36.399,26.518,19.647,7.289,8.109
812,0.738,37.522,5.477,36.399,26.522,19.853,7.247,8.028
813,0.757,37.639,5.461,36.389,26.511,20.099,7.206,7.987
814,0.757,37.467,5.527,36.418,26.515,20.508,7.328,8.149
815,0.751,37.513,5.438,36.418,26.522,20.715,7.37,8.232
816,0.741,37.59,5.507,36.39,26.511,20.921,7.33,8.192
817,0.744,37.697,5.399,36.38,26.515,21.085,7.37,8.151
818,0.773,37.353,5.48,36.428,26.522,21.168,7.37,8.15
819,0.771,37.464,5.508,36.399,26.515,21.088,7.37,8.273
820,0.754,37.552,5.446,36.361,26.501,20.762,7.289,8.193
821,0.777,37.648,5.5,36.399,26.518,20.677,7.369,8.11
822,0.78,37.419,5.543,36.437,26.532,20.473,7.452,8.313
823,0.774,37.522,5.458,36.428,26.522,20.024,7.412,8.274
824,0.761,37.619,5.476,36.38,26.508,19.491,7.33,8.193
825,0.777,37.707,5.406,36.38,26.518,19.119,7.37,8.232
826,0.777,37.362,5.515,36.428,26.529,18.953,7.533,8.436
827,0.777,37.512,5.489,36.399,26.522,18.382,7.412,8.438
828,0.758,37.6,5.422,36.38,26.511,17.848,7.249,8.438
829,0.748,37.649,5.503,36.399,26.511,17.517,7.328,8.641
830,0.757,37.429,5.492,36.418,26.529,17.27,7.451,8.847
831,0.757,37.561,5.492,36.409,26.525,16.78,7.371,8.808
832,0.748,37.658,5.524,36.39,26.515,16.246,7.208,8.767
833,0.741,37.697,5.391,36.38,26.515,15.916,7.287,8.929
834,0.731,37.41,5.468,36.408,26.522,15.546,7.451,9.134
835,0.741,37.551,5.469,36.409,26.515,15.136,7.371,9.095
836,0.747,37.658,5.496,36.409,26.522,14.848,7.37,9.176
837,0.757,37.554,5.488,36.399,26.518,14.398,7.37,9.259
838,0.748,37.322,5.43,36.38,26.511,14.149,7.452,9.3
839,0.757,37.454,5.476,36.418,26.518,13.862,7.33,9.382
840,0.767,37.542,5.422,36.418,26.525,13.534,7.41,9.261
841,0.761,37.284,5.492,36.399,26.511,13.164,7.411,9.3
842,0.754,37.358,5.512,36.409,26.511,12.958,7.411,9.341
843,0.767,37.512,5.434,36.428,26.515,12.711,7.411,9.382
844,0.78,37.581,5.503,36.409,26.525,12.465,7.452,9.301
845,0.78,37.294,5.504,36.39,26.515,12.219,7.412,9.26
846,0.764,37.406,5.477,36.389,26.515,12.013,7.411,9.3
847,0.767,37.522,5.547,36.399,26.518,11.97,7.411,9.301
848,0.767,37.619,5.438,36.428,26.525,12.092,7.411,9.301
849,0.764,37.256,5.468,36.418,26.511,12.215,7.371,9.26
850,0.748,37.386,5.484,36.39,26.511,12.541,7.33,9.259
851,0.757,37.532,5.461,36.409,26.518,12.87,7.41,9.178
852,0.764,37.6,5.504,36.428,26.522,13.28,7.452,9.177
853,0.757,37.275,5.438,36.409,26.522,13.447,7.371,9.177
854,0.751,37.396,5.476,36.399,26.518,13.733,7.37,9.299
855,0.757,37.532,5.492,36.409,26.518,14.02,7.411,9.301
856,0.764,37.562,5.485,36.418,26.525,14.267,7.411,9.382
857,0.754,37.294,5.523,36.418,26.515,14.392,7.33,9.301
858,0.748,37.444,5.415,36.38,26.511,14.434,7.329,9.301
859,0.76,37.542,5.468,36.408,26.518,14.556,7.289,9.301
860,0.767,37.562,5.469,36.428,26.518,14.598,7.369,9.341
861,0.764,37.236,5.476,36.428,26.518,14.558,7.37,9.301
862,0.77,37.367,5.492,36.399,26.515,14.395,7.33,9.26
863,0.78,37.493,5.438,36.409,26.518,14.393,7.37,9.341
864,0.774,37.466,5.476,36.418,26.525,14.393,7.411,9.342
865,0.774,37.446,5.379,36.409,26.518,14.271,7.371,9.301
866,0.774,37.542,5.518,36.39,26.515,14.188,7.37,9.26
867,0.774,37.658,5.469,36.409,26.522,14.228,7.37,9.3
868,0.764,37.18,5.414,36.409,26.532,14.269,7.492,9.341
869,0.757,37.261,5.507,36.428,26.518,14.188,7.412,9.301
870,0.764,37.358,5.508,36.38,26.511,14.025,7.411,9.26
871,0.77,37.483,5.45,36.418,26.518,14.023,7.452,9.259
872,0.761,37.207,5.496,36.418,26.522,14.064,7.534,9.259
873,0.748,37.338,5.442,36.409,26.518,14.024,7.534,9.219
874,0.741,37.454,5.433,36.409,26.508,14.145,7.534,9.137
875,0.767,37.552,5.503,36.409,26.522,14.431,7.616,9.258
876,0.767,37.313,5.461,36.409,26.518,14.841,7.657,9.3
877,0.748,37.425,5.492,36.399,26.515,15.007,7.698,9.178
878,0.754,37.542,5.399,36.38,26.501,15.212,7.618,9.015
879,0.78,37.61,5.472,36.418,26.521,15.458,7.739,9.094
880,0.78,37.112,5.523,36.418,26.522,15.583,7.781,9.176
881,0.767,37.212,5.438,36.409,26.522,15.625,7.7,9.055
882,0.777,37.367,5.519,36.399,26.515,15.584,7.618,8.973
883,0.793,37.436,5.442,36.418,26.518,15.665,7.739,9.013
884,0.793,37.197,5.476,36.428,26.518,15.707,7.943,9.135
885,0.774,37.319,5.48,36.39,26.518,15.626,7.783,8.974
886,0.78,37.416,5.445,36.38,26.508,15.584,7.74,8.891
887,0.787,37.685,5.484,36.428,26.522,15.625,7.943,8.89
888,0.774,37.276,5.43,36.399,26.518,15.625,7.945,8.971
889,0.761,37.377,5.484,36.38,26.508,15.503,7.823,8.85
890,0.751,37.474,5.496,36.399,26.518,15.339,7.781,8.808
891,0.77,37.302,5.469,36.437,26.522,15.581,7.944,8.848
892,0.764,37.291,5.512,36.399,26.515,15.625,7.945,8.93
893,0.761,37.387,5.43,36.37,26.508,15.544,7.823,8.768
894,0.77,37.503,5.48,36.399,26.515,15.624,7.822,8.685
895,0.78,37.197,5.512,36.437,26.525,15.747,7.863,8.847
896,0.764,37.28,5.473,36.428,26.518,15.707,7.863,8.808
897,0.757,37.348,5.531,36.371,26.511,15.626,7.822,8.808
898,0.764,37.455,5.43,36.389,26.511,15.462,7.781,8.604
899,0.787,37.168,5.499,36.447,26.525,15.461,7.781,8.684
900,0.774,37.271,5.508,36.428,26.518,15.257,7.822,8.766
901,0.767,37.358,5.496,36.39,26.511,15.052,7.741,8.645
902,0.78,37.426,5.516,36.389,26.508,14.847,7.74,8.521
903,0.787,37.081,5.45,36.437,26.522,14.804,7.781,8.601
904,0.784,37.174,5.492,36.409,26.522,14.56,7.781,8.521
905,0.787,37.261,5.488,36.37,26.511,14.313,7.659,8.439
906,0.79,37.319,5.484,36.389,26.518,14.026,7.617,8.397
907,0.79,37.1,5.508,36.466,26.525,14.023,7.698,8.438
908,0.774,37.212,5.418,36.438,26.515,13.779,7.699,8.357
909,0.774,37.281,5.48,36.38,26.511,13.492,7.618,8.315
910,0.774,37.31,5.52,36.389,26.518,13.449,7.535,8.234
911,0.774,37.042,5.493,36.447,26.529,13.448,7.697,8.314
912,0.758,37.164,5.539,36.438,26.518,13.123,7.658,8.315
913,0.767,37.251,5.395,36.409,26.515,12.795,7.455,8.152
914,0.77,37.358,5.48,36.428,26.515,12.71,7.493,8.313
915,0.764,37.09,5.504,36.418,26.532,12.709,7.616,8.518
916,0.761,37.203,5.465,36.418,26.522,12.465,7.576,8.358
917,0.757,37.3,5.515,36.409,26.518,12.219,7.372,8.234
918,0.774,37.013,5.434,36.409,26.518,12.176,7.37,8.314
919,0.771,37.077,5.468,36.418,26.522,12.216,7.533,8.477
920,0.774,37.203,5.531,36.399,26.522,12.054,7.453,8.316
921,0.78,37.3,5.501,36.437,26.515,12.093,7.371,8.396
922,0.78,36.783,5.504,36.419,26.511,12.012,7.37,8.316
923,0.764,36.921,5.43,36.418,26.515,11.889,7.411,8.356
924,0.79,37.038,5.476,36.418,26.522,11.847,7.371,8.397
925,0.79,37.135,5.43,36.438,26.522,11.765,7.37,8.438
926,0.784,37.002,5.496,36.409,26.522,11.683,7.33,8.357
927,0.784,37.115,5.508,36.418,26.518,11.601,7.289,8.356
928,0.777,37.27,5.43,36.438,26.518,11.6,7.329,8.397
929,0.777,37.339,5.488,36.428,26.525,11.682,7.289,8.356
930,0.767,36.87,5.445,36.409,26.511,11.642,7.207,8.356
931,0.761,37.018,5.476,36.418,26.508,11.641,7.247,8.437
932,0.764,37.135,5.5,36.418,26.511,11.763,7.247,8.56
933,0.764,37.194,5.41,36.428,26.522,11.887,7.288,8.602
934,0.748,36.782,5.456,36.428,26.522,11.806,7.207,8.602
935,0.751,36.921,5.492,36.418,26.508,11.887,7.165,8.602
936,0.774,37.057,5.477,36.418,26.518,11.928,7.206,8.684
937,0.764,37.078,5.519,36.418,26.525,11.929,7.287,8.766
938,0.764,36.857,5.493,36.438,26.518,11.807,7.166,8.767
939,0.764,36.951,5.422,36.419,26.515,11.724,7.165,8.726
940,0.764,37.096,5.488,36.418,26.518,11.764,7.246,8.848
941,0.77,37.011,5.418,36.438,26.522,11.805,7.288,8.849
942,0.77,36.876,5.495,36.428,26.518,11.724,7.166,8.767
943,0.757,37.009,5.426,36.409,26.508,11.561,7.206,8.726
944,0.796,37.096,5.457,36.428,26.518,11.64,7.206,8.766
945,0.777,36.733,5.515,36.438,26.522,11.763,7.287,8.767
946,0.774,36.787,5.481,36.419,26.522,11.887,7.207,8.726
947,0.761,36.922,5.5,36.409,26.511,12.05,7.125,8.685
948,0.77,37.076,5.496,36.428,26.522,12.418,7.165,8.725
949,0.77,36.589,5.442,36.428,26.529,12.706,7.206,8.766
950,0.774,36.68,5.5,36.438,26.522,12.994,7.165,8.767
951,0.754,36.844,5.426,36.428,26.511,13.485,7.165,8.645
952,0.767,36.951,5.503,36.438,26.518,14.099,7.165,8.765
953,0.764,36.789,5.524,36.457,26.525,14.797,7.287,8.807
954,0.748,36.893,5.399,36.438,26.511,15.373,7.166,8.767
955,0.747,37.019,5.491,36.428,26.515,16.11,7.124,8.645
956,0.773,37.116,5.543,36.438,26.518,16.931,7.165,8.684
957,0.754,36.618,5.426,36.457,26.518,17.671,7.206,8.807
958,0.738,36.728,5.492,36.409,26.518,18.247,7.165,8.645
959,0.76,36.844,5.414,36.418,26.508,18.7,7.043,8.603
960,0.767,36.941,5.476,36.447,26.522,19.193,7.164,8.643
961,0.764,36.693,5.496,36.428,26.522,19.523,7.206,8.684
962,0.761,36.796,5.469,36.428,26.511,19.608,7.165,8.603
963,0.774,36.922,5.515,36.438,26.508,19.731,7.124,8.602
964,0.813,36.98,5.313,36.476,26.525,19.772,7.327,8.602
965,0.781,37.0,5.459,36.429,26.515,19.773,7.41,8.602
966,0.758,37.087,5.531,36.399,26.515,19.57,7.33,8.602
967,0.761,37.222,5.391,36.418,26.518,19.364,7.41,8.562
968,0.78,36.686,5.511,36.466,26.522,19.321,7.493,8.643
969,0.764,36.479,5.446,36.448,26.518,19.158,7.534,8.684
970,0.751,36.592,5.465,36.409,26.511,18.994,7.494,8.644
971,0.754,36.728,5.551,36.418,26.511,18.952,7.534,8.603
972,0.754,36.72,5.446,36.466,26.535,19.195,7.819,8.806
973,0.761,36.844,5.507,36.438,26.525,19.32,7.7,8.767
974,0.748,36.941,5.383,36.438,26.508,19.362,7.618,8.726
975,0.747,37.048,5.499,36.438,26.515,19.687,7.698,8.766
976,0.751,36.483,5.543,36.447,26.532,20.219,8.024,9.011
977,0.761,36.631,5.434,36.438,26.522,20.428,7.865,8.932
978,0.774,36.747,5.503,36.428,26.511,20.511,7.782,8.85
979,0.767,36.797,5.391,36.428,26.518,20.756,7.944,8.849
980,0.767,36.663,5.507,36.457,26.522,20.962,8.108,9.093
981,0.764,36.815,5.524,36.448,26.515,20.801,8.028,8.932
982,0.767,36.941,5.485,36.447,26.511,20.637,7.946,8.809
983,0.764,37.0,5.508,36.457,26.525,20.473,8.108,8.889
984,0.77,36.435,5.434,36.438,26.518,20.39,8.15,9.052
985,0.764,36.592,5.5,36.438,26.518,20.308,8.15,9.054
986,0.761,36.709,5.453,36.447,26.515,20.185,8.069,8.891
987,0.757,36.729,5.461,36.438,26.518,19.98,8.069,8.93
988,0.748,36.652,5.484,36.438,26.518,20.019,8.191,9.093
989,0.744,36.786,5.441,36.447,26.515,20.304,8.151,9.136
990,0.757,36.902,5.519,36.457,26.518,20.835,8.11,9.014
991,0.754,37.239,5.438,36.419,26.518,21.369,8.028,8.932
992,0.744,36.581,5.472,36.428,26.515,22.025,8.109,8.972
993,0.731,36.737,5.516,36.447,26.518,22.926,7.987,8.85
994,0.757,36.825,5.438,36.476,26.525,24.073,8.027,8.971
995,0.751,36.663,5.511,36.429,26.518,25.101,7.987,8.809
996,0.748,36.719,5.446,36.447,26.511,25.843,7.905,8.848
997,0.754,36.854,5.504,36.457,26.518,26.705,7.985,8.849
998,0.77,36.961,5.508,36.467,26.525,27.364,8.027,8.849
999,0.757,36.463,5.43,36.428,26.522,27.858,7.946,8.727
1000,0.751,36.564,5.527,36.447,26.518,28.107,7.945,8.644
1001,0.767,36.708,5.442,36.447,26.518,28.272,7.945,8.684
1002,0.77,36.787,5.527,36.457,26.518,28.152,8.026,8.684
1003,0.754,36.548,5.512,36.448,26.518,28.029,7.987,8.562
1004,0.764,36.66,5.43,36.428,26.518,27.58,7.946,8.439
1005,0.767,36.805,5.476,36.447,26.522,27.535,7.986,8.56
1006,0.787,36.874,5.461,36.467,26.532,27.535,7.986,8.439
1007,0.774,36.501,5.476,36.438,26.518,27.657,7.905,8.438
1008,0.748,36.641,5.477,36.438,26.511,27.658,7.945,8.438
1009,0.751,36.757,5.422,36.467,26.518,28.186,7.945,8.479
1010,0.754,36.816,5.535,36.467,26.525,28.802,7.945,8.357
1011,0.748,36.548,5.434,36.428,26.518,29.377,7.864,8.356
1012,0.741,36.67,5.511,36.428,26.511,29.749,7.822,8.356
1013,0.741,36.786,5.485,36.466,26.518,30.159,7.944,8.315
1014,0.738,36.845,5.434,36.457,26.518,30.488,7.945,8.356
1015,0.747,36.548,5.507,36.457,26.518,30.573,7.864,8.275
1016,0.725,36.651,5.446,36.438,26.511,30.614,7.863,8.233
1017,0.734,36.767,5.507,36.457,26.518,30.615,7.863,8.273
1018,0.751,36.758,5.391,36.457,26.525,30.412,7.863,8.274
1019,0.735,36.547,5.425,36.438,26.518,30.125,7.863,8.274
1020,0.744,36.66,5.499,36.457,26.518,29.675,7.782,8.233
1021,0.767,36.776,5.387,36.457,26.518,29.304,7.862,8.192
1022,0.761,36.528,5.483,36.467,26.529,28.894,7.944,8.192
1023,0.754,36.603,5.473,36.467,26.518,28.321,7.823,8.151
1024,0.764,36.709,5.437,36.428,26.508,27.868,7.781,8.028
1025,0.774,36.825,5.503,36.457,26.518,27.416,7.984,8.068
1026,0.761,36.423,5.5,36.457,26.529,26.842,7.946,8.028
1027,0.754,36.534,5.492,36.457,26.518,26.227,7.783,7.987
1028,0.754,36.66,5.426,36.438,26.511,25.611,7.822,7.946
1029,0.761,36.757,5.453,36.457,26.522,25.117,7.781,7.945
1030,0.754,36.48,5.515,36.476,26.525,24.827,7.862,8.067
1031,0.735,36.583,5.438,36.457,26.515,24.458,7.782,7.987
1032,0.751,36.718,5.488,36.448,26.518,24.048,7.7,7.946
1033,0.761,36.806,5.5,36.457,26.508,23.841,7.78,8.026
1034,0.754,36.596,5.43,36.476,26.515,23.716,7.822,8.109
1035,0.738,36.718,5.503,36.438,26.515,23.471,7.741,7.947
1036,0.744,36.825,5.449,36.438,26.515,23.388,7.659,7.986
1037,0.764,36.903,5.554,36.476,26.522,23.306,7.698,8.068
1038,0.761,36.434,5.462,36.467,26.518,23.264,7.699,8.109
1039,0.748,36.525,5.441,36.448,26.508,23.141,7.618,8.028
1040,0.76,36.631,5.515,36.447,26.511,22.937,7.576,7.946
1041,0.783,36.709,5.45,36.486,26.529,22.894,7.575,7.986
1042,0.774,36.576,5.519,36.477,26.525,22.813,7.575,8.068
1043,0.771,36.67,5.43,36.457,26.508,22.609,7.535,7.987
1044,0.783,36.786,5.453,36.448,26.508,22.444,7.494,7.905
1045,0.797,36.711,5.504,36.495,26.525,22.402,7.494,8.026
1046,0.787,36.604,5.457,36.467,26.518,22.198,7.534,7.946
1047,0.793,36.699,5.515,36.438,26.508,21.952,7.453,7.864
1048,0.79,36.786,5.422,36.457,26.511,21.827,7.371,7.822
1049,0.803,36.48,5.472,36.505,26.525,22.233,7.573,7.944
1050,0.807,36.573,5.5,36.467,26.518,22.603,7.494,7.986
1051,0.79,36.67,5.41,36.448,26.504,23.135,7.29,7.742
1052,0.784,36.767,5.495,36.457,26.515,23.994,7.41,7.781
1053,0.787,36.442,5.418,36.505,26.532,25.263,7.574,7.944
1054,0.78,36.535,5.484,36.486,26.525,26.496,7.494,7.945
1055,0.797,36.67,5.492,36.457,26.508,27.809,7.331,7.823
1056,0.807,36.738,5.403,36.457,26.515,29.205,7.37,7.781
1057,0.807,36.643,5.523,36.524,26.525,30.845,7.492,7.984
1058,0.82,36.786,5.497,36.487,26.525,32.325,7.453,7.905
1059,0.817,36.874,5.449,36.457,26.508,33.437,7.29,7.782
1060,0.82,36.922,5.488,36.467,26.522,34.465,7.329,7.862
1061,0.82,36.405,5.442,36.505,26.518,35.248,7.532,8.066
1062,0.82,36.544,5.476,36.486,26.522,35.743,7.412,7.987
1063,0.83,36.66,5.512,36.457,26.518,35.87,7.33,7.824
1064,0.833,36.661,5.368,36.467,26.515,35.871,7.37,7.944
1065,0.826,36.498,5.483,36.467,26.518,35.709,7.452,7.986
1066,0.839,36.631,5.43,36.467,26.518,35.138,7.412,7.986
1067,0.849,36.747,5.453,36.476,26.522,34.563,7.371,7.864
1068,0.849,36.787,5.508,36.476,26.515,34.151,7.411,7.944
1069,0.84,36.528,5.422,36.467,26.522,33.943,7.411,8.026
1070,0.872,36.67,5.511,36.496,26.522,33.575,7.411,7.946
1071,0.885,36.777,5.524,36.496,26.518,33.287,7.371,7.905
1072,0.889,36.528,5.465,36.486,26.522,33.081,7.33,7.945
1073,0.882,36.516,5.508,36.467,26.518,32.794,7.41,7.986
1074,0.889,36.65,5.418,36.476,26.525,32.547,7.452,8.027
1075,0.889,36.767,5.453,36.505,26.522,32.382,7.493,7.987
1076,0.892,36.49,5.523,36.477,26.518,32.381,7.412,8.027
1077,0.892,36.593,5.411,36.476,26.511,32.299,7.452,8.027
1078,0.886,36.737,5.491,36.496,26.515,32.299,7.412,7.987
1079,0.882,36.816,5.488,36.505,26.522,32.136,7.493,7.986
1080,0.859,36.366,5.445,36.477,26.518,31.89,7.412,7.946
1081,0.869,36.486,5.504,36.476,26.515,31.563,7.371,8.026
1082,0.879,36.631,5.446,36.486,26.518,31.153,7.452,8.109
1083,0.879,36.709,5.496,36.515,26.522,30.661,7.493,8.191
1084,0.869,36.403,5.512,36.477,26.515,30.087,7.453,8.151
1085,0.869,36.515,5.414,36.476,26.518,29.593,7.371,8.191
1086,0.863,36.65,5.507,36.496,26.511,29.181,7.452,8.273
1087,0.872,36.728,5.512,36.496,26.522,29.055,7.534,8.355
1088,0.846,36.365,5.414,36.496,26.515,28.81,7.412,8.356
1089,0.853,36.505,5.492,36.486,26.511,29.052,7.371,8.356
1090,0.849,36.602,5.414,36.496,26.518,29.583,7.452,8.397
1091,0.84,36.67,5.495,36.515,26.525,30.076,7.534,8.356
1092,0.83,36.451,5.426,36.496,26.515,30.528,7.372,8.275
1093,0.813,36.554,5.472,36.467,26.515,30.695,7.37,8.355
1094,0.813,36.68,5.519,36.505,26.522,31.022,7.452,8.397
1095,0.807,36.882,5.438,36.515,26.522,31.229,7.493,8.478
1096,0.797,36.491,5.519,36.506,26.515,31.19,7.412,8.316
1097,0.8,36.612,5.418,36.486,26.508,30.986,7.33,8.315
1098,0.813,36.747,5.472,36.496,26.518,30.781,7.451,8.315
1099,0.813,36.336,5.504,36.515,26.522,30.535,7.534,8.315
1100,0.797,36.323,5.473,36.506,26.518,30.004,7.412,8.274
1101,0.807,36.466,5.516,36.496,26.515,29.47,7.33,8.233
1102,0.826,36.592,5.481,36.515,26.522,28.977,7.451,8.355
1103,0.807,36.363,5.449,36.515,26.518,28.606,7.493,8.437
1104,0.797,36.467,5.492,36.496,26.522,28.114,7.453,8.275
1105,0.803,36.602,5.406,36.496,26.508,27.662,7.33,8.193
1106,0.803,36.699,5.503,36.515,26.522,27.211,7.41,8.314
1107,0.784,36.249,5.508,36.534,26.518,26.881,7.452,8.315
1108,0.777,36.36,5.438,36.496,26.511,26.349,7.412,8.356
1109,0.748,36.486,5.5,36.486,26.511,25.937,7.289,8.275
1110,0.77,36.612,5.414,36.534,26.525,25.526,7.329,8.314
1111,0.754,36.277,5.503,36.506,26.525,25.36,7.37,8.315
1112,0.741,36.379,5.473,36.477,26.515,25.155,7.33,8.356
1113,0.728,36.524,5.445,36.496,26.518,25.193,7.289,8.275
1114,0.738,36.622,5.539,36.544,26.522,25.641,7.329,8.355
1115,0.731,36.287,5.458,36.535,26.522,26.296,7.41,8.437
1116,0.715,36.399,5.465,36.487,26.511,27.36,7.33,8.357
1117,0.721,36.515,5.543,36.496,26.515,28.834,7.289,8.356
1118,0.737,36.574,5.341,36.573,26.532,30.231,7.369,8.356
1119,0.734,36.45,5.436,36.535,26.522,31.18,7.37,8.397
1120,0.725,36.563,5.39,36.506,26.511,31.678,7.289,8.234
1121,0.731,36.67,5.468,36.515,26.518,32.089,7.329,8.314
1122,0.731,36.499,5.523,36.544,26.525,32.296,7.492,8.437
1123,0.731,36.267,5.418,36.535,26.518,32.055,7.371,8.357
1124,0.747,36.37,5.538,36.496,26.511,31.727,7.33,8.153
1125,0.738,36.496,5.504,36.515,26.511,31.48,7.329,8.191
1126,0.728,36.267,5.465,36.534,26.532,31.193,7.532,8.395
1127,0.725,36.351,5.547,36.525,26.515,30.539,7.412,8.316
1128,0.702,36.495,5.477,36.554,26.518,29.963,7.33,8.193
1129,0.721,36.564,5.484,36.535,26.518,29.348,7.37,8.232
1130,0.718,36.114,5.481,36.525,26.518,28.65,7.533,8.355
1131,0.718,36.253,5.461,36.534,26.522,27.912,7.534,8.275
1132,0.724,36.398,5.496,36.554,26.515,27.132,7.575,8.314
1133,0.721,36.448,5.41,36.535,26.515,26.27,7.575,8.234
1134,0.698,36.189,5.495,36.515,26.518,25.53,7.657,8.355
1135,0.708,36.35,5.508,36.534,26.522,24.669,7.739,8.356
1136,0.715,36.457,5.446,36.554,26.522,23.928,7.74,8.315
1137,0.702,36.516,5.519,36.554,26.518,23.229,7.781,8.396
1138,0.721,36.113,5.403,36.525,26.515,22.491,7.74,8.275
1139,0.728,36.272,5.488,36.544,26.522,21.914,7.821,8.355
1140,0.728,36.399,5.512,36.554,26.532,21.461,7.863,8.397
1141,0.725,36.438,5.403,36.535,26.515,20.969,7.822,8.316
1142,0.728,36.151,5.48,36.525,26.511,20.476,7.822,8.315
1143,0.725,36.311,5.414,36.534,26.515,20.024,7.863,8.396
1144,0.728,36.389,5.456,36.554,26.522,19.694,7.944,8.356
1145,0.715,36.419,5.488,36.554,26.518,19.325,7.823,8.315
1146,0.728,36.141,5.445,36.516,26.511,18.752,7.741,8.193
1147,0.731,36.311,5.511,36.554,26.522,18.502,7.821,8.273
1148,0.731,36.418,5.453,36.563,26.522,18.296,7.822,8.355
1149,0.708,36.189,5.492,36.544,26.518,17.969,7.781,8.315
1150,0.715,36.168,5.418,36.535,26.511,17.803,7.781,8.193
1151,0.728,36.35,5.515,36.535,26.522,18.289,7.74,8.273
1152,0.718,36.419,5.543,36.573,26.518,19.108,7.781,8.396
1153,0.705,36.103,5.426,36.554,26.522,19.97,7.781,8.275
1154,0.702,36.205,5.457,36.544,26.518,21.157,7.659,8.355
1155,0.718,36.398,5.492,36.573,26.508,23.039,7.698,8.315
1156,0.715,36.448,5.445,36.573,26.518,25.172,7.699,8.356
1157,0.705,36.017,5.488,36.554,26.515,26.901,7.699,8.356
1158,0.715,36.166,5.406,36.544,26.511,28.22,7.618,8.234
1159,0.724,36.33,5.464,36.592,26.515,29.249,7.779,8.355
1160,0.728,36.38,5.515,36.564,26.522,30.073,7.781,8.397
1161,0.718,35.997,5.418,36.554,26.515,30.609,7.7,8.397
1162,0.721,36.175,5.492,36.544,26.518,30.94,7.699,8.356
1163,0.734,36.34,5.539,36.592,26.525,31.309,7.74,8.437
1164,0.728,36.361,5.391,36.564,26.518,31.394,7.781,8.438
1165,0.715,36.016,5.487,36.544,26.515,31.192,7.862,8.479
1166,0.747,36.166,5.43,36.544,26.518,30.865,7.782,8.438
1167,0.754,36.321,5.472,36.602,26.525,30.495,7.862,8.519
1168,0.738,36.351,5.476,36.583,26.515,29.8,7.863,8.52
1169,0.734,35.968,5.465,36.564,26.511,29.102,7.863,8.52
1170,0.757,36.098,5.5,36.573,26.518,28.526,7.822,8.439
1171,0.78,36.263,5.446,36.592,26.522,28.073,7.944,8.519
1172,0.793,36.638,5.496,36.573,26.522,27.621,7.986,8.561
1173,0.81,36.076,5.496,36.545,26.511,27.129,7.905,8.521
1174,0.862,36.195,5.473,36.573,26.515,26.839,7.823,8.439
1175,0.892,36.369,5.539,36.631,26.525,26.592,7.903,8.519
1176,0.918,36.093,5.403,36.593,26.518,26.143,7.945,8.52
1177,0.954,36.1,5.495,36.573,26.511,25.61,7.823,8.479
1178,1.01,36.234,5.481,36.65,26.515,25.076,7.822,8.357
1179,1.049,36.369,5.422,36.603,26.532,24.705,7.944,8.519
1180,1.076,36.093,5.495,36.593,26.522,24.132,7.945,8.398
1181,1.122,36.215,5.383,36.564,26.508,23.557,7.742,8.356
1182,1.171,36.34,5.479,36.583,26.515,23.429,7.781,8.356
1183,1.191,36.447,5.512,36.612,26.536,23.631,7.944,8.356
1184,1.23,35.959,5.457,36.593,26.525,23.633,7.864,8.315
1185,1.247,36.089,5.5,36.564,26.508,23.999,7.7,8.234
1186,1.266,36.205,5.422,36.592,26.518,24.938,7.699,8.233
1187,1.325,36.292,5.515,36.631,26.525,26.086,7.943,8.436
1188,1.371,35.958,5.528,36.66,26.522,26.748,7.783,8.397
1189,1.434,36.108,5.395,36.584,26.508,27.283,7.659,8.234
1190,1.493,36.196,5.48,36.602,26.511,27.654,7.658,8.395
1191,1.529,36.264,5.508,36.631,26.529,28.024,7.82,8.722
1192,1.588,35.948,5.426,36.593,26.525,27.865,7.741,8.766
1193,1.654,36.088,5.499,36.612,26.518,27.823,7.659,8.807
1194,1.68,36.186,5.41,36.602,26.515,27.903,7.739,9.133
1195,1.671,36.225,5.476,36.621,26.525,27.986,7.903,9.461
1196,1.68,35.909,5.496,36.612,26.522,27.987,7.863,9.546
1197,1.69,36.031,5.477,36.612,26.518,27.824,7.741,9.669
1198,1.681,36.128,5.488,36.679,26.518,27.578,7.781,9.914
1199,1.677,36.196,5.414,36.613,26.525,27.332,7.944,10.242
1200,1.654,36.053,5.464,36.631,26.518,27.004,7.945,10.326
1201,1.605,36.214,5.504,36.622,26.518,26.594,7.945,10.327
1202,1.563,36.293,5.473,36.612,26.522,26.184,7.986,10.53
1203,1.53,35.824,5.527,36.612,26.518,25.854,7.986,10.736
1204,1.529,35.876,5.434,36.612,26.518,25.526,8.068,10.779
1205,1.507,36.03,5.496,36.631,26.522,25.604,8.109,10.942
1206,1.412,36.099,5.508,36.622,26.515,25.727,8.028,11.024
1207,1.301,35.783,5.438,36.602,26.515,26.053,8.027,11.31
1208,1.173,35.962,5.519,36.698,26.518,26.544,8.027,11.557
1209,1.057,36.108,5.411,36.632,26.518,27.199,8.109,11.966
1210,0.933,36.157,5.48,36.631,26.522,27.735,8.028,12.458
1211,0.873,35.822,5.484,36.593,26.515,28.228,8.027,13.276
1212,0.827,35.991,5.445,36.621,26.522,28.802,8.068,14.219
1213,0.748,36.118,5.519,36.66,26.525,29.214,8.15,15.489
1214,0.708,36.167,5.391,36.632,26.518,29.462,8.069,16.721
1215,0.695,35.803,5.444,36.622,26.515,29.506,8.028,18.197
1216,0.695,35.953,5.507,36.631,26.518,29.587,8.027,19.595
1217,0.698,36.089,5.43,36.631,26.525,29.385,8.068,20.95
1218,0.724,36.128,5.484,36.631,26.515,29.058,7.987,21.899
1219,0.734,36.014,5.496,36.612,26.518,28.485,7.946,22.722
1220,0.757,36.156,5.461,36.65,26.522,28.073,8.026,23.299
1221,0.78,36.263,5.515,36.651,26.525,27.459,8.149,23.589
1222,0.78,36.255,5.399,36.651,26.522,26.802,8.028,23.714
1223,0.774,35.756,5.503,36.622,26.515,26.145,8.027,23.593
1224,0.784,35.914,5.457,36.641,26.522,25.854,8.068,23.511
1225,0.8,36.031,5.445,36.66,26.529,25.485,8.15,23.388
1226,0.781,35.955,5.523,36.641,26.515,25.115,8.069,23.143
1227,0.777,35.935,5.407,36.641,26.511,24.665,7.987,22.978
1228,0.771,36.088,5.495,36.66,26.518,24.375,8.027,23.057
1229,0.787,36.157,5.524,36.67,26.525,24.128,8.068,23.139
1230,0.787,35.841,5.434,36.641,26.518,24.004,8.069,23.059
1231,0.78,35.944,5.5,36.651,26.511,23.881,7.987,23.221
1232,0.764,36.098,5.531,36.651,26.518,24.042,8.108,23.67
1233,0.748,36.186,5.454,36.651,26.529,24.532,8.191,24.04
1234,0.721,35.774,5.511,36.651,26.515,25.106,8.029,24.45
1235,0.715,35.933,5.411,36.651,26.515,25.843,7.987,24.78
1236,0.724,36.069,5.527,36.67,26.522,26.501,7.946,25.108
1237,0.721,36.138,5.477,36.66,26.522,27.077,8.067,25.396
1238,0.721,35.745,5.434,36.67,26.515,27.408,8.069,25.399
1239,0.721,35.885,5.492,36.651,26.508,27.696,7.987,25.358
1240,0.744,36.05,5.434,36.67,26.518,27.984,8.149,25.358
1241,0.734,36.08,5.476,36.68,26.522,27.905,8.191,25.195
1242,0.728,35.725,5.508,36.651,26.518,27.701,8.11,24.828
1243,0.728,35.894,5.477,36.651,26.508,27.455,7.987,24.458
1244,0.754,36.05,5.496,36.67,26.522,27.33,8.108,24.048
1245,0.748,36.099,5.426,36.68,26.525,27.167,8.191,23.556
1246,0.731,35.802,5.496,36.651,26.515,26.758,8.232,22.982
1247,0.721,35.943,5.395,36.66,26.515,26.348,8.192,22.285
1248,0.734,36.108,5.491,36.68,26.522,25.897,8.314,21.79
1249,0.715,36.109,5.465,36.661,26.525,25.526,8.437,21.257
1250,0.708,35.764,5.453,36.66,26.522,25.034,8.519,20.641
1251,0.705,35.904,5.508,36.66,26.511,24.582,8.479,20.025
1252,0.718,36.05,5.434,36.68,26.522,24.578,8.723,19.45
1253,0.721,35.821,5.492,36.689,26.522,24.578,8.888,19.078
1254,0.715,35.78,5.481,36.67,26.515,24.496,8.93,18.383
1255,0.711,35.933,5.449,36.651,26.508,24.496,8.931,17.848
1256,0.731,36.06,5.523,36.679,26.518,24.74,9.053,17.477
1257,0.721,35.773,5.383,36.689,26.518,24.905,9.217,17.148
1258,0.711,35.866,5.476,36.67,26.515,24.906,9.259,16.697
1259,0.728,35.982,5.398,36.66,26.511,24.866,9.219,16.246
1260,0.734,36.089,5.46,36.689,26.518,24.784,9.3,15.997
1261,0.725,35.63,5.492,36.68,26.525,24.62,9.341,15.629
1262,0.715,35.74,5.406,36.661,26.515,24.253,9.382,15.381
1263,0.711,35.895,5.476,36.66,26.511,23.883,9.261,15.094
1264,0.728,36.011,5.426,36.689,26.518,23.717,9.422,14.766
1265,0.738,35.706,5.484,36.68,26.518,23.268,9.383,14.559
1266,0.728,35.808,5.516,36.651,26.515,22.816,9.301,14.395
1267,0.715,35.924,5.442,36.67,26.511,22.365,9.26,14.027
1268,0.728,36.05,5.496,36.708,26.525,22.075,9.3,13.942
1269,0.715,35.821,5.406,36.67,26.525,21.666,9.341,13.819
1270,0.705,35.924,5.476,36.67,26.511,21.093,9.097,13.452
1271,0.705,36.05,5.496,36.689,26.511,20.64,9.136,13.204
1272,0.721,36.138,5.469,36.718,26.529,20.473,9.217,13.08
1273,0.715,35.668,5.512,36.69,26.518,19.983,9.096,12.876
1274,0.711,35.779,5.407,36.67,26.511,19.612,8.973,12.67
1275,0.715,35.895,5.468,36.68,26.522,19.527,8.972,12.343
1276,0.724,36.213,5.551,36.728,26.525,19.567,9.094,12.299
1277,0.711,35.736,5.446,36.709,26.515,19.445,8.973,12.054
1278,0.715,35.885,5.488,36.69,26.511,19.566,8.728,11.808
1279,0.702,35.982,5.418,36.689,26.515,20.015,8.807,11.602
1280,0.734,35.763,5.464,36.718,26.525,20.629,8.93,11.641
1281,0.731,35.828,5.512,36.709,26.518,20.879,8.768,11.357
1282,0.721,35.934,5.426,36.699,26.515,21.044,8.604,11.069
1283,0.731,36.031,5.515,36.709,26.515,21.29,8.643,11.026
1284,0.734,35.61,5.422,36.709,26.529,21.455,8.806,11.066
1285,0.738,35.74,5.453,36.709,26.515,21.294,8.726,10.741
1286,0.747,35.856,5.527,36.699,26.511,21.089,8.644,10.494
1287,0.751,35.925,5.43,36.709,26.515,21.087,8.684,10.369
1288,0.741,35.58,5.492,36.709,26.522,20.965,8.807,10.531
1289,0.734,35.74,5.41,36.728,26.522,20.801,8.726,10.288
1290,0.741,35.866,5.491,36.719,26.518,20.718,8.766,10.001
1291,0.721,35.925,5.524,36.709,26.515,20.636,8.726,9.958
1292,0.708,35.724,5.442,36.699,26.518,20.554,8.807,9.917
1293,0.708,35.894,5.531,36.709,26.529,20.39,8.767,9.876
1294,0.724,35.992,5.43,36.728,26.522,20.43,8.645,9.753
1295,0.728,36.06,5.46,36.719,26.511,20.186,8.684,9.712
1296,0.718,35.639,5.515,36.709,26.515,20.021,8.725,9.711
1297,0.721,35.769,5.457,36.709,26.518,19.897,8.644,9.63
1298,0.744,35.914,5.488,36.728,26.522,19.693,8.603,9.507
1299,0.721,35.916,5.43,36.719,26.515,19.365,8.602,9.465
1300,0.724,35.733,5.488,36.718,26.511,19.159,8.521,9.465
1301,0.744,35.875,5.43,36.738,26.522,18.913,8.479,9.383
1302,0.751,35.982,5.48,36.728,26.518,18.788,8.52,9.382
1303,0.741,35.868,5.52,36.738,26.511,18.543,8.479,9.22
1304,0.744,35.618,5.391,36.719,26.511,18.378,8.398,9.096
1305,0.76,35.769,5.476,36.718,26.522,18.377,8.438,9.176
1306,0.761,35.876,5.426,36.728,26.522,18.254,8.438,9.177
1307,0.744,35.551,5.433,36.728,26.522,17.928,8.357,9.096
1308,0.731,35.653,5.488,36.719,26.515,17.681,8.275,9.014
1309,0.747,35.779,5.414,36.747,26.522,17.434,8.274,9.135
1310,0.757,35.876,5.531,36.747,26.525,17.188,8.314,9.299
1311,0.748,35.589,5.52,36.738,26.518,16.82,8.234,9.301
1312,0.728,35.73,5.457,36.728,26.511,16.409,8.151,9.382
1313,0.738,35.885,5.508,36.728,26.518,16.243,8.313,9.423
1314,0.731,35.963,5.414,36.757,26.518,16.241,8.274,9.586
1315,0.721,35.485,5.441,36.748,26.518,16.363,8.193,9.588
1316,0.728,35.614,5.546,36.728,26.515,16.852,8.07,9.547
1317,0.741,35.778,5.43,36.757,26.515,17.467,8.109,9.669
1318,0.747,35.838,5.511,36.748,26.518,18.367,8.109,9.67
1319,0.744,35.541,5.438,36.747,26.518,19.759,8.069,9.589
1320,0.744,35.701,5.445,36.738,26.511,21.562,7.946,9.588
1321,0.757,35.827,5.425,36.767,26.518,23.45,8.067,9.629
1322,0.757,35.876,5.464,36.767,26.522,25.095,8.069,9.629
1323,0.757,35.541,5.508,36.738,26.515,26.331,7.946,9.507
1324,0.754,35.672,5.379,36.747,26.508,27.238,7.945,9.465
1325,0.78,35.827,5.491,36.767,26.518,27.938,7.986,9.587
1326,0.761,35.828,5.524,36.757,26.518,28.311,7.946,9.547
1327,0.757,35.598,5.407,36.748,26.515,28.274,7.945,9.466
1328,0.754,35.73,5.491,36.738,26.511,28.152,7.864,9.343
1329,0.77,35.885,5.453,36.776,26.518,27.826,7.944,9.586
1330,0.754,35.608,5.496,36.777,26.525,27.497,7.945,9.547
1331,0.738,35.491,5.492,36.738,26.515,26.965,7.864,9.506
1332,0.751,35.624,5.422,36.738,26.511,26.431,7.782,9.506
1333,0.751,35.778,5.492,36.795,26.518,26.06,7.944,9.506
1334,0.754,35.55,5.5,36.777,26.522,25.731,7.945,9.628
1335,0.735,35.634,5.438,36.757,26.511,25.484,7.945,9.548
1336,0.744,35.769,5.531,36.748,26.511,25.4,7.742,9.506
1337,0.764,35.895,5.415,36.767,26.522,25.521,7.821,9.546
1338,0.757,35.493,5.488,36.767,26.518,25.644,7.822,9.547
1339,0.751,35.595,5.461,36.729,26.515,25.605,7.7,9.384
1340,0.761,35.73,5.5,36.747,26.515,25.767,7.74,9.342
1341,0.774,35.837,5.535,36.795,26.525,26.216,7.821,9.301
1342,0.78,35.493,5.391,36.786,26.511,26.505,7.781,9.463
1343,0.78,35.624,5.48,36.738,26.504,26.589,7.7,9.262
1344,0.78,35.75,5.473,36.767,26.518,26.875,7.658,9.178
1345,0.797,35.828,5.449,36.815,26.532,27.081,7.82,9.38
1346,0.787,35.531,5.539,36.787,26.525,27.083,7.822,9.261
1347,0.784,35.662,5.387,36.767,26.511,26.758,7.659,9.137
1348,0.787,35.769,5.448,36.786,26.518,26.673,7.658,9.177
1349,0.78,35.837,5.492,36.825,26.525,26.753,7.902,9.299
1350,0.774,35.503,5.469,36.796,26.515,26.348,7.782,9.097
1351,0.78,35.624,5.492,36.786,26.515,25.937,7.618,9.014
1352,0.78,35.73,5.422,36.786,26.515,25.77,7.657,8.972
1353,0.793,35.981,5.484,36.844,26.532,26.094,7.82,9.135
1354,0.774,35.571,5.402,36.806,26.522,26.219,7.781,9.095
1355,0.777,35.701,5.456,36.796,26.504,26.343,7.618,8.851
1356,0.774,35.798,5.543,36.777,26.511,26.669,7.698,8.93
1357,0.787,35.588,5.407,36.834,26.525,26.997,7.861,9.012
1358,0.793,35.605,5.472,36.806,26.525,26.92,7.822,8.85
1359,0.8,35.711,5.457,36.786,26.501,27.0,7.619,8.727
1360,0.803,35.818,5.453,36.805,26.518,27.285,7.739,8.644
1361,0.813,35.387,5.523,36.815,26.525,27.491,7.862,8.847
1362,0.813,35.527,5.399,36.815,26.515,27.331,7.7,8.686
1363,0.813,35.653,5.491,36.796,26.515,27.085,7.618,8.562
1364,0.81,35.74,5.422,36.805,26.515,26.839,7.657,8.643
1365,0.803,35.482,5.449,36.815,26.522,26.511,7.78,8.806
1366,0.803,35.633,5.531,36.815,26.525,25.898,7.74,8.686
1367,0.807,35.759,5.407,36.825,26.525,25.404,7.781,8.725
1368,0.803,35.837,5.495,36.815,26.511,24.952,7.74,8.766
1369,0.79,35.407,5.473,36.806,26.515,24.947,7.821,8.807
1370,0.806,35.556,5.465,36.825,26.518,25.354,7.781,8.848
1371,0.803,35.701,5.523,36.835,26.522,26.212,7.822,8.889
1372,0.8,35.722,5.43,36.815,26.515,27.318,7.822,8.849
1373,0.81,35.568,5.464,36.806,26.518,28.224,7.781,8.93
1374,0.816,35.711,5.484,36.825,26.515,29.087,7.822,8.972
1375,0.81,35.846,5.441,36.835,26.532,29.949,7.944,8.931
1376,0.807,35.838,5.523,36.835,26.518,30.811,7.823,8.89
1377,0.797,35.397,5.376,36.815,26.508,31.43,7.863,8.89
1378,0.816,35.584,5.452,36.834,26.522,31.802,7.944,8.93
1379,0.82,35.682,5.484,36.863,26.522,32.009,7.986,8.89
1380,0.817,35.817,5.449,36.844,26.522,31.808,7.905,8.89
1381,0.833,35.579,5.504,36.816,26.508,31.359,7.782,8.727
1382,0.836,35.73,5.449,36.834,26.518,30.866,7.944,8.929
1383,0.833,35.818,5.461,36.854,26.522,30.414,7.986,8.931
1384,0.83,35.512,5.504,36.844,26.518,29.637,7.946,8.809
1385,0.846,35.614,5.403,36.844,26.508,28.816,7.864,8.767
1386,0.862,35.778,5.511,36.854,26.515,28.239,7.944,8.807
1387,0.846,35.828,5.465,36.854,26.515,27.582,7.945,8.767
1388,0.83,35.397,5.41,36.825,26.515,26.762,7.823,8.726
1389,0.826,35.546,5.499,36.815,26.518,26.429,7.822,8.726
1390,0.859,35.72,5.422,36.882,26.525,26.263,7.944,8.807
1391,0.846,35.77,5.519,36.864,26.525,26.139,8.026,8.767
1392,0.84,35.463,5.524,36.806,26.508,25.976,7.946,8.767
1393,0.83,35.614,5.465,36.844,26.515,25.933,7.864,8.685
1394,0.849,35.798,5.512,36.863,26.525,26.096,8.026,8.725
1395,0.836,35.828,5.411,36.854,26.522,26.26,8.068,8.726
1396,0.826,36.241,5.499,36.825,26.511,26.262,7.987,8.644
1397,0.839,36.398,5.465,36.844,26.515,26.343,7.986,8.603
1398,0.865,36.563,5.461,36.873,26.525,26.425,7.986,8.643
1399,0.853,36.584,5.492,36.864,26.518,26.385,8.108,8.644
1400,0.846,35.261,5.426,36.835,26.504,26.06,7.987,8.521
1401,0.866,35.41,5.492,36.835,26.504,25.894,7.946,8.52
1402,0.889,35.585,5.535,36.883,26.532,25.892,8.108,8.601
1403,0.879,35.567,5.446,36.864,26.522,26.014,8.028,8.562
1404,0.882,35.759,5.457,36.825,26.511,26.137,7.905,8.48
1405,0.889,35.904,5.39,36.844,26.515,26.504,7.945,8.398
1406,0.905,36.031,5.511,36.863,26.532,27.199,8.026,8.478
1407,0.892,35.946,5.5,36.844,26.518,27.816,8.027,8.479
1408,0.879,35.839,5.418,36.844,26.511,28.31,7.865,8.276
1409,0.889,35.963,5.519,36.854,26.515,28.965,7.822,8.355
1410,0.895,36.089,5.438,36.892,26.532,29.907,8.025,8.559
1411,0.886,35.783,5.492,36.845,26.518,30.445,7.946,8.439
1412,0.882,35.905,5.512,36.854,26.515,31.101,7.823,8.357
1413,0.885,36.021,5.45,36.844,26.511,31.717,7.822,8.397
1414,0.892,36.108,5.461,36.873,26.518,32.374,8.066,8.6
1415,0.879,35.802,5.492,36.864,26.518,32.584,7.946,8.48
1416,0.892,35.924,5.473,36.854,26.515,32.789,7.864,8.357
1417,0.889,36.05,5.476,36.864,26.515,33.279,7.863,8.356
1418,0.892,36.128,5.41,36.864,26.522,33.65,7.944,8.6
1419,0.902,36.023,5.46,36.864,26.518,33.776,7.864,8.48
1420,0.905,36.166,5.508,36.873,26.522,33.736,7.822,8.316
1421,0.905,36.273,5.422,36.873,26.518,33.695,7.822,8.396
1422,0.902,36.322,5.507,36.854,26.518,33.614,7.985,8.438
1423,0.905,36.15,5.446,36.854,26.515,33.328,7.946,8.397
1424,0.915,36.301,5.445,36.864,26.518,32.919,7.945,8.356
1425,0.918,36.418,5.476,36.854,26.518,32.386,7.823,8.315
1426,0.925,36.438,5.445,36.835,26.518,31.852,7.944,8.477
1427,0.918,36.237,5.488,36.863,26.522,31.44,7.864,8.357
1428,0.912,36.398,5.5,36.883,26.522,31.07,7.985,8.397
1429,0.908,36.496,5.453,36.873,26.522,30.497,7.905,8.316
1430,0.905,36.478,5.484,36.845,26.522,29.922,7.823,8.315
1431,0.905,36.42,5.418,36.883,26.518,29.51,7.944,8.437
1432,0.915,36.573,5.492,36.873,26.522,29.262,8.067,8.438
1433,0.909,36.68,5.524,36.873,26.522,28.975,7.987,8.316
1434,0.915,36.604,5.422,36.845,26.511,28.647,7.986,8.396
1435,0.918,36.651,5.503,36.892,26.518,28.521,8.108,8.356
1436,0.918,36.757,5.43,36.874,26.525,28.154,8.069,8.356
1437,0.905,36.835,5.464,36.883,26.522,27.704,8.069,8.315
1438,0.915,36.519,5.476,36.864,26.515,27.17,8.028,8.234
1439,0.935,36.65,5.406,36.864,26.522,26.84,8.068,8.314
1440,0.925,36.738,5.48,36.892,26.522,26.511,8.109,8.315
1441,0.922,36.806,5.492,36.883,26.522,26.061,8.028,8.193
1442,0.935,36.663,5.453,36.854,26.511,26.016,7.987,8.151
1443,0.958,36.853,5.504,36.892,26.522,26.747,8.027,8.191
1444,0.938,36.932,5.434,36.893,26.525,28.299,8.109,8.232
1445,0.945,36.981,5.453,36.854,26.518,29.9,7.947,8.151
1446,0.948,37.01,5.449,36.854,26.511,31.624,7.945,8.11
1447,0.964,37.173,5.465,36.921,26.529,33.227,7.986,8.109
1448,0.945,37.271,5.523,36.903,26.522,34.91,8.027,8.15
1449,0.925,37.281,5.399,36.874,26.511,36.187,7.946,8.11
1450,0.931,36.821,5.495,36.873,26.515,37.257,7.864,7.987
1451,0.941,37.018,5.512,36.921,26.532,38.203,7.904,8.068
1452,0.938,37.077,5.446,36.903,26.525,38.7,7.945,8.069
1453,0.922,37.097,5.476,36.874,26.511,38.827,7.864,7.906
1454,0.928,37.069,5.445,36.883,26.515,38.666,7.782,7.904
1455,0.922,37.26,5.468,36.931,26.532,38.461,7.862,7.985
1456,0.925,37.31,5.519,36.912,26.522,37.889,7.822,7.905
1457,0.925,37.665,5.352,36.874,26.508,36.989,7.7,7.782
1458,0.935,37.199,5.448,36.902,26.515,36.167,7.699,7.822
1459,0.928,37.319,5.441,36.922,26.539,35.427,7.861,7.863
1460,0.915,37.416,5.468,36.922,26.518,34.363,7.7,7.782
1461,0.931,37.177,5.508,36.893,26.511,33.417,7.618,7.618
1462,0.925,37.194,5.414,36.893,26.515,32.594,7.576,7.617
1463,0.922,37.338,5.515,36.941,26.532,31.936,7.779,7.82
1464,0.925,37.435,5.496,36.951,26.518,31.035,7.659,7.659
1465,0.925,37.177,5.453,36.912,26.515,30.253,7.536,7.495
1466,0.915,37.319,5.523,36.912,26.518,29.595,7.534,7.494
1467,0.909,37.435,5.305,36.941,26.518,29.181,7.616,7.697
1468,0.899,37.532,5.471,36.922,26.518,28.649,7.617,7.618
1469,0.905,37.236,5.566,36.922,26.522,28.318,7.454,7.495
1470,0.892,37.358,5.477,36.931,26.522,27.908,7.452,7.534
1471,0.86,37.464,5.512,36.903,26.518,27.579,7.534,7.575
1472,0.862,37.532,5.422,36.931,26.522,27.21,7.534,7.494
1473,0.866,37.408,5.456,36.922,26.522,26.8,7.534,7.453
1474,0.879,37.532,5.465,36.922,26.511,26.389,7.494,7.452
1475,0.866,37.629,5.41,36.922,26.515,26.019,7.412,7.534
1476,0.869,37.678,5.538,36.912,26.518,25.609,7.493,7.453
1477,0.866,37.324,5.364,36.931,26.522,25.238,7.494,7.452
1478,0.869,37.454,5.468,36.931,26.518,24.828,7.412,7.452
1479,0.853,37.542,5.484,36.922,26.515,24.54,7.371,7.412
1480,0.859,37.552,5.461,36.931,26.525,24.577,7.411,7.452
1481,0.853,37.543,5.508,36.951,26.522,24.862,7.493,7.534
1482,0.84,37.658,5.446,36.941,26.518,25.15,7.371,7.412
1483,0.833,37.755,5.484,36.922,26.511,25.356,7.411,7.411
1484,0.856,37.766,5.395,36.931,26.518,25.683,7.452,7.411
1485,0.846,37.535,5.464,36.96,26.522,26.093,7.452,7.493
1486,0.83,37.619,5.504,36.932,26.518,26.626,7.412,7.371
1487,0.833,37.707,5.375,36.922,26.511,27.282,7.371,7.289
1488,0.83,37.497,5.44,36.95,26.511,28.061,7.37,7.41
1489,0.82,37.571,5.414,36.97,26.522,28.76,7.37,7.452
1490,0.794,37.649,5.449,36.941,26.522,29.336,7.411,7.412
1491,0.803,37.755,5.547,36.96,26.511,30.073,7.249,7.411
1492,0.813,37.516,5.43,36.96,26.522,31.097,7.328,7.452
1493,0.794,37.629,5.503,36.97,26.525,32.002,7.41,7.493
1494,0.803,37.688,5.496,36.913,26.515,32.58,7.289,7.534
1495,0.787,37.794,5.418,36.96,26.515,33.074,7.329,7.575
1496,0.79,37.526,5.523,36.98,26.529,33.445,7.37,7.738
1497,0.784,37.619,5.442,36.97,26.525,33.571,7.452,7.862
1498,0.784,37.726,5.464,36.941,26.515,33.612,7.371,7.782
1499,0.784,37.804,5.449,36.941,26.515,33.572,7.167,7.822
1500,0.803,37.584,5.441,36.989,26.525,33.694,7.287,8.066
1501,0.794,37.677,5.484,36.989,26.522,33.573,7.41,8.231
1502,0.78,37.755,5.41,36.932,26.508,33.287,7.167,8.273
1503,0.777,37.833,5.515,36.96,26.511,33.0,7.206,8.274
1504,0.8,37.536,5.465,36.989,26.529,32.793,7.409,8.436
1505,0.8,37.658,5.437,36.97,26.522,32.344,7.33,8.519
1506,0.794,37.755,5.507,36.941,26.504,31.811,7.248,8.479
1507,0.784,37.737,5.422,36.96,26.515,31.44,7.206,8.479
1508,0.78,37.564,5.503,36.999,26.532,31.03,7.369,8.723
1509,0.787,37.677,5.473,36.961,26.522,30.375,7.33,8.644
1510,0.774,37.765,5.441,36.96,26.508,29.636,7.207,8.562
1511,0.764,37.679,5.523,36.951,26.518,29.304,7.247,8.724
1512,0.77,37.611,5.422,36.98,26.518,29.463,7.41,8.888
1513,0.761,37.716,5.464,36.98,26.518,29.546,7.289,8.727
1514,0.757,37.832,5.492,36.961,26.522,29.791,7.288,8.685
1515,0.757,37.527,5.395,36.98,26.511,29.997,7.329,8.766
1516,0.748,37.629,5.495,36.98,26.518,30.039,7.37,8.929
1517,0.741,37.764,5.457,36.989,26.515,30.04,7.33,8.931
1518,0.751,37.852,5.441,36.999,26.518,30.08,7.289,8.85
1519,0.754,37.431,5.48,36.97,26.515,30.772,7.288,8.889
1520,0.754,37.542,5.426,36.98,26.518,31.999,7.369,9.052
1521,0.754,37.667,5.511,36.999,26.518,33.312,7.33,9.013
1522,0.757,37.755,5.477,36.98,26.518,34.26,7.329,9.054
1523,0.757,37.439,5.453,36.999,26.522,34.92,7.289,8.932
1524,0.754,37.561,5.461,36.999,26.515,35.455,7.288,8.972
1525,0.77,37.687,5.391,36.98,26.518,36.193,7.329,9.094
1526,0.78,37.755,5.519,36.989,26.525,37.257,7.329,9.014
1527,0.764,37.478,5.489,37.009,26.518,38.609,7.289,8.972
1528,0.751,37.6,5.461,36.999,26.511,39.924,7.288,8.85
1529,0.754,37.726,5.492,36.99,26.518,40.913,7.329,8.93
1530,0.751,37.765,5.442,37.018,26.532,41.736,7.451,8.972
1531,0.741,37.488,5.5,36.999,26.518,42.273,7.29,8.891
1532,0.725,37.581,5.504,36.97,26.511,42.4,7.247,8.89
1533,0.734,37.725,5.457,36.989,26.518,42.401,7.288,8.849
1534,0.741,37.756,5.508,37.018,26.522,42.117,7.369,8.889
1535,0.725,37.449,5.403,36.999,26.511,41.463,7.289,8.89
1536,0.734,37.561,5.491,36.99,26.508,40.765,7.288,8.727
1537,0.744,37.696,5.481,37.009,26.518,40.149,7.41,8.726
1538,0.751,37.506,5.414,37.018,26.522,39.329,7.452,8.726
1539,0.735,37.494,5.476,37.019,26.518,38.386,7.33,8.644
1540,0.751,37.619,5.441,36.999,26.504,37.401,7.37,8.603
1541,0.767,37.755,5.496,37.028,26.515,36.659,7.411,8.684
1542,0.761,37.344,5.453,37.019,26.518,35.879,7.452,8.684
1543,0.751,37.435,5.453,37.009,26.515,35.14,7.412,8.603
1544,0.751,37.571,5.48,37.018,26.511,34.319,7.33,8.521
1545,0.761,37.697,5.43,37.066,26.515,33.782,7.329,8.561
1546,0.754,37.391,5.546,37.029,26.522,33.37,7.37,8.521
1547,0.738,37.503,5.364,36.999,26.515,33.082,7.37,8.439
1548,0.747,37.658,5.475,37.009,26.518,32.754,7.289,8.397
1549,0.76,37.736,5.539,37.047,26.525,32.547,7.329,8.478
1550,0.748,37.305,5.419,37.048,26.522,32.138,7.37,8.479
1551,0.725,37.435,5.495,37.0,26.511,31.524,7.289,8.398
1552,0.731,37.561,5.446,37.009,26.515,31.152,7.247,8.316
1553,0.747,37.658,5.445,37.066,26.525,30.823,7.369,8.437
1554,0.725,37.352,5.5,37.057,26.522,30.332,7.411,8.438
1555,0.724,37.474,5.379,37.028,26.508,29.839,7.33,8.397
1556,0.731,37.571,5.46,37.028,26.525,29.794,7.248,8.438
1557,0.728,37.649,5.441,37.086,26.532,30.525,7.45,8.519
1558,0.734,37.323,5.398,37.058,26.525,31.346,7.412,8.479
1559,0.728,37.435,5.519,37.009,26.508,32.045,7.208,8.479
1560,0.725,37.542,5.524,37.028,26.508,32.743,7.247,8.438
1561,0.731,37.754,5.485,37.057,26.535,33.238,7.45,8.601
1562,0.734,37.344,5.492,37.048,26.522,33.162,7.412,8.48
1563,0.738,37.474,5.41,37.048,26.515,32.917,7.167,8.357
1564,0.751,37.571,5.488,37.057,26.515,32.914,7.246,8.356
1565,0.754,37.255,5.488,37.057,26.532,33.199,7.532,8.559
1566,0.748,37.3,5.445,37.048,26.515,33.243,7.412,8.48
1567,0.76,37.425,5.425,37.076,26.518,33.487,7.208,8.316
1568,0.744,37.513,5.39,37.038,26.518,33.774,7.287,8.396
1569,0.741,37.101,5.468,37.057,26.522,34.102,7.329,8.478
1570,0.738,37.251,5.512,37.076,26.522,34.228,7.329,8.52
1571,0.741,37.377,5.438,37.086,26.518,34.269,7.41,8.439
1572,0.738,37.474,5.515,37.048,26.511,34.351,7.411,8.479
1573,0.728,37.168,5.403,37.048,26.515,34.474,7.371,8.479
1574,0.728,37.309,5.456,37.057,26.522,34.638,7.411,8.52
1575,0.734,37.445,5.496,37.086,26.522,34.761,7.533,8.561
1576,0.738,37.484,5.449,37.048,26.522,34.844,7.372,8.439
1577,0.731,37.293,5.433,37.076,26.515,34.723,7.452,8.397
1578,0.751,37.454,5.476,37.077,26.515,34.64,7.534,8.478
1579,0.735,37.571,5.453,37.096,26.525,34.68,7.494,8.438
1580,0.744,37.581,5.492,37.086,26.515,35.778,7.494,8.438
1581,0.747,37.179,5.422,37.086,26.515,37.456,7.534,8.397
1582,0.751,37.338,5.484,37.077,26.522,39.14,7.575,8.397
1583,0.761,37.435,5.531,37.105,26.518,40.417,7.575,8.397
1584,0.751,37.446,5.411,37.086,26.525,41.772,7.657,8.275
1585,0.751,37.158,5.495,37.067,26.511,43.574,7.617,8.274
1586,0.77,37.299,5.453,37.077,26.522,45.747,7.657,8.274
1587,0.754,37.416,5.449,37.096,26.525,47.842,7.698,8.314
1588,0.735,37.379,5.472,37.086,26.522,49.124,7.699,8.193
1589,0.734,37.292,5.422,37.067,26.515,49.787,7.577,8.192
1590,0.747,37.454,5.535,37.115,26.522,49.997,7.738,8.273
1591,0.744,37.532,5.458,37.115,26.522,49.796,7.781,8.314
1592,0.741,37.102,5.441,37.058,26.518,49.306,7.7,8.234
1593,0.744,37.184,5.507,37.057,26.515,48.65,7.699,8.233
1594,0.773,37.376,5.407,37.134,26.525,48.034,7.78,8.273
1595,0.751,37.445,5.46,37.096,26.525,47.296,7.903,8.355
1596,0.741,37.139,5.484,37.077,26.518,46.231,7.863,8.315
1597,0.741,37.28,5.406,37.086,26.511,44.96,7.741,8.274
1598,0.76,37.463,5.499,37.115,26.522,43.728,7.903,8.355
1599,0.751,37.494,5.422,37.087,26.525,42.292,7.945,8.397
1600,0.748,37.092,5.492,37.058,26.515,40.814,7.823,8.275
1601,0.744,37.251,5.414,37.096,26.515,39.824,7.863,8.193
1602,0.764,37.415,5.495,37.125,26.532,39.204,8.066,8.354
1603,0.761,37.455,5.516,37.115,26.522,38.548,8.069,8.356
1604,0.757,37.12,5.395,37.144,26.508,38.582,8.028,8.234
1605,0.754,37.26,5.476,37.077,26.511,39.598,7.987,8.192
1606,0.777,37.415,5.512,37.115,26.525,40.991,8.149,8.273
1607,0.758,37.436,5.481,37.115,26.515,42.062,8.028,8.274
1608,0.761,37.177,5.488,37.077,26.504,42.764,7.946,8.071
1609,0.754,37.309,5.461,37.086,26.508,43.747,8.067,8.109
1610,0.767,37.454,5.511,37.134,26.532,44.692,8.191,8.232
1611,0.751,37.427,5.504,37.096,26.525,45.23,8.151,8.151
1612,0.754,37.177,5.473,37.096,26.515,45.235,7.988,7.866
1613,0.748,37.299,5.492,37.106,26.511,44.991,8.108,8.026
1614,0.747,37.377,5.383,37.115,26.525,44.541,8.191,8.19
1615,0.738,37.273,5.479,37.125,26.518,43.724,8.192,8.07
1616,0.751,37.252,5.453,37.115,26.518,43.187,8.07,7.946
1617,0.751,37.348,5.426,37.077,26.511,43.304,8.028,8.026
1618,0.744,37.426,5.507,37.105,26.518,43.589,8.19,8.109
1619,0.744,36.947,5.446,37.115,26.522,43.552,8.151,8.109
1620,0.757,37.067,5.496,37.134,26.522,43.51,8.191,8.028
1621,0.754,37.183,5.434,37.106,26.522,43.144,8.07,8.027
1622,0.751,37.252,5.46,37.096,26.518,42.612,8.191,8.068
1623,0.761,37.06,5.5,37.125,26.529,41.875,8.11,8.028
1624,0.761,37.212,5.375,37.144,26.522,40.932,8.15,7.987
1625,0.77,37.348,5.472,37.116,26.522,40.069,8.11,7.986
1626,0.757,37.387,5.426,37.106,26.511,39.451,8.109,7.986
1627,0.787,37.023,5.445,37.125,26.511,39.404,8.15,7.986
1628,0.767,37.192,5.457,37.125,26.522,39.647,8.232,8.068
1629,0.748,37.28,5.476,37.125,26.511,39.69,8.111,8.028
1630,0.764,37.32,5.519,37.135,26.515,39.569,8.109,7.987
1631,0.757,37.013,5.415,37.106,26.522,39.324,8.232,7.986
1632,0.751,37.144,5.503,37.134,26.525,38.874,8.273,7.946
1633,0.761,37.251,5.496,37.135,26.511,38.544,8.193,7.945
1634,0.757,37.262,5.406,37.096,26.518,39.069,8.151,7.945
1635,0.757,37.089,5.476,37.144,26.522,40.782,8.191,8.026
1636,0.751,37.183,5.461,37.135,26.518,42.588,8.314,8.109
1637,0.744,37.28,5.441,37.125,26.522,43.826,8.152,8.028
1638,0.757,37.655,5.468,37.125,26.511,44.611,8.15,7.987
1639,0.78,37.017,5.449,37.135,26.518,45.229,8.191,8.068
1640,0.771,37.144,5.523,37.163,26.518,45.763,8.273,8.109
1641,0.774,37.213,5.426,37.145,26.525,46.053,8.314,8.109
1642,0.774,36.897,5.449,37.116,26.518,46.056,8.234,7.987
1643,0.787,36.98,5.539,37.163,26.522,45.69,8.355,8.108
1644,0.784,37.058,5.438,37.221,26.522,45.24,8.437,8.191
1645,0.761,37.126,5.476,37.116,26.515,44.625,8.357,8.192
1646,0.774,36.867,5.523,37.134,26.511,43.968,8.275,8.192
1647,0.793,37.076,5.442,37.202,26.529,43.515,8.436,8.192
1648,0.771,37.135,5.472,37.155,26.525,43.104,8.438,8.232
1649,0.757,37.155,5.434,37.135,26.511,43.262,8.397,8.355
1650,0.767,36.781,5.484,37.144,26.522,43.955,8.397,8.234
1651,0.761,36.979,5.457,37.202,26.522,44.572,8.519,8.233
1652,0.754,37.077,5.457,37.174,26.522,44.822,8.561,8.273
1653,0.741,37.116,5.496,37.135,26.511,44.784,8.48,8.274
1654,0.754,36.8,5.43,37.154,26.518,44.621,8.642,8.193
1655,0.757,37.008,5.48,37.192,26.529,44.497,8.847,8.314
1656,0.757,37.068,5.555,37.183,26.525,44.496,9.011,8.315
1657,0.741,37.107,5.43,37.231,26.508,44.577,9.094,8.274
1658,0.751,36.829,5.496,37.155,26.518,44.497,9.258,8.193
1659,0.761,36.979,5.43,37.212,26.532,44.252,9.544,8.273
1660,0.764,37.077,5.503,37.193,26.522,43.761,9.669,8.233
1661,0.774,37.059,5.477,37.145,26.511,43.025,9.751,8.233
1662,0.767,36.809,5.449,37.154,26.515,42.489,9.915,8.273
1663,0.77,36.96,5.539,37.202,26.536,42.28,10.282,8.355
1664,0.764,37.048,5.403,37.174,26.532,42.4,10.245,8.315
1665,0.767,37.068,5.48,37.135,26.508,42.808,10.245,8.234
1666,0.777,36.752,5.477,37.163,26.511,43.34,10.286,8.314
1667,0.764,36.912,5.461,37.183,26.532,43.834,10.571,8.518
1668,0.754,37.019,5.469,37.173,26.522,43.757,10.451,8.439
1669,0.754,36.761,5.418,37.183,26.518,43.594,10.369,8.316
1670,0.754,36.835,5.453,37.173,26.518,43.958,10.449,8.315
1671,0.748,36.951,5.504,37.183,26.522,44.328,10.613,8.437
1672,0.744,37.048,5.418,37.183,26.525,44.372,10.574,8.397
1673,0.754,36.752,5.519,37.193,26.522,44.129,10.411,8.316
1674,0.751,36.873,5.352,37.193,26.522,43.598,10.369,8.315
1675,0.744,36.98,5.44,37.183,26.522,42.86,10.328,8.356
1676,0.747,37.067,5.554,37.183,26.522,41.877,10.368,8.397
1677,0.754,36.656,5.434,37.221,26.525,41.054,10.368,8.356
1678,0.751,36.796,5.496,37.155,26.515,39.989,10.287,8.397
1679,0.751,36.874,5.399,37.154,26.511,39.124,10.205,8.275
1680,0.767,36.97,5.452,37.192,26.518,38.506,10.204,8.314
1681,0.761,36.684,5.496,37.202,26.518,37.809,10.326,8.356
1682,0.757,36.805,5.434,37.183,26.522,37.029,10.165,8.315
1683,0.767,36.903,5.46,37.173,26.511,36.33,10.122,8.234
1684,0.764,36.98,5.492,37.202,26.515,35.795,10.203,8.314
1685,0.774,36.617,5.445,37.193,26.518,35.098,10.204,8.315
1686,0.751,36.718,5.55,37.183,26.518,34.359,10.123,8.234
1687,0.767,36.854,5.38,37.173,26.515,33.701,10.081,8.273
1688,0.761,36.913,5.452,37.193,26.515,33.37,10.081,8.355
1689,0.744,36.654,5.531,37.212,26.529,33.082,10.081,8.356
1690,0.731,36.738,5.461,37.193,26.518,32.998,10.04,8.397
1691,0.731,36.883,5.496,37.174,26.511,33.363,9.958,8.316
1692,0.754,36.731,5.422,37.193,26.518,33.935,9.998,8.356
1693,0.744,36.595,5.511,37.202,26.522,34.429,9.958,8.437
1694,0.738,36.67,5.442,37.174,26.511,34.719,9.917,8.357
1695,0.741,36.796,5.425,37.193,26.511,35.047,9.794,8.275
1696,0.747,36.576,5.538,37.212,26.522,35.619,9.875,8.355
1697,0.747,36.651,5.415,37.203,26.522,36.072,9.876,8.356
1698,0.731,36.748,5.456,37.164,26.508,36.443,9.672,8.275
1699,0.738,36.835,5.515,37.183,26.515,36.568,9.711,8.233
1700,0.757,36.567,5.465,37.241,26.532,36.854,9.67,8.273
1701,0.754,36.67,5.535,37.203,26.518,36.857,9.751,8.233
1702,0.757,36.767,5.415,37.183,26.508,36.613,9.549,8.192
1703,0.757,36.854,5.476,37.202,26.511,36.326,9.75,8.11
1704,0.764,36.577,5.457,37.241,26.529,35.998,9.793,8.15
1705,0.757,36.68,5.39,37.203,26.525,35.426,9.753,8.15
1706,0.751,36.777,5.499,37.164,26.501,34.728,9.712,7.988
1707,0.754,36.835,5.418,37.202,26.515,34.152,9.752,7.986
1708,0.748,36.51,5.464,37.241,26.536,33.699,9.915,8.149
1709,0.744,36.631,5.492,37.212,26.518,33.085,9.835,8.028
1710,0.741,36.747,5.418,37.183,26.508,32.428,9.753,7.865
1711,0.734,36.787,5.48,37.193,26.511,31.975,9.793,8.026
1712,0.738,36.557,5.543,37.222,26.535,31.645,10.037,8.027
1713,0.731,36.708,5.442,37.212,26.518,30.95,9.918,8.027
1714,0.725,36.806,5.472,37.193,26.515,30.293,9.754,7.865
1715,0.718,36.826,5.391,37.202,26.518,29.798,9.874,7.944
1716,0.744,36.586,5.456,37.222,26.532,29.631,10.038,8.108
1717,0.741,36.709,5.457,37.222,26.518,29.507,9.918,7.987
1718,0.744,36.806,5.367,37.212,26.515,29.872,9.754,7.824
1719,0.738,36.567,5.479,37.212,26.518,30.689,9.915,7.781
1720,0.754,36.574,5.512,37.212,26.522,31.673,10.079,7.984
1721,0.744,36.708,5.457,37.203,26.522,33.024,10.081,7.946
1722,0.757,36.796,5.508,37.212,26.515,34.867,10.081,7.783
1723,0.751,36.548,5.434,37.203,26.518,36.756,10.243,7.862
1724,0.757,36.651,5.418,37.231,26.522,38.36,10.448,7.985
1725,0.757,36.776,5.507,37.203,26.522,39.393,10.45,7.946
1726,0.748,36.874,5.43,37.212,26.518,40.013,10.491,7.783
1727,0.754,36.376,5.441,37.222,26.518,40.548,10.573,7.903
1728,0.744,36.543,5.41,37.212,26.522,41.041,10.614,8.026
1729,0.751,36.66,5.495,37.222,26.518,41.371,10.696,7.905
1730,0.761,36.729,5.504,37.251,26.518,41.415,10.697,7.782
1731,0.761,36.528,5.43,37.222,26.511,41.212,10.697,7.903
1732,0.738,36.66,5.507,37.212,26.515,40.682,10.616,7.863
1733,0.751,36.796,5.422,37.231,26.518,39.945,10.655,7.944
1734,0.761,36.835,5.441,37.231,26.525,39.083,10.615,7.945
1735,0.751,36.5,5.492,37.212,26.522,38.058,10.493,7.823
1736,0.754,36.612,5.457,37.193,26.515,37.032,10.573,7.944
1737,0.761,36.728,5.488,37.231,26.518,36.127,10.574,7.945
1738,0.783,36.796,5.484,37.241,26.522,35.264,10.614,7.864
1739,0.784,36.5,5.457,37.222,26.518,34.32,10.533,7.822
1740,0.78,36.612,5.492,37.203,26.518,33.376,10.532,7.781
1741,0.797,36.728,5.375,37.231,26.522,32.634,10.614,7.822
1742,0.794,37.026,5.472,37.241,26.525,32.139,10.574,7.903
1743,0.79,36.579,5.5,37.222,26.522,31.484,10.411,7.904
1744,0.797,36.68,5.391,37.212,26.511,30.908,10.247,7.782
1745,0.816,36.805,5.476,37.222,26.518,30.496,10.367,7.862
1746,0.813,36.481,5.445,37.231,26.518,30.004,10.328,7.944
1747,0.81,36.525,5.422,37.241,26.515,29.389,10.286,7.905
1748,0.794,36.65,5.464,37.212,26.511,28.732,10.123,7.823
1749,0.806,36.767,5.445,37.231,26.518,28.156,10.041,7.781
1750,0.8,36.451,5.504,37.222,26.522,27.419,10.162,7.822
1751,0.787,36.573,5.485,37.212,26.518,26.639,10.041,7.822
1752,0.777,36.689,5.438,37.212,26.511,25.818,9.918,7.781
1753,0.787,36.806,5.5,37.241,26.522,25.159,9.998,7.781
1754,0.787,36.481,5.438,37.251,26.518,24.461,9.958,7.74
1755,0.78,36.592,5.472,37.251,26.518,23.804,9.876,7.74
1756,0.797,36.709,5.523,37.232,26.515,23.025,9.835,7.699
1757,0.826,36.825,5.461,37.241,26.515,22.489,9.875,7.78
1758,0.836,36.481,5.492,37.241,26.522,21.914,9.997,7.74
1759,0.846,36.592,5.383,37.212,26.515,21.583,9.877,7.74
1760,0.862,36.718,5.472,37.231,26.511,21.051,9.916,7.781
1761,0.895,36.796,5.512,37.27,26.518,20.761,9.998,7.862
1762,0.879,36.644,5.438,37.261,26.525,20.555,10.121,8.026
1763,0.863,36.719,5.5,37.213,26.518,20.634,10.0,7.987
1764,0.879,36.854,5.426,37.212,26.515,21.123,9.917,7.946
1765,0.895,36.941,5.499,37.25,26.522,21.9,10.039,8.026
1766,0.892,36.635,5.52,37.241,26.522,22.477,10.04,8.109
1767,0.889,36.709,5.461,37.193,26.508,23.175,9.918,8.109
1768,0.859,36.882,5.508,37.25,26.518,23.588,9.998,8.028
1769,0.866,36.817,5.395,37.27,26.532,24.039,10.039,8.19
1770,0.849,36.577,5.495,37.261,26.525,24.369,10.04,8.273
1771,0.846,36.67,5.504,37.184,26.508,24.698,9.958,8.152
1772,0.836,36.777,5.426,37.231,26.511,25.392,9.998,8.232
1773,0.843,36.528,5.492,37.27,26.532,26.212,10.161,8.355
1774,0.839,36.593,5.426,37.251,26.522,26.668,10.041,8.356
1775,0.833,36.709,5.48,37.232,26.508,27.16,9.918,8.275
1776,0.826,36.806,5.488,37.222,26.515,28.019,9.957,8.355
1777,0.836,36.74,5.465,37.27,26.525,29.288,10.12,8.519
1778,0.836,36.873,5.445,37.261,26.522,30.236,10.0,8.479
1779,0.833,36.98,5.39,37.241,26.511,30.977,9.755,8.357
1780,0.833,37.058,5.464,37.241,26.508,31.757,9.833,8.437
1781,0.823,36.282,5.512,37.251,26.532,32.618,9.997,8.601
1782,0.817,36.456,5.411,37.251,26.522,33.196,9.877,8.562
1783,0.813,36.573,5.511,37.251,26.511,33.69,9.753,8.48
1784,0.803,36.622,5.411,37.251,26.518,34.264,9.712,8.52
1785,0.813,36.421,5.456,37.241,26.522,34.595,9.833,8.642
1786,0.813,36.582,5.5,37.251,26.515,34.598,9.712,8.521
1787,0.813,36.689,5.453,37.251,26.515,34.517,9.67,8.561
1788,0.8,36.738,5.398,37.26,26.515,34.11,9.629,8.521
1789,0.781,36.528,5.468,37.261,26.518,33.658,9.629,8.601
1790,0.787,36.66,5.496,37.251,26.515,33.085,9.588,8.602
1791,0.78,36.786,5.539,37.26,26.525,32.591,9.629,8.643
1792,0.771,36.807,5.45,37.241,26.515,32.017,9.507,8.521
1793,0.761,36.557,5.492,37.251,26.518,31.605,9.506,8.52
1794,0.764,36.68,5.41,37.27,26.518,30.99,9.506,8.52
1795,0.754,36.786,5.46,37.27,26.525,30.456,9.506,8.52
1796,0.744,36.557,5.484,37.241,26.518,29.8,9.384,8.52
1797,0.738,36.469,5.434,37.241,26.511,29.062,9.342,8.601
1798,0.741,36.592,5.464,37.308,26.515,28.485,9.26,8.521
1799,0.751,36.709,5.426,37.271,26.515,27.788,9.219,8.479
1800,0.744,36.422,5.453,37.251,26.518,27.131,9.137,8.438
1801,0.734,36.496,5.508,37.251,26.515,26.595,9.014,8.56
1802,0.734,36.669,5.438,37.27,26.518,25.98,9.054,8.561
1803,0.741,36.748,5.515,37.289,26.525,25.527,9.054,8.561
1804,0.721,36.307,5.395,37.27,26.518,25.075,8.973,8.521
1805,0.718,36.447,5.448,37.241,26.518,24.542,8.891,8.358
1806,0.721,36.573,5.5,37.251,26.522,24.252,8.849,8.519
1807,0.724,36.641,5.434,37.27,26.515,24.087,8.849,8.52
1808,0.724,36.383,5.488,37.261,26.525,23.719,8.808,8.479
1809,0.711,36.515,5.391,37.241,26.515,23.349,8.726,8.438
1810,0.721,36.641,5.48,37.27,26.522,23.224,8.766,8.519
1811,0.708,36.719,5.516,37.28,26.522,23.019,8.726,8.479
1812,0.708,36.441,5.45,37.261,26.515,22.895,8.644,8.438
1813,0.698,36.554,5.496,37.241,26.511,22.691,8.562,8.397
1814,0.695,36.68,5.465,37.251,26.522,22.689,8.602,8.397
1815,0.698,36.729,5.418,37.27,26.522,22.567,8.602,8.438
1816,0.698,36.422,5.476,37.261,26.522,22.403,8.521,8.357
1817,0.695,36.534,5.422,37.241,26.511,22.117,8.439,8.315
1818,0.714,36.699,5.468,37.26,26.515,21.992,8.479,8.396
1819,0.705,36.997,5.457,37.27,26.522,21.787,8.479,8.438
1820,0.695,36.377,5.41,37.251,26.515,21.704,8.398,8.397
1821,0.705,36.505,5.515,37.251,26.511,22.069,8.356,8.316
1822,0.724,36.65,5.407,37.27,26.515,22.886,8.437,8.356
1823,0.721,36.422,5.495,37.27,26.529,24.032,8.438,8.397
1824,0.708,36.41,5.438,37.251,26.518,25.02,8.479,8.356
1825,0.721,36.544,5.39,37.251,26.518,25.965,8.398,8.315
1826,0.721,36.679,5.522,37.289,26.518,27.153,8.6,8.315
1827,0.708,36.297,5.418,37.28,26.522,28.303,8.724,8.437
1828,0.705,36.389,5.46,37.242,26.511,29.291,8.685,8.397
1829,0.715,36.515,5.488,37.241,26.515,30.032,8.684,8.356
1830,0.715,36.65,5.418,37.308,26.525,30.772,8.807,8.478
1831,0.705,36.287,5.484,37.28,26.522,30.901,8.93,8.52
1832,0.689,36.418,5.438,37.232,26.508,30.821,8.85,8.479
1833,0.688,36.534,5.476,37.251,26.518,30.698,8.93,8.479
1834,0.705,36.651,5.492,37.289,26.536,30.738,9.134,8.601
1835,0.685,36.278,5.445,37.28,26.522,30.494,9.177,8.602
1836,0.701,36.399,5.515,37.242,26.515,30.166,9.096,8.562
1837,0.692,36.525,5.434,37.241,26.511,29.878,9.217,8.602
1838,0.705,36.593,5.515,37.308,26.525,29.672,9.381,8.602
1839,0.702,36.383,5.485,37.261,26.525,28.979,9.342,8.602
1840,0.705,36.515,5.43,37.261,26.504,28.281,9.219,8.44
1841,0.695,36.622,5.457,37.261,26.518,27.705,9.259,8.601
1842,0.718,36.671,5.433,37.299,26.532,27.17,9.463,8.684
1843,0.711,36.172,5.453,37.28,26.525,26.393,9.383,8.644
1844,0.718,36.292,5.472,37.27,26.511,25.734,9.261,8.521
1845,0.718,36.399,5.375,37.251,26.515,25.362,9.3,8.683
1846,0.715,36.534,5.515,37.289,26.529,25.317,9.423,8.888
1847,0.721,36.334,5.403,37.28,26.522,25.276,9.383,8.768
1848,0.708,36.466,5.488,37.27,26.511,25.235,9.22,8.685
1849,0.702,36.564,5.5,37.251,26.518,25.276,9.137,8.766
1850,0.698,36.286,5.43,37.289,26.525,25.52,9.299,8.889
1851,0.688,36.36,5.499,37.28,26.522,25.522,9.301,8.849
1852,0.695,36.476,5.457,37.28,26.522,25.807,9.097,8.686
1853,0.682,36.592,5.445,37.27,26.518,26.745,9.217,8.725
1854,0.682,36.22,5.488,37.27,26.525,28.015,9.259,8.848
1855,0.685,36.398,5.399,37.289,26.522,29.003,9.097,8.808
1856,0.685,36.486,5.526,37.261,26.522,29.786,9.136,8.604
1857,0.701,36.564,5.477,37.27,26.518,30.485,9.014,8.643
1858,0.708,36.181,5.418,37.27,26.522,31.061,9.054,8.765
1859,0.708,36.311,5.476,37.28,26.515,31.148,9.013,8.685
1860,0.728,36.437,5.402,37.299,26.522,31.189,8.972,8.644
1861,0.738,36.506,5.468,37.27,26.515,31.027,8.931,8.725
1862,0.747,36.142,5.48,37.261,26.518,30.863,8.85,8.807
1863,0.78,36.311,5.461,37.27,26.518,30.658,8.93,8.767
1864,0.819,36.418,5.469,37.299,26.525,30.575,8.972,8.889
1865,0.859,36.467,5.402,37.261,26.518,30.533,8.85,8.768
1866,0.879,36.132,5.499,37.251,26.511,30.858,8.808,8.848
1867,0.905,36.292,5.461,37.28,26.518,31.39,8.889,8.849
1868,0.947,36.408,5.426,37.289,26.525,32.127,8.93,8.889
1869,0.961,36.429,5.527,37.27,26.522,33.11,8.89,8.809
1870,0.99,36.218,5.438,37.27,26.515,34.177,8.849,8.93
1871,1.039,36.36,5.457,37.28,26.522,35.204,8.93,8.931
1872,1.089,36.467,5.492,37.289,26.525,35.824,8.972,9.012
1873,1.131,36.401,5.434,37.28,26.518,35.912,8.891,8.932
1874,1.155,36.266,5.46,37.242,26.511,35.953,8.849,8.972
1875,1.191,36.427,5.406,37.279,26.522,36.116,8.93,9.094
1876,1.217,36.506,5.48,37.28,26.525,36.321,8.972,9.136
1877,1.237,36.219,5.496,37.289,26.522,36.283,8.85,9.014
1878,1.296,36.321,5.395,37.261,26.504,36.119,8.808,9.094
1879,1.361,36.476,5.487,37.28,26.528,35.915,8.848,9.136
1880,1.417,36.544,5.52,37.299,26.525,35.547,8.889,9.258
1881,1.473,36.133,5.454,37.261,26.522,35.055,8.849,9.259
1882,1.542,36.273,5.515,37.27,26.511,34.44,8.727,9.3
1883,1.614,36.437,5.411,37.299,26.518,33.743,8.807,9.544
1884,1.68,36.487,5.449,37.28,26.532,33.004,8.808,9.71
1885,1.71,35.95,5.445,37.251,26.515,32.062,8.726,9.752
1886,1.723,36.088,5.461,37.27,26.511,31.036,8.685,9.833
1887,1.73,36.272,5.465,37.289,26.525,30.172,8.766,10.119
1888,1.714,36.303,5.426,37.29,26.522,29.309,8.807,10.284
1889,1.684,36.111,5.46,37.251,26.511,28.447,8.726,10.449
1890,1.684,36.263,5.527,37.27,26.511,27.828,8.685,10.532
1891,1.694,36.427,5.465,37.318,26.532,27.578,8.725,10.736
1892,1.619,36.448,5.519,37.28,26.522,27.251,8.766,10.9
1893,1.586,36.151,5.45,37.251,26.511,27.206,8.685,10.943
1894,1.563,36.273,5.492,37.26,26.525,27.816,8.644,10.943
1895,1.513,36.427,5.391,37.328,26.532,28.757,8.684,11.146
1896,1.454,36.419,5.499,37.3,26.522,29.539,8.684,11.311
1897,1.369,35.959,5.485,37.261,26.515,30.197,8.603,11.475
1898,1.255,36.098,5.414,37.27,26.511,31.017,8.562,11.802
1899,1.175,36.224,5.488,37.318,26.532,31.554,8.643,12.375
1900,1.064,36.168,5.43,37.29,26.518,31.6,8.603,12.869
1901,0.943,36.196,5.472,37.251,26.511,31.519,8.48,13.483
1902,0.876,36.321,5.496,37.241,26.518,31.193,8.479,14.384
1903,0.837,36.418,5.449,37.308,26.532,31.027,8.601,15.491
1904,0.781,36.017,5.453,37.29,26.518,30.334,8.562,16.396
1905,0.741,36.137,5.406,37.27,26.511,29.595,8.317,17.259
1906,0.718,36.253,5.484,37.261,26.511,28.978,8.437,18.121
1907,0.741,36.36,5.527,37.299,26.532,28.403,8.601,19.024
1908,0.754,35.91,5.407,37.29,26.522,27.584,8.521,19.522
1909,0.757,36.069,5.495,37.261,26.518,26.681,8.317,19.77
1910,0.764,36.176,5.422,37.27,26.511,25.859,8.356,20.057
1911,0.783,36.254,5.507,37.289,26.525,25.322,8.6,20.345
1912,0.79,36.024,5.516,37.29,26.522,24.463,8.521,20.185
1913,0.784,36.195,5.414,37.27,26.515,23.641,8.439,19.939
1914,0.764,36.292,5.456,37.27,26.511,23.064,8.438,19.856
1915,0.767,36.351,5.371,37.299,26.525,22.692,8.641,19.896
1916,0.757,35.93,5.491,37.27,26.518,22.16,8.603,19.652
1917,0.764,36.088,5.465,37.289,26.518,21.748,8.562,19.365
1918,0.77,36.186,5.422,37.28,26.515,21.378,8.439,19.321
1919,0.754,36.206,5.468,37.261,26.522,21.13,8.601,19.402
1920,0.767,36.062,5.418,37.289,26.515,21.169,8.602,19.484
1921,0.777,36.205,5.464,37.299,26.525,21.779,8.562,19.567
1922,0.774,36.302,5.5,37.251,26.515,22.68,8.521,19.771
1923,0.764,36.61,5.414,37.251,26.511,23.542,8.479,20.017
1924,0.764,35.971,5.48,37.328,26.518,24.364,8.52,20.304
1925,0.761,36.108,5.383,37.271,26.522,25.226,8.601,20.388
1926,0.744,36.205,5.483,37.27,26.522,25.763,8.521,20.551
1927,0.725,35.947,5.5,37.261,26.511,26.257,8.601,20.756
1928,0.705,35.973,5.399,37.261,26.518,26.668,8.684,20.921
1929,0.705,36.089,5.53,37.28,26.522,26.957,8.725,20.882
1930,0.695,36.176,5.454,37.28,26.518,26.919,8.685,20.841
1931,0.698,35.957,5.465,37.242,26.515,26.756,8.725,20.678
1932,0.708,36.108,5.492,37.279,26.518,26.51,8.766,20.514
1933,0.702,36.253,5.453,37.289,26.525,26.264,8.767,20.268
1934,0.695,36.322,5.437,37.261,26.518,25.733,8.767,19.94
1935,0.708,35.814,5.371,37.261,26.511,25.281,8.726,19.652
1936,0.711,35.972,5.515,37.27,26.522,25.113,8.848,19.324
1937,0.708,36.06,5.473,37.27,26.522,25.193,8.849,18.874
1938,0.689,36.138,5.391,37.27,26.522,25.519,8.849,18.503
1939,0.698,35.975,5.468,37.241,26.515,25.847,8.767,18.053
1940,0.718,36.146,5.496,37.27,26.518,26.217,8.889,17.682
1941,0.715,36.254,5.41,37.289,26.522,26.627,8.93,17.312
1942,0.711,36.264,5.488,37.261,26.515,26.956,8.972,16.862
1943,0.708,35.823,5.375,37.251,26.515,26.96,8.931,16.369
1944,0.744,35.972,5.39,37.27,26.522,27.0,9.093,16.161
1945,0.725,36.07,5.464,37.27,26.525,26.92,9.095,15.793
1946,0.718,36.051,5.465,37.232,26.518,26.675,9.136,15.383
1947,0.724,35.907,5.449,37.231,26.515,26.266,8.974,14.931
1948,0.721,36.088,5.418,37.279,26.518,25.896,9.216,14.683
1949,0.711,36.147,5.492,37.28,26.525,25.323,9.137,14.477
1950,0.695,36.158,5.488,37.232,26.515,24.748,9.177,14.068
1951,0.695,36.004,5.414,37.231,26.518,24.295,9.055,13.78
1952,0.714,36.195,5.495,37.279,26.518,24.087,9.135,13.574
1953,0.705,36.254,5.422,37.27,26.525,23.882,9.217,13.409
1954,0.695,35.718,5.437,37.241,26.515,23.758,9.137,13.082
1955,0.695,35.818,5.48,37.26,26.515,24.163,9.014,12.876
1956,0.718,35.963,5.48,37.261,26.522,24.899,9.094,12.67
1957,0.692,36.041,5.473,37.261,26.518,25.679,9.014,12.505
1958,0.695,35.85,5.371,37.222,26.511,26.093,8.972,12.219
1959,0.698,36.011,5.503,37.231,26.511,26.504,8.85,11.972
1960,0.714,36.175,5.477,37.289,26.525,26.915,8.971,11.848
1961,0.724,36.215,5.473,37.27,26.522,26.959,8.931,11.643
1962,0.711,35.679,5.492,37.232,26.508,27.0,8.728,11.479
1963,0.708,35.865,5.414,37.231,26.511,27.123,8.766,11.355
1964,0.724,36.021,5.492,37.289,26.525,27.409,8.807,11.273
1965,0.721,36.051,5.485,37.242,26.529,27.655,8.808,11.15
1966,0.711,35.811,5.438,37.212,26.504,27.739,8.645,10.945
1967,0.718,35.962,5.503,37.318,26.511,27.74,8.644,10.862
1968,0.721,36.117,5.387,37.29,26.529,27.862,8.725,10.78
1969,0.721,36.119,5.468,37.261,26.525,27.66,8.726,10.738
1970,0.711,35.783,5.484,37.232,26.504,27.373,8.603,10.575
1971,0.708,35.924,5.434,37.231,26.515,27.045,8.602,10.411
1972,0.711,36.079,5.531,37.279,26.529,27.245,8.765,10.409
1973,0.702,36.09,5.508,37.232,26.522,27.572,8.645,10.328
1974,0.698,35.841,5.422,37.203,26.504,28.226,8.521,10.124
1975,0.708,35.982,5.484,37.231,26.515,29.087,8.52,10.081
1976,0.708,36.089,5.445,37.279,26.529,29.99,8.642,10.121
1977,0.708,36.08,5.441,37.242,26.518,30.283,8.603,9.919
1978,0.721,36.09,5.488,37.232,26.511,30.408,8.358,9.754
1979,0.718,36.205,5.434,37.212,26.511,30.735,8.437,9.833
1980,0.721,36.283,5.507,37.27,26.532,30.982,8.682,9.875
1981,0.721,35.66,5.418,37.251,26.522,30.862,8.562,9.753
1982,0.724,35.75,5.503,37.232,26.515,30.617,8.521,9.671
1983,0.731,35.876,5.5,37.231,26.515,30.412,8.561,9.711
1984,0.731,35.954,5.399,37.231,26.518,29.962,8.724,9.833
1985,0.734,35.772,5.456,37.231,26.515,29.389,8.726,9.712
1986,0.738,35.924,5.445,37.241,26.518,28.854,8.644,9.67
1987,0.744,36.012,5.402,37.232,26.511,28.32,8.806,9.629
1988,0.728,36.08,5.468,37.222,26.518,27.827,8.808,9.67
1989,0.728,35.735,5.387,37.241,26.518,27.375,8.848,9.589
1990,0.738,35.895,5.46,37.26,26.525,27.126,8.808,9.588
1991,0.721,36.011,5.5,37.232,26.522,27.043,8.767,9.466
1992,0.715,36.06,5.446,37.231,26.511,27.042,8.929,9.424
1993,0.721,35.802,5.507,37.231,26.518,27.204,8.85,9.424
1994,0.724,35.953,5.403,37.251,26.522,27.247,8.808,9.342
1995,0.724,36.05,5.488,37.232,26.518,27.206,8.848,9.342
1996,0.715,36.07,5.414,37.231,26.518,27.369,8.889,9.382
1997,0.711,35.706,5.472,37.231,26.515,28.102,8.809,9.301
1998,0.734,35.856,5.473,37.231,26.522,29.126,8.848,9.301
1999,0.731,35.963,5.418,37.212,26.511,29.99,8.767,9.301
2000,0.728,35.983,5.476,37.212,26.511,30.731,8.726,9.341
2001,0.751,35.849,5.43,37.231,26.515,31.145,8.766,9.382
2002,0.748,35.953,5.507,37.241,26.518,31.474,8.767,9.464
2003,0.747,36.06,5.492,37.232,26.515,31.64,8.685,9.424
2004,0.741,35.754,5.313,37.231,26.508,31.682,8.684,9.424
2005,0.76,35.789,5.487,37.222,26.518,31.845,8.725,9.464
2006,0.764,35.924,5.484,37.212,26.522,31.847,8.726,9.505
2007,0.761,36.012,5.473,37.231,26.522,31.603,8.644,9.506
2008,0.741,35.591,5.398,37.184,26.515,31.316,8.644,9.546
2009,0.747,35.721,5.468,37.212,26.525,30.988,8.684,9.628
2010,0.76,35.856,5.492,37.222,26.518,30.618,8.766,9.792
2011,0.725,35.925,5.414,37.193,26.511,30.208,8.726,9.712
2012,0.721,35.657,5.48,37.193,26.508,30.082,8.726,9.792
2013,0.744,35.827,5.488,37.212,26.522,29.959,8.766,9.915
2014,0.734,35.934,5.402,37.203,26.518,29.836,8.848,9.998
2015,0.731,35.993,5.46,37.202,26.518,29.631,8.767,10.039
2016,0.747,35.667,5.414,37.164,26.511,29.223,8.807,10.04
2017,0.751,35.836,5.449,37.192,26.518,28.974,8.889,10.08
2018,0.754,35.934,5.48,37.193,26.522,28.565,8.93,10.162
2019,0.744,35.954,5.43,37.193,26.515,27.911,8.931,10.082
2020,0.757,35.734,5.48,37.174,26.511,27.335,8.931,10.081
2021,0.777,35.885,5.395,37.183,26.525,26.923,9.012,10.081
2022,0.771,35.973,5.484,37.193,26.522,26.472,9.054,10.081
2023,0.748,35.993,5.484,37.183,26.518,25.979,8.932,10.04
2024,0.757,35.667,5.383,37.164,26.511,25.364,8.931,9.918
2025,0.777,35.827,5.468,37.173,26.518,25.033,8.972,9.998
2026,0.771,35.934,5.434,37.183,26.522,24.46,9.053,9.917
2027,0.761,36.108,5.46,37.154,26.522,23.885,8.973,9.916
2028,0.761,35.812,5.508,37.154,26.508,23.27,8.85,9.794
2029,0.774,35.972,5.461,37.164,26.518,22.654,8.93,9.793
2030,0.764,36.07,5.523,37.183,26.522,22.119,8.931,9.753
2031,0.751,35.553,5.422,37.154,26.518,21.545,8.931,9.59
2032,0.751,35.586,5.437,37.144,26.511,21.214,8.89,9.588
2033,0.764,35.749,5.496,37.173,26.518,21.007,8.93,9.588
2034,0.757,35.837,5.41,37.164,26.522,21.167,9.012,9.629
2035,0.748,35.598,5.476,37.173,26.515,21.372,8.932,9.548
2036,0.754,35.721,5.43,37.145,26.508,21.497,8.931,9.384
2037,0.777,35.894,5.437,37.173,26.522,21.782,8.85,9.505
2038,0.774,35.963,5.5,37.173,26.525,22.07,8.971,9.546
2039,0.767,35.609,5.395,37.145,26.515,22.235,8.85,9.425
2040,0.777,35.759,5.491,37.154,26.515,22.4,8.808,9.342
2041,0.787,35.914,5.473,37.183,26.522,23.214,8.889,9.423
2042,0.784,35.973,5.453,37.164,26.518,24.93,8.89,9.546
2043,0.78,35.619,5.48,37.145,26.511,26.94,8.89,9.425
2044,0.787,35.75,5.387,37.154,26.515,29.602,8.809,9.464
2045,0.797,35.933,5.48,37.173,26.532,33.776,8.848,9.587
2046,0.787,35.935,5.527,37.173,26.525,38.29,8.808,9.751
2047,0.78,35.532,5.379,37.125,26.508,41.995,8.686,9.63
2048,0.784,35.71,5.46,37.144,26.508,44.634,8.725,9.792
2049,0.797,35.846,5.418,37.192,26.532,46.408,8.766,9.875
2050,0.784,35.838,5.476,37.174,26.518,47.036,8.726,9.916
2051,0.784,35.618,5.422,37.125,26.508,47.001,8.685,9.916
2052,0.784,35.75,5.46,37.163,26.518,46.472,8.644,9.876
2053,0.793,35.904,5.527,37.192,26.532,45.735,8.725,9.916
2054,0.78,35.848,5.352,37.174,26.522,44.427,8.766,9.916
2055,0.777,35.714,5.471,37.135,26.515,43.031,8.645,9.794
2056,0.78,35.856,5.488,37.135,26.518,41.594,8.603,9.753
2057,0.79,35.992,5.391,37.192,26.525,40.197,8.684,9.833
2058,0.79,35.514,5.456,37.154,26.522,38.639,8.684,9.834
2059,0.8,35.547,5.398,37.116,26.501,36.997,8.644,9.672
2060,0.803,35.72,5.46,37.154,26.518,35.598,8.481,9.629
2061,0.81,35.837,5.492,37.183,26.532,34.446,8.642,9.832
2062,0.8,35.589,5.457,37.154,26.522,33.214,8.603,9.712
2063,0.81,35.721,5.492,37.125,26.508,32.633,8.358,9.589
2064,0.82,35.856,5.442,37.135,26.511,32.79,8.437,9.588
2065,0.833,35.953,5.48,37.183,26.539,33.401,8.723,9.71
2066,0.83,35.513,5.449,37.154,26.518,33.57,8.481,9.63
2067,0.823,35.662,5.484,37.135,26.511,34.141,8.438,9.426
2068,0.807,35.769,5.422,37.125,26.515,35.448,8.438,9.505
2069,0.813,35.837,5.449,37.163,26.529,37.331,8.601,9.709
2070,0.807,35.531,5.519,37.154,26.515,38.61,8.602,9.508
2071,0.813,35.672,5.411,37.144,26.515,39.599,8.399,9.384
2072,0.816,35.798,5.472,37.144,26.515,40.34,8.56,9.545
2073,0.8,35.828,5.496,37.164,26.529,40.673,8.724,9.628
2074,0.807,35.675,5.348,37.145,26.525,40.554,8.644,9.548
2075,0.813,35.827,5.503,37.144,26.518,40.147,8.603,9.384
2076,0.813,35.924,5.43,37.154,26.518,39.573,8.684,9.423
2077,0.816,35.916,5.421,37.135,26.518,38.876,8.766,9.464
2078,0.82,35.666,5.492,37.144,26.518,38.056,8.807,9.424
2079,0.823,35.788,5.442,37.144,26.522,37.194,8.808,9.302
2080,0.83,35.886,5.5,37.125,26.518,36.047,8.767,9.219
2081,0.83,35.656,5.504,37.115,26.515,34.979,8.848,9.259
2082,0.843,35.654,5.449,37.134,26.515,34.033,8.889,9.259
2083,0.849,35.807,5.496,37.135,26.525,32.966,8.89,9.137
2084,0.843,35.867,5.289,37.154,26.515,31.939,8.849,9.177
2085,0.856,35.589,5.436,37.116,26.518,30.913,8.849,9.015
2086,0.862,35.721,5.523,37.106,26.518,29.845,9.011,9.054
2087,0.856,35.856,5.422,37.144,26.525,28.859,9.013,9.054
2088,0.846,35.934,5.464,37.125,26.515,27.792,8.932,8.932
2089,0.853,35.494,5.398,37.096,26.515,26.846,8.972,9.012
2090,0.856,35.662,5.448,37.106,26.522,25.901,8.972,8.972
2091,0.853,35.788,5.515,37.125,26.525,25.079,9.053,8.931
2092,0.84,35.876,5.411,37.106,26.518,24.257,9.013,8.768
2093,0.846,35.771,5.476,37.086,26.522,23.558,8.932,8.848
2094,0.849,35.914,5.453,37.115,26.518,23.063,9.053,8.849
2095,0.843,36.05,5.394,37.115,26.522,22.489,9.013,8.808
2096,0.833,36.09,5.511,37.096,26.518,22.036,9.013,8.767
2097,0.839,35.649,5.387,37.096,26.515,21.95,8.972,8.726
2098,0.862,35.817,5.456,37.106,26.518,22.112,9.013,8.726
2099,0.872,35.915,5.504,37.106,26.518,22.886,9.054,8.766
2100,0.856,35.944,5.43,37.086,26.518,24.236,9.054,8.726
2101,0.859,35.925,5.488,37.067,26.515,25.916,8.973,8.644
2102,0.882,36.088,5.418,37.086,26.518,27.6,9.013,8.684
2103,0.872,36.205,5.48,37.096,26.518,29.162,9.094,8.684
2104,0.869,36.532,5.434,37.086,26.518,30.194,8.932,8.684
2105,0.885,36.018,5.414,37.077,26.511,30.814,8.931,8.684
2106,0.898,36.166,5.519,37.077,26.522,31.308,8.972,8.603
2107,0.889,36.263,5.387,37.086,26.525,31.557,9.013,8.684
2108,0.879,35.986,5.46,37.086,26.515,31.559,8.891,8.603
2109,0.876,36.012,5.488,37.058,26.515,31.6,8.93,8.602
2110,0.892,36.156,5.453,37.076,26.518,31.641,9.012,8.643
2111,0.876,36.263,5.5,37.077,26.522,31.601,8.972,8.644
2112,0.869,36.034,5.5,37.057,26.515,31.316,8.931,8.562
2113,0.882,36.185,5.414,37.048,26.511,30.988,8.85,8.399
2114,0.895,36.331,5.476,37.067,26.515,30.578,8.971,8.519
2115,0.882,36.409,5.387,37.086,26.518,30.045,8.931,8.561
2116,0.876,36.17,5.476,37.058,26.511,29.389,8.89,8.48
2117,0.882,36.302,5.457,37.057,26.515,28.773,8.809,8.398
2118,0.898,36.476,5.418,37.076,26.525,28.279,8.848,8.478
2119,0.905,36.525,5.507,37.057,26.522,27.786,8.889,8.479
2120,0.886,36.296,5.43,37.019,26.511,27.578,8.768,8.398
2121,0.898,36.428,5.488,37.038,26.511,27.535,8.767,8.316
2122,0.915,36.592,5.516,37.076,26.532,28.063,8.767,8.396
2123,0.912,36.622,5.426,37.048,26.518,29.166,8.726,8.438
2124,0.908,36.354,5.453,37.019,26.515,30.926,8.522,8.397
2125,0.912,36.505,5.402,37.028,26.522,32.814,8.561,8.275
2126,0.928,36.641,5.511,37.067,26.532,34.581,8.602,8.314
2127,0.922,36.652,5.403,37.048,26.522,35.859,8.643,8.356
2128,0.909,36.633,5.421,37.019,26.508,36.685,8.521,8.234
2129,0.908,36.776,5.499,37.038,26.515,37.181,8.601,8.151
2130,0.928,36.902,5.442,37.086,26.532,37.389,8.765,8.232
2131,0.899,36.884,5.519,37.038,26.518,37.025,8.726,8.273
2132,0.905,36.587,5.45,37.009,26.511,36.371,8.644,8.111
2133,0.902,36.709,5.418,37.028,26.522,35.795,8.725,8.028
2134,0.912,36.825,5.449,37.076,26.532,35.179,8.97,8.231
2135,0.908,36.778,5.383,37.048,26.525,34.279,8.931,8.111
2136,0.902,36.845,5.511,37.009,26.508,33.253,8.85,7.987
2137,0.908,36.961,5.414,37.028,26.515,32.593,8.849,8.068
2138,0.912,37.096,5.417,37.038,26.529,32.098,9.174,8.15
2139,0.918,36.685,5.441,37.028,26.518,31.239,8.974,8.028
2140,0.918,36.825,5.406,37.019,26.508,30.377,8.972,7.865
2141,0.925,36.912,5.48,37.019,26.518,29.718,8.972,7.822
2142,0.912,37.009,5.418,37.057,26.532,29.386,9.135,8.066
2143,0.925,37.001,5.456,37.019,26.518,29.017,9.014,7.946
2144,0.928,37.173,5.43,37.028,26.515,28.444,8.932,7.823
2145,0.925,37.261,5.41,37.019,26.515,28.113,8.931,7.781
2146,0.918,37.3,5.527,37.019,26.518,27.703,9.012,7.944
2147,0.922,36.994,5.391,37.019,26.518,27.089,8.972,7.905
