time,ecg,bvp,gsr,rsp,skt,emg_zygo,emg_coru,emg_trap
0,0.688,37.523,12.006,36.97,34.305,4.866,5.728,5.605
1,0.679,37.217,12.029,36.97,34.315,4.946,5.85,5.686
2,0.695,37.348,12.052,36.961,34.318,4.988,5.769,5.687
3,0.698,37.464,12.064,36.97,34.315,4.948,5.768,5.646
4,0.685,37.485,12.107,36.951,34.308,4.988,5.768,5.686
5,0.701,37.216,12.139,36.989,34.322,5.151,5.972,5.809
6,0.721,37.396,12.116,37.047,34.315,5.031,5.852,5.728
7,0.711,37.465,12.034,36.961,34.315,5.03,5.81,5.687
8,0.711,37.379,12.095,36.96,34.322,4.989,5.891,5.768
9,0.724,37.321,12.077,36.96,34.322,5.029,5.77,5.728
10,0.728,37.454,12.076,36.999,34.315,5.03,5.768,5.646
11,0.712,37.513,12.03,36.942,34.308,4.907,5.687,5.605
12,0.711,37.255,12.095,36.941,34.315,4.987,5.809,5.686
13,0.702,37.358,12.077,36.96,34.312,4.907,5.769,5.646
14,0.698,37.464,12.131,36.941,34.312,4.947,5.768,5.645
15,0.692,37.532,12.128,36.932,34.315,4.947,5.809,5.686
16,0.688,37.351,12.096,36.989,34.329,5.11,5.972,5.768
17,0.698,37.474,12.026,36.961,34.315,5.03,5.811,5.647
18,0.688,37.571,12.088,36.97,34.312,4.989,5.891,5.686
19,0.688,37.639,12.041,36.951,34.318,5.029,5.973,5.727
20,0.685,37.381,12.088,37.018,34.319,5.07,5.933,5.768
21,0.692,37.493,12.045,36.961,34.315,4.989,5.852,5.606
22,0.679,37.562,12.072,36.922,34.305,4.988,5.891,5.686
23,0.701,37.668,12.072,36.931,34.315,5.029,5.892,5.646
24,0.698,37.276,12.092,36.922,34.308,4.989,5.892,5.605
25,0.692,37.387,12.077,36.931,34.311,4.866,5.851,5.645
26,0.695,37.503,12.01,36.96,34.315,5.028,6.013,5.767
27,0.708,37.571,12.06,36.989,34.325,5.07,6.056,5.728
28,0.711,37.399,12.072,36.951,34.315,4.989,6.015,5.727
29,0.715,37.541,12.084,36.932,34.318,4.988,6.015,5.687
30,0.705,37.658,12.065,36.951,34.315,4.988,6.015,5.727
31,0.715,37.784,12.065,36.941,34.318,4.948,5.974,5.687
32,0.708,37.21,12.041,36.903,34.312,4.907,5.893,5.605
33,0.689,37.338,12.092,36.931,34.315,4.947,5.933,5.686
34,0.692,37.435,12.155,36.931,34.305,4.907,5.892,5.687
35,0.695,37.379,12.085,36.912,34.308,4.987,5.892,5.687
36,0.688,37.484,12.022,36.912,34.311,4.866,5.973,5.687
37,0.692,37.648,12.045,36.96,34.329,5.15,6.137,5.809
38,0.695,37.745,12.08,36.932,34.315,4.99,6.016,5.647
39,0.675,37.535,12.084,36.922,34.312,4.988,6.015,5.767
40,0.682,37.677,12.026,36.931,34.315,5.029,6.015,5.647
41,0.695,37.803,12.072,36.951,34.322,4.948,5.974,5.686
42,0.688,37.891,12.018,36.922,34.305,4.947,5.933,5.564
43,0.685,37.019,12.06,36.922,34.315,5.029,6.014,5.685
44,0.698,37.173,12.1,36.912,34.315,4.907,6.015,5.564
45,0.701,37.28,12.155,36.902,34.318,4.906,5.893,5.645
46,0.698,37.339,12.05,36.902,34.312,4.947,6.014,5.564
47,0.701,37.234,12.06,36.941,34.325,5.15,6.015,5.848
48,0.711,37.415,12.08,36.932,34.322,5.071,5.974,5.688
49,0.711,37.465,12.104,36.922,34.315,5.03,5.933,5.605
50,0.711,37.523,12.057,36.903,34.318,5.07,5.974,5.686
51,0.711,37.236,12.033,36.922,34.322,5.07,6.055,5.727
52,0.702,37.367,12.053,36.903,34.315,4.989,5.975,5.605
53,0.688,37.436,12.018,36.883,34.315,4.988,5.974,5.604
54,0.695,37.484,12.111,36.912,34.312,5.029,5.974,5.645
55,0.685,37.072,12.135,36.902,34.308,4.907,5.893,5.645
56,0.685,37.193,12.089,36.893,34.301,4.987,5.851,5.605
57,0.688,37.328,12.073,36.902,34.322,5.151,6.054,5.767
58,0.705,37.157,12.045,36.941,34.329,5.112,6.056,5.647
59,0.682,37.136,12.123,36.903,34.322,5.071,6.015,5.686
60,0.695,37.251,12.061,36.902,34.319,5.07,6.015,5.768
61,0.685,37.367,12.029,36.912,34.319,5.07,6.056,5.768
62,0.695,37.014,12.052,36.902,34.308,5.03,5.975,5.687
63,0.705,37.077,12.053,36.883,34.308,4.948,5.893,5.605
64,0.705,37.212,12.064,36.921,34.311,5.029,5.973,5.645
65,0.708,37.3,12.041,36.903,34.315,4.989,5.974,5.645
66,0.708,36.821,12.103,36.883,34.312,4.988,5.974,5.605
67,0.695,36.989,12.069,36.883,34.315,5.029,5.974,5.726
68,0.721,37.144,12.084,36.931,34.329,5.111,6.015,5.687
69,0.715,37.184,12.108,36.883,34.315,5.03,5.974,5.687
70,0.728,36.906,12.092,36.883,34.322,4.989,6.015,5.687
71,0.715,37.057,12.018,36.902,34.319,5.11,6.096,5.727
72,0.718,37.183,12.017,36.902,34.322,5.071,6.016,5.687
73,0.705,37.204,12.029,36.874,34.312,4.908,5.852,5.524
74,0.689,36.705,11.998,36.883,34.312,5.028,5.973,5.644
75,0.705,36.854,12.037,36.873,34.315,5.07,5.893,5.645
76,0.685,36.97,12.068,36.854,34.315,4.989,5.892,5.564
77,0.682,37.0,12.072,36.854,34.308,4.988,5.892,5.604
78,0.692,36.761,12.061,36.892,34.329,5.11,6.054,5.726
79,0.701,36.921,12.107,36.912,34.326,5.03,5.975,5.687
80,0.685,36.99,12.1,36.893,34.315,4.989,6.015,5.687
81,0.692,37.125,11.995,36.893,34.315,5.029,6.015,5.727
82,0.698,37.146,12.072,36.893,34.322,5.07,5.974,5.687
83,0.714,37.28,11.994,36.864,34.319,5.03,5.933,5.646
84,0.702,37.32,12.021,36.854,34.305,4.989,5.892,5.605
85,0.701,36.342,12.088,36.873,34.318,5.07,5.933,5.604
86,0.708,36.332,12.104,36.864,34.312,5.03,5.933,5.604
87,0.708,36.457,12.1,36.854,34.308,4.907,5.933,5.564
88,0.708,36.573,12.069,36.864,34.308,4.987,5.933,5.685
89,0.721,36.488,12.154,36.883,34.329,5.151,6.055,5.687
90,0.715,36.602,12.085,36.864,34.319,4.99,5.934,5.646
91,0.715,36.728,12.053,36.873,34.319,4.988,5.892,5.605
92,0.708,36.825,12.037,36.931,34.325,5.029,5.933,5.645
93,0.705,36.222,12.053,36.864,34.319,5.07,6.014,5.645
94,0.702,36.35,12.025,36.864,34.315,4.948,5.893,5.523
95,0.685,36.438,12.025,36.854,34.315,4.988,5.973,5.644
96,0.692,36.535,12.115,36.854,34.318,5.029,5.933,5.564
97,0.685,36.286,12.03,36.892,34.312,5.03,5.892,5.563
98,0.685,36.418,12.084,36.845,34.305,4.989,5.892,5.523
99,0.672,36.534,12.08,36.863,34.322,5.07,6.014,5.725
100,0.691,36.622,12.131,36.892,34.322,5.07,5.934,5.646
101,0.685,36.172,12.069,36.874,34.312,4.989,5.974,5.686
102,0.685,36.321,12.026,36.883,34.325,5.07,5.933,5.646
103,0.695,36.409,12.064,36.873,34.319,5.07,5.974,5.645
104,0.705,36.726,12.053,36.854,34.315,4.989,5.852,5.564
105,0.692,36.096,12.072,36.816,34.305,4.988,5.81,5.604
106,0.698,36.243,12.08,36.844,34.311,4.988,5.891,5.523
107,0.695,36.36,12.014,36.883,34.312,5.029,5.811,5.563
108,0.695,35.939,12.08,36.845,34.308,4.948,5.81,5.523
109,0.698,35.964,12.072,36.844,34.311,5.029,5.891,5.644
110,0.711,36.117,12.139,36.902,34.325,5.111,5.973,5.605
111,0.705,36.196,12.042,36.864,34.315,4.989,5.893,5.645
112,0.695,35.679,12.041,36.844,34.318,5.029,5.851,5.564
113,0.688,35.817,12.037,36.863,34.312,5.03,5.851,5.685
114,0.698,35.963,12.064,36.864,34.318,5.03,5.932,5.605
115,0.682,36.022,12.068,36.825,34.312,4.867,5.689,5.442
116,0.669,36.185,12.115,36.835,34.312,4.987,5.768,5.521
117,0.669,36.34,12.034,36.844,34.315,4.988,5.85,5.603
118,0.682,36.457,12.013,36.844,34.305,4.948,5.769,5.523
119,0.669,36.516,12.064,36.835,34.315,4.947,5.809,5.522
120,0.685,35.404,12.119,36.883,34.325,5.11,5.972,5.725
121,0.708,35.575,12.092,36.854,34.319,4.989,5.893,5.605
122,0.692,35.682,11.987,36.844,34.315,5.029,5.851,5.645
123,0.721,35.75,12.072,36.854,34.318,5.07,5.81,5.564
124,0.728,35.751,12.084,36.854,34.329,5.03,5.85,5.645
125,0.757,35.904,12.037,36.854,34.319,4.948,5.81,5.483
126,0.754,35.954,12.134,36.816,34.305,4.866,5.81,5.522
127,0.77,36.021,11.948,36.863,34.318,4.987,5.81,5.563
128,0.78,35.533,12.028,36.825,34.308,4.988,5.81,5.563
129,0.79,35.643,12.084,36.806,34.305,4.866,5.769,5.523
130,0.797,35.759,12.104,36.834,34.315,4.987,5.85,5.603
131,0.807,35.588,12.069,36.873,34.325,5.07,5.81,5.645
132,0.807,35.423,11.983,36.835,34.315,4.948,5.728,5.645
133,0.807,35.575,12.091,36.844,34.322,4.907,5.768,5.645
134,0.794,35.673,12.045,36.844,34.322,5.069,5.85,5.645
135,0.793,35.252,12.076,36.835,34.319,4.989,5.769,5.605
136,0.78,35.343,12.119,36.806,34.308,4.826,5.687,5.442
137,0.777,35.469,12.061,36.825,34.311,4.946,5.768,5.521
138,0.793,35.585,12.076,36.825,34.315,4.947,5.809,5.603
139,0.797,35.174,12.053,36.806,34.315,4.825,5.728,5.482
140,0.803,35.314,12.111,36.815,34.315,4.824,5.727,5.562
141,0.829,35.449,12.073,36.844,34.325,5.068,5.931,5.726
142,0.846,35.556,12.057,36.835,34.315,4.867,5.77,5.646
143,0.83,35.068,12.021,36.835,34.315,4.946,5.809,5.605
144,0.836,35.207,12.052,36.835,34.318,5.029,5.769,5.564
145,0.82,35.343,12.053,36.835,34.322,4.989,5.768,5.726
146,0.83,35.402,12.115,36.835,34.315,4.948,5.687,5.524
147,0.807,35.028,12.026,36.806,34.301,4.866,5.687,5.563
148,0.813,35.226,12.041,36.806,34.311,4.906,5.809,5.604
149,0.82,35.343,12.103,36.796,34.308,4.865,5.647,5.564
150,0.813,35.363,12.096,36.796,34.311,4.906,5.686,5.482
151,0.807,34.99,12.084,36.796,34.315,5.028,5.809,5.684
152,0.81,35.168,12.073,36.844,34.332,5.03,5.85,5.646
153,0.8,35.247,12.014,36.825,34.319,4.948,5.729,5.645
154,0.781,35.295,12.052,36.825,34.308,4.988,5.768,5.645
155,0.774,34.95,12.053,36.825,34.318,4.988,5.809,5.686
156,0.78,35.081,12.107,36.825,34.319,4.948,5.728,5.564
157,0.764,35.15,12.038,36.796,34.301,4.825,5.687,5.604
158,0.764,34.863,12.088,36.815,34.322,4.946,5.727,5.564
159,0.757,34.946,12.069,36.825,34.315,4.947,5.727,5.645
160,0.741,35.072,12.104,36.825,34.312,4.907,5.646,5.605
161,0.738,35.169,12.12,36.806,34.312,4.987,5.767,5.645
162,0.754,34.834,12.061,36.834,34.329,5.192,5.85,5.767
163,0.748,34.936,11.986,36.825,34.315,4.99,5.769,5.647
164,0.747,35.062,11.974,36.835,34.315,4.948,5.687,5.645
165,0.754,35.159,12.052,36.825,34.318,5.069,5.809,5.645
166,0.761,34.7,12.037,36.825,34.322,4.989,5.81,5.727
167,0.744,34.801,12.064,36.787,34.312,4.907,5.647,5.484
168,0.728,34.955,12.107,36.815,34.312,4.947,5.767,5.684
169,0.734,35.014,12.049,36.796,34.315,4.947,5.728,5.564
170,0.741,34.507,12.123,36.786,34.312,4.947,5.727,5.604
171,0.725,34.645,12.116,36.777,34.312,4.907,5.687,5.564
172,0.724,34.791,12.085,36.824,34.325,5.109,5.931,5.807
173,0.741,34.869,11.994,36.835,34.322,4.989,5.77,5.647
174,0.721,34.62,11.908,36.815,34.319,5.11,5.768,5.686
175,0.715,34.79,11.993,36.796,34.315,4.989,5.809,5.646
176,0.708,34.898,12.033,36.805,34.318,5.07,5.81,5.767
177,0.708,34.937,12.103,36.806,34.319,4.989,5.769,5.565
178,0.698,34.515,12.077,36.767,34.305,4.907,5.687,5.523
179,0.695,34.674,12.084,36.805,34.315,5.069,5.727,5.644
180,0.692,34.781,12.073,36.786,34.312,4.948,5.768,5.605
181,0.682,34.61,12.15,36.805,34.305,4.947,5.728,5.604
182,0.682,34.637,12.085,36.786,34.315,4.988,5.687,5.686
183,0.688,34.791,12.041,36.834,34.325,5.07,5.89,5.768
184,0.695,34.926,12.014,36.806,34.319,4.989,5.729,5.647
185,0.685,34.333,11.998,36.796,34.315,5.029,5.727,5.645
186,0.688,34.461,12.064,36.805,34.315,5.03,5.768,5.686
187,0.685,34.587,12.068,36.806,34.318,4.989,5.768,5.727
188,0.698,34.713,12.092,36.786,34.312,4.948,5.647,5.524
189,0.688,34.341,12.002,36.767,34.308,4.947,5.767,5.644
190,0.698,34.509,12.111,36.786,34.318,4.988,5.768,5.645
191,0.695,34.607,12.116,36.786,34.308,4.988,5.768,5.564
192,0.692,34.704,12.088,36.786,34.308,4.948,5.768,5.604
193,0.682,34.321,12.053,36.796,34.318,5.069,5.85,5.767
194,0.692,34.519,11.982,36.834,34.322,5.111,5.729,5.728
195,0.675,34.626,12.009,36.815,34.319,5.03,5.768,5.646
196,0.672,34.675,12.044,36.806,34.315,4.989,5.809,5.645
197,0.672,34.292,12.107,36.806,34.318,5.029,5.81,5.727
198,0.675,34.442,12.088,36.796,34.319,5.03,5.85,5.687
199,0.662,34.539,12.053,36.786,34.305,4.826,5.566,5.564
200,0.656,34.579,12.111,36.796,34.311,4.905,5.888,5.685
201,0.665,34.31,12.077,36.786,34.312,4.987,5.729,5.687
202,0.682,34.423,12.092,36.777,34.308,4.907,5.727,5.646
203,0.672,34.539,12.03,36.767,34.308,4.987,5.809,5.686
204,0.675,34.444,12.006,36.815,34.325,5.11,5.932,5.809
205,0.688,34.328,12.029,36.787,34.319,5.03,5.811,5.688
206,0.685,34.433,12.076,36.786,34.319,4.989,5.85,5.687
207,0.675,34.501,12.108,36.777,34.315,5.07,5.891,5.687
208,0.695,34.147,12.053,36.786,34.318,5.07,5.851,5.727
209,0.698,34.239,12.076,36.796,34.315,4.989,5.769,5.687
210,0.679,34.355,12.069,36.748,34.305,4.948,5.809,5.605
211,0.688,34.462,12.119,36.767,34.311,5.029,5.728,5.645
212,0.682,34.127,12.077,36.767,34.315,4.948,5.727,5.645
213,0.672,34.306,12.022,36.767,34.312,4.988,5.727,5.564
214,0.669,34.413,11.982,36.796,34.312,4.988,5.809,5.766
215,0.682,34.529,12.021,36.815,34.329,5.11,5.891,5.809
216,0.675,34.061,12.091,36.777,34.319,4.989,5.811,5.688
217,0.662,34.2,12.077,36.777,34.322,4.988,5.769,5.727
218,0.672,34.345,12.084,36.777,34.319,5.029,5.809,5.768
219,0.665,34.414,12.014,36.796,34.319,5.07,5.891,5.728
220,0.662,34.117,12.068,36.758,34.315,4.948,5.689,5.565
221,0.662,34.239,12.115,36.767,34.312,5.029,5.768,5.726
222,0.669,34.384,12.12,36.767,34.305,5.03,5.809,5.646
223,0.678,34.414,12.077,36.748,34.311,4.907,5.688,5.645
224,0.672,34.088,11.998,36.747,34.308,4.947,5.687,5.564
225,0.678,34.229,12.037,36.786,34.322,5.029,5.849,5.766
226,0.701,34.374,12.08,36.805,34.329,5.151,5.851,5.728
227,0.695,34.625,12.108,36.767,34.322,5.071,5.769,5.646
228,0.688,34.186,12.081,36.786,34.315,5.07,5.809,5.727
229,0.695,34.326,12.069,36.777,34.318,5.07,5.85,5.605
230,0.708,34.413,12.08,36.767,34.322,5.07,5.769,5.686
231,0.695,34.069,12.112,36.748,34.312,4.948,5.647,5.483
232,0.679,34.075,12.073,36.747,34.318,5.069,5.849,5.603
233,0.672,34.257,12.022,36.776,34.322,4.989,5.729,5.645
234,0.669,34.365,12.021,36.767,34.308,4.988,5.687,5.564
235,0.656,33.954,11.998,36.748,34.308,4.988,5.727,5.645
236,0.655,34.112,12.048,36.786,34.318,5.151,5.85,5.767
237,0.659,34.267,12.099,36.777,34.319,4.99,5.729,5.687
238,0.633,34.346,12.041,36.805,34.308,5.07,5.809,5.646
239,0.645,34.078,12.017,36.777,34.311,5.07,5.81,5.727
240,0.649,34.229,12.064,36.786,34.322,5.07,5.81,5.687
241,0.649,34.355,12.111,36.767,34.315,5.07,5.728,5.646
242,0.652,34.404,12.092,36.748,34.315,4.867,5.687,5.645
243,0.688,33.983,12.069,36.757,34.318,5.028,5.687,5.686
244,0.695,34.122,12.057,36.767,34.315,5.07,5.727,5.646
245,0.705,34.248,12.053,36.757,34.308,4.948,5.727,5.686
246,0.715,34.288,12.057,36.748,34.318,4.988,5.768,5.687
247,0.744,34.097,12.107,36.786,34.325,5.11,5.891,5.727
248,0.731,34.181,12.045,36.767,34.319,4.989,5.77,5.768
249,0.799,34.335,12.029,36.767,34.315,5.07,5.768,5.687
250,0.833,34.327,12.06,36.776,34.322,4.989,5.809,5.687
251,0.856,34.001,12.119,36.757,34.319,5.07,5.81,5.727
252,0.869,34.103,12.085,36.728,34.301,4.908,5.647,5.605
253,0.889,34.248,12.026,36.766,34.311,4.987,5.767,5.726
254,0.921,34.048,11.974,36.748,34.315,4.907,5.728,5.687
255,0.99,34.017,12.028,36.757,34.312,4.987,5.687,5.687
256,1.049,34.142,12.01,36.728,34.312,4.988,5.809,5.687
257,1.141,34.277,12.111,36.776,34.325,5.11,5.932,5.89
258,1.226,33.876,11.991,36.777,34.315,5.03,5.811,5.851
259,1.286,34.016,12.033,36.777,34.322,5.07,5.85,5.891
260,1.319,34.132,12.092,36.757,34.322,5.03,5.891,5.851
261,1.368,34.229,12.131,36.767,34.319,5.07,5.851,5.851
262,1.411,34.0,12.139,36.738,34.308,4.908,5.688,5.729
263,1.447,34.113,12.061,36.757,34.308,4.906,5.809,5.89
264,1.496,34.277,11.998,36.748,34.315,4.947,5.728,5.851
265,1.545,34.355,12.009,36.747,34.308,4.907,5.727,5.851
266,1.591,33.886,12.044,36.728,34.308,4.906,5.809,5.851
267,1.657,34.045,12.084,36.757,34.315,4.987,5.85,5.973
268,1.739,34.19,12.006,36.776,34.315,5.07,5.851,5.893
269,1.766,34.23,12.029,36.748,34.315,4.989,5.81,5.892
270,1.782,33.952,12.088,36.738,34.315,4.988,5.85,5.892
271,1.786,34.093,12.155,36.747,34.315,5.07,5.81,5.973
272,1.769,34.21,12.14,36.747,34.329,4.989,5.728,5.933
273,1.75,34.23,12.069,36.728,34.301,4.948,5.687,5.892
274,1.789,34.019,12.006,36.747,34.315,4.988,5.768,6.014
275,1.825,34.142,12.033,36.719,34.312,4.948,5.687,6.096
276,1.796,34.258,12.029,36.718,34.315,4.907,5.687,6.097
277,1.74,34.231,12.068,36.718,34.305,4.947,5.809,6.3
278,1.61,34.058,12.006,36.786,34.329,5.11,5.891,6.425
279,1.514,34.19,12.06,36.748,34.319,5.03,5.77,6.466
280,1.386,34.287,12.084,36.757,34.315,4.989,5.809,6.507
281,1.278,34.02,12.084,36.748,34.315,5.029,5.81,6.67
282,1.215,34.113,12.1,36.767,34.315,5.03,5.81,6.713
283,1.181,34.267,12.081,36.748,34.315,5.03,5.688,6.754
284,1.123,34.317,11.975,36.709,34.308,4.948,5.687,6.917
285,1.063,33.924,12.013,36.738,34.315,4.907,5.89,7.0
286,0.969,34.074,12.037,36.738,34.315,4.987,5.729,7.041
287,0.834,34.19,12.068,36.738,34.312,4.948,5.768,7.204
288,0.761,34.316,12.053,36.757,34.312,4.907,5.768,7.369
289,0.731,33.953,12.084,36.748,34.322,5.15,5.972,7.452
290,0.712,34.084,12.065,36.719,34.312,4.949,5.893,7.493
291,0.676,34.2,12.127,36.728,34.312,4.988,5.892,7.494
292,0.656,34.288,12.085,36.728,34.318,5.07,5.892,7.534
293,0.616,33.943,12.08,36.719,34.325,5.03,5.933,7.779
294,0.58,34.093,12.01,36.738,34.315,4.989,5.892,7.659
295,0.541,34.191,12.072,36.69,34.308,4.907,5.811,7.82
296,0.544,34.268,12.096,36.728,34.315,4.987,5.85,7.863
297,0.593,33.943,12.1,36.709,34.312,4.948,5.851,7.944
298,0.635,34.074,11.983,36.728,34.305,4.907,5.932,8.026
299,0.665,34.2,12.044,36.719,34.315,4.947,5.892,8.312
300,0.721,34.441,12.053,36.757,34.332,5.029,5.973,8.477
301,0.754,34.002,12.072,36.709,34.319,4.989,5.933,8.52
302,0.79,34.122,12.1,36.728,34.315,5.029,6.014,8.683
303,0.826,34.239,12.026,36.719,34.318,5.03,6.015,8.847
304,0.843,33.952,12.013,36.738,34.322,5.03,6.015,9.093
305,0.856,33.997,12.06,36.719,34.312,4.907,5.812,9.054
306,0.866,34.084,12.049,36.709,34.315,4.987,5.972,9.379
307,0.885,34.2,12.123,36.709,34.308,4.907,5.893,9.382
308,0.898,33.923,12.026,36.709,34.311,4.865,5.973,9.545
309,0.918,34.035,12.064,36.699,34.308,4.906,5.933,9.588
310,0.918,34.171,12.029,36.718,34.322,5.028,6.055,9.832
311,0.925,34.306,12.107,36.738,34.322,5.07,6.015,9.834
312,0.915,33.895,12.116,36.719,34.319,5.03,5.974,9.834
313,0.909,34.054,12.061,36.718,34.319,5.03,5.974,9.875
314,0.905,34.2,12.029,36.718,34.322,4.989,5.974,9.876
315,0.892,34.288,12.033,36.747,34.322,5.029,6.015,9.876
316,0.879,33.914,12.064,36.69,34.305,4.867,5.893,9.753
317,0.879,34.054,12.084,36.699,34.315,4.987,5.973,9.833
318,0.879,34.19,12.053,36.699,34.312,4.988,5.811,9.753
319,0.876,34.259,12.037,36.68,34.308,4.907,5.891,9.793
320,0.863,34.691,12.021,36.699,34.315,4.947,5.892,9.915
321,0.879,34.839,12.13,36.747,34.332,5.069,6.136,9.957
322,0.885,34.946,12.081,36.709,34.322,5.07,5.976,9.876
323,0.876,34.957,12.112,36.709,34.319,4.989,5.974,9.876
324,0.882,33.672,12.026,36.718,34.315,5.07,5.974,9.835
325,0.882,33.812,12.072,36.709,34.315,5.07,5.974,9.875
326,0.885,33.938,12.029,36.699,34.315,4.989,5.893,9.713
327,0.863,34.045,12.107,36.67,34.315,4.948,5.973,9.752
328,0.882,34.152,11.991,36.708,34.315,5.029,5.974,9.712
329,0.876,34.277,12.025,36.69,34.308,4.948,5.933,9.589
330,0.872,34.384,12.064,36.68,34.311,4.907,5.892,9.588
331,0.879,33.8,12.111,36.699,34.315,5.028,6.014,9.629
332,0.885,33.948,12.116,36.728,34.325,5.03,6.015,9.507
333,0.859,34.036,12.046,36.699,34.315,4.989,5.934,9.587
334,0.859,34.142,12.06,36.709,34.322,5.029,5.974,9.466
335,0.856,33.779,12.037,36.699,34.315,5.03,6.015,9.465
336,0.849,33.976,12.084,36.709,34.315,4.989,5.974,9.302
337,0.853,34.055,12.119,36.69,34.305,4.907,5.811,9.056
338,0.846,34.161,12.042,36.709,34.311,4.947,5.891,9.095
339,0.84,33.923,12.037,36.69,34.318,4.988,5.892,9.095
340,0.849,34.074,12.041,36.689,34.315,4.907,5.892,8.892
341,0.853,34.171,12.103,36.689,34.312,4.906,5.811,8.93
342,0.856,34.258,12.104,36.709,34.325,5.15,6.054,8.972
343,0.875,33.933,12.088,36.709,34.315,5.031,5.934,8.809
344,0.866,34.045,11.998,36.709,34.315,5.03,5.892,8.686
345,0.869,34.19,12.005,36.709,34.318,4.989,5.973,8.684
346,0.879,34.22,12.064,36.718,34.322,5.07,5.893,8.684
347,0.885,33.885,12.068,36.69,34.315,4.908,5.77,8.522
348,0.869,33.997,12.022,36.689,34.318,5.028,5.809,8.52
349,0.879,34.132,12.029,36.689,34.315,4.948,5.85,8.398
350,0.889,34.21,12.06,36.68,34.308,4.947,5.81,8.316
351,0.882,33.799,12.111,36.68,34.311,4.866,5.85,8.274
352,0.882,33.967,12.12,36.708,34.325,5.109,6.013,8.396
353,0.885,34.074,12.12,36.718,34.322,5.03,5.852,8.194
354,0.866,33.893,12.03,36.68,34.315,4.989,5.891,8.192
355,0.872,33.997,12.052,36.699,34.315,5.029,5.851,8.192
356,0.866,34.142,12.033,36.699,34.325,5.03,5.891,8.151
357,0.866,34.239,12.107,36.699,34.312,4.907,5.77,7.947
358,0.856,33.77,11.975,36.67,34.308,4.906,5.85,7.905
359,0.859,33.928,12.048,36.718,34.318,4.987,5.851,7.904
360,0.866,34.064,12.049,36.69,34.312,4.988,5.81,7.863
361,0.853,34.152,12.092,36.68,34.315,4.907,5.85,7.741
362,0.866,33.788,12.131,36.689,34.322,4.987,5.891,7.862
363,0.892,33.976,12.12,36.718,34.325,5.07,5.973,7.782
364,0.873,34.065,12.092,36.709,34.322,5.03,5.852,7.7
365,0.885,34.142,12.049,36.69,34.319,4.948,5.891,7.618
366,0.882,33.74,12.053,36.689,34.319,5.029,5.892,7.657
367,0.895,33.89,12.068,36.689,34.315,4.989,5.892,7.576
368,0.892,33.997,12.022,36.661,34.305,4.826,5.729,7.413
369,0.908,34.065,12.048,36.67,34.318,4.824,5.809,7.411
370,0.902,33.768,12.057,36.67,34.312,4.987,5.81,7.411
371,0.895,33.9,12.107,36.67,34.315,4.907,5.81,7.33
372,0.882,34.006,12.139,36.67,34.308,4.906,5.81,7.329
373,0.889,34.055,12.093,36.689,34.322,4.947,5.972,7.451
374,0.899,33.807,12.061,36.689,34.329,4.988,5.893,7.29
375,0.895,33.929,12.076,36.689,34.319,5.029,5.892,7.288
376,0.886,34.035,12.014,36.689,34.322,4.989,5.811,7.288
377,0.885,33.845,12.064,36.689,34.325,4.988,5.891,7.247
378,0.889,33.852,12.022,36.689,34.319,4.988,5.851,7.206
379,0.876,33.968,12.045,36.651,34.305,4.826,5.81,7.084
380,0.876,34.093,12.076,36.689,34.315,4.987,5.85,7.123
381,0.889,33.644,12.084,36.67,34.315,4.907,5.81,7.043
382,0.885,33.745,12.115,36.67,34.312,4.865,5.85,7.042
383,0.895,33.899,12.12,36.66,34.308,4.906,5.81,7.001
384,0.912,34.006,12.069,36.689,34.332,5.15,5.891,7.082
385,0.915,33.653,12.104,36.689,34.315,4.949,5.851,7.002
386,0.905,33.793,12.049,36.67,34.318,4.947,5.769,7.041
387,0.915,33.919,12.127,36.66,34.319,4.988,5.85,7.042
388,0.922,34.016,12.022,36.689,34.325,4.988,5.851,6.96
389,0.928,33.538,12.064,36.661,34.319,4.866,5.769,6.756
390,0.918,33.658,12.061,36.632,34.312,4.824,5.768,6.836
391,0.925,33.803,12.088,36.651,34.315,4.905,5.768,6.796
392,0.925,33.862,12.115,36.641,34.318,4.865,5.687,6.836
393,0.909,33.632,12.026,36.641,34.308,4.865,5.727,6.755
394,0.908,33.783,12.017,36.66,34.315,4.987,5.89,6.876
395,0.934,33.948,11.998,36.689,34.322,5.029,5.811,6.796
396,0.922,33.94,12.052,36.661,34.315,4.989,5.769,6.795
397,0.918,33.575,12.107,36.651,34.322,4.948,5.768,6.795
398,0.915,33.696,12.045,36.651,34.319,4.988,5.809,6.673
399,0.902,33.822,12.029,36.67,34.315,4.948,5.81,6.713
400,0.912,33.689,12.052,36.622,34.308,4.825,5.647,6.591
401,0.915,33.534,12.115,36.65,34.315,4.946,5.727,6.671
402,0.925,33.696,12.085,36.632,34.312,4.866,5.727,6.631
403,0.944,33.774,12.014,36.631,34.312,4.865,5.727,6.59
404,0.948,33.468,12.005,36.622,34.312,4.906,5.687,6.59
405,0.945,33.59,12.041,36.65,34.329,5.109,5.849,6.712
406,0.967,33.744,12.037,36.651,34.315,4.908,5.769,6.51
407,0.951,33.804,12.115,36.632,34.312,4.906,5.768,6.549
408,0.958,33.353,12.042,36.651,34.322,4.906,5.728,6.63
409,0.961,33.502,12.06,36.641,34.322,4.987,5.809,6.55
410,0.968,33.628,12.08,36.651,34.315,4.948,5.647,6.468
411,0.951,33.697,12.108,36.603,34.301,4.907,5.767,6.507
412,0.967,33.381,12.104,36.621,34.315,4.947,5.768,6.427
413,0.964,33.531,12.038,36.612,34.312,4.866,5.728,6.507
414,0.955,33.638,12.014,36.612,34.312,4.906,5.727,6.427
415,0.951,33.726,12.037,36.602,34.322,4.906,5.768,6.548
416,0.971,33.362,12.056,36.66,34.332,5.069,5.85,6.549
417,0.964,33.483,12.088,36.613,34.319,4.948,5.81,6.427
418,0.955,33.619,12.069,36.622,34.325,4.988,5.769,6.426
419,0.967,33.687,12.065,36.65,34.322,4.948,5.85,6.466
420,0.968,33.362,12.072,36.632,34.315,4.988,5.81,6.467
421,0.968,33.474,12.139,36.593,34.308,4.826,5.688,6.345
422,0.971,33.59,12.077,36.612,34.318,4.905,5.849,6.384
423,0.984,33.917,12.08,36.602,34.301,4.865,5.769,6.344
424,0.984,33.326,11.971,36.612,34.308,4.906,5.768,6.262
425,0.991,33.464,12.036,36.602,34.308,4.865,5.768,6.424
426,1.004,33.59,12.014,36.631,34.315,4.987,5.931,6.507
427,1.014,33.198,12.111,36.622,34.315,4.907,5.852,6.345
428,1.004,33.213,12.065,36.641,34.312,4.906,5.851,6.343
429,1.03,33.376,12.041,36.612,34.315,4.947,5.81,6.303
430,1.02,33.493,12.107,36.602,34.325,4.947,5.891,6.302
431,1.027,33.149,12.104,36.612,34.315,4.907,5.77,6.221
432,1.014,33.241,12.108,36.574,34.308,4.825,5.728,6.261
433,1.014,33.405,12.073,36.612,34.315,4.905,5.809,6.221
434,1.017,33.503,12.041,36.612,34.315,4.865,5.769,6.18
435,1.017,33.005,12.06,36.612,34.308,4.865,5.687,6.179
436,1.014,33.144,12.084,36.602,34.315,4.906,5.768,6.261
437,1.036,33.328,12.076,36.641,34.329,5.028,5.891,6.302
438,1.04,33.387,12.022,36.612,34.315,4.948,5.811,6.262
439,1.024,33.081,12.048,36.641,34.315,4.947,5.728,6.262
440,1.036,33.222,12.053,36.631,34.315,4.907,5.809,6.302
441,1.043,33.357,12.092,36.651,34.318,4.947,5.81,6.221
442,1.046,33.378,12.092,36.593,34.308,4.825,5.647,6.139
443,1.05,33.014,12.069,36.612,34.318,4.905,5.808,6.179
444,1.069,33.154,12.053,36.612,34.315,4.906,5.769,6.139
445,1.066,33.28,12.107,36.593,34.308,4.825,5.687,6.179
446,1.076,33.3,12.057,36.593,34.308,4.905,5.687,6.179
447,1.086,33.013,12.103,36.631,34.329,4.987,5.89,6.301
448,1.109,33.202,12.045,36.641,34.319,4.948,5.811,6.14
449,1.102,33.309,12.068,36.612,34.312,4.947,5.769,6.138
450,1.109,33.042,12.041,36.622,34.315,4.988,5.768,6.138
451,1.119,32.981,12.103,36.631,34.318,4.948,5.809,6.138
452,1.115,33.105,12.135,36.622,34.308,4.907,5.728,6.016
453,1.102,33.212,12.065,36.602,34.311,4.906,5.768,6.096
454,1.119,32.878,12.061,36.612,34.315,4.906,5.728,6.056
455,1.119,32.989,12.029,36.593,34.312,4.906,5.687,5.975
456,1.112,33.134,12.033,36.593,34.305,4.865,5.727,6.055
457,1.125,33.241,12.08,36.621,34.329,5.068,5.85,6.219
458,1.142,32.907,12.053,36.641,34.322,4.908,5.851,6.18
459,1.116,33.047,12.053,36.622,34.315,4.987,5.769,6.057
460,1.138,33.164,12.057,36.622,34.318,4.988,5.768,6.178
461,1.142,33.261,12.096,36.622,34.319,4.948,5.768,6.098
462,1.155,32.811,12.108,36.612,34.315,4.825,5.647,5.894
463,1.168,32.912,12.096,36.583,34.312,4.905,5.727,5.973
464,1.181,33.076,12.08,36.602,34.315,4.947,5.727,5.974
465,1.188,33.145,11.944,36.612,34.308,4.947,5.727,5.974
466,1.197,32.915,12.028,36.583,34.308,4.907,5.687,6.015
467,1.207,33.057,12.084,36.612,34.315,4.906,5.809,6.096
468,1.233,33.231,12.084,36.65,34.325,5.028,5.81,6.016
469,1.23,33.242,12.022,36.603,34.315,4.907,5.85,6.015
470,1.237,32.84,12.029,36.631,34.322,4.906,5.81,5.974
471,1.25,32.979,12.091,36.612,34.315,4.987,5.81,5.974
472,1.247,33.086,12.116,36.622,34.322,4.948,5.81,5.974
473,1.231,33.087,12.073,36.612,34.308,4.825,5.728,5.933
474,1.25,32.857,12.057,36.602,34.315,4.865,5.768,6.014
475,1.26,33.027,11.932,36.602,34.318,4.906,5.768,5.974
476,1.257,33.125,12.032,36.593,34.308,4.825,5.768,5.974
477,1.257,32.79,12.095,36.612,34.305,4.865,5.768,5.974
478,1.273,32.931,12.077,36.631,34.329,5.068,5.891,6.096
479,1.283,33.076,12.057,36.631,34.315,4.948,5.811,6.016
480,1.286,33.145,12.037,36.603,34.315,4.947,5.769,6.015
481,1.299,32.982,12.076,36.612,34.318,4.988,5.809,5.974
482,1.306,33.125,12.1,36.631,34.315,4.948,5.891,5.974
483,1.329,33.251,12.151,36.612,34.308,4.907,5.77,5.893
484,1.323,33.3,12.069,36.583,34.315,4.906,5.768,5.892
485,1.339,33.07,11.99,36.612,34.315,4.906,5.809,5.973
486,1.349,33.221,12.06,36.612,34.312,4.825,5.769,5.893
487,1.355,33.319,12.064,36.593,34.305,4.783,5.728,5.851
488,1.362,33.406,12.065,36.631,34.322,5.027,5.85,6.054
489,1.404,33.33,12.065,36.641,34.329,4.989,5.81,5.934
490,1.382,33.454,12.068,36.593,34.315,4.988,5.85,5.933
491,1.388,33.58,12.072,36.612,34.318,4.907,5.81,5.933
492,1.382,33.629,12.108,36.602,34.319,4.987,5.85,5.974
493,1.385,33.601,12.084,36.612,34.319,4.988,5.81,5.893
494,1.385,33.725,12.061,36.583,34.305,4.826,5.728,5.892
495,1.378,33.851,11.955,36.612,34.315,4.987,5.768,5.892
496,1.378,33.9,12.036,36.583,34.312,4.988,5.768,5.811
497,1.378,34.083,12.064,36.583,34.312,4.826,5.728,5.769
498,1.388,34.21,12.068,36.593,34.312,4.905,5.85,5.931
499,1.388,34.355,12.072,36.641,34.329,5.028,5.973,5.974
500,1.395,34.318,12.053,36.612,34.315,4.989,5.771,5.893
501,1.398,34.413,12.06,36.593,34.315,5.029,5.809,5.892
502,1.408,34.539,12.088,36.612,34.318,4.948,5.81,5.973
503,1.424,34.607,12.104,36.593,34.329,4.947,5.85,5.933
504,1.424,34.982,12.069,36.583,34.305,4.866,5.688,5.77
505,1.415,35.101,12.01,36.593,34.315,4.865,5.809,5.85
506,1.427,35.255,12.029,36.593,34.315,4.865,5.81,5.851
507,1.434,35.324,12.076,36.573,34.312,4.865,5.769,5.769
508,1.434,35.392,12.072,36.573,34.312,4.865,5.809,5.809
509,1.434,35.565,12.026,36.621,34.322,4.987,5.85,5.932
510,1.45,35.701,12.068,36.622,34.325,4.907,5.851,5.892
511,1.438,35.712,12.076,36.574,34.315,4.906,5.81,5.892
512,1.437,36.105,12.143,36.602,34.315,4.906,5.891,5.892
513,1.415,36.253,12.1,36.602,34.318,4.987,5.851,5.973
514,1.411,36.351,12.088,36.602,34.315,4.866,5.851,5.852
515,1.398,36.38,12.014,36.564,34.305,4.743,5.729,5.769
516,1.385,36.783,12.068,36.583,34.311,4.864,5.809,5.891
517,1.398,36.922,12.045,36.583,34.315,4.906,5.81,5.851
518,1.372,36.99,12.096,36.573,34.308,4.865,5.85,5.81
519,1.326,37.01,12.084,36.602,34.311,4.784,5.769,5.85
520,1.368,37.365,12.03,36.621,34.329,5.068,5.972,6.013
521,1.372,37.493,12.064,36.602,34.312,4.908,5.852,5.893
522,1.346,37.562,12.107,36.602,34.318,4.947,5.851,5.973
523,1.352,37.792,12.124,36.593,34.322,4.907,5.851,5.893
524,1.339,37.919,12.116,36.593,34.322,4.947,5.932,5.933
525,1.326,38.026,12.038,36.593,34.315,4.866,5.77,5.77
526,1.309,38.085,12.045,36.573,34.308,4.824,5.728,5.85
527,1.3,38.335,12.045,36.612,34.315,4.905,5.809,5.851
528,1.286,38.462,12.088,36.583,34.312,4.906,5.81,5.81
529,1.28,38.568,11.971,36.583,34.308,4.825,5.769,5.769
530,1.263,38.637,12.021,36.583,34.311,4.946,5.768,5.85
531,1.25,38.743,12.045,36.621,34.329,4.988,5.891,5.973
532,1.224,38.84,12.099,36.602,34.315,4.907,5.851,5.893
533,1.201,38.965,12.096,36.593,34.322,4.947,5.851,5.851
534,1.181,39.034,12.143,36.573,34.315,4.907,5.851,5.891
535,1.168,39.092,12.104,36.602,34.318,4.906,5.81,5.892
536,1.142,39.236,12.077,36.593,34.312,4.825,5.688,5.729
537,1.109,39.315,12.053,36.583,34.312,4.946,5.849,5.768
538,1.099,39.373,12.084,36.573,34.318,4.907,5.851,5.809
539,1.073,39.556,12.014,36.583,34.319,4.906,5.769,5.891
540,1.066,39.663,12.048,36.583,34.315,4.825,5.809,5.851
541,1.04,39.779,12.049,36.602,34.325,4.987,5.891,6.013
542,1.043,39.819,12.096,36.612,34.329,4.948,5.851,5.893
543,1.03,39.867,12.123,36.574,34.315,4.907,5.769,5.811
544,1.017,39.982,12.131,36.602,34.322,4.947,5.809,5.85
545,1.004,40.08,12.104,36.602,34.315,4.947,5.891,5.851
546,0.997,40.301,12.069,36.602,34.318,4.907,5.851,5.81
547,0.971,40.064,12.053,36.574,34.305,4.825,5.729,5.769
548,0.955,40.167,12.103,36.583,34.311,4.946,5.89,5.768
549,0.967,40.273,12.03,36.583,34.315,4.866,5.811,5.809
550,0.938,40.303,12.033,36.583,34.315,4.865,5.769,5.728
551,0.932,40.39,12.033,36.573,34.315,4.865,5.809,5.809
552,0.918,40.506,12.072,36.612,34.325,5.028,6.054,5.972
553,0.909,40.622,12.139,36.593,34.315,4.989,5.853,5.852
554,0.892,40.489,12.124,36.593,34.315,4.907,5.851,5.851
555,0.869,40.631,12.104,36.593,34.312,4.947,5.891,5.891
556,0.846,40.738,12.077,36.612,34.325,4.947,5.933,5.892
557,0.84,40.806,12.045,36.583,34.312,4.866,5.77,5.811
558,0.83,40.912,12.115,36.573,34.315,4.906,5.931,5.891
559,0.826,41.057,12.057,36.592,34.312,4.947,5.852,5.892
560,0.804,41.155,12.072,36.593,34.312,4.907,5.81,5.811
561,0.807,41.184,12.041,36.583,34.308,4.825,5.85,5.972
562,0.807,40.83,12.045,36.612,34.329,4.987,5.973,6.137
563,0.807,40.97,12.119,36.612,34.315,4.907,5.852,5.976
564,0.794,41.048,12.155,36.593,34.318,4.947,5.891,5.974
565,0.79,41.059,12.101,36.602,34.319,4.947,5.892,5.974
566,0.784,41.03,12.069,36.612,34.319,4.907,5.973,6.055
567,0.784,41.126,12.076,36.593,34.319,4.906,5.811,5.893
568,0.764,41.194,12.084,36.573,34.308,4.865,5.85,5.933
569,0.767,41.223,12.045,36.583,34.315,4.906,5.851,5.974
570,0.761,41.06,12.029,36.593,34.312,4.865,5.851,5.893
571,0.757,41.174,12.025,36.573,34.312,4.824,5.81,5.892
572,0.744,41.261,12.049,36.583,34.318,4.905,5.972,6.014
573,0.751,41.243,12.139,36.621,34.322,5.028,5.974,5.974
574,0.728,41.224,12.124,36.602,34.312,4.989,5.893,5.933
575,0.734,41.358,12.143,36.602,34.318,4.907,5.933,5.933
576,0.731,41.445,12.058,36.602,34.322,4.947,5.974,5.892
577,0.721,41.178,12.049,36.602,34.319,4.988,5.933,6.014
578,0.708,41.261,12.084,36.564,34.308,4.826,5.77,5.812
579,0.689,41.358,12.049,36.592,34.315,4.905,5.931,5.972
580,0.705,41.455,12.076,36.583,34.315,4.865,5.892,5.933
581,0.702,41.255,12.018,36.573,34.312,4.824,5.811,5.852
582,0.698,41.368,12.064,36.545,34.308,4.824,5.891,5.891
583,0.708,41.493,12.068,36.592,34.325,5.068,6.095,6.014
584,0.724,41.562,12.115,36.602,34.319,4.989,5.894,5.974
585,0.715,41.265,12.139,36.593,34.319,4.988,5.933,5.974
586,0.721,41.377,12.093,36.593,34.319,4.948,5.892,5.893
587,0.718,41.484,12.065,36.612,34.329,5.029,5.973,6.014
588,0.718,41.523,12.115,36.583,34.322,4.907,5.852,5.771
589,0.698,41.217,12.042,36.564,34.308,4.865,5.81,5.891
590,0.711,41.367,12.029,36.592,34.318,4.865,5.85,5.851
591,0.705,41.455,12.056,36.583,34.312,4.865,5.891,5.891
592,0.695,41.456,12.025,36.573,34.312,4.865,5.851,5.811
593,0.692,41.274,12.076,36.583,34.312,4.987,5.973,5.932
594,0.701,41.416,12.131,36.593,34.329,4.988,6.015,6.014
595,0.688,41.494,12.069,36.593,34.315,4.948,5.934,5.893
596,0.688,41.485,11.983,36.612,34.325,4.988,5.933,5.892
597,0.688,41.408,12.036,36.593,34.322,4.988,5.974,6.014
598,0.685,41.523,12.127,36.593,34.322,4.988,5.933,5.893
599,0.682,41.6,12.069,36.573,34.305,4.866,5.811,5.77
600,0.666,41.103,12.053,36.65,34.318,4.946,5.972,5.85
601,0.669,41.184,12.053,36.584,34.322,4.947,5.974,5.891
602,0.662,41.29,12.084,36.583,34.315,4.866,5.893,5.77
603,0.682,41.358,12.084,36.564,34.312,4.946,5.933,5.768
604,0.679,41.148,12.096,36.583,34.322,5.069,6.055,5.972
605,0.704,41.328,12.096,36.593,34.322,4.948,5.975,5.893
606,0.695,41.407,12.041,36.641,34.322,4.947,6.015,5.851
607,0.698,41.475,12.045,36.593,34.322,4.988,5.974,5.891
608,0.708,41.188,12.119,36.583,34.329,4.988,6.015,5.973
609,0.721,41.319,12.053,36.573,34.315,4.948,5.934,5.811
610,0.695,41.397,12.053,36.573,34.308,4.907,5.892,5.81
611,0.695,41.465,12.029,36.592,34.315,4.987,5.973,5.81
612,0.698,41.015,12.06,36.573,34.312,4.948,5.933,5.769
613,0.679,41.116,12.061,36.583,34.315,4.907,5.892,5.768
614,0.675,41.213,12.092,36.573,34.308,5.028,5.973,5.85
615,0.691,41.29,12.088,36.631,34.329,5.151,6.015,5.973
616,0.679,40.898,12.006,36.574,34.315,5.031,5.974,5.852
617,0.675,41.019,12.056,36.592,34.322,5.03,5.974,5.851
618,0.685,41.135,12.076,36.573,34.322,5.03,5.974,5.81
619,0.672,41.434,12.092,36.583,34.322,5.07,6.055,5.891
620,0.669,40.995,12.01,36.583,34.308,4.908,5.893,5.729
621,0.669,41.068,12.052,36.583,34.322,4.987,5.973,5.809
622,0.688,41.174,12.025,36.573,34.322,4.988,5.974,5.769
623,0.685,40.734,12.068,36.573,34.308,4.988,5.893,5.768
624,0.682,40.758,12.096,36.573,34.311,4.948,5.933,5.687
625,0.682,40.893,12.143,36.583,34.318,5.029,6.014,5.89
626,0.701,41.0,12.073,36.621,34.329,5.07,5.974,5.77
627,0.698,40.627,12.053,36.593,34.315,4.989,5.893,5.809
628,0.705,40.738,12.08,36.564,34.318,5.029,5.892,5.81
629,0.708,40.835,12.092,36.592,34.322,4.989,5.933,5.85
630,0.705,40.913,12.037,36.593,34.319,4.988,5.933,5.688
631,0.698,40.616,12.014,36.554,34.301,4.866,5.689,5.687
632,0.695,40.738,12.009,36.573,34.318,5.028,5.849,5.768
633,0.692,40.854,12.029,36.592,34.315,4.948,5.851,5.728
634,0.685,40.884,12.084,36.573,34.315,4.988,5.81,5.727
635,0.682,40.501,12.131,36.583,34.312,4.988,5.81,5.687
636,0.685,40.641,12.053,36.602,34.329,5.151,6.013,5.849
637,0.692,40.796,12.064,36.612,34.322,5.031,5.852,5.769
638,0.675,40.778,12.08,36.593,34.315,4.989,5.891,5.809
639,0.665,40.461,12.1,36.612,34.329,4.988,5.933,5.81
640,0.678,40.583,12.034,36.602,34.322,4.988,5.852,5.891
641,0.688,40.69,12.037,36.602,34.322,4.988,5.81,5.689
642,0.675,40.662,12.002,36.554,34.308,4.866,5.81,5.687
643,0.691,40.422,12.056,36.583,34.315,4.987,5.85,5.768
644,0.698,40.554,12.037,36.583,34.318,4.988,5.851,5.687
645,0.692,40.613,12.123,36.583,34.315,4.988,5.769,5.646
646,0.692,40.345,12.085,36.564,34.315,4.988,5.809,5.767
647,0.708,40.294,12.084,36.602,34.325,5.151,6.013,5.891
648,0.715,40.428,12.073,36.583,34.326,4.99,5.812,5.811
649,0.708,40.487,12.1,36.593,34.319,4.988,5.891,5.81
650,0.718,40.133,12.053,36.602,34.319,4.988,5.892,5.81
651,0.715,40.254,12.045,36.612,34.325,5.029,5.892,5.769
652,0.698,40.351,12.057,36.574,34.315,4.907,5.77,5.647
653,0.685,40.4,12.037,36.592,34.315,4.987,5.891,5.767
654,0.692,39.959,12.08,36.573,34.315,4.907,5.851,5.687
655,0.685,40.098,12.084,36.573,34.315,4.906,5.851,5.646
656,0.682,40.177,12.108,36.564,34.312,4.906,5.851,5.605
657,0.679,40.264,12.084,36.583,34.322,4.987,6.013,5.848
658,0.695,40.082,12.045,36.593,34.329,4.988,5.893,5.81
659,0.682,40.196,12.111,36.583,34.322,4.907,5.892,5.81
660,0.682,40.283,12.045,36.612,34.319,4.987,5.973,5.81
661,0.685,40.332,12.072,36.593,34.319,4.988,5.974,5.769
662,0.695,39.968,12.041,36.593,34.315,4.948,5.852,5.687
663,0.695,40.041,12.049,36.535,34.305,4.866,5.851,5.727
664,0.701,40.176,12.064,36.573,34.315,4.906,5.81,5.727
665,0.708,40.187,12.104,36.583,34.318,4.906,5.891,5.727
666,0.702,39.775,12.081,36.564,34.315,4.865,5.77,5.687
667,0.701,39.924,12.033,36.564,34.312,4.906,6.013,5.768
668,0.724,40.041,12.084,36.602,34.329,5.069,6.015,5.768
669,0.731,40.003,12.092,36.574,34.315,4.948,5.893,5.728
670,0.721,39.773,12.08,36.564,34.318,4.988,5.892,5.727
671,0.705,39.905,11.998,36.573,34.319,4.988,5.892,5.727
672,0.721,39.992,12.017,36.573,34.315,4.988,5.892,5.687
673,0.705,39.619,12.025,36.525,34.308,4.785,5.77,5.564
674,0.692,39.664,12.009,36.554,34.315,4.864,5.891,5.685
675,0.698,39.789,12.091,36.573,34.315,4.946,5.892,5.687
676,0.688,39.876,12.1,36.554,34.315,4.866,5.851,5.687
677,0.688,39.589,12.057,36.554,34.308,4.906,5.81,5.646
678,0.688,39.74,12.064,36.583,34.322,4.987,5.972,5.808
679,0.705,39.866,12.107,36.593,34.329,5.029,5.974,5.728
680,0.692,39.925,12.077,36.573,34.326,4.907,5.974,5.768
681,0.688,39.523,11.979,36.583,34.322,4.947,5.933,5.728
682,0.705,39.663,12.036,36.593,34.322,5.069,5.974,5.727
683,0.715,39.779,12.025,36.573,34.319,4.908,5.974,5.768
684,0.715,39.79,12.025,36.554,34.308,4.825,5.771,5.647
685,0.708,39.368,12.013,36.563,34.315,4.946,5.891,5.686
686,0.724,39.517,12.072,36.554,34.318,4.866,5.851,5.687
687,0.721,39.624,12.069,36.554,34.315,4.906,5.891,5.646
688,0.718,39.644,11.99,36.544,34.308,4.906,5.892,5.686
689,0.718,39.376,12.115,36.583,34.318,4.987,5.973,5.809
690,0.734,39.536,12.088,36.583,34.329,4.907,5.974,5.647
691,0.728,39.615,12.037,36.554,34.315,4.947,5.933,5.686
692,0.718,39.788,12.076,36.573,34.318,4.907,5.974,5.727
693,0.715,39.31,12.03,36.583,34.322,4.987,6.015,5.727
694,0.715,39.43,12.068,36.564,34.319,4.988,5.934,5.605
695,0.695,39.48,12.037,36.535,34.308,4.948,5.852,5.686
696,0.698,39.298,12.119,36.573,34.315,4.988,5.973,5.646
697,0.701,39.325,12.073,36.564,34.318,4.907,5.893,5.727
698,0.692,39.44,12.037,36.564,34.315,4.825,5.851,5.687
699,0.682,39.528,12.072,36.554,34.315,4.824,5.891,5.646
700,0.701,39.02,12.1,36.611,34.329,5.027,6.136,5.889
701,0.701,39.121,12.061,36.574,34.315,4.948,5.894,5.729
702,0.701,39.227,12.053,36.573,34.315,4.988,5.973,5.768
703,0.724,39.314,12.057,36.573,34.322,4.988,6.015,5.768
704,0.718,39.104,12.049,36.573,34.315,4.988,6.015,5.768
705,0.721,39.208,12.08,36.573,34.312,4.948,5.893,5.525
706,0.715,39.266,12.096,36.535,34.308,4.907,5.892,5.685
707,0.718,39.372,12.045,36.582,34.308,4.906,5.933,5.646
708,0.718,38.827,12.053,36.564,34.308,4.906,5.892,5.645
709,0.724,38.965,12.088,36.535,34.308,4.865,5.892,5.605
710,0.715,39.043,12.084,36.563,34.311,4.865,5.892,5.686
711,0.731,39.15,12.033,36.592,34.336,5.068,6.014,5.768
712,0.725,38.786,12.045,36.564,34.315,4.908,5.974,5.647
713,0.711,38.888,12.033,36.573,34.325,4.906,5.893,5.686
714,0.721,39.004,12.056,36.564,34.319,4.987,5.973,5.687
715,0.721,39.034,12.123,36.564,34.319,4.988,5.974,5.768
716,0.708,38.766,12.108,36.544,34.308,4.866,5.811,5.565
717,0.702,38.859,12.073,36.544,34.311,4.906,5.85,5.645
718,0.705,39.014,11.99,36.563,34.315,4.947,5.932,5.686
719,0.715,38.737,12.107,36.564,34.312,4.907,5.892,5.646
720,0.702,38.581,12.092,36.544,34.312,4.865,5.851,5.605
721,0.711,38.723,11.991,36.563,34.322,4.987,6.013,5.767
722,0.721,38.868,12.029,36.592,34.319,5.029,5.893,5.687
723,0.728,38.39,11.994,36.564,34.315,5.03,5.973,5.687
724,0.721,38.491,12.044,36.564,34.312,4.948,5.893,5.687
725,0.724,38.598,12.037,36.564,34.322,4.988,5.892,5.646
726,0.728,38.685,12.146,36.573,34.315,4.988,5.892,5.727
727,0.728,38.225,12.089,36.535,34.308,4.826,5.77,5.605
728,0.728,38.365,12.065,36.563,34.311,4.905,5.931,5.645
729,0.744,38.5,12.1,36.554,34.312,4.947,5.852,5.645
730,0.734,38.559,12.069,36.554,34.312,4.825,5.81,5.564
731,0.734,38.157,12.018,36.535,34.315,4.905,5.85,5.604
732,0.738,38.326,12.005,36.592,34.325,5.069,6.054,5.808
733,0.734,38.462,12.044,36.564,34.315,4.908,5.934,5.688
734,0.734,38.482,12.017,36.564,34.308,4.987,5.974,5.687
735,0.728,38.099,12.056,36.573,34.322,4.988,6.015,5.687
736,0.708,38.22,12.123,36.554,34.319,4.988,5.974,5.687
737,0.721,38.345,12.085,36.583,34.315,4.948,5.852,5.524
738,0.708,38.337,12.065,36.535,34.305,4.866,5.851,5.644
739,0.708,37.934,12.088,36.554,34.315,4.946,5.851,5.645
740,0.705,38.055,12.08,36.544,34.318,4.947,5.81,5.605
741,0.708,38.142,11.998,36.554,34.308,4.825,5.85,5.564
742,0.705,38.278,12.044,36.554,34.311,4.865,5.973,5.645
743,0.721,38.135,11.99,36.592,34.329,5.068,6.015,5.645
744,0.715,38.23,12.04,36.554,34.319,4.948,5.934,5.645
745,0.715,38.317,12.06,36.563,34.312,4.988,5.892,5.645
746,0.721,37.829,12.115,36.554,34.318,4.988,5.973,5.605
747,0.724,37.91,12.092,36.573,34.325,5.029,5.974,5.726
748,0.724,38.007,12.03,36.545,34.305,4.867,5.811,5.524
749,0.715,38.065,12.084,36.554,34.315,4.906,5.891,5.644
750,0.734,37.682,12.049,36.544,34.315,4.987,5.851,5.564
751,0.725,37.832,12.014,36.535,34.312,4.907,5.891,5.563
752,0.718,37.958,12.048,36.611,34.312,4.906,5.892,5.563
753,0.711,38.065,12.041,36.583,34.329,5.069,6.054,5.726
754,0.721,37.682,12.041,36.545,34.315,4.948,5.934,5.646
755,0.708,37.803,12.076,36.573,34.318,4.947,5.974,5.523
756,0.708,37.91,12.143,36.554,34.315,4.947,5.974,5.644
757,0.708,37.978,12.038,36.592,34.318,5.029,5.974,5.645
758,0.698,37.701,12.072,36.545,34.312,4.907,5.811,5.483
759,0.679,37.803,12.076,36.544,34.315,4.987,5.932,5.562
760,0.698,37.929,12.088,36.583,34.315,4.948,5.892,5.645
761,0.695,37.959,12.022,36.554,34.322,4.866,5.811,5.645
762,0.701,37.768,12.002,36.544,34.315,4.946,5.81,5.523
763,0.714,37.9,12.037,36.563,34.322,4.947,5.972,5.725
764,0.728,38.035,12.025,36.583,34.322,4.988,5.852,5.646
765,0.715,38.027,12.056,36.573,34.315,4.948,5.851,5.645
766,0.728,37.778,12.084,36.545,34.318,4.988,5.891,5.645
767,0.725,37.91,12.065,36.583,34.319,4.988,5.892,5.686
768,0.721,37.997,12.037,36.554,34.315,4.948,5.77,5.564
769,0.718,37.768,12.072,36.516,34.305,4.866,5.809,5.523
770,0.731,37.814,12.069,36.563,34.315,4.906,5.891,5.563
771,0.721,37.948,12.026,36.564,34.308,4.906,5.811,5.604
772,0.708,38.026,12.041,36.564,34.315,4.906,5.81,5.523
773,0.702,37.682,12.021,36.535,34.315,4.906,5.85,5.603
774,0.708,37.841,12.084,36.592,34.336,5.028,5.973,5.726
775,0.708,37.958,12.08,36.554,34.319,4.948,5.974,5.687
776,0.695,38.026,12.139,36.544,34.325,4.947,5.811,5.646
777,0.698,37.73,12.108,36.554,34.315,4.988,5.891,5.645
778,0.705,37.89,12.022,36.563,34.318,4.988,6.014,5.727
779,0.702,37.987,12.111,36.564,34.308,4.826,5.771,5.524
780,0.682,38.027,12.077,36.535,34.311,4.987,5.891,5.644
781,0.695,37.73,12.037,36.554,34.315,4.948,5.851,5.645
782,0.698,37.852,12.002,36.535,34.312,4.825,5.851,5.605
783,0.705,37.949,12.052,36.544,34.312,4.905,5.851,5.564
784,0.702,38.007,12.045,36.573,34.322,4.906,5.891,5.685
785,0.727,37.893,12.08,36.583,34.332,5.069,5.973,5.605
786,0.715,37.978,12.1,36.564,34.322,4.948,5.974,5.645
787,0.715,38.103,12.041,36.564,34.325,4.988,5.933,5.686
788,0.721,38.133,12.045,36.535,34.326,4.988,5.933,5.646
789,0.734,37.808,12.068,36.554,34.322,4.988,6.014,5.645
790,0.725,37.919,12.092,36.535,34.308,4.866,5.812,5.442
791,0.718,38.007,11.983,36.544,34.311,4.824,5.891,5.603
792,0.715,37.95,12.068,36.544,34.318,4.987,5.892,5.564
793,0.711,37.815,12.033,36.525,34.308,4.907,5.811,5.563
794,0.711,37.929,12.064,36.534,34.308,4.865,5.769,5.563
795,0.711,38.026,12.096,36.554,34.322,4.946,5.972,5.766
796,0.708,37.874,12.092,36.573,34.329,4.988,5.893,5.647
797,0.695,37.968,12.073,36.554,34.319,4.988,5.892,5.645
798,0.701,38.084,12.002,36.554,34.315,4.948,5.892,5.564
799,0.695,38.172,12.095,36.554,34.318,4.947,5.933,5.726
800,0.698,37.856,12.065,36.563,34.322,4.907,5.852,5.524
801,0.692,37.949,11.967,36.516,34.305,4.744,5.688,5.563
802,0.698,38.093,12.036,36.544,34.315,4.945,5.809,5.604
803,0.708,38.152,12.045,36.563,34.308,4.866,5.85,5.564
804,0.708,37.875,12.068,36.554,34.308,4.906,5.769,5.645
805,0.702,38.006,12.092,36.516,34.315,4.865,5.768,5.645
806,0.724,38.142,12.135,36.582,34.329,5.068,5.972,5.727
807,0.731,38.191,12.081,36.554,34.315,4.908,5.852,5.687
808,0.715,37.914,12.065,36.554,34.315,4.947,5.851,5.687
809,0.711,38.026,12.092,36.544,34.315,4.988,5.891,5.605
810,0.718,38.142,12.096,36.573,34.318,4.988,5.892,5.604
811,0.721,38.191,12.01,36.554,34.315,4.988,5.77,5.482
812,0.708,37.875,11.998,36.516,34.308,4.866,5.891,5.603
813,0.705,38.035,12.021,36.544,34.315,4.906,5.851,5.604
814,0.708,38.152,12.021,36.535,34.318,4.947,5.891,5.523
815,0.702,38.374,12.088,36.525,34.308,4.825,5.77,5.563
816,0.688,37.973,12.112,36.534,34.315,4.946,5.891,5.645
817,0.698,38.132,12.073,36.592,34.329,5.069,6.014,5.727
818,0.695,38.21,12.08,36.545,34.319,4.989,5.893,5.646
819,0.682,37.885,12.088,36.563,34.315,4.988,5.933,5.686
820,0.695,37.949,12.084,36.564,34.322,5.07,5.892,5.687
821,0.695,38.074,11.994,36.564,34.319,4.908,5.892,5.687
822,0.688,38.143,12.021,36.535,34.315,4.825,5.851,5.483
823,0.688,37.952,11.998,36.544,34.312,4.865,5.891,5.644
824,0.711,38.093,11.994,36.544,34.315,4.865,5.851,5.564
825,0.702,38.2,12.044,36.544,34.318,4.987,5.851,5.604
826,0.711,38.259,12.096,36.544,34.308,4.866,5.851,5.686
827,0.711,37.857,12.092,36.563,34.315,4.987,5.973,5.727
828,0.728,38.025,12.045,36.583,34.315,5.029,5.933,5.687
829,0.725,38.104,12.076,36.554,34.312,4.948,5.933,5.605
830,0.721,38.162,12.069,36.535,34.318,4.947,5.933,5.645
831,0.721,37.913,12.026,36.554,34.322,4.907,5.974,5.686
832,0.721,38.036,12.021,36.554,34.322,4.987,5.893,5.605
833,0.702,38.142,11.99,36.525,34.305,4.826,5.811,5.564
834,0.695,38.153,12.021,36.544,34.318,4.905,5.81,5.645
835,0.701,37.98,12.068,36.554,34.315,4.906,5.891,5.605
836,0.688,38.113,12.111,36.535,34.312,4.906,5.811,5.523
837,0.682,38.21,12.085,36.611,34.301,4.865,5.769,5.603
838,0.682,38.249,12.057,36.564,34.322,4.987,5.972,5.726
839,0.705,37.953,12.084,36.592,34.319,4.988,5.974,5.687
840,0.689,38.026,12.1,36.554,34.315,4.866,5.893,5.687
841,0.688,38.142,12.022,36.554,34.318,4.906,5.973,5.646
842,0.695,37.961,12.041,36.631,34.319,4.947,5.893,5.727
843,0.705,37.95,12.033,36.574,34.315,4.907,5.933,5.605
844,0.692,38.045,11.978,36.525,34.308,4.825,5.811,5.523
845,0.695,38.133,11.993,36.563,34.315,4.905,5.891,5.603
846,0.701,37.827,12.091,36.544,34.312,4.906,5.892,5.564
847,0.698,37.939,11.948,36.544,34.312,4.825,5.851,5.563
848,0.705,38.065,12.028,36.554,34.315,4.865,5.851,5.604
849,0.711,38.152,12.091,36.563,34.325,5.068,6.013,5.767
850,0.721,37.76,12.116,36.554,34.319,4.908,5.893,5.687
851,0.708,37.871,12.038,36.554,34.322,4.865,5.973,5.687
852,0.702,37.997,11.947,36.563,34.322,4.906,5.893,5.768
853,0.698,38.065,12.052,36.564,34.322,4.987,5.973,5.647
854,0.688,37.721,12.045,36.544,34.308,4.907,5.811,5.564
855,0.675,37.813,12.076,36.544,34.315,4.865,5.932,5.645
856,0.678,37.958,12.127,36.544,34.318,4.906,5.892,5.645
857,0.685,38.007,12.077,36.554,34.312,4.865,5.811,5.605
858,0.682,37.768,12.006,36.535,34.308,4.824,5.85,5.645
859,0.659,37.909,12.064,36.563,34.318,4.987,5.973,5.808
860,0.685,38.026,12.088,36.592,34.322,4.988,5.974,5.728
861,0.685,38.046,12.01,36.554,34.315,4.988,5.893,5.687
862,0.685,37.759,11.986,36.544,34.315,4.866,5.892,5.727
863,0.695,37.881,12.044,36.554,34.318,4.946,5.933,5.727
864,0.701,38.006,12.029,36.573,34.319,4.947,5.892,5.565
865,0.688,37.835,12.025,36.525,34.315,4.825,5.77,5.645
866,0.708,37.594,12.084,36.573,34.315,4.905,5.809,5.645
867,0.702,37.716,11.994,36.564,34.312,4.825,5.85,5.645
868,0.701,37.823,12.037,36.554,34.308,4.946,5.729,5.605
869,0.695,37.526,12.08,36.544,34.311,4.907,5.931,5.726
870,0.718,37.658,12.112,36.583,34.322,4.987,5.933,5.727
871,0.708,37.765,12.065,36.554,34.322,4.907,5.852,5.687
872,0.695,37.861,11.963,36.563,34.319,4.906,5.851,5.727
873,0.695,37.489,12.048,36.573,34.315,4.987,5.891,5.768
874,0.695,37.619,12.014,36.573,34.318,4.988,5.892,5.728
875,0.682,37.707,12.033,36.535,34.305,4.785,5.77,5.565
876,0.692,37.794,12.119,36.544,34.315,4.864,5.85,5.726
877,0.692,37.354,12.003,36.544,34.315,4.824,5.769,5.687
878,0.675,37.483,12.029,36.535,34.315,4.865,5.809,5.646
879,0.672,37.609,12.056,36.535,34.315,4.865,5.81,5.727
880,0.678,37.668,12.061,36.592,34.332,4.987,5.932,5.85
881,0.688,37.333,12.057,36.573,34.312,4.866,5.933,5.648
882,0.685,37.445,11.998,36.564,34.312,4.865,5.933,5.727
883,0.692,37.571,12.044,36.592,34.318,4.865,5.892,5.646
884,0.698,37.601,12.025,36.573,34.322,4.946,5.973,5.727
885,0.708,37.438,12.06,36.554,34.315,4.825,5.811,5.605
886,0.695,37.542,12.076,36.516,34.305,4.783,5.81,5.686
887,0.701,37.687,12.01,36.563,34.318,4.864,5.85,5.646
888,0.718,37.928,12.052,36.554,34.308,4.865,5.81,5.645
889,0.715,37.125,12.041,36.525,34.308,4.824,5.81,5.645
890,0.711,37.241,12.096,36.544,34.318,4.905,5.85,5.727
891,0.711,37.367,12.092,36.573,34.329,5.028,5.932,5.768
892,0.705,37.09,11.998,36.554,34.319,4.867,5.852,5.728
893,0.695,37.107,12.021,36.573,34.319,4.865,5.851,5.687
894,0.695,37.251,12.013,36.564,34.319,4.865,5.769,5.768
895,0.698,37.329,12.087,36.554,34.325,4.906,5.891,5.687
896,0.685,37.023,12.045,36.535,34.308,4.784,5.77,5.564
897,0.669,37.125,12.037,36.563,34.311,4.864,5.85,5.604
898,0.675,37.28,12.056,36.564,34.315,4.824,5.81,5.645
899,0.685,37.348,12.053,36.544,34.315,4.783,5.728,5.645
900,0.672,36.85,12.096,36.544,34.312,4.783,5.768,5.605
901,0.669,37.008,12.061,36.554,34.322,4.986,5.85,5.726
902,0.698,37.164,12.037,36.573,34.325,4.948,5.891,5.646
903,0.682,37.203,12.033,36.573,34.315,4.907,5.851,5.605
904,0.685,36.907,12.033,36.554,34.318,4.906,5.851,5.645
905,0.695,37.047,11.982,36.573,34.329,4.947,5.81,5.686
906,0.695,37.164,12.064,36.564,34.322,4.907,5.81,5.727
907,0.688,37.165,11.971,36.516,34.301,4.703,5.728,5.565
908,0.695,36.762,12.048,36.554,34.318,4.863,5.809,5.685
909,0.708,36.883,12.053,36.535,34.312,4.865,5.81,5.646
910,0.695,36.97,12.1,36.535,34.308,4.784,5.81,5.605
911,0.688,36.991,12.104,36.525,34.308,4.783,5.769,5.645
912,0.692,36.693,12.002,36.563,34.329,4.946,5.972,5.767
913,0.679,36.834,12.04,36.573,34.319,4.866,5.852,5.647
914,0.682,36.941,11.99,36.545,34.319,4.865,5.81,5.686
915,0.679,36.741,12.017,36.563,34.315,4.865,5.85,5.687
916,0.662,36.633,12.095,36.573,34.315,4.906,5.891,5.687
917,0.669,36.767,12.084,36.554,34.315,4.784,5.811,5.605
918,0.659,36.845,12.033,36.516,34.301,4.824,5.769,5.564
919,0.652,36.462,12.056,36.554,34.318,4.824,5.768,5.685
920,0.659,36.573,12.146,36.563,34.319,4.905,5.809,5.646
921,0.656,36.699,12.085,36.554,34.312,4.784,5.85,5.564
922,0.649,36.796,12.01,36.535,34.312,4.824,5.891,5.726
923,0.668,36.385,11.939,36.602,34.322,4.987,5.973,5.727
924,0.672,36.476,12.005,36.574,34.315,4.866,5.852,5.687
925,0.675,36.602,11.935,36.573,34.318,4.865,5.851,5.687
926,0.695,36.67,12.036,36.564,34.322,4.865,5.932,5.687
927,0.705,36.278,12.017,36.564,34.322,4.906,5.892,5.687
928,0.705,36.408,12.021,36.544,34.312,4.744,5.729,5.524
929,0.708,36.496,12.06,36.535,34.318,4.905,5.85,5.603
930,0.737,36.583,12.088,36.544,34.315,4.825,5.851,5.564
931,0.738,36.2,12.069,36.544,34.318,4.824,5.891,5.563
932,0.741,36.321,11.994,36.544,34.305,4.824,5.77,5.604
933,0.741,36.437,12.029,36.573,34.318,4.905,5.931,5.726
934,0.767,36.535,12.013,36.592,34.336,4.906,5.933,5.646
935,0.767,36.133,12.017,36.564,34.308,4.906,5.892,5.686
936,0.761,36.301,12.095,36.573,34.315,4.906,5.892,5.646
937,0.774,36.399,12.002,36.573,34.318,4.906,5.973,5.645
938,0.78,36.457,12.048,36.564,34.319,4.865,5.893,5.564
939,0.764,36.074,12.06,36.535,34.308,4.784,5.77,5.604
940,0.767,36.205,12.131,36.563,34.318,4.864,5.891,5.645
941,0.774,36.321,12.089,36.544,34.315,4.865,5.892,5.605
942,0.777,35.91,12.01,36.544,34.312,4.865,5.811,5.645
943,0.793,35.963,12.025,36.611,34.308,4.865,5.81,5.645
944,0.806,36.108,11.994,36.593,34.329,4.987,6.054,5.767
945,0.836,36.234,12.04,36.564,34.322,4.866,5.975,5.647
946,0.83,35.842,12.076,36.564,34.322,4.865,5.974,5.645
947,0.839,35.982,12.03,36.554,34.319,4.906,5.933,5.727
948,0.833,36.118,12.068,36.573,34.322,4.906,5.974,5.687
949,0.843,36.196,12.057,36.554,34.315,4.906,5.811,5.564
950,0.826,35.65,12.103,36.516,34.305,4.825,5.972,5.563
951,0.83,35.817,12.057,36.563,34.318,4.824,5.893,5.604
952,0.813,35.943,11.979,36.544,34.315,4.905,5.933,5.564
953,0.79,36.002,12.036,36.573,34.308,4.825,5.933,5.604
954,0.777,35.715,12.029,36.573,34.318,4.905,6.055,5.726
955,0.8,35.866,12.084,36.583,34.322,4.947,5.934,5.605
956,0.771,35.963,12.069,36.554,34.322,4.866,5.974,5.564
957,0.774,36.012,12.041,36.563,34.319,4.906,6.015,5.645
958,0.774,35.725,12.045,36.573,34.322,4.906,5.974,5.727
959,0.777,35.875,12.068,36.573,34.322,4.947,6.055,5.687
960,0.754,35.963,12.1,36.545,34.312,4.866,5.893,5.646
961,0.761,35.983,12.053,36.573,34.312,4.946,6.014,5.564
962,0.764,35.504,12.025,36.573,34.312,4.866,5.974,5.645
963,0.77,35.624,11.935,36.545,34.301,4.824,5.974,5.564
964,0.764,35.73,12.063,36.554,34.322,4.987,6.015,5.726
965,0.761,35.607,12.033,36.592,34.339,5.029,6.096,5.687
966,0.754,35.606,12.095,36.573,34.315,4.948,6.016,5.605
967,0.751,35.721,12.045,36.573,34.322,4.907,6.015,5.645
968,0.754,35.837,12.068,36.573,34.319,4.947,6.056,5.727
969,0.761,35.397,12.049,36.564,34.319,4.947,6.015,5.646
970,0.748,35.488,12.064,36.535,34.312,4.785,5.812,5.523
971,0.731,35.614,12.092,36.544,34.318,4.864,6.054,5.644
972,0.731,35.721,12.018,36.554,34.315,4.906,5.975,5.645
973,0.715,35.233,11.939,36.554,34.315,4.825,5.974,5.523
974,0.715,35.372,12.02,36.563,34.312,4.865,5.893,5.603
975,0.718,35.527,12.052,36.573,34.322,4.987,6.054,5.726
976,0.718,35.624,12.096,36.564,34.315,4.948,6.015,5.727
977,0.702,35.347,12.061,36.554,34.315,4.866,6.056,5.646
978,0.701,35.488,12.061,36.583,34.315,4.946,6.056,5.645
979,0.695,35.633,12.029,36.573,34.329,4.947,6.097,5.767
980,0.685,35.692,12.115,36.564,34.319,4.907,6.016,5.606
981,0.685,35.146,12.049,36.535,34.305,4.825,5.934,5.564
982,0.698,35.333,12.029,36.573,34.318,4.905,5.974,5.645
983,0.698,35.43,12.029,36.564,34.312,4.825,5.974,5.645
984,0.685,35.47,12.01,36.554,34.305,4.824,5.933,5.605
985,0.672,35.23,12.068,36.563,34.311,4.905,6.014,5.726
986,0.704,35.391,12.076,36.592,34.332,4.987,6.096,5.768
987,0.692,35.46,12.061,36.583,34.315,4.948,6.016,5.606
988,0.675,35.269,12.033,36.554,34.318,4.866,6.015,5.645
989,0.672,35.065,12.045,36.573,34.322,4.946,6.056,5.645
990,0.685,35.197,12.084,36.564,34.319,4.907,6.015,5.686
991,0.669,35.295,12.088,36.544,34.308,4.784,5.893,5.483
992,0.659,35.037,12.022,36.554,34.311,4.905,5.973,5.603
993,0.659,35.178,11.951,36.554,34.315,4.784,5.893,5.645
994,0.659,35.295,12.036,36.544,34.318,4.824,5.933,5.605
995,0.656,35.401,12.041,36.544,34.305,4.865,5.892,5.604
996,0.662,34.923,12.076,36.544,34.318,4.906,6.014,5.686
997,0.669,35.1,12.088,36.592,34.322,4.987,6.056,5.727
998,0.656,35.217,12.045,36.583,34.315,4.907,5.975,5.687
999,0.655,35.276,12.01,36.573,34.315,4.865,5.974,5.687
1000,0.675,35.679,12.083,36.573,34.318,4.987,5.974,5.687
1001,0.656,35.827,12.084,36.583,34.319,4.988,5.974,5.687
1002,0.659,35.934,12.03,36.554,34.305,4.826,5.811,5.605
1003,0.659,35.983,11.982,36.563,34.318,4.905,6.013,5.686
1004,0.669,34.612,12.001,36.573,34.319,4.947,5.974,5.687
1005,0.669,34.733,12.04,36.545,34.312,4.866,5.974,5.646
1006,0.665,34.83,12.053,36.535,34.305,4.865,5.933,5.686
1007,0.662,34.888,12.068,36.544,34.315,4.987,6.014,5.809
1008,0.688,35.033,12.088,36.583,34.325,4.907,6.056,5.647
1009,0.695,35.14,12.053,36.573,34.322,4.906,6.015,5.686
1010,0.688,35.246,12.139,36.564,34.315,4.987,5.974,5.768
1011,0.688,35.487,12.093,36.583,34.325,4.988,5.974,5.687
1012,0.682,34.703,12.053,36.573,34.322,4.988,5.974,5.727
1013,0.669,34.829,11.971,36.554,34.308,4.826,5.811,5.605
1014,0.665,34.936,12.001,36.563,34.315,4.946,5.972,5.686
1015,0.669,34.813,12.025,36.564,34.308,4.988,5.893,5.687
1016,0.662,34.888,12.052,36.564,34.308,4.948,5.851,5.605
1017,0.656,35.004,12.049,36.544,34.308,4.907,5.891,5.686
1018,0.662,35.13,12.041,36.573,34.322,5.028,6.054,5.849
1019,0.678,34.786,12.041,36.592,34.322,4.989,5.975,5.729
1020,0.665,34.907,12.092,36.573,34.319,5.029,5.933,5.727
1021,0.662,35.014,12.108,36.564,34.322,5.03,5.974,5.727
1022,0.678,35.13,12.077,36.583,34.322,4.989,5.974,5.727
1023,0.688,34.824,12.03,36.573,34.315,4.948,5.852,5.605
1024,0.669,34.936,11.99,36.621,34.305,4.907,5.932,5.686
1025,0.682,35.062,11.994,36.555,34.318,4.987,5.933,5.727
1026,0.685,35.15,12.04,36.554,34.315,4.988,5.892,5.687
1027,0.688,34.594,12.017,36.563,34.312,4.907,5.811,5.646
1028,0.685,34.761,12.045,36.573,34.312,4.987,5.932,5.686
1029,0.695,34.926,12.029,36.592,34.332,5.151,6.096,5.727
1030,0.705,34.956,12.084,36.545,34.322,4.949,5.894,5.687
1031,0.698,34.727,12.104,36.535,34.312,4.988,5.973,5.646
1032,0.695,34.859,12.065,36.573,34.322,5.07,5.933,5.727
1033,0.685,35.004,11.979,36.602,34.319,5.07,5.974,5.687
1034,0.682,35.005,11.989,36.564,34.312,5.03,5.771,5.524
1035,0.656,34.641,12.044,36.554,34.318,5.03,5.891,5.685
1036,0.662,34.781,12.037,36.554,34.319,4.989,5.892,5.646
1037,0.659,34.888,12.064,36.554,34.312,4.948,5.811,5.605
1038,0.659,34.783,12.068,36.554,34.305,4.988,5.891,5.523
1039,0.636,34.773,12.061,36.573,34.315,5.029,5.973,5.766
1040,0.655,34.955,12.092,36.592,34.329,5.151,5.933,5.728
1041,0.646,35.033,12.1,36.564,34.319,5.071,5.892,5.727
1042,0.639,34.555,12.026,36.573,34.329,5.03,5.933,5.687
1043,0.639,34.684,12.002,36.583,34.319,5.07,5.892,5.809
1044,0.655,34.81,12.083,36.621,34.319,5.111,5.811,5.728
1045,0.655,34.879,11.987,36.545,34.301,4.908,5.769,5.605
1046,0.662,34.563,12.052,36.554,34.311,4.987,5.809,5.726
1047,0.669,34.713,12.041,36.563,34.315,4.988,5.81,5.687
1048,0.665,34.858,12.06,36.554,34.315,4.907,5.769,5.687
1049,0.682,34.898,11.998,36.535,34.315,4.947,5.809,5.646
1050,0.705,34.592,12.111,36.582,34.325,5.15,5.972,5.808
1051,0.715,34.742,12.065,36.564,34.315,4.949,5.852,5.728
1052,0.708,34.859,11.951,36.573,34.315,4.988,5.891,5.727
1053,0.698,34.927,11.997,36.592,34.329,5.029,5.933,5.727
1054,0.763,34.65,12.001,36.573,34.326,5.03,5.852,5.727
1055,0.777,34.791,12.04,36.564,34.308,4.907,5.729,5.565
1056,0.79,34.869,12.099,36.544,34.315,5.028,5.89,5.726
1057,0.826,34.937,12.092,36.554,34.315,5.03,5.811,5.727
1058,0.839,34.63,12.034,36.563,34.315,4.948,5.81,5.687
1059,0.875,34.742,12.037,36.535,34.312,4.907,5.81,5.727
1060,0.934,34.887,12.084,36.582,34.325,5.15,6.054,6.012
1061,1.016,34.889,12.08,36.593,34.322,5.071,5.893,5.771
1062,1.069,34.678,11.975,36.573,34.315,5.07,5.892,5.809
1063,1.167,34.829,11.919,36.583,34.318,5.03,5.892,5.81
1064,1.24,34.946,12.04,36.564,34.319,5.03,5.973,5.85
1065,1.309,34.448,12.025,36.564,34.319,5.03,5.811,5.769
1066,1.348,34.501,12.08,36.535,34.305,4.907,5.769,5.809
1067,1.391,34.655,12.072,36.563,34.315,4.987,5.809,5.85
1068,1.447,34.743,12.069,36.564,34.308,4.988,5.769,5.851
1069,1.493,34.561,12.033,36.535,34.311,4.907,5.768,5.729
1070,1.542,34.694,12.068,36.554,34.318,5.028,5.809,5.85
1071,1.601,34.858,12.049,36.583,34.332,5.111,5.972,5.891
1072,1.647,34.927,11.975,36.564,34.315,5.03,5.852,5.851
1073,1.68,34.448,11.989,36.564,34.315,5.03,5.891,5.891
1074,1.746,34.597,11.986,36.583,34.322,5.07,5.933,5.892
1075,1.766,34.723,11.986,36.573,34.322,5.07,5.974,5.892
1076,1.766,34.791,12.114,36.545,34.312,4.948,5.811,5.77
1077,1.75,34.485,12.069,36.535,34.318,5.029,5.932,5.85
1078,1.733,34.664,12.037,36.554,34.315,5.03,5.892,5.891
1079,1.759,34.781,12.037,36.583,34.312,4.989,5.892,5.892
1080,1.785,34.821,12.084,36.554,34.312,5.029,5.851,5.973
1081,1.789,34.572,12.08,36.563,34.318,5.07,5.973,6.259
1082,1.76,34.732,12.069,36.602,34.329,5.111,5.974,6.139
1083,1.672,34.83,11.987,36.564,34.315,5.071,5.933,6.26
1084,1.554,35.013,12.044,36.573,34.315,5.07,5.933,6.302
1085,1.445,34.468,11.967,36.573,34.325,5.03,5.974,6.384
1086,1.337,34.607,12.048,36.602,34.319,5.03,5.933,6.466
1087,1.258,34.666,12.018,36.535,34.305,4.907,5.811,6.507
1088,1.218,34.599,12.052,36.554,34.315,4.987,5.891,6.589
1089,1.178,34.685,12.053,36.554,34.315,4.988,5.851,6.793
1090,1.129,34.82,12.111,36.554,34.308,4.948,5.81,6.877
1091,1.064,34.907,12.085,36.525,34.325,4.988,5.85,7.04
1092,0.943,34.314,12.018,36.582,34.326,5.151,6.013,7.326
1093,0.834,34.461,12.021,36.583,34.322,5.031,5.893,7.329
1094,0.758,34.559,11.998,36.573,34.319,4.989,5.851,7.451
1095,0.738,34.655,12.021,36.573,34.322,5.029,5.973,7.615
1096,0.686,34.58,12.06,36.573,34.322,5.07,5.974,7.739
1097,0.672,34.732,12.01,36.573,34.319,5.03,5.852,7.659
1098,0.646,34.849,12.037,36.545,34.301,4.867,5.81,7.78
1099,0.587,34.927,12.025,36.563,34.311,5.028,5.932,7.944
1100,0.551,34.391,12.041,36.564,34.315,4.989,5.933,8.026
1101,0.537,34.539,12.068,36.554,34.308,4.988,5.852,8.109
1102,0.553,34.646,12.033,36.554,34.311,4.988,5.851,8.272
1103,0.615,34.752,11.994,36.602,34.322,5.151,6.054,8.558
1104,0.665,34.514,12.044,36.631,34.319,4.99,5.853,8.602
1105,0.691,34.655,12.021,36.574,34.319,5.029,5.891,8.724
1106,0.74,34.771,12.045,36.573,34.319,5.07,5.973,8.929
1107,0.783,34.782,12.045,36.573,34.322,5.152,5.933,9.175
1108,0.813,34.466,12.029,36.564,34.308,4.909,5.77,9.177
1109,0.82,34.568,12.017,36.564,34.311,5.028,5.809,9.502
1110,0.849,34.694,12.064,36.544,34.315,4.948,5.81,9.709
1111,0.862,34.542,12.096,36.563,34.315,4.907,5.85,9.914
1112,0.872,34.473,12.057,36.554,34.315,4.906,5.81,10.12
1113,0.872,34.597,11.979,36.563,34.318,4.947,5.85,10.406
1114,0.898,34.771,12.04,36.612,34.329,5.069,5.973,10.531
1115,0.892,34.408,12.006,36.564,34.312,5.03,5.811,10.573
1116,0.892,34.52,12.056,36.564,34.318,5.03,5.932,10.614
1117,0.895,34.655,12.029,36.583,34.319,5.03,5.892,10.777
1118,0.882,34.771,12.056,36.573,34.329,5.03,5.973,10.779
1119,0.876,34.437,12.033,36.554,34.308,4.867,5.771,10.657
1120,0.869,34.568,12.08,36.573,34.318,4.906,5.85,10.737
1121,0.879,34.694,12.123,36.583,34.315,4.987,5.851,10.738
1122,0.882,34.772,12.014,36.564,34.312,4.948,5.81,10.738
1123,0.876,34.293,11.982,36.544,34.312,4.907,5.85,10.738
1124,0.889,34.461,12.044,36.65,34.329,5.069,5.973,10.941
1125,0.892,34.626,12.06,36.603,34.319,4.989,5.893,10.74
1126,0.882,34.666,12.045,36.574,34.315,4.988,5.851,10.819
1127,0.882,34.436,12.041,36.573,34.322,5.029,5.891,10.779
1128,0.889,34.587,12.068,36.592,34.315,4.989,5.933,10.779
1129,0.895,34.694,12.01,36.583,34.322,4.988,5.892,10.616
1130,0.879,34.705,12.064,36.545,34.305,4.866,5.811,10.574
1131,0.872,34.369,12.088,36.554,34.318,4.987,5.891,10.574
1132,0.872,34.51,12.022,36.573,34.322,4.988,5.851,10.492
1133,0.866,34.617,11.908,36.573,34.315,4.988,5.81,10.451
1134,0.859,34.771,12.008,36.573,34.315,4.948,5.891,10.491
1135,0.859,34.475,12.029,36.592,34.332,5.069,6.054,10.573
1136,0.849,34.626,12.091,36.583,34.319,4.989,5.934,10.33
1137,0.853,34.723,12.104,36.593,34.322,4.907,5.892,10.327
1138,0.853,34.321,12.026,36.583,34.322,4.947,6.014,10.286
1139,0.862,34.385,12.045,36.612,34.319,5.069,5.974,10.164
1140,0.846,34.529,12.092,36.564,34.312,4.867,5.811,10.0
1141,0.83,34.588,12.069,36.554,34.308,4.906,5.932,9.999
1142,0.846,34.282,12.049,36.573,34.315,4.947,5.892,9.836
1143,0.849,34.394,11.994,36.583,34.312,4.947,5.892,9.753
1144,0.846,34.51,12.021,36.564,34.315,4.907,5.811,9.671
1145,0.853,34.626,12.009,36.583,34.322,5.028,6.013,9.751
1146,0.879,34.388,12.064,36.621,34.329,4.989,5.893,9.549
1147,0.859,34.481,12.072,36.583,34.319,4.988,5.892,9.466
1148,0.862,34.616,12.033,36.612,34.315,4.988,5.973,9.343
1149,0.866,34.694,12.041,36.593,34.315,4.988,5.974,9.301
1150,0.869,34.187,12.123,36.583,34.318,4.948,5.893,9.178
1151,0.872,34.306,12.108,36.554,34.305,4.866,5.851,8.974
1152,0.879,34.452,12.022,36.583,34.322,4.865,5.891,8.931
1153,0.856,34.511,11.97,36.573,34.308,4.946,5.892,8.931
1154,0.856,34.214,11.982,36.612,34.308,4.907,5.892,8.85
1155,0.849,34.364,12.021,36.583,34.318,4.987,5.933,8.767
1156,0.859,34.538,12.06,36.64,34.329,5.07,6.014,8.807
1157,0.856,34.521,12.084,36.584,34.322,4.989,5.893,8.686
1158,0.849,34.252,12.061,36.593,34.322,4.988,5.892,8.603
1159,0.849,34.384,12.045,36.593,34.319,4.988,5.973,8.602
1160,0.846,34.51,12.084,36.612,34.322,5.029,5.893,8.521
1161,0.849,34.271,12.088,36.555,34.301,4.826,5.77,8.398
1162,0.843,34.307,12.045,36.573,34.318,4.987,5.85,8.356
1163,0.862,34.432,11.975,36.583,34.315,4.988,5.851,8.275
1164,0.859,34.53,11.927,36.593,34.315,4.907,5.81,8.111
1165,0.866,34.147,11.993,36.583,34.315,4.947,5.891,8.232
1166,0.885,34.306,12.083,36.631,34.322,5.11,5.973,8.233
1167,0.892,34.394,12.092,36.583,34.315,4.989,5.893,8.07
1168,0.879,34.491,12.088,36.612,34.318,4.907,5.933,8.069
1169,0.882,34.07,12.061,36.602,34.319,4.987,5.892,7.987
1170,0.889,34.238,12.084,36.602,34.319,4.988,5.933,7.946
1171,0.892,34.365,12.119,36.593,34.312,4.907,5.811,7.701
1172,0.873,34.395,12.038,36.583,34.315,4.947,5.891,7.821
1173,0.872,34.088,11.998,36.593,34.315,4.907,5.892,7.741
1174,0.853,34.229,11.998,36.612,34.315,4.906,5.892,7.74
1175,0.872,34.365,11.99,36.583,34.312,4.825,5.811,7.618
1176,0.859,34.433,12.021,36.612,34.315,5.027,5.932,7.739
1177,0.872,34.204,12.06,36.631,34.329,4.989,5.974,7.699
1178,0.853,34.326,12.068,36.612,34.319,4.988,5.893,7.577
1179,0.872,34.442,12.029,36.583,34.325,4.988,5.892,7.575
1180,0.869,34.491,12.06,36.621,34.315,4.988,5.973,7.657
1181,0.866,34.079,12.115,36.612,34.325,4.907,5.893,7.414
1182,0.869,34.21,12.049,36.564,34.305,4.825,5.851,7.371
1183,0.876,34.307,12.025,36.602,34.311,4.905,5.891,7.37
1184,0.885,34.269,11.967,36.593,34.315,4.906,5.811,7.37
1185,0.882,34.116,12.06,36.583,34.308,4.865,5.891,7.289
1186,0.898,34.248,12.033,36.593,34.311,4.906,5.933,7.288
1187,0.899,34.374,12.092,36.65,34.332,5.069,6.096,7.369
1188,0.908,33.973,12.061,36.612,34.319,4.948,5.935,7.33
1189,0.912,34.026,12.045,36.612,34.322,4.988,5.974,7.207
1190,0.915,34.161,12.08,36.602,34.325,4.988,5.893,7.206
1191,0.909,34.258,12.096,36.621,34.322,4.988,5.973,7.165
1192,0.905,33.847,12.053,36.583,34.319,4.826,5.852,7.002
1193,0.892,33.977,12.01,36.593,34.308,4.946,5.891,7.082
1194,0.895,34.151,12.009,36.612,34.315,4.907,5.892,6.961
1195,0.899,34.201,12.013,36.593,34.315,4.906,5.892,6.96
1196,0.889,33.923,12.005,36.573,34.315,4.906,5.811,6.919
1197,0.892,34.064,12.095,36.583,34.318,4.947,5.932,7.041
1198,0.895,34.248,12.053,36.688,34.322,5.11,6.055,7.001
1199,0.889,34.298,12.014,36.594,34.319,4.989,5.893,7.041
1200,0.885,33.799,12.068,36.612,34.322,4.907,5.933,6.96
1201,0.902,33.938,12.115,36.622,34.329,4.987,5.974,6.96
1202,0.905,34.074,12.096,36.622,34.322,5.029,5.933,6.919
1203,0.905,34.104,12.022,36.593,34.312,4.826,5.77,6.756
1204,0.905,33.788,12.002,36.593,34.318,4.946,5.972,6.836
1205,0.908,33.957,12.009,36.602,34.315,4.947,5.852,6.837
1206,0.918,34.055,12.025,36.583,34.315,4.907,5.851,6.755
1207,0.918,34.353,12.052,36.583,34.315,4.947,5.851,6.754
1208,0.925,33.771,11.982,36.64,34.325,5.069,6.013,6.876
1209,0.941,33.928,12.013,36.622,34.319,4.989,5.893,6.715
1210,0.932,34.016,12.072,36.593,34.315,4.988,5.933,6.754
1211,0.935,33.768,12.088,36.612,34.322,4.988,5.974,6.673
1212,0.948,33.823,12.096,36.612,34.319,4.988,5.933,6.672
1213,0.935,33.958,12.061,36.583,34.312,4.988,5.811,6.55
1214,0.918,34.045,11.979,36.564,34.305,4.948,5.891,6.671
1215,0.925,33.615,12.025,36.612,34.311,4.947,5.973,6.591
1216,0.922,33.745,12.021,36.593,34.312,4.988,5.974,6.59
1217,0.922,33.861,12.072,36.573,34.312,4.948,5.893,6.509
1218,0.915,33.977,12.033,36.592,34.315,4.947,5.973,6.63
1219,0.935,33.681,12.013,36.631,34.336,5.069,6.055,6.712
1220,0.925,33.832,12.064,36.622,34.312,4.989,5.893,6.632
1221,0.931,33.929,12.072,36.602,34.315,4.988,5.973,6.631
1222,0.944,34.035,12.115,36.621,34.318,5.029,5.852,6.55
1223,0.961,33.557,12.065,36.612,34.319,5.03,5.973,6.549
1224,0.961,33.696,12.01,36.583,34.308,4.867,5.811,6.386
1225,0.951,33.813,11.994,36.612,34.315,5.028,5.932,6.507
1226,0.964,33.881,12.013,36.612,34.315,4.989,5.892,6.508
1227,0.977,33.651,12.091,36.593,34.315,4.948,5.851,6.467
1228,0.968,33.764,12.014,36.612,34.312,4.947,5.851,6.467
1229,0.971,33.919,12.052,36.622,34.325,5.069,6.054,6.589
1230,1.003,33.978,12.06,36.612,34.322,4.989,5.893,6.468
1231,0.987,33.461,12.088,36.593,34.315,5.029,5.892,6.426
1232,0.991,33.609,12.088,36.593,34.322,5.03,5.892,6.426
1233,0.984,33.716,12.061,36.621,34.325,5.07,5.892,6.507
1234,0.987,33.631,12.01,36.622,34.315,4.948,5.851,6.345
1235,0.981,33.63,12.056,36.602,34.308,4.947,5.851,6.343
1236,0.994,33.783,12.01,36.612,34.315,4.947,5.973,6.343
1237,0.987,33.881,12.044,36.612,34.312,4.988,5.811,6.343
1238,0.987,33.162,12.014,36.593,34.312,4.866,5.728,6.343
1239,0.991,33.28,12.013,36.631,34.318,5.068,5.89,6.425
1240,1.01,33.463,12.041,36.67,34.329,5.111,5.892,6.466
1241,0.997,33.532,12.088,36.622,34.322,5.071,5.851,6.467
1242,1.0,33.236,12.084,36.631,34.315,5.03,5.851,6.386
1243,1.026,33.386,12.045,36.631,34.315,5.03,5.932,6.344
1244,1.033,33.531,11.99,36.651,34.322,4.989,5.811,6.303
1245,1.027,33.6,11.974,36.651,34.305,4.907,5.688,6.221
1246,1.04,33.303,12.001,36.622,34.315,4.987,5.89,6.302
1247,1.043,33.454,12.068,36.622,34.318,4.948,5.851,6.302
1248,1.046,33.57,12.037,36.622,34.315,4.866,5.81,6.262
1249,1.063,33.629,12.056,36.602,34.312,4.946,5.85,6.262
1250,1.086,33.246,12.057,36.66,34.329,5.191,6.054,6.465
1251,1.079,33.396,12.096,36.632,34.315,4.99,5.934,6.304
1252,1.076,33.503,12.1,36.631,34.318,5.07,5.933,6.384
1253,1.063,33.542,12.057,36.66,34.315,5.03,5.974,6.344
1254,1.073,33.236,12.021,36.651,34.325,5.03,5.974,6.303
1255,1.076,33.376,12.033,36.651,34.305,4.907,5.771,6.221
1256,1.066,33.474,12.002,36.651,34.318,4.987,5.891,6.302
1257,1.076,33.446,12.119,36.651,34.315,5.029,5.933,6.221
1258,1.076,33.158,12.053,36.632,34.312,4.989,5.892,6.22
1259,1.079,33.309,12.068,36.66,34.318,4.988,5.973,6.302
1260,1.096,33.473,12.041,36.699,34.336,5.151,6.096,6.343
1261,1.099,33.101,12.115,36.661,34.319,5.031,5.975,6.303
1262,1.102,33.193,12.131,36.67,34.315,4.989,6.015,6.343
1263,1.119,33.309,12.057,36.67,34.318,4.988,5.974,6.303
1264,1.119,33.425,12.049,36.68,34.319,5.029,5.933,6.221
1265,1.132,33.033,11.873,36.641,34.305,4.826,5.852,6.22
1266,1.142,33.192,12.0,36.67,34.311,5.027,5.932,6.22
1267,1.151,33.309,12.044,36.651,34.315,4.989,5.933,6.139
1268,1.158,33.387,12.064,36.66,34.308,4.988,5.892,6.179
1269,1.155,32.956,12.033,36.66,34.318,4.907,5.892,6.261
1270,1.178,33.134,12.053,36.708,34.329,5.15,6.136,6.384
1271,1.181,33.222,12.084,36.68,34.322,4.99,5.976,6.222
1272,1.184,33.3,12.088,36.67,34.322,4.988,5.974,6.22
1273,1.188,33.089,12.104,36.689,34.329,5.029,6.015,6.18
1274,1.184,33.222,12.038,36.689,34.319,5.03,5.974,6.139
1275,1.188,33.348,12.053,36.709,34.312,4.989,5.852,6.098
1276,1.184,33.378,12.018,36.67,34.322,4.907,5.891,6.138
1277,1.201,33.071,12.099,36.68,34.312,4.987,5.851,6.138
1278,1.198,33.212,12.038,36.67,34.312,4.948,5.851,6.057
1279,1.204,33.338,12.025,36.67,34.315,5.029,5.851,6.097
1280,1.214,33.387,12.052,36.728,34.329,5.192,6.054,6.341
1281,1.234,33.042,12.057,36.69,34.315,5.112,5.893,6.14
1282,1.227,33.154,12.084,36.699,34.315,5.071,5.973,6.219
1283,1.24,33.299,12.065,36.709,34.315,4.989,5.933,6.261
1284,1.26,33.128,12.041,36.709,34.322,5.029,5.974,6.139
1285,1.27,33.203,11.99,36.766,34.312,5.03,5.811,6.057
1286,1.267,33.309,12.025,36.7,34.312,5.07,5.891,6.056
1287,1.289,33.435,12.088,36.709,34.312,5.07,5.851,6.097
1288,1.296,32.918,12.022,36.69,34.315,5.03,5.851,6.138
1289,1.293,33.047,12.017,36.699,34.312,4.989,5.851,6.057
1290,1.325,33.192,12.021,36.718,34.325,5.151,6.013,6.259
1291,1.332,33.319,12.119,36.718,34.319,5.071,5.893,6.099
1292,1.319,33.233,12.069,36.728,34.315,5.03,5.892,6.138
1293,1.319,33.405,12.088,36.738,34.315,5.03,5.851,6.138
1294,1.322,33.532,12.045,36.728,34.329,5.03,5.851,6.179
1295,1.329,33.619,12.041,36.795,34.322,5.03,5.81,6.057
1296,1.316,33.217,12.053,36.7,34.308,4.948,5.81,6.137
1297,1.326,33.376,12.068,36.728,34.315,4.988,5.81,6.138
1298,1.332,33.503,12.037,36.719,34.315,4.988,5.85,6.016
1299,1.336,33.571,12.025,36.709,34.308,4.988,5.769,6.096
1300,1.339,33.658,12.002,36.747,34.322,5.07,5.931,6.178
1301,1.349,33.831,12.056,36.786,34.329,5.152,5.974,6.139
1302,1.345,33.9,12.076,36.729,34.312,4.99,5.852,6.098
1303,1.358,33.93,12.069,36.728,34.325,4.988,5.851,6.056
1304,1.375,33.709,12.041,36.738,34.319,5.07,5.932,6.056
1305,1.382,33.861,12.045,36.767,34.322,5.03,5.811,6.015
1306,1.388,33.948,12.021,36.709,34.308,4.867,5.728,5.974
1307,1.378,34.151,12.107,36.718,34.318,5.028,5.85,6.015
1308,1.388,34.249,11.995,36.747,34.315,4.989,5.81,5.974
1309,1.398,34.384,12.029,36.728,34.315,4.907,5.769,5.933
1310,1.401,34.472,12.033,36.728,34.315,4.947,5.768,6.014
1311,1.401,34.559,12.08,36.776,34.329,5.15,6.013,6.137
1312,1.414,34.703,12.112,36.757,34.322,4.949,5.893,5.976
1313,1.392,34.81,12.018,36.767,34.319,5.069,5.892,6.096
1314,1.385,34.879,12.013,36.748,34.322,4.989,5.851,6.016
1315,1.395,35.061,12.021,36.767,34.322,5.07,5.973,6.096
1316,1.372,35.207,12.029,36.757,34.315,4.867,5.73,5.894
1317,1.359,35.295,12.064,36.738,34.312,4.987,5.85,6.014
1318,1.368,35.392,12.002,36.767,34.322,4.948,5.891,5.974
1319,1.362,35.651,12.001,36.748,34.312,4.988,5.77,6.055
1320,1.349,35.779,12.005,36.747,34.315,4.988,5.809,5.934
1321,1.352,35.885,12.099,36.786,34.322,5.151,6.013,6.096
1322,1.359,36.002,12.12,36.796,34.325,5.031,5.974,6.016
1323,1.349,36.195,12.069,36.767,34.326,4.989,5.933,6.015
1324,1.345,36.321,12.061,36.776,34.319,4.988,5.892,6.056
1325,1.339,36.447,11.971,36.805,34.322,5.029,5.973,6.056
1326,1.326,36.458,12.013,36.796,34.319,5.03,5.893,6.015
1327,1.313,36.765,12.017,36.738,34.308,4.867,5.811,5.974
1328,1.316,36.941,12.025,36.776,34.318,4.946,5.932,6.015
1329,1.306,37.029,12.002,36.777,34.315,4.947,5.933,5.934
1330,1.29,37.317,12.013,36.767,34.315,4.947,5.811,5.892
1331,1.273,37.253,12.076,36.767,34.308,4.947,5.891,5.973
1332,1.267,37.386,12.1,36.805,34.332,5.11,6.054,6.177
1333,1.247,37.484,12.057,36.796,34.315,4.989,5.934,6.098
1334,1.221,37.322,12.018,36.786,34.315,4.988,5.974,6.056
1335,1.204,37.397,12.002,36.825,34.322,4.988,5.933,6.097
1336,1.188,37.484,11.974,36.825,34.322,5.07,5.974,6.056
1337,1.168,37.571,12.071,36.787,34.319,4.948,5.811,5.853
1338,1.135,38.329,12.018,36.777,34.319,4.988,5.972,5.973
1339,1.132,38.538,12.045,36.805,34.322,4.988,5.974,5.974
1340,1.106,38.627,12.045,36.806,34.315,4.948,5.974,5.933
1341,1.099,38.676,12.072,36.786,34.315,4.866,5.893,5.974
1342,1.083,38.532,12.104,36.815,34.315,5.028,6.054,6.137
1343,1.079,38.703,12.073,36.854,34.325,5.03,5.975,6.016
1344,1.066,38.772,12.037,36.816,34.322,4.989,5.933,5.974
1345,1.037,38.821,11.951,36.844,34.322,4.948,5.974,6.055
1346,1.043,38.994,11.989,36.825,34.322,4.947,5.974,6.056
1347,1.03,39.111,12.068,36.815,34.319,5.069,5.933,5.975
1348,1.001,39.179,12.029,36.796,34.308,4.908,5.811,6.055
1349,0.997,39.228,12.033,36.834,34.318,4.987,5.891,5.975
1350,0.991,39.209,12.029,36.825,34.315,4.907,5.892,5.933
1351,0.968,39.333,12.076,36.796,34.315,4.906,5.811,5.892
1352,0.948,39.431,12.127,36.825,34.325,5.028,6.013,6.176
1353,0.948,39.451,12.12,36.873,34.329,4.948,5.893,5.976
1354,0.909,39.652,12.073,36.845,34.308,5.029,5.973,6.015
1355,0.899,39.798,11.967,36.844,34.318,4.948,5.933,6.056
1356,0.882,39.886,12.021,36.844,34.315,5.029,5.933,6.097
1357,0.872,39.848,12.041,36.854,34.318,5.03,5.933,5.894
1358,0.853,39.81,12.056,36.816,34.308,4.826,5.852,5.892
1359,0.853,39.963,12.061,36.921,34.329,5.027,5.851,6.054
1360,0.83,40.06,12.029,36.855,34.312,4.948,5.851,5.975
1361,0.823,39.937,12.064,36.844,34.308,4.907,5.81,5.893
1362,0.813,40.079,12.072,36.844,34.315,4.947,5.891,6.054
1363,0.826,40.224,12.135,36.892,34.332,5.069,6.054,6.097
1364,0.813,40.255,12.073,36.874,34.319,4.989,5.853,6.056
1365,0.81,40.13,12.029,36.864,34.319,4.988,5.851,6.056
1366,0.803,40.273,12.068,36.883,34.322,5.029,5.932,6.056
1367,0.8,40.361,12.053,36.873,34.322,4.989,5.892,6.097
1368,0.781,40.39,12.057,36.845,34.308,4.826,5.811,5.975
1369,0.78,40.371,12.025,36.921,34.318,4.987,5.891,6.015
1370,0.78,40.515,12.037,36.864,34.322,4.907,5.851,5.974
1371,0.764,40.593,12.045,36.873,34.312,4.906,5.81,5.974
1372,0.764,40.613,12.115,36.873,34.315,4.947,5.932,6.055
1373,0.748,40.46,12.131,36.902,34.332,5.15,6.055,6.3
1374,0.754,40.592,12.12,36.874,34.329,4.949,5.853,6.099
1375,0.735,40.671,12.065,36.883,34.315,4.988,5.891,6.138
1376,0.715,40.71,12.053,36.883,34.322,4.948,5.892,6.057
1377,0.721,40.585,12.053,36.912,34.325,5.029,5.973,6.056
1378,0.724,40.699,12.084,36.902,34.319,4.948,5.811,5.893
1379,0.702,40.758,12.022,36.864,34.315,4.947,5.85,6.095
1380,0.708,40.854,12.033,36.892,34.318,4.988,5.891,6.138
1381,0.705,40.75,12.033,36.883,34.315,4.948,5.851,6.016
1382,0.695,40.845,12.076,36.883,34.305,4.866,5.851,6.056
1383,0.701,40.932,12.069,36.893,34.315,4.946,5.932,6.137
1384,0.718,40.789,12.119,36.931,34.329,5.029,5.974,6.138
1385,0.702,40.836,12.057,36.922,34.322,4.989,5.933,6.057
1386,0.701,40.941,12.053,36.922,34.312,4.907,5.892,6.137
1387,0.705,41.029,12.072,36.931,34.322,4.947,5.851,6.138
1388,0.718,40.848,12.084,36.912,34.319,4.947,5.891,6.057
1389,0.698,40.951,12.037,36.893,34.308,4.866,5.689,5.934
1390,0.695,41.058,11.978,36.921,34.322,4.906,5.931,6.014
1391,0.711,41.126,12.052,36.903,34.312,4.947,5.852,5.974
1392,0.702,40.762,12.072,36.902,34.315,4.907,5.81,6.015
1393,0.682,40.874,12.084,36.893,34.312,4.825,5.891,6.015
1394,0.685,41.009,12.088,36.95,34.332,5.027,6.014,6.137
1395,0.688,41.049,12.045,36.922,34.315,4.948,5.812,6.057
1396,0.672,40.838,12.021,36.922,34.322,4.907,5.891,6.056
1397,0.682,40.961,12.025,36.931,34.325,4.987,5.892,6.097
1398,0.672,41.048,12.076,36.941,34.326,4.988,5.892,6.097
1399,0.659,41.068,11.963,36.932,34.319,4.826,5.77,5.975
1400,0.646,40.867,12.009,36.922,34.312,4.905,5.85,6.055
1401,0.675,40.999,12.037,36.941,34.315,4.987,5.851,6.015
1402,0.672,41.087,12.064,36.922,34.312,4.866,5.81,6.015
1403,0.665,41.308,12.1,36.931,34.315,4.824,5.81,6.015
1404,0.672,40.87,12.116,36.941,34.329,4.946,5.932,6.096
1405,0.682,41.009,12.081,36.96,34.336,5.029,5.974,6.016
1406,0.695,41.077,12.026,36.951,34.322,4.989,5.811,6.015
1407,0.692,40.867,12.06,36.97,34.322,4.948,5.85,6.137
1408,0.695,40.913,12.072,36.951,34.315,4.988,5.891,6.098
1409,0.688,41.029,12.01,36.951,34.322,5.07,5.851,6.056
1410,0.688,41.087,12.005,36.951,34.315,4.908,5.729,5.853
1411,0.672,40.647,12.052,36.951,34.315,4.865,5.89,5.932
1412,0.678,40.748,12.096,36.96,34.315,4.906,5.892,5.974
1413,0.665,40.864,12.147,36.96,34.318,4.906,5.811,5.933
1414,0.665,40.913,12.132,36.951,34.312,4.865,5.81,5.974
1415,0.665,40.751,11.999,36.989,34.329,4.987,5.972,6.096
1416,0.672,40.921,12.064,36.98,34.326,4.948,5.811,5.975
1417,0.652,40.99,12.045,36.98,34.319,4.947,5.891,5.974
1418,0.662,41.049,12.06,36.98,34.329,4.988,5.892,6.055
1419,0.662,40.627,12.053,36.999,34.322,4.948,5.973,6.056
1420,0.669,40.757,12.021,36.999,34.322,4.907,5.811,5.893
1421,0.646,40.835,12.052,36.97,34.308,4.865,5.85,6.014
1422,0.659,40.865,12.072,36.989,34.311,4.987,5.851,5.974
1423,0.672,40.664,12.119,36.98,34.315,4.907,5.769,5.933
1424,0.659,40.777,12.104,36.98,34.308,4.906,5.809,5.892
1425,0.675,40.864,12.1,36.999,34.318,4.947,5.932,5.973
1426,0.688,40.923,12.049,37.028,34.329,5.069,5.892,6.015
1427,0.679,40.501,12.029,37.009,34.312,4.989,5.892,6.015
1428,0.682,40.631,12.068,36.999,34.325,4.988,5.851,6.015
1429,0.679,40.719,11.959,37.028,34.322,4.988,5.891,6.015
1430,0.691,40.547,12.044,37.009,34.322,5.029,5.892,5.934
1431,0.685,40.43,12.033,36.999,34.308,4.867,5.729,5.811
1432,0.672,40.535,12.095,37.018,34.315,4.987,5.809,5.932
1433,0.678,40.622,12.127,36.999,34.318,4.988,5.769,5.852
1434,0.669,40.22,12.128,37.018,34.312,4.948,5.768,5.81
1435,0.675,40.322,12.038,37.009,34.308,4.866,5.728,5.972
1436,0.656,40.447,12.045,37.047,34.325,5.028,5.972,5.974
1437,0.665,40.583,12.029,37.067,34.326,5.03,5.933,5.974
1438,0.659,40.297,12.068,37.029,34.319,4.989,5.892,5.933
1439,0.669,40.428,11.99,37.047,34.315,4.948,5.892,5.974
1440,0.662,40.563,12.036,37.067,34.322,4.988,5.933,6.015
1441,0.669,40.613,12.037,37.057,34.315,4.988,5.811,5.812
1442,0.656,40.23,12.092,37.0,34.315,4.826,5.769,5.932
1443,0.681,40.379,12.108,37.038,34.318,4.946,5.85,5.933
1444,0.669,40.477,12.104,37.047,34.315,4.947,5.891,5.852
1445,0.665,40.497,12.03,37.048,34.312,4.907,5.689,5.851
1446,0.669,39.941,12.041,37.048,34.312,4.906,5.89,5.891
1447,0.685,40.098,12.049,37.086,34.332,5.069,5.973,6.095
1448,0.688,40.196,12.049,37.058,34.322,4.948,5.811,5.935
1449,0.675,40.206,12.025,37.076,34.322,4.988,5.81,5.933
1450,0.685,40.101,12.041,37.057,34.319,5.029,5.891,5.933
1451,0.688,40.234,12.053,37.076,34.322,5.03,5.892,5.892
1452,0.682,40.293,12.064,37.048,34.315,4.867,5.729,5.811
1453,0.659,40.284,12.115,37.057,34.318,5.028,5.85,5.85
1454,0.669,39.948,12.127,37.086,34.315,4.989,5.81,5.851
1455,0.672,40.05,12.042,37.077,34.312,4.948,5.85,5.81
1456,0.656,40.138,12.021,37.048,34.308,4.907,5.81,5.81
1457,0.668,39.851,11.982,37.105,34.332,5.069,5.972,5.972
1458,0.669,39.934,12.064,37.086,34.322,4.948,5.811,5.852
1459,0.662,40.041,12.014,37.086,34.315,4.988,5.85,5.891
1460,0.656,40.128,12.025,37.096,34.322,5.029,5.932,5.892
1461,0.659,39.688,12.017,37.096,34.329,4.989,5.852,5.892
1462,0.662,39.779,12.052,37.067,34.308,4.866,5.769,5.729
1463,0.662,39.867,12.1,37.077,34.318,4.865,5.931,5.85
1464,0.672,39.963,12.116,37.077,34.312,4.906,5.892,5.81
1465,0.672,39.619,12.073,37.086,34.315,4.906,5.811,5.728
1466,0.682,39.75,12.092,37.086,34.315,4.865,5.85,5.85
1467,0.679,39.885,12.014,37.125,34.325,5.028,5.932,5.973
1468,0.685,39.963,12.099,37.125,34.322,4.989,5.852,5.852
1469,0.672,39.494,12.022,37.106,34.322,4.948,5.851,5.81
1470,0.691,39.634,12.033,37.096,34.329,5.029,5.851,5.85
1471,0.692,39.731,11.998,37.125,34.326,4.907,5.891,5.891
1472,0.685,39.78,12.06,37.096,34.319,4.865,5.892,5.77
1473,0.662,39.387,12.053,37.067,34.308,4.824,5.851,5.728
1474,0.678,39.537,12.096,37.105,34.318,4.946,5.891,5.727
1475,0.669,39.644,12.096,37.106,34.308,4.907,5.892,5.768
1476,0.659,39.654,12.069,37.106,34.315,4.865,5.851,5.728
1477,0.659,39.482,12.057,37.115,34.315,4.987,5.891,5.85
1478,0.672,39.653,12.096,37.144,34.329,5.07,5.973,5.932
1479,0.672,39.721,12.069,37.106,34.315,4.908,5.933,5.811
1480,0.672,39.348,12.029,37.125,34.322,4.947,5.892,5.81
1481,0.672,39.325,12.025,37.125,34.325,4.988,5.892,5.81
1482,0.678,39.43,12.006,37.135,34.315,4.988,5.892,5.891
1483,0.682,39.508,12.068,37.106,34.312,4.826,5.77,5.689
1484,0.669,39.212,12.115,37.125,34.315,4.946,5.891,5.768
1485,0.688,39.353,12.088,37.125,34.315,4.907,5.851,5.728
1486,0.682,39.469,12.041,37.125,34.312,4.825,5.81,5.727
1487,0.692,39.518,12.017,37.125,34.315,4.824,5.81,5.727
1488,0.692,39.193,12.115,37.144,34.332,5.068,5.972,5.972
1489,0.714,39.362,12.042,37.164,34.329,4.989,5.933,5.771
1490,0.702,39.44,12.041,37.135,34.322,4.988,5.852,5.768
1491,0.692,39.499,11.99,37.154,34.322,4.988,5.891,5.728
1492,0.701,38.991,12.044,37.164,34.329,5.029,5.973,5.809
1493,0.692,39.12,12.033,37.154,34.322,4.907,5.852,5.769
1494,0.669,39.198,12.088,37.116,34.308,4.865,5.81,5.687
1495,0.682,39.266,12.084,37.134,34.322,4.865,5.81,5.809
1496,0.679,38.96,12.049,37.154,34.312,4.906,5.85,5.728
1497,0.672,39.062,12.041,37.125,34.315,4.865,5.81,5.646
1498,0.672,39.169,12.099,37.135,34.318,4.946,5.85,5.808
1499,0.688,39.228,12.041,37.192,34.336,5.11,5.932,5.85
1500,0.669,38.988,12.025,37.154,34.319,4.949,5.852,5.729
1501,0.682,39.091,12.002,37.164,34.322,4.947,5.851,5.768
1502,0.682,39.188,12.083,37.173,34.322,4.947,5.81,5.809
1503,0.695,38.959,12.119,37.173,34.322,4.907,5.932,5.81
1504,0.692,38.746,12.139,37.164,34.315,4.865,5.689,5.647
1505,0.675,38.83,12.097,37.154,34.315,4.865,5.849,5.767
1506,0.691,38.965,12.045,37.173,34.322,4.987,5.81,5.728
1507,0.688,38.65,12.017,37.154,34.315,4.907,5.769,5.727
1508,0.688,38.733,12.056,37.164,34.305,4.865,5.809,5.727
1509,0.692,38.878,12.002,37.173,34.325,5.028,5.891,5.809
1510,0.714,39.004,12.048,37.193,34.329,4.989,5.892,5.647
1511,0.708,38.545,12.033,37.164,34.319,4.988,5.933,5.686
1512,0.702,38.684,12.072,37.183,34.322,4.948,5.933,5.727
1513,0.688,38.801,12.135,37.193,34.325,4.988,5.892,5.768
1514,0.692,38.85,12.112,37.183,34.312,4.988,5.892,5.768
1515,0.675,38.39,12.038,37.154,34.308,4.785,5.729,5.687
1516,0.669,38.558,12.029,37.192,34.315,4.905,5.727,5.727
1517,0.678,38.684,12.013,37.193,34.322,4.906,5.89,5.727
1518,0.669,38.724,12.06,37.164,34.308,4.906,5.811,5.687
1519,0.669,38.293,12.006,37.173,34.308,4.906,5.81,5.687
1520,0.675,38.461,12.025,37.231,34.325,5.069,5.972,5.931
1521,0.682,38.607,12.041,37.203,34.319,4.948,5.852,5.77
1522,0.675,38.599,12.076,37.202,34.315,4.947,5.81,5.728
1523,0.685,38.349,12.119,37.212,34.322,4.988,5.85,5.809
1524,0.695,38.462,12.108,37.203,34.319,4.948,5.81,5.81
1525,0.688,38.549,12.061,37.222,34.315,4.866,5.81,5.688
1526,0.682,38.646,12.025,37.183,34.305,4.824,5.769,5.687
1527,0.688,38.148,12.021,37.202,34.311,4.865,5.809,5.727
1528,0.688,38.268,12.091,37.212,34.315,4.906,5.81,5.687
1529,0.682,38.336,12.01,37.212,34.315,4.865,5.769,5.646
1530,0.701,37.973,12.021,37.212,34.315,4.906,5.809,5.727
1531,0.695,38.074,12.021,37.241,34.332,5.028,6.013,5.768
1532,0.698,38.162,12.072,37.232,34.315,4.948,5.893,5.728
1533,0.685,38.239,12.119,37.203,34.325,4.947,5.892,5.768
1534,0.695,37.77,12.104,37.25,34.322,4.988,5.811,5.768
1535,0.695,37.929,12.1,37.232,34.319,4.948,5.891,5.768
1536,0.685,38.055,12.041,37.231,34.315,4.866,5.77,5.606
1537,0.669,38.085,12.006,37.222,34.308,4.906,5.809,5.767
1538,0.678,37.778,12.052,37.222,34.315,4.906,5.85,5.687
1539,0.678,37.91,12.041,37.231,34.315,4.906,5.81,5.687
1540,0.672,38.045,12.017,37.231,34.315,4.906,5.769,5.646
1541,0.672,38.104,12.025,37.241,34.318,4.987,5.85,5.767
1542,0.682,37.721,12.052,37.289,34.329,5.151,5.932,5.85
1543,0.695,37.823,12.131,37.251,34.315,5.031,5.852,5.688
1544,0.679,37.948,12.108,37.251,34.318,4.907,5.891,5.727
1545,0.688,37.988,12.088,37.27,34.322,4.987,5.811,5.727
1546,0.705,37.538,12.057,37.27,34.322,5.07,5.932,5.809
1547,0.685,37.667,12.033,37.241,34.315,4.826,5.73,5.566
1548,0.682,37.745,12.08,37.26,34.315,4.946,5.89,5.645
1549,0.698,37.775,12.018,37.261,34.318,4.988,5.851,5.686
1550,0.695,37.488,12.037,37.251,34.315,4.948,5.851,5.646
1551,0.695,37.609,11.998,37.251,34.312,4.866,5.851,5.686
1552,0.701,37.735,12.076,37.289,34.332,5.068,6.013,5.809
1553,0.698,37.42,12.108,37.27,34.326,4.989,5.893,5.769
1554,0.685,37.369,12.139,37.27,34.319,5.029,5.892,5.728
1555,0.682,37.503,12.077,37.28,34.322,4.989,5.892,5.768
1556,0.672,37.619,12.03,37.366,34.319,5.07,5.933,5.728
1557,0.665,37.323,12.017,37.271,34.315,4.948,5.77,5.687
1558,0.659,37.416,12.052,37.251,34.312,4.988,5.891,5.687
1559,0.662,37.57,12.053,37.28,34.315,4.907,5.851,5.687
1560,0.652,37.658,12.018,37.27,34.315,4.947,5.891,5.687
1561,0.655,37.333,12.013,37.28,34.308,4.866,5.811,5.564
1562,0.662,37.464,12.044,37.299,34.329,4.946,5.972,5.807
1563,0.691,37.619,12.072,37.328,34.326,4.988,5.974,5.688
1564,0.675,37.639,12.108,37.29,34.319,4.907,5.852,5.646
1565,0.672,37.218,12.084,37.309,34.319,4.987,5.932,5.686
1566,0.682,37.338,12.065,37.309,34.322,5.029,5.933,5.768
1567,0.682,37.464,12.029,37.299,34.319,5.03,5.892,5.728
1568,0.682,37.494,12.095,37.261,34.305,4.907,5.811,5.646
1569,0.682,37.341,12.057,37.318,34.315,4.947,5.81,5.686
1570,0.685,37.454,12.021,37.299,34.318,4.988,5.85,5.605
1571,0.675,37.552,12.021,37.27,34.312,4.866,5.81,5.645
1572,0.675,37.572,12.021,37.299,34.318,4.946,5.891,5.645
1573,0.678,37.39,12.084,37.338,34.336,5.11,6.014,5.889
1574,0.678,37.512,12.092,37.319,34.322,5.03,5.812,5.689
1575,0.669,37.6,12.061,37.299,34.319,5.03,5.85,5.687
1576,0.659,37.553,12.068,37.309,34.322,4.948,5.973,5.768
1577,0.675,37.409,12.037,37.328,34.322,4.988,5.933,5.768
1578,0.656,37.522,12.099,37.328,34.319,4.826,5.811,5.606
1579,0.646,37.581,12.022,37.29,34.312,4.946,5.769,5.645
1580,0.659,37.371,12.06,37.328,34.315,4.907,5.809,5.686
1581,0.652,37.464,12.033,37.319,34.318,4.825,5.81,5.646
1582,0.646,37.571,12.041,37.319,34.312,4.865,5.81,5.564
1583,0.668,37.668,12.06,37.328,34.315,4.946,5.972,5.726
1584,0.682,37.851,12.1,37.357,34.329,5.029,5.933,5.687
1585,0.669,37.949,12.006,37.329,34.319,4.867,5.933,5.687
1586,0.678,38.093,12.025,37.338,34.319,4.987,5.892,5.687
1587,0.682,38.133,12.017,37.348,34.319,4.948,5.973,5.727
1588,0.685,37.136,12.087,37.338,34.322,5.029,5.974,5.687
1589,0.675,37.28,11.991,37.309,34.305,4.826,5.771,5.524
1590,0.688,37.387,12.021,37.328,34.315,4.946,6.013,5.644
1591,0.685,37.455,12.045,37.347,34.318,4.947,5.893,5.686
1592,0.672,37.532,12.068,37.328,34.319,4.825,5.892,5.687
1593,0.659,37.648,12.115,37.319,34.315,4.865,5.933,5.564
1594,0.672,37.774,12.1,37.367,34.329,4.987,6.136,5.807
1595,0.688,37.842,12.041,37.357,34.322,4.948,5.976,5.688
1596,0.662,37.44,12.014,37.357,34.319,4.907,5.933,5.687
1597,0.652,37.561,11.998,37.348,34.322,4.947,5.892,5.727
1598,0.659,37.677,12.095,37.367,34.325,5.029,6.014,5.687
1599,0.656,37.995,11.991,37.357,34.315,4.907,5.852,5.605
1600,0.649,37.614,12.009,37.348,34.318,4.906,5.932,5.686
1601,0.662,37.774,12.029,37.367,34.322,4.987,5.892,5.646
1602,0.659,37.842,12.064,37.367,34.319,4.948,5.973,5.686
1603,0.662,37.507,12.139,37.357,34.312,4.825,5.852,5.564
1604,0.659,37.571,12.085,37.348,34.329,5.027,6.054,5.807
1605,0.685,37.725,12.049,37.396,34.329,4.948,5.975,5.728
1606,0.666,37.784,12.037,37.386,34.315,4.988,6.015,5.687
1607,0.669,37.44,12.056,37.386,34.315,4.907,5.934,5.727
1608,0.685,37.542,12.068,37.386,34.332,4.947,5.974,5.768
1609,0.688,37.677,11.987,37.396,34.322,4.947,5.893,5.687
1610,0.679,37.726,11.982,37.329,34.305,4.825,5.851,5.646
1611,0.678,37.573,12.04,37.376,34.318,4.946,5.932,5.686
1612,0.672,37.697,12.107,37.367,34.319,4.866,5.933,5.646
1613,0.669,37.784,12.077,37.377,34.315,4.784,5.852,5.645
1614,0.665,37.871,12.111,37.367,34.315,4.905,5.891,5.686
1615,0.675,37.623,12.018,37.415,34.332,5.069,6.095,5.849
1616,0.659,37.755,12.064,37.396,34.319,4.867,5.975,5.688
1617,0.652,37.852,12.025,37.386,34.325,4.906,5.974,5.768
1618,0.652,37.901,12.084,37.406,34.322,4.987,5.893,5.687
1619,0.655,37.594,11.971,37.406,34.322,4.948,5.973,5.687
1620,0.639,37.735,12.005,37.396,34.315,4.825,5.893,5.605
1621,0.652,37.813,12.017,37.396,34.318,4.865,5.973,5.686
1622,0.659,37.862,12.041,37.415,34.325,4.824,5.933,5.687
1623,0.656,37.661,12.068,37.406,34.319,4.783,5.892,5.687
1624,0.665,37.774,12.088,37.396,34.315,4.783,5.892,5.605
1625,0.659,37.881,12.049,37.415,34.318,4.946,5.973,5.726
1626,0.685,37.786,12.053,37.444,34.329,4.988,5.974,5.687
1627,0.669,37.737,12.029,37.416,34.322,4.866,5.893,5.687
1628,0.669,37.842,12.099,37.425,34.322,4.987,5.933,5.768
1629,0.659,37.949,11.963,37.435,34.319,4.907,6.014,5.728
1630,0.675,37.566,11.989,37.444,34.322,4.987,5.893,5.646
1631,0.669,37.61,12.025,37.397,34.308,4.744,5.77,5.645
1632,0.675,37.754,12.06,37.425,34.315,4.783,5.809,5.686
1633,0.662,37.842,12.146,37.425,34.312,4.824,5.85,5.687
1634,0.659,37.546,12.081,37.425,34.308,4.743,5.769,5.646
1635,0.649,37.667,12.037,37.435,34.322,4.905,5.891,5.727
1636,0.649,37.841,12.045,37.464,34.325,5.069,5.933,5.768
1637,0.659,37.891,12.049,37.425,34.322,4.908,5.892,5.728
1638,0.646,37.642,12.072,37.435,34.315,4.906,5.933,5.727
1639,0.646,37.793,11.979,37.444,34.322,4.906,5.933,5.687
1640,0.649,37.91,12.013,37.464,34.322,4.906,5.933,5.727
1641,0.659,37.968,12.033,37.425,34.315,4.784,5.811,5.605
1642,0.636,37.557,12.053,37.435,34.315,4.946,5.85,5.767
1643,0.655,37.696,12.131,37.444,34.315,4.825,5.851,5.647
1644,0.668,37.813,12.112,37.444,34.315,4.824,5.851,5.605
1645,0.659,37.824,12.038,37.425,34.315,4.824,5.81,5.645
1646,0.669,37.699,12.029,37.463,34.325,4.987,5.972,5.849
1647,0.675,37.861,12.017,37.483,34.326,4.948,5.974,5.729
1648,0.662,37.93,12.052,37.464,34.322,4.907,5.893,5.727
1649,0.669,38.103,11.932,37.464,34.322,4.906,5.892,5.687
1650,0.678,37.692,12.028,37.464,34.322,4.906,5.973,5.768
1651,0.672,37.832,12.017,37.483,34.325,4.947,5.933,5.687
1652,0.665,37.881,12.064,37.435,34.312,4.785,5.811,5.687
1653,0.672,37.537,12.107,37.464,34.315,4.905,5.81,5.687
1654,0.662,37.6,12.1,37.464,34.318,4.947,5.81,5.687
1655,0.649,37.735,12.03,37.464,34.312,4.785,5.81,5.687
1656,0.655,37.813,12.013,37.473,34.322,4.986,5.932,5.809
1657,0.662,37.45,12.025,37.512,34.336,5.11,6.055,5.769
1658,0.649,37.551,12.056,37.483,34.322,4.908,5.975,5.728
1659,0.649,37.677,12.01,37.502,34.325,4.947,5.974,5.768
1660,0.646,37.774,12.041,37.512,34.329,5.029,5.974,5.809
1661,0.649,37.43,11.998,37.493,34.322,4.948,6.015,5.688
1662,0.649,37.532,12.068,37.454,34.308,4.785,5.812,5.687
1663,0.642,37.667,12.068,37.492,34.318,4.864,5.85,5.687
1664,0.659,37.707,12.076,37.474,34.319,4.906,5.891,5.727
1665,0.669,37.401,11.99,37.473,34.312,4.865,5.811,5.646
1666,0.672,37.551,12.021,37.473,34.312,4.987,5.891,5.767
1667,0.672,37.696,12.037,37.521,34.329,5.07,6.014,5.809
1668,0.678,37.688,12.06,37.503,34.319,4.948,5.974,5.688
1669,0.675,37.4,12.01,37.503,34.315,4.947,5.893,5.768
1670,0.688,37.561,12.013,37.493,34.322,4.988,5.973,5.687
1671,0.679,37.658,12.041,37.522,34.319,5.029,6.015,5.768
1672,0.675,37.659,12.068,37.493,34.312,4.907,5.812,5.606
1673,0.656,37.285,12.096,37.502,34.315,4.947,5.85,5.726
1674,0.659,37.444,12.08,37.493,34.318,4.988,5.932,5.727
1675,0.659,37.532,11.991,37.502,34.319,4.948,5.811,5.646
1676,0.646,37.284,12.044,37.503,34.319,4.947,5.891,5.645
1677,0.646,37.339,12.01,37.541,34.325,5.11,6.054,5.93
1678,0.668,37.483,12.087,37.551,34.322,5.03,5.975,5.77
1679,0.649,37.561,11.959,37.522,34.315,5.03,5.974,5.809
1680,0.639,37.236,12.017,37.541,34.315,4.989,6.015,5.728
1681,0.652,37.358,12.045,37.541,34.322,5.029,6.015,5.809
1682,0.655,37.474,12.099,37.541,34.315,5.03,5.974,5.606
1683,0.655,37.504,12.12,37.493,34.308,4.989,5.933,5.686
1684,0.665,37.063,12.061,37.531,34.318,5.029,5.974,5.727
1685,0.662,37.212,12.025,37.522,34.315,5.03,5.974,5.646
1686,0.662,37.348,12.017,37.522,34.315,5.03,5.852,5.727
1687,0.659,37.387,12.009,37.541,34.322,4.989,5.973,5.809
1688,0.682,37.091,12.068,37.589,34.329,5.192,6.015,5.81
1689,0.669,37.212,12.033,37.561,34.319,5.031,5.974,5.728
1690,0.678,37.329,12.021,37.551,34.322,5.03,5.974,5.687
1691,0.675,37.358,12.029,37.551,34.319,5.111,6.015,5.768
1692,0.672,36.966,12.107,37.551,34.325,5.071,6.015,5.728
1693,0.656,37.077,12.042,37.522,34.319,4.867,5.812,5.605
1694,0.646,37.183,12.088,37.56,34.322,5.028,5.972,5.686
1695,0.665,37.223,12.006,37.551,34.319,5.03,5.893,5.727
1696,0.646,36.907,11.994,37.551,34.315,4.989,5.892,5.565
1697,0.639,37.057,12.009,37.541,34.312,4.988,5.892,5.645
1698,0.649,37.183,12.072,37.58,34.332,5.151,6.054,5.849
1699,0.655,36.983,12.037,37.551,34.322,5.031,5.934,5.688
1700,0.642,36.837,12.017,37.57,34.322,5.03,5.933,5.687
1701,0.649,36.96,12.025,37.58,34.319,5.03,5.933,5.768
1702,0.642,37.058,12.068,37.59,34.322,5.03,5.933,5.728
1703,0.665,36.675,12.092,37.57,34.315,4.948,5.811,5.605
1704,0.652,36.748,12.084,37.561,34.308,5.029,5.891,5.645
1705,0.659,36.902,11.991,37.57,34.318,4.989,5.892,5.564
1706,0.665,36.999,12.036,37.57,34.312,4.907,5.851,5.645
1707,0.662,36.598,12.029,37.551,34.312,4.906,5.891,5.686
1708,0.662,36.737,12.072,37.58,34.318,4.987,6.014,5.849
1709,0.675,36.912,11.948,37.618,34.325,5.151,5.934,5.769
1710,0.669,36.961,11.985,37.58,34.315,5.031,5.852,5.647
1711,0.656,36.482,12.021,37.59,34.322,4.989,5.973,5.686
1712,0.655,36.612,12.06,37.58,34.322,5.07,5.974,5.727
1713,0.649,36.747,12.092,37.609,34.322,5.111,5.933,5.687
1714,0.642,36.787,12.084,37.561,34.315,4.867,5.77,5.605
1715,0.633,36.394,12.057,37.589,34.318,5.028,5.931,5.726
1716,0.639,36.553,12.041,37.599,34.322,4.989,5.892,5.646
1717,0.633,36.651,12.068,37.58,34.312,4.948,5.851,5.645
1718,0.626,36.69,12.068,37.58,34.315,4.988,5.81,5.645
1719,0.636,36.46,11.979,37.618,34.325,5.151,6.054,5.808
1720,0.639,36.611,12.001,37.59,34.319,5.031,5.975,5.688
1721,0.623,36.69,11.99,37.609,34.329,4.948,5.893,5.727
1722,0.632,36.796,12.052,37.599,34.322,4.988,5.973,5.727
1723,0.652,36.413,12.088,37.609,34.325,5.029,5.974,5.727
1724,0.655,36.515,12.119,37.619,34.319,4.948,5.852,5.484
1725,0.652,36.583,11.991,37.599,34.312,5.069,5.932,5.644
1726,0.662,36.172,12.052,37.628,34.318,4.908,5.892,5.645
1727,0.672,36.206,12.053,37.6,34.322,5.028,5.892,5.645
1728,0.682,36.321,12.045,37.599,34.308,4.907,5.933,5.605
1729,0.698,36.418,12.017,37.638,34.318,5.069,6.014,5.808
1730,0.734,36.141,12.005,37.628,34.319,5.152,5.934,5.647
1731,0.728,36.244,12.025,37.6,34.312,5.031,5.933,5.645
1732,0.731,36.379,12.072,37.618,34.329,5.07,5.892,5.686
1733,0.738,36.467,12.143,37.638,34.326,5.07,5.933,5.687
1734,0.731,35.979,12.128,37.628,34.319,5.03,5.892,5.605
1735,0.741,36.098,12.03,37.609,34.305,4.948,5.811,5.604
1736,0.728,36.253,12.049,37.628,34.322,5.029,5.932,5.645
1737,0.734,36.331,11.982,37.619,34.319,5.03,5.974,5.645
1738,0.741,35.968,12.044,37.619,34.315,4.907,5.893,5.645
1739,0.738,36.117,11.959,37.619,34.315,4.987,5.892,5.645
1740,0.734,36.263,12.028,37.657,34.332,5.151,6.095,5.889
1741,0.764,36.322,12.033,37.648,34.326,4.99,5.894,5.648
1742,0.764,35.824,12.049,37.638,34.319,5.029,5.973,5.686
1743,0.777,35.963,12.119,37.648,34.325,4.989,5.974,5.646
1744,0.79,36.089,12.038,37.648,34.326,5.029,6.055,5.727
1745,0.793,36.08,12.033,37.619,34.319,4.948,5.853,5.565
1746,0.78,35.716,11.998,37.609,34.315,4.988,5.973,5.685
1747,0.787,35.856,12.025,37.638,34.322,4.988,5.974,5.646
1748,0.79,35.963,12.006,37.638,34.315,4.948,5.852,5.564
1749,0.774,35.686,12.005,37.638,34.312,4.866,5.851,5.604
1750,0.784,35.664,12.025,37.657,34.322,4.987,6.054,5.686
1751,0.79,35.836,12.049,37.686,34.332,5.11,6.015,5.687
1752,0.771,35.905,12.107,37.658,34.326,4.989,5.974,5.646
1753,0.764,35.551,12.081,37.638,34.326,5.029,5.974,5.686
1754,0.754,35.701,12.072,37.667,34.329,4.989,5.974,5.646
1755,0.751,35.818,11.99,37.677,34.319,5.029,5.974,5.564
1756,0.741,35.895,11.99,37.629,34.305,4.989,5.933,5.645
1757,0.754,35.532,11.978,37.667,34.322,4.907,5.933,5.605
1758,0.754,35.634,12.075,37.657,34.315,4.987,6.014,5.645
1759,0.748,35.769,11.994,37.657,34.312,4.907,5.974,5.645
1760,0.747,35.866,11.994,37.677,34.318,5.028,6.015,5.727
1761,0.747,35.436,12.048,37.705,34.336,5.151,6.096,5.727
1762,0.731,35.556,12.099,37.667,34.322,5.071,5.975,5.727
1763,0.734,35.672,12.108,37.696,34.322,5.03,6.055,5.727
1764,0.744,35.731,12.069,37.687,34.325,5.07,5.975,5.768
1765,0.741,35.367,12.041,37.686,34.326,4.948,5.974,5.687
1766,0.721,35.479,12.017,37.658,34.312,4.866,5.893,5.524
1767,0.724,35.624,11.978,37.686,34.315,4.946,5.973,5.685
1768,0.715,35.625,12.064,37.686,34.312,4.947,5.893,5.646
1769,0.708,35.241,11.979,37.686,34.308,4.947,5.892,5.645
1770,0.708,35.372,12.032,37.658,34.308,4.907,6.014,5.686
1771,0.708,35.527,12.068,37.715,34.329,5.109,6.137,5.849
1772,0.702,35.451,12.092,37.687,34.326,4.989,5.976,5.688
1773,0.692,35.336,12.139,37.667,34.312,5.029,5.974,5.768
1774,0.695,35.478,12.073,37.705,34.325,4.989,6.055,5.687
1775,0.695,35.585,12.049,37.706,34.319,5.029,5.975,5.727
1776,0.692,35.184,11.998,37.687,34.315,4.907,5.893,5.565
1777,0.669,35.256,12.005,37.677,34.312,4.987,5.973,5.645
1778,0.669,35.401,12.029,37.696,34.312,4.988,5.893,5.645
1779,0.678,35.508,12.013,37.696,34.318,4.948,5.933,5.645
1780,0.662,34.981,12.009,37.696,34.315,4.947,5.852,5.605
1781,0.652,35.139,12.048,37.715,34.318,5.029,6.013,5.808
1782,0.668,35.323,12.115,37.735,34.329,5.03,5.974,5.647
1783,0.669,35.354,12.12,37.696,34.326,4.989,5.974,5.686
1784,0.652,34.97,12.12,37.725,34.322,4.988,5.974,5.646
1785,0.652,35.11,12.046,37.716,34.325,4.988,5.974,5.767
1786,0.655,35.227,12.014,37.725,34.329,4.948,5.893,5.647
1787,0.646,35.295,12.005,37.687,34.315,4.866,5.811,5.523
1788,0.649,34.903,12.056,37.706,34.318,4.946,5.891,5.685
1789,0.655,35.052,12.018,37.715,34.315,4.907,5.933,5.646
1790,0.659,35.178,12.005,37.696,34.318,4.987,5.811,5.564
1791,0.649,35.218,12.033,37.687,34.312,4.866,5.81,5.645
1792,0.662,34.921,12.053,37.734,34.329,5.109,5.972,5.808
1793,0.665,35.081,12.135,37.735,34.322,4.949,5.893,5.688
1794,0.656,35.159,12.096,37.725,34.322,4.947,5.892,5.687
1795,0.659,35.486,12.022,37.735,34.319,4.947,5.892,5.727
1796,0.646,34.933,12.052,37.744,34.319,4.988,5.892,5.768
1797,0.642,35.062,12.045,37.745,34.319,4.948,5.892,5.606
1798,0.636,35.14,12.06,37.687,34.308,4.866,5.811,5.564
1799,0.636,34.748,11.943,37.734,34.315,4.946,5.85,5.645
1800,0.629,34.792,12.02,37.735,34.315,4.907,5.851,5.645
1801,0.636,34.907,12.025,37.716,34.315,4.906,5.769,5.605
1802,0.639,34.995,12.045,37.735,34.318,4.906,5.85,5.726
1803,0.649,34.784,12.138,37.764,34.325,5.069,6.054,5.809
1804,0.655,34.926,12.093,37.745,34.319,4.989,5.853,5.688
1805,0.652,35.033,12.057,37.745,34.322,4.948,5.81,5.687
1806,0.662,35.14,12.061,37.745,34.322,4.988,5.891,5.687
1807,0.669,34.68,12.084,37.745,34.319,4.988,5.892,5.727
1808,0.669,34.81,12.033,37.745,34.312,4.907,5.77,5.605
1809,0.646,34.907,11.978,37.716,34.315,4.906,5.891,5.686
1810,0.668,35.004,12.032,37.725,34.322,4.987,5.892,5.646
1811,0.662,34.554,12.021,37.725,34.319,4.907,5.811,5.564
1812,0.656,34.694,12.052,37.725,34.315,4.906,5.81,5.482
1813,0.646,34.801,12.068,37.744,34.315,4.906,5.891,5.684
1814,0.662,34.898,12.111,37.792,34.329,5.109,5.933,5.646
1815,0.656,34.659,11.999,37.745,34.319,4.908,5.892,5.686
1816,0.636,34.791,12.064,37.754,34.315,4.987,5.933,5.727
1817,0.649,34.907,12.037,37.764,34.325,4.988,5.892,5.687
1818,0.646,34.937,12.068,37.754,34.329,5.029,5.933,5.646
1819,0.642,34.602,11.994,37.735,34.315,4.867,5.77,5.605
1820,0.629,34.723,11.99,37.735,34.315,4.906,5.972,5.686
1821,0.632,34.849,12.013,37.764,34.315,4.947,5.893,5.646
1822,0.636,34.658,12.033,37.745,34.308,4.907,5.851,5.523
1823,0.646,34.599,12.056,37.735,34.311,4.906,5.81,5.603
1824,0.649,34.742,12.068,37.764,34.315,4.987,6.013,5.686
1825,0.662,34.887,12.057,37.802,34.325,4.988,6.056,5.605
1826,0.656,34.525,12.076,37.755,34.319,4.907,5.934,5.645
1827,0.668,34.665,11.979,37.773,34.322,5.028,5.974,5.686
1828,0.662,34.772,12.099,37.754,34.325,5.03,5.974,5.687
1829,0.669,34.869,12.018,37.773,34.322,4.989,5.974,5.646
1830,0.675,34.476,12.017,37.745,34.308,4.907,5.811,5.523
1831,0.659,34.597,12.002,37.754,34.318,4.947,5.972,5.603
1832,0.665,34.752,12.072,37.764,34.319,5.029,5.974,5.564
1833,0.652,34.811,12.057,37.754,34.315,4.948,5.893,5.523
1834,0.642,34.466,12.068,37.735,34.312,4.907,5.973,5.603
1835,0.642,34.635,12.049,37.792,34.325,5.069,6.096,5.808
1836,0.652,34.791,12.06,37.783,34.315,4.989,5.935,5.688
1837,0.636,34.84,12.006,37.774,34.318,4.948,5.974,5.605
1838,0.626,34.505,12.056,37.774,34.315,5.029,5.974,5.645
1839,0.626,34.655,12.037,37.783,34.322,5.03,5.933,5.686
1840,0.619,34.791,12.01,37.793,34.315,5.03,5.933,5.564
1841,0.606,34.792,12.009,37.745,34.305,4.948,5.892,5.563
1842,0.629,34.504,12.033,37.783,34.318,4.988,5.973,5.604
1843,0.642,34.636,12.068,37.774,34.315,4.988,5.933,5.564
1844,0.642,34.733,12.131,37.774,34.315,4.948,5.852,5.523
1845,0.646,34.686,12.077,37.754,34.318,4.988,5.932,5.644
1846,0.655,34.417,12.026,37.831,34.329,5.151,6.014,5.686
1847,0.668,34.558,11.99,37.784,34.319,4.99,5.974,5.646
1848,0.669,34.646,12.083,37.783,34.319,5.029,5.893,5.645
1849,0.688,34.637,12.014,37.783,34.325,5.03,6.014,5.645
1850,0.705,34.781,12.041,37.879,34.322,4.989,5.974,5.645
1851,0.728,34.897,12.029,37.755,34.308,4.948,5.893,5.483
1852,0.731,34.975,12.037,37.793,34.322,5.029,5.892,5.603
1853,0.757,34.199,12.08,37.783,34.315,5.03,5.933,5.564
1854,0.783,34.307,12.104,37.774,34.315,4.907,5.852,5.604
1855,0.81,34.442,12.073,37.754,34.312,4.987,5.891,5.564
1856,0.82,34.558,11.979,37.812,34.336,5.07,6.014,5.766
1857,0.856,34.339,12.009,37.812,34.319,4.948,5.893,5.647
1858,0.914,34.461,12.033,37.803,34.322,5.029,5.892,5.645
1859,0.977,34.587,12.053,37.793,34.329,5.07,5.973,5.686
1860,1.026,34.675,12.057,37.822,34.329,5.03,5.933,5.646
1861,1.098,34.417,12.006,37.784,34.308,4.989,5.852,5.605
1862,1.171,34.549,12.025,37.783,34.311,4.988,5.891,5.604
1863,1.243,34.675,12.088,37.802,34.322,5.029,5.892,5.564
1864,1.315,34.733,12.127,37.783,34.312,4.989,5.851,5.604
1865,1.368,34.274,12.085,37.783,34.315,4.907,5.891,5.604
1866,1.424,34.413,11.991,37.812,34.318,4.987,6.014,5.726
1867,1.483,34.587,12.021,37.831,34.332,5.11,5.974,5.687
1868,1.532,34.589,12.064,37.793,34.322,4.989,5.974,5.687
1869,1.594,34.464,12.084,37.802,34.319,5.029,5.974,5.687
1870,1.673,34.616,12.057,37.822,34.329,5.03,5.933,5.727
1871,1.723,34.723,12.025,37.812,34.329,5.03,6.055,5.687
1872,1.762,34.369,12.021,37.764,34.308,4.948,5.771,5.564
1873,1.759,34.385,12.127,37.812,34.325,5.029,5.891,5.685
1874,1.795,34.519,12.089,37.803,34.322,4.948,5.973,5.646
1875,1.809,34.626,12.115,37.793,34.315,4.988,5.893,5.727
1876,1.796,34.253,12.01,37.793,34.315,4.988,5.851,5.727
1877,1.802,34.432,12.009,37.812,34.325,5.11,6.095,5.931
1878,1.809,34.578,12.021,37.812,34.322,5.03,5.975,5.811
1879,1.799,34.636,12.037,37.822,34.322,5.111,5.974,5.972
1880,1.789,34.282,11.982,37.832,34.322,5.071,6.015,6.096
1881,1.724,34.442,11.993,37.822,34.319,5.152,5.974,6.097
1882,1.639,34.568,12.013,37.822,34.315,4.99,5.893,6.097
1883,1.56,34.598,12.072,37.793,34.305,4.907,5.892,6.178
1884,1.416,34.253,12.1,37.812,34.318,4.987,5.933,6.22
1885,1.32,34.393,12.104,37.812,34.315,5.029,5.974,6.302
1886,1.267,34.52,12.073,37.812,34.312,4.948,5.852,6.425
1887,1.224,34.569,12.065,37.812,34.315,4.988,5.973,6.629
1888,1.195,34.272,12.068,37.86,34.336,5.151,6.177,6.834
1889,1.165,34.413,12.107,37.813,34.315,5.071,5.976,6.958
1890,1.139,34.52,11.987,37.812,34.325,4.989,5.974,7.041
1891,1.106,34.569,12.013,37.841,34.322,5.07,5.974,7.204
1892,1.073,34.349,12.033,37.822,34.319,5.111,6.015,7.369
1893,1.011,34.481,12.06,37.793,34.312,4.949,5.852,7.33
1894,0.929,34.568,12.064,37.802,34.322,5.069,5.973,7.532
1895,0.886,34.397,12.119,37.822,34.319,5.03,5.852,7.616
1896,0.843,34.251,12.046,37.812,34.312,4.989,5.891,7.617
1897,0.8,34.384,12.006,37.812,34.315,4.988,5.851,7.739
1898,0.771,34.519,12.044,37.831,34.325,5.11,6.013,7.984
1899,0.761,34.367,12.088,37.841,34.322,5.071,5.974,7.946
1900,0.696,34.462,11.995,37.832,34.315,5.111,5.893,8.108
1901,0.646,34.607,11.978,37.822,34.318,5.071,5.973,8.109
1902,0.623,34.714,12.025,37.851,34.322,5.07,5.974,8.354
1903,0.626,34.197,12.029,37.832,34.319,5.07,5.893,8.397
1904,0.645,34.316,12.041,37.803,34.312,4.948,5.851,8.6
1905,0.681,34.471,12.08,37.822,34.322,4.988,5.973,8.765
1906,0.714,34.54,12.08,37.832,34.319,5.029,5.852,8.929
1907,0.728,34.329,12.037,37.812,34.312,5.03,5.81,9.134
1908,0.744,34.471,12.056,37.822,34.318,5.03,5.932,9.502
1909,0.786,34.616,12.064,37.87,34.332,5.151,5.933,9.628
1910,0.803,34.666,11.994,37.832,34.312,5.112,5.933,9.832
1911,0.813,34.129,11.986,37.832,34.322,5.112,5.933,9.997
1912,0.833,34.277,11.974,37.832,34.322,5.112,6.014,10.161
1913,0.833,34.413,12.044,37.851,34.322,5.071,5.974,10.244
1914,0.839,34.424,12.092,37.813,34.312,4.948,5.811,10.286
1915,0.856,34.328,12.045,37.831,34.315,5.029,5.891,10.449
1916,0.853,34.5,12.014,37.841,34.322,5.03,5.973,10.45
1917,0.849,34.617,12.013,37.822,34.322,4.948,5.852,10.491
1918,0.846,34.752,12.076,37.822,34.315,4.988,5.851,10.573
1919,0.846,34.312,12.08,37.851,34.325,5.151,6.013,10.736
1920,0.862,34.48,12.014,37.87,34.326,5.031,5.934,10.616
1921,0.846,34.559,12.013,37.851,34.319,5.07,5.974,10.574
1922,0.846,34.272,12.037,37.861,34.319,5.07,5.893,10.574
1923,0.846,34.336,12.014,37.841,34.322,5.07,5.973,10.574
1924,0.856,34.471,12.052,37.851,34.319,4.989,5.893,10.451
1925,0.849,34.54,12.119,37.793,34.305,4.948,5.851,10.41
1926,0.853,34.214,12.003,37.831,34.315,5.029,5.891,10.45
1927,0.846,34.364,12.017,37.851,34.315,4.989,5.933,10.491
1928,0.853,34.462,12.013,37.832,34.315,4.907,5.852,10.451
1929,0.836,34.559,12.056,37.832,34.315,4.947,5.891,10.491
1930,0.852,34.224,11.986,37.86,34.329,5.15,6.054,10.614
1931,0.859,34.364,12.036,37.861,34.322,4.99,5.853,10.411
1932,0.849,34.471,11.998,37.851,34.319,4.988,5.973,10.409
1933,0.833,34.568,12.072,37.861,34.319,5.07,6.015,10.409
1934,0.833,34.195,12.104,37.851,34.322,5.03,5.974,10.247
1935,0.826,34.345,12.088,37.851,34.315,4.989,5.811,10.082
1936,0.807,34.414,12.045,37.841,34.315,4.988,5.972,10.121
1937,0.82,34.51,12.014,37.851,34.318,4.988,5.933,10.041
1938,0.82,34.271,12.033,37.832,34.315,4.907,5.933,9.999
1939,0.817,34.394,12.025,37.841,34.312,4.906,5.811,9.877
1940,0.816,34.548,11.982,37.851,34.329,5.069,6.054,9.957
1941,0.826,34.627,12.013,37.899,34.333,5.03,6.015,9.795
1942,0.813,34.215,12.005,37.851,34.322,4.989,5.934,9.712
1943,0.826,34.355,12.025,37.861,34.325,4.988,6.014,9.63
1944,0.833,34.452,12.08,37.851,34.319,5.029,6.015,9.588
1945,0.833,34.213,12.072,37.861,34.329,4.989,5.974,9.425
1946,0.836,34.192,12.037,37.851,34.315,4.866,5.893,9.22
1947,0.826,34.316,12.025,37.861,34.315,4.987,6.014,9.3
1948,0.836,34.442,11.994,37.851,34.315,4.907,5.852,9.219
1949,0.839,34.156,12.021,37.851,34.315,4.947,5.973,9.056
1950,0.849,34.287,11.978,37.822,34.312,4.866,5.893,9.054
1951,0.83,34.432,12.001,37.851,34.322,4.987,6.054,9.054
1952,0.852,34.539,12.037,37.88,34.322,5.029,6.015,8.932
1953,0.833,34.09,12.084,37.851,34.322,5.03,6.015,8.85
1954,0.83,34.229,12.1,37.861,34.322,4.989,6.056,8.808
1955,0.833,34.374,12.084,37.861,34.325,4.948,5.975,8.686
1956,0.836,34.443,12.037,37.841,34.315,4.907,5.933,8.522
1957,0.817,34.079,11.982,37.832,34.312,4.947,5.974,8.561
1958,0.826,34.248,11.997,37.851,34.318,4.947,5.893,8.439
1959,0.83,34.365,12.06,37.841,34.308,4.947,5.973,8.357
1960,0.82,34.433,12.006,37.851,34.308,4.907,5.974,8.356
1961,0.826,34.156,12.021,37.889,34.329,5.069,6.137,8.437
1962,0.846,34.306,12.013,37.861,34.319,4.989,6.016,8.275
1963,0.843,34.394,12.06,37.861,34.319,4.988,5.974,8.274
1964,0.839,34.424,12.029,37.88,34.319,5.029,5.974,8.193
1965,0.843,34.155,12.084,37.861,34.329,4.989,6.015,8.151
1966,0.853,34.277,12.069,37.851,34.312,4.907,5.893,7.907
1967,0.836,34.365,11.998,37.851,34.312,4.906,5.973,7.945
1968,0.859,34.289,12.033,37.832,34.322,5.028,5.974,7.823
1969,0.862,34.097,12.053,37.86,34.315,4.907,5.974,7.822
1970,0.853,34.229,12.014,37.841,34.318,4.906,5.933,7.7
1971,0.853,34.345,12.002,37.86,34.322,5.069,6.055,7.861
1972,0.872,34.001,12.052,37.88,34.329,5.07,6.056,7.7
1973,0.846,34.055,12.068,37.87,34.322,5.03,5.934,7.699
1974,0.849,34.219,12.053,37.851,34.319,4.907,5.974,7.699
1975,0.853,34.307,12.076,37.861,34.319,5.069,6.015,7.699
1976,0.84,34.011,12.014,37.861,34.322,4.989,5.934,7.496
1977,0.833,34.142,12.033,37.832,34.308,4.907,5.852,7.453
1978,0.839,34.287,12.021,37.851,34.318,4.947,5.973,7.412
1979,0.843,34.346,12.084,37.851,34.315,4.947,5.933,7.371
1980,0.833,34.02,11.991,37.841,34.308,4.907,5.892,7.37
1981,0.843,34.161,12.029,37.928,34.315,4.947,6.014,7.37
1982,0.856,34.325,12.025,37.9,34.332,5.069,6.137,7.452
1983,0.859,34.365,12.013,37.861,34.315,4.948,5.976,7.29
1984,0.856,34.356,12.056,37.851,34.322,4.988,5.974,7.329
1985,0.872,34.5,12.084,37.861,34.322,5.029,5.933,7.248
1986,0.872,34.617,12.076,37.861,34.315,5.03,5.974,7.288
1987,0.872,34.646,12.041,37.841,34.312,4.907,5.852,7.044
1988,0.872,33.784,12.033,37.851,34.329,4.906,5.973,7.123
1989,0.879,33.938,12.076,37.832,34.319,4.987,5.974,7.124
1990,0.879,34.045,11.994,37.832,34.319,4.907,5.933,7.043
1991,0.879,34.372,12.021,37.822,34.315,4.947,5.892,7.082
1992,0.882,34.059,12.002,37.851,34.336,5.191,6.095,7.123
1993,0.885,34.171,12.017,37.841,34.315,5.031,6.056,7.043
1994,0.872,34.268,12.06,37.851,34.318,5.07,6.015,7.001
1995,0.872,33.895,12.076,37.851,34.319,5.07,6.056,7.041
1996,0.885,33.93,12.072,37.832,34.322,5.111,6.015,7.001
1997,0.882,34.083,12.037,37.832,34.319,5.03,5.974,6.879
1998,0.866,34.152,12.021,37.812,34.312,4.989,6.015,6.877
1999,0.876,33.817,12.111,37.851,34.318,5.07,6.015,6.796
2000,0.876,33.938,12.038,37.841,34.322,5.07,5.974,6.795
2001,0.869,34.084,12.045,37.899,34.312,4.908,5.974,6.836
2002,0.879,34.162,11.982,37.832,34.322,5.069,6.055,6.877
2003,0.898,33.75,12.017,37.86,34.332,5.111,6.097,6.837
2004,0.899,33.871,12.052,37.832,34.319,5.112,6.056,6.755
2005,0.899,34.006,12.029,37.841,34.329,5.071,5.975,6.754
2006,0.915,34.065,12.064,37.86,34.322,5.07,6.055,6.754
2007,0.909,33.749,12.049,37.861,34.332,5.152,6.015,6.795
2008,0.902,33.871,12.025,37.794,34.312,4.99,5.893,6.633
2009,0.912,33.997,12.045,37.831,34.318,5.07,6.054,6.712
2010,0.925,34.055,12.041,37.832,34.319,5.03,6.015,6.632
2011,0.918,33.692,12.021,37.822,34.322,4.989,5.893,6.59
2012,0.918,33.822,11.998,37.822,34.312,5.029,6.014,6.671
2013,0.918,33.967,12.037,37.86,34.332,5.192,6.218,6.713
2014,0.922,34.007,12.06,37.841,34.329,5.072,6.017,6.632
2015,0.899,33.643,12.092,37.832,34.315,5.07,6.096,6.59
2016,0.912,33.783,12.03,37.851,34.325,5.111,6.056,6.631
2017,0.918,33.929,12.025,37.851,34.322,5.152,6.097,6.712
2018,0.915,33.738,12.021,37.813,34.312,5.031,5.894,6.429
2019,0.912,33.65,12.045,37.812,34.315,5.03,6.014,6.548
2020,0.912,33.803,12.025,37.831,34.315,4.989,6.015,6.468
2021,0.915,33.929,12.002,37.87,34.315,5.029,6.015,6.507
2022,0.912,33.537,11.99,37.803,34.312,4.989,5.934,6.467
2023,0.931,33.658,12.044,37.841,34.322,5.07,6.055,6.589
2024,0.944,33.822,12.041,37.86,34.325,5.152,6.056,6.468
2025,0.941,33.9,12.076,37.832,34.322,5.112,6.015,6.507
2026,0.945,33.508,12.061,37.822,34.319,5.03,6.096,6.467
2027,0.948,33.648,12.006,37.832,34.325,5.111,6.056,6.467
2028,0.964,33.812,12.033,37.851,34.319,5.152,6.015,6.426
2029,0.955,33.843,12.045,37.803,34.305,4.949,6.015,6.344
2030,0.958,33.383,12.006,37.812,34.315,4.988,5.974,6.425
2031,0.968,33.531,11.998,37.822,34.315,5.07,6.015,6.385
2032,0.977,33.658,11.998,37.793,34.315,5.03,5.934,6.303
2033,0.948,33.716,11.998,37.812,34.315,4.989,5.974,6.384
2034,0.971,33.429,12.021,37.86,34.332,5.151,6.137,6.466
2035,0.977,33.57,12.052,37.822,34.322,5.031,6.016,6.386
2036,0.968,33.687,12.084,37.832,34.322,5.03,6.015,6.385
2037,0.961,33.726,12.045,37.832,34.322,5.111,6.015,6.425
2038,0.971,33.41,12.017,37.812,34.319,5.112,6.015,6.304
2039,0.981,33.532,12.064,37.793,34.305,4.989,5.812,6.18
2040,0.958,33.629,11.998,37.812,34.315,5.029,5.972,6.22
2041,0.984,33.687,12.005,37.879,34.318,5.07,5.893,6.261
2042,0.981,33.362,12.001,37.813,34.312,5.03,5.933,6.302
2043,0.994,33.502,12.021,37.812,34.312,4.989,5.892,6.262
2044,1.004,33.609,12.068,37.822,34.329,5.11,6.054,6.465
2045,1.02,33.284,12.096,37.841,34.322,5.071,5.975,6.304
2046,1.014,33.339,12.108,37.822,34.322,5.07,5.974,6.262
2047,1.023,33.493,12.038,37.822,34.322,5.07,5.974,6.221
2048,1.036,33.59,12.033,37.832,34.325,5.111,5.974,6.302
2049,1.037,33.179,12.072,37.812,34.319,5.03,5.852,6.14
2050,1.037,33.299,12.006,37.803,34.315,5.07,5.891,6.179
2051,1.05,33.473,12.005,37.812,34.318,5.07,5.933,6.139
2052,1.063,33.551,11.994,37.822,34.315,5.03,5.811,6.179
2053,1.05,33.197,11.997,37.812,34.315,4.989,5.891,6.179
2054,1.053,33.357,12.029,37.822,34.329,5.11,6.014,6.301
2055,1.073,33.541,12.088,37.832,34.329,5.03,5.934,6.18
2056,1.056,33.552,12.1,37.803,34.329,5.07,5.974,6.139
2057,1.056,33.006,12.034,37.831,34.315,5.07,5.974,6.179
2058,1.066,33.134,12.029,37.822,34.322,5.03,6.055,6.261
2059,1.069,33.299,12.033,37.812,34.322,4.989,5.975,6.099
2060,1.063,33.32,12.029,37.803,34.312,5.07,6.015,6.138
2061,1.069,33.224,11.931,37.831,34.318,5.03,5.974,6.138
2062,1.082,33.367,11.997,37.812,34.315,5.03,5.974,6.098
2063,1.089,33.474,12.021,37.803,34.312,5.07,6.015,6.016
2064,1.109,33.504,12.033,37.831,34.322,5.111,6.096,6.137
2065,1.128,33.12,12.084,37.841,34.329,5.152,6.056,6.098
2066,1.125,33.222,12.076,37.803,34.326,5.071,6.097,6.097
2067,1.129,33.357,12.065,37.822,34.329,5.111,6.056,6.138
2068,1.142,33.109,12.01,37.832,34.322,5.112,6.056,6.179
2069,1.151,33.097,12.068,37.822,34.322,5.112,6.056,6.017
2070,1.158,33.212,12.026,37.764,34.308,5.03,5.975,5.934
2071,1.155,33.328,11.963,37.802,34.318,5.07,6.055,5.974
2072,1.171,33.013,12.005,37.793,34.315,4.989,6.015,5.974
2073,1.158,33.134,12.021,37.783,34.312,5.07,6.015,5.974
2074,1.158,33.27,12.048,37.793,34.318,5.111,6.096,6.015
2075,1.184,33.396,12.068,37.841,34.336,5.234,6.26,6.056
2076,1.168,32.822,12.1,37.813,34.322,5.153,6.017,6.097
2077,1.178,32.979,12.077,37.803,34.325,5.071,6.096,6.056
2078,1.191,33.125,12.022,37.812,34.322,5.07,6.178,6.015
2079,1.201,33.232,12.076,37.812,34.322,5.152,6.098,6.015
2080,1.201,32.878,12.014,37.793,34.315,4.99,5.935,5.852
2081,1.194,33.018,11.943,37.822,34.318,5.07,6.055,5.973
2082,1.207,33.183,11.977,37.812,34.319,5.07,6.015,5.974
2083,1.224,33.213,12.013,37.784,34.308,5.03,5.974,5.974
2084,1.23,32.926,11.986,37.793,34.315,5.07,6.015,5.974
2085,1.237,33.095,12.048,37.812,34.329,5.193,6.218,6.055
2086,1.266,33.27,12.099,37.812,34.319,5.072,6.017,6.015
2087,1.257,33.271,12.045,37.812,34.319,5.07,6.056,6.015
2088,1.266,32.926,12.037,37.793,34.322,5.111,6.137,6.015
2089,1.28,33.076,12.06,37.812,34.322,5.03,6.138,6.056
2090,1.283,33.193,12.088,37.812,34.319,4.989,6.098,5.893
2091,1.267,33.069,12.026,37.764,34.308,4.907,5.975,5.892
2092,1.293,32.962,12.037,37.783,34.315,5.069,6.055,5.973
2093,1.283,33.105,12.033,37.783,34.318,5.03,6.097,5.893
2094,1.277,33.212,12.045,37.783,34.308,4.989,6.016,5.811
2095,1.283,32.926,12.057,37.783,34.325,4.988,6.137,5.972
2096,1.299,33.086,12.096,37.831,34.329,5.192,6.138,5.974
2097,1.29,33.222,12.03,37.793,34.322,5.072,6.098,5.893
2098,1.293,33.319,11.994,37.793,34.322,5.07,6.097,5.892
2099,1.299,33.09,12.095,37.783,34.322,5.03,6.097,5.973
2100,1.299,33.26,12.034,37.802,34.322,5.07,6.056,5.933
2101,1.303,33.377,11.99,37.783,34.305,4.948,5.893,5.811
2102,1.312,33.455,12.029,37.793,34.315,5.069,6.054,5.85
2103,1.316,33.177,12.006,37.774,34.312,4.908,6.015,5.891
2104,1.326,33.309,12.037,37.774,34.315,5.028,5.974,5.851
2105,1.332,33.435,12.021,37.774,34.312,5.03,6.015,5.851
2106,1.342,33.532,12.064,37.793,34.332,5.07,6.137,6.054
2107,1.345,33.456,11.998,37.822,34.322,5.03,6.016,5.893
2108,1.339,33.551,12.025,37.784,34.319,5.03,6.015,5.933
2109,1.336,33.667,12.088,37.774,34.325,5.07,6.096,5.892
2110,1.355,33.726,12.08,37.774,34.326,5.03,6.138,5.973
2111,1.355,33.736,12.014,37.774,34.319,4.989,6.057,5.811
2112,1.339,33.842,12.021,37.754,34.308,4.988,5.975,5.769
2113,1.329,33.968,12.041,37.764,34.311,4.988,6.055,5.809
2114,1.336,34.304,11.994,37.764,34.308,5.029,6.015,5.81
2115,1.326,34.126,12.04,37.754,34.315,4.989,6.015,5.728
2116,1.319,34.268,12.045,37.764,34.322,5.029,6.096,5.931
2117,1.332,34.413,11.99,37.812,34.332,5.151,6.138,5.892
2118,1.323,34.405,12.033,37.755,34.322,4.99,6.098,5.892
2119,1.313,34.51,12.056,37.764,34.322,5.029,6.097,5.892
2120,1.306,34.636,12.068,37.773,34.319,5.03,6.097,5.973
2121,1.309,34.733,11.983,37.783,34.325,5.03,6.097,5.893
2122,1.287,34.897,12.017,37.822,34.308,4.948,5.975,5.77
2123,1.299,35.033,11.978,37.764,34.318,4.988,6.055,5.891
2124,1.29,35.188,12.013,37.754,34.312,4.988,6.056,5.811
2125,1.277,35.237,12.064,37.735,34.325,4.988,6.015,5.81
2126,1.27,35.765,12.084,37.735,34.315,4.948,6.056,5.891
2127,1.27,35.924,12.037,37.802,34.329,5.15,6.219,5.973
2128,1.27,36.06,11.982,37.755,34.319,5.031,6.098,5.893
2129,1.25,36.09,12.06,37.773,34.322,5.07,6.097,5.892
2130,1.247,35.745,12.041,37.754,34.322,5.03,6.138,5.851
2131,1.214,35.895,12.041,37.754,34.325,5.03,6.179,5.851
2132,1.201,35.992,11.982,37.821,34.319,4.989,6.017,5.769
2133,1.175,36.003,11.993,37.717,34.312,5.029,6.096,5.809
2134,1.171,36.837,12.044,37.754,34.322,5.03,6.097,5.81
2135,1.149,36.961,12.045,37.735,34.322,5.03,6.016,5.769
2136,1.119,37.038,12.099,37.725,34.312,4.948,6.015,5.768
2137,1.102,37.068,12.002,37.744,34.315,5.069,6.096,5.891
2138,1.102,37.116,12.06,37.783,34.336,5.193,6.138,5.851
2139,1.096,37.184,12.014,37.745,34.315,5.031,6.057,5.891
2140,1.063,37.299,12.076,37.745,34.318,5.07,6.056,5.851
2141,1.047,37.569,12.045,37.745,34.319,5.111,6.056,5.891
2142,1.04,37.735,11.943,37.764,34.325,5.03,6.015,5.892
2143,1.027,37.842,11.993,37.735,34.319,4.948,5.974,5.77
2144,1.007,37.91,12.013,37.735,34.315,5.069,5.974,5.768
2145,0.997,37.796,12.06,37.735,34.322,5.03,5.974,5.809
2146,0.987,37.919,12.053,37.716,34.315,5.03,6.015,5.728
