time,ecg,bvp,gsr,rsp,skt,emg_zygo,emg_coru,emg_trap
0,1.004,34.92,19.753,35.46,32.762,6.056,8.111,6.878
1,1.0,35.043,19.741,35.422,32.752,5.975,8.069,6.877
2,0.991,35.13,19.737,35.412,32.748,6.015,8.028,6.877
3,1.01,35.438,19.706,35.431,32.758,5.974,8.027,6.959
4,1.01,35.057,19.721,35.441,32.748,6.015,8.068,6.96
5,1.017,35.188,19.705,35.431,32.748,6.096,8.028,6.96
6,1.01,35.275,19.697,35.422,32.762,6.056,8.027,7.041
7,1.03,34.883,19.662,35.431,32.758,5.975,7.946,6.96
8,1.04,34.908,19.677,35.412,32.752,6.015,7.945,6.878
9,1.03,35.014,19.709,35.383,32.745,5.934,7.783,6.755
10,1.04,35.092,19.658,35.383,32.744,5.892,7.74,6.917
11,1.053,34.766,19.685,35.402,32.748,5.973,7.74,7.041
12,1.056,34.916,19.674,35.402,32.748,6.055,7.781,6.96
13,1.066,35.052,19.685,35.402,32.758,6.056,7.74,6.919
14,1.069,35.13,19.701,35.402,32.758,6.056,7.699,6.919
15,1.066,35.064,19.752,35.383,32.752,5.975,7.618,6.919
16,1.079,35.217,19.717,35.392,32.745,5.974,7.576,6.837
17,1.06,35.352,19.69,35.373,32.744,5.933,7.494,6.958
18,1.066,35.402,19.709,35.373,32.755,5.933,7.656,7.0
19,1.079,34.827,19.701,35.383,32.755,6.055,7.617,7.082
20,1.099,35.003,19.701,35.421,32.758,6.178,7.698,7.164
21,1.106,35.168,19.705,35.431,32.765,6.139,7.699,7.043
22,1.112,35.199,19.717,35.393,32.752,6.016,7.618,7.001
23,1.112,35.141,19.69,35.392,32.751,6.056,7.657,7.041
24,1.109,35.285,19.709,35.383,32.751,6.097,7.698,6.96
25,1.112,35.401,19.729,35.383,32.755,6.056,7.699,7.041
26,1.115,35.537,19.725,35.373,32.758,6.056,7.699,7.042
27,1.125,35.154,19.616,35.411,32.758,6.056,7.78,7.042
28,1.135,35.275,19.72,35.393,32.758,6.015,7.862,7.082
29,1.135,35.391,19.729,35.392,32.755,6.096,7.782,7.002
30,1.151,35.354,19.663,35.383,32.745,5.935,7.659,6.919
31,1.152,35.44,19.666,35.354,32.741,5.892,7.536,6.878
32,1.148,35.556,19.701,35.335,32.741,5.933,7.657,6.959
33,1.145,35.653,19.682,35.373,32.751,5.974,7.78,6.96
34,1.148,35.338,19.685,35.344,32.751,5.893,7.7,6.96
35,1.145,35.459,19.705,35.344,32.751,5.892,7.699,6.878
36,1.165,35.585,19.717,35.363,32.745,5.973,7.699,6.877
37,1.155,35.663,19.631,35.354,32.755,5.893,7.577,6.837
38,1.135,35.616,19.689,35.335,32.748,5.851,7.575,6.877
39,1.129,35.759,19.725,35.353,32.751,5.851,7.616,6.837
40,1.116,35.876,19.717,35.354,32.755,5.973,7.739,6.958
41,1.128,35.982,19.772,35.382,32.769,6.015,7.781,6.96
42,1.135,35.859,19.772,35.383,32.759,6.015,7.7,6.96
43,1.132,35.953,19.729,35.354,32.758,5.893,7.74,6.838
44,1.129,36.098,19.705,35.354,32.748,5.973,7.699,6.877
45,1.142,36.109,19.733,35.363,32.755,5.974,7.658,6.877
46,1.165,36.138,19.729,35.354,32.755,6.015,7.739,6.837
47,1.184,36.263,19.651,35.373,32.758,6.015,7.699,6.796
48,1.201,36.399,19.666,35.373,32.758,6.056,7.699,6.795
49,1.204,36.39,19.674,35.363,32.755,5.975,7.699,6.795
50,1.204,36.294,19.685,35.354,32.755,6.015,7.699,6.714
51,1.194,36.408,19.662,35.315,32.748,5.974,7.577,6.632
52,1.178,36.467,19.736,35.344,32.751,6.015,7.616,6.712
53,1.181,36.487,19.69,35.354,32.745,6.015,7.617,6.713
54,1.197,36.554,19.689,35.354,32.758,6.056,7.576,6.591
55,1.201,36.66,19.74,35.325,32.758,5.975,7.494,6.631
56,1.181,36.757,19.694,35.334,32.752,5.974,7.453,6.631
57,1.168,36.749,19.662,35.325,32.748,6.015,7.452,6.672
58,1.155,36.883,19.681,35.315,32.758,6.015,7.493,6.631
59,1.155,36.999,19.717,35.334,32.755,6.056,7.534,6.712
60,1.155,37.096,19.717,35.353,32.765,6.178,7.657,6.754
61,1.165,36.973,19.698,35.363,32.772,6.261,7.617,6.714
62,1.158,37.086,19.709,35.325,32.759,6.099,7.495,6.591
63,1.145,37.174,19.678,35.325,32.748,6.016,7.534,6.631
64,1.139,37.251,19.701,35.334,32.758,6.137,7.534,6.712
65,1.142,37.367,19.756,35.334,32.755,6.179,7.575,6.591
66,1.135,37.512,19.702,35.315,32.758,6.057,7.575,6.712
67,1.151,37.629,19.729,35.372,32.758,6.137,7.535,6.632
68,1.155,37.668,19.752,35.344,32.758,6.098,7.575,6.672
69,1.165,37.554,19.776,35.334,32.758,6.056,7.575,6.631
70,1.155,37.687,19.764,35.315,32.745,6.056,7.535,6.468
71,1.142,37.784,19.71,35.296,32.744,5.975,7.534,6.548
72,1.129,37.756,19.705,35.296,32.741,6.055,7.657,6.59
73,1.132,37.746,19.67,35.324,32.748,6.015,7.658,6.59
74,1.135,37.871,19.666,35.305,32.751,6.056,7.698,6.549
75,1.135,37.968,19.72,35.286,32.748,6.015,7.658,6.508
76,1.132,38.027,19.635,35.295,32.748,6.056,7.698,6.508
77,1.122,38.085,19.669,35.296,32.748,5.975,7.699,6.508
78,1.109,38.172,19.678,35.286,32.741,6.015,7.821,6.467
79,1.102,38.278,19.744,35.286,32.737,5.974,7.863,6.589
80,1.096,38.183,19.67,35.295,32.758,6.015,7.985,6.631
81,1.086,38.336,19.717,35.334,32.758,6.178,8.149,6.672
82,1.099,38.462,19.772,35.334,32.765,6.179,8.15,6.591
83,1.083,38.53,19.71,35.344,32.759,6.057,8.11,6.549
84,1.089,38.531,19.69,35.315,32.758,6.056,8.109,6.549
85,1.079,38.636,19.732,35.305,32.755,6.015,8.109,6.59
86,1.079,38.752,19.678,35.305,32.758,6.015,8.109,6.509
87,1.06,38.811,19.693,35.315,32.758,6.056,8.109,6.508
88,1.056,38.725,19.732,35.296,32.755,6.015,8.232,6.467
89,1.037,38.84,19.78,35.296,32.758,6.015,8.151,6.467
90,1.033,38.965,19.753,35.315,32.758,5.974,8.232,6.426
91,1.03,38.995,19.729,35.296,32.748,5.933,8.029,6.426
92,1.014,38.948,19.756,35.276,32.738,5.811,8.027,6.222
93,1.004,39.043,19.694,35.267,32.748,5.891,8.109,6.424
94,1.01,39.169,19.709,35.286,32.755,5.973,8.191,6.385
95,1.007,39.189,19.733,35.286,32.758,5.974,8.192,6.466
96,1.007,39.065,19.69,35.276,32.748,5.974,8.151,6.386
97,0.988,39.188,19.678,35.286,32.748,5.893,8.069,6.344
98,0.974,39.276,19.678,35.276,32.744,5.892,8.069,6.343
99,0.958,39.257,19.728,35.267,32.741,5.811,8.069,6.303
100,0.938,39.171,19.674,35.276,32.748,5.81,8.15,6.343
101,0.922,39.323,19.658,35.267,32.748,5.972,8.191,6.425
102,0.931,39.411,19.705,35.295,32.765,6.055,8.314,6.548
103,0.925,39.383,19.701,35.382,32.765,6.015,8.315,6.386
104,0.915,39.508,19.682,35.296,32.755,5.893,8.315,6.425
105,0.905,39.586,19.744,35.276,32.758,5.892,8.274,6.426
106,0.902,39.644,19.69,35.295,32.748,5.933,8.355,6.344
107,0.912,39.367,19.693,35.276,32.758,5.933,8.275,6.343
108,0.915,39.508,19.74,35.286,32.758,5.892,8.274,6.425
109,0.915,39.615,19.748,35.286,32.755,5.892,8.355,6.426
110,0.918,39.673,19.729,35.286,32.755,5.933,8.356,6.304
111,0.915,39.53,19.725,35.276,32.762,6.014,8.356,6.384
112,0.909,39.653,19.756,35.286,32.752,5.852,8.275,6.303
113,0.892,39.75,19.682,35.257,32.745,5.769,8.233,6.221
114,0.892,39.78,19.674,35.228,32.748,5.768,8.192,6.261
115,0.889,39.588,19.732,35.247,32.748,5.85,8.151,6.302
116,0.882,39.759,19.717,35.257,32.751,5.851,8.232,6.302
117,0.856,39.886,19.69,35.257,32.751,5.81,8.233,6.262
118,0.856,39.868,19.717,35.266,32.745,5.85,8.192,6.262
119,0.846,39.599,19.74,35.257,32.748,5.891,8.151,6.18
120,0.817,39.711,19.702,35.247,32.741,5.77,8.11,6.22
121,0.816,39.808,19.666,35.238,32.748,5.85,8.109,6.261
122,0.816,39.896,19.72,35.238,32.751,5.891,8.232,6.343
123,0.829,39.82,19.612,35.266,32.758,5.973,8.314,6.343
124,0.836,39.953,19.657,35.305,32.769,6.055,8.315,6.343
125,0.826,40.05,19.759,35.267,32.759,5.975,8.234,6.343
126,0.82,40.301,19.698,35.257,32.752,5.933,8.192,6.221
127,0.81,40.466,19.693,35.266,32.758,5.974,8.192,6.302
128,0.82,40.564,19.67,35.267,32.755,5.933,8.273,6.262
129,0.82,40.622,19.717,35.247,32.758,5.933,8.233,6.384
130,0.81,39.434,19.737,35.257,32.758,5.892,8.151,6.222
131,0.81,39.547,19.706,35.266,32.755,5.892,8.15,6.302
132,0.826,39.692,19.772,35.257,32.751,5.973,8.191,6.221
133,0.836,39.76,19.753,35.257,32.751,5.893,8.11,6.22
134,0.849,39.847,19.717,35.228,32.748,5.811,7.987,6.139
135,0.823,39.954,19.776,35.209,32.744,5.81,7.986,6.179
136,0.826,40.079,19.647,35.237,32.748,5.891,7.986,6.179
137,0.823,40.157,19.689,35.247,32.748,5.851,8.027,6.179
138,0.804,39.813,19.697,35.238,32.751,5.891,7.987,6.22
139,0.807,39.953,19.709,35.238,32.751,5.811,7.986,6.139
140,0.81,40.07,19.678,35.228,32.751,5.81,7.864,6.179
141,0.8,40.09,19.658,35.209,32.745,5.769,7.822,6.179
142,0.797,39.822,19.724,35.218,32.748,5.768,7.781,6.139
143,0.8,39.924,19.616,35.218,32.758,5.85,7.944,6.301
144,0.803,40.06,19.689,35.276,32.762,5.973,7.945,6.343
145,0.803,40.263,19.767,35.257,32.762,6.015,7.945,6.343
146,0.807,39.871,19.718,35.238,32.765,5.812,7.783,6.343
147,0.79,39.973,19.69,35.295,32.755,5.769,7.781,6.262
148,0.784,40.051,19.689,35.238,32.758,5.768,7.7,6.221
149,0.787,39.821,19.713,35.247,32.758,5.891,7.699,6.261
150,0.78,39.896,19.69,35.238,32.752,5.811,7.658,6.262
151,0.787,40.002,19.693,35.238,32.758,5.81,7.698,6.343
152,0.79,40.099,19.748,35.228,32.762,5.891,7.618,6.262
153,0.803,39.707,19.698,35.247,32.758,5.811,7.617,6.221
154,0.794,39.827,19.709,35.199,32.752,5.728,7.535,6.139
155,0.784,39.925,19.756,35.18,32.741,5.646,7.494,6.179
156,0.777,39.974,19.694,35.199,32.748,5.686,7.575,6.179
157,0.79,39.686,19.717,35.237,32.758,5.768,7.575,6.179
158,0.79,39.798,19.721,35.238,32.745,5.728,7.616,6.179
159,0.793,39.915,19.78,35.209,32.744,5.727,7.576,6.179
160,0.787,39.983,19.749,35.218,32.748,5.687,7.454,6.179
161,0.777,39.706,19.713,35.199,32.744,5.727,7.493,6.098
162,0.761,39.837,19.744,35.189,32.744,5.687,7.453,6.178
163,0.767,39.953,19.647,35.208,32.755,5.687,7.534,6.22
164,0.764,39.974,19.654,35.237,32.762,5.89,7.657,6.302
165,0.777,39.821,19.728,35.257,32.762,5.973,7.536,6.302
166,0.8,39.944,19.69,35.228,32.755,5.771,7.453,6.221
167,0.8,40.002,19.639,35.257,32.751,5.809,7.493,6.18
168,0.81,40.348,19.669,35.209,32.751,5.769,7.371,6.179
169,0.816,39.671,19.72,35.218,32.748,5.768,7.411,6.179
170,0.81,39.789,19.729,35.228,32.751,5.809,7.371,6.261
171,0.807,39.876,19.744,35.228,32.755,5.769,7.33,6.18
172,0.807,39.705,19.772,35.218,32.755,5.85,7.329,6.301
173,0.816,39.789,19.714,35.237,32.758,5.81,7.37,6.221
174,0.82,39.905,19.74,35.218,32.752,5.647,7.167,6.098
175,0.803,39.945,19.721,35.18,32.741,5.727,7.246,6.056
176,0.803,39.561,19.682,35.247,32.744,5.727,7.288,6.219
177,0.787,39.711,19.697,35.209,32.744,5.809,7.288,6.18
178,0.78,39.828,19.732,35.189,32.755,5.81,7.329,6.179
179,0.774,39.877,19.748,35.199,32.751,5.769,7.289,6.179
180,0.774,39.561,19.741,35.199,32.751,5.728,7.369,6.139
181,0.761,39.673,19.756,35.199,32.745,5.768,7.289,6.098
182,0.761,39.789,19.756,35.17,32.751,5.728,7.329,6.097
183,0.757,39.847,19.694,35.189,32.745,5.768,7.329,6.178
184,0.754,39.484,19.701,35.199,32.744,5.768,7.492,6.22
185,0.764,39.643,19.709,35.218,32.765,5.85,7.534,6.302
186,0.774,39.779,19.686,35.228,32.762,5.932,7.534,6.221
187,0.777,39.819,19.674,35.228,32.758,5.852,7.453,6.22
188,0.78,39.541,19.685,35.209,32.752,5.851,7.412,6.18
189,0.793,39.644,19.748,35.189,32.751,5.81,7.493,6.179
190,0.813,39.75,19.663,35.208,32.748,5.81,7.371,6.179
191,0.816,39.761,19.693,35.18,32.758,5.81,7.492,6.179
192,0.816,39.55,19.732,35.199,32.755,5.81,7.453,6.179
193,0.8,39.682,19.682,35.18,32.762,5.81,7.412,6.22
194,0.81,39.779,19.701,35.179,32.755,5.81,7.411,6.18
195,0.813,39.521,19.674,35.16,32.748,5.81,7.289,6.017
196,0.81,39.519,19.681,35.189,32.744,5.728,7.207,6.015
197,0.781,39.615,19.709,35.151,32.748,5.768,7.328,6.096
198,0.78,39.721,19.744,35.179,32.758,5.809,7.329,6.138
199,0.8,39.406,19.776,35.179,32.758,5.85,7.289,6.138
200,0.8,39.518,19.725,35.17,32.745,5.769,7.247,6.016
201,0.794,39.643,19.737,35.16,32.744,5.768,7.247,6.015
202,0.797,39.712,19.737,35.16,32.751,5.809,7.166,5.974
203,0.784,39.3,19.702,35.15,32.748,5.728,7.165,5.974
204,0.777,39.44,19.705,35.16,32.748,5.809,7.165,6.096
205,0.777,39.547,19.701,35.17,32.751,5.85,7.328,6.138
206,0.797,39.634,19.654,35.199,32.762,5.973,7.37,6.179
207,0.803,39.376,19.705,35.189,32.758,5.893,7.289,6.139
208,0.8,39.479,19.736,35.16,32.745,5.811,7.207,6.057
209,0.81,39.585,19.768,35.15,32.748,5.85,7.287,6.056
210,0.803,39.615,19.718,35.15,32.755,5.81,7.247,6.137
211,0.81,39.366,19.686,35.17,32.751,5.85,7.206,6.138
212,0.8,39.498,19.728,35.16,32.758,5.891,7.287,6.219
213,0.816,39.605,19.705,35.17,32.758,5.892,7.247,6.18
214,0.813,39.616,19.678,35.16,32.755,5.892,7.125,6.139
215,0.816,39.328,19.748,35.141,32.748,5.77,6.961,6.057
216,0.807,39.43,19.639,35.131,32.751,5.768,7.041,6.015
217,0.794,39.537,19.673,35.112,32.741,5.809,7.123,6.137
218,0.797,39.308,19.709,35.14,32.755,5.81,7.124,6.138
219,0.79,39.286,19.744,35.15,32.745,5.81,7.165,6.098
220,0.806,39.411,19.69,35.141,32.744,5.81,7.043,6.097
221,0.816,39.47,19.686,35.131,32.755,5.85,7.082,6.097
222,0.807,39.221,19.756,35.121,32.751,5.81,7.083,6.138
223,0.8,39.343,19.717,35.112,32.748,5.85,7.042,6.098
224,0.787,39.459,19.674,35.131,32.751,5.851,7.123,6.219
225,0.793,39.528,19.787,35.141,32.751,5.973,7.205,6.302
226,0.806,39.116,19.687,35.16,32.762,6.015,7.287,6.302
227,0.816,39.256,19.728,35.17,32.762,6.015,7.207,6.221
228,0.813,39.353,19.756,35.122,32.748,5.974,7.165,6.261
229,0.816,39.402,19.78,35.131,32.751,5.933,7.124,6.221
230,0.826,39.038,19.694,35.141,32.755,5.933,7.165,6.22
231,0.817,39.159,19.686,35.141,32.755,5.933,7.084,6.342
232,0.836,39.266,19.717,35.15,32.755,5.974,7.164,6.425
233,0.817,39.324,19.666,35.141,32.758,5.974,7.165,6.426
234,0.82,39.469,19.685,35.122,32.758,5.974,7.206,6.385
235,0.82,39.595,19.717,35.131,32.758,5.933,7.125,6.344
236,0.817,39.692,19.678,35.141,32.748,5.852,7.043,6.343
237,0.803,39.693,19.701,35.093,32.744,5.769,7.042,6.303
238,0.8,38.696,19.713,35.092,32.744,5.85,7.123,6.465
239,0.8,38.83,19.744,35.121,32.748,5.851,7.205,6.467
240,0.803,38.917,19.717,35.121,32.755,5.891,7.287,6.507
241,0.79,38.976,19.713,35.112,32.748,5.811,7.288,6.467
242,0.803,39.005,19.74,35.093,32.748,5.85,7.288,6.386
243,0.813,39.082,19.702,35.092,32.751,5.851,7.288,6.466
244,0.8,39.198,19.713,35.102,32.748,5.769,7.288,6.507
245,0.794,38.748,19.74,35.112,32.744,5.891,7.41,6.589
246,0.8,38.859,19.67,35.131,32.758,6.014,7.452,6.712
247,0.81,39.014,19.713,35.141,32.758,5.974,7.656,6.632
248,0.842,39.082,19.764,35.122,32.752,5.893,7.576,6.509
249,0.839,38.709,19.78,35.112,32.751,5.892,7.616,6.63
250,0.833,38.849,19.741,35.121,32.751,5.851,7.657,6.55
251,0.833,38.965,19.706,35.112,32.751,5.973,7.739,6.508
252,0.82,39.043,19.725,35.102,32.755,5.893,7.781,6.63
253,0.82,38.632,19.721,35.121,32.751,5.892,7.781,6.59
254,0.82,38.752,19.748,35.112,32.755,5.973,7.781,6.549
255,0.82,38.83,19.713,35.112,32.748,5.893,7.781,6.468
256,0.813,38.908,19.655,35.083,32.748,5.77,7.74,6.386
257,0.816,38.669,19.662,35.054,32.738,5.768,7.781,6.547
258,0.823,38.81,19.685,35.092,32.758,5.85,7.944,6.468
259,0.81,38.927,19.736,35.102,32.748,5.81,7.905,6.426
260,0.803,38.947,19.659,35.092,32.741,5.85,7.904,6.466
261,0.794,38.602,19.677,35.073,32.748,5.932,7.945,6.507
262,0.8,38.723,19.728,35.092,32.755,5.811,7.905,6.427
263,0.787,38.84,19.702,35.064,32.748,5.769,7.863,6.385
264,0.787,38.726,19.744,35.073,32.751,5.85,7.985,6.588
265,0.787,38.533,19.737,35.102,32.762,5.891,8.068,6.631
266,0.8,38.675,19.713,35.14,32.765,6.014,8.191,6.672
267,0.807,38.772,19.725,35.141,32.759,5.852,8.151,6.509
268,0.82,38.418,19.725,35.074,32.755,5.851,8.11,6.467
269,0.807,38.491,19.764,35.092,32.751,5.891,8.109,6.507
270,0.8,38.626,19.729,35.083,32.748,5.892,8.069,6.508
271,0.803,38.724,19.76,35.092,32.751,5.892,8.109,6.508
272,0.826,38.398,19.71,35.083,32.755,5.933,8.191,6.427
273,0.817,38.539,19.694,35.083,32.751,5.892,8.192,6.507
274,0.82,38.656,19.752,35.083,32.758,5.933,8.192,6.467
275,0.81,38.724,19.702,35.083,32.758,5.974,8.273,6.467
276,0.816,38.274,19.69,35.063,32.752,5.893,8.274,6.304
277,0.813,38.413,19.654,35.063,32.745,5.851,8.193,6.262
278,0.8,38.51,19.689,35.063,32.741,5.851,8.273,6.384
279,0.807,38.55,19.701,35.063,32.755,5.891,8.314,6.466
280,0.807,38.339,19.647,35.082,32.748,5.851,8.356,6.386
281,0.787,38.452,19.716,35.063,32.751,5.932,8.397,6.344
282,0.797,38.549,19.709,35.063,32.745,5.892,8.356,6.384
283,0.784,38.569,19.69,35.054,32.748,5.811,8.437,6.385
284,0.79,38.176,19.693,35.063,32.748,5.891,8.438,6.385
285,0.787,38.287,19.709,35.054,32.744,5.811,8.519,6.385
286,0.787,38.413,19.674,35.082,32.758,5.972,8.642,6.507
287,0.793,38.568,19.658,35.092,32.758,6.055,8.847,6.508
288,0.806,38.397,19.759,35.092,32.758,5.975,8.808,6.467
289,0.797,38.529,19.753,35.083,32.752,5.974,8.686,6.386
290,0.79,38.579,19.721,35.073,32.755,5.893,8.684,6.466
291,0.79,38.157,19.705,35.063,32.758,5.892,8.684,6.386
292,0.787,38.239,19.725,35.054,32.752,5.892,8.725,6.425
293,0.787,38.346,19.756,35.063,32.755,5.933,8.726,6.426
294,0.797,38.452,19.756,35.063,32.758,5.852,8.685,6.385
295,0.794,38.204,19.702,35.044,32.755,5.891,8.684,6.385
296,0.793,38.345,19.662,35.054,32.758,5.973,8.725,6.385
297,0.8,38.471,19.693,35.054,32.748,5.852,8.603,6.222
298,0.797,38.501,19.74,35.044,32.744,5.851,8.48,6.22
299,0.781,38.118,19.706,35.025,32.751,5.81,8.52,6.261
300,0.78,38.277,19.666,35.044,32.751,5.85,8.479,6.343
301,0.784,38.394,19.666,35.044,32.751,5.851,8.479,6.221
302,0.774,38.462,19.681,35.044,32.748,5.891,8.438,6.302
303,0.771,38.185,19.674,35.025,32.748,5.811,8.438,6.221
304,0.777,38.307,19.689,35.025,32.738,5.85,8.397,6.22
305,0.774,38.404,19.686,35.034,32.744,5.851,8.356,6.22
306,0.767,38.434,19.658,35.025,32.748,5.851,8.315,6.261
307,0.767,38.194,19.685,35.044,32.762,5.891,8.396,6.384
308,0.79,38.345,19.732,35.073,32.762,6.014,8.397,6.466
309,0.8,38.433,19.741,35.083,32.758,5.893,8.275,6.304
310,0.79,38.741,19.698,35.044,32.752,5.851,8.233,6.302
311,0.787,38.197,19.693,35.054,32.751,5.851,8.233,6.343
312,0.79,38.326,19.748,35.044,32.755,5.891,8.151,6.303
313,0.793,38.433,19.702,35.034,32.751,5.892,8.191,6.384
314,0.8,38.098,19.74,35.034,32.751,5.851,8.151,6.344
315,0.794,38.143,19.725,35.034,32.758,5.891,8.15,6.384
316,0.793,38.278,19.698,35.025,32.755,5.851,8.15,6.425
317,0.784,38.365,19.717,35.025,32.755,5.851,8.069,6.426
318,0.784,38.126,19.764,35.005,32.748,5.769,7.946,6.222
319,0.761,38.22,19.76,34.996,32.738,5.728,7.986,6.302
320,0.764,38.345,19.694,35.015,32.751,5.85,8.027,6.343
321,0.754,38.443,19.701,35.015,32.751,5.891,7.946,6.425
322,0.77,38.089,19.678,35.005,32.745,5.811,7.905,6.385
323,0.774,38.239,19.65,35.015,32.748,5.85,7.863,6.385
324,0.771,38.365,19.677,35.015,32.748,5.81,7.944,6.425
325,0.783,38.405,19.681,35.015,32.748,5.85,7.864,6.344
326,0.784,38.05,19.662,35.024,32.744,5.729,7.822,6.343
327,0.793,38.2,19.677,35.015,32.744,5.89,7.781,6.384
328,0.793,38.307,19.728,35.015,32.751,5.933,7.944,6.588
329,0.797,38.366,19.78,35.044,32.762,6.014,8.026,6.631
330,0.803,38.107,19.718,35.063,32.758,5.893,7.824,6.468
331,0.803,38.201,19.705,35.006,32.758,5.933,7.822,6.507
332,0.797,38.278,19.717,35.015,32.752,5.852,7.741,6.508
333,0.794,38.327,19.701,35.015,32.751,5.891,7.821,6.589
334,0.8,38.27,19.756,35.005,32.748,5.892,7.863,6.549
335,0.797,38.384,19.686,35.015,32.748,5.892,7.782,6.549
336,0.787,38.501,19.693,35.024,32.762,5.973,7.822,6.549
337,0.777,38.118,19.729,35.015,32.758,5.974,7.944,6.549
338,0.754,38.133,19.776,35.005,32.752,5.811,7.864,6.468
339,0.754,38.239,19.749,35.005,32.741,5.85,7.782,6.426
340,0.754,38.317,19.659,34.986,32.741,5.81,7.781,6.507
341,0.744,38.097,19.677,34.995,32.748,5.891,7.903,6.508
342,0.764,38.248,19.724,34.986,32.744,5.973,8.026,6.467
343,0.757,38.384,19.682,35.005,32.751,5.893,8.027,6.507
344,0.761,38.424,19.705,34.996,32.748,6.014,8.027,6.508
345,0.767,38.108,19.682,34.986,32.748,5.893,8.109,6.508
346,0.764,38.258,19.693,34.986,32.744,5.973,8.028,6.467
347,0.767,38.365,19.689,34.967,32.744,5.893,8.027,6.507
348,0.777,38.405,19.678,34.976,32.748,5.892,8.109,6.508
349,0.777,38.184,19.732,34.986,32.748,6.054,8.232,6.63
350,0.784,38.355,19.655,35.034,32.762,6.137,8.314,6.672
351,0.8,38.481,19.697,35.025,32.758,6.057,8.234,6.55
352,0.803,38.473,19.697,35.005,32.752,5.975,8.192,6.549
353,0.794,38.156,19.67,35.005,32.755,5.974,8.151,6.508
354,0.793,38.287,19.717,34.986,32.758,5.974,8.191,6.467
355,0.806,38.385,19.725,34.995,32.762,6.015,8.192,6.467
356,0.8,38.414,19.737,34.996,32.755,5.974,8.151,6.507
357,0.787,38.213,19.721,34.996,32.755,6.096,8.15,6.589
358,0.764,38.336,19.756,34.996,32.755,6.016,8.191,6.468
359,0.77,38.414,19.749,34.986,32.748,5.893,8.11,6.345
360,0.751,38.175,19.682,34.967,32.738,5.811,8.028,6.303
361,0.741,38.144,19.748,34.957,32.751,6.054,8.109,6.425
362,0.751,38.287,19.76,34.976,32.751,5.893,8.028,6.426
363,0.748,38.404,19.675,34.986,32.748,5.973,8.068,6.385
364,0.744,38.069,19.689,34.967,32.744,5.974,8.028,6.385
365,0.747,38.21,19.705,34.966,32.744,5.933,7.987,6.344
366,0.77,38.336,19.615,34.995,32.744,5.892,7.986,6.343
367,0.767,38.395,19.642,34.967,32.744,5.933,7.946,6.425
368,0.767,38.012,19.685,34.957,32.748,5.974,7.945,6.385
369,0.761,38.18,19.689,34.986,32.758,6.015,8.067,6.507
370,0.77,38.316,19.67,35.015,32.765,6.096,8.028,6.508
371,0.793,38.375,19.728,34.996,32.765,6.097,7.987,6.427
372,0.793,38.098,19.686,34.986,32.752,5.975,7.946,6.426
373,0.79,38.22,19.693,34.976,32.751,5.974,7.945,6.385
374,0.793,38.317,19.752,34.967,32.758,6.015,8.026,6.385
375,0.784,38.356,19.698,34.986,32.755,5.974,7.987,6.344
376,0.784,38.107,19.69,34.967,32.751,6.015,7.946,6.384
377,0.774,38.229,19.689,34.976,32.751,6.056,8.026,6.385
378,0.767,38.336,19.736,34.986,32.755,6.015,8.027,6.344
379,0.787,38.375,19.702,34.986,32.758,5.974,8.109,6.384
380,0.777,38.184,19.674,34.967,32.752,5.893,8.028,6.181
381,0.764,38.307,19.701,34.938,32.745,5.851,7.946,6.22
382,0.764,38.366,19.67,34.947,32.741,5.973,8.067,6.261
383,0.764,38.203,19.713,34.966,32.751,6.015,8.191,6.302
384,0.764,38.115,19.756,34.976,32.751,5.974,8.192,6.302
385,0.757,38.229,19.729,34.947,32.755,5.933,8.029,6.302
386,0.764,38.317,19.729,34.957,32.758,5.933,8.149,6.221
387,0.761,38.011,19.717,34.957,32.752,5.974,8.11,6.18
388,0.761,38.104,19.705,34.938,32.751,5.893,8.109,6.22
389,0.764,38.229,19.678,34.947,32.748,5.933,8.15,6.22
390,0.764,38.317,19.674,34.966,32.751,6.014,8.15,6.342
391,0.777,38.03,19.662,34.986,32.762,6.096,8.313,6.425
392,0.774,38.181,19.65,34.995,32.762,6.138,8.274,6.385
393,0.79,38.297,19.677,34.976,32.758,6.016,8.152,6.263
394,0.777,38.337,19.732,34.957,32.748,6.015,8.069,6.221
395,0.78,37.915,19.639,34.957,32.755,6.015,8.15,6.18
396,0.78,38.074,19.677,34.966,32.751,6.056,8.11,6.22
397,0.777,38.181,19.717,34.966,32.755,5.975,8.109,6.18
398,0.758,38.23,19.76,34.957,32.751,6.055,8.069,6.261
399,0.751,37.962,19.702,34.957,32.751,6.056,8.109,6.302
400,0.767,38.103,19.693,34.966,32.758,6.056,8.028,6.221
401,0.761,38.22,19.74,34.966,32.755,6.056,7.987,6.18
402,0.754,38.211,19.67,34.938,32.741,6.015,7.946,6.017
403,0.754,37.943,19.689,34.928,32.741,5.893,7.945,6.096
404,0.748,38.045,19.713,34.928,32.744,5.973,8.067,6.26
405,0.747,38.181,19.678,34.947,32.748,6.015,8.069,6.262
406,0.757,38.105,19.705,34.966,32.751,6.015,8.15,6.18
407,0.757,37.99,19.725,34.938,32.748,6.015,8.15,6.139
408,0.77,38.113,19.744,34.928,32.744,5.934,8.232,6.057
409,0.77,38.181,19.721,34.928,32.744,5.892,8.314,6.137
410,0.774,37.779,19.748,34.918,32.737,5.933,8.315,6.138
411,0.767,37.89,19.756,34.928,32.748,5.933,8.356,6.057
412,0.761,38.016,19.659,34.947,32.755,5.974,8.559,6.178
413,0.777,38.104,19.67,34.966,32.765,6.055,8.602,6.301
414,0.784,37.788,19.724,34.966,32.769,6.056,8.602,6.18
415,0.793,37.91,19.67,34.957,32.755,5.893,8.521,6.139
416,0.79,38.016,19.65,34.938,32.751,5.973,8.601,6.098
417,0.787,38.075,19.689,34.928,32.748,5.974,8.521,6.138
418,0.767,37.682,19.725,34.928,32.751,5.974,8.479,6.179
419,0.774,37.813,19.67,34.928,32.758,5.933,8.56,6.098
420,0.771,37.939,19.689,34.947,32.758,5.892,8.521,6.219
421,0.767,37.997,19.732,34.947,32.762,5.973,8.52,6.18
422,0.754,37.739,19.713,34.947,32.752,6.015,8.561,6.098
423,0.761,37.861,19.701,34.947,32.755,5.852,8.48,5.975
424,0.757,37.958,19.752,34.918,32.745,5.81,8.438,5.974
425,0.751,37.959,19.667,34.918,32.734,5.81,8.519,6.015
426,0.754,37.652,19.666,34.937,32.751,5.972,8.52,6.096
427,0.777,37.784,19.756,34.947,32.748,5.893,8.52,6.016
428,0.777,37.89,19.745,34.918,32.748,5.851,8.479,6.015
429,0.774,37.93,19.674,34.928,32.751,5.932,8.479,6.015
430,0.767,37.738,19.685,34.918,32.745,5.852,8.398,6.015
431,0.77,37.852,19.685,34.918,32.744,5.932,8.438,5.934
432,0.767,37.929,19.564,34.918,32.744,5.892,8.438,5.974
433,0.767,37.46,19.641,34.909,32.744,5.851,8.519,6.055
434,0.77,37.542,19.712,34.918,32.755,5.973,8.642,6.097
435,0.783,37.687,19.682,34.976,32.762,6.055,8.684,6.178
436,0.79,37.794,19.693,34.947,32.762,6.056,8.603,6.098
437,0.784,37.536,19.744,34.918,32.758,5.975,8.521,6.056
438,0.771,37.658,19.717,34.918,32.752,5.974,8.683,5.975
439,0.767,37.784,19.655,34.928,32.751,6.015,8.603,5.974
440,0.774,37.852,19.67,34.909,32.751,5.974,8.643,6.015
441,0.754,37.527,19.67,34.918,32.755,6.055,8.725,6.015
442,0.764,37.658,19.631,34.918,32.758,5.975,8.766,5.974
443,0.777,37.793,19.65,34.937,32.752,6.015,8.767,6.015
444,0.764,37.843,19.732,34.909,32.755,6.015,8.807,6.056
445,0.748,37.402,19.67,34.928,32.758,5.934,8.767,5.853
446,0.76,37.522,19.65,34.889,32.738,5.811,8.767,5.851
447,0.761,37.6,19.736,34.889,32.744,5.81,8.889,5.932
448,0.761,37.658,19.764,34.908,32.751,5.891,8.971,5.892
449,0.777,37.496,19.71,34.908,32.751,5.973,8.891,5.933
450,0.767,37.638,19.686,34.918,32.748,5.974,8.971,5.892
451,0.774,37.726,19.728,34.909,32.744,5.974,9.013,5.892
452,0.784,37.919,19.733,34.908,32.748,5.974,8.972,5.933
453,0.771,37.374,19.674,34.908,32.738,5.811,9.013,5.892
454,0.764,37.493,19.728,34.88,32.751,5.972,9.054,5.892
455,0.783,37.59,19.584,34.908,32.751,6.055,9.176,6.014
456,0.777,37.342,19.681,34.918,32.758,6.056,9.218,6.056
457,0.79,37.416,19.744,34.937,32.758,6.015,9.096,5.975
458,0.787,37.484,19.709,34.899,32.752,5.974,9.054,5.974
459,0.774,37.6,19.631,34.927,32.758,6.015,9.054,6.015
460,0.774,37.304,19.65,34.909,32.752,5.974,9.054,5.974
461,0.764,37.425,19.673,34.899,32.751,5.974,9.054,6.055
462,0.754,37.551,19.654,34.899,32.758,6.055,9.054,6.015
463,0.761,37.639,19.681,34.918,32.755,6.056,9.013,6.056
464,0.761,37.448,19.767,34.909,32.751,5.975,8.972,5.975
465,0.754,37.58,19.655,34.908,32.745,5.933,8.769,5.852
466,0.757,37.677,19.685,34.88,32.744,5.933,8.807,5.932
467,0.748,37.736,19.728,34.908,32.744,6.014,8.848,5.974
468,0.773,37.056,19.729,34.908,32.751,6.056,8.808,5.974
469,0.764,37.174,19.67,34.88,32.745,6.015,8.767,5.974
470,0.78,37.319,19.65,34.889,32.744,6.056,8.767,5.933
471,0.777,37.339,19.705,34.889,32.751,5.975,8.767,5.892
472,0.777,37.167,19.639,34.879,32.745,6.015,8.685,5.892
473,0.774,37.318,19.697,34.87,32.748,5.974,8.684,5.933
474,0.771,37.397,19.76,34.87,32.748,6.055,8.766,6.055
475,0.79,37.714,19.635,34.908,32.758,6.178,8.929,6.056
476,0.793,37.353,19.732,34.928,32.755,6.22,8.809,5.975
477,0.79,37.474,19.78,34.909,32.751,6.098,8.686,5.974
478,0.767,37.542,19.776,34.889,32.748,6.097,8.725,5.974
479,0.764,37.447,19.69,34.899,32.755,6.056,8.726,6.015
480,0.751,37.503,19.635,34.88,32.748,6.056,8.685,5.974
481,0.748,37.638,19.693,34.889,32.748,6.097,8.684,6.015
482,0.741,37.736,19.65,34.899,32.751,6.138,8.644,6.015
483,0.747,36.749,19.658,34.88,32.758,6.138,8.644,6.056
484,0.747,36.844,19.716,34.918,32.755,6.057,8.603,5.975
485,0.734,36.97,19.631,34.899,32.745,6.056,8.48,6.015
486,0.757,37.058,19.685,34.87,32.734,5.934,8.479,5.852
487,0.751,37.001,19.721,34.86,32.741,6.014,8.52,5.973
488,0.77,37.154,19.764,34.889,32.744,6.096,8.601,5.974
489,0.787,37.29,19.671,34.87,32.744,6.056,8.602,5.974
490,0.78,37.349,19.709,34.889,32.744,6.015,8.602,5.974
491,0.787,36.812,19.748,34.87,32.748,6.015,8.602,6.015
492,0.787,36.922,19.721,34.87,32.744,6.056,8.602,5.974
493,0.793,37.048,19.713,34.87,32.748,6.015,8.602,5.974
494,0.8,37.097,19.733,34.86,32.738,6.015,8.602,5.974
495,0.813,36.886,19.694,34.879,32.744,6.015,8.684,6.055
496,0.829,37.047,19.709,34.908,32.758,6.137,8.847,6.178
497,0.836,37.174,19.74,34.908,32.769,6.179,8.808,6.139
498,0.83,37.184,19.694,34.889,32.748,6.098,8.726,6.057
499,0.82,36.878,19.686,34.87,32.744,6.097,8.726,6.015
500,0.83,37.018,19.701,34.879,32.748,5.975,8.603,6.056
501,0.83,37.116,19.736,34.87,32.748,6.096,8.765,6.137
502,0.839,36.896,19.737,34.946,32.751,6.097,8.726,6.057
503,0.843,36.903,19.686,34.899,32.755,6.056,8.726,6.137
504,0.849,36.999,19.705,34.88,32.748,6.097,8.726,6.138
505,0.866,37.106,19.674,34.956,32.755,6.056,8.644,6.098
506,0.872,36.733,19.658,34.88,32.748,6.056,8.562,6.138
507,0.85,36.825,19.685,34.841,32.738,5.934,8.439,5.976
508,0.859,36.941,19.689,34.841,32.744,5.974,8.519,6.055
509,0.869,37.019,19.635,34.86,32.744,6.055,8.479,6.056
510,0.866,36.617,19.677,34.86,32.748,6.015,8.52,6.056
511,0.862,36.757,19.693,34.85,32.744,5.974,8.358,6.097
512,0.879,36.883,19.643,34.869,32.744,5.852,8.478,6.056
513,0.885,36.961,19.708,34.851,32.748,5.932,8.357,6.056
514,0.882,36.674,19.748,34.86,32.744,5.933,8.315,6.015
515,0.898,36.834,19.659,34.841,32.744,5.892,8.356,6.056
516,0.889,36.941,19.701,34.869,32.755,5.973,8.478,6.178
517,0.895,37.019,19.744,34.889,32.758,6.137,8.56,6.179
518,0.905,36.675,19.756,34.879,32.755,6.016,8.399,6.098
519,0.905,36.786,19.667,34.86,32.745,5.852,8.397,6.097
520,0.889,36.883,19.713,34.86,32.751,5.932,8.356,6.016
521,0.869,36.903,19.67,34.85,32.745,5.974,8.356,6.056
522,0.859,36.693,19.623,34.869,32.751,5.974,8.397,6.097
523,0.843,36.834,19.665,34.86,32.758,6.015,8.397,6.097
524,0.866,36.941,19.701,34.86,32.752,5.974,8.316,6.056
525,0.853,36.722,19.654,34.898,32.755,5.933,8.356,6.097
526,0.853,36.633,19.67,34.87,32.751,5.933,8.275,6.056
527,0.859,36.747,19.705,34.86,32.748,5.811,8.193,5.934
528,0.866,36.806,19.717,34.831,32.738,5.81,8.07,5.892
529,0.859,36.471,19.647,34.831,32.744,5.891,8.231,5.973
530,0.869,36.631,19.685,34.86,32.751,5.811,8.111,6.015
531,0.889,36.747,19.713,34.85,32.741,5.85,8.109,5.974
532,0.892,36.806,19.701,34.85,32.748,5.769,8.191,5.974
533,0.905,36.509,19.693,34.85,32.744,5.809,8.151,5.893
534,0.921,36.631,19.682,34.841,32.744,5.81,8.191,5.933
535,0.925,36.757,19.685,34.812,32.741,5.688,8.151,5.974
536,0.931,36.835,19.67,34.812,32.748,5.809,8.313,6.055
537,0.918,36.539,19.732,34.831,32.758,5.932,8.518,6.137
538,0.912,36.689,19.748,34.86,32.769,5.974,8.52,6.057
539,0.918,36.834,19.721,34.898,32.759,5.811,8.439,5.975
540,0.902,36.855,19.717,34.851,32.752,5.81,8.479,6.015
541,0.892,36.452,19.717,34.822,32.758,5.85,8.52,6.056
542,0.876,36.602,19.698,34.86,32.752,5.81,8.52,6.015
543,0.866,36.718,19.697,34.841,32.751,5.81,8.561,6.056
544,0.862,36.729,19.729,34.841,32.758,5.85,8.643,6.097
545,0.872,36.537,19.725,34.879,32.755,5.81,8.684,6.056
546,0.885,36.67,19.69,34.87,32.755,5.85,8.603,6.137
547,0.882,36.767,19.709,34.851,32.751,5.769,8.521,6.016
548,0.876,36.605,19.717,34.812,32.741,5.687,8.479,5.893
549,0.869,36.44,19.631,34.821,32.734,5.768,8.601,6.054
550,0.872,36.592,19.677,34.85,32.748,5.891,8.602,6.056
551,0.859,36.709,19.627,34.841,32.748,5.892,8.48,6.097
552,0.846,36.374,19.661,34.841,32.755,5.851,8.56,6.056
553,0.859,36.476,19.662,34.821,32.748,5.851,8.48,6.137
554,0.859,36.554,19.658,34.821,32.748,5.81,8.438,6.057
555,0.866,36.68,19.709,34.831,32.748,5.81,8.397,6.097
556,0.853,36.259,19.705,34.821,32.755,5.972,8.438,6.097
557,0.853,36.418,19.764,34.84,32.758,6.015,8.438,6.26
558,0.856,36.563,19.733,34.85,32.769,6.056,8.438,6.221
559,0.846,36.622,19.651,34.841,32.748,6.015,8.316,6.22
560,0.827,36.364,19.709,34.841,32.748,5.974,8.274,6.098
561,0.807,36.505,19.717,34.831,32.748,5.974,8.233,6.178
562,0.803,36.641,19.717,34.841,32.758,5.893,8.233,6.098
563,0.797,36.69,19.701,34.85,32.758,5.933,8.192,6.178
564,0.8,36.422,19.729,34.831,32.758,6.014,8.192,6.22
565,0.794,36.601,19.717,34.869,32.758,6.015,8.192,6.261
566,0.8,36.69,19.694,34.841,32.752,5.934,8.07,6.18
567,0.79,36.729,19.752,34.821,32.745,5.892,7.987,6.098
568,0.784,36.24,19.741,34.812,32.737,5.811,7.824,6.056
569,0.793,36.36,19.663,34.812,32.744,5.891,8.025,6.219
570,0.787,36.486,19.689,34.831,32.748,5.933,8.027,6.22
571,0.793,36.535,19.67,34.821,32.748,5.974,7.946,6.18
572,0.777,36.382,19.67,34.831,32.748,5.893,7.945,6.179
573,0.767,36.505,19.666,34.821,32.744,5.892,7.905,6.179
574,0.754,36.574,19.666,34.821,32.748,5.811,7.823,6.098
575,0.754,36.239,19.677,34.793,32.741,5.81,7.863,6.056
576,0.748,36.322,19.685,34.802,32.748,5.81,7.863,6.137
577,0.751,36.457,19.74,34.812,32.755,5.932,7.904,6.26
578,0.751,36.573,19.674,34.84,32.762,6.055,8.026,6.384
579,0.751,36.287,19.685,34.841,32.758,5.975,7.905,6.181
580,0.754,36.399,19.744,34.831,32.748,5.852,7.782,6.22
581,0.735,36.525,19.713,34.831,32.744,5.851,7.781,6.22
582,0.731,36.612,19.721,34.821,32.758,5.851,7.781,6.261
583,0.734,36.229,19.709,34.812,32.752,5.851,7.74,6.302
584,0.731,36.398,19.721,34.812,32.755,5.81,7.821,6.18
585,0.728,36.525,19.701,34.831,32.748,5.891,7.741,6.261
586,0.731,36.583,19.705,34.841,32.758,5.892,7.781,6.221
587,0.721,36.181,19.76,34.821,32.755,5.892,7.7,6.22
588,0.724,36.311,19.659,34.812,32.748,5.811,7.618,6.058
589,0.721,36.437,19.603,34.821,32.738,5.728,7.617,6.097
590,0.728,36.448,19.7,34.793,32.741,5.768,7.698,6.138
591,0.715,36.189,19.709,34.821,32.748,5.768,7.658,6.138
592,0.721,36.34,19.701,34.812,32.744,5.728,7.617,6.179
593,0.708,36.457,19.701,34.812,32.748,5.768,7.576,6.179
594,0.702,36.679,19.701,34.812,32.741,5.768,7.616,6.098
595,0.721,36.259,19.693,34.792,32.737,5.687,7.617,6.056
596,0.695,36.37,19.674,34.802,32.748,5.687,7.576,6.015
597,0.698,36.467,19.72,34.792,32.748,5.727,7.616,6.178
598,0.688,36.055,19.612,34.792,32.751,5.768,7.657,6.301
599,0.698,36.166,19.665,34.898,32.758,5.891,7.739,6.343
600,0.718,36.302,19.697,34.86,32.765,5.892,7.618,6.303
601,0.705,36.38,19.709,34.812,32.752,5.851,7.495,6.221
602,0.695,36.112,19.709,34.812,32.751,5.729,7.575,6.261
603,0.692,36.263,19.694,34.812,32.748,5.768,7.616,6.302
604,0.695,36.36,19.721,34.812,32.748,5.728,7.495,6.221
605,0.688,36.476,19.713,34.831,32.758,5.768,7.453,6.424
606,0.685,36.017,19.721,34.821,32.758,5.768,7.615,6.344
607,0.698,36.137,19.764,34.812,32.758,5.728,7.495,6.384
608,0.708,36.263,19.69,34.812,32.755,5.768,7.534,6.303
609,0.711,36.341,19.611,34.831,32.748,5.687,7.453,6.262
610,0.702,36.14,19.693,34.783,32.738,5.605,7.371,6.221
611,0.698,36.253,19.717,34.773,32.737,5.645,7.452,6.261
612,0.698,36.389,19.74,34.811,32.744,5.605,7.493,6.343
613,0.711,36.438,19.67,34.812,32.751,5.726,7.494,6.221
614,0.728,36.026,19.685,34.802,32.741,5.646,7.453,6.302
615,0.731,36.156,19.658,34.802,32.744,5.605,7.534,6.262
616,0.734,36.282,19.693,34.783,32.744,5.564,7.412,6.221
617,0.731,36.533,19.713,34.783,32.744,5.563,7.452,6.18
618,0.708,36.018,19.627,34.783,32.744,5.645,7.452,6.301
619,0.698,36.147,19.661,34.83,32.748,5.727,7.615,6.384
620,0.708,36.282,19.642,34.821,32.758,5.809,7.657,6.507
621,0.721,36.13,19.744,34.821,32.758,5.769,7.658,6.386
622,0.724,36.177,19.709,34.793,32.752,5.728,7.495,6.303
623,0.702,36.302,19.709,34.783,32.745,5.727,7.575,6.343
624,0.695,36.38,19.744,34.792,32.748,5.727,7.616,6.343
625,0.688,35.959,19.717,34.802,32.748,5.768,7.657,6.343
626,0.695,36.069,19.729,34.802,32.744,5.728,7.576,6.384
627,0.692,36.176,19.733,34.792,32.755,5.85,7.616,6.385
628,0.711,36.273,19.702,34.792,32.751,5.81,7.739,6.425
629,0.737,35.977,19.674,34.811,32.751,5.81,7.618,6.385
630,0.734,36.137,19.681,34.783,32.745,5.728,7.576,6.263
631,0.767,36.206,19.705,34.773,32.737,5.605,7.535,6.221
632,0.803,36.254,19.662,34.773,32.744,5.767,7.575,6.383
633,0.852,35.977,19.697,34.782,32.748,5.809,7.535,6.303
634,0.898,36.108,19.647,34.792,32.751,5.85,7.616,6.302
635,0.947,36.224,19.65,34.783,32.748,5.769,7.576,6.302
636,0.974,36.274,19.736,34.773,32.751,5.809,7.575,6.262
637,1.026,36.044,19.729,34.782,32.745,5.728,7.494,6.302
638,1.04,36.185,19.608,34.783,32.744,5.809,7.534,6.302
639,1.066,36.302,19.622,34.773,32.744,5.769,7.534,6.384
640,1.089,36.313,19.689,34.802,32.758,5.809,7.616,6.466
641,1.109,35.996,19.693,34.812,32.765,5.932,7.698,6.467
642,1.158,36.137,19.643,34.792,32.765,5.892,7.658,6.386
643,1.204,36.225,19.693,34.792,32.762,5.851,7.495,6.385
644,1.237,36.101,19.709,34.763,32.752,5.851,7.534,6.344
645,1.286,36.148,19.658,34.792,32.751,5.81,7.453,6.425
646,1.355,36.282,19.705,34.792,32.751,5.891,7.452,6.385
647,1.414,36.37,19.733,34.792,32.758,5.892,7.412,6.425
648,1.457,35.815,19.705,34.773,32.752,5.811,7.452,6.385
649,1.512,35.924,19.701,34.792,32.758,5.85,7.371,6.466
650,1.549,36.069,19.713,34.802,32.758,5.851,7.37,6.426
651,1.582,36.138,19.768,34.773,32.748,5.729,7.208,6.263
652,1.621,35.956,19.698,34.754,32.741,5.768,7.287,6.384
653,1.667,36.108,19.717,34.782,32.751,5.809,7.247,6.466
654,1.697,36.224,19.698,34.773,32.755,5.81,7.206,6.386
655,1.71,36.312,19.643,34.763,32.745,5.769,7.206,6.385
656,1.717,35.833,19.705,34.763,32.741,5.809,7.125,6.466
657,1.684,35.972,19.725,34.754,32.748,5.81,7.205,6.426
658,1.655,36.07,19.674,34.754,32.748,5.81,7.165,6.385
659,1.628,36.128,19.705,34.763,32.744,5.81,7.165,6.547
660,1.595,35.975,19.693,34.773,32.755,5.932,7.328,6.671
661,1.556,36.137,19.721,34.802,32.765,5.974,7.37,6.631
662,1.552,36.263,19.694,34.802,32.759,5.811,7.208,6.55
663,1.468,36.255,19.67,34.773,32.752,5.81,7.206,6.671
664,1.369,35.775,19.717,34.773,32.748,5.85,7.165,6.672
665,1.255,35.924,19.686,34.782,32.751,5.851,7.287,6.753
666,1.143,36.04,19.67,34.783,32.755,5.769,7.288,6.957
667,0.969,35.917,19.724,34.792,32.755,5.891,7.451,7.163
668,0.864,35.906,19.705,34.783,32.755,5.851,7.412,7.409
669,0.771,36.059,19.604,34.763,32.758,5.851,7.615,7.655
670,0.673,36.147,19.646,34.773,32.745,5.729,7.454,7.861
671,0.591,35.717,19.693,34.744,32.737,5.727,7.452,8.229
672,0.512,35.818,19.686,34.734,32.741,5.809,7.574,8.721
673,0.426,35.953,19.736,34.763,32.748,5.81,7.616,9.051
674,0.373,36.041,19.698,34.763,32.744,5.769,7.698,9.42
675,0.327,35.802,19.686,34.744,32.748,5.768,7.658,9.79
676,0.294,35.924,19.728,34.734,32.744,5.809,7.658,10.037
677,0.249,36.04,19.783,34.753,32.748,5.647,7.698,10.365
678,0.19,36.099,19.667,34.744,32.741,5.767,7.658,10.612
679,0.134,35.659,19.666,34.734,32.748,5.728,7.617,10.818
680,0.094,35.817,19.697,34.753,32.744,5.809,7.739,11.064
681,0.09,35.943,19.709,34.782,32.758,5.81,7.862,11.229
682,0.09,36.021,19.662,34.783,32.758,5.891,7.863,11.353
683,0.081,35.897,19.685,34.773,32.748,5.77,7.7,11.313
684,0.064,36.03,19.678,34.763,32.744,5.687,7.74,11.353
685,0.071,36.118,19.654,34.763,32.748,5.809,7.699,11.517
686,0.097,36.157,19.685,34.754,32.755,5.728,7.78,11.64
687,0.113,35.688,19.717,34.763,32.751,5.727,7.659,11.682
688,0.133,35.808,19.662,34.763,32.751,5.768,7.698,11.886
689,0.143,35.915,19.658,34.849,32.751,5.809,7.699,12.091
690,0.166,35.82,19.67,34.774,32.755,5.81,7.618,12.215
691,0.166,35.713,19.724,34.763,32.751,5.728,7.617,12.379
692,0.182,35.837,19.698,34.744,32.745,5.646,7.454,12.543
693,0.195,35.905,19.709,34.725,32.744,5.686,7.534,12.829
694,0.225,35.599,19.647,34.772,32.751,5.768,7.575,12.995
695,0.235,35.73,19.697,34.735,32.751,5.728,7.575,13.119
696,0.238,35.856,19.74,34.753,32.748,5.727,7.657,13.242
697,0.251,35.934,19.725,34.734,32.744,5.768,7.576,13.324
698,0.271,35.542,19.682,34.753,32.744,5.728,7.698,13.366
699,0.304,35.71,19.643,34.734,32.748,5.727,7.658,13.366
700,0.327,35.818,19.693,34.744,32.741,5.727,7.739,13.407
701,0.343,35.886,19.686,34.753,32.744,5.727,7.903,13.448
702,0.399,35.704,19.705,34.763,32.762,5.85,8.107,13.448
703,0.448,35.856,19.787,34.773,32.758,5.851,8.069,13.204
704,0.501,35.944,19.647,34.754,32.748,5.769,8.028,13.039
705,0.53,36.012,19.673,34.763,32.751,5.809,8.109,12.956
706,0.563,35.591,19.705,34.744,32.745,5.81,8.15,12.833
707,0.596,35.711,19.697,34.753,32.748,5.728,8.069,12.71
708,0.639,35.846,19.604,34.763,32.751,5.687,8.069,12.546
709,0.665,35.867,19.653,34.763,32.751,5.768,8.15,12.382
710,0.691,35.589,19.677,34.754,32.751,5.728,8.11,12.218
711,0.721,35.711,19.67,34.734,32.748,5.727,8.109,11.972
712,0.724,35.827,19.67,34.734,32.741,5.687,8.028,11.807
713,0.721,35.752,19.732,34.734,32.737,5.564,8.068,11.643
714,0.731,35.473,19.674,34.744,32.744,5.645,8.15,11.438
715,0.747,35.643,19.72,34.734,32.751,5.686,8.191,11.395
716,0.747,35.731,19.733,34.753,32.748,5.646,8.11,11.192
717,0.751,35.597,19.733,34.734,32.751,5.605,8.191,11.068
718,0.744,35.711,19.698,34.753,32.748,5.604,8.232,10.944
719,0.734,35.837,19.69,34.715,32.744,5.645,8.111,10.74
720,0.731,35.915,19.682,34.705,32.741,5.564,8.069,10.657
721,0.734,35.455,19.705,34.734,32.748,5.645,8.109,10.574
722,0.747,35.604,19.69,34.734,32.751,5.645,8.232,10.655
723,0.764,35.749,19.728,34.763,32.758,5.686,8.273,10.574
724,0.783,35.828,19.702,34.763,32.762,5.768,8.193,10.37
725,0.771,35.502,19.701,34.734,32.748,5.647,8.192,10.246
726,0.764,35.624,19.717,34.734,32.751,5.645,8.192,10.164
727,0.767,35.721,19.733,34.734,32.745,5.686,8.192,10.082
728,0.783,35.779,19.666,34.753,32.748,5.646,8.192,9.959
729,0.79,35.569,19.67,34.734,32.751,5.645,8.232,9.917
730,0.784,35.72,19.697,34.744,32.751,5.727,8.151,9.794
731,0.787,35.818,19.701,34.744,32.751,5.727,8.232,9.753
732,0.793,35.876,19.713,34.744,32.748,5.646,8.192,9.59
733,0.797,35.493,19.709,34.744,32.751,5.645,8.151,9.507
734,0.794,35.605,19.674,34.706,32.734,5.605,8.028,9.384
735,0.797,35.711,19.646,34.696,32.744,5.604,8.109,9.342
736,0.8,35.894,19.705,34.724,32.741,5.726,8.109,9.26
737,0.813,35.446,19.647,34.724,32.748,5.646,8.109,9.097
738,0.813,35.575,19.619,34.744,32.748,5.605,8.069,9.095
739,0.807,35.663,19.708,34.725,32.751,5.645,8.028,9.014
740,0.81,35.453,19.725,34.724,32.738,5.564,8.027,8.932
741,0.794,35.527,19.725,34.705,32.741,5.604,7.946,8.85
742,0.793,35.653,19.737,34.734,32.755,5.523,7.986,8.767
743,0.806,35.74,19.741,34.715,32.745,5.603,8.108,8.848
744,0.816,35.386,19.733,34.744,32.758,5.686,8.191,8.808
745,0.81,35.546,19.705,34.782,32.758,5.727,8.029,8.767
746,0.826,35.682,19.678,34.744,32.758,5.565,8.068,8.604
747,0.813,35.731,19.709,34.744,32.748,5.645,8.028,8.521
748,0.816,35.29,19.627,34.715,32.751,5.645,7.987,8.479
749,0.826,35.459,19.65,34.724,32.751,5.686,7.946,8.438
750,0.826,35.575,19.677,34.724,32.755,5.605,7.986,8.397
751,0.826,35.653,19.717,34.734,32.745,5.645,7.946,8.356
752,0.833,35.366,19.705,34.725,32.751,5.767,8.026,8.356
753,0.83,35.498,19.725,34.734,32.751,5.687,7.865,8.234
754,0.826,35.595,19.678,34.715,32.741,5.646,7.782,8.111
755,0.839,35.634,19.67,34.696,32.741,5.523,7.74,8.069
756,0.833,35.299,19.697,34.676,32.744,5.563,7.821,8.109
757,0.843,35.43,19.69,34.724,32.748,5.645,7.822,8.109
758,0.843,35.556,19.65,34.705,32.744,5.727,7.822,7.987
759,0.839,35.883,19.658,34.715,32.748,5.646,7.781,7.946
760,0.833,35.388,19.654,34.715,32.741,5.686,7.781,7.864
761,0.826,35.498,19.701,34.696,32.744,5.646,7.781,7.944
762,0.813,35.624,19.666,34.695,32.744,5.605,7.74,7.783
763,0.813,35.299,19.717,34.695,32.748,5.686,7.821,7.903
764,0.803,35.344,19.733,34.715,32.758,5.809,7.903,7.945
765,0.82,35.488,19.717,34.753,32.762,5.972,7.985,7.905
766,0.839,35.595,19.725,34.734,32.755,5.811,7.864,7.701
767,0.833,35.232,19.748,34.715,32.748,5.769,7.904,7.699
768,0.849,35.362,19.706,34.715,32.744,5.809,7.782,7.618
769,0.856,35.507,19.674,34.744,32.751,5.769,7.822,7.657
770,0.856,35.557,19.713,34.706,32.748,5.85,7.863,7.658
771,0.856,35.202,19.682,34.715,32.755,5.851,7.944,7.617
772,0.866,35.352,19.662,34.705,32.751,5.891,7.945,7.576
773,0.869,35.488,19.713,34.705,32.755,5.851,8.026,7.535
774,0.889,35.518,19.627,34.686,32.748,5.688,7.987,7.372
775,0.885,35.164,19.63,34.686,32.744,5.687,7.946,7.289
776,0.866,35.275,19.704,34.647,32.744,5.809,8.108,7.41
777,0.872,35.411,19.705,34.676,32.748,5.81,8.109,7.371
778,0.879,35.479,19.565,34.686,32.744,5.81,8.069,7.289
779,0.869,35.24,19.673,34.695,32.748,5.769,8.15,7.207
780,0.879,35.372,19.709,34.676,32.744,5.768,8.191,7.247
781,0.856,35.479,19.701,34.686,32.744,5.687,8.151,7.084
782,0.856,35.48,19.686,34.667,32.737,5.768,8.15,7.123
783,0.859,35.144,19.701,34.666,32.744,5.809,8.273,7.083
784,0.856,35.265,19.678,34.666,32.758,5.81,8.355,7.205
785,0.869,35.42,19.693,34.705,32.758,5.972,8.519,7.287
786,0.876,35.23,19.713,34.715,32.752,5.852,8.439,7.125
787,0.885,35.209,19.752,34.686,32.751,5.851,8.479,7.083
788,0.885,35.343,19.667,34.676,32.748,5.769,8.479,7.083
789,0.885,35.43,19.685,34.676,32.751,5.728,8.438,7.002
790,0.879,35.029,19.689,34.676,32.751,5.727,8.519,7.041
791,0.882,35.159,19.701,34.686,32.751,5.768,8.52,7.042
792,0.892,35.275,19.701,34.686,32.751,5.809,8.642,7.042
793,0.912,35.372,19.748,34.695,32.758,5.81,8.644,7.042
794,0.912,35.095,19.686,34.676,32.752,5.728,8.562,6.96
795,0.918,35.227,19.693,34.657,32.738,5.646,8.48,6.838
796,0.918,35.353,19.701,34.647,32.741,5.645,8.438,6.918
797,0.918,35.411,19.705,34.666,32.748,5.727,8.519,6.959
798,0.912,35.009,19.58,34.666,32.751,5.687,8.52,7.0
799,0.908,35.159,19.63,34.666,32.748,5.687,8.439,6.96
800,0.908,35.275,19.693,34.657,32.744,5.687,8.479,6.878
801,0.902,35.315,19.619,34.657,32.748,5.646,8.52,6.877
802,0.902,35.047,19.661,34.638,32.748,5.686,8.479,6.837
803,0.905,35.188,19.677,34.647,32.741,5.646,8.438,6.918
804,0.905,35.295,19.654,34.647,32.748,5.767,8.479,6.959
805,0.912,35.363,19.716,34.685,32.762,5.85,8.642,7.0
806,0.935,35.028,19.772,34.695,32.758,5.891,8.603,6.919
807,0.931,35.14,19.764,34.667,32.752,5.729,8.48,6.959
808,0.941,35.256,19.636,34.676,32.745,5.768,8.438,6.878
809,0.941,35.027,19.716,34.667,32.751,5.687,8.479,6.877
810,0.932,34.977,19.74,34.666,32.755,5.727,8.438,6.877
811,0.938,35.11,19.721,34.657,32.755,5.768,8.397,6.918
812,0.938,35.217,19.717,34.676,32.748,5.768,8.438,6.878
813,0.954,34.998,19.713,34.686,32.751,5.809,8.357,6.837
814,0.948,35.12,19.686,34.686,32.748,5.769,8.315,6.796
815,0.958,35.236,19.685,34.647,32.744,5.687,8.193,6.755
816,0.948,35.305,19.732,34.647,32.731,5.605,8.151,6.632
817,0.945,34.788,19.705,34.618,32.744,5.686,8.191,6.753
818,0.941,34.965,19.658,34.656,32.744,5.687,8.192,6.754
819,0.935,35.11,19.689,34.666,32.751,5.809,8.151,6.673
820,0.948,35.169,19.728,34.647,32.745,5.688,8.11,6.672
821,0.945,34.882,19.678,34.637,32.744,5.727,8.028,6.631
822,0.941,35.042,19.674,34.637,32.751,5.727,8.027,6.672
823,0.951,35.149,19.709,34.657,32.738,5.646,7.987,6.631
824,0.954,35.198,19.635,34.618,32.744,5.686,7.946,6.631
825,0.948,34.854,19.677,34.637,32.744,5.687,8.026,6.794
826,0.964,35.004,19.736,34.666,32.762,5.849,8.109,6.877
827,0.974,35.139,19.69,34.676,32.758,5.851,8.109,6.796
828,0.984,35.179,19.639,34.705,32.755,5.729,7.947,6.714
829,0.987,34.988,19.689,34.657,32.745,5.687,7.823,6.632
830,0.991,35.12,19.767,34.638,32.744,5.727,7.822,6.753
831,1.01,35.208,19.76,34.666,32.751,5.727,7.863,6.714
832,1.023,35.093,19.756,34.666,32.758,5.727,7.822,6.713
833,1.03,34.948,19.737,34.657,32.752,5.727,7.741,6.754
834,1.037,35.072,19.717,34.638,32.751,5.768,7.74,6.714
835,1.037,35.198,19.698,34.657,32.748,5.647,7.699,6.632
836,1.033,34.854,19.732,34.657,32.744,5.605,7.577,6.55
837,1.043,34.936,19.678,34.618,32.737,5.564,7.575,6.549
838,1.02,35.052,19.576,34.637,32.748,5.726,7.657,6.63
839,1.01,35.178,19.649,34.637,32.748,5.687,7.698,6.631
840,1.017,34.844,19.697,34.637,32.744,5.727,7.577,6.55
841,1.027,34.984,19.67,34.637,32.751,5.809,7.698,6.63
842,1.05,35.13,19.662,34.628,32.751,5.728,7.699,6.631
843,1.05,35.179,19.72,34.637,32.741,5.768,7.699,6.55
844,1.056,34.777,19.635,34.618,32.741,5.768,7.78,6.59
845,1.053,34.926,19.658,34.637,32.741,5.809,7.903,6.631
846,1.056,35.062,19.705,34.637,32.755,5.972,8.026,6.672
847,1.06,35.14,19.725,34.666,32.758,6.015,8.068,6.753
848,1.079,34.911,19.604,34.695,32.758,6.056,8.028,6.714
849,1.096,35.023,19.638,34.638,32.748,5.975,7.987,6.591
850,1.092,35.101,19.677,34.647,32.751,5.974,8.068,6.59
851,1.105,35.131,19.705,34.628,32.751,5.974,8.069,6.631
852,1.109,34.978,19.701,34.637,32.758,5.974,8.109,6.631
853,1.115,35.129,19.748,34.647,32.752,5.974,8.109,6.712
854,1.122,35.208,19.655,34.637,32.751,5.974,8.191,6.632
855,1.135,35.199,19.705,34.647,32.751,6.055,8.232,6.59
856,1.135,34.988,19.733,34.637,32.748,6.015,8.111,6.468
857,1.129,35.101,19.698,34.599,32.744,5.934,8.028,6.304
858,1.109,35.188,19.674,34.608,32.748,5.933,8.19,6.587
859,1.115,35.16,19.693,34.647,32.744,6.055,8.192,6.509
860,1.125,35.275,19.729,34.628,32.751,5.975,8.192,6.467
861,1.116,35.411,19.741,34.618,32.748,6.015,8.232,6.467
862,1.122,35.498,19.713,34.618,32.741,5.974,8.233,6.467
863,1.129,35.173,19.67,34.599,32.741,6.015,8.151,6.467
864,1.135,35.285,19.627,34.599,32.737,6.015,8.15,6.467
865,1.125,35.439,19.654,34.618,32.744,5.974,8.15,6.548
866,1.142,35.499,19.689,34.618,32.748,6.096,8.232,6.63
867,1.158,35.336,19.717,34.647,32.762,6.219,8.273,6.631
868,1.178,35.488,19.643,34.647,32.758,6.18,8.193,6.468
869,1.194,35.605,19.662,34.628,32.741,6.057,8.11,6.467
870,1.181,35.634,19.658,34.618,32.748,6.097,8.109,6.467
871,1.184,35.596,19.713,34.628,32.751,6.097,8.109,6.548
872,1.191,35.73,19.713,34.628,32.751,6.056,8.069,6.549
873,1.194,35.856,19.733,34.628,32.751,6.097,8.109,6.59
874,1.198,35.896,19.612,34.628,32.751,6.056,8.028,6.59
875,1.201,35.781,19.693,34.618,32.751,6.137,8.027,6.468
876,1.201,35.895,19.732,34.618,32.751,6.057,7.824,6.426
877,1.217,35.992,19.67,34.589,32.734,5.934,7.822,6.344
878,1.195,36.214,19.685,34.589,32.744,6.014,7.781,6.384
879,1.194,35.947,19.67,34.608,32.755,6.015,7.862,6.466
880,1.211,36.088,19.736,34.608,32.745,6.015,7.782,6.426
881,1.207,36.195,19.702,34.608,32.748,6.056,7.822,6.344
882,1.214,36.158,19.701,34.599,32.751,6.015,7.741,6.425
883,1.214,36.263,19.709,34.599,32.748,5.934,7.74,6.385
884,1.211,36.351,19.643,34.608,32.741,5.933,7.659,6.385
885,1.207,36.457,19.658,34.599,32.748,5.892,7.739,6.425
886,1.227,36.4,19.693,34.608,32.748,5.973,7.74,6.507
887,1.214,36.553,19.725,34.628,32.758,6.055,7.781,6.589
888,1.224,36.699,19.6,34.647,32.765,6.097,7.822,6.549
889,1.234,36.786,19.661,34.628,32.748,5.935,7.7,6.468
890,1.224,36.672,19.705,34.599,32.744,5.933,7.658,6.426
891,1.227,36.815,19.658,34.608,32.744,5.933,7.698,6.466
892,1.224,36.931,19.67,34.599,32.751,5.892,7.658,6.426
893,1.227,36.99,19.693,34.599,32.748,5.973,7.698,6.507
894,1.24,36.981,19.592,34.608,32.751,5.933,7.699,6.508
895,1.234,37.077,19.661,34.599,32.751,5.974,7.618,6.467
896,1.24,37.203,19.724,34.599,32.758,5.893,7.617,6.426
897,1.237,37.252,19.733,34.57,32.748,5.933,7.657,6.304
898,1.221,37.271,19.713,34.56,32.748,5.852,7.455,6.302
899,1.204,37.377,19.701,34.57,32.738,5.81,7.574,6.425
900,1.191,37.464,19.721,34.598,32.748,5.81,7.616,6.466
901,1.201,37.839,19.729,34.599,32.748,5.891,7.535,6.426
902,1.188,37.527,19.713,34.579,32.744,5.851,7.575,6.385
903,1.194,37.629,19.748,34.57,32.748,5.851,7.616,6.303
904,1.188,37.716,19.651,34.589,32.748,5.81,7.576,6.384
905,1.201,37.756,19.63,34.599,32.744,5.769,7.535,6.344
906,1.23,37.871,19.665,34.589,32.748,5.85,7.616,6.384
907,1.234,37.987,19.709,34.618,32.758,5.891,7.739,6.466
908,1.234,38.103,19.596,34.628,32.758,6.054,7.903,6.507
909,1.234,38.047,19.7,34.618,32.758,5.934,7.782,6.386
910,1.23,38.123,19.701,34.599,32.752,5.892,7.781,6.385
911,1.234,38.22,19.713,34.599,32.755,5.933,7.822,6.385
912,1.23,38.307,19.678,34.608,32.748,5.852,7.822,6.425
913,1.221,38.375,19.713,34.589,32.748,5.851,7.822,6.385
914,1.211,38.529,19.655,34.618,32.755,5.891,7.822,6.385
915,1.207,38.646,19.681,34.599,32.755,6.014,7.863,6.385
916,1.201,38.676,19.736,34.599,32.758,5.893,7.985,6.385
917,1.191,38.58,19.67,34.599,32.755,5.851,7.864,6.303
918,1.165,38.675,19.592,34.589,32.745,5.81,7.822,6.221
919,1.161,38.772,19.653,34.56,32.737,5.81,7.822,6.342
920,1.148,38.802,19.701,34.598,32.751,5.81,7.863,6.343
921,1.158,38.907,19.729,34.579,32.748,5.891,7.822,6.303
922,1.142,39.052,19.717,34.57,32.744,5.851,7.863,6.343
923,1.132,39.14,19.744,34.579,32.751,5.851,7.782,6.343
924,1.119,39.141,19.686,34.57,32.748,5.851,7.781,6.303
925,1.115,39.035,19.674,34.57,32.738,5.851,7.7,6.384
926,1.106,39.14,19.736,34.579,32.744,5.769,7.74,6.303
927,1.102,39.256,19.725,34.579,32.751,5.809,7.862,6.547
928,1.109,39.248,19.553,34.598,32.758,5.932,7.863,6.549
929,1.115,39.334,19.672,34.608,32.755,5.852,7.782,6.468
930,1.109,39.421,19.658,34.58,32.751,5.81,7.822,6.345
931,1.099,39.489,19.658,34.598,32.745,5.81,7.7,6.466
932,1.089,39.423,19.646,34.579,32.751,5.85,7.74,6.467
933,1.07,39.575,19.736,34.579,32.751,5.769,7.659,6.426
934,1.063,39.634,19.624,34.598,32.758,5.809,7.739,6.507
935,1.06,39.731,19.669,34.589,32.752,5.81,7.821,6.508
936,1.043,39.655,19.705,34.579,32.758,5.769,7.944,6.467
937,1.04,39.779,19.647,34.57,32.752,5.768,7.864,6.386
938,1.03,39.895,19.666,34.56,32.745,5.687,7.7,6.303
939,1.014,39.916,19.646,34.541,32.744,5.605,7.74,6.343
940,1.001,39.734,19.697,34.56,32.744,5.726,7.821,6.343
941,0.991,39.885,19.748,34.57,32.751,5.727,7.781,6.384
942,0.987,40.002,19.686,34.57,32.751,5.727,7.822,6.263
943,0.987,40.003,19.752,34.57,32.748,5.687,7.781,6.343
944,0.974,39.888,19.612,34.57,32.744,5.687,7.781,6.384
945,0.971,40.011,19.677,34.55,32.741,5.646,7.781,6.303
946,0.964,40.099,19.74,34.531,32.748,5.645,7.862,6.343
947,0.955,40.11,19.702,34.55,32.748,5.645,7.822,6.343
948,0.958,39.975,19.654,34.579,32.755,5.767,7.944,6.506
949,0.968,40.108,19.658,34.598,32.762,5.85,8.026,6.467
950,0.958,40.225,19.728,34.599,32.758,5.81,7.946,6.426
951,0.951,40.072,19.705,34.57,32.752,5.728,7.945,6.385
952,0.935,40.042,19.693,34.57,32.748,5.809,7.986,6.385
953,0.925,40.157,19.736,34.579,32.744,5.81,7.946,6.344
954,0.922,40.216,19.577,34.598,32.744,5.81,8.026,6.343
955,0.918,40.197,19.669,34.56,32.748,5.769,8.027,6.343
956,0.918,40.312,19.681,34.579,32.751,5.728,8.027,6.343
957,0.922,40.428,19.67,34.57,32.758,5.809,8.068,6.343
958,0.905,40.506,19.635,34.579,32.755,5.769,8.069,6.303
959,0.886,40.142,19.669,34.551,32.745,5.687,7.946,6.14
960,0.859,40.235,19.713,34.531,32.737,5.646,8.026,6.219
961,0.856,40.351,19.655,34.55,32.758,5.686,8.109,6.261
962,0.866,40.409,19.693,34.55,32.748,5.727,8.069,6.302
963,0.853,40.947,19.76,34.569,32.748,5.768,8.069,6.302
964,0.856,41.067,19.655,34.55,32.748,5.728,8.109,6.262
965,0.856,41.155,19.701,34.579,32.741,5.646,8.15,6.221
966,0.859,41.184,19.709,34.551,32.755,5.686,8.191,6.261
967,0.849,39.9,19.686,34.55,32.745,5.646,8.232,6.221
968,0.853,40.04,19.709,34.589,32.755,5.727,8.395,6.383
969,0.862,40.147,19.717,34.57,32.762,5.85,8.519,6.425
970,0.872,40.187,19.76,34.598,32.769,5.851,8.52,6.426
971,0.879,40.388,19.675,34.599,32.755,5.851,8.479,6.304
972,0.872,40.496,19.662,34.56,32.748,5.769,8.438,6.302
973,0.872,40.574,19.709,34.589,32.751,5.728,8.479,6.384
974,0.869,40.431,19.709,34.56,32.745,5.768,8.52,6.344
975,0.879,40.324,19.686,34.56,32.758,5.809,8.52,6.384
976,0.856,40.438,19.721,34.56,32.748,5.81,8.52,6.425
977,0.862,40.525,19.647,34.579,32.758,5.85,8.561,6.426
978,0.84,40.296,19.654,34.589,32.755,5.729,8.521,6.385
979,0.843,40.39,19.728,34.56,32.745,5.85,8.439,6.385
980,0.836,40.467,19.733,34.531,32.744,5.648,8.357,6.263
981,0.817,40.545,19.67,34.54,32.741,5.727,8.397,6.343
982,0.833,40.277,19.713,34.541,32.741,5.85,8.397,6.425
983,0.83,40.399,19.713,34.569,32.741,5.81,8.356,6.304
984,0.813,40.525,19.682,34.618,32.744,5.81,8.397,6.384
985,0.807,40.574,19.666,34.551,32.744,5.85,8.275,6.466
986,0.813,40.277,19.72,34.531,32.741,5.851,8.233,6.426
987,0.813,40.38,19.651,34.55,32.744,5.851,8.151,6.426
988,0.823,40.477,19.693,34.55,32.744,5.81,8.191,6.466
989,0.836,40.583,19.732,34.56,32.755,5.972,8.354,6.629
990,0.839,40.45,19.791,34.579,32.758,6.015,8.356,6.55
991,0.846,40.573,19.769,34.579,32.758,5.893,8.193,6.468
992,0.836,40.642,19.714,34.57,32.752,5.892,8.192,6.507
993,0.83,40.642,19.756,34.57,32.751,5.892,8.11,6.508
994,0.83,40.316,19.71,34.56,32.758,5.851,8.109,6.549
995,0.839,40.418,19.674,34.55,32.755,5.932,8.15,6.508
996,0.839,40.525,19.685,34.56,32.748,5.974,8.191,6.508
997,0.836,40.823,19.592,34.56,32.748,5.974,8.192,6.549
998,0.826,40.98,19.634,34.55,32.751,5.974,8.151,6.468
999,0.817,41.068,19.704,34.569,32.745,5.893,8.15,6.467
1000,0.813,41.126,19.713,34.541,32.748,5.892,8.191,6.386
1001,0.794,40.053,19.674,34.531,32.744,5.933,8.273,6.466
1002,0.8,40.09,19.631,34.54,32.751,5.974,8.355,6.467
1003,0.807,40.215,19.708,34.55,32.751,5.974,8.437,6.467
1004,0.816,40.312,19.674,34.541,32.745,5.974,8.357,6.426
1005,0.807,40.246,19.693,34.56,32.744,6.015,8.397,6.385
1006,0.81,40.37,19.744,34.541,32.744,5.974,8.478,6.385
1007,0.807,40.477,19.635,34.531,32.748,5.974,8.479,6.425
1008,0.816,40.564,19.662,34.54,32.744,5.974,8.438,6.426
1009,0.833,40.181,19.705,34.541,32.748,6.055,8.601,6.466
1010,0.833,40.312,19.721,34.589,32.765,6.097,8.602,6.589
1011,0.846,40.438,19.729,34.589,32.765,6.178,8.602,6.509
1012,0.856,40.506,19.709,34.57,32.755,6.057,8.602,6.467
1013,0.843,40.267,19.733,34.56,32.748,6.015,8.44,6.426
1014,0.839,40.408,19.682,34.56,32.751,6.056,8.519,6.426
1015,0.836,40.515,19.67,34.55,32.748,6.137,8.52,6.344
1016,0.836,40.516,19.74,34.541,32.748,6.016,8.52,6.425
1017,0.846,40.075,19.647,34.55,32.748,6.096,8.439,6.344
1018,0.833,40.195,19.689,34.55,32.758,6.138,8.56,6.425
1019,0.813,40.293,19.697,34.56,32.755,6.138,8.399,6.385
1020,0.803,40.476,19.756,34.56,32.755,6.138,8.356,6.425
1021,0.81,40.247,19.655,34.55,32.734,6.016,8.275,6.263
1022,0.81,40.351,19.615,34.531,32.734,5.974,8.274,6.262
1023,0.8,40.419,19.685,34.521,32.748,6.055,8.314,6.343
1024,0.8,40.122,19.658,34.55,32.748,6.056,8.274,6.303
1025,0.794,40.177,19.674,34.579,32.755,6.097,8.314,6.302
1026,0.793,40.273,19.697,34.551,32.751,6.097,8.193,6.262
1027,0.79,40.332,19.635,34.55,32.734,6.056,8.273,6.302
1028,0.81,40.093,19.646,34.522,32.748,6.015,8.193,6.221
1029,0.813,40.215,19.673,34.54,32.741,5.974,8.273,6.302
1030,0.823,40.331,19.705,34.541,32.748,6.137,8.477,6.343
1031,0.833,40.419,19.705,34.55,32.751,6.219,8.642,6.425
1032,0.826,40.17,19.701,34.589,32.758,6.261,8.806,6.344
1033,0.836,40.292,19.736,34.551,32.752,6.18,8.889,6.303
1034,0.826,40.37,19.717,34.55,32.751,6.057,9.012,6.262
1035,0.826,40.409,19.725,34.541,32.748,6.097,9.176,6.343
1036,0.83,39.978,19.741,34.541,32.751,6.056,9.299,6.262
1037,0.833,40.108,19.686,34.541,32.751,6.097,9.544,6.262
1038,0.826,40.196,19.67,34.541,32.751,6.097,9.628,6.262
1039,0.826,40.245,19.678,34.55,32.755,6.138,9.71,6.343
1040,0.833,40.121,19.713,34.541,32.755,6.138,9.792,6.303
1041,0.83,40.234,19.666,34.56,32.751,6.098,9.753,6.14
1042,0.817,40.322,19.654,34.522,32.734,6.056,9.712,6.098
1043,0.826,40.639,19.681,34.502,32.737,6.056,9.752,6.219
1044,0.823,40.124,19.717,34.607,32.751,6.097,9.793,6.302
1045,0.833,40.254,19.674,34.551,32.748,6.056,9.753,6.262
1046,0.83,40.322,19.709,34.522,32.751,6.056,9.712,6.18
1047,0.83,40.025,19.647,34.531,32.745,6.056,9.589,6.179
1048,0.823,40.09,19.63,34.521,32.741,6.015,9.629,6.179
1049,0.843,40.186,19.673,34.512,32.744,6.015,9.548,6.139
1050,0.836,40.283,19.685,34.521,32.741,6.056,9.547,6.098
1051,0.833,39.91,19.67,34.531,32.751,6.137,9.547,6.219
1052,0.836,40.088,19.705,34.54,32.758,6.26,9.628,6.302
1053,0.839,40.215,19.709,34.56,32.755,6.18,9.466,6.302
1054,0.833,40.245,19.721,34.541,32.745,6.22,9.343,6.221
1055,0.826,39.804,19.713,34.521,32.751,6.098,9.26,6.139
1056,0.826,39.924,19.729,34.521,32.755,6.138,9.3,6.179
1057,0.826,40.021,19.694,34.521,32.755,6.098,9.178,6.179
1058,0.83,40.099,19.693,34.531,32.755,6.138,9.137,6.22
1059,0.839,39.985,19.717,34.521,32.748,6.138,9.136,6.18
1060,0.839,40.099,19.783,34.531,32.751,6.057,8.974,6.22
1061,0.83,40.215,19.725,34.521,32.748,5.975,8.85,6.098
1062,0.813,40.216,19.682,34.502,32.738,5.933,8.849,5.975
1063,0.81,39.756,19.693,34.502,32.744,6.014,8.93,6.096
1064,0.82,39.914,19.705,34.569,32.744,6.015,8.809,6.097
1065,0.826,40.021,19.647,34.531,32.744,6.015,8.767,6.097
1066,0.826,40.022,19.705,34.512,32.741,5.974,8.767,6.097
1067,0.813,39.869,19.662,34.512,32.744,5.893,8.726,6.097
1068,0.826,40.002,19.623,34.512,32.741,5.892,8.685,6.056
1069,0.836,40.051,19.669,34.512,32.737,5.933,8.766,6.015
1070,0.852,39.716,19.705,34.502,32.744,5.892,8.685,6.096
1071,0.853,39.712,19.666,34.521,32.751,5.933,8.807,6.26
1072,0.853,39.856,19.705,34.54,32.762,6.055,8.848,6.221
1073,0.866,39.963,19.721,34.531,32.758,5.975,8.808,6.18
1074,0.856,39.715,19.709,34.512,32.745,5.893,8.726,6.139
1075,0.84,39.818,19.666,34.521,32.744,5.973,8.766,6.138
1076,0.852,39.915,19.728,34.492,32.744,5.974,8.726,6.138
1077,0.83,40.012,19.623,34.521,32.758,5.893,8.766,6.138
1078,0.843,39.581,19.646,34.512,32.752,5.811,8.848,6.098
1079,0.836,39.711,19.685,34.512,32.748,5.891,8.808,6.26
1080,0.843,39.828,19.748,34.521,32.751,5.851,8.808,6.221
1081,0.833,39.867,19.729,34.521,32.751,5.851,8.767,6.098
1082,0.833,39.551,19.678,34.502,32.738,5.769,8.604,6.056
1083,0.82,39.653,19.74,34.473,32.734,5.768,8.562,6.097
1084,0.817,39.75,19.682,34.492,32.748,5.85,8.643,6.056
1085,0.836,39.818,19.701,34.511,32.751,5.81,8.481,6.219
1086,0.83,39.598,19.74,34.502,32.751,5.728,8.52,6.18
1087,0.826,39.702,19.6,34.511,32.751,5.727,8.479,6.179
1088,0.833,39.818,19.634,34.492,32.751,5.727,8.479,6.139
1089,0.852,39.829,19.673,34.502,32.738,5.727,8.398,6.138
1090,0.843,39.301,19.693,34.483,32.741,5.646,8.397,6.219
1091,0.843,39.43,19.658,34.492,32.748,5.767,8.478,6.261
1092,0.862,39.518,19.658,34.521,32.751,5.809,8.601,6.424
1093,0.862,39.471,19.724,34.54,32.758,5.891,8.765,6.344
1094,0.866,39.537,19.62,34.521,32.758,5.851,8.685,6.303
1095,0.853,39.615,19.677,34.502,32.748,5.81,8.766,6.302
1096,0.849,39.683,19.732,34.511,32.748,5.81,8.767,6.343
1097,0.856,39.223,19.674,34.579,32.751,5.81,8.848,6.303
1098,0.84,39.343,19.697,34.522,32.748,5.81,8.93,6.343
1099,0.833,39.459,19.732,34.502,32.751,5.81,8.931,6.343
1100,0.839,39.537,19.741,34.521,32.748,5.85,9.053,6.343
1101,0.833,39.212,19.686,34.521,32.758,5.81,9.013,6.384
1102,0.83,39.362,19.685,34.502,32.752,5.81,9.013,6.303
1103,0.826,39.45,19.728,34.483,32.741,5.647,8.891,6.221
1104,0.823,39.499,19.663,34.483,32.737,5.645,8.93,6.302
1105,0.813,39.097,19.666,34.511,32.748,5.767,9.093,6.343
1106,0.823,39.236,19.732,34.502,32.744,5.768,9.014,6.384
1107,0.826,39.343,19.631,34.511,32.751,5.768,9.013,6.344
1108,0.836,39.402,19.654,34.502,32.748,5.809,9.013,6.384
1109,0.839,39.163,19.72,34.492,32.741,5.728,8.932,6.303
1110,0.836,39.266,19.772,34.502,32.744,5.687,8.809,6.384
1111,0.83,39.353,19.71,34.473,32.737,5.768,8.848,6.466
1112,0.836,39.392,19.69,34.511,32.755,5.768,8.93,6.548
1113,0.843,39.038,19.725,34.531,32.758,5.931,8.972,6.63
1114,0.853,39.178,19.659,34.521,32.765,5.852,8.891,6.509
1115,0.846,39.256,19.67,34.492,32.748,5.769,8.687,6.508
1116,0.856,38.998,19.678,34.492,32.748,5.809,8.725,6.508
1117,0.866,38.9,19.678,34.511,32.751,5.81,8.766,6.508
1118,0.843,39.014,19.662,34.502,32.751,5.769,8.685,6.508
1119,0.833,39.111,19.693,34.502,32.758,5.85,8.684,6.549
1120,0.843,38.959,19.697,34.502,32.752,5.81,8.684,6.59
1121,0.83,39.072,19.658,34.511,32.758,5.81,8.766,6.549
1122,0.833,39.188,19.677,34.521,32.752,5.769,8.726,6.427
1123,0.836,39.257,19.721,34.483,32.745,5.768,8.603,6.344
1124,0.817,38.739,19.674,34.473,32.734,5.647,8.602,6.384
1125,0.807,38.878,19.724,34.502,32.744,5.808,8.602,6.466
1126,0.816,39.033,19.764,34.521,32.741,5.81,8.643,6.467
1127,0.826,39.082,19.694,34.512,32.748,5.85,8.562,6.467
1128,0.83,38.814,19.693,34.492,32.748,5.851,8.561,6.345
1129,0.839,38.936,19.701,34.492,32.744,5.81,8.521,6.343
1130,0.833,39.014,19.709,34.483,32.734,5.81,8.439,6.343
1131,0.826,39.073,19.619,34.492,32.741,5.81,8.479,6.425
1132,0.823,38.69,19.646,34.502,32.741,5.85,8.479,6.466
1133,0.813,38.83,19.646,34.531,32.758,5.973,8.601,6.507
1134,0.82,38.965,19.685,34.531,32.758,6.015,8.602,6.508
1135,0.83,38.976,19.685,34.502,32.745,5.934,8.521,6.305
1136,0.833,38.794,19.705,34.492,32.748,5.933,8.52,6.302
1137,0.82,38.936,19.709,34.502,32.751,5.811,8.479,6.384
1138,0.81,39.014,19.678,34.511,32.751,5.891,8.438,6.385
1139,0.807,38.938,19.721,34.492,32.751,5.851,8.438,6.425
1140,0.807,38.813,19.709,34.502,32.745,5.932,8.438,6.466
1141,0.82,38.936,19.647,34.502,32.748,5.892,8.438,6.426
1142,0.813,39.033,19.673,34.521,32.748,5.851,8.357,6.344
1143,0.81,38.622,19.701,34.492,32.751,5.851,8.275,6.221
1144,0.823,38.704,19.678,34.463,32.738,5.769,8.274,6.302
1145,0.807,38.82,19.697,34.492,32.744,5.85,8.396,6.343
1146,0.813,38.898,19.74,34.492,32.744,5.851,8.397,6.262
1147,0.826,38.65,19.694,34.511,32.741,5.769,8.356,6.343
1148,0.833,38.8,19.686,34.492,32.751,5.768,8.315,6.303
1149,0.836,38.917,19.76,34.483,32.741,5.85,8.315,6.262
1150,0.839,38.976,19.753,34.473,32.737,5.81,8.274,6.221
1151,0.836,38.574,19.71,34.473,32.734,5.769,8.274,6.18
1152,0.846,38.704,19.705,34.482,32.744,5.85,8.314,6.301
1153,0.843,38.83,19.713,34.53,32.755,5.973,8.396,6.384
1154,0.839,38.908,19.686,34.531,32.758,6.015,8.356,6.425
1155,0.846,38.755,19.689,34.502,32.748,5.812,8.315,6.222
1156,0.82,38.859,19.686,34.483,32.748,5.81,8.274,6.22
1157,0.817,38.956,19.643,34.55,32.751,5.85,8.314,6.302
1158,0.81,38.995,19.638,34.502,32.751,5.851,8.234,6.302
1159,0.81,38.603,19.708,34.502,32.751,5.891,8.273,6.221
1160,0.807,38.733,19.686,34.483,32.758,5.892,8.274,6.302
1161,0.797,38.859,19.67,34.511,32.748,5.892,8.314,6.221
1162,0.797,38.898,19.724,34.483,32.751,5.811,8.356,6.18
1163,0.787,38.63,19.709,34.483,32.738,5.728,8.275,6.057
1164,0.78,38.743,19.686,34.463,32.744,5.85,8.518,6.219
1165,0.787,38.849,19.685,34.492,32.744,5.851,8.642,6.18
1166,0.81,38.534,19.717,34.492,32.751,5.769,8.725,6.261
1167,0.82,38.627,19.631,34.502,32.745,5.891,8.848,6.221
1168,0.833,38.743,19.638,34.492,32.744,5.811,8.889,6.18
1169,0.836,38.821,19.701,34.473,32.741,5.769,8.93,6.098
1170,0.833,38.476,19.686,34.473,32.737,5.728,8.972,6.097
1171,0.813,38.597,19.693,34.482,32.744,5.768,9.094,6.138
1172,0.816,38.733,19.705,34.483,32.751,5.85,9.258,6.219
1173,0.833,38.811,19.721,34.511,32.762,5.973,9.381,6.302
1174,0.839,38.591,19.709,34.521,32.755,5.933,9.301,6.18
1175,0.833,38.694,19.709,34.492,32.751,5.892,9.341,6.098
1176,0.81,38.801,19.686,34.463,32.748,5.851,9.26,6.056
1177,0.833,38.859,19.67,34.482,32.748,5.81,9.341,6.137
1178,0.826,38.572,19.674,34.473,32.748,5.81,9.342,6.219
1179,0.813,38.723,19.713,34.511,32.748,5.81,9.382,6.139
1180,0.829,38.801,19.678,34.502,32.755,5.85,9.342,6.179
1181,0.826,38.869,19.654,34.483,32.751,5.891,9.342,6.179
1182,0.807,38.601,19.677,34.502,32.751,5.851,9.26,6.139
1183,0.807,38.714,19.689,34.464,32.748,5.729,9.056,5.976
1184,0.803,38.791,19.623,34.454,32.734,5.727,9.095,6.015
1185,0.79,39.08,19.658,34.473,32.755,5.727,9.095,6.137
1186,0.806,38.68,19.689,34.492,32.748,5.809,9.014,6.098
1187,0.803,38.81,19.705,34.483,32.748,5.85,9.054,6.138
1188,0.813,38.898,19.697,34.483,32.744,5.729,8.932,6.057
1189,0.816,38.525,19.725,34.454,32.744,5.768,8.89,6.056
1190,0.816,38.569,19.744,34.473,32.741,5.728,8.849,6.056
1191,0.82,38.675,19.686,34.473,32.748,5.727,8.808,6.056
1192,0.82,38.772,19.709,34.473,32.755,5.85,8.889,6.137
1193,0.833,38.524,19.658,34.521,32.755,5.932,9.012,6.219
1194,0.826,38.694,19.701,34.521,32.748,5.811,8.81,6.058
1195,0.82,38.772,19.736,34.483,32.744,5.85,8.767,6.097
1196,0.826,38.811,19.62,34.492,32.744,5.769,8.807,6.097
1197,0.833,38.495,19.642,34.483,32.748,5.768,8.808,6.097
1198,0.81,38.636,19.685,34.483,32.748,5.809,8.808,6.056
1199,0.81,38.724,19.732,34.483,32.748,5.81,8.848,6.097
1200,0.813,38.782,19.729,34.483,32.751,5.81,8.889,6.097
1201,0.813,38.572,19.674,34.502,32.755,5.891,8.93,6.138
1202,0.813,38.704,19.705,34.483,32.748,5.729,8.931,6.057
1203,0.803,38.791,19.666,34.473,32.744,5.687,8.768,5.893
1204,0.8,38.811,19.635,34.454,32.741,5.646,8.807,6.054
1205,0.797,38.486,19.689,34.463,32.751,5.808,8.848,6.137
1206,0.794,38.607,19.666,34.482,32.748,5.769,8.849,6.057
1207,0.797,38.714,19.646,34.483,32.744,5.687,8.808,6.056
1208,0.794,38.926,19.662,34.463,32.744,5.768,8.808,6.056
1209,0.803,38.564,19.716,34.473,32.741,5.768,8.808,6.056
1210,0.816,38.675,19.713,34.454,32.744,5.728,8.686,6.056
1211,0.816,38.772,19.674,34.453,32.741,5.768,8.725,6.137
1212,0.81,38.533,19.685,34.482,32.755,5.809,8.766,6.138
1213,0.82,38.56,19.713,34.492,32.762,5.932,8.929,6.26
1214,0.83,38.704,19.725,34.502,32.758,5.852,8.728,6.099
1215,0.823,38.772,19.737,34.473,32.748,5.729,8.726,6.138
1216,0.823,38.341,19.678,34.482,32.741,5.727,8.644,6.138
1217,0.826,38.462,19.701,34.483,32.748,5.85,8.562,6.057
1218,0.823,38.588,19.709,34.492,32.751,5.851,8.602,6.097
1219,0.813,38.675,19.756,34.492,32.745,5.81,8.602,6.097
1220,0.81,38.475,19.749,34.473,32.748,5.891,8.521,6.138
1221,0.813,38.626,19.639,34.492,32.751,5.811,8.479,6.138
1222,0.816,38.733,19.677,34.483,32.745,5.891,8.398,6.057
1223,0.807,38.782,19.627,34.483,32.741,5.689,8.356,5.975
1224,0.8,38.342,19.646,34.444,32.731,5.646,8.234,6.015
1225,0.79,38.471,19.654,34.463,32.748,5.808,8.314,6.096
1226,0.803,38.588,19.627,34.482,32.744,5.728,8.274,6.016
1227,0.807,38.646,19.658,34.463,32.744,5.727,8.274,6.096
1228,0.81,38.446,19.654,34.463,32.744,5.727,8.152,6.056
1229,0.813,38.559,19.748,34.463,32.744,5.687,8.15,6.097
1230,0.816,38.646,19.733,34.454,32.744,5.646,8.028,5.975
1231,0.807,38.676,19.686,34.473,32.741,5.605,8.068,6.055
1232,0.81,38.273,19.67,34.473,32.744,5.726,8.109,6.056
1233,0.816,38.404,19.642,34.492,32.748,5.809,8.109,6.178
1234,0.833,38.53,19.654,34.502,32.758,5.81,8.232,6.22
1235,0.846,38.387,19.736,34.511,32.752,5.769,8.07,6.058
1236,0.84,38.366,19.666,34.483,32.748,5.687,7.946,6.097
1237,0.81,38.5,19.67,34.473,32.751,5.687,7.986,6.097
1238,0.803,38.598,19.717,34.482,32.748,5.727,7.946,6.097
1239,0.8,38.282,19.779,34.473,32.751,5.768,7.986,6.138
1240,0.784,38.423,19.788,34.482,32.748,5.809,8.068,6.138
1241,0.784,38.53,19.741,34.511,32.751,5.769,8.109,6.179
1242,0.787,38.617,19.721,34.483,32.755,5.809,8.15,6.098
1243,0.803,38.215,19.717,34.473,32.745,5.81,8.15,6.097
1244,0.816,38.365,19.674,34.454,32.737,5.688,8.069,5.975
1245,0.79,38.452,19.697,34.444,32.741,5.646,8.109,6.055
1246,0.784,38.53,19.678,34.482,32.744,5.849,8.313,6.056
1247,0.797,38.166,19.639,34.559,32.748,5.81,8.315,6.137
1248,0.807,38.297,19.599,34.483,32.744,5.769,8.274,6.098
1249,0.8,38.423,19.669,34.473,32.741,5.809,8.355,6.016
1250,0.803,38.453,19.678,34.454,32.741,5.688,8.356,5.974
1251,0.81,38.099,19.67,34.473,32.741,5.687,8.356,6.055
1252,0.813,38.239,19.666,34.473,32.744,5.768,8.397,6.137
1253,0.807,38.355,19.654,34.492,32.755,5.85,8.56,6.26
1254,0.813,38.385,19.709,34.502,32.769,5.973,8.602,6.18
1255,0.826,38.27,19.717,34.492,32.759,5.852,8.48,6.057
1256,0.82,38.375,19.725,34.463,32.748,5.81,8.479,6.137
1257,0.803,38.481,19.69,34.482,32.755,5.728,8.357,6.098
1258,0.8,38.195,19.686,34.492,32.748,5.809,8.519,6.016
1259,0.787,38.105,19.725,34.483,32.748,5.81,8.439,6.096
1260,0.79,38.22,19.729,34.473,32.748,5.81,8.479,6.178
1261,0.8,38.336,19.686,34.502,32.751,5.85,8.398,6.098
1262,0.8,38.059,19.693,34.483,32.758,5.769,8.397,6.056
1263,0.813,38.171,19.709,34.473,32.748,5.728,8.356,6.056
1264,0.81,38.278,19.694,34.454,32.734,5.687,8.275,5.975
1265,0.803,38.337,19.689,34.473,32.741,5.687,8.314,6.055
1266,0.794,37.925,19.709,34.482,32.748,5.687,8.274,5.975
1267,0.797,38.084,19.576,34.483,32.748,5.727,8.274,6.096
1268,0.803,38.181,19.649,34.473,32.748,5.687,8.314,5.975
1269,0.813,38.268,19.693,34.454,32.748,5.727,8.193,6.015
1270,0.803,37.886,19.697,34.473,32.738,5.687,8.11,5.934
1271,0.807,38.016,19.643,34.482,32.744,5.727,8.15,5.974
1272,0.807,38.142,19.642,34.473,32.744,5.768,8.11,6.055
1273,0.807,38.172,19.638,34.482,32.755,5.85,8.15,6.178
1274,0.816,37.808,19.646,34.502,32.751,5.932,8.273,6.22
1275,0.829,37.948,19.701,34.492,32.755,5.852,8.193,6.139
1276,0.826,38.045,19.651,34.473,32.751,5.81,8.11,6.016
1277,0.82,38.056,19.638,34.463,32.751,5.81,8.232,6.056
1278,0.81,37.893,19.677,34.473,32.745,5.728,8.273,6.056
1279,0.807,38.016,19.724,34.482,32.748,5.809,8.274,6.097
1280,0.79,38.113,19.705,34.483,32.748,5.81,8.355,6.097
1281,0.797,38.009,19.701,34.473,32.748,5.81,8.397,6.097
1282,0.794,37.883,19.693,34.492,32.751,5.932,8.519,6.097
1283,0.797,37.997,19.705,34.483,32.751,5.852,8.52,6.138
1284,0.79,38.113,19.713,34.502,32.748,5.851,8.642,6.057
1285,0.79,37.702,19.733,34.464,32.744,5.729,8.603,6.015
1286,0.8,37.794,19.678,34.444,32.741,5.727,8.684,6.015
1287,0.797,37.929,19.623,34.463,32.748,5.85,8.807,6.096
1288,0.813,38.017,19.658,34.463,32.748,5.851,8.808,6.097
1289,0.81,37.634,19.709,34.463,32.748,5.769,8.889,6.056
1290,0.807,37.755,19.67,34.463,32.744,5.728,8.849,6.015
1291,0.81,37.881,19.678,34.473,32.744,5.768,8.889,6.056
1292,0.807,37.949,19.635,34.463,32.741,5.768,8.89,6.056
1293,0.803,37.624,19.572,34.454,32.737,5.728,9.012,6.015
1294,0.8,37.764,19.665,34.482,32.744,5.85,9.094,6.096
1295,0.813,37.881,19.709,34.473,32.751,5.932,9.258,6.178
1296,0.823,37.949,19.612,34.511,32.758,5.892,9.3,6.22
1297,0.839,37.662,19.665,34.492,32.758,5.892,9.26,6.098
1298,0.83,37.755,19.717,34.463,32.745,5.811,9.219,6.138
1299,0.813,37.842,19.717,34.463,32.748,5.769,9.259,6.138
1300,0.8,37.891,19.635,34.473,32.751,5.809,9.178,6.098
1301,0.784,37.633,19.665,34.482,32.748,5.769,9.259,6.138
1302,0.78,37.764,19.689,34.473,32.751,5.768,9.259,6.138
1303,0.787,37.871,19.67,34.482,32.748,5.931,9.3,6.138
1304,0.793,37.815,19.67,34.502,32.755,5.852,9.341,6.098
1305,0.78,37.555,19.736,34.483,32.755,5.81,9.301,6.097
1306,0.774,37.668,19.659,34.483,32.748,5.81,9.26,6.056
1307,0.78,37.755,19.634,34.454,32.738,5.688,9.219,6.015
1308,0.777,37.382,19.685,34.434,32.741,5.727,9.259,6.056
1309,0.774,37.493,19.764,34.482,32.748,5.809,9.259,6.097
1310,0.787,37.609,19.749,34.463,32.744,5.769,9.178,6.056
1311,0.803,37.716,19.725,34.473,32.741,5.809,9.259,6.137
1312,0.807,37.382,19.674,34.463,32.741,5.769,9.137,6.098
1313,0.8,37.512,19.611,34.473,32.737,5.768,9.177,6.097
1314,0.803,37.648,19.603,34.444,32.744,5.728,9.055,6.056
1315,0.803,37.726,19.696,34.453,32.737,5.768,9.054,6.056
1316,0.803,37.276,19.588,34.473,32.744,5.768,9.095,6.178
1317,0.794,37.444,19.63,34.492,32.755,5.891,9.176,6.261
1318,0.806,37.599,19.669,34.502,32.762,5.973,9.177,6.343
1319,0.82,37.639,19.689,34.492,32.752,5.811,9.055,6.181
1320,0.813,37.266,19.674,34.483,32.751,5.85,8.973,6.179
1321,0.797,37.406,19.681,34.492,32.748,5.81,8.931,6.179
1322,0.797,37.522,19.709,34.492,32.748,5.81,8.89,6.179
1323,0.8,37.552,19.67,34.483,32.748,5.85,8.89,6.22
1324,0.803,37.332,19.654,34.492,32.744,5.851,8.849,6.261
1325,0.797,37.454,19.697,34.483,32.748,5.81,8.767,6.221
1326,0.787,37.561,19.639,34.492,32.748,5.932,8.767,6.22
1327,0.793,37.696,19.673,34.473,32.755,5.892,8.726,6.22
1328,0.797,37.238,19.736,34.482,32.745,5.729,8.603,6.18
1329,0.8,37.338,19.721,34.454,32.737,5.687,8.358,6.057
1330,0.784,37.407,19.737,34.444,32.734,5.768,8.437,6.137
1331,0.793,37.168,19.69,34.463,32.744,5.728,8.357,6.179
1332,0.803,37.251,19.678,34.473,32.744,5.768,8.397,6.139
1333,0.797,37.367,19.623,34.473,32.744,5.768,8.397,6.138
1334,0.797,37.474,19.642,34.482,32.741,5.768,8.275,6.138
1335,0.81,37.053,19.724,34.454,32.741,5.768,8.274,6.098
1336,0.807,37.174,19.577,34.444,32.737,5.728,8.233,6.097
1337,0.803,37.29,19.618,34.453,32.741,5.768,8.233,6.097
1338,0.8,37.396,19.669,34.444,32.734,5.768,8.273,6.178
1339,0.794,37.11,19.697,34.482,32.744,5.85,8.355,6.22
1340,0.806,37.27,19.647,34.521,32.755,5.891,8.478,6.261
1341,0.8,37.396,19.654,34.531,32.751,5.892,8.438,6.139
1342,0.79,37.426,19.681,34.464,32.745,5.77,8.357,6.098
1343,0.787,36.966,19.611,34.473,32.748,5.809,8.397,6.178
1344,0.793,37.086,19.63,34.482,32.744,5.81,8.478,6.22
1345,0.787,37.203,19.685,34.502,32.744,5.769,8.438,6.139
1346,0.787,37.252,19.654,34.511,32.748,5.85,8.397,6.179
1347,0.784,37.118,19.677,34.502,32.751,5.81,8.478,6.139
1348,0.793,37.27,19.709,34.502,32.755,5.81,8.438,6.179
1349,0.81,37.348,19.729,34.483,32.748,5.85,8.438,6.139
1350,0.803,37.685,19.717,34.483,32.738,5.729,8.235,6.016
1351,0.803,36.998,19.678,34.473,32.73,5.687,8.233,6.056
1352,0.81,37.096,19.681,34.463,32.744,5.768,8.314,6.219
1353,0.82,37.203,19.631,34.482,32.744,5.809,8.356,6.139
1354,0.807,36.897,19.654,34.463,32.744,5.728,8.315,6.098
1355,0.803,36.942,19.673,34.473,32.748,5.727,8.274,6.016
1356,0.803,37.029,19.635,34.482,32.738,5.687,8.314,6.056
1357,0.82,37.135,19.63,34.473,32.741,5.646,8.234,5.975
1358,0.8,36.772,19.697,34.463,32.744,5.686,8.314,6.055
1359,0.784,36.883,19.697,34.463,32.748,5.687,8.437,6.097
1360,0.78,37.047,19.635,34.482,32.751,5.809,8.519,6.178
1361,0.79,37.135,19.615,34.521,32.755,5.81,8.601,6.22
1362,0.797,36.848,19.65,34.512,32.758,5.81,8.48,5.976
1363,0.784,36.951,19.67,34.483,32.748,5.728,8.52,6.055
1364,0.784,37.086,19.67,34.492,32.751,5.809,8.601,6.056
1365,0.78,37.145,19.705,34.492,32.758,5.81,8.684,6.178
1366,0.787,36.839,19.678,34.511,32.748,5.85,8.684,6.139
1367,0.774,36.98,19.646,34.521,32.744,5.81,8.725,6.138
1368,0.784,37.096,19.693,34.492,32.751,5.81,8.766,6.138
1369,0.797,37.126,19.713,34.492,32.748,5.81,8.604,6.057
1370,0.803,36.695,19.686,34.483,32.744,5.728,8.602,5.975
1371,0.8,36.844,19.674,34.463,32.737,5.687,8.602,5.974
1372,0.794,36.913,19.666,34.454,32.741,5.768,8.643,6.055
1373,0.803,36.923,19.646,34.482,32.744,5.809,8.765,6.015
1374,0.807,36.722,19.662,34.483,32.748,5.81,8.807,5.974
1375,0.82,36.873,19.748,34.463,32.741,5.81,8.848,6.096
1376,0.817,36.98,19.686,34.473,32.741,5.81,8.889,6.016
1377,0.81,36.77,19.721,34.473,32.737,5.85,8.89,5.974
1378,0.816,36.778,19.748,34.463,32.741,5.81,8.849,6.015
1379,0.82,36.893,19.694,34.454,32.737,5.81,8.808,6.056
1380,0.826,36.971,19.662,34.463,32.748,5.891,8.889,6.056
1381,0.843,36.664,19.635,34.501,32.748,5.973,9.012,6.178
1382,0.843,36.824,19.658,34.502,32.758,6.055,8.972,6.179
1383,0.849,36.941,19.607,34.502,32.752,5.934,8.891,6.179
1384,0.859,37.029,19.634,34.492,32.751,5.892,8.849,6.139
1385,0.849,36.684,19.716,34.492,32.751,5.973,8.849,6.138
1386,0.846,36.825,19.612,34.492,32.748,5.933,8.849,6.179
1387,0.866,36.941,19.654,34.502,32.748,5.892,8.849,6.179
1388,0.869,37.009,19.705,34.483,32.751,5.933,8.808,6.179
1389,0.892,36.559,19.721,34.473,32.755,5.892,8.808,6.139
1390,0.895,36.699,19.701,34.482,32.758,5.933,8.808,6.179
1391,0.895,36.825,19.662,34.483,32.752,5.974,8.686,6.098
1392,0.892,36.845,19.689,34.473,32.741,5.852,8.725,5.975
1393,0.899,36.519,19.686,34.463,32.734,5.769,8.603,6.096
1394,0.899,36.65,19.662,34.463,32.741,5.891,8.684,6.178
1395,0.918,36.776,19.732,34.473,32.748,5.892,8.603,6.139
1396,0.912,36.835,19.635,34.492,32.744,5.892,8.684,6.098
1397,0.905,36.682,19.654,34.483,32.744,5.933,8.562,6.178
1398,0.902,36.805,19.681,34.454,32.744,5.933,8.521,6.098
1399,0.899,36.903,19.744,34.463,32.737,5.933,8.398,6.056
1400,0.899,36.769,19.647,34.454,32.737,5.933,8.438,6.097
1401,0.905,36.768,19.662,34.492,32.737,5.974,8.56,6.178
1402,0.918,36.902,19.701,34.473,32.748,6.015,8.683,6.22
1403,0.915,37.019,19.654,34.502,32.758,6.137,8.766,6.342
1404,0.918,36.329,19.654,34.521,32.758,6.138,8.645,6.303
1405,0.912,36.418,19.705,34.492,32.748,6.016,8.644,6.262
1406,0.882,36.525,19.596,34.492,32.748,6.015,8.603,6.384
1407,0.885,36.631,19.657,34.483,32.751,6.015,8.643,6.344
1408,0.876,36.489,19.662,34.483,32.741,6.056,8.603,6.303
1409,0.902,36.64,19.685,34.483,32.751,6.056,8.562,6.302
1410,0.899,36.728,19.654,34.473,32.748,6.178,8.602,6.343
1411,0.912,36.835,19.627,34.492,32.744,6.139,8.602,6.343
1412,0.925,36.347,19.716,34.473,32.751,6.016,8.643,6.303
1413,0.925,36.486,19.69,34.482,32.741,6.056,8.521,6.343
1414,0.925,36.621,19.674,34.454,32.741,5.975,8.479,6.221
1415,0.915,36.603,19.72,34.453,32.737,6.055,8.52,6.261
1416,0.922,36.306,19.639,34.473,32.744,6.015,8.561,6.343
1417,0.918,36.485,19.673,34.463,32.748,6.015,8.521,6.221
1418,0.918,36.583,19.705,34.463,32.748,6.137,8.52,6.302
1419,0.925,36.603,19.713,34.473,32.741,6.016,8.479,6.302
1420,0.931,36.459,19.67,34.454,32.741,6.015,8.438,6.262
1421,0.918,36.602,19.638,34.473,32.741,6.015,8.357,6.302
1422,0.912,36.69,19.689,34.454,32.744,6.015,8.356,6.302
1423,0.922,36.671,19.646,34.482,32.744,6.015,8.356,6.384
1424,0.931,36.623,19.669,34.502,32.751,6.178,8.437,6.507
1425,0.909,36.766,19.736,34.521,32.758,6.22,8.479,6.467
1426,0.908,36.864,19.604,34.512,32.762,6.058,8.276,6.426
1427,0.899,36.232,19.657,34.473,32.741,6.056,8.233,6.426
1428,0.899,36.302,19.705,34.473,32.744,6.056,8.192,6.426
1429,0.921,36.418,19.717,34.463,32.748,5.975,8.192,6.426
1430,0.912,36.515,19.662,34.463,32.751,6.055,8.232,6.507
1431,0.912,36.276,19.635,34.482,32.748,6.056,8.192,6.386
1432,0.902,36.427,19.685,34.511,32.744,6.056,8.232,6.425
1433,0.895,36.563,19.639,34.473,32.758,6.097,8.233,6.426
1434,0.892,36.632,19.65,34.473,32.748,6.056,8.192,6.385
1435,0.899,36.278,19.681,34.463,32.738,6.056,8.192,6.303
1436,0.879,36.379,19.65,34.454,32.741,5.934,8.07,6.18
1437,0.869,36.524,19.693,34.444,32.737,5.974,8.15,6.301
1438,0.859,36.564,19.725,34.482,32.744,6.055,8.273,6.302
1439,0.862,36.219,19.721,34.454,32.751,6.056,8.355,6.384
1440,0.869,36.34,19.666,34.482,32.748,6.056,8.315,6.425
1441,0.872,36.457,19.701,34.463,32.741,6.015,8.356,6.344
1442,0.853,36.477,19.709,34.482,32.741,6.096,8.437,6.343
1443,0.846,36.276,19.658,34.473,32.741,5.975,8.479,6.303
1444,0.836,36.437,19.693,34.473,32.741,6.015,8.52,6.262
1445,0.826,36.544,19.721,34.473,32.744,6.015,8.642,6.465
1446,0.82,36.507,19.588,34.502,32.748,6.137,8.806,6.507
1447,0.83,36.315,19.657,34.521,32.755,6.219,8.93,6.467
1448,0.839,36.447,19.701,34.512,32.751,6.098,8.89,6.304
1449,0.846,36.515,19.709,34.483,32.745,6.097,8.809,6.302
1450,0.82,36.19,19.678,34.463,32.748,5.975,8.848,6.302
1451,0.813,36.292,19.631,34.473,32.748,6.015,8.808,6.343
1452,0.829,36.437,19.65,34.473,32.751,6.015,8.848,6.384
1453,0.836,36.506,19.541,34.482,32.748,6.056,8.889,6.344
1454,0.826,36.017,19.637,34.502,32.758,6.097,8.849,6.303
1455,0.83,36.137,19.705,34.473,32.752,6.097,8.93,6.302
1456,0.817,36.253,19.615,34.482,32.745,5.975,8.728,6.18
1457,0.816,36.322,19.677,34.454,32.737,5.811,8.644,6.179
1458,0.807,36.102,19.701,34.444,32.737,5.891,8.765,6.22
1459,0.784,36.291,19.729,34.473,32.741,6.054,8.767,6.302
1460,0.777,36.389,19.612,34.463,32.741,5.975,8.726,6.302
1461,0.774,36.457,19.63,34.482,32.741,5.974,8.766,6.221
1462,0.767,35.988,19.673,34.473,32.748,5.974,8.604,6.22
1463,0.764,36.127,19.642,34.473,32.738,5.893,8.602,6.22
1464,0.764,36.234,19.669,34.463,32.741,5.973,8.562,6.22
1465,0.764,36.264,19.685,34.454,32.741,6.015,8.643,6.342
1466,0.754,36.13,19.646,34.482,32.748,6.096,8.684,6.303
1467,0.761,36.292,19.705,34.53,32.758,6.056,8.807,6.465
1468,0.761,36.418,19.736,34.512,32.752,6.015,8.686,6.345
1469,0.774,36.496,19.768,34.492,32.745,5.934,8.725,6.303
1470,0.774,36.056,19.671,34.483,32.748,5.974,8.685,6.302
1471,0.767,36.205,19.689,34.483,32.744,5.933,8.644,6.343
1472,0.767,36.292,19.654,34.483,32.748,5.974,8.644,6.343
1473,0.764,36.034,19.658,34.55,32.744,5.893,8.603,6.343
1474,0.764,36.118,19.646,34.483,32.751,6.014,8.684,6.343
1475,0.757,36.253,19.685,34.483,32.751,5.974,8.603,6.384
1476,0.761,36.37,19.666,34.492,32.748,6.015,8.562,6.344
1477,0.754,35.92,19.638,34.463,32.744,5.893,8.48,6.303
1478,0.757,36.031,19.685,34.444,32.737,5.729,8.438,6.262
1479,0.735,36.128,19.685,34.444,32.737,5.768,8.479,6.384
1480,0.741,36.234,19.646,34.473,32.744,5.85,8.438,6.385
1481,0.747,36.015,19.689,34.473,32.744,5.851,8.479,6.385
1482,0.721,36.147,19.693,34.463,32.744,5.851,8.479,6.303
1483,0.721,36.254,19.643,34.473,32.744,5.851,8.438,6.262
1484,0.711,36.303,19.673,34.454,32.744,5.81,8.397,6.302
1485,0.715,36.015,19.701,34.473,32.737,5.81,8.397,6.343
1486,0.711,36.166,19.623,34.463,32.737,5.728,8.397,6.343
1487,0.724,36.273,19.646,34.482,32.744,5.809,8.438,6.425
1488,0.731,36.332,19.701,34.492,32.751,5.891,8.438,6.507
1489,0.738,35.833,19.717,34.521,32.751,5.973,8.479,6.467
1490,0.734,35.991,19.674,34.492,32.751,5.811,8.276,6.426
1491,0.734,36.079,19.693,34.473,32.755,5.85,8.314,6.385
1492,0.734,36.435,19.693,34.473,32.748,5.769,8.356,6.385
1493,0.731,36.055,19.697,34.492,32.751,5.809,8.275,6.466
1494,0.738,36.166,19.682,34.473,32.751,5.85,8.274,6.467
1495,0.728,36.273,19.717,34.473,32.751,5.81,8.233,6.467
1496,0.741,35.948,19.658,34.482,32.751,5.85,8.273,6.386
1497,0.738,36.012,19.658,34.483,32.748,5.851,8.193,6.466
1498,0.738,36.099,19.662,34.473,32.751,5.81,8.11,6.386
1499,0.728,36.196,19.623,34.463,32.741,5.728,8.028,6.222
1500,0.721,35.813,19.533,34.444,32.734,5.687,7.987,6.383
1501,0.715,35.943,19.618,34.463,32.737,5.727,8.027,6.466
1502,0.711,36.079,19.65,34.473,32.741,5.768,8.027,6.386
1503,0.721,36.167,19.588,34.473,32.744,5.728,8.027,6.425
1504,0.718,35.822,19.692,34.473,32.744,5.727,7.987,6.466
1505,0.721,35.953,19.76,34.454,32.741,5.687,7.946,6.467
1506,0.724,36.079,19.639,34.482,32.737,5.727,7.945,6.467
1507,0.721,36.128,19.677,34.454,32.734,5.646,7.945,6.426
1508,0.715,35.86,19.685,34.463,32.737,5.686,7.905,6.507
1509,0.731,35.982,19.736,34.454,32.748,5.768,7.945,6.63
1510,0.731,36.118,19.655,34.492,32.755,5.85,8.026,6.672
1511,0.734,36.205,19.677,34.511,32.758,5.891,7.946,6.591
1512,0.751,35.823,19.674,34.483,32.752,5.729,7.783,6.549
1513,0.757,35.934,19.654,34.55,32.745,5.727,7.862,6.549
1514,0.754,36.031,19.689,34.483,32.748,5.809,7.782,6.549
1515,0.777,36.041,19.701,34.483,32.741,5.81,7.781,6.549
1516,0.823,35.802,19.651,34.463,32.748,5.81,7.7,6.549
1517,0.852,35.953,19.677,34.463,32.748,5.728,7.74,6.63
1518,0.879,36.041,19.678,34.473,32.748,5.768,7.74,6.55
1519,0.911,35.821,19.627,34.473,32.748,5.768,7.699,6.59
1520,0.957,35.838,19.583,34.463,32.748,5.728,7.618,6.509
1521,0.99,35.944,19.638,34.454,32.741,5.646,7.535,6.467
1522,1.013,36.021,19.665,34.425,32.734,5.645,7.575,6.467
1523,1.036,35.667,19.689,34.463,32.751,5.645,7.616,6.548
1524,1.069,35.836,19.662,34.444,32.745,5.686,7.698,6.468
1525,1.092,35.944,19.697,34.453,32.741,5.646,7.74,6.426
1526,1.109,36.021,19.635,34.463,32.744,5.645,7.781,6.507
1527,1.158,35.658,19.642,34.463,32.737,5.605,7.781,6.386
1528,1.213,35.798,19.673,34.454,32.741,5.604,7.822,6.466
1529,1.276,35.886,19.74,34.444,32.744,5.645,7.863,6.426
1530,1.325,35.973,19.659,34.434,32.741,5.564,7.944,6.548
1531,1.384,35.628,19.697,34.472,32.751,5.685,8.148,6.671
1532,1.437,35.769,19.721,34.502,32.758,5.809,8.273,6.672
1533,1.463,35.914,19.717,34.521,32.758,5.769,8.274,6.631
1534,1.526,35.973,19.709,34.464,32.748,5.647,8.274,6.631
1535,1.549,35.686,19.725,34.454,32.748,5.645,8.274,6.59
1536,1.585,35.808,19.561,34.473,32.748,5.686,8.396,6.509
1537,1.641,35.953,19.645,34.473,32.748,5.605,8.356,6.67
1538,1.674,35.964,19.666,34.454,32.751,5.686,8.478,6.672
1539,1.671,35.667,19.677,34.463,32.745,5.646,8.52,6.713
1540,1.706,35.808,19.603,34.482,32.744,5.645,8.601,6.672
1541,1.72,35.915,19.657,34.473,32.751,5.645,8.562,6.753
1542,1.681,35.801,19.658,34.454,32.745,5.605,8.602,6.632
1543,1.651,35.771,19.584,34.453,32.737,5.564,8.44,6.631
1544,1.615,35.866,19.645,34.425,32.73,5.523,8.479,6.672
1545,1.592,35.963,19.697,34.453,32.751,5.522,8.52,6.794
1546,1.592,35.494,19.635,34.453,32.745,5.603,8.601,6.755
1547,1.543,35.633,19.662,34.444,32.741,5.564,8.521,6.795
1548,1.468,35.75,19.713,34.453,32.741,5.563,8.601,6.958
1549,1.366,35.818,19.729,34.444,32.744,5.523,8.521,6.96
1550,1.264,35.579,19.67,34.444,32.744,5.522,8.479,7.041
1551,1.11,35.72,19.666,34.444,32.737,5.644,8.52,7.204
1552,0.966,35.866,19.666,34.463,32.748,5.645,8.642,7.613
1553,0.86,35.953,19.638,34.501,32.751,5.767,8.644,7.942
1554,0.762,35.437,19.669,34.492,32.758,5.728,8.603,8.108
1555,0.683,35.566,19.728,34.463,32.741,5.565,8.44,8.354
1556,0.617,35.663,19.565,34.463,32.748,5.645,8.601,8.681
1557,0.528,35.74,19.637,34.454,32.748,5.645,8.48,9.01
1558,0.459,35.588,19.728,34.453,32.744,5.645,8.479,9.379
1559,0.377,35.721,19.737,34.463,32.744,5.645,8.438,9.789
1560,0.327,35.827,19.702,34.454,32.751,5.767,8.438,10.078
1561,0.294,35.857,19.701,34.482,32.751,5.728,8.397,10.406
1562,0.229,35.551,19.674,34.463,32.748,5.768,8.356,10.531
1563,0.18,35.653,19.619,34.444,32.738,5.647,8.193,10.736
1564,0.13,35.76,19.591,34.425,32.737,5.605,8.273,11.063
1565,0.104,35.598,19.681,34.434,32.744,5.767,8.355,11.148
1566,0.11,35.471,19.568,34.472,32.737,5.809,8.356,11.271
1567,0.113,35.623,19.637,34.444,32.744,5.769,8.397,11.312
1568,0.11,35.721,19.673,34.453,32.741,5.85,8.438,11.394
1569,0.117,35.405,19.697,34.453,32.741,5.729,8.357,11.476
1570,0.126,35.527,19.701,34.444,32.737,5.809,8.397,11.436
1571,0.133,35.662,19.662,34.434,32.741,5.728,8.519,11.599
1572,0.146,35.76,19.72,34.453,32.744,5.85,8.601,11.803
1573,0.143,35.339,19.709,34.473,32.755,5.932,8.643,12.05
1574,0.179,35.517,19.694,34.492,32.751,5.974,8.684,12.133
1575,0.195,35.653,19.74,34.483,32.748,5.893,8.481,12.134
1576,0.205,35.702,19.581,34.454,32.744,5.892,8.56,12.297
1577,0.212,35.329,19.669,34.453,32.744,5.851,8.561,12.542
1578,0.238,35.478,19.689,34.453,32.748,5.81,8.521,12.748
1579,0.235,35.595,19.689,34.463,32.744,5.81,8.479,12.872
1580,0.251,35.663,19.631,34.463,32.744,5.85,8.52,13.077
1581,0.271,35.338,19.642,34.473,32.748,5.851,8.561,13.119
1582,0.287,35.469,19.646,34.482,32.748,5.891,8.48,13.242
1583,0.31,35.585,19.623,34.473,32.748,5.892,8.479,13.243
1584,0.333,35.615,19.642,34.454,32.741,5.77,8.398,13.121
1585,0.363,35.241,19.701,34.425,32.737,5.687,8.438,13.12
1586,0.405,35.372,19.572,34.453,32.741,5.768,8.601,13.242
1587,0.445,35.507,19.634,34.453,32.744,5.891,8.602,13.162
1588,0.494,35.566,19.677,34.453,32.744,5.77,8.643,13.039
1589,0.553,35.413,19.709,34.444,32.734,5.85,8.725,12.916
1590,0.593,35.527,19.635,34.444,32.734,5.729,8.766,12.792
1591,0.635,35.643,19.615,34.434,32.744,5.768,8.807,12.629
1592,0.665,35.242,19.654,34.434,32.737,5.768,8.889,12.464
1593,0.695,35.324,19.654,34.444,32.741,5.768,8.93,12.341
1594,0.721,35.469,19.65,34.453,32.748,5.85,9.093,12.299
1595,0.741,35.576,19.736,34.473,32.751,5.891,9.258,12.217
1596,0.773,35.299,19.713,34.473,32.751,5.973,9.259,11.972
1597,0.771,35.43,19.705,34.444,32.745,5.852,9.178,11.767
1598,0.77,35.546,19.736,34.453,32.744,5.851,9.259,11.602
1599,0.774,35.605,19.717,34.463,32.748,5.851,9.219,11.478
1600,0.771,35.184,19.627,34.444,32.751,5.851,9.218,11.477
1601,0.774,35.333,19.665,34.463,32.745,5.851,9.259,11.274
1602,0.764,35.478,19.685,34.454,32.755,5.891,9.219,11.19
1603,0.767,35.518,19.678,34.53,32.748,5.973,9.259,10.946
1604,0.777,35.288,19.65,34.445,32.748,5.893,9.178,10.902
1605,0.774,35.439,19.673,34.444,32.748,5.851,9.137,10.658
1606,0.771,35.537,19.646,34.444,32.738,5.729,9.014,10.615
1607,0.764,35.557,19.615,34.444,32.734,5.768,9.094,10.574
1608,0.774,35.279,19.716,34.425,32.748,5.891,9.014,10.574
1609,0.8,35.411,19.694,34.444,32.738,5.892,9.054,10.492
1610,0.8,35.537,19.592,34.444,32.744,5.892,8.891,10.41
1611,0.803,35.643,19.646,34.444,32.741,5.811,9.012,10.369
1612,0.81,35.098,19.634,34.434,32.741,5.85,8.81,10.287
1613,0.81,35.207,19.685,34.444,32.741,5.81,8.848,10.205
1614,0.807,35.333,19.685,34.444,32.737,5.81,8.767,10.204
1615,0.816,35.133,19.709,34.434,32.741,5.85,8.848,10.204
1616,0.826,35.246,19.666,34.472,32.748,5.973,8.93,10.163
1617,0.836,35.41,19.709,34.482,32.758,6.015,8.931,10.082
1618,0.839,35.517,19.736,34.463,32.752,5.934,8.768,9.878
1619,0.833,34.991,19.686,34.434,32.741,5.811,8.726,9.835
1620,0.817,35.13,19.635,34.463,32.748,5.85,8.644,9.794
1621,0.81,35.275,19.693,34.444,32.748,5.729,8.644,9.753
1622,0.813,35.353,19.697,34.453,32.741,5.85,8.644,9.63
1623,0.813,35.104,19.682,34.521,32.751,5.81,8.521,9.507
1624,0.813,35.246,19.697,34.454,32.745,5.891,8.601,9.465
1625,0.826,35.353,19.736,34.453,32.744,5.811,8.643,9.424
1626,0.82,35.45,19.694,34.453,32.751,5.85,8.481,9.342
1627,0.826,35.192,19.682,34.434,32.738,5.688,8.398,9.179
1628,0.81,35.295,19.721,34.415,32.737,5.687,8.356,9.096
1629,0.826,35.411,19.639,34.415,32.741,5.768,8.478,9.136
1630,0.833,35.489,19.591,34.443,32.741,5.768,8.438,9.014
1631,0.83,35.067,19.63,34.444,32.744,5.728,8.397,8.972
1632,0.846,35.188,19.65,34.425,32.734,5.687,8.356,8.891
1633,0.849,35.304,19.67,34.444,32.741,5.687,8.356,8.809
1634,0.83,35.622,19.642,34.425,32.741,5.687,8.356,8.726
1635,0.843,35.117,19.673,34.415,32.737,5.687,8.275,8.644
1636,0.856,35.265,19.631,34.415,32.737,5.646,8.355,8.603
1637,0.84,35.372,19.673,34.424,32.741,5.686,8.356,8.643
1638,0.849,34.951,19.705,34.434,32.751,5.809,8.397,8.684
1639,0.862,35.005,19.686,34.463,32.758,5.891,8.519,8.603
1640,0.862,35.149,19.596,34.473,32.752,5.851,8.398,8.521
1641,0.859,35.198,19.649,34.434,32.741,5.81,8.316,8.398
1642,0.836,34.94,19.72,34.444,32.744,5.769,8.356,8.438
1643,0.839,35.081,19.635,34.453,32.744,5.809,8.275,8.357
1644,0.836,35.207,19.669,34.434,32.748,5.81,8.355,8.356
1645,0.852,35.304,19.717,34.444,32.748,5.728,8.315,8.275
1646,0.843,34.903,19.631,34.453,32.744,5.809,8.315,8.274
1647,0.856,35.062,19.646,34.444,32.748,5.81,8.274,8.274
1648,0.856,35.178,19.677,34.444,32.748,5.688,8.274,8.111
1649,0.846,35.247,19.724,34.415,32.734,5.646,8.111,7.987
1650,0.849,34.892,19.627,34.405,32.737,5.523,8.028,8.027
1651,0.849,35.023,19.665,34.424,32.744,5.685,8.109,7.987
1652,0.872,35.159,19.674,34.444,32.741,5.727,8.109,7.986
1653,0.876,35.218,19.67,34.434,32.748,5.646,8.028,7.905
1654,0.866,35.017,19.631,34.425,32.734,5.645,8.027,7.782
1655,0.876,35.139,19.646,34.434,32.744,5.605,8.027,7.74
1656,0.879,35.246,19.634,34.425,32.741,5.564,7.987,7.699
1657,0.872,35.266,19.658,34.415,32.737,5.685,7.946,7.74
1658,0.885,34.969,19.689,34.396,32.748,5.687,7.986,7.781
1659,0.885,35.12,19.678,34.453,32.755,5.727,8.149,7.781
1660,0.898,35.265,19.623,34.473,32.755,5.809,7.988,7.618
1661,0.889,34.95,19.65,34.425,32.748,5.647,8.027,7.617
1662,0.889,34.957,19.705,34.434,32.744,5.686,7.865,7.576
1663,0.899,35.081,19.662,34.425,32.737,5.687,7.944,7.616
1664,0.899,35.198,19.685,34.424,32.744,5.646,7.945,7.576
1665,0.889,34.844,19.721,34.415,32.744,5.686,7.905,7.575
1666,0.879,34.965,19.698,34.482,32.744,5.768,7.945,7.616
1667,0.902,35.11,19.658,34.435,32.744,5.768,7.945,7.454
1668,0.895,35.198,19.74,34.425,32.744,5.647,7.986,7.493
1669,0.902,34.806,19.725,34.396,32.741,5.605,7.742,7.29
1670,0.899,34.926,19.604,34.376,32.734,5.604,7.862,7.369
1671,0.908,35.043,19.677,34.405,32.744,5.726,7.863,7.411
1672,0.915,35.13,19.646,34.424,32.748,5.768,7.944,7.33
1673,0.918,34.728,19.662,34.415,32.741,5.768,7.945,7.289
1674,0.922,34.878,19.666,34.405,32.741,5.768,7.986,7.288
1675,0.925,34.985,19.646,34.395,32.737,5.809,7.986,7.247
1676,0.918,35.034,19.627,34.395,32.741,5.769,8.068,7.206
1677,0.918,34.842,19.654,34.395,32.734,5.728,8.231,7.206
1678,0.918,34.965,19.673,34.405,32.737,5.768,8.355,7.165
1679,0.915,35.081,19.607,34.415,32.744,5.85,8.559,7.287
1680,0.915,35.159,19.646,34.472,32.758,5.891,8.805,7.329
1681,0.935,35.333,19.689,34.454,32.758,5.933,8.848,7.126
1682,0.928,35.43,19.662,34.415,32.748,5.892,8.889,7.205
1683,0.909,35.527,19.65,34.396,32.741,5.892,9.012,7.165
1684,0.905,34.79,19.654,34.395,32.741,5.933,9.135,7.165
1685,0.921,34.466,19.67,34.415,32.741,5.892,9.177,7.124
1686,0.912,34.626,19.693,34.405,32.744,5.892,9.259,7.124
1687,0.931,34.742,19.701,34.415,32.748,5.973,9.341,7.124
1688,0.918,34.619,19.772,34.405,32.751,5.974,9.342,7.043
1689,0.938,34.742,19.675,34.405,32.741,6.015,9.342,7.001
1690,0.951,34.878,19.549,34.405,32.741,5.852,9.301,6.919
1691,0.954,34.966,19.653,34.386,32.731,5.81,9.138,6.837
1692,0.954,34.592,19.607,34.367,32.734,5.891,9.217,6.837
1693,0.945,34.771,19.65,34.386,32.744,5.933,9.218,6.958
1694,0.958,34.907,19.701,34.405,32.744,5.974,9.259,6.919
1695,0.964,34.975,19.611,34.386,32.748,5.893,9.178,6.919
1696,0.981,34.64,19.634,34.386,32.744,6.014,9.096,6.796
1697,0.964,34.771,19.677,34.386,32.737,6.015,9.095,6.836
1698,0.974,34.916,19.689,34.386,32.737,5.934,8.973,6.796
1699,0.971,34.966,19.592,34.376,32.737,5.933,8.931,6.795
1700,0.971,34.544,19.622,34.376,32.734,5.974,8.931,6.795
1701,0.964,34.694,19.634,34.395,32.748,6.096,9.012,6.917
1702,0.977,34.81,19.607,34.415,32.751,6.138,9.013,7.041
1703,0.997,34.898,19.677,34.434,32.751,6.138,8.85,6.879
1704,0.991,34.726,19.693,34.415,32.745,6.057,8.727,6.837
1705,0.987,34.83,19.705,34.396,32.741,6.056,8.766,6.796
1706,0.984,34.955,19.709,34.415,32.741,6.056,8.726,6.877
1707,0.987,34.803,19.701,34.415,32.744,6.137,8.685,6.877
1708,0.991,34.629,19.729,34.415,32.748,6.098,8.603,6.796
1709,1.007,34.742,19.666,34.405,32.751,6.138,8.562,6.836
1710,1.007,34.839,19.666,34.482,32.748,6.138,8.48,6.877
1711,1.017,34.582,19.662,34.387,32.744,6.057,8.398,6.715
1712,1.02,34.694,19.658,34.367,32.737,6.015,8.234,6.713
1713,1.014,34.81,19.65,34.395,32.737,5.974,8.192,6.713
1714,1.023,34.888,19.658,34.376,32.737,6.015,8.273,6.754
1715,1.036,34.515,19.685,34.386,32.741,6.096,8.193,6.754
1716,1.04,34.665,19.643,34.395,32.741,6.016,8.232,6.673
1717,1.04,34.781,19.669,34.386,32.737,6.056,8.192,6.672
1718,1.056,34.869,19.732,34.367,32.737,5.975,8.151,6.672
1719,1.037,34.467,19.659,34.386,32.737,5.974,8.069,6.631
1720,1.024,34.597,19.631,34.443,32.737,6.015,8.109,6.59
1721,1.027,34.713,19.607,34.377,32.734,5.974,7.987,6.712
1722,1.023,34.772,19.642,34.376,32.748,6.055,8.108,6.794
1723,1.027,34.59,19.642,34.395,32.758,6.137,8.15,6.795
1724,1.043,34.771,19.662,34.443,32.762,6.138,8.232,6.795
1725,1.05,34.849,19.681,34.396,32.748,6.016,8.151,6.673
1726,1.04,34.898,19.654,34.386,32.744,6.015,8.11,6.713
1727,1.046,35.225,19.662,34.386,32.744,5.974,8.109,6.632
1728,1.066,35.333,19.689,34.395,32.748,6.055,8.109,6.753
1729,1.086,35.459,19.67,34.395,32.744,6.056,8.15,6.714
1730,1.092,35.259,19.615,34.395,32.748,6.015,8.191,6.632
1731,1.099,34.193,19.654,34.405,32.748,6.056,8.192,6.631
1732,1.115,34.335,19.685,34.405,32.751,6.097,8.151,6.631
1733,1.115,34.423,19.701,34.395,32.745,5.975,8.191,6.509
1734,1.119,34.692,19.686,34.376,32.737,5.852,7.988,6.549
1735,1.129,34.82,19.674,34.366,32.737,5.973,8.068,6.549
1736,1.132,34.965,19.685,34.405,32.744,6.055,8.109,6.508
1737,1.138,35.072,19.658,34.395,32.744,6.015,8.069,6.508
1738,1.148,34.526,19.701,34.376,32.744,6.015,7.987,6.589
1739,1.132,34.674,19.615,34.386,32.741,6.096,7.986,6.549
1740,1.129,34.791,19.63,34.386,32.744,6.056,7.905,6.508
1741,1.148,34.888,19.642,34.386,32.737,6.137,7.863,6.589
1742,1.152,34.688,19.623,34.376,32.734,6.098,7.904,6.468
1743,1.155,34.829,19.665,34.386,32.737,6.138,7.863,6.507
1744,1.155,34.965,19.685,34.395,32.744,6.26,7.863,6.549
1745,1.168,35.043,19.709,34.405,32.751,6.302,7.863,6.63
1746,1.158,34.91,19.694,34.415,32.745,6.221,7.822,6.59
1747,1.165,35.004,19.662,34.415,32.744,6.139,7.741,6.549
1748,1.161,35.12,19.716,34.405,32.744,6.219,7.781,6.549
1749,1.168,35.16,19.643,34.386,32.748,6.261,7.7,6.468
1750,1.178,35.083,19.548,34.395,32.748,6.221,7.74,6.629
1751,1.184,35.217,19.629,34.405,32.751,6.22,7.618,6.55
1752,1.197,35.324,19.685,34.415,32.745,6.22,7.779,6.549
1753,1.217,35.708,19.713,34.405,32.741,6.261,7.7,6.468
1754,1.201,35.214,19.701,34.376,32.737,6.139,7.496,6.345
1755,1.198,35.314,19.693,34.357,32.734,5.976,7.453,6.384
1756,1.198,35.43,19.643,34.376,32.737,6.137,7.574,6.385
1757,1.207,35.345,19.697,34.386,32.744,6.138,7.575,6.385
1758,1.214,35.45,19.705,34.376,32.744,6.138,7.575,6.385
1759,1.214,35.575,19.654,34.386,32.741,6.098,7.535,6.385
1760,1.208,35.663,19.697,34.443,32.737,6.097,7.616,6.385
1761,1.207,35.587,19.67,34.377,32.748,6.097,7.576,6.385
1762,1.198,35.721,19.662,34.357,32.738,6.097,7.616,6.385
1763,1.214,35.847,19.638,34.385,32.748,6.3,7.698,6.547
1764,1.224,35.963,19.654,34.414,32.758,6.302,7.699,6.508
1765,1.234,35.772,19.673,34.396,32.752,6.18,7.658,6.427
1766,1.217,35.914,19.623,34.386,32.745,6.22,7.617,6.385
1767,1.217,36.031,19.658,34.405,32.744,6.22,7.657,6.425
1768,1.224,36.089,19.666,34.395,32.751,6.22,7.658,6.385
1769,1.24,36.071,19.623,34.376,32.745,6.261,7.617,6.385
1770,1.257,36.214,19.599,34.386,32.744,6.262,7.698,6.385
1771,1.257,36.331,19.661,34.376,32.748,6.302,7.74,6.425
1772,1.26,36.37,19.689,34.386,32.744,6.302,7.699,6.385
1773,1.26,36.332,19.674,34.376,32.744,6.262,7.658,6.385
1774,1.257,36.457,19.685,34.376,32.741,6.262,7.576,6.222
1775,1.247,36.516,19.689,34.338,32.734,6.18,7.535,6.424
1776,1.253,36.545,19.658,34.347,32.741,6.22,7.738,6.344
1777,1.263,36.632,19.693,34.366,32.744,6.261,7.659,6.343
1778,1.27,36.767,19.697,34.357,32.744,6.18,7.739,6.303
1779,1.26,36.854,19.682,34.366,32.741,6.22,7.74,6.262
1780,1.247,36.865,19.561,34.386,32.744,6.139,7.659,6.262
1781,1.24,36.932,19.669,34.367,32.737,6.26,7.698,6.262
1782,1.227,37.057,19.638,34.357,32.737,6.099,7.658,6.262
1783,1.224,37.135,19.654,34.347,32.741,6.178,7.698,6.262
1784,1.227,37.117,19.662,34.357,32.741,6.22,7.78,6.384
1785,1.234,37.251,19.685,34.385,32.751,6.302,7.862,6.425
1786,1.256,37.406,19.685,34.424,32.758,6.343,7.904,6.426
1787,1.26,37.494,19.67,34.396,32.748,6.221,7.742,6.426
1788,1.26,37.571,19.709,34.367,32.744,6.22,7.74,6.344
1789,1.263,37.677,19.678,34.386,32.737,6.139,7.781,6.303
1790,1.257,37.803,19.588,34.376,32.748,6.179,7.781,6.343
1791,1.25,37.852,19.634,34.376,32.744,6.139,7.74,6.343
1792,1.25,37.69,19.634,34.366,32.748,6.138,7.781,6.384
1793,1.25,37.832,19.607,34.386,32.744,6.179,7.862,6.303
1794,1.247,37.939,19.646,34.386,32.751,6.139,7.782,6.343
1795,1.247,37.959,19.673,34.367,32.751,6.138,7.862,6.303
1796,1.25,37.988,19.67,34.366,32.745,6.138,7.782,6.221
1797,1.253,38.065,19.697,34.357,32.734,6.057,7.822,6.18
1798,1.257,38.171,19.725,34.347,32.741,6.056,7.863,6.179
1799,1.247,38.182,19.678,34.366,32.741,6.056,7.944,6.22
1800,1.227,38.345,19.689,34.357,32.748,6.056,7.986,6.18
1801,1.247,38.481,19.705,34.366,32.744,6.056,7.986,6.261
1802,1.234,38.569,19.678,34.357,32.744,6.097,8.108,6.262
1803,1.211,38.502,19.662,34.376,32.741,6.056,8.15,6.18
1804,1.214,38.502,19.662,34.347,32.737,5.975,8.11,6.22
1805,1.204,38.617,19.67,34.347,32.737,5.974,8.191,6.22
1806,1.194,38.704,19.666,34.366,32.744,6.015,8.314,6.302
1807,1.178,38.734,19.685,34.376,32.758,6.137,8.437,6.384
1808,1.171,38.868,19.717,34.405,32.758,6.179,8.438,6.344
1809,1.191,38.985,19.686,34.386,32.748,5.976,8.438,6.303
1810,1.178,39.034,19.635,34.405,32.744,6.015,8.438,6.262
1811,1.162,38.891,19.669,34.367,32.748,6.056,8.519,6.221
1812,1.161,39.023,19.662,34.366,32.744,5.975,8.439,6.22
1813,1.152,39.14,19.677,34.376,32.748,6.015,8.519,6.22
1814,1.145,39.199,19.662,34.395,32.751,6.015,8.479,6.302
1815,1.129,39.122,19.666,34.376,32.748,6.015,8.52,6.221
1816,1.142,39.246,19.666,34.376,32.748,6.015,8.479,6.302
1817,1.129,39.372,19.642,34.347,32.744,5.974,8.438,6.18
1818,1.119,39.373,19.666,34.347,32.734,5.852,8.397,6.098
1819,1.112,39.22,19.638,34.328,32.734,5.851,8.275,6.097
1820,1.086,39.343,19.642,34.347,32.744,5.891,8.355,6.219
1821,1.086,39.45,19.662,34.357,32.744,5.973,8.356,6.18
1822,1.066,39.47,19.693,34.357,32.744,5.933,8.356,6.139
1823,1.066,39.576,19.697,34.366,32.748,5.892,8.397,6.26
1824,1.05,39.692,19.693,34.347,32.744,5.892,8.316,6.139
1825,1.046,39.77,19.732,34.347,32.744,5.851,8.274,6.179
1826,1.033,39.598,19.686,34.357,32.734,5.769,8.193,6.139
1827,1.007,39.51,19.678,34.347,32.737,5.809,8.273,6.301
1828,1.004,39.615,19.689,34.347,32.744,5.972,8.314,6.343
1829,1.004,39.731,19.658,34.385,32.751,5.933,8.396,6.425
1830,1.02,39.732,19.595,34.395,32.751,5.933,8.356,6.344
1831,1.01,39.837,19.618,34.386,32.745,5.811,8.193,6.262
1832,1.004,39.944,19.622,34.376,32.744,5.891,8.273,6.302
1833,0.991,40.002,19.65,34.376,32.748,5.892,8.274,6.221
1834,0.984,39.735,19.67,34.357,32.744,5.851,8.193,6.302
1835,0.984,39.876,19.654,34.366,32.748,5.851,8.232,6.302
1836,0.978,39.983,19.646,34.366,32.744,5.851,8.273,6.302
1837,0.971,40.051,19.654,34.376,32.748,5.891,8.233,6.262
1838,0.958,39.764,19.701,34.366,32.744,5.973,8.192,6.384
1839,0.948,39.895,19.658,34.376,32.751,5.811,8.192,6.303
1840,0.932,39.973,19.592,34.347,32.738,5.769,8.029,6.221
1841,0.925,40.003,19.614,34.328,32.734,5.768,8.109,6.261
1842,0.915,39.936,19.638,34.356,32.748,5.85,8.109,6.302
1843,0.912,40.069,19.603,34.357,32.744,5.851,8.109,6.302
1844,0.905,40.176,19.653,34.347,32.748,5.81,8.15,6.221
1845,0.905,40.177,19.716,34.366,32.744,5.769,7.988,6.302
1846,0.895,39.909,19.565,34.366,32.741,5.931,7.986,6.302
1847,0.892,40.021,19.665,34.347,32.737,5.852,7.946,6.302
1848,0.886,40.137,19.705,34.347,32.737,5.851,7.945,6.302
1849,0.889,40.139,19.713,34.347,32.744,5.891,8.067,6.384
1850,0.902,40.062,19.639,34.376,32.751,6.014,8.069,6.507
1851,0.908,40.224,19.685,34.405,32.751,6.015,8.028,6.345
1852,0.902,40.293,19.709,34.376,32.755,5.893,7.987,6.343
1853,0.886,40.035,19.686,34.376,32.738,5.892,8.027,6.262
1854,0.889,40.138,19.631,34.357,32.744,5.892,7.987,6.302
1855,0.899,40.254,19.665,34.366,32.744,5.933,7.946,6.343
1856,0.895,40.322,19.635,34.366,32.748,5.811,8.067,6.262
1857,0.886,39.882,19.646,34.376,32.748,5.85,8.109,6.302
1858,0.885,40.002,19.685,34.366,32.755,5.891,8.272,6.262
1859,0.869,40.109,19.627,34.366,32.751,5.973,8.355,6.221
1860,0.853,40.196,19.56,34.357,32.745,5.811,8.275,6.18
1861,0.843,40.043,19.614,34.328,32.737,5.769,8.314,6.139
1862,0.849,40.186,19.654,34.366,32.744,5.85,8.559,6.26
1863,0.836,40.302,19.642,34.376,32.737,5.851,8.643,6.221
1864,0.849,40.351,19.65,34.357,32.744,5.851,8.644,6.22
1865,0.859,39.949,19.72,34.366,32.741,5.851,8.765,6.18
1866,0.849,40.089,19.616,34.357,32.744,5.769,8.726,6.179
1867,0.853,40.196,19.654,34.347,32.737,5.809,8.807,6.179
1868,0.849,40.206,19.701,34.337,32.737,5.81,8.848,6.261
1869,0.862,40.005,19.682,34.347,32.734,5.85,8.93,6.262
1870,0.859,40.128,19.635,34.347,32.741,6.013,9.012,6.302
1871,0.872,40.244,19.662,34.395,32.762,6.137,9.094,6.302
1872,0.876,40.351,19.693,34.386,32.755,6.016,9.014,6.262
1873,0.869,40.102,19.658,34.376,32.741,5.974,8.972,6.302
1874,0.856,40.225,19.658,34.366,32.744,5.933,8.972,6.302
1875,0.853,40.303,19.709,34.376,32.744,6.014,8.972,6.302
1876,0.846,39.929,19.654,34.357,32.744,6.015,9.094,6.262
1877,0.843,40.021,19.681,34.366,32.744,5.974,9.054,6.221
1878,0.846,40.109,19.697,34.366,32.751,6.055,9.054,6.261
1879,0.843,40.196,19.654,34.386,32.751,6.097,9.054,6.221
1880,0.836,39.861,19.541,34.367,32.751,6.016,9.013,6.18
1881,0.826,39.982,19.645,34.357,32.738,5.974,8.891,6.139
1882,0.836,40.06,19.627,34.328,32.734,5.974,8.93,6.138
1883,0.826,40.147,19.638,34.414,32.751,6.055,8.972,6.219
1884,0.833,39.803,19.634,34.357,32.745,5.975,9.013,6.22
1885,0.836,39.905,19.662,34.366,32.741,6.055,8.972,6.18
1886,0.833,40.031,19.662,34.366,32.744,6.056,8.891,6.22
1887,0.839,40.09,19.67,34.366,32.744,6.097,8.89,6.18
1888,0.836,39.956,19.717,34.366,32.734,5.975,8.89,6.179
1889,0.839,40.07,19.717,34.366,32.734,5.974,8.89,6.139
1890,0.839,40.205,19.627,34.357,32.741,6.096,8.849,6.219
1891,0.839,40.216,19.708,34.385,32.751,6.097,8.93,6.302
1892,0.849,39.976,19.764,34.395,32.758,6.178,8.972,6.302
1893,0.859,40.108,19.71,34.395,32.745,6.017,8.85,6.18
1894,0.853,40.167,19.69,34.367,32.744,6.015,8.767,6.261
1895,0.846,40.417,19.619,34.376,32.744,6.056,8.726,6.221
1896,0.843,39.873,19.615,34.366,32.744,6.056,8.644,6.22
1897,0.839,39.992,19.673,34.357,32.748,6.015,8.603,6.261
1898,0.849,40.08,19.685,34.366,32.738,6.056,8.643,6.18
1899,0.846,39.812,19.643,34.366,32.748,6.056,8.644,6.179
1900,0.846,39.905,19.666,34.376,32.748,6.056,8.521,6.139
1901,0.853,40.021,19.701,34.366,32.751,6.056,8.479,6.219
1902,0.827,40.09,19.651,34.357,32.738,5.975,8.398,6.058
1903,0.823,39.822,19.67,34.328,32.734,5.933,8.356,6.056
1904,0.813,39.944,19.674,34.347,32.737,5.974,8.397,6.178
1905,0.823,40.05,19.627,34.366,32.748,5.974,8.438,6.139
1906,0.82,40.128,19.661,34.376,32.744,5.974,8.438,6.138
1907,0.813,39.678,19.666,34.357,32.744,5.893,8.397,6.098
1908,0.82,39.789,19.693,34.347,32.741,5.892,8.356,6.056
1909,0.833,39.924,19.592,34.357,32.741,5.892,8.397,6.097
1910,0.839,39.974,19.63,34.357,32.737,5.892,8.356,6.016
1911,0.846,39.696,19.65,34.337,32.741,5.892,8.397,6.096
1912,0.853,39.827,19.681,34.356,32.741,5.933,8.519,6.26
1913,0.859,39.982,19.717,34.395,32.755,6.014,8.642,6.343
1914,0.862,40.012,19.701,34.405,32.755,5.893,8.562,6.221
1915,0.862,39.754,19.647,34.386,32.751,5.892,8.48,6.098
1916,0.853,39.866,19.673,34.357,32.745,5.851,8.438,6.138
1917,0.853,39.963,19.689,34.357,32.751,5.851,8.438,6.138
1918,0.849,40.118,19.705,34.347,32.745,5.891,8.479,6.098
1919,0.846,39.745,19.658,34.366,32.744,5.892,8.52,6.138
1920,0.833,39.876,19.611,34.366,32.751,5.851,8.439,6.179
1921,0.83,39.963,19.618,34.376,32.748,5.851,8.397,6.139
1922,0.83,39.763,19.611,34.366,32.748,5.891,8.438,6.138
1923,0.833,39.79,19.626,34.366,32.741,5.77,8.316,6.057
1924,0.826,39.886,19.63,34.347,32.731,5.809,8.274,5.975
1925,0.807,39.954,19.646,34.328,32.734,5.769,8.274,6.096
1926,0.823,39.504,19.646,34.347,32.744,5.85,8.233,6.138
1927,0.833,39.634,19.654,34.347,32.748,5.81,8.192,6.057
1928,0.836,39.731,19.728,34.337,32.741,5.85,8.11,6.056
1929,0.852,39.809,19.631,34.347,32.741,5.81,8.069,6.097
1930,0.849,39.512,19.658,34.357,32.737,5.769,8.069,6.056
1931,0.856,39.634,19.662,34.337,32.737,5.768,7.987,6.056
1932,0.853,39.74,19.681,34.337,32.734,5.768,8.027,6.056
1933,0.859,39.799,19.685,34.337,32.741,5.809,8.068,6.137
1934,0.869,39.589,19.705,34.366,32.755,5.932,8.15,6.341
1935,0.863,39.759,19.67,34.395,32.758,5.974,8.11,6.221
1936,0.872,39.886,19.681,34.386,32.752,5.852,8.069,6.139
1937,0.863,39.868,19.713,34.338,32.748,5.851,8.069,6.179
1938,0.856,39.465,19.705,34.376,32.741,5.729,7.987,6.139
1939,0.849,39.595,19.627,34.347,32.741,5.768,8.027,6.179
1940,0.836,39.683,19.654,34.347,32.744,5.728,8.027,6.179
1941,0.839,39.693,19.654,34.357,32.744,5.727,8.027,6.179
1942,0.839,39.578,19.681,34.357,32.741,5.809,7.987,6.22
1943,0.836,39.711,19.662,34.366,32.751,5.769,7.946,6.139
1944,0.833,39.808,19.677,34.357,32.745,5.768,7.945,6.179
1945,0.843,39.474,19.666,34.347,32.734,5.768,7.864,6.098
1946,0.846,39.422,19.654,34.337,32.737,5.606,7.782,6.097
1947,0.84,39.547,19.67,34.328,32.734,5.645,7.822,6.178
1948,0.846,39.625,19.693,34.337,32.744,5.767,7.822,6.179
1949,0.872,39.433,19.631,34.356,32.737,5.728,7.822,6.139
1950,0.885,39.575,19.47,34.366,32.737,5.768,7.822,6.098
1951,0.866,39.682,19.613,34.338,32.737,5.728,7.781,6.219
1952,0.872,39.731,19.646,34.347,32.744,5.687,7.781,6.18
1953,0.869,39.176,19.697,34.328,32.744,5.687,7.74,6.179
1954,0.869,39.276,19.686,34.328,32.741,5.646,7.781,6.261
1955,0.869,39.392,19.685,34.347,32.741,5.727,7.822,6.302
1956,0.872,39.479,19.685,34.366,32.751,5.768,7.944,6.384
1957,0.869,39.365,19.709,34.376,32.751,5.768,7.945,6.425
1958,0.872,39.498,19.729,34.357,32.748,5.687,7.864,6.263
1959,0.846,39.595,19.663,34.328,32.751,5.727,7.904,6.302
1960,0.84,39.635,19.642,34.356,32.751,5.687,7.782,6.262
1961,0.839,39.156,19.662,34.347,32.738,5.646,7.944,6.302
1962,0.839,39.285,19.662,34.347,32.748,5.686,7.986,6.302
1963,0.839,39.382,19.631,34.357,32.741,5.727,7.946,6.384
1964,0.833,39.393,19.677,34.347,32.751,5.768,8.026,6.344
1965,0.836,39.172,19.674,34.357,32.751,5.728,8.027,6.343
1966,0.833,39.323,19.639,34.357,32.748,5.646,7.865,6.303
1967,0.826,39.421,19.662,34.328,32.731,5.564,7.822,6.18
1968,0.82,39.163,19.697,34.328,32.73,5.563,7.863,6.301
1969,0.83,39.132,19.65,34.356,32.744,5.726,7.944,6.343
1970,0.849,39.266,19.552,34.366,32.741,5.727,7.823,6.343
1971,0.846,39.363,19.622,34.347,32.741,5.646,7.863,6.262
1972,0.853,38.884,19.654,34.357,32.737,5.686,7.822,6.302
1973,0.856,38.995,19.666,34.337,32.737,5.727,7.863,6.343
1974,0.846,39.101,19.685,34.347,32.737,5.687,7.822,6.303
1975,0.853,39.179,19.6,34.328,32.737,5.646,7.741,6.302
1976,0.853,38.93,19.634,34.328,32.737,5.767,7.862,6.384
1977,0.859,39.072,19.708,34.366,32.748,5.809,7.944,6.507
1978,0.869,39.207,19.725,34.386,32.762,5.932,7.945,6.467
1979,0.863,39.276,19.608,34.376,32.748,5.852,7.864,6.345
1980,0.853,38.778,19.661,34.357,32.744,5.81,7.863,6.343
1981,0.849,38.907,19.701,34.357,32.744,5.85,7.782,6.425
1982,0.84,39.014,19.697,34.366,32.737,5.891,7.862,6.304
1983,0.836,39.063,19.697,34.366,32.748,5.851,7.863,6.343
1984,0.836,38.9,19.713,34.357,32.751,5.891,7.822,6.425
1985,0.843,39.043,19.674,34.357,32.745,5.973,7.781,6.385
1986,0.849,39.178,19.681,34.366,32.748,5.974,7.903,6.385
1987,0.843,39.17,19.643,34.366,32.748,5.893,7.823,6.385
1988,0.839,38.681,19.654,34.357,32.738,5.811,7.781,6.222
1989,0.839,38.772,19.549,34.337,32.734,5.769,7.74,6.261
1990,0.839,38.859,19.622,34.337,32.737,5.809,7.74,6.384
1991,0.846,38.735,19.661,34.356,32.741,5.85,7.821,6.303
1992,0.853,38.629,19.67,34.366,32.744,5.891,7.781,6.302
1993,0.862,38.752,19.685,34.357,32.744,5.892,7.822,6.221
1994,0.856,38.84,19.674,34.337,32.744,5.892,7.741,6.261
1995,0.853,38.572,19.631,34.347,32.737,5.851,7.74,6.262
1996,0.853,38.675,19.642,34.337,32.737,5.769,7.74,6.221
1997,0.853,38.791,19.677,34.328,32.741,5.809,7.781,6.302
1998,0.849,38.879,19.685,34.356,32.751,5.932,7.822,6.343
1999,0.84,38.438,19.553,34.376,32.751,5.974,7.944,6.466
2000,0.843,38.607,19.626,34.386,32.762,6.055,7.945,6.345
2001,0.853,38.714,19.669,34.376,32.741,5.853,7.823,6.262
2002,0.833,38.753,19.693,34.347,32.744,5.891,7.781,6.302
2003,0.83,38.456,19.67,34.347,32.744,5.892,7.862,6.302
2004,0.83,38.607,19.709,34.366,32.748,5.851,7.863,6.262
2005,0.836,38.704,19.623,34.366,32.744,5.81,7.904,6.262
2006,0.826,38.772,19.654,34.366,32.748,5.81,7.945,6.343
2007,0.826,38.389,19.697,34.357,32.744,5.85,7.945,6.343
2008,0.839,38.51,19.682,34.347,32.744,5.932,7.986,6.343
2009,0.839,38.626,19.611,34.366,32.751,5.892,7.946,6.181
2010,0.849,38.647,19.661,34.366,32.738,5.811,7.864,6.22
2011,0.853,38.407,19.705,34.338,32.734,5.728,7.822,6.139
2012,0.833,38.501,19.612,34.337,32.741,5.809,7.944,6.26
2013,0.836,38.607,19.634,34.356,32.744,5.85,8.026,6.302
2014,0.846,38.532,19.642,34.347,32.741,5.769,7.987,6.221
2015,0.846,38.234,19.603,34.347,32.741,5.85,8.068,6.302
2016,0.846,38.365,19.618,34.337,32.741,5.769,8.069,6.18
2017,0.83,38.452,19.665,34.328,32.734,5.768,8.069,6.139
2018,0.849,38.405,19.654,34.347,32.737,5.687,8.191,6.098
2019,0.843,38.53,19.654,34.404,32.737,5.768,8.192,6.178
2020,0.833,38.636,19.654,34.348,32.744,5.768,8.192,6.261
2021,0.833,38.743,19.693,34.376,32.751,5.931,8.354,6.343
2022,0.846,38.14,19.713,34.376,32.755,5.892,8.437,6.384
2023,0.849,38.277,19.686,34.376,32.755,5.811,8.397,6.263
2024,0.846,38.356,19.685,34.357,32.745,5.769,8.397,6.139
2025,0.846,38.414,19.646,34.347,32.748,5.85,8.478,6.219
2026,0.84,38.223,19.693,34.366,32.744,5.769,8.438,6.261
2027,0.83,38.336,19.697,34.347,32.744,5.728,8.479,6.221
2028,0.83,38.462,19.701,34.357,32.751,5.768,8.52,6.302
2029,0.843,38.53,19.654,34.376,32.741,5.728,8.479,6.262
2030,0.839,38.032,19.662,34.366,32.748,5.727,8.52,6.221
2031,0.843,38.142,19.709,34.347,32.744,5.727,8.439,6.22
2032,0.839,38.249,19.639,34.347,32.734,5.646,8.357,6.017
2033,0.83,38.259,19.626,34.328,32.727,5.564,8.315,6.137
2034,0.833,38.192,19.658,34.337,32.741,5.726,8.396,6.138
2035,0.826,38.336,19.576,34.366,32.741,5.727,8.397,6.219
2036,0.836,38.452,19.645,34.347,32.741,5.687,8.316,6.18
2037,0.836,38.54,19.673,34.318,32.741,5.727,8.315,6.098
2038,0.846,38.071,19.623,34.328,32.731,5.768,8.274,6.056
2039,0.83,38.181,19.622,34.337,32.734,5.647,8.274,6.015
2040,0.823,38.307,19.626,34.318,32.737,5.686,8.233,6.015
2041,0.817,38.087,19.677,34.337,32.741,5.687,8.273,6.096
2042,0.807,38.172,19.615,34.337,32.744,5.727,8.436,6.138
2043,0.82,38.316,19.634,34.356,32.755,5.85,8.438,6.26
2044,0.833,38.394,19.654,34.366,32.758,5.932,8.479,6.221
2045,0.852,38.098,19.681,34.366,32.748,5.77,8.357,6.139
2046,0.843,38.229,19.689,34.347,32.744,5.728,8.315,6.098
2047,0.823,38.326,19.693,34.347,32.741,5.768,8.315,6.219
2048,0.836,38.394,19.717,34.357,32.741,5.809,8.315,6.261
2049,0.839,37.954,19.647,34.357,32.748,5.81,8.315,6.139
2050,0.839,38.103,19.705,34.366,32.744,5.81,8.274,6.179
2051,0.826,38.21,19.701,34.357,32.751,5.81,8.274,6.179
2052,0.833,38.269,19.713,34.357,32.748,5.81,8.274,6.22
2053,0.839,38.145,19.647,34.347,32.748,5.728,8.193,6.139
2054,0.826,38.258,19.642,34.328,32.734,5.687,8.07,6.016
2055,0.83,38.346,19.623,34.318,32.734,5.687,8.109,6.096
2056,0.836,38.395,19.626,34.328,32.748,5.727,8.109,6.138
2057,0.843,38.04,19.681,34.347,32.741,5.727,8.028,6.138
2058,0.846,38.171,19.658,34.337,32.737,5.687,7.987,6.098
2059,0.846,38.268,19.552,34.347,32.741,5.646,7.986,6.138
2060,0.84,38.624,19.602,34.357,32.741,5.727,7.946,6.098
2061,0.82,38.119,19.634,34.337,32.737,5.646,7.905,6.138
2062,0.817,38.239,19.63,34.328,32.741,5.686,7.823,6.098
2063,0.803,38.346,19.665,34.337,32.737,5.687,7.985,6.178
2064,0.813,38.059,19.674,34.356,32.755,5.809,7.986,6.22
2065,0.826,38.133,19.678,34.366,32.758,5.81,7.946,6.302
2066,0.833,38.239,19.662,34.386,32.745,5.728,7.823,6.18
2067,0.826,38.326,19.646,34.347,32.744,5.727,7.781,6.139
2068,0.817,38.116,19.662,34.347,32.741,5.768,7.74,6.179
2069,0.823,38.22,19.595,34.328,32.744,5.728,7.74,6.179
2070,0.843,38.345,19.646,34.347,32.741,5.727,7.699,6.179
2071,0.843,38.414,19.677,34.328,32.744,5.727,7.78,6.139
2072,0.853,38.002,19.697,34.347,32.748,5.768,7.74,6.179
2073,0.849,38.151,19.682,34.366,32.744,5.768,7.821,6.139
2074,0.856,38.268,19.756,34.347,32.744,5.728,7.822,6.179
2075,0.846,38.327,19.632,34.347,32.741,5.768,8.025,6.098
2076,0.84,38.04,19.665,34.318,32.737,5.647,7.905,5.975
2077,0.826,38.142,19.713,34.308,32.737,5.483,8.026,6.096
2078,0.826,38.239,19.639,34.327,32.744,5.684,8.19,6.056
2079,0.826,38.298,19.634,34.337,32.741,5.646,8.273,6.056
2080,0.81,38.059,19.615,34.347,32.741,5.686,8.274,6.097
2081,0.81,38.171,19.654,34.337,32.744,5.687,8.355,6.097
2082,0.81,38.287,19.611,34.318,32.744,5.687,8.315,6.056
2083,0.81,38.308,19.63,34.318,32.737,5.646,8.356,6.015
2084,0.813,38.02,19.677,34.318,32.734,5.645,8.397,6.015
2085,0.813,38.142,19.607,34.337,32.744,5.605,8.438,6.056
2086,0.797,38.268,19.685,34.347,32.741,5.726,8.56,6.137
2087,0.79,37.991,19.701,34.366,32.758,5.809,8.602,6.179
2088,0.81,37.998,19.666,34.386,32.758,5.769,8.602,6.139
2089,0.826,38.142,19.662,34.367,32.738,5.728,8.44,6.138
2090,0.813,38.191,19.67,34.347,32.741,5.646,8.479,6.098
2091,0.813,37.99,19.709,34.347,32.744,5.645,8.479,6.016
2092,0.813,38.123,19.713,34.347,32.744,5.686,8.438,6.137
2093,0.816,38.229,19.697,34.347,32.744,5.727,8.438,6.138
2094,0.816,38.317,19.717,34.357,32.748,5.727,8.397,6.098
2095,0.816,37.944,19.686,34.443,32.744,5.687,8.397,6.138
2096,0.816,38.084,19.635,34.329,32.751,5.727,8.397,6.098
2097,0.816,38.191,19.677,34.347,32.745,5.687,8.275,6.056
2098,0.82,38.249,19.658,34.337,32.737,5.687,8.193,5.975
2099,0.807,37.809,19.65,34.318,32.73,5.605,8.232,6.055
2100,0.787,37.967,19.662,34.328,32.741,5.645,8.273,6.056
2101,0.793,38.084,19.693,34.347,32.744,5.727,8.274,6.056
2102,0.803,38.143,19.67,34.337,32.741,5.687,8.193,6.056
2103,0.8,37.952,19.646,34.347,32.737,5.687,8.11,6.097
2104,0.81,38.103,19.673,34.328,32.741,5.646,8.109,5.975
2105,0.803,38.191,19.584,34.337,32.741,5.727,8.028,5.974
2106,0.8,38.201,19.626,34.337,32.731,5.687,7.987,6.015
2107,0.8,37.827,19.654,34.347,32.737,5.646,8.108,6.096
2108,0.787,37.977,19.642,34.337,32.744,5.727,8.191,6.178
2109,0.803,38.094,19.646,34.433,32.751,5.85,8.273,6.139
2110,0.816,37.97,19.642,34.396,32.758,5.81,8.274,6.098
2111,0.823,37.988,19.666,34.376,32.745,5.728,8.274,6.097
2112,0.817,38.075,19.666,34.376,32.751,5.687,8.274,6.016
2113,0.833,38.162,19.685,34.357,32.745,5.768,8.274,6.056
2114,0.83,37.75,19.725,34.357,32.744,5.728,8.314,6.097
2115,0.839,37.852,19.62,34.376,32.744,5.809,8.315,6.016
2116,0.836,37.987,19.642,34.357,32.744,5.81,8.396,6.056
2117,0.833,38.065,19.728,34.357,32.748,5.769,8.397,6.097
2118,0.839,37.778,19.717,34.357,32.748,5.809,8.438,6.097
2119,0.82,37.919,19.58,34.366,32.744,5.769,8.316,6.056
2120,0.807,38.045,19.669,34.357,32.744,5.768,8.274,5.975
2121,0.807,38.085,19.689,34.328,32.731,5.606,8.193,5.933
2122,0.8,37.682,19.65,34.328,32.734,5.686,8.232,5.974
2123,0.803,37.851,19.646,34.356,32.741,5.727,8.151,6.055
2124,0.8,37.968,19.638,34.366,32.744,5.768,8.191,6.056
2125,0.79,38.007,19.607,34.347,32.734,5.687,8.192,5.975
2126,0.79,37.778,19.607,34.347,32.741,5.727,8.11,6.015
2127,0.78,37.881,19.673,34.337,32.737,5.727,8.191,6.015
2128,0.803,37.987,19.693,34.347,32.73,5.687,8.11,5.974
2129,0.803,38.017,19.615,34.366,32.741,5.687,8.232,6.137
2130,0.803,37.739,19.646,34.376,32.751,5.768,8.273,6.179
2131,0.82,37.89,19.634,34.386,32.758,5.85,8.314,6.139
2132,0.826,38.007,19.685,34.376,32.752,5.81,8.193,6.057
2133,0.826,37.845,19.654,34.347,32.745,5.85,8.192,6.056
2134,0.826,37.728,19.666,34.347,32.748,5.81,8.192,6.137
2135,0.833,37.861,19.592,34.366,32.748,5.769,8.232,6.057
2136,0.843,37.949,19.642,34.357,32.744,5.809,8.233,6.056
2137,0.843,37.518,19.732,34.347,32.748,5.769,8.314,6.097
2138,0.83,37.61,19.69,34.366,32.751,5.85,8.274,6.056
2139,0.817,37.735,19.662,34.405,32.751,5.81,8.274,6.056
2140,0.816,37.832,19.685,34.367,32.745,5.769,8.274,6.056
2141,0.813,37.546,19.705,34.347,32.734,5.768,8.03,5.975
2142,0.8,37.677,19.705,34.337,32.73,5.768,8.068,6.055
2143,0.794,37.793,19.697,34.356,32.737,5.809,8.109,6.056
2144,0.8,37.881,19.705,34.366,32.734,5.81,8.15,6.015
2145,0.803,37.489,19.615,34.357,32.734,5.85,8.11,6.056
2146,0.803,37.629,19.615,34.337,32.734,5.81,8.109,6.015
2147,0.8,37.735,19.685,34.366,32.744,5.728,7.987,6.096
2148,0.803,37.784,19.635,34.347,32.734,5.768,8.027,5.975
2149,0.794,37.44,19.505,34.347,32.737,5.809,8.027,6.015
2150,0.8,37.561,19.613,34.347,32.737,5.81,7.987,6.137
