time,ecg,bvp,gsr,rsp,skt,emg_zygo,emg_coru,emg_trap
0,0.741,37.31,27.313,42.129,29.162,21.25,8.149,8.602
1,0.734,37.195,27.252,42.053,29.158,21.373,7.988,8.48
2,0.747,37.367,27.314,42.09,29.172,21.862,8.149,8.642
3,0.754,37.493,27.342,42.091,29.169,22.192,8.11,8.603
4,0.757,37.494,27.33,42.091,29.169,22.399,8.15,8.684
5,0.77,37.053,27.244,42.091,29.169,22.604,8.15,8.522
6,0.761,37.193,27.271,42.11,29.179,22.769,8.15,8.642
7,0.761,37.29,27.318,42.158,29.162,22.608,8.028,8.521
8,0.754,37.195,27.307,42.101,29.165,22.647,8.027,8.52
9,0.754,37.108,27.306,42.091,29.165,22.525,8.068,8.479
10,0.748,37.212,27.295,42.071,29.162,22.24,7.906,8.438
11,0.738,37.348,27.314,42.1,29.172,22.074,8.067,8.601
12,0.728,36.946,27.365,42.11,29.172,22.073,8.028,8.521
13,0.725,37.0,27.385,42.1,29.169,21.869,8.109,8.601
14,0.737,37.144,27.303,42.11,29.169,21.786,8.109,8.562
15,0.715,37.261,27.26,42.12,29.172,21.704,8.15,8.764
16,0.711,36.888,27.31,42.091,29.169,21.337,7.988,8.645
17,0.715,37.028,27.334,42.091,29.162,21.334,7.986,8.603
18,0.721,37.154,27.311,42.081,29.165,21.293,8.027,8.643
19,0.718,37.251,27.322,42.071,29.162,21.17,7.946,8.521
20,0.737,36.917,27.35,42.11,29.172,21.535,8.067,8.642
21,0.731,37.057,27.315,42.11,29.172,21.783,8.109,8.644
22,0.738,37.154,27.389,42.091,29.169,22.192,8.109,8.644
23,0.754,37.251,27.331,42.11,29.172,22.643,8.109,8.684
24,0.744,36.897,27.26,42.11,29.176,22.973,8.191,8.807
25,0.744,37.038,27.267,42.091,29.162,23.057,8.11,8.564
26,0.751,37.173,27.302,42.091,29.165,23.18,8.069,8.561
27,0.751,37.213,27.299,42.11,29.169,23.263,8.109,8.602
28,0.738,36.859,27.283,42.072,29.162,23.141,7.987,8.562
29,0.734,37.047,27.337,42.129,29.165,23.181,8.23,8.683
30,0.734,37.174,27.307,42.139,29.175,23.019,8.192,8.725
31,0.725,37.175,27.361,42.12,29.172,22.773,8.192,8.726
32,0.724,36.762,27.362,42.129,29.169,22.649,8.192,8.726
33,0.708,36.883,27.327,42.12,29.169,22.648,8.273,8.888
34,0.698,36.99,27.311,42.139,29.169,22.322,8.071,8.768
35,0.701,37.0,27.318,42.11,29.165,22.116,8.109,8.807
36,0.705,36.885,27.342,42.139,29.169,21.91,8.15,8.808
37,0.689,36.999,27.319,42.091,29.158,21.583,7.988,8.726
38,0.711,37.144,27.342,42.129,29.162,21.539,8.19,8.848
39,0.724,36.772,27.365,42.12,29.175,21.539,8.151,8.889
40,0.721,36.864,27.358,42.129,29.165,21.498,8.069,8.809
41,0.741,37.018,27.358,42.148,29.172,21.782,8.191,8.808
42,0.744,37.077,27.354,42.149,29.176,22.029,8.273,8.97
43,0.728,36.57,27.225,42.129,29.165,22.235,8.071,8.728
44,0.741,36.728,27.263,42.129,29.169,22.44,8.069,8.807
45,0.754,36.844,27.318,42.139,29.172,22.645,8.109,8.726
46,0.751,36.922,27.318,42.091,29.155,22.566,7.987,8.603
47,0.744,36.597,27.353,42.148,29.172,22.809,8.108,8.846
48,0.76,36.728,27.338,42.129,29.169,22.731,8.15,8.808
49,0.731,36.854,27.377,42.129,29.169,22.608,8.11,8.848
50,0.741,36.941,27.358,42.148,29.169,22.484,8.15,8.767
51,0.728,36.415,27.373,42.139,29.175,22.443,8.191,8.929
52,0.708,36.534,27.311,42.12,29.162,22.198,7.988,8.728
53,0.708,36.679,27.303,42.158,29.155,22.115,7.986,8.644
54,0.708,36.748,27.283,42.13,29.161,22.032,8.027,8.684
55,0.702,36.557,27.31,42.139,29.151,21.869,7.946,8.766
56,0.708,36.737,27.346,42.149,29.168,21.664,7.986,8.726
57,0.718,36.854,27.381,42.158,29.172,21.703,8.027,8.766
58,0.728,36.874,27.393,42.139,29.162,21.581,7.946,8.767
59,0.721,36.347,27.378,42.149,29.168,21.539,7.945,8.685
60,0.741,36.553,27.409,42.197,29.186,21.661,8.067,8.725
61,0.741,36.612,27.382,42.12,29.169,21.784,7.946,8.644
62,0.728,36.776,27.268,42.129,29.165,22.192,7.905,8.603
63,0.744,36.682,27.298,42.148,29.165,22.521,7.904,8.643
64,0.734,36.805,27.342,42.158,29.172,22.768,7.945,8.562
65,0.741,36.922,27.35,42.139,29.162,22.893,7.864,8.521
66,0.757,36.137,27.358,42.139,29.172,23.057,7.944,8.601
67,0.764,36.1,27.323,42.149,29.169,23.099,7.945,8.602
68,0.741,36.243,27.314,42.149,29.175,23.018,7.945,8.562
69,0.747,36.389,27.361,42.187,29.172,22.936,7.986,8.521
70,0.738,36.294,27.319,42.159,29.172,22.691,7.986,8.561
71,0.721,36.418,27.299,42.139,29.162,22.404,7.824,8.439
72,0.715,36.544,27.295,42.206,29.165,22.36,7.903,8.479
73,0.721,36.651,27.334,42.159,29.169,22.36,7.863,8.438
74,0.708,36.057,27.338,42.139,29.155,22.116,7.7,8.357
75,0.705,36.224,27.397,42.187,29.175,22.114,7.861,8.478
76,0.702,36.35,27.339,42.187,29.172,21.91,7.782,8.479
77,0.701,36.438,27.334,42.187,29.169,21.746,7.781,8.52
78,0.718,36.18,27.287,42.197,29.172,21.703,7.7,8.479
79,0.708,36.263,27.306,42.187,29.165,21.784,7.861,8.479
80,0.715,36.389,27.303,42.159,29.162,21.744,7.741,8.357
81,0.721,36.438,27.228,42.168,29.168,22.069,7.781,8.397
82,0.728,36.036,27.286,42.168,29.169,22.439,7.781,8.478
83,0.734,36.176,27.334,42.13,29.162,22.605,7.7,8.276
84,0.731,36.321,27.389,42.187,29.168,22.932,7.861,8.436
85,0.747,36.361,27.37,42.168,29.172,23.057,7.822,8.397
86,0.734,35.968,27.342,42.187,29.172,23.099,7.903,8.275
87,0.747,36.127,27.291,42.187,29.172,22.977,7.904,8.355
88,0.731,36.234,27.263,42.197,29.182,22.976,8.026,8.478
89,0.721,36.456,27.271,42.159,29.162,22.692,7.783,8.276
90,0.721,35.969,27.244,42.149,29.168,22.445,7.903,8.274
91,0.715,36.127,27.185,42.187,29.165,22.158,7.945,8.274
92,0.705,36.225,27.262,42.159,29.155,21.911,7.823,8.274
93,0.711,35.88,27.326,42.187,29.168,21.99,7.944,8.355
94,0.711,35.896,27.393,42.178,29.169,21.909,7.864,8.397
95,0.705,36.011,27.354,42.197,29.165,21.664,7.944,8.478
96,0.702,36.147,27.295,42.187,29.158,21.499,7.945,8.438
97,0.698,35.803,27.283,42.207,29.175,21.538,8.067,8.682
98,0.701,35.895,27.216,42.178,29.162,21.214,7.865,8.359
99,0.718,36.03,27.27,42.187,29.162,21.251,7.863,8.356
100,0.721,36.128,27.177,42.207,29.172,21.414,7.863,8.478
101,0.724,35.707,27.282,42.168,29.158,21.578,7.782,8.398
102,0.734,35.866,27.31,42.197,29.168,22.108,7.903,8.478
103,0.741,36.011,27.365,42.197,29.179,22.439,7.945,8.438
104,0.728,36.089,27.37,42.187,29.169,22.686,8.026,8.519
105,0.744,35.687,27.295,42.207,29.169,22.77,7.987,8.358
106,0.754,35.865,27.271,42.226,29.175,23.055,8.108,8.519
107,0.738,35.944,27.22,42.188,29.162,22.774,7.987,8.317
108,0.718,36.012,27.224,42.197,29.165,22.69,7.986,8.315
109,0.724,35.667,27.313,42.216,29.169,22.526,7.986,8.315
110,0.715,35.808,27.33,42.197,29.162,22.24,8.027,8.274
111,0.741,35.962,27.295,42.197,29.168,22.115,8.027,8.314
112,0.721,36.002,27.349,42.216,29.169,21.951,8.068,8.356
113,0.721,35.59,27.365,42.188,29.175,21.746,8.069,8.437
114,0.728,35.749,27.334,42.216,29.169,21.581,7.987,8.357
115,0.741,35.866,27.244,42.226,29.179,21.499,8.19,8.559
116,0.738,36.212,27.239,42.197,29.158,21.091,7.948,8.358
117,0.77,36.034,27.275,42.255,29.168,20.924,7.945,8.397
118,0.79,36.176,27.326,42.188,29.169,20.923,7.905,8.356
119,0.79,36.254,27.291,42.226,29.165,20.923,7.945,8.275
120,0.819,35.44,27.295,42.197,29.172,21.085,7.945,8.274
121,0.839,35.297,27.322,42.226,29.172,21.494,7.986,8.355
122,0.859,35.42,27.346,42.217,29.172,21.904,8.027,8.315
123,0.866,35.537,27.381,42.216,29.176,22.396,8.027,8.274
124,0.885,35.538,27.311,42.264,29.176,22.889,8.231,8.436
125,0.892,35.634,27.256,42.198,29.162,22.935,7.989,8.235
126,0.912,35.779,27.279,42.207,29.162,23.016,8.027,8.111
127,0.928,35.885,27.283,42.207,29.172,23.18,8.027,8.15
128,0.918,35.359,27.279,42.197,29.162,23.059,8.109,8.11
129,0.925,35.526,27.349,42.207,29.165,23.018,7.987,8.191
130,0.928,35.682,27.342,42.255,29.172,22.895,8.19,8.192
131,0.925,35.75,27.365,42.226,29.172,22.731,8.11,8.232
132,0.935,35.444,27.37,42.226,29.172,22.567,8.109,8.151
133,0.958,35.604,27.362,42.255,29.182,22.728,8.313,8.313
134,0.968,35.702,27.217,42.207,29.162,22.445,8.152,8.152
135,0.977,35.789,27.274,42.216,29.162,22.32,8.11,8.191
136,0.977,35.253,27.302,42.216,29.165,22.116,8.109,8.151
137,0.984,35.372,27.31,42.207,29.158,21.91,8.028,8.11
138,1.004,35.546,27.33,42.235,29.165,21.868,8.027,8.15
139,1.023,35.576,27.365,42.236,29.175,21.867,8.109,8.232
140,1.027,35.337,27.37,42.217,29.169,21.827,8.15,8.192
141,1.03,35.469,27.354,42.226,29.169,22.111,8.191,8.192
142,1.037,35.614,27.381,42.264,29.186,22.561,8.273,8.314
143,1.024,35.587,27.26,42.207,29.169,22.688,8.071,8.152
144,1.02,35.327,27.302,42.303,29.169,22.892,8.109,8.069
145,1.027,35.469,27.26,42.217,29.169,23.057,8.15,8.109
146,1.01,35.566,27.286,42.207,29.165,23.139,8.11,8.109
147,1.017,35.394,27.31,42.235,29.169,23.181,8.109,8.109
148,1.01,35.402,27.353,42.265,29.172,23.263,8.232,8.191
149,1.004,35.527,27.354,42.246,29.172,23.06,8.192,8.151
150,0.981,35.624,27.35,42.236,29.172,22.896,8.192,8.191
151,0.964,35.318,27.424,42.274,29.179,22.853,8.354,8.354
152,0.945,35.411,27.323,42.246,29.169,22.487,8.153,8.315
153,0.941,35.556,27.256,42.236,29.165,22.321,8.069,8.193
154,0.932,35.653,27.298,42.245,29.165,22.156,8.109,8.354
155,0.905,35.194,27.31,42.245,29.162,21.992,8.109,8.397
156,0.912,35.343,27.338,42.236,29.162,21.746,7.987,8.316
157,0.912,35.498,27.377,42.274,29.168,21.622,8.108,8.396
158,0.899,35.566,27.335,42.246,29.169,21.499,8.069,8.438
159,0.918,35.433,27.357,42.265,29.169,21.416,8.069,8.397
160,0.925,35.613,27.385,42.284,29.182,21.456,8.191,8.519
161,0.909,35.702,27.358,42.236,29.165,21.538,7.948,8.439
162,0.921,35.76,27.28,42.245,29.165,21.864,7.905,8.397
163,0.912,35.032,27.275,42.236,29.162,22.233,7.945,8.397
164,0.892,35.178,27.287,42.236,29.165,22.481,8.026,8.397
165,0.908,35.342,27.318,42.236,29.172,22.646,7.987,8.316
166,0.886,35.392,27.373,42.274,29.172,22.851,8.068,8.356
167,0.885,35.258,27.358,42.255,29.169,22.934,8.069,8.356
168,0.872,35.391,27.35,42.255,29.169,22.813,8.028,8.478
169,0.859,35.536,27.35,42.293,29.182,22.853,8.271,8.52
170,0.843,35.5,27.35,42.246,29.169,22.446,8.111,8.358
171,0.843,35.144,27.295,42.265,29.169,22.28,8.069,8.315
172,0.82,35.294,27.205,42.265,29.172,22.197,8.028,8.274
173,0.803,35.401,27.309,42.265,29.169,22.074,8.109,8.355
174,0.813,35.268,27.334,42.274,29.169,21.951,8.028,8.315
175,0.797,35.238,27.381,42.284,29.172,21.827,8.027,8.599
176,0.781,35.362,27.374,42.265,29.176,21.582,8.027,8.521
177,0.771,35.479,27.381,42.274,29.172,21.336,8.027,8.479
178,0.774,35.182,27.42,42.303,29.179,21.374,8.149,8.601
179,0.751,35.247,27.351,42.275,29.169,21.212,8.069,8.562
180,0.741,35.401,27.369,42.255,29.169,21.169,7.946,8.48
181,0.747,35.498,27.323,42.274,29.172,21.494,8.026,8.52
182,0.728,35.029,27.318,42.265,29.172,21.904,7.987,8.52
183,0.741,35.197,27.287,42.265,29.172,22.071,7.986,8.479
184,0.744,35.324,27.322,42.303,29.169,22.52,8.027,8.601
185,0.738,35.401,27.373,42.265,29.175,22.606,8.109,8.602
186,0.731,35.095,27.366,42.284,29.169,22.729,8.069,8.562
187,0.747,35.303,27.33,42.303,29.179,22.77,8.109,8.561
188,0.721,35.373,27.26,42.294,29.172,22.771,8.069,8.602
189,0.711,35.45,27.286,42.275,29.169,22.527,7.987,8.44
190,0.711,34.952,27.267,42.284,29.169,22.524,8.027,8.438
191,0.689,35.12,27.212,42.284,29.165,22.321,8.027,8.56
192,0.675,35.246,27.302,42.265,29.165,22.197,7.946,8.439
193,0.682,35.314,27.349,42.284,29.169,22.237,8.067,8.641
194,0.672,35.181,27.365,42.303,29.169,22.115,8.028,8.603
195,0.662,35.323,27.393,42.294,29.169,22.073,8.027,8.684
196,0.675,35.488,27.327,42.332,29.172,21.951,8.027,8.684
197,0.656,35.48,27.279,42.294,29.172,21.868,7.987,8.766
198,0.652,35.039,27.232,42.275,29.158,21.705,7.824,8.604
199,0.675,35.188,27.282,42.284,29.168,21.744,7.944,8.643
200,0.675,35.314,27.287,42.294,29.169,21.785,7.905,8.644
201,0.675,35.238,27.302,42.284,29.158,21.948,7.742,8.521
202,0.695,35.218,27.33,42.313,29.175,22.519,7.943,8.642
203,0.688,35.352,27.342,42.304,29.169,22.85,7.864,8.684
204,0.692,35.44,27.385,42.313,29.169,23.097,7.822,8.684
205,0.714,35.278,27.323,42.323,29.175,23.221,7.781,8.603
206,0.702,35.343,27.268,42.304,29.176,23.304,7.903,8.684
207,0.698,35.478,27.177,42.294,29.169,23.183,7.742,8.522
208,0.698,35.595,27.2,42.303,29.172,23.181,7.699,8.52
209,0.685,34.963,27.169,42.313,29.172,23.019,7.658,8.601
210,0.662,35.081,27.317,42.294,29.162,22.733,7.495,8.48
211,0.678,35.255,27.295,42.303,29.165,22.648,7.616,8.601
212,0.672,35.334,27.349,42.313,29.172,22.444,7.617,8.643
213,0.672,35.21,27.362,42.304,29.172,22.198,7.617,8.644
214,0.682,35.372,27.338,42.304,29.169,22.033,7.657,8.644
215,0.656,35.507,27.291,42.342,29.179,21.869,7.698,8.765
216,0.636,35.557,27.299,42.313,29.158,21.461,7.496,8.604
217,0.642,34.8,27.318,42.313,29.165,21.213,7.494,8.643
218,0.642,34.955,27.299,42.342,29.169,21.088,7.534,8.644
219,0.649,35.072,27.291,42.294,29.162,20.884,7.412,8.562
220,0.665,35.159,27.299,42.323,29.168,21.004,7.533,8.643
221,0.682,35.189,27.342,42.313,29.169,21.208,7.494,8.644
222,0.682,35.323,27.373,42.304,29.175,21.495,7.534,8.562
223,0.701,35.478,27.37,42.342,29.165,21.864,7.534,8.602
224,0.701,35.48,27.28,42.342,29.175,22.07,7.575,8.684
225,0.701,34.991,27.193,42.313,29.165,22.113,7.372,8.522
226,0.698,35.158,27.274,42.323,29.169,22.154,7.492,8.439
227,0.698,35.294,27.33,42.342,29.172,22.277,7.534,8.479
228,0.695,35.19,27.33,42.294,29.155,22.156,7.453,8.357
229,0.688,35.026,27.334,42.342,29.165,22.236,7.574,8.519
230,0.685,35.178,27.365,42.352,29.169,22.074,7.535,8.601
231,0.675,35.266,27.366,42.342,29.172,21.91,7.453,8.643
232,0.682,35.008,27.385,42.352,29.172,21.746,7.493,8.603
233,0.656,35.072,27.311,42.362,29.179,21.744,7.575,8.724
234,0.665,35.198,27.197,42.323,29.158,21.419,7.372,8.685
235,0.652,35.324,27.278,42.323,29.168,21.253,7.411,8.766
236,0.642,34.893,27.294,42.352,29.165,21.089,7.411,8.767
237,0.639,34.994,27.349,42.314,29.158,20.68,7.33,8.685
238,0.655,35.178,27.346,42.351,29.168,20.758,7.492,8.807
239,0.655,35.256,27.35,42.352,29.172,20.759,7.453,8.848
240,0.668,34.96,27.365,42.352,29.169,20.84,7.412,8.889
241,0.682,35.158,27.397,42.362,29.169,21.125,7.411,8.971
242,0.672,35.256,27.362,42.342,29.172,21.535,7.574,8.972
243,0.678,35.324,27.268,42.342,29.169,21.823,7.372,8.85
244,0.678,34.912,27.294,42.352,29.169,22.151,7.37,8.849
245,0.691,35.043,27.326,42.352,29.169,22.399,7.492,8.93
246,0.688,35.159,27.326,42.333,29.158,22.401,7.412,8.728
247,0.701,35.256,27.381,42.361,29.182,22.686,7.574,8.807
248,0.692,34.931,27.342,42.352,29.172,22.729,7.616,8.848
249,0.682,35.1,27.354,42.362,29.172,22.73,7.617,8.849
250,0.688,35.255,27.369,42.381,29.172,22.608,7.576,8.889
251,0.672,35.238,27.362,42.343,29.169,22.362,7.657,8.809
252,0.662,34.95,27.303,42.333,29.169,22.157,7.617,8.767
253,0.656,35.1,27.228,42.371,29.162,22.073,7.576,8.685
254,0.655,35.236,27.313,42.362,29.175,21.91,7.657,8.725
255,0.633,35.247,27.31,42.342,29.158,21.583,7.495,8.644
256,0.649,34.998,27.392,42.371,29.168,21.539,7.656,8.765
257,0.649,35.13,27.385,42.381,29.165,21.254,7.658,8.767
258,0.646,35.217,27.362,42.391,29.172,21.129,7.658,8.685
259,0.672,34.931,27.381,42.391,29.169,21.047,7.739,8.684
260,0.682,34.976,27.37,42.391,29.175,21.087,7.781,8.725
261,0.685,35.091,27.327,42.371,29.162,21.168,7.659,8.644
262,0.718,35.198,27.268,42.362,29.168,21.616,7.698,8.562
263,0.747,35.036,27.275,42.371,29.169,21.987,7.699,8.521
264,0.777,35.168,27.279,42.362,29.162,22.113,7.699,8.439
265,0.832,35.323,27.373,42.39,29.168,22.398,7.78,8.56
266,0.865,35.392,27.366,42.381,29.172,22.564,7.903,8.561
267,0.872,35.114,27.393,42.371,29.165,22.525,7.863,8.561
268,0.889,35.284,27.374,42.381,29.169,22.443,7.904,8.48
269,0.899,35.42,27.346,42.381,29.175,22.442,7.985,8.56
270,0.921,35.479,27.369,42.371,29.172,22.076,7.864,8.439
271,0.961,34.78,27.327,42.371,29.165,21.91,7.863,8.438
272,0.987,34.936,27.268,42.39,29.175,21.746,7.944,8.479
273,1.007,35.043,27.283,42.352,29.158,21.581,7.864,8.398
274,1.056,35.14,27.295,42.381,29.168,21.661,7.904,8.397
275,1.099,35.093,27.388,42.391,29.172,21.54,8.026,8.519
276,1.115,35.217,27.354,42.4,29.176,21.295,7.946,8.439
277,1.148,35.343,27.33,42.391,29.176,21.089,7.945,8.438
278,1.194,35.421,27.283,42.419,29.183,21.087,8.108,8.519
279,1.237,34.885,27.298,42.362,29.172,20.924,7.947,8.317
280,1.286,35.042,27.299,42.371,29.162,20.963,7.945,8.234
281,1.342,35.159,27.299,42.39,29.165,21.37,8.026,8.355
282,1.365,35.361,27.283,42.381,29.172,21.944,8.068,8.275
283,1.404,35.018,27.31,42.4,29.172,22.397,8.109,8.152
284,1.418,35.139,27.346,42.41,29.176,22.889,8.191,8.354
285,1.408,35.256,27.381,42.4,29.169,23.057,8.232,8.275
286,1.366,34.95,27.35,42.391,29.169,23.18,8.192,8.152
287,1.339,35.014,27.268,42.429,29.186,23.385,8.395,8.273
288,1.28,35.12,27.271,42.391,29.169,23.306,8.194,8.111
289,1.241,35.236,27.232,42.41,29.169,23.183,8.192,8.109
290,1.234,34.969,27.275,42.4,29.172,23.059,8.273,8.15
291,1.201,35.081,27.236,42.381,29.169,22.814,8.274,8.15
292,1.142,35.265,27.325,42.419,29.169,22.568,8.274,8.11
293,1.06,35.353,27.357,42.429,29.172,22.525,8.274,8.232
294,0.969,34.932,27.405,42.401,29.172,22.28,8.314,8.192
295,0.87,35.071,27.393,42.4,29.172,22.115,8.274,8.192
296,0.801,35.236,27.311,42.429,29.182,21.951,8.355,8.395
297,0.693,35.276,27.283,42.381,29.172,21.583,8.193,8.275
298,0.594,34.912,27.201,42.4,29.169,21.499,8.192,8.193
299,0.466,35.071,27.192,42.419,29.172,21.416,8.192,8.192
300,0.332,35.178,27.216,42.41,29.176,21.456,8.273,8.192
301,0.242,35.275,27.329,42.487,29.169,21.701,8.193,8.192
302,0.163,35.027,27.283,42.43,29.172,22.15,8.232,8.314
303,0.088,35.168,27.334,42.429,29.172,22.561,8.233,8.315
304,-0.001,35.285,27.354,42.42,29.172,22.809,8.273,8.234
305,-0.067,35.344,27.307,42.458,29.186,23.056,8.355,8.273
306,-0.139,34.893,27.256,42.401,29.169,23.139,8.193,8.274
307,-0.149,35.052,27.251,42.41,29.162,23.181,8.192,8.152
308,-0.156,35.197,27.193,42.429,29.168,23.222,8.192,8.191
309,-0.169,35.534,27.247,42.42,29.169,23.141,8.232,8.232
310,-0.101,35.509,27.325,42.468,29.169,23.018,8.111,8.151
311,-0.045,35.662,27.307,42.449,29.172,22.895,8.232,8.273
312,0.004,35.779,27.342,42.42,29.172,22.813,8.192,8.274
313,0.06,34.888,27.381,42.439,29.172,22.69,8.151,8.233
314,0.1,34.774,27.323,42.477,29.182,22.77,8.273,8.273
315,0.126,34.897,27.26,42.42,29.169,22.486,8.111,8.233
316,0.205,35.014,27.29,42.487,29.162,22.28,8.028,8.192
317,0.28,34.89,27.33,42.44,29.168,22.075,8.109,8.273
318,0.343,35.033,27.315,42.42,29.162,21.91,8.069,8.233
319,0.431,35.178,27.346,42.439,29.162,21.949,8.028,8.192
320,0.51,35.285,27.334,42.449,29.175,22.071,8.109,8.273
321,0.553,34.864,27.315,42.458,29.176,22.317,8.109,8.193
322,0.622,35.004,27.361,42.439,29.183,22.726,8.069,8.232
323,0.658,35.178,27.35,42.477,29.179,23.136,8.272,8.314
324,0.672,35.208,27.264,42.43,29.162,23.181,8.071,8.315
325,0.717,34.902,27.267,42.449,29.168,23.385,8.069,8.152
326,0.75,35.071,27.294,42.439,29.169,23.468,8.15,8.15
327,0.741,35.169,27.31,42.42,29.165,23.428,8.11,8.11
328,0.747,35.285,27.33,42.439,29.175,23.469,8.109,8.15
329,0.757,35.161,27.346,42.468,29.176,23.388,8.232,8.273
330,0.741,35.323,27.354,42.468,29.169,23.224,8.151,8.274
331,0.747,35.43,27.338,42.458,29.169,22.978,8.191,8.233
332,0.741,35.498,27.404,42.487,29.182,22.813,8.314,8.395
333,0.715,34.837,27.304,42.449,29.165,22.487,8.112,8.275
334,0.731,35.003,27.275,42.497,29.169,22.361,8.109,8.233
335,0.725,35.13,27.306,42.468,29.175,22.197,8.191,8.436
336,0.708,35.121,27.326,42.43,29.158,21.789,8.029,8.275
337,0.721,34.949,27.365,42.496,29.172,21.785,8.149,8.396
338,0.718,35.1,27.362,42.478,29.169,21.663,8.15,8.478
339,0.728,35.198,27.389,42.478,29.172,21.54,8.11,8.438
340,0.734,35.055,27.37,42.478,29.176,21.539,7.987,8.438
341,0.741,35.063,27.37,42.497,29.176,21.945,8.149,8.479
342,0.751,35.188,27.35,42.449,29.172,22.193,8.069,8.316
343,0.764,35.304,27.264,42.477,29.169,22.684,8.028,8.396
344,0.761,34.874,27.314,42.487,29.172,22.892,8.068,8.397
345,0.774,34.965,27.299,42.449,29.162,23.057,7.946,8.275
346,0.774,35.139,27.373,42.487,29.168,23.424,8.189,8.436
347,0.78,35.256,27.354,42.487,29.179,23.387,8.192,8.438
348,0.774,34.969,27.33,42.487,29.176,23.387,8.11,8.438
349,0.767,35.139,27.381,42.497,29.183,23.265,8.109,8.397
350,0.754,35.246,27.366,42.507,29.176,23.223,8.109,8.519
351,0.741,35.295,27.377,42.488,29.169,23.06,8.028,8.358
352,0.734,34.989,27.292,42.478,29.179,22.855,8.068,8.356
353,0.741,35.168,27.271,42.497,29.172,22.812,8.109,8.437
354,0.734,35.275,27.263,42.468,29.155,22.568,7.987,8.357
355,0.734,35.372,27.349,42.497,29.175,22.566,8.108,8.437
356,0.731,34.913,27.377,42.497,29.172,22.362,8.109,8.479
357,0.728,35.033,27.381,42.526,29.172,22.157,8.028,8.52
358,0.751,35.178,27.389,42.507,29.172,22.073,8.027,8.52
359,0.757,35.247,27.366,42.526,29.179,22.195,8.149,8.642
360,0.744,34.94,27.373,42.497,29.165,22.115,7.988,8.44
361,0.751,35.1,27.362,42.497,29.165,22.398,8.068,8.397
362,0.767,35.207,27.295,42.497,29.165,22.848,8.069,8.478
363,0.764,35.218,27.24,42.488,29.165,23.178,8.109,8.438
364,0.783,35.074,27.31,42.507,29.175,23.507,8.15,8.397
365,0.78,35.217,27.357,42.497,29.169,23.754,8.191,8.438
366,0.784,35.324,27.354,42.488,29.172,23.797,8.192,8.357
367,0.793,35.056,27.338,42.507,29.169,23.879,8.273,8.437
368,0.787,35.034,27.338,42.545,29.189,24.002,8.314,8.56
369,0.777,35.14,27.334,42.507,29.172,23.718,8.234,8.48
370,0.774,35.246,27.326,42.497,29.169,23.431,8.192,8.438
371,0.754,34.892,27.314,42.497,29.169,23.306,8.192,8.438
372,0.754,35.004,27.193,42.507,29.175,23.061,8.273,8.519
373,0.761,35.159,27.298,42.497,29.169,22.855,8.111,8.398
374,0.757,35.256,27.326,42.535,29.175,22.853,8.232,8.6
375,0.744,34.825,27.35,42.517,29.172,22.65,8.273,8.602
376,0.744,34.955,27.369,42.536,29.169,22.404,8.314,8.643
377,0.76,35.139,27.338,42.555,29.179,22.279,8.274,8.644
378,0.741,35.189,27.307,42.517,29.169,22.075,8.233,8.644
379,0.751,34.873,27.256,42.507,29.175,21.951,8.233,8.562
380,0.767,35.013,27.286,42.507,29.169,21.868,8.192,8.521
381,0.767,35.139,27.24,42.516,29.172,22.152,8.232,8.601
382,0.787,35.227,27.302,42.507,29.169,22.399,8.151,8.48
383,0.797,34.931,27.338,42.516,29.182,22.767,8.313,8.601
384,0.794,35.081,27.373,42.526,29.179,23.015,8.315,8.602
385,0.797,35.198,27.381,42.526,29.169,23.139,8.315,8.562
386,0.829,35.276,27.323,42.545,29.175,23.262,8.274,8.521
387,0.81,34.883,27.291,42.517,29.176,23.223,8.314,8.601
388,0.8,35.033,27.267,42.507,29.169,23.1,8.234,8.562
389,0.794,35.188,27.259,42.526,29.169,23.059,8.233,8.521
390,0.79,35.208,27.24,42.526,29.175,22.896,8.314,8.642
391,0.793,34.959,27.157,42.517,29.158,22.569,8.193,8.562
392,0.8,35.12,27.246,42.536,29.172,22.606,8.273,8.683
393,0.784,35.246,27.333,42.536,29.172,22.444,8.233,8.725
394,0.774,35.036,27.381,42.536,29.169,22.361,8.233,8.726
395,0.787,34.948,27.358,42.574,29.179,22.279,8.192,8.766
396,0.771,35.043,27.311,42.555,29.169,22.115,8.314,8.848
397,0.774,35.159,27.264,42.536,29.169,21.829,8.112,8.727
398,0.793,34.872,27.232,42.536,29.175,21.826,8.15,8.685
399,0.803,34.975,27.239,42.536,29.172,21.745,8.191,8.684
400,0.807,35.101,27.239,42.526,29.165,21.663,8.07,8.725
401,0.816,35.236,27.306,42.545,29.172,22.028,8.191,8.726
402,0.816,34.806,27.303,42.546,29.176,22.398,8.192,8.766
403,0.82,34.946,27.338,42.536,29.176,22.726,8.192,8.726
404,0.833,35.12,27.361,42.565,29.183,23.055,8.273,8.726
405,0.833,35.169,27.272,42.555,29.172,23.139,8.193,8.766
406,0.836,34.815,27.244,42.517,29.169,23.14,8.11,8.645
407,0.826,34.974,27.286,42.555,29.169,23.262,8.109,8.644
408,0.83,35.091,27.326,42.593,29.175,23.304,8.109,8.725
409,0.826,35.179,27.318,42.546,29.169,23.061,8.028,8.603
410,0.826,34.777,27.338,42.565,29.175,22.977,8.149,8.724
411,0.82,34.936,27.319,42.555,29.176,22.773,8.11,8.766
412,0.803,35.081,27.33,42.546,29.172,22.649,8.15,8.848
413,0.82,35.159,27.412,42.574,29.182,22.566,8.15,8.808
414,0.813,34.853,27.323,42.546,29.172,22.443,8.15,8.889
415,0.8,34.984,27.236,42.546,29.162,22.239,8.028,8.809
416,0.813,35.149,27.275,42.593,29.168,22.034,8.027,8.848
417,0.816,35.17,27.271,42.546,29.172,21.869,8.068,8.808
418,0.823,34.825,27.24,42.526,29.162,21.745,7.946,8.767
419,0.83,34.965,27.306,42.564,29.182,21.825,8.067,8.929
420,0.826,35.091,27.314,42.565,29.172,21.948,8.069,8.85
421,0.83,34.987,27.307,42.555,29.172,22.234,8.069,8.849
422,0.856,34.89,27.361,42.574,29.172,22.521,8.109,8.767
423,0.853,35.023,27.334,42.565,29.186,23.012,8.15,8.848
424,0.866,35.13,27.217,42.536,29.176,23.098,7.988,8.767
425,0.869,34.776,27.278,42.536,29.165,23.303,8.068,8.685
426,0.869,34.878,27.318,42.545,29.175,23.467,8.109,8.725
427,0.872,35.004,27.31,42.536,29.165,23.266,7.987,8.644
428,0.879,35.12,27.369,42.555,29.179,23.386,8.149,8.644
429,0.863,34.719,27.412,42.565,29.176,23.306,8.232,8.684
430,0.872,34.849,27.366,42.555,29.172,22.979,8.192,8.684
431,0.869,34.984,27.358,42.546,29.169,22.813,8.07,8.684
432,0.863,35.091,27.393,42.593,29.182,22.69,8.312,8.807
433,0.853,34.622,27.319,42.546,29.165,22.323,8.03,8.604
434,0.856,34.809,27.209,42.574,29.169,22.197,8.068,8.643
435,0.853,34.955,27.309,42.546,29.172,22.033,8.109,8.684
436,0.843,34.995,27.349,42.536,29.158,21.747,8.069,8.684
437,0.849,34.784,27.369,42.555,29.172,21.581,8.028,8.644
438,0.862,34.945,27.401,42.565,29.179,21.458,8.149,8.684
439,0.875,35.052,27.37,42.555,29.172,21.456,8.069,8.684
440,0.876,35.14,27.354,42.555,29.165,21.416,8.109,8.644
441,0.895,34.633,27.369,42.593,29.186,21.822,8.272,8.806
442,0.899,34.733,27.342,42.536,29.169,22.029,8.071,8.564
443,0.895,34.868,27.209,42.565,29.169,22.398,8.028,8.521
444,0.902,34.937,27.305,42.574,29.175,22.808,8.068,8.601
445,0.905,34.669,27.295,42.546,29.169,22.974,8.109,8.48
446,0.947,34.829,27.334,42.536,29.172,23.098,8.069,8.438
447,0.935,34.965,27.365,42.555,29.176,23.262,8.109,8.519
448,0.931,34.899,27.385,42.565,29.176,23.304,8.109,8.601
449,0.918,34.659,27.362,42.555,29.172,23.101,8.109,8.521
450,0.944,34.848,27.373,42.584,29.182,23.14,8.15,8.601
451,0.912,34.908,27.385,42.555,29.172,22.774,8.069,8.44
452,0.912,34.592,27.299,42.555,29.172,22.568,8.028,8.397
453,0.912,34.665,27.338,42.565,29.169,22.443,8.027,8.397
454,0.912,34.8,27.319,42.555,29.169,22.239,8.068,8.397
455,0.902,34.898,27.365,42.546,29.162,22.115,7.906,8.316
456,0.905,34.573,27.405,42.574,29.172,22.032,8.026,8.559
457,0.915,34.703,27.374,42.565,29.172,21.828,8.027,8.439
458,0.925,34.858,27.334,42.555,29.172,21.623,7.987,8.479
459,0.941,34.975,27.326,42.593,29.176,21.54,7.986,8.438
460,0.935,34.516,27.361,42.575,29.179,21.661,8.068,8.56
461,0.945,34.665,27.327,42.546,29.162,21.662,7.987,8.399
462,0.961,34.82,27.225,42.565,29.175,22.068,7.986,8.478
463,0.971,34.907,27.31,42.584,29.172,22.52,7.986,8.398
464,0.977,34.515,27.369,42.555,29.158,22.687,7.946,8.275
465,1.01,34.684,27.358,42.584,29.179,22.973,8.026,8.396
466,1.004,34.82,27.358,42.575,29.176,23.139,8.068,8.438
467,1.01,34.888,27.311,42.565,29.176,23.303,8.069,8.275
468,1.02,34.544,27.283,42.574,29.176,23.223,8.069,8.355
469,1.001,34.684,27.279,42.594,29.172,23.182,8.109,8.397
470,0.987,34.791,27.291,42.575,29.169,22.978,7.947,8.356
471,0.997,34.859,27.256,42.565,29.175,22.773,8.026,8.315
472,0.997,34.505,27.286,42.555,29.176,22.608,8.068,8.315
473,0.987,34.655,27.295,42.565,29.169,22.403,8.028,8.356
474,1.007,34.771,27.381,42.584,29.169,22.442,8.068,8.437
475,0.997,34.859,27.397,42.584,29.169,22.32,8.069,8.601
476,0.991,34.495,27.37,42.575,29.179,22.034,7.987,8.562
477,0.991,34.645,27.35,42.565,29.172,21.869,8.027,8.561
478,1.007,34.752,27.283,42.603,29.189,21.949,8.109,8.683
479,1.023,34.878,27.271,42.575,29.169,21.705,7.947,8.522
480,1.036,35.042,27.244,42.575,29.169,21.784,7.905,8.479
481,1.043,35.178,27.255,42.575,29.172,22.11,7.945,8.479
482,1.056,35.237,27.286,42.575,29.165,22.48,7.905,8.479
483,1.079,34.202,27.326,42.594,29.172,22.89,7.823,8.52
484,1.083,34.316,27.389,42.584,29.176,23.341,7.903,8.601
485,1.096,34.433,27.331,42.575,29.172,23.549,7.945,8.562
486,1.102,34.539,27.299,42.594,29.182,23.632,7.864,8.521
487,1.128,34.454,27.24,42.613,29.186,23.836,7.985,8.601
488,1.119,34.568,27.224,42.575,29.179,23.635,7.905,8.643
489,1.102,34.694,27.228,42.575,29.172,23.43,7.782,8.562
490,1.106,34.781,27.228,42.575,29.169,23.225,7.862,8.521
491,1.112,34.293,27.278,42.555,29.169,23.06,7.782,8.601
492,1.119,34.48,27.302,42.574,29.172,22.814,7.7,8.562
493,1.125,34.597,27.33,42.584,29.172,22.69,7.821,8.683
494,1.116,34.656,27.365,42.594,29.176,22.526,7.822,8.766
495,1.102,34.388,27.291,42.594,29.172,22.321,7.7,8.767
496,1.132,34.577,27.24,42.623,29.182,22.156,7.821,8.767
497,1.119,34.646,27.193,42.585,29.169,21.87,7.781,8.726
498,1.132,34.714,27.169,42.594,29.175,21.623,7.659,8.603
499,1.148,34.494,27.235,42.584,29.176,21.58,7.617,8.602
500,1.158,34.636,27.208,42.603,29.176,21.58,7.657,8.684
501,1.171,34.781,27.317,42.575,29.165,21.58,7.658,8.562
502,1.194,35.041,27.369,42.594,29.175,22.19,7.78,8.805
503,1.191,34.267,27.397,42.584,29.176,22.358,7.74,8.767
504,1.207,34.461,27.327,42.584,29.172,22.685,7.74,8.807
505,1.237,34.597,27.264,42.623,29.186,22.892,7.862,8.767
506,1.234,34.339,27.267,42.652,29.172,22.935,7.904,8.767
507,1.23,34.385,27.279,42.575,29.169,22.894,7.782,8.726
508,1.237,34.539,27.31,42.603,29.172,22.813,7.822,8.726
509,1.227,34.646,27.322,42.584,29.179,22.771,7.863,8.766
510,1.227,34.187,27.295,42.565,29.158,22.527,7.7,8.645
511,1.234,34.326,27.326,42.594,29.175,22.402,7.983,8.806
512,1.23,34.461,27.373,42.594,29.183,22.198,7.864,8.767
513,1.224,34.539,27.35,42.584,29.179,22.115,7.944,8.767
514,1.243,34.348,27.283,42.594,29.176,22.114,7.945,8.807
515,1.237,34.49,27.302,42.68,29.172,21.992,7.986,8.808
516,1.231,34.607,27.306,42.576,29.169,21.706,7.783,8.645
517,1.23,34.704,27.322,42.594,29.169,21.5,7.822,8.684
518,1.247,34.36,27.334,42.584,29.172,21.457,7.822,8.684
519,1.247,34.51,27.346,42.555,29.162,21.213,7.619,8.562
520,1.273,34.655,27.33,42.613,29.172,21.454,7.901,8.602
521,1.286,34.714,27.365,42.604,29.179,21.741,7.945,8.643
522,1.299,34.389,27.393,42.604,29.172,22.11,7.864,8.684
523,1.309,34.577,27.303,42.584,29.172,22.48,7.863,8.603
524,1.306,34.704,27.287,42.613,29.179,22.93,7.944,8.643
525,1.316,34.724,27.275,42.575,29.169,23.016,7.783,8.44
526,1.316,34.475,27.341,42.565,29.169,23.18,7.984,8.438
527,1.316,34.635,27.373,42.594,29.172,23.222,7.905,8.479
528,1.313,34.733,27.393,42.565,29.162,23.141,7.782,8.438
529,1.306,34.993,27.405,42.603,29.179,23.181,7.944,8.519
530,1.306,34.564,27.382,42.584,29.186,22.856,7.945,8.479
531,1.29,34.703,27.397,42.584,29.176,22.731,7.864,8.438
532,1.29,34.82,27.366,42.623,29.169,22.486,7.782,8.479
533,1.286,34.658,27.26,42.604,29.179,22.483,7.944,8.601
534,1.286,34.685,27.275,42.575,29.162,22.077,7.783,8.358
535,1.26,34.829,27.318,42.603,29.168,21.991,7.862,8.437
536,1.263,34.946,27.322,42.594,29.175,21.787,7.863,8.438
537,1.26,34.688,27.365,42.584,29.165,21.541,7.741,8.438
538,1.27,34.839,27.338,42.603,29.172,21.579,7.943,8.438
539,1.273,34.975,27.338,42.613,29.172,21.499,7.945,8.479
540,1.267,35.062,27.354,42.594,29.169,21.457,7.864,8.438
541,1.267,35.389,27.381,42.584,29.179,21.66,7.904,8.438
542,1.26,35.536,27.296,42.623,29.183,22.109,8.067,8.56
543,1.254,35.653,27.302,42.594,29.172,22.276,7.865,8.317
544,1.253,35.74,27.318,42.594,29.169,22.685,7.944,8.274
545,1.247,34.782,27.33,42.594,29.175,22.892,8.026,8.274
546,1.224,34.888,27.373,42.565,29.165,22.975,7.946,8.274
547,1.227,35.071,27.374,42.613,29.175,23.057,8.067,8.355
548,1.211,35.14,27.35,42.604,29.179,23.058,8.15,8.397
549,1.185,35.304,27.291,42.594,29.172,22.936,8.11,8.397
550,1.184,35.43,27.341,42.604,29.179,22.772,8.191,8.397
551,1.155,35.585,27.287,42.623,29.189,22.73,8.314,8.519
552,1.122,35.605,27.306,42.604,29.172,22.323,8.193,8.398
553,1.122,35.376,27.326,42.594,29.169,22.278,8.11,8.397
554,1.099,35.527,27.354,42.575,29.175,22.197,8.191,8.397
555,1.07,35.614,27.389,42.594,29.169,21.993,8.192,8.478
556,1.069,35.654,27.37,42.604,29.172,21.868,8.11,8.398
557,1.063,35.817,27.334,42.613,29.172,21.745,8.15,8.519
558,1.05,35.943,27.299,42.594,29.176,21.581,8.191,8.479
559,1.056,36.06,27.279,42.604,29.176,21.499,8.232,8.52
560,1.063,36.013,27.302,42.651,29.183,21.579,8.314,8.52
561,1.037,35.955,27.224,42.604,29.176,21.702,8.234,8.561
562,1.037,36.117,27.286,42.584,29.165,21.988,8.151,8.358
563,1.017,36.205,27.287,42.603,29.179,22.316,8.191,8.397
564,1.01,36.101,27.345,42.604,29.176,22.604,8.192,8.478
565,1.01,36.205,27.373,42.594,29.172,22.647,8.07,8.357
566,1.01,36.369,27.338,42.613,29.179,22.973,8.272,8.437
567,0.981,36.448,27.315,42.613,29.176,22.935,8.274,8.479
568,0.974,36.41,27.26,42.604,29.183,22.894,8.274,8.438
569,0.961,36.582,27.294,42.623,29.186,22.813,8.233,8.438
570,0.935,36.68,27.252,42.613,29.186,22.649,8.273,8.519
571,0.915,36.729,27.146,42.613,29.172,22.363,8.071,8.358
572,0.909,36.7,27.289,42.585,29.169,22.197,8.191,8.315
573,0.905,36.834,27.341,42.613,29.175,22.155,8.11,8.437
574,0.882,36.941,27.319,42.585,29.169,21.83,7.987,8.357
575,0.882,37.029,27.342,42.623,29.175,21.867,8.149,8.478
576,0.863,36.732,27.28,42.613,29.179,21.664,8.191,8.52
577,0.856,36.892,27.224,42.623,29.172,21.418,8.151,8.601
578,0.853,37.019,27.294,42.623,29.176,21.253,8.11,8.48
579,0.856,37.058,27.209,42.632,29.193,21.333,8.191,8.642
580,0.84,37.174,27.294,42.604,29.165,21.089,8.029,8.399
581,0.849,37.309,27.33,42.594,29.172,21.209,8.027,8.397
582,0.849,37.397,27.346,42.594,29.172,21.454,8.068,8.478
583,0.84,37.388,27.33,42.575,29.169,21.66,8.109,8.398
584,0.843,37.196,27.334,42.594,29.175,21.987,8.109,8.397
585,0.866,37.328,27.256,42.613,29.176,22.153,8.15,8.478
586,0.849,37.445,27.197,42.604,29.179,22.195,8.11,8.398
587,0.846,37.484,27.294,42.613,29.169,22.115,8.069,8.356
588,0.84,37.513,27.279,42.632,29.186,22.236,8.272,8.478
589,0.813,37.629,27.314,42.604,29.176,21.871,8.071,8.276
590,0.8,37.735,27.342,42.594,29.176,21.745,8.109,8.314
591,0.803,37.554,27.342,42.613,29.172,21.581,8.069,8.396
592,0.761,37.639,27.393,42.575,29.169,21.295,7.987,8.316
593,0.774,37.793,27.393,42.613,29.175,21.374,8.108,8.396
594,0.761,37.871,27.3,42.613,29.183,21.334,8.15,8.438
595,0.748,37.767,27.287,42.632,29.172,21.171,8.11,8.397
596,0.747,37.919,27.302,42.642,29.179,21.088,8.109,8.438
597,0.741,38.026,27.334,42.642,29.179,20.965,8.191,8.56
598,0.738,38.065,27.303,42.604,29.172,20.883,8.029,8.317
599,0.754,37.826,27.338,42.613,29.176,20.922,8.068,8.356
600,0.757,37.987,27.33,42.594,29.179,21.004,8.109,8.397
601,0.748,38.065,27.35,42.604,29.169,21.208,7.987,8.194
602,0.767,38.152,27.408,42.623,29.182,21.779,8.149,8.436
603,0.767,38.028,27.335,42.604,29.176,22.151,8.191,8.479
604,0.764,38.161,27.276,42.632,29.176,22.521,8.273,8.438
605,0.783,38.297,27.283,42.623,29.179,22.768,8.193,8.438
606,0.777,38.337,27.33,42.652,29.186,22.974,8.354,8.56
607,0.767,38.088,27.322,42.594,29.172,22.935,8.234,8.317
608,0.764,38.248,27.35,42.604,29.176,22.935,8.192,8.356
609,0.751,38.355,27.362,42.613,29.179,22.813,8.273,8.437
610,0.744,38.347,27.358,42.594,29.165,22.649,8.233,8.479
611,0.754,38.222,27.35,42.632,29.179,22.485,8.314,8.479
612,0.738,38.345,27.365,42.623,29.176,22.402,8.315,8.601
613,0.738,38.452,27.276,42.613,29.179,22.279,8.356,8.602
614,0.728,38.396,27.298,42.623,29.172,22.115,8.315,8.602
615,0.712,38.328,27.33,42.661,29.189,22.073,8.477,8.806
616,0.715,38.433,27.33,42.614,29.169,21.747,8.276,8.686
617,0.711,38.539,27.4,42.632,29.175,21.581,8.314,8.644
618,0.705,38.195,27.385,42.613,29.172,21.499,8.274,8.725
619,0.715,38.24,27.358,42.594,29.165,21.294,8.314,8.685
620,0.731,38.403,27.381,42.642,29.182,21.536,8.274,8.684
621,0.731,38.491,27.358,42.633,29.183,21.701,8.355,8.807
622,0.747,38.319,27.319,42.623,29.176,22.069,8.437,8.767
623,0.744,38.452,27.295,42.652,29.172,22.439,8.397,8.767
624,0.764,38.597,27.302,42.652,29.182,22.889,8.519,8.929
625,0.761,38.627,27.295,42.614,29.176,22.935,8.358,8.687
626,0.774,38.359,27.349,42.613,29.169,22.976,8.315,8.644
627,0.754,38.519,27.35,42.623,29.172,23.098,8.274,8.603
628,0.744,38.617,27.342,42.604,29.169,23.059,8.274,8.724
629,0.747,38.714,27.338,42.623,29.172,22.896,8.274,8.603
630,0.744,38.322,27.381,42.613,29.179,22.813,8.396,8.765
631,0.741,38.442,27.299,42.623,29.179,22.568,8.356,8.807
632,0.731,38.559,27.279,42.632,29.172,22.403,8.275,8.808
633,0.731,38.675,27.302,42.671,29.186,22.279,8.396,8.848
634,0.712,38.321,27.322,42.623,29.169,22.034,8.275,8.808
635,0.711,38.452,27.369,42.613,29.172,21.869,8.193,8.808
636,0.711,38.578,27.385,42.623,29.169,21.705,8.273,8.93
637,0.702,38.579,27.358,42.623,29.169,21.459,8.274,8.931
638,0.714,38.387,27.326,42.613,29.172,21.253,8.193,8.85
639,0.728,38.539,27.342,42.632,29.182,21.373,8.232,8.93
640,0.721,38.617,27.358,42.633,29.176,21.374,8.192,8.972
641,0.731,38.493,27.315,42.623,29.179,21.537,8.192,8.931
642,0.751,38.291,27.248,42.652,29.189,22.027,8.314,8.972
643,0.735,38.404,27.282,42.614,29.176,22.398,8.193,8.972
644,0.747,38.501,27.31,42.613,29.169,22.645,8.07,8.809
645,0.754,38.3,27.353,42.613,29.172,22.81,8.15,8.848
646,0.748,38.385,27.377,42.604,29.182,23.056,8.069,8.808
647,0.757,38.52,27.327,42.604,29.169,22.977,7.946,8.645
648,0.764,38.617,27.303,42.632,29.189,23.139,8.189,8.847
649,0.744,38.033,27.299,42.623,29.176,22.978,8.192,8.849
650,0.738,38.142,27.306,42.652,29.172,22.732,8.11,8.767
651,0.734,38.316,27.295,42.642,29.186,22.608,8.109,8.807
652,0.708,38.375,27.299,42.633,29.179,22.362,8.15,8.97
653,0.708,38.059,27.303,42.594,29.169,22.116,8.069,8.769
654,0.711,38.2,27.318,42.623,29.172,21.951,7.987,8.848
655,0.702,38.326,27.365,42.613,29.172,21.827,8.068,8.849
656,0.688,38.385,27.295,42.604,29.162,21.46,7.946,8.849
657,0.714,37.944,27.267,42.623,29.179,21.497,7.986,8.93
658,0.708,38.074,27.279,42.632,29.172,21.376,7.986,8.931
659,0.724,38.21,27.267,42.642,29.176,21.334,8.027,8.89
660,0.728,38.24,27.275,42.614,29.172,21.374,8.027,8.849
661,0.738,38.01,27.255,42.632,29.189,21.822,8.109,8.971
662,0.738,38.132,27.314,42.613,29.169,21.989,7.906,8.728
663,0.744,38.239,27.322,42.613,29.175,22.478,7.863,8.766
664,0.751,38.269,27.381,42.613,29.176,22.849,7.944,8.807
665,0.735,37.732,27.28,42.585,29.169,22.934,7.823,8.645
666,0.76,37.919,27.279,42.623,29.175,23.301,7.822,8.684
667,0.757,38.026,27.228,42.642,29.179,23.345,7.944,8.725
668,0.751,38.075,27.216,42.623,29.183,23.346,7.905,8.644
669,0.738,37.903,27.263,42.623,29.176,23.183,7.863,8.684
670,0.747,38.064,27.263,42.661,29.189,23.181,8.066,8.807
671,0.731,38.133,27.341,42.614,29.176,22.815,7.784,8.564
672,0.725,37.597,27.358,42.604,29.169,22.649,7.74,8.561
673,0.731,37.649,27.401,42.613,29.172,22.607,7.74,8.602
674,0.712,37.745,27.319,42.585,29.169,22.484,7.699,8.602
675,0.711,37.871,27.279,42.613,29.172,22.321,7.78,8.602
676,0.721,37.469,27.216,42.632,29.179,22.319,7.822,8.765
677,0.708,37.6,27.286,42.652,29.176,22.075,7.781,8.767
678,0.715,37.735,27.275,42.623,29.176,21.869,7.781,8.604
679,0.741,37.842,27.291,42.652,29.189,21.989,7.944,8.724
680,0.731,37.45,27.302,42.604,29.169,21.787,7.701,8.603
681,0.738,37.59,27.267,42.594,29.172,21.988,7.658,8.562
682,0.757,37.725,27.376,42.594,29.176,22.316,7.698,8.521
683,0.751,37.784,27.366,42.604,29.172,22.644,7.699,8.561
684,0.761,37.238,27.311,42.594,29.172,22.892,7.618,8.439
685,0.77,37.386,27.162,42.632,29.182,23.138,7.779,8.519
686,0.78,37.522,27.286,42.594,29.179,23.262,7.781,8.479
687,0.774,37.562,27.326,42.613,29.176,23.223,7.74,8.479
688,0.774,37.332,27.322,42.632,29.189,23.304,7.862,8.479
689,0.748,37.435,27.33,42.604,29.176,22.979,7.741,8.479
690,0.754,37.551,27.315,42.613,29.172,22.773,7.618,8.357
691,0.757,37.61,27.342,42.604,29.169,22.568,7.779,8.397
692,0.744,36.987,27.354,42.604,29.175,22.443,7.781,8.478
693,0.738,37.134,27.35,42.594,29.162,22.239,7.618,8.276
694,0.741,37.261,27.287,42.632,29.179,22.156,7.779,8.436
695,0.741,37.444,27.306,42.613,29.176,21.952,7.74,8.479
696,0.734,36.995,27.326,42.604,29.183,21.665,7.781,8.398
697,0.741,37.135,27.354,42.632,29.19,21.499,7.822,8.478
698,0.731,37.213,27.338,42.613,29.179,21.335,7.781,8.438
699,0.744,36.801,27.326,42.575,29.169,21.211,7.659,8.275
700,0.725,36.816,27.361,42.594,29.169,21.251,7.658,8.396
701,0.744,36.951,27.342,42.604,29.175,21.333,7.739,8.438
702,0.767,37.067,27.342,42.604,29.162,21.618,7.618,8.357
703,0.774,36.656,27.268,42.623,29.179,22.027,7.779,8.397
704,0.767,36.815,27.287,42.623,29.176,22.316,7.781,8.316
705,0.777,36.922,27.275,42.594,29.183,22.441,7.822,8.437
706,0.793,37.048,27.337,42.632,29.186,22.686,7.863,8.357
707,0.774,36.56,27.35,42.594,29.179,22.607,7.782,8.397
708,0.774,36.689,27.362,42.584,29.169,22.484,7.7,8.316
709,0.754,36.853,27.405,42.594,29.172,22.443,7.821,8.315
710,0.744,36.922,27.354,42.604,29.172,22.32,7.822,8.396
711,0.747,36.357,27.338,42.594,29.162,22.075,7.781,8.275
712,0.731,36.505,27.35,42.623,29.175,22.032,7.903,8.477
713,0.731,36.631,27.264,42.594,29.183,21.869,7.863,8.438
714,0.728,36.709,27.318,42.604,29.176,21.786,7.944,8.397
715,0.725,36.413,27.338,42.613,29.186,21.744,7.945,8.438
716,0.711,36.515,27.35,42.594,29.176,21.581,7.945,8.438
717,0.708,36.622,27.381,42.584,29.169,21.336,7.864,8.357
718,0.721,36.671,27.354,42.594,29.169,21.252,7.863,8.356
719,0.721,36.172,27.393,42.556,29.172,21.211,7.904,8.397
720,0.728,36.321,27.339,42.593,29.169,21.169,7.782,8.194
721,0.747,36.466,27.33,42.613,29.179,21.494,7.984,8.273
722,0.754,36.803,27.318,42.604,29.179,21.904,7.986,8.396
723,0.751,36.222,27.283,42.594,29.176,22.193,7.946,8.316
724,0.754,36.379,27.31,42.642,29.186,22.562,8.148,8.396
725,0.754,36.438,27.314,42.575,29.179,22.566,8.069,8.275
726,0.761,35.959,27.357,42.575,29.172,22.769,8.028,8.152
727,0.77,35.945,27.342,42.594,29.179,22.811,8.109,8.191
728,0.751,36.069,27.307,42.584,29.172,22.812,8.15,8.232
729,0.748,36.195,27.303,42.594,29.172,22.69,8.069,8.151
730,0.751,35.995,27.342,42.594,29.186,22.607,8.15,8.273
731,0.741,36.127,27.291,42.613,29.172,22.444,8.273,8.355
732,0.731,36.263,27.275,42.594,29.176,22.239,8.152,8.397
733,0.741,36.408,27.318,42.623,29.189,22.318,8.273,8.519
734,0.715,35.652,27.35,42.575,29.172,21.994,8.111,8.439
735,0.724,35.779,27.377,42.584,29.169,21.828,8.069,8.438
736,0.724,35.924,27.377,42.594,29.175,21.704,8.109,8.519
737,0.718,35.992,27.319,42.584,29.172,21.5,8.109,8.52
738,0.718,35.811,27.295,42.584,29.172,21.335,7.947,8.439
739,0.744,35.972,27.318,42.594,29.172,21.415,8.148,8.601
740,0.741,36.098,27.256,42.604,29.172,21.416,8.11,8.684
741,0.741,36.148,27.236,42.604,29.179,21.497,8.069,8.603
742,0.754,35.515,27.302,42.623,29.183,21.904,8.109,8.602
743,0.754,35.643,27.318,42.604,29.172,22.234,8.15,8.684
744,0.748,35.75,27.318,42.556,29.169,22.4,8.069,8.603
745,0.76,35.789,27.346,42.574,29.175,22.645,8.109,8.562
746,0.77,35.512,27.276,42.584,29.176,22.81,8.109,8.602
747,0.744,35.653,27.22,42.575,29.165,22.771,8.028,8.521
748,0.754,35.798,27.278,42.594,29.182,22.852,8.19,8.642
749,0.744,35.876,27.259,42.604,29.176,22.731,8.192,8.684
750,0.741,35.436,27.197,42.604,29.179,22.567,8.11,8.603
751,0.741,35.623,27.223,42.604,29.176,22.362,8.15,8.643
752,0.734,35.759,27.306,42.632,29.183,22.279,8.354,8.806
753,0.721,35.339,27.31,42.585,29.172,22.075,8.153,8.645
754,0.728,35.315,27.357,42.584,29.172,21.991,8.15,8.603
755,0.734,35.449,27.299,42.584,29.172,21.909,8.191,8.724
756,0.695,35.575,27.213,42.575,29.172,21.664,8.151,8.685
757,0.714,35.088,27.188,42.613,29.176,21.54,8.15,8.684
758,0.711,35.188,27.297,42.613,29.179,21.539,8.191,8.766
759,0.721,35.343,27.201,42.604,29.179,21.498,8.232,8.767
760,0.728,35.45,27.184,42.604,29.169,21.498,8.192,8.685
761,0.747,35.278,27.301,42.632,29.189,21.823,8.354,8.807
762,0.738,35.372,27.303,42.575,29.176,22.111,8.193,8.686
763,0.734,35.507,27.353,42.575,29.176,22.439,8.11,8.684
764,0.751,35.605,27.346,42.594,29.172,22.727,8.15,8.684
765,0.751,34.992,27.241,42.584,29.176,22.974,8.232,8.684
766,0.761,35.158,27.161,42.594,29.176,23.057,8.111,8.603
767,0.754,35.313,27.289,42.642,29.179,23.221,8.272,8.765
768,0.761,35.392,27.283,42.604,29.179,23.223,8.274,8.685
769,0.741,35.086,27.275,42.594,29.172,23.1,8.233,8.684
770,0.751,35.255,27.294,42.623,29.182,22.977,8.273,8.807
771,0.738,35.372,27.295,42.604,29.176,22.813,8.274,8.848
772,0.715,35.412,27.291,42.584,29.169,22.405,8.111,8.686
773,0.705,35.067,27.334,42.584,29.172,22.279,8.232,8.766
774,0.718,35.217,27.33,42.594,29.179,22.197,8.273,8.807
775,0.698,35.314,27.221,42.575,29.165,21.952,8.071,8.686
776,0.692,35.392,27.298,42.603,29.172,21.827,8.231,8.847
777,0.711,35.067,27.322,42.604,29.182,21.664,8.192,8.889
778,0.702,35.217,27.314,42.604,29.179,21.499,8.192,8.89
779,0.721,35.362,27.33,42.594,29.172,21.457,8.232,8.849
780,0.721,35.153,27.33,42.613,29.179,21.497,8.355,9.011
781,0.711,35.122,27.334,42.565,29.169,21.538,8.193,8.81
782,0.731,35.275,27.33,42.574,29.172,21.986,8.192,8.808
783,0.728,35.372,27.33,42.594,29.176,22.316,8.354,8.848
784,0.728,35.086,27.24,42.575,29.162,22.563,8.234,8.727
785,0.741,35.207,27.282,42.594,29.179,22.931,8.517,8.766
786,0.751,35.372,27.302,42.594,29.183,23.016,8.52,8.767
787,0.748,35.45,27.322,42.584,29.183,23.098,8.52,8.645
788,0.751,35.058,27.361,42.603,29.183,23.14,8.561,8.644
789,0.738,35.169,27.362,42.584,29.183,23.059,8.602,8.765
790,0.721,35.294,27.362,42.575,29.176,22.814,8.48,8.604
791,0.715,35.372,27.299,42.594,29.176,22.609,8.52,8.602
792,0.705,35.249,27.33,42.584,29.172,22.403,8.479,8.521
793,0.692,35.42,27.283,42.565,29.165,22.239,8.357,8.358
794,0.692,35.546,27.244,42.632,29.175,22.196,8.6,8.519
795,0.685,35.634,27.271,42.594,29.179,22.033,8.643,8.601
796,0.685,35.213,27.31,42.594,29.176,21.909,8.521,8.48
797,0.685,35.381,27.346,42.613,29.179,21.664,8.52,8.52
798,0.679,35.469,27.373,42.585,29.176,21.499,8.52,8.479
799,0.695,35.499,27.366,42.575,29.165,21.335,8.398,8.357
800,0.688,35.279,27.405,42.584,29.172,21.334,8.478,8.315
801,0.688,35.391,27.378,42.584,29.179,21.455,8.56,8.315
802,0.708,35.527,27.335,42.584,29.169,21.741,8.399,8.234
803,0.711,35.586,27.225,42.603,29.179,22.273,8.6,8.273
804,0.711,35.49,27.259,42.604,29.183,22.563,8.602,8.314
805,0.731,35.614,27.326,42.584,29.176,22.769,8.602,8.274
806,0.738,35.769,27.365,42.623,29.186,23.055,8.643,8.274
807,0.721,35.559,27.366,42.585,29.176,22.977,8.562,8.233
808,0.718,35.481,27.35,42.575,29.176,22.935,8.521,8.192
809,0.711,35.643,27.362,42.575,29.176,22.813,8.561,8.192
810,0.702,35.712,27.346,42.594,29.179,22.649,8.521,8.273
811,0.705,35.54,27.307,42.584,29.176,22.363,8.439,8.111
812,0.695,35.682,27.322,42.594,29.183,22.319,8.56,8.232
813,0.688,35.808,27.287,42.594,29.176,22.034,8.561,8.273
814,0.695,35.886,27.322,42.575,29.176,21.909,8.48,8.233
815,0.701,35.704,27.357,42.603,29.189,21.868,8.52,8.355
816,0.682,35.789,27.369,42.604,29.183,21.542,8.439,8.437
817,0.675,35.914,27.311,42.584,29.169,21.336,8.275,8.275
818,0.678,36.011,27.33,42.584,29.172,21.211,8.396,8.314
819,0.688,35.83,27.326,42.575,29.172,21.129,8.316,8.356
820,0.685,35.963,27.311,42.575,29.162,21.006,8.193,8.234
821,0.705,36.117,27.307,42.603,29.182,21.371,8.395,8.314
822,0.705,36.177,27.248,42.594,29.176,21.578,8.397,8.315
823,0.705,35.918,27.251,42.594,29.179,21.946,8.356,8.274
824,0.724,36.107,27.325,42.623,29.183,22.275,8.397,8.355
825,0.708,36.196,27.393,42.575,29.183,22.4,8.356,8.356
826,0.718,36.235,27.342,42.575,29.172,22.482,8.275,8.193
827,0.715,36.063,27.307,42.575,29.176,22.524,8.274,8.232
828,0.715,36.186,27.295,42.594,29.179,22.484,8.274,8.233
829,0.702,36.283,27.295,42.556,29.169,22.239,8.152,8.151
830,0.698,36.341,27.283,42.593,29.179,22.237,8.354,8.313
831,0.698,36.14,27.271,42.594,29.176,22.115,8.315,8.274
832,0.682,36.282,27.275,42.661,29.179,21.91,8.274,8.274
833,0.695,36.428,27.294,42.595,29.179,21.786,8.233,8.314
834,0.669,36.343,27.322,42.584,29.179,21.826,8.273,8.356
835,0.669,36.284,27.33,42.565,29.172,21.582,8.111,8.234
836,0.662,36.428,27.295,42.594,29.176,21.458,8.109,8.273
837,0.669,36.544,27.26,42.584,29.176,21.335,8.15,8.355
838,0.662,36.401,27.247,42.575,29.162,21.13,8.028,8.193
839,0.685,36.544,27.255,42.603,29.175,21.209,8.027,8.354
840,0.685,36.67,27.247,42.604,29.183,21.332,8.068,8.397
841,0.688,36.748,27.243,42.594,29.176,21.577,8.069,8.356
842,0.695,36.413,27.294,42.594,29.176,22.068,7.987,8.397
843,0.701,36.525,27.33,42.594,29.183,22.601,8.027,8.478
844,0.695,36.65,27.342,42.575,29.165,22.932,7.865,8.316
845,0.695,36.719,27.295,42.584,29.172,23.22,7.904,8.315
846,0.718,36.518,27.232,42.565,29.176,23.467,7.904,8.396
847,0.721,36.631,27.239,42.565,29.169,23.428,7.782,8.234
848,0.705,36.795,27.329,42.651,29.182,23.55,7.944,8.395
849,0.695,36.864,27.295,42.585,29.176,23.592,7.905,8.438
850,0.695,36.625,27.306,42.584,29.176,23.389,7.863,8.438
851,0.685,36.786,27.318,42.594,29.189,23.224,7.944,8.519
852,0.679,36.912,27.369,42.613,29.193,23.141,7.945,8.683
853,0.665,36.923,27.35,42.585,29.169,22.896,7.701,8.603
854,0.656,36.664,27.362,42.565,29.179,22.731,7.699,8.562
855,0.655,36.824,27.248,42.574,29.172,22.648,7.699,8.683
856,0.642,36.922,27.29,42.613,29.176,22.485,7.74,8.725
857,0.655,36.99,27.279,42.585,29.176,22.199,7.577,8.603
858,0.649,36.809,27.31,42.584,29.179,22.196,7.616,8.765
859,0.675,36.941,27.314,42.594,29.183,22.115,7.698,8.767
860,0.678,37.038,27.295,42.594,29.183,22.236,7.658,8.767
861,0.691,37.058,27.318,42.623,29.196,22.562,7.698,8.767
862,0.685,36.896,27.287,42.575,29.183,22.891,7.658,8.767
863,0.692,37.028,27.31,42.575,29.176,23.219,7.658,8.685
864,0.698,37.145,27.264,42.594,29.172,23.67,7.698,8.725
865,0.705,37.011,27.302,42.594,29.176,23.999,7.658,8.685
866,0.718,37.087,27.334,42.565,29.169,24.003,7.658,8.522
867,0.721,37.241,27.334,42.594,29.179,24.206,7.82,8.642
868,0.705,37.338,27.357,42.584,29.183,24.127,7.863,8.684
869,0.695,36.793,27.35,42.584,29.176,24.045,7.863,8.603
870,0.701,36.931,27.342,42.575,29.169,23.841,7.863,8.562
871,0.682,37.057,27.369,42.603,29.189,23.676,7.985,8.683
872,0.672,37.116,27.342,42.575,29.179,23.268,7.864,8.481
873,0.665,37.097,27.244,42.555,29.172,23.101,7.863,8.52
874,0.665,37.251,27.259,42.584,29.172,22.937,7.944,8.52
875,0.652,37.367,27.286,42.546,29.169,22.691,7.823,8.642
876,0.662,37.455,27.341,42.593,29.179,22.526,8.025,8.521
877,0.669,37.609,27.354,42.584,29.176,22.24,7.987,8.683
878,0.672,37.754,27.354,42.584,29.183,21.993,7.946,8.603
879,0.669,37.871,27.385,42.575,29.172,21.95,7.986,8.602
880,0.685,37.939,27.401,42.622,29.189,22.031,8.19,8.684
881,0.682,36.78,27.354,42.565,29.176,21.95,8.029,8.603
882,0.698,36.931,27.303,42.565,29.179,22.234,7.987,8.44
883,0.705,37.076,27.267,42.613,29.179,22.643,8.027,8.479
884,0.685,37.087,27.271,42.585,29.176,22.973,8.109,8.479
885,0.705,37.212,27.291,42.575,29.176,23.139,8.028,8.438
886,0.711,37.377,27.353,42.584,29.186,23.262,8.19,8.519
887,0.708,37.474,27.326,42.584,29.179,23.345,8.11,8.439
888,0.702,37.418,27.33,42.575,29.179,23.346,8.069,8.397
889,0.698,37.014,27.354,42.603,29.193,23.305,8.191,8.478
890,0.685,37.096,27.311,42.575,29.176,22.979,8.11,8.316
891,0.669,37.222,27.369,42.555,29.172,22.773,8.069,8.315
892,0.669,37.051,27.292,42.555,29.179,22.649,8.069,8.315
893,0.649,37.097,27.287,42.555,29.179,22.404,8.109,8.396
894,0.662,37.279,27.283,42.574,29.179,22.442,8.028,8.397
895,0.665,37.387,27.349,42.584,29.183,22.239,8.109,8.438
896,0.652,37.062,27.346,42.584,29.176,22.034,8.028,8.479
897,0.662,37.212,27.338,42.575,29.179,21.828,7.987,8.479
898,0.665,37.367,27.299,42.594,29.189,21.786,8.108,8.601
899,0.656,37.407,27.279,42.556,29.169,21.704,7.987,8.399
900,0.675,37.043,27.283,42.555,29.169,21.662,7.986,8.438
901,0.678,37.183,27.263,42.555,29.172,21.865,8.027,8.397
902,0.672,37.29,27.306,42.555,29.169,22.192,8.027,8.397
903,0.691,37.406,27.264,42.565,29.172,22.643,8.068,8.356
904,0.692,37.043,27.341,42.584,29.182,23.054,8.15,8.478
905,0.688,37.183,27.338,42.575,29.179,23.139,8.15,8.357
906,0.698,37.309,27.319,42.575,29.183,23.303,8.069,8.397
907,0.714,37.387,27.229,42.603,29.196,23.508,8.231,8.519
908,0.692,37.071,27.216,42.556,29.179,23.347,8.111,8.398
909,0.685,37.202,27.204,42.555,29.183,23.224,8.069,8.316
910,0.675,37.348,27.231,42.574,29.172,23.06,8.028,8.356
911,0.665,37.368,27.177,42.555,29.176,22.896,8.027,8.397
912,0.659,37.11,27.262,42.555,29.179,22.731,8.027,8.397
913,0.665,37.26,27.279,42.574,29.183,22.608,8.149,8.519
914,0.656,37.387,27.326,42.565,29.179,22.484,8.028,8.561
915,0.649,37.551,27.346,42.565,29.179,22.321,8.027,8.521
916,0.668,37.025,27.26,42.613,29.193,22.238,8.149,8.642
917,0.643,37.116,27.232,42.546,29.172,21.912,7.988,8.644
918,0.649,37.232,27.2,42.555,29.172,21.664,7.905,8.521
919,0.672,36.926,27.227,42.584,29.182,21.703,7.863,8.439
920,0.662,36.923,27.228,42.575,29.176,21.662,7.944,8.56
921,0.678,37.086,27.282,42.594,29.169,21.825,7.823,8.48
922,0.691,37.193,27.283,42.584,29.186,22.314,7.985,8.601
923,0.695,36.935,27.287,42.565,29.186,22.726,7.946,8.643
924,0.698,37.057,27.341,42.565,29.183,23.014,7.864,8.603
925,0.724,37.212,27.256,42.603,29.193,23.383,7.944,8.643
926,0.715,37.271,27.204,42.556,29.176,23.427,7.986,8.603
927,0.705,36.84,27.255,42.536,29.169,23.469,7.864,8.521
928,0.715,36.999,27.29,42.545,29.179,23.55,7.904,8.439
929,0.705,37.115,27.271,42.574,29.179,23.551,7.863,8.601
930,0.695,37.184,27.302,42.536,29.169,23.307,7.863,8.399
931,0.698,36.782,27.295,42.584,29.182,23.305,8.066,8.6
932,0.688,36.941,27.314,42.575,29.176,23.101,7.946,8.602
933,0.688,37.038,27.361,42.565,29.183,22.937,7.945,8.602
934,0.692,37.125,27.291,42.574,29.179,22.732,7.945,8.602
935,0.682,36.743,27.244,42.565,29.186,22.608,7.945,8.724
936,0.649,36.864,27.271,42.546,29.176,22.281,7.783,8.563
937,0.655,36.999,27.294,42.565,29.179,22.075,7.822,8.602
938,0.665,37.058,27.299,42.574,29.172,21.91,7.903,8.602
939,0.675,36.732,27.349,42.517,29.169,21.705,7.701,8.562
940,0.688,36.902,27.334,42.574,29.186,21.825,7.861,8.643
941,0.692,37.019,27.357,42.584,29.183,21.989,7.985,8.684
942,0.695,37.327,27.366,42.575,29.179,22.316,7.946,8.522
943,0.705,36.764,27.327,42.555,29.179,22.726,8.026,8.601
944,0.695,36.902,27.225,42.574,29.183,23.136,8.149,8.765
945,0.698,36.999,27.29,42.555,29.172,23.262,8.069,8.523
946,0.718,36.626,27.299,42.536,29.176,23.386,8.069,8.601
947,0.718,36.623,27.349,42.555,29.183,23.468,8.109,8.562
948,0.715,36.719,27.342,42.526,29.169,23.306,8.028,8.48
949,0.715,36.863,27.358,42.574,29.179,23.386,8.19,8.601
950,0.705,36.491,27.354,42.555,29.186,23.143,8.192,8.643
951,0.705,36.593,27.303,42.565,29.186,22.978,8.192,8.603
952,0.689,36.737,27.31,42.555,29.183,22.732,8.151,8.643
953,0.695,36.864,27.24,42.574,29.19,22.73,8.313,8.847
954,0.692,36.433,27.239,42.546,29.176,22.364,8.193,8.605
955,0.692,36.592,27.286,42.536,29.172,22.238,8.151,8.684
956,0.695,36.718,27.322,42.574,29.176,22.074,8.15,8.684
957,0.705,36.787,27.318,42.536,29.176,21.829,8.15,8.725
958,0.734,36.461,27.338,42.555,29.176,21.704,8.15,8.726
959,0.773,36.602,27.342,42.555,29.183,21.662,8.273,8.807
960,0.806,36.728,27.326,42.555,29.179,21.54,8.233,8.808
961,0.813,36.787,27.342,42.555,29.179,21.742,8.233,8.767
962,0.855,36.25,27.326,42.593,29.193,22.313,8.355,8.889
963,0.866,36.35,27.193,42.546,29.183,22.604,8.234,8.768
964,0.885,36.505,27.27,42.555,29.169,23.013,8.151,8.645
965,0.895,36.554,27.322,42.565,29.175,23.302,8.232,8.765
966,0.912,36.296,27.357,42.527,29.176,23.467,8.233,8.645
967,0.938,36.476,27.334,42.555,29.179,23.51,8.233,8.603
968,0.945,36.592,27.35,42.565,29.189,23.632,8.273,8.684
969,0.941,36.632,27.346,42.555,29.183,23.552,8.274,8.725
970,0.958,36.182,27.33,42.555,29.183,23.429,8.314,8.766
971,0.99,36.359,27.334,42.565,29.183,23.184,8.315,8.767
972,0.984,36.447,27.276,42.555,29.183,23.019,8.315,8.889
973,0.978,36.228,27.259,42.536,29.172,22.733,8.193,8.727
974,0.977,36.254,27.267,42.545,29.176,22.73,8.11,8.807
975,0.984,36.389,27.349,42.546,29.176,22.526,8.15,8.848
976,0.974,36.467,27.326,42.555,29.169,22.24,8.11,8.849
977,0.977,36.103,27.299,42.565,29.179,22.237,8.15,8.889
978,0.981,36.205,27.26,42.555,29.176,22.156,8.191,8.93
979,0.984,36.36,27.286,42.565,29.172,22.114,8.192,8.89
980,1.0,36.467,27.271,42.565,29.179,22.114,8.151,8.93
981,0.994,36.075,27.259,42.565,29.193,22.439,8.273,9.012
982,1.0,36.224,27.232,42.574,29.172,22.686,8.111,8.891
983,1.0,36.331,27.282,42.546,29.179,23.217,8.15,8.809
984,1.0,36.418,27.318,42.536,29.179,23.629,8.15,8.889
985,0.991,35.921,27.338,42.517,29.172,23.836,8.11,8.809
986,1.013,36.098,27.299,42.545,29.182,24.083,8.232,8.848
987,0.991,36.224,27.271,42.546,29.179,24.166,8.314,8.808
988,0.984,36.283,27.232,42.555,29.179,24.208,8.274,8.808
989,0.978,35.986,27.224,42.546,29.176,24.127,8.274,8.808
990,0.961,36.127,27.247,42.574,29.186,23.923,8.355,8.889
991,0.942,36.225,27.243,42.527,29.172,23.595,8.234,8.687
992,0.925,36.293,27.279,42.545,29.179,23.308,8.273,8.684
993,0.912,36.389,27.287,42.536,29.179,23.223,8.314,8.684
994,0.895,36.505,27.353,42.526,29.169,22.897,8.274,8.684
995,0.899,36.65,27.334,42.555,29.179,22.813,8.314,8.684
996,0.886,36.68,27.264,42.565,29.179,22.609,8.315,8.847
997,0.882,35.578,27.232,42.555,29.186,22.281,8.315,8.727
998,0.882,35.711,27.208,42.565,29.176,22.075,8.274,8.685
999,0.895,35.856,27.173,42.603,29.189,22.073,8.396,8.807
1000,0.863,35.896,27.165,42.527,29.172,21.829,8.275,8.604
1001,0.846,36.011,27.215,42.564,29.176,22.07,8.233,8.521
1002,0.849,36.147,27.239,42.555,29.176,22.398,8.314,8.52
1003,0.83,36.215,27.286,42.555,29.172,22.767,8.356,8.479
1004,0.846,35.65,27.318,42.536,29.179,23.137,8.397,8.479
1005,0.833,35.731,27.279,42.555,29.183,23.466,8.438,8.479
1006,0.83,35.856,27.209,42.536,29.179,23.591,8.397,8.479
1007,0.82,35.953,27.278,42.555,29.183,23.592,8.478,8.479
1008,0.826,35.638,27.31,42.574,29.193,23.714,8.642,8.601
1009,0.794,35.74,27.267,42.555,29.176,23.431,8.44,8.44
1010,0.79,35.895,27.31,42.622,29.179,23.225,8.397,8.357
1011,0.774,35.973,27.26,42.537,29.176,23.019,8.478,8.356
1012,0.751,35.609,27.298,42.526,29.176,22.855,8.479,8.478
1013,0.761,35.788,27.342,42.517,29.169,22.609,8.479,8.479
1014,0.735,35.924,27.354,42.564,29.175,22.484,8.601,8.642
1015,0.725,35.983,27.233,42.555,29.186,22.321,8.521,8.684
1016,0.698,35.648,27.271,42.565,29.172,22.034,8.561,8.684
1017,0.714,35.836,27.294,42.584,29.189,21.95,8.602,8.766
1018,0.689,35.934,27.299,42.536,29.176,21.583,8.48,8.726
1019,0.695,35.964,27.322,42.526,29.172,21.458,8.398,8.685
1020,0.695,35.782,27.299,42.536,29.172,21.416,8.478,8.766
1021,0.682,35.905,27.275,42.536,29.179,21.66,8.438,8.807
1022,0.695,36.04,27.322,42.536,29.172,22.028,8.275,8.726
1023,0.695,36.07,27.334,42.555,29.182,22.601,8.477,8.929
1024,0.698,35.466,27.221,42.536,29.179,22.972,8.479,8.931
1025,0.688,35.633,27.231,42.536,29.172,23.261,8.398,8.972
1026,0.721,35.759,27.302,42.574,29.186,23.63,8.438,8.972
1027,0.692,35.636,27.275,42.527,29.176,23.592,8.357,8.891
1028,0.682,35.587,27.298,42.517,29.172,23.633,8.315,8.849
1029,0.672,35.74,27.318,42.555,29.179,23.633,8.356,8.889
1030,0.656,35.837,27.322,42.517,29.176,23.552,8.275,8.93
1031,0.665,35.474,27.326,42.536,29.169,23.348,8.274,8.89
1032,0.652,35.585,27.354,42.536,29.182,23.305,8.355,8.971
1033,0.642,35.711,27.284,42.536,29.183,23.183,8.275,8.931
1034,0.629,35.818,27.252,42.536,29.179,23.059,8.314,8.972
1035,0.649,35.435,27.318,42.565,29.186,23.058,8.315,8.931
1036,0.626,35.546,27.338,42.546,29.183,22.774,8.234,9.012
1037,0.623,35.663,27.334,42.536,29.179,22.486,8.151,8.932
1038,0.61,35.769,27.373,42.545,29.179,22.361,8.15,8.931
1039,0.632,35.406,27.37,42.536,29.179,22.279,8.191,8.931
1040,0.629,35.546,27.346,42.507,29.169,22.115,7.988,8.687
1041,0.636,35.701,27.33,42.555,29.186,22.398,8.19,8.847
1042,0.655,35.76,27.299,42.555,29.183,22.767,8.192,8.889
1043,0.665,35.444,27.256,42.546,29.179,23.137,8.192,8.768
1044,0.672,35.642,27.298,42.565,29.189,23.506,8.273,8.807
1045,0.662,35.731,27.318,42.546,29.179,23.673,8.233,8.808
1046,0.675,35.76,27.307,42.517,29.176,23.756,8.192,8.604
1047,0.675,35.415,27.338,42.516,29.179,23.797,8.151,8.602
1048,0.669,35.556,27.307,42.516,29.179,23.798,8.273,8.562
1049,0.662,35.682,27.256,42.516,29.169,23.553,8.111,8.521
1050,0.652,35.721,27.263,42.555,29.186,23.47,8.313,8.601
1051,0.655,35.444,27.248,42.555,29.183,23.306,8.315,8.602
1052,0.646,35.575,27.216,42.555,29.183,23.061,8.274,8.521
1053,0.639,35.701,27.274,42.536,29.179,22.774,8.314,8.561
1054,0.623,35.568,27.294,42.555,29.193,22.73,8.477,8.643
1055,0.632,35.375,27.326,42.517,29.176,22.405,8.195,8.44
1056,0.626,35.498,27.318,42.526,29.176,22.157,8.192,8.479
1057,0.629,35.614,27.26,42.536,29.176,21.952,8.232,8.438
1058,0.61,35.395,27.216,42.517,29.169,21.705,8.192,8.397
1059,0.622,35.527,27.224,42.536,29.179,21.744,8.273,8.438
1060,0.642,35.672,27.208,42.565,29.176,21.785,8.314,8.438
1061,0.636,35.769,27.243,42.536,29.176,22.07,8.315,8.438
1062,0.642,35.329,27.275,42.536,29.179,22.52,8.356,8.397
1063,0.652,35.469,27.322,42.574,29.196,23.175,8.559,8.397
1064,0.642,35.585,27.33,42.536,29.172,23.425,8.358,8.356
1065,0.652,35.692,27.334,42.536,29.179,23.753,8.437,8.275
1066,0.665,35.252,27.217,42.526,29.183,24.163,8.438,8.274
1067,0.669,35.391,27.188,42.526,29.179,24.208,8.479,8.274
1068,0.672,35.546,27.13,42.536,29.172,24.33,8.398,8.233
1069,0.662,35.663,27.258,42.555,29.182,24.453,8.519,8.314
1070,0.639,35.29,27.208,42.565,29.183,24.251,8.52,8.356
1071,0.642,35.439,27.278,42.536,29.179,24.046,8.52,8.315
1072,0.636,35.604,27.287,42.565,29.183,23.963,8.561,8.274
1073,0.626,35.625,27.306,42.546,29.186,23.88,8.643,8.436
1074,0.616,35.328,27.346,42.498,29.179,23.717,8.44,8.275
1075,0.616,35.488,27.272,42.516,29.172,23.553,8.438,8.274
1076,0.606,35.624,27.212,42.536,29.176,23.47,8.479,8.396
1077,0.609,35.663,27.263,42.507,29.162,23.103,8.357,8.275
1078,0.619,35.664,27.279,42.555,29.182,23.099,8.478,8.355
1079,0.636,35.808,27.279,42.565,29.179,23.14,8.438,8.437
1080,0.629,35.924,27.302,42.546,29.186,23.059,8.519,8.397
1081,0.636,35.676,27.283,42.536,29.179,23.221,8.439,8.316
1082,0.646,35.127,27.326,42.545,29.189,23.873,8.601,8.518
1083,0.652,35.246,27.346,42.517,29.179,24.205,8.399,8.358
1084,0.646,35.362,27.268,42.536,29.176,24.615,8.438,8.275
1085,0.649,35.181,27.255,42.574,29.179,24.822,8.479,8.396
1086,0.649,35.237,27.244,42.498,29.172,25.027,8.479,8.356
1087,0.655,35.429,27.321,42.526,29.179,25.233,8.438,8.275
1088,0.652,35.527,27.318,42.526,29.183,25.235,8.519,8.274
1089,0.642,35.231,27.33,42.536,29.183,25.154,8.52,8.396
1090,0.636,35.353,27.291,42.536,29.183,24.868,8.479,8.316
1091,0.629,35.498,27.338,42.555,29.196,24.784,8.601,8.477
1092,0.616,35.547,27.287,42.517,29.176,24.417,8.399,8.357
1093,0.623,35.116,27.267,42.507,29.172,24.291,8.438,8.315
1094,0.61,35.275,27.224,42.526,29.176,24.29,8.397,8.437
1095,0.6,35.391,27.224,42.517,29.172,24.168,8.397,8.397
1096,0.606,35.488,27.282,42.536,29.179,23.882,8.397,8.438
1097,0.622,35.24,27.298,42.526,29.183,23.758,8.397,8.519
1098,0.626,35.391,27.33,42.545,29.179,23.512,8.438,8.52
1099,0.652,35.517,27.377,42.546,29.183,23.429,8.397,8.52
1100,0.701,35.624,27.362,42.584,29.193,23.55,8.478,8.642
1101,0.721,35.107,27.291,42.517,29.179,23.551,8.357,8.481
1102,0.763,35.265,27.302,42.516,29.176,23.958,8.275,8.438
1103,0.793,35.401,27.224,42.545,29.179,24.49,8.355,8.479
1104,0.806,35.431,27.228,42.526,29.179,24.984,8.478,8.479
1105,0.849,35.278,27.271,42.517,29.176,25.273,8.398,8.357
1106,0.879,35.411,27.322,42.497,29.179,25.52,8.438,8.478
1107,0.892,35.546,27.353,42.526,29.179,25.604,8.519,8.438
1108,0.931,35.595,27.315,42.517,29.186,25.645,8.439,8.519
1109,0.961,35.155,27.338,42.564,29.196,25.564,8.519,8.479
1110,0.971,35.265,27.338,42.527,29.183,25.36,8.52,8.479
1111,0.997,35.372,27.307,42.507,29.176,24.992,8.398,8.398
1112,1.043,35.325,27.271,42.516,29.186,24.826,8.438,8.397
1113,1.056,35.44,27.255,42.526,29.179,24.702,8.438,8.519
1114,1.092,35.575,27.267,42.507,29.169,24.416,8.316,8.439
1115,1.128,35.682,27.302,42.536,29.186,24.251,8.477,8.601
1116,1.168,35.041,27.322,42.526,29.183,24.005,8.479,8.684
1117,1.204,35.159,27.275,42.526,29.183,23.637,8.398,8.603
1118,1.25,35.333,27.252,42.536,29.19,23.471,8.397,8.684
1119,1.273,35.402,27.243,42.536,29.19,23.428,8.478,8.807
1120,1.302,35.086,27.243,42.507,29.169,23.184,8.357,8.523
1121,1.338,35.236,27.185,42.516,29.179,23.425,8.437,8.601
1122,1.31,35.372,27.2,42.536,29.183,23.916,8.438,8.602
1123,1.28,35.44,27.243,42.488,29.169,24.287,8.479,8.48
1124,1.26,35.24,27.298,42.535,29.182,24.778,8.601,8.642
1125,1.224,35.391,27.357,42.526,29.19,25.027,8.684,8.562
1126,1.214,35.508,27.291,42.507,29.183,25.192,8.684,8.602
1127,1.194,35.585,27.248,42.536,29.172,25.275,8.725,8.602
1128,1.178,35.184,27.2,42.536,29.186,25.317,8.848,8.643
1129,1.11,35.304,27.184,42.498,29.172,25.073,8.727,8.44
1130,1.07,35.449,27.2,42.526,29.176,24.908,8.726,8.519
1131,0.962,35.489,27.192,42.536,29.179,24.662,8.848,8.439
1132,0.844,35.154,27.231,42.507,29.176,24.416,8.808,8.479
1133,0.797,35.342,27.267,42.526,29.186,24.251,8.848,8.52
1134,0.725,35.469,27.333,42.545,29.186,24.127,8.849,8.642
1135,0.627,35.815,27.279,42.517,29.179,23.923,8.808,8.644
1136,0.473,35.243,27.209,42.526,29.179,23.677,8.767,8.765
1137,0.325,35.41,27.208,42.564,29.196,23.552,8.929,8.889
1138,0.187,35.517,27.251,42.507,29.176,23.185,8.768,8.727
1139,0.108,35.192,27.216,42.497,29.176,23.1,8.685,8.766
1140,0.048,35.237,27.27,42.507,29.176,23.262,8.766,8.726
1141,-0.063,35.343,27.248,42.478,29.172,23.386,8.685,8.726
1142,-0.116,35.498,27.279,42.507,29.182,23.956,8.684,8.766
1143,-0.185,35.058,27.31,42.526,29.186,24.49,8.807,8.767
1144,-0.228,35.178,27.275,42.517,29.183,24.862,8.726,8.807
1145,-0.228,35.333,27.201,42.536,29.183,25.19,8.766,8.686
1146,-0.186,35.449,27.247,42.555,29.193,25.478,8.848,8.807
1147,-0.163,35.086,27.259,42.498,29.169,25.359,8.727,8.645
1148,-0.101,35.265,27.271,42.497,29.182,25.439,8.685,8.603
1149,-0.058,35.42,27.298,42.497,29.183,25.278,8.807,8.643
1150,-0.009,35.46,27.295,42.488,29.172,25.113,8.645,8.603
1151,0.06,35.201,27.302,42.507,29.182,24.827,8.684,8.643
1152,0.113,35.333,27.299,42.516,29.193,24.702,8.766,8.725
1153,0.188,35.459,27.31,42.516,29.183,24.416,8.685,8.603
1154,0.257,35.547,27.236,42.516,29.179,24.251,8.644,8.684
1155,0.336,35.097,27.278,42.555,29.193,24.168,8.684,8.725
1156,0.389,35.198,27.302,42.517,29.179,23.761,8.603,8.726
1157,0.451,35.324,27.306,42.497,29.172,23.431,8.48,8.644
1158,0.507,35.373,27.318,42.507,29.186,23.265,8.438,8.684
1159,0.563,35.191,27.31,42.516,29.179,23.263,8.519,8.684
1160,0.622,35.352,27.338,42.516,29.172,23.182,8.398,8.644
1161,0.668,35.478,27.287,42.536,29.182,23.507,8.6,8.765
1162,0.701,35.499,27.279,42.536,29.183,23.998,8.521,8.726
1163,0.714,35.154,27.209,42.517,29.19,24.572,8.52,8.766
1164,0.741,35.352,27.263,42.536,29.186,25.066,8.642,8.726
1165,0.738,35.421,27.279,42.507,29.183,25.355,8.603,8.766
1166,0.757,35.201,27.291,42.497,29.176,25.317,8.562,8.563
1167,0.748,35.237,27.326,42.497,29.176,25.398,8.643,8.602
1168,0.757,35.381,27.334,42.507,29.186,25.684,8.603,8.602
1169,0.741,35.46,27.279,42.497,29.169,25.402,8.521,8.44
1170,0.741,35.192,27.318,42.526,29.186,25.399,8.723,8.682
1171,0.731,35.314,27.264,42.536,29.19,25.155,8.726,8.603
1172,0.718,35.43,27.205,42.536,29.183,24.828,8.766,8.602
1173,0.711,35.546,27.243,42.517,29.183,24.662,8.645,8.562
1174,0.708,35.058,27.29,42.526,29.193,24.497,8.806,8.724
1175,0.692,35.169,27.322,42.488,29.183,24.13,8.686,8.603
1176,0.685,35.333,27.35,42.497,29.176,23.882,8.725,8.602
1177,0.698,35.411,27.319,42.516,29.176,23.554,8.603,8.643
1178,0.692,35.172,27.271,42.488,29.176,23.388,8.602,8.562
1179,0.708,35.352,27.298,42.516,29.186,23.346,8.684,8.561
1180,0.718,35.478,27.275,42.516,29.186,23.468,8.644,8.683
1181,0.728,35.547,27.228,42.516,29.179,23.632,8.684,8.603
1182,0.712,35.183,27.208,42.545,29.183,24.121,8.725,8.602
1183,0.728,35.342,27.255,42.546,29.19,24.858,8.888,8.643
1184,0.738,35.459,27.283,42.498,29.179,25.15,8.687,8.521
1185,0.747,35.489,27.295,42.507,29.183,25.478,8.766,8.479
1186,0.751,35.135,27.275,42.507,29.176,25.684,8.767,8.479
1187,0.744,35.265,27.201,42.497,29.172,25.727,8.767,8.52
1188,0.76,35.42,27.184,42.507,29.176,25.728,8.889,8.439
1189,0.748,35.431,27.2,42.526,29.189,25.606,8.93,8.56
1190,0.738,35.22,27.208,42.517,29.183,25.523,8.931,8.521
1191,0.738,35.362,27.161,42.516,29.179,25.156,8.85,8.561
1192,0.734,35.507,27.254,42.555,29.196,25.112,9.052,8.724
1193,0.725,35.279,27.279,42.498,29.176,24.786,8.81,8.522
1194,0.724,35.248,27.302,42.497,29.172,24.417,8.767,8.52
1195,0.721,35.391,27.31,42.507,29.186,24.332,8.807,8.52
1196,0.705,35.479,27.197,42.497,29.179,24.047,8.726,8.642
1197,0.718,35.106,27.188,42.516,29.179,23.719,8.685,8.44
1198,0.731,35.227,27.251,42.603,29.193,23.675,8.766,8.601
1199,0.725,35.353,27.298,42.604,29.183,23.512,8.726,8.48
1200,0.744,35.459,27.287,42.584,29.183,23.551,8.685,8.52
1201,0.767,35.192,27.322,42.555,29.193,23.876,8.807,8.601
1202,0.754,35.275,27.291,42.507,29.176,24.327,8.767,8.521
1203,0.761,35.43,27.314,42.507,29.176,24.697,8.685,8.439
1204,0.77,35.498,27.287,42.488,29.179,25.189,8.766,8.479
1205,0.767,35.154,27.197,42.507,29.183,25.478,8.848,8.52
1206,0.787,35.323,27.231,42.507,29.176,25.684,8.767,8.317
1207,0.793,35.459,27.216,42.526,29.186,25.89,8.889,8.477
1208,0.793,35.537,27.27,42.517,29.179,25.77,8.93,8.398
1209,0.78,35.212,27.259,42.516,29.179,25.647,8.931,8.438
1210,0.784,35.391,27.263,42.536,29.196,25.564,8.972,8.56
1211,0.764,35.479,27.29,42.498,29.183,25.197,8.891,8.48
1212,0.751,35.509,27.306,42.497,29.183,24.909,8.849,8.357
1213,0.751,35.144,27.318,42.488,29.179,24.784,8.849,8.397
1214,0.748,35.285,27.213,42.497,29.176,24.539,8.93,8.397
1215,0.754,35.43,27.286,42.507,29.172,24.374,8.768,8.356
1216,0.757,35.47,27.263,42.516,29.182,24.169,8.848,8.519
1217,0.751,35.25,27.294,42.536,29.186,23.923,8.889,8.479
1218,0.748,35.41,27.302,42.498,29.176,23.636,8.727,8.52
1219,0.773,35.546,27.345,42.564,29.193,23.552,8.888,8.52
1220,0.767,35.375,27.326,42.507,29.186,23.47,8.809,8.479
1221,0.777,35.296,27.311,42.488,29.176,23.55,8.767,8.357
1222,0.793,35.43,27.357,42.487,29.179,23.958,8.848,8.437
1223,0.787,35.527,27.276,42.526,29.183,24.531,8.808,8.479
1224,0.797,35.145,27.291,42.497,29.172,24.903,8.726,8.276
1225,0.8,35.265,27.259,42.535,29.182,25.353,8.848,8.477
1226,0.82,35.391,27.302,42.517,29.186,25.561,8.93,8.438
1227,0.817,35.488,27.318,42.497,29.179,25.604,8.89,8.397
1228,0.836,35.288,27.357,42.535,29.193,25.767,8.93,8.397
1229,0.807,35.363,27.323,42.498,29.179,25.525,8.85,8.397
1230,0.807,35.526,27.307,42.497,29.176,25.278,8.767,8.316
1231,0.803,35.595,27.31,42.497,29.179,25.154,8.807,8.437
1232,0.79,35.069,27.26,42.497,29.189,24.99,8.767,8.438
1233,0.787,35.217,27.212,42.497,29.176,24.744,8.685,8.397
1234,0.793,35.381,27.239,42.516,29.183,24.783,8.807,8.6
1235,0.797,35.45,27.294,42.507,29.186,24.702,8.767,8.48
1236,0.784,35.192,27.306,42.507,29.183,24.416,8.767,8.601
1237,0.793,35.371,27.338,42.545,29.196,24.291,8.807,8.684
1238,0.79,35.45,27.276,42.507,29.183,23.965,8.645,8.644
1239,0.803,35.518,27.267,42.478,29.179,23.799,8.644,8.603
1240,0.813,35.116,27.287,42.507,29.183,23.757,8.684,8.48
1241,0.81,35.246,27.267,42.507,29.183,23.878,8.725,8.56
1242,0.826,35.391,27.177,42.497,29.172,24.246,8.644,8.48
1243,0.836,35.441,27.258,42.516,29.186,24.94,8.765,8.601
1244,0.846,35.24,27.286,42.516,29.19,25.354,8.767,8.602
1245,0.833,35.372,27.31,42.497,29.186,25.724,8.807,8.602
1246,0.852,35.517,27.349,42.526,29.186,25.972,8.808,8.521
1247,0.843,35.308,27.272,42.497,29.186,26.096,8.848,8.52
1248,0.846,35.142,27.228,42.488,29.179,26.016,8.686,8.439
1249,0.843,35.285,27.208,42.478,29.183,25.934,8.766,8.397
1250,0.839,35.411,27.22,42.487,29.186,25.77,8.807,8.438
1251,0.833,35.182,27.196,42.478,29.179,25.403,8.645,8.316
1252,0.836,35.342,27.192,42.516,29.186,25.358,8.847,8.437
1253,0.836,35.469,27.227,42.507,29.186,25.155,8.767,8.479
1254,0.833,35.547,27.306,42.488,29.183,25.031,8.767,8.479
1255,0.839,35.135,27.295,42.507,29.186,24.948,8.685,8.438
1256,0.826,35.265,27.287,42.516,29.179,24.907,8.725,8.601
1257,0.83,35.372,27.217,42.478,29.169,24.5,8.644,8.48
1258,0.823,35.469,27.196,42.478,29.175,24.414,8.603,8.438
1259,0.843,35.106,27.192,42.497,29.179,24.373,8.602,8.519
1260,0.839,35.236,27.177,42.459,29.172,24.25,8.602,8.439
1261,0.862,35.41,27.161,42.506,29.186,24.534,8.602,8.438
1262,0.875,35.46,27.235,42.507,29.186,24.943,8.684,8.519
1263,0.885,35.134,27.251,42.488,29.186,25.435,8.644,8.439
1264,0.892,35.284,27.298,42.497,29.183,25.765,8.725,8.479
1265,0.889,35.449,27.291,42.516,29.196,26.135,8.888,8.52
1266,0.899,35.47,27.205,42.449,29.179,26.138,8.727,8.398
1267,0.899,35.154,27.11,42.477,29.183,26.22,8.685,8.356
1268,0.902,35.323,27.23,42.516,29.183,26.18,8.807,8.356
1269,0.892,35.421,27.232,42.469,29.176,26.098,8.808,8.397
1270,0.899,35.498,27.259,42.497,29.183,25.894,8.848,8.356
1271,0.899,35.183,27.263,42.497,29.183,25.607,8.93,8.519
1272,0.886,35.323,27.271,42.478,29.186,25.36,8.85,8.439
1273,0.879,35.44,27.337,42.478,29.183,25.114,8.808,8.519
1274,0.892,35.403,27.283,42.516,29.19,25.112,8.93,8.561
1275,0.882,35.115,27.213,42.469,29.183,24.786,8.687,8.521
1276,0.879,35.284,27.185,42.487,29.176,24.498,8.766,8.561
1277,0.879,35.401,27.227,42.478,29.176,24.252,8.685,8.561
1278,0.866,35.038,27.247,42.459,29.179,24.087,8.766,8.602
1279,0.895,35.14,27.24,42.468,29.176,24.004,8.604,8.48
1280,0.912,35.304,27.282,42.497,29.189,24.125,8.806,8.601
1281,0.912,35.392,27.275,42.468,29.183,24.37,8.686,8.643
1282,0.925,34.932,27.287,42.458,29.183,24.779,8.684,8.603
1283,0.938,35.11,27.31,42.516,29.196,25.515,8.807,8.684
1284,0.925,35.198,27.256,42.459,29.183,25.807,8.726,8.603
1285,0.941,35.314,27.173,42.468,29.183,26.094,8.685,8.562
1286,0.958,35.008,27.247,42.449,29.186,26.341,8.725,8.48
1287,0.954,35.149,27.255,42.458,29.179,26.547,8.726,8.52
1288,0.967,35.304,27.29,42.458,29.183,26.508,8.644,8.439
1289,0.968,35.392,27.318,42.468,29.19,26.467,8.806,8.438
1290,0.955,34.99,27.287,42.458,29.183,26.304,8.686,8.519
1291,0.964,35.12,27.306,42.468,29.183,25.937,8.766,8.439
1292,0.964,35.284,27.314,42.497,29.19,25.852,8.767,8.479
1293,0.945,35.305,27.287,42.459,29.186,25.607,8.685,8.52
1294,0.948,35.018,27.181,42.458,29.179,25.279,8.725,8.398
1295,0.954,35.149,27.247,42.458,29.183,25.154,8.644,8.478
1296,0.948,35.265,27.271,42.458,29.183,24.909,8.603,8.52
1297,0.945,35.324,27.294,42.458,29.176,24.54,8.562,8.398
1298,0.964,35.056,27.334,42.478,29.189,24.333,8.683,8.519
1299,0.974,35.169,27.303,42.468,29.19,24.291,8.644,8.601
1300,0.987,35.304,27.334,42.458,29.183,24.331,8.684,8.562
1301,0.994,35.401,27.322,42.497,29.193,24.494,8.684,8.561
1302,0.987,35.009,27.291,42.44,29.179,25.024,8.684,8.561
1303,1.007,35.13,27.162,42.458,29.179,25.517,8.644,8.439
1304,1.01,35.284,27.223,42.458,29.183,26.091,8.644,8.438
1305,1.014,34.912,27.247,42.449,29.183,26.422,8.684,8.519
1306,1.027,34.995,27.263,42.43,29.176,26.588,8.644,8.358
1307,1.043,35.13,27.337,42.468,29.186,26.915,8.806,8.519
1308,1.046,35.246,27.303,42.458,29.19,26.878,8.767,8.479
1309,1.04,34.95,27.283,42.458,29.193,26.755,8.726,8.438
1310,1.053,35.12,27.263,42.497,29.197,26.673,8.848,8.519
1311,1.04,35.208,27.275,42.449,29.183,26.225,8.727,8.52
1312,1.037,35.314,27.185,42.439,29.183,25.976,8.685,8.358
1313,1.043,34.864,27.223,42.439,29.183,25.649,8.644,8.478
1314,1.043,35.004,27.259,42.439,29.183,25.442,8.684,8.56
1315,1.046,35.139,27.294,42.458,29.179,25.196,8.603,8.48
1316,1.04,35.227,27.338,42.458,29.183,24.909,8.684,8.56
1317,1.053,35.017,27.311,42.468,29.186,24.5,8.603,8.602
1318,1.053,35.168,27.287,42.439,29.186,24.211,8.643,8.562
1319,1.079,35.323,27.263,42.477,29.196,24.371,8.765,8.683
1320,1.089,35.344,27.236,42.439,29.179,24.088,8.604,8.522
1321,1.092,34.778,27.169,42.429,29.176,24.288,8.643,8.52
1322,1.115,34.955,27.18,42.449,29.183,24.778,8.684,8.52
1323,1.115,35.053,27.215,42.439,29.172,25.352,8.807,8.52
1324,1.138,35.111,27.255,42.449,29.182,25.887,8.686,8.52
1325,1.148,34.853,27.29,42.477,29.186,26.258,8.888,8.642
1326,1.165,34.984,27.271,42.449,29.179,26.546,8.93,8.603
1327,1.161,35.101,27.185,42.439,29.183,26.63,8.972,8.521
1328,1.181,35.476,27.2,42.477,29.2,26.834,9.135,8.642
1329,1.162,35.01,27.153,42.43,29.179,26.592,8.933,8.481
1330,1.171,35.139,27.153,42.468,29.176,26.387,8.931,8.357
1331,1.168,35.275,27.051,42.449,29.179,26.182,9.012,8.478
1332,1.158,34.874,27.199,42.41,29.176,25.813,8.972,8.438
1333,1.178,34.946,27.286,42.439,29.179,25.688,9.053,8.397
1334,1.178,35.091,27.295,42.429,29.183,25.565,9.095,8.519
1335,1.178,35.188,27.271,42.439,29.186,25.319,9.095,8.439
1336,1.188,34.796,27.201,42.439,29.179,25.073,9.095,8.438
1337,1.181,34.936,27.27,42.477,29.193,24.908,9.176,8.641
1338,1.181,35.024,27.228,42.43,29.179,24.5,9.055,8.399
1339,1.207,35.12,27.271,42.439,29.176,24.374,8.973,8.356
1340,1.217,34.824,27.24,42.42,29.183,24.454,9.013,8.437
1341,1.221,34.936,27.239,42.41,29.179,24.617,8.972,8.397
1342,1.25,35.1,27.255,42.429,29.186,25.147,9.094,8.316
1343,1.25,35.198,27.298,42.439,29.183,25.803,9.054,8.437
1344,1.257,34.825,27.256,42.449,29.183,26.379,9.217,8.479
1345,1.27,34.984,27.208,42.439,29.183,26.669,9.218,8.357
1346,1.293,35.139,27.239,42.458,29.203,27.119,9.422,8.437
1347,1.286,35.16,27.255,42.42,29.176,27.083,9.261,8.316
1348,1.299,34.968,27.294,42.42,29.183,27.124,9.259,8.315
1349,1.293,35.11,27.287,42.439,29.183,27.165,9.3,8.315
1350,1.273,35.208,27.256,42.42,29.176,27.002,9.219,8.396
1351,1.299,35.285,27.263,42.42,29.179,26.838,9.259,8.316
1352,1.296,34.845,27.353,42.429,29.186,26.633,9.381,8.477
1353,1.299,34.994,27.26,42.439,29.19,26.387,9.301,8.56
1354,1.296,35.101,27.165,42.429,29.183,26.222,9.301,8.48
1355,1.306,35.428,27.239,42.458,29.196,26.22,9.463,8.642
1356,1.283,34.99,27.228,42.43,29.183,25.814,9.18,8.603
1357,1.29,35.139,27.271,42.41,29.176,25.525,9.177,8.602
1358,1.299,35.265,27.287,42.42,29.176,25.4,9.137,8.684
1359,1.306,34.941,27.302,42.42,29.179,25.318,9.136,8.684
1360,1.319,34.966,27.264,42.42,29.186,25.398,9.095,8.684
1361,1.326,35.101,27.318,42.429,29.19,25.724,9.176,8.766
1362,1.339,35.217,27.334,42.439,29.186,26.256,9.218,8.767
1363,1.342,34.969,27.244,42.42,29.183,26.912,9.259,8.807
1364,1.362,35.11,27.247,42.448,29.196,27.488,9.422,8.848
1365,1.355,35.198,27.247,42.43,29.183,27.656,9.302,8.767
1366,1.359,35.295,27.255,42.42,29.176,27.861,9.301,8.645
1367,1.365,35.123,27.286,42.42,29.186,27.985,9.382,8.765
1368,1.359,35.246,27.283,42.41,29.179,27.946,9.423,8.726
1369,1.352,35.41,27.263,42.4,29.176,27.701,9.302,8.644
1370,1.336,35.508,27.287,42.439,29.186,27.496,9.423,8.765
1371,1.339,35.077,27.279,42.42,29.186,27.087,9.424,8.645
1372,1.31,35.207,27.252,42.41,29.186,26.839,9.424,8.644
1373,1.322,35.391,27.236,42.468,29.196,26.633,9.546,8.725
1374,1.3,35.412,27.236,42.411,29.186,26.347,9.425,8.685
1375,1.29,35.45,27.286,42.4,29.183,26.019,9.342,8.603
1376,1.28,35.614,27.31,42.419,29.183,25.852,9.342,8.643
1377,1.273,35.721,27.267,42.41,29.186,25.444,9.342,8.725
1378,1.26,35.77,27.267,42.41,29.176,25.278,9.301,8.522
1379,1.27,35.416,27.236,42.429,29.183,25.276,9.382,8.642
1380,1.267,35.546,27.228,42.42,29.186,25.276,9.423,8.644
1381,1.263,35.653,27.235,42.41,29.179,25.439,9.464,8.603
1382,1.27,35.721,27.224,42.448,29.193,26.009,9.587,8.562
1383,1.247,35.894,27.239,42.41,29.183,26.422,9.466,8.521
1384,1.244,36.021,27.271,42.41,29.186,26.954,9.465,8.398
1385,1.237,36.137,27.306,42.41,29.183,27.285,9.587,8.478
1386,1.231,35.899,27.256,42.41,29.179,27.491,9.588,8.438
1387,1.227,35.858,27.228,42.4,29.183,27.493,9.547,8.275
1388,1.217,36.011,27.189,42.419,29.186,27.534,9.75,8.396
1389,1.188,36.118,27.173,42.41,29.183,27.494,9.712,8.397
1390,1.171,36.014,27.153,42.41,29.186,27.168,9.752,8.356
1391,1.168,36.166,27.164,42.439,29.193,26.962,9.793,8.397
1392,1.132,36.254,27.184,42.41,29.183,26.594,9.712,8.356
1393,1.125,36.341,27.235,42.4,29.179,26.305,9.63,8.315
1394,1.096,36.236,27.282,42.4,29.183,26.099,9.629,8.437
1395,1.079,36.389,27.255,42.419,29.183,25.894,9.588,8.397
1396,1.063,36.505,27.204,42.391,29.176,25.526,9.547,8.397
1397,1.05,36.602,27.188,42.439,29.189,25.36,9.628,8.56
1398,1.03,36.507,27.141,42.429,29.183,25.073,9.548,8.602
1399,1.03,36.631,27.196,42.42,29.19,24.989,9.547,8.562
1400,1.05,36.786,27.161,42.429,29.19,25.07,9.588,8.602
1401,1.024,36.826,27.231,42.42,29.193,25.233,9.588,8.684
1402,1.027,36.673,27.251,42.381,29.183,25.682,9.507,8.603
1403,1.02,36.815,27.271,42.4,29.183,26.418,9.587,8.48
1404,1.007,36.922,27.275,42.4,29.179,26.995,9.588,8.56
1405,1.001,36.942,27.216,42.372,29.169,27.326,9.507,8.521
1406,1.01,37.009,27.13,42.41,29.186,27.736,9.628,8.601
1407,0.997,37.135,27.242,42.41,29.196,27.903,9.751,8.602
1408,0.987,37.251,27.216,42.41,29.19,27.904,9.793,8.602
1409,0.978,37.281,27.302,42.4,29.186,27.823,9.712,8.643
1410,0.951,37.128,27.275,42.429,29.193,27.659,9.752,8.725
1411,0.925,37.232,27.224,42.391,29.179,27.251,9.508,8.563
1412,0.922,37.348,27.267,42.4,29.179,27.003,9.587,8.48
1413,0.902,37.407,27.29,42.419,29.183,26.838,9.547,8.601
1414,0.882,37.436,27.24,42.372,29.172,26.592,9.506,8.521
1415,0.885,37.599,27.161,42.419,29.186,26.59,9.587,8.723
1416,0.856,37.716,27.219,42.401,29.186,26.427,9.547,8.766
1417,0.849,37.516,27.247,42.419,29.183,26.101,9.425,8.807
1418,0.862,37.638,27.263,42.42,29.183,25.772,9.424,8.767
1419,0.859,37.774,27.271,42.42,29.196,25.891,9.505,8.807
1420,0.856,37.823,27.279,42.391,29.179,25.689,9.384,8.686
1421,0.859,37.689,27.259,42.391,29.176,25.849,9.301,8.684
1422,0.866,37.851,27.302,42.4,29.186,26.42,9.341,8.644
1423,0.843,37.92,27.26,42.362,29.176,26.914,9.26,8.725
1424,0.853,38.036,27.173,42.409,29.189,27.488,9.381,8.685
1425,0.856,37.759,27.223,42.4,29.19,27.86,9.423,8.725
1426,0.849,37.89,27.231,42.41,29.19,27.985,9.464,8.685
1427,0.859,37.997,27.263,42.381,29.186,28.068,9.505,8.603
1428,0.846,38.084,27.29,42.419,29.196,28.15,9.628,8.806
1429,0.827,38.037,27.341,42.391,29.183,27.866,9.466,8.604
1430,0.826,38.2,27.276,42.381,29.179,27.579,9.424,8.562
1431,0.807,38.297,27.318,42.381,29.186,27.251,9.424,8.643
1432,0.787,38.337,27.291,42.381,29.179,26.881,9.424,8.644
1433,0.797,38.136,27.236,42.381,29.186,26.634,9.383,8.603
1434,0.784,38.297,27.239,42.41,29.193,26.469,9.464,8.806
1435,0.787,38.385,27.243,42.4,29.183,26.223,9.383,8.848
1436,0.774,38.395,27.263,42.4,29.183,25.976,9.382,8.808
1437,0.784,38.376,27.31,42.429,29.196,25.811,9.423,8.97
1438,0.764,38.472,27.291,42.381,29.183,25.444,9.261,8.85
1439,0.767,38.569,27.271,42.371,29.183,25.359,9.178,8.808
1440,0.787,38.493,27.267,42.371,29.183,25.48,9.137,8.848
1441,0.774,38.406,27.232,42.371,29.179,25.684,9.299,8.808
1442,0.787,38.558,27.232,42.371,29.183,26.175,9.301,8.808
1443,0.8,38.665,27.224,42.4,29.19,26.789,9.463,8.889
1444,0.797,38.35,27.228,42.391,29.183,27.283,9.383,8.89
1445,0.787,38.443,27.251,42.391,29.186,27.654,9.545,8.809
1446,0.803,38.607,27.302,42.4,29.2,27.983,9.588,8.93
1447,0.787,38.647,27.256,42.362,29.183,27.742,9.588,8.728
1448,0.787,38.446,27.24,42.342,29.183,27.699,9.547,8.685
1449,0.79,38.587,27.193,42.381,29.186,27.536,9.628,8.725
1450,0.761,38.694,27.2,42.371,29.186,27.291,9.629,8.766
1451,0.764,38.791,27.239,42.381,29.186,26.922,9.507,8.604
1452,0.761,38.591,27.193,42.4,29.19,26.837,9.709,8.765
1453,0.757,38.723,27.247,42.381,29.19,26.552,9.589,8.767
1454,0.751,38.84,27.271,42.381,29.186,26.468,9.547,8.726
1455,0.757,38.917,27.322,42.381,29.19,26.345,9.547,8.685
1456,0.748,38.525,27.244,42.41,29.193,26.181,9.588,8.766
1457,0.731,38.655,27.228,42.362,29.176,25.813,9.425,8.604
1458,0.731,38.762,27.169,42.381,29.183,25.688,9.424,8.643
1459,0.741,38.802,27.137,42.371,29.179,25.686,9.383,8.644
1460,0.741,38.716,27.137,42.343,29.179,25.646,9.382,8.562
1461,0.764,38.897,27.145,42.381,29.186,26.052,9.505,8.683
1462,0.761,38.995,27.223,42.381,29.19,26.747,9.546,8.684
1463,0.761,39.015,27.247,42.391,29.19,27.405,9.669,8.644
1464,0.783,38.603,27.306,42.371,29.183,28.062,9.629,8.644
1465,0.784,38.752,27.283,42.4,29.196,28.556,9.832,8.725
1466,0.774,38.83,27.197,42.343,29.179,28.683,9.672,8.522
1467,0.777,38.754,27.141,42.352,29.186,28.847,9.711,8.479
1468,0.784,38.658,27.184,42.381,29.179,28.849,9.792,8.438
1469,0.764,38.743,27.184,42.352,29.172,28.564,9.753,8.438
1470,0.77,38.878,27.083,42.409,29.186,28.439,9.874,8.519
1471,0.767,38.544,27.211,42.391,29.193,28.194,9.957,8.52
1472,0.757,38.617,27.216,42.381,29.186,27.745,9.917,8.479
1473,0.744,38.733,27.255,42.362,29.183,27.496,9.794,8.56
1474,0.751,38.849,27.318,42.4,29.196,27.331,9.956,8.48
1475,0.741,38.63,27.225,42.362,29.183,26.963,9.754,8.398
1476,0.738,38.762,27.161,42.371,29.176,26.594,9.712,8.438
1477,0.725,38.907,27.243,42.343,29.183,26.346,9.752,8.479
1478,0.731,38.966,27.228,42.342,29.179,26.019,9.712,8.52
1479,0.744,38.468,27.271,42.361,29.176,25.852,9.67,8.358
1480,0.747,38.607,27.271,42.381,29.189,26.014,9.792,8.559
1481,0.751,38.733,27.248,42.362,29.183,26.178,9.793,8.521
1482,0.751,38.811,27.259,42.352,29.19,26.708,9.753,8.439
1483,0.774,38.61,27.318,42.39,29.19,27.445,9.833,8.601
1484,0.758,38.714,27.244,42.352,29.186,27.859,9.712,8.44
1485,0.764,38.839,27.122,42.352,29.179,28.107,9.752,8.397
1486,0.774,38.908,27.219,42.352,29.183,28.394,9.712,8.397
1487,0.774,38.391,27.204,42.333,29.186,28.438,9.752,8.356
1488,0.78,38.539,27.255,42.352,29.176,28.397,9.712,8.275
1489,0.78,38.684,27.24,42.371,29.196,28.397,9.833,8.396
1490,0.771,38.686,27.282,42.362,29.186,28.153,9.875,8.397
1491,0.77,38.456,27.259,42.352,29.186,27.907,9.794,8.397
1492,0.77,38.616,27.302,42.381,29.196,27.66,9.793,8.397
1493,0.751,38.704,27.271,42.343,29.186,27.373,9.671,8.397
1494,0.748,38.724,27.115,42.342,29.183,27.289,9.67,8.275
1495,0.751,38.494,27.203,42.342,29.179,27.207,9.629,8.355
1496,0.748,38.645,27.239,42.361,29.183,27.084,9.67,8.437
1497,0.741,38.733,27.232,42.342,29.172,26.676,9.507,8.235
1498,0.734,38.101,27.286,42.352,29.189,26.672,9.587,8.477
1499,0.744,38.085,27.31,42.352,29.19,26.55,9.588,8.398
1500,0.751,38.248,27.291,42.352,29.183,26.549,9.547,8.397
1501,0.767,38.365,27.275,42.362,29.19,26.834,9.588,8.356
1502,0.764,38.098,27.271,42.342,29.19,27.324,9.588,8.437
1503,0.78,38.229,27.205,42.342,29.183,27.898,9.507,8.275
1504,0.78,38.374,27.2,42.333,29.186,28.392,9.506,8.274
1505,0.787,38.453,27.255,42.342,29.19,28.682,9.628,8.314
1506,0.784,37.763,27.24,42.304,29.179,28.807,9.426,8.152
1507,0.793,37.929,27.267,42.332,29.186,28.97,9.627,8.273
1508,0.793,38.055,27.251,42.342,29.193,28.891,9.629,8.233
1509,0.784,38.104,27.271,42.342,29.186,28.727,9.629,8.273
1510,0.784,37.951,27.212,42.323,29.186,28.36,9.67,8.274
1511,0.774,38.074,27.255,42.342,29.2,28.153,9.751,8.436
1512,0.761,38.143,27.22,42.313,29.176,27.582,9.468,8.235
1513,0.761,38.239,27.13,42.342,29.179,27.251,9.505,8.273
1514,0.757,37.742,27.199,42.333,29.189,26.881,9.506,8.314
1515,0.761,37.852,27.227,42.304,29.179,26.43,9.303,8.274
1516,0.754,38.006,27.286,42.351,29.189,26.223,9.423,8.436
1517,0.754,38.036,27.259,42.352,29.193,25.773,9.424,8.479
1518,0.751,37.692,27.24,42.323,29.19,25.484,9.383,8.398
1519,0.764,37.87,27.243,42.342,29.186,25.278,9.342,8.438
1520,0.764,37.949,27.255,42.342,29.19,25.357,9.464,8.519
1521,0.764,37.978,27.212,42.304,29.179,25.439,9.424,8.317
1522,0.78,37.499,27.208,42.342,29.179,25.928,9.424,8.356
1523,0.78,37.629,27.22,42.333,29.183,26.583,9.464,8.356
1524,0.78,37.735,27.235,42.304,29.176,26.956,9.343,8.275
1525,0.8,37.516,27.286,42.332,29.189,27.488,9.545,8.355
1526,0.794,37.581,27.295,42.342,29.183,27.616,9.628,8.356
1527,0.806,37.716,27.224,42.323,29.193,27.779,9.588,8.356
1528,0.807,37.813,27.2,42.332,29.183,27.7,9.629,8.315
1529,0.8,37.335,27.173,42.342,29.196,27.618,9.71,8.437
1530,0.781,37.426,27.149,42.304,29.179,27.292,9.589,8.235
1531,0.787,37.551,27.172,42.304,29.186,26.922,9.588,8.273
1532,0.78,37.658,27.165,42.418,29.186,26.675,9.588,8.314
1533,0.751,37.055,27.188,42.286,29.183,26.347,9.547,8.234
1534,0.764,37.231,27.262,42.323,29.186,26.344,9.588,8.273
1535,0.774,37.367,27.263,42.313,29.186,26.059,9.629,8.355
1536,0.761,37.455,27.197,42.304,29.183,25.894,9.67,8.356
1537,0.757,37.082,27.165,42.332,29.186,25.607,9.589,8.315
1538,0.767,37.231,27.137,42.342,29.196,25.523,9.669,8.518
1539,0.757,37.319,27.055,42.304,29.179,25.197,9.507,8.276
1540,0.77,37.397,27.101,42.313,29.176,25.234,9.506,8.274
1541,0.78,36.966,27.187,42.38,29.186,25.438,9.546,8.355
1542,0.771,37.106,27.208,42.285,29.186,25.928,9.588,8.356
1543,0.8,37.251,27.212,42.294,29.19,26.543,9.629,8.315
1544,0.8,37.281,27.286,42.313,29.193,27.037,9.751,8.396
1545,0.794,36.831,27.22,42.304,29.19,27.408,9.752,8.356
1546,0.793,37.008,27.189,42.304,29.19,27.655,9.752,8.315
1547,0.823,37.144,27.255,42.342,29.2,27.942,9.833,8.437
1548,0.807,37.414,27.216,42.285,29.183,27.742,9.753,8.275
1549,0.8,36.899,27.239,42.275,29.179,27.537,9.671,8.152
1550,0.794,37.047,27.224,42.284,29.183,27.372,9.751,8.273
1551,0.784,37.135,27.243,42.294,29.186,27.045,9.793,8.233
1552,0.777,36.685,27.197,42.284,29.179,26.595,9.631,8.151
1553,0.764,36.719,27.29,42.294,29.196,26.549,9.751,8.354
1554,0.764,36.844,27.228,42.284,29.183,26.346,9.712,8.397
1555,0.754,36.932,27.165,42.303,29.186,26.303,9.752,8.356
1556,0.754,36.626,27.223,42.323,29.196,26.14,9.712,8.437
1557,0.757,36.699,27.212,42.285,29.186,25.854,9.67,8.438
1558,0.751,36.815,27.227,42.294,29.179,25.566,9.589,8.357
1559,0.764,36.912,27.286,42.284,29.183,25.523,9.588,8.356
1560,0.777,36.453,27.267,42.284,29.183,25.685,9.588,8.356
1561,0.78,36.631,27.216,42.265,29.172,25.768,9.547,8.315
1562,0.793,36.757,27.243,42.294,29.193,26.338,9.669,8.477
1563,0.797,36.835,27.259,42.284,29.186,26.913,9.67,8.438
1564,0.797,36.241,27.146,42.303,29.19,27.325,9.711,8.519
1565,0.81,36.437,27.196,42.399,29.197,27.736,9.752,8.439
1566,0.816,36.525,27.216,42.276,29.19,28.025,9.712,8.438
1567,0.816,36.583,27.231,42.246,29.186,27.946,9.67,8.357
1568,0.803,37.6,27.271,42.265,29.179,27.986,9.711,8.315
1569,0.807,37.745,27.259,42.284,29.189,27.905,9.752,8.356
1570,0.784,37.842,27.255,42.255,29.183,27.579,9.59,8.397
1571,0.793,37.91,27.279,42.284,29.196,27.494,9.669,8.356
1572,0.784,35.552,27.291,42.275,29.19,27.168,9.67,8.437
1573,0.774,35.682,27.318,42.284,29.19,26.921,9.629,8.438
1574,0.777,35.837,27.197,42.265,29.19,26.715,9.588,8.397
1575,0.777,35.963,27.223,42.341,29.2,26.591,9.669,8.6
1576,0.78,36.309,27.196,42.266,29.179,26.224,9.467,8.44
1577,0.767,36.466,27.255,42.265,29.176,25.895,9.505,8.479
1578,0.774,36.564,27.255,42.265,29.183,25.689,9.465,8.56
1579,0.764,36.008,27.244,42.246,29.176,25.565,9.465,8.521
1580,0.787,35.945,27.259,42.255,29.189,25.685,9.505,8.52
1581,0.78,36.108,27.24,42.265,29.193,25.931,9.506,8.52
1582,0.787,36.215,27.243,42.274,29.186,26.38,9.506,8.601
1583,0.79,35.861,27.275,42.274,29.186,26.832,9.587,8.48
1584,0.803,35.992,27.212,42.313,29.2,27.406,9.751,8.642
1585,0.79,36.099,27.099,42.275,29.186,27.615,9.63,8.481
1586,0.803,36.196,27.176,42.255,29.176,27.739,9.629,8.357
1587,0.81,35.755,27.18,42.255,29.186,27.821,9.67,8.397
1588,0.803,35.876,27.231,42.246,29.183,27.781,9.711,8.438
1589,0.8,36.04,27.22,42.265,29.19,27.659,9.63,8.357
1590,0.794,36.128,27.231,42.265,29.19,27.536,9.71,8.397
1591,0.787,35.822,27.232,42.265,29.193,27.25,9.752,8.438
1592,0.78,35.953,27.294,42.265,29.19,26.881,9.712,8.438
1593,0.774,36.127,27.322,42.284,29.203,26.715,9.752,8.519
1594,0.751,36.138,27.236,42.265,29.186,26.347,9.671,8.479
1595,0.754,35.601,27.169,42.236,29.172,26.14,9.589,8.398
1596,0.741,35.759,27.18,42.255,29.182,25.935,9.507,8.478
1597,0.734,35.876,27.235,42.265,29.179,25.73,9.506,8.479
1598,0.747,35.925,27.255,42.255,29.176,25.443,9.425,8.438
1599,0.751,35.724,27.197,42.274,29.186,25.399,9.505,8.56
1600,0.764,35.885,27.216,42.255,29.19,25.44,9.506,8.48
1601,0.77,35.992,27.216,42.246,29.193,25.643,9.546,8.52
1602,0.78,36.031,27.278,42.293,29.197,26.377,9.669,8.52
1603,0.774,35.485,27.263,42.246,29.186,26.832,9.589,8.561
1604,0.777,35.624,27.228,42.245,29.183,27.324,9.547,8.439
1605,0.784,35.75,27.122,42.255,29.183,27.736,9.628,8.479
1606,0.784,35.684,27.184,42.246,29.183,27.903,9.629,8.479
1607,0.797,35.721,27.18,42.236,29.179,27.986,9.507,8.276
1608,0.79,35.894,27.239,42.245,29.189,28.19,9.709,8.477
1609,0.787,35.983,27.224,42.245,29.183,28.151,9.752,8.479
1610,0.764,35.533,27.228,42.245,29.19,27.785,9.671,8.479
1611,0.774,35.682,27.286,42.284,29.19,27.618,9.711,8.52
1612,0.751,35.769,27.252,42.265,29.193,27.292,9.752,8.52
1613,0.748,35.857,27.279,42.236,29.186,26.922,9.549,8.358
1614,0.744,35.551,27.213,42.236,29.183,26.797,9.588,8.397
1615,0.731,35.701,27.153,42.265,29.183,26.673,9.588,8.478
1616,0.728,35.808,27.172,42.236,29.176,26.306,9.385,8.438
1617,0.734,35.943,27.239,42.265,29.193,26.14,9.627,8.519
1618,0.728,35.532,27.232,42.255,29.197,26.016,9.588,8.561
1619,0.734,35.682,27.239,42.236,29.183,25.852,9.507,8.561
1620,0.757,35.827,27.263,42.265,29.19,25.851,9.587,8.521
1621,0.748,35.876,27.244,42.265,29.193,26.095,9.629,8.601
1622,0.751,35.676,27.259,42.226,29.183,26.382,9.507,8.44
1623,0.754,35.817,27.251,42.217,29.19,27.035,9.587,8.397
1624,0.757,35.943,27.197,42.255,29.183,27.57,9.669,8.356
1625,0.751,35.973,27.095,42.226,29.179,27.82,9.589,8.275
1626,0.78,35.705,27.199,42.226,29.193,28.147,9.751,8.314
1627,0.777,35.837,27.212,42.245,29.197,28.273,9.874,8.315
1628,0.78,35.963,27.224,42.245,29.183,28.233,9.753,8.315
1629,0.761,35.993,27.228,42.236,29.19,28.111,9.793,8.274
1630,0.754,35.792,27.247,42.265,29.197,28.028,9.915,8.436
1631,0.744,35.895,27.208,42.226,29.183,27.499,9.794,8.235
1632,0.734,36.021,27.22,42.226,29.186,27.168,9.793,8.192
1633,0.728,35.897,27.255,42.236,29.186,26.962,9.712,8.273
1634,0.718,35.848,27.162,42.226,29.179,26.756,9.752,8.233
1635,0.734,36.049,27.165,42.245,29.183,26.592,9.712,8.192
1636,0.728,36.147,27.215,42.265,29.19,26.427,9.792,8.354
1637,0.708,35.784,27.22,42.246,29.19,26.182,9.753,8.315
1638,0.695,35.876,27.22,42.245,29.179,25.976,9.63,8.315
1639,0.721,36.04,27.247,42.265,29.203,26.137,9.751,8.315
1640,0.715,36.099,27.259,42.226,29.19,26.098,9.63,8.193
1641,0.731,35.841,27.244,42.217,29.186,26.341,9.548,8.151
1642,0.738,35.992,27.298,42.255,29.183,26.791,9.588,8.15
1643,0.721,36.108,27.275,42.217,29.183,27.446,9.669,8.273
1644,0.741,36.196,27.146,42.226,29.183,27.819,9.589,8.111
1645,0.751,36.024,27.196,42.236,29.19,28.269,9.751,8.272
1646,0.748,36.166,27.208,42.236,29.19,28.396,9.752,8.193
1647,0.751,36.292,27.251,42.217,29.186,28.56,9.712,8.273
1648,0.774,36.389,27.259,42.255,29.196,28.561,9.711,8.233
1649,0.748,36.007,27.267,42.226,29.186,28.399,9.792,8.233
1650,0.731,36.156,27.267,42.217,29.179,28.153,9.671,8.192
1651,0.738,36.292,27.263,42.226,29.183,27.907,9.67,8.151
1652,0.728,36.332,27.267,42.245,29.193,27.62,9.711,8.232
1653,0.715,36.159,27.205,42.188,29.183,27.17,9.548,8.151
1654,0.724,36.34,27.142,42.245,29.186,27.206,9.628,8.232
1655,0.721,36.457,27.153,42.226,29.186,27.003,9.67,8.314
1656,0.702,36.487,27.215,42.226,29.193,26.635,9.589,8.315
1657,0.708,36.286,27.227,42.245,29.186,26.347,9.588,8.193
1658,0.708,36.428,27.278,42.265,29.196,26.222,9.588,8.436
1659,0.698,36.525,27.271,42.217,29.176,25.854,9.507,8.275
1660,0.714,36.516,27.267,42.207,29.186,25.932,9.465,8.152
1661,0.731,36.478,27.24,42.226,29.186,26.055,9.383,8.191
1662,0.718,36.564,27.29,42.197,29.179,26.381,9.464,8.192
1663,0.734,36.708,27.236,42.207,29.186,26.995,9.424,8.192
1664,0.731,36.345,27.13,42.245,29.19,27.57,9.627,8.314
1665,0.738,36.409,27.188,42.217,29.186,27.82,9.548,8.234
1666,0.744,36.553,27.223,42.226,29.19,28.025,9.466,8.192
1667,0.754,36.67,27.263,42.264,29.203,28.231,9.627,8.273
1668,0.744,36.499,27.248,42.198,29.19,28.07,9.548,8.193
1669,0.738,36.621,27.197,42.197,29.183,27.946,9.425,8.192
1670,0.731,36.766,27.2,42.226,29.193,27.742,9.505,8.151
1671,0.725,36.854,27.278,42.207,29.19,27.415,9.465,8.273
1672,0.728,36.654,27.255,42.188,29.183,27.005,9.302,8.111
1673,0.721,36.815,27.24,42.235,29.186,26.879,9.463,8.354
1674,0.721,36.979,27.099,42.255,29.183,26.674,9.505,8.315
1675,0.715,37.019,27.168,42.217,29.183,26.51,9.343,8.396
1676,0.718,36.79,27.211,42.236,29.196,26.305,9.342,8.438
1677,0.695,36.922,27.243,42.245,29.193,25.937,9.342,8.519
1678,0.688,37.009,27.255,42.198,29.183,25.648,9.219,8.398
1679,0.705,37.077,27.189,42.216,29.183,25.564,9.259,8.438
1680,0.711,36.896,27.231,42.188,29.19,25.685,9.219,8.479
1681,0.711,37.028,27.224,42.178,29.183,25.727,9.178,8.357
1682,0.724,37.164,27.302,42.226,29.186,26.338,9.38,8.437
1683,0.734,37.203,27.154,42.236,29.186,26.994,9.423,8.519
1684,0.734,36.935,27.184,42.226,29.186,27.57,9.424,8.479
1685,0.738,37.076,27.223,42.207,29.19,27.942,9.424,8.438
1686,0.751,37.193,27.271,42.235,29.203,28.311,9.586,8.519
1687,0.741,37.127,27.275,42.207,29.183,28.356,9.425,8.398
1688,0.731,36.982,27.232,42.216,29.186,28.315,9.424,8.275
1689,0.728,37.125,27.232,42.207,29.186,28.315,9.505,8.314
1690,0.718,37.203,27.232,42.197,29.186,28.071,9.465,8.356
1691,0.724,37.079,27.251,42.216,29.183,27.825,9.424,8.315
1692,0.715,37.174,27.243,42.226,29.193,27.538,9.546,8.396
1693,0.698,37.328,27.138,42.207,29.186,27.372,9.425,8.438
1694,0.698,37.416,27.192,42.197,29.186,27.248,9.464,8.438
1695,0.714,37.139,27.227,42.235,29.2,27.125,9.465,8.56
1696,0.692,37.222,27.235,42.226,29.183,26.758,9.424,8.561
1697,0.688,37.348,27.247,42.207,29.179,26.429,9.383,8.48
1698,0.682,37.426,27.259,42.197,29.179,26.182,9.382,8.52
1699,0.692,37.101,27.193,42.207,29.189,26.098,9.342,8.642
1700,0.701,37.251,27.219,42.188,29.176,26.016,9.301,8.44
1701,0.708,37.386,27.228,42.207,29.193,26.137,9.463,8.601
1702,0.711,37.445,27.22,42.216,29.193,26.423,9.383,8.602
1703,0.715,37.177,27.153,42.236,29.197,26.995,9.505,8.643
1704,0.737,37.395,27.184,42.255,29.2,27.448,9.546,8.603
1705,0.728,37.455,27.188,42.198,29.193,27.697,9.506,8.684
1706,0.734,37.494,27.243,42.187,29.183,27.74,9.465,8.481
1707,0.741,37.312,27.255,42.207,29.186,27.821,9.546,8.479
1708,0.738,37.464,27.224,42.207,29.193,27.903,9.506,8.52
1709,0.728,37.571,27.212,42.178,29.176,27.66,9.384,8.398
1710,0.725,37.61,27.224,42.216,29.196,27.658,9.505,8.56
1711,0.715,37.361,27.231,42.197,29.19,27.414,9.628,8.602
1712,0.705,37.493,27.177,42.197,29.19,26.964,9.588,8.602
1713,0.708,37.619,27.196,42.226,29.186,26.716,9.466,8.602
1714,0.702,37.649,27.2,42.226,29.196,26.551,9.627,8.765
1715,0.692,37.39,27.231,42.188,29.19,26.183,9.385,8.604
1716,0.682,37.522,27.255,42.187,29.186,26.057,9.423,8.602
1717,0.695,37.648,27.224,42.197,29.183,25.731,9.424,8.643
1718,0.685,37.323,27.192,42.187,29.176,25.362,9.261,8.603
1719,0.695,37.416,27.216,42.226,29.189,25.439,9.422,8.684
1720,0.711,37.561,27.185,42.188,29.197,25.44,9.424,8.766
1721,0.702,37.629,27.188,42.197,29.183,25.643,9.505,8.685
1722,0.708,37.237,27.145,42.197,29.186,26.093,9.465,8.684
1723,0.731,37.377,27.192,42.226,29.193,26.748,9.627,8.725
1724,0.721,37.484,27.169,42.197,29.186,27.12,9.507,8.522
1725,0.718,37.571,27.239,42.187,29.19,27.49,9.506,8.561
1726,0.734,37.438,27.232,42.187,29.186,27.819,9.465,8.521
1727,0.738,37.561,27.204,42.149,29.179,27.903,9.505,8.479
1728,0.747,37.725,27.181,42.206,29.189,28.067,9.587,8.438
1729,0.734,37.775,27.161,42.188,29.197,28.028,9.669,8.56
1730,0.718,37.229,27.137,42.216,29.19,27.824,9.711,8.521
1731,0.715,37.367,27.153,42.197,29.193,27.659,9.63,8.52
1732,0.711,37.531,27.141,42.235,29.2,27.414,9.71,8.642
1733,0.682,37.543,27.196,42.178,29.186,26.924,9.63,8.481
1734,0.688,37.667,27.227,42.178,29.19,26.715,9.629,8.479
1735,0.675,37.803,27.259,42.187,29.179,26.551,9.588,8.479
1736,0.669,37.9,27.251,42.168,29.176,26.183,9.547,8.52
1737,0.688,37.968,27.212,42.197,29.193,25.935,9.588,8.561
1738,0.675,37.173,27.173,42.207,29.19,25.689,9.547,8.602
1739,0.685,37.309,27.145,42.226,29.193,25.524,9.547,8.562
1740,0.705,37.425,27.153,42.197,29.19,25.482,9.588,8.521
1741,0.708,37.705,27.121,42.226,29.197,25.806,9.71,8.642
1742,0.682,37.372,27.137,42.178,29.186,26.094,9.63,8.481
1743,0.718,37.512,27.172,42.178,29.19,26.585,9.588,8.398
1744,0.721,37.638,27.215,42.178,29.186,27.119,9.71,8.438
1745,0.715,37.247,27.255,42.187,29.186,27.49,9.792,8.357
1746,0.747,37.3,27.173,42.168,29.186,27.697,9.631,8.356
1747,0.741,37.454,27.133,42.187,29.196,27.902,9.873,8.437
1748,0.738,37.542,27.113,42.187,29.193,27.986,9.876,8.397
1749,0.738,37.217,27.082,42.187,29.19,27.742,9.916,8.356
1750,0.734,37.405,27.117,42.207,29.207,27.659,9.916,8.437
1751,0.718,37.503,27.102,42.188,29.193,27.333,9.916,8.479
1752,0.715,37.581,27.176,42.178,29.179,26.841,9.754,8.235
1753,0.702,37.035,27.208,42.187,29.186,26.552,9.752,8.355
1754,0.701,37.173,27.266,42.197,29.193,26.427,9.833,8.397
1755,0.708,37.28,27.255,42.149,29.179,26.019,9.631,8.356
1756,0.705,37.406,27.204,42.197,29.189,26.056,9.71,8.478
1757,0.689,37.177,27.13,42.178,29.186,25.731,9.711,8.52
1758,0.688,37.328,27.098,42.187,29.19,25.484,9.589,8.52
1759,0.701,37.445,27.137,42.178,29.183,25.441,9.588,8.52
1760,0.718,37.523,27.11,42.206,29.2,25.603,9.751,8.642
1761,0.698,37.111,27.027,42.159,29.179,25.686,9.59,8.318
1762,0.705,37.26,27.151,42.158,29.183,26.093,9.71,8.356
1763,0.708,37.406,27.2,42.178,29.19,26.789,9.711,8.356
1764,0.711,37.407,27.223,42.149,29.176,27.202,9.67,8.397
1765,0.737,37.024,27.224,42.177,29.193,27.694,9.751,8.478
1766,0.731,37.173,27.13,42.187,29.19,27.984,9.915,8.52
1767,0.734,37.29,27.113,42.178,29.193,27.987,9.876,8.439
1768,0.747,37.636,27.133,42.245,29.19,28.108,9.916,8.479
1769,0.747,37.084,27.168,42.188,29.203,28.069,9.998,8.52
1770,0.721,37.193,27.11,42.197,29.183,27.621,9.836,8.398
1771,0.718,37.319,27.183,42.168,29.183,27.332,9.875,8.397
1772,0.705,37.052,27.141,42.178,29.19,27.004,9.997,8.438
1773,0.682,37.049,27.184,42.149,29.186,26.757,9.917,8.438
1774,0.701,37.231,27.266,42.168,29.183,26.51,9.876,8.397
1775,0.705,37.329,27.201,42.187,29.186,26.386,9.916,8.478
1776,0.692,36.85,27.153,42.168,29.19,26.141,9.957,8.52
1777,0.695,36.961,27.188,42.264,29.183,25.854,9.917,8.52
1778,0.714,37.115,27.216,42.217,29.2,25.688,9.916,8.561
1779,0.698,37.174,27.181,42.149,29.183,25.443,9.754,8.439
1780,0.708,36.858,27.219,42.168,29.183,25.44,9.752,8.438
1781,0.715,36.999,27.177,42.168,29.186,25.603,9.712,8.397
1782,0.705,37.115,27.184,42.158,29.19,26.092,9.752,8.478
1783,0.724,37.213,27.208,42.168,29.183,26.707,9.752,8.398
1784,0.721,36.792,27.263,42.187,29.193,27.364,9.793,8.478
1785,0.721,36.941,27.154,42.178,29.19,27.696,9.915,8.438
1786,0.728,37.067,27.141,42.178,29.197,27.943,9.916,8.357
1787,0.741,37.154,27.164,42.206,29.204,28.23,9.957,8.356
1788,0.728,36.743,27.184,42.168,29.186,28.111,9.876,8.315
1789,0.718,36.892,27.2,42.139,29.183,28.028,9.753,8.274
1790,0.715,37.019,27.204,42.149,29.183,27.824,9.793,8.355
1791,0.711,37.029,27.184,42.158,29.183,27.497,9.834,8.275
1792,0.708,36.703,27.196,42.158,29.186,27.087,9.631,8.233
1793,0.698,36.873,27.227,42.158,29.19,27.002,9.792,8.355
1794,0.711,36.98,27.208,42.158,29.193,26.716,9.712,8.478
1795,0.695,37.019,27.106,42.149,29.19,26.551,9.67,8.357
1796,0.708,36.799,27.176,42.197,29.203,26.468,9.711,8.478
1797,0.689,36.883,27.176,42.159,29.183,26.02,9.63,8.52
1798,0.692,37.009,27.165,42.149,29.179,25.69,9.507,8.398
1799,0.695,36.607,27.239,42.158,29.186,25.686,9.506,8.356
1800,0.714,36.546,27.228,42.149,29.179,25.605,9.506,8.397
1801,0.721,36.699,27.204,42.139,29.186,25.686,9.465,8.316
1802,0.737,36.806,27.231,42.168,29.193,26.337,9.627,8.396
1803,0.76,36.481,27.255,42.149,29.197,26.994,9.588,8.356
1804,0.78,36.583,27.154,42.158,29.19,27.529,9.588,8.397
1805,0.81,36.766,27.172,42.245,29.197,27.901,9.751,8.316
1806,0.82,36.816,27.169,42.159,29.186,28.107,9.671,8.315
1807,0.852,36.385,27.157,42.139,29.183,28.232,9.589,8.152
1808,0.879,36.515,27.2,42.149,29.186,28.314,9.629,8.191
1809,0.898,36.67,27.227,42.158,29.19,28.274,9.629,8.151
1810,0.899,36.738,27.235,42.139,29.179,27.949,9.588,8.11
1811,0.908,36.403,27.228,42.177,29.193,27.783,9.629,8.272
1812,0.921,36.544,27.228,42.159,29.193,27.456,9.588,8.274
1813,0.925,36.689,27.239,42.149,29.19,27.249,9.507,8.233
1814,0.948,36.777,27.13,42.187,29.197,27.085,9.506,8.314
1815,0.954,36.385,27.172,42.159,29.193,26.92,9.506,8.356
1816,0.961,36.515,27.161,42.149,29.186,26.593,9.384,8.437
1817,0.977,36.641,27.184,42.149,29.186,26.305,9.342,8.316
1818,0.997,36.7,27.239,42.158,29.186,26.099,9.342,8.396
1819,1.017,36.163,27.189,42.13,29.179,25.853,9.219,8.316
1820,1.036,36.321,27.192,42.158,29.193,26.014,9.34,8.437
1821,1.04,36.437,27.235,42.158,29.19,26.218,9.26,8.438
1822,1.046,36.458,27.224,42.149,29.19,26.627,9.341,8.397
1823,1.066,36.333,27.208,42.187,29.19,27.363,9.301,8.438
1824,1.047,36.457,27.138,42.168,29.193,27.98,9.423,8.479
1825,1.04,36.554,27.184,42.12,29.183,28.312,9.302,8.316
1826,1.037,36.248,27.192,42.129,29.186,28.559,9.341,8.315
1827,1.043,36.149,27.216,42.148,29.193,28.765,9.342,8.356
1828,1.053,36.273,27.224,42.129,29.179,28.685,9.26,8.193
1829,1.05,36.399,27.255,42.148,29.193,28.725,9.381,8.354
1830,1.04,36.131,27.244,42.149,29.197,28.441,9.423,8.356
1831,1.027,36.244,27.2,42.149,29.19,28.072,9.383,8.356
1832,1.023,36.398,27.212,42.168,29.197,27.743,9.342,8.397
1833,0.988,36.486,27.13,42.139,29.197,27.537,9.423,8.438
1834,0.987,35.998,27.172,42.12,29.183,27.128,9.261,8.275
1835,0.984,36.166,27.176,42.139,29.183,26.88,9.219,8.314
1836,0.958,36.292,27.204,42.149,29.186,26.593,9.259,8.396
1837,0.938,36.332,27.231,42.11,29.169,26.224,9.015,8.316
1838,0.922,35.987,27.247,42.148,29.196,26.017,9.257,8.356
1839,0.918,36.127,27.2,42.158,29.19,25.893,9.259,8.397
1840,0.922,36.253,27.216,42.149,29.19,25.851,9.219,8.397
1841,0.938,36.36,27.2,42.158,29.197,26.095,9.259,8.356
1842,0.922,35.978,27.181,42.149,29.197,26.626,9.422,8.437
1843,0.918,36.098,27.071,42.129,29.19,27.16,9.261,8.235
1844,0.922,36.234,27.183,42.129,29.19,27.734,9.341,8.273
1845,0.912,36.293,27.2,42.148,29.19,28.106,9.423,8.355
1846,0.902,36.006,27.212,42.101,29.179,28.232,9.383,8.275
1847,0.908,36.166,27.235,42.139,29.193,28.355,9.464,8.274
1848,0.905,36.283,27.196,42.139,29.197,28.397,9.546,8.274
1849,0.886,36.303,27.161,42.139,29.19,28.234,9.588,8.355
1850,0.866,35.872,27.207,42.139,29.197,27.989,9.547,8.356
1851,0.862,36.059,27.224,42.158,29.204,27.702,9.71,8.397
1852,0.843,36.128,27.173,42.149,29.186,27.292,9.589,8.316
1853,0.826,35.994,27.2,42.187,29.19,26.963,9.507,8.193
1854,0.81,35.955,27.173,42.13,29.186,26.838,9.506,8.273
1855,0.8,36.089,27.223,42.101,29.186,26.674,9.546,8.274
1856,0.797,36.186,27.247,42.139,29.179,26.388,9.506,8.193
1857,0.803,35.717,27.232,42.139,29.186,26.182,9.587,8.395
1858,0.787,35.818,27.173,42.149,29.19,25.854,9.507,8.275
1859,0.774,35.943,27.172,42.139,29.179,25.729,9.465,8.314
1860,0.787,36.088,27.165,42.168,29.196,25.89,9.587,8.315
1861,0.764,35.793,27.118,42.12,29.186,25.933,9.466,8.315
1862,0.764,35.914,27.047,42.11,29.186,26.177,9.424,8.152
1863,0.757,36.05,27.14,42.129,29.186,26.708,9.505,8.232
1864,0.757,36.166,27.168,42.12,29.19,27.242,9.506,8.151
1865,0.761,35.736,27.223,42.11,29.183,27.45,9.506,8.11
1866,0.764,35.895,27.231,42.12,29.193,27.778,9.587,8.191
1867,0.764,36.03,27.189,42.12,29.197,27.781,9.588,8.273
1868,0.757,36.089,27.169,42.139,29.193,27.781,9.588,8.233
1869,0.751,35.658,27.137,42.168,29.193,27.659,9.588,8.233
1870,0.721,35.779,27.16,42.139,29.193,27.455,9.588,8.233
1871,0.715,35.876,27.118,42.11,29.183,27.005,9.466,8.151
1872,0.708,35.944,27.098,42.12,29.183,26.676,9.587,8.11
1873,0.698,35.695,27.168,42.139,29.186,26.388,9.547,8.109
1874,0.685,35.827,27.196,42.081,29.179,26.06,9.384,8.15
1875,0.695,35.972,27.251,42.129,29.186,26.016,9.545,8.273
1876,0.675,36.012,27.224,42.139,29.193,25.771,9.588,8.314
1877,0.659,35.792,27.15,42.139,29.197,25.444,9.425,8.356
1878,0.678,35.972,27.09,42.139,29.19,25.196,9.505,8.315
1879,0.672,36.05,27.121,42.149,29.193,25.153,9.465,8.477
1880,0.672,35.859,27.07,42.101,29.179,24.949,9.383,8.276
1881,0.682,35.675,27.066,42.119,29.186,25.11,9.382,8.274
1882,0.688,35.836,27.132,42.129,29.193,25.64,9.505,8.274
1883,0.682,35.915,27.149,42.081,29.179,26.052,9.343,8.233
1884,0.701,35.542,27.172,42.129,29.196,26.747,9.545,8.355
1885,0.701,35.643,27.208,42.129,29.193,27.161,9.588,8.356
1886,0.711,35.779,27.106,42.11,29.2,27.368,9.629,8.315
1887,0.718,35.885,27.062,42.129,29.193,27.492,9.629,8.234
1888,0.708,35.676,27.132,42.139,29.197,27.534,9.792,8.395
1889,0.692,35.817,27.125,42.11,29.186,27.291,9.631,8.234
1890,0.688,35.963,27.149,42.12,29.186,27.085,9.67,8.192
1891,0.682,36.07,27.192,42.11,29.186,26.839,9.751,8.192
1892,0.659,35.466,27.196,42.091,29.172,26.43,9.712,8.232
1893,0.665,35.643,27.223,42.129,29.196,26.182,9.874,8.273
1894,0.669,35.779,27.235,42.129,29.197,26.057,9.835,8.314
1895,0.652,35.857,27.173,42.12,29.19,25.894,9.794,8.193
1896,0.652,35.579,27.079,42.129,29.193,25.689,9.875,8.192
1897,0.655,35.749,27.148,42.139,29.197,25.605,9.835,8.436
1898,0.646,35.847,27.145,42.12,29.183,25.198,9.753,8.153
1899,0.652,35.905,27.157,42.11,29.183,25.113,9.712,8.15
1900,0.655,35.609,27.176,42.1,29.183,25.071,9.752,8.191
1901,0.659,35.73,27.149,42.081,29.183,25.111,9.752,8.11
1902,0.678,35.885,27.164,42.11,29.193,25.681,9.752,8.109
1903,0.691,35.906,27.227,42.12,29.193,26.296,9.874,8.15
1904,0.695,35.589,27.196,42.11,29.193,26.872,9.957,8.15
1905,0.682,35.73,27.118,42.11,29.186,27.325,9.998,8.028
1906,0.708,35.875,27.152,42.12,29.203,27.736,10.08,8.149
1907,0.682,35.762,27.145,42.11,29.176,27.699,9.918,8.028
1908,0.682,35.55,27.16,42.091,29.183,27.74,9.957,7.946
1909,0.669,35.73,27.157,42.091,29.19,27.74,9.998,7.945
1910,0.659,35.799,27.161,42.1,29.19,27.659,10.039,7.986
1911,0.669,35.617,27.211,42.119,29.19,27.292,9.918,7.946
1912,0.672,35.721,27.22,42.1,29.197,27.126,10.12,7.986
1913,0.659,35.837,27.247,42.119,29.193,26.799,10.041,7.946
1914,0.652,35.934,27.134,42.1,29.19,26.592,9.999,7.986
1915,0.652,35.465,27.145,42.234,29.2,26.549,10.039,8.108
1916,0.633,35.547,27.153,42.121,29.186,26.305,9.999,8.069
1917,0.642,35.691,27.184,42.091,29.183,25.896,9.917,7.946
1918,0.649,35.77,27.223,42.1,29.19,25.648,9.916,8.026
1919,0.649,35.396,27.2,42.1,29.186,25.645,9.916,7.987
1920,0.662,35.527,27.204,42.081,29.176,25.483,9.835,7.824
1921,0.669,35.701,27.223,42.119,29.189,25.684,9.997,8.025
1922,0.678,35.75,27.2,42.11,29.193,26.093,9.958,7.987
1923,0.678,35.482,27.177,42.11,29.186,26.585,9.998,7.946
1924,0.695,35.662,27.137,42.139,29.196,27.078,9.999,7.945
1925,0.685,35.769,27.121,42.11,29.193,27.449,10.161,8.108
1926,0.708,35.809,27.137,42.091,29.183,27.493,9.96,7.865
1927,0.695,35.464,27.18,42.091,29.186,27.656,9.998,7.863
1928,0.698,35.604,27.223,42.091,29.19,27.699,9.958,7.863
1929,0.682,35.702,27.185,42.071,29.183,27.536,9.957,7.863
1930,0.679,35.789,27.196,42.1,29.19,27.413,9.957,7.944
1931,0.682,35.521,27.165,42.11,29.2,27.167,9.957,7.986
1932,0.675,35.662,27.192,42.091,29.197,26.921,9.917,8.068
1933,0.656,35.769,27.134,42.11,29.186,26.593,9.876,8.028
1934,0.655,35.876,27.145,42.139,29.2,26.59,9.957,8.19
1935,0.652,35.551,27.141,42.072,29.183,26.346,9.714,8.11
1936,0.652,35.691,27.192,42.1,29.179,26.019,9.752,8.109
1937,0.642,35.808,27.219,42.091,29.183,25.812,9.671,8.191
1938,0.636,35.378,27.208,42.081,29.183,25.607,9.711,8.151
1939,0.646,35.431,27.192,42.09,29.176,25.401,9.589,8.11
1940,0.649,35.604,27.161,42.1,29.189,25.602,9.629,8.313
1941,0.649,35.682,27.176,42.119,29.193,25.686,9.629,8.234
1942,0.649,35.348,27.13,42.081,29.183,26.093,9.629,8.233
1943,0.675,35.517,27.172,42.148,29.203,26.829,9.873,8.395
1944,0.678,35.614,27.133,42.082,29.19,27.243,9.672,8.194
1945,0.718,35.721,27.192,42.081,29.186,27.694,9.67,8.11
1946,0.744,35.444,27.239,42.081,29.19,28.024,9.711,8.191
1947,0.76,35.546,27.193,42.081,29.19,28.15,9.792,8.192
1948,0.803,35.72,27.153,42.09,29.19,28.191,9.834,8.07
1949,0.826,35.808,27.133,42.11,29.19,28.151,9.956,8.231
1950,0.83,35.291,27.117,42.11,29.19,27.907,9.957,8.233
1951,0.843,35.411,27.078,42.091,29.193,27.66,9.917,8.233
1952,0.849,35.594,27.093,42.129,29.207,27.333,10.039,8.314
1953,0.859,35.625,27.137,42.091,29.197,27.004,9.958,8.193
1954,0.892,35.51,27.16,42.062,29.186,26.676,9.795,8.11
1955,0.941,35.653,27.223,42.081,29.186,26.55,9.834,8.191
1956,0.964,35.779,27.204,42.09,29.186,26.346,9.834,8.273
1957,1.003,35.799,27.153,42.062,29.183,25.937,9.712,8.193
1958,1.04,35.397,27.082,42.1,29.196,25.77,9.792,8.354
1959,1.05,35.546,27.101,42.091,29.197,25.728,9.793,8.193
1960,1.112,35.663,27.125,42.091,29.197,25.687,9.753,8.232
1961,1.138,35.971,27.09,42.091,29.183,25.849,9.793,8.192
1962,1.177,35.581,27.164,42.11,29.196,26.42,9.956,8.354
1963,1.217,35.701,27.168,42.062,29.186,26.914,9.795,8.275
1964,1.253,35.818,27.211,42.071,29.19,27.569,9.875,8.193
1965,1.296,35.368,27.204,42.081,29.186,27.982,9.957,8.192
1966,1.319,35.364,27.13,42.052,29.179,28.19,9.917,8.11
1967,1.345,35.546,27.117,42.09,29.189,28.476,10.039,8.15
1968,1.306,35.682,27.066,42.1,29.19,28.357,10.121,8.191
1969,1.26,35.28,27.027,42.1,29.197,28.356,10.122,8.07
1970,1.24,35.411,27.03,42.091,29.197,28.112,10.081,8.191
1971,1.24,35.565,27.101,42.138,29.207,27.866,10.243,8.395
1972,1.195,35.624,27.183,42.081,29.183,27.416,10.082,8.194
1973,1.159,35.395,27.176,42.062,29.186,27.005,9.959,8.151
1974,1.113,35.527,27.196,42.071,29.19,26.798,9.957,8.191
1975,1.073,35.662,27.169,42.062,29.19,26.673,9.957,8.232
1976,0.998,35.76,27.098,42.071,29.186,26.347,9.835,8.192
1977,0.913,35.358,27.082,42.11,29.193,26.181,9.916,8.314
1978,0.856,35.488,27.132,42.177,29.193,25.854,9.835,8.274
1979,0.807,35.624,27.129,42.101,29.19,25.688,9.794,8.314
1980,0.777,35.711,27.141,42.11,29.203,25.809,9.753,8.234
1981,0.67,35.367,27.141,42.081,29.193,25.932,9.793,8.273
1982,0.512,35.507,27.196,42.081,29.19,26.38,9.753,8.193
1983,0.368,35.624,27.208,42.081,29.19,27.117,9.752,8.192
1984,0.223,35.683,27.231,42.071,29.186,27.896,9.712,8.273
1985,0.114,35.367,27.138,42.042,29.179,28.27,9.63,8.111
1986,0.065,35.555,27.114,42.09,29.189,28.721,9.832,8.15
1987,-0.001,35.663,27.145,42.081,29.193,28.97,9.794,8.15
1988,-0.076,35.999,27.153,42.081,29.186,29.053,9.753,8.191
1989,-0.129,35.36,27.145,42.081,29.193,28.932,9.752,8.11
1990,-0.211,35.488,27.164,42.081,29.197,28.809,9.915,8.232
1991,-0.257,35.595,27.165,42.062,29.179,28.361,9.713,8.029
1992,-0.255,35.385,27.141,42.062,29.189,28.031,9.752,8.149
1993,-0.242,35.412,27.184,42.062,29.19,27.783,9.63,8.069
1994,-0.189,35.517,27.2,42.042,29.176,27.496,9.548,7.987
1995,-0.098,35.662,27.138,42.081,29.196,27.534,9.588,8.027
1996,-0.016,35.309,27.114,42.167,29.19,27.453,9.588,8.149
1997,0.086,35.411,27.152,42.072,29.186,27.127,9.507,8.069
1998,0.204,35.565,27.172,42.081,29.19,26.921,9.506,8.028
1999,0.316,35.663,27.157,42.062,29.197,26.797,9.506,8.109
2000,0.421,35.29,27.168,42.042,29.183,26.673,9.384,7.947
2001,0.507,35.439,27.161,42.052,29.19,26.794,9.464,7.945
2002,0.563,35.575,27.129,42.061,29.19,27.283,9.383,7.986
2003,0.616,35.605,27.172,42.033,29.186,27.817,9.382,7.905
2004,0.684,35.308,27.149,42.061,29.196,28.554,9.586,8.026
2005,0.724,35.449,27.09,42.081,29.197,28.887,9.588,8.068
2006,0.764,35.566,27.136,42.062,29.197,29.134,9.669,8.028
2007,0.79,35.663,27.168,42.062,29.197,29.258,9.67,7.987
2008,0.8,35.568,27.18,42.081,29.204,29.382,9.833,8.108
2009,0.803,35.701,27.165,42.062,29.193,29.139,9.59,8.028
2010,0.794,35.818,27.227,42.042,29.19,28.892,9.71,7.987
2011,0.8,35.867,27.189,42.061,29.193,28.483,9.67,8.068
2012,0.79,35.129,27.212,42.033,29.183,28.113,9.629,7.987
2013,0.777,35.313,27.231,42.071,29.193,27.784,9.71,8.149
2014,0.771,35.44,27.142,42.081,29.19,27.496,9.711,8.191
2015,0.767,35.46,27.129,42.081,29.197,27.209,9.711,8.151
2016,0.754,35.355,27.149,42.071,29.19,26.881,9.67,8.191
2017,0.751,35.526,27.172,42.1,29.207,26.552,9.792,8.314
2018,0.751,35.595,27.196,42.043,29.186,26.142,9.59,8.234
2019,0.748,35.347,27.212,42.052,29.19,25.894,9.588,8.233
2020,0.754,35.344,27.208,42.071,29.19,25.933,9.669,8.151
2021,0.754,35.478,27.181,42.033,29.183,25.852,9.589,8.232
2022,0.77,35.614,27.196,42.071,29.193,26.461,9.791,8.233
2023,0.777,35.261,27.184,42.071,29.193,27.117,9.753,8.314
2024,0.787,35.391,27.052,42.081,29.193,27.774,9.833,8.274
2025,0.793,35.546,27.113,42.081,29.19,28.228,9.834,8.233
2026,0.8,35.643,27.137,42.09,29.2,28.639,9.956,8.355
2027,0.807,35.242,27.172,42.033,29.19,28.684,9.917,8.193
2028,0.797,35.381,27.211,42.052,29.183,28.685,9.835,8.232
2029,0.797,35.527,27.204,42.052,29.193,28.685,9.916,8.151
2030,0.771,35.576,27.192,42.033,29.172,28.481,9.794,8.15
2031,0.79,35.308,27.184,42.061,29.196,28.235,9.875,8.232
2032,0.784,35.459,27.231,42.081,29.193,27.989,9.794,8.314
2033,0.767,35.595,27.165,42.052,29.197,27.62,9.875,8.396
2034,0.764,35.663,27.133,42.09,29.197,27.292,9.753,8.397
2035,0.774,35.367,27.137,42.091,29.21,27.288,9.874,8.56
2036,0.761,35.488,27.207,42.052,29.186,26.841,9.591,8.48
2037,0.764,35.633,27.22,42.052,29.196,26.43,9.669,8.52
2038,0.767,35.683,27.22,42.061,29.193,26.223,9.589,8.601
2039,0.761,35.328,27.173,42.042,29.183,25.976,9.547,8.643
2040,0.783,35.507,27.188,42.071,29.193,26.137,9.628,8.603
2041,0.787,35.624,27.196,42.071,29.19,26.26,9.629,8.643
2042,0.8,35.654,27.157,42.042,29.197,26.668,9.629,8.644
2043,0.816,35.395,27.118,42.071,29.197,27.282,9.71,8.521
2044,0.826,35.575,27.125,42.09,29.207,27.939,9.874,8.723
2045,0.813,35.653,27.141,42.043,29.19,28.23,9.672,8.563
2046,0.839,35.424,27.153,42.033,29.19,28.517,9.751,8.48
2047,0.836,35.383,27.203,42.061,29.186,28.723,9.833,8.479
2048,0.826,35.488,27.177,42.033,29.186,28.725,9.875,8.479
2049,0.826,35.643,27.145,42.071,29.196,28.766,9.916,8.479
2050,0.82,35.28,27.149,42.071,29.193,28.523,9.998,8.601
2051,0.81,35.391,27.125,42.071,29.197,28.276,9.958,8.521
2052,0.813,35.527,27.172,42.071,29.193,27.949,9.876,8.561
2053,0.807,35.653,27.102,42.081,29.21,27.742,9.997,8.643
2054,0.797,35.318,27.113,42.033,29.19,27.415,9.877,8.521
2055,0.807,35.43,27.152,42.042,29.183,27.208,9.794,8.439
2056,0.787,35.575,27.2,42.052,29.19,27.003,9.834,8.519
2057,0.771,35.644,27.2,42.061,29.186,26.716,9.794,8.52
2058,0.8,35.27,27.157,42.033,29.183,26.307,9.631,8.479
2059,0.8,35.42,27.153,42.061,29.196,26.262,9.751,8.601
2060,0.816,35.556,27.114,42.071,29.19,26.262,9.712,8.48
2061,0.816,35.634,27.145,42.052,29.19,26.262,9.711,8.52
2062,0.836,35.318,27.137,42.081,29.2,26.668,9.711,8.52
2063,0.823,35.43,27.102,42.052,29.197,27.119,9.711,8.52
2064,0.839,35.566,27.137,42.061,29.183,27.571,9.589,8.358
2065,0.843,35.615,27.18,42.042,29.19,27.982,9.669,8.397
2066,0.843,35.308,27.165,42.042,29.193,28.149,9.67,8.438
2067,0.846,35.459,27.118,42.052,29.183,28.151,9.589,8.316
2068,0.856,35.604,27.113,42.071,29.2,28.273,9.71,8.437
2069,0.859,35.634,27.047,42.071,29.193,28.193,9.67,8.397
2070,0.846,35.318,27.035,42.062,29.193,27.989,9.629,8.519
2071,0.846,35.507,27.097,42.052,29.193,27.661,9.629,8.479
2072,0.833,35.605,27.027,42.081,29.197,27.414,9.71,8.56
2073,0.82,35.452,27.089,42.033,29.186,27.045,9.589,8.439
2074,0.833,35.374,27.164,42.023,29.19,26.879,9.507,8.479
2075,0.826,35.507,27.207,42.052,29.19,26.674,9.506,8.56
2076,0.807,35.624,27.196,42.033,29.176,26.347,9.384,8.521
2077,0.826,35.433,27.153,42.061,29.196,26.181,9.464,8.642
2078,0.826,35.537,27.094,42.062,29.193,25.895,9.424,8.644
2079,0.83,35.672,27.074,42.052,29.19,25.689,9.464,8.684
2080,0.862,35.798,27.082,42.052,29.197,25.768,9.505,8.644
2081,0.853,35.061,27.09,42.052,29.2,25.931,9.587,8.847
2082,0.84,35.207,27.082,42.052,29.19,26.258,9.507,8.605
2083,0.862,35.333,27.132,42.042,29.19,26.871,9.506,8.521
2084,0.872,35.44,27.195,42.033,29.193,27.487,9.628,8.683
2085,0.866,35.192,27.169,42.013,29.179,27.738,9.588,8.522
2086,0.892,35.391,27.141,42.051,29.196,28.228,9.71,8.601
2087,0.899,35.508,27.106,42.042,29.197,28.436,9.752,8.643
2088,0.892,35.595,27.082,42.042,29.197,28.397,9.793,8.521
2089,0.892,35.308,27.023,42.061,29.2,28.519,9.875,8.52
2090,0.886,35.44,27.089,42.062,29.2,28.439,9.916,8.601
2091,0.882,35.546,27.043,42.042,29.186,28.032,9.754,8.48
2092,0.872,35.624,27.085,42.033,29.186,27.743,9.833,8.398
2093,0.869,35.28,27.09,42.023,29.196,27.415,9.834,8.478
2094,0.859,35.391,27.148,42.004,29.183,27.086,9.712,8.398
2095,0.869,35.565,27.18,42.042,29.193,27.002,9.874,8.478
2096,0.863,35.586,27.118,42.042,29.193,26.757,9.916,8.52
2097,0.869,35.404,27.059,42.052,29.19,26.429,9.916,8.479
2098,0.872,35.584,27.066,42.081,29.193,26.141,9.794,8.56
2099,0.876,35.644,27.148,42.052,29.19,26.057,9.915,8.561
2100,0.885,35.443,27.172,42.014,29.186,26.056,9.754,8.48
2101,0.879,35.163,27.172,42.023,29.19,26.137,9.752,8.398
2102,0.889,35.285,27.13,42.032,29.197,26.626,9.833,8.519
2103,0.899,35.43,27.188,42.032,29.186,27.2,9.794,8.358
2104,0.918,35.259,27.176,42.042,29.196,27.979,9.956,8.478
2105,0.922,35.362,27.141,42.033,29.197,28.393,10.039,8.438
2106,0.944,35.507,27.098,42.032,29.197,28.682,10.08,8.357
2107,0.954,35.643,27.129,42.052,29.204,28.929,10.121,8.437
2108,0.935,35.155,27.113,42.033,29.2,28.972,10.163,8.438
2109,0.931,35.285,27.148,41.985,29.186,28.85,10.041,8.357
2110,0.918,35.43,27.172,42.013,29.196,28.727,10.121,8.356
2111,0.918,35.508,27.157,42.032,29.193,28.482,10.163,8.397
2112,0.925,35.259,27.145,42.004,29.186,28.073,10.082,8.275
2113,0.909,35.43,27.207,42.023,29.196,27.946,10.121,8.436
2114,0.912,35.556,27.165,42.013,29.193,27.823,10.122,8.438
2115,0.922,35.644,27.133,42.032,29.193,27.497,10.081,8.519
