time,ecg,bvp,gsr,rsp,skt,emg_zygo,emg_coru,emg_trap
0,0.701,38.12,18.495,33.553,29.975,4.742,7.37,6.343
1,0.701,38.22,18.542,33.563,29.975,4.823,7.37,6.303
2,0.721,38.269,18.562,33.544,29.975,4.743,7.289,6.221
3,0.721,36.121,18.609,33.553,29.975,4.823,7.329,6.261
4,0.721,35.831,18.539,33.505,29.975,4.702,7.248,6.221
5,0.734,36.03,18.523,33.572,29.989,4.823,7.41,6.302
6,0.734,36.099,18.519,33.553,29.978,4.824,7.33,6.302
7,0.734,38.574,18.554,33.563,29.982,4.824,7.329,6.221
8,0.757,38.8,18.538,33.553,29.975,4.783,7.329,6.18
9,0.754,38.85,18.503,33.534,29.971,4.742,7.289,6.179
10,0.761,38.927,18.573,33.563,29.989,4.905,7.451,6.342
11,0.748,36.118,18.581,33.544,29.978,4.825,7.249,6.221
12,0.734,36.243,18.589,33.544,29.982,4.824,7.288,6.261
13,0.721,36.331,18.511,33.524,29.971,4.783,7.288,6.18
14,0.721,36.438,18.514,33.572,29.978,4.702,7.166,6.139
15,0.708,36.65,18.511,33.553,29.982,4.782,7.368,6.341
16,0.705,36.786,18.55,33.544,29.975,4.905,7.289,6.221
17,0.705,36.922,18.421,33.582,29.982,4.865,7.329,6.302
18,0.698,36.942,18.49,33.525,29.965,4.702,7.167,6.099
19,0.695,36.549,18.549,33.553,29.978,4.782,7.246,6.178
20,0.695,36.651,18.55,33.515,29.971,4.702,7.206,6.179
21,0.711,36.815,18.527,33.543,29.982,4.782,7.247,6.22
22,0.711,36.807,18.448,33.563,29.982,4.824,7.247,6.261
23,0.721,36.692,18.514,33.534,29.982,4.743,7.125,6.058
24,0.715,36.806,18.487,33.544,29.975,4.823,7.205,6.178
25,0.711,36.922,18.573,33.515,29.975,4.743,7.125,6.098
26,0.731,36.798,18.5,33.572,29.996,4.905,7.287,6.3
27,0.734,36.739,18.507,33.525,29.982,4.825,7.207,6.221
28,0.741,36.854,18.55,33.534,29.985,4.824,7.206,6.098
29,0.738,36.922,18.55,33.515,29.978,4.824,7.247,6.097
30,0.741,36.568,18.468,33.524,29.975,4.702,7.044,6.056
31,0.738,36.68,18.495,33.524,29.985,4.904,7.286,6.259
32,0.728,36.825,18.499,33.524,29.968,4.825,7.166,6.139
33,0.731,36.903,18.538,33.543,29.982,4.905,7.206,6.219
34,0.721,36.645,18.546,33.505,29.968,4.662,7.043,6.139
35,0.721,36.805,18.507,33.524,29.978,4.782,7.123,6.098
36,0.698,36.941,18.503,33.515,29.978,4.702,7.165,6.219
37,0.718,37.019,18.522,33.524,29.978,4.742,7.043,6.18
38,0.685,36.607,18.561,33.524,29.982,4.864,7.123,6.261
39,0.685,36.757,18.429,33.534,29.965,4.702,7.002,6.139
40,0.675,36.873,18.502,33.524,29.975,4.782,7.041,6.179
41,0.682,36.903,18.503,33.524,29.971,4.702,7.001,6.179
42,0.708,36.702,18.585,33.553,29.982,4.782,7.041,6.261
43,0.705,36.806,18.605,33.525,29.975,4.783,7.001,6.262
44,0.715,36.912,18.566,33.534,29.978,4.783,7.001,6.262
45,0.715,36.942,18.519,33.544,29.985,4.783,7.041,6.221
46,0.728,36.703,18.522,33.505,29.978,4.742,6.96,6.139
47,0.734,36.854,18.554,33.553,29.989,4.864,7.204,6.341
48,0.744,36.951,18.519,33.553,29.978,4.784,7.043,6.221
49,0.757,37.086,18.511,33.525,29.978,4.864,7.082,6.302
50,0.731,36.637,18.526,33.505,29.982,4.743,7.083,6.14
51,0.731,36.757,18.562,33.514,29.975,4.742,7.002,6.138
52,0.725,36.883,18.55,33.543,29.985,4.905,7.163,6.341
53,0.711,37.114,18.484,33.524,29.978,4.784,7.002,6.221
54,0.705,37.27,18.491,33.524,29.982,4.742,7.123,6.302
55,0.692,37.348,18.487,33.486,29.971,4.701,6.961,6.302
56,0.688,37.426,18.542,33.514,29.971,4.742,6.96,6.18
57,0.692,36.286,18.507,33.553,29.982,4.742,6.96,6.342
58,0.692,36.427,18.487,33.525,29.982,4.783,7.0,6.303
59,0.682,36.554,18.526,33.534,29.985,4.783,6.96,6.343
60,0.682,36.593,18.565,33.486,29.968,4.62,6.838,6.262
61,0.682,36.536,18.511,33.514,29.978,4.7,6.918,6.221
62,0.692,36.67,18.405,33.486,29.978,4.742,6.959,6.261
63,0.708,36.815,18.498,33.505,29.985,4.701,6.878,6.343
64,0.711,36.874,18.503,33.514,29.982,4.823,7.0,6.343
65,0.724,36.453,18.557,33.505,29.975,4.743,6.838,6.181
66,0.715,36.592,18.437,33.514,29.978,4.823,6.918,6.301
67,0.721,36.689,18.494,33.495,29.975,4.661,6.919,6.302
68,0.747,36.786,18.6,33.514,29.996,4.782,7.0,6.262
69,0.751,36.519,18.543,33.515,29.982,4.783,6.919,6.384
70,0.744,36.679,18.433,33.524,29.975,4.742,6.959,6.344
71,0.731,36.777,18.471,33.515,29.985,4.783,6.96,6.343
72,0.728,36.768,18.491,33.476,29.968,4.661,6.838,6.303
73,0.728,36.365,18.53,33.524,29.989,4.863,7.04,6.547
74,0.725,36.486,18.546,33.496,29.975,4.743,6.96,6.468
75,0.711,36.612,18.499,33.514,29.982,4.701,7.0,6.426
76,0.695,36.45,18.499,33.476,29.971,4.701,6.96,6.344
77,0.701,36.458,18.546,33.476,29.975,4.66,6.919,6.343
78,0.701,36.564,18.538,33.514,29.982,4.782,6.959,6.547
79,0.688,36.708,18.546,33.505,29.985,4.824,7.0,6.386
80,0.695,36.365,18.519,33.514,29.982,4.783,7.041,6.425
81,0.688,36.467,18.565,33.476,29.971,4.62,6.92,6.304
82,0.692,36.592,18.566,33.495,29.978,4.741,6.959,6.425
83,0.698,36.651,18.566,33.486,29.968,4.62,7.041,6.385
84,0.714,36.249,18.519,33.505,29.985,4.741,7.123,6.425
85,0.721,36.37,18.53,33.514,29.978,4.742,7.165,6.385
86,0.724,36.505,18.53,33.495,29.978,4.742,7.165,6.385
87,0.728,36.574,18.53,33.495,29.978,4.701,7.165,6.425
88,0.734,36.095,18.476,33.486,29.975,4.62,7.165,6.263
89,0.754,36.263,18.502,33.514,29.989,4.822,7.287,6.465
90,0.738,36.37,18.538,33.495,29.975,4.743,7.288,6.386
91,0.741,36.419,18.569,33.486,29.985,4.783,7.329,6.344
92,0.725,36.218,18.523,33.486,29.982,4.742,7.289,6.384
93,0.728,36.36,18.483,33.466,29.975,4.661,7.288,6.263
94,0.715,36.476,18.51,33.485,29.989,4.822,7.451,6.465
95,0.708,36.535,18.507,33.476,29.982,4.783,7.371,6.426
96,0.695,36.114,18.542,33.485,29.985,4.864,7.411,6.344
97,0.688,36.205,18.499,33.457,29.968,4.702,7.289,6.303
98,0.688,36.34,18.503,33.466,29.975,4.66,7.329,6.302
99,0.672,36.409,18.538,33.447,29.975,4.7,7.37,6.302
100,0.695,36.17,18.55,33.485,29.982,4.782,7.289,6.343
101,0.669,36.283,18.484,33.476,29.982,4.783,7.369,6.343
102,0.695,36.38,18.448,33.485,29.975,4.702,7.208,6.221
103,0.695,35.949,18.487,33.476,29.975,4.742,7.287,6.302
104,0.695,35.993,18.506,33.457,29.971,4.701,7.247,6.262
105,0.718,36.175,18.589,33.495,29.989,4.742,7.328,6.262
106,0.721,36.225,18.519,33.562,29.978,4.742,7.37,6.343
107,0.724,35.919,18.503,33.477,29.982,4.742,7.33,6.303
108,0.724,36.04,18.546,33.466,29.978,4.823,7.329,6.302
109,0.744,36.157,18.523,33.437,29.975,4.702,7.329,6.262
110,0.738,36.282,18.468,33.504,29.992,4.863,7.492,6.505
111,0.738,35.938,18.479,33.467,29.982,4.784,7.371,6.345
112,0.731,36.079,18.51,33.476,29.978,4.742,7.37,6.303
113,0.718,36.157,18.557,33.438,29.978,4.701,7.37,6.302
114,0.718,36.244,18.601,33.456,29.975,4.742,7.33,6.262
115,0.705,35.804,18.508,33.457,29.971,4.783,7.41,6.343
116,0.698,35.972,18.511,33.457,29.975,4.742,7.411,6.303
117,0.695,36.089,18.518,33.457,29.985,4.783,7.371,6.384
118,0.682,36.119,18.522,33.457,29.968,4.661,7.248,6.181
119,0.675,35.898,18.507,33.457,29.982,4.741,7.369,6.301
120,0.682,36.05,18.511,33.447,29.968,4.661,7.33,6.343
121,0.692,36.176,18.538,33.466,29.985,4.782,7.37,6.384
122,0.695,36.168,18.581,33.447,29.982,4.824,7.411,6.344
123,0.701,35.774,18.566,33.456,29.978,4.824,7.371,6.303
124,0.695,35.885,18.527,33.447,29.968,4.783,7.33,6.302
125,0.705,35.982,18.507,33.428,29.975,4.702,7.289,6.262
126,0.711,35.801,18.561,33.456,29.992,4.863,7.451,6.505
127,0.715,35.78,18.535,33.447,29.979,4.784,7.29,6.427
128,0.734,35.924,18.534,33.476,29.985,4.783,7.288,6.385
129,0.744,36.002,18.495,33.418,29.972,4.62,7.207,6.344
130,0.747,35.629,18.538,33.427,29.971,4.741,7.206,6.343
131,0.734,35.759,18.554,33.408,29.978,4.701,7.206,6.384
132,0.744,35.904,18.523,33.437,29.982,4.782,7.206,6.344
133,0.725,35.983,18.448,33.447,29.982,4.783,7.328,6.343
134,0.721,35.552,18.475,33.437,29.971,4.661,7.167,6.221
135,0.708,35.672,18.495,33.437,29.982,4.782,7.246,6.342
136,0.695,35.769,18.507,33.418,29.968,4.661,7.125,6.221
137,0.708,35.905,18.538,33.475,29.989,4.822,7.287,6.302
138,0.695,35.637,18.491,33.438,29.985,4.824,7.247,6.343
139,0.692,35.788,18.577,33.456,29.982,4.783,7.288,6.384
140,0.666,35.866,18.535,33.447,29.978,4.783,7.166,6.385
141,0.675,35.944,18.48,33.428,29.971,4.742,7.165,6.222
142,0.688,35.532,18.518,33.456,29.996,4.905,7.409,6.464
143,0.705,35.682,18.507,33.428,29.975,4.784,7.289,6.304
144,0.711,35.798,18.511,33.437,29.982,4.864,7.247,6.384
145,0.711,35.78,18.538,33.399,29.968,4.702,7.206,6.263
146,0.721,35.579,18.515,33.418,29.978,4.742,7.165,6.262
147,0.718,35.701,18.487,33.408,29.982,4.742,7.287,6.302
148,0.734,35.798,18.557,33.437,29.982,4.742,7.207,6.343
149,0.744,35.819,18.515,33.418,29.989,4.742,7.287,6.303
150,0.738,35.627,18.518,33.399,29.968,4.661,7.085,6.14
151,0.744,35.74,18.503,33.437,29.982,4.782,7.205,6.219
152,0.731,35.837,18.514,33.408,29.978,4.702,7.206,6.22
153,0.734,35.359,18.55,33.418,29.978,4.782,7.165,6.22
154,0.725,35.383,18.581,33.437,29.985,4.824,7.287,6.302
155,0.728,35.546,18.503,33.428,29.975,4.743,7.125,6.18
156,0.715,35.624,18.499,33.408,29.982,4.783,7.124,6.22
157,0.708,35.443,18.538,33.389,29.971,4.783,7.124,6.22
158,0.728,35.633,18.519,33.446,29.996,4.905,7.287,6.302
159,0.692,35.74,18.518,33.437,29.979,4.825,7.166,6.302
160,0.708,35.799,18.503,33.437,29.982,4.743,7.165,6.262
161,0.705,35.397,18.557,33.418,29.982,4.823,7.124,6.302
162,0.731,35.536,18.562,33.399,29.978,4.702,7.083,6.14
163,0.754,35.653,18.581,33.437,29.982,4.904,7.205,6.301
164,0.767,35.721,18.464,33.428,29.982,4.784,7.125,6.262
165,0.787,35.386,18.526,33.427,29.982,4.783,7.205,6.262
166,0.787,35.469,18.542,33.399,29.971,4.783,7.125,6.18
167,0.806,35.614,18.527,33.418,29.975,4.702,7.002,6.179
168,0.816,35.654,18.491,33.389,29.975,4.782,7.082,6.22
169,0.839,35.328,18.526,33.398,29.985,4.783,7.002,6.18
170,0.849,35.459,18.55,33.398,29.985,4.824,7.041,6.22
171,0.849,35.566,18.527,33.389,29.972,4.621,6.798,6.017
172,0.846,35.615,18.495,33.398,29.971,4.741,6.917,6.178
173,0.833,35.366,18.452,33.398,29.971,4.742,6.878,6.098
174,0.846,35.546,18.502,33.446,29.985,4.823,7.0,6.138
175,0.827,35.605,18.507,33.399,29.978,4.824,6.96,6.219
176,0.83,35.347,18.53,33.408,29.982,4.783,6.96,6.139
177,0.82,35.363,18.507,33.408,29.982,4.742,6.96,6.138
178,0.826,35.479,18.511,33.379,29.971,4.701,6.838,6.138
179,0.826,35.576,18.557,33.427,29.992,4.945,7.121,6.219
180,0.823,35.145,18.515,33.389,29.982,4.785,7.002,6.18
181,0.81,35.256,18.479,33.418,29.989,4.783,7.001,6.22
182,0.833,35.362,18.491,33.36,29.972,4.702,6.919,6.098
183,0.843,35.44,18.51,33.379,29.971,4.701,6.959,6.016
184,0.843,35.259,18.55,33.369,29.978,4.701,7.0,6.259
185,0.866,35.42,18.581,33.398,29.975,4.742,7.001,6.18
186,0.879,35.575,18.523,33.398,29.975,4.783,7.041,6.139
187,0.882,35.605,18.503,33.398,29.971,4.742,6.879,5.976
188,0.892,35.174,18.538,33.389,29.975,4.742,6.959,6.055
189,0.899,35.314,18.448,33.36,29.971,4.661,7.0,6.015
190,0.908,35.478,18.483,33.417,29.992,4.863,7.123,6.096
191,0.908,35.499,18.503,33.399,29.979,4.865,7.124,6.178
192,0.905,35.173,18.534,33.408,29.982,4.824,7.083,6.139
193,0.879,35.314,18.569,33.379,29.989,4.702,7.083,6.098
194,0.895,35.401,18.554,33.369,29.968,4.742,7.042,6.138
195,0.879,35.469,18.558,33.398,29.989,4.905,7.286,6.341
196,0.869,35.182,18.507,33.398,29.978,4.744,7.125,6.181
197,0.866,35.323,18.55,33.379,29.985,4.823,7.124,6.139
198,0.866,35.421,18.472,33.36,29.972,4.743,7.083,6.098
199,0.866,35.326,18.475,33.369,29.978,4.783,7.123,6.178
200,0.862,35.162,18.522,33.36,29.982,4.783,7.043,6.22
201,0.869,35.313,18.561,33.379,29.982,4.783,7.082,6.22
202,0.876,35.421,18.585,33.379,29.982,4.864,7.164,6.261
203,0.885,35.124,18.507,33.379,29.982,4.743,7.043,6.099
204,0.882,35.246,18.526,33.417,29.978,4.742,7.082,6.26
205,0.892,35.353,18.487,33.36,29.978,4.742,7.002,6.221
206,0.918,35.469,18.573,33.398,29.989,4.905,7.123,6.261
207,0.892,35.019,18.488,33.398,29.982,4.825,7.083,6.262
208,0.925,35.178,18.503,33.379,29.982,4.824,7.123,6.343
209,0.925,35.256,18.534,33.36,29.975,4.743,7.083,6.181
210,0.931,35.353,18.554,33.36,29.971,4.701,7.042,6.139
211,0.931,35.085,18.449,33.36,29.985,4.823,7.286,6.382
212,0.925,35.265,18.483,33.388,29.975,4.783,7.125,6.303
213,0.912,35.372,18.514,33.36,29.982,4.783,7.205,6.343
214,0.908,35.402,18.483,33.331,29.971,4.661,7.165,6.221
215,0.882,35.086,18.557,33.34,29.971,4.741,7.165,6.261
216,0.866,35.207,18.433,33.35,29.968,4.742,7.246,6.262
217,0.869,35.381,18.518,33.369,29.982,4.823,7.288,6.302
218,0.843,35.402,18.53,33.36,29.978,4.824,7.288,6.343
219,0.836,35.124,18.554,33.36,29.978,4.783,7.207,6.262
220,0.826,35.246,18.468,33.36,29.978,4.702,7.287,6.221
221,0.813,35.353,18.495,33.341,29.975,4.66,7.247,6.302
222,0.826,35.718,18.495,33.379,29.999,4.863,7.45,6.506
223,0.833,35.185,18.549,33.35,29.982,4.784,7.371,6.305
224,0.839,35.304,18.562,33.369,29.982,4.824,7.37,6.425
225,0.817,35.363,18.531,33.341,29.975,4.743,7.33,6.344
226,0.82,35.028,18.487,33.331,29.971,4.701,7.207,6.343
227,0.83,35.015,18.53,33.34,29.975,4.742,7.369,6.425
228,0.826,35.168,18.534,33.34,29.982,4.742,7.289,6.385
229,0.83,35.266,18.499,33.36,29.978,4.823,7.288,6.344
230,0.817,34.941,18.518,33.321,29.968,4.661,7.166,6.181
231,0.816,35.062,18.526,33.331,29.971,4.66,7.287,6.342
232,0.797,35.178,18.558,33.312,29.978,4.7,7.166,6.262
233,0.81,35.323,18.585,33.369,29.985,4.782,7.246,6.384
234,0.8,34.989,18.519,33.331,29.975,4.702,7.247,6.385
235,0.781,35.139,18.491,33.359,29.982,4.823,7.288,6.344
236,0.774,35.256,18.503,33.331,29.978,4.824,7.207,6.343
237,0.767,35.324,18.55,33.321,29.971,4.702,7.125,6.262
238,0.764,34.97,18.531,33.359,29.992,4.904,7.327,6.546
239,0.741,35.129,18.515,33.341,29.979,4.744,7.289,6.386
240,0.744,35.237,18.546,33.34,29.985,4.823,7.247,6.344
241,0.715,35.257,18.566,33.292,29.968,4.661,7.125,6.303
242,0.741,35.027,18.523,33.311,29.982,4.741,7.124,6.302
243,0.747,35.159,18.464,33.33,29.968,4.701,7.205,6.384
244,0.754,35.294,18.495,33.34,29.985,4.742,7.125,6.385
245,0.748,35.334,18.507,33.331,29.978,4.823,7.083,6.385
246,0.747,34.941,18.518,33.312,29.975,4.702,6.961,6.303
247,0.744,35.081,18.526,33.302,29.982,4.782,7.041,6.343
248,0.744,35.179,18.503,33.302,29.968,4.742,6.96,6.343
249,0.767,35.122,18.561,33.35,29.992,4.864,7.082,6.343
250,0.748,35.006,18.566,33.321,29.982,4.784,7.042,6.425
251,0.741,35.159,18.48,33.321,29.982,4.783,7.042,6.344
252,0.712,35.237,18.475,33.311,29.982,4.824,7.001,6.384
253,0.702,34.864,18.495,33.292,29.971,4.743,6.96,6.344
254,0.692,34.984,18.534,33.34,29.985,4.864,7.204,6.547
255,0.672,35.11,18.573,33.321,29.978,4.824,7.043,6.427
256,0.659,35.208,18.515,33.35,29.985,4.824,7.082,6.426
257,0.646,34.882,18.499,33.273,29.965,4.661,7.002,6.344
258,0.642,35.052,18.553,33.311,29.978,4.782,7.041,6.384
259,0.62,35.159,18.503,33.302,29.978,4.742,7.082,6.507
260,0.636,35.294,18.526,33.321,29.971,4.783,7.042,6.386
261,0.629,34.96,18.499,33.321,29.985,4.824,7.082,6.466
262,0.642,35.11,18.542,33.292,29.975,4.661,7.042,6.345
263,0.649,35.227,18.558,33.302,29.975,4.741,7.042,6.384
264,0.652,35.247,18.577,33.282,29.968,4.742,7.042,6.385
265,0.678,35.027,18.496,33.349,29.992,4.823,7.042,6.507
266,0.665,35.149,18.495,33.302,29.982,4.743,7.042,6.549
267,0.672,35.256,18.549,33.321,29.982,4.783,7.082,6.427
268,0.662,35.276,18.503,33.283,29.978,4.702,6.961,6.466
269,0.675,34.912,18.507,33.273,29.975,4.701,7.041,6.345
270,0.682,35.062,18.491,33.321,29.992,4.823,7.204,6.588
271,0.692,35.159,18.53,33.292,29.985,4.743,7.043,6.427
272,0.675,35.515,18.55,33.292,29.982,4.742,7.042,6.466
273,0.656,35.02,18.538,33.273,29.965,4.661,7.042,6.426
274,0.652,35.178,18.472,33.273,29.975,4.7,7.001,6.466
275,0.642,35.266,18.479,33.273,29.978,4.742,7.001,6.467
276,0.649,34.893,18.51,33.282,29.978,4.783,7.123,6.426
277,0.636,34.927,18.507,33.301,29.982,4.742,7.205,6.466
278,0.642,35.052,18.503,33.282,29.975,4.661,7.084,6.304
279,0.626,35.159,18.503,33.292,29.982,4.782,7.123,6.425
280,0.616,34.863,18.526,33.254,29.971,4.661,7.043,6.344
281,0.629,35.032,18.534,33.301,29.992,4.904,7.245,6.384
282,0.623,35.14,18.48,33.292,29.982,4.744,7.288,6.385
283,0.632,35.237,18.467,33.302,29.982,4.742,7.288,6.425
284,0.629,34.797,18.491,33.273,29.982,4.783,7.207,6.385
285,0.645,34.965,18.503,33.263,29.975,4.742,7.125,6.344
286,0.649,35.091,18.534,33.272,29.985,4.783,7.368,6.547
287,0.665,35.159,18.507,33.282,29.978,4.702,7.289,6.346
288,0.669,34.892,18.518,33.263,29.985,4.742,7.329,6.384
289,0.672,35.014,18.55,33.234,29.972,4.661,7.167,6.222
290,0.678,35.139,18.546,33.263,29.975,4.7,7.206,6.302
291,0.678,35.16,18.491,33.282,29.975,4.742,7.287,6.343
292,0.685,34.959,18.475,33.273,29.982,4.742,7.207,6.425
293,0.672,35.072,18.487,33.263,29.982,4.742,7.287,6.426
294,0.675,35.178,18.534,33.263,29.975,4.701,7.125,6.263
295,0.652,35.199,18.573,33.263,29.975,4.701,7.205,6.302
296,0.642,34.93,18.492,33.234,29.975,4.62,7.125,6.18
297,0.642,35.119,18.51,33.291,29.996,4.781,7.287,6.383
298,0.623,35.179,18.538,33.254,29.979,4.783,7.288,6.303
299,0.623,35.132,18.487,33.282,29.985,4.783,7.288,6.343
300,0.616,35.035,18.483,33.244,29.975,4.702,7.207,6.303
301,0.613,35.178,18.503,33.224,29.978,4.742,7.206,6.221
302,0.613,35.295,18.546,33.243,29.985,4.783,7.328,6.464
303,0.629,34.73,18.573,33.253,29.975,4.742,7.289,6.223
304,0.642,34.83,18.554,33.253,29.985,4.823,7.369,6.342
305,0.646,34.955,18.437,33.234,29.968,4.661,7.289,6.303
306,0.668,35.033,18.506,33.234,29.975,4.7,7.491,6.302
307,0.669,34.948,18.55,33.234,29.971,4.701,7.494,6.262
308,0.695,35.129,18.499,33.243,29.975,4.701,7.616,6.384
309,0.721,35.237,18.507,33.234,29.982,4.823,7.779,6.263
310,0.75,35.314,18.53,33.234,29.975,4.702,7.74,6.139
311,0.793,34.74,18.558,33.224,29.978,4.742,7.821,6.219
312,0.803,34.859,18.554,33.215,29.975,4.661,7.741,6.261
313,0.836,35.032,18.499,33.253,29.992,4.863,8.065,6.384
314,0.859,35.082,18.444,33.234,29.982,4.824,8.069,6.344
315,0.885,34.862,18.436,33.234,29.982,4.824,8.109,6.262
316,0.921,34.994,18.506,33.215,29.978,4.743,8.15,6.302
317,0.983,35.13,18.46,33.224,29.971,4.701,8.069,6.221
318,1.062,35.189,18.518,33.224,29.989,4.823,8.312,6.424
319,1.092,34.873,18.538,33.224,29.982,4.743,8.152,6.385
320,1.109,35.004,18.577,33.224,29.978,4.823,8.232,6.344
321,1.135,35.063,18.535,33.195,29.968,4.661,8.111,6.384
322,1.171,35.399,18.444,33.195,29.971,4.782,8.109,6.303
323,1.191,34.98,18.487,33.243,29.975,4.702,8.109,6.465
324,1.237,35.129,18.471,33.205,29.975,4.823,8.109,6.467
325,1.283,35.227,18.514,33.205,29.985,4.783,8.191,6.548
326,1.329,35.199,18.46,33.186,29.972,4.661,7.948,6.386
327,1.352,35.295,18.506,33.205,29.978,4.741,8.067,6.547
328,1.355,35.411,18.511,33.205,29.971,4.742,8.028,6.508
329,1.381,35.537,18.577,33.224,29.989,4.783,8.109,6.589
330,1.398,34.493,18.468,33.195,29.982,4.742,8.069,6.631
331,1.431,34.635,18.506,33.205,29.982,4.783,8.069,6.55
332,1.405,34.752,18.507,33.195,29.985,4.702,8.069,6.549
333,1.392,34.83,18.53,33.186,29.975,4.66,8.028,6.59
334,1.404,34.86,18.55,33.214,29.996,4.863,8.19,6.793
335,1.431,34.965,18.531,33.186,29.982,4.824,8.11,6.633
336,1.444,35.11,18.499,33.214,29.985,4.824,8.191,6.712
337,1.473,35.14,18.503,33.176,29.975,4.783,8.151,6.632
338,1.483,34.709,18.553,33.185,29.982,4.742,8.028,6.59
339,1.448,34.858,18.476,33.205,29.975,4.823,8.149,6.753
340,1.431,34.994,18.51,33.205,29.982,4.783,8.15,6.714
341,1.411,35.034,18.526,33.205,29.982,4.824,8.15,6.754
342,1.401,34.785,18.55,33.166,29.968,4.702,8.028,6.592
343,1.375,34.926,18.554,33.185,29.975,4.701,8.149,6.631
344,1.307,35.004,18.538,33.166,29.968,4.66,7.988,6.59
345,1.277,35.101,18.519,33.214,29.989,4.822,8.149,6.631
346,1.198,34.834,18.503,33.195,29.975,4.824,8.11,6.631
347,1.09,34.975,18.542,33.195,29.982,4.824,8.069,6.712
348,0.979,35.082,18.519,33.205,29.978,4.783,7.987,6.632
349,0.877,34.824,18.483,33.157,29.975,4.742,7.946,6.631
350,0.772,34.773,18.538,33.185,29.992,4.945,8.148,6.916
351,0.657,34.888,18.569,33.166,29.982,4.825,7.988,6.837
352,0.538,34.975,18.527,33.166,29.985,4.783,8.027,6.877
353,0.375,34.688,18.448,33.147,29.982,4.742,7.946,6.959
354,0.269,34.848,18.475,33.156,29.971,4.742,7.783,7.082
355,0.157,34.956,18.467,33.166,29.982,4.823,7.862,7.286
356,0.045,35.043,18.534,33.157,29.975,4.783,7.782,7.491
357,-0.092,34.67,18.519,33.176,29.975,4.824,7.862,7.697
358,-0.198,34.839,18.476,33.137,29.971,4.661,7.66,7.78
359,-0.277,34.946,18.541,33.147,29.978,4.741,7.739,8.106
360,-0.33,35.014,18.542,33.147,29.971,4.742,7.659,8.475
361,-0.333,34.718,18.476,33.166,29.975,4.823,7.658,8.764
362,-0.327,34.839,18.487,33.157,29.982,4.824,7.739,9.092
363,-0.311,34.984,18.479,33.147,29.975,4.743,7.618,9.258
364,-0.297,34.995,18.514,33.147,29.975,4.783,7.657,9.503
365,-0.284,34.679,18.561,33.118,29.968,4.702,7.536,9.709
366,-0.258,34.877,18.503,33.185,29.989,4.863,7.697,9.955
367,-0.225,34.966,18.511,33.138,29.982,4.865,7.74,10.12
368,-0.16,34.986,18.557,33.147,29.982,4.784,7.781,10.244
369,-0.081,34.669,18.488,33.128,29.982,4.783,7.781,10.326
370,0.007,34.829,18.506,33.137,29.971,4.702,7.7,10.327
371,0.083,34.975,18.491,33.147,29.989,4.904,7.943,10.612
372,0.165,35.129,18.522,33.137,29.985,4.784,7.823,10.615
373,0.247,34.834,18.569,33.137,29.985,4.864,7.944,10.737
374,0.316,34.907,18.578,33.099,29.972,4.702,7.783,10.86
375,0.376,35.043,18.445,33.137,29.982,4.782,7.862,10.942
376,0.422,34.747,18.487,33.127,29.971,4.783,7.863,11.228
377,0.464,34.849,18.542,33.118,29.982,4.824,7.822,11.515
378,0.497,34.965,18.499,33.137,29.982,4.824,7.863,11.843
379,0.527,35.072,18.518,33.127,29.978,4.702,7.741,12.05
380,0.544,34.766,18.499,33.127,29.982,4.782,7.821,12.459
381,0.58,34.888,18.565,33.118,29.968,4.661,7.781,12.707
382,0.629,35.042,18.57,33.156,29.992,4.863,7.822,13.034
383,0.662,35.092,18.523,33.109,29.982,4.824,7.781,13.282
384,0.688,34.622,18.425,33.127,29.985,4.824,7.781,13.447
385,0.701,34.742,18.463,33.127,29.982,4.865,7.7,13.611
386,0.727,34.859,18.522,33.108,29.975,4.784,7.618,13.694
387,0.751,34.937,18.515,33.127,29.989,4.905,7.779,13.939
388,0.761,34.678,18.499,33.127,29.975,4.825,7.659,13.9
389,0.78,34.858,18.518,33.137,29.985,4.824,7.658,13.819
390,0.774,34.908,18.554,33.08,29.975,4.743,7.536,13.696
391,0.784,34.985,18.523,33.089,29.982,4.783,7.534,13.654
392,0.764,34.708,18.476,33.108,29.975,4.783,7.616,13.613
393,0.774,34.868,18.483,33.118,29.982,4.824,7.495,13.45
394,0.774,34.956,18.506,33.118,29.982,4.824,7.534,13.326
395,0.761,34.985,18.503,33.079,29.975,4.702,7.412,13.081
396,0.761,34.689,18.538,33.089,29.978,4.782,7.452,12.997
397,0.761,34.801,18.495,33.089,29.975,4.742,7.452,12.875
398,0.774,34.974,18.522,33.137,29.989,4.823,7.615,12.873
399,0.754,34.727,18.554,33.099,29.982,4.783,7.535,12.711
400,0.757,34.695,18.515,33.118,29.982,4.824,7.575,12.668
401,0.738,34.839,18.495,33.156,29.985,4.783,7.535,12.465
402,0.76,34.936,18.499,33.08,29.982,4.742,7.616,12.3
403,0.774,34.554,18.503,33.108,29.992,4.905,7.739,12.298
404,0.784,34.665,18.534,33.089,29.975,4.825,7.699,11.973
405,0.8,34.791,18.55,33.098,29.985,4.865,7.74,12.011
406,0.797,34.859,18.515,33.07,29.975,4.702,7.659,11.808
407,0.816,34.687,18.503,33.079,29.982,4.701,7.698,11.602
408,0.816,34.82,18.55,33.069,29.975,4.782,7.74,11.478
409,0.846,34.946,18.48,33.069,29.982,4.742,7.74,11.314
410,0.846,35.043,18.487,33.098,29.982,4.783,7.821,11.272
411,0.849,34.564,18.506,33.05,29.975,4.742,7.659,10.987
412,0.843,34.713,18.55,33.069,29.978,4.783,7.78,10.944
413,0.836,34.81,18.581,33.05,29.971,4.783,7.7,10.821
414,0.849,34.907,18.589,33.098,29.978,4.864,7.821,10.657
415,0.81,34.544,18.465,33.098,29.982,4.824,7.944,10.615
416,0.829,34.713,18.475,33.079,29.982,4.783,7.864,10.371
417,0.82,34.782,18.538,33.06,29.982,4.824,7.863,10.328
418,0.83,34.821,18.472,33.06,29.975,4.702,7.822,10.083
419,0.83,34.735,18.495,33.098,29.996,4.985,7.985,10.203
420,0.82,34.849,18.518,33.06,29.982,4.826,7.864,10.041
421,0.817,34.965,18.577,33.079,29.982,4.865,7.904,9.918
422,0.813,34.918,18.542,33.041,29.975,4.824,7.863,9.754
423,0.826,34.592,18.468,33.05,29.975,4.824,7.822,9.63
424,0.83,34.704,18.518,33.06,29.982,4.865,7.985,9.588
425,0.852,34.81,18.499,33.06,29.982,4.824,8.027,9.466
426,0.875,34.447,18.553,33.05,29.985,4.905,8.109,9.424
427,0.879,34.53,18.456,33.031,29.968,4.662,8.028,9.18
428,0.876,34.665,18.494,33.04,29.978,4.741,8.149,9.096
429,0.895,34.743,18.526,33.04,29.971,4.742,8.232,9.014
430,0.912,34.782,18.569,33.05,29.975,4.823,8.395,8.972
431,0.912,34.926,18.488,33.069,29.982,4.783,8.438,8.972
432,0.899,35.062,18.51,33.117,29.975,4.783,8.357,8.606
433,0.892,35.15,18.491,33.051,29.978,4.864,8.437,8.765
434,0.889,34.345,18.495,33.012,29.975,4.784,8.438,8.604
435,0.885,34.529,18.577,33.069,29.992,4.905,8.601,8.643
436,0.879,34.617,18.503,33.021,29.979,4.744,8.521,8.562
437,0.879,34.704,18.522,33.05,29.985,4.823,8.642,8.48
438,0.863,34.619,18.499,33.002,29.978,4.783,8.562,8.357
439,0.866,34.79,18.553,33.011,29.978,4.742,8.48,8.275
440,0.856,34.926,18.429,33.021,29.982,4.864,8.682,8.396
441,0.853,34.966,18.486,33.021,29.982,4.784,8.603,8.194
442,0.879,35.034,18.499,33.021,29.978,4.864,8.643,8.192
443,0.882,35.159,18.55,32.983,29.968,4.702,8.481,8.029
444,0.892,35.285,18.597,32.992,29.978,4.742,8.52,8.068
445,0.892,35.286,18.566,33.001,29.975,4.742,8.561,7.946
446,0.928,34.174,18.527,33.011,29.985,4.823,8.561,7.986
447,0.935,34.287,18.538,33.011,29.985,4.824,8.521,7.946
448,0.938,34.384,18.538,33.002,29.978,4.783,8.479,7.783
449,0.951,34.481,18.503,32.992,29.975,4.742,8.52,7.74
450,0.948,34.559,18.471,32.973,29.978,4.661,8.439,7.699
451,0.971,34.742,18.545,33.03,29.989,4.863,8.479,7.74
452,0.958,34.811,18.546,33.002,29.989,4.784,8.398,7.659
453,0.948,34.437,18.554,33.002,29.989,4.905,8.397,7.617
454,0.941,34.539,18.484,32.992,29.982,4.825,8.397,7.617
455,0.941,34.694,18.479,33.001,29.989,4.743,8.194,7.495
456,0.951,34.772,18.522,33.002,29.992,4.945,8.436,7.697
457,0.938,34.293,18.53,32.973,29.979,4.866,8.316,7.577
458,0.945,34.471,18.515,32.992,29.985,4.865,8.396,7.494
459,0.919,34.549,18.491,32.963,29.968,4.743,8.194,7.412
460,0.928,34.646,18.553,32.982,29.982,4.701,8.232,7.452
461,0.912,34.321,18.534,32.973,29.982,4.863,8.355,7.493
462,0.935,34.471,18.487,32.963,29.978,4.743,8.234,7.412
463,0.948,34.607,18.409,32.972,29.982,4.783,8.273,7.289
464,0.945,34.666,18.455,32.953,29.968,4.661,8.111,7.207
465,0.961,34.311,18.518,32.953,29.975,4.782,8.15,7.247
466,0.964,34.423,18.534,32.953,29.971,4.742,8.15,7.247
467,0.99,34.597,18.55,32.972,29.978,4.742,8.15,7.206
468,0.984,34.608,18.488,32.963,29.978,4.823,8.191,7.287
469,0.997,34.349,18.573,32.934,29.982,4.783,8.151,7.085
470,1.01,34.481,18.554,32.934,29.982,4.742,8.069,7.083
471,1.01,34.578,18.456,32.934,29.978,4.742,8.069,7.002
472,1.014,34.608,18.502,32.982,29.992,4.905,8.191,7.204
473,1.007,34.387,18.511,32.944,29.982,4.865,7.988,7.084
474,1.004,34.539,18.554,32.953,29.982,4.865,8.068,7.002
475,0.978,34.598,18.558,32.905,29.978,4.824,8.069,7.001
476,0.974,34.301,18.531,32.934,29.975,4.743,7.946,6.919
477,0.987,34.384,18.487,32.934,29.982,4.823,8.026,7.041
478,0.994,34.51,18.569,32.934,29.982,4.783,7.987,6.96
479,0.991,34.617,18.515,32.934,29.985,4.783,7.986,7.0
480,0.978,34.205,18.495,32.886,29.968,4.58,7.864,6.838
481,0.987,34.374,18.495,32.905,29.978,4.7,7.944,6.877
482,0.997,34.491,18.542,32.876,29.982,4.742,7.864,6.837
483,1.03,34.597,18.585,32.914,29.985,4.701,7.944,6.877
484,1.024,34.196,18.605,32.914,29.982,4.782,8.026,6.837
485,1.036,34.355,18.5,32.924,29.982,4.783,7.865,6.755
486,1.043,34.462,18.475,32.905,29.978,4.702,7.863,6.754
487,1.056,34.53,18.522,32.866,29.975,4.66,7.822,6.673
488,1.076,34.176,18.503,32.904,29.989,4.904,7.944,6.875
489,1.079,34.316,18.495,32.905,29.975,4.865,7.864,6.755
490,1.102,34.452,18.491,32.905,29.982,4.824,7.863,6.754
491,1.089,34.443,18.534,32.857,29.971,4.702,7.782,6.673
492,1.089,34.175,18.55,32.895,29.975,4.701,7.781,6.631
493,1.083,34.287,18.534,32.886,29.978,4.782,7.862,6.753
494,1.086,34.432,18.472,32.876,29.971,4.783,7.863,6.714
495,1.083,34.482,18.518,32.895,29.982,4.783,7.863,6.713
496,1.083,34.29,18.507,32.876,29.975,4.62,7.741,6.632
497,1.086,34.413,18.526,32.876,29.985,4.741,7.781,6.712
498,1.083,34.549,18.511,32.866,29.975,4.701,7.822,6.713
499,1.096,34.186,18.518,32.885,29.978,4.782,7.863,6.754
500,1.073,34.134,18.561,32.876,29.982,4.783,7.904,6.754
501,1.083,34.268,18.562,32.876,29.982,4.702,7.782,6.673
502,1.089,34.365,18.515,32.866,29.975,4.701,7.7,6.713
503,1.109,34.078,18.417,32.847,29.971,4.701,7.699,6.632
504,1.128,34.257,18.506,32.904,29.985,4.823,7.943,6.875
505,1.142,34.365,18.487,32.857,29.978,4.783,7.783,6.674
506,1.155,34.462,18.569,32.876,29.985,4.783,7.822,6.753
507,1.152,34.108,18.519,32.895,29.975,4.742,7.781,6.714
508,1.165,34.248,18.499,32.866,29.975,4.661,7.781,6.672
509,1.171,34.384,18.561,32.847,29.982,4.7,7.903,6.753
510,1.194,34.443,18.55,32.856,29.982,4.701,7.863,6.673
511,1.207,33.964,18.476,32.856,29.982,4.742,7.944,6.631
512,1.194,34.112,18.491,32.828,29.968,4.579,7.783,6.55
513,1.194,34.229,18.491,32.856,29.975,4.7,7.862,6.59
514,1.194,34.259,18.507,32.837,29.982,4.701,7.944,6.631
515,1.207,34.183,18.565,32.856,29.978,4.742,7.945,6.631
516,1.191,34.306,18.507,32.856,29.989,4.823,7.945,6.631
517,1.191,34.423,18.507,32.856,29.982,4.661,7.945,6.55
518,1.201,34.434,18.511,32.856,29.978,4.7,7.905,6.59
519,1.188,34.021,18.518,32.828,29.978,4.66,7.863,6.549
520,1.197,34.19,18.46,32.894,29.996,4.863,7.985,6.671
521,1.188,34.268,18.491,32.847,29.979,4.784,7.986,6.631
522,1.214,34.24,18.471,32.847,29.985,4.783,7.905,6.59
523,1.217,34.058,18.526,32.837,29.978,4.702,7.863,6.549
524,1.23,34.209,18.554,32.837,29.968,4.742,7.822,6.549
525,1.247,34.307,18.589,32.847,29.989,4.783,7.944,6.671
526,1.257,34.039,18.527,32.837,29.982,4.742,7.864,6.591
527,1.263,34.123,18.538,32.847,29.982,4.783,7.863,6.549
528,1.263,34.2,18.542,32.808,29.968,4.661,7.7,6.468
529,1.289,34.326,18.48,32.865,29.985,4.7,7.78,6.386
530,1.293,33.972,18.483,32.809,29.975,4.701,7.781,6.507
531,1.316,34.161,18.53,32.837,29.985,4.782,7.781,6.386
532,1.309,34.258,18.565,32.847,29.982,4.702,7.822,6.547
533,1.306,34.336,18.57,32.818,29.982,4.701,7.619,6.305
534,1.303,33.953,18.519,32.846,29.978,4.66,7.657,6.384
535,1.299,34.093,18.495,32.818,29.975,4.66,7.617,6.344
536,1.296,34.258,18.522,32.846,29.992,4.863,7.698,6.506
537,1.283,34.307,18.554,32.847,29.975,4.784,7.699,6.345
538,1.293,34.106,18.527,32.904,29.982,4.824,7.658,6.425
539,1.267,34.21,18.48,32.809,29.975,4.743,7.617,6.466
540,1.267,34.355,18.542,32.808,29.971,4.701,7.535,6.386
541,1.267,34.375,18.577,32.818,29.985,4.863,7.697,6.507
542,1.273,33.954,18.511,32.827,29.978,4.743,7.536,6.427
543,1.286,34.093,18.475,32.837,29.985,4.742,7.616,6.385
544,1.293,34.191,18.471,32.789,29.972,4.62,7.495,6.303
545,1.299,34.489,18.487,32.817,29.975,4.7,7.534,6.384
546,1.309,34.127,18.534,32.818,29.975,4.701,7.616,6.344
547,1.332,34.306,18.487,32.837,29.978,4.742,7.495,6.466
548,1.323,34.365,18.479,32.808,29.985,4.783,7.534,6.304
549,1.335,34.04,18.553,32.827,29.982,4.702,7.453,6.221
550,1.342,34.037,18.542,32.818,29.978,4.742,7.493,6.261
551,1.342,34.142,18.441,32.779,29.978,4.701,7.453,6.262
552,1.349,34.306,18.486,32.846,29.992,4.782,7.574,6.343
553,1.329,34.049,18.487,32.808,29.989,4.783,7.535,6.303
554,1.339,34.209,18.51,32.827,29.985,4.742,7.453,6.262
555,1.31,34.297,18.53,32.799,29.982,4.742,7.452,6.302
556,1.3,34.384,18.487,32.798,29.975,4.661,7.452,6.302
557,1.299,34.059,18.506,32.817,29.989,4.863,7.615,6.506
558,1.299,34.19,18.534,32.818,29.982,4.743,7.535,6.345
559,1.286,34.335,18.526,32.808,29.982,4.742,7.534,6.466
560,1.257,34.366,18.429,32.789,29.975,4.701,7.494,6.304
561,1.266,34.126,18.486,32.789,29.975,4.701,7.453,6.262
562,1.26,34.258,18.526,32.798,29.978,4.742,7.534,6.424
563,1.289,34.384,18.526,32.808,29.975,4.701,7.412,6.344
564,1.28,34.452,18.581,32.798,29.982,4.701,7.533,6.343
565,1.299,34.328,18.566,32.779,29.975,4.538,7.372,6.221
566,1.29,34.471,18.519,32.798,29.982,4.699,7.452,6.302
567,1.293,34.568,18.491,32.77,29.971,4.701,7.534,6.262
568,1.306,34.636,18.538,32.817,29.982,4.742,7.534,6.343
569,1.306,34.378,18.495,32.798,29.982,4.783,7.575,6.343
570,1.316,34.519,18.487,32.798,29.985,4.783,7.535,6.343
571,1.303,34.598,18.522,32.779,29.982,4.702,7.534,6.343
572,1.286,34.733,18.55,32.769,29.978,4.742,7.494,6.303
573,1.273,34.782,18.585,32.817,29.992,4.864,7.656,6.506
574,1.26,34.897,18.535,32.789,29.982,4.743,7.658,6.467
575,1.244,35.023,18.53,32.846,29.985,4.742,7.617,6.426
576,1.218,34.727,18.48,32.76,29.972,4.701,7.617,6.304
577,1.208,34.83,18.538,32.779,29.975,4.66,7.617,6.262
578,1.198,34.946,18.468,32.769,29.978,4.741,7.657,6.424
579,1.194,35.072,18.487,32.798,29.982,4.742,7.617,6.426
580,1.181,34.967,18.506,32.798,29.978,4.783,7.657,6.466
581,1.168,35.12,18.553,32.77,29.971,4.661,7.576,6.223
582,1.168,35.217,18.515,32.769,29.975,4.7,7.616,6.342
583,1.168,35.285,18.456,32.769,29.968,4.66,7.535,6.262
584,1.178,35.296,18.514,32.836,29.992,4.782,7.657,6.343
585,1.171,35.392,18.495,32.789,29.982,4.742,7.658,6.343
586,1.168,35.536,18.553,32.769,29.985,4.701,7.617,6.384
587,1.162,35.557,18.46,32.779,29.982,4.701,7.535,6.344
588,1.155,35.509,18.483,32.76,29.971,4.66,7.657,6.303
589,1.161,35.653,18.538,32.779,29.992,4.822,7.82,6.506
590,1.161,35.76,18.569,32.76,29.982,4.702,7.741,6.386
591,1.148,35.809,18.503,32.769,29.985,4.742,7.781,6.425
592,1.126,35.915,18.475,32.788,29.968,4.661,7.781,6.344
593,1.109,36.079,18.479,32.75,29.975,4.7,7.822,6.303
594,1.093,36.176,18.502,32.779,29.982,4.701,7.944,6.384
595,1.086,36.57,18.538,32.769,29.982,4.742,7.986,6.344
596,1.073,36.2,18.542,32.779,29.982,4.783,8.068,6.425
597,1.056,36.331,18.519,32.741,29.971,4.661,7.946,6.263
598,1.05,36.428,18.515,32.75,29.978,4.66,8.026,6.343
599,1.017,36.343,18.538,32.75,29.971,4.66,8.027,6.343
600,1.014,36.476,18.48,32.788,29.989,4.741,8.149,6.343
601,0.991,36.573,18.491,32.76,29.975,4.742,8.15,6.384
602,0.997,36.67,18.491,32.76,29.982,4.823,8.232,6.303
603,0.984,36.719,18.553,32.76,29.982,4.661,8.111,6.343
604,0.978,36.844,18.531,32.74,29.975,4.7,8.109,6.262
605,0.987,36.98,18.569,32.779,29.989,4.863,8.354,6.505
606,0.978,37.039,18.519,32.76,29.982,4.743,8.193,6.467
607,0.981,36.943,18.511,32.76,29.982,4.783,8.273,6.426
608,0.961,37.029,18.534,32.74,29.971,4.742,8.274,6.304
609,0.961,37.154,18.499,32.731,29.975,4.661,8.274,6.343
610,0.961,37.222,18.487,32.74,29.978,4.741,8.396,6.425
611,0.971,37.348,18.503,32.731,29.982,4.701,8.356,6.385
612,0.948,37.474,18.557,32.759,29.982,4.742,8.356,6.466
613,0.925,37.6,18.554,32.712,29.975,4.62,8.234,6.345
614,0.909,37.62,18.566,32.73,29.978,4.741,8.314,6.343
615,0.895,37.534,18.457,32.731,29.975,4.661,8.234,6.384
616,0.899,37.735,18.51,32.759,29.985,4.741,8.314,6.344
617,0.879,37.794,18.546,32.75,29.978,4.742,8.274,6.425
618,0.866,37.785,18.523,32.74,29.978,4.701,8.152,6.344
619,0.846,37.881,18.503,32.74,29.978,4.742,8.191,6.343
620,0.827,37.987,18.503,32.711,29.975,4.661,8.11,6.303
621,0.833,38.113,18.557,32.759,29.999,4.822,8.232,6.465
622,0.82,38.057,18.546,32.74,29.989,4.661,8.151,6.345
623,0.833,38.037,18.499,32.759,29.985,4.741,8.11,6.384
624,0.823,38.133,18.405,32.721,29.975,4.742,8.069,6.385
625,0.833,38.239,18.47,32.74,29.975,4.701,7.987,6.263
626,0.823,38.25,18.51,32.74,29.989,4.782,8.19,6.465
627,0.833,38.403,18.507,32.74,29.975,4.742,8.029,6.345
628,0.83,38.51,18.495,32.75,29.982,4.742,7.987,6.506
629,0.843,38.559,18.483,32.702,29.968,4.661,7.905,6.223
630,0.846,38.339,18.549,32.721,29.978,4.7,7.863,6.22
631,0.833,38.452,18.531,32.702,29.971,4.742,7.904,6.302
632,0.826,38.616,18.452,32.74,29.982,4.823,7.904,6.302
633,0.804,38.666,18.498,32.817,29.982,4.824,7.945,6.302
634,0.8,38.666,18.471,32.731,29.975,4.702,7.783,6.18
635,0.794,38.781,18.506,32.731,29.985,4.62,7.862,6.22
636,0.777,38.859,18.561,32.702,29.978,4.741,7.741,6.139
637,0.793,38.975,18.55,32.759,29.992,4.864,7.821,6.301
638,0.767,38.727,18.519,32.721,29.979,4.743,7.863,6.302
639,0.764,38.868,18.569,32.73,29.975,4.742,7.7,6.343
640,0.744,38.937,18.546,32.74,29.982,4.783,7.699,6.221
641,0.744,38.966,18.374,32.74,29.968,4.661,7.699,6.18
642,0.751,39.043,18.513,32.74,29.989,4.904,7.821,6.383
643,0.751,39.169,18.472,32.711,29.985,4.825,7.578,6.263
644,0.751,39.276,18.518,32.74,29.989,4.824,7.575,6.302
645,0.744,39.401,18.542,32.692,29.972,4.661,7.616,6.262
646,0.767,38.99,18.452,32.682,29.982,4.741,7.617,6.18
647,0.767,39.111,18.487,32.72,29.985,4.823,7.617,6.301
648,0.774,39.189,18.557,32.721,29.982,4.743,7.535,6.221
649,0.774,39.468,18.499,32.74,29.985,4.783,7.575,6.261
650,0.787,39.585,18.491,32.702,29.972,4.661,7.454,6.139
651,0.78,39.711,18.491,32.711,29.978,4.741,7.534,6.219
652,0.78,39.77,18.53,32.702,29.982,4.742,7.534,6.261
653,0.767,38.821,18.581,32.701,29.982,4.742,7.575,6.221
654,0.77,38.927,18.574,32.721,29.989,4.823,7.616,6.302
655,0.761,39.043,18.507,32.702,29.978,4.702,7.454,6.14
656,0.744,39.111,18.491,32.711,29.982,4.823,7.534,6.138
657,0.728,39.217,18.518,32.702,29.971,4.743,7.494,6.138
658,0.747,39.381,18.526,32.74,29.989,4.823,7.616,6.179
659,0.721,39.46,18.538,32.721,29.985,4.783,7.657,6.261
660,0.721,39.537,18.487,32.721,29.982,4.742,7.576,6.18
661,0.715,39.155,18.538,32.702,29.978,4.742,7.616,6.179
662,0.708,39.285,18.566,32.701,29.975,4.661,7.535,6.139
663,0.734,39.411,18.574,32.74,29.999,4.863,7.738,6.382
664,0.734,39.422,18.496,32.711,29.989,4.743,7.618,6.263
665,0.738,39.058,18.522,32.702,29.985,4.823,7.657,6.221
666,0.738,39.15,18.491,32.682,29.975,4.743,7.536,6.22
667,0.751,39.247,18.534,32.692,29.982,4.701,7.616,6.18
668,0.754,39.276,18.507,32.711,29.978,4.823,7.657,6.383
669,0.767,39.2,18.487,32.682,29.975,4.743,7.617,6.222
670,0.767,39.314,18.557,32.711,29.985,4.783,7.617,6.22
671,0.774,39.392,18.523,32.663,29.972,4.661,7.454,6.139
672,0.767,39.604,18.464,32.692,29.978,4.741,7.534,6.179
673,0.751,39.721,18.44,32.701,29.975,4.742,7.494,6.179
674,0.77,39.847,18.502,32.701,29.985,4.742,7.494,6.261
675,0.748,39.896,18.503,32.692,29.982,4.823,7.494,6.221
676,0.741,38.755,18.592,32.682,29.975,4.743,7.371,6.139
677,0.731,38.821,18.511,32.711,29.978,4.783,7.492,6.138
678,0.734,38.917,18.479,32.682,29.975,4.702,7.412,6.057
679,0.728,39.043,18.538,32.72,29.985,4.863,7.615,6.219
680,0.705,39.092,18.503,32.683,29.978,4.743,7.454,6.139
681,0.711,39.246,18.464,32.701,29.985,4.783,7.371,6.219
682,0.711,39.334,18.495,32.701,29.982,4.824,7.411,6.22
683,0.734,39.392,18.518,32.682,29.978,4.702,7.33,6.139
684,0.734,38.923,18.522,32.701,29.989,4.863,7.532,6.26
685,0.751,39.024,18.573,32.692,29.982,4.824,7.412,6.221
686,0.751,39.149,18.519,32.692,29.982,4.783,7.452,6.18
687,0.754,39.16,18.499,32.653,29.975,4.824,7.33,6.139
688,0.761,38.834,18.538,32.663,29.975,4.743,7.289,6.098
689,0.774,38.946,18.511,32.663,29.975,4.864,7.369,6.138
690,0.787,39.082,18.499,32.682,29.982,4.743,7.289,6.138
691,0.79,39.112,18.475,32.673,29.985,4.783,7.369,6.138
692,0.774,38.767,18.506,32.644,29.972,4.661,7.167,6.057
693,0.764,38.907,18.561,32.653,29.982,4.7,7.246,6.097
694,0.754,39.004,18.542,32.653,29.978,4.701,7.288,6.138
695,0.777,39.092,18.507,32.682,29.982,4.742,7.288,6.138
696,0.751,38.767,18.499,32.673,29.982,4.742,7.329,6.179
697,0.748,38.907,18.542,32.663,29.968,4.701,7.167,6.057
698,0.741,38.976,18.534,32.653,29.982,4.742,7.165,6.178
699,0.725,38.65,18.495,32.663,29.975,4.661,7.124,6.139
700,0.731,38.733,18.518,32.692,29.992,4.904,7.165,6.219
701,0.734,38.84,18.53,32.682,29.982,4.784,7.206,6.22
702,0.725,38.917,18.562,32.692,29.985,4.783,7.206,6.261
703,0.728,38.391,18.511,32.644,29.978,4.702,7.165,6.18
704,0.734,38.558,18.472,32.653,29.975,4.701,7.043,6.179
705,0.747,38.675,18.514,32.682,29.989,4.863,7.326,6.342
706,0.754,38.724,18.511,32.673,29.982,4.784,7.167,6.181
707,0.761,38.418,18.53,32.682,29.982,4.824,7.206,6.22
708,0.761,38.568,18.503,32.644,29.971,4.661,7.003,6.18
709,0.777,38.665,18.487,32.663,29.982,4.741,7.082,6.179
710,0.79,38.695,18.534,32.634,29.975,4.701,7.123,6.179
711,0.787,38.302,18.569,32.672,29.982,4.701,7.083,6.22
712,0.787,38.413,18.503,32.663,29.982,4.782,7.123,6.18
713,0.777,38.549,18.468,32.663,29.982,4.702,7.083,6.139
714,0.767,38.569,18.475,32.663,29.975,4.742,7.042,6.179
715,0.761,38.291,18.471,32.634,29.971,4.661,6.96,6.139
716,0.757,38.442,18.541,32.672,29.996,4.863,7.163,6.219
717,0.748,38.53,18.476,32.663,29.985,4.743,7.084,6.098
718,0.751,38.54,18.479,32.663,29.992,4.864,7.123,6.138
719,0.725,38.157,18.514,32.644,29.979,4.743,7.165,6.098
720,0.731,38.287,18.546,32.663,29.971,4.661,7.084,6.056
721,0.734,38.385,18.491,32.653,29.982,4.822,7.245,6.259
722,0.731,38.146,18.518,32.682,29.982,4.702,7.206,6.139
723,0.757,38.105,18.472,32.653,29.982,4.742,7.247,6.138
724,0.748,38.21,18.491,32.596,29.965,4.579,7.084,6.057
725,0.757,38.307,18.503,32.624,29.982,4.74,7.164,6.056
726,0.754,37.934,18.557,32.605,29.982,4.62,7.206,6.097
727,0.783,38.093,18.495,32.633,29.982,4.741,7.287,6.056
728,0.777,38.181,18.518,32.643,29.985,4.742,7.329,6.097
729,0.787,38.249,18.546,32.615,29.975,4.62,7.126,5.894
730,0.79,37.703,18.491,32.614,29.978,4.781,7.287,6.054
731,0.787,37.851,18.491,32.614,29.975,4.58,7.207,6.015
732,0.797,38.025,18.514,32.653,29.992,4.74,7.369,6.056
733,0.781,38.046,18.511,32.634,29.989,4.701,7.37,6.097
734,0.784,38.238,18.522,32.624,29.985,4.742,7.33,6.056
735,0.774,38.374,18.542,32.624,29.982,4.701,7.329,6.056
736,0.767,38.462,18.402,32.624,29.978,4.62,7.248,5.934
737,0.764,38.521,18.498,32.624,29.989,4.781,7.41,6.055
738,0.761,37.447,18.542,32.605,29.982,4.783,7.289,6.056
739,0.761,37.571,18.495,32.643,29.985,4.742,7.329,6.137
740,0.728,37.658,18.491,32.595,29.978,4.701,7.289,6.098
741,0.741,37.707,18.503,32.614,29.982,4.66,7.247,5.975
742,0.728,37.698,18.514,32.605,29.982,4.7,7.369,6.137
743,0.741,37.842,18.573,32.614,29.975,4.782,7.289,6.098
744,0.741,37.958,18.562,32.605,29.985,4.742,7.288,6.016
745,0.747,37.892,18.488,32.586,29.975,4.579,7.004,5.974
746,0.751,37.642,18.518,32.614,29.975,4.659,7.163,5.974
747,0.761,37.736,18.507,32.586,29.982,4.66,7.246,6.015
748,0.787,37.871,18.538,32.633,29.982,4.741,7.288,6.015
749,0.793,37.402,18.519,32.615,29.985,4.742,7.369,6.056
750,0.797,37.484,18.483,32.605,29.972,4.661,7.289,5.893
751,0.8,37.571,18.518,32.624,29.982,4.782,7.288,5.973
752,0.781,37.649,18.561,32.595,29.975,4.661,7.288,5.933
753,0.787,37.4,18.554,32.624,29.989,4.741,7.41,6.014
754,0.774,37.503,18.488,32.624,29.982,4.701,7.371,6.056
755,0.758,37.648,18.487,32.634,29.982,4.742,7.33,5.975
756,0.744,37.688,18.518,32.615,29.982,4.661,7.41,6.015
757,0.751,37.237,18.518,32.595,29.975,4.7,7.289,5.974
758,0.744,37.425,18.522,32.643,29.999,4.863,7.491,6.096
759,0.747,37.503,18.491,32.615,29.986,4.784,7.371,6.097
760,0.734,37.571,18.553,32.624,29.985,4.742,7.33,6.056
761,0.718,37.15,18.527,32.595,29.975,4.701,7.329,6.056
762,0.734,37.309,18.468,32.614,29.975,4.66,7.207,5.975
763,0.741,37.425,18.374,32.624,29.982,4.741,7.369,6.055
764,0.747,37.484,18.486,32.605,29.975,4.742,7.289,6.056
765,0.757,37.302,18.514,32.614,29.982,4.742,7.288,6.097
766,0.757,37.397,18.554,32.586,29.965,4.539,7.166,5.975
767,0.777,37.532,18.449,32.624,29.978,4.699,7.246,5.974
768,0.771,37.524,18.463,32.614,29.971,4.66,7.288,6.055
769,0.79,36.929,18.561,32.605,29.982,4.741,7.369,6.015
770,0.793,37.057,18.527,32.605,29.978,4.742,7.37,6.096
771,0.793,37.174,18.476,32.595,29.968,4.62,7.248,5.894
772,0.793,37.088,18.479,32.605,29.975,4.659,7.41,6.054
773,0.784,37.126,18.475,32.595,29.975,4.66,7.452,6.056
774,0.78,37.289,18.549,32.624,29.989,4.7,7.534,6.056
775,0.767,37.349,18.57,32.595,29.982,4.782,7.616,6.015
776,0.761,36.803,18.531,32.605,29.982,4.62,7.657,6.096
777,0.741,36.941,18.511,32.586,29.982,4.659,7.739,6.056
778,0.738,37.029,18.526,32.585,29.968,4.538,7.699,6.015
779,0.751,37.145,18.534,32.633,29.992,4.821,7.902,6.218
780,0.731,36.781,18.507,32.653,29.982,4.661,7.823,6.098
781,0.725,36.921,18.495,32.615,29.985,4.7,7.944,6.138
782,0.721,37.028,18.518,32.576,29.975,4.742,7.823,6.098
783,0.747,37.097,18.546,32.604,29.978,4.701,7.822,6.056
784,0.744,36.666,18.554,32.586,29.985,4.782,7.944,6.178
785,0.751,36.815,18.499,32.595,29.982,4.661,7.864,6.139
786,0.764,36.941,18.518,32.605,29.982,4.7,7.904,6.179
787,0.767,36.981,18.499,32.566,29.968,4.579,7.782,6.098
788,0.767,36.78,18.518,32.585,29.975,4.618,7.862,6.016
789,0.774,36.902,18.491,32.576,29.971,4.619,7.822,6.096
790,0.803,37.047,18.491,32.585,29.978,4.741,7.863,6.097
791,0.797,37.058,18.534,32.585,29.982,4.742,7.822,6.097
792,0.797,36.675,18.55,32.614,29.978,4.661,7.822,6.097
793,0.784,36.777,18.531,32.586,29.982,4.7,7.863,6.138
794,0.777,36.874,18.441,32.585,29.968,4.66,7.782,6.138
795,0.78,36.865,18.49,32.614,29.996,4.782,7.944,6.179
796,0.761,36.663,18.46,32.586,29.982,4.62,7.945,6.139
797,0.751,36.796,18.545,32.585,29.985,4.7,7.986,6.138
798,0.748,36.864,18.503,32.585,29.982,4.701,7.946,6.098
799,0.754,36.529,18.499,32.576,29.978,4.62,7.945,6.056
800,0.735,36.612,18.553,32.604,29.989,4.741,8.148,6.3
801,0.734,36.738,18.534,32.605,29.985,4.701,8.069,6.18
802,0.731,36.835,18.487,32.605,29.989,4.701,8.15,6.139
803,0.741,36.404,18.483,32.566,29.968,4.579,8.11,6.057
804,0.747,36.553,18.491,32.576,29.978,4.659,8.272,6.056
805,0.751,36.651,18.507,32.576,29.978,4.7,8.152,6.137
806,0.767,36.748,18.573,32.585,29.978,4.742,8.232,6.057
807,0.77,36.375,18.523,32.595,29.989,4.701,8.314,6.178
808,0.77,36.534,18.507,32.557,29.968,4.579,8.193,5.976
809,0.774,36.631,18.557,32.595,29.975,4.7,8.273,6.055
810,0.777,36.671,18.495,32.547,29.978,4.579,8.274,6.015
811,0.8,36.412,18.507,32.623,29.989,4.659,8.314,6.137
812,0.794,36.496,18.491,32.586,29.985,4.7,8.396,6.098
813,0.784,36.612,18.507,32.576,29.985,4.701,8.316,6.097
814,0.767,36.632,18.534,32.585,29.978,4.62,8.274,6.016
815,0.764,36.383,18.558,32.566,29.971,4.578,8.233,6.056
816,0.754,36.534,18.503,32.604,29.989,4.822,8.436,6.219
817,0.744,36.67,18.491,32.586,29.989,4.702,8.275,6.098
818,0.741,36.805,18.53,32.595,29.982,4.701,8.314,6.056
819,0.734,36.394,18.495,32.557,29.971,4.579,8.193,6.056
820,0.725,36.563,18.479,32.585,29.978,4.659,8.151,6.015
821,0.718,36.651,18.479,32.566,29.982,4.66,8.232,6.137
822,0.724,36.364,18.491,32.585,29.982,4.66,8.111,6.057
823,0.734,36.409,18.561,32.585,29.982,4.7,8.232,5.975
824,0.728,36.496,18.562,32.537,29.968,4.579,7.948,5.852
825,0.738,36.593,18.523,32.566,29.975,4.578,8.026,6.013
826,0.747,36.306,18.53,32.556,29.971,4.578,7.946,5.974
827,0.764,36.504,18.538,32.585,29.982,4.659,8.026,6.055
828,0.757,36.574,18.511,32.585,29.985,4.7,7.987,6.056
829,0.764,36.67,18.511,32.595,29.978,4.62,7.946,5.975
830,0.78,36.326,18.503,32.557,29.978,4.659,7.864,6.015
831,0.761,36.418,18.53,32.547,29.971,4.579,7.782,5.934
832,0.777,36.563,18.565,32.595,29.992,4.781,7.944,6.136
833,0.758,36.632,18.519,32.566,29.985,4.661,7.783,6.016
834,0.761,36.517,18.476,32.566,29.992,4.66,7.781,6.056
835,0.748,36.631,18.475,32.556,29.972,4.66,7.74,5.975
836,0.734,36.757,18.51,32.575,29.975,4.579,7.659,5.933
837,0.728,36.797,18.534,32.585,29.989,4.822,7.861,6.177
838,0.728,36.346,18.507,32.576,29.978,4.661,7.782,6.057
839,0.728,36.514,18.472,32.556,29.989,4.741,7.822,6.097
840,0.712,36.602,18.526,32.528,29.975,4.498,7.619,5.894
841,0.715,36.613,18.554,32.556,29.978,4.618,7.698,6.014
842,0.711,36.517,18.495,32.537,29.971,4.578,7.618,5.974
843,0.724,36.689,18.487,32.566,29.982,4.7,7.698,6.055
844,0.728,36.786,18.495,32.556,29.985,4.742,7.74,6.056
845,0.734,36.682,18.487,32.547,29.982,4.62,7.577,5.893
846,0.741,36.527,18.549,32.556,29.982,4.7,7.616,6.014
847,0.728,36.65,18.456,32.556,29.975,4.62,7.535,5.893
848,0.751,36.767,18.51,32.595,29.996,4.822,7.738,6.054
849,0.751,36.509,18.538,32.566,29.982,4.621,7.659,6.056
850,0.757,36.641,18.515,32.576,29.982,4.659,7.698,5.975
851,0.761,36.748,18.468,32.556,29.982,4.7,7.658,6.015
852,0.764,36.825,18.463,32.528,29.971,4.66,7.658,5.974
853,0.761,36.5,18.514,32.575,29.992,4.782,7.861,6.137
854,0.748,36.602,18.542,32.547,29.979,4.702,7.741,6.098
855,0.741,36.738,18.601,32.556,29.982,4.742,7.781,6.138
856,0.715,36.768,18.5,32.528,29.982,4.661,7.781,6.057
857,0.721,36.567,18.514,32.537,29.978,4.66,7.7,6.056
858,0.711,36.699,18.55,32.537,29.985,4.7,7.861,6.137
859,0.715,36.825,18.531,32.547,29.985,4.742,7.741,6.098
860,0.705,36.903,18.515,32.566,29.982,4.783,7.781,6.178
861,0.695,36.597,18.483,32.528,29.975,4.58,7.7,6.057
862,0.698,36.757,18.522,32.527,29.982,4.659,7.74,6.137
863,0.705,36.835,18.542,32.537,29.978,4.66,7.781,6.138
864,0.724,36.903,18.577,32.537,29.982,4.741,7.781,6.057
865,0.724,36.702,18.484,32.547,29.985,4.742,7.862,6.137
866,0.724,36.844,18.514,32.566,29.982,4.62,7.863,5.976
867,0.731,36.932,18.495,32.547,29.982,4.7,7.985,6.096
868,0.738,37.259,18.51,32.518,29.971,4.62,8.027,6.056
869,0.757,36.754,18.499,32.566,29.996,4.781,8.109,6.219
870,0.754,36.844,18.491,32.518,29.985,4.702,8.272,6.139
871,0.748,36.97,18.565,32.546,29.985,4.66,8.193,6.057
872,0.734,36.732,18.554,32.537,29.985,4.66,8.273,6.056
873,0.728,36.816,18.503,32.537,29.978,4.66,8.233,6.056
874,0.728,36.941,18.444,32.556,29.989,4.822,8.558,6.341
875,0.721,37.048,18.487,32.547,29.989,4.702,8.358,6.14
876,0.718,36.694,18.479,32.537,29.982,4.782,8.356,6.219
877,0.698,36.786,18.518,32.489,29.975,4.62,8.275,6.058
878,0.714,36.931,18.487,32.517,29.975,4.7,8.233,6.137
879,0.698,37.009,18.491,32.508,29.982,4.701,8.355,6.138
880,0.705,36.924,18.553,32.537,29.982,4.742,8.315,6.179
881,0.698,37.048,18.534,32.537,29.985,4.701,8.274,6.261
882,0.695,37.183,18.487,32.537,29.978,4.701,8.274,6.099
883,0.698,37.223,18.503,32.604,29.982,4.701,8.274,6.138
884,0.708,36.82,18.487,32.518,29.975,4.62,8.152,6.098
885,0.728,36.989,18.499,32.556,29.992,4.822,8.273,6.178
886,0.721,37.067,18.561,32.537,29.982,4.743,8.193,6.22
887,0.734,37.145,18.511,32.623,29.989,4.783,8.192,6.22
888,0.725,36.916,18.483,32.509,29.982,4.742,8.11,6.139
889,0.731,37.076,18.549,32.527,29.975,4.661,8.028,6.098
890,0.734,37.164,18.527,32.527,29.978,4.66,8.149,6.219
891,0.741,37.184,18.542,32.546,29.978,4.66,8.15,6.098
892,0.754,37.299,18.515,32.518,29.982,4.741,8.232,6.138
893,0.738,37.387,18.511,32.508,29.968,4.579,8.07,6.016
894,0.744,37.503,18.561,32.527,29.975,4.7,8.191,6.137
895,0.731,36.977,18.55,32.518,29.968,4.66,8.314,6.057
896,0.731,36.751,18.48,32.546,29.985,4.741,8.396,6.137
897,0.712,36.854,18.463,32.537,29.989,4.783,8.519,6.138
898,0.711,36.961,18.53,32.527,29.978,4.661,8.479,5.976
899,0.702,36.962,18.483,32.527,29.985,4.66,8.479,6.055
900,0.688,37.115,18.495,32.508,29.975,4.619,8.56,6.015
901,0.705,37.27,18.514,32.565,29.989,4.863,8.643,6.137
902,0.695,37.32,18.526,32.528,29.982,4.702,8.603,6.057
903,0.714,36.975,18.585,32.537,29.989,4.701,8.684,6.097
904,0.702,37.038,18.531,32.518,29.982,4.701,8.684,6.056
905,0.711,37.183,18.476,32.518,29.982,4.579,8.603,6.056
906,0.718,37.252,18.471,32.556,29.985,4.822,8.684,6.178
907,0.731,36.907,18.514,32.528,29.982,4.702,8.644,6.057
908,0.734,37.057,18.518,32.537,29.989,4.823,8.644,6.137
909,0.747,37.145,18.503,32.508,29.972,4.621,8.399,6.016
910,0.754,37.203,18.479,32.517,29.982,4.7,8.438,6.015
911,0.751,36.945,18.534,32.508,29.971,4.66,8.438,6.056
912,0.761,37.105,18.55,32.527,29.982,4.7,8.438,6.015
913,0.744,37.193,18.503,32.527,29.982,4.742,8.438,6.056
914,0.734,37.252,18.429,32.527,29.975,4.661,8.357,5.893
915,0.734,36.926,18.463,32.508,29.982,4.7,8.397,5.973
916,0.708,37.048,18.487,32.508,29.978,4.66,8.316,5.893
917,0.724,37.174,18.549,32.546,29.996,4.782,8.396,6.054
918,0.708,37.434,18.515,32.518,29.989,4.702,8.478,6.056
919,0.702,37.053,18.487,32.537,29.985,4.742,8.398,6.015
920,0.685,37.164,18.53,32.518,29.978,4.742,8.316,6.015
921,0.692,37.251,18.546,32.527,29.975,4.661,8.234,6.015
922,0.682,36.926,18.488,32.546,29.985,4.822,8.355,6.178
923,0.688,36.971,18.479,32.585,29.978,4.702,8.275,6.057
924,0.705,37.096,18.487,32.547,29.982,4.742,8.355,6.056
925,0.695,37.136,18.479,32.508,29.968,4.661,8.275,6.015
926,0.718,36.829,18.561,32.517,29.975,4.741,8.193,6.015
927,0.708,36.97,18.429,32.556,29.978,4.661,8.232,6.056
928,0.728,37.115,18.479,32.575,29.982,4.7,8.273,6.097
929,0.721,37.145,18.53,32.556,29.982,4.742,8.396,6.056
930,0.741,36.848,18.499,32.566,29.971,4.661,8.275,5.853
931,0.741,36.98,18.475,32.576,29.982,4.7,8.274,5.973
932,0.734,37.096,18.456,32.556,29.975,4.66,8.314,5.933
933,0.738,37.184,18.518,32.604,29.992,4.904,8.437,6.014
934,0.721,36.964,18.522,32.576,29.985,4.744,8.357,6.015
935,0.724,37.096,18.573,32.585,29.982,4.742,8.397,6.056
936,0.698,37.174,18.503,32.557,29.985,4.661,8.316,6.056
937,0.701,37.223,18.514,32.566,29.978,4.7,8.315,5.975
938,0.695,36.792,18.526,32.585,29.985,4.782,8.437,6.137
939,0.701,36.912,18.542,32.566,29.978,4.702,8.397,6.057
940,0.695,37.047,18.487,32.623,29.989,4.782,8.356,6.097
941,0.682,37.02,18.46,32.547,29.975,4.58,8.275,5.975
942,0.688,36.79,18.502,32.585,29.982,4.7,8.274,6.015
943,0.682,36.893,18.538,32.557,29.971,4.701,8.355,6.015
944,0.711,37.038,18.554,32.575,29.989,4.66,8.356,6.056
945,0.711,36.867,18.515,32.566,29.982,4.741,8.356,6.097
946,0.731,36.846,18.515,32.576,29.982,4.661,8.234,5.853
947,0.738,36.97,18.487,32.576,29.978,4.7,8.233,5.973
948,0.728,37.019,18.538,32.556,29.975,4.62,8.192,5.974
949,0.751,36.655,18.499,32.585,29.992,4.822,8.273,6.096
950,0.751,36.709,18.495,32.576,29.982,4.783,8.152,6.016
951,0.744,36.844,18.538,32.566,29.989,4.742,8.191,6.015
952,0.741,36.913,18.554,32.576,29.982,4.661,8.151,5.893
953,0.734,36.645,18.472,32.547,29.978,4.619,8.069,5.973
954,0.725,36.786,18.42,32.595,29.992,4.863,8.231,6.096
955,0.721,36.912,18.459,32.566,29.985,4.702,8.07,6.016
956,0.711,36.98,18.471,32.585,29.985,4.782,8.028,6.056
957,0.698,36.578,18.522,32.528,29.972,4.62,7.905,5.975
958,0.705,36.766,18.503,32.633,29.968,4.7,7.985,5.852
959,0.695,36.864,18.495,32.576,29.982,4.66,8.027,6.013
960,0.685,36.922,18.507,32.556,29.982,4.66,7.946,5.974
961,0.688,36.645,18.553,32.566,29.985,4.741,7.945,5.974
962,0.685,36.748,18.46,32.547,29.968,4.579,7.783,5.933
963,0.695,36.864,18.483,32.623,29.978,4.659,7.903,5.933
964,0.708,36.884,18.471,32.547,29.975,4.619,7.782,5.974
965,0.728,36.597,18.479,32.585,29.978,4.7,7.822,5.974
966,0.721,36.68,18.499,32.566,29.982,4.823,7.863,6.015
967,0.728,36.805,18.429,32.556,29.975,4.661,7.822,5.852
968,0.721,36.903,18.467,32.575,29.982,4.7,7.863,5.973
969,0.737,36.558,18.518,32.547,29.968,4.66,7.782,5.852
970,0.751,36.718,18.55,32.585,29.992,4.822,8.025,6.095
971,0.751,36.815,18.413,32.576,29.985,4.702,7.905,6.016
972,0.748,36.414,18.525,32.547,29.992,4.742,7.985,6.015
973,0.721,36.429,18.487,32.547,29.982,4.701,8.027,6.015
974,0.731,36.554,18.514,32.547,29.982,4.701,7.987,5.893
975,0.718,36.651,18.546,32.556,29.982,4.701,8.19,6.014
976,0.718,36.345,18.491,32.556,29.985,4.701,8.273,6.056
977,0.718,36.495,18.483,32.556,29.989,4.701,8.233,6.015
978,0.702,36.602,18.526,32.537,29.975,4.66,8.111,5.812
979,0.701,36.67,18.491,32.527,29.978,4.741,8.313,5.972
980,0.682,36.278,18.491,32.537,29.971,4.661,8.234,5.974
981,0.698,36.485,18.51,32.585,29.985,4.741,8.355,5.974
982,0.695,36.564,18.53,32.557,29.978,4.742,8.478,6.055
983,0.711,36.632,18.558,32.566,29.982,4.701,8.357,6.015
984,0.708,36.23,18.554,32.537,29.982,4.66,8.397,5.934
985,0.708,36.36,18.495,32.537,29.978,4.619,8.316,5.892
986,0.718,36.515,18.491,32.575,29.996,4.781,8.477,6.136
987,0.724,36.535,18.503,32.547,29.982,4.742,8.479,6.016
988,0.728,36.238,18.526,32.556,29.982,4.783,8.438,6.015
989,0.728,36.36,18.515,32.537,29.968,4.661,8.275,5.974
990,0.731,36.476,18.487,32.547,29.975,4.7,8.355,5.933
991,0.738,36.477,18.518,32.527,29.978,4.701,8.315,5.974
992,0.751,36.209,18.55,32.546,29.982,4.66,8.437,6.015
993,0.735,36.302,18.503,32.556,29.989,4.66,8.397,6.015
994,0.728,36.399,18.464,32.547,29.978,4.7,8.275,5.852
995,0.721,36.237,18.487,32.566,29.975,4.701,8.274,5.891
996,0.711,36.197,18.46,32.537,29.975,4.62,8.152,5.892
997,0.715,36.36,18.549,32.585,29.992,4.822,8.354,5.973
998,0.698,36.438,18.421,32.566,29.982,4.661,8.315,6.015
999,0.701,36.017,18.494,32.547,29.985,4.782,8.274,5.893
1000,0.685,36.099,18.538,32.537,29.978,4.702,8.111,6.014
1001,0.692,36.224,18.534,32.527,29.982,4.742,8.069,5.974
1002,0.685,36.331,18.503,32.566,29.992,4.823,8.191,6.137
1003,0.695,35.881,18.475,32.556,29.982,4.702,8.07,6.057
1004,0.701,36.011,18.475,32.547,29.982,4.742,7.987,6.097
1005,0.698,36.089,18.471,32.518,29.965,4.661,7.864,6.016
1006,0.708,36.167,18.541,32.537,29.978,4.66,7.863,5.934
1007,0.711,35.985,18.468,32.547,29.982,4.7,7.944,6.096
1008,0.741,36.156,18.498,32.547,29.982,4.701,7.945,6.056
1009,0.734,36.273,18.526,32.556,29.982,4.701,7.905,6.056
1010,0.741,36.303,18.526,32.537,29.971,4.538,7.782,5.853
1011,0.734,35.833,18.46,32.537,29.978,4.659,7.822,5.973
1012,0.744,35.943,18.459,32.518,29.975,4.66,7.781,5.974
1013,0.747,36.098,18.491,32.566,29.989,4.7,7.944,6.015
1014,0.731,36.119,18.507,32.556,29.985,4.701,7.945,6.015
1015,0.725,35.908,18.581,32.556,29.989,4.742,7.945,6.015
1016,0.708,36.021,18.503,32.537,29.978,4.661,7.864,6.015
1017,0.702,36.147,18.518,32.527,29.978,4.66,7.944,6.056
1018,0.692,36.129,18.518,32.546,29.996,4.822,8.148,6.178
1019,0.705,35.822,18.542,32.537,29.989,4.743,7.947,6.098
1020,0.695,35.991,18.495,32.566,29.982,4.742,8.067,6.178
1021,0.675,36.051,18.499,32.508,29.971,4.579,7.946,6.098
1022,0.678,35.792,18.507,32.556,29.982,4.659,7.986,6.097
1023,0.688,35.866,18.53,32.528,29.975,4.66,7.946,6.016
1024,0.708,36.03,18.585,32.537,29.978,4.7,8.026,6.096
1025,0.698,36.089,18.535,32.547,29.985,4.701,7.946,6.178
1026,0.714,35.793,18.53,32.527,29.975,4.62,7.986,5.976
1027,0.711,35.934,18.452,32.546,29.978,4.659,7.986,6.137
1028,0.715,36.04,18.545,32.527,29.982,4.741,7.864,6.057
1029,0.737,36.166,18.409,32.585,29.996,4.783,7.985,6.219
1030,0.734,35.525,18.478,32.528,29.979,4.702,8.068,6.139
1031,0.744,35.672,18.518,32.546,29.975,4.742,7.987,6.179
1032,0.738,35.75,18.55,32.527,29.982,4.661,7.946,6.139
1033,0.734,35.847,18.507,32.527,29.982,4.66,7.905,6.098
1034,0.725,35.685,18.475,32.556,29.992,4.822,8.026,6.3
1035,0.724,35.865,18.463,32.575,29.979,4.702,7.946,6.221
1036,0.711,35.963,18.471,32.556,29.996,4.742,7.864,6.18
1037,0.702,35.974,18.53,32.518,29.972,4.661,7.741,6.139
1038,0.705,35.571,18.46,32.518,29.978,4.619,7.781,6.138
1039,0.702,35.692,18.479,32.537,29.978,4.741,7.781,6.26
1040,0.695,35.817,18.506,32.547,29.978,4.701,7.781,6.262
1041,0.692,35.838,18.546,32.556,29.982,4.782,7.781,6.302
1042,0.679,35.723,18.484,32.537,29.978,4.661,7.659,6.14
1043,0.688,35.856,18.417,32.547,29.975,4.66,7.658,6.138
1044,0.698,35.944,18.447,32.527,29.978,4.66,7.536,6.179
1045,0.714,35.59,18.494,32.575,29.992,4.741,7.657,6.179
1046,0.715,35.51,18.495,32.556,29.982,4.742,7.658,6.22
1047,0.731,35.643,18.487,32.566,29.989,4.742,7.658,6.302
1048,0.725,35.731,18.495,32.528,29.982,4.701,7.617,6.262
1049,0.737,35.463,18.53,32.537,29.971,4.62,7.454,6.139
1050,0.744,35.623,18.538,32.556,29.996,4.863,7.696,6.301
1051,0.747,35.74,18.441,32.537,29.985,4.743,7.536,6.221
1052,0.744,35.866,18.494,32.547,29.982,4.823,7.534,6.22
1053,0.728,35.34,18.487,32.518,29.982,4.743,7.494,6.139
1054,0.715,35.488,18.526,32.527,29.978,4.701,7.412,6.138
1055,0.728,35.614,18.542,32.556,29.982,4.823,7.493,6.341
1056,0.715,35.682,18.546,32.537,29.985,4.702,7.453,6.221
1057,0.718,35.558,18.499,32.556,29.982,4.701,7.371,6.22
1058,0.711,35.644,18.491,32.508,29.971,4.579,7.289,6.139
1059,0.705,35.779,18.546,32.527,29.968,4.7,7.329,6.098
1060,0.702,35.828,18.437,32.546,29.985,4.742,7.41,6.219
1061,0.692,35.454,18.479,32.537,29.978,4.742,7.33,6.18
1062,0.701,35.604,18.499,32.556,29.985,4.783,7.37,6.22
1063,0.711,35.702,18.557,32.537,29.972,4.539,7.208,6.058
1064,0.724,35.722,18.57,32.547,29.982,4.618,7.247,6.178
1065,0.737,35.453,18.542,32.508,29.971,4.7,7.166,6.098
1066,0.767,35.642,18.507,32.565,29.985,4.66,7.287,6.219
1067,0.777,35.712,18.475,32.556,29.978,4.741,7.288,6.139
1068,0.803,35.683,18.526,32.528,29.982,4.742,7.207,6.138
1069,0.807,35.511,18.413,32.537,29.978,4.742,7.206,6.098
1070,0.833,35.643,18.463,32.508,29.975,4.62,7.165,6.138
1071,0.859,35.769,18.526,32.565,29.996,4.822,7.287,6.138
1072,0.862,35.387,18.546,32.528,29.975,4.743,7.247,6.138
1073,0.872,35.479,18.55,32.546,29.989,4.783,7.247,6.138
1074,0.85,35.585,18.48,32.518,29.975,4.742,7.206,6.179
1075,0.872,35.692,18.393,32.556,29.971,4.661,7.125,6.098
1076,0.856,35.29,18.459,32.537,29.985,4.741,7.205,6.178
1077,0.843,35.43,18.53,32.527,29.982,4.742,7.247,6.057
1078,0.846,35.575,18.483,32.537,29.985,4.701,7.206,6.137
1079,0.843,35.634,18.475,32.518,29.968,4.579,7.043,5.976
1080,0.833,35.357,18.522,32.527,29.978,4.7,7.123,6.096
1081,0.836,35.478,18.526,32.518,29.975,4.579,7.083,6.178
1082,0.846,35.643,18.495,32.546,29.982,4.7,7.083,6.098
1083,0.843,35.683,18.425,32.547,29.982,4.66,7.164,6.138
1084,0.862,35.319,18.479,32.547,29.978,4.66,7.002,5.976
1085,0.869,35.469,18.467,32.537,29.982,4.741,7.163,6.096
1086,0.879,35.537,18.522,32.508,29.975,4.661,7.124,5.975
1087,0.898,35.624,18.519,32.585,29.989,4.782,7.205,6.137
1088,0.899,35.357,18.503,32.528,29.982,4.702,7.125,6.098
1089,0.899,35.488,18.514,32.546,29.989,4.742,7.124,6.056
1090,0.905,35.557,18.534,32.537,29.982,4.701,7.165,6.015
1091,0.899,35.73,18.468,32.527,29.978,4.62,7.084,6.056
1092,0.921,35.425,18.495,32.546,29.985,4.781,7.245,6.219
1093,0.909,35.546,18.483,32.527,29.982,4.702,7.125,6.058
1094,0.915,35.663,18.522,32.546,29.982,4.782,7.165,6.137
1095,0.896,35.28,18.538,32.508,29.968,4.62,7.084,6.098
1096,0.889,35.276,18.491,32.517,29.985,4.659,7.083,5.975
1097,0.869,35.43,18.495,32.527,29.982,4.7,7.083,6.137
1098,0.876,35.537,18.495,32.546,29.978,4.701,7.123,6.057
1099,0.879,35.308,18.549,32.547,29.985,4.823,7.124,6.178
1100,0.866,35.449,18.445,32.527,29.972,4.58,6.839,6.017
1101,0.869,35.575,18.487,32.518,29.975,4.7,7.04,6.096
1102,0.866,35.634,18.467,32.527,29.971,4.62,6.96,6.016
1103,0.898,35.29,18.565,32.566,29.992,4.781,7.082,6.056
1104,0.882,35.411,18.535,32.547,29.975,4.661,7.042,6.137
1105,0.905,35.546,18.554,32.537,29.982,4.7,7.042,6.016
1106,0.912,35.615,18.519,32.585,29.982,4.701,6.92,6.056
1107,0.915,35.27,18.487,32.518,29.975,4.66,6.878,6.015
1108,0.925,35.439,18.573,32.575,29.996,4.822,7.162,6.137
1109,0.928,35.546,18.453,32.547,29.985,4.661,7.043,6.098
1110,0.938,35.615,18.506,32.556,29.982,4.822,6.96,6.016
1111,0.928,35.222,18.499,32.528,29.985,4.661,7.0,6.096
1112,0.944,35.372,18.557,32.537,29.978,4.619,6.96,5.894
1113,0.925,35.507,18.531,32.537,29.985,4.781,7.082,6.176
1114,0.912,35.547,18.511,32.527,29.978,4.742,7.002,6.017
1115,0.902,35.212,18.417,32.546,29.982,4.742,6.96,6.096
1116,0.873,35.333,18.424,32.508,29.968,4.539,6.919,5.935
1117,0.879,35.44,18.521,32.537,29.982,4.659,6.959,6.014
1118,0.866,35.403,18.483,32.518,29.975,4.7,6.96,6.056
1119,0.885,35.393,18.503,32.556,29.989,4.742,7.0,6.056
1120,0.853,35.498,18.475,32.547,29.982,4.701,7.041,6.056
1121,0.836,35.576,18.553,32.547,29.975,4.66,7.001,6.015
1122,0.817,35.442,18.519,32.527,29.982,4.741,7.001,5.974
1123,0.823,35.546,18.448,32.518,29.975,4.701,6.919,5.974
1124,0.83,35.691,18.506,32.594,29.989,4.823,7.163,6.137
1125,0.83,35.779,18.483,32.538,29.982,4.743,7.043,6.057
1126,0.843,35.042,18.522,32.547,29.985,4.742,7.042,6.056
1127,0.83,35.13,18.503,32.518,29.982,4.701,7.001,5.975
1128,0.826,35.284,18.503,32.537,29.975,4.701,6.96,5.974
1129,0.823,35.382,18.507,32.537,29.985,4.782,7.163,6.177
1130,0.833,35.201,18.542,32.527,29.972,4.702,7.043,5.976
1131,0.826,35.352,18.484,32.537,29.982,4.742,7.082,6.055
1132,0.826,35.478,18.483,32.566,29.971,4.579,6.961,5.975
1133,0.82,35.556,18.479,32.537,29.975,4.659,6.96,6.015
1134,0.8,35.164,18.495,32.518,29.978,4.619,7.0,5.974
1135,0.81,35.333,18.534,32.546,29.985,4.7,7.041,5.974
1136,0.781,35.421,18.558,32.537,29.985,4.701,7.082,6.055
1137,0.777,35.479,18.499,32.527,29.978,4.579,7.042,5.975
1138,0.78,35.23,18.468,32.527,29.982,4.7,7.042,6.015
1139,0.774,35.353,18.51,32.518,29.975,4.66,7.001,5.974
1140,0.764,35.478,18.503,32.575,29.996,4.863,7.163,6.218
1141,0.754,35.854,18.483,32.528,29.982,4.743,7.124,6.139
1142,0.751,35.244,18.499,32.537,29.989,4.701,7.043,6.138
1143,0.744,35.314,18.499,32.537,29.985,4.66,7.042,6.057
1144,0.767,35.44,18.53,32.527,29.975,4.7,7.001,6.015
1145,0.751,35.115,18.573,32.527,29.989,4.742,7.204,6.218
1146,0.761,35.179,18.441,32.527,29.975,4.742,7.003,6.139
1147,0.767,35.295,18.494,32.537,29.982,4.742,7.082,6.179
1148,0.761,35.363,18.534,32.518,29.971,4.62,6.961,6.098
1149,0.757,35.162,18.472,32.537,29.971,4.659,7.041,6.138
1150,0.754,35.294,18.471,32.527,29.978,4.66,7.042,6.138
1151,0.761,35.44,18.514,32.537,29.989,4.741,7.123,6.138
1152,0.761,35.537,18.55,32.547,29.985,4.661,7.165,6.179
1153,0.751,35.058,18.554,32.508,29.975,4.579,7.084,6.057
1154,0.725,35.217,18.495,32.527,29.978,4.659,7.164,6.097
1155,0.715,35.324,18.417,32.518,29.971,4.66,7.124,6.097
1156,0.711,35.43,18.475,32.575,29.989,4.741,7.205,6.178
1157,0.679,35.479,18.538,32.547,29.975,4.701,7.287,6.179
1158,0.665,35.643,18.487,32.537,29.989,4.701,7.329,6.098
1159,0.652,35.74,18.491,32.537,29.982,4.66,7.329,6.138
1160,0.633,35.78,18.507,32.527,29.978,4.66,7.329,6.138
1161,0.639,34.907,18.565,32.575,29.989,4.863,7.614,6.341
1162,0.636,35.004,18.511,32.547,29.982,4.743,7.373,6.221
1163,0.633,35.139,18.425,32.556,29.982,4.742,7.452,6.22
1164,0.639,35.131,18.486,32.508,29.975,4.661,7.412,6.18
1165,0.636,35.208,18.495,32.527,29.982,4.66,7.452,6.057
1166,0.642,35.324,18.522,32.527,29.982,4.741,7.452,6.341
1167,0.668,35.449,18.479,32.546,29.975,4.742,7.534,6.181
1168,0.672,35.259,18.495,32.556,29.982,4.783,7.534,6.22
1169,0.672,35.104,18.491,32.508,29.975,4.58,7.453,6.098
1170,0.688,35.236,18.538,32.527,29.978,4.659,7.534,6.097
1171,0.685,35.324,18.456,32.518,29.968,4.579,7.534,6.138
1172,0.701,35.104,18.498,32.566,29.982,4.7,7.575,6.219
1173,0.682,35.217,18.464,32.528,29.982,4.823,7.657,6.22
1174,0.679,35.333,18.534,32.527,29.982,4.702,7.617,6.139
1175,0.665,35.411,18.565,32.518,29.978,4.701,7.657,6.179
1176,0.659,35.076,18.538,32.527,29.975,4.62,7.576,6.057
1177,0.662,35.255,18.519,32.566,29.989,4.822,7.738,6.219
1178,0.646,35.382,18.511,32.537,29.982,4.702,7.618,6.22
1179,0.642,35.44,18.538,32.537,29.985,4.701,7.657,6.261
1180,0.62,35.009,18.464,32.527,29.978,4.701,7.658,6.18
1181,0.619,35.178,18.498,32.527,29.971,4.66,7.617,6.098
1182,0.616,35.295,18.518,32.537,29.982,4.7,7.779,6.341
1183,0.623,35.353,18.558,32.527,29.982,4.66,7.781,6.181
1184,0.626,35.028,18.538,32.527,29.989,4.741,7.822,6.22
1185,0.636,35.14,18.464,32.527,29.975,4.579,7.619,6.058
1186,0.655,35.275,18.471,32.537,29.978,4.659,7.779,6.178
1187,0.652,35.315,18.475,32.518,29.975,4.619,7.74,6.098
1188,0.672,35.104,18.545,32.537,29.985,4.7,7.862,6.178
1189,0.672,35.207,18.499,32.537,29.989,4.742,7.863,6.179
1190,0.688,35.343,18.471,32.537,29.982,4.661,7.904,6.098
1191,0.685,35.67,18.534,32.518,29.975,4.7,7.823,6.138
1192,0.682,35.156,18.542,32.498,29.971,4.579,7.863,6.098
1193,0.679,35.304,18.503,32.546,29.989,4.781,7.985,6.3
1194,0.669,35.392,18.401,32.547,29.985,4.702,7.946,6.14
1195,0.662,35.057,18.463,32.537,29.985,4.742,7.986,6.219
1196,0.646,35.054,18.479,32.508,29.968,4.62,7.946,6.22
1197,0.642,35.188,18.514,32.517,29.978,4.619,7.905,6.18
1198,0.616,35.295,18.491,32.537,29.982,4.7,8.026,6.261
1199,0.629,34.941,18.487,32.518,29.982,4.701,7.987,6.221
1200,0.626,35.12,18.545,32.537,29.982,4.701,8.027,6.302
1201,0.61,35.208,18.53,32.508,29.968,4.579,7.824,6.14
1202,0.613,35.314,18.456,32.527,29.978,4.659,7.903,6.26
1203,0.616,34.951,18.479,32.518,29.975,4.619,7.863,6.262
1204,0.655,35.168,18.471,32.546,29.982,4.659,7.944,6.262
1205,0.649,35.237,18.491,32.547,29.989,4.7,7.905,6.384
1206,0.668,35.324,18.507,32.527,29.989,4.66,7.863,6.263
1207,0.672,35.037,18.448,32.527,29.975,4.66,7.863,6.302
1208,0.682,35.197,18.467,32.508,29.975,4.579,7.782,6.302
1209,0.698,35.333,18.549,32.556,29.992,4.781,8.066,6.465
1210,0.705,35.354,18.495,32.528,29.982,4.661,7.865,6.264
1211,0.747,35.028,18.526,32.556,29.985,4.7,7.944,6.343
1212,0.764,35.14,18.476,32.508,29.978,4.701,7.864,6.384
1213,0.793,35.275,18.495,32.508,29.971,4.66,7.822,6.344
1214,0.819,35.276,18.534,32.517,29.982,4.741,7.985,6.506
1215,0.836,35.046,18.538,32.518,29.985,4.661,7.783,6.427
1216,0.882,35.197,18.519,32.518,29.985,4.7,7.903,6.426
1217,0.905,35.295,18.491,32.498,29.972,4.538,7.782,6.304
1218,0.957,35.066,18.507,32.527,29.982,4.659,7.74,6.343
1219,1.013,34.929,18.526,32.518,29.975,4.619,7.821,6.343
1220,1.079,35.139,18.425,32.546,29.982,4.659,7.781,6.425
1221,1.115,35.198,18.494,32.537,29.982,4.741,7.822,6.466
1222,1.145,35.007,18.518,32.527,29.982,4.701,7.7,6.345
1223,1.174,35.13,18.554,32.518,29.978,4.66,7.821,6.466
1224,1.21,35.256,18.554,32.508,29.975,4.579,7.619,6.304
1225,1.243,35.362,18.527,32.556,29.989,4.781,7.739,6.506
1226,1.273,34.865,18.503,32.528,29.985,4.702,7.74,6.427
1227,1.325,35.042,18.475,32.537,29.985,4.66,7.699,6.466
1228,1.332,35.111,18.518,32.499,29.978,4.7,7.658,6.467
1229,1.339,35.208,18.397,32.527,29.971,4.66,7.576,6.386
1230,1.368,35.046,18.474,32.527,29.992,4.741,7.698,6.629
1231,1.372,35.178,18.534,32.518,29.985,4.742,7.618,6.387
1232,1.404,35.304,18.554,32.527,29.989,4.742,7.576,6.547
1233,1.398,35.325,18.519,32.499,29.972,4.539,7.494,6.468
1234,1.388,34.893,18.433,32.527,29.982,4.659,7.453,6.507
1235,1.378,35.042,18.471,32.537,29.982,4.66,7.534,6.67
1236,1.414,35.169,18.467,32.527,29.978,4.66,7.494,6.672
1237,1.424,35.199,18.541,32.518,29.982,4.741,7.494,6.753
1238,1.447,34.988,18.429,32.508,29.971,4.579,7.371,6.632
1239,1.47,35.12,18.479,32.517,29.982,4.618,7.452,6.794
1240,1.425,35.236,18.499,32.508,29.982,4.659,7.29,6.836
1241,1.424,35.42,18.561,32.546,29.989,4.7,7.329,6.877
1242,1.372,34.846,18.503,32.518,29.982,4.742,7.451,6.959
1243,1.359,34.975,18.46,32.527,29.982,4.661,7.29,6.878
1244,1.352,35.082,18.487,32.518,29.975,4.66,7.329,6.918
1245,1.297,34.987,18.464,32.518,29.971,4.538,7.207,6.959
1246,1.251,35.101,18.541,32.537,29.999,4.821,7.45,7.082
1247,1.198,35.198,18.511,32.508,29.986,4.743,7.33,7.002
1248,1.123,35.314,18.503,32.546,29.989,4.742,7.289,7.041
1249,0.992,34.769,18.499,32.499,29.978,4.742,7.207,7.082
1250,0.896,34.936,18.538,32.508,29.978,4.661,7.206,7.002
1251,0.788,35.052,18.468,32.537,29.992,4.822,7.328,7.326
1252,0.676,35.149,18.471,32.508,29.985,4.661,7.248,7.289
1253,0.548,34.891,18.479,32.527,29.989,4.741,7.247,7.329
1254,0.404,34.994,18.502,32.499,29.968,4.62,7.044,7.41
1255,0.279,35.13,18.518,32.498,29.982,4.659,7.082,7.533
1256,0.17,35.169,18.542,32.517,29.975,4.66,7.083,7.779
1257,0.046,34.892,18.523,32.518,29.982,4.66,7.083,8.025
1258,-0.079,35.042,18.483,32.518,29.985,4.66,7.083,8.312
1259,-0.181,35.159,18.557,32.489,29.975,4.538,6.92,8.396
1260,-0.283,35.208,18.437,32.527,29.982,4.74,6.959,8.885
1261,-0.336,34.863,18.475,32.499,29.978,4.661,6.96,9.256
1262,-0.356,35.061,18.495,32.537,29.982,4.7,7.041,9.544
1263,-0.389,35.13,18.561,32.508,29.985,4.66,7.042,9.831
1264,-0.376,35.16,18.558,32.527,29.982,4.66,7.001,10.038
1265,-0.353,34.844,18.542,32.499,29.978,4.66,6.96,10.365
1266,-0.337,34.956,18.363,32.527,29.978,4.579,6.96,10.531
1267,-0.311,35.101,18.493,32.566,29.992,4.862,7.082,10.817
1268,-0.278,34.862,18.538,32.508,29.979,4.662,7.002,10.901
1269,-0.222,34.86,18.46,32.527,29.985,4.741,7.001,11.024
1270,-0.147,34.965,18.471,32.499,29.982,4.661,6.96,11.066
1271,-0.042,35.062,18.51,32.498,29.975,4.66,6.919,11.066
1272,0.063,34.814,18.546,32.508,29.989,4.782,7.163,11.27
1273,0.168,34.946,18.476,32.517,29.978,4.702,7.084,11.15
1274,0.247,35.081,18.448,32.518,29.982,4.701,7.123,11.149
1275,0.326,35.159,18.444,32.498,29.965,4.579,7.043,11.189
1276,0.382,34.729,18.475,32.508,29.975,4.659,7.082,11.312
1277,0.435,34.849,18.534,32.498,29.975,4.66,7.123,11.435
1278,0.507,35.023,18.452,32.527,29.982,4.7,7.205,11.639
1279,0.517,35.072,18.494,32.527,29.985,4.66,7.287,11.804
1280,0.544,34.843,18.538,32.508,29.982,4.66,7.207,11.968
1281,0.576,34.975,18.546,32.508,29.985,4.66,7.206,12.092
1282,0.606,35.082,18.48,32.498,29.972,4.7,7.125,12.296
1283,0.652,35.179,18.502,32.556,29.992,4.823,7.408,12.624
1284,0.691,34.748,18.456,32.518,29.979,4.702,7.289,12.708
1285,0.705,34.926,18.459,32.518,29.989,4.66,7.369,12.872
1286,0.731,34.985,18.498,32.508,29.975,4.66,7.289,12.914
1287,0.754,35.024,18.499,32.517,29.982,4.619,7.207,12.915
1288,0.774,34.756,18.483,32.537,29.989,4.781,7.287,13.199
1289,0.79,34.926,18.534,32.518,29.975,4.661,7.329,13.08
1290,0.813,35.033,18.542,32.508,29.985,4.741,7.289,12.997
1291,0.816,35.14,18.429,32.498,29.972,4.579,7.207,12.834
1292,0.813,34.786,18.471,32.508,29.978,4.659,7.287,12.832
1293,0.81,34.907,18.498,32.508,29.971,4.7,7.247,12.792
1294,0.823,35.062,18.542,32.527,29.985,4.701,7.288,12.71
1295,0.81,34.718,18.566,32.527,29.982,4.701,7.329,12.628
1296,0.807,34.801,18.538,32.518,29.982,4.701,7.167,12.383
1297,0.787,34.917,18.507,32.518,29.982,4.66,7.165,12.299
1298,0.784,35.004,18.503,32.489,29.971,4.66,7.206,12.136
1299,0.797,34.957,18.557,32.546,29.989,4.741,7.328,12.053
1300,0.794,35.081,18.445,32.537,29.982,4.701,7.289,11.93
1301,0.777,35.198,18.471,32.527,29.982,4.742,7.288,11.807
1302,0.777,35.247,18.506,32.508,29.978,4.661,7.288,11.562
1303,0.79,34.624,18.538,32.508,29.975,4.66,7.166,11.397
1304,0.806,34.771,18.562,32.527,29.985,4.782,7.409,11.476
1305,0.81,34.878,18.527,32.499,29.985,4.742,7.289,11.192
1306,0.82,34.966,18.425,32.537,29.985,4.701,7.329,11.068
1307,0.83,34.583,18.455,32.489,29.972,4.579,7.207,10.904
1308,0.856,34.761,18.533,32.498,29.971,4.7,7.206,10.78
1309,0.853,34.878,18.433,32.498,29.978,4.701,7.328,10.738
1310,0.885,34.927,18.49,32.508,29.982,4.66,7.248,10.535
1311,0.892,34.64,18.495,32.498,29.989,4.7,7.328,10.451
1312,0.895,34.791,18.549,32.489,29.975,4.62,7.126,10.206
1313,0.892,34.898,18.527,32.508,29.982,4.659,7.205,10.245
1314,0.866,34.899,18.437,32.489,29.975,4.66,7.165,10.042
1315,0.882,34.716,18.502,32.604,29.989,4.741,7.287,10.04
1316,0.879,34.83,18.491,32.509,29.982,4.701,7.288,9.958
1317,0.866,34.927,18.565,32.517,29.989,4.701,7.288,9.876
1318,0.853,34.726,18.468,32.527,29.982,4.66,7.247,9.672
1319,0.859,34.705,18.491,32.508,29.978,4.66,7.328,9.589
1320,0.853,34.868,18.507,32.527,29.996,4.822,7.492,9.669
1321,0.846,34.946,18.546,32.518,29.979,4.661,7.371,9.467
1322,0.859,34.506,18.46,32.537,29.992,4.822,7.452,9.383
1323,0.849,34.569,18.413,32.499,29.968,4.58,7.371,9.261
1324,0.872,34.732,18.471,32.508,29.975,4.659,7.37,9.137
1325,0.866,34.811,18.487,32.498,29.978,4.7,7.452,9.095
1326,0.885,34.62,18.534,32.508,29.985,4.742,7.493,9.054
1327,0.879,34.771,18.55,32.527,29.982,4.742,7.494,9.013
1328,0.892,34.888,18.515,32.518,29.982,4.661,7.371,8.81
1329,0.902,34.975,18.476,32.518,29.978,4.7,7.492,8.848
1330,0.912,34.42,18.534,32.518,29.975,4.579,7.412,8.727
1331,0.931,34.616,18.472,32.556,29.989,4.781,7.493,8.726
1332,0.931,34.714,18.495,32.528,29.989,4.742,7.494,8.644
1333,0.925,34.772,18.471,32.518,29.985,4.742,7.453,8.603
1334,0.909,34.686,18.502,32.527,29.978,4.701,7.452,8.521
1335,0.908,34.829,18.546,32.508,29.975,4.62,7.33,8.358
1336,0.908,34.946,18.55,32.527,29.989,4.822,7.532,8.519
1337,0.899,34.985,18.511,32.527,29.982,4.783,7.372,8.317
1338,0.902,34.727,18.499,32.537,29.989,4.824,7.452,8.356
1339,0.892,34.811,18.522,32.479,29.972,4.661,7.33,8.193
1340,0.899,34.946,18.464,32.536,29.978,4.782,7.37,8.151
1341,0.889,34.899,18.483,32.508,29.975,4.702,7.33,8.15
1342,0.905,34.544,18.475,32.527,29.982,4.701,7.37,8.069
1343,0.912,34.646,18.526,32.537,29.985,4.742,7.37,8.028
1344,0.918,34.752,18.546,32.508,29.975,4.701,7.289,7.824
1345,0.918,34.533,18.573,32.498,29.982,4.701,7.329,7.903
1346,0.925,34.617,18.437,32.498,29.975,4.66,7.289,7.782
1347,0.961,34.79,18.498,32.556,29.996,4.822,7.451,7.862
1348,0.951,34.859,18.534,32.518,29.982,4.783,7.371,7.782
1349,0.964,34.467,18.476,32.537,29.978,4.783,7.37,7.822
1350,0.971,34.616,18.479,32.518,29.982,4.742,7.33,7.741
1351,0.987,34.723,18.506,32.508,29.975,4.661,7.289,7.577
1352,0.987,34.83,18.557,32.537,29.989,4.904,7.451,7.738
1353,0.987,34.466,18.523,32.508,29.982,4.744,7.371,7.577
1354,0.978,34.626,18.487,32.527,29.982,4.823,7.33,7.616
1355,0.974,34.723,18.401,32.499,29.975,4.702,7.248,7.495
1356,0.977,34.801,18.478,32.508,29.985,4.701,7.206,7.453
1357,0.964,34.543,18.491,32.498,29.982,4.742,7.206,7.493
1358,0.958,34.694,18.491,32.508,29.982,4.701,7.206,7.371
1359,0.961,34.829,18.467,32.508,29.985,4.742,7.247,7.452
1360,0.958,34.86,18.491,32.517,29.975,4.62,7.166,7.208
1361,0.951,34.409,18.542,32.508,29.982,4.741,7.165,7.287
1362,0.951,34.52,18.499,32.508,29.975,4.661,7.124,7.288
1363,0.964,34.684,18.448,32.527,29.985,4.7,7.205,7.41
1364,0.974,34.686,18.494,32.518,29.989,4.782,7.206,7.33
1365,0.981,34.522,18.471,32.508,29.975,4.702,7.084,7.126
1366,1.0,34.617,18.495,32.508,29.982,4.701,7.205,7.205
1367,1.0,34.714,18.526,32.489,29.978,4.66,7.125,7.206
1368,1.026,34.494,18.519,32.546,29.992,4.822,7.246,7.165
1369,1.02,34.434,18.491,32.508,29.985,4.702,7.206,7.165
1370,1.046,34.587,18.526,32.517,29.985,4.782,7.287,7.084
1371,1.037,34.646,18.491,32.508,29.985,4.702,7.166,7.042
1372,1.059,34.273,18.483,32.489,29.978,4.66,7.084,7.001
1373,1.056,34.422,18.475,32.527,29.985,4.863,7.367,7.123
1374,1.047,34.529,18.487,32.518,29.989,4.702,7.208,6.961
1375,1.043,34.636,18.542,32.518,29.992,4.782,7.247,7.041
1376,1.027,34.867,18.53,32.47,29.972,4.702,7.288,7.001
1377,1.03,35.042,18.417,32.508,29.978,4.701,7.207,6.838
1378,1.024,35.159,18.455,32.479,29.985,4.701,7.287,6.999
1379,1.04,35.246,18.553,32.488,29.982,4.701,7.369,6.879
1380,1.03,34.029,18.492,32.508,29.985,4.742,7.452,6.959
1381,1.037,34.171,18.487,32.489,29.972,4.62,7.33,6.838
1382,1.027,34.278,18.495,32.489,29.975,4.741,7.532,6.837
1383,1.027,34.327,18.522,32.479,29.975,4.579,7.453,6.796
1384,1.056,34.5,18.565,32.527,29.992,4.822,7.615,6.836
1385,1.056,34.607,18.55,32.489,29.985,4.743,7.657,6.796
1386,1.069,34.733,18.491,32.508,29.985,4.823,7.739,6.795
1387,1.073,34.734,18.475,32.498,29.982,4.661,7.74,6.795
1388,1.089,34.293,18.53,32.469,29.971,4.66,7.618,6.755
1389,1.096,34.451,18.491,32.517,29.992,4.863,7.861,6.917
1390,1.112,34.549,18.495,32.479,29.982,4.702,7.782,6.796
1391,1.122,34.521,18.499,32.498,29.982,4.742,7.862,6.755
1392,1.109,34.243,18.526,32.441,29.968,4.62,7.782,6.714
1393,1.122,34.393,18.55,32.488,29.975,4.659,7.822,6.713
1394,1.116,34.481,18.519,32.469,29.982,4.782,7.822,6.876
1395,1.112,34.156,18.468,32.479,29.982,4.742,7.863,6.877
1396,1.125,34.239,18.459,32.517,29.989,4.742,7.782,6.877
1397,1.106,34.374,18.502,32.47,29.968,4.579,7.7,6.755
1398,1.115,34.471,18.514,32.479,29.982,4.618,7.78,6.795
1399,1.109,34.185,18.507,32.469,29.978,4.659,7.822,6.795
1400,1.112,34.383,18.487,32.517,29.982,4.66,7.863,6.836
1401,1.099,34.481,18.542,32.498,29.982,4.66,7.863,6.877
1402,1.115,34.559,18.527,32.489,29.982,4.66,7.7,6.796
1403,1.125,34.214,18.487,32.489,29.982,4.66,7.74,6.877
1404,1.135,34.383,18.436,32.469,29.975,4.579,7.781,6.755
1405,1.161,34.519,18.494,32.517,29.996,4.822,7.862,6.957
1406,1.155,34.559,18.51,32.489,29.979,4.743,7.7,6.878
1407,1.174,34.099,18.557,32.489,29.989,4.701,7.78,6.837
1408,1.165,34.229,18.476,32.489,29.982,4.701,7.7,6.837
1409,1.187,34.384,18.463,32.479,29.978,4.66,7.74,6.755
1410,1.217,34.414,18.537,32.498,29.996,4.741,7.862,6.957
1411,1.224,34.184,18.519,32.479,29.979,4.701,7.782,6.797
1412,1.227,34.345,18.433,32.498,29.985,4.742,7.74,6.836
1413,1.23,34.433,18.44,32.46,29.968,4.579,7.699,6.755
1414,1.214,34.482,18.483,32.488,29.978,4.659,7.78,6.714
1415,1.217,34.204,18.495,32.479,29.978,4.7,7.862,6.794
1416,1.234,34.383,18.53,32.479,29.978,4.701,7.904,6.755
1417,1.221,34.472,18.534,32.498,29.989,4.701,7.985,6.795
1418,1.221,34.242,18.519,32.479,29.975,4.62,7.824,6.633
1419,1.214,34.23,18.507,32.479,29.982,4.7,7.985,6.631
1420,1.201,34.336,18.526,32.469,29.982,4.66,7.946,6.672
1421,1.217,34.481,18.48,32.517,29.982,4.7,8.067,6.753
1422,1.221,34.022,18.471,32.489,29.985,4.742,8.028,6.754
1423,1.23,34.142,18.475,32.498,29.985,4.742,8.027,6.632
1424,1.24,34.268,18.53,32.498,29.982,4.661,7.987,6.672
1425,1.244,34.346,18.55,32.479,29.971,4.579,7.986,6.631
1426,1.26,34.155,18.55,32.527,29.992,4.862,8.23,6.794
1427,1.28,34.306,18.523,32.508,29.979,4.784,8.151,6.714
1428,1.293,34.423,18.487,32.508,29.982,4.742,8.191,6.713
1429,1.286,34.472,18.522,32.489,29.989,4.742,8.11,6.551
1430,1.312,34.108,18.401,32.489,29.978,4.661,8.109,6.549
1431,1.319,34.239,18.478,32.498,29.985,4.822,8.394,6.752
1432,1.326,34.365,18.499,32.479,29.975,4.702,8.194,6.632
1433,1.326,34.433,18.534,32.498,29.989,4.742,8.273,6.712
1434,1.319,34.127,18.542,32.469,29.975,4.661,8.152,6.591
1435,1.326,34.277,18.511,32.488,29.982,4.7,8.191,6.549
1436,1.313,34.384,18.456,32.489,29.975,4.66,8.192,6.671
1437,1.319,34.433,18.479,32.508,29.982,4.66,8.192,6.591
1438,1.306,34.156,18.542,32.479,29.985,4.741,8.232,6.712
1439,1.313,34.268,18.448,32.488,29.982,4.661,8.111,6.51
1440,1.309,34.384,18.479,32.498,29.975,4.66,8.15,6.589
1441,1.3,34.337,18.479,32.489,29.975,4.579,8.11,6.59
1442,1.316,34.231,18.545,32.527,29.999,4.74,8.232,6.631
1443,1.313,34.336,18.511,32.518,29.979,4.701,8.192,6.672
1444,1.326,34.452,18.425,32.498,29.978,4.701,8.151,6.672
1445,1.319,34.137,18.338,32.527,29.978,4.701,8.11,6.631
1446,1.335,34.258,18.474,32.479,29.975,4.579,8.069,6.59
1447,1.345,34.374,18.522,32.508,29.992,4.862,8.312,6.875
1448,1.339,34.452,18.456,32.508,29.985,4.702,8.152,6.715
1449,1.358,34.156,18.483,32.517,29.989,4.742,8.191,6.713
1450,1.362,34.268,18.503,32.489,29.982,4.661,8.151,6.672
1451,1.372,34.413,18.514,32.508,29.975,4.66,8.028,6.672
1452,1.368,34.481,18.468,32.498,29.985,4.782,8.231,6.794
1453,1.372,34.281,18.502,32.489,29.985,4.742,8.151,6.633
1454,1.359,34.422,18.491,32.498,29.989,4.742,8.191,6.794
1455,1.352,34.51,18.499,32.46,29.978,4.579,7.988,6.633
1456,1.342,34.607,18.522,32.469,29.985,4.659,8.108,6.59
1457,1.329,34.129,18.542,32.469,29.978,4.7,8.109,6.712
1458,1.342,34.325,18.491,32.508,29.985,4.66,8.109,6.754
1459,1.329,34.433,18.503,32.508,29.985,4.7,8.109,6.632
1460,1.329,34.453,18.526,32.489,29.972,4.579,7.947,6.55
1461,1.309,34.424,18.476,32.508,29.978,4.659,7.986,6.63
1462,1.313,34.549,18.495,32.489,29.982,4.66,8.027,6.672
1463,1.322,34.703,18.491,32.508,29.982,4.7,7.987,6.631
1464,1.319,34.82,18.526,32.498,29.982,4.742,8.068,6.631
1465,1.319,34.629,18.538,32.498,29.982,4.661,7.987,6.55
1466,1.329,34.742,18.55,32.498,29.982,4.66,7.946,6.63
1467,1.319,34.839,18.499,32.508,29.978,4.66,7.905,6.509
1468,1.339,34.735,18.491,32.537,29.992,4.822,8.026,6.589
1469,1.329,34.743,18.526,32.489,29.979,4.743,8.027,6.549
1470,1.332,34.878,18.487,32.498,29.985,4.701,7.987,6.549
1471,1.336,34.985,18.483,32.489,29.978,4.701,7.946,6.508
1472,1.332,34.842,18.483,32.469,29.971,4.579,7.864,6.427
1473,1.329,35.003,18.522,32.498,29.989,4.822,8.026,6.629
1474,1.319,35.111,18.554,32.508,29.978,4.743,7.946,6.55
1475,1.306,35.208,18.558,32.498,29.989,4.701,8.026,6.63
1476,1.286,35.141,18.456,32.469,29.972,4.579,7.905,6.468
1477,1.273,35.304,18.487,32.488,29.975,4.659,7.823,6.467
1478,1.257,35.42,18.491,32.479,29.982,4.7,7.903,6.589
1479,1.257,35.498,18.518,32.479,29.985,4.66,7.945,6.468
1480,1.237,35.336,18.472,32.498,29.989,4.741,7.945,6.507
1481,1.211,35.469,18.471,32.469,29.972,4.62,7.783,6.386
1482,1.224,35.566,18.53,32.479,29.982,4.659,7.862,6.466
1483,1.198,35.596,18.554,32.469,29.975,4.66,7.863,6.467
1484,1.224,35.788,18.531,32.498,29.989,4.741,7.822,6.548
1485,1.211,35.895,18.468,32.489,29.989,4.783,7.944,6.549
1486,1.207,36.011,18.475,32.489,29.985,4.661,7.823,6.346
1487,1.201,36.003,18.491,32.479,29.982,4.741,7.781,6.506
1488,1.204,36.032,18.507,32.469,29.982,4.62,7.74,6.386
1489,1.211,36.195,18.507,32.536,29.996,4.903,7.862,6.466
1490,1.191,36.273,18.487,32.479,29.979,4.703,7.782,6.507
1491,1.207,36.379,18.549,32.488,29.982,4.823,7.781,6.467
1492,1.181,36.381,18.511,32.489,29.982,4.702,7.781,6.426
1493,1.178,36.544,18.421,32.479,29.975,4.66,7.659,6.304
1494,1.152,36.641,18.494,32.517,29.996,4.782,7.902,6.547
1495,1.142,36.613,18.475,32.479,29.985,4.742,7.823,6.427
1496,1.132,36.709,18.502,32.508,29.985,4.783,7.781,6.548
1497,1.099,36.825,18.542,32.441,29.978,4.702,7.7,6.386
1498,1.086,36.922,18.519,32.478,29.982,4.701,7.699,6.303
1499,1.066,36.952,18.472,32.479,29.975,4.742,7.821,6.506
1500,1.053,37.096,18.534,32.479,29.982,4.783,7.781,6.427
1501,1.037,37.212,18.503,32.508,29.985,4.824,7.781,6.466
1502,1.03,37.29,18.487,32.508,29.975,4.621,7.537,6.264
1503,1.024,37.224,18.464,32.489,29.978,4.741,7.697,6.384
1504,1.02,37.338,18.459,32.46,29.975,4.661,7.618,6.303
1505,1.03,37.512,18.557,32.507,29.989,4.782,7.657,6.384
1506,1.011,37.533,18.566,32.498,29.989,4.742,7.698,6.344
1507,1.01,37.639,18.519,32.489,29.989,4.742,7.658,6.303
1508,1.004,37.764,18.491,32.479,29.982,4.783,7.658,6.384
1509,1.0,37.852,18.522,32.479,29.982,4.661,7.617,6.303
1510,1.01,37.91,18.511,32.527,29.996,4.944,7.82,6.465
1511,1.01,37.767,18.491,32.479,29.982,4.703,7.7,6.304
1512,1.004,37.89,18.487,32.488,29.985,4.782,7.699,6.384
1513,0.978,37.949,18.495,32.469,29.978,4.702,7.618,6.385
1514,0.964,38.362,18.534,32.469,29.975,4.66,7.657,6.303
1515,0.948,38.117,18.534,32.488,29.982,4.782,7.78,6.384
1516,0.945,38.22,18.472,32.479,29.989,4.742,7.618,6.303
1517,0.922,38.326,18.502,32.498,29.989,4.742,7.698,6.425
1518,0.896,38.279,18.507,32.45,29.972,4.579,7.618,6.222
1519,0.892,38.394,18.514,32.469,29.982,4.7,7.657,6.22
1520,0.873,38.51,18.503,32.527,29.971,4.701,7.658,6.342
1521,0.879,38.607,18.464,32.489,29.978,4.701,7.698,6.343
1522,0.866,38.704,18.53,32.498,29.985,4.742,7.699,6.343
1523,0.859,38.83,18.534,32.489,29.975,4.701,7.577,6.14
1524,0.859,38.937,18.523,32.469,29.982,4.701,7.657,6.219
1525,0.853,38.995,18.456,32.488,29.968,4.66,7.536,6.18
1526,0.862,38.852,18.491,32.517,29.999,4.822,7.738,6.301
1527,0.856,38.946,18.464,32.489,29.986,4.661,7.659,6.262
1528,0.862,39.053,18.53,32.508,29.982,4.782,7.617,6.302
1529,0.849,39.092,18.398,32.498,29.975,4.742,7.617,6.262
1530,0.866,39.064,18.455,32.469,29.982,4.661,7.535,6.221
1531,0.862,39.188,18.506,32.488,29.989,4.822,7.738,6.383
1532,0.869,39.285,18.546,32.479,29.982,4.743,7.537,6.222
1533,0.863,39.344,18.511,32.508,29.992,4.742,7.616,6.302
1534,0.83,39.287,18.39,32.47,29.965,4.579,7.495,6.221
1535,0.836,39.411,18.455,32.498,29.975,4.659,7.534,6.22
1536,0.826,39.498,18.444,32.479,29.982,4.66,7.616,6.302
1537,0.813,39.519,18.506,32.488,29.985,4.7,7.576,6.221
1538,0.807,39.365,18.44,32.489,29.985,4.701,7.575,6.22
1539,0.794,39.488,18.483,32.479,29.975,4.66,7.454,6.098
1540,0.787,39.576,18.51,32.488,29.985,4.7,7.534,6.178
1541,0.774,39.596,18.534,32.479,29.975,4.66,7.453,6.179
1542,0.777,39.692,18.484,32.527,29.992,4.782,7.615,6.301
1543,0.767,39.76,18.475,32.508,29.982,4.702,7.617,6.221
1544,0.78,39.857,18.459,32.508,29.978,4.701,7.495,6.261
1545,0.771,39.522,18.471,32.479,29.982,4.66,7.453,6.18
1546,0.777,39.615,18.506,32.479,29.975,4.619,7.452,6.139
1547,0.787,39.75,18.491,32.508,29.992,4.863,7.615,6.341
1548,0.784,39.818,18.495,32.498,29.982,4.702,7.535,6.262
1549,0.793,39.589,18.495,32.498,29.992,4.782,7.575,6.221
1550,0.79,39.663,18.518,32.46,29.975,4.62,7.494,6.22
1551,0.8,39.808,18.437,32.479,29.985,4.7,7.494,6.139
1552,0.794,39.867,18.471,32.479,29.989,4.782,7.656,6.219
1553,0.793,39.8,18.483,32.479,29.985,4.702,7.495,6.18
1554,0.79,39.943,18.53,32.498,29.989,4.701,7.575,6.261
1555,0.774,40.022,18.569,32.46,29.972,4.62,7.372,5.977
1556,0.764,40.061,18.554,32.479,29.985,4.741,7.452,6.137
1557,0.751,39.706,18.488,32.508,29.975,4.62,7.452,6.098
1558,0.761,39.875,18.471,32.517,29.982,4.781,7.534,6.138
1559,0.744,39.944,18.518,32.489,29.989,4.742,7.575,6.219
1560,0.741,39.964,18.483,32.479,29.978,4.661,7.332,6.098
1561,0.721,39.792,18.503,32.498,29.982,4.7,7.37,6.097
1562,0.734,39.895,18.483,32.469,29.975,4.66,7.452,6.097
1563,0.734,40.05,18.542,32.527,29.999,4.822,7.452,6.178
1564,0.741,40.234,18.554,32.489,29.982,4.743,7.412,6.139
1565,0.751,39.852,18.546,32.498,29.982,4.742,7.493,6.138
1566,0.754,39.925,18.456,32.498,29.985,4.701,7.371,6.057
1567,0.754,40.041,18.479,32.469,29.982,4.701,7.37,6.056
1568,0.761,39.783,18.499,32.508,29.992,4.863,7.573,6.3
1569,0.761,39.828,18.503,32.498,29.989,4.702,7.494,6.14
1570,0.757,39.963,18.495,32.508,29.989,4.782,7.412,6.179
1571,0.754,40.012,18.479,32.441,29.975,4.702,7.33,6.057
1572,0.748,39.725,18.553,32.478,29.982,4.66,7.37,6.056
1573,0.754,39.808,18.519,32.469,29.978,4.741,7.411,6.178
1574,0.761,39.963,18.483,32.488,29.989,4.701,7.411,6.139
1575,0.744,40.031,18.424,32.508,29.992,4.823,7.493,6.098
1576,0.734,39.629,18.463,32.479,29.979,4.621,7.249,6.016
1577,0.725,39.74,18.487,32.488,29.985,4.7,7.328,6.096
1578,0.728,39.809,18.542,32.46,29.975,4.66,7.329,6.016
1579,0.738,39.953,18.487,32.527,29.996,4.741,7.41,6.137
1580,0.725,39.667,18.475,32.489,29.979,4.701,7.452,6.138
1581,0.708,39.817,18.545,32.498,29.985,4.742,7.412,6.138
1582,0.698,39.886,18.527,32.498,29.982,4.701,7.411,6.179
1583,0.692,39.906,18.448,32.479,29.975,4.66,7.371,6.139
1584,0.711,39.638,18.463,32.527,29.992,4.863,7.533,6.301
1585,0.718,39.74,18.471,32.489,29.979,4.743,7.412,6.221
1586,0.728,39.857,18.498,32.498,29.989,4.823,7.533,6.22
1587,0.721,39.81,18.55,32.469,29.978,4.661,7.494,6.18
1588,0.734,39.445,18.527,32.488,29.982,4.7,7.494,6.179
1589,0.741,39.576,18.487,32.489,29.989,4.742,7.616,6.301
1590,0.754,39.654,18.534,32.489,29.985,4.783,7.698,6.221
1591,0.767,39.491,18.519,32.489,29.982,4.742,7.699,6.22
1592,0.757,39.432,18.448,32.46,29.975,4.661,7.577,6.098
1593,0.767,39.547,18.471,32.479,29.975,4.741,7.779,6.138
1594,0.754,39.625,18.463,32.469,29.975,4.661,7.74,6.138
1595,0.764,39.299,18.502,32.498,29.989,4.782,7.821,6.219
1596,0.744,39.382,18.534,32.489,29.989,4.742,7.863,6.22
1597,0.734,39.498,18.519,32.489,29.978,4.742,7.863,6.18
1598,0.715,39.576,18.483,32.469,29.982,4.742,7.904,6.179
1599,0.715,39.136,18.503,32.45,29.975,4.742,7.823,6.139
1600,0.728,39.313,18.534,32.507,29.996,4.905,8.066,6.26
1601,0.708,39.392,18.433,32.489,29.982,4.784,7.987,6.221
1602,0.711,39.46,18.471,32.508,29.989,4.783,7.946,6.261
1603,0.705,39.077,18.487,32.479,29.982,4.702,7.945,6.18
1604,0.718,39.217,18.545,32.479,29.975,4.701,7.945,6.22
1605,0.728,39.314,18.55,32.479,29.985,4.782,7.986,6.302
1606,0.734,39.373,18.55,32.488,29.985,4.783,7.946,6.18
1607,0.744,38.904,18.48,32.508,29.989,4.783,7.986,6.261
1608,0.751,39.014,18.456,32.45,29.975,4.62,7.864,6.058
1609,0.764,39.14,18.514,32.469,29.982,4.7,7.863,6.097
1610,0.774,39.131,18.444,32.469,29.982,4.701,7.904,6.097
1611,0.793,39.026,18.467,32.488,29.985,4.701,7.945,6.178
1612,0.787,39.111,18.498,32.517,29.975,4.782,8.026,6.139
1613,0.8,39.208,18.55,32.489,29.985,4.742,7.946,6.138
1614,0.781,39.19,18.538,32.489,29.978,4.701,8.026,6.098
1615,0.774,38.796,18.519,32.469,29.975,4.66,7.946,6.097
1616,0.78,38.946,18.425,32.527,29.999,4.904,8.23,6.219
1617,0.745,39.005,18.482,32.489,29.982,4.744,8.111,6.139
1618,0.741,38.727,18.499,32.489,29.978,4.742,8.109,6.179
1619,0.725,38.734,18.468,32.46,29.982,4.701,8.109,6.139
1620,0.734,38.878,18.475,32.469,29.982,4.742,8.069,6.138
1621,0.728,38.975,18.502,32.508,29.989,4.823,8.191,6.26
1622,0.728,38.679,18.557,32.479,29.985,4.743,8.151,6.262
1623,0.728,38.801,18.57,32.488,29.982,4.823,8.11,6.302
1624,0.734,38.888,18.499,32.46,29.968,4.621,7.987,6.14
1625,0.751,38.966,18.432,32.479,29.982,4.659,8.108,6.179
1626,0.741,38.439,18.459,32.46,29.978,4.7,8.028,6.179
1627,0.773,38.626,18.459,32.479,29.985,4.782,8.068,6.179
1628,0.764,38.685,18.514,32.479,29.985,4.783,8.231,6.22
1629,0.777,38.762,18.487,32.556,29.989,4.742,8.111,6.22
1630,0.774,38.428,18.475,32.47,29.989,4.742,8.109,6.22
1631,0.78,38.549,18.506,32.45,29.982,4.661,8.109,6.017
1632,0.79,38.665,18.55,32.507,29.996,4.822,8.313,6.3
1633,0.79,38.705,18.488,32.479,29.992,4.743,8.274,6.18
1634,0.764,38.341,18.503,32.488,29.985,4.823,8.233,6.22
1635,0.761,38.433,18.479,32.46,29.982,4.783,8.233,6.22
1636,0.774,38.559,18.483,32.479,29.982,4.702,8.273,6.139
1637,0.767,38.56,18.506,32.479,29.982,4.863,8.355,6.26
1638,0.764,38.282,18.46,32.479,29.978,4.743,8.275,6.262
1639,0.757,38.423,18.463,32.469,29.985,4.742,8.355,6.18
1640,0.761,38.491,18.495,32.44,29.975,4.62,8.193,6.139
1641,0.738,38.319,18.538,32.469,29.982,4.741,8.273,6.219
1642,0.734,38.299,18.441,32.46,29.975,4.742,8.274,6.22
1643,0.747,38.461,18.49,32.479,29.985,4.742,8.355,6.18
1644,0.757,38.559,18.46,32.469,29.985,4.783,8.315,6.179
1645,0.767,37.965,18.491,32.469,29.978,4.702,8.193,6.098
1646,0.754,38.074,18.526,32.46,29.982,4.701,8.273,6.178
1647,0.764,38.143,18.562,32.44,29.975,4.62,8.193,6.098
1648,0.774,38.258,18.527,32.507,29.996,4.903,8.314,6.26
1649,0.774,38.039,18.511,32.47,29.982,4.703,8.193,6.221
1650,0.78,38.161,18.55,32.469,29.985,4.742,8.273,6.22
1651,0.78,38.278,18.464,32.469,29.985,4.742,8.233,6.22
1652,0.787,38.346,18.463,32.469,29.975,4.661,8.111,6.139
1653,0.8,37.867,18.483,32.479,29.996,4.863,8.272,6.341
1654,0.781,37.997,18.518,32.46,29.975,4.743,8.111,6.221
1655,0.774,38.104,18.542,32.469,29.989,4.742,8.15,6.261
1656,0.764,38.105,18.55,32.44,29.975,4.579,7.988,6.221
1657,0.761,37.999,18.441,32.469,29.971,4.74,8.027,6.22
1658,0.748,38.104,18.475,32.469,29.982,4.742,8.109,6.261
1659,0.751,38.22,18.518,32.46,29.985,4.783,8.109,6.262
1660,0.744,38.24,18.479,32.469,29.985,4.783,8.069,6.302
1661,0.734,37.953,18.463,32.45,29.972,4.661,7.946,6.18
1662,0.734,38.084,18.495,32.459,29.982,4.7,7.986,6.261
1663,0.734,38.143,18.534,32.45,29.971,4.701,7.946,6.221
1664,0.76,38.095,18.565,32.488,29.985,4.782,7.945,6.302
1665,0.77,37.798,18.535,32.45,29.985,4.702,7.945,6.343
1666,0.774,37.929,18.452,32.469,29.982,4.742,7.864,6.14
1667,0.777,38.007,18.463,32.479,29.985,4.783,7.944,6.26
1668,0.774,37.72,18.514,32.46,29.972,4.661,7.823,6.221
1669,0.797,37.871,18.511,32.498,29.999,4.822,7.944,6.302
1670,0.797,37.958,18.487,32.469,29.982,4.783,7.945,6.302
1671,0.807,38.046,18.503,32.469,29.985,4.864,7.864,6.221
1672,0.787,37.586,18.526,32.46,29.985,4.743,7.863,6.22
1673,0.787,37.716,18.53,32.431,29.982,4.701,7.7,6.18
1674,0.774,37.851,18.472,32.488,29.996,4.823,7.943,6.383
1675,0.774,37.92,18.44,32.469,29.985,4.743,7.783,6.263
1676,0.777,37.527,18.471,32.469,29.989,4.783,7.822,6.302
1677,0.761,37.639,18.471,32.431,29.972,4.661,7.659,6.221
1678,0.767,37.774,18.518,32.459,29.975,4.66,7.658,6.18
1679,0.761,37.823,18.507,32.45,29.982,4.66,7.698,6.261
1680,0.774,37.517,18.475,32.469,29.985,4.741,7.618,6.302
1681,0.754,37.648,18.526,32.479,29.989,4.783,7.698,6.302
1682,0.748,37.764,18.515,32.45,29.978,4.702,7.618,6.14
1683,0.741,37.804,18.429,32.469,29.978,4.701,7.657,6.219
1684,0.744,37.478,18.459,32.431,29.975,4.66,7.617,6.139
1685,0.773,37.667,18.471,32.488,29.996,4.822,7.657,6.219
1686,0.764,37.736,18.487,32.479,29.989,4.702,7.617,6.261
1687,0.774,37.88,18.534,32.469,29.982,4.701,7.657,6.221
1688,0.758,37.402,18.425,32.469,29.989,4.701,7.576,6.261
1689,0.777,37.522,18.459,32.46,29.978,4.66,7.575,6.18
1690,0.777,37.648,18.522,32.488,29.989,4.782,7.657,6.383
1691,0.793,37.496,18.507,32.45,29.982,4.661,7.617,6.222
1692,0.803,37.562,18.499,32.536,29.989,4.782,7.657,6.342
1693,0.79,37.639,18.468,32.422,29.968,4.58,7.495,6.221
1694,0.787,37.736,18.487,32.469,29.975,4.74,7.453,6.261
1695,0.774,37.228,18.522,32.46,29.975,4.701,7.534,6.302
1696,0.79,37.357,18.546,32.469,29.975,4.742,7.494,6.262
1697,0.764,37.455,18.499,32.46,29.985,4.823,7.534,6.384
1698,0.77,37.561,18.475,32.45,29.975,4.661,7.453,6.263
1699,0.754,37.179,18.522,32.459,29.978,4.7,7.452,6.262
1700,0.754,37.328,18.491,32.44,29.975,4.66,7.452,6.262
1701,0.751,37.483,18.518,32.565,29.999,4.863,7.534,6.424
1702,0.748,37.542,18.472,32.461,29.986,4.743,7.453,6.426
1703,0.738,37.188,18.522,32.469,29.989,4.783,7.412,6.385
1704,0.738,37.299,18.538,32.469,29.985,4.742,7.371,6.303
1705,0.757,37.425,18.569,32.45,29.978,4.701,7.452,6.302
1706,0.761,37.484,18.503,32.479,29.996,4.823,7.574,6.465
1707,0.774,37.149,18.471,32.45,29.989,4.702,7.454,6.386
1708,0.777,37.299,18.463,32.488,29.989,4.742,7.493,6.344
1709,0.767,37.358,18.498,32.441,29.975,4.661,7.453,6.343
1710,0.78,37.416,18.366,32.469,29.978,4.7,7.371,6.303
1711,0.787,37.244,18.462,32.44,29.982,4.782,7.411,6.425
1712,0.8,37.367,18.506,32.459,29.982,4.783,7.452,6.385
1713,0.797,37.484,18.53,32.469,29.982,4.742,7.452,6.385
1714,0.777,37.293,18.515,32.46,29.975,4.661,7.33,6.263
1715,0.774,37.138,18.464,32.44,29.982,4.782,7.41,6.302
1716,0.754,37.242,18.495,32.469,29.975,4.702,7.371,6.262
1717,0.774,37.386,18.44,32.488,29.989,4.742,7.452,6.343
1718,0.758,36.985,18.526,32.469,29.978,4.742,7.412,6.425
1719,0.754,37.077,18.444,32.469,29.989,4.701,7.411,6.304
1720,0.744,37.203,18.487,32.45,29.982,4.66,7.33,6.262
1721,0.731,37.271,18.506,32.459,29.978,4.66,7.329,6.262
1722,0.744,37.157,18.557,32.498,29.996,4.863,7.532,6.505
1723,0.725,37.27,18.519,32.479,29.985,4.702,7.331,6.345
1724,0.744,37.396,18.44,32.469,29.985,4.823,7.37,6.384
1725,0.738,37.446,18.479,32.469,29.985,4.661,7.289,6.303
1726,0.747,36.986,18.456,32.46,29.978,4.7,7.288,6.343
1727,0.754,37.125,18.494,32.488,29.985,4.782,7.41,6.466
1728,0.757,37.251,18.491,32.46,29.985,4.783,7.289,6.345
1729,0.774,37.329,18.495,32.469,29.985,4.783,7.329,6.425
1730,0.774,37.061,18.456,32.46,29.975,4.58,7.248,6.263
1731,0.787,37.202,18.526,32.46,29.982,4.74,7.288,6.384
1732,0.774,37.29,18.452,32.45,29.978,4.701,7.207,6.385
1733,0.8,37.377,18.51,32.517,29.982,4.701,7.287,6.425
1734,0.777,36.995,18.479,32.47,29.985,4.782,7.369,6.507
1735,0.777,37.115,18.491,32.469,29.982,4.702,7.248,6.345
1736,0.761,37.232,18.507,32.469,29.985,4.66,7.328,6.384
1737,0.744,37.568,18.534,32.45,29.982,4.66,7.289,6.385
1738,0.76,37.131,18.511,32.526,29.999,4.822,7.41,6.466
1739,0.744,37.213,18.487,32.47,29.986,4.743,7.33,6.426
1740,0.738,37.319,18.545,32.479,29.985,4.742,7.41,6.466
1741,0.718,37.291,18.48,32.45,29.985,4.742,7.452,6.467
1742,0.711,37.387,18.471,32.45,29.975,4.661,7.33,6.507
1743,0.721,37.532,18.459,32.488,29.992,4.822,7.573,6.67
1744,0.721,37.591,18.506,32.46,29.989,4.783,7.454,6.55
1745,0.747,36.853,18.511,32.479,29.992,4.742,7.493,6.59
1746,0.738,36.961,18.554,32.431,29.975,4.742,7.371,6.509
1747,0.754,37.067,18.406,32.459,29.982,4.701,7.492,6.508
1748,0.761,37.154,18.451,32.45,29.982,4.66,7.453,6.549
1749,0.774,37.06,18.526,32.469,29.982,4.66,7.493,6.549
1750,0.771,37.193,18.491,32.479,29.989,4.782,7.575,6.549
1751,0.774,37.319,18.483,32.441,29.975,4.62,7.454,6.427
1752,0.78,37.378,18.46,32.459,29.982,4.7,7.493,6.548
1753,0.774,37.129,18.498,32.45,29.978,4.701,7.494,6.508
1754,0.774,37.289,18.522,32.459,29.985,4.782,7.534,6.508
1755,0.754,37.377,18.538,32.469,29.989,4.742,7.534,6.589
1756,0.761,37.417,18.441,32.469,29.985,4.701,7.494,6.427
1757,0.748,37.129,18.475,32.46,29.982,4.742,7.494,6.466
1758,0.738,37.251,18.475,32.45,29.971,4.661,7.494,6.467
1759,0.747,37.386,18.534,32.507,29.996,4.863,7.616,6.629
1760,0.738,37.407,18.487,32.47,29.979,4.702,7.535,6.55
1761,0.738,37.215,18.491,32.488,29.989,4.701,7.575,6.59
1762,0.718,37.29,18.526,32.469,29.982,4.66,7.535,6.549
1763,0.724,37.416,18.511,32.45,29.978,4.7,7.412,6.549
1764,0.731,37.359,18.472,32.479,29.989,4.742,7.615,6.712
1765,0.744,37.311,18.397,32.479,29.985,4.742,7.454,6.632
1766,0.734,37.435,18.463,32.488,29.985,4.742,7.452,6.631
1767,0.734,37.503,18.424,32.45,29.972,4.701,7.29,6.428
1768,0.741,37.13,18.537,32.45,29.982,4.701,7.369,6.507
1769,0.747,37.222,18.491,32.459,29.978,4.701,7.37,6.63
1770,0.764,37.377,18.475,32.488,29.982,4.782,7.411,6.55
1771,0.761,37.426,18.526,32.469,29.985,4.742,7.411,6.63
1772,0.774,37.196,18.522,32.45,29.972,4.579,7.289,6.468
1773,0.774,37.348,18.452,32.459,29.982,4.7,7.288,6.507
1774,0.758,37.455,18.467,32.46,29.982,4.66,7.247,6.467
1775,0.751,37.571,18.483,32.488,29.992,4.741,7.247,6.507
1776,0.748,37.198,18.475,32.469,29.989,4.783,7.288,6.549
1777,0.747,37.328,18.522,32.469,29.985,4.742,7.288,6.508
1778,0.731,37.416,18.444,32.469,29.978,4.701,7.247,6.467
1779,0.721,37.484,18.459,32.46,29.971,4.62,7.125,6.426
1780,0.734,37.37,18.53,32.517,30.003,4.822,7.327,6.67
1781,0.715,37.474,18.554,32.479,29.982,4.743,7.248,6.509
1782,0.705,37.6,18.449,32.508,29.989,4.783,7.247,6.589
1783,0.695,37.611,18.463,32.47,29.982,4.702,7.206,6.509
1784,0.708,37.342,18.467,32.498,29.975,4.742,7.125,6.467
1785,0.721,37.454,18.518,32.479,29.985,4.783,7.165,6.589
1786,0.721,37.571,18.546,32.488,29.989,4.742,7.124,6.468
1787,0.731,37.86,18.519,32.479,29.982,4.742,7.205,6.548
1788,0.721,37.45,18.468,32.45,29.971,4.579,7.003,6.346
1789,0.741,37.571,18.495,32.479,29.982,4.659,7.041,6.506
1790,0.734,37.629,18.518,32.469,29.971,4.66,7.042,6.467
1791,0.76,37.467,18.487,32.508,29.985,4.741,7.123,6.507
1792,0.754,37.504,18.448,32.479,29.985,4.783,7.083,6.467
1793,0.767,37.638,18.479,32.498,29.985,4.783,7.002,6.426
1794,0.748,37.716,18.538,32.479,29.985,4.742,7.001,6.466
1795,0.747,37.382,18.526,32.479,29.982,4.62,6.96,6.345
1796,0.754,37.541,18.546,32.517,29.996,4.863,7.122,6.588
1797,0.728,37.658,18.511,32.498,29.985,4.743,7.043,6.468
1798,0.734,37.745,18.487,32.508,29.989,4.701,7.123,6.467
1799,0.708,37.324,18.518,32.47,29.985,4.66,7.002,6.467
1800,0.711,37.493,18.468,32.479,29.989,4.66,6.919,6.345
1801,0.695,37.6,18.471,32.498,29.989,4.782,7.081,6.547
1802,0.701,37.668,18.518,32.489,29.982,4.702,7.042,6.386
1803,0.701,37.477,18.546,32.498,29.982,4.782,7.042,6.466
1804,0.711,37.6,18.527,32.479,29.975,4.62,6.92,6.345
1805,0.718,37.716,18.472,32.508,29.982,4.7,7.041,6.343
1806,0.711,37.736,18.385,32.498,29.978,4.66,6.96,6.343
1807,0.737,37.343,18.439,32.517,29.982,4.741,7.082,6.384
1808,0.731,37.435,18.526,32.498,29.982,4.742,7.205,6.425
1809,0.741,37.551,18.48,32.508,29.985,4.742,7.206,6.385
1810,0.731,37.543,18.456,32.508,29.985,4.742,7.165,6.385
1811,0.744,37.524,18.487,32.489,29.978,4.661,7.084,6.344
1812,0.754,37.677,18.534,32.517,30.003,4.863,7.327,6.506
1813,0.751,37.746,18.503,32.508,29.979,4.743,7.207,6.386
1814,0.748,37.545,18.464,32.508,29.989,4.783,7.287,6.507
1815,0.738,37.428,18.463,32.47,29.978,4.661,7.247,6.508
1816,0.738,37.58,18.495,32.508,29.978,4.7,7.206,6.386
1817,0.725,37.649,18.491,32.489,29.989,4.782,7.247,6.466
1818,0.734,37.841,18.51,32.498,29.982,4.661,7.328,6.386
1819,0.725,38.016,18.483,32.527,29.989,4.741,7.289,6.466
1820,0.724,38.113,18.487,32.508,29.975,4.661,7.125,6.345
1821,0.715,38.172,18.542,32.498,29.985,4.66,7.165,6.384
1822,0.695,37.031,18.472,32.508,29.978,4.66,7.206,6.385
1823,0.711,37.202,18.44,32.565,29.982,4.741,7.206,6.466
1824,0.705,37.309,18.463,32.528,29.985,4.701,7.287,6.426
1825,0.721,37.378,18.459,32.527,29.989,4.701,7.166,6.466
1826,0.731,37.56,18.522,32.508,29.985,4.66,7.246,6.386
1827,0.747,37.706,18.546,32.508,29.975,4.66,7.206,6.344
1828,0.751,37.832,18.519,32.594,29.996,4.822,7.369,6.547
1829,0.754,37.881,18.495,32.528,29.985,4.702,7.208,6.427
1830,0.751,37.22,18.534,32.518,29.985,4.742,7.206,6.466
1831,0.751,37.329,18.452,32.498,29.982,4.701,7.206,6.386
1832,0.764,37.464,18.459,32.498,29.978,4.701,7.084,6.303
1833,0.761,37.494,18.455,32.517,29.989,4.742,7.286,6.506
1834,0.754,37.312,18.491,32.518,29.982,4.742,7.166,6.386
1835,0.748,37.435,18.53,32.527,29.985,4.742,7.165,6.547
1836,0.734,37.523,18.523,32.508,29.975,4.62,7.002,6.346
1837,0.725,37.658,18.464,32.517,29.975,4.659,7.163,6.425
1838,0.715,37.333,18.459,32.498,29.975,4.66,7.165,6.426
1839,0.728,37.512,18.553,32.537,29.989,4.741,7.165,6.466
1840,0.715,37.571,18.464,32.537,29.985,4.783,7.165,6.548
1841,0.705,37.303,18.506,32.527,29.982,4.783,7.084,6.549
1842,0.698,37.349,18.472,32.537,29.985,4.702,7.083,6.63
1843,0.688,37.445,18.518,32.518,29.978,4.66,6.961,6.631
1844,0.708,37.571,18.526,32.566,29.996,4.863,7.163,6.672
1845,0.724,37.064,18.499,32.528,29.979,4.743,7.043,6.631
1846,0.715,37.202,18.452,32.546,29.982,4.742,7.123,6.712
1847,0.724,37.29,18.455,32.527,29.989,4.742,7.002,6.632
1848,0.741,37.387,18.487,32.518,29.975,4.701,6.879,6.59
1849,0.734,37.244,18.499,32.546,29.989,4.863,7.121,6.753
1850,0.738,37.358,18.491,32.537,29.985,4.702,7.002,6.673
1851,0.754,37.503,18.479,32.537,29.989,4.742,7.041,6.631
1852,0.754,37.504,18.526,32.499,29.978,4.661,6.96,6.59
1853,0.761,37.015,18.491,32.527,29.982,4.66,6.96,6.549
1854,0.741,37.154,18.46,32.537,29.985,4.741,7.041,6.671
1855,0.725,37.299,18.37,32.547,29.982,4.742,6.96,6.631
1856,0.737,37.339,18.455,32.566,29.985,4.783,7.0,6.631
1857,0.725,37.186,18.463,32.528,29.968,4.539,6.838,6.509
1858,0.715,37.309,18.522,32.537,29.978,4.699,6.958,6.589
1859,0.708,37.406,18.495,32.518,29.978,4.66,6.878,6.549
1860,0.724,37.474,18.475,32.566,29.982,4.7,7.0,6.59
1861,0.708,36.957,18.549,32.528,29.985,4.742,6.96,6.59
1862,0.705,37.115,18.515,32.556,29.982,4.701,7.0,6.549
1863,0.685,37.174,18.429,32.566,29.985,4.66,6.96,6.549
1864,0.692,37.05,18.471,32.547,29.975,4.66,6.878,6.427
1865,0.718,37.068,18.479,32.585,29.999,4.822,7.081,6.67
1866,0.715,37.193,18.487,32.557,29.989,4.743,6.92,6.469
1867,0.731,37.271,18.557,32.556,29.982,4.864,6.959,6.507
1868,0.725,36.898,18.445,32.518,29.971,4.662,6.838,6.467
1869,0.728,37.038,18.498,32.556,29.975,4.66,6.796,6.426
1870,0.734,37.145,18.503,32.528,29.982,4.7,6.877,6.466
1871,0.754,37.261,18.491,32.546,29.985,4.742,6.959,6.467
1872,0.764,36.754,18.487,32.547,29.982,4.701,6.919,6.467
1873,0.774,36.883,18.467,32.527,29.978,4.579,6.715,6.304
1874,0.754,36.98,18.526,32.556,29.982,4.7,6.794,6.506
1875,0.744,37.058,18.526,32.547,29.978,4.579,6.795,6.467
1876,0.754,36.867,18.569,32.585,29.985,4.74,6.795,6.426
1877,0.725,36.961,18.492,32.566,29.985,4.701,6.755,6.426
1878,0.731,37.115,18.503,32.576,29.985,4.701,6.754,6.344
1879,0.705,37.126,18.499,32.537,29.985,4.701,6.754,6.384
1880,0.698,36.772,18.491,32.537,29.978,4.66,6.673,6.344
1881,0.705,36.941,18.471,32.585,29.992,4.863,6.875,6.588
1882,0.702,37.038,18.471,32.566,29.982,4.702,6.755,6.387
1883,0.701,37.078,18.498,32.576,29.985,4.742,6.836,6.507
1884,0.698,36.57,18.522,32.528,29.972,4.62,6.714,6.345
1885,0.718,36.737,18.519,32.556,29.975,4.659,6.672,6.303
1886,0.705,36.825,18.476,32.547,29.982,4.66,6.753,6.425
1887,0.734,36.893,18.495,32.566,29.982,4.66,6.754,6.426
1888,0.734,36.692,18.503,32.585,29.985,4.741,6.714,6.426
1889,0.731,36.806,18.518,32.557,29.978,4.579,6.632,6.263
1890,0.738,36.903,18.476,32.566,29.982,4.74,6.672,6.302
1891,0.741,36.558,18.471,32.547,29.982,4.62,6.631,6.221
1892,0.767,36.68,18.526,32.595,29.996,4.781,6.794,6.383
1893,0.767,36.757,18.534,32.566,29.989,4.702,6.714,6.385
1894,0.757,36.864,18.433,32.585,29.985,4.66,6.713,6.425
1895,0.728,36.606,18.354,32.566,29.975,4.7,6.794,6.304
1896,0.738,36.766,18.447,32.566,29.978,4.538,6.673,6.343
1897,0.725,36.864,18.475,32.576,29.989,4.781,6.875,6.466
1898,0.721,36.942,18.53,32.576,29.982,4.661,6.796,6.386
1899,0.711,36.377,18.491,32.585,29.989,4.7,6.877,6.344
1900,0.698,36.496,18.464,32.557,29.972,4.579,6.674,6.262
1901,0.701,36.631,18.514,32.566,29.975,4.659,6.794,6.262
1902,0.682,36.69,18.499,32.566,29.982,4.66,6.836,6.424
1903,0.705,36.556,18.44,32.595,29.982,4.7,6.755,6.344
1904,0.689,36.67,18.463,32.585,29.982,4.701,6.795,6.384
1905,0.711,36.786,18.479,32.585,29.982,4.538,6.755,6.222
1906,0.708,36.816,18.483,32.576,29.982,4.659,6.754,6.383
1907,0.718,36.299,18.526,32.576,29.971,4.66,6.714,6.303
1908,0.734,36.456,18.511,32.614,29.996,4.822,6.916,6.384
1909,0.738,36.544,18.472,32.605,29.979,4.743,6.796,6.344
1910,0.751,36.574,18.534,32.605,29.989,4.742,6.836,6.343
1911,0.738,36.335,18.495,32.566,29.982,4.701,6.796,6.303
1912,0.76,36.476,18.436,32.595,29.978,4.62,6.755,6.262
1913,0.761,36.583,18.471,32.605,29.989,4.7,6.998,6.424
1914,0.754,36.296,18.479,32.595,29.978,4.66,6.838,6.304
1915,0.751,36.303,18.518,32.605,29.985,4.782,7.04,6.343
1916,0.735,36.38,18.515,32.576,29.968,4.539,6.839,6.303
1917,0.728,36.486,18.511,32.595,29.978,4.659,6.999,6.221
1918,0.715,36.267,18.472,32.585,29.971,4.66,7.041,6.302
1919,0.724,36.437,18.506,32.595,29.982,4.66,7.042,6.343
1920,0.718,36.535,18.518,32.595,29.982,4.66,7.204,6.303
1921,0.711,36.603,18.487,32.672,29.975,4.66,7.165,6.18
1922,0.692,36.009,18.448,32.596,29.982,4.619,7.165,6.383
1923,0.698,36.147,18.498,32.605,29.978,4.578,7.206,6.141
1924,0.711,36.311,18.55,32.643,29.989,4.822,7.328,6.382
1925,0.711,36.332,18.542,32.615,29.982,4.702,7.248,6.344
1926,0.715,36.227,18.48,32.605,29.982,4.742,7.369,6.262
1927,0.721,36.36,18.483,32.605,29.978,4.62,7.289,6.343
1928,0.724,36.457,18.46,32.624,29.978,4.659,7.288,6.262
1929,0.734,36.516,18.518,32.595,29.982,4.741,7.41,6.343
1930,0.744,35.95,18.511,32.624,29.982,4.742,7.371,6.262
1931,0.76,36.098,18.491,32.614,29.985,4.661,7.37,6.302
1932,0.761,36.186,18.514,32.576,29.972,4.579,7.208,6.18
1933,0.761,36.235,18.526,32.614,29.982,4.659,7.287,6.179
1934,0.744,36.168,18.48,32.605,29.978,4.579,7.288,6.22
1935,0.754,36.34,18.385,32.633,29.982,4.659,7.329,6.22
1936,0.741,36.419,18.423,32.634,29.982,4.66,7.41,6.261
1937,0.741,36.304,18.436,32.624,29.982,4.66,7.289,6.18
1938,0.728,36.054,18.518,32.605,29.985,4.66,7.288,6.179
1939,0.715,36.185,18.409,32.614,29.975,4.579,7.329,6.098
1940,0.721,36.302,18.498,32.643,29.992,4.74,7.532,6.26
1941,0.695,35.977,18.507,32.634,29.979,4.62,7.372,6.221
1942,0.701,36.06,18.514,32.653,29.985,4.741,7.533,6.22
1943,0.688,36.147,18.444,32.605,29.978,4.661,7.494,6.22
1944,0.705,36.273,18.455,32.614,29.978,4.66,7.412,6.098
1945,0.718,35.871,18.479,32.624,29.982,4.7,7.615,6.3
1946,0.731,36.011,18.475,32.643,29.985,4.66,7.535,6.18
1947,0.734,36.156,18.53,32.643,29.982,4.741,7.616,6.22
1948,0.728,36.206,18.452,32.605,29.975,4.539,7.413,6.058
1949,0.738,35.909,18.487,32.633,29.982,4.659,7.533,6.178
1950,0.744,36.011,18.518,32.605,29.975,4.619,7.616,6.179
1951,0.777,36.175,18.534,32.643,29.982,4.7,7.657,6.098
1952,0.78,36.235,18.441,32.653,29.985,4.66,7.658,6.178
1953,0.79,35.823,18.471,32.644,29.975,4.579,7.536,5.976
1954,0.767,35.972,18.495,32.634,29.985,4.659,7.534,6.137
1955,0.754,36.06,18.518,32.624,29.975,4.538,7.534,6.138
1956,0.777,36.138,18.554,32.672,29.992,4.821,7.738,6.219
1957,0.767,35.86,18.492,32.663,29.985,4.702,7.618,6.261
1958,0.764,36.011,18.499,32.682,29.978,4.701,7.617,6.18
1959,0.761,36.08,18.487,32.634,29.975,4.62,7.535,6.098
1960,0.79,36.291,18.503,32.634,29.978,4.537,7.494,6.138
1961,0.784,35.9,18.495,32.749,29.996,4.821,7.697,6.26
1962,0.787,36.002,18.479,32.654,29.982,4.702,7.536,6.221
1963,0.79,36.127,18.495,32.663,29.989,4.701,7.616,6.261
1964,0.8,35.812,18.546,32.624,29.975,4.62,7.535,6.221
1965,0.823,35.847,18.534,32.634,29.982,4.659,7.494,6.058
1966,0.82,35.982,18.519,32.643,29.989,4.7,7.616,6.3
1967,0.843,36.098,18.464,32.663,29.985,4.701,7.535,6.221
1968,0.872,35.841,18.487,32.663,29.982,4.701,7.616,6.302
1969,0.869,35.934,18.491,32.644,29.968,4.498,7.373,6.099
1970,0.879,36.06,18.491,32.663,29.982,4.618,7.452,6.138
1971,0.879,36.138,18.475,32.644,29.971,4.578,7.412,6.138
1972,0.898,35.707,18.518,32.663,29.985,4.7,7.452,6.179
1973,0.892,35.837,18.518,32.672,29.982,4.701,7.534,6.179
1974,0.899,35.972,18.452,32.663,29.982,4.66,7.453,6.098
1975,0.882,36.031,18.412,32.682,29.982,4.619,7.493,6.178
1976,0.889,35.706,18.451,32.663,29.982,4.619,7.371,6.098
1977,0.892,35.856,18.498,32.701,29.996,4.822,7.533,6.178
1978,0.879,35.944,18.553,32.673,29.985,4.661,7.412,6.179
1979,0.882,36.002,18.476,32.682,29.985,4.7,7.452,6.098
1980,0.863,35.744,18.448,32.673,29.978,4.66,7.371,6.178
1981,0.856,35.885,18.51,32.663,29.982,4.619,7.37,6.057
1982,0.853,35.992,18.518,32.692,29.996,4.741,7.533,6.259
1983,0.859,36.022,18.425,32.682,29.989,4.742,7.494,6.139
1984,0.869,35.773,18.463,32.692,29.989,4.701,7.453,6.219
1985,0.872,35.895,18.475,32.653,29.972,4.538,7.412,6.139
1986,0.872,36.002,18.518,32.682,29.982,4.659,7.452,6.098
1987,0.889,35.869,18.542,32.673,29.989,4.619,7.452,6.219
1988,0.912,35.742,18.46,32.682,29.985,4.659,7.452,6.139
1989,0.912,35.856,18.459,32.701,29.985,4.66,7.534,6.219
1990,0.918,35.944,18.502,32.673,29.978,4.538,7.372,6.098
1991,0.925,35.628,18.487,32.692,29.982,4.618,7.411,6.097
1992,0.938,35.721,18.393,32.692,29.971,4.537,7.371,6.097
1993,0.954,35.894,18.478,32.711,29.992,4.699,7.492,6.178
1994,0.932,35.954,18.475,32.692,29.979,4.66,7.453,6.22
1995,0.931,35.676,18.526,32.711,29.989,4.66,7.412,6.139
1996,0.918,35.827,18.546,32.692,29.985,4.7,7.371,6.219
1997,0.905,35.934,18.488,32.692,29.982,4.579,7.33,6.139
1998,0.918,36.05,18.51,32.74,29.996,4.822,7.532,6.219
1999,0.912,35.533,18.503,32.702,29.982,4.661,7.412,6.098
2000,0.922,35.691,18.511,32.701,29.989,4.66,7.411,6.178
2001,0.889,35.77,18.448,32.721,29.985,4.66,7.371,6.139
2002,0.899,35.847,18.444,32.683,29.982,4.538,7.248,6.138
2003,0.899,35.733,18.487,32.72,29.992,4.781,7.45,6.382
2004,0.905,35.856,18.514,32.711,29.985,4.742,7.33,6.181
2005,0.921,35.982,18.569,32.73,29.989,4.661,7.289,6.261
2006,0.909,35.955,18.511,32.692,29.972,4.538,7.207,6.139
2007,0.912,35.475,18.472,32.701,29.978,4.618,7.247,6.057
2008,0.925,35.595,18.432,32.701,29.978,4.619,7.328,6.3
2009,0.931,35.701,18.514,32.73,29.985,4.619,7.207,6.262
2010,0.925,36.124,18.46,32.721,29.982,4.7,7.206,6.221
2011,0.925,35.707,18.455,32.711,29.975,4.498,7.165,6.017
2012,0.938,35.837,18.51,32.711,29.982,4.658,7.165,6.137
2013,0.935,35.924,18.526,32.692,29.982,4.66,7.206,6.098
2014,0.931,35.647,18.515,32.73,29.989,4.66,7.247,6.138
2015,0.905,35.654,18.433,32.74,29.992,4.7,7.328,6.219
2016,0.889,35.779,18.498,32.779,29.985,4.62,7.289,6.098
2017,0.869,35.876,18.464,32.702,29.982,4.7,7.288,6.178
2018,0.85,35.445,18.514,32.711,29.978,4.579,7.207,6.098
2019,0.846,35.633,18.452,32.759,29.996,4.781,7.328,6.3
2020,0.836,35.74,18.487,32.731,29.992,4.661,7.329,6.14
2021,0.826,35.828,18.522,32.74,29.982,4.7,7.289,6.219
2022,0.791,35.426,18.53,32.711,29.982,4.62,7.288,6.139
2023,0.784,35.613,18.472,32.721,29.982,4.578,7.207,6.057
2024,0.787,35.711,18.444,32.769,29.985,4.659,7.369,6.259
2025,0.787,35.789,18.459,32.721,29.985,4.7,7.289,6.099
2026,0.81,35.454,18.444,32.74,29.982,4.66,7.288,6.097
2027,0.794,35.575,18.483,32.711,29.965,4.538,7.166,6.056
2028,0.816,35.701,18.475,32.74,29.982,4.618,7.165,6.137
2029,0.816,35.741,18.471,32.731,29.978,4.578,7.246,6.219
2030,0.826,35.597,18.475,32.731,29.982,4.659,7.247,6.18
2031,0.833,35.721,18.541,32.74,29.985,4.66,7.247,6.179
2032,0.846,35.827,18.445,32.74,29.982,4.579,7.125,6.057
2033,0.83,35.848,18.49,32.74,29.982,4.659,7.205,6.097
2034,0.813,35.368,18.471,32.731,29.975,4.579,7.165,6.097
2035,0.81,35.526,18.514,32.788,29.996,4.74,7.287,6.138
2036,0.8,35.614,18.554,32.75,29.985,4.701,7.288,6.179
2037,0.803,35.596,18.527,32.75,29.989,4.66,7.288,6.139
2038,0.781,35.577,18.503,32.769,29.978,4.619,7.288,6.098
2039,0.767,35.701,18.464,32.75,29.975,4.619,7.166,6.097
2040,0.757,35.808,18.541,32.769,29.999,4.781,7.368,6.3
2041,0.738,35.349,18.464,32.76,29.986,4.661,7.33,6.14
2042,0.738,35.469,18.479,32.769,29.985,4.66,7.289,6.301
2043,0.712,35.556,18.467,32.74,29.978,4.579,7.288,6.099
2044,0.718,35.663,18.514,32.759,29.982,4.578,7.207,6.138
2045,0.724,35.434,18.554,32.76,29.985,4.7,7.328,6.179
2046,0.728,35.575,18.538,32.76,29.982,4.62,7.289,6.179
2047,0.725,35.72,18.421,32.769,29.989,4.659,7.288,6.22
2048,0.721,35.779,18.459,32.74,29.972,4.579,7.125,6.017
2049,0.715,35.694,18.506,32.75,29.982,4.659,7.205,6.137
2050,0.715,35.837,18.464,32.759,29.985,4.619,7.206,6.138
2051,0.728,35.982,18.463,32.788,29.989,4.659,7.206,6.138
2052,0.728,36.031,18.471,32.769,29.989,4.66,7.328,6.179
2053,0.718,35.207,18.514,32.779,29.975,4.538,7.045,6.017
2054,0.711,35.343,18.511,32.76,29.985,4.659,7.123,6.096
2055,0.685,35.45,18.46,32.74,29.975,4.619,7.083,6.097
2056,0.698,35.527,18.463,32.817,29.989,4.7,7.164,6.138
2057,0.698,35.509,18.487,32.77,29.989,4.66,7.165,6.179
2058,0.682,35.672,18.51,32.769,29.985,4.66,7.084,6.139
2059,0.666,35.76,18.503,32.779,29.982,4.619,7.042,6.016
2060,0.665,36.029,18.46,32.769,29.975,4.619,7.001,6.056
2061,0.656,35.456,18.518,32.808,29.996,4.781,7.163,6.259
2062,0.639,35.556,18.522,32.779,29.982,4.58,7.124,6.18
2063,0.649,35.663,18.487,32.789,29.989,4.7,7.083,6.179
2064,0.636,35.414,18.409,32.779,29.975,4.538,7.002,6.179
2065,0.659,35.498,18.443,32.789,29.982,4.537,7.001,6.098
2066,0.662,35.614,18.467,32.76,29.978,4.699,7.041,6.178
2067,0.678,35.721,18.475,32.798,29.982,4.66,7.001,6.139
2068,0.678,35.827,18.538,32.798,29.989,4.66,7.001,6.179
2069,0.698,35.972,18.491,32.789,29.968,4.579,7.001,6.017
2070,0.698,36.108,18.467,32.789,29.982,4.578,6.96,6.137
2071,0.701,36.157,18.53,32.769,29.975,4.618,6.96,6.098
2072,0.718,35.093,18.468,32.808,29.989,4.659,7.041,6.138
2073,0.702,35.207,18.459,32.798,29.985,4.7,7.042,6.138
2074,0.708,35.343,18.463,32.808,29.989,4.66,7.082,6.138
2075,0.689,35.402,18.487,32.808,29.985,4.619,7.002,6.179
2076,0.692,35.441,18.549,32.798,29.975,4.537,6.96,6.057
2077,0.682,35.614,18.55,32.827,29.996,4.821,7.122,6.219
2078,0.675,35.711,18.527,32.818,29.985,4.702,7.043,6.139
2079,0.662,35.779,18.495,32.827,29.989,4.701,7.082,6.138
2080,0.649,35.166,18.51,32.789,29.985,4.62,7.042,6.057
2081,0.646,35.333,18.456,32.789,29.978,4.619,7.001,6.137
2082,0.646,35.469,18.459,32.827,29.985,4.741,7.123,6.26
2083,0.642,35.489,18.502,32.818,29.985,4.62,7.002,6.139
2084,0.662,35.394,18.53,32.827,29.985,4.7,6.96,6.179
2085,0.669,35.498,18.542,32.779,29.975,4.498,6.919,6.098
2086,0.662,35.605,18.503,32.808,29.982,4.658,6.959,6.097
2087,0.659,35.443,18.444,32.789,29.978,4.538,7.0,6.056
2088,0.691,35.47,18.463,32.808,29.985,4.618,7.041,6.137
2089,0.685,35.547,18.51,32.827,29.985,4.659,7.123,6.179
2090,0.692,35.653,18.452,32.818,29.975,4.579,6.961,6.057
2091,0.705,35.261,18.463,32.798,29.978,4.618,7.041,6.056
2092,0.702,35.353,18.459,32.798,29.975,4.659,7.001,5.975
2093,0.714,35.526,18.549,32.856,29.996,4.782,7.123,6.137
2094,0.708,35.567,18.531,32.818,29.982,4.702,7.124,6.138
2095,0.711,35.318,18.46,32.827,29.985,4.66,7.165,6.098
2096,0.692,35.43,18.397,32.818,29.989,4.66,7.165,6.138
2097,0.685,35.566,18.439,32.818,29.978,4.579,7.165,6.098
2098,0.682,35.653,18.479,32.837,29.985,4.781,7.409,6.26
2099,0.682,35.261,18.495,32.818,29.982,4.661,7.289,6.139
2100,0.679,35.43,18.495,32.866,29.989,4.66,7.329,6.219
2101,0.665,35.527,18.448,32.818,29.972,4.619,7.289,6.18
2102,0.672,35.586,18.526,32.827,29.982,4.578,7.329,6.179
2103,0.675,35.26,18.503,32.827,29.989,4.659,7.329,6.261
2104,0.711,35.43,18.479,32.827,29.982,4.66,7.289,6.139
2105,0.754,35.575,18.487,32.856,29.985,4.7,7.369,6.219
2106,0.8,35.586,18.464,32.828,29.978,4.498,7.208,6.017
2107,0.823,35.279,18.471,32.837,29.982,4.658,7.328,6.178
2108,0.869,35.401,18.518,32.827,29.978,4.579,7.289,6.139
2109,0.931,35.556,18.495,32.933,29.989,4.74,7.369,6.179
2110,0.961,35.701,18.468,32.838,29.985,4.661,7.37,6.261
2111,1.029,35.348,18.541,32.827,29.985,4.66,7.37,6.18
2112,1.098,35.45,18.495,32.818,29.982,4.619,7.289,6.139
2113,1.141,35.566,18.471,32.837,29.982,4.619,7.288,6.219
2114,1.194,35.203,18.459,32.847,29.992,4.781,7.491,6.383
2115,1.204,35.276,18.491,32.837,29.982,4.661,7.331,6.263
2116,1.233,35.391,18.491,32.847,29.985,4.7,7.37,6.262
2117,1.237,35.431,18.542,32.808,29.975,4.538,7.208,6.221
2118,1.253,35.192,18.484,32.846,29.982,4.537,7.328,6.22
2119,1.273,35.323,18.448,32.847,29.982,4.659,7.289,6.261
2120,1.322,35.469,18.502,32.847,29.982,4.66,7.369,6.262
2121,1.332,35.585,18.518,32.856,29.978,4.66,7.33,6.302
2122,1.336,35.251,18.495,32.866,29.975,4.538,7.248,6.14
2123,1.339,35.353,18.436,32.866,29.978,4.618,7.288,6.219
2124,1.339,35.469,18.475,32.847,29.975,4.659,7.288,6.22
2125,1.41,35.595,18.51,32.895,29.989,4.7,7.288,6.261
2126,1.408,35.126,18.565,32.866,29.989,4.66,7.369,6.262
2127,1.414,35.275,18.523,32.847,29.982,4.619,7.289,6.262
2128,1.414,35.391,18.499,32.866,29.978,4.659,7.369,6.302
2129,1.457,35.431,18.475,32.837,29.971,4.579,7.37,6.262
2130,1.499,35.22,18.51,32.895,29.992,4.822,7.614,6.465
2131,1.545,35.352,18.511,32.914,29.982,4.702,7.576,6.386
2132,1.588,35.469,18.479,32.886,29.985,4.66,7.616,6.425
2133,1.556,35.47,18.499,32.857,29.982,4.7,7.535,6.385
2134,1.543,35.096,18.534,32.856,29.978,4.579,7.534,6.385
2135,1.507,35.217,18.515,32.885,29.992,4.74,7.697,6.547
2136,1.493,35.324,18.472,32.866,29.985,4.661,7.618,6.508
2137,1.467,35.286,18.491,32.904,29.992,4.7,7.657,6.508
2138,1.399,35.238,18.467,32.838,29.972,4.579,7.617,6.508
2139,1.33,35.381,18.553,32.875,29.982,4.537,7.576,6.467
2140,1.277,35.469,18.484,32.904,29.982,4.659,7.657,6.507
2141,1.189,35.029,18.487,32.895,29.985,4.7,7.698,6.589
2142,1.071,35.13,18.499,32.886,29.985,4.66,7.658,6.631
2143,0.959,35.256,18.51,32.866,29.972,4.579,7.536,6.55
2144,0.828,35.334,18.464,32.885,29.982,4.618,7.616,6.59
2145,0.732,35.152,18.436,32.857,29.982,4.578,7.576,6.712
2146,0.62,35.352,18.49,32.895,29.982,4.659,7.575,6.754
2147,0.486,35.44,18.464,32.876,29.975,4.66,7.575,6.836
2148,0.358,35.508,18.541,32.895,29.985,4.619,7.535,6.837
2149,0.265,35.058,18.445,32.886,29.985,4.659,7.575,6.958
2150,0.167,35.197,18.471,32.876,29.975,4.579,7.494,7.041
2151,0.072,35.343,18.545,32.914,29.996,4.7,7.656,7.286
