time,ecg,bvp,gsr,rsp,skt,emg_zygo,emg_coru,emg_trap
0,0.668,37.271,25.559,34.918,31.857,6.015,6.916,6.753
1,0.669,37.07,25.533,34.937,31.861,6.137,6.959,6.714
2,0.675,37.193,25.497,34.947,31.864,6.179,7.0,6.672
3,0.675,37.328,25.551,34.957,31.861,6.098,6.919,6.631
4,0.685,37.263,25.54,34.928,31.854,6.056,6.837,6.59
5,0.669,37.128,25.587,34.928,31.847,6.015,6.918,6.549
6,0.682,37.232,25.525,34.928,31.85,6.015,7.0,6.549
7,0.679,37.338,25.478,34.937,31.854,6.056,6.96,6.508
8,0.675,36.965,25.497,34.937,31.857,6.097,7.082,6.508
9,0.678,37.077,25.54,34.966,31.854,6.056,6.961,6.549
10,0.682,37.212,25.571,34.947,31.857,6.056,7.041,6.549
11,0.685,37.29,25.583,34.928,31.851,6.137,7.082,6.59
12,0.688,37.023,25.599,35.004,31.857,6.138,7.042,6.549
13,0.679,37.173,25.576,34.948,31.854,6.179,7.164,6.59
14,0.659,37.28,25.615,34.938,31.857,6.179,7.084,6.549
15,0.662,37.339,25.635,34.947,31.854,6.22,7.123,6.508
16,0.659,37.013,25.526,34.918,31.847,6.139,7.124,6.467
17,0.662,37.154,25.54,34.918,31.843,5.976,7.002,6.426
18,0.656,37.251,25.509,34.928,31.843,6.055,7.082,6.466
19,0.655,37.3,25.516,34.909,31.85,6.178,7.164,6.548
20,0.668,37.09,25.509,34.947,31.854,6.139,7.246,6.549
21,0.672,37.212,25.575,34.928,31.847,6.26,7.206,6.63
22,0.656,37.319,25.478,34.957,31.85,6.302,7.206,6.55
23,0.652,37.349,25.512,34.947,31.854,6.221,7.287,6.59
24,0.665,37.129,25.591,34.938,31.84,6.139,7.288,6.549
25,0.656,37.251,25.599,34.918,31.847,6.179,7.247,6.508
26,0.659,37.339,25.549,34.928,31.847,6.179,7.247,6.467
27,0.659,37.311,25.525,34.928,31.847,6.179,7.247,6.507
28,0.672,37.128,25.536,34.928,31.847,6.139,7.288,6.63
29,0.669,37.232,25.435,34.957,31.85,6.26,7.288,6.631
30,0.669,37.348,25.539,34.966,31.85,6.302,7.329,6.712
31,0.669,37.129,25.583,34.947,31.864,6.425,7.41,6.794
32,0.682,37.251,25.47,34.985,31.864,6.344,7.33,6.633
33,0.685,37.386,25.508,34.967,31.864,6.303,7.289,6.631
34,0.672,37.445,25.552,34.957,31.851,6.262,7.247,6.672
35,0.662,37.398,25.626,34.966,31.861,6.221,7.247,6.713
36,0.662,37.532,25.564,34.966,31.861,6.261,7.288,6.672
37,0.656,37.648,25.583,34.947,31.847,6.221,7.207,6.672
38,0.652,37.707,25.603,34.966,31.854,6.22,7.247,6.672
39,0.659,36.873,25.584,34.957,31.854,6.18,7.247,6.713
40,0.662,37.018,25.607,34.966,31.854,6.22,7.206,6.713
41,0.649,37.116,25.631,34.966,31.861,6.18,7.206,6.754
42,0.659,37.184,25.58,34.986,31.854,6.179,7.206,6.754
43,0.656,37.127,25.513,34.967,31.854,6.139,7.206,6.714
44,0.655,37.261,25.556,34.976,31.847,6.098,7.125,6.672
45,0.665,37.358,25.56,34.967,31.85,6.016,7.043,6.631
46,0.662,37.378,25.54,34.938,31.844,6.015,7.001,6.55
47,0.665,37.023,25.528,34.937,31.837,5.934,6.96,6.671
48,0.659,37.154,25.528,34.928,31.836,5.974,7.0,6.713
49,0.662,37.261,25.493,34.966,31.843,6.055,7.082,6.754
50,0.659,37.377,25.536,34.966,31.854,6.015,7.083,6.714
51,0.669,37.206,25.603,34.957,31.85,6.015,7.042,6.713
52,0.665,37.328,25.545,34.957,31.85,6.015,7.001,6.672
53,0.669,37.426,25.525,34.966,31.854,6.015,7.001,6.713
54,0.652,37.024,25.563,34.957,31.85,5.934,6.96,6.713
55,0.655,37.097,25.595,34.928,31.847,5.892,7.0,6.754
56,0.646,37.212,25.592,34.947,31.847,5.851,6.879,6.673
57,0.646,37.29,25.556,34.966,31.84,5.973,7.0,6.753
58,0.642,37.003,25.536,34.938,31.85,5.893,7.001,6.754
59,0.646,37.135,25.532,34.985,31.861,6.054,7.041,6.836
60,0.652,37.318,25.591,34.995,31.864,6.056,7.123,6.958
61,0.652,37.387,25.634,35.005,31.861,6.015,7.002,6.838
62,0.652,36.995,25.553,34.996,31.854,5.974,6.879,6.837
63,0.649,37.125,25.552,34.986,31.854,5.933,6.918,6.796
64,0.646,37.232,25.599,34.976,31.857,5.933,6.878,6.755
65,0.652,37.281,25.634,34.976,31.854,5.974,6.918,6.836
66,0.659,36.955,25.623,34.976,31.85,5.933,6.919,6.796
67,0.652,37.115,25.572,34.967,31.85,5.933,6.919,6.836
68,0.655,37.232,25.541,34.966,31.854,5.974,6.959,6.796
69,0.665,37.271,25.505,35.005,31.854,5.933,6.96,6.795
70,0.652,37.013,25.559,34.986,31.857,5.933,6.919,6.795
71,0.662,37.135,25.599,35.005,31.857,5.892,7.041,6.877
72,0.662,37.232,25.42,34.986,31.854,5.973,6.96,6.755
73,0.662,37.348,25.551,34.976,31.854,5.893,6.878,6.673
74,0.649,36.937,25.575,34.986,31.85,5.851,6.837,6.631
75,0.646,37.038,25.544,34.967,31.847,5.729,6.755,6.631
76,0.636,37.135,25.509,34.957,31.84,5.768,6.876,6.672
77,0.629,36.887,25.548,34.957,31.85,5.85,6.877,6.753
78,0.639,36.961,25.571,34.966,31.847,5.932,6.918,6.714
79,0.646,37.125,25.517,34.976,31.854,5.892,6.959,6.672
80,0.642,37.203,25.595,34.986,31.854,5.892,6.919,6.672
81,0.639,36.82,25.599,34.976,31.854,5.811,6.878,6.672
82,0.639,36.979,25.482,34.995,31.85,5.769,6.877,6.631
83,0.633,37.086,25.567,34.996,31.847,5.768,6.918,6.672
84,0.639,37.155,25.576,34.976,31.85,5.809,6.878,6.591
85,0.646,36.714,25.583,34.976,31.847,5.728,6.877,6.631
86,0.639,36.863,25.513,34.957,31.84,5.727,6.918,6.631
87,0.646,36.989,25.52,34.976,31.843,5.768,6.919,6.631
88,0.649,37.048,25.552,34.976,31.85,5.85,7.0,6.753
89,0.646,36.828,25.572,34.995,31.857,5.769,7.041,6.836
90,0.655,36.979,25.572,35.015,31.861,5.85,7.123,6.877
91,0.668,37.106,25.591,35.005,31.861,5.891,7.124,6.796
92,0.678,37.145,25.588,35.005,31.861,5.811,7.083,6.795
93,0.678,36.733,25.56,34.986,31.851,5.728,7.042,6.755
94,0.659,36.835,25.618,34.986,31.854,5.687,7.042,6.836
95,0.656,36.932,25.557,34.976,31.85,5.768,7.082,6.918
96,0.655,37.201,25.529,35.005,31.85,5.728,7.164,6.878
97,0.655,36.859,25.521,35.005,31.854,5.727,7.084,6.877
98,0.662,36.97,25.563,34.976,31.854,5.727,7.205,6.877
99,0.656,37.067,25.552,35.062,31.854,5.727,7.247,6.959
100,0.655,36.656,25.521,35.006,31.857,5.727,7.288,6.919
101,0.655,36.7,25.556,35.015,31.857,5.727,7.329,6.919
102,0.668,36.854,25.599,35.024,31.861,5.727,7.289,6.959
103,0.688,36.941,25.568,35.015,31.857,5.768,7.329,6.96
104,0.695,36.616,25.626,34.986,31.851,5.647,7.329,6.797
105,0.701,36.747,25.639,34.976,31.844,5.564,7.248,6.877
106,0.698,36.844,25.537,34.957,31.85,5.523,7.328,6.837
107,0.701,36.932,25.567,34.976,31.847,5.603,7.41,6.877
108,0.705,36.463,25.591,34.995,31.85,5.645,7.493,6.959
109,0.728,36.621,25.568,35.024,31.847,5.686,7.494,6.96
110,0.744,36.747,25.529,34.996,31.847,5.646,7.494,6.96
111,0.754,36.777,25.567,34.976,31.85,5.645,7.494,6.96
112,0.754,36.48,25.501,35.024,31.85,5.686,7.534,6.96
113,0.754,36.592,25.512,34.986,31.85,5.646,7.534,6.878
114,0.748,36.699,25.591,34.986,31.85,5.605,7.575,6.918
115,0.728,36.748,25.58,34.976,31.844,5.604,7.575,6.919
116,0.734,36.442,25.463,34.986,31.847,5.564,7.535,6.959
117,0.725,36.563,25.539,34.976,31.85,5.645,7.616,6.96
118,0.724,36.689,25.61,34.995,31.847,5.686,7.657,7.082
119,0.724,37.112,25.49,35.015,31.861,5.687,7.739,7.123
120,0.747,36.925,25.551,35.034,31.875,5.809,7.74,7.205
121,0.744,37.038,25.607,35.025,31.865,5.769,7.699,7.165
122,0.76,37.135,25.455,35.025,31.847,5.647,7.658,7.084
123,0.764,36.215,25.532,34.986,31.854,5.605,7.617,7.083
124,0.764,36.168,25.556,35.005,31.85,5.726,7.576,7.083
125,0.774,36.292,25.579,34.986,31.85,5.687,7.575,7.042
126,0.767,36.38,25.521,35.005,31.854,5.646,7.575,7.042
127,0.774,36.342,25.56,34.996,31.854,5.605,7.616,7.082
128,0.764,36.457,25.599,35.005,31.854,5.686,7.576,7.042
129,0.757,36.583,25.576,35.005,31.861,5.646,7.575,7.082
130,0.754,36.67,25.564,35.005,31.861,5.645,7.535,7.042
131,0.757,36.172,25.591,35.005,31.864,5.645,7.534,7.001
132,0.767,36.321,25.541,35.005,31.861,5.686,7.575,7.041
133,0.78,36.447,25.583,34.996,31.861,5.646,7.575,6.92
134,0.79,36.496,25.603,34.986,31.851,5.605,7.535,6.959
135,0.78,36.257,25.572,34.986,31.844,5.523,7.372,6.797
136,0.784,36.389,25.439,34.986,31.84,5.522,7.37,6.795
137,0.774,36.505,25.52,34.957,31.843,5.522,7.452,6.877
138,0.758,36.526,25.544,34.976,31.85,5.685,7.493,6.918
139,0.774,36.19,25.474,34.986,31.847,5.564,7.534,6.878
140,0.774,36.359,25.516,35.005,31.854,5.645,7.494,6.837
141,0.767,36.447,25.587,35.005,31.85,5.605,7.534,6.837
142,0.777,36.755,25.482,34.986,31.85,5.645,7.453,6.877
143,0.78,36.202,25.559,34.986,31.854,5.645,7.534,6.837
144,0.79,36.321,25.579,34.976,31.85,5.645,7.494,6.796
145,0.79,36.409,25.638,34.957,31.847,5.564,7.534,6.714
146,0.784,36.093,25.557,34.966,31.84,5.563,7.494,6.713
147,0.777,36.119,25.517,34.986,31.85,5.563,7.494,6.713
148,0.787,36.244,25.559,34.995,31.847,5.604,7.616,6.754
149,0.787,36.36,25.564,35.005,31.847,5.686,7.657,6.795
150,0.803,35.949,25.56,35.034,31.864,5.768,7.658,6.958
151,0.82,36.098,25.572,35.034,31.864,5.809,7.658,6.756
152,0.813,36.215,25.576,35.025,31.854,5.728,7.617,6.795
153,0.803,36.273,25.564,34.986,31.854,5.768,7.576,6.755
154,0.79,35.89,25.587,34.986,31.857,5.687,7.698,6.673
155,0.764,36.03,25.576,34.986,31.854,5.687,7.618,6.713
156,0.757,36.128,25.482,34.986,31.85,5.727,7.698,6.713
157,0.748,36.215,25.532,34.995,31.85,5.687,7.74,6.632
158,0.738,35.899,25.552,35.005,31.85,5.809,7.821,6.672
159,0.744,36.04,25.501,35.005,31.85,5.85,7.863,6.713
160,0.741,36.157,25.536,35.024,31.861,5.81,7.904,6.672
161,0.731,36.177,25.571,35.005,31.857,5.81,7.863,6.713
162,0.728,35.832,25.513,34.996,31.854,5.81,7.822,6.672
163,0.728,35.953,25.556,34.976,31.844,5.688,7.781,6.509
164,0.721,36.069,25.544,34.976,31.843,5.646,7.74,6.549
165,0.724,36.109,25.587,34.957,31.847,5.686,7.781,6.63
166,0.718,35.841,25.49,34.976,31.854,5.768,7.822,6.59
167,0.718,36.011,25.497,34.986,31.854,5.728,7.822,6.631
168,0.728,36.108,25.551,34.995,31.85,5.768,7.822,6.55
169,0.712,35.822,25.583,34.996,31.85,5.728,7.822,6.59
170,0.705,35.847,25.576,34.976,31.854,5.727,7.781,6.549
171,0.702,35.944,25.576,34.976,31.85,5.727,7.781,6.468
172,0.692,36.05,25.595,34.976,31.847,5.809,7.862,6.507
173,0.682,35.6,25.572,34.967,31.85,5.85,7.7,6.467
174,0.682,35.73,25.622,34.957,31.844,5.729,7.658,6.467
175,0.675,35.847,25.6,34.947,31.847,5.85,7.739,6.507
176,0.649,35.953,25.474,34.966,31.84,5.851,7.74,6.549
177,0.652,35.686,25.567,34.986,31.857,5.973,7.862,6.63
178,0.649,35.846,25.58,34.995,31.861,6.055,7.944,6.631
179,0.649,36.001,25.572,35.005,31.868,6.097,7.905,6.631
180,0.652,36.07,25.541,35.024,31.865,6.016,7.904,6.509
181,0.649,35.697,25.571,34.986,31.861,5.974,7.823,6.508
182,0.646,35.817,25.564,34.986,31.854,6.055,7.863,6.508
183,0.642,35.924,25.572,34.986,31.85,6.056,7.944,6.508
184,0.649,35.964,25.65,34.976,31.854,5.975,7.864,6.549
185,0.649,35.571,25.561,34.986,31.85,6.055,7.822,6.468
186,0.649,35.72,25.451,34.986,31.854,6.056,7.903,6.507
187,0.649,35.808,25.52,34.976,31.857,6.097,7.863,6.508
188,0.642,35.838,25.567,34.976,31.851,6.056,7.822,6.549
189,0.639,35.665,25.552,35.005,31.857,6.056,7.822,6.549
190,0.626,35.788,25.548,34.976,31.854,6.097,7.863,6.549
191,0.636,35.886,25.571,34.967,31.861,6.097,7.863,6.508
192,0.633,35.541,25.591,34.966,31.851,6.056,7.863,6.467
193,0.623,35.528,25.564,34.976,31.847,5.975,7.782,6.304
194,0.606,35.624,25.65,34.947,31.843,5.974,7.659,6.343
195,0.593,35.711,25.6,34.957,31.837,5.933,7.658,6.425
196,0.587,35.597,25.553,34.976,31.847,6.014,7.698,6.426
197,0.577,35.711,25.622,34.957,31.85,6.015,7.699,6.507
198,0.583,35.846,25.557,34.986,31.85,6.056,7.658,6.427
199,0.577,35.925,25.568,34.976,31.854,6.015,7.698,6.426
200,0.586,35.36,25.568,34.957,31.85,6.056,7.618,6.385
201,0.577,35.488,25.619,34.966,31.854,6.015,7.617,6.385
202,0.593,35.605,25.525,34.957,31.85,6.056,7.657,6.425
203,0.59,35.702,25.532,34.957,31.85,6.015,7.617,6.385
204,0.59,35.444,25.587,34.947,31.847,5.893,7.617,6.385
205,0.596,35.575,25.529,34.947,31.843,6.054,7.576,6.344
206,0.59,35.701,25.47,34.957,31.843,6.056,7.575,6.343
207,0.593,35.75,25.563,34.947,31.843,6.015,7.616,6.425
208,0.59,35.339,25.54,34.947,31.85,6.096,7.739,6.507
209,0.593,35.488,25.532,34.947,31.857,6.097,7.74,6.467
210,0.596,35.624,25.583,34.976,31.861,6.178,7.943,6.548
211,0.613,35.644,25.599,34.986,31.864,6.22,7.864,6.427
212,0.606,35.347,25.576,34.986,31.868,6.22,7.782,6.426
213,0.603,35.478,25.56,34.967,31.851,6.098,7.781,6.344
214,0.596,35.547,25.603,34.957,31.861,6.056,7.944,6.343
215,0.59,35.471,25.549,34.957,31.847,6.137,7.905,6.303
216,0.59,35.528,25.493,34.957,31.857,6.179,7.945,6.425
217,0.596,35.662,25.594,34.957,31.854,6.139,7.945,6.344
218,0.59,35.76,25.576,34.966,31.85,6.179,7.945,6.343
219,0.59,35.233,25.599,34.938,31.857,6.22,8.026,6.343
220,0.58,35.362,25.58,34.957,31.861,6.18,8.027,6.303
221,0.577,35.479,25.584,34.966,31.861,6.22,8.027,6.425
222,0.577,35.585,25.556,34.986,31.857,6.22,8.068,6.304
223,0.593,35.26,25.575,34.957,31.857,6.22,8.028,6.343
224,0.59,35.41,25.615,34.957,31.857,6.302,7.946,6.262
225,0.6,35.517,25.537,34.957,31.854,6.18,7.945,6.221
226,0.59,35.605,25.575,34.995,31.84,6.139,7.783,6.22
227,0.58,35.203,25.505,34.909,31.84,6.057,7.781,6.22
228,0.577,35.324,25.524,34.908,31.84,6.137,7.822,6.261
229,0.58,35.449,25.567,34.937,31.854,6.179,7.863,6.302
230,0.59,35.547,25.556,34.947,31.85,6.179,7.863,6.221
231,0.59,35.183,25.533,34.938,31.847,6.179,7.863,6.139
232,0.596,35.352,25.513,34.928,31.854,6.22,7.741,6.179
233,0.613,35.469,25.556,34.937,31.854,6.18,7.781,6.179
234,0.629,35.47,25.572,34.918,31.847,6.139,7.74,6.139
235,0.645,35.067,25.513,34.937,31.85,6.179,7.74,6.179
236,0.678,35.217,25.559,34.976,31.847,6.017,7.699,6.22
237,0.718,35.314,25.54,34.928,31.847,6.096,7.74,6.139
238,0.754,35.296,25.607,34.918,31.84,6.097,7.659,6.179
239,0.793,35.363,25.568,34.899,31.847,6.097,7.698,6.22
240,0.829,35.507,25.556,34.908,31.85,6.178,7.78,6.342
241,0.862,35.605,25.611,34.947,31.861,6.261,7.781,6.425
242,0.908,35.078,25.572,34.957,31.861,6.302,7.822,6.426
243,0.951,35.207,25.583,34.966,31.861,6.262,7.781,6.263
244,0.984,35.314,25.587,34.928,31.854,6.099,7.74,6.262
245,1.01,35.363,25.58,34.909,31.854,6.097,7.699,6.302
246,1.023,35.057,25.521,34.928,31.85,6.138,7.699,6.262
247,1.049,35.226,25.509,34.928,31.85,6.098,7.78,6.262
248,1.102,35.324,25.567,34.918,31.854,6.138,7.862,6.302
249,1.145,35.411,25.552,34.928,31.854,6.179,7.822,6.262
250,1.187,35.086,25.548,34.928,31.857,6.098,7.741,6.302
251,1.246,35.236,25.611,34.937,31.864,6.138,7.821,6.221
252,1.292,35.362,25.545,34.918,31.854,6.098,7.903,6.261
253,1.348,35.402,25.548,34.928,31.854,6.178,7.823,6.221
254,1.384,35.095,25.579,34.928,31.861,6.057,7.822,6.18
255,1.434,35.227,25.568,34.909,31.847,6.015,7.7,6.179
256,1.476,35.333,25.435,34.908,31.847,5.974,7.658,6.179
257,1.5,35.354,25.504,34.87,31.847,5.893,7.658,6.22
258,1.516,35.143,25.528,34.879,31.854,5.973,7.739,6.302
259,1.562,35.313,25.544,34.908,31.857,6.015,7.618,6.221
260,1.575,35.401,25.552,34.899,31.847,6.056,7.698,6.302
261,1.559,35.143,25.63,34.899,31.85,6.015,7.618,6.302
262,1.526,35.083,25.58,34.908,31.85,5.974,7.617,6.262
263,1.448,35.226,25.587,34.899,31.847,5.974,7.576,6.262
264,1.398,35.314,25.623,34.88,31.85,5.974,7.616,6.302
265,1.365,35.066,25.592,34.86,31.844,5.933,7.576,6.221
266,1.326,35.197,25.513,34.87,31.843,5.974,7.616,6.302
267,1.274,35.343,25.544,34.87,31.847,5.974,7.576,6.343
268,1.221,35.43,25.599,34.87,31.847,6.055,7.616,6.466
269,1.156,34.837,25.517,34.889,31.854,6.015,7.739,6.629
270,1.077,34.994,25.583,34.918,31.861,6.137,7.74,6.631
271,0.949,35.139,25.533,34.918,31.861,6.098,7.699,6.631
272,0.863,35.217,25.552,34.909,31.847,5.975,7.618,6.712
273,0.784,35.007,25.572,34.889,31.85,5.974,7.617,6.835
274,0.706,35.13,25.583,34.87,31.847,5.974,7.657,6.999
275,0.63,35.246,25.509,34.879,31.857,5.933,7.658,7.204
276,0.541,35.324,25.513,34.86,31.851,6.014,7.78,7.45
277,0.472,34.951,25.556,34.87,31.85,5.934,7.781,7.696
278,0.413,35.1,25.56,34.879,31.854,6.014,7.781,8.024
279,0.37,35.236,25.576,34.87,31.854,6.015,7.862,8.271
280,0.34,35.238,25.58,34.879,31.854,6.015,7.741,8.477
281,0.295,34.921,25.56,34.87,31.857,6.096,7.821,8.764
282,0.265,35.081,25.533,34.889,31.854,6.016,7.822,8.97
283,0.242,35.188,25.587,34.879,31.85,6.015,7.822,9.175
284,0.212,35.017,25.603,34.86,31.85,5.974,7.741,9.177
285,0.186,34.909,25.498,34.85,31.847,5.893,7.74,9.259
286,0.163,35.052,25.532,34.831,31.84,5.811,7.659,9.422
287,0.143,35.14,25.571,34.831,31.847,5.81,7.698,9.586
288,0.149,34.863,25.576,34.85,31.847,5.85,7.78,9.71
289,0.169,34.994,25.572,34.831,31.85,5.891,7.7,9.833
290,0.182,35.139,25.638,34.85,31.854,5.892,7.658,9.875
291,0.199,35.208,25.533,34.831,31.85,5.851,7.698,9.957
292,0.196,34.854,25.552,34.821,31.85,5.851,7.74,10.12
293,0.192,34.984,25.618,34.831,31.854,5.932,7.659,10.244
294,0.179,35.12,25.549,34.841,31.85,5.892,7.617,10.326
295,0.166,35.179,25.513,34.821,31.847,5.892,7.576,10.571
296,0.146,34.901,25.513,34.812,31.847,5.892,7.535,10.655
297,0.156,35.042,25.567,34.821,31.847,5.892,7.534,10.818
298,0.143,35.159,25.576,34.821,31.843,5.973,7.575,10.983
299,0.149,35.237,25.541,34.831,31.854,6.055,7.535,11.228
300,0.15,35.17,25.591,34.841,31.864,6.178,7.575,11.393
301,0.159,35.323,25.521,34.869,31.854,6.179,7.575,11.476
302,0.172,35.44,25.587,34.87,31.854,6.098,7.454,11.477
303,0.176,35.46,25.568,34.86,31.85,6.097,7.412,11.599
304,0.186,34.741,25.599,34.831,31.85,6.097,7.371,11.641
305,0.221,34.868,25.537,34.841,31.85,6.056,7.33,11.601
306,0.241,34.985,25.567,34.898,31.85,6.137,7.289,11.682
307,0.268,34.976,25.56,34.832,31.857,6.098,7.329,11.642
308,0.291,34.919,25.591,34.831,31.851,6.097,7.289,11.601
309,0.31,35.071,25.63,34.831,31.854,6.138,7.288,11.6
310,0.337,35.159,25.615,34.831,31.847,6.219,7.288,11.438
311,0.369,34.738,25.56,34.821,31.85,6.139,7.207,11.436
312,0.418,34.868,25.568,34.821,31.857,6.138,7.247,11.314
313,0.448,34.994,25.572,34.812,31.854,6.138,7.247,11.191
314,0.488,35.101,25.615,34.802,31.857,6.098,7.206,11.068
315,0.514,34.728,25.51,34.812,31.84,6.016,7.043,10.782
316,0.534,34.849,25.528,34.783,31.84,6.015,7.042,10.738
317,0.547,34.984,25.513,34.792,31.847,6.015,7.082,10.697
318,0.57,35.034,25.571,34.773,31.847,6.015,7.123,10.656
319,0.58,34.814,25.591,34.802,31.85,6.015,7.165,10.452
320,0.593,34.955,25.572,34.783,31.854,6.015,7.124,10.41
321,0.603,35.053,25.529,34.792,31.854,6.015,7.124,10.328
322,0.616,35.14,25.517,34.811,31.854,6.015,7.205,10.205
323,0.623,34.796,25.567,34.792,31.844,5.974,7.125,10.123
324,0.629,34.926,25.572,34.783,31.847,6.015,7.205,10.0
325,0.632,35.024,25.49,34.783,31.85,5.934,7.165,9.836
326,0.639,35.053,25.524,34.792,31.847,5.974,7.124,9.794
327,0.642,34.804,25.556,34.773,31.847,6.015,7.043,9.712
328,0.642,34.926,25.607,34.773,31.84,6.015,7.082,9.711
329,0.639,35.062,25.576,34.782,31.847,6.056,7.123,9.711
330,0.642,34.958,25.623,34.792,31.843,6.178,7.124,9.67
331,0.652,34.842,25.557,34.821,31.861,6.301,7.287,9.629
332,0.668,34.965,25.572,34.812,31.864,6.262,7.288,9.548
333,0.672,35.091,25.646,34.792,31.864,6.221,7.125,9.466
334,0.678,34.795,25.6,34.783,31.851,6.18,7.043,9.343
335,0.662,34.888,25.568,34.821,31.85,6.22,7.123,9.342
336,0.652,34.994,25.521,34.783,31.85,6.18,7.083,9.26
337,0.655,35.101,25.567,34.773,31.857,6.179,7.123,9.178
338,0.646,34.699,25.576,34.773,31.864,6.179,7.083,9.177
339,0.652,34.858,25.537,34.763,31.861,6.261,7.083,9.096
340,0.662,34.975,25.599,34.773,31.864,6.221,7.083,9.054
341,0.665,35.053,25.56,34.763,31.847,6.18,7.164,8.973
342,0.662,34.68,25.537,34.754,31.854,6.22,7.124,9.013
343,0.678,34.82,25.618,34.782,31.854,6.302,7.124,9.013
344,0.678,34.946,25.6,34.773,31.854,6.262,7.124,8.932
345,0.688,34.995,25.517,34.763,31.857,6.221,7.124,8.85
346,0.695,34.871,25.559,34.744,31.847,6.058,7.043,8.605
347,0.688,34.985,25.56,34.734,31.843,6.137,7.001,8.643
348,0.688,35.091,25.579,34.734,31.843,6.098,7.041,8.684
349,0.688,35.131,25.552,34.734,31.847,6.178,7.123,8.562
350,0.685,34.747,25.595,34.734,31.85,6.179,7.083,8.602
351,0.695,34.878,25.494,34.753,31.85,6.179,7.123,8.521
352,0.701,34.994,25.548,34.725,31.854,6.179,7.083,8.479
353,0.705,34.947,25.63,34.724,31.85,6.139,7.083,8.398
354,0.698,34.774,25.619,34.715,31.847,6.057,7.123,8.438
355,0.692,34.907,25.521,34.724,31.847,6.137,7.043,8.438
356,0.695,34.995,25.567,34.705,31.843,6.138,7.042,8.316
357,0.695,34.679,25.603,34.705,31.847,5.976,7.042,8.274
358,0.682,34.8,25.576,34.715,31.85,6.015,7.042,8.274
359,0.688,34.926,25.568,34.705,31.847,6.096,7.082,8.314
360,0.698,35.024,25.587,34.715,31.85,6.178,7.123,8.356
361,0.695,34.603,25.545,34.734,31.861,6.261,7.165,8.397
362,0.695,34.771,25.525,34.763,31.864,6.221,7.124,8.397
363,0.705,34.936,25.567,34.754,31.864,6.342,7.205,8.356
364,0.711,34.976,25.622,34.754,31.861,6.14,7.084,8.275
365,0.721,34.554,25.494,34.706,31.854,6.138,7.083,8.233
366,0.715,34.675,25.528,34.753,31.854,6.138,7.083,8.233
367,0.721,34.81,25.564,34.706,31.854,6.098,7.042,8.233
368,0.728,34.879,25.56,34.705,31.854,6.138,7.042,8.192
369,0.731,34.687,25.591,34.705,31.85,6.098,7.001,8.11
370,0.728,34.82,25.584,34.696,31.854,6.097,7.041,8.109
371,0.728,34.946,25.509,34.695,31.854,6.097,7.001,8.069
372,0.734,34.985,25.571,34.705,31.854,6.138,7.041,8.069
373,0.734,34.669,25.615,34.686,31.847,6.057,7.082,8.109
374,0.741,34.82,25.576,34.695,31.854,6.097,7.042,7.987
375,0.728,34.936,25.482,34.715,31.854,6.016,7.001,7.986
376,0.731,34.928,25.555,34.686,31.847,6.015,7.001,7.864
377,0.738,34.688,25.591,34.695,31.847,5.893,6.879,7.822
378,0.728,34.791,25.568,34.648,31.84,5.811,6.877,7.781
379,0.728,34.888,25.576,34.637,31.847,5.891,6.918,7.862
380,0.728,34.429,25.58,34.676,31.85,5.973,6.959,7.904
381,0.738,34.539,25.541,34.657,31.85,5.974,6.96,7.904
382,0.741,34.674,25.568,34.657,31.854,5.933,6.878,7.904
383,0.741,34.762,25.583,34.666,31.847,5.892,6.837,7.863
384,0.744,34.571,25.599,34.676,31.843,5.973,6.918,7.863
385,0.754,34.723,25.478,34.638,31.843,6.015,6.878,7.904
386,0.751,34.849,25.516,34.657,31.847,5.934,6.877,7.782
387,0.757,34.908,25.509,34.647,31.843,5.974,6.837,7.862
388,0.767,34.467,25.513,34.647,31.837,6.015,6.837,7.7
389,0.77,34.616,25.54,34.647,31.85,6.056,6.877,7.78
390,0.77,34.733,25.564,34.647,31.844,6.056,6.918,7.903
391,0.77,34.801,25.412,34.685,31.861,6.137,7.0,7.904
392,0.774,34.495,25.555,34.676,31.861,6.179,7.041,7.863
393,0.784,34.655,25.607,34.676,31.864,6.179,7.001,7.741
394,0.787,34.771,25.599,34.647,31.847,6.057,6.919,7.74
395,0.78,34.801,25.58,34.618,31.85,6.137,6.959,7.659
396,0.771,34.552,25.584,34.628,31.85,6.098,7.041,7.658
397,0.78,34.713,25.603,34.628,31.847,6.097,7.001,7.698
398,0.78,34.81,25.584,34.628,31.857,6.138,7.041,7.536
399,0.774,34.879,25.611,34.628,31.851,6.057,7.042,7.575
400,0.774,34.572,25.56,34.618,31.861,6.137,7.042,7.575
401,0.777,34.703,25.564,34.637,31.854,6.138,7.042,7.575
402,0.774,34.82,25.537,34.637,31.857,6.138,7.082,7.494
403,0.787,34.332,25.603,34.609,31.861,6.219,7.083,7.494
404,0.79,34.404,25.599,34.618,31.857,6.18,7.042,7.453
405,0.79,34.52,25.51,34.628,31.857,6.139,7.042,7.29
406,0.806,34.636,25.552,34.599,31.847,6.016,6.92,7.247
407,0.813,34.359,25.533,34.589,31.843,6.015,6.878,7.206
408,0.813,34.51,25.567,34.579,31.843,6.015,6.918,7.287
409,0.816,34.626,25.552,34.589,31.84,6.137,7.0,7.247
410,0.813,34.723,25.579,34.589,31.85,6.057,6.96,7.288
411,0.826,34.302,25.564,34.579,31.847,6.056,6.919,7.247
412,0.82,34.471,25.552,34.589,31.847,6.056,6.919,7.206
413,0.826,34.597,25.583,34.579,31.85,6.056,6.959,7.206
414,0.83,34.656,25.591,34.57,31.85,6.056,6.919,7.165
415,0.83,34.35,25.517,34.589,31.847,6.056,6.878,7.124
416,0.833,34.481,25.517,34.57,31.843,6.015,6.877,7.002
417,0.82,34.588,25.524,34.579,31.84,5.974,6.837,7.123
418,0.836,34.637,25.56,34.551,31.847,5.974,6.837,7.043
419,0.836,34.321,25.595,34.56,31.854,6.015,6.918,7.042
420,0.836,34.471,25.599,34.57,31.854,6.096,6.959,7.123
421,0.846,34.597,25.599,34.608,31.854,6.138,7.0,7.205
422,0.843,34.78,25.592,34.599,31.868,6.179,7.082,7.206
423,0.859,34.351,25.642,34.608,31.858,6.139,6.961,7.084
424,0.862,34.452,25.658,34.58,31.851,5.976,6.919,7.042
425,0.859,34.558,25.522,34.579,31.854,6.055,6.878,7.082
426,0.866,34.281,25.52,34.551,31.85,5.975,6.918,6.961
427,0.859,34.355,25.52,34.569,31.854,6.015,6.919,7.0
428,0.866,34.481,25.567,34.56,31.847,5.974,7.0,6.919
429,0.872,34.597,25.513,34.56,31.854,5.933,7.001,7.0
430,0.889,34.205,25.595,34.541,31.847,6.055,7.082,6.919
431,0.892,34.355,25.517,34.569,31.85,6.015,7.083,6.919
432,0.892,34.481,25.552,34.541,31.857,5.974,7.205,6.959
433,0.892,34.559,25.63,34.569,31.857,5.974,7.287,6.878
434,0.892,34.157,25.568,34.57,31.854,6.015,7.369,6.837
435,0.892,34.306,25.513,34.55,31.847,5.974,7.289,6.796
436,0.899,34.432,25.579,34.56,31.847,5.893,7.329,6.755
437,0.895,34.482,25.584,34.522,31.843,5.892,7.329,6.673
438,0.895,34.118,25.556,34.521,31.84,5.851,7.37,6.631
439,0.905,34.248,25.544,34.521,31.843,5.973,7.492,6.712
440,0.895,34.374,25.595,34.521,31.85,6.015,7.575,6.794
441,0.912,34.433,25.498,34.54,31.847,6.015,7.616,6.714
442,0.912,34.242,25.536,34.531,31.85,6.015,7.698,6.713
443,0.925,34.355,25.626,34.54,31.844,6.015,7.74,6.713
444,0.922,34.462,25.607,34.521,31.84,6.096,7.659,6.672
445,0.922,34.75,25.572,34.54,31.847,6.097,7.739,6.713
446,0.941,34.226,25.611,34.521,31.847,6.056,7.699,6.632
447,0.938,34.336,25.631,34.502,31.843,5.975,7.658,6.672
448,0.948,34.452,25.607,34.502,31.84,6.055,7.739,6.55
449,0.951,34.05,25.572,34.521,31.847,6.056,7.699,6.59
450,0.954,34.104,25.615,34.502,31.85,6.137,7.821,6.712
451,0.961,34.239,25.584,34.531,31.854,6.179,7.903,6.794
452,0.974,34.374,25.56,34.56,31.864,6.261,7.985,6.714
453,0.984,34.069,25.615,34.56,31.861,6.221,7.905,6.632
454,0.994,34.19,25.525,34.531,31.854,6.098,7.863,6.509
455,0.981,34.335,25.536,34.521,31.847,6.056,7.863,6.589
456,0.968,34.385,25.564,34.521,31.85,6.097,7.822,6.631
457,0.974,34.05,25.595,34.521,31.854,6.016,7.863,6.55
458,0.977,34.219,25.541,34.521,31.854,6.137,7.863,6.671
459,0.984,34.355,25.568,34.512,31.85,6.098,7.863,6.55
460,0.991,34.404,25.615,34.512,31.854,6.138,7.863,6.59
461,1.0,34.098,25.56,34.521,31.85,6.098,7.822,6.509
462,0.991,34.248,25.583,34.521,31.854,6.016,7.903,6.549
463,0.997,34.393,25.611,34.531,31.854,6.056,7.945,6.59
464,1.0,34.424,25.588,34.502,31.857,6.137,7.864,6.549
465,1.017,34.155,25.572,34.579,31.851,6.057,7.782,6.549
466,1.03,34.287,25.572,34.503,31.854,6.056,7.7,6.386
467,1.02,34.394,25.599,34.492,31.844,5.934,7.699,6.344
468,1.033,34.74,25.588,34.463,31.84,5.892,7.658,6.466
469,1.03,34.274,25.533,34.473,31.843,5.892,7.658,6.426
470,1.046,34.374,25.606,34.482,31.85,5.973,7.658,6.507
471,1.04,34.519,25.541,34.511,31.847,5.974,7.698,6.427
472,1.043,34.176,25.564,34.492,31.85,5.893,7.618,6.426
473,1.046,34.23,25.607,34.483,31.85,5.973,7.617,6.344
474,1.04,34.355,25.525,34.473,31.847,5.974,7.535,6.343
475,1.04,34.442,25.563,34.482,31.84,5.933,7.575,6.303
476,1.033,34.28,25.591,34.463,31.847,5.852,7.535,6.343
477,1.043,34.413,25.584,34.454,31.854,5.891,7.494,6.343
478,1.037,34.539,25.533,34.473,31.844,5.973,7.575,6.343
479,1.046,34.627,25.552,34.492,31.847,6.015,7.616,6.466
480,1.056,34.541,25.579,34.473,31.857,6.096,7.698,6.507
481,1.063,34.722,25.544,34.54,31.868,6.178,7.699,6.508
482,1.053,34.859,25.564,34.521,31.865,6.139,7.74,6.508
483,1.06,34.917,25.591,34.492,31.861,6.016,7.577,6.467
484,1.06,34.534,25.537,34.483,31.851,6.015,7.657,6.426
485,1.063,34.694,25.536,34.483,31.857,6.056,7.658,6.466
486,1.066,34.801,25.564,34.483,31.854,6.015,7.658,6.386
487,1.066,34.85,25.615,34.463,31.857,6.137,7.698,6.425
488,1.073,34.841,25.619,34.473,31.847,6.098,7.74,6.426
489,1.076,34.984,25.588,34.473,31.854,6.097,7.699,6.426
490,1.079,35.082,25.638,34.473,31.85,6.097,7.74,6.426
491,1.086,35.255,25.608,34.473,31.857,6.138,7.74,6.426
492,1.083,34.979,25.588,34.473,31.861,6.098,7.781,6.426
493,1.086,35.101,25.615,34.463,31.851,6.138,7.659,6.385
494,1.096,35.207,25.568,34.454,31.857,6.138,7.658,6.344
495,1.076,35.18,25.572,34.453,31.851,6.138,7.617,6.262
496,1.079,35.247,25.529,34.453,31.844,6.098,7.535,6.302
497,1.066,35.362,25.61,34.444,31.84,6.016,7.534,6.262
498,1.056,35.45,25.553,34.425,31.84,6.015,7.534,6.262
499,1.056,35.345,25.544,34.463,31.85,6.056,7.616,6.302
500,1.069,35.498,25.587,34.473,31.844,6.178,7.617,6.221
501,1.069,35.643,25.584,34.511,31.854,6.098,7.617,6.302
502,1.06,35.712,25.552,34.464,31.847,6.138,7.657,6.302
503,1.069,35.722,25.595,34.444,31.85,6.138,7.617,6.302
504,1.069,35.837,25.564,34.453,31.847,6.138,7.576,6.262
505,1.076,35.953,25.537,34.444,31.843,6.098,7.494,6.221
506,1.086,36.031,25.532,34.444,31.847,6.097,7.453,6.261
507,1.076,36.013,25.579,34.425,31.847,6.097,7.493,6.262
508,1.083,36.137,25.552,34.434,31.84,6.219,7.494,6.302
509,1.083,36.253,25.568,34.444,31.85,6.22,7.534,6.302
510,1.086,36.303,25.611,34.444,31.861,6.342,7.616,6.384
511,1.076,36.054,25.599,34.473,31.864,6.303,7.739,6.385
512,1.086,36.205,25.58,34.482,31.868,6.343,7.659,6.344
513,1.083,36.312,25.646,34.454,31.858,6.262,7.617,6.262
514,1.079,36.313,25.569,34.434,31.851,6.262,7.698,6.302
515,1.063,36.543,25.58,34.434,31.854,6.221,7.658,6.302
516,1.05,36.679,25.576,34.444,31.85,6.22,7.658,6.262
517,1.056,36.757,25.607,34.415,31.854,6.261,7.698,6.384
518,1.05,36.71,25.553,34.434,31.854,6.262,7.78,6.303
519,1.043,36.777,25.525,34.444,31.854,6.302,7.822,6.221
520,1.046,36.902,25.599,34.444,31.857,6.302,7.781,6.383
521,1.04,36.999,25.533,34.482,31.851,6.343,7.822,6.303
522,1.024,37.02,25.505,34.444,31.854,6.343,7.781,6.425
523,1.027,37.135,25.598,34.444,31.857,6.303,7.862,6.263
524,1.02,37.251,25.537,34.444,31.847,6.221,7.782,6.221
525,1.027,37.319,25.548,34.415,31.84,6.139,7.7,6.139
526,1.023,37.195,25.595,34.396,31.847,6.138,7.699,6.26
527,1.01,37.328,25.603,34.405,31.843,6.138,7.78,6.302
528,1.01,37.454,25.607,34.415,31.843,6.301,7.822,6.343
529,1.01,37.523,25.564,34.415,31.85,6.262,7.781,6.303
530,1.001,37.456,25.615,34.424,31.854,6.262,7.781,6.302
531,1.007,37.599,25.564,34.415,31.857,6.139,7.74,6.302
532,0.997,37.697,25.552,34.405,31.851,6.179,7.781,6.262
533,0.984,37.717,25.642,34.395,31.84,6.179,7.74,6.302
534,0.978,37.813,25.514,34.395,31.847,6.139,7.699,6.18
535,0.961,37.958,25.567,34.405,31.843,6.138,7.74,6.261
536,0.948,38.046,25.607,34.405,31.843,6.098,7.659,6.302
537,0.945,38.056,25.611,34.386,31.85,6.178,7.739,6.425
538,0.935,37.989,25.638,34.405,31.854,6.139,7.699,6.344
539,0.931,38.113,25.615,34.415,31.854,6.219,7.78,6.466
540,0.931,38.22,25.639,34.453,31.861,6.342,7.862,6.467
541,0.931,38.307,25.572,34.482,31.861,6.343,7.822,6.386
542,0.918,38.394,25.564,34.425,31.854,6.221,7.659,6.344
543,0.912,38.462,25.615,34.415,31.847,6.22,7.617,6.343
544,0.899,38.54,25.494,34.424,31.85,6.22,7.657,6.262
545,0.905,38.349,25.52,34.396,31.857,6.261,7.536,6.262
546,0.889,38.491,25.54,34.415,31.847,6.302,7.534,6.302
547,0.889,38.588,25.571,34.405,31.85,6.302,7.534,6.384
548,0.882,38.666,25.599,34.405,31.854,6.302,7.534,6.344
549,0.879,38.618,25.584,34.405,31.85,6.262,7.534,6.384
550,0.876,38.743,25.599,34.405,31.85,6.262,7.494,6.385
551,0.872,38.859,25.56,34.424,31.85,6.262,7.534,6.303
552,0.879,38.908,25.607,34.424,31.854,6.262,7.453,6.262
553,0.856,38.688,25.623,34.405,31.85,6.18,7.371,6.262
554,0.853,38.801,25.529,34.386,31.844,6.057,7.289,6.099
555,0.84,38.898,25.591,34.376,31.833,6.097,7.288,6.219
556,0.826,38.918,25.549,34.366,31.843,6.138,7.41,6.302
557,0.82,38.861,25.591,34.386,31.854,6.179,7.289,6.384
558,0.823,38.985,25.576,34.386,31.857,6.22,7.329,6.303
559,0.81,39.082,25.619,34.386,31.851,6.139,7.37,6.262
560,0.81,39.121,25.635,34.395,31.85,6.098,7.37,6.18
561,0.8,38.949,25.615,34.395,31.857,6.138,7.33,6.22
562,0.794,39.072,25.56,34.367,31.847,6.098,7.41,6.261
563,0.79,39.14,25.579,34.395,31.843,6.056,7.371,6.262
564,0.8,39.131,25.572,34.367,31.84,6.056,7.411,6.262
565,0.8,39.17,25.552,34.376,31.84,6.056,7.411,6.262
566,0.8,39.285,25.544,34.366,31.85,6.178,7.533,6.302
567,0.803,39.373,25.583,34.395,31.857,6.179,7.534,6.425
568,0.803,39.115,25.584,34.424,31.861,6.179,7.616,6.426
569,0.803,39.246,25.564,34.424,31.864,6.261,7.617,6.385
570,0.803,39.343,25.583,34.396,31.851,6.139,7.495,6.344
571,0.781,39.421,25.576,34.405,31.854,6.057,7.534,6.303
572,0.784,39.086,25.572,34.376,31.854,6.097,7.412,6.302
573,0.787,39.188,25.603,34.386,31.854,6.097,7.493,6.302
574,0.777,39.285,25.537,34.386,31.847,6.056,7.494,6.221
575,0.767,39.392,25.552,34.395,31.861,6.015,7.494,6.302
576,0.764,39.316,25.579,34.386,31.854,6.056,7.534,6.262
577,0.761,39.45,25.638,34.386,31.857,6.015,7.534,6.343
578,0.757,39.547,25.592,34.376,31.857,6.056,7.494,6.343
579,0.757,39.577,25.599,34.386,31.851,6.015,7.534,6.384
580,0.751,39.193,25.619,34.386,31.85,6.096,7.534,6.303
581,0.751,39.333,25.627,34.395,31.85,6.016,7.453,6.262
582,0.748,39.431,25.607,34.367,31.85,5.974,7.452,6.262
583,0.751,39.412,25.615,34.347,31.84,5.893,7.371,6.139
584,0.744,39.335,25.557,34.337,31.836,5.973,7.37,6.301
585,0.741,39.44,25.548,34.347,31.843,6.015,7.533,6.302
586,0.747,39.547,25.54,34.366,31.847,6.015,7.453,6.302
587,0.751,39.346,25.599,34.366,31.847,5.974,7.493,6.302
588,0.757,39.287,25.529,34.366,31.854,5.974,7.453,6.221
589,0.754,39.411,25.521,34.366,31.847,5.974,7.452,6.302
590,0.757,39.489,25.571,34.357,31.85,5.974,7.412,6.262
591,0.761,39.077,25.556,34.366,31.847,5.933,7.371,6.262
592,0.764,39.169,25.587,34.347,31.837,5.892,7.37,6.221
593,0.748,39.276,25.568,34.347,31.847,5.851,7.289,6.22
594,0.754,39.353,25.576,34.347,31.843,5.891,7.329,6.261
595,0.748,39.287,25.537,34.347,31.843,5.851,7.289,6.262
596,0.734,39.421,25.614,34.337,31.843,5.973,7.329,6.302
597,0.741,39.537,25.642,34.366,31.85,6.015,7.451,6.384
598,0.738,39.605,25.565,34.376,31.864,6.096,7.493,6.425
599,0.751,39.174,25.595,34.395,31.861,6.097,7.494,6.466
600,0.748,39.304,25.584,34.395,31.875,6.016,7.453,6.386
601,0.747,39.421,25.572,34.367,31.854,5.934,7.29,6.303
602,0.738,39.441,25.591,34.366,31.847,5.892,7.329,6.302
603,0.741,39.154,25.615,34.347,31.85,5.851,7.329,6.302
604,0.738,39.314,25.588,34.404,31.85,5.891,7.37,6.302
605,0.754,39.402,25.576,34.348,31.854,5.892,7.37,6.302
606,0.754,39.422,25.623,34.366,31.85,5.973,7.33,6.221
607,0.751,39.115,25.639,34.366,31.85,5.893,7.37,6.302
608,0.761,39.265,25.572,34.386,31.847,5.892,7.411,6.262
609,0.761,39.324,25.603,34.357,31.854,5.933,7.33,6.343
610,0.757,39.143,25.588,34.357,31.854,5.852,7.329,6.303
611,0.764,39.103,25.545,34.376,31.854,5.891,7.289,6.262
612,0.77,39.198,25.575,34.347,31.85,5.811,7.288,6.221
613,0.761,39.276,25.548,34.337,31.84,5.769,7.207,6.098
614,0.764,38.998,25.529,34.318,31.836,5.728,7.165,6.138
615,0.744,39.12,25.501,34.318,31.847,5.727,7.206,6.219
616,0.738,39.217,25.587,34.337,31.847,5.85,7.287,6.302
617,0.738,39.305,25.619,34.337,31.843,5.81,7.329,6.343
618,0.744,38.865,25.537,34.347,31.847,5.769,7.248,6.221
619,0.747,38.985,25.599,34.337,31.847,5.809,7.247,6.302
620,0.744,39.091,25.607,34.328,31.854,5.769,7.288,6.302
621,0.738,39.169,25.564,34.347,31.847,5.768,7.288,6.221
622,0.734,38.969,25.611,34.318,31.847,5.728,7.247,6.261
623,0.738,39.091,25.592,34.328,31.85,5.727,7.288,6.262
624,0.741,39.208,25.541,34.356,31.847,5.687,7.329,6.221
625,0.747,39.247,25.56,34.328,31.85,5.809,7.329,6.261
626,0.757,38.739,25.642,34.328,31.85,5.728,7.329,6.221
627,0.744,38.849,25.643,34.328,31.847,5.809,7.41,6.342
628,0.76,38.965,25.604,34.328,31.854,5.891,7.452,6.343
629,0.77,39.005,25.584,34.366,31.861,6.014,7.534,6.425
630,0.764,38.842,25.568,34.338,31.861,5.974,7.453,6.385
631,0.777,38.965,25.568,34.347,31.861,5.974,7.371,6.303
632,0.78,39.034,25.603,34.318,31.857,5.852,7.33,6.262
633,0.764,38.871,25.576,34.318,31.854,5.81,7.37,6.221
634,0.767,38.812,25.552,34.318,31.85,5.85,7.33,6.302
635,0.761,38.917,25.552,34.318,31.857,5.891,7.289,6.302
636,0.754,38.995,25.564,34.318,31.851,5.933,7.329,6.302
637,0.751,38.641,25.603,34.318,31.85,5.811,7.289,6.18
638,0.761,38.743,25.576,34.308,31.847,5.932,7.288,6.301
639,0.754,38.888,25.568,34.327,31.854,5.892,7.329,6.221
640,0.757,38.956,25.564,34.318,31.854,5.973,7.37,6.302
641,0.757,38.583,25.591,34.318,31.864,5.974,7.33,6.302
642,0.754,38.713,25.599,34.337,31.861,5.974,7.329,6.221
643,0.757,38.82,25.595,34.318,31.847,5.893,7.207,6.18
644,0.767,38.85,25.474,34.318,31.85,5.811,7.165,6.139
645,0.751,38.476,25.543,34.251,31.84,5.728,7.206,6.179
646,0.757,38.607,25.583,34.308,31.84,5.727,7.206,6.179
647,0.757,38.695,25.591,34.299,31.85,5.85,7.165,6.22
648,0.767,38.763,25.611,34.299,31.847,5.851,7.165,6.18
649,0.777,38.552,25.599,34.308,31.843,5.851,7.165,6.22
650,0.767,38.684,25.588,34.318,31.85,5.851,7.246,6.22
651,0.774,38.81,25.584,34.299,31.847,5.891,7.206,6.18
652,0.777,38.831,25.572,34.289,31.85,5.933,7.165,6.179
653,0.774,38.342,25.587,34.289,31.844,5.852,7.165,6.139
654,0.767,38.471,25.564,34.289,31.85,5.81,7.165,6.138
655,0.777,38.569,25.54,34.279,31.844,5.81,7.165,6.138
656,0.767,38.483,25.587,34.279,31.854,5.85,7.165,6.179
657,0.764,38.425,25.584,34.279,31.847,5.81,7.206,6.179
658,0.754,38.578,25.548,34.289,31.854,5.891,7.247,6.342
659,0.761,38.646,25.536,34.298,31.861,5.973,7.288,6.343
660,0.774,38.695,25.591,34.327,31.868,6.015,7.288,6.221
661,0.774,38.839,25.591,34.308,31.854,5.934,7.125,6.18
662,0.764,38.927,25.572,34.299,31.847,5.892,7.165,6.261
663,0.767,38.995,25.599,34.289,31.85,5.892,7.124,6.18
664,0.767,37.845,25.564,34.298,31.847,5.851,7.205,6.179
665,0.77,37.948,25.568,34.289,31.854,5.891,7.206,6.179
666,0.774,38.084,25.615,34.289,31.847,5.892,7.165,6.179
667,0.771,38.152,25.603,34.279,31.854,5.892,7.206,6.261
668,0.77,38.076,25.545,34.279,31.847,5.892,7.247,6.18
669,0.774,38.2,25.568,34.279,31.847,5.892,7.247,6.179
670,0.777,38.317,25.576,34.279,31.854,5.851,7.288,6.179
671,0.777,38.366,25.587,34.289,31.85,5.891,7.166,6.22
672,0.784,37.983,25.599,34.27,31.854,5.892,7.206,6.098
673,0.777,38.123,25.568,34.27,31.85,5.851,7.206,6.016
674,0.787,38.21,25.587,34.289,31.85,5.769,7.043,6.015
675,0.777,38.23,25.607,34.251,31.84,5.728,7.042,5.974
676,0.758,37.837,25.638,34.221,31.84,5.727,7.042,6.096
677,0.754,37.968,25.615,34.259,31.847,5.809,7.123,6.097
678,0.761,38.084,25.537,34.25,31.847,5.85,7.124,6.097
679,0.764,38.028,25.54,34.26,31.85,5.81,7.124,6.097
680,0.757,37.912,25.532,34.25,31.847,5.81,7.083,6.056
681,0.767,38.026,25.552,34.26,31.85,5.85,7.083,6.056
682,0.764,38.113,25.599,34.26,31.847,5.769,7.083,6.056
683,0.767,37.683,25.576,34.269,31.843,5.809,7.042,6.097
684,0.757,37.793,25.509,34.25,31.85,5.85,6.96,6.097
685,0.757,37.9,25.552,34.241,31.847,5.769,6.96,6.097
686,0.77,37.968,25.603,34.231,31.84,5.891,7.0,5.975
687,0.78,37.595,25.584,34.221,31.847,5.851,6.96,6.177
688,0.771,37.745,25.576,34.25,31.847,5.851,7.0,6.057
689,0.774,37.9,25.603,34.241,31.854,5.932,7.123,6.219
690,0.771,37.978,25.568,34.279,31.861,6.096,7.165,6.342
691,0.78,37.633,25.576,34.289,31.864,6.056,7.165,6.221
692,0.787,37.793,25.658,34.27,31.858,6.056,6.962,6.139
693,0.787,37.871,25.557,34.241,31.847,5.975,6.919,6.098
694,0.78,37.92,25.548,34.25,31.861,5.974,7.041,6.138
695,0.767,37.441,25.63,34.25,31.854,5.974,7.001,6.219
696,0.757,37.59,25.643,34.269,31.85,6.015,6.96,6.22
697,0.77,37.678,25.592,34.25,31.85,5.974,7.0,6.22
698,0.767,37.755,25.576,34.25,31.847,6.015,7.041,6.22
699,0.761,37.411,25.595,34.26,31.861,6.056,7.082,6.261
700,0.761,37.532,25.572,34.25,31.861,6.097,7.123,6.221
701,0.761,37.639,25.583,34.25,31.857,6.056,7.165,6.261
702,0.761,37.573,25.662,34.26,31.854,6.137,7.165,6.302
703,0.757,37.418,25.553,34.231,31.85,6.138,7.124,6.221
704,0.754,37.532,25.544,34.24,31.847,6.057,7.124,6.18
705,0.767,37.61,25.564,34.221,31.843,5.934,7.083,6.179
706,0.767,37.208,25.556,34.212,31.847,6.014,7.164,6.301
707,0.77,37.281,25.54,34.221,31.847,6.096,7.287,6.343
708,0.764,37.425,25.571,34.24,31.85,6.056,7.288,6.343
709,0.767,37.522,25.544,34.221,31.85,6.056,7.247,6.303
710,0.777,37.111,25.564,34.221,31.854,6.056,7.288,6.343
711,0.777,37.26,25.583,34.231,31.85,6.015,7.288,6.343
712,0.78,37.367,25.65,34.212,31.85,6.015,7.207,6.303
713,0.777,37.426,25.557,34.211,31.847,6.015,7.206,6.302
714,0.771,37.139,25.587,34.221,31.847,5.974,7.287,6.302
715,0.767,37.261,25.615,34.202,31.847,6.055,7.207,6.302
716,0.757,37.377,25.607,34.202,31.847,6.015,7.247,6.302
717,0.744,37.436,25.592,34.211,31.854,6.056,7.288,6.384
718,0.751,37.043,25.58,34.221,31.85,6.056,7.288,6.425
719,0.751,37.164,25.623,34.221,31.854,6.056,7.329,6.385
720,0.757,37.309,25.564,34.231,31.861,6.137,7.41,6.547
721,0.757,37.368,25.587,34.26,31.861,6.138,7.411,6.468
722,0.761,37.129,25.611,34.25,31.861,6.138,7.289,6.426
723,0.757,37.241,25.584,34.231,31.851,6.057,7.247,6.426
724,0.748,37.338,25.591,34.231,31.85,6.056,7.288,6.344
725,0.757,37.311,25.556,34.231,31.847,6.056,7.247,6.343
726,0.761,37.08,25.615,34.221,31.85,6.097,7.247,6.384
727,0.761,37.203,25.607,34.221,31.847,6.056,7.288,6.385
728,0.767,37.319,25.564,34.231,31.854,6.056,7.247,6.385
729,0.767,36.956,25.576,34.212,31.857,6.097,7.206,6.385
730,0.774,37.038,25.56,34.221,31.854,6.097,7.206,6.425
731,0.761,37.164,25.568,34.221,31.85,6.097,7.287,6.426
732,0.774,37.251,25.603,34.231,31.854,6.178,7.247,6.344
733,0.771,37.003,25.592,34.221,31.861,6.139,7.206,6.384
734,0.764,37.125,25.599,34.221,31.851,6.138,7.287,6.344
735,0.751,37.251,25.564,34.221,31.844,6.138,7.207,6.262
736,0.744,37.329,25.634,34.202,31.843,6.016,7.125,6.221
737,0.751,36.879,25.6,34.183,31.847,5.974,7.124,6.261
738,0.738,37.018,25.588,34.173,31.84,6.015,7.165,6.262
739,0.734,37.135,25.58,34.154,31.843,6.015,7.206,6.302
740,0.738,37.194,25.63,34.201,31.854,6.096,7.287,6.262
741,0.738,36.887,25.584,34.183,31.847,6.138,7.288,6.221
742,0.734,37.028,25.58,34.202,31.85,6.098,7.166,6.261
743,0.738,37.135,25.623,34.183,31.84,6.097,7.287,6.302
744,0.738,37.194,25.576,34.288,31.847,6.097,7.247,6.221
745,0.751,37.031,25.541,34.203,31.843,6.097,7.288,6.18
746,0.748,37.135,25.595,34.183,31.85,6.097,7.207,6.179
747,0.747,37.232,25.592,34.192,31.85,6.097,7.287,6.098
748,0.751,37.252,25.545,34.202,31.844,6.097,7.207,6.138
749,0.751,36.878,25.536,34.183,31.843,6.016,7.206,6.219
750,0.744,36.97,25.509,34.173,31.847,6.056,7.287,6.139
751,0.744,37.096,25.555,34.192,31.854,6.137,7.451,6.301
752,0.751,36.944,25.583,34.23,31.864,6.26,7.534,6.384
753,0.767,37.057,25.595,34.231,31.861,6.221,7.453,6.303
754,0.77,37.183,25.564,34.221,31.861,6.098,7.33,6.18
755,0.757,37.232,25.607,34.202,31.847,6.056,7.451,6.179
756,0.741,36.926,25.638,34.192,31.85,6.097,7.452,6.179
757,0.751,37.067,25.584,34.192,31.85,6.138,7.412,6.22
758,0.738,37.202,25.529,34.202,31.854,6.098,7.452,6.22
759,0.731,37.281,25.567,34.202,31.857,6.097,7.412,6.22
760,0.734,36.888,25.568,34.211,31.861,6.056,7.493,6.22
761,0.734,37.038,25.556,34.202,31.854,6.097,7.494,6.302
762,0.734,37.154,25.607,34.202,31.857,6.097,7.534,6.343
763,0.738,37.213,25.576,34.192,31.861,6.016,7.494,6.221
764,0.738,36.983,25.576,34.211,31.857,6.015,7.453,6.261
765,0.747,37.115,25.607,34.192,31.851,5.974,7.452,6.18
766,0.747,37.203,25.662,34.163,31.844,5.933,7.33,6.179
767,0.738,37.223,25.6,34.173,31.837,5.811,7.289,6.179
768,0.734,36.974,25.595,34.154,31.84,5.891,7.369,6.179
769,0.741,37.106,25.588,34.163,31.84,5.933,7.411,6.261
770,0.734,37.232,25.498,34.182,31.847,5.974,7.411,6.262
771,0.744,37.338,25.516,34.192,31.847,5.893,7.452,6.343
772,0.754,36.898,25.606,34.183,31.85,5.892,7.412,6.181
773,0.751,37.009,25.564,34.163,31.847,5.973,7.411,6.179
774,0.748,37.135,25.548,34.163,31.847,5.852,7.371,6.139
775,0.747,36.963,25.579,34.163,31.847,5.891,7.37,6.138
776,0.734,37.058,25.615,34.163,31.85,5.973,7.33,6.138
777,0.728,37.174,25.576,34.173,31.847,5.852,7.37,6.138
778,0.725,37.261,25.56,34.163,31.84,5.769,7.33,6.179
779,0.721,36.85,25.599,34.163,31.843,5.85,7.37,6.098
780,0.731,36.999,25.545,34.173,31.843,5.851,7.37,6.3
781,0.725,37.144,25.568,34.182,31.861,5.973,7.452,6.384
782,0.724,37.222,25.634,34.192,31.861,6.015,7.534,6.385
783,0.744,36.983,25.572,34.211,31.861,6.015,7.494,6.303
784,0.754,37.134,25.583,34.202,31.857,5.934,7.412,6.262
785,0.748,37.213,25.63,34.164,31.847,5.933,7.452,6.139
786,0.741,37.252,25.615,34.163,31.854,5.852,7.371,6.219
787,0.738,36.917,25.588,34.173,31.854,5.891,7.411,6.18
788,0.734,37.067,25.58,34.163,31.854,5.851,7.411,6.261
789,0.734,37.174,25.607,34.163,31.854,5.932,7.371,6.18
790,0.738,37.204,25.588,34.211,31.85,5.974,7.37,6.261
791,0.751,37.137,25.572,34.183,31.854,5.893,7.411,6.221
792,0.738,37.232,25.638,34.163,31.857,5.892,7.411,6.22
793,0.734,37.358,25.487,34.192,31.864,5.933,7.371,6.22
794,0.744,37.579,25.59,34.183,31.851,5.974,7.37,6.18
795,0.741,37.112,25.584,34.163,31.847,5.893,7.289,6.261
796,0.734,37.193,25.576,34.163,31.85,5.851,7.329,6.221
797,0.725,37.309,25.529,34.163,31.85,5.851,7.248,6.139
798,0.728,37.042,25.536,34.153,31.844,5.81,7.166,6.057
799,0.715,37.097,25.571,34.134,31.837,5.81,7.246,6.097
800,0.711,37.232,25.501,34.134,31.843,5.891,7.247,6.219
801,0.724,37.338,25.559,34.153,31.854,5.892,7.288,6.18
802,0.728,36.965,25.618,34.144,31.854,5.933,7.288,6.22
803,0.721,37.115,25.521,34.172,31.847,5.852,7.329,6.18
804,0.728,37.222,25.618,34.163,31.85,5.891,7.289,6.22
805,0.734,37.3,25.6,34.153,31.85,5.851,7.247,6.18
806,0.738,36.927,25.646,34.134,31.847,5.851,7.206,6.139
807,0.731,37.048,25.576,34.153,31.843,5.81,7.206,6.098
808,0.725,37.174,25.587,34.153,31.843,5.81,7.165,6.178
809,0.724,37.223,25.599,34.134,31.84,5.769,7.165,6.098
810,0.731,37.089,25.529,34.144,31.843,5.891,7.206,6.138
811,0.731,37.231,25.579,34.153,31.847,5.811,7.247,6.26
812,0.731,37.338,25.599,34.153,31.854,5.891,7.288,6.262
813,0.734,37.397,25.51,34.173,31.861,5.973,7.288,6.343
814,0.744,37.052,25.591,34.173,31.861,5.974,7.329,6.303
815,0.741,37.202,25.63,34.202,31.857,5.893,7.126,6.18
816,0.741,37.29,25.619,34.154,31.847,5.892,7.083,6.179
817,0.734,37.607,25.537,34.144,31.847,5.811,7.083,6.139
818,0.721,36.959,25.564,34.134,31.85,5.891,7.083,6.138
819,0.724,37.086,25.599,34.144,31.854,5.892,7.123,6.26
820,0.724,37.183,25.471,34.153,31.854,5.851,7.165,6.18
821,0.721,36.983,25.582,34.134,31.854,5.851,7.084,6.179
822,0.728,37.029,25.607,34.153,31.854,5.851,7.083,6.22
823,0.715,37.164,25.603,34.163,31.854,5.851,7.083,6.302
824,0.728,37.251,25.572,34.153,31.861,5.851,7.123,6.262
825,0.728,37.032,25.622,34.144,31.854,5.81,7.124,6.221
826,0.734,37.164,25.623,34.153,31.857,5.891,7.124,6.18
827,0.731,37.29,25.541,34.153,31.854,5.851,7.043,6.179
828,0.734,37.358,25.583,34.115,31.854,5.81,7.001,6.098
829,0.731,36.831,25.595,34.143,31.847,5.728,6.96,6.097
830,0.731,36.951,25.65,34.115,31.847,5.687,6.878,6.056
831,0.731,37.057,25.6,34.096,31.84,5.768,6.877,6.056
832,0.731,37.097,25.619,34.105,31.843,5.809,6.959,6.097
833,0.734,36.934,25.6,34.105,31.85,5.81,7.0,6.138
834,0.741,37.096,25.607,34.124,31.847,5.85,7.001,6.098
835,0.731,37.193,25.631,34.105,31.85,5.851,7.001,6.178
836,0.725,37.252,25.565,34.134,31.847,5.81,7.001,6.057
837,0.731,36.821,25.47,34.115,31.85,5.85,7.041,6.178
838,0.728,36.96,25.5,34.134,31.847,5.81,6.96,6.139
839,0.718,37.086,25.552,34.115,31.847,5.85,6.96,6.098
840,0.724,37.433,25.474,34.115,31.843,5.81,6.96,6.097
841,0.711,37.072,25.543,34.096,31.85,5.81,6.919,6.056
842,0.711,37.183,25.61,34.134,31.847,5.85,6.919,6.056
843,0.721,37.28,25.498,34.134,31.85,5.851,6.959,6.137
844,0.721,36.754,25.544,34.115,31.854,5.891,7.082,6.219
845,0.728,36.749,25.638,34.124,31.854,6.014,7.042,6.302
846,0.744,36.902,25.654,34.144,31.864,6.096,7.082,6.302
847,0.747,37.009,25.604,34.125,31.861,6.056,7.083,6.221
848,0.744,36.895,25.568,34.144,31.851,5.893,6.961,6.139
849,0.741,37.028,25.63,34.115,31.847,5.933,6.919,6.138
850,0.741,37.135,25.561,34.115,31.857,5.974,6.919,6.179
851,0.744,37.232,25.591,34.134,31.847,5.974,6.959,6.179
852,0.757,36.638,25.654,34.115,31.85,5.933,6.919,6.139
853,0.754,36.776,25.502,34.115,31.85,5.892,6.919,6.219
854,0.761,36.912,25.575,34.124,31.85,5.933,6.878,6.098
855,0.751,36.961,25.654,34.105,31.847,5.974,6.837,6.219
856,0.748,36.741,25.655,34.105,31.861,5.974,6.918,6.139
857,0.751,36.844,25.596,34.105,31.854,5.933,6.919,6.179
858,0.757,36.98,25.619,34.115,31.854,5.974,6.837,6.179
859,0.77,37.019,25.611,34.115,31.854,5.974,6.877,6.179
860,0.777,36.723,25.537,34.115,31.85,5.852,6.796,6.098
861,0.78,36.806,25.556,34.076,31.847,5.81,6.755,6.097
862,0.78,36.912,25.599,34.066,31.843,5.728,6.632,6.056
863,0.793,37.0,25.463,34.076,31.843,5.809,6.834,6.137
864,0.79,36.78,25.547,34.095,31.85,5.932,6.837,6.219
865,0.813,36.912,25.591,34.095,31.854,5.933,6.837,6.139
866,0.839,37.019,25.603,34.095,31.847,5.892,6.796,6.219
867,0.843,36.713,25.584,34.086,31.847,5.892,6.795,6.18
868,0.843,36.739,25.56,34.095,31.847,5.811,6.795,6.261
869,0.853,36.864,25.579,34.086,31.843,5.85,6.755,6.139
870,0.856,36.951,25.568,34.095,31.847,5.81,6.673,6.138
871,0.856,36.319,25.638,34.067,31.847,5.728,6.713,6.138
872,0.853,36.437,25.6,34.076,31.843,5.809,6.713,6.138
873,0.846,36.563,25.568,34.066,31.843,5.81,6.672,6.138
874,0.843,36.651,25.595,34.066,31.847,5.81,6.835,6.26
875,0.849,36.92,25.634,34.057,31.854,5.932,6.755,6.302
876,0.846,37.096,25.608,34.095,31.864,5.933,6.876,6.302
877,0.849,37.232,25.541,34.124,31.868,5.974,6.877,6.343
878,0.869,37.31,25.599,34.124,31.861,5.933,6.837,6.14
879,0.872,36.073,25.584,34.076,31.861,5.852,6.755,6.138
880,0.859,36.195,25.584,34.133,31.844,5.851,6.795,6.179
881,0.866,36.302,25.595,34.077,31.854,5.81,6.836,6.179
882,0.862,36.341,25.631,34.076,31.85,5.932,6.837,6.261
883,0.856,36.524,25.529,34.133,31.85,5.811,6.877,6.221
884,0.853,36.65,25.595,34.077,31.847,5.85,6.877,6.22
885,0.853,36.767,25.592,34.086,31.854,5.851,6.877,6.261
886,0.853,36.787,25.595,34.067,31.861,5.891,6.837,6.302
887,0.866,36.289,25.533,34.095,31.851,5.892,6.918,6.302
888,0.866,36.418,25.56,34.086,31.854,5.851,6.959,6.302
889,0.859,36.525,25.599,34.086,31.854,5.851,7.0,6.221
890,0.869,36.382,25.599,34.095,31.861,5.851,6.96,6.261
891,0.879,36.428,25.607,34.076,31.854,5.891,6.919,6.221
892,0.889,36.544,25.588,34.066,31.847,5.811,6.837,6.098
893,0.879,36.612,25.584,34.057,31.837,5.769,6.796,6.056
894,0.876,36.114,25.576,34.028,31.836,5.687,6.795,6.097
895,0.866,36.253,25.626,34.037,31.84,5.849,6.877,6.097
896,0.862,36.398,25.607,34.056,31.843,5.769,6.918,6.178
897,0.872,36.486,25.568,34.057,31.847,5.85,6.919,6.22
898,0.876,36.247,25.56,34.066,31.85,5.81,6.919,6.139
899,0.872,36.37,25.599,34.066,31.85,5.81,6.878,6.138
900,0.876,36.524,25.65,34.066,31.85,5.81,6.918,6.138
901,0.879,36.574,25.619,34.038,31.844,5.769,6.878,6.138
902,0.872,36.047,25.611,34.047,31.843,5.809,6.918,6.179
903,0.869,36.224,25.572,34.057,31.843,5.728,6.959,6.139
904,0.859,36.321,25.564,34.018,31.847,5.809,6.96,6.138
905,0.872,36.351,25.622,34.047,31.84,5.769,6.96,6.179
906,0.866,36.141,25.58,34.037,31.847,5.809,7.0,6.179
907,0.869,36.292,25.56,34.056,31.854,5.891,7.041,6.342
908,0.872,36.418,25.56,34.076,31.857,5.973,7.123,6.303
909,0.885,36.458,25.564,34.076,31.861,5.893,7.165,6.302
910,0.879,36.132,25.611,34.066,31.854,5.811,7.002,6.221
911,0.869,36.234,25.607,34.038,31.847,5.769,7.001,6.22
912,0.876,36.322,25.638,34.037,31.85,5.809,7.041,6.18
913,0.869,36.102,25.639,34.056,31.847,5.81,7.042,6.179
914,0.843,36.109,25.569,34.028,31.85,5.85,7.001,6.179
915,0.83,36.234,25.646,34.018,31.844,5.851,7.082,6.22
916,0.823,36.331,25.658,34.027,31.85,5.81,7.042,6.22
917,0.82,35.833,25.569,34.028,31.847,5.85,7.082,6.261
918,0.82,35.953,25.595,34.037,31.861,5.81,7.002,6.262
919,0.813,36.089,25.615,34.047,31.861,5.81,7.041,6.221
920,0.816,36.176,25.471,34.057,31.861,5.769,7.042,6.261
921,0.8,35.841,25.586,34.047,31.854,5.768,6.96,6.139
922,0.79,36.001,25.646,34.037,31.854,5.809,6.96,6.138
923,0.79,36.079,25.627,34.037,31.84,5.688,6.838,6.138
924,0.793,36.147,25.576,34.009,31.836,5.564,6.796,6.098
925,0.78,36.052,25.623,33.989,31.843,5.685,6.877,6.178
926,0.774,36.205,25.65,34.018,31.847,5.768,6.837,6.179
927,0.774,36.321,25.565,34.027,31.847,5.768,6.796,6.179
928,0.771,36.399,25.568,34.018,31.847,5.809,6.836,6.179
929,0.767,35.681,25.583,34.018,31.85,5.728,6.837,6.179
930,0.767,35.827,25.599,34.018,31.847,5.768,6.877,6.139
931,0.774,35.953,25.615,33.999,31.85,5.728,6.877,6.138
932,0.777,35.993,25.596,34.008,31.85,5.768,6.796,6.098
933,0.764,35.763,25.572,33.999,31.85,5.728,6.795,6.056
934,0.754,35.895,25.572,33.989,31.847,5.646,6.755,6.015
935,0.748,35.992,25.599,33.979,31.84,5.727,6.795,6.056
936,0.731,35.801,25.572,33.998,31.843,5.687,6.795,6.137
937,0.725,35.799,25.587,34.046,31.847,5.768,6.836,6.138
938,0.718,35.934,25.615,33.999,31.85,5.809,6.877,6.301
939,0.721,36.031,25.642,34.027,31.861,5.891,6.918,6.221
940,0.728,35.61,25.643,34.037,31.861,5.933,6.919,6.302
941,0.728,35.74,25.611,34.028,31.857,5.77,6.837,6.058
942,0.718,35.856,25.635,34.008,31.847,5.809,6.877,6.178
943,0.721,35.934,25.619,34.018,31.857,5.769,6.837,6.139
944,0.718,35.599,25.607,33.989,31.854,5.809,6.837,6.179
945,0.715,35.721,25.631,33.989,31.847,5.688,6.877,6.057
946,0.718,35.856,25.588,33.989,31.85,5.727,6.877,6.219
947,0.715,35.905,25.529,33.998,31.85,5.768,6.918,6.139
948,0.711,35.561,25.626,33.999,31.85,5.85,6.919,6.138
949,0.711,35.701,25.584,34.008,31.854,5.81,6.959,6.138
950,0.708,35.837,25.627,34.027,31.85,5.81,6.96,6.138
951,0.695,35.896,25.627,33.999,31.861,5.81,6.919,6.219
952,0.701,35.493,25.615,33.989,31.854,5.81,6.919,6.058
953,0.701,35.624,25.568,33.979,31.847,5.728,6.919,6.015
954,0.685,35.73,25.587,33.97,31.837,5.646,6.837,5.974
955,0.679,35.732,25.623,33.95,31.836,5.645,6.837,5.974
956,0.659,35.473,25.557,33.95,31.843,5.767,6.999,6.137
957,0.662,35.623,25.525,33.988,31.85,5.809,7.082,6.057
958,0.669,35.74,25.567,33.998,31.844,5.769,7.123,6.097
959,0.665,35.549,25.622,33.979,31.847,5.809,7.165,6.138
960,0.669,35.49,25.6,33.96,31.843,5.85,7.206,6.057
961,0.669,35.614,25.611,33.969,31.85,5.81,7.165,6.015
962,0.659,35.721,25.623,33.96,31.847,5.769,7.206,6.137
963,0.659,35.434,25.596,33.95,31.85,5.687,7.247,6.057
964,0.662,35.556,25.634,33.941,31.847,5.768,7.206,6.097
965,0.656,35.672,25.627,33.96,31.843,5.768,7.247,6.056
966,0.675,35.76,25.623,33.95,31.843,5.809,7.288,6.137
967,0.678,35.31,25.572,33.96,31.847,5.81,7.369,6.219
968,0.675,35.478,25.63,33.96,31.854,5.932,7.37,6.18
969,0.685,35.614,25.658,34.008,31.861,5.974,7.452,6.261
970,0.685,35.702,25.627,33.999,31.854,5.974,7.371,6.18
971,0.682,35.434,25.639,33.979,31.861,5.893,7.33,6.139
972,0.698,35.537,25.576,33.941,31.847,5.811,7.289,6.057
973,0.688,35.662,25.572,33.94,31.847,5.81,7.288,6.056
974,0.682,35.702,25.599,33.95,31.85,5.85,7.247,6.097
975,0.682,35.329,25.611,33.95,31.85,5.81,7.288,6.138
976,0.679,35.488,25.576,33.95,31.854,5.891,7.288,6.138
977,0.675,35.585,25.552,33.96,31.857,5.851,7.247,6.138
978,0.682,35.625,25.591,33.96,31.847,5.891,7.288,6.219
979,0.669,35.309,25.634,33.95,31.85,5.892,7.125,6.18
980,0.669,35.459,25.627,33.95,31.854,5.892,7.165,6.179
981,0.672,35.556,25.627,33.95,31.847,5.851,7.124,6.22
982,0.678,35.442,25.627,33.96,31.861,5.891,7.165,6.22
983,0.672,35.431,25.619,33.95,31.851,5.892,7.124,6.22
984,0.669,35.546,25.619,33.95,31.844,5.811,7.002,6.058
985,0.669,35.643,25.646,33.921,31.837,5.769,7.001,6.015
986,0.669,35.059,25.623,33.902,31.84,5.728,6.879,6.056
987,0.659,35.149,25.514,33.93,31.84,5.727,7.0,6.137
988,0.669,35.275,25.591,33.921,31.847,5.809,6.96,6.179
989,0.688,35.391,25.615,33.931,31.85,5.85,6.96,6.139
990,0.705,35.239,25.623,33.921,31.854,5.81,6.96,6.138
991,0.724,35.362,25.635,33.921,31.847,5.81,6.919,6.138
992,0.76,35.488,25.592,33.902,31.85,5.85,6.878,6.138
993,0.809,35.566,25.599,33.921,31.847,5.81,6.877,6.098
994,0.842,35.222,25.615,33.902,31.847,5.81,7.0,6.056
995,0.888,35.333,25.623,33.911,31.843,5.81,6.838,6.056
996,0.912,35.478,25.518,33.911,31.843,5.728,6.877,6.097
997,0.957,35.528,25.552,33.911,31.847,5.768,6.796,6.138
998,1.0,35.135,25.583,33.883,31.84,5.768,6.917,6.179
999,1.03,35.265,25.572,33.911,31.85,5.809,6.878,6.22
1000,1.069,35.391,25.568,33.921,31.85,5.85,6.959,6.302
1001,1.108,35.431,25.591,33.94,31.861,5.932,7.0,6.343
1002,1.132,35.182,25.584,33.95,31.861,5.974,7.082,6.384
1003,1.158,35.352,25.623,33.95,31.864,5.852,6.961,6.303
1004,1.2,35.431,25.623,33.931,31.847,5.769,6.878,6.262
1005,1.25,35.316,25.678,33.921,31.854,5.809,6.837,6.262
1006,1.302,35.181,25.577,33.921,31.854,5.81,6.837,6.262
1007,1.365,35.323,25.619,33.911,31.854,5.81,6.837,6.221
1008,1.414,35.411,25.619,33.921,31.85,5.85,6.877,6.22
1009,1.447,35.067,25.623,33.911,31.854,5.851,6.877,6.261
1010,1.486,35.178,25.584,33.921,31.847,5.729,6.837,6.302
1011,1.529,35.295,25.638,33.921,31.854,5.809,6.796,6.302
1012,1.568,35.363,25.615,33.921,31.854,5.891,6.836,6.302
1013,1.608,34.942,25.588,33.931,31.85,5.892,6.837,6.302
1014,1.641,35.062,25.638,33.902,31.857,5.811,6.796,6.302
1015,1.648,35.197,25.674,33.902,31.854,5.85,6.836,6.262
1016,1.661,35.276,25.553,33.892,31.847,5.769,6.674,6.18
1017,1.654,35.056,25.614,33.892,31.833,5.728,6.672,6.22
1018,1.615,35.188,25.619,33.863,31.833,5.687,6.631,6.261
1019,1.579,35.304,25.646,33.873,31.843,5.727,6.753,6.302
1020,1.546,35.353,25.596,33.892,31.847,5.85,6.754,6.302
1021,1.513,36.035,25.607,33.911,31.85,5.81,6.795,6.262
1022,1.484,36.157,25.596,33.892,31.854,5.769,6.877,6.302
1023,1.444,36.282,25.56,33.902,31.847,5.809,6.796,6.302
1024,1.372,36.303,25.626,33.892,31.847,5.85,6.795,6.302
1025,1.274,34.548,25.635,33.892,31.843,5.851,6.836,6.302
1026,1.169,34.674,25.537,33.873,31.847,5.81,6.796,6.384
1027,1.041,34.791,25.575,33.873,31.843,5.728,6.795,6.425
1028,0.881,35.061,25.599,33.873,31.837,5.768,6.795,6.466
1029,0.755,35.217,25.611,33.873,31.847,5.768,6.877,6.629
1030,0.66,35.372,25.615,33.882,31.85,5.809,6.877,6.794
1031,0.574,35.469,25.678,33.892,31.854,5.972,7.04,7.161
1032,0.512,34.914,25.624,33.883,31.861,5.933,7.123,7.368
1033,0.446,35.023,25.639,33.902,31.861,5.974,7.002,7.614
1034,0.377,35.13,25.67,33.892,31.854,5.933,6.879,7.657
1035,0.318,35.217,25.67,33.863,31.847,5.892,6.877,7.861
1036,0.265,34.931,25.561,33.863,31.85,5.851,6.959,8.107
1037,0.216,35.062,25.591,33.863,31.854,5.851,6.96,8.272
1038,0.173,35.207,25.599,33.882,31.85,5.851,6.919,8.477
1039,0.117,35.266,25.572,33.873,31.847,5.851,6.878,8.601
1040,0.087,34.873,25.603,33.873,31.85,5.851,6.877,8.724
1041,0.068,35.013,25.631,33.873,31.85,5.81,6.837,8.848
1042,0.067,35.139,25.58,33.882,31.854,5.85,6.837,8.889
1043,0.054,35.208,25.607,33.892,31.857,5.851,6.877,9.052
1044,0.054,34.998,25.654,33.873,31.854,5.81,6.877,9.013
1045,0.057,35.111,25.651,33.873,31.84,5.85,6.877,9.176
1046,0.08,35.236,25.604,33.882,31.85,5.769,6.837,9.137
1047,0.094,35.247,25.494,33.863,31.837,5.687,6.674,9.217
1048,0.11,34.912,25.575,33.844,31.84,5.687,6.672,9.34
1049,0.113,35.033,25.595,33.834,31.843,5.727,6.753,9.626
1050,0.12,35.14,25.611,33.834,31.847,5.809,6.795,9.792
1051,0.139,35.131,25.611,33.863,31.847,5.81,6.795,10.078
1052,0.162,34.901,25.603,33.873,31.85,5.85,6.755,10.243
1053,0.176,35.071,25.642,33.854,31.844,5.729,6.795,10.489
1054,0.182,35.159,25.635,33.844,31.847,5.809,6.755,10.695
1055,0.202,34.901,25.67,33.853,31.847,5.728,6.836,10.737
1056,0.209,34.985,25.623,33.853,31.85,5.768,6.755,11.022
1057,0.222,35.149,25.615,33.853,31.847,5.728,6.673,11.107
1058,0.241,35.218,25.627,33.815,31.843,5.687,6.753,11.27
1059,0.264,34.796,25.685,33.834,31.843,5.687,6.714,11.475
1060,0.297,34.945,25.674,33.844,31.85,5.809,6.835,11.518
1061,0.333,35.1,25.624,33.844,31.854,5.85,6.958,11.64
1062,0.369,35.179,25.658,33.863,31.857,5.891,6.96,11.723
1063,0.412,34.767,25.627,33.873,31.861,5.811,6.878,11.642
1064,0.458,34.907,25.615,33.844,31.844,5.769,6.796,11.56
1065,0.491,34.995,25.646,33.844,31.85,5.809,6.836,11.478
1066,0.54,35.063,25.584,33.834,31.85,5.728,6.837,11.436
1067,0.583,34.833,25.474,33.844,31.847,5.809,6.714,11.355
1068,0.609,34.975,25.575,33.834,31.847,5.688,6.794,11.273
1069,0.642,35.101,25.607,33.844,31.85,5.727,6.795,11.15
1070,0.662,35.14,25.631,33.834,31.847,5.809,6.795,11.108
1071,0.682,34.815,25.654,33.844,31.85,5.728,6.877,11.067
1072,0.705,34.955,25.588,33.863,31.847,5.809,6.796,10.904
1073,0.724,35.072,25.623,33.834,31.854,5.81,6.877,10.821
1074,0.734,35.102,25.623,33.844,31.85,5.81,6.837,10.617
1075,0.747,34.786,25.65,33.825,31.854,5.769,6.796,10.574
1076,0.738,34.945,25.545,33.824,31.85,5.687,6.673,10.33
1077,0.734,35.024,25.571,33.796,31.844,5.646,6.713,10.246
1078,0.728,34.804,25.615,33.786,31.843,5.727,6.713,10.164
1079,0.728,34.907,25.623,33.805,31.847,5.768,6.794,10.122
1080,0.734,35.062,25.619,33.824,31.854,5.768,6.836,10.041
1081,0.734,35.159,25.631,33.805,31.85,5.809,6.837,9.836
1082,0.738,34.729,25.646,33.786,31.847,5.728,6.877,9.794
1083,0.734,34.887,25.604,33.814,31.85,5.768,6.877,9.712
1084,0.738,35.004,25.642,33.824,31.847,5.687,6.877,9.589
1085,0.738,35.082,25.693,33.805,31.847,5.809,6.877,9.466
1086,0.754,34.709,25.585,33.795,31.85,5.728,6.837,9.383
1087,0.748,34.868,25.568,33.805,31.844,5.727,6.877,9.261
1088,0.754,34.994,25.58,33.795,31.84,5.768,6.877,9.259
1089,0.764,35.043,25.607,33.805,31.836,5.768,6.959,9.259
1090,0.761,34.795,25.576,33.805,31.85,5.809,7.0,9.178
1091,0.777,34.936,25.634,33.824,31.857,5.932,7.123,9.177
1092,0.784,35.072,25.6,33.834,31.864,5.933,7.165,9.177
1093,0.797,35.14,25.576,33.844,31.861,5.852,7.084,9.015
1094,0.794,34.671,25.677,33.825,31.851,5.81,7.002,8.891
1095,0.79,34.791,25.659,33.796,31.847,5.81,6.96,8.849
1096,0.777,34.898,25.573,33.805,31.843,5.81,7.041,8.727
1097,0.774,35.129,25.638,33.805,31.847,5.81,7.042,8.685
1098,0.78,34.92,25.674,33.795,31.854,5.728,7.001,8.644
1099,0.774,35.052,25.686,33.805,31.85,5.768,7.041,8.644
1100,0.78,35.169,25.659,33.805,31.854,5.728,7.082,8.521
1101,0.777,34.69,25.666,33.786,31.85,5.727,7.042,8.479
1102,0.79,34.753,25.623,33.795,31.854,5.85,7.082,8.398
1103,0.78,34.897,25.588,33.814,31.85,5.81,7.123,8.438
1104,0.787,35.004,25.634,33.824,31.854,5.81,7.083,8.357
1105,0.79,34.775,25.623,33.796,31.854,5.688,7.083,8.193
1106,0.803,34.907,25.561,33.786,31.844,5.646,7.083,8.192
1107,0.794,35.023,25.634,33.776,31.837,5.645,6.961,8.07
1108,0.79,35.092,25.619,33.776,31.836,5.645,7.041,8.109
1109,0.793,34.661,25.646,33.776,31.847,5.686,7.164,8.069
1110,0.8,34.819,25.604,33.786,31.85,5.727,7.124,8.069
1111,0.816,34.936,25.638,33.786,31.85,5.768,7.124,8.069
1112,0.813,34.995,25.533,33.776,31.85,5.687,7.165,7.946
1113,0.823,34.602,25.599,33.766,31.847,5.727,7.124,7.945
1114,0.813,34.752,25.631,33.776,31.854,5.768,7.124,7.864
1115,0.816,34.868,25.631,33.766,31.844,5.687,7.043,7.822
1116,0.807,34.927,25.533,33.766,31.843,5.687,7.042,7.822
1117,0.807,34.65,25.56,33.776,31.847,5.768,7.042,7.781
1118,0.8,34.771,25.607,33.757,31.833,5.768,7.042,7.7
1119,0.807,34.888,25.623,33.766,31.847,5.809,7.042,7.699
1120,0.803,35.186,25.643,33.776,31.85,5.891,7.123,7.74
1121,0.81,34.758,25.651,33.766,31.861,5.892,7.124,7.781
1122,0.82,34.907,25.604,33.795,31.861,5.973,7.205,7.781
1123,0.82,35.043,25.631,33.824,31.861,6.015,7.125,7.659
1124,0.833,34.689,25.666,33.796,31.861,5.974,7.043,7.576
1125,0.826,34.714,25.647,33.757,31.851,5.893,7.001,7.535
1126,0.83,34.849,25.584,33.785,31.847,5.892,7.041,7.494
1127,0.83,34.936,25.591,33.766,31.854,5.973,7.001,7.453
1128,0.833,34.544,25.611,33.766,31.854,5.893,7.001,7.493
1129,0.833,34.694,25.603,33.776,31.847,5.851,7.001,7.453
1130,0.836,34.839,25.615,33.766,31.847,5.932,7.041,7.452
1131,0.843,34.917,25.662,33.747,31.854,5.974,7.001,7.33
1132,0.849,34.573,25.565,33.756,31.85,5.933,7.041,7.329
1133,0.853,34.732,25.622,33.757,31.85,6.014,6.96,7.37
1134,0.859,34.859,25.639,33.766,31.847,5.934,7.0,7.289
1135,0.853,34.927,25.647,33.738,31.847,5.974,6.96,7.247
1136,0.846,34.544,25.537,33.756,31.85,5.893,6.878,7.166
1137,0.84,34.665,25.583,33.737,31.847,5.811,6.796,7.124
1138,0.843,34.772,25.623,33.708,31.84,5.81,6.714,7.043
1139,0.839,34.801,25.623,33.689,31.843,5.81,6.794,7.082
1140,0.839,34.687,25.611,33.727,31.85,5.891,6.836,7.164
1141,0.846,34.829,25.638,33.728,31.847,5.811,6.877,7.002
1142,0.853,34.955,25.615,33.728,31.854,5.891,6.877,7.041
1143,0.846,35.283,25.623,33.728,31.847,5.811,6.918,7.123
1144,0.859,34.509,25.635,33.708,31.85,5.85,6.959,7.083
1145,0.862,34.617,25.682,33.708,31.844,5.851,6.96,7.042
1146,0.869,34.742,25.588,33.708,31.847,5.81,6.96,7.001
1147,0.869,34.552,25.603,33.708,31.847,5.85,6.919,6.919
1148,0.882,34.627,25.642,33.699,31.84,5.891,7.0,6.919
1149,0.882,34.752,25.643,33.689,31.84,5.811,7.041,6.959
1150,0.879,34.849,25.635,33.698,31.836,5.85,7.082,7.041
1151,0.885,34.38,25.67,33.708,31.85,5.891,7.164,7.082
1152,0.892,34.529,25.639,33.737,31.861,6.014,7.287,7.164
1153,0.902,34.684,25.635,33.718,31.861,5.974,7.288,7.084
1154,0.902,34.781,25.639,33.718,31.857,6.055,7.288,7.002
1155,0.905,34.523,25.666,33.718,31.861,5.893,7.166,6.96
1156,0.902,34.665,25.534,33.708,31.847,5.933,7.287,7.0
1157,0.892,34.772,25.579,33.699,31.85,5.974,7.207,6.96
1158,0.889,34.84,25.623,33.679,31.854,6.015,7.206,6.96
1159,0.892,34.438,25.596,33.689,31.85,5.974,7.247,6.919
1160,0.899,34.616,25.615,33.689,31.854,5.974,7.328,6.919
1161,0.899,34.714,25.635,33.67,31.854,5.974,7.289,6.878
1162,0.902,34.772,25.662,33.679,31.861,6.015,7.288,6.959
1163,0.905,34.418,25.631,33.698,31.854,6.056,7.288,6.878
1164,0.912,34.549,25.658,33.679,31.854,6.056,7.288,6.755
1165,0.918,34.655,25.713,33.679,31.854,6.056,7.247,6.876
1166,0.935,34.944,25.589,33.679,31.85,6.015,7.206,6.837
1167,0.938,34.506,25.623,33.679,31.844,5.934,7.206,6.674
1168,0.938,34.626,25.603,33.641,31.84,5.933,7.125,6.672
1169,0.935,34.704,25.65,33.64,31.843,5.892,7.124,6.631
1170,0.938,34.36,25.623,33.631,31.843,6.054,7.246,6.753
1171,0.945,34.414,25.658,33.64,31.85,6.015,7.206,6.754
1172,0.951,34.539,25.623,33.669,31.847,6.056,7.206,6.795
1173,0.951,34.684,25.623,33.65,31.847,6.015,7.125,6.755
1174,0.951,34.158,25.701,33.641,31.837,6.056,7.246,6.795
1175,0.961,34.287,25.671,33.64,31.854,5.975,7.166,6.714
1176,0.951,34.413,25.682,33.64,31.844,6.015,7.165,6.713
1177,0.951,34.529,25.655,33.66,31.85,6.015,7.165,6.632
1178,0.958,34.291,25.631,33.631,31.847,5.974,7.124,6.712
1179,0.951,34.461,25.615,33.612,31.843,5.933,7.165,6.672
1180,0.958,34.568,25.623,33.64,31.847,5.974,7.165,6.713
1181,0.964,34.627,25.635,33.621,31.843,6.015,7.206,6.754
1182,0.964,34.311,25.568,33.64,31.847,6.056,7.287,6.836
1183,0.968,34.461,25.587,33.66,31.857,6.056,7.41,6.877
1184,0.987,34.616,25.681,33.669,31.861,6.178,7.371,6.877
1185,0.991,34.685,25.651,33.669,31.857,6.098,7.37,6.796
1186,0.994,34.273,25.631,33.65,31.847,6.016,7.289,6.755
1187,0.997,34.403,25.666,33.65,31.85,5.974,7.329,6.714
1188,0.994,34.52,25.682,33.641,31.847,5.974,7.329,6.754
1189,1.01,34.521,25.694,33.621,31.847,5.974,7.329,6.754
1190,1.01,34.262,25.686,33.611,31.85,6.015,7.451,6.795
1191,1.014,34.384,25.702,33.631,31.85,6.056,7.493,6.836
1192,1.02,34.51,25.663,33.612,31.85,6.056,7.534,6.796
1193,1.027,34.233,25.643,33.631,31.85,6.015,7.616,6.714
1194,1.027,34.278,25.693,33.631,31.854,6.056,7.617,6.794
1195,1.03,34.403,25.569,33.631,31.85,6.056,7.779,6.755
1196,1.033,34.51,25.591,33.64,31.854,6.137,7.781,6.795
1197,1.037,34.176,25.658,33.631,31.857,6.098,7.862,6.755
1198,1.033,34.287,25.682,33.631,31.854,6.097,7.7,6.632
1199,1.037,34.403,25.647,33.612,31.85,6.016,7.74,6.59
1200,1.04,34.481,25.654,33.602,31.833,6.015,7.659,6.631
1201,1.037,34.262,25.647,33.583,31.836,5.974,7.739,6.631
1202,1.03,34.422,25.592,33.611,31.84,6.096,7.781,6.712
1203,1.043,34.568,25.607,33.592,31.854,6.138,7.822,6.713
1204,1.05,34.627,25.666,33.621,31.847,6.098,7.781,6.632
1205,1.069,34.119,25.592,33.611,31.847,6.219,7.822,6.631
1206,1.073,34.267,25.642,33.669,31.84,6.098,7.741,6.631
1207,1.083,34.403,25.639,33.602,31.85,6.138,7.74,6.672
1208,1.089,34.443,25.647,33.573,31.847,6.098,7.74,6.631
1209,1.099,34.261,25.662,33.601,31.847,6.138,7.659,6.55
1210,1.106,34.403,25.631,33.592,31.847,6.098,7.617,6.59
1211,1.106,34.501,25.65,33.592,31.84,6.056,7.535,6.59
1212,1.102,34.54,25.58,33.592,31.84,6.137,7.575,6.549
1213,1.119,34.214,25.638,33.602,31.85,6.179,7.657,6.508
1214,1.115,34.355,25.713,33.602,31.861,6.22,7.658,6.63
1215,1.132,34.462,25.651,33.602,31.861,6.302,7.658,6.712
1216,1.138,34.405,25.678,33.678,31.861,6.384,7.698,6.672
1217,1.135,34.481,25.651,33.631,31.861,6.344,7.577,6.591
1218,1.148,34.616,25.701,33.602,31.857,6.221,7.535,6.549
1219,1.142,34.694,25.698,33.592,31.847,6.22,7.412,6.508
1220,1.142,34.34,25.608,33.592,31.847,6.18,7.493,6.589
1221,1.142,34.461,25.662,33.592,31.861,6.22,7.453,6.549
1222,1.145,34.587,25.506,33.611,31.851,6.22,7.452,6.59
1223,1.145,34.694,25.606,33.602,31.854,6.22,7.493,6.631
1224,1.145,34.484,25.623,33.583,31.85,6.22,7.453,6.509
1225,1.152,34.655,25.607,33.592,31.854,6.22,7.493,6.589
1226,1.165,34.762,25.638,33.592,31.854,6.18,7.453,6.549
1227,1.181,34.84,25.615,33.592,31.861,6.139,7.534,6.549
1228,1.188,34.639,25.689,33.592,31.854,6.26,7.534,6.549
1229,1.194,34.791,25.674,33.592,31.854,6.262,7.494,6.549
1230,1.194,34.898,25.647,33.592,31.847,6.18,7.453,6.549
1231,1.194,34.947,25.686,33.563,31.843,6.139,7.371,6.386
1232,1.194,34.736,25.635,33.544,31.837,6.016,7.33,6.425
1233,1.204,34.868,25.654,33.524,31.836,5.974,7.37,6.426
1234,1.201,34.956,25.67,33.524,31.84,6.096,7.452,6.548
1235,1.211,35.005,25.623,33.543,31.85,6.097,7.452,6.508
1236,1.198,35.043,25.65,33.563,31.85,6.097,7.452,6.508
1237,1.194,35.159,25.651,33.573,31.844,6.056,7.493,6.427
1238,1.201,35.246,25.717,33.573,31.847,6.056,7.494,6.466
1239,1.194,35.161,25.647,33.553,31.847,6.097,7.494,6.467
1240,1.194,35.198,25.6,33.553,31.847,6.056,7.453,6.426
1241,1.201,35.333,25.693,33.544,31.847,6.015,7.534,6.426
1242,1.204,35.421,25.62,33.544,31.843,6.015,7.494,6.385
1243,1.207,35.307,25.646,33.544,31.84,5.974,7.412,6.466
1244,1.201,35.449,25.662,33.553,31.847,5.974,7.493,6.386
1245,1.207,35.566,25.635,33.544,31.84,5.974,7.534,6.425
1246,1.22,35.653,25.619,33.591,31.85,5.974,7.616,6.507
1247,1.23,35.529,25.603,33.544,31.85,6.055,7.576,6.589
1248,1.224,35.71,25.67,33.563,31.861,6.097,7.657,6.549
1249,1.237,35.827,25.62,33.582,31.861,6.056,7.658,6.549
1250,1.237,35.915,25.619,33.573,31.857,6.015,7.576,6.508
1251,1.231,36.021,25.682,33.544,31.851,5.974,7.494,6.427
1252,1.227,36.156,25.616,33.572,31.854,5.974,7.534,6.466
1253,1.237,36.244,25.658,33.544,31.85,5.893,7.453,6.507
1254,1.24,36.302,25.713,33.534,31.847,5.973,7.534,6.467
1255,1.244,36.207,25.643,33.524,31.85,5.933,7.453,6.467
1256,1.221,36.34,25.647,33.534,31.85,5.974,7.493,6.548
1257,1.224,36.438,25.674,33.544,31.847,5.933,7.575,6.508
1258,1.224,36.448,25.709,33.524,31.85,5.892,7.494,6.508
1259,1.221,36.544,25.659,33.553,31.854,5.973,7.453,6.467
1260,1.214,36.679,25.662,33.544,31.85,5.974,7.452,6.467
1261,1.214,36.757,25.674,33.524,31.85,5.893,7.371,6.345
1262,1.214,36.873,25.627,33.515,31.84,5.811,7.289,6.384
1263,1.204,36.942,25.604,33.505,31.836,5.769,7.288,6.303
1264,1.204,37.029,25.662,33.505,31.84,5.85,7.288,6.425
1265,1.198,37.135,25.639,33.514,31.843,5.81,7.329,6.385
1266,1.194,36.973,25.615,33.524,31.854,5.85,7.329,6.385
1267,1.214,37.115,25.631,33.524,31.844,5.81,7.41,6.344
1268,1.214,37.213,25.654,33.524,31.847,5.85,7.33,6.384
1269,1.221,37.29,25.662,33.505,31.847,5.81,7.329,6.344
1270,1.208,37.396,25.643,33.495,31.847,5.769,7.207,6.384
1271,1.198,37.503,25.67,33.514,31.84,5.809,7.287,6.344
1272,1.204,37.638,25.623,33.505,31.843,5.769,7.329,6.384
1273,1.198,37.688,25.615,33.486,31.847,5.809,7.248,6.222
1274,1.194,37.592,25.678,33.476,31.84,5.81,7.247,6.342
1275,1.185,37.716,25.592,33.476,31.85,5.85,7.247,6.303
1276,1.175,37.842,25.638,33.505,31.847,5.851,7.288,6.343
1277,1.162,37.872,25.67,33.495,31.847,5.932,7.369,6.425
1278,1.168,37.968,25.698,33.514,31.854,5.974,7.452,6.466
1279,1.165,38.113,25.694,33.534,31.864,6.137,7.534,6.467
1280,1.158,38.22,25.69,33.515,31.861,6.098,7.291,6.386
1281,1.142,38.24,25.717,33.524,31.861,5.975,7.329,6.344
1282,1.129,38.269,25.64,33.515,31.851,5.974,7.289,6.303
1283,1.119,38.384,25.686,33.467,31.844,6.015,7.288,6.384
1284,1.119,38.481,25.717,33.476,31.854,5.974,7.207,6.303
1285,1.106,38.53,25.663,33.495,31.854,6.015,7.287,6.384
1286,1.102,38.579,25.627,33.486,31.85,6.056,7.207,6.344
1287,1.099,38.675,25.662,33.486,31.847,6.015,7.206,6.343
1288,1.096,38.772,25.678,33.514,31.861,6.056,7.206,6.343
1289,1.089,38.648,25.67,33.495,31.854,6.015,7.206,6.343
1290,1.083,38.781,25.666,33.495,31.857,6.015,7.206,6.425
1291,1.073,38.888,25.694,33.486,31.851,6.056,7.206,6.344
1292,1.063,38.966,25.62,33.505,31.854,6.056,7.247,6.262
1293,1.056,38.765,25.611,33.486,31.854,5.975,7.166,6.139
1294,1.047,38.878,25.681,33.466,31.844,5.852,7.165,6.098
1295,1.04,38.975,25.647,33.447,31.837,5.851,7.084,6.097
1296,1.024,39.034,25.623,33.476,31.84,5.851,7.164,6.178
1297,1.001,39.169,25.631,33.457,31.847,5.973,7.206,6.22
1298,1.007,39.323,25.686,33.476,31.843,5.974,7.206,6.18
1299,1.001,39.44,25.706,33.476,31.85,5.974,7.287,6.179
1300,0.991,39.46,25.659,33.476,31.85,5.893,7.166,6.22
1301,0.981,39.269,25.713,33.476,31.847,5.973,7.165,6.139
1302,0.981,39.392,25.632,33.457,31.847,5.933,7.084,6.219
1303,0.961,39.489,25.65,33.476,31.843,5.933,7.205,6.18
1304,0.958,39.509,25.733,33.438,31.84,5.974,7.084,6.179
1305,0.938,39.375,25.663,33.447,31.85,5.893,7.123,6.179
1306,0.938,39.517,25.619,33.476,31.844,5.851,7.043,6.139
1307,0.941,39.605,25.615,33.438,31.847,5.891,7.082,6.219
1308,0.932,39.529,25.639,33.437,31.85,5.933,7.164,6.302
1309,0.931,39.519,25.686,33.466,31.861,6.055,7.206,6.384
1310,0.938,39.653,25.659,33.485,31.868,6.015,7.206,6.385
1311,0.941,39.741,25.748,33.486,31.865,6.015,7.165,6.303
1312,0.941,39.713,25.679,33.476,31.854,5.934,7.084,6.343
1313,0.932,39.828,25.639,33.447,31.847,5.892,7.002,6.303
1314,0.912,39.905,25.693,33.447,31.854,5.973,7.041,6.302
1315,0.918,39.983,25.608,33.476,31.844,5.974,7.042,6.343
1316,0.905,39.591,25.642,33.457,31.854,6.015,7.001,6.343
1317,0.892,39.73,25.658,33.447,31.85,5.893,7.041,6.343
1318,0.886,39.828,25.686,33.456,31.847,5.933,7.001,6.303
1319,0.885,39.896,25.639,33.447,31.854,5.892,7.001,6.384
1320,0.879,39.781,25.701,33.476,31.85,5.973,7.041,6.385
1321,0.885,39.895,25.725,33.457,31.85,6.015,7.001,6.385
1322,0.872,40.002,25.698,33.524,31.861,5.934,7.041,6.344
1323,0.863,40.041,25.671,33.467,31.851,5.974,7.001,6.384
1324,0.866,39.831,25.741,33.447,31.844,5.893,6.919,6.222
1325,0.846,39.934,25.679,33.437,31.843,5.811,6.796,6.22
1326,0.856,40.022,25.655,33.418,31.84,5.728,6.795,6.261
1327,0.853,40.032,25.67,33.418,31.843,5.89,6.958,6.302
1328,0.853,39.975,25.694,33.427,31.85,5.933,7.0,6.302
1329,0.866,40.089,25.663,33.427,31.847,5.852,7.041,6.343
1330,0.859,40.205,25.666,33.456,31.847,5.932,6.96,6.303
1331,0.859,40.043,25.666,33.428,31.847,5.892,7.0,6.262
1332,0.853,39.936,25.655,33.437,31.84,5.892,6.96,6.262
1333,0.849,40.079,25.655,33.408,31.85,5.933,6.96,6.302
1334,0.843,40.128,25.709,33.427,31.837,5.852,6.96,6.262
1335,0.843,39.86,25.616,33.418,31.843,5.81,6.919,6.18
1336,0.83,39.944,25.635,33.418,31.847,5.81,6.959,6.22
1337,0.826,40.07,25.682,33.418,31.843,5.81,6.96,6.342
1338,0.839,40.148,25.706,33.399,31.847,5.769,6.96,6.303
1339,0.83,39.985,25.624,33.418,31.85,5.931,7.041,6.425
1340,0.83,40.137,25.662,33.447,31.857,6.055,7.164,6.385
1341,0.836,40.254,25.69,33.456,31.861,6.015,7.084,6.466
1342,0.852,40.332,25.663,33.447,31.861,6.015,7.002,6.345
1343,0.833,39.891,25.659,33.437,31.854,5.852,7.041,6.343
1344,0.826,39.992,25.694,33.428,31.844,5.891,7.042,6.343
1345,0.817,40.099,25.632,33.437,31.847,5.892,7.042,6.343
1346,0.826,40.138,25.67,33.437,31.854,5.892,7.042,6.262
1347,0.83,39.966,25.702,33.408,31.847,5.892,7.042,6.343
1348,0.833,40.089,25.76,33.418,31.85,5.892,7.001,6.262
1349,0.826,40.176,25.73,33.427,31.857,5.933,7.041,6.343
1350,0.83,40.197,25.726,33.418,31.847,5.974,6.96,6.384
1351,0.83,39.928,25.706,33.418,31.85,5.974,7.0,6.385
1352,0.843,40.05,25.682,33.427,31.854,6.015,7.001,6.385
1353,0.843,40.138,25.643,33.427,31.854,6.015,7.001,6.344
1354,0.846,40.024,25.701,33.418,31.85,5.974,6.96,6.262
1355,0.84,39.898,25.526,33.418,31.837,5.974,6.878,6.221
1356,0.826,40.04,25.638,33.399,31.84,5.893,6.796,6.139
1357,0.813,40.071,25.689,33.379,31.833,5.851,6.877,6.138
1358,0.816,39.745,25.686,33.389,31.84,5.973,6.959,6.301
1359,0.816,39.876,25.631,33.418,31.857,5.974,6.96,6.302
1360,0.813,40.002,25.666,33.399,31.854,6.055,6.96,6.262
1361,0.823,40.07,25.678,33.398,31.84,6.056,6.96,6.262
1362,0.826,39.774,25.659,33.398,31.843,6.056,6.96,6.18
1363,0.817,39.905,25.666,33.398,31.84,6.056,6.96,6.301
1364,0.816,40.002,25.662,33.398,31.84,6.097,6.919,6.302
1365,0.816,40.07,25.6,33.389,31.843,6.056,7.0,6.262
1366,0.816,39.697,25.638,33.389,31.84,6.056,7.001,6.302
1367,0.826,39.808,25.67,33.379,31.843,5.975,7.041,6.302
1368,0.817,39.915,25.686,33.398,31.84,6.055,7.082,6.384
1369,0.826,39.964,25.686,33.398,31.85,6.097,7.123,6.466
1370,0.839,39.773,25.659,33.408,31.857,6.219,7.205,6.589
1371,0.833,39.895,25.701,33.437,31.854,6.22,7.247,6.631
1372,0.846,40.031,25.702,33.447,31.864,6.18,7.166,6.509
1373,0.853,40.051,25.714,33.408,31.854,6.22,7.124,6.427
1374,0.846,39.63,25.706,33.389,31.854,6.098,7.043,6.426
1375,0.843,39.74,25.698,33.398,31.844,6.097,7.123,6.466
1376,0.833,39.837,25.71,33.389,31.843,6.26,7.043,6.467
1377,0.83,39.79,25.714,33.389,31.847,6.139,7.082,6.507
1378,0.833,39.684,25.714,33.389,31.84,6.138,7.042,6.508
1379,0.83,39.789,25.663,33.389,31.861,6.098,7.042,6.508
1380,0.82,39.905,25.647,33.389,31.847,6.138,7.082,6.508
1381,0.833,39.647,25.651,33.389,31.854,6.138,7.002,6.589
1382,0.826,39.76,25.647,33.389,31.85,6.138,7.001,6.549
1383,0.833,39.886,25.67,33.418,31.854,6.098,7.123,6.508
1384,0.83,39.935,25.69,33.399,31.85,6.097,7.083,6.508
1385,0.833,39.571,25.635,33.437,31.847,6.178,7.083,6.508
1386,0.839,39.663,25.647,33.408,31.85,6.098,7.002,6.467
1387,0.846,39.75,25.701,33.389,31.847,6.056,6.96,6.467
1388,0.833,39.78,25.749,33.36,31.837,5.975,6.96,6.345
1389,0.826,39.473,25.706,33.341,31.836,5.893,6.96,6.506
1390,0.836,39.595,25.663,33.369,31.847,6.014,7.041,6.467
1391,0.839,39.711,25.721,33.36,31.847,6.056,7.042,6.467
1392,0.849,39.789,25.683,33.379,31.85,6.056,7.042,6.507
1393,0.849,39.56,25.678,33.36,31.847,6.015,7.001,6.427
1394,0.846,39.663,25.702,33.379,31.84,6.015,6.96,6.466
1395,0.846,39.789,25.593,33.398,31.854,6.056,6.919,6.467
1396,0.833,39.8,25.662,33.36,31.844,6.015,7.0,6.426
1397,0.833,39.445,25.67,33.369,31.847,6.015,6.96,6.385
1398,0.833,39.556,25.744,33.341,31.84,5.974,7.082,6.466
1399,0.826,39.653,25.64,33.36,31.84,5.974,7.002,6.426
1400,0.826,39.578,25.678,33.341,31.843,5.974,7.001,6.385
1401,0.833,39.328,25.733,33.34,31.847,5.974,7.123,6.425
1402,0.836,39.44,25.706,33.36,31.847,5.974,7.165,6.507
1403,0.833,39.547,25.71,33.388,31.847,6.055,7.287,6.589
1404,0.836,39.442,25.686,33.379,31.854,6.178,7.247,6.631
1405,0.846,39.576,25.69,33.398,31.861,6.098,7.247,6.55
1406,0.856,39.702,25.655,33.379,31.847,6.056,7.206,6.427
1407,0.859,39.741,25.662,33.36,31.847,5.975,7.206,6.466
1408,0.856,39.214,25.678,33.35,31.843,5.974,7.247,6.467
1409,0.862,39.353,25.62,33.36,31.843,6.055,7.166,6.426
1410,0.853,39.45,25.627,33.35,31.85,5.975,7.328,6.426
1411,0.853,39.508,25.693,33.36,31.85,5.974,7.289,6.507
1412,0.856,39.25,25.702,33.35,31.847,6.015,7.288,6.386
1413,0.859,39.382,25.717,33.36,31.857,5.974,7.41,6.425
1414,0.866,39.479,25.737,33.341,31.854,5.974,7.371,6.426
1415,0.866,39.557,25.718,33.36,31.854,6.015,7.37,6.426
1416,0.859,39.116,25.718,33.379,31.854,5.974,7.37,6.426
1417,0.856,39.237,25.757,33.36,31.847,5.974,7.37,6.426
1418,0.853,39.324,25.777,33.369,31.847,5.974,7.33,6.385
1419,0.846,39.363,25.679,33.36,31.843,5.893,7.289,6.344
1420,0.849,39.201,25.666,33.331,31.84,5.811,7.207,6.262
1421,0.833,39.295,25.701,33.321,31.836,5.81,7.206,6.221
1422,0.83,39.401,25.647,33.321,31.847,5.85,7.287,6.383
1423,0.826,39.335,25.678,33.34,31.847,5.891,7.288,6.466
1424,0.839,38.999,25.717,33.35,31.847,5.851,7.288,6.467
1425,0.839,39.13,25.62,33.36,31.843,5.891,7.329,6.386
1426,0.846,39.208,25.709,33.341,31.843,5.892,7.167,6.385
1427,0.853,38.979,25.714,33.331,31.847,5.811,7.206,6.425
1428,0.862,39.034,25.725,33.331,31.847,5.85,7.206,6.385
1429,0.859,39.15,25.686,33.34,31.84,5.851,7.247,6.385
1430,0.856,39.237,25.69,33.331,31.843,5.769,7.206,6.263
1431,0.853,38.806,25.694,33.321,31.84,5.85,7.125,6.302
1432,0.856,38.955,25.659,33.321,31.836,5.769,7.124,6.302
1433,0.866,39.062,25.69,33.302,31.836,5.809,7.165,6.302
1434,0.862,39.131,25.686,33.34,31.854,5.891,7.206,6.384
1435,0.862,38.757,25.659,33.36,31.861,5.973,7.328,6.466
1436,0.859,38.917,25.701,33.36,31.864,6.015,7.329,6.467
1437,0.856,39.043,25.749,33.369,31.861,6.015,7.37,6.467
1438,0.859,39.083,25.757,33.341,31.851,5.893,7.208,6.386
1439,0.859,38.766,25.734,33.34,31.847,5.973,7.206,6.425
1440,0.853,38.888,25.745,33.321,31.85,5.811,7.206,6.385
1441,0.853,38.966,25.769,33.331,31.85,5.932,7.165,6.344
1442,0.849,39.015,25.714,33.321,31.847,5.852,7.206,6.425
1443,0.843,38.679,25.718,33.331,31.847,5.891,7.206,6.426
1444,0.846,38.782,25.761,33.331,31.85,5.973,7.206,6.548
1445,0.833,38.898,25.632,33.35,31.847,5.974,7.247,6.468
1446,0.849,38.918,25.678,33.331,31.854,6.015,7.206,6.507
1447,0.853,38.554,25.663,33.34,31.854,5.974,7.165,6.427
1448,0.853,38.665,25.721,33.34,31.854,5.974,7.206,6.466
1449,0.856,38.772,25.706,33.34,31.847,5.974,7.165,6.386
1450,0.862,38.447,25.671,33.34,31.847,5.893,7.124,6.385
1451,0.853,38.52,25.694,33.302,31.843,5.892,7.083,6.263
1452,0.843,38.617,25.643,33.302,31.84,5.811,7.002,6.302
1453,0.849,38.695,25.693,33.302,31.836,5.972,7.163,6.384
1454,0.856,38.321,25.702,33.321,31.85,5.893,7.124,6.344
1455,0.859,38.471,25.671,33.331,31.847,5.851,7.124,6.343
1456,0.856,38.588,25.698,33.331,31.843,5.851,7.083,6.343
1457,0.843,38.656,25.729,33.312,31.843,5.851,7.164,6.303
1458,0.849,38.599,25.741,33.302,31.84,5.851,7.124,6.302
1459,0.843,38.733,25.726,33.311,31.847,5.891,7.165,6.302
1460,0.843,38.84,25.718,33.311,31.85,5.851,7.124,6.262
1461,0.839,38.889,25.714,33.283,31.84,5.81,7.124,6.302
1462,0.843,38.007,25.702,33.282,31.84,5.81,7.246,6.262
1463,0.836,38.132,25.71,33.301,31.84,5.81,7.166,6.302
1464,0.846,38.239,25.741,33.321,31.85,5.891,7.287,6.384
1465,0.84,38.288,25.667,33.34,31.854,5.973,7.41,6.425
1466,0.856,38.193,25.686,33.34,31.857,5.974,7.371,6.466
1467,0.859,38.316,25.729,33.34,31.861,6.015,7.411,6.386
1468,0.859,38.433,25.768,33.34,31.857,5.974,7.371,6.303
1469,0.853,38.597,25.703,33.331,31.847,5.893,7.37,6.343
1470,0.846,38.167,25.675,33.312,31.861,5.851,7.37,6.303
1471,0.846,38.259,25.627,33.302,31.847,5.81,7.37,6.302
1472,0.846,38.375,25.658,33.321,31.843,5.81,7.411,6.302
1473,0.843,37.925,25.694,33.331,31.847,5.81,7.533,6.343
1474,0.846,37.959,25.659,33.302,31.847,5.81,7.494,6.303
1475,0.856,38.113,25.686,33.321,31.854,5.85,7.494,6.262
1476,0.846,38.181,25.674,33.321,31.847,5.891,7.575,6.302
1477,0.843,38.019,25.725,33.321,31.85,5.851,7.535,6.384
1478,0.839,38.142,25.772,33.311,31.85,5.891,7.616,6.263
1479,0.836,38.278,25.722,33.33,31.85,5.811,7.535,6.262
1480,0.843,38.337,25.722,33.321,31.854,5.85,7.534,6.18
1481,0.836,37.838,25.729,33.292,31.84,5.729,7.412,6.139
1482,0.833,37.968,25.679,33.292,31.836,5.727,7.371,6.057
1483,0.82,38.065,25.741,33.282,31.836,5.768,7.492,6.178
1484,0.817,38.095,25.722,33.282,31.843,5.85,7.494,6.179
1485,0.82,37.932,25.718,33.292,31.847,5.81,7.453,6.179
1486,0.83,38.065,25.694,33.302,31.843,5.81,7.452,6.179
1487,0.836,38.181,25.729,33.302,31.847,5.891,7.412,6.179
1488,0.83,38.201,25.726,33.311,31.843,5.851,7.452,6.139
1489,0.839,37.78,25.679,33.311,31.843,5.891,7.371,6.179
1490,0.833,37.9,25.713,33.302,31.84,5.77,7.452,6.179
1491,0.839,37.978,25.643,33.292,31.843,5.85,7.371,6.139
1492,0.836,38.305,25.651,33.282,31.84,5.81,7.37,6.138
1493,0.846,37.915,25.74,33.273,31.84,5.85,7.289,6.138
1494,0.836,38.016,25.694,33.263,31.836,5.81,7.288,6.057
1495,0.839,38.133,25.69,33.292,31.843,5.81,7.369,6.097
1496,0.83,37.721,25.686,33.302,31.847,5.891,7.37,6.219
1497,0.823,37.756,25.756,33.302,31.85,5.933,7.411,6.261
1498,0.826,37.89,25.718,33.321,31.857,6.014,7.452,6.343
1499,0.817,38.016,25.659,33.34,31.861,6.015,7.452,6.303
1500,0.826,37.749,25.733,33.331,31.854,5.934,7.371,6.099
1501,0.826,37.852,25.675,33.302,31.854,5.852,7.411,6.219
1502,0.82,37.958,25.678,33.302,31.847,5.851,7.371,6.098
1503,0.813,38.046,25.76,33.302,31.843,5.81,7.411,6.138
1504,0.81,37.749,25.773,33.311,31.847,5.85,7.411,6.179
1505,0.816,37.9,25.726,33.292,31.85,5.851,7.371,6.179
1506,0.823,38.035,25.726,33.311,31.85,5.81,7.452,6.22
1507,0.833,38.066,25.788,33.302,31.85,5.81,7.452,6.18
1508,0.823,37.701,25.722,33.302,31.85,5.81,7.452,6.139
1509,0.836,37.822,25.714,33.302,31.85,5.769,7.452,6.219
1510,0.843,37.939,25.745,33.302,31.85,5.891,7.452,6.22
1511,0.836,37.978,25.718,33.311,31.854,5.811,7.452,6.18
1512,0.836,37.749,25.663,33.311,31.85,5.81,7.371,6.057
1513,0.839,37.852,25.698,33.283,31.84,5.688,7.33,6.015
1514,0.823,37.949,25.729,33.263,31.84,5.646,7.289,6.015
1515,0.813,38.285,25.694,33.253,31.84,5.645,7.329,6.056
1516,0.807,37.771,25.686,33.282,31.843,5.727,7.41,6.097
1517,0.807,37.89,25.745,33.301,31.847,5.768,7.371,6.056
1518,0.816,37.997,25.773,33.302,31.847,5.728,7.33,6.056
1519,0.81,37.739,25.742,33.292,31.85,5.646,7.37,6.015
1520,0.816,37.784,25.745,33.282,31.854,5.727,7.37,6.056
1521,0.816,37.91,25.722,33.282,31.844,5.727,7.33,6.056
1522,0.8,37.997,25.702,33.282,31.847,5.727,7.41,6.137
1523,0.797,37.701,25.706,33.273,31.843,5.687,7.371,6.098
1524,0.8,37.794,25.694,33.282,31.843,5.646,7.411,6.056
1525,0.79,37.91,25.69,33.292,31.84,5.686,7.33,6.056
1526,0.81,37.988,25.667,33.282,31.843,5.687,7.41,6.056
1527,0.813,37.701,25.721,33.273,31.847,5.768,7.452,6.137
1528,0.813,37.832,25.765,33.292,31.857,5.768,7.452,6.219
1529,0.813,37.968,25.765,33.302,31.861,5.809,7.534,6.18
1530,0.82,38.046,25.781,33.321,31.861,5.932,7.534,6.261
1531,0.82,37.72,25.742,33.321,31.861,5.811,7.453,6.18
1532,0.83,37.871,25.765,33.321,31.851,5.81,7.412,6.098
1533,0.82,37.949,25.761,33.283,31.847,5.728,7.411,6.056
1534,0.82,37.969,25.734,33.292,31.847,5.768,7.371,6.137
1535,0.813,37.72,25.737,33.282,31.85,5.728,7.37,6.138
1536,0.813,37.861,25.722,33.292,31.847,5.727,7.37,6.098
1537,0.807,37.968,25.702,33.292,31.847,5.768,7.37,6.178
1538,0.81,38.266,25.741,33.282,31.85,5.768,7.411,6.098
1539,0.81,37.732,25.702,33.292,31.854,5.687,7.452,6.138
1540,0.807,37.88,25.721,33.292,31.844,5.687,7.452,6.179
1541,0.8,37.978,25.722,33.292,31.85,5.687,7.534,6.139
1542,0.81,37.701,25.706,33.282,31.85,5.768,7.453,6.138
1543,0.803,37.746,25.721,33.301,31.85,5.85,7.452,6.179
1544,0.803,37.842,25.741,33.292,31.847,5.81,7.452,6.098
1545,0.8,37.949,25.737,33.34,31.847,5.728,7.412,6.097
1546,0.813,37.652,25.69,33.273,31.847,5.646,7.371,5.975
1547,0.813,37.755,25.733,33.253,31.837,5.645,7.33,5.974
1548,0.803,37.852,25.741,33.253,31.84,5.645,7.41,6.015
1549,0.803,37.929,25.718,33.263,31.84,5.686,7.452,6.178
1550,0.81,37.681,25.69,33.272,31.847,5.687,7.452,6.098
1551,0.816,37.803,25.678,33.292,31.847,5.646,7.412,6.097
1552,0.82,37.939,25.741,33.282,31.847,5.686,7.411,6.056
1553,0.817,37.978,25.749,33.263,31.847,5.687,7.33,6.015
1554,0.81,37.653,25.698,33.263,31.847,5.687,7.41,6.056
1555,0.813,37.803,25.717,33.263,31.843,5.687,7.371,5.975
1556,0.81,37.891,25.733,33.263,31.843,5.687,7.33,6.015
1557,0.794,37.92,25.776,33.253,31.84,5.687,7.289,6.015
1558,0.797,37.71,25.753,33.244,31.843,5.687,7.329,6.056
1559,0.787,37.851,25.698,33.263,31.843,5.646,7.329,6.178
1560,0.797,37.949,25.725,33.282,31.854,5.767,7.37,6.179
1561,0.8,38.026,25.749,33.301,31.854,5.728,7.452,6.22
1562,0.803,37.759,25.687,33.292,31.861,5.768,7.371,6.22
1563,0.81,37.861,25.741,33.292,31.861,5.768,7.33,6.18
1564,0.807,37.958,25.718,33.282,31.851,5.687,7.248,6.179
1565,0.797,37.652,25.69,33.282,31.847,5.687,7.166,6.22
1566,0.79,37.697,25.733,33.273,31.854,5.687,7.206,6.139
1567,0.813,37.794,25.733,33.273,31.85,5.687,7.165,6.138
1568,0.807,37.881,25.749,33.282,31.85,5.687,7.124,6.219
1569,0.807,37.527,25.671,33.292,31.847,5.727,7.124,6.18
1570,0.813,37.658,25.741,33.282,31.85,5.727,7.165,6.22
1571,0.813,37.774,25.683,33.292,31.847,5.727,7.165,6.18
1572,0.816,37.862,25.729,33.273,31.854,5.809,7.124,6.342
1573,0.826,37.632,25.831,33.273,31.854,5.769,7.124,6.303
1574,0.826,37.793,25.695,33.282,31.854,5.809,7.124,6.262
1575,0.826,37.91,25.713,33.282,31.85,5.728,7.002,6.221
1576,0.82,37.949,25.784,33.273,31.844,5.809,7.001,6.22
1577,0.807,37.595,25.785,33.253,31.847,5.688,6.879,6.098
1578,0.8,37.735,25.73,33.234,31.837,5.646,6.877,6.097
1579,0.794,37.842,25.679,33.243,31.836,5.645,6.837,6.178
1580,0.777,37.862,25.702,33.234,31.847,5.686,6.958,6.22
1581,0.79,37.46,25.647,33.263,31.843,5.809,6.919,6.22
1582,0.8,37.619,25.705,33.263,31.843,5.769,6.878,6.261
1583,0.8,37.716,25.772,33.263,31.847,5.768,6.959,6.221
1584,0.797,37.736,25.699,33.263,31.847,5.768,6.919,6.22
1585,0.797,37.717,25.702,33.272,31.847,5.728,6.959,6.18
1586,0.8,37.851,25.706,33.244,31.84,5.727,6.878,6.139
1587,0.816,37.939,25.768,33.253,31.84,5.768,6.918,6.138
1588,0.807,37.451,25.757,33.244,31.85,5.687,6.878,6.179
1589,0.81,37.427,25.679,33.244,31.837,5.687,6.837,6.139
1590,0.8,37.542,25.709,33.253,31.847,5.727,6.837,6.179
1591,0.8,37.648,25.659,33.292,31.843,5.727,6.877,6.22
1592,0.807,37.438,25.713,33.263,31.854,5.768,6.918,6.261
1593,0.813,37.561,25.788,33.282,31.861,5.809,7.041,6.221
1594,0.82,37.735,25.695,33.321,31.861,5.85,6.96,6.342
1595,0.823,37.823,25.753,33.302,31.854,5.81,6.919,6.221
1596,0.82,37.45,25.819,33.273,31.857,5.81,6.919,6.22
1597,0.81,37.561,25.828,33.273,31.844,5.728,6.878,6.22
1598,0.794,37.677,25.723,33.253,31.85,5.768,6.877,6.261
1599,0.793,37.726,25.737,33.263,31.844,5.687,6.877,6.221
1600,0.797,37.362,25.757,33.263,31.85,5.727,6.837,6.22
1601,0.79,37.522,25.749,33.311,31.854,5.687,6.877,6.302
1602,0.793,37.629,25.753,33.273,31.854,5.727,6.837,6.18
1603,0.797,37.649,25.745,33.263,31.847,5.687,6.877,6.301
1604,0.797,37.4,25.706,33.263,31.85,5.727,6.837,6.343
1605,0.79,37.522,25.714,33.272,31.854,5.687,6.837,6.343
1606,0.81,37.629,25.761,33.282,31.847,5.687,6.877,6.262
1607,0.81,37.64,25.777,33.273,31.854,5.727,6.877,6.221
1608,0.813,37.304,25.679,33.282,31.85,5.687,6.877,6.139
1609,0.81,37.445,25.745,33.254,31.844,5.605,6.837,6.098
1610,0.807,37.542,25.722,33.234,31.84,5.564,6.796,6.097
1611,0.8,37.322,25.722,33.234,31.84,5.563,6.795,6.178
1612,0.807,37.368,25.749,33.234,31.843,5.645,6.917,6.261
1613,0.826,37.474,25.741,33.253,31.85,5.727,6.919,6.18
1614,0.826,37.58,25.718,33.263,31.854,5.646,7.041,6.179
1615,0.817,37.188,25.722,33.244,31.847,5.686,7.001,6.22
1616,0.82,37.309,25.772,33.253,31.847,5.646,6.919,6.261
1617,0.823,37.425,25.722,33.224,31.843,5.686,7.0,6.302
1618,0.826,37.532,25.679,33.243,31.847,5.687,6.96,6.18
1619,0.846,37.092,25.725,33.244,31.843,5.646,6.96,6.22
1620,0.84,37.231,25.765,33.244,31.843,5.605,6.96,6.261
1621,0.846,37.377,25.742,33.272,31.843,5.604,6.96,6.099
1622,0.843,37.417,25.753,33.253,31.84,5.645,7.0,6.138
1623,0.856,37.187,25.769,33.234,31.843,5.645,7.041,6.219
1624,0.869,37.328,25.714,33.291,31.847,5.645,7.001,6.302
1625,0.869,37.464,25.725,33.263,31.857,5.727,7.082,6.384
1626,0.889,37.513,25.768,33.292,31.857,5.768,7.164,6.425
1627,0.912,37.044,25.765,33.292,31.861,5.809,7.084,6.304
1628,0.922,37.173,25.687,33.282,31.851,5.81,7.002,6.302
1629,0.922,37.261,25.69,33.254,31.857,5.769,7.041,6.302
1630,0.931,37.262,25.702,33.253,31.84,5.687,7.082,6.302
1631,0.918,37.185,25.721,33.253,31.85,5.727,7.042,6.384
1632,0.922,37.309,25.698,33.263,31.847,5.809,7.042,6.385
1633,0.918,37.406,25.729,33.234,31.85,5.85,7.042,6.303
1634,0.915,37.062,25.745,33.253,31.85,5.891,7.123,6.384
1635,0.925,36.991,25.694,33.244,31.85,5.811,7.083,6.303
1636,0.912,37.106,25.756,33.244,31.854,5.891,7.123,6.384
1637,0.918,37.203,25.757,33.263,31.85,5.973,7.124,6.303
1638,0.922,36.907,25.691,33.272,31.854,5.974,7.205,6.465
1639,0.925,37.038,25.725,33.273,31.854,5.974,7.125,6.345
1640,0.918,37.164,25.768,33.253,31.847,5.933,7.083,6.303
1641,0.925,37.223,25.699,33.244,31.843,5.811,7.123,6.18
1642,0.922,36.868,25.733,33.224,31.84,5.769,7.002,6.179
1643,0.905,36.989,25.776,33.205,31.836,5.85,7.041,6.22
1644,0.905,37.125,25.695,33.243,31.84,5.891,7.164,6.302
1645,0.902,37.203,25.721,33.244,31.85,5.933,7.246,6.302
1646,0.902,36.878,25.792,33.244,31.847,5.933,7.206,6.302
1647,0.902,37.018,25.773,33.224,31.85,5.892,7.247,6.302
1648,0.912,37.135,25.695,33.224,31.85,5.933,7.206,6.343
1649,0.918,37.174,25.717,33.243,31.847,5.892,7.287,6.221
1650,0.899,36.724,25.745,33.244,31.85,5.973,7.288,6.302
1651,0.912,36.863,25.749,33.33,31.847,5.933,7.288,6.302
1652,0.915,36.98,25.702,33.235,31.84,5.892,7.288,6.221
1653,0.915,36.962,25.764,33.224,31.843,5.973,7.41,6.302
1654,0.922,36.712,25.745,33.291,31.843,5.893,7.452,6.343
1655,0.931,36.863,25.698,33.244,31.854,6.095,7.574,6.384
1656,0.941,36.98,25.799,33.282,31.864,6.178,7.657,6.385
1657,0.941,36.789,25.773,33.282,31.861,6.22,7.617,6.425
1658,0.945,36.778,25.726,33.273,31.851,6.18,7.576,6.304
1659,0.925,36.893,25.718,33.253,31.847,6.179,7.575,6.343
1660,0.925,36.98,25.753,33.234,31.854,6.22,7.494,6.303
1661,0.931,36.559,25.745,33.224,31.85,6.22,7.534,6.302
1662,0.931,36.68,25.773,33.234,31.85,6.261,7.616,6.302
1663,0.918,36.786,25.827,33.234,31.854,6.262,7.535,6.425
1664,0.912,36.883,25.762,33.291,31.85,6.343,7.616,6.385
1665,0.922,36.51,25.741,33.244,31.85,6.303,7.617,6.303
1666,0.922,36.641,25.835,33.253,31.85,6.302,7.535,6.384
1667,0.935,36.767,25.805,33.253,31.861,6.343,7.534,6.303
1668,0.941,36.825,25.695,33.253,31.851,6.262,7.575,6.262
1669,0.948,36.423,25.713,33.234,31.847,6.302,7.494,6.139
1670,0.928,36.563,25.761,33.205,31.837,6.18,7.494,6.179
1671,0.918,36.66,25.726,33.214,31.84,6.261,7.494,6.179
1672,0.905,36.7,25.729,33.215,31.843,6.262,7.616,6.261
1673,0.918,36.499,25.698,33.224,31.847,6.302,7.657,6.18
1674,0.912,36.66,25.69,33.234,31.85,6.302,7.698,6.22
1675,0.899,36.748,25.756,33.215,31.844,6.302,7.74,6.22
1676,0.886,36.787,25.792,33.234,31.843,6.302,7.74,6.18
1677,0.872,36.433,25.707,33.224,31.843,6.221,7.74,6.22
1678,0.866,36.573,25.729,33.234,31.843,6.383,7.74,6.22
1679,0.866,36.661,25.749,33.215,31.843,6.344,7.781,6.18
1680,0.859,36.479,25.78,33.224,31.84,6.262,7.74,6.22
1681,0.856,36.429,25.765,33.224,31.843,6.302,7.74,6.18
1682,0.856,36.573,25.765,33.215,31.847,6.343,7.74,6.179
1683,0.843,36.641,25.753,33.224,31.85,6.343,7.781,6.261
1684,0.839,36.258,25.741,33.234,31.854,6.425,7.862,6.343
1685,0.846,36.36,25.796,33.272,31.857,6.466,7.822,6.303
1686,0.84,36.486,25.812,33.273,31.861,6.589,7.863,6.302
1687,0.846,36.593,25.722,33.253,31.857,6.468,7.741,6.221
1688,0.843,36.248,25.768,33.244,31.851,6.345,7.659,6.261
1689,0.817,36.36,25.769,33.244,31.854,6.384,7.698,6.262
1690,0.82,36.476,25.773,33.234,31.85,6.425,7.699,6.302
1691,0.823,36.573,25.777,33.234,31.85,6.466,7.618,6.221
1692,0.826,36.152,25.792,33.243,31.847,6.467,7.617,6.261
1693,0.826,36.282,25.746,33.224,31.85,6.507,7.617,6.262
1694,0.813,36.418,25.745,33.234,31.854,6.467,7.617,6.221
1695,0.8,36.477,25.773,33.243,31.854,6.507,7.535,6.22
1696,0.794,36.209,25.777,33.224,31.854,6.549,7.616,6.302
1697,0.784,36.369,25.703,33.234,31.857,6.549,7.535,6.262
1698,0.787,36.476,25.737,33.243,31.857,6.59,7.494,6.302
1699,0.784,36.497,25.726,33.244,31.851,6.59,7.453,6.18
1700,0.774,36.171,25.726,33.215,31.844,6.468,7.371,6.017
1701,0.774,36.311,25.726,33.215,31.837,6.426,7.37,6.096
1702,0.751,36.409,25.749,33.215,31.84,6.426,7.33,6.138
1703,0.754,36.237,25.749,33.215,31.843,6.507,7.41,6.179
1704,0.761,36.168,25.765,33.224,31.847,6.508,7.371,6.22
1705,0.761,36.292,25.773,33.224,31.84,6.467,7.411,6.139
1706,0.764,36.408,25.808,33.224,31.847,6.548,7.371,6.179
1707,0.761,36.016,25.773,33.224,31.85,6.468,7.33,6.22
1708,0.757,36.108,25.683,33.234,31.847,6.467,7.41,6.139
1709,0.757,36.263,25.745,33.215,31.847,6.467,7.33,6.179
1710,0.754,36.341,25.796,33.224,31.843,6.386,7.329,6.139
1711,0.744,36.016,25.793,33.205,31.84,6.466,7.37,6.138
1712,0.741,36.128,25.785,33.214,31.836,6.426,7.289,6.098
1713,0.731,36.244,25.73,33.205,31.843,6.426,7.41,6.097
1714,0.728,36.331,25.757,33.224,31.847,6.426,7.452,6.178
1715,0.728,35.968,25.769,33.224,31.85,6.548,7.493,6.301
1716,0.731,36.146,25.827,33.224,31.868,6.671,7.575,6.262
1717,0.725,36.263,25.762,33.263,31.854,6.631,7.575,6.221
1718,0.734,36.351,25.734,33.292,31.854,6.55,7.454,6.18
1719,0.728,35.901,25.753,33.225,31.847,6.508,7.452,6.179
1720,0.721,36.03,25.741,33.215,31.854,6.467,7.412,6.179
1721,0.708,36.137,25.753,33.215,31.847,6.548,7.452,6.179
1722,0.718,36.167,25.714,33.215,31.843,6.508,7.534,6.139
1723,0.718,35.87,25.757,33.224,31.847,6.508,7.534,6.219
1724,0.711,36.011,25.765,33.224,31.847,6.467,7.453,6.22
1725,0.711,36.128,25.745,33.224,31.854,6.548,7.534,6.22
1726,0.721,36.071,25.8,33.224,31.861,6.468,7.534,6.18
1727,0.724,36.003,25.718,33.215,31.854,6.467,7.575,6.22
1728,0.731,36.127,25.725,33.253,31.847,6.467,7.575,6.18
1729,0.731,36.234,25.757,33.224,31.85,6.548,7.535,6.22
1730,0.734,35.717,25.777,33.234,31.847,6.508,7.494,6.139
1731,0.721,35.818,25.804,33.224,31.847,6.345,7.453,6.098
1732,0.718,35.924,25.789,33.205,31.837,6.343,7.412,6.016
1733,0.724,35.992,25.746,33.166,31.84,6.384,7.371,6.056
1734,0.731,35.792,25.745,33.185,31.84,6.466,7.492,6.137
1735,0.721,35.953,25.78,33.214,31.85,6.467,7.534,6.098
1736,0.728,36.06,25.835,33.215,31.844,6.467,7.453,6.097
1737,0.721,36.166,25.703,33.215,31.847,6.507,7.371,6.138
1738,0.711,35.726,25.749,33.234,31.847,6.427,7.452,6.179
1739,0.718,35.875,25.749,33.215,31.85,6.385,7.412,6.098
1740,0.708,35.982,25.749,33.205,31.844,6.385,7.371,6.138
1741,0.715,36.041,25.745,33.214,31.843,6.385,7.37,6.098
1742,0.718,35.783,25.745,33.205,31.84,6.303,7.411,6.056
1743,0.721,35.914,25.773,33.214,31.84,6.343,7.371,6.137
1744,0.708,36.05,25.734,33.205,31.843,6.343,7.33,6.098
1745,0.708,36.061,25.757,33.205,31.847,6.343,7.37,6.097
1746,0.711,35.744,25.812,33.205,31.837,6.343,7.33,6.178
1747,0.724,35.875,25.758,33.234,31.847,6.384,7.451,6.22
1748,0.715,36.002,25.702,33.234,31.854,6.466,7.452,6.302
1749,0.728,35.964,25.768,33.234,31.861,6.467,7.452,6.262
1750,0.734,35.839,25.792,33.253,31.857,6.467,7.412,6.139
1751,0.757,35.963,25.753,33.224,31.847,6.304,7.371,6.138
1752,0.757,36.041,25.765,33.224,31.85,6.343,7.33,6.179
1753,0.78,38.611,25.796,33.215,31.854,6.343,7.329,6.139
1754,0.826,38.906,25.773,33.205,31.844,6.303,7.329,6.138
1755,0.865,38.976,25.812,33.224,31.843,6.262,7.41,6.138
1756,0.908,39.034,25.84,33.215,31.854,6.262,7.371,6.179
1757,0.938,34.173,25.754,33.224,31.847,6.302,7.37,6.098
1758,0.984,34.268,25.78,33.253,31.854,6.302,7.452,6.219
1759,1.026,34.422,25.804,33.215,31.861,6.343,7.412,6.18
1760,1.072,34.51,25.828,33.224,31.851,6.303,7.411,6.22
1761,1.102,36.18,25.766,33.215,31.85,6.302,7.411,6.18
1762,1.132,36.321,25.773,33.205,31.844,6.221,7.33,6.098
1763,1.145,36.418,25.718,33.205,31.837,6.139,7.248,6.016
1764,1.168,36.477,25.714,33.186,31.836,6.098,7.288,6.096
1765,1.204,35.864,25.788,33.176,31.836,6.178,7.288,6.138
1766,1.263,36.011,25.753,33.205,31.84,6.22,7.329,6.179
1767,1.332,36.128,25.718,33.205,31.843,6.22,7.37,6.179
1768,1.391,36.167,25.733,33.214,31.847,6.18,7.452,6.22
1769,1.437,36.273,25.753,33.224,31.85,6.22,7.371,6.18
1770,1.489,36.427,25.8,33.205,31.847,6.18,7.33,6.22
1771,1.523,36.525,25.793,33.205,31.847,6.179,7.37,6.18
1772,1.542,36.018,25.793,33.205,31.85,6.098,7.37,6.179
1773,1.575,35.217,25.707,33.205,31.84,6.097,7.37,6.179
1774,1.621,35.352,25.768,33.186,31.843,6.056,7.411,6.179
1775,1.654,35.459,25.812,33.205,31.85,6.056,7.371,6.139
1776,1.661,35.527,25.789,33.186,31.84,6.097,7.452,6.179
1777,1.677,35.662,25.711,33.205,31.843,6.056,7.452,6.22
1778,1.674,35.788,25.772,33.205,31.837,6.097,7.574,6.302
1779,1.658,35.895,25.796,33.205,31.854,6.138,7.698,6.425
1780,1.648,35.369,25.828,33.214,31.861,6.219,7.821,6.426
1781,1.635,35.526,25.824,33.243,31.864,6.261,7.822,6.426
1782,1.602,35.662,25.824,33.234,31.858,6.18,7.741,6.304
1783,1.569,35.721,25.769,33.215,31.851,6.017,7.659,6.302
1784,1.523,35.386,25.757,33.215,31.847,5.974,7.698,6.343
1785,1.438,35.508,25.827,33.215,31.847,5.974,7.658,6.425
1786,1.327,35.653,25.828,33.205,31.847,6.055,7.698,6.426
1787,1.209,35.712,25.73,33.205,31.847,6.015,7.699,6.548
1788,1.094,35.453,25.733,33.195,31.854,6.137,7.658,6.671
1789,0.92,35.585,25.741,33.224,31.854,6.016,7.617,6.835
1790,0.795,35.711,25.753,33.195,31.85,6.056,7.698,7.04
1791,0.686,35.751,25.773,33.214,31.847,6.056,7.658,7.286
1792,0.584,35.454,25.781,33.195,31.857,6.097,7.698,7.491
1793,0.521,35.594,25.668,33.214,31.851,6.056,7.658,7.697
1794,0.462,35.701,25.776,33.195,31.847,6.056,7.617,7.943
1795,0.393,35.683,25.847,33.205,31.84,5.975,7.495,8.148
1796,0.315,35.29,25.774,33.186,31.836,5.811,7.453,8.476
1797,0.275,35.401,25.796,33.205,31.833,5.81,7.452,8.845
1798,0.229,35.489,25.757,33.176,31.836,5.891,7.574,9.255
1799,0.176,35.307,25.82,33.185,31.847,5.933,7.616,9.422
1800,0.143,35.401,25.832,33.195,31.847,5.974,7.576,9.505
1801,0.104,35.546,25.801,33.205,31.847,5.893,7.535,9.709
1802,0.078,35.624,25.824,33.186,31.85,5.933,7.494,9.833
1803,0.067,35.241,25.711,33.205,31.847,5.892,7.494,9.916
1804,0.064,35.401,25.768,33.176,31.843,5.933,7.453,10.079
1805,0.051,35.517,25.812,33.205,31.847,5.892,7.412,10.121
1806,0.048,35.595,25.793,33.195,31.847,5.851,7.411,10.122
1807,0.061,35.26,25.757,33.214,31.84,5.769,7.371,10.244
1808,0.077,35.401,25.738,33.186,31.843,5.809,7.37,10.367
1809,0.09,35.498,25.796,33.185,31.85,5.85,7.452,10.531
1810,0.103,35.585,25.828,33.205,31.854,5.891,7.493,10.655
1811,0.136,35.289,25.801,33.214,31.861,6.054,7.494,10.818
1812,0.166,35.439,25.836,33.224,31.861,5.975,7.494,11.023
1813,0.182,35.546,25.773,33.224,31.847,5.974,7.412,11.107
1814,0.199,35.576,25.804,33.205,31.85,5.852,7.411,11.27
1815,0.215,35.337,25.793,33.186,31.844,5.891,7.371,11.394
1816,0.228,35.44,25.804,33.195,31.847,5.892,7.37,11.639
1817,0.248,35.556,25.754,33.205,31.847,5.851,7.452,11.804
1818,0.268,35.711,25.722,33.205,31.843,5.851,7.493,12.009
1819,0.304,35.367,25.792,33.205,31.843,5.81,7.494,12.092
1820,0.32,35.517,25.824,33.195,31.854,5.891,7.331,12.134
1821,0.35,35.624,25.789,33.195,31.854,5.892,7.451,12.175
1822,0.389,35.174,25.855,33.195,31.847,5.973,7.412,12.175
1823,0.428,35.227,25.809,33.205,31.847,6.015,7.452,12.175
1824,0.458,35.372,25.82,33.205,31.847,5.974,7.412,12.216
1825,0.52,35.469,25.824,33.205,31.85,5.974,7.371,12.013
1826,0.576,35.173,25.844,33.205,31.85,5.893,7.289,11.93
1827,0.616,35.314,25.731,33.186,31.844,5.811,7.207,11.807
1828,0.642,35.411,25.776,33.166,31.833,5.81,7.125,11.684
1829,0.665,35.498,25.773,33.166,31.84,5.85,7.205,11.642
1830,0.691,35.183,25.738,33.176,31.847,5.973,7.247,11.56
1831,0.714,35.362,25.749,33.185,31.847,5.893,7.247,11.397
1832,0.731,35.479,25.804,33.185,31.85,5.892,7.166,11.273
1833,0.747,35.528,25.722,33.176,31.84,5.851,7.165,11.19
1834,0.767,35.164,25.753,33.195,31.847,5.973,7.165,10.986
1835,0.757,35.285,25.827,33.186,31.847,5.893,7.084,10.903
1836,0.764,35.411,25.781,33.176,31.843,5.933,7.083,10.821
1837,0.767,35.479,25.746,33.176,31.843,5.974,7.042,10.617
1838,0.757,35.173,25.78,33.176,31.84,5.893,7.001,10.533
1839,0.761,35.304,25.812,33.185,31.843,5.892,7.001,10.329
1840,0.761,35.42,25.793,33.166,31.84,5.973,7.041,10.368
1841,0.754,35.7,25.796,33.166,31.85,5.974,7.082,10.287
1842,0.767,35.29,25.836,33.176,31.85,6.055,7.042,10.245
1843,0.78,35.439,25.793,33.205,31.861,6.137,7.164,10.245
1844,0.784,35.566,25.804,33.224,31.857,6.098,7.084,10.123
1845,0.79,35.145,25.89,33.205,31.861,6.016,6.961,9.959
1846,0.787,35.179,25.833,33.186,31.851,5.974,6.96,9.957
1847,0.774,35.285,25.738,33.205,31.854,5.893,6.96,9.835
1848,0.806,35.372,25.819,33.186,31.85,5.973,6.919,9.794
1849,0.803,35.114,25.847,33.176,31.847,5.974,6.878,9.793
1850,0.813,35.256,25.832,33.176,31.843,5.974,6.918,9.753
1851,0.807,35.401,25.82,33.185,31.85,6.015,6.878,9.671
1852,0.807,35.479,25.859,33.195,31.847,5.974,6.877,9.67
1853,0.82,35.067,25.742,33.186,31.854,6.015,6.918,9.589
1854,0.826,35.197,25.78,33.185,31.854,6.056,6.919,9.547
1855,0.817,35.304,25.828,33.166,31.847,6.056,6.878,9.466
1856,0.829,35.373,25.769,33.176,31.847,5.893,6.837,9.343
1857,0.823,35.047,25.714,33.195,31.837,5.892,6.837,9.179
1858,0.807,35.178,25.757,33.176,31.84,5.851,6.877,9.218
1859,0.803,35.295,25.796,33.176,31.84,5.851,7.04,9.178
1860,0.813,35.363,25.812,33.185,31.854,5.932,7.082,9.137
1861,0.82,35.085,25.793,33.166,31.84,5.933,7.123,9.014
1862,0.817,35.207,25.839,33.157,31.843,5.974,7.083,9.013
1863,0.82,35.333,25.777,33.166,31.84,5.933,7.164,8.932
1864,0.826,35.689,25.808,33.185,31.84,5.892,7.246,8.85
1865,0.833,35.165,25.855,33.166,31.843,5.811,7.166,8.767
1866,0.826,35.285,25.766,33.147,31.843,5.85,7.206,8.767
1867,0.833,35.382,25.679,33.176,31.84,5.891,7.247,8.685
1868,0.833,35.009,25.791,33.157,31.85,5.892,7.288,8.684
1869,0.839,35.034,25.832,33.166,31.857,5.892,7.369,8.684
1870,0.852,35.197,25.812,33.185,31.854,6.054,7.452,8.644
1871,0.853,35.295,25.808,33.195,31.861,6.056,7.371,8.644
1872,0.859,35.104,25.855,33.214,31.861,6.015,7.37,8.399
1873,0.859,35.246,25.789,33.205,31.851,5.893,7.33,8.356
1874,0.843,35.353,25.781,33.176,31.857,5.851,7.248,8.315
1875,0.843,35.431,25.835,33.166,31.851,5.851,7.288,8.234
1876,0.853,34.933,25.758,33.185,31.847,5.891,7.329,8.192
1877,0.846,35.081,25.796,33.185,31.843,5.892,7.329,8.11
1878,0.849,35.207,25.789,33.157,31.843,5.933,7.329,8.028
1879,0.843,35.266,25.812,33.176,31.843,5.811,7.289,8.068
1880,0.846,34.969,25.785,33.176,31.85,5.932,7.329,7.987
1881,0.856,35.129,25.761,33.176,31.85,5.933,7.289,7.905
1882,0.859,35.246,25.82,33.176,31.85,5.974,7.288,7.945
1883,0.856,35.295,25.808,33.233,31.85,5.933,7.207,7.864
1884,0.859,34.989,25.812,33.186,31.861,5.974,7.206,7.863
1885,0.859,35.12,25.855,33.166,31.844,5.893,7.206,7.782
1886,0.862,35.217,25.774,33.147,31.84,5.851,7.125,7.659
1887,0.856,35.515,25.808,33.137,31.833,5.81,7.165,7.658
1888,0.859,35.029,25.777,33.147,31.84,5.932,7.206,7.617
1889,0.862,35.159,25.847,33.156,31.85,6.014,7.287,7.617
1890,0.879,35.275,25.824,33.185,31.844,5.893,7.288,7.617
1891,0.879,34.893,25.793,33.166,31.85,5.973,7.207,7.576
1892,0.879,34.937,25.847,33.157,31.847,5.933,7.206,7.535
1893,0.889,35.081,25.84,33.156,31.843,5.974,7.206,7.534
1894,0.885,35.159,25.832,33.137,31.84,5.974,7.206,7.453
1895,0.882,34.853,25.812,33.137,31.843,5.893,7.206,7.412
1896,0.869,34.946,25.773,33.137,31.847,5.973,7.206,7.371
1897,0.876,35.1,25.777,33.156,31.847,5.974,7.247,7.37
1898,0.872,35.188,25.812,33.137,31.837,5.974,7.125,7.411
1899,0.882,34.777,25.867,33.166,31.847,6.055,7.246,7.452
1900,0.882,34.945,25.77,33.185,31.854,6.097,7.288,7.534
1901,0.895,35.072,25.784,33.185,31.861,6.178,7.329,7.534
1902,0.899,35.14,25.808,33.185,31.861,6.098,7.289,7.453
1903,0.892,34.853,25.82,33.166,31.851,6.016,7.125,7.371
1904,0.889,34.965,25.805,33.166,31.847,5.974,7.205,7.452
1905,0.885,35.062,25.839,33.157,31.854,5.974,7.165,7.371
1906,0.889,35.102,25.773,33.156,31.847,5.974,7.084,7.411
1907,0.905,34.834,25.785,33.156,31.847,6.015,7.164,7.371
1908,0.902,34.975,25.824,33.147,31.847,6.015,7.206,7.33
1909,0.905,35.091,25.867,33.137,31.843,5.974,7.165,7.37
1910,0.912,35.131,25.821,33.137,31.85,6.015,7.165,7.37
1911,0.912,34.853,25.789,33.156,31.847,6.015,7.124,7.37
1912,0.922,34.975,25.894,33.147,31.85,5.974,7.246,7.37
1913,0.915,35.082,25.86,33.137,31.85,5.933,7.166,7.289
1914,0.931,34.747,25.805,33.156,31.854,5.933,7.165,7.207
1915,0.931,34.744,25.859,33.137,31.847,5.974,7.043,7.125
1916,0.941,34.849,25.789,33.118,31.84,5.893,7.001,7.043
1917,0.915,34.965,25.8,33.099,31.836,5.811,6.96,7.082
1918,0.905,34.707,25.832,33.108,31.84,5.85,7.082,7.083
1919,0.915,34.849,25.867,33.108,31.843,5.891,7.083,7.083
1920,0.922,35.004,25.817,33.137,31.847,5.892,7.083,7.083
1921,0.931,35.082,25.789,33.127,31.843,5.933,7.083,7.083
1922,0.922,35.111,25.828,33.108,31.84,5.892,7.042,7.042
1923,0.925,35.265,25.785,33.118,31.847,5.892,7.082,6.96
1924,0.931,35.391,25.777,33.118,31.843,5.933,7.042,6.96
1925,0.931,35.45,25.855,33.118,31.843,5.933,7.001,6.919
1926,0.941,34.31,25.762,33.127,31.84,5.892,7.001,6.959
1927,0.948,34.461,25.804,33.108,31.843,5.892,7.001,6.919
1928,0.954,34.578,25.832,33.108,31.84,5.811,7.001,6.837
1929,0.948,34.627,25.848,33.098,31.833,5.891,7.082,6.877
1930,0.958,34.723,25.848,33.108,31.85,5.973,7.002,6.959
1931,0.968,34.897,25.84,33.127,31.854,6.055,7.123,7.041
1932,0.984,35.014,25.871,33.137,31.861,6.137,7.165,7.123
1933,0.978,35.044,25.864,33.147,31.854,6.098,7.124,6.961
1934,0.99,34.641,25.852,33.128,31.85,6.056,7.043,6.919
1935,0.987,34.752,25.856,33.127,31.85,6.097,6.96,6.878
1936,0.984,34.849,25.742,33.108,31.847,6.138,7.041,6.918
1937,0.981,34.63,25.804,33.127,31.854,6.138,7.001,6.878
1938,0.987,34.637,25.886,33.108,31.844,6.098,7.001,6.877
1939,0.984,34.771,25.887,33.118,31.85,6.178,7.041,6.877
1940,0.984,34.859,25.903,33.118,31.854,6.139,6.96,6.959
1941,0.984,34.428,25.837,33.089,31.85,6.138,7.041,6.919
1942,0.991,34.558,25.883,33.117,31.857,6.179,7.001,6.919
1943,0.997,34.713,25.774,33.108,31.847,6.179,6.96,6.959
1944,0.994,34.801,25.843,33.127,31.85,6.179,7.0,6.96
1945,1.004,34.591,25.824,33.108,31.85,6.139,6.919,6.838
1946,0.997,34.752,25.777,33.118,31.844,6.057,6.796,6.837
1947,1.01,34.859,25.679,33.118,31.833,6.015,6.714,6.877
1948,1.017,34.908,25.768,33.079,31.833,6.056,6.754,6.877
1949,1.01,34.467,25.804,33.108,31.843,6.056,6.957,6.959
1950,1.036,34.635,25.804,33.108,31.85,6.178,6.878,6.878
1951,1.037,34.762,25.832,33.118,31.847,6.098,6.837,6.959
1952,1.037,34.801,25.828,33.108,31.843,6.138,6.877,6.96
1953,1.046,34.466,25.812,33.108,31.843,6.057,6.796,6.878
1954,1.053,34.626,25.832,33.079,31.843,6.097,6.795,6.837
1955,1.047,34.704,25.859,33.079,31.84,6.097,6.795,6.877
1956,1.056,34.734,25.821,33.089,31.84,6.016,6.836,6.837
1957,1.05,34.494,25.82,33.146,31.843,6.015,6.837,6.877
1958,1.056,34.616,25.805,33.089,31.85,6.178,6.958,6.959
1959,1.056,34.742,25.855,33.108,31.854,6.22,7.082,7.082
1960,1.073,34.533,25.879,33.137,31.864,6.261,7.123,7.042
1961,1.073,34.559,25.864,33.137,31.858,6.18,7.083,6.96
1962,1.073,34.665,25.875,33.108,31.851,6.057,7.083,6.919
1963,1.076,34.743,25.774,33.108,31.847,6.137,7.083,6.919
1964,1.076,34.446,25.8,33.098,31.847,6.098,7.164,6.959
1965,1.083,34.568,25.839,33.108,31.85,6.138,7.165,6.919
1966,1.086,34.694,25.832,33.108,31.847,6.098,7.246,6.919
1967,1.096,34.791,25.789,33.146,31.854,6.097,7.166,6.878
1968,1.112,34.437,25.796,33.108,31.847,6.138,7.246,6.959
1969,1.115,34.578,25.851,33.098,31.854,6.016,7.247,6.919
1970,1.125,34.684,25.824,33.118,31.85,6.137,7.247,6.959
1971,1.125,34.791,25.82,33.127,31.854,6.057,7.288,6.878
1972,1.132,34.581,25.871,33.108,31.847,6.056,7.207,6.877
1973,1.138,34.713,25.801,33.098,31.847,5.934,7.125,6.755
1974,1.145,34.839,25.832,33.079,31.84,5.892,7.083,6.673
1975,1.139,34.86,25.832,33.05,31.836,5.892,7.123,6.753
1976,1.129,34.476,25.742,33.069,31.84,5.892,7.083,6.795
1977,1.138,34.616,25.804,33.108,31.85,5.973,7.123,6.795
1978,1.145,34.762,25.824,33.108,31.847,5.893,7.083,6.795
1979,1.155,34.782,25.898,33.089,31.843,5.933,7.123,6.836
1980,1.152,34.658,25.837,33.108,31.847,5.892,7.124,6.796
1981,1.158,34.8,25.836,33.098,31.847,5.892,7.083,6.714
1982,1.165,34.888,25.898,33.089,31.84,5.892,7.002,6.713
1983,1.171,34.783,25.844,33.079,31.843,5.892,6.96,6.672
1984,1.168,34.773,25.828,33.089,31.843,5.811,7.0,6.672
1985,1.175,34.897,25.871,33.07,31.84,5.81,7.001,6.713
1986,1.171,34.985,25.828,33.079,31.843,5.769,7.001,6.754
1987,1.178,34.775,25.769,33.069,31.843,5.85,7.041,6.754
1988,1.191,34.897,25.796,33.088,31.857,5.891,7.001,6.754
1989,1.204,35.033,25.875,33.089,31.861,5.933,7.082,6.795
1990,1.211,35.13,25.797,33.117,31.861,5.892,7.123,6.836
1991,1.217,35.131,25.836,33.118,31.861,5.933,7.002,6.714
1992,1.221,35.284,25.848,33.099,31.854,5.77,6.919,6.713
1993,1.221,35.372,25.809,33.089,31.85,5.809,6.959,6.632
1994,1.227,35.431,25.789,33.07,31.85,5.85,6.96,6.672
1995,1.237,35.134,25.867,33.069,31.85,5.851,6.838,6.631
1996,1.234,35.294,25.821,33.079,31.85,5.851,6.958,6.672
1997,1.224,35.411,25.816,33.089,31.85,5.851,6.919,6.631
1998,1.227,35.441,25.863,33.089,31.85,5.851,6.959,6.672
1999,1.237,35.441,25.856,33.089,31.847,5.81,6.838,6.672
2000,1.227,35.575,25.836,33.108,31.854,5.891,6.918,6.672
2001,1.23,35.701,25.867,33.089,31.847,5.892,6.878,6.631
2002,1.234,35.712,25.864,33.108,31.854,5.892,6.877,6.55
2003,1.24,35.693,25.836,33.108,31.85,5.892,6.877,6.63
2004,1.237,35.798,25.828,33.098,31.844,5.892,6.837,6.468
2005,1.237,35.905,25.914,33.05,31.837,5.77,6.755,6.467
2006,1.234,35.992,25.802,33.05,31.84,5.809,6.795,6.507
2007,1.234,36.07,25.816,33.069,31.843,5.891,6.877,6.549
2008,1.243,36.186,25.867,33.079,31.85,5.933,6.918,6.508
2009,1.263,36.311,25.887,33.069,31.84,5.933,6.919,6.549
2010,1.263,36.063,25.832,33.088,31.843,5.892,6.878,6.508
2011,1.254,36.176,25.836,33.089,31.847,5.892,6.877,6.467
2012,1.25,36.283,25.867,33.07,31.84,5.933,6.877,6.548
2013,1.253,36.38,25.797,33.069,31.847,5.933,6.877,6.468
2014,1.263,36.496,25.812,33.06,31.843,5.974,6.837,6.386
2015,1.25,36.602,25.847,33.05,31.84,5.893,6.877,6.425
2016,1.25,36.718,25.746,33.05,31.84,5.933,6.877,6.426
2017,1.247,36.787,25.804,33.06,31.843,5.974,6.918,6.507
2018,1.227,36.691,25.828,33.069,31.847,6.137,6.919,6.589
2019,1.243,36.834,25.836,33.088,31.85,6.138,7.0,6.549
2020,1.24,36.951,25.855,33.098,31.861,6.219,7.001,6.59
2021,1.247,37.019,25.863,33.098,31.854,6.18,7.001,6.549
2022,1.234,37.164,25.891,33.079,31.854,6.139,6.838,6.468
2023,1.237,37.28,25.825,33.069,31.844,6.016,6.877,6.426
2024,1.217,37.377,25.851,33.079,31.85,6.056,6.877,6.507
2025,1.227,37.397,25.883,33.069,31.84,6.015,6.959,6.508
2026,1.227,37.388,25.79,33.069,31.847,6.056,6.878,6.508
2027,1.237,37.512,25.863,33.079,31.847,6.097,6.918,6.467
2028,1.24,37.6,25.86,33.069,31.847,6.097,6.959,6.467
2029,1.234,37.706,25.899,33.069,31.854,6.056,7.0,6.467
2030,1.234,37.765,25.848,33.088,31.857,6.137,7.041,6.507
2031,1.23,37.9,25.832,33.089,31.847,6.098,7.082,6.467
2032,1.224,37.968,25.867,33.089,31.85,6.016,7.123,6.467
2033,1.227,37.816,25.825,33.06,31.854,6.015,7.124,6.507
2034,1.221,37.948,25.824,33.069,31.844,6.015,7.083,6.386
2035,1.211,38.017,25.836,33.05,31.84,5.893,7.164,6.344
2036,1.204,38.094,25.789,33.05,31.836,5.851,7.206,6.384
2037,1.185,38.095,25.781,33.05,31.84,5.932,7.247,6.385
2038,1.175,38.229,25.835,33.05,31.85,5.974,7.328,6.425
2039,1.175,38.355,25.883,33.06,31.844,5.933,7.289,6.466
2040,1.168,38.433,25.84,33.069,31.847,5.974,7.288,6.548
2041,1.165,38.463,25.848,33.05,31.847,5.933,7.288,6.468
2042,1.145,38.597,25.875,33.05,31.84,5.974,7.288,6.467
2043,1.145,38.723,25.856,33.05,31.84,5.893,7.247,6.386
2044,1.129,38.763,25.813,33.06,31.84,5.933,7.247,6.466
2045,1.122,38.6,25.879,33.05,31.84,5.892,7.206,6.426
2046,1.116,38.733,25.86,33.05,31.843,5.933,7.247,6.466
2047,1.119,38.84,25.801,33.107,31.847,5.974,7.206,6.467
2048,1.115,38.85,25.816,33.06,31.85,6.015,7.287,6.507
2049,1.112,38.87,25.879,33.069,31.854,6.015,7.329,6.63
2050,1.106,39.004,25.895,33.069,31.861,6.096,7.37,6.712
2051,1.102,39.111,25.907,33.098,31.861,6.097,7.37,6.51
2052,1.099,39.16,25.926,33.06,31.847,6.016,7.248,6.549
2053,1.083,39.141,25.88,33.06,31.85,6.015,7.247,6.468
2054,1.076,39.237,25.825,33.04,31.847,6.015,7.247,6.467
2055,1.06,39.334,25.883,33.04,31.854,5.974,7.166,6.507
2056,1.066,39.191,25.813,33.05,31.854,6.015,7.206,6.467
2057,1.05,39.304,25.812,33.05,31.85,5.974,7.165,6.467
2058,1.037,39.402,25.836,33.06,31.85,6.015,7.165,6.507
2059,1.033,39.498,25.855,33.06,31.854,5.974,7.206,6.508
2060,1.011,39.413,25.836,33.06,31.847,6.015,7.206,6.427
2061,1.014,39.546,25.82,33.06,31.85,6.015,7.206,6.507
2062,1.004,39.653,25.883,33.05,31.854,5.934,7.084,6.427
2063,0.997,39.721,25.856,33.05,31.847,5.892,7.042,6.426
2064,0.981,39.482,25.84,33.031,31.84,5.892,7.001,6.304
2065,0.971,39.595,25.894,33.031,31.84,5.892,7.001,6.384
2066,0.958,39.673,25.797,33.021,31.847,5.892,7.123,6.425
2067,0.968,39.741,25.804,33.05,31.847,5.933,7.043,6.426
2068,0.971,39.751,25.851,33.06,31.84,5.892,7.042,6.385
2069,0.964,39.866,25.899,33.04,31.843,5.892,7.042,6.385
2070,0.951,39.944,25.868,33.05,31.847,5.851,7.042,6.385
2071,0.938,39.974,25.84,33.05,31.843,5.81,7.042,6.344
2072,0.941,39.638,25.894,33.031,31.843,5.85,7.001,6.384
2073,0.928,39.76,25.844,33.021,31.84,5.851,6.96,6.344
2074,0.925,39.857,25.867,33.011,31.847,5.81,7.0,6.221
2075,0.918,39.915,25.91,33.011,31.837,5.769,7.001,6.302
2076,0.918,39.887,25.805,33.021,31.843,5.972,7.041,6.343
2077,0.902,40.04,25.836,33.021,31.843,5.974,7.082,6.466
2078,0.889,40.118,25.883,33.05,31.854,5.974,7.123,6.548
2079,0.892,39.899,25.895,33.069,31.857,5.974,7.124,6.508
2080,0.895,40.012,25.825,33.088,31.854,5.974,7.124,6.467
2081,0.892,40.128,25.816,33.05,31.854,5.933,7.043,6.426
2082,0.879,40.167,25.828,33.05,31.844,5.852,7.042,6.344
2083,0.869,39.822,25.789,33.05,31.847,5.851,7.042,6.384
2084,0.869,39.944,25.859,33.05,31.85,5.891,7.042,6.425
2085,0.866,40.06,25.86,33.06,31.854,5.892,7.042,6.304
2086,0.869,40.138,25.746,33.05,31.847,5.892,7.001,6.425
2087,0.879,40.014,25.874,33.04,31.85,5.892,7.001,6.466
2088,0.866,40.137,25.883,33.05,31.854,5.973,7.001,6.386
2089,0.872,40.225,25.911,33.05,31.85,5.893,7.041,6.385
2090,0.872,40.274,25.911,33.05,31.85,5.973,7.001,6.425
2091,0.876,40.015,25.872,33.05,31.861,5.893,7.001,6.344
2092,0.872,40.128,25.852,33.05,31.847,5.973,7.001,6.384
2093,0.863,40.234,25.84,33.05,31.847,5.771,6.96,6.222
2094,0.869,40.216,25.891,33.021,31.843,5.728,6.919,6.18
2095,0.859,40.111,25.836,33.002,31.84,5.809,7.0,6.179
2096,0.849,40.225,25.836,33.011,31.84,5.769,7.001,6.261
2097,0.846,40.331,25.867,33.03,31.843,5.85,7.041,6.262
2098,0.84,40.265,25.891,33.031,31.847,5.851,7.042,6.302
2099,0.843,40.044,25.883,33.05,31.843,5.851,7.001,6.262
2100,0.839,40.166,25.895,33.04,31.847,5.851,7.082,6.262
2101,0.839,40.273,25.852,33.031,31.847,5.81,7.042,6.221
2102,0.839,40.102,25.852,33.031,31.843,5.85,7.042,6.22
2103,0.833,40.196,25.84,33.021,31.843,5.851,7.042,6.22
2104,0.833,40.312,25.848,33.021,31.847,5.891,7.042,6.22
2105,0.83,40.38,25.848,33.031,31.843,5.892,7.042,6.261
2106,0.833,39.863,25.809,33.021,31.84,5.851,7.042,6.221
2107,0.83,39.992,25.824,33.021,31.84,5.891,7.042,6.22
2108,0.843,40.099,25.828,33.031,31.85,6.054,7.082,6.383
2109,0.846,40.167,25.879,33.04,31.854,6.056,7.205,6.385
2110,0.856,40.062,25.829,33.069,31.864,6.137,7.206,6.385
2111,0.862,40.215,25.855,33.079,31.864,6.138,7.206,6.303
2112,0.856,40.293,25.848,33.05,31.844,6.098,7.125,6.302
2113,0.849,40.332,25.836,33.04,31.847,6.097,7.083,6.302
2114,0.849,39.92,25.914,33.012,31.843,6.097,7.123,6.262
2115,0.843,40.031,25.856,33.021,31.847,6.138,7.124,6.262
2116,0.853,40.138,25.875,33.031,31.847,6.179,7.124,6.302
2117,0.84,40.158,25.864,33.04,31.85,6.139,7.083,6.302
2118,0.846,39.995,25.871,33.021,31.85,6.138,7.123,6.302
2119,0.836,40.118,25.918,33.031,31.85,6.219,7.124,6.384
2120,0.839,40.206,25.813,33.031,31.85,6.139,7.165,6.303
2121,0.839,40.178,25.812,33.05,31.847,6.219,7.165,6.343
2122,0.836,39.928,25.828,33.021,31.85,6.18,7.246,6.303
2123,0.833,40.05,25.828,33.011,31.847,6.179,7.166,6.262
2124,0.846,40.119,25.871,33.03,31.843,6.098,7.124,6.221
2125,0.827,40.119,25.852,33.011,31.84,6.016,7.083,6.18
2126,0.826,40.234,25.836,33.011,31.836,5.974,7.042,6.22
2127,0.836,40.341,25.836,33.011,31.843,6.096,7.164,6.302
2128,0.839,40.438,25.867,33.011,31.85,6.178,7.124,6.302
2129,0.856,39.959,25.899,33.011,31.844,6.098,7.083,6.302
2130,0.843,40.079,25.825,33.03,31.847,6.097,7.205,6.343
2131,0.849,40.196,25.836,33.011,31.843,6.097,7.043,6.303
2132,0.859,40.245,25.82,33.002,31.84,6.097,7.082,6.302
2133,0.846,39.737,25.828,33.021,31.85,6.097,7.042,6.302
2134,0.853,39.876,25.875,33.011,31.84,6.056,7.001,6.302
2135,0.856,39.944,25.828,33.011,31.83,6.056,6.96,6.262
2136,0.853,40.002,25.828,32.992,31.847,6.056,7.0,6.302
2137,0.84,39.811,25.848,33.001,31.847,6.137,7.082,6.384
2138,0.843,39.972,25.938,33.04,31.85,6.179,7.123,6.507
2139,0.843,40.051,25.931,33.05,31.861,6.139,7.165,6.508
2140,0.853,40.119,25.876,33.05,31.861,6.179,7.124,6.427
2141,0.843,39.793,25.868,33.031,31.851,6.057,7.083,6.385
2142,0.833,39.905,25.918,33.021,31.844,6.056,7.083,6.385
2143,0.833,39.964,25.872,33.021,31.843,6.056,6.961,6.425
2144,0.83,40.079,25.871,33.04,31.85,6.097,7.082,6.385
2145,0.836,39.87,25.895,33.021,31.854,6.056,7.083,6.385
2146,0.849,39.973,25.817,33.04,31.847,6.056,7.002,6.425
2147,0.849,40.079,25.816,33.021,31.847,6.056,7.041,6.385
2148,0.853,39.649,25.855,33.011,31.854,6.015,7.001,6.385
2149,0.853,39.702,25.871,33.03,31.844,6.015,7.041,6.466
2150,0.862,39.818,25.825,33.021,31.847,6.056,7.001,6.386
2151,0.856,39.896,25.836,33.031,31.85,6.056,7.041,6.425
2152,0.862,39.676,25.871,33.011,31.844,6.056,6.96,6.344
2153,0.866,39.789,25.848,33.011,31.84,5.893,6.919,6.181
2154,0.869,39.886,25.856,32.973,31.84,5.892,6.837,6.261
2155,0.863,39.906,25.891,32.973,31.836,5.851,6.877,6.302
2156,0.853,39.58,25.833,33.03,31.843,5.973,7.0,6.384
2157,0.853,39.721,25.855,33.002,31.847,5.974,6.96,6.344
2158,0.853,39.837,25.91,33.002,31.843,5.974,6.96,6.343
2159,0.859,39.877,25.899,33.002,31.847,5.974,7.0,6.262
2160,0.846,39.561,25.852,32.992,31.84,5.974,6.96,6.302
2161,0.846,39.682,25.848,33.001,31.84,5.852,7.0,6.221
