time,ecg,bvp,gsr,rsp,skt,emg_zygo,emg_coru,emg_trap
0,1.654,34.649,18.976,33.408,33.197,5.647,7.577,6.755
1,1.609,34.8,18.991,33.418,33.207,5.808,7.698,6.876
2,1.602,34.926,18.96,33.437,33.207,5.81,7.699,6.918
3,1.576,35.119,18.98,33.428,33.207,5.728,7.618,6.959
4,1.533,35.217,18.972,33.418,33.197,5.687,7.576,6.878
5,1.497,35.343,19.023,33.418,33.2,5.727,7.698,6.918
6,1.467,35.43,18.953,33.427,33.211,5.85,7.74,6.959
7,1.405,34.319,19.022,33.466,33.218,5.891,7.821,7.082
8,1.3,34.375,18.965,33.437,33.207,5.811,7.7,7.002
9,1.176,34.5,19.026,33.428,33.207,5.769,7.658,7.123
10,1.054,34.588,18.969,33.427,33.207,5.809,7.658,7.246
11,0.887,34.665,18.991,33.437,33.211,5.85,7.658,7.532
12,0.752,34.829,18.992,33.437,33.218,5.851,7.698,7.697
13,0.656,34.946,19.011,33.418,33.207,5.769,7.618,7.78
14,0.548,34.995,18.98,33.389,33.197,5.687,7.535,8.066
15,0.489,34.458,18.999,33.408,33.211,5.768,7.657,8.394
16,0.413,34.626,19.007,33.408,33.204,5.728,7.617,8.641
17,0.351,34.733,18.98,33.399,33.204,5.727,7.576,8.969
18,0.282,34.801,18.972,33.398,33.207,5.768,7.616,9.257
19,0.232,34.428,18.952,33.398,33.207,5.687,7.657,9.585
20,0.186,34.597,19.003,33.398,33.214,5.768,7.861,9.994
21,0.153,34.752,19.019,33.456,33.214,5.891,7.741,10.202
22,0.094,34.772,18.957,33.409,33.207,5.77,7.699,10.326
23,0.068,34.619,18.976,33.408,33.2,5.728,7.821,10.449
24,0.045,34.771,18.999,33.418,33.207,5.768,7.741,10.654
25,0.028,34.916,19.007,33.427,33.207,5.809,7.821,10.818
26,0.021,34.822,19.015,33.418,33.211,5.81,7.781,10.82
27,0.021,34.543,18.972,33.408,33.204,5.647,7.7,10.779
28,0.018,34.665,18.948,33.389,33.197,5.686,7.78,10.942
29,0.028,34.781,19.022,33.408,33.211,5.768,7.74,11.065
30,0.057,34.725,19.015,33.389,33.204,5.768,7.74,11.148
31,0.074,34.878,18.992,33.398,33.2,5.728,7.821,11.23
32,0.08,35.004,18.96,33.379,33.197,5.646,7.781,11.353
33,0.09,35.082,18.937,33.398,33.207,5.727,7.822,11.476
34,0.116,34.335,18.999,33.418,33.214,5.809,7.944,11.762
35,0.143,34.471,19.042,33.427,33.214,5.728,7.823,11.724
36,0.146,34.568,18.988,33.408,33.207,5.687,7.822,11.846
37,0.166,34.684,18.972,33.399,33.211,5.687,7.822,11.969
38,0.179,34.513,19.003,33.418,33.211,5.727,7.822,12.173
39,0.199,34.655,19.07,33.399,33.211,5.768,7.903,12.297
40,0.209,34.771,18.949,33.408,33.211,5.687,7.823,12.38
41,0.225,34.849,18.983,33.379,33.2,5.564,7.741,12.34
42,0.251,34.495,18.999,33.369,33.2,5.563,7.699,12.462
43,0.287,34.645,18.98,33.398,33.214,5.645,7.78,12.503
44,0.327,34.781,18.988,33.398,33.207,5.645,7.781,12.423
45,0.359,34.83,19.034,33.398,33.204,5.645,7.7,12.422
46,0.412,34.428,18.992,33.389,33.2,5.605,7.658,12.3
47,0.442,34.587,18.96,33.379,33.2,5.564,7.658,12.339
48,0.5,34.704,19.034,33.398,33.214,5.766,7.78,12.38
49,0.556,34.772,19.027,33.437,33.221,5.728,7.74,12.258
50,0.596,34.504,19.008,33.399,33.207,5.565,7.699,12.054
51,0.619,34.636,18.992,33.398,33.211,5.604,7.699,12.011
52,0.652,34.752,19.007,33.408,33.214,5.645,7.699,11.93
53,0.675,34.418,19.011,33.399,33.214,5.645,7.699,11.766
54,0.711,34.424,18.937,33.398,33.211,5.605,7.577,11.561
55,0.705,34.558,19.007,33.37,33.207,5.482,7.454,11.356
56,0.708,34.636,18.992,33.369,33.2,5.562,7.534,11.273
57,0.728,34.445,18.976,33.389,33.211,5.563,7.494,11.15
58,0.718,34.549,18.976,33.389,33.207,5.523,7.371,10.986
59,0.711,34.713,19.027,33.379,33.207,5.522,7.411,10.822
60,0.711,34.782,19.047,33.369,33.204,5.563,7.371,10.779
61,0.715,34.38,19.035,33.389,33.214,5.645,7.492,10.779
62,0.724,34.567,19.015,33.418,33.221,5.645,7.575,10.698
63,0.711,34.665,19.004,33.389,33.211,5.564,7.454,10.412
64,0.715,34.743,18.953,33.379,33.204,5.645,7.452,10.369
65,0.715,34.513,19.034,33.369,33.214,5.686,7.452,10.368
66,0.721,34.636,18.992,33.379,33.211,5.646,7.412,10.246
67,0.724,34.791,18.976,33.398,33.207,5.727,7.493,10.164
68,0.741,34.84,19.019,33.379,33.211,5.646,7.29,9.919
69,0.741,34.313,19.011,33.341,33.193,5.564,7.329,9.713
70,0.741,34.461,19.039,33.36,33.207,5.726,7.289,9.792
71,0.757,34.578,19.0,33.379,33.204,5.727,7.288,9.671
72,0.754,34.646,18.992,33.36,33.211,5.768,7.288,9.548
73,0.751,34.436,18.953,33.379,33.204,5.728,7.247,9.466
74,0.757,34.578,18.976,33.379,33.2,5.768,7.247,9.424
75,0.77,34.704,19.015,33.379,33.211,5.85,7.369,9.505
76,0.78,34.599,18.972,33.408,33.221,5.932,7.452,9.384
77,0.787,34.464,18.956,33.389,33.204,5.73,7.208,9.179
78,0.767,34.597,19.011,33.37,33.211,5.85,7.287,9.055
79,0.774,34.694,19.066,33.36,33.211,5.891,7.288,9.013
80,0.771,34.379,19.047,33.388,33.207,5.892,7.247,8.972
81,0.774,34.481,19.023,33.379,33.211,5.892,7.288,8.891
82,0.767,34.626,19.023,33.379,33.207,5.851,7.207,8.727
83,0.761,34.704,19.0,33.341,33.197,5.81,7.043,8.563
84,0.764,34.35,19.007,33.35,33.204,5.81,7.123,8.561
85,0.761,34.51,19.019,33.379,33.2,5.85,7.124,8.602
86,0.767,34.636,19.015,33.36,33.207,5.81,7.043,8.44
87,0.764,34.733,18.937,33.36,33.207,5.81,7.082,8.397
88,0.761,34.398,18.983,33.35,33.2,5.81,7.002,8.316
89,0.783,34.51,18.984,33.36,33.207,5.85,7.163,8.356
90,0.8,34.684,19.042,33.398,33.221,5.973,7.287,8.437
91,0.81,34.781,19.031,33.408,33.211,5.811,7.044,8.235
92,0.8,34.418,19.008,33.37,33.207,5.85,7.042,8.151
93,0.797,34.549,18.992,33.36,33.207,5.891,7.082,8.15
94,0.803,34.684,18.988,33.388,33.207,5.851,7.083,8.15
95,0.813,34.733,19.023,33.36,33.214,5.891,7.042,8.028
96,0.813,34.36,18.992,33.36,33.207,5.892,6.96,7.946
97,0.807,34.5,19.003,33.35,33.2,5.729,6.878,7.823
98,0.79,34.607,18.976,33.36,33.207,5.768,7.081,7.863
99,0.8,34.972,19.015,33.36,33.207,5.809,7.042,7.863
100,0.79,34.343,19.027,33.36,33.204,5.85,7.082,7.741
101,0.774,34.49,18.992,33.36,33.207,5.769,7.042,7.659
102,0.78,34.597,18.972,33.341,33.2,5.768,7.042,7.658
103,0.78,34.349,18.987,33.36,33.214,5.891,7.245,7.739
104,0.803,34.462,19.027,33.398,33.225,5.973,7.288,7.618
105,0.787,34.559,19.039,33.37,33.214,5.852,7.207,7.657
106,0.793,34.646,19.055,33.36,33.207,5.769,7.206,7.536
107,0.806,34.34,19.004,33.369,33.218,5.809,7.206,7.575
108,0.81,34.481,18.957,33.379,33.211,5.85,7.287,7.535
109,0.813,34.607,19.026,33.369,33.211,5.891,7.288,7.453
110,0.816,34.675,19.054,33.369,33.207,5.851,7.166,7.29
111,0.81,34.35,18.969,33.331,33.2,5.729,7.287,7.369
112,0.826,34.51,18.987,33.359,33.211,5.809,7.329,7.33
113,0.826,34.607,19.027,33.331,33.207,5.81,7.37,7.289
114,0.823,34.704,19.004,33.34,33.204,5.769,7.452,7.166
115,0.836,34.312,19.031,33.331,33.207,5.687,7.534,7.206
116,0.826,34.471,19.031,33.331,33.2,5.727,7.616,7.247
117,0.833,34.635,18.976,33.359,33.218,5.85,7.779,7.328
118,0.836,34.695,19.011,33.369,33.218,5.81,7.659,7.126
119,0.82,34.369,19.054,33.36,33.207,5.769,7.78,7.124
120,0.826,34.519,19.07,33.35,33.214,5.728,7.822,7.165
121,0.83,34.665,19.043,33.34,33.211,5.809,7.863,7.124
122,0.833,34.704,19.012,33.35,33.218,5.81,7.904,7.083
123,0.83,34.273,18.992,33.331,33.214,5.769,7.863,7.083
124,0.826,34.384,19.011,33.312,33.204,5.647,7.782,6.92
125,0.81,34.481,19.003,33.321,33.204,5.767,7.944,7.041
126,0.826,34.444,19.019,33.35,33.204,5.728,8.067,6.96
127,0.83,34.395,19.015,33.321,33.211,5.687,8.109,6.919
128,0.833,34.51,19.004,33.321,33.2,5.768,8.15,6.796
129,0.846,34.597,19.074,33.311,33.2,5.647,8.191,6.795
130,0.853,34.272,19.02,33.311,33.211,5.686,8.314,6.917
131,0.859,34.422,19.011,33.34,33.225,5.89,8.477,7.041
132,0.872,34.568,19.039,33.36,33.211,5.77,8.357,6.879
133,0.856,34.646,19.023,33.321,33.211,5.768,8.437,6.796
134,0.866,34.244,19.023,33.321,33.207,5.809,8.519,6.877
135,0.869,34.374,19.039,33.302,33.211,5.769,8.52,6.837
136,0.869,34.5,19.055,33.321,33.214,5.809,8.561,6.796
137,0.859,34.588,19.004,33.331,33.218,5.81,8.521,6.755
138,0.853,34.215,19.0,33.302,33.204,5.647,8.439,6.632
139,0.846,34.355,19.031,33.292,33.204,5.686,8.479,6.712
140,0.859,34.49,19.015,33.302,33.207,5.809,8.601,6.672
141,0.859,34.568,19.035,33.292,33.207,5.769,8.44,6.672
142,0.859,34.291,19.004,33.292,33.204,5.687,8.479,6.672
143,0.856,34.432,19.031,33.282,33.204,5.687,8.398,6.631
144,0.856,34.549,19.039,33.282,33.211,5.727,8.397,6.794
145,0.869,34.636,19.039,33.33,33.221,5.931,8.6,6.836
146,0.889,34.33,19.043,33.312,33.207,5.811,8.44,6.755
147,0.879,34.442,18.953,33.311,33.207,5.769,8.316,6.714
148,0.885,34.549,19.003,33.302,33.2,5.85,8.315,6.754
149,0.892,34.857,19.039,33.292,33.211,5.851,8.315,6.714
150,0.895,34.371,19.043,33.302,33.214,5.891,8.274,6.835
151,0.908,34.529,19.051,33.321,33.214,5.77,8.193,6.674
152,0.905,34.617,18.977,33.273,33.2,5.647,8.11,6.591
153,0.895,34.196,19.015,33.301,33.204,5.808,8.109,6.671
154,0.902,34.268,19.011,33.292,33.211,5.769,8.15,6.672
155,0.915,34.394,19.023,33.282,33.207,5.809,8.069,6.672
156,0.912,34.491,19.023,33.273,33.204,5.688,7.987,6.591
157,0.912,34.156,18.965,33.273,33.207,5.727,8.027,6.59
158,0.905,34.306,19.038,33.273,33.211,5.809,8.027,6.753
159,0.912,34.471,19.101,33.34,33.221,5.85,8.149,6.836
160,0.918,34.549,19.047,33.312,33.211,5.769,7.988,6.714
161,0.909,34.214,19.043,33.283,33.214,5.809,7.986,6.754
162,0.918,34.374,19.039,33.311,33.207,5.769,8.027,6.836
163,0.912,34.491,19.066,33.292,33.214,5.809,7.946,6.796
164,0.925,34.568,19.047,33.349,33.221,5.769,7.945,6.836
165,0.912,34.195,18.988,33.302,33.211,5.647,7.823,6.796
166,0.925,34.316,19.074,33.263,33.197,5.564,7.781,6.755
167,0.922,34.442,19.028,33.282,33.207,5.685,7.944,6.795
168,0.941,34.53,18.98,33.301,33.207,5.646,7.742,6.755
169,0.958,34.233,18.991,33.273,33.214,5.645,7.74,6.836
170,0.948,34.365,19.062,33.263,33.2,5.645,7.699,6.755
171,0.958,34.481,19.043,33.282,33.207,5.564,7.618,6.754
172,0.961,34.52,19.023,33.301,33.211,5.645,7.739,6.876
173,0.974,34.128,19.078,33.311,33.221,5.808,7.943,6.918
174,0.981,34.277,19.028,33.302,33.204,5.688,7.783,6.796
175,0.984,34.375,19.043,33.292,33.211,5.646,7.781,6.795
176,0.984,34.318,19.055,33.263,33.211,5.686,7.74,6.877
177,0.991,34.356,18.969,33.301,33.207,5.768,7.74,6.837
178,0.984,34.5,18.991,33.311,33.214,5.687,7.74,6.877
179,0.987,34.588,19.015,33.311,33.211,5.646,7.74,6.755
180,0.984,34.023,19.031,33.273,33.207,5.523,7.659,6.673
181,0.974,34.123,19.035,33.282,33.211,5.603,7.739,6.753
182,0.977,34.287,18.996,33.301,33.207,5.604,7.821,6.754
183,0.987,34.365,19.07,33.282,33.207,5.645,7.741,6.754
184,0.987,34.136,19.016,33.282,33.204,5.605,7.781,6.673
185,0.987,34.296,19.015,33.273,33.2,5.523,7.781,6.713
186,0.984,34.413,19.105,33.282,33.207,5.563,7.862,6.835
187,1.013,34.539,18.997,33.311,33.225,5.766,7.985,6.958
188,1.027,34.205,19.05,33.292,33.211,5.606,7.864,6.878
189,1.03,34.335,19.059,33.273,33.211,5.604,7.822,6.837
190,1.037,34.442,19.105,33.292,33.211,5.564,7.822,6.796
191,1.04,34.51,19.004,33.282,33.214,5.645,7.863,6.877
192,1.053,34.176,19.023,33.282,33.214,5.645,7.863,6.918
193,1.06,34.326,19.062,33.292,33.211,5.605,7.782,6.796
194,1.053,34.433,19.02,33.244,33.2,5.482,7.659,6.714
195,1.063,34.472,19.019,33.282,33.214,5.562,7.82,6.794
196,1.073,34.261,19.086,33.273,33.211,5.563,7.741,6.795
197,1.069,34.413,18.903,33.263,33.211,5.482,7.74,6.795
198,1.069,34.52,19.026,33.272,33.204,5.481,7.659,6.795
199,1.06,34.607,19.035,33.263,33.207,5.522,7.739,6.877
200,1.066,34.263,19.027,33.301,33.221,5.644,7.862,7.0
201,1.076,34.422,19.07,33.311,33.221,5.645,7.7,6.919
202,1.076,34.501,19.02,33.292,33.211,5.564,7.699,6.837
203,1.076,34.233,19.089,33.263,33.207,5.563,7.699,6.837
204,1.092,34.307,18.965,33.292,33.207,5.604,7.74,6.837
205,1.083,34.461,19.019,33.282,33.211,5.645,7.699,6.877
206,1.096,34.568,19.07,33.292,33.207,5.727,7.74,6.877
207,1.099,34.377,19.047,33.282,33.204,5.565,7.618,6.715
208,1.102,34.529,18.992,33.282,33.2,5.523,7.698,6.754
209,1.109,34.636,19.046,33.282,33.207,5.685,7.699,6.754
210,1.119,34.723,19.039,33.273,33.207,5.605,7.658,6.673
211,1.119,34.427,19.051,33.273,33.204,5.604,7.658,6.713
212,1.125,34.577,19.012,33.253,33.204,5.564,7.658,6.632
213,1.129,34.694,19.054,33.272,33.207,5.604,7.698,6.672
214,1.132,34.781,19.02,33.263,33.218,5.726,7.821,6.835
215,1.155,34.61,19.062,33.311,33.221,5.727,7.781,6.796
216,1.148,34.714,19.066,33.263,33.214,5.646,7.7,6.795
217,1.139,34.849,18.973,33.272,33.204,5.564,7.78,6.755
218,1.132,34.898,19.05,33.292,33.218,5.685,7.7,6.714
219,1.142,34.831,19.035,33.282,33.214,5.687,7.699,6.754
220,1.148,34.975,19.09,33.282,33.214,5.727,7.699,6.673
221,1.135,35.091,19.071,33.273,33.211,5.605,7.658,6.509
222,1.135,35.102,19.031,33.253,33.2,5.564,7.536,6.63
223,1.138,34.766,19.058,33.263,33.207,5.604,7.657,6.631
224,1.138,34.916,19.078,33.253,33.207,5.604,7.617,6.672
225,1.145,35.014,19.039,33.263,33.207,5.645,7.535,6.631
226,1.142,35.159,19.074,33.253,33.204,5.645,7.534,6.55
227,1.142,35.266,18.949,33.272,33.207,5.605,7.575,6.712
228,1.155,35.42,19.065,33.292,33.221,5.767,7.698,6.754
229,1.168,35.546,19.074,33.311,33.218,5.728,7.618,6.632
230,1.168,35.135,19.051,33.263,33.211,5.687,7.617,6.672
231,1.162,35.246,19.055,33.272,33.211,5.727,7.495,6.631
232,1.165,35.401,19.039,33.263,33.211,5.809,7.575,6.631
233,1.171,35.489,19.082,33.263,33.211,5.728,7.535,6.712
234,1.171,35.403,19.043,33.282,33.218,5.727,7.534,6.551
235,1.171,35.546,19.051,33.254,33.204,5.646,7.331,6.468
236,1.165,35.624,19.07,33.234,33.2,5.686,7.451,6.548
237,1.171,35.721,19.039,33.253,33.218,5.727,7.371,6.59
238,1.162,35.588,19.015,33.244,33.211,5.727,7.37,6.59
239,1.158,35.73,19.023,33.253,33.204,5.768,7.33,6.549
240,1.152,35.837,19.054,33.244,33.204,5.768,7.329,6.549
241,1.155,35.905,19.102,33.253,33.214,5.809,7.41,6.712
242,1.158,35.906,19.036,33.282,33.232,5.891,7.533,6.794
243,1.165,36.04,19.09,33.273,33.211,5.811,7.372,6.633
244,1.152,36.137,19.039,33.253,33.211,5.769,7.411,6.672
245,1.145,36.167,19.051,33.263,33.207,5.809,7.33,6.713
246,1.155,36.139,19.094,33.263,33.218,5.81,7.37,6.713
247,1.158,36.273,19.047,33.263,33.214,5.85,7.37,6.632
248,1.155,36.389,19.058,33.263,33.214,5.81,7.289,6.631
249,1.155,36.457,19.023,33.225,33.197,5.688,7.125,6.468
250,1.145,36.362,19.074,33.243,33.207,5.768,7.287,6.548
251,1.158,36.495,19.047,33.244,33.207,5.809,7.288,6.549
252,1.155,36.602,19.07,33.263,33.211,5.728,7.207,6.549
253,1.158,36.421,19.082,33.244,33.211,5.768,7.206,6.549
254,1.155,36.506,19.035,33.32,33.214,5.809,7.409,6.549
255,1.165,36.66,19.058,33.244,33.225,5.972,7.411,6.63
256,1.155,36.757,19.117,33.253,33.214,5.73,7.249,6.509
257,1.142,36.662,19.028,33.224,33.214,5.727,7.328,6.467
258,1.132,36.815,19.031,33.253,33.214,5.768,7.289,6.589
259,1.125,36.941,19.058,33.244,33.211,5.768,7.329,6.549
260,1.125,37.009,19.117,33.244,33.211,5.728,7.329,6.549
261,1.116,36.751,19.079,33.234,33.207,5.687,7.289,6.427
262,1.099,36.873,19.031,33.215,33.193,5.564,7.125,6.466
263,1.089,36.99,19.125,33.224,33.211,5.726,7.205,6.426
264,1.089,37.077,19.048,33.224,33.207,5.727,7.165,6.507
265,1.073,37.059,19.043,33.224,33.204,5.687,7.165,6.467
266,1.076,37.174,19.078,33.224,33.2,5.646,7.084,6.386
267,1.066,37.28,19.02,33.224,33.204,5.645,7.083,6.466
268,1.079,37.358,19.007,33.263,33.221,5.808,7.327,6.629
269,1.089,37.34,19.039,33.263,33.214,5.728,7.126,6.509
270,1.066,37.426,19.055,33.244,33.211,5.687,7.043,6.427
271,1.063,37.513,19.07,33.224,33.211,5.727,7.082,6.466
272,1.047,37.533,19.055,33.253,33.214,5.768,7.042,6.507
273,1.033,37.428,19.102,33.244,33.221,5.728,7.082,6.467
274,1.04,37.551,19.012,33.224,33.218,5.687,7.042,6.426
275,1.037,37.62,19.054,33.224,33.204,5.605,6.96,6.222
276,1.02,37.448,19.086,33.205,33.211,5.686,7.082,6.383
277,1.014,37.523,19.063,33.234,33.207,5.646,7.042,6.385
278,1.001,37.648,18.977,33.234,33.211,5.645,7.001,6.344
279,0.987,37.755,19.023,33.234,33.204,5.564,7.041,6.343
280,0.974,37.526,19.062,33.224,33.204,5.604,7.042,6.303
281,0.961,37.667,19.055,33.224,33.207,5.686,7.204,6.384
282,0.964,37.822,19.055,33.272,33.221,5.849,7.328,6.466
283,0.961,37.891,19.074,33.244,33.207,5.648,7.167,6.345
284,0.932,37.728,19.016,33.244,33.204,5.727,7.246,6.466
285,0.931,37.89,19.054,33.234,33.211,5.727,7.247,6.386
286,0.925,37.978,19.094,33.253,33.211,5.768,7.247,6.385
287,0.938,38.036,19.094,33.253,33.214,5.768,7.328,6.385
288,0.932,37.893,19.02,33.234,33.211,5.647,7.167,6.222
289,0.912,37.987,19.039,33.186,33.197,5.523,7.124,6.342
290,0.912,38.103,19.07,33.214,33.207,5.644,7.205,6.303
291,0.905,38.153,19.031,33.215,33.207,5.645,7.165,6.343
292,0.912,37.817,19.043,33.224,33.204,5.645,7.165,6.262
293,0.895,37.929,19.097,33.195,33.207,5.605,7.084,6.139
294,0.899,38.065,19.008,33.205,33.204,5.564,7.083,6.26
295,0.889,38.085,19.07,33.224,33.211,5.645,7.205,6.384
296,0.892,38.047,19.094,33.253,33.221,5.686,7.287,6.344
297,0.889,38.142,19.082,33.244,33.214,5.646,7.085,6.303
298,0.856,38.23,19.055,33.244,33.211,5.645,7.123,6.302
299,0.866,38.183,19.078,33.224,33.214,5.605,7.124,6.425
300,0.846,38.057,19.094,33.234,33.211,5.645,7.043,6.344
301,0.836,38.219,19.114,33.234,33.207,5.564,7.123,6.384
302,0.833,38.288,19.055,33.224,33.207,5.563,7.002,6.141
303,0.82,37.905,19.07,33.195,33.2,5.482,7.001,6.301
304,0.813,38.026,19.0,33.214,33.214,5.603,7.123,6.302
305,0.81,38.161,19.042,33.224,33.211,5.523,7.002,6.343
306,0.807,38.211,19.101,33.215,33.207,5.563,7.001,6.221
307,0.807,38.096,19.067,33.215,33.207,5.563,6.919,6.22
308,0.823,38.248,19.012,33.224,33.214,5.604,7.122,6.342
309,0.826,38.384,19.082,33.263,33.221,5.726,7.165,6.384
310,0.826,38.443,19.114,33.234,33.211,5.524,7.084,6.303
311,0.81,38.012,19.086,33.224,33.214,5.482,7.042,6.302
312,0.816,38.161,19.071,33.215,33.214,5.481,7.042,6.302
313,0.813,38.278,19.067,33.224,33.211,5.522,7.042,6.302
314,0.816,38.317,19.047,33.205,33.221,5.644,7.123,6.302
315,0.816,38.03,19.078,33.224,33.207,5.564,6.921,6.221
316,0.807,38.123,19.074,33.195,33.204,5.36,6.878,6.18
317,0.794,38.239,19.086,33.214,33.214,5.561,6.918,6.22
318,0.79,38.317,18.946,33.215,33.207,5.523,6.919,6.261
319,0.787,38.212,19.081,33.205,33.214,5.563,6.878,6.18
320,0.79,38.355,19.082,33.195,33.207,5.523,6.796,6.179
321,0.777,38.452,19.11,33.205,33.207,5.522,6.795,6.179
322,0.764,38.741,19.063,33.205,33.214,5.563,6.958,6.301
323,0.78,38.082,19.113,33.224,33.221,5.685,6.919,6.221
324,0.767,38.191,19.051,33.263,33.204,5.646,6.796,6.18
325,0.767,38.269,19.051,33.225,33.207,5.645,6.795,6.179
326,0.764,38.154,19.101,33.224,33.207,5.605,6.836,6.261
327,0.777,38.22,19.079,33.205,33.211,5.645,6.837,6.262
328,0.784,38.355,19.051,33.214,33.214,5.645,6.837,6.221
329,0.787,38.452,19.062,33.234,33.211,5.564,6.714,6.058
330,0.78,37.983,19.086,33.186,33.193,5.482,6.713,6.097
331,0.784,38.113,19.082,33.214,33.211,5.603,6.794,6.138
332,0.784,38.258,19.11,33.215,33.207,5.564,6.714,6.138
333,0.784,38.327,19.098,33.205,33.207,5.523,6.672,6.138
334,0.787,38.068,19.024,33.186,33.204,5.522,6.631,6.098
335,0.787,38.2,19.054,33.205,33.211,5.563,6.712,6.097
336,0.787,38.336,19.121,33.234,33.221,5.645,6.835,6.3
337,0.787,38.433,19.102,33.224,33.221,5.605,6.755,6.099
338,0.764,37.983,19.004,33.215,33.214,5.604,6.673,6.138
339,0.764,38.103,19.058,33.215,33.211,5.645,6.713,6.179
340,0.764,38.229,19.141,33.205,33.214,5.645,6.835,6.057
341,0.754,38.278,19.075,33.214,33.221,5.645,6.837,6.137
342,0.761,37.972,19.086,33.234,33.214,5.727,6.837,6.016
343,0.761,38.113,19.09,33.186,33.204,5.524,6.714,6.015
344,0.738,38.181,18.996,33.205,33.207,5.644,6.876,6.096
345,0.754,38.24,19.05,33.214,33.207,5.645,6.877,6.097
346,0.757,37.981,19.125,33.205,33.207,5.564,6.918,6.097
347,0.748,38.094,19.071,33.205,33.207,5.645,7.041,6.056
348,0.764,38.239,19.055,33.214,33.207,5.564,7.042,6.056
349,0.767,38.02,19.098,33.195,33.207,5.604,7.204,6.137
350,0.774,37.931,19.063,33.224,33.221,5.767,7.328,6.26
351,0.787,38.074,19.09,33.224,33.218,5.647,7.329,6.221
352,0.78,38.143,19.078,33.215,33.214,5.645,7.37,6.18
353,0.774,37.808,19.121,33.224,33.211,5.686,7.37,6.179
354,0.784,37.919,19.079,33.205,33.214,5.727,7.411,6.139
355,0.787,38.074,19.094,33.214,33.214,5.687,7.493,6.138
356,0.78,38.152,19.11,33.215,33.211,5.646,7.453,6.138
357,0.767,37.76,19.086,33.167,33.207,5.483,7.412,6.057
358,0.757,37.881,19.016,33.195,33.207,5.684,7.493,6.178
359,0.767,38.035,19.105,33.195,33.211,5.605,7.494,6.098
360,0.761,38.085,19.047,33.195,33.211,5.645,7.494,6.016
361,0.751,37.663,19.109,33.176,33.207,5.564,7.534,5.974
362,0.751,37.812,19.063,33.195,33.204,5.563,7.494,6.055
363,0.761,37.948,19.129,33.205,33.225,5.726,7.778,6.259
364,0.774,38.026,19.083,33.253,33.221,5.687,7.618,6.18
365,0.767,37.739,19.078,33.205,33.211,5.646,7.617,6.139
366,0.754,37.852,19.149,33.195,33.214,5.605,7.576,6.219
367,0.77,37.958,19.075,33.186,33.214,5.645,7.657,6.22
368,0.777,37.988,19.047,33.205,33.218,5.645,7.698,6.18
369,0.784,37.729,19.066,33.214,33.214,5.686,7.618,6.22
370,0.774,37.861,19.063,33.195,33.207,5.564,7.617,6.098
371,0.767,37.939,19.082,33.166,33.2,5.482,7.576,6.178
372,0.78,38.208,19.078,33.195,33.214,5.603,7.616,6.139
373,0.777,37.732,19.067,33.186,33.214,5.564,7.617,6.179
374,0.78,37.852,19.129,33.176,33.211,5.523,7.576,6.179
375,0.787,37.958,19.079,33.176,33.207,5.522,7.494,6.139
376,0.787,37.624,19.078,33.166,33.211,5.522,7.494,6.179
377,0.774,37.687,19.133,33.176,33.221,5.685,7.656,6.342
378,0.79,37.851,19.126,33.214,33.221,5.687,7.658,6.221
379,0.777,37.958,19.091,33.215,33.214,5.605,7.617,6.22
380,0.767,37.691,19.102,33.186,33.214,5.564,7.535,6.22
381,0.77,37.832,19.129,33.195,33.211,5.645,7.575,6.261
382,0.767,37.948,19.075,33.186,33.207,5.645,7.616,6.262
383,0.77,38.036,19.113,33.185,33.211,5.686,7.576,6.221
384,0.777,37.481,19.11,33.205,33.207,5.646,7.535,6.22
385,0.751,37.609,19.071,33.166,33.197,5.523,7.372,6.139
386,0.761,37.716,19.07,33.176,33.218,5.644,7.533,6.219
387,0.774,37.784,19.129,33.166,33.207,5.605,7.494,6.22
388,0.777,37.545,19.087,33.166,33.211,5.564,7.453,6.139
389,0.774,37.667,19.117,33.166,33.207,5.604,7.452,6.138
390,0.774,37.774,19.087,33.166,33.207,5.645,7.412,6.179
391,0.777,37.814,19.141,33.185,33.218,5.686,7.533,6.22
392,0.79,37.411,19.098,33.205,33.225,5.809,7.534,6.302
393,0.79,37.532,19.129,33.166,33.214,5.688,7.453,6.18
394,0.79,37.629,19.102,33.157,33.218,5.727,7.371,6.22
395,0.793,37.659,19.043,33.166,33.218,5.727,7.411,6.22
396,0.797,37.534,19.121,33.176,33.207,5.727,7.411,6.22
397,0.794,37.658,19.122,33.185,33.211,5.768,7.411,6.18
398,0.784,37.755,19.071,33.166,33.211,5.687,7.289,6.139
399,0.771,37.497,19.078,33.147,33.207,5.646,7.166,6.098
400,0.767,37.446,19.133,33.156,33.207,5.767,7.246,6.138
401,0.77,37.59,19.11,33.156,33.211,5.728,7.328,6.138
402,0.764,37.658,19.102,33.156,33.207,5.687,7.329,6.098
403,0.764,37.247,19.125,33.156,33.207,5.646,7.248,6.056
404,0.761,37.348,19.079,33.147,33.207,5.645,7.288,6.137
405,0.764,37.503,19.086,33.166,33.207,5.767,7.41,6.26
406,0.77,37.6,19.133,33.195,33.225,5.85,7.493,6.302
407,0.78,37.735,19.134,33.186,33.214,5.769,7.412,6.18
408,0.784,37.88,19.04,33.166,33.214,5.728,7.452,6.098
409,0.793,37.978,19.062,33.157,33.214,5.727,7.493,6.178
410,0.79,38.055,19.117,33.176,33.218,5.768,7.453,6.139
411,0.78,36.953,19.157,33.176,33.214,5.768,7.534,6.179
412,0.797,37.125,19.079,33.185,33.207,5.728,7.494,6.179
413,0.79,37.213,19.149,33.147,33.204,5.646,7.331,6.057
414,0.787,37.242,19.087,33.118,33.207,5.686,7.37,6.137
415,0.793,37.147,19.106,33.156,33.207,5.646,7.411,6.098
416,0.787,37.299,19.102,33.147,33.207,5.645,7.371,6.097
417,0.771,37.377,19.141,33.147,33.207,5.645,7.33,6.016
418,0.764,37.426,19.052,33.137,33.204,5.645,7.289,6.056
419,0.754,37.081,19.059,33.147,33.211,5.605,7.369,6.097
420,0.767,37.25,19.09,33.156,33.214,5.848,7.452,6.178
421,0.774,37.367,19.082,33.176,33.221,5.81,7.452,6.179
422,0.777,37.464,19.117,33.137,33.214,5.728,7.371,6.057
423,0.774,37.216,19.129,33.147,33.211,5.687,7.37,6.097
424,0.774,37.338,19.114,33.156,33.211,5.727,7.33,6.138
425,0.771,37.435,19.098,33.166,33.211,5.809,7.41,6.138
426,0.77,36.966,19.149,33.166,33.218,5.81,7.411,6.179
427,0.777,37.019,19.145,33.176,33.207,5.769,7.371,6.098
428,0.787,37.116,19.079,33.147,33.2,5.647,7.33,5.894
429,0.764,37.193,19.059,33.137,33.207,5.727,7.41,6.014
430,0.78,36.916,19.094,33.156,33.207,5.768,7.452,5.974
431,0.78,37.057,19.086,33.147,33.211,5.768,7.493,6.055
432,0.784,37.164,19.094,33.156,33.207,5.768,7.412,5.975
433,0.78,37.232,19.11,33.137,33.204,5.687,7.452,5.933
434,0.79,36.811,19.063,33.127,33.211,5.687,7.493,6.014
435,0.787,37.008,19.109,33.175,33.228,5.89,7.656,6.259
436,0.813,37.125,19.149,33.176,33.218,5.851,7.495,5.977
437,0.787,37.155,19.138,33.128,33.211,5.769,7.453,6.096
438,0.767,36.791,19.016,33.147,33.211,5.768,7.452,6.138
439,0.77,36.95,19.121,33.156,33.214,5.85,7.534,6.138
440,0.77,37.077,19.118,33.156,33.218,5.729,7.494,6.098
441,0.764,37.107,19.102,33.156,33.211,5.809,7.371,6.097
442,0.757,36.848,19.106,33.128,33.2,5.688,7.289,5.975
443,0.761,36.97,19.079,33.127,33.207,5.727,7.329,6.055
444,0.754,37.096,19.141,33.137,33.207,5.727,7.37,6.097
445,0.761,37.097,19.145,33.137,33.214,5.687,7.33,6.016
446,0.754,36.656,19.095,33.137,33.207,5.687,7.248,6.056
447,0.757,36.786,19.16,33.127,33.204,5.687,7.328,6.015
448,0.767,36.883,19.11,33.127,33.218,5.687,7.329,6.056
449,0.777,36.817,19.094,33.185,33.221,5.89,7.41,6.219
450,0.793,36.845,19.11,33.176,33.221,5.77,7.371,6.098
451,0.784,36.941,19.106,33.137,33.214,5.687,7.37,6.097
452,0.777,37.038,19.118,33.137,33.211,5.687,7.33,6.097
453,0.78,36.502,19.122,33.166,33.221,5.687,7.289,6.138
454,0.784,36.631,19.118,33.157,33.211,5.768,7.329,6.098
455,0.79,36.776,19.118,33.147,33.218,5.647,7.248,6.056
456,0.777,36.835,19.114,33.108,33.2,5.605,7.125,5.975
457,0.764,36.692,19.149,33.127,33.211,5.645,7.246,6.137
458,0.767,36.853,19.102,33.137,33.211,5.645,7.247,5.976
459,0.767,36.98,19.082,33.127,33.207,5.645,7.166,6.137
460,0.757,37.039,19.121,33.137,33.211,5.645,7.165,5.976
461,0.754,36.454,19.106,33.118,33.204,5.605,7.124,6.015
462,0.757,36.602,19.133,33.118,33.214,5.726,7.246,6.096
463,0.761,36.757,19.106,33.156,33.225,5.809,7.41,6.3
464,0.761,36.816,19.164,33.147,33.211,5.647,7.249,6.099
465,0.748,36.49,19.122,33.137,33.211,5.605,7.288,6.219
466,0.754,36.64,19.094,33.147,33.218,5.726,7.247,6.18
467,0.761,36.748,19.203,33.128,33.211,5.646,7.206,6.139
468,0.764,36.797,19.115,33.137,33.214,5.727,7.287,6.179
469,0.764,36.529,19.118,33.156,33.214,5.646,7.247,6.098
470,0.774,36.641,19.11,33.128,33.211,5.645,7.166,6.016
471,0.758,36.728,19.125,33.108,33.2,5.645,7.084,6.137
472,0.767,36.71,19.11,33.185,33.211,5.645,7.123,6.138
473,0.764,36.518,19.118,33.128,33.204,5.686,7.205,6.098
474,0.774,36.631,19.165,33.118,33.204,5.605,7.043,6.056
475,0.774,36.719,19.009,33.127,33.204,5.645,7.001,6.097
476,0.761,36.432,19.089,33.108,33.214,5.767,7.204,6.178
477,0.774,36.554,19.164,33.156,33.225,5.809,7.247,6.22
478,0.767,36.67,19.157,33.137,33.211,5.728,7.044,6.139
479,0.754,36.748,19.067,33.118,33.211,5.768,7.164,6.179
480,0.738,36.346,19.117,33.127,33.211,5.728,7.165,6.139
481,0.747,36.495,19.114,33.147,33.214,5.809,7.246,6.219
482,0.747,36.631,19.165,33.137,33.214,5.81,7.247,6.18
483,0.747,36.7,19.118,33.147,33.211,5.769,7.166,6.057
484,0.734,36.384,19.133,33.108,33.197,5.647,7.043,6.097
485,0.725,36.524,19.083,33.137,33.211,5.727,7.164,6.097
486,0.744,36.65,19.102,33.127,33.207,5.727,7.206,6.097
487,0.751,36.709,19.157,33.127,33.207,5.727,7.206,6.056
488,0.748,36.393,19.13,33.108,33.207,5.687,7.165,6.015
489,0.751,36.534,19.11,33.108,33.207,5.727,7.165,6.096
490,0.751,36.641,19.157,33.127,33.211,5.768,7.287,6.219
491,0.767,36.728,19.157,33.147,33.221,5.891,7.451,6.261
492,0.774,36.48,19.153,33.128,33.211,5.729,7.29,6.139
493,0.761,36.573,19.134,33.127,33.211,5.727,7.247,6.057
494,0.764,36.699,19.126,33.118,33.214,5.768,7.288,6.097
495,0.761,36.786,19.126,33.108,33.218,5.768,7.329,6.138
496,0.767,36.356,19.133,33.137,33.218,5.809,7.289,6.098
497,0.754,36.476,19.153,33.118,33.207,5.688,7.247,6.056
498,0.748,36.554,19.075,33.099,33.204,5.687,7.206,6.056
499,0.747,36.574,19.129,33.165,33.207,5.727,7.369,6.097
500,0.741,36.641,19.106,33.118,33.211,5.727,7.248,6.097
501,0.744,36.748,19.129,33.108,33.207,5.687,7.247,6.056
502,0.734,36.854,19.137,33.108,33.204,5.727,7.206,6.056
503,0.734,36.27,19.141,33.089,33.211,5.687,7.206,6.097
504,0.738,36.418,19.141,33.127,33.221,5.727,7.45,6.26
505,0.744,36.573,19.157,33.156,33.228,5.809,7.208,6.099
506,0.731,36.622,19.13,33.118,33.218,5.728,7.247,6.138
507,0.741,36.46,19.18,33.099,33.211,5.687,7.206,6.179
508,0.754,36.602,19.138,33.118,33.211,5.727,7.206,6.139
509,0.748,36.738,19.114,33.127,33.214,5.687,7.206,6.219
510,0.76,36.806,19.133,33.108,33.218,5.727,7.165,6.058
511,0.757,36.337,19.13,33.108,33.207,5.646,7.124,5.975
512,0.748,36.447,19.114,33.098,33.2,5.727,7.165,6.096
513,0.747,36.621,19.098,33.118,33.211,5.727,7.165,6.056
514,0.754,36.632,19.176,33.118,33.207,5.687,7.206,6.056
515,0.754,36.46,19.064,33.108,33.207,5.727,7.125,5.934
516,0.751,36.602,19.137,33.098,33.207,5.646,7.043,5.892
517,0.738,36.709,19.149,33.098,33.211,5.727,7.082,6.095
518,0.741,36.748,19.208,33.127,33.228,5.931,7.205,6.219
519,0.747,36.403,19.099,33.137,33.221,5.811,7.084,6.017
520,0.721,36.505,19.059,33.118,33.214,5.769,7.083,6.056
521,0.734,36.621,19.133,33.108,33.211,5.768,7.042,6.137
522,0.738,36.603,19.145,33.118,33.214,5.768,7.082,6.138
523,0.734,36.517,19.153,33.118,33.214,5.768,7.002,6.057
524,0.734,36.65,19.169,33.137,33.214,5.768,7.001,6.097
525,0.718,36.757,19.138,33.089,33.207,5.565,6.838,6.056
526,0.711,36.336,19.145,33.098,33.211,5.726,6.958,6.137
527,0.731,36.457,19.196,33.108,33.214,5.727,7.0,6.138
528,0.731,36.573,19.165,33.098,33.207,5.687,6.96,6.057
529,0.738,36.67,19.157,33.079,33.207,5.646,7.0,6.137
530,0.728,36.364,19.118,33.098,33.2,5.686,7.001,6.098
531,0.738,36.524,19.165,33.108,33.214,5.768,7.163,6.26
532,0.744,36.737,19.114,33.175,33.225,5.85,7.206,6.221
533,0.754,36.748,19.149,33.118,33.211,5.648,7.084,6.261
534,0.741,36.48,19.165,33.099,33.221,5.645,7.123,6.139
535,0.754,36.64,19.126,33.137,33.207,5.686,7.165,6.138
536,0.754,36.767,19.126,33.108,33.214,5.687,7.124,6.138
537,0.748,36.816,19.176,33.118,33.221,5.768,7.124,6.219
538,0.728,36.375,19.157,33.099,33.214,5.647,7.124,6.139
539,0.728,36.486,19.056,33.089,33.197,5.564,7.043,6.179
540,0.721,36.612,19.125,33.098,33.211,5.645,7.123,6.139
541,0.708,36.642,19.137,33.089,33.211,5.645,7.043,6.219
542,0.715,36.489,19.126,33.079,33.207,5.645,7.042,6.139
543,0.702,36.593,19.122,33.079,33.204,5.564,7.042,6.098
544,0.705,36.709,19.161,33.089,33.211,5.604,7.042,6.219
545,0.708,37.093,19.118,33.117,33.225,5.726,7.245,6.383
546,0.728,36.579,19.169,33.127,33.218,5.687,7.044,6.222
547,0.715,36.67,19.196,33.099,33.211,5.605,7.001,6.261
548,0.718,36.777,19.165,33.118,33.211,5.645,7.001,6.18
549,0.708,36.461,19.153,33.108,33.211,5.645,7.082,6.179
550,0.731,36.516,19.149,33.118,33.207,5.645,7.123,6.261
551,0.741,36.66,19.153,33.108,33.218,5.686,7.043,6.139
552,0.738,36.738,19.091,33.098,33.204,5.564,6.96,6.138
553,0.721,36.288,19.125,33.089,33.207,5.685,7.041,6.138
554,0.734,36.447,19.172,33.079,33.214,5.605,7.082,6.138
555,0.738,36.563,19.118,33.089,33.214,5.645,7.083,6.138
556,0.728,36.651,19.106,33.07,33.207,5.564,7.002,6.098
557,0.712,36.479,19.168,33.069,33.204,5.523,7.082,6.178
558,0.715,36.64,19.157,33.079,33.214,5.603,7.164,6.22
559,0.734,36.786,19.114,33.117,33.225,5.767,7.246,6.22
560,0.721,36.845,19.149,33.118,33.211,5.647,7.166,6.18
561,0.715,36.443,19.157,33.099,33.218,5.645,7.246,6.139
562,0.702,36.573,19.157,33.098,33.218,5.605,7.288,6.138
563,0.711,36.718,19.181,33.118,33.218,5.645,7.288,6.26
564,0.711,36.748,19.157,33.099,33.218,5.645,7.288,6.221
565,0.708,36.423,19.169,33.098,33.207,5.605,7.207,6.098
566,0.698,36.534,19.138,33.07,33.2,5.564,7.125,6.138
567,0.714,36.641,19.2,33.088,33.207,5.645,7.205,6.138
568,0.715,36.661,19.146,33.079,33.207,5.605,7.165,6.138
569,0.711,36.508,19.114,33.089,33.204,5.604,7.206,6.138
570,0.721,36.65,19.172,33.089,33.207,5.604,7.165,6.138
571,0.711,36.748,19.157,33.089,33.207,5.645,7.246,6.138
572,0.724,36.557,19.157,33.108,33.228,5.767,7.369,6.219
573,0.734,36.497,19.126,33.108,33.214,5.687,7.248,6.098
574,0.734,36.602,19.2,33.079,33.214,5.727,7.206,6.097
575,0.728,36.69,19.146,33.079,33.207,5.687,7.165,6.097
576,0.731,36.288,19.173,33.098,33.211,5.687,7.165,6.178
577,0.728,36.399,19.181,33.089,33.218,5.809,7.246,6.22
578,0.715,36.525,19.189,33.108,33.221,5.769,7.206,6.098
579,0.721,36.603,19.181,33.079,33.207,5.647,7.125,5.975
580,0.705,36.325,19.118,33.079,33.214,5.767,7.165,6.137
581,0.711,36.495,19.133,33.079,33.207,5.809,7.124,6.138
582,0.702,36.621,19.083,33.089,33.211,5.728,7.124,6.098
583,0.701,36.68,19.16,33.07,33.207,5.768,7.083,6.097
584,0.701,36.384,19.161,33.069,33.204,5.728,7.123,6.097
585,0.701,36.524,19.083,33.098,33.207,5.85,7.165,6.138
586,0.701,36.689,19.133,33.127,33.225,5.973,7.287,6.26
587,0.714,36.738,19.212,33.118,33.221,5.893,7.125,6.058
588,0.718,36.336,19.181,33.079,33.211,5.892,7.124,6.097
589,0.731,36.457,19.15,33.089,33.211,5.851,7.165,6.138
590,0.731,36.592,19.141,33.108,33.214,5.851,7.206,6.179
591,0.741,36.632,19.157,33.089,33.218,5.851,7.165,6.179
592,0.744,36.421,19.071,33.108,33.218,5.891,7.165,6.139
593,0.738,36.544,19.137,33.079,33.207,5.729,6.962,6.138
594,0.731,36.612,19.176,33.05,33.2,5.768,7.041,6.138
595,0.741,36.786,19.169,33.079,33.211,5.809,7.042,6.138
596,0.76,36.365,19.161,33.079,33.214,5.81,7.042,6.057
597,0.751,36.476,19.196,33.079,33.211,5.81,7.042,6.137
598,0.754,36.573,19.189,33.069,33.207,5.81,6.96,6.057
599,0.757,36.296,19.083,33.069,33.214,5.891,7.082,6.219
600,0.774,36.389,19.129,33.127,33.225,5.973,7.327,6.302
601,0.797,36.534,19.153,33.079,33.218,5.811,7.126,6.221
602,0.787,36.603,19.177,33.156,33.211,5.891,7.124,6.18
603,0.787,36.172,19.138,33.089,33.218,5.851,7.165,6.139
604,0.797,36.292,19.216,33.108,33.214,5.932,7.165,6.179
605,0.807,36.437,19.029,33.108,33.218,5.933,7.206,6.22
606,0.81,36.525,19.179,33.098,33.207,5.77,7.084,6.098
607,0.82,36.181,19.216,33.05,33.197,5.728,7.042,6.056
608,0.833,36.311,19.236,33.069,33.207,5.85,7.204,6.137
609,0.843,36.457,19.174,33.079,33.214,5.81,7.165,6.098
610,0.846,36.525,19.142,33.089,33.211,5.769,7.165,6.138
611,0.846,36.2,19.177,33.07,33.2,5.728,7.206,6.098
612,0.833,36.331,19.107,33.069,33.211,5.687,7.287,6.097
613,0.836,36.457,19.137,33.088,33.214,5.849,7.41,6.219
614,0.856,36.535,19.212,33.108,33.225,5.81,7.452,6.18
615,0.853,36.2,19.123,33.079,33.214,5.728,7.371,6.179
616,0.846,36.321,19.157,33.069,33.218,5.727,7.37,6.139
617,0.849,36.437,19.212,33.088,33.211,5.727,7.411,6.138
618,0.843,36.448,19.248,33.089,33.214,5.768,7.533,6.179
619,0.849,36.199,19.193,33.089,33.225,5.809,7.494,6.22
620,0.853,36.34,19.154,33.079,33.211,5.688,7.412,6.098
621,0.846,36.399,19.192,33.05,33.207,5.646,7.411,6.097
622,0.823,36.189,19.134,33.079,33.207,5.767,7.452,6.097
623,0.833,36.168,19.173,33.06,33.207,5.687,7.493,6.097
624,0.813,36.292,19.196,33.05,33.204,5.687,7.453,6.138
625,0.813,36.399,19.134,33.079,33.207,5.687,7.534,6.057
626,0.813,36.064,19.161,33.06,33.207,5.646,7.575,6.178
627,0.839,36.186,19.188,33.098,33.218,5.808,7.698,6.261
628,0.846,36.34,19.228,33.089,33.221,5.85,7.577,6.139
629,0.836,36.399,19.158,33.089,33.207,5.81,7.616,6.138
630,0.846,36.026,19.2,33.089,33.211,5.728,7.617,6.179
631,0.846,36.166,19.189,33.079,33.214,5.727,7.576,6.179
632,0.849,36.302,19.111,33.069,33.214,5.727,7.657,6.179
633,0.859,36.38,19.137,33.098,33.218,5.85,7.576,6.098
634,0.872,36.016,19.2,33.05,33.207,5.688,7.372,5.975
635,0.853,36.128,19.111,33.05,33.211,5.687,7.452,6.137
636,0.872,36.292,19.161,33.069,33.211,5.768,7.493,6.138
637,0.853,36.341,19.157,33.069,33.207,5.687,7.453,6.057
638,0.849,35.977,19.224,33.041,33.207,5.687,7.452,6.056
639,0.853,36.089,19.173,33.05,33.204,5.646,7.452,6.097
640,0.846,36.224,19.134,33.069,33.214,5.767,7.534,6.219
641,0.856,36.293,19.18,33.098,33.228,5.85,7.616,6.261
642,0.853,36.111,19.134,33.07,33.207,5.688,7.454,6.139
643,0.849,36.234,19.188,33.06,33.211,5.768,7.534,6.138
644,0.84,36.331,19.208,33.088,33.214,5.768,7.575,6.219
645,0.833,36.284,19.111,33.07,33.218,5.768,7.698,6.22
646,0.839,35.996,19.18,33.079,33.221,5.891,7.658,6.22
647,0.862,36.108,19.2,33.05,33.211,5.729,7.576,6.058
648,0.84,36.167,19.142,33.04,33.2,5.687,7.657,6.137
649,0.849,35.899,19.188,33.059,33.207,5.809,7.698,6.138
650,0.843,35.983,19.173,33.06,33.211,5.85,7.658,6.057
651,0.839,36.108,19.181,33.05,33.207,5.81,7.739,6.097
652,0.833,36.196,19.173,33.031,33.204,5.81,7.699,6.138
653,0.83,35.851,19.192,33.069,33.214,5.932,7.861,6.179
654,0.826,36.011,19.204,33.098,33.228,5.974,7.944,6.179
655,0.813,36.118,19.193,33.06,33.218,5.893,7.864,6.057
656,0.807,36.186,19.154,33.06,33.218,5.892,7.863,6.097
657,0.797,35.822,19.149,33.05,33.207,5.851,7.822,6.138
658,0.8,35.972,19.259,33.06,33.225,6.013,7.822,6.138
659,0.797,36.089,19.221,33.079,33.218,6.015,7.822,6.138
660,0.774,36.138,19.15,33.05,33.207,5.852,7.7,5.976
661,0.754,35.764,19.122,33.031,33.204,5.891,7.74,6.055
662,0.761,35.933,19.141,33.059,33.214,5.892,7.781,6.097
663,0.767,36.05,19.188,33.05,33.214,5.933,7.862,6.097
664,0.754,36.09,19.212,33.05,33.207,5.892,7.782,6.016
665,0.744,35.793,19.142,33.04,33.204,5.933,7.822,5.974
666,0.731,35.924,19.184,33.069,33.211,5.974,7.985,6.218
667,0.751,36.079,19.216,33.088,33.221,6.096,8.068,6.22
668,0.754,36.08,19.244,33.06,33.221,5.975,8.028,6.139
669,0.744,35.821,19.181,33.06,33.218,5.974,7.946,6.016
670,0.757,35.963,19.181,33.06,33.214,6.015,7.986,6.137
671,0.735,36.05,19.185,33.06,33.218,6.015,8.027,6.179
672,0.738,35.792,19.189,33.079,33.221,5.974,8.027,6.22
673,0.731,35.799,19.185,33.05,33.218,5.974,7.946,6.098
674,0.721,35.886,19.204,33.012,33.204,5.852,7.945,5.975
675,0.721,36.011,19.189,33.04,33.214,5.973,7.905,6.055
676,0.715,35.61,19.169,33.059,33.207,5.933,7.863,6.097
677,0.715,35.74,19.212,33.031,33.207,5.892,7.944,6.056
678,0.692,35.837,19.236,33.031,33.211,5.811,7.823,6.056
679,0.695,35.924,19.213,33.031,33.211,5.891,7.822,6.137
680,0.685,35.705,19.189,33.079,33.225,6.054,8.025,6.26
681,0.698,35.875,19.212,33.06,33.221,5.934,7.865,6.139
682,0.672,35.954,19.15,33.05,33.214,5.974,7.944,6.057
683,0.682,36.05,19.204,33.069,33.214,6.015,7.864,6.178
684,0.666,36.185,19.236,33.06,33.221,5.974,7.944,6.22
685,0.669,36.321,19.166,33.069,33.218,5.974,7.945,6.22
686,0.682,36.447,19.157,33.079,33.214,5.974,7.864,6.098
687,0.672,36.477,19.165,33.031,33.2,5.811,7.782,6.016
688,0.669,35.192,19.27,33.011,33.207,5.891,7.862,6.137
689,0.678,35.352,19.19,33.059,33.214,5.892,7.822,6.138
690,0.678,35.469,19.22,33.031,33.211,5.892,7.741,6.179
691,0.675,35.508,19.162,33.05,33.207,5.811,7.781,6.179
692,0.665,35.643,19.204,33.05,33.211,5.891,7.74,6.179
693,0.649,35.788,19.169,33.05,33.214,5.851,7.862,6.342
694,0.672,35.934,19.216,33.069,33.221,6.013,7.863,6.425
695,0.672,35.743,19.209,33.041,33.214,5.852,7.7,6.263
696,0.652,35.434,19.169,33.107,33.211,5.891,7.78,6.221
697,0.646,35.575,19.212,33.06,33.214,5.933,7.7,6.342
698,0.639,35.692,19.263,33.05,33.218,5.974,7.699,6.384
699,0.642,35.52,19.24,33.05,33.218,5.974,7.699,6.466
700,0.629,35.653,19.224,33.05,33.211,5.933,7.658,6.386
701,0.623,35.74,19.181,33.021,33.2,5.77,7.576,6.303
702,0.619,35.856,19.161,33.05,33.214,5.891,7.657,6.384
703,0.632,35.436,19.227,33.04,33.207,5.892,7.617,6.425
704,0.629,35.566,19.228,33.031,33.211,5.811,7.535,6.426
705,0.629,35.701,19.181,33.031,33.207,5.728,7.453,6.426
706,0.629,35.779,19.173,33.031,33.207,5.809,7.534,6.385
707,0.639,35.464,19.231,33.059,33.214,5.972,7.616,6.588
708,0.662,35.633,19.275,33.079,33.225,6.015,7.657,6.468
709,0.649,35.731,19.236,33.05,33.207,5.852,7.617,6.426
710,0.649,35.799,19.228,33.05,33.207,5.891,7.576,6.466
711,0.659,35.416,19.177,33.05,33.218,5.892,7.657,6.548
712,0.652,35.556,19.228,33.05,33.214,5.933,7.739,6.59
713,0.652,35.682,19.205,33.06,33.218,5.892,7.699,6.549
714,0.662,35.702,19.201,33.031,33.207,5.811,7.658,6.346
715,0.649,35.357,19.169,32.992,33.2,5.769,7.739,6.425
716,0.655,35.517,19.189,33.021,33.218,5.85,7.781,6.466
717,0.646,35.643,19.212,33.04,33.207,5.769,7.7,6.426
718,0.633,35.884,19.236,33.031,33.207,5.809,7.74,6.426
719,0.639,35.407,19.228,33.021,33.211,5.769,7.74,6.385
720,0.636,35.546,19.228,33.021,33.207,5.85,7.821,6.547
721,0.636,35.682,19.213,33.059,33.218,5.932,7.985,6.63
722,0.649,35.395,19.208,33.079,33.218,5.933,7.824,6.59
723,0.636,35.393,19.169,33.031,33.214,5.892,7.863,6.549
724,0.629,35.527,19.235,33.04,33.211,5.973,7.944,6.549
725,0.629,35.624,19.146,33.05,33.207,5.893,7.945,6.549
726,0.639,35.299,19.18,33.05,33.214,5.892,7.864,6.63
727,0.642,35.411,19.2,33.06,33.211,5.892,7.863,6.55
728,0.642,35.527,19.228,33.021,33.204,5.729,7.822,6.427
729,0.639,35.605,19.213,33.021,33.204,5.809,7.863,6.507
730,0.659,35.289,19.236,33.021,33.211,5.85,7.904,6.549
731,0.685,35.43,19.193,33.021,33.207,5.851,7.863,6.508
732,0.711,35.537,19.165,33.011,33.207,5.81,7.863,6.427
733,0.75,35.605,19.204,33.011,33.197,5.769,7.782,6.507
734,0.8,35.289,19.212,33.021,33.214,5.809,7.862,6.589
735,0.846,35.459,19.232,33.05,33.221,5.972,8.066,6.671
736,0.892,35.614,19.181,33.04,33.218,5.893,7.906,6.509
737,0.899,35.644,19.243,33.031,33.218,5.892,7.863,6.549
738,0.944,35.299,19.26,33.05,33.214,5.892,7.863,6.63
739,0.98,35.478,19.213,33.05,33.214,5.892,7.822,6.631
740,1.01,35.585,19.181,33.04,33.214,5.973,7.822,6.631
741,1.043,35.634,19.232,33.031,33.211,5.893,7.781,6.509
742,1.037,35.29,19.228,33.011,33.2,5.729,7.618,6.467
743,1.056,35.439,19.185,33.05,33.211,5.809,7.779,6.629
744,1.099,35.556,19.196,33.031,33.218,5.85,7.659,6.55
745,1.158,35.413,19.22,33.011,33.211,5.81,7.739,6.549
746,1.217,35.316,19.212,33.069,33.207,5.728,7.618,6.549
747,1.273,35.44,19.158,33.021,33.211,5.727,7.657,6.59
748,1.328,35.537,19.247,33.031,33.218,5.931,7.698,6.753
749,1.384,35.289,19.236,33.059,33.221,5.974,7.699,6.714
750,1.427,35.372,19.209,33.021,33.214,5.811,7.658,6.672
751,1.457,35.498,19.224,33.05,33.211,5.85,7.658,6.713
752,1.499,35.585,19.259,33.04,33.221,5.81,7.658,6.876
753,1.542,35.203,19.205,33.05,33.218,5.932,7.576,6.796
754,1.601,35.343,19.263,33.04,33.218,5.852,7.494,6.755
755,1.605,35.44,19.248,33.002,33.2,5.729,7.453,6.714
756,1.618,35.527,19.213,33.049,33.211,5.809,7.493,6.835
757,1.618,35.02,19.224,33.031,33.211,5.728,7.494,6.796
758,1.602,35.159,19.232,33.031,33.211,5.727,7.412,6.877
759,1.579,35.275,19.275,33.031,33.214,5.727,7.33,6.796
760,1.553,35.343,19.178,33.011,33.218,5.727,7.41,6.877
761,1.51,35.315,19.208,33.04,33.218,5.85,7.533,7.04
762,1.484,35.488,19.205,33.059,33.221,5.851,7.494,6.96
763,1.444,35.576,19.197,33.031,33.218,5.81,7.412,6.96
764,1.353,35.615,19.224,33.021,33.214,5.81,7.493,6.96
765,1.248,35.088,19.224,33.021,33.211,5.769,7.494,7.082
766,1.146,35.255,19.228,33.059,33.218,5.809,7.412,7.083
767,1.031,35.343,19.244,33.031,33.214,5.769,7.371,7.205
768,0.867,35.699,19.271,33.031,33.207,5.687,7.289,7.206
769,0.723,35.213,19.197,32.992,33.2,5.727,7.329,7.45
770,0.624,35.372,19.228,33.03,33.207,5.85,7.289,7.615
771,0.528,35.469,19.209,33.04,33.211,5.81,7.288,7.779
772,0.453,35.039,19.228,33.021,33.207,5.769,7.207,7.984
773,0.39,35.101,19.197,33.011,33.2,5.728,7.287,8.271
774,0.321,35.217,19.251,33.011,33.207,5.85,7.329,8.68
775,0.268,35.352,19.236,33.05,33.225,6.013,7.37,8.969
776,0.226,35.143,19.135,33.031,33.214,5.852,7.248,9.135
777,0.163,35.275,19.18,33.021,33.211,5.891,7.247,9.38
778,0.104,35.382,19.263,33.011,33.211,5.811,7.288,9.667
779,0.068,35.479,19.252,33.021,33.218,5.85,7.369,9.914
780,0.035,34.981,19.248,33.021,33.218,5.932,7.37,10.12
781,0.002,35.139,19.221,33.021,33.218,5.852,7.33,10.244
782,-0.008,35.237,19.197,32.992,33.197,5.769,7.207,10.245
783,-0.024,35.314,19.201,33.011,33.214,5.809,7.328,10.448
784,-0.021,35.171,19.236,33.021,33.211,5.81,7.41,10.572
785,-0.031,35.314,19.205,33.011,33.207,5.85,7.371,10.655
786,-0.015,35.43,19.22,33.021,33.211,5.81,7.289,10.656
787,0.011,35.479,19.216,32.992,33.204,5.81,7.329,10.778
788,0.031,35.058,19.279,33.021,33.214,5.891,7.37,11.023
789,0.034,35.226,19.248,33.04,33.221,6.054,7.492,11.188
790,0.067,35.343,19.244,33.05,33.214,5.853,7.453,11.189
791,0.074,35.354,19.248,33.012,33.207,5.891,7.452,11.393
792,0.087,35.028,19.228,33.011,33.214,5.892,7.493,11.476
793,0.103,35.159,19.267,33.011,33.211,5.892,7.534,11.64
794,0.133,35.275,19.225,33.011,33.218,5.892,7.616,11.885
795,0.159,35.132,19.259,33.011,33.214,5.892,7.495,11.969
796,0.169,35.083,19.189,33.05,33.2,5.811,7.412,12.051
797,0.179,35.217,19.204,32.992,33.214,5.891,7.574,12.215
798,0.202,35.324,19.267,33.021,33.211,5.811,7.575,12.379
799,0.231,34.97,19.229,32.992,33.211,5.85,7.535,12.381
800,0.261,35.081,19.228,32.992,33.211,5.769,7.534,12.462
801,0.284,35.198,19.201,33.001,33.207,5.809,7.494,12.463
802,0.33,35.304,19.294,33.021,33.218,5.972,7.738,12.666
803,0.389,35.066,19.241,33.05,33.228,5.974,7.699,12.587
804,0.419,35.178,19.22,33.031,33.211,5.771,7.658,12.505
805,0.464,35.295,19.255,33.021,33.214,5.809,7.658,12.382
806,0.51,35.372,19.197,33.021,33.214,5.85,7.698,12.381
807,0.55,34.903,19.212,33.011,33.221,5.851,7.618,12.299
808,0.586,35.071,19.29,33.03,33.211,5.851,7.739,12.054
809,0.616,35.178,19.28,32.992,33.207,5.688,7.618,11.93
810,0.619,35.208,19.279,32.982,33.207,5.687,7.535,11.807
811,0.662,34.969,19.213,33.011,33.207,5.768,7.616,11.724
812,0.669,35.101,19.271,32.992,33.218,5.768,7.617,11.561
813,0.685,35.227,19.213,33.001,33.214,5.768,7.576,11.397
814,0.695,35.247,19.236,32.973,33.214,5.687,7.494,11.273
815,0.695,34.902,19.236,32.992,33.211,5.768,7.534,11.272
816,0.705,35.042,19.217,33.03,33.221,5.891,7.616,11.231
817,0.702,35.216,19.228,33.031,33.218,5.811,7.617,11.027
818,0.692,35.333,19.263,33.011,33.207,5.769,7.495,10.822
819,0.682,35.047,19.236,32.992,33.221,5.768,7.534,10.739
820,0.685,35.188,19.256,33.021,33.211,5.85,7.534,10.738
821,0.688,35.295,19.256,33.021,33.214,5.851,7.534,10.657
822,0.692,34.931,19.299,33.011,33.218,5.81,7.534,10.574
823,0.692,34.995,19.268,32.992,33.207,5.688,7.372,10.411
824,0.688,35.101,19.217,32.992,33.207,5.809,7.452,10.369
825,0.701,35.236,19.31,33.001,33.211,5.81,7.452,10.328
826,0.701,34.931,19.174,33.011,33.211,5.769,7.452,10.205
827,0.701,35.071,19.22,32.992,33.207,5.768,7.412,10.123
828,0.714,35.169,19.244,32.992,33.204,5.728,7.371,10.041
829,0.711,35.256,19.236,32.992,33.218,5.85,7.452,10.08
830,0.731,34.998,19.217,33.03,33.221,6.013,7.534,10.162
831,0.744,35.168,19.244,33.021,33.211,5.812,7.453,10.0
832,0.738,35.266,19.244,33.011,33.207,5.891,7.452,9.877
833,0.741,35.343,19.205,33.002,33.214,5.811,7.371,9.794
834,0.747,35.517,19.29,33.002,33.214,5.85,7.452,9.671
835,0.738,35.643,19.264,33.011,33.214,5.932,7.412,9.629
836,0.744,35.769,19.236,33.011,33.211,5.852,7.371,9.426
837,0.738,35.809,19.228,32.982,33.207,5.688,7.248,9.302
838,0.731,34.601,19.259,32.982,33.211,5.768,7.288,9.341
839,0.738,34.752,19.225,33.011,33.207,5.768,7.369,9.219
840,0.731,34.868,19.259,32.992,33.211,5.728,7.289,9.178
841,0.738,34.898,19.213,32.982,33.211,5.768,7.247,9.096
842,0.728,35.042,19.271,32.973,33.211,5.809,7.328,9.014
843,0.725,35.188,19.221,33.001,33.218,5.81,7.37,9.135
844,0.734,35.333,19.251,33.049,33.218,5.932,7.452,8.974
845,0.747,34.922,19.287,33.002,33.214,5.811,7.412,8.85
846,0.744,34.832,19.174,32.992,33.211,5.728,7.411,8.808
847,0.747,34.955,19.247,33.001,33.211,5.89,7.411,8.726
848,0.754,35.072,19.287,32.992,33.221,5.851,7.452,8.644
849,0.761,34.862,19.252,33.03,33.218,5.81,7.452,8.644
850,0.764,35.004,19.24,33.002,33.211,5.769,7.412,8.44
851,0.754,35.091,19.217,32.973,33.207,5.687,7.452,8.438
852,0.764,35.198,19.232,33.011,33.214,5.809,7.452,8.357
853,0.77,34.767,19.248,33.011,33.211,5.728,7.534,8.234
854,0.774,34.897,19.228,32.982,33.204,5.768,7.453,8.192
855,0.771,35.023,19.287,32.982,33.211,5.768,7.493,8.151
856,0.764,35.092,19.162,32.973,33.207,5.728,7.534,8.191
857,0.761,34.901,19.247,33.011,33.221,5.931,7.738,8.273
858,0.767,35.071,19.244,33.03,33.214,5.811,7.537,8.071
859,0.764,35.15,19.31,32.983,33.211,5.769,7.616,8.028
860,0.761,35.218,19.299,32.992,33.211,5.85,7.454,7.946
861,0.757,34.787,19.248,32.992,33.218,5.81,7.615,7.986
862,0.754,34.926,19.267,33.001,33.214,5.85,7.617,7.946
863,0.77,35.043,19.217,33.002,33.214,5.891,7.495,7.823
864,0.761,35.053,19.279,32.963,33.197,5.689,7.494,7.781
865,0.761,34.843,19.236,32.982,33.214,5.89,7.575,7.822
866,0.767,34.994,19.197,32.982,33.211,5.811,7.413,7.741
867,0.78,35.091,19.216,33.001,33.211,5.688,7.452,7.659
868,0.787,35.092,19.263,32.982,33.207,5.768,7.371,7.617
869,0.777,34.872,19.256,32.982,33.207,5.728,7.411,7.657
870,0.784,35.004,19.271,32.982,33.211,5.85,7.452,7.698
871,0.793,35.159,19.256,33.021,33.225,5.81,7.534,7.658
872,0.79,34.805,19.295,33.002,33.221,5.769,7.453,7.658
873,0.787,34.84,19.272,32.992,33.207,5.768,7.452,7.576
874,0.793,35.013,19.252,32.992,33.211,5.809,7.412,7.535
875,0.806,35.101,19.287,33.001,33.221,5.728,7.452,7.494
876,0.803,34.699,19.225,33.011,33.221,5.727,7.412,7.453
877,0.8,34.868,19.263,32.973,33.218,5.727,7.371,7.33
878,0.79,34.965,19.229,32.973,33.197,5.687,7.208,7.289
879,0.787,35.043,19.314,32.973,33.214,5.727,7.328,7.369
880,0.79,34.795,19.241,32.982,33.214,5.727,7.329,7.33
881,0.793,34.945,19.283,32.973,33.211,5.646,7.207,7.207
882,0.793,35.052,19.287,32.953,33.207,5.645,7.206,7.206
883,0.787,35.13,19.244,32.953,33.207,5.686,7.328,7.369
884,0.79,34.747,19.248,32.992,33.221,5.89,7.41,7.411
885,0.81,34.897,19.318,32.992,33.225,5.811,7.411,7.289
886,0.803,34.975,19.245,32.973,33.207,5.728,7.33,7.247
887,0.816,35.034,19.197,32.973,33.214,5.687,7.37,7.288
888,0.813,34.852,19.236,32.982,33.211,5.727,7.411,7.369
889,0.826,34.994,19.279,32.973,33.218,5.809,7.33,7.208
890,0.826,35.12,19.24,32.982,33.218,5.769,7.41,7.125
891,0.83,35.15,19.232,32.953,33.207,5.606,7.289,7.043
892,0.823,34.671,19.287,32.944,33.207,5.645,7.369,7.164
893,0.843,34.839,19.166,32.972,33.211,5.686,7.33,7.084
894,0.839,34.956,19.251,32.963,33.214,5.687,7.41,7.042
895,0.839,34.803,19.283,32.953,33.211,5.687,7.33,7.001
896,0.833,34.792,19.229,32.944,33.207,5.646,7.37,6.919
897,0.826,34.945,19.174,32.953,33.214,5.686,7.37,7.041
898,0.836,35.072,19.231,32.992,33.228,5.849,7.573,7.204
899,0.846,34.728,19.314,32.982,33.221,5.688,7.454,7.003
900,0.83,34.839,19.256,32.953,33.211,5.687,7.452,7.001
901,0.83,34.994,19.271,32.963,33.221,5.687,7.534,7.001
902,0.839,35.053,19.307,32.963,33.214,5.687,7.616,6.96
903,0.836,34.603,19.276,32.972,33.221,5.727,7.576,7.0
904,0.839,34.761,19.283,32.982,33.218,5.687,7.616,6.96
905,0.836,34.849,19.303,32.925,33.207,5.524,7.413,6.838
906,0.839,34.908,19.221,32.934,33.211,5.685,7.615,6.918
907,0.865,34.63,19.212,32.953,33.214,5.687,7.617,6.837
908,0.862,34.781,19.24,32.963,33.214,5.646,7.535,6.958
909,0.866,34.888,19.279,32.944,33.207,5.605,7.534,6.878
910,0.872,34.956,19.248,32.934,33.214,5.645,7.575,6.837
911,0.872,34.746,19.232,32.953,33.221,5.808,7.698,6.877
912,0.885,34.935,19.287,32.992,33.228,5.972,7.78,7.0
913,0.898,35.062,19.252,32.954,33.214,5.771,7.618,6.797
914,0.899,35.063,19.252,32.953,33.211,5.85,7.657,6.755
915,0.899,34.574,19.303,32.944,33.211,5.81,7.658,6.836
916,0.899,34.703,19.276,32.972,33.218,5.81,7.658,6.877
917,0.879,34.849,19.135,32.953,33.211,5.891,7.617,6.918
918,0.882,34.793,19.258,32.953,33.221,5.892,7.617,6.796
919,0.885,34.639,19.271,32.934,33.207,5.77,7.454,6.714
920,0.863,34.752,19.275,32.934,33.211,5.85,7.534,6.794
921,0.885,34.868,19.26,32.934,33.214,5.769,7.534,6.755
922,0.892,34.582,19.303,32.934,33.214,5.809,7.534,6.714
923,0.886,34.694,19.268,32.972,33.207,5.81,7.575,6.713
924,0.885,34.82,19.236,32.934,33.214,5.769,7.494,6.713
925,0.895,34.907,19.314,32.953,33.214,5.972,7.534,6.876
926,0.899,34.534,19.233,32.982,33.225,5.974,7.657,6.837
927,0.918,34.684,19.228,32.944,33.214,5.852,7.576,6.796
928,0.922,34.791,19.259,32.943,33.211,5.851,7.616,6.714
929,0.928,34.878,19.26,32.953,33.211,5.932,7.698,6.754
930,0.935,34.553,19.248,32.944,33.214,5.974,7.618,6.673
931,0.941,34.713,19.26,32.963,33.218,5.974,7.779,6.713
932,0.945,34.839,19.291,32.963,33.207,5.852,7.74,6.591
933,0.945,34.86,19.139,32.915,33.197,5.769,7.659,6.549
934,0.945,34.524,19.266,32.924,33.207,5.891,7.739,6.549
935,0.951,34.665,19.307,32.934,33.207,5.933,7.821,6.549
936,0.948,34.781,19.28,32.934,33.207,5.892,7.741,6.59
937,0.941,34.859,19.275,32.924,33.211,5.811,7.699,6.549
938,0.945,34.563,19.275,32.934,33.207,5.891,7.74,6.59
939,0.941,34.723,19.334,32.953,33.221,5.973,7.903,6.712
940,0.967,34.859,19.311,32.972,33.214,5.974,7.863,6.591
941,0.958,35.119,19.28,32.944,33.204,5.893,7.782,6.631
942,0.968,34.661,19.295,32.953,33.207,5.892,7.862,6.631
943,0.948,34.781,19.276,32.992,33.214,5.933,7.904,6.631
944,0.971,34.907,19.291,32.973,33.218,5.974,7.863,6.631
945,0.974,34.611,19.33,32.953,33.214,5.893,7.782,6.55
946,0.974,34.579,19.264,32.924,33.2,5.811,7.659,6.427
947,0.984,34.713,19.279,32.934,33.207,5.81,7.739,6.548
948,0.997,34.858,19.283,32.943,33.211,5.891,7.699,6.549
949,1.004,34.639,19.295,32.943,33.204,5.892,7.699,6.468
950,1.0,34.771,19.287,32.934,33.207,5.892,7.618,6.426
951,1.007,34.907,19.291,32.924,33.211,5.851,7.657,6.507
952,1.023,35.014,19.291,32.953,33.221,5.973,7.78,6.63
953,1.043,34.516,19.276,32.972,33.225,5.974,7.618,6.509
954,1.033,34.645,19.244,32.944,33.214,5.893,7.657,6.467
955,1.03,34.762,19.263,32.934,33.218,5.892,7.617,6.507
956,1.033,34.83,19.291,32.934,33.221,5.973,7.617,6.467
957,1.03,34.677,19.209,32.972,33.214,5.974,7.657,6.467
958,1.024,34.829,19.298,32.973,33.214,5.974,7.617,6.426
959,1.033,34.927,19.291,32.934,33.211,5.771,7.495,6.426
960,1.027,34.966,19.268,32.915,33.214,5.809,7.575,6.426
961,1.037,34.775,19.287,32.943,33.211,5.891,7.535,6.426
962,1.037,34.907,19.303,32.934,33.204,5.851,7.453,6.466
963,1.037,35.023,19.245,32.934,33.211,5.81,7.493,6.467
964,1.037,35.044,19.26,32.915,33.214,5.728,7.453,6.426
965,1.05,34.833,19.295,32.934,33.225,5.85,7.534,6.548
966,1.063,35.013,19.264,32.953,33.235,5.973,7.616,6.59
967,1.082,35.111,19.229,32.944,33.218,5.852,7.454,6.468
968,1.079,35.035,19.267,32.953,33.211,5.81,7.452,6.467
969,1.083,34.967,19.307,32.934,33.214,5.81,7.493,6.467
970,1.089,35.11,19.307,32.953,33.218,5.891,7.494,6.467
971,1.092,35.227,19.28,32.963,33.221,5.811,7.534,6.507
972,1.092,34.979,19.307,32.944,33.218,5.769,7.412,6.386
973,1.092,35.053,19.252,32.915,33.2,5.687,7.371,6.303
974,1.089,35.217,19.26,32.934,33.218,5.768,7.37,6.302
975,1.092,35.314,19.33,32.943,33.218,5.768,7.452,6.343
976,1.086,35.085,19.276,32.934,33.211,5.728,7.412,6.343
977,1.089,35.255,19.233,32.915,33.207,5.727,7.452,6.343
978,1.086,35.353,19.267,32.924,33.211,5.687,7.371,6.384
979,1.089,35.44,19.268,32.943,33.228,5.849,7.695,6.547
980,1.099,35.307,19.303,32.953,33.228,5.81,7.577,6.427
981,1.096,35.459,19.284,32.953,33.214,5.769,7.616,6.466
982,1.099,35.556,19.315,32.934,33.218,5.728,7.657,6.386
983,1.086,35.624,19.264,32.943,33.218,5.809,7.739,6.385
984,1.102,35.5,19.26,32.943,33.218,5.728,7.781,6.466
985,1.106,35.643,19.322,32.934,33.221,5.687,7.862,6.467
986,1.109,35.769,19.295,32.924,33.211,5.605,7.741,6.304
987,1.106,35.751,19.221,32.915,33.211,5.604,7.781,6.343
988,1.115,35.607,19.283,32.914,33.214,5.645,7.781,6.343
989,1.122,35.74,19.295,32.934,33.211,5.645,7.781,6.343
990,1.116,35.847,19.334,32.924,33.207,5.605,7.822,6.343
991,1.119,36.222,19.272,32.924,33.207,5.564,7.781,6.384
992,1.125,35.938,19.314,32.886,33.211,5.766,7.74,6.344
993,1.135,36.079,19.252,32.933,33.221,5.768,7.903,6.466
994,1.129,36.224,19.279,32.953,33.221,5.809,7.945,6.386
995,1.125,36.015,19.33,32.915,33.214,5.728,7.783,6.344
996,1.125,36.089,19.28,32.905,33.214,5.687,7.74,6.343
997,1.119,36.234,19.252,32.934,33.214,5.727,7.781,6.384
998,1.119,36.322,19.256,32.924,33.218,5.727,7.822,6.385
999,1.112,36.188,19.326,32.924,33.214,5.768,7.781,6.344
1000,1.119,36.292,19.288,32.924,33.214,5.687,7.659,6.221
1001,1.096,36.389,19.272,32.915,33.2,5.646,7.576,6.302
1002,1.102,36.476,19.314,32.914,33.214,5.686,7.616,6.302
1003,1.106,36.324,19.264,32.914,33.214,5.727,7.617,6.343
1004,1.106,36.476,19.248,32.914,33.221,5.687,7.576,6.262
1005,1.099,36.564,19.299,32.895,33.207,5.646,7.494,6.302
1006,1.102,36.632,19.299,32.914,33.211,5.645,7.494,6.343
1007,1.115,36.719,19.213,32.953,33.221,5.849,7.697,6.384
1008,1.122,36.883,19.306,32.934,33.211,5.729,7.536,6.303
1009,1.116,36.951,19.303,32.905,33.214,5.687,7.534,6.302
1010,1.119,37.029,19.307,32.924,33.214,5.646,7.494,6.343
1011,1.119,36.857,19.291,32.924,33.225,5.767,7.575,6.303
1012,1.115,37.009,19.307,32.924,33.211,5.809,7.535,6.425
1013,1.115,37.106,19.334,32.915,33.218,5.728,7.534,6.304
1014,1.106,37.107,19.284,32.895,33.204,5.605,7.372,6.14
1015,1.093,37.078,19.283,32.914,33.214,5.767,7.452,6.341
1016,1.089,37.212,19.326,32.905,33.214,5.728,7.452,6.303
1017,1.083,37.319,19.307,32.905,33.207,5.727,7.412,6.262
1018,1.066,37.224,19.241,32.914,33.218,5.727,7.371,6.221
1019,1.056,37.214,19.259,32.905,33.204,5.727,7.411,6.18
1020,1.05,37.329,19.287,32.914,33.214,5.727,7.452,6.342
1021,1.056,37.454,19.307,32.943,33.228,5.972,7.534,6.343
1022,1.053,37.417,19.319,32.934,33.225,5.811,7.453,6.262
1023,1.03,37.503,19.284,32.915,33.207,5.81,7.371,6.384
1024,1.024,37.648,19.276,32.914,33.218,5.81,7.411,6.263
1025,1.03,37.726,19.303,32.914,33.218,5.81,7.411,6.343
1026,1.024,37.852,19.346,32.924,33.218,5.85,7.411,6.343
1027,1.04,37.977,19.296,32.934,33.218,5.851,7.371,6.221
1028,1.02,38.084,19.264,32.915,33.207,5.648,7.289,6.139
1029,1.01,38.143,19.303,32.895,33.211,5.808,7.369,6.219
1030,1.014,37.51,19.311,32.914,33.214,5.769,7.37,6.18
1031,0.997,37.638,19.303,32.914,33.211,5.85,7.289,6.261
1032,0.991,37.755,19.315,32.905,33.214,5.769,7.329,6.221
1033,0.991,37.794,19.229,32.895,33.211,5.768,7.289,6.18
1034,0.994,37.804,19.275,32.876,33.218,5.768,7.41,6.22
1035,0.991,37.939,19.342,32.952,33.225,5.891,7.452,6.342
1036,0.984,38.065,19.339,32.915,33.218,5.811,7.452,6.262
1037,0.958,38.075,19.288,32.914,33.214,5.85,7.371,6.302
1038,0.938,37.913,19.299,32.914,33.211,5.851,7.37,6.262
1039,0.928,38.026,19.365,32.924,33.214,5.769,7.411,6.262
1040,0.915,38.123,19.331,32.915,33.218,5.809,7.411,6.343
1041,0.899,38.306,19.296,32.914,33.221,5.81,7.371,6.221
1042,0.892,38.049,19.315,32.905,33.207,5.688,7.208,6.18
1043,0.866,38.142,19.249,32.905,33.211,5.687,7.247,6.301
1044,0.876,38.258,19.267,32.914,33.211,5.768,7.206,6.302
1045,0.876,37.982,19.307,32.905,33.211,5.728,7.165,6.302
1046,0.872,38.055,19.295,32.905,33.214,5.687,7.124,6.262
1047,0.863,38.171,19.225,32.886,33.207,5.727,7.165,6.262
1048,0.866,38.259,19.294,32.895,33.214,5.768,7.287,6.384
1049,0.879,38.192,19.338,32.943,33.232,5.891,7.329,6.466
1050,0.872,38.307,19.339,32.915,33.211,5.811,7.248,6.386
1051,0.856,38.423,19.327,32.914,33.218,5.81,7.247,6.466
1052,0.853,38.501,19.331,32.914,33.218,5.769,7.247,6.467
1053,0.853,38.176,19.323,32.914,33.221,5.809,7.206,6.386
1054,0.846,38.316,19.295,32.895,33.218,5.85,7.206,6.344
1055,0.843,38.423,19.299,32.866,33.2,5.648,7.084,6.262
1056,0.813,38.453,19.295,32.895,33.214,5.767,7.205,6.343
1057,0.813,38.156,19.26,32.886,33.218,5.768,7.206,6.425
1058,0.8,38.287,19.244,32.895,33.211,5.728,7.165,6.344
1059,0.797,38.394,19.291,32.895,33.211,5.687,7.206,6.384
1060,0.787,38.414,19.33,32.895,33.207,5.727,7.084,6.385
1061,0.784,38.338,19.303,32.895,33.214,5.85,7.327,6.507
1062,0.784,38.49,19.35,32.953,33.228,5.973,7.329,6.508
1063,0.78,38.588,19.304,32.934,33.214,5.771,7.289,6.467
1064,0.774,38.589,19.307,32.905,33.214,5.768,7.329,6.548
1065,0.777,38.224,19.35,32.914,33.214,5.768,7.289,6.468
1066,0.78,38.355,19.346,32.905,33.221,5.891,7.288,6.548
1067,0.787,38.452,19.28,32.924,33.218,5.892,7.207,6.468
1068,0.78,38.396,19.236,32.905,33.214,5.77,7.084,6.386
1069,0.767,38.395,19.291,32.886,33.207,5.809,7.164,6.466
1070,0.78,38.549,19.307,32.895,33.211,5.81,7.165,6.467
1071,0.771,38.656,19.303,32.895,33.214,5.81,7.206,6.426
1072,0.774,38.129,19.311,32.895,33.211,5.81,7.125,6.426
1073,0.771,38.22,19.311,32.866,33.207,5.81,7.165,6.385
1074,0.77,38.345,19.323,32.885,33.214,5.85,7.287,6.466
1075,0.761,38.462,19.35,32.924,33.228,5.932,7.369,6.629
1076,0.774,38.779,19.343,32.915,33.221,5.852,7.33,6.428
1077,0.748,38.898,19.303,32.895,33.214,5.851,7.248,6.548
1078,0.747,39.023,19.295,32.914,33.214,5.851,7.369,6.549
1079,0.744,39.092,19.287,32.895,33.221,5.851,7.411,6.549
1080,0.744,37.961,19.291,32.914,33.228,5.891,7.452,6.59
1081,0.734,38.113,19.295,32.895,33.228,5.851,7.371,6.468
1082,0.728,38.21,19.295,32.876,33.207,5.729,7.37,6.426
1083,0.715,38.23,19.299,32.885,33.211,5.85,7.452,6.548
1084,0.731,38.269,19.295,32.914,33.214,5.81,7.493,6.549
1085,0.734,38.413,19.322,32.905,33.207,5.81,7.453,6.508
1086,0.738,38.501,19.35,32.866,33.214,5.769,7.452,6.427
1087,0.738,38.511,19.3,32.876,33.207,5.728,7.493,6.385
1088,0.734,38.128,19.28,32.885,33.221,5.931,7.616,6.588
1089,0.741,38.297,19.33,32.933,33.228,5.974,7.739,6.631
1090,0.751,38.394,19.315,32.915,33.218,5.811,7.659,6.468
1091,0.748,38.424,19.323,32.905,33.218,5.891,7.698,6.507
1092,0.744,38.3,19.331,32.905,33.218,5.892,7.658,6.508
1093,0.747,38.404,19.307,32.905,33.218,5.892,7.82,6.508
1094,0.747,38.51,19.319,32.905,33.225,5.933,7.741,6.549
1095,0.747,38.051,19.342,32.895,33.214,5.811,7.699,6.427
1096,0.734,38.075,19.346,32.876,33.207,5.728,7.618,6.344
1097,0.725,38.2,19.292,32.895,33.211,5.809,7.698,6.466
1098,0.731,38.317,19.291,32.905,33.211,5.85,7.699,6.386
1099,0.731,38.04,19.33,32.895,33.207,5.769,7.658,6.425
1100,0.728,38.171,19.319,32.905,33.207,5.809,7.658,6.385
1101,0.712,38.287,19.292,32.905,33.207,5.728,7.617,6.425
1102,0.721,38.375,19.315,32.905,33.225,5.85,7.779,6.507
1103,0.731,38.174,19.319,32.924,33.232,5.932,7.822,6.508
1104,0.728,38.316,19.284,32.915,33.214,5.77,7.659,6.467
1105,0.728,38.404,19.307,32.905,33.214,5.85,7.698,6.507
1106,0.725,38.462,19.358,32.895,33.218,5.851,7.699,6.508
1107,0.734,38.06,19.315,32.914,33.218,5.81,7.699,6.467
1108,0.734,38.19,19.319,32.905,33.218,5.81,7.699,6.548
1109,0.738,38.297,19.311,32.905,33.214,5.728,7.618,6.305
1110,0.731,38.308,19.323,32.876,33.2,5.727,7.617,6.465
1111,0.738,38.049,19.342,32.866,33.214,5.809,7.576,6.467
1112,0.731,38.19,19.315,32.876,33.211,5.688,7.616,6.467
1113,0.734,38.288,19.319,32.895,33.207,5.646,7.617,6.386
1114,0.741,38.317,19.323,32.866,33.204,5.686,7.617,6.385
1115,0.731,37.992,19.334,32.895,33.218,5.809,7.657,6.466
1116,0.741,38.161,19.362,32.924,33.232,5.932,7.739,6.548
1117,0.741,38.268,19.28,32.915,33.214,5.73,7.659,6.468
1118,0.738,37.982,19.283,32.895,33.211,5.809,7.536,6.426
1119,0.734,37.988,19.326,32.895,33.218,5.85,7.575,6.466
1120,0.728,38.113,19.315,32.895,33.211,5.851,7.535,6.467
1121,0.725,38.201,19.33,32.905,33.221,5.769,7.616,6.548
1122,0.728,37.799,19.323,32.895,33.214,5.768,7.535,6.346
1123,0.721,37.9,19.319,32.857,33.211,5.565,7.372,6.425
1124,0.708,38.026,19.288,32.876,33.214,5.766,7.533,6.466
1125,0.721,38.123,19.322,32.895,33.207,5.768,7.453,6.467
1126,0.731,38.066,19.381,32.866,33.207,5.728,7.534,6.426
1127,0.741,38.181,19.3,32.876,33.207,5.727,7.372,6.466
1128,0.738,38.297,19.311,32.876,33.2,5.687,7.452,6.386
1129,0.741,38.375,19.323,32.904,33.218,5.809,7.615,6.629
1130,0.751,37.714,19.358,32.914,33.225,5.932,7.576,6.59
1131,0.741,37.832,19.323,32.924,33.214,5.811,7.494,6.509
1132,0.738,37.929,19.299,32.895,33.214,5.769,7.453,6.549
1133,0.741,37.978,19.369,32.886,33.218,5.809,7.452,6.508
1134,0.747,37.835,19.327,32.885,33.221,5.769,7.493,6.549
1135,0.754,37.958,19.331,32.905,33.218,5.809,7.453,6.508
1136,0.748,38.074,19.331,32.886,33.214,5.728,7.33,6.427
1137,0.721,38.066,19.299,32.866,33.2,5.605,7.289,6.466
1138,0.721,37.749,19.295,32.914,33.214,5.726,7.329,6.507
1139,0.724,37.88,19.33,32.867,33.214,5.687,7.37,6.467
1140,0.721,37.978,19.319,32.866,33.211,5.687,7.33,6.426
1141,0.728,37.931,19.323,32.866,33.211,5.687,7.248,6.426
1142,0.721,37.815,19.331,32.885,33.214,5.727,7.328,6.507
1143,0.721,37.977,19.35,32.895,33.228,5.89,7.41,6.67
1144,0.734,38.103,19.339,32.914,33.225,5.77,7.371,6.591
1145,0.721,37.52,19.327,32.895,33.218,5.728,7.248,6.59
1146,0.728,37.6,19.35,32.886,33.214,5.727,7.247,6.59
1147,0.744,37.716,19.307,32.876,33.221,5.687,7.288,6.509
1148,0.744,37.813,19.276,32.895,33.221,5.768,7.329,6.589
1149,0.754,37.574,19.33,32.895,33.221,5.728,7.37,6.468
1150,0.751,37.735,19.315,32.857,33.211,5.646,7.208,6.345
1151,0.738,37.804,19.299,32.914,33.207,5.686,7.287,6.506
1152,0.744,37.929,19.33,32.895,33.218,5.768,7.329,6.467
1153,0.747,37.614,19.35,32.866,33.214,5.647,7.329,6.467
1154,0.751,37.754,19.35,32.914,33.214,5.605,7.289,6.426
1155,0.754,37.861,19.323,32.847,33.207,5.564,7.329,6.426
1156,0.731,37.939,19.362,32.875,33.221,5.726,7.451,6.548
1157,0.738,37.47,19.347,32.924,33.228,5.809,7.493,6.508
1158,0.744,37.59,19.218,32.886,33.218,5.688,7.453,6.467
1159,0.734,37.687,19.259,32.895,33.218,5.687,7.412,6.467
1160,0.725,37.726,19.322,32.895,33.221,5.727,7.371,6.507
1161,0.728,37.612,19.338,32.895,33.221,5.727,7.492,6.508
1162,0.725,37.754,19.339,32.895,33.218,5.727,7.412,6.508
1163,0.718,37.823,19.346,32.857,33.207,5.646,7.289,6.386
1164,0.711,38.159,19.335,32.856,33.214,5.686,7.41,6.466
1165,0.728,37.549,19.323,32.895,33.211,5.646,7.371,6.507
1166,0.728,37.677,19.389,32.876,33.214,5.645,7.33,6.508
1167,0.728,37.765,19.374,32.857,33.211,5.564,7.37,6.427
1168,0.728,37.401,19.28,32.876,33.207,5.523,7.289,6.426
1169,0.741,37.407,19.315,32.857,33.214,5.603,7.369,6.548
1170,0.741,37.561,19.338,32.904,33.225,5.767,7.492,6.63
1171,0.757,37.677,19.339,32.905,33.225,5.687,7.371,6.59
1172,0.751,37.189,19.327,32.886,33.218,5.687,7.33,6.549
1173,0.744,37.309,19.338,32.866,33.221,5.646,7.37,6.549
1174,0.744,37.445,19.346,32.866,33.221,5.727,7.37,6.59
1175,0.747,37.532,19.358,32.895,33.221,5.687,7.37,6.549
1176,0.741,37.284,19.382,32.886,33.211,5.646,7.289,6.508
1177,0.728,37.387,19.355,32.847,33.207,5.564,7.207,6.427
1178,0.721,37.503,19.202,32.895,33.214,5.645,7.206,6.588
1179,0.724,37.571,19.333,32.857,33.218,5.645,7.247,6.468
1180,0.711,37.15,19.315,32.856,33.211,5.645,7.206,6.507
1181,0.711,37.29,19.249,32.866,33.207,5.645,7.165,6.467
1182,0.708,37.387,19.314,32.856,33.207,5.564,7.165,6.386
1183,0.708,37.445,19.35,32.876,33.221,5.766,7.287,6.669
1184,0.728,37.216,19.315,32.904,33.228,5.85,7.329,6.631
1185,0.725,37.338,19.288,32.876,33.214,5.729,7.207,6.468
1186,0.728,37.435,19.358,32.866,33.218,5.727,7.247,6.548
1187,0.728,37.446,19.389,32.876,33.221,5.727,7.206,6.508
1188,0.731,37.12,19.3,32.895,33.221,5.687,7.247,6.549
1189,0.741,37.28,19.326,32.876,33.214,5.727,7.247,6.468
1190,0.741,37.368,19.323,32.857,33.207,5.646,7.084,6.304
1191,0.725,37.11,19.178,32.866,33.214,5.645,7.205,6.465
1192,0.737,37.04,19.337,32.866,33.211,5.686,7.247,6.426
1193,0.734,37.154,19.339,32.856,33.211,5.727,7.206,6.426
1194,0.747,37.242,19.327,32.856,33.214,5.687,7.206,6.426
1195,0.738,37.022,19.311,32.837,33.214,5.687,7.125,6.344
1196,0.718,37.116,19.358,32.847,33.211,5.768,7.287,6.466
1197,0.728,37.27,19.382,32.895,33.232,5.891,7.369,6.548
1198,0.721,37.367,19.288,32.876,33.218,5.77,7.248,6.468
1199,0.708,36.793,19.326,32.857,33.221,5.809,7.206,6.386
1200,0.708,36.941,19.327,32.856,33.218,5.769,7.287,6.425
1201,0.708,37.067,19.229,32.895,33.218,5.728,7.329,6.507
1202,0.718,37.126,19.345,32.876,33.225,5.768,7.289,6.427
1203,0.702,36.887,19.366,32.857,33.211,5.647,7.125,6.344
1204,0.711,36.99,19.23,32.856,33.2,5.645,7.205,6.384
1205,0.715,37.163,19.31,32.876,33.214,5.686,7.206,6.425
1206,0.718,37.194,19.377,32.857,33.214,5.768,7.165,6.344
1207,0.731,36.657,19.382,32.856,33.211,5.647,7.124,6.303
1208,0.715,36.805,19.284,32.828,33.218,5.686,7.165,6.302
1209,0.711,36.903,19.307,32.856,33.214,5.809,7.206,6.465
1210,0.731,36.99,19.342,32.895,33.225,5.891,7.328,6.507
1211,0.738,37.02,19.284,32.866,33.218,5.729,7.248,6.386
1212,0.728,37.144,19.322,32.866,33.218,5.768,7.206,6.344
1213,0.734,37.232,19.334,32.847,33.214,5.768,7.206,6.466
1214,0.734,37.377,19.268,32.875,33.214,5.85,7.206,6.386
1215,0.721,36.764,19.307,32.885,33.225,5.81,7.247,6.425
1216,0.711,36.893,19.354,32.866,33.214,5.769,7.044,6.304
1217,0.698,36.951,19.362,32.837,33.207,5.647,7.082,6.343
1218,0.701,36.722,19.269,32.866,33.221,5.727,7.164,6.384
1219,0.701,36.806,19.291,32.856,33.214,5.727,7.165,6.385
1220,0.701,36.931,19.299,32.847,33.211,5.727,7.124,6.303
1221,0.705,37.038,19.326,32.885,33.207,5.727,7.083,6.302
1222,0.695,36.598,19.331,32.828,33.211,5.768,7.205,6.384
1223,0.695,36.747,19.377,32.875,33.232,5.85,7.328,6.547
1224,0.695,36.892,19.308,32.895,33.225,5.81,7.167,6.427
1225,0.688,36.961,19.33,32.857,33.214,5.81,7.206,6.426
1226,0.708,36.703,19.35,32.847,33.218,5.81,7.206,6.426
1227,0.711,36.863,19.386,32.856,33.218,5.85,7.165,6.426
1228,0.715,36.97,19.327,32.876,33.225,5.851,7.206,6.507
1229,0.715,37.038,19.35,32.876,33.218,5.851,7.165,6.427
1230,0.715,36.608,19.35,32.828,33.207,5.769,7.043,6.304
1231,0.702,36.718,19.3,32.827,33.214,5.809,7.164,6.425
1232,0.714,36.873,19.338,32.837,33.221,5.85,7.124,6.426
1233,0.718,36.903,19.362,32.847,33.214,5.81,7.083,6.385
1234,0.715,36.664,19.28,32.828,33.214,5.769,7.123,6.466
1235,0.708,36.796,19.318,32.837,33.207,5.768,7.124,6.467
1236,0.695,36.912,19.338,32.847,33.218,5.931,7.287,6.629
1237,0.708,36.971,19.378,32.875,33.232,5.974,7.329,6.672
1238,0.708,36.655,19.292,32.857,33.218,5.852,7.248,6.55
1239,0.698,36.786,19.33,32.847,33.214,5.891,7.247,6.59
1240,0.692,36.874,19.346,32.856,33.214,5.933,7.247,6.631
1241,0.698,36.721,19.366,32.866,33.218,5.933,7.288,6.631
1242,0.695,36.691,19.347,32.837,33.221,5.892,7.288,6.631
1243,0.701,36.825,19.378,32.847,33.221,5.851,7.166,6.509
1244,0.675,36.893,19.331,32.866,33.207,5.81,7.165,6.549
1245,0.678,36.558,19.362,32.847,33.211,5.891,7.246,6.59
1246,0.685,36.66,19.397,32.837,33.214,5.851,7.206,6.549
1247,0.692,36.776,19.37,32.827,33.214,5.891,7.125,6.468
1248,0.682,36.864,19.292,32.837,33.207,5.811,7.124,6.507
1249,0.692,36.51,19.299,32.818,33.211,5.85,7.083,6.63
1250,0.692,36.689,19.33,32.856,33.221,6.013,7.327,6.712
1251,0.711,36.853,19.288,32.876,33.225,5.974,7.289,6.632
1252,0.698,36.893,19.338,32.857,33.221,5.852,7.125,6.631
1253,0.708,36.482,19.381,32.818,33.214,5.932,7.165,6.631
1254,0.711,36.631,19.316,32.846,33.218,5.933,7.206,6.631
1255,0.711,36.757,19.342,32.847,33.225,5.933,7.206,6.631
1256,0.698,36.825,19.393,32.837,33.207,5.811,7.003,6.509
1257,0.685,36.596,19.413,32.799,33.207,5.85,6.96,6.63
1258,0.685,36.757,19.328,32.846,33.214,5.891,7.122,6.631
1259,0.682,36.873,19.307,32.828,33.214,5.851,7.002,6.631
1260,0.679,36.903,19.319,32.818,33.214,5.932,6.96,6.631
1261,0.682,36.635,19.245,32.827,33.207,5.892,6.96,6.55
1262,0.685,36.767,19.31,32.837,33.218,5.973,7.041,6.752
1263,0.679,36.902,19.405,32.866,33.225,6.055,7.082,6.795
1264,0.691,36.904,19.242,32.866,33.221,5.812,7.042,6.795
1265,0.679,36.578,19.326,32.847,33.218,5.891,6.96,6.795
1266,0.682,36.718,19.385,32.847,33.225,5.933,6.878,6.795
1267,0.698,36.806,19.374,32.847,33.221,5.974,6.959,6.795
1268,0.682,36.663,19.343,32.847,33.218,5.933,7.0,6.795
1269,0.692,36.767,19.366,32.837,33.211,5.852,6.838,6.714
1270,0.675,36.854,19.327,32.808,33.204,5.891,6.837,6.794
1271,0.695,36.989,19.323,32.818,33.218,5.851,6.918,6.795
1272,0.701,36.502,19.315,32.827,33.211,5.891,6.796,6.795
1273,0.708,36.631,19.373,32.808,33.214,5.811,6.877,6.795
1274,0.695,36.747,19.327,32.818,33.211,5.85,6.837,6.714
1275,0.708,36.844,19.299,32.818,33.211,5.891,6.837,6.794
1276,0.702,36.635,19.369,32.856,33.225,6.014,7.04,6.999
1277,0.695,36.815,19.39,32.837,33.214,5.974,7.001,6.757
1278,0.685,36.874,19.37,32.827,33.218,5.974,7.041,6.876
1279,0.675,36.951,19.327,32.837,33.218,5.933,7.042,6.837
1280,0.672,36.568,19.323,32.837,33.218,6.014,7.123,6.837
1281,0.669,36.699,19.292,32.837,33.218,5.974,7.165,6.796
1282,0.672,36.825,19.307,32.837,33.221,6.015,7.165,6.714
1283,0.662,36.855,19.405,32.818,33.207,6.015,7.124,6.672
1284,0.659,36.596,19.316,32.827,33.207,6.015,7.205,6.794
1285,0.678,36.757,19.319,32.827,33.218,6.056,7.206,6.673
1286,0.685,36.864,19.354,32.837,33.211,5.975,7.206,6.672
1287,0.685,36.865,19.362,32.808,33.211,6.015,7.165,6.631
1288,0.682,36.692,19.335,32.818,33.214,6.056,7.287,6.672
1289,0.682,36.834,19.37,32.827,33.218,6.219,7.41,6.753
1290,0.701,36.98,19.378,32.856,33.225,6.22,7.371,6.795
1291,0.701,36.741,19.355,32.818,33.214,6.18,7.289,6.714
1292,0.692,36.758,19.311,32.837,33.218,6.179,7.288,6.713
1293,0.705,36.883,19.385,32.818,33.221,6.179,7.369,6.672
1294,0.695,36.951,19.355,32.827,33.218,6.179,7.33,6.631
1295,0.685,36.444,19.331,32.818,33.221,6.22,7.248,6.672
1296,0.688,36.544,19.362,32.808,33.207,6.098,7.206,6.469
1297,0.669,36.651,19.382,32.779,33.207,6.178,7.287,6.629
1298,0.672,36.767,19.378,32.808,33.214,6.179,7.288,6.672
1299,0.662,36.643,19.312,32.827,33.218,6.22,7.329,6.591
1300,0.662,36.786,19.338,32.818,33.214,6.18,7.248,6.549
1301,0.665,36.883,19.339,32.798,33.211,6.098,7.247,6.549
1302,0.669,36.97,19.327,32.808,33.218,6.138,7.288,6.671
1303,0.665,36.837,19.393,32.846,33.228,6.301,7.41,6.794
1304,0.682,36.999,19.351,32.856,33.225,6.18,7.33,6.592
1305,0.669,37.096,19.354,32.837,33.218,6.179,7.329,6.549
1306,0.675,37.145,19.362,32.837,33.214,6.22,7.329,6.549
1307,0.685,36.513,19.366,32.827,33.221,6.22,7.41,6.549
1308,0.685,36.641,19.331,32.818,33.221,6.18,7.411,6.59
1309,0.688,36.748,19.35,32.827,33.218,6.179,7.289,6.59
1310,0.679,36.768,19.315,32.789,33.207,6.057,7.207,6.468
1311,0.669,36.547,19.303,32.798,33.211,6.097,7.287,6.548
1312,0.695,36.708,19.326,32.808,33.218,6.138,7.288,6.549
1313,0.688,36.806,19.377,32.818,33.211,6.138,7.247,6.508
1314,0.688,36.759,19.339,32.789,33.214,6.179,7.166,6.467
1315,0.682,36.614,19.339,32.798,33.214,6.139,7.165,6.467
1316,0.662,36.757,19.374,32.817,33.214,6.138,7.287,6.507
1317,0.682,36.864,19.409,32.827,33.228,6.341,7.41,6.63
1318,0.692,37.191,19.37,32.846,33.214,6.262,7.289,6.55
1319,0.679,37.338,19.339,32.818,33.214,6.262,7.207,6.549
1320,0.669,37.464,19.335,32.818,33.218,6.343,7.328,6.549
1321,0.669,37.523,19.331,32.827,33.214,6.343,7.329,6.427
1322,0.669,36.239,19.338,32.818,33.221,6.343,7.329,6.507
1323,0.672,36.36,19.385,32.837,33.214,6.343,7.37,6.467
1324,0.665,36.447,19.339,32.799,33.207,6.262,7.289,6.426
1325,0.659,36.554,19.331,32.808,33.207,6.424,7.369,6.426
1326,0.678,36.67,19.393,32.798,33.218,6.385,7.411,6.385
1327,0.678,36.815,19.378,32.798,33.214,6.425,7.371,6.385
1328,0.682,36.931,19.355,32.817,33.214,6.385,7.37,6.344
1329,0.682,37.0,19.378,32.798,33.204,6.385,7.37,6.384
1330,0.685,36.463,19.351,32.817,33.214,6.466,7.492,6.547
1331,0.688,36.631,19.331,32.818,33.228,6.507,7.656,6.549
1332,0.692,36.728,19.358,32.818,33.214,6.386,7.455,6.427
1333,0.692,36.787,19.389,32.808,33.214,6.466,7.412,6.466
1334,0.688,36.519,19.323,32.827,33.211,6.467,7.493,6.467
1335,0.695,36.67,19.319,32.827,33.221,6.467,7.534,6.467
1336,0.679,36.786,19.381,32.837,33.221,6.426,7.534,6.426
1337,0.665,36.922,19.409,32.799,33.218,6.385,7.331,6.304
1338,0.669,36.53,19.308,32.789,33.2,6.344,7.37,6.343
1339,0.672,36.698,19.33,32.827,33.207,6.466,7.452,6.343
1340,0.672,36.786,19.346,32.818,33.214,6.467,7.412,6.303
1341,0.662,36.49,19.307,32.798,33.207,6.345,7.411,6.302
1342,0.662,36.506,19.346,32.789,33.207,6.384,7.411,6.343
1343,0.646,36.631,19.397,32.798,33.211,6.385,7.533,6.343
1344,0.672,36.738,19.347,32.827,33.221,6.507,7.534,6.547
1345,0.669,36.49,19.374,32.837,33.228,6.467,7.534,6.427
1346,0.669,36.583,19.394,32.818,33.218,6.345,7.494,6.385
1347,0.682,36.699,19.429,32.808,33.218,6.384,7.494,6.344
1348,0.666,36.786,19.39,32.808,33.214,6.385,7.494,6.466
1349,0.685,36.442,19.339,32.798,33.214,6.466,7.534,6.386
1350,0.692,36.602,19.385,32.808,33.221,6.426,7.453,6.385
1351,0.685,36.699,19.37,32.798,33.207,6.222,7.29,6.222
1352,0.675,36.758,19.347,32.789,33.211,6.342,7.41,6.261
1353,0.688,36.346,19.393,32.789,33.214,6.303,7.411,6.262
1354,0.682,36.476,19.355,32.779,33.214,6.262,7.371,6.262
1355,0.688,36.602,19.347,32.798,33.214,6.221,7.33,6.221
1356,0.675,36.642,19.354,32.779,33.204,6.22,7.289,6.261
1357,0.675,36.422,19.389,32.798,33.218,6.383,7.451,6.262
1358,0.678,36.592,19.421,32.837,33.228,6.385,7.493,6.384
1359,0.682,36.689,19.347,32.799,33.218,6.303,7.371,6.303
1360,0.675,36.719,19.382,32.808,33.218,6.262,7.33,6.302
1361,0.675,36.461,19.343,32.808,33.221,6.221,7.289,6.262
1362,0.682,36.611,19.346,32.818,33.221,6.302,7.369,6.262
1363,0.675,36.709,19.385,32.818,33.225,6.302,7.33,6.302
1364,0.695,36.585,19.316,32.779,33.207,6.14,7.207,6.18
1365,0.698,36.431,19.334,32.789,33.207,6.098,7.287,6.22
1366,0.714,36.602,19.346,32.779,33.218,6.178,7.329,6.22
1367,0.731,36.69,19.405,32.798,33.207,6.179,7.329,6.261
1368,0.738,36.355,19.382,32.789,33.207,6.139,7.289,6.139
1369,0.757,36.447,19.339,32.779,33.204,6.138,7.288,6.179
1370,0.764,36.592,19.393,32.789,33.218,6.138,7.41,6.301
1371,0.774,36.699,19.39,32.817,33.232,6.26,7.452,6.302
1372,0.78,36.221,19.359,32.808,33.218,6.139,7.371,6.18
1373,0.793,36.34,19.362,32.789,33.218,6.179,7.452,6.098
1374,0.793,36.447,19.413,32.798,33.218,6.139,7.452,6.138
1375,0.797,36.535,19.324,32.798,33.221,6.179,7.493,6.179
1376,0.8,36.277,19.342,32.798,33.218,6.139,7.453,6.179
1377,0.794,36.399,19.382,32.789,33.211,6.098,7.412,6.017
1378,0.777,36.477,19.413,32.769,33.204,6.016,7.33,6.096
1379,0.774,36.564,19.351,32.788,33.221,6.178,7.451,6.138
1380,0.774,36.171,19.37,32.798,33.214,6.22,7.452,6.098
1381,0.777,36.292,19.378,32.77,33.211,6.098,7.371,6.016
1382,0.777,36.428,19.37,32.779,33.211,6.056,7.411,6.056
1383,0.774,36.448,19.358,32.769,33.211,6.015,7.452,6.097
1384,0.79,36.218,19.374,32.798,33.218,6.259,7.534,6.26
1385,0.79,36.417,19.312,32.837,33.225,6.221,7.494,6.18
1386,0.803,36.496,19.327,32.799,33.218,6.139,7.453,6.098
1387,0.803,36.813,19.35,32.779,33.218,6.219,7.412,6.178
1388,0.797,36.222,19.405,32.779,33.218,6.18,7.411,6.179
1389,0.807,36.369,19.367,32.789,33.214,6.179,7.493,6.139
1390,0.813,36.486,19.37,32.798,33.221,6.22,7.412,6.138
1391,0.797,36.247,19.351,32.779,33.211,6.058,7.208,5.976
1392,0.79,36.264,19.319,32.76,33.204,6.015,7.287,6.055
1393,0.803,36.427,19.401,32.76,33.211,6.137,7.329,6.056
1394,0.797,36.515,19.382,32.779,33.211,6.179,7.289,5.975
1395,0.79,35.912,19.374,32.769,33.218,6.179,7.207,6.015
1396,0.79,36.031,19.339,32.76,33.207,6.098,7.206,5.974
1397,0.79,36.147,19.405,32.779,33.218,6.138,7.287,6.137
1398,0.787,36.254,19.363,32.808,33.225,6.301,7.369,6.26
1399,0.793,36.168,19.323,32.798,33.225,6.221,7.289,6.017
1400,0.79,36.283,19.354,32.789,33.218,6.22,7.288,6.015
1401,0.797,36.408,19.374,32.769,33.214,6.18,7.207,6.056
1402,0.803,36.486,19.355,32.798,33.214,6.22,7.287,6.056
1403,0.807,36.036,19.397,32.789,33.225,6.302,7.247,6.137
1404,0.813,36.156,19.398,32.789,33.225,6.221,7.206,6.016
1405,0.797,36.273,19.386,32.769,33.204,6.139,7.043,5.893
1406,0.81,36.303,19.359,32.769,33.214,6.179,7.164,5.973
1407,0.826,36.054,19.401,32.779,33.214,6.22,7.165,5.974
1408,0.813,36.185,19.363,32.779,33.218,6.22,7.165,5.974
1409,0.81,36.311,19.397,32.76,33.207,6.22,7.124,5.933
1410,0.8,36.332,19.37,32.76,33.207,6.18,7.043,5.974
1411,0.807,35.901,19.39,32.779,33.221,6.342,7.245,6.177
1412,0.826,36.088,19.374,32.817,33.228,6.343,7.288,6.098
1413,0.826,36.176,19.378,32.779,33.211,6.303,7.125,6.056
1414,0.826,36.014,19.409,32.769,33.221,6.221,7.165,6.056
1415,0.813,35.945,19.39,32.779,33.218,6.261,7.124,6.097
1416,0.81,36.079,19.37,32.769,33.221,6.262,7.124,6.138
1417,0.794,36.215,19.433,32.779,33.228,6.302,7.124,6.057
1418,0.78,35.89,19.402,32.76,33.211,6.221,7.002,5.934
1419,0.761,35.982,19.378,32.731,33.207,6.058,7.001,5.974
1420,0.751,36.146,19.355,32.759,33.214,6.259,7.041,6.015
1421,0.738,36.215,19.343,32.76,33.221,6.18,6.96,6.015
1422,0.741,35.804,19.35,32.75,33.214,6.098,6.96,6.015
1423,0.734,35.953,19.378,32.75,33.211,6.138,7.0,6.015
1424,0.728,36.06,19.355,32.759,33.218,6.179,7.001,6.056
1425,0.738,36.166,19.354,32.779,33.232,6.301,7.163,6.219
1426,0.77,35.918,19.378,32.808,33.228,6.343,7.084,6.139
1427,0.754,36.021,19.417,32.76,33.218,6.221,7.042,6.098
1428,0.741,36.147,19.39,32.779,33.214,6.302,7.164,6.097
1429,0.751,36.196,19.405,32.779,33.218,6.262,7.124,6.138
1430,0.741,35.842,19.374,32.779,33.214,6.343,7.165,6.098
1431,0.734,35.982,19.401,32.769,33.221,6.303,7.124,6.097
1432,0.734,36.098,19.351,32.75,33.207,6.14,7.002,5.935
1433,0.718,36.1,19.389,32.75,33.207,6.219,7.123,6.055
1434,0.718,35.745,19.413,32.759,33.214,6.22,7.165,6.056
1435,0.708,35.895,19.261,32.769,33.211,6.302,7.084,5.975
1436,0.695,35.992,19.353,32.74,33.211,6.221,7.123,5.974
1437,0.692,36.147,19.397,32.75,33.211,6.18,7.205,5.933
1438,0.679,35.832,19.394,32.759,33.214,6.261,7.328,6.136
1439,0.675,35.991,19.417,32.798,33.228,6.424,7.41,6.138
1440,0.672,36.108,19.386,32.779,33.221,6.222,7.289,6.016
1441,0.659,35.678,19.386,32.76,33.221,6.261,7.329,6.137
1442,0.656,35.712,19.374,32.779,33.214,6.343,7.37,6.057
1443,0.646,35.875,19.382,32.769,33.221,6.343,7.37,6.137
1444,0.649,35.973,19.401,32.779,33.218,6.425,7.452,6.057
1445,0.646,35.686,19.374,32.789,33.211,6.263,7.371,5.975
1446,0.652,35.817,19.366,32.75,33.207,6.139,7.452,5.974
1447,0.649,35.934,19.386,32.759,33.218,6.301,7.412,5.974
1448,0.662,36.04,19.362,32.76,33.214,6.221,7.452,5.974
1449,0.659,35.572,19.39,32.74,33.207,6.302,7.452,6.015
1450,0.652,35.739,19.339,32.75,33.211,6.221,7.493,5.974
1451,0.655,35.856,19.405,32.75,33.211,6.261,7.616,6.055
1452,0.665,35.963,19.37,32.788,33.235,6.465,7.82,6.137
1453,0.669,35.657,19.393,32.779,33.218,6.304,7.741,6.057
1454,0.643,35.779,19.409,32.769,33.214,6.221,7.781,6.056
1455,0.629,35.895,19.296,32.76,33.214,6.383,7.822,6.056
1456,0.623,35.954,19.385,32.769,33.218,6.303,7.863,6.097
1457,0.623,36.117,19.394,32.769,33.218,6.384,7.944,6.056
1458,0.616,36.253,19.437,32.76,33.214,6.222,7.742,5.975
1459,0.593,36.36,19.39,32.721,33.211,6.18,7.821,5.974
1460,0.593,36.399,19.378,32.759,33.214,6.261,7.863,6.096
1461,0.603,35.336,19.401,32.731,33.211,6.262,7.904,6.097
1462,0.59,35.478,19.363,32.75,33.214,6.262,7.945,6.016
1463,0.583,35.576,19.39,32.74,33.204,6.302,7.986,6.015
1464,0.593,35.634,19.417,32.759,33.218,6.262,8.108,6.137
1465,0.603,35.74,19.332,32.817,33.232,6.505,8.272,6.179
1466,0.616,35.866,19.354,32.779,33.225,6.345,8.193,5.976
1467,0.61,35.944,19.37,32.75,33.221,6.303,8.192,6.055
1468,0.606,35.475,19.413,32.769,33.218,6.384,8.232,6.056
1469,0.616,35.614,19.386,32.779,33.221,6.344,8.233,6.137
1470,0.626,35.73,19.39,32.769,33.218,6.384,8.233,6.098
1471,0.603,35.818,19.433,32.76,33.218,6.303,8.111,6.016
1472,0.613,35.397,19.375,32.75,33.207,6.18,8.15,5.934
1473,0.61,35.546,19.386,32.74,33.214,6.301,8.15,6.014
1474,0.616,35.682,19.413,32.74,33.214,6.262,8.11,5.974
1475,0.613,35.741,19.367,32.74,33.214,6.302,8.109,5.974
1476,0.593,35.482,19.343,32.74,33.207,6.302,8.069,6.015
1477,0.6,35.604,19.35,32.75,33.214,6.221,8.069,6.096
1478,0.593,35.73,19.401,32.769,33.228,6.424,8.272,6.219
1479,0.603,35.827,19.374,32.788,33.225,6.385,8.193,6.058
1480,0.587,35.474,19.37,32.75,33.214,6.303,8.11,6.015
1481,0.586,35.614,19.409,32.74,33.214,6.262,8.069,6.096
1482,0.583,35.711,19.386,32.759,33.214,6.302,8.191,6.138
1483,0.583,35.77,19.374,32.76,33.221,6.262,8.151,6.138
1484,0.59,35.531,19.417,32.76,33.218,6.262,8.15,6.179
1485,0.593,35.634,19.347,32.731,33.214,6.18,7.988,5.976
1486,0.606,35.731,19.354,32.74,33.218,6.179,8.027,6.055
1487,0.606,35.741,19.389,32.75,33.214,6.261,8.068,6.056
1488,0.609,35.473,19.405,32.75,33.211,6.139,8.028,6.137
1489,0.609,35.595,19.351,32.75,33.211,6.138,8.027,6.098
1490,0.603,35.692,19.37,32.731,33.214,6.179,7.987,6.097
1491,0.603,35.367,19.39,32.75,33.218,6.22,8.149,6.219
1492,0.603,35.479,19.382,32.846,33.225,6.302,8.15,6.22
1493,0.613,35.604,19.386,32.751,33.218,6.221,8.028,6.098
1494,0.597,35.682,19.437,32.731,33.214,6.18,7.946,6.138
1495,0.593,35.223,19.351,32.74,33.221,6.179,7.986,6.219
1496,0.606,35.381,19.386,32.75,33.218,6.139,7.946,6.22
1497,0.609,35.498,19.382,32.769,33.225,6.219,7.864,6.302
1498,0.636,35.585,19.429,32.74,33.211,6.18,7.782,6.18
1499,0.633,35.356,19.378,32.711,33.207,6.057,7.7,6.057
1500,0.668,35.517,19.397,32.74,33.218,6.097,7.78,6.219
1501,0.701,35.653,19.417,32.74,33.218,6.097,7.7,6.22
1502,0.747,35.731,19.402,32.74,33.211,6.097,7.699,6.261
1503,0.773,35.329,19.374,32.721,33.207,6.056,7.699,6.18
1504,0.81,35.469,19.413,32.74,33.211,6.137,7.699,6.301
1505,0.852,35.604,19.367,32.769,33.218,6.26,7.78,6.425
1506,0.931,35.682,19.366,32.769,33.225,6.18,7.659,6.222
1507,0.944,35.511,19.393,32.75,33.214,6.139,7.658,6.261
1508,0.977,35.633,19.468,32.721,33.218,6.138,7.658,6.262
1509,0.984,35.769,19.402,32.75,33.225,6.138,7.658,6.302
1510,1.01,35.78,19.386,32.759,33.221,6.179,7.739,6.343
1511,1.056,35.272,19.401,32.75,33.228,6.139,7.659,6.343
1512,1.089,35.42,19.359,32.721,33.207,6.057,7.495,6.221
1513,1.144,35.489,19.374,32.711,33.211,6.056,7.575,6.22
1514,1.194,35.307,19.362,32.721,33.214,6.097,7.575,6.261
1515,1.25,35.325,19.323,32.73,33.218,6.138,7.535,6.302
1516,1.279,35.459,19.358,32.731,33.211,6.138,7.494,6.302
1517,1.319,35.556,19.401,32.711,33.204,6.057,7.453,6.262
1518,1.368,35.25,19.433,32.721,33.221,6.137,7.574,6.424
1519,1.394,35.41,19.375,32.759,33.232,6.341,7.698,6.466
1520,1.444,35.546,19.39,32.74,33.221,6.14,7.455,6.467
1521,1.48,35.615,19.409,32.74,33.214,6.138,7.615,6.426
1522,1.532,35.184,19.39,32.731,33.218,6.179,7.535,6.466
1523,1.533,35.342,19.402,32.759,33.214,6.139,7.616,6.548
1524,1.542,35.44,19.425,32.74,33.221,6.179,7.576,6.63
1525,1.556,35.527,19.343,32.74,33.221,6.057,7.454,6.387
1526,1.52,35.125,19.339,32.711,33.207,5.975,7.412,6.385
1527,1.503,35.256,19.385,32.74,33.218,6.096,7.533,6.547
1528,1.484,35.401,19.394,32.74,33.214,6.097,7.575,6.508
1529,1.431,35.469,19.39,32.731,33.218,6.097,7.535,6.427
1530,1.411,35.221,19.409,32.702,33.207,6.016,7.575,6.588
1531,1.34,35.362,19.417,32.711,33.214,6.015,7.738,6.59
1532,1.251,35.479,19.386,32.74,33.221,6.096,7.74,6.753
1533,1.159,35.547,19.401,32.75,33.225,6.26,7.862,6.714
1534,1.038,35.222,19.417,32.731,33.214,6.099,7.863,6.794
1535,0.884,35.362,19.394,32.721,33.218,6.097,7.904,6.877
1536,0.726,35.488,19.359,32.778,33.214,6.138,7.945,7.081
1537,0.62,35.394,19.393,32.75,33.214,6.138,7.986,7.286
1538,0.522,35.239,19.433,32.731,33.214,6.138,8.027,7.491
1539,0.433,35.372,19.386,32.711,33.211,6.016,7.987,7.738
1540,0.354,35.46,19.374,32.692,33.2,5.934,7.946,8.065
1541,0.285,35.115,19.425,32.692,33.221,5.974,8.108,8.475
1542,0.242,35.236,19.375,32.73,33.221,6.055,8.15,8.886
1543,0.176,35.353,19.382,32.721,33.218,6.015,8.11,9.215
1544,0.14,35.459,19.448,32.711,33.214,5.974,8.191,9.503
1545,0.097,35.077,19.328,32.711,33.211,5.974,8.151,9.831
1546,0.064,35.236,19.366,32.73,33.225,6.096,8.273,10.281
1547,0.035,35.401,19.405,32.759,33.225,6.178,8.274,10.367
1548,0.015,35.46,19.378,32.74,33.211,5.976,8.355,10.571
1549,-0.005,35.134,19.39,32.702,33.214,6.015,8.234,10.736
1550,-0.008,35.284,19.355,32.73,33.221,6.015,8.273,10.86
1551,-0.011,35.411,19.401,32.731,33.221,6.015,8.193,10.983
1552,-0.005,35.489,19.347,32.721,33.225,6.056,8.232,11.066
1553,-0.011,35.163,19.362,32.692,33.214,5.893,8.111,10.944
1554,-0.008,35.275,19.409,32.692,33.214,5.933,8.191,11.065
1555,0.024,35.411,19.406,32.711,33.218,5.933,8.192,11.27
1556,0.015,35.46,19.386,32.73,33.207,5.974,8.11,11.394
1557,0.005,35.077,19.382,32.711,33.214,5.852,8.109,11.395
1558,0.018,35.226,19.413,32.702,33.207,5.851,7.947,11.558
1559,0.012,35.343,19.402,32.692,33.214,6.054,8.108,11.884
1560,0.054,35.68,19.413,32.749,33.232,6.097,8.191,12.132
1561,0.074,35.146,19.437,32.712,33.214,5.975,8.029,12.215
1562,0.08,35.275,19.398,32.721,33.218,5.974,8.027,12.42
1563,0.097,35.372,19.374,32.73,33.221,5.974,7.946,12.666
1564,0.12,35.057,19.421,32.721,33.221,6.015,7.986,12.709
1565,0.152,35.101,19.339,32.73,33.221,6.015,7.946,12.872
1566,0.182,35.236,19.362,32.731,33.218,5.974,7.783,12.873
1567,0.215,35.305,19.354,32.683,33.204,5.852,7.74,12.873
1568,0.248,35.027,19.35,32.72,33.214,6.013,7.903,12.955
1569,0.294,35.178,19.378,32.721,33.214,5.974,7.782,12.874
1570,0.349,35.304,19.374,32.702,33.218,6.015,7.781,12.873
1571,0.395,35.392,19.409,32.692,33.211,6.015,7.74,12.833
1572,0.432,34.932,19.351,32.701,33.214,6.056,7.699,12.71
1573,0.484,35.129,19.374,32.74,33.228,6.219,7.943,12.75
1574,0.527,35.275,19.433,32.711,33.235,6.18,7.823,12.547
1575,0.537,35.315,19.386,32.711,33.214,6.098,7.781,12.382
1576,0.557,35.037,19.319,32.74,33.218,6.138,7.7,12.299
1577,0.576,35.197,19.381,32.711,33.218,6.138,7.699,12.054
1578,0.59,35.314,19.394,32.711,33.228,6.179,7.699,12.052
1579,0.613,35.363,19.39,32.721,33.214,6.179,7.699,11.808
1580,0.616,35.009,19.378,32.702,33.211,6.057,7.455,11.602
1581,0.613,35.111,19.425,32.673,33.207,6.137,7.574,11.56
1582,0.623,35.265,19.355,32.72,33.218,6.138,7.494,11.437
1583,0.619,35.295,19.374,32.702,33.214,6.098,7.534,11.273
1584,0.629,35.066,19.433,32.701,33.211,6.138,7.494,11.028
1585,0.636,35.197,19.394,32.682,33.211,6.098,7.412,10.944
1586,0.649,35.324,19.405,32.749,33.214,6.178,7.452,10.902
1587,0.655,35.2,19.413,32.74,33.221,6.301,7.534,10.902
1588,0.675,35.084,19.433,32.721,33.221,6.221,7.412,10.699
1589,0.662,35.207,19.41,32.692,33.221,6.22,7.411,10.656
1590,0.659,35.324,19.394,32.711,33.221,6.18,7.371,10.493
1591,0.659,34.855,19.433,32.711,33.218,6.22,7.411,10.491
1592,0.675,34.975,19.386,32.711,33.221,6.302,7.493,10.329
1593,0.665,35.12,19.39,32.711,33.221,6.221,7.371,10.246
1594,0.669,35.179,19.409,32.654,33.204,6.098,7.208,10.123
1595,0.669,35.026,19.409,32.701,33.214,6.178,7.409,10.081
1596,0.665,35.178,19.363,32.711,33.211,6.139,7.249,10.04
1597,0.669,35.314,19.378,32.711,33.211,6.179,7.288,9.918
1598,0.669,35.392,19.401,32.702,33.211,6.139,7.207,9.794
1599,0.659,34.865,19.406,32.673,33.207,6.098,7.328,9.793
1600,0.662,35.042,19.425,32.701,33.225,6.219,7.41,9.875
1601,0.678,35.226,19.449,32.721,33.228,6.261,7.411,9.753
1602,0.675,35.266,19.344,32.711,33.211,6.18,7.33,9.712
1603,0.662,35.017,19.362,32.702,33.214,6.139,7.329,9.67
1604,0.665,35.149,19.436,32.701,33.214,6.098,7.329,9.548
1605,0.672,35.285,19.402,32.711,33.214,6.138,7.289,9.425
1606,0.698,35.334,19.273,32.711,33.221,6.138,7.329,9.383
1607,0.685,34.96,19.373,32.702,33.211,6.057,7.248,9.22
1608,0.695,35.081,19.436,32.663,33.207,6.056,7.206,9.178
1609,0.701,35.207,19.425,32.701,33.218,6.097,7.247,9.096
1610,0.695,35.525,19.414,32.701,33.218,6.097,7.288,9.014
1611,0.698,35.001,19.402,32.692,33.211,6.016,7.288,8.891
1612,0.698,35.101,19.398,32.692,33.211,5.974,7.125,8.89
1613,0.698,35.227,19.374,32.682,33.211,5.974,7.287,8.768
1614,0.711,34.864,19.421,32.711,33.225,6.137,7.41,8.929
1615,0.724,34.956,19.406,32.73,33.225,6.057,7.249,8.728
1616,0.702,35.072,19.367,32.75,33.221,6.015,7.288,8.685
1617,0.708,35.159,19.37,32.683,33.214,6.015,7.207,8.644
1618,0.705,34.815,19.448,32.711,33.214,6.015,7.287,8.562
1619,0.705,34.974,19.41,32.702,33.218,6.056,7.329,8.561
1620,0.708,35.101,19.421,32.711,33.221,5.975,7.289,8.399
1621,0.702,35.179,19.433,32.673,33.207,5.893,7.166,8.316
1622,0.685,34.863,19.242,32.72,33.211,5.933,7.287,8.356
1623,0.692,35.052,19.377,32.692,33.218,6.014,7.288,8.275
1624,0.698,35.178,19.433,32.682,33.214,5.934,7.247,8.152
1625,0.705,35.237,19.379,32.682,33.211,6.014,7.288,8.11
1626,0.715,34.94,19.37,32.72,33.211,5.934,7.288,8.069
1627,0.721,35.052,19.366,32.692,33.214,5.974,7.369,8.109
1628,0.724,35.226,19.39,32.74,33.235,6.137,7.492,8.191
1629,0.737,35.276,19.405,32.702,33.221,6.057,7.29,8.029
1630,0.728,34.979,19.39,32.701,33.218,6.015,7.288,7.946
1631,0.738,35.11,19.413,32.701,33.218,5.974,7.288,7.945
1632,0.741,35.246,19.328,32.692,33.221,6.055,7.288,7.864
1633,0.744,35.286,19.381,32.692,33.225,5.975,7.288,7.863
1634,0.738,34.902,19.425,32.692,33.218,5.933,7.247,7.782
1635,0.744,35.004,19.429,32.663,33.207,5.811,7.125,7.659
1636,0.705,35.12,19.394,32.692,33.211,5.972,7.165,7.698
1637,0.731,34.958,19.39,32.682,33.218,5.974,7.246,7.699
1638,0.734,34.88,19.417,32.682,33.214,5.933,7.084,7.577
1639,0.715,35.023,19.398,32.682,33.211,5.892,7.123,7.494
1640,0.728,35.111,19.413,32.663,33.211,5.851,7.083,7.534
1641,0.728,34.795,19.445,32.692,33.214,5.973,7.327,7.575
1642,0.708,34.945,19.402,32.74,33.228,6.015,7.248,7.657
1643,0.744,35.091,19.409,32.711,33.221,5.893,7.084,7.617
1644,0.738,35.159,19.441,32.702,33.218,5.973,7.123,7.535
1645,0.747,34.757,19.414,32.692,33.221,5.933,7.124,7.494
1646,0.747,34.935,19.371,32.759,33.211,5.852,7.124,7.534
1647,0.754,35.072,19.382,32.692,33.221,5.891,7.246,7.453
1648,0.761,35.13,19.409,32.682,33.221,5.811,7.206,7.371
1649,0.761,34.776,19.378,32.653,33.204,5.728,7.125,7.289
1650,0.761,34.926,19.386,32.672,33.214,5.809,7.205,7.288
1651,0.764,35.062,19.425,32.672,33.221,5.85,7.247,7.288
1652,0.777,35.13,19.375,32.663,33.214,5.851,7.288,7.166
1653,0.774,34.815,19.378,32.663,33.218,5.688,7.247,7.206
1654,0.767,34.946,19.413,32.653,33.218,5.809,7.369,7.287
1655,0.777,35.091,19.46,32.701,33.232,5.932,7.533,7.288
1656,0.764,35.121,19.34,32.673,33.214,5.811,7.372,7.207
1657,0.774,34.853,19.389,32.682,33.214,5.769,7.411,7.165
1658,0.751,34.994,19.409,32.673,33.221,5.768,7.493,7.124
1659,0.761,35.111,19.406,32.682,33.228,5.728,7.453,7.205
1660,0.767,35.179,19.394,32.692,33.225,5.768,7.412,7.125
1661,0.767,34.806,19.409,32.692,33.214,5.647,7.371,7.043
1662,0.757,34.888,19.324,32.673,33.211,5.686,7.37,7.164
1663,0.774,35.042,19.389,32.701,33.218,5.687,7.411,6.962
1664,0.764,34.737,19.433,32.682,33.214,5.687,7.371,7.082
1665,0.777,34.811,19.402,32.692,33.207,5.646,7.37,7.002
1666,0.787,34.936,19.324,32.682,33.214,5.564,7.37,6.96
1667,0.79,35.062,19.381,32.682,33.214,5.726,7.411,7.082
1668,0.797,34.67,19.417,32.711,33.228,5.85,7.493,7.123
1669,0.82,34.81,19.402,32.702,33.225,5.688,7.371,7.043
1670,0.807,34.927,19.417,32.673,33.221,5.646,7.37,6.92
1671,0.81,35.024,19.386,32.682,33.218,5.645,7.37,7.041
1672,0.813,34.622,19.433,32.682,33.221,5.645,7.289,6.96
1673,0.813,34.79,19.41,32.692,33.218,5.686,7.369,6.878
1674,0.82,34.907,19.374,32.673,33.221,5.646,7.208,6.796
1675,0.81,34.956,19.436,32.644,33.214,5.605,7.165,6.877
1676,0.807,34.774,19.394,32.682,33.218,5.686,7.287,6.837
1677,0.813,34.916,19.382,32.673,33.214,5.646,7.288,6.796
1678,0.807,35.043,19.398,32.672,33.207,5.605,7.166,6.836
1679,0.81,35.092,19.398,32.644,33.211,5.604,7.084,6.714
1680,0.807,34.546,19.421,32.634,33.214,5.645,7.164,6.794
1681,0.807,34.722,19.414,32.682,33.228,5.767,7.328,6.917
1682,0.823,34.878,19.398,32.682,33.225,5.687,7.207,6.837
1683,0.81,34.87,19.402,32.682,33.214,5.646,7.125,6.837
1684,0.813,34.697,19.394,32.673,33.214,5.686,7.165,6.837
1685,0.836,34.839,19.452,32.663,33.221,5.687,7.124,6.796
1686,0.836,34.956,19.375,32.682,33.225,5.727,7.124,6.877
1687,0.852,34.698,19.394,32.692,33.218,5.687,7.124,6.715
1688,0.853,34.666,19.425,32.644,33.207,5.564,7.043,6.551
1689,0.84,34.772,19.402,32.643,33.214,5.604,7.042,6.671
1690,0.859,34.926,19.409,32.653,33.211,5.604,7.123,6.713
1691,0.859,34.64,19.425,32.644,33.214,5.645,7.043,6.632
1692,0.869,34.752,19.386,32.653,33.211,5.564,7.001,6.59
1693,0.869,34.897,19.386,32.653,33.211,5.523,7.001,6.549
1694,0.872,34.985,19.39,32.653,33.211,5.603,7.041,6.712
1695,0.872,34.564,19.437,32.682,33.232,5.726,7.204,6.754
1696,0.869,34.703,19.347,32.673,33.214,5.565,7.084,6.632
1697,0.863,34.82,19.413,32.653,33.218,5.604,7.002,6.55
1698,0.879,34.907,19.437,32.663,33.221,5.564,7.082,6.549
1699,0.869,34.582,19.425,32.663,33.218,5.685,7.123,6.549
1700,0.872,34.742,19.433,32.682,33.221,5.646,7.165,6.63
1701,0.879,34.887,19.41,32.673,33.218,5.645,7.084,6.55
1702,0.869,34.908,19.363,32.634,33.204,5.483,7.123,6.508
1703,0.872,34.553,19.397,32.653,33.218,5.644,7.205,6.508
1704,0.885,34.694,19.433,32.653,33.214,5.564,7.206,6.549
1705,0.892,34.829,19.425,32.644,33.218,5.645,7.206,6.468
1706,0.902,34.85,19.339,32.653,33.214,5.564,7.206,6.467
1707,0.899,34.543,19.339,32.634,33.211,5.563,7.287,6.507
1708,0.915,34.694,19.417,32.682,33.225,5.645,7.451,6.549
1709,0.931,34.839,19.433,32.682,33.228,5.727,7.412,6.508
1710,0.938,34.821,19.406,32.663,33.221,5.565,7.371,6.467
1711,0.932,34.639,19.417,32.663,33.225,5.645,7.37,6.507
1712,0.944,34.762,19.378,32.653,33.218,5.645,7.411,6.427
1713,0.948,34.888,19.394,32.672,33.225,5.605,7.452,6.466
1714,0.964,34.534,19.433,32.653,33.225,5.604,7.412,6.467
1715,0.948,34.626,19.429,32.644,33.214,5.523,7.371,6.386
1716,0.925,34.742,19.312,32.624,33.211,5.441,7.33,6.425
1717,0.951,34.859,19.381,32.643,33.211,5.481,7.41,6.466
1718,0.948,34.524,19.405,32.643,33.221,5.644,7.371,6.467
1719,0.958,34.665,19.394,32.643,33.218,5.523,7.37,6.386
1720,0.948,34.791,19.421,32.634,33.218,5.522,7.411,6.385
1721,0.938,34.869,19.398,32.634,33.218,5.644,7.452,6.507
1722,0.948,34.678,19.359,32.672,33.221,5.727,7.656,6.63
1723,0.964,34.829,19.393,32.682,33.225,5.646,7.536,6.468
1724,0.961,34.927,19.441,32.644,33.218,5.645,7.534,6.467
1725,0.971,35.004,19.437,32.663,33.214,5.645,7.657,6.548
1726,0.99,34.66,19.347,32.663,33.225,5.645,7.617,6.508
1727,0.997,34.819,19.397,32.653,33.221,5.645,7.617,6.549
1728,1.004,34.927,19.398,32.672,33.221,5.645,7.617,6.468
1729,1.0,34.956,19.386,32.625,33.211,5.523,7.535,6.345
1730,1.007,34.727,19.382,32.624,33.214,5.685,7.697,6.466
1731,1.014,34.897,19.44,32.634,33.207,5.646,7.74,6.426
1732,1.023,34.975,19.425,32.624,33.211,5.686,7.699,6.385
1733,1.03,35.005,19.371,32.643,33.214,5.564,7.658,6.344
1734,1.037,34.833,19.413,32.615,33.214,5.604,7.698,6.384
1735,1.024,34.984,19.437,32.643,33.228,5.726,7.861,6.507
1736,1.023,35.12,19.433,32.653,33.235,5.727,7.904,6.508
1737,1.023,34.987,19.402,32.644,33.221,5.687,7.782,6.467
1738,1.017,35.015,19.409,32.624,33.221,5.605,7.781,6.426
1739,1.027,35.159,19.425,32.634,33.221,5.686,7.862,6.548
1740,1.027,35.256,19.398,32.634,33.225,5.687,7.822,6.468
1741,1.02,35.046,19.437,32.653,33.225,5.646,7.863,6.426
1742,1.02,35.169,19.367,32.644,33.214,5.523,7.782,6.385
1743,1.014,35.294,19.366,32.595,33.2,5.482,7.659,6.425
1744,1.017,35.372,19.425,32.643,33.214,5.562,7.739,6.385
1745,1.03,35.086,19.429,32.624,33.214,5.563,7.74,6.344
1746,1.05,35.217,19.347,32.605,33.214,5.645,7.699,6.343
1747,1.04,35.343,19.385,32.624,33.207,5.523,7.658,6.221
1748,1.053,35.421,19.417,32.634,33.218,5.482,7.698,6.342
1749,1.063,35.316,19.449,32.653,33.225,5.684,7.821,6.547
1750,1.069,35.497,19.422,32.663,33.228,5.727,7.741,6.386
1751,1.063,35.605,19.421,32.615,33.221,5.605,7.699,6.385
1752,1.073,35.625,19.41,32.634,33.221,5.645,7.699,6.466
1753,1.063,35.52,19.378,32.643,33.225,5.645,7.74,6.426
1754,1.073,35.653,19.413,32.643,33.221,5.645,7.74,6.304
1755,1.066,35.76,19.445,32.634,33.221,5.686,7.618,6.343
1756,1.056,35.761,19.433,32.605,33.204,5.524,7.617,6.181
1757,1.047,35.789,19.375,32.614,33.218,5.522,7.698,6.342
1758,1.053,35.934,19.405,32.624,33.218,5.603,7.699,6.303
1759,1.056,36.05,19.437,32.614,33.214,5.604,7.658,6.221
1760,1.05,36.022,19.394,32.605,33.218,5.645,7.658,6.261
1761,1.053,35.917,19.417,32.605,33.214,5.605,7.698,6.262
1762,1.056,36.04,19.398,32.633,33.225,5.726,7.821,6.424
1763,1.066,36.205,19.39,32.662,33.232,5.768,7.822,6.344
1764,1.056,36.053,19.409,32.615,33.218,5.647,7.781,6.262
1765,1.066,36.147,19.441,32.614,33.214,5.686,7.862,6.302
1766,1.069,36.282,19.371,32.624,33.214,5.727,7.822,6.302
1767,1.079,36.38,19.378,32.643,33.221,5.687,7.822,6.262
1768,1.079,36.256,19.417,32.624,33.225,5.687,7.822,6.221
1769,1.079,36.389,19.402,32.614,33.211,5.483,7.7,6.098
1770,1.073,36.476,19.394,32.662,33.207,5.562,7.78,6.219
1771,1.079,36.583,19.413,32.615,33.218,5.645,7.74,6.22
1772,1.073,36.431,19.437,32.614,33.218,5.645,7.74,6.22
1773,1.073,36.582,19.39,32.662,33.214,5.645,7.659,6.18
1774,1.069,36.689,19.386,32.605,33.207,5.645,7.617,6.098
1775,1.053,36.738,19.433,32.595,33.218,5.686,7.739,6.26
1776,1.069,36.643,19.46,32.633,33.228,5.768,7.821,6.343
1777,1.063,36.786,19.359,32.634,33.221,5.647,7.7,6.303
1778,1.056,36.864,19.382,32.624,33.225,5.686,7.699,6.302
1779,1.047,36.922,19.409,32.624,33.221,5.687,7.699,6.262
1780,1.043,36.894,19.429,32.605,33.225,5.727,7.699,6.302
1781,1.043,37.028,19.429,32.624,33.225,5.727,7.78,6.262
1782,1.033,37.135,19.441,32.614,33.225,5.768,7.659,6.18
1783,1.037,37.51,19.39,32.605,33.211,5.565,7.536,6.139
1784,1.017,37.14,19.433,32.605,33.214,5.604,7.657,6.219
1785,1.03,37.289,19.437,32.605,33.214,5.645,7.658,6.22
1786,1.037,37.349,19.379,32.614,33.207,5.645,7.617,6.22
1787,1.024,37.215,19.394,32.605,33.214,5.605,7.617,6.139
1788,1.014,37.252,19.398,32.576,33.214,5.645,7.617,6.219
1789,1.014,37.406,19.405,32.633,33.225,5.727,7.739,6.383
1790,1.027,37.503,19.441,32.701,33.232,5.809,7.699,6.303
1791,1.01,37.245,19.414,32.615,33.218,5.728,7.618,6.18
1792,1.01,37.396,19.433,32.605,33.221,5.727,7.617,6.22
1793,1.004,37.503,19.406,32.691,33.221,5.768,7.535,6.261
1794,0.994,37.59,19.425,32.615,33.225,5.768,7.616,6.221
1795,0.991,37.524,19.445,32.624,33.225,5.768,7.576,6.22
1796,0.965,37.639,19.445,32.605,33.214,5.687,7.332,6.098
1797,0.945,37.726,19.32,32.595,33.218,5.727,7.492,6.26
1798,0.954,37.823,19.385,32.605,33.221,5.809,7.453,6.139
1799,0.932,37.737,19.429,32.595,33.218,5.728,7.412,6.179
1800,0.931,37.842,19.406,32.595,33.211,5.646,7.371,6.22
1801,0.909,37.958,19.402,32.585,33.211,5.686,7.37,6.139
1802,0.895,37.988,19.433,32.595,33.218,5.849,7.452,6.301
1803,0.921,37.777,19.449,32.643,33.232,5.932,7.534,6.343
1804,0.912,37.881,19.437,32.624,33.218,5.73,7.453,6.221
1805,0.902,37.968,19.476,32.624,33.221,5.809,7.371,6.22
1806,0.892,37.988,19.391,32.614,33.218,5.81,7.411,6.22
1807,0.895,37.94,19.378,32.624,33.225,5.81,7.452,6.22
1808,0.899,38.065,19.437,32.614,33.225,5.81,7.493,6.22
1809,0.886,38.162,19.379,32.614,33.218,5.688,7.412,6.139
1810,0.872,37.981,19.421,32.586,33.207,5.687,7.371,6.138
1811,0.869,37.95,19.41,32.605,33.221,5.768,7.492,6.179
1812,0.866,38.084,19.433,32.595,33.214,5.728,7.494,6.22
1813,0.856,38.162,19.371,32.605,33.214,5.727,7.453,6.139
1814,0.853,37.952,19.405,32.586,33.211,5.727,7.493,6.138
1815,0.836,38.065,19.441,32.595,33.214,5.809,7.616,6.301
1816,0.833,38.219,19.476,32.633,33.232,5.932,7.82,6.384
1817,0.836,38.298,19.356,32.624,33.221,5.73,7.659,6.181
1818,0.807,38.049,19.374,32.614,33.214,5.768,7.617,6.22
1819,0.8,38.181,19.378,32.614,33.221,5.809,7.698,6.22
1820,0.794,38.326,19.429,32.681,33.221,5.769,7.699,6.261
1821,0.787,38.385,19.402,32.615,33.221,5.85,7.74,6.302
1822,0.787,38.203,19.433,32.614,33.221,5.729,7.74,6.221
1823,0.78,38.297,19.39,32.624,33.207,5.646,7.659,6.22
1824,0.771,38.442,19.398,32.595,33.218,5.686,7.739,6.22
1825,0.777,38.482,19.46,32.605,33.214,5.687,7.74,6.18
1826,0.784,38.108,19.433,32.595,33.207,5.687,7.74,6.098
1827,0.777,38.239,19.339,32.595,33.211,5.605,7.74,6.138
1828,0.78,38.355,19.397,32.595,33.214,5.645,7.781,6.219
1829,0.777,38.414,19.394,32.643,33.232,5.808,7.984,6.302
1830,0.774,38.232,19.421,32.634,33.221,5.769,7.824,6.262
1831,0.767,38.336,19.406,32.605,33.218,5.687,7.741,6.262
1832,0.767,38.404,19.409,32.605,33.225,5.687,7.821,6.18
1833,0.767,38.654,19.409,32.605,33.218,5.768,7.781,6.179
1834,0.77,38.264,19.394,32.614,33.221,5.728,7.781,6.22
1835,0.754,38.375,19.468,32.624,33.225,5.809,7.7,6.18
1836,0.741,38.472,19.434,32.586,33.207,5.566,7.577,6.098
1837,0.728,38.147,19.386,32.643,33.218,5.685,7.698,6.219
1838,0.728,38.22,19.405,32.605,33.221,5.727,7.658,6.18
1839,0.725,38.345,19.421,32.586,33.218,5.646,7.617,6.057
1840,0.724,38.423,19.414,32.595,33.211,5.645,7.535,6.056
1841,0.715,38.089,19.386,32.585,33.214,5.564,7.534,6.015
1842,0.711,38.21,19.425,32.595,33.218,5.685,7.657,6.218
1843,0.728,38.374,19.449,32.643,33.235,5.849,7.78,6.261
1844,0.718,38.443,19.394,32.615,33.214,5.648,7.618,6.139
1845,0.715,38.204,19.429,32.605,33.228,5.686,7.576,6.138
1846,0.724,38.336,19.418,32.605,33.221,5.646,7.616,6.219
1847,0.708,38.443,19.429,32.614,33.228,5.727,7.617,6.22
1848,0.718,38.53,19.433,32.614,33.218,5.727,7.698,6.22
1849,0.728,38.118,19.406,32.605,33.218,5.605,7.577,6.098
1850,0.718,38.229,19.367,32.576,33.207,5.523,7.535,6.097
1851,0.721,38.365,19.37,32.604,33.221,5.685,7.575,6.138
1852,0.718,38.424,19.456,32.605,33.218,5.646,7.535,6.098
1853,0.728,38.175,19.383,32.595,33.211,5.605,7.616,6.056
1854,0.718,38.307,19.362,32.576,33.214,5.482,7.576,6.056
1855,0.715,38.413,19.393,32.595,33.218,5.562,7.657,6.137
1856,0.715,38.443,19.456,32.624,33.235,5.726,7.82,6.219
1857,0.721,38.098,19.394,32.595,33.218,5.605,7.619,6.098
1858,0.705,38.2,19.382,32.585,33.221,5.564,7.657,6.097
1859,0.689,38.307,19.425,32.624,33.214,5.645,7.658,6.138
1860,0.701,38.135,19.3,32.624,33.225,5.605,7.617,6.179
1861,0.701,38.105,19.393,32.614,33.218,5.523,7.617,6.057
1862,0.695,38.201,19.464,32.605,33.214,5.563,7.454,5.975
1863,0.682,38.278,19.352,32.586,33.211,5.482,7.493,6.055
1864,0.695,37.963,19.417,32.595,33.214,5.522,7.453,6.097
1865,0.695,38.074,19.453,32.585,33.214,5.563,7.452,6.056
1866,0.724,38.181,19.418,32.595,33.218,5.523,7.412,5.975
1867,0.708,38.249,19.359,32.595,33.214,5.522,7.289,5.974
1868,0.711,37.876,19.389,32.595,33.214,5.563,7.491,6.055
1869,0.728,38.073,19.433,32.624,33.235,5.685,7.534,6.137
1870,0.728,38.191,19.402,32.701,33.218,5.564,7.453,6.016
1871,0.712,38.249,19.421,32.606,33.221,5.604,7.371,6.096
1872,0.737,37.953,19.445,32.605,33.221,5.604,7.37,6.056
1873,0.725,38.113,19.425,32.662,33.221,5.604,7.37,6.056
1874,0.715,38.249,19.417,32.596,33.225,5.645,7.37,6.097
1875,0.711,38.279,19.456,32.595,33.221,5.564,7.289,6.016
1876,0.702,37.828,19.445,32.557,33.207,5.563,7.247,5.934
1877,0.701,37.968,19.324,32.604,33.221,5.645,7.369,6.055
1878,0.695,38.084,19.377,32.586,33.218,5.645,7.37,6.056
1879,0.695,38.124,19.401,32.595,33.218,5.605,7.411,6.015
1880,0.695,37.913,19.3,32.585,33.221,5.604,7.371,6.056
1881,0.685,38.026,19.373,32.585,33.211,5.604,7.452,6.015
1882,0.695,38.142,19.464,32.595,33.221,5.686,7.534,6.137
1883,0.701,38.182,19.352,32.643,33.232,5.768,7.657,6.098
1884,0.705,37.894,19.386,32.615,33.218,5.606,7.495,6.056
1885,0.715,37.978,19.441,32.586,33.214,5.686,7.534,6.056
1886,0.705,38.075,19.437,32.585,33.221,5.768,7.534,6.097
1887,0.718,37.759,19.394,32.595,33.221,5.728,7.575,6.016
1888,0.708,37.842,19.37,32.605,33.218,5.768,7.535,6.015
1889,0.731,37.958,19.421,32.595,33.225,5.728,7.494,6.015
1890,0.721,38.026,19.394,32.643,33.204,5.646,7.412,5.934
1891,0.715,37.624,19.413,32.586,33.218,5.808,7.533,5.974
1892,0.731,37.764,19.46,32.585,33.218,5.688,7.412,5.974
1893,0.721,37.919,19.433,32.614,33.214,5.768,7.452,5.974
1894,0.715,37.959,19.414,32.586,33.211,5.768,7.412,5.933
1895,0.711,37.566,19.429,32.576,33.211,5.768,7.411,5.974
1896,0.708,37.725,19.449,32.604,33.214,5.768,7.493,6.096
1897,0.718,37.899,19.316,32.633,33.232,5.931,7.575,6.056
1898,0.702,37.949,19.35,32.595,33.218,5.852,7.494,6.015
1899,0.698,37.681,19.397,32.605,33.221,5.81,7.534,6.015
1900,0.698,37.822,19.339,32.586,33.221,5.891,7.534,6.056
1901,0.708,37.948,19.417,32.614,33.225,5.811,7.575,6.056
1902,0.705,37.988,19.464,32.605,33.221,5.85,7.616,6.056
1903,0.705,37.643,19.316,32.595,33.218,5.688,7.495,5.893
1904,0.695,37.745,19.397,32.557,33.204,5.687,7.494,6.014
1905,0.711,37.861,19.448,32.604,33.218,5.809,7.453,6.015
1906,0.715,37.872,19.472,32.586,33.211,5.688,7.452,6.015
1907,0.692,37.575,19.402,32.605,33.214,5.768,7.412,5.893
1908,0.714,37.677,19.394,32.576,33.214,5.768,7.411,5.892
1909,0.724,37.793,19.413,32.585,33.214,5.728,7.493,6.014
1910,0.721,37.622,19.386,32.662,33.225,5.85,7.616,6.178
1911,0.737,37.649,19.409,32.624,33.228,5.973,7.535,5.976
1912,0.731,37.745,19.437,32.586,33.221,5.771,7.494,5.974
1913,0.738,37.871,19.406,32.614,33.218,5.809,7.494,5.974
1914,0.725,37.489,19.402,32.595,33.225,5.769,7.453,5.974
1915,0.718,37.581,19.46,32.585,33.225,5.809,7.534,6.055
1916,0.715,37.716,19.453,32.605,33.225,5.85,7.453,5.975
1917,0.715,37.813,19.437,32.653,33.211,5.729,7.33,5.852
1918,0.698,37.239,19.406,32.576,33.207,5.727,7.289,5.973
1919,0.705,37.405,19.417,32.585,33.221,5.85,7.329,5.893
1920,0.705,37.551,19.39,32.662,33.218,5.769,7.289,5.973
1921,0.715,37.61,19.405,32.567,33.221,5.728,7.288,5.933
1922,0.702,37.381,19.464,32.585,33.218,5.646,7.247,5.933
1923,0.708,37.522,19.348,32.633,33.214,5.727,7.288,5.933
1924,0.708,37.658,19.389,32.624,33.221,5.85,7.451,6.096
1925,0.728,37.745,19.413,32.605,33.228,5.851,7.412,5.975
1926,0.728,37.18,19.464,32.595,33.218,5.769,7.33,5.974
1927,0.731,37.328,19.449,32.595,33.211,5.768,7.37,5.974
1928,0.731,37.426,19.406,32.585,33.221,5.768,7.33,6.055
1929,0.738,37.494,19.429,32.614,33.221,5.768,7.329,5.934
1930,0.734,37.408,19.386,32.605,33.225,5.809,7.329,5.933
1931,0.728,37.522,19.398,32.605,33.214,5.728,7.207,5.811
1932,0.721,37.581,19.452,32.566,33.211,5.768,7.247,5.891
1933,0.721,37.812,19.324,32.585,33.218,5.809,7.288,5.892
1934,0.731,37.872,19.385,32.585,33.214,5.85,7.288,5.933
1935,0.721,38.006,19.398,32.576,33.214,5.81,7.207,5.852
1936,0.708,38.056,19.433,32.566,33.207,5.81,7.206,5.932
1937,0.711,36.867,19.394,32.595,33.214,5.85,7.328,6.014
1938,0.715,36.913,19.417,32.624,33.228,6.013,7.37,6.056
1939,0.724,37.057,19.437,32.605,33.225,5.893,7.248,5.975
1940,0.711,37.106,19.332,32.605,33.221,5.933,7.247,5.974
1941,0.711,37.117,19.393,32.595,33.221,5.892,7.328,5.933
1942,0.702,37.251,19.464,32.595,33.225,5.933,7.329,6.055
1943,0.708,37.406,19.383,32.605,33.218,5.974,7.37,6.015
1944,0.702,37.455,19.421,32.595,33.218,5.974,7.248,5.852
1945,0.701,36.957,19.402,32.557,33.207,5.852,7.125,5.973
1946,0.714,37.115,19.417,32.604,33.221,5.891,7.246,5.893
1947,0.728,37.27,19.398,32.576,33.221,5.933,7.206,5.892
1948,0.721,37.31,19.37,32.595,33.211,5.892,7.165,5.933
1949,0.724,37.023,19.417,32.585,33.211,5.851,7.165,5.892
1950,0.728,37.144,19.382,32.585,33.214,5.891,7.246,5.973
1951,0.738,37.29,19.398,32.633,33.228,6.054,7.41,6.096
1952,0.754,37.349,19.456,32.595,33.221,5.893,7.289,5.894
1953,0.725,36.889,19.375,32.605,33.225,5.973,7.329,5.933
1954,0.721,37.018,19.409,32.595,33.218,5.974,7.289,5.933
1955,0.724,37.135,19.409,32.605,33.228,5.974,7.247,5.974
1956,0.711,37.443,19.464,32.605,33.228,5.974,7.288,5.974
1957,0.708,36.976,19.406,32.595,33.218,5.893,7.288,5.933
1958,0.702,37.058,19.378,32.585,33.207,5.851,7.166,5.974
1959,0.695,37.193,19.378,32.605,33.218,5.973,7.165,6.015
1960,0.711,36.801,19.378,32.595,33.221,6.015,7.246,5.974
1961,0.708,36.807,19.378,32.585,33.221,5.974,7.166,5.933
1962,0.689,36.931,19.448,32.585,33.211,5.974,7.124,5.933
1963,0.695,37.009,19.394,32.595,33.221,5.974,7.205,6.136
1964,0.705,36.665,19.425,32.624,33.235,6.177,7.328,6.179
1965,0.715,36.805,19.433,32.605,33.218,6.098,7.126,6.017
1966,0.715,36.883,19.496,32.586,33.211,6.056,7.165,6.056
1967,0.708,36.97,19.438,32.605,33.221,6.097,7.124,6.097
1968,0.715,36.674,19.437,32.605,33.218,6.056,7.165,6.138
1969,0.721,36.825,19.406,32.624,33.225,6.097,7.206,6.098
1970,0.724,36.932,19.425,32.605,33.221,6.097,7.165,6.056
1971,0.721,37.019,19.386,32.586,33.207,6.016,7.124,5.975
1972,0.711,36.588,19.421,32.585,33.214,6.096,7.287,6.015
1973,0.721,36.728,19.433,32.585,33.214,6.097,7.247,6.056
1974,0.715,36.863,19.382,32.595,33.218,6.056,7.288,5.975
1975,0.715,36.913,19.433,32.566,33.214,5.975,7.247,5.974
1976,0.695,36.616,19.425,32.585,33.211,6.096,7.288,6.055
1977,0.708,36.747,19.449,32.605,33.225,6.178,7.41,6.137
1978,0.711,36.902,19.414,32.643,33.228,6.179,7.533,6.138
1979,0.698,36.913,19.413,32.605,33.218,6.098,7.372,6.057
1980,0.692,36.616,19.382,32.595,33.218,6.097,7.411,6.056
1981,0.698,36.757,19.378,32.605,33.218,6.138,7.452,6.056
1982,0.698,36.873,19.46,32.614,33.225,6.138,7.412,6.137
1983,0.698,36.711,19.391,32.614,33.228,6.179,7.452,6.098
1984,0.711,36.614,19.394,32.605,33.218,6.057,7.33,6.016
1985,0.698,36.718,19.402,32.566,33.207,5.975,7.289,5.974
1986,0.701,36.825,19.472,32.595,33.221,6.096,7.369,6.055
1987,0.695,36.519,19.426,32.624,33.221,6.097,7.37,6.015
1988,0.708,36.631,19.429,32.576,33.218,6.056,7.33,6.015
1989,0.711,36.728,19.398,32.576,33.211,6.056,7.289,6.015
1990,0.705,36.816,19.417,32.595,33.214,6.056,7.288,6.096
1991,0.698,36.318,19.39,32.605,33.225,6.219,7.451,6.219
1992,0.718,36.485,19.441,32.624,33.228,6.18,7.452,6.098
1993,0.705,36.564,19.414,32.605,33.214,6.179,7.371,6.097
1994,0.705,36.68,19.386,32.614,33.221,6.179,7.289,6.097
1995,0.708,36.479,19.448,32.605,33.225,6.301,7.329,6.097
1996,0.698,36.621,19.457,32.633,33.221,6.221,7.41,6.097
1997,0.695,36.738,19.406,32.605,33.221,6.261,7.371,6.097
1998,0.688,36.796,19.382,32.595,33.214,6.18,7.167,5.975
1999,0.679,36.442,19.386,32.566,33.207,6.179,7.246,6.055
2000,0.678,36.592,19.37,32.585,33.218,6.22,7.328,6.056
2001,0.685,36.718,19.386,32.614,33.218,6.261,7.207,6.056
2002,0.682,36.758,19.433,32.595,33.214,6.221,7.165,6.015
2003,0.682,36.451,19.363,32.576,33.214,6.18,7.165,6.056
2004,0.675,36.592,19.386,32.604,33.214,6.301,7.287,6.219
2005,0.695,36.737,19.433,32.624,33.228,6.425,7.369,6.22
2006,0.705,37.017,19.496,32.614,33.225,6.344,7.167,6.139
2007,0.702,36.54,19.438,32.605,33.228,6.262,7.206,6.138
2008,0.698,36.66,19.429,32.614,33.218,6.384,7.206,6.179
2009,0.714,36.796,19.433,32.624,33.221,6.385,7.206,6.179
2010,0.705,36.529,19.414,32.624,33.221,6.344,7.165,6.139
2011,0.708,36.631,19.398,32.624,33.221,6.384,7.084,6.016
2012,0.702,36.719,19.448,32.586,33.204,6.222,6.961,6.015
2013,0.695,36.796,19.418,32.595,33.218,6.424,7.082,6.015
2014,0.708,36.327,19.41,32.605,33.218,6.466,7.083,6.056
2015,0.695,36.457,19.394,32.595,33.218,6.426,7.042,6.015
2016,0.688,36.573,19.448,32.585,33.218,6.466,7.001,5.934
2017,0.682,36.651,19.426,32.585,33.211,6.426,7.041,6.055
2018,0.685,36.354,19.402,32.595,33.221,6.548,7.164,6.137
2019,0.682,36.543,19.448,32.643,33.228,6.671,7.328,6.098
2020,0.695,36.632,19.402,32.595,33.214,6.591,7.085,6.056
2021,0.685,36.709,19.394,32.585,33.225,6.59,7.164,6.097
2022,0.682,37.295,19.417,32.605,33.228,6.671,7.124,6.097
2023,0.692,37.435,19.39,32.605,33.225,6.672,7.205,6.138
2024,0.688,37.561,19.374,32.624,33.225,6.794,7.206,6.098
2025,0.695,37.591,19.394,32.605,33.221,6.673,7.165,5.975
2026,0.705,36.076,19.433,32.576,33.207,6.55,7.043,5.974
2027,0.698,36.205,19.398,32.604,33.214,6.63,7.245,6.055
2028,0.698,36.34,19.417,32.605,33.218,6.672,7.125,6.097
2029,0.705,36.371,19.402,32.605,33.218,6.631,7.165,6.097
2030,0.698,36.591,19.398,32.576,33.211,6.631,7.124,6.016
2031,0.695,36.728,19.402,32.595,33.214,6.59,7.124,6.015
2032,0.701,36.844,19.409,32.605,33.218,6.753,7.246,6.178
2033,0.711,36.548,19.452,32.624,33.235,6.836,7.247,6.139
2034,0.702,36.44,19.418,32.614,33.225,6.714,7.166,6.098
2035,0.695,36.563,19.394,32.614,33.218,6.632,7.124,6.056
2036,0.685,36.66,19.448,32.614,33.221,6.672,7.205,6.097
2037,0.685,36.748,19.41,32.614,33.221,6.672,7.165,6.056
2038,0.685,36.912,19.374,32.614,33.221,6.631,7.206,6.137
2039,0.682,37.038,19.429,32.614,33.218,6.59,7.084,6.016
2040,0.682,37.078,19.363,32.586,33.207,6.509,7.042,5.974
2041,0.675,36.205,19.409,32.605,33.218,6.508,7.082,5.974
2042,0.675,36.35,19.452,32.605,33.221,6.589,7.083,6.015
2043,0.678,36.476,19.398,32.595,33.218,6.549,7.042,5.934
2044,0.669,36.564,19.398,32.605,33.207,6.508,6.96,5.974
2045,0.691,36.44,19.398,32.586,33.218,6.427,7.0,6.055
2046,0.695,36.602,19.464,32.643,33.228,6.548,7.204,6.178
2047,0.701,36.766,19.426,32.653,33.221,6.549,7.125,6.098
2048,0.701,36.768,19.429,32.615,33.221,6.427,7.083,6.097
2049,0.698,36.451,19.406,32.605,33.221,6.385,7.083,6.097
2050,0.695,36.573,19.398,32.614,33.221,6.385,7.042,6.138
2051,0.698,36.708,19.402,32.614,33.228,6.466,7.042,6.057
2052,0.705,36.748,19.421,32.614,33.225,6.386,7.042,6.056
2053,0.692,36.48,19.394,32.586,33.207,6.181,6.879,5.975
2054,0.692,36.612,19.413,32.624,33.221,6.301,6.959,6.015
2055,0.685,36.738,19.406,32.614,33.221,6.262,6.96,6.096
2056,0.682,36.806,19.437,32.595,33.214,6.221,6.838,6.016
2057,0.682,36.433,19.414,32.605,33.214,6.261,6.837,6.056
2058,0.679,36.563,19.394,32.605,33.218,6.18,6.837,6.056
2059,0.672,36.689,19.398,32.614,33.225,6.301,6.837,6.219
2060,0.678,36.595,19.405,32.643,33.225,6.343,6.837,6.18
2061,0.682,36.661,19.386,32.624,33.221,6.221,6.796,6.139
2062,0.675,36.786,19.441,32.634,33.221,6.18,6.836,6.138
2063,0.685,36.883,19.418,32.624,33.221,6.179,6.796,6.219
2064,0.672,36.405,19.41,32.643,33.225,6.098,6.836,6.22
2065,0.695,36.534,19.445,32.634,33.221,6.219,6.714,6.139
2066,0.688,36.631,19.441,32.595,33.207,6.058,6.632,6.057
2067,0.682,36.69,19.422,32.605,33.225,6.097,6.753,6.178
2068,0.688,36.451,19.39,32.614,33.221,6.097,6.673,6.139
2069,0.692,36.602,19.386,32.614,33.214,6.097,6.631,6.138
2070,0.685,36.709,19.433,32.605,33.214,6.056,6.59,6.138
2071,0.685,36.767,19.398,32.595,33.211,6.015,6.671,6.098
2072,0.695,36.375,19.425,32.605,33.225,6.137,6.835,6.138
2073,0.708,36.524,19.445,32.653,33.235,6.26,6.877,6.219
2074,0.711,36.679,19.394,32.663,33.218,6.139,6.796,6.18
2075,0.689,36.671,19.425,32.624,33.221,6.138,6.755,6.22
2076,0.682,36.537,19.425,32.614,33.225,6.138,6.795,6.22
2077,0.692,36.67,19.457,32.624,33.221,6.138,6.877,6.18
2078,0.679,36.777,19.41,32.643,33.218,6.179,6.959,6.22
2079,0.678,36.816,19.413,32.634,33.221,6.139,6.838,6.139
2080,0.672,36.481,19.406,32.586,33.207,6.057,6.837,6.098
2081,0.675,36.64,19.402,32.614,33.221,6.178,6.958,6.097
2082,0.669,36.748,19.417,32.614,33.221,6.098,7.0,6.219
2083,0.678,36.518,19.394,32.624,33.221,6.097,6.96,6.18
2084,0.665,36.516,19.386,32.614,33.211,6.016,6.878,6.098
2085,0.678,36.641,19.409,32.595,33.211,6.056,7.0,6.178
2086,0.685,36.738,19.413,32.624,33.221,6.137,7.001,6.301
2087,0.698,36.365,19.449,32.662,33.232,6.219,7.082,6.221
2088,0.688,36.476,19.39,32.624,33.221,6.139,7.042,6.22
2089,0.695,36.583,19.405,32.624,33.228,6.138,7.042,6.22
2090,0.698,36.689,19.448,32.614,33.228,6.138,7.123,6.22
2091,0.692,36.403,19.406,32.634,33.228,6.179,7.165,6.22
2092,0.695,36.534,19.406,32.643,33.225,6.179,7.124,6.18
2093,0.698,36.651,19.441,32.634,33.214,6.057,7.043,6.098
2094,0.688,36.7,19.328,32.586,33.214,6.137,7.001,6.097
2095,0.682,36.326,19.37,32.624,33.218,6.138,7.041,6.138
2096,0.679,36.485,19.417,32.634,33.221,6.138,7.123,6.138
2097,0.688,36.583,19.464,32.615,33.218,6.098,7.002,6.179
2098,0.679,36.632,19.406,32.605,33.214,6.097,7.082,6.139
2099,0.669,36.46,19.398,32.595,33.214,6.097,7.083,6.179
2100,0.669,36.602,19.437,32.643,33.232,6.178,7.164,6.342
2101,0.682,36.776,19.425,32.672,33.235,6.22,7.206,6.262
2102,0.679,36.758,19.441,32.644,33.214,6.139,7.043,6.302
2103,0.675,36.356,19.418,32.624,33.221,6.179,7.123,6.262
2104,0.672,36.486,19.441,32.634,33.225,6.179,7.124,6.302
2105,0.688,36.602,19.394,32.643,33.232,6.179,7.124,6.302
2106,0.688,36.613,19.417,32.643,33.221,6.139,7.083,6.262
2107,0.688,36.431,19.417,32.615,33.214,6.016,7.002,6.18
2108,0.682,36.525,19.378,32.614,33.211,6.056,6.96,6.301
2109,0.682,36.66,19.409,32.643,33.218,6.056,7.041,6.221
2110,0.688,36.316,19.468,32.624,33.218,6.015,7.001,6.261
2111,0.685,36.418,19.406,32.624,33.214,6.015,6.96,6.18
2112,0.688,36.544,19.406,32.605,33.211,6.096,6.878,6.139
2113,0.692,36.632,19.433,32.624,33.221,6.056,6.959,6.341
2114,0.705,36.249,19.382,32.653,33.235,6.219,7.041,6.343
2115,0.698,36.418,19.394,32.653,33.225,6.139,6.96,6.262
2116,0.692,36.506,19.413,32.634,33.225,6.057,7.041,6.302
2117,0.682,36.593,19.452,32.643,33.225,6.056,6.879,6.262
2118,0.679,36.162,19.414,32.643,33.225,6.056,6.959,6.343
2119,0.675,36.321,19.413,32.653,33.228,6.056,7.122,6.303
2120,0.682,36.457,19.445,32.644,33.221,6.056,6.961,6.221
2121,0.682,36.506,19.402,32.615,33.211,5.975,6.878,6.139
2122,0.662,36.257,19.448,32.634,33.218,6.055,6.959,6.26
2123,0.672,36.427,19.426,32.624,33.218,6.097,7.082,6.221
2124,0.672,36.534,19.343,32.653,33.218,6.016,7.002,6.18
2125,0.688,36.574,19.405,32.644,33.218,5.974,7.001,6.139
2126,0.688,36.172,19.394,32.624,33.211,6.015,7.001,6.138
2127,0.688,36.311,19.402,32.634,33.225,6.015,7.123,6.301
2128,0.714,36.457,19.378,32.682,33.232,6.178,7.246,6.384
2129,0.715,36.496,19.397,32.653,33.225,6.098,7.166,6.141
2130,0.698,36.305,19.476,32.644,33.211,6.097,7.165,6.26
2131,0.701,36.437,19.41,32.653,33.221,5.975,7.206,6.139
2132,0.708,36.535,19.402,32.634,33.225,6.015,7.287,6.219
2133,0.708,36.219,19.445,32.634,33.221,6.015,7.166,6.22
2134,0.715,36.225,19.351,32.643,33.221,6.056,7.084,6.098
2135,0.698,36.341,19.401,32.605,33.207,5.893,7.042,6.056
2136,0.705,36.438,19.433,32.643,33.221,5.973,7.204,6.137
2137,0.721,36.036,19.445,32.643,33.221,5.974,7.247,6.179
2138,0.718,36.166,19.394,32.643,33.218,5.974,7.125,6.057
2139,0.734,36.302,19.409,32.624,33.207,5.974,7.165,6.056
2140,0.741,36.38,19.413,32.624,33.218,5.893,7.165,6.137
2141,0.751,36.131,19.425,32.662,33.232,6.095,7.409,6.26
2142,0.764,36.282,19.457,32.672,33.221,5.975,7.249,6.139
2143,0.757,36.37,19.43,32.653,33.221,5.933,7.288,6.179
2144,0.767,36.448,19.414,32.663,33.225,5.892,7.247,6.179
2145,0.79,35.988,19.398,32.634,33.228,5.973,7.206,6.179
2146,0.8,36.137,19.445,32.653,33.225,5.852,7.247,6.179
2147,0.807,36.234,19.402,32.663,33.218,5.932,7.288,6.139
2148,0.81,36.283,19.409,32.653,33.214,5.852,7.085,6.016
