time,ecg,bvp,gsr,rsp,skt,emg_zygo,emg_coru,emg_trap
0,0.892,37.212,19.847,29.875,24.173,6.139,7.123,5.685
1,0.882,37.127,19.867,29.856,24.162,6.138,6.961,5.483
2,0.908,36.973,19.836,29.846,24.162,6.098,6.96,5.603
3,0.918,37.125,19.831,29.856,24.162,6.178,7.041,5.645
4,0.899,37.232,19.878,29.837,24.166,6.139,6.96,5.645
5,0.915,37.032,19.84,29.865,24.166,6.219,7.041,5.645
6,0.922,37.077,19.851,29.846,24.166,6.139,7.042,5.564
7,0.915,37.231,19.847,29.837,24.166,6.057,7.001,5.523
8,0.925,37.329,19.91,29.836,24.169,6.137,7.001,5.603
9,0.925,37.071,19.836,29.846,24.166,6.138,7.001,5.604
10,0.915,37.193,19.788,29.875,24.169,6.098,7.082,5.604
11,0.905,37.29,19.8,29.827,24.159,6.097,7.002,5.564
12,0.905,37.396,19.851,29.836,24.169,6.097,7.001,5.523
13,0.908,37.024,19.859,29.865,24.18,6.26,7.123,5.644
14,0.889,37.144,19.843,29.837,24.169,6.099,7.043,5.605
15,0.902,37.251,19.867,29.846,24.166,6.178,7.082,5.645
16,0.886,37.3,19.882,29.837,24.162,6.098,6.961,5.564
17,0.882,36.917,19.836,29.894,24.169,6.138,7.0,5.604
18,0.882,37.067,19.843,29.875,24.18,6.301,7.123,5.686
19,0.889,37.145,19.867,29.837,24.166,6.058,6.961,5.605
20,0.892,37.203,19.906,29.846,24.169,6.056,6.96,5.564
21,0.889,36.926,19.875,29.827,24.162,6.056,6.919,5.563
22,0.895,37.096,19.855,29.855,24.173,6.097,6.959,5.604
23,0.899,37.212,19.839,29.856,24.183,6.219,7.122,5.726
24,0.886,37.223,19.835,29.808,24.163,6.098,7.002,5.565
25,0.885,36.974,19.851,29.836,24.176,6.097,7.041,5.685
26,0.879,37.106,19.855,29.817,24.162,6.056,6.92,5.524
27,0.879,37.232,19.914,29.846,24.166,6.056,7.0,5.563
28,0.898,37.281,19.832,29.865,24.18,6.178,7.123,5.685
29,0.889,37.013,19.835,29.837,24.169,6.057,6.921,5.605
30,0.863,37.144,19.824,29.846,24.173,6.056,7.0,5.564
31,0.853,37.232,19.855,29.808,24.159,6.015,6.919,5.563
32,0.849,37.147,19.878,29.836,24.176,6.096,6.959,5.604
33,0.849,37.079,19.886,29.846,24.18,6.178,7.122,5.726
34,0.843,37.164,19.84,29.817,24.166,6.017,6.921,5.565
35,0.839,37.251,19.902,29.817,24.162,6.137,6.959,5.604
36,0.826,36.945,19.844,29.836,24.166,6.016,6.878,5.482
37,0.833,36.99,19.851,29.846,24.173,6.096,7.0,5.644
38,0.833,37.135,19.878,29.846,24.18,6.138,7.001,5.686
39,0.82,37.165,19.898,29.808,24.159,6.016,6.879,5.564
40,0.836,36.916,19.855,29.826,24.162,6.096,6.959,5.604
41,0.836,37.009,19.773,29.808,24.166,6.097,6.878,5.523
42,0.839,37.154,19.846,29.836,24.166,6.056,6.959,5.563
43,0.849,37.222,19.906,29.836,24.176,6.137,6.96,5.645
44,0.836,36.888,19.852,29.788,24.159,5.976,6.838,5.483
45,0.852,37.047,19.839,29.826,24.162,6.055,6.958,5.603
46,0.849,37.135,19.894,29.817,24.169,6.056,6.878,5.482
47,0.856,37.251,19.82,29.827,24.176,6.056,6.918,5.603
48,0.843,36.897,19.82,29.798,24.166,6.015,7.0,5.523
49,0.823,37.019,19.816,29.778,24.162,5.974,6.797,5.4
50,0.839,37.154,19.89,29.826,24.173,6.096,6.958,5.562
51,0.843,37.194,19.93,29.817,24.162,5.975,6.878,5.523
52,0.833,37.002,19.844,29.817,24.173,6.096,6.959,5.603
53,0.826,37.135,19.828,29.807,24.166,6.016,6.919,5.523
54,0.817,37.232,19.866,29.798,24.162,5.893,6.837,5.441
55,0.82,37.319,19.8,29.817,24.162,6.014,6.958,5.562
56,0.826,36.86,19.835,29.817,24.162,6.015,6.96,5.563
57,0.826,36.999,19.863,29.807,24.169,6.056,6.96,5.604
58,0.813,37.096,19.894,29.807,24.169,5.934,6.919,5.564
59,0.82,37.097,19.844,29.798,24.166,5.933,6.919,5.482
60,0.843,37.03,19.812,29.846,24.169,6.014,6.959,5.603
61,0.826,37.164,19.831,29.798,24.166,6.015,6.96,5.564
62,0.836,37.271,19.847,29.817,24.166,6.015,7.0,5.563
63,0.826,37.061,19.867,29.788,24.162,5.974,6.879,5.482
64,0.843,36.972,19.859,29.798,24.169,6.015,6.959,5.562
65,0.862,37.154,19.875,29.846,24.176,6.056,7.0,5.604
66,0.862,37.203,19.855,29.789,24.162,6.056,7.001,5.523
67,0.843,36.964,19.836,29.807,24.169,6.097,6.96,5.563
68,0.849,37.048,19.808,29.788,24.159,5.975,6.878,5.482
69,0.856,37.174,19.858,29.798,24.176,6.055,7.0,5.562
70,0.859,37.299,19.933,29.826,24.18,6.137,7.041,5.645
71,0.84,37.79,19.918,29.788,24.162,6.098,6.96,5.523
72,0.846,37.948,19.902,29.845,24.169,6.097,6.96,5.522
73,0.83,38.036,19.828,29.769,24.166,5.975,7.0,5.441
74,0.833,38.123,19.894,29.778,24.166,6.137,7.082,5.562
75,0.852,36.177,19.859,29.817,24.18,6.219,7.123,5.726
76,0.836,36.273,19.82,29.779,24.169,6.017,6.961,5.565
77,0.833,36.399,19.874,29.788,24.173,6.096,6.96,5.563
78,0.83,36.467,19.851,29.778,24.166,6.056,7.0,5.523
79,0.852,37.014,19.773,29.797,24.18,6.097,7.041,5.603
80,0.843,37.164,19.823,29.798,24.183,6.138,7.123,5.726
81,0.83,37.261,19.82,29.778,24.163,6.016,7.002,5.565
82,0.852,37.31,19.89,29.778,24.159,6.137,7.001,5.645
83,0.843,36.908,19.859,29.797,24.162,6.098,6.919,5.564
84,0.859,37.038,19.859,29.807,24.173,6.138,7.081,5.604
85,0.866,37.145,19.906,29.788,24.173,6.138,7.083,5.604
86,0.849,37.146,19.793,29.75,24.159,5.976,6.961,5.482
87,0.869,36.906,19.815,29.778,24.166,6.015,6.96,5.522
88,0.869,37.028,19.839,29.759,24.166,6.015,6.878,5.522
89,0.859,37.154,19.906,29.778,24.162,6.096,7.04,5.522
90,0.859,37.155,19.883,29.769,24.166,6.056,7.001,5.522
91,0.859,36.839,19.828,29.749,24.162,6.015,6.797,5.4
92,0.853,36.98,19.82,29.768,24.169,6.056,6.917,5.521
93,0.84,37.058,19.874,29.759,24.166,6.015,6.919,5.522
94,0.836,37.068,19.765,29.778,24.169,6.137,6.837,5.563
95,0.833,37.049,19.827,29.759,24.169,6.057,6.877,5.482
96,0.836,37.174,19.859,29.749,24.159,6.015,6.796,5.44
97,0.849,37.29,19.875,29.788,24.155,6.096,6.999,5.562
98,0.849,36.879,19.863,29.807,24.152,6.097,6.879,5.523
99,0.853,36.951,19.843,29.788,24.166,6.097,6.918,5.603
100,0.853,37.048,19.859,29.74,24.159,6.056,6.878,5.482
101,0.866,37.135,19.867,29.749,24.162,6.015,6.837,5.481
102,0.876,36.896,19.875,29.759,24.169,6.137,6.958,5.522
103,0.876,37.028,19.843,29.749,24.162,6.138,6.919,5.563
104,0.879,37.145,19.902,29.759,24.166,6.219,7.041,5.563
105,0.872,37.203,19.828,29.749,24.159,6.058,6.96,5.482
106,0.869,36.763,19.843,29.74,24.166,6.056,6.96,5.44
107,0.898,36.912,19.859,29.759,24.166,6.219,7.0,5.562
108,0.886,37.038,19.91,29.749,24.166,6.098,7.041,5.523
109,0.879,37.106,19.852,29.768,24.169,6.138,7.123,5.603
110,0.859,37.011,19.777,29.74,24.166,6.098,6.961,5.442
111,0.872,37.183,19.823,29.759,24.162,6.097,7.0,5.562
112,0.879,37.309,19.882,29.769,24.18,6.219,7.082,5.563
113,0.869,37.33,19.863,29.721,24.166,6.18,7.083,5.482
114,0.866,36.908,19.839,29.749,24.173,6.057,7.123,5.562
115,0.856,37.019,19.882,29.72,24.159,6.056,7.043,5.523
116,0.866,37.144,19.89,29.749,24.169,6.137,7.123,5.644
117,0.872,37.232,19.867,29.788,24.18,6.179,7.246,5.727
118,0.843,37.166,19.843,29.74,24.169,6.057,7.084,5.565
119,0.856,37.28,19.882,29.74,24.166,6.056,7.123,5.645
120,0.869,37.377,19.875,29.72,24.159,6.015,7.124,5.523
121,0.872,37.723,19.871,29.759,24.162,6.137,7.124,5.563
122,0.892,36.941,19.863,29.769,24.18,6.26,7.287,5.685
123,0.882,37.029,19.851,29.74,24.159,6.058,7.085,5.564
124,0.885,37.145,19.843,29.74,24.169,6.097,7.164,5.645
125,0.879,37.021,19.847,29.72,24.162,5.975,7.124,5.523
126,0.892,37.068,19.859,29.73,24.173,6.096,7.165,5.563
127,0.905,37.222,19.918,29.768,24.18,6.178,7.328,5.645
128,0.895,37.281,19.821,29.73,24.169,6.057,7.289,5.523
129,0.889,36.879,19.859,29.749,24.169,6.097,7.247,5.563
130,0.869,36.913,19.836,29.72,24.162,5.975,7.125,5.482
131,0.876,37.067,19.87,29.73,24.169,6.096,7.165,5.562
132,0.892,37.164,19.89,29.759,24.18,6.219,7.409,5.726
133,0.869,36.839,19.84,29.73,24.173,6.058,7.167,5.605
134,0.856,36.941,19.851,29.73,24.173,6.015,7.206,5.564
135,0.866,37.048,19.878,29.692,24.169,6.015,7.165,5.563
136,0.853,37.145,19.859,29.758,24.166,6.056,7.246,5.685
137,0.862,36.877,19.851,29.769,24.173,6.137,7.288,5.768
138,0.853,36.98,19.886,29.721,24.166,6.016,7.166,5.565
139,0.853,37.115,19.898,29.739,24.169,6.137,7.206,5.645
140,0.859,37.165,19.863,29.72,24.169,6.016,7.125,5.564
141,0.869,36.906,19.804,29.739,24.166,6.056,7.165,5.563
142,0.872,37.057,19.831,29.749,24.173,6.137,7.206,5.685
143,0.866,37.135,19.874,29.701,24.169,6.098,7.165,5.564
144,0.885,37.203,19.875,29.787,24.169,6.178,7.165,5.604
145,0.885,36.859,19.832,29.702,24.166,6.057,7.124,5.645
146,0.876,37.018,19.913,29.739,24.169,6.097,7.205,5.605
147,0.889,37.116,19.848,29.73,24.176,6.138,7.247,5.686
148,0.879,37.117,19.824,29.682,24.162,6.057,7.166,5.483
149,0.872,37.721,19.823,29.72,24.169,6.097,7.124,5.644
150,0.866,37.804,19.89,29.701,24.166,6.056,7.124,5.564
151,0.879,37.919,19.926,29.72,24.173,6.056,7.124,5.645
152,0.863,38.016,19.879,29.72,24.169,6.137,7.205,5.645
153,0.849,36.454,19.855,29.692,24.162,5.976,7.043,5.483
154,0.849,36.611,19.894,29.701,24.173,6.055,7.082,5.562
155,0.843,36.709,19.848,29.691,24.166,6.137,7.042,5.604
156,0.839,36.94,19.859,29.71,24.173,6.138,7.164,5.645
157,0.839,37.077,19.847,29.73,24.169,6.098,7.206,5.645
158,0.836,37.135,19.89,29.682,24.155,5.935,6.921,5.442
159,0.839,37.28,19.855,29.72,24.173,6.136,7.122,5.603
160,0.846,36.831,19.812,29.701,24.166,6.098,7.043,5.564
161,0.856,36.941,19.835,29.701,24.173,6.097,7.123,5.563
162,0.853,37.057,19.843,29.701,24.166,6.097,7.124,5.523
163,0.856,37.106,19.894,29.663,24.155,5.894,6.88,5.441
164,0.859,36.791,19.887,29.72,24.173,6.095,7.121,5.643
165,0.869,36.893,19.859,29.711,24.166,6.097,7.043,5.605
166,0.866,37.038,19.906,29.711,24.173,6.138,7.123,5.564
167,0.862,37.097,19.75,29.701,24.169,6.098,7.002,5.523
168,0.853,36.762,19.823,29.682,24.162,6.016,7.041,5.482
169,0.856,36.912,19.839,29.72,24.166,6.056,7.082,5.522
170,0.853,37.038,19.902,29.711,24.169,6.097,7.083,5.563
171,0.856,37.097,19.914,29.711,24.173,6.138,7.083,5.604
172,0.846,36.771,19.793,29.672,24.162,5.976,7.042,5.523
173,0.84,36.902,19.854,29.701,24.166,6.015,7.082,5.563
174,0.839,37.057,19.933,29.72,24.18,6.137,7.083,5.563
175,0.83,37.078,19.868,29.711,24.176,6.057,7.083,5.523
176,0.833,36.8,19.855,29.711,24.169,6.097,7.083,5.603
177,0.817,36.912,19.914,29.682,24.166,5.975,7.083,5.482
178,0.82,37.057,19.891,29.701,24.169,6.137,7.123,5.562
179,0.843,37.116,19.82,29.73,24.183,6.098,7.246,5.685
180,0.836,36.954,19.831,29.701,24.166,6.056,7.084,5.524
181,0.839,37.096,19.827,29.701,24.169,6.178,7.083,5.563
182,0.843,37.184,19.863,29.691,24.162,6.017,7.002,5.563
183,0.839,37.405,19.804,29.701,24.173,6.137,7.123,5.604
184,0.859,37.187,19.858,29.739,24.183,6.179,7.205,5.726
185,0.843,37.28,19.906,29.692,24.166,6.098,7.125,5.524
186,0.862,37.406,19.844,29.691,24.166,6.138,7.083,5.522
187,0.846,36.822,19.847,29.662,24.166,6.098,7.002,5.522
188,0.853,36.788,19.863,29.691,24.176,6.138,7.082,5.563
189,0.853,36.922,19.914,29.72,24.183,6.219,7.205,5.766
190,0.836,36.99,19.891,29.692,24.169,6.098,7.125,5.565
191,0.823,36.847,19.809,29.682,24.169,6.056,7.083,5.604
192,0.826,36.922,19.823,29.681,24.162,5.975,7.083,5.523
193,0.82,37.057,19.89,29.701,24.169,6.096,7.164,5.603
194,0.833,37.145,19.824,29.71,24.176,6.138,7.206,5.686
195,0.813,36.724,19.851,29.682,24.162,6.016,7.084,5.564
196,0.813,36.873,19.898,29.672,24.176,6.056,7.164,5.563
197,0.794,36.999,19.875,29.681,24.162,6.056,7.043,5.604
198,0.813,37.077,19.851,29.72,24.169,6.056,7.164,5.645
199,0.81,36.829,19.847,29.701,24.173,6.056,7.124,5.645
200,0.8,36.951,19.863,29.663,24.166,5.975,7.124,5.523
201,0.826,37.096,19.89,29.681,24.169,6.055,7.083,5.563
202,0.823,37.136,19.883,29.681,24.169,6.056,7.123,5.563
203,0.826,36.839,19.863,29.71,24.176,6.097,7.165,5.685
204,0.826,36.97,19.89,29.691,24.183,6.138,7.287,5.687
205,0.817,37.048,19.844,29.662,24.163,5.935,7.085,5.524
206,0.823,37.126,19.863,29.672,24.173,6.055,7.083,5.522
207,0.813,36.982,19.863,29.662,24.166,6.015,7.042,5.563
208,0.839,37.125,19.906,29.672,24.173,6.015,7.204,5.604
209,0.826,37.241,19.863,29.681,24.176,6.056,7.084,5.564
210,0.804,37.233,19.785,29.662,24.156,5.975,7.123,5.441
211,0.813,36.888,19.831,29.681,24.169,5.974,7.165,5.603
212,0.81,37.018,19.855,29.662,24.162,6.015,7.165,5.564
213,0.807,37.106,19.894,29.681,24.173,6.096,7.206,5.645
214,0.81,37.184,19.855,29.672,24.166,6.056,7.165,5.605
215,0.8,36.983,19.855,29.643,24.152,5.975,7.002,5.401
216,0.794,37.134,19.882,29.681,24.173,6.055,7.204,5.602
217,0.797,37.261,19.769,29.681,24.169,6.056,7.165,5.523
218,0.803,36.974,19.835,29.681,24.173,6.015,7.165,5.644
219,0.781,36.991,19.886,29.653,24.162,5.974,7.124,5.605
220,0.793,37.106,19.922,29.643,24.162,5.974,7.083,5.482
221,0.813,37.212,19.938,29.681,24.169,6.055,7.164,5.603
222,0.8,36.84,19.848,29.662,24.176,6.015,7.124,5.564
223,0.816,36.96,19.847,29.662,24.176,6.137,7.287,5.645
224,0.813,37.048,19.867,29.653,24.162,6.098,7.166,5.605
225,0.81,37.154,19.843,29.652,24.166,5.975,7.124,5.523
226,0.813,36.877,19.859,29.662,24.162,6.055,7.287,5.644
227,0.826,36.99,19.918,29.662,24.166,6.137,7.288,5.605
228,0.826,37.115,19.856,29.662,24.173,6.098,7.288,5.604
229,0.81,37.184,19.855,29.71,24.162,6.016,7.125,5.523
230,0.807,36.839,19.843,29.643,24.162,5.974,7.205,5.522
231,0.816,36.98,19.867,29.662,24.166,6.096,7.247,5.644
232,0.807,37.086,19.906,29.633,24.166,6.056,7.166,5.645
233,0.803,37.193,19.859,29.691,24.166,6.056,7.206,5.645
234,0.79,36.811,19.851,29.624,24.155,6.056,7.165,5.605
235,0.79,36.951,19.89,29.643,24.162,6.015,7.165,5.564
236,0.806,37.096,19.82,29.672,24.169,6.096,7.124,5.726
237,0.794,37.116,19.843,29.662,24.169,5.975,7.165,5.565
238,0.777,36.906,19.882,29.662,24.173,6.055,7.206,5.645
239,0.784,37.019,19.933,29.643,24.159,6.015,7.043,5.564
240,0.79,37.135,19.891,29.652,24.162,6.015,7.164,5.563
241,0.8,37.184,19.816,29.662,24.166,6.096,7.124,5.645
242,0.8,36.954,19.819,29.643,24.169,6.097,7.043,5.645
243,0.8,37.096,19.905,29.662,24.166,6.138,7.082,5.727
244,0.813,37.184,19.875,29.672,24.166,6.016,6.92,5.565
245,0.807,37.137,19.843,29.643,24.159,6.056,7.0,5.604
246,0.826,36.992,19.913,29.662,24.176,6.097,7.001,5.686
247,0.826,37.096,19.852,29.643,24.162,6.056,6.96,5.605
248,0.817,37.203,19.843,29.633,24.169,6.056,7.0,5.686
249,0.82,36.955,19.835,29.624,24.162,6.056,6.838,5.605
250,0.82,37.029,19.89,29.643,24.173,6.097,6.918,5.645
251,0.82,37.192,19.945,29.672,24.18,6.178,6.959,5.727
252,0.8,37.233,19.879,29.624,24.169,6.057,6.838,5.646
253,0.794,36.897,19.883,29.652,24.166,6.137,6.958,5.686
254,0.79,36.961,19.898,29.624,24.155,6.016,6.756,5.564
255,0.793,37.115,19.855,29.643,24.169,6.137,6.836,5.685
256,0.79,37.222,19.878,29.662,24.169,6.219,6.999,5.727
257,0.78,36.83,19.867,29.605,24.159,6.058,6.797,5.687
258,0.787,36.941,19.902,29.642,24.166,6.137,6.795,5.687
259,0.784,37.057,19.867,29.604,24.159,6.016,6.795,5.646
260,0.78,37.145,19.804,29.642,24.169,6.137,6.795,5.767
261,0.803,36.916,19.835,29.652,24.173,6.301,6.958,5.728
262,0.8,37.009,19.843,29.643,24.159,6.14,6.797,5.727
263,0.816,37.125,19.882,29.633,24.169,6.219,6.877,5.727
264,0.797,37.165,19.879,29.624,24.162,6.18,6.755,5.646
265,0.8,37.194,19.875,29.643,24.169,6.22,6.876,5.686
266,0.803,37.357,19.914,29.662,24.19,6.261,7.04,5.768
267,0.8,37.445,19.867,29.633,24.166,6.18,6.839,5.647
268,0.816,37.475,19.836,29.624,24.166,6.22,6.877,5.605
269,0.803,36.804,19.882,29.614,24.162,6.098,6.877,5.645
270,0.803,36.95,19.89,29.633,24.18,6.219,7.04,5.767
271,0.8,37.086,19.906,29.643,24.176,6.22,7.123,5.768
272,0.777,37.059,19.875,29.662,24.166,6.139,6.961,5.647
273,0.78,38.075,19.851,29.605,24.176,6.219,7.082,5.727
274,0.78,38.172,19.906,29.604,24.169,6.098,7.002,5.646
275,0.777,38.297,19.891,29.642,24.18,6.219,7.163,5.727
276,0.78,37.157,19.859,29.652,24.176,6.261,7.246,5.727
277,0.774,36.283,19.91,29.614,24.166,6.18,7.206,5.605
278,0.774,36.447,19.875,29.604,24.169,6.179,7.165,5.686
279,0.771,36.554,19.781,29.614,24.166,6.179,7.206,5.564
280,0.79,36.986,19.843,29.642,24.173,6.261,7.328,5.645
281,0.793,37.135,19.831,29.643,24.176,6.262,7.37,5.727
282,0.787,37.232,19.882,29.604,24.166,6.18,7.248,5.687
283,0.79,37.338,19.851,29.623,24.162,6.179,7.328,5.646
284,0.79,36.697,19.851,29.604,24.166,6.139,7.248,5.686
285,0.8,36.825,19.914,29.623,24.173,6.219,7.369,5.727
286,0.8,36.941,19.805,29.623,24.173,6.22,7.33,5.646
287,0.787,36.99,19.843,29.585,24.162,6.139,7.207,5.564
288,0.81,36.952,19.906,29.613,24.169,6.219,7.247,5.685
289,0.794,37.077,19.93,29.604,24.169,6.139,7.288,5.646
290,0.793,37.222,19.91,29.633,24.176,6.179,7.41,5.727
291,0.784,37.252,19.848,29.624,24.169,6.139,7.33,5.687
292,0.78,36.792,19.835,29.576,24.155,6.098,7.167,5.524
293,0.777,36.95,19.878,29.594,24.166,6.219,7.287,5.563
294,0.777,37.057,19.836,29.604,24.166,6.139,7.247,5.563
295,0.777,37.135,19.843,29.604,24.176,6.26,7.288,5.645
296,0.79,36.896,19.913,29.595,24.166,6.18,7.207,5.645
297,0.761,37.019,19.863,29.575,24.159,6.057,7.125,5.564
298,0.764,37.173,19.863,29.613,24.166,6.259,7.287,5.685
299,0.774,37.194,19.851,29.595,24.166,6.139,7.207,5.605
300,0.79,36.945,19.89,29.594,24.169,6.179,7.287,5.686
301,0.777,37.029,19.922,29.585,24.166,6.139,7.166,5.524
302,0.787,37.116,19.867,29.566,24.162,6.098,7.124,5.522
303,0.79,37.174,19.879,29.604,24.169,6.178,7.246,5.644
304,0.787,36.801,19.886,29.604,24.166,6.139,7.288,5.686
305,0.8,36.941,19.828,29.604,24.169,6.219,7.288,5.646
306,0.794,37.029,19.855,29.575,24.162,6.098,7.166,5.605
307,0.793,36.876,19.882,29.585,24.162,6.097,7.124,5.523
308,0.803,36.827,19.902,29.604,24.173,6.219,7.287,5.603
309,0.797,36.932,19.844,29.595,24.166,6.139,7.288,5.604
310,0.781,37.048,19.769,29.614,24.169,6.179,7.288,5.604
311,0.777,36.819,19.835,29.575,24.162,6.098,7.207,5.564
312,0.787,36.893,19.859,29.604,24.173,6.138,7.247,5.645
313,0.784,37.047,19.91,29.623,24.18,6.301,7.328,5.645
314,0.767,37.126,19.895,29.595,24.169,6.099,7.329,5.605
315,0.783,36.695,19.887,29.594,24.173,6.178,7.451,5.726
316,0.767,36.796,19.879,29.575,24.169,6.098,7.33,5.605
317,0.761,36.941,19.851,29.585,24.173,6.178,7.329,5.645
318,0.783,37.048,19.851,29.642,24.18,6.261,7.654,5.727
319,0.774,37.01,19.89,29.595,24.169,6.139,7.455,5.605
320,0.774,37.144,19.941,29.604,24.166,6.219,7.493,5.645
321,0.771,37.251,19.891,29.585,24.169,6.139,7.494,5.564
322,0.777,37.348,19.863,29.613,24.176,6.179,7.534,5.685
323,0.793,36.793,19.89,29.642,24.187,6.301,7.779,5.809
324,0.784,36.893,19.867,29.604,24.17,6.221,7.618,5.688
325,0.787,37.028,19.855,29.604,24.166,6.18,7.698,5.646
326,0.777,37.058,19.875,29.575,24.169,6.179,7.536,5.564
327,0.797,36.876,19.922,29.585,24.173,6.261,7.657,5.645
328,0.807,37.028,19.844,29.623,24.18,6.343,7.78,5.727
329,0.794,37.125,19.843,29.585,24.169,6.221,7.659,5.565
330,0.78,37.155,19.859,29.594,24.176,6.302,7.698,5.563
331,0.777,36.839,19.886,29.585,24.162,6.18,7.699,5.604
332,0.787,36.98,19.941,29.623,24.166,6.261,7.78,5.645
333,0.78,37.125,19.93,29.614,24.183,6.384,7.822,5.686
334,0.771,37.098,19.891,29.566,24.163,6.263,7.7,5.646
335,0.757,36.8,19.918,29.585,24.169,6.262,7.74,5.645
336,0.751,36.912,19.867,29.613,24.169,6.18,7.659,5.564
337,0.767,37.038,19.875,29.604,24.176,6.301,7.78,5.645
338,0.767,36.943,19.902,29.595,24.176,6.343,7.781,5.686
339,0.748,36.904,19.906,29.556,24.166,6.181,7.618,5.524
340,0.767,37.057,19.887,29.584,24.169,6.22,7.657,5.644
341,0.767,37.145,19.801,29.575,24.166,6.22,7.617,5.564
342,0.774,36.8,19.843,29.585,24.18,6.342,7.657,5.685
343,0.774,36.835,19.921,29.575,24.166,6.221,7.617,5.646
344,0.777,36.97,19.875,29.556,24.159,6.22,7.495,5.483
345,0.787,37.086,19.871,29.584,24.166,6.261,7.616,5.644
346,0.784,36.857,19.906,29.585,24.169,6.262,7.535,5.523
347,0.803,36.999,19.832,29.585,24.166,6.262,7.616,5.644
348,0.774,37.125,19.859,29.575,24.166,6.262,7.576,5.483
349,0.774,37.184,19.839,29.565,24.162,6.18,7.372,5.481
350,0.787,36.772,19.894,29.575,24.162,6.261,7.614,5.603
351,0.784,36.893,19.918,29.565,24.166,6.221,7.495,5.564
352,0.78,37.038,19.899,29.585,24.176,6.302,7.575,5.604
353,0.764,37.097,19.855,29.566,24.166,6.14,7.372,5.523
354,0.757,36.771,19.917,29.556,24.166,6.219,7.37,5.482
355,0.783,36.931,19.836,29.575,24.173,6.22,7.452,5.522
356,0.777,37.057,19.847,29.575,24.176,6.22,7.452,5.603
357,0.771,37.097,19.89,29.575,24.176,6.302,7.574,5.604
358,0.757,36.656,19.926,29.556,24.162,6.18,7.372,5.564
359,0.764,36.824,19.895,29.575,24.155,6.22,7.37,5.482
360,0.783,36.97,19.797,29.594,24.176,6.342,7.492,5.603
361,0.774,36.971,19.827,29.575,24.166,6.221,7.453,5.564
362,0.787,36.847,19.866,29.575,24.162,6.22,7.412,5.523
363,0.78,36.961,19.855,29.556,24.159,6.22,7.289,5.522
364,0.793,37.077,19.855,29.565,24.159,6.302,7.491,5.563
365,0.813,37.471,19.921,29.604,24.173,6.465,7.534,5.685
366,0.794,36.708,19.895,29.547,24.169,6.264,7.372,5.524
367,0.797,36.863,19.879,29.565,24.169,6.221,7.492,5.522
368,0.794,36.942,19.863,29.556,24.159,6.18,7.29,5.522
369,0.803,36.798,19.941,29.565,24.166,6.22,7.369,5.603
370,0.79,36.816,19.93,29.585,24.169,6.383,7.492,5.767
371,0.774,36.893,19.864,29.556,24.155,6.181,7.412,5.565
372,0.78,37.019,19.847,29.575,24.169,6.261,7.371,5.604
373,0.761,36.694,19.859,29.546,24.155,6.139,7.289,5.604
374,0.774,36.806,19.894,29.584,24.166,6.219,7.369,5.645
375,0.78,36.941,19.883,29.585,24.176,6.22,7.411,5.645
376,0.758,37.0,19.859,29.556,24.162,6.139,7.289,5.523
377,0.761,36.876,19.925,29.565,24.166,6.138,7.329,5.563
378,0.764,37.018,19.867,29.565,24.162,6.138,7.289,5.523
379,0.764,37.164,19.875,29.575,24.162,6.138,7.369,5.644
380,0.77,37.232,19.871,29.565,24.162,6.301,7.33,5.564
381,0.774,36.61,19.863,29.537,24.155,6.058,7.207,5.563
382,0.784,36.776,19.933,29.565,24.169,6.219,7.287,5.645
383,0.78,36.883,19.887,29.556,24.173,6.139,7.288,5.605
384,0.793,36.98,19.863,29.575,24.169,6.219,7.288,5.686
385,0.78,36.77,19.921,29.546,24.169,6.22,7.288,5.605
386,0.774,36.912,19.844,29.536,24.159,6.058,7.044,5.442
387,0.806,37.047,19.863,29.556,24.176,6.178,7.286,5.562
388,0.807,37.078,19.898,29.527,24.169,6.179,7.247,5.523
389,0.787,36.723,19.937,29.555,24.169,6.179,7.206,5.644
390,0.774,36.825,19.871,29.546,24.162,6.139,7.206,5.564
391,0.774,36.941,19.781,29.527,24.162,6.057,7.125,5.563
392,0.78,37.019,19.866,29.546,24.166,6.178,7.287,5.604
393,0.784,36.751,19.941,29.536,24.173,6.261,7.207,5.564
394,0.774,36.902,19.895,29.565,24.173,6.221,7.287,5.645
395,0.761,36.99,19.867,29.517,24.162,6.139,7.247,5.523
396,0.751,37.259,19.921,29.546,24.166,6.138,7.247,5.563
397,0.77,36.725,19.848,29.556,24.169,6.219,7.288,5.645
398,0.761,36.844,19.851,29.556,24.166,6.18,7.369,5.605
399,0.764,36.922,19.878,29.546,24.169,6.22,7.33,5.645
400,0.774,36.712,19.902,29.546,24.162,6.18,7.329,5.564
401,0.777,36.719,19.961,29.546,24.162,6.139,7.289,5.604
402,0.784,36.883,19.856,29.556,24.176,6.219,7.369,5.645
403,0.78,36.942,19.886,29.546,24.173,6.22,7.289,5.645
404,0.787,36.703,19.926,29.556,24.173,6.302,7.329,5.686
405,0.777,36.777,19.871,29.604,24.162,6.18,7.248,5.605
406,0.803,36.921,19.851,29.537,24.162,6.139,7.288,5.564
407,0.81,37.019,19.914,29.556,24.162,6.26,7.369,5.563
408,0.797,36.694,19.906,29.537,24.173,6.18,7.208,5.645
409,0.794,36.815,19.844,29.546,24.173,6.261,7.287,5.686
410,0.787,36.922,19.847,29.546,24.162,6.221,7.166,5.605
411,0.784,37.009,19.871,29.565,24.166,6.22,7.206,5.604
412,0.79,36.751,19.945,29.585,24.183,6.342,7.328,5.726
413,0.777,36.883,19.856,29.546,24.173,6.221,7.126,5.605
414,0.764,36.999,19.878,29.546,24.173,6.261,7.165,5.645
415,0.77,37.029,19.906,29.546,24.162,6.139,7.043,5.523
416,0.767,36.742,19.871,29.556,24.169,6.179,7.204,5.644
417,0.774,36.902,19.89,29.584,24.176,6.423,7.328,5.767
418,0.771,36.98,19.879,29.546,24.166,6.263,7.126,5.647
419,0.783,37.039,19.898,29.536,24.166,6.262,7.165,5.686
420,0.787,36.694,19.894,29.536,24.166,6.139,7.043,5.605
421,0.774,36.853,19.871,29.556,24.169,6.219,7.204,5.645
422,0.787,36.98,19.882,29.556,24.18,6.383,7.287,5.767
423,0.777,36.981,19.883,29.527,24.173,6.222,7.166,5.687
424,0.774,36.78,19.844,29.565,24.169,6.302,7.206,5.687
425,0.787,36.921,19.863,29.537,24.162,6.221,7.125,5.605
426,0.806,37.028,19.91,29.536,24.173,6.261,7.205,5.645
427,0.807,37.135,19.918,29.556,24.176,6.343,7.287,5.767
428,0.79,36.743,19.844,29.527,24.162,6.181,7.166,5.606
429,0.8,36.883,19.863,29.546,24.169,6.179,7.206,5.645
430,0.787,36.961,19.863,29.527,24.166,6.22,7.206,5.605
431,0.777,36.77,19.925,29.536,24.169,6.342,7.206,5.686
432,0.79,36.739,19.922,29.536,24.176,6.221,7.287,5.687
433,0.774,36.854,19.899,29.488,24.159,6.058,7.166,5.564
434,0.777,36.98,19.887,29.517,24.166,6.219,7.287,5.645
435,0.761,37.719,19.894,29.527,24.166,6.139,7.207,5.605
436,0.764,37.871,19.879,29.565,24.169,6.219,7.369,5.767
437,0.761,37.978,19.875,29.527,24.169,6.261,7.37,5.687
438,0.767,38.027,19.91,29.488,24.159,6.139,7.208,5.524
439,0.774,35.994,19.941,29.536,24.169,6.26,7.328,5.685
440,0.764,36.089,19.868,29.527,24.166,6.221,7.289,5.605
441,0.783,36.243,19.828,29.555,24.169,6.22,7.329,5.686
442,0.79,36.302,19.843,29.517,24.162,6.22,7.289,5.605
443,0.826,36.869,19.91,29.517,24.162,6.22,7.288,5.523
444,0.833,37.038,19.906,29.555,24.169,6.261,7.369,5.685
445,0.839,37.135,19.875,29.508,24.166,6.221,7.33,5.564
446,0.82,37.194,19.937,29.526,24.162,6.18,7.37,5.645
447,0.843,36.504,19.844,29.527,24.166,6.22,7.248,5.564
448,0.866,36.66,19.863,29.536,24.166,6.261,7.288,5.604
449,0.869,36.824,19.875,29.556,24.176,6.302,7.41,5.686
450,0.853,36.836,19.937,29.527,24.18,6.302,7.371,5.564
451,0.862,36.673,19.95,29.536,24.169,6.262,7.33,5.685
452,0.859,36.815,19.86,29.508,24.159,6.221,7.167,5.605
453,0.879,36.951,19.878,29.546,24.169,6.261,7.287,5.645
454,0.892,36.99,19.922,29.546,24.183,6.384,7.41,5.808
455,0.873,36.674,19.844,29.517,24.169,6.222,7.208,5.647
456,0.869,36.834,19.867,29.546,24.166,6.261,7.287,5.605
457,0.879,36.912,19.906,29.498,24.162,6.139,7.166,5.604
458,0.892,36.923,19.949,29.526,24.176,6.301,7.206,5.726
459,0.902,36.693,19.883,29.546,24.18,6.384,7.328,5.809
460,0.908,36.796,19.777,29.517,24.162,6.222,7.167,5.647
461,0.925,36.912,19.85,29.527,24.169,6.22,7.246,5.645
462,0.915,36.693,19.871,29.507,24.159,6.18,7.166,5.605
463,0.938,36.729,19.879,29.526,24.169,6.342,7.246,5.686
464,0.935,36.863,19.867,29.536,24.166,6.303,7.328,5.687
465,0.931,36.922,19.91,29.498,24.162,6.099,7.085,5.524
466,0.951,36.702,19.863,29.517,24.166,6.3,7.245,5.644
467,0.967,36.834,19.863,29.517,24.169,6.221,7.166,5.564
468,0.961,36.98,19.875,29.507,24.18,6.302,7.328,5.726
469,0.945,37.029,19.902,29.498,24.173,6.262,7.289,5.605
470,0.945,37.691,19.957,29.488,24.159,6.139,7.166,5.564
471,0.945,37.832,19.922,29.507,24.169,6.26,7.368,5.685
472,0.954,37.958,19.883,29.517,24.169,6.262,7.289,5.605
473,0.958,38.017,19.883,29.517,24.176,6.302,7.369,5.686
474,0.951,36.128,19.894,29.498,24.159,6.18,7.208,5.605
475,0.958,36.282,19.871,29.507,24.159,6.22,7.328,5.523
476,0.984,36.437,19.886,29.526,24.176,6.302,7.289,5.685
477,0.974,36.477,19.926,29.507,24.166,6.262,7.288,5.646
478,0.971,36.813,19.879,29.517,24.173,6.221,7.329,5.727
479,0.977,36.941,19.879,29.546,24.166,6.22,7.248,5.646
480,0.997,37.077,19.871,29.517,24.159,6.18,7.288,5.605
481,1.013,37.126,19.906,29.527,24.176,6.261,7.41,5.686
482,1.001,36.522,19.949,29.498,24.169,6.262,7.33,5.646
483,0.987,36.641,19.914,29.526,24.173,6.221,7.37,5.645
484,0.978,36.748,19.879,29.507,24.166,6.22,7.289,5.645
485,0.987,36.787,19.902,29.517,24.169,6.261,7.369,5.645
486,1.01,36.72,19.926,29.565,24.176,6.384,7.492,5.727
487,0.978,36.815,19.864,29.508,24.169,6.222,7.412,5.565
488,0.981,36.922,19.898,29.498,24.173,6.302,7.493,5.645
489,0.981,36.808,19.918,29.488,24.166,6.18,7.412,5.564
490,0.964,36.644,19.902,29.517,24.166,6.261,7.533,5.685
491,0.984,36.767,19.863,29.546,24.183,6.302,7.738,5.809
492,0.987,36.864,19.875,29.527,24.166,6.302,7.618,5.647
493,0.952,36.663,19.945,29.507,24.173,6.221,7.617,5.727
494,0.935,36.738,19.907,29.498,24.162,6.22,7.535,5.605
495,0.951,36.883,19.871,29.507,24.176,6.22,7.616,5.726
496,0.951,36.97,19.949,29.536,24.183,6.383,7.779,5.809
497,0.925,36.636,19.86,29.508,24.163,6.222,7.578,5.647
498,0.931,36.747,19.867,29.507,24.169,6.261,7.616,5.727
499,0.925,36.873,19.847,29.498,24.159,6.221,7.495,5.605
500,0.925,36.98,19.902,29.526,24.176,6.302,7.575,5.686
501,0.935,36.588,19.949,29.527,24.18,6.343,7.657,5.727
502,0.945,36.709,19.895,29.507,24.169,6.262,7.576,5.646
503,0.948,36.834,19.875,29.498,24.166,6.221,7.494,5.686
504,0.935,36.884,19.898,29.488,24.159,6.22,7.453,5.605
505,0.922,36.549,19.82,29.498,24.173,6.342,7.452,5.686
506,0.915,36.708,19.878,29.507,24.169,6.303,7.493,5.727
507,0.896,36.787,19.902,29.488,24.169,6.14,7.412,5.565
508,0.895,36.845,19.93,29.488,24.173,6.219,7.411,5.645
509,0.873,36.625,19.821,29.478,24.173,6.22,7.411,5.605
510,0.866,36.786,19.874,29.507,24.169,6.261,7.452,5.645
511,0.866,36.902,19.875,29.517,24.176,6.221,7.493,5.686
512,0.833,36.894,19.918,29.469,24.162,6.139,7.331,5.524
513,0.833,36.625,19.883,29.507,24.169,6.219,7.329,5.685
514,0.826,36.757,19.894,29.488,24.166,6.18,7.329,5.483
515,0.826,36.883,19.922,29.507,24.169,6.22,7.41,5.725
516,0.817,36.903,19.871,29.488,24.173,6.18,7.33,5.727
517,0.807,36.673,19.875,29.469,24.155,6.017,7.126,5.524
518,0.8,36.844,19.894,29.497,24.169,6.178,7.327,5.685
519,0.8,36.951,19.937,29.498,24.159,6.139,7.248,5.646
520,0.803,36.76,19.934,29.517,24.173,6.179,7.288,5.645
521,0.794,36.595,19.883,29.479,24.169,6.098,7.288,5.605
522,0.79,36.709,19.847,29.459,24.155,6.016,7.125,5.523
523,0.806,36.844,19.886,29.497,24.166,6.178,7.287,5.644
524,0.8,36.577,19.887,29.498,24.166,6.139,7.247,5.645
525,0.81,36.68,19.898,29.507,24.176,6.26,7.328,5.686
526,0.8,36.786,19.898,29.488,24.169,6.099,7.207,5.646
527,0.803,36.864,19.934,29.469,24.162,6.138,7.125,5.564
528,0.8,36.5,19.852,29.507,24.169,6.138,7.205,5.685
529,0.794,36.612,19.859,29.488,24.169,6.098,7.287,5.605
530,0.79,36.747,19.875,29.507,24.173,6.138,7.207,5.645
531,0.764,36.797,19.937,29.479,24.162,6.057,7.125,5.564
532,0.751,36.49,19.961,29.478,24.169,6.056,7.124,5.523
533,0.77,36.66,19.926,29.497,24.169,6.178,7.165,5.685
534,0.761,36.767,19.918,29.488,24.169,6.098,7.084,5.524
535,0.764,36.816,19.922,29.488,24.169,6.178,7.205,5.644
536,0.757,36.423,19.891,29.488,24.169,6.057,7.125,5.564
537,0.757,36.582,19.887,29.498,24.176,6.056,7.124,5.604
538,0.761,36.737,19.949,29.536,24.183,6.219,7.287,5.726
539,0.761,36.758,19.926,29.488,24.169,6.139,7.085,5.605
540,0.754,36.614,19.883,29.498,24.176,6.138,7.164,5.564
541,0.751,36.728,19.801,29.488,24.162,6.016,7.165,5.523
542,0.764,36.863,19.87,29.507,24.173,6.137,7.206,5.685
543,0.783,36.922,19.957,29.507,24.183,6.26,7.328,5.809
544,0.774,36.578,19.922,29.488,24.166,6.139,7.085,5.647
545,0.774,36.699,19.891,29.498,24.173,6.057,7.123,5.645
546,0.764,36.777,19.926,29.478,24.162,6.097,7.043,5.564
547,0.774,36.806,19.864,29.488,24.176,6.138,7.042,5.645
548,0.777,36.73,19.871,29.498,24.176,6.179,7.204,5.767
549,0.758,36.816,19.89,29.469,24.159,6.057,7.084,5.565
550,0.767,36.941,19.922,29.497,24.169,6.137,7.123,5.645
551,0.748,36.655,19.957,29.469,24.169,6.057,7.043,5.645
552,0.747,36.527,19.879,29.488,24.173,6.056,7.164,5.645
553,0.734,36.641,19.906,29.498,24.169,6.178,7.084,5.686
554,0.725,36.738,19.91,29.45,24.159,6.017,7.002,5.524
555,0.728,36.614,19.863,29.468,24.166,6.137,7.082,5.603
556,0.728,36.699,19.89,29.478,24.173,6.098,7.083,5.604
557,0.734,36.863,19.93,29.488,24.169,6.138,7.083,5.686
558,0.731,36.913,19.907,29.469,24.169,6.098,7.042,5.605
559,0.731,36.491,19.863,29.459,24.162,6.097,7.001,5.604
560,0.744,36.65,19.765,29.526,24.176,6.178,7.163,5.686
561,0.751,36.757,19.874,29.469,24.166,6.139,7.002,5.646
562,0.757,36.835,19.91,29.488,24.169,6.138,7.123,5.645
563,0.761,36.577,19.887,29.469,24.162,6.098,6.961,5.605
564,0.774,36.728,19.887,29.507,24.173,6.178,7.041,5.645
565,0.8,36.902,19.937,29.507,24.183,6.301,7.123,5.727
566,0.781,36.923,19.879,29.479,24.169,6.18,7.002,5.646
567,0.806,36.52,19.867,29.488,24.173,6.22,6.96,5.645
568,0.82,36.631,19.867,29.469,24.169,6.22,6.96,5.605
569,0.83,36.776,19.921,29.488,24.169,6.139,6.96,5.726
570,0.839,36.854,19.981,29.507,24.183,6.382,7.163,5.768
571,0.859,36.606,19.919,29.479,24.169,6.263,6.962,5.606
572,0.882,36.747,19.922,29.488,24.169,6.262,6.96,5.686
573,0.918,36.864,19.883,29.459,24.169,6.139,6.96,5.605
574,0.957,36.894,19.929,29.488,24.173,6.219,7.082,5.645
575,0.977,36.549,19.91,29.488,24.169,6.261,7.123,5.727
576,1.013,36.67,19.887,29.459,24.166,6.139,6.961,5.605
577,1.079,36.796,19.941,29.478,24.173,6.219,7.0,5.767
578,1.128,36.816,19.887,29.469,24.166,6.22,7.001,5.647
579,1.174,36.673,19.875,29.526,24.176,6.261,7.001,5.727
580,1.243,36.796,19.883,29.479,24.166,6.302,7.082,5.687
581,1.263,36.883,19.894,29.44,24.159,6.099,6.88,5.524
582,1.293,36.587,19.949,29.487,24.169,6.26,7.0,5.603
583,1.316,36.526,19.918,29.498,24.169,6.139,7.001,5.645
584,1.348,36.67,19.895,29.488,24.169,6.219,7.082,5.808
585,1.362,36.738,19.953,29.469,24.169,6.261,7.083,5.606
586,1.359,36.576,19.801,29.44,24.159,6.18,6.961,5.564
587,1.362,36.68,19.858,29.478,24.173,6.22,7.163,5.645
588,1.329,36.805,19.886,29.469,24.169,6.18,7.165,5.645
589,1.316,36.912,19.929,29.488,24.173,6.301,7.287,5.727
590,1.306,36.558,19.907,29.469,24.166,6.18,7.125,5.646
591,1.3,36.68,19.836,29.459,24.162,6.098,7.124,5.645
592,1.312,36.815,19.882,29.478,24.169,6.219,7.287,5.645
593,1.316,36.903,19.929,29.469,24.173,6.22,7.207,5.727
594,1.309,36.568,19.883,29.507,24.176,6.18,7.287,5.687
595,1.316,36.699,19.867,29.459,24.169,6.179,7.288,5.646
596,1.326,36.806,19.953,29.449,24.166,6.179,7.247,5.645
597,1.322,36.903,19.895,29.478,24.169,6.301,7.41,5.727
598,1.309,36.347,19.918,29.469,24.169,6.18,7.371,5.646
599,1.264,36.486,19.887,29.478,24.176,6.342,7.411,5.808
600,1.218,36.593,19.906,29.45,24.166,6.221,7.33,5.647
601,1.172,36.661,19.965,29.459,24.166,6.139,7.37,5.645
602,1.155,36.604,19.911,29.478,24.176,6.301,7.411,5.727
603,1.106,36.728,19.895,29.478,24.169,6.18,7.411,5.727
604,1.067,36.863,19.949,29.469,24.176,6.22,7.493,5.809
605,1.037,36.855,19.875,29.469,24.169,6.18,7.453,5.728
606,1.027,36.491,19.867,29.449,24.169,6.179,7.371,5.646
607,0.978,36.65,19.914,29.468,24.169,6.261,7.452,5.727
608,0.922,36.748,19.93,29.44,24.169,6.221,7.412,5.687
609,0.866,37.142,19.887,29.449,24.176,6.302,7.411,5.768
610,0.801,36.503,19.871,29.497,24.166,6.18,7.411,5.728
611,0.758,36.65,19.867,29.459,24.166,6.22,7.411,5.727
612,0.735,36.786,19.91,29.478,24.183,6.342,7.493,5.85
613,0.65,36.548,19.898,29.459,24.169,6.262,7.412,5.729
614,0.616,36.574,19.898,29.459,24.173,6.302,7.411,5.768
615,0.545,36.689,19.918,29.459,24.169,6.221,7.33,5.728
616,0.505,36.786,19.91,29.459,24.176,6.302,7.41,5.768
617,0.452,36.557,19.922,29.488,24.187,6.465,7.533,5.891
618,0.374,36.612,19.887,29.45,24.166,6.304,7.331,5.77
619,0.324,36.738,19.929,29.459,24.173,6.343,7.329,5.809
620,0.278,36.816,19.953,29.449,24.169,6.221,7.248,5.688
621,0.274,36.471,19.934,29.468,24.169,6.342,7.328,5.809
622,0.242,36.612,19.907,29.488,24.187,6.425,7.41,5.932
623,0.255,36.709,19.883,29.45,24.17,6.304,7.289,5.77
624,0.274,36.787,19.902,29.459,24.173,6.425,7.41,5.768
625,0.323,36.452,19.906,29.44,24.169,6.344,7.208,5.728
626,0.343,36.611,19.914,29.459,24.176,6.343,7.328,5.727
627,0.386,36.747,19.965,29.468,24.176,6.425,7.451,5.89
628,0.396,36.768,19.883,29.421,24.169,6.304,7.29,5.729
629,0.406,36.442,19.89,29.458,24.169,6.302,7.329,5.809
630,0.39,36.582,19.891,29.44,24.162,6.18,7.248,5.81
631,0.425,36.709,19.902,29.459,24.173,6.342,7.328,5.81
632,0.429,36.758,19.957,29.468,24.18,6.343,7.451,5.85
633,0.439,36.471,19.938,29.478,24.162,6.262,7.29,5.729
634,0.478,36.631,19.907,29.459,24.169,6.302,7.288,5.809
635,0.481,36.757,19.937,29.449,24.162,6.221,7.166,5.728
636,0.507,36.797,19.86,29.478,24.169,6.302,7.328,5.85
637,0.54,36.5,19.89,29.469,24.173,6.262,7.329,5.891
638,0.567,36.602,19.906,29.411,24.162,6.18,7.248,5.729
639,0.599,36.747,19.941,29.439,24.173,6.301,7.288,5.85
640,0.652,37.027,19.965,29.439,24.166,6.262,7.207,5.769
641,0.668,36.636,19.883,29.459,24.173,6.302,7.287,5.891
642,0.698,36.767,19.894,29.449,24.173,6.262,7.207,5.851
643,0.714,36.835,19.937,29.42,24.159,6.18,7.125,5.729
644,0.724,36.539,19.848,29.449,24.173,6.301,7.205,5.85
645,0.741,36.516,19.882,29.44,24.169,6.221,7.125,5.769
646,0.754,36.641,19.929,29.449,24.169,6.22,7.165,5.85
647,0.761,36.719,19.93,29.411,24.166,6.22,7.124,5.769
648,0.757,36.528,19.91,29.478,24.162,6.098,7.083,5.768
649,0.78,36.65,19.891,29.45,24.176,6.26,7.123,5.891
650,0.784,36.757,19.918,29.44,24.166,6.221,7.083,5.811
651,0.764,36.845,19.953,29.459,24.176,6.22,7.164,5.891
652,0.751,36.347,19.954,29.44,24.169,6.18,6.962,5.811
653,0.751,36.495,19.918,29.43,24.159,6.139,7.0,5.769
654,0.774,36.641,19.91,29.459,24.176,6.26,7.041,5.809
655,0.764,36.69,19.93,29.449,24.169,6.18,7.042,5.81
656,0.774,36.384,19.899,29.449,24.176,6.261,7.082,5.891
657,0.771,36.505,19.891,29.43,24.166,6.139,6.961,5.811
658,0.757,36.631,19.949,29.439,24.162,6.138,6.878,5.728
659,0.78,36.738,19.938,29.459,24.176,6.26,7.0,5.85
660,0.758,36.499,19.875,29.44,24.18,6.221,6.919,5.81
661,0.754,36.65,19.816,29.449,24.173,6.302,6.959,5.891
662,0.767,36.776,19.894,29.43,24.162,6.18,6.838,5.811
663,0.78,36.806,19.961,29.43,24.169,6.22,6.877,5.769
664,0.8,36.5,19.958,29.487,24.162,6.383,6.959,5.891
665,0.803,36.631,19.887,29.44,24.166,6.263,6.919,5.811
666,0.794,36.709,19.965,29.43,24.173,6.262,7.0,5.81
667,0.771,36.729,19.899,29.411,24.162,6.18,6.838,5.688
668,0.787,36.528,19.906,29.43,24.162,6.139,6.877,5.727
669,0.8,36.689,19.891,29.459,24.162,6.301,6.877,5.85
670,0.781,36.777,19.941,29.44,24.162,6.262,6.918,5.729
671,0.787,36.835,19.965,29.459,24.169,6.221,6.959,5.809
672,0.79,36.5,19.93,29.43,24.166,6.139,6.838,5.728
673,0.771,36.65,19.922,29.439,24.169,6.138,6.877,5.727
674,0.77,36.776,19.969,29.459,24.183,6.26,7.0,5.85
675,0.78,37.42,19.899,29.44,24.163,6.18,6.879,5.769
676,0.764,37.618,19.91,29.459,24.173,6.261,6.959,5.809
677,0.754,37.707,19.914,29.43,24.169,6.221,6.797,5.769
678,0.774,37.803,19.957,29.439,24.169,6.18,6.917,5.809
679,0.787,35.8,19.93,29.459,24.18,6.261,6.959,5.81
680,0.771,35.78,19.817,29.449,24.169,6.18,6.878,5.85
681,0.783,35.933,19.874,29.459,24.18,6.22,6.959,5.81
682,0.774,36.021,19.879,29.43,24.173,6.139,6.919,5.728
683,0.793,36.521,19.965,29.439,24.169,6.26,6.959,5.727
684,0.806,36.689,19.958,29.459,24.18,6.302,7.0,5.85
685,0.8,36.786,19.938,29.43,24.166,6.221,7.001,5.769
686,0.777,36.864,19.946,29.43,24.173,6.22,7.001,5.809
687,0.79,36.213,19.793,29.43,24.173,6.18,6.96,5.688
688,0.79,36.379,19.886,29.449,24.173,6.22,7.041,5.768
689,0.819,36.524,19.929,29.468,24.187,6.302,7.245,5.891
690,0.803,36.564,19.961,29.44,24.17,6.221,7.084,5.851
691,0.797,36.44,19.95,29.449,24.173,6.18,7.164,5.81
692,0.771,36.554,19.856,29.43,24.162,6.139,7.084,5.728
693,0.787,36.689,19.894,29.459,24.176,6.179,7.205,5.809
694,0.784,36.767,19.972,29.459,24.183,6.342,7.328,5.932
695,0.761,36.423,19.841,29.449,24.173,6.221,7.126,5.811
696,0.777,36.563,19.906,29.44,24.169,6.098,7.287,5.81
697,0.777,36.66,19.937,29.43,24.162,6.138,7.247,5.769
698,0.78,36.709,19.965,29.449,24.169,6.179,7.288,5.891
699,0.784,36.432,19.88,29.449,24.18,6.301,7.369,5.973
700,0.797,36.554,19.883,29.507,24.169,6.221,7.208,5.73
701,0.781,36.699,19.898,29.45,24.173,6.18,7.287,5.89
702,0.79,36.662,19.894,29.411,24.166,6.179,7.166,5.77
703,0.81,36.45,19.91,29.43,24.169,6.261,7.287,5.768
704,0.813,36.64,19.91,29.459,24.183,6.343,7.369,5.891
705,0.8,36.69,19.945,29.43,24.169,6.181,7.248,5.77
706,0.813,37.803,19.911,29.42,24.173,6.179,7.247,5.809
707,0.823,38.006,19.91,29.43,24.166,6.139,7.166,5.81
708,0.82,38.161,19.93,29.439,24.173,6.179,7.287,5.81
709,0.82,38.239,19.969,29.468,24.19,6.301,7.41,5.891
710,0.8,35.67,19.973,29.411,24.18,6.262,7.167,5.77
711,0.794,35.673,19.926,29.42,24.166,6.221,7.246,5.768
712,0.79,35.846,19.887,29.42,24.173,6.139,7.206,5.728
713,0.787,35.963,19.918,29.43,24.176,6.219,7.247,5.809
714,0.793,36.606,19.957,29.449,24.183,6.302,7.328,5.891
715,0.777,36.718,19.93,29.42,24.166,6.221,7.207,5.77
716,0.81,36.863,19.93,29.439,24.173,6.18,7.206,5.85
717,0.777,36.903,19.969,29.42,24.162,6.139,7.125,5.688
718,0.777,36.299,19.926,29.439,24.18,6.26,7.124,5.89
719,0.8,36.476,19.864,29.439,24.176,6.221,7.246,5.892
720,0.794,36.525,19.902,29.411,24.169,6.139,7.125,5.729
721,0.803,36.631,19.91,29.42,24.155,6.179,7.083,5.809
722,0.816,36.421,19.945,29.411,24.162,6.139,7.083,5.728
723,0.82,36.573,19.86,29.449,24.176,6.301,7.123,5.89
724,0.81,36.689,19.898,29.44,24.18,6.262,7.205,5.933
725,0.816,36.71,19.937,29.42,24.166,6.18,7.084,5.73
726,0.826,36.307,19.883,29.411,24.169,6.179,7.042,5.727
727,0.813,36.456,19.906,29.401,24.162,6.139,7.001,5.687
728,0.839,36.583,19.918,29.42,24.18,6.219,7.041,5.849
729,0.83,36.603,19.965,29.449,24.18,6.22,7.164,5.932
730,0.8,36.383,19.969,29.401,24.169,6.18,7.043,5.811
731,0.803,36.505,19.926,29.41,24.176,6.22,7.042,5.81
732,0.82,36.631,19.887,29.411,24.162,6.139,6.92,5.728
733,0.797,36.565,19.922,29.411,24.18,6.179,6.959,5.89
734,0.813,36.373,19.938,29.411,24.18,6.342,7.041,5.892
735,0.803,36.505,19.91,29.401,24.169,6.059,7.001,5.811
736,0.79,36.593,19.93,29.41,24.169,6.178,7.041,5.81
737,0.774,36.402,19.965,29.411,24.166,6.139,6.96,5.728
738,0.797,36.486,19.891,29.43,24.176,6.219,7.0,5.89
739,0.803,36.612,19.918,29.43,24.176,6.22,7.001,5.851
740,0.794,36.68,19.895,29.382,24.169,6.098,6.919,5.729
741,0.816,36.201,19.949,29.391,24.173,6.178,6.959,5.809
742,0.81,36.292,19.965,29.382,24.166,6.179,6.838,5.728
743,0.82,36.447,19.965,29.468,24.176,6.22,6.918,5.89
744,0.823,36.525,19.907,29.411,24.176,6.261,7.0,5.933
745,0.807,36.344,19.941,29.382,24.166,6.18,6.797,5.73
746,0.8,36.495,19.836,29.401,24.166,6.22,6.877,5.768
747,0.839,36.631,19.902,29.382,24.166,6.139,6.837,5.768
748,0.83,36.709,19.961,29.41,24.173,6.179,6.918,5.85
749,0.833,36.25,19.973,29.401,24.176,6.179,6.878,5.81
750,0.807,36.341,19.926,29.362,24.156,6.057,6.837,5.688
751,0.82,36.495,19.875,29.4,24.176,6.137,6.918,5.849
752,0.813,36.564,19.883,29.382,24.162,6.138,6.837,5.81
753,0.813,36.776,19.926,29.41,24.176,6.219,6.837,5.81
754,0.803,36.902,19.887,29.391,24.169,6.18,6.837,5.85
755,0.807,36.98,19.89,29.362,24.155,6.057,6.755,5.688
756,0.8,37.058,19.937,29.41,24.159,6.137,6.836,5.768
757,0.797,36.042,19.938,29.391,24.162,6.138,6.877,5.768
758,0.79,36.204,19.891,29.401,24.166,6.179,6.918,5.809
759,0.787,36.321,19.902,29.382,24.169,6.139,6.878,5.81
760,0.806,36.313,19.914,29.353,24.166,6.016,6.837,5.647
761,0.807,36.466,19.961,29.381,24.169,6.218,7.04,5.808
762,0.807,36.602,19.985,29.391,24.166,6.18,6.96,5.81
763,0.836,36.699,19.958,29.382,24.18,6.179,7.122,5.85
764,0.82,36.547,19.903,29.372,24.169,6.139,7.124,5.81
765,0.817,36.363,19.93,29.362,24.162,6.016,7.043,5.728
766,0.856,36.534,19.934,29.391,24.166,6.218,7.123,5.809
767,0.853,36.641,19.926,29.391,24.166,6.22,7.124,5.81
768,0.84,36.278,19.965,29.391,24.169,6.22,7.165,5.769
769,0.839,36.303,19.958,29.382,24.169,6.139,7.206,5.809
770,0.833,36.447,19.895,29.372,24.166,6.098,7.084,5.728
771,0.836,36.573,19.836,29.4,24.169,6.178,7.245,5.809
772,0.839,36.325,19.886,29.372,24.166,6.179,7.206,5.769
773,0.82,36.418,19.969,29.41,24.173,6.098,7.247,5.809
774,0.813,36.534,19.883,29.372,24.162,6.056,7.166,5.728
775,0.823,36.631,19.914,29.372,24.162,6.015,7.124,5.727
776,0.83,36.268,19.969,29.4,24.173,6.096,7.246,5.89
777,0.813,36.389,19.946,29.382,24.173,6.056,7.206,5.811
778,0.816,36.534,19.895,29.439,24.169,6.097,7.206,5.891
779,0.829,36.583,19.887,29.372,24.162,6.056,7.165,5.77
780,0.833,36.21,19.926,29.381,24.159,6.056,7.124,5.728
781,0.83,36.36,19.965,29.391,24.176,6.178,7.246,5.768
782,0.846,36.467,19.946,29.382,24.162,6.098,7.206,5.85
783,0.849,36.544,19.93,29.401,24.173,6.178,7.328,5.891
784,0.846,37.571,19.949,29.372,24.162,6.098,7.207,5.77
785,0.859,37.716,19.93,29.372,24.162,6.056,7.287,5.809
786,0.872,37.861,19.946,29.41,24.173,6.178,7.329,5.81
787,0.859,37.853,19.926,29.382,24.166,6.139,7.329,5.81
788,0.872,35.628,19.988,29.381,24.162,6.138,7.329,5.85
789,0.846,35.73,19.927,29.372,24.159,6.016,7.329,5.688
790,0.853,35.885,19.836,29.381,24.169,6.096,7.37,5.727
791,0.859,35.954,19.909,29.391,24.173,6.138,7.37,5.85
792,0.84,36.405,19.918,29.372,24.162,6.057,7.33,5.81
793,0.839,36.553,19.981,29.4,24.173,6.178,7.37,5.85
794,0.846,36.641,19.923,29.382,24.159,6.098,7.33,5.769
795,0.843,36.364,19.961,29.381,24.169,6.138,7.37,5.85
796,0.843,36.208,19.985,29.429,24.173,6.219,7.573,5.973
797,0.83,36.331,19.95,29.439,24.169,6.098,7.454,5.893
798,0.83,36.409,19.895,29.392,24.169,6.056,7.452,5.77
799,0.82,36.266,19.945,29.362,24.166,6.056,7.371,5.768
800,0.839,36.36,19.985,29.391,24.176,6.137,7.533,5.891
801,0.859,36.524,20.012,29.42,24.183,6.26,7.616,5.973
802,0.843,36.574,19.864,29.401,24.166,6.139,7.495,5.811
803,0.853,36.287,19.902,29.391,24.166,6.138,7.616,5.85
804,0.846,36.37,19.93,29.372,24.159,6.057,7.454,5.688
805,0.869,36.553,19.949,29.4,24.162,6.137,7.534,5.809
806,0.85,36.641,19.926,29.41,24.173,6.301,7.738,5.932
807,0.869,37.15,19.973,29.382,24.169,6.14,7.577,5.73
808,0.866,37.29,19.919,29.391,24.169,6.179,7.698,5.809
809,0.849,37.396,19.906,29.401,24.162,6.098,7.618,5.688
810,0.856,37.465,19.914,29.391,24.166,6.178,7.657,5.849
811,0.866,35.682,19.941,29.401,24.18,6.22,7.82,5.973
812,0.84,35.788,19.985,29.382,24.169,6.18,7.7,5.771
813,0.856,35.943,19.903,29.372,24.166,6.139,7.699,5.768
814,0.862,35.983,19.914,29.372,24.159,6.057,7.699,5.728
815,0.843,36.434,19.969,29.381,24.169,6.219,7.821,5.85
816,0.833,36.573,19.915,29.391,24.176,6.18,7.903,5.851
817,0.833,36.661,19.906,29.372,24.162,6.057,7.782,5.769
818,0.839,36.729,19.953,29.381,24.162,6.097,7.862,5.768
819,0.846,36.154,19.961,29.362,24.166,6.138,7.822,5.728
820,0.862,36.292,19.977,29.362,24.169,6.219,7.903,5.809
821,0.872,36.418,19.907,29.372,24.173,6.18,7.945,5.891
822,0.863,36.4,19.895,29.343,24.155,6.057,7.783,5.689
823,0.862,36.304,19.969,29.362,24.169,6.219,7.984,5.849
824,0.869,36.428,19.923,29.362,24.169,6.22,7.864,5.688
825,0.872,36.554,19.922,29.391,24.169,6.22,7.904,5.849
826,0.889,36.286,19.957,29.353,24.169,6.22,7.863,5.81
827,0.866,36.178,19.942,29.333,24.155,6.18,7.741,5.688
828,0.882,36.359,19.887,29.371,24.176,6.301,7.821,5.809
829,0.885,36.447,19.902,29.353,24.173,6.221,7.863,5.769
830,0.869,36.324,19.941,29.381,24.176,6.261,7.944,5.809
831,0.859,36.39,19.977,29.343,24.162,6.221,7.823,5.688
832,0.856,36.505,19.989,29.352,24.159,6.139,7.741,5.646
833,0.859,36.621,19.985,29.381,24.176,6.301,7.821,5.808
834,0.862,36.287,19.946,29.362,24.166,6.262,7.781,5.728
835,0.859,36.408,19.961,29.362,24.176,6.343,7.862,5.809
836,0.859,36.544,19.922,29.353,24.166,6.221,7.741,5.81
837,0.836,36.612,19.914,29.333,24.166,6.22,7.74,5.688
838,0.849,36.373,19.977,29.362,24.176,6.302,7.74,5.809
839,0.856,36.457,19.958,29.362,24.169,6.302,7.781,5.769
840,0.859,36.611,19.922,29.381,24.169,6.302,7.781,5.809
841,0.859,36.632,19.867,29.353,24.169,6.221,7.659,5.728
842,0.869,36.258,19.918,29.352,24.173,6.342,7.698,5.727
843,0.889,36.427,20.004,29.372,24.176,6.343,7.699,5.809
844,0.885,36.525,19.946,29.362,24.173,6.343,7.74,5.769
845,0.892,36.574,19.934,29.372,24.169,6.343,7.699,5.768
846,0.873,36.526,19.973,29.333,24.169,6.303,7.577,5.647
847,0.889,36.689,19.88,29.371,24.173,6.302,7.616,5.767
848,0.892,36.844,19.922,29.381,24.18,6.506,7.779,5.891
849,0.892,36.836,19.906,29.353,24.166,6.345,7.537,5.689
850,0.886,36.481,19.961,29.343,24.176,6.303,7.616,5.727
851,0.882,36.592,20.0,29.343,24.173,6.343,7.495,5.727
852,0.892,36.728,19.938,29.352,24.166,6.384,7.656,5.768
853,0.853,36.902,19.953,29.372,24.187,6.466,7.698,5.891
854,0.859,36.645,19.957,29.353,24.176,6.345,7.496,5.729
855,0.872,36.776,19.915,29.352,24.173,6.384,7.616,5.809
856,0.85,36.893,19.918,29.333,24.169,6.344,7.454,5.728
857,0.859,36.645,19.965,29.371,24.176,6.343,7.534,5.768
858,0.849,36.584,19.997,29.372,24.173,6.384,7.616,5.809
859,0.853,36.68,19.942,29.343,24.173,6.344,7.535,5.728
860,0.856,36.796,19.86,29.362,24.166,6.343,7.534,5.768
861,0.862,36.596,19.906,29.343,24.162,6.303,7.453,5.768
862,0.856,36.718,19.953,29.372,24.176,6.465,7.574,5.768
863,0.869,36.815,19.993,29.362,24.173,6.426,7.575,5.85
864,0.866,36.874,19.931,29.333,24.155,6.182,7.454,5.648
865,0.879,36.654,19.965,29.343,24.176,6.383,7.656,5.686
866,0.876,36.757,19.938,29.333,24.166,6.344,7.576,5.727
867,0.882,36.921,19.946,29.352,24.176,6.384,7.535,5.809
868,0.876,36.952,19.93,29.333,24.169,6.344,7.534,5.688
869,0.872,36.914,19.969,29.314,24.162,6.303,7.453,5.646
870,0.876,37.047,20.004,29.333,24.169,6.343,7.493,5.767
871,0.889,37.154,19.985,29.352,24.169,6.343,7.575,5.728
872,0.869,37.232,19.911,29.391,24.173,6.384,7.575,5.727
873,0.85,36.763,19.922,29.314,24.166,6.263,7.535,5.646
874,0.859,36.902,19.961,29.342,24.173,6.343,7.412,5.645
875,0.862,37.038,19.934,29.362,24.176,6.343,7.574,5.727
876,0.853,37.058,19.926,29.343,24.166,6.303,7.494,5.768
877,0.853,37.068,19.981,29.343,24.169,6.343,7.616,5.809
878,0.84,37.202,19.95,29.324,24.169,6.303,7.495,5.688
879,0.852,37.319,19.879,29.352,24.173,6.262,7.453,5.687
880,0.862,37.368,19.953,29.352,24.18,6.343,7.615,5.849
881,0.866,36.985,19.926,29.324,24.169,6.343,7.535,5.729
882,0.862,37.115,19.965,29.343,24.173,6.303,7.494,5.727
883,0.862,37.193,19.856,29.333,24.159,6.221,7.412,5.646
884,0.879,37.616,19.925,29.352,24.173,6.342,7.452,5.767
885,0.879,37.17,19.981,29.372,24.187,6.506,7.574,5.931
886,0.892,37.251,19.887,29.324,24.17,6.305,7.494,5.689
887,0.886,37.358,19.941,29.333,24.173,6.343,7.412,5.727
888,0.869,37.148,19.965,29.314,24.169,6.303,7.411,5.646
889,0.885,37.174,20.012,29.342,24.183,6.262,7.493,5.727
890,0.879,37.319,19.981,29.372,24.176,6.384,7.494,5.85
891,0.856,37.378,19.891,29.333,24.162,6.222,7.453,5.688
892,0.875,37.196,19.922,29.323,24.166,6.302,7.534,5.727
893,0.846,37.28,19.965,29.333,24.166,6.262,7.453,5.646
894,0.866,37.425,19.911,29.333,24.176,6.302,7.615,5.767
895,0.846,37.494,19.938,29.343,24.166,6.384,7.617,5.768
896,0.84,37.197,19.985,29.314,24.159,6.222,7.454,5.647
897,0.843,37.338,19.97,29.342,24.162,6.302,7.615,5.727
898,0.833,37.474,19.958,29.4,24.159,6.221,7.495,5.687
899,0.833,37.571,19.934,29.334,24.169,6.302,7.575,5.768
900,0.833,37.198,19.981,29.333,24.162,6.262,7.616,5.768
901,0.836,37.309,19.993,29.304,24.155,6.139,7.495,5.647
902,0.865,37.445,19.993,29.314,24.169,6.341,7.616,5.727
903,0.859,37.532,19.958,29.314,24.169,6.262,7.576,5.646
904,0.859,37.447,19.965,29.333,24.169,6.343,7.616,5.767
905,0.856,37.59,19.954,29.343,24.176,6.303,7.657,5.809
906,0.853,37.687,19.938,29.295,24.162,6.18,7.495,5.647
907,0.859,37.746,19.961,29.333,24.166,6.22,7.575,5.686
908,0.859,37.267,19.989,29.314,24.166,6.261,7.494,5.646
909,0.869,37.406,19.934,29.323,24.176,6.221,7.534,5.767
910,0.853,37.513,19.86,29.333,24.166,6.302,7.575,5.768
911,0.853,37.495,19.925,29.276,24.155,6.14,7.332,5.525
912,0.84,37.341,19.969,29.323,24.176,6.219,7.492,5.725
913,0.839,37.483,20.004,29.314,24.176,6.18,7.453,5.687
914,0.846,37.609,19.958,29.323,24.173,6.22,7.574,5.727
915,0.833,37.812,19.969,29.333,24.159,6.18,7.454,5.727
916,0.82,37.459,19.985,29.285,24.155,6.179,7.371,5.646
917,0.826,37.619,19.934,29.352,24.169,6.261,7.492,5.767
918,0.836,37.716,19.918,29.314,24.169,6.221,7.412,5.647
919,0.839,37.42,19.953,29.314,24.173,6.22,7.452,5.727
920,0.846,37.388,19.973,29.295,24.162,6.22,7.412,5.646
921,0.853,37.522,19.997,29.314,24.162,6.18,7.371,5.605
922,0.866,37.639,19.915,29.333,24.166,6.301,7.411,5.726
923,0.856,37.429,19.949,29.304,24.169,6.221,7.411,5.727
924,0.885,37.542,20.0,29.323,24.18,6.261,7.493,5.809
925,0.866,37.648,19.966,29.323,24.169,6.139,7.371,5.647
926,0.882,37.736,19.926,29.304,24.169,6.179,7.452,5.605
927,0.898,37.42,19.996,29.323,24.173,6.22,7.493,5.726
928,0.892,37.522,19.966,29.323,24.166,6.18,7.412,5.605
929,0.892,37.648,19.876,29.333,24.166,6.301,7.493,5.645
930,0.882,37.716,19.898,29.304,24.169,6.18,7.371,5.686
931,0.895,37.468,19.914,29.314,24.169,6.22,7.411,5.564
932,0.889,37.619,20.0,29.342,24.18,6.302,7.493,5.766
933,0.892,37.716,19.931,29.314,24.173,6.18,7.371,5.687
934,0.895,37.784,19.949,29.314,24.176,6.22,7.452,5.727
935,0.889,37.219,19.985,29.304,24.166,6.098,7.412,5.687
936,0.892,37.377,19.942,29.314,24.173,6.178,7.411,5.687
937,0.912,37.551,19.957,29.342,24.176,6.301,7.452,5.849
938,0.882,37.543,19.95,29.314,24.173,6.221,7.452,5.688
939,0.879,37.572,19.973,29.295,24.173,6.098,7.33,5.768
940,0.898,37.697,19.989,29.304,24.169,6.097,7.37,5.647
941,0.902,37.832,19.95,29.294,24.176,6.178,7.452,5.767
942,0.921,37.862,19.954,29.342,24.183,6.22,7.534,5.891
943,0.922,37.431,19.946,29.314,24.173,6.18,7.453,5.729
944,0.928,37.561,19.953,29.323,24.173,6.179,7.371,5.727
945,0.909,37.677,19.954,29.295,24.162,6.179,7.37,5.646
946,0.948,37.736,19.973,29.294,24.176,6.179,7.411,5.727
947,0.941,37.487,20.001,29.333,24.183,6.261,7.452,5.85
948,0.925,37.59,19.923,29.304,24.166,6.18,7.33,5.729
949,0.918,37.716,19.942,29.314,24.173,6.139,7.41,5.727
950,0.922,37.458,19.922,29.304,24.169,6.098,7.289,5.646
951,0.931,37.484,19.973,29.323,24.173,6.138,7.329,5.767
952,0.931,37.629,20.016,29.314,24.18,6.179,7.329,5.809
953,0.899,37.707,19.97,29.342,24.166,6.098,7.289,5.728
954,0.892,37.429,19.934,29.304,24.169,6.138,7.288,5.727
955,0.895,37.494,19.992,29.285,24.169,6.138,7.207,5.727
956,0.925,37.648,19.876,29.333,24.176,6.138,7.287,5.89
957,0.899,37.755,19.945,29.323,24.18,6.26,7.369,5.892
958,0.889,37.411,19.965,29.295,24.162,6.058,7.126,5.811
959,0.902,37.57,20.016,29.294,24.173,6.178,7.205,5.769
960,0.905,37.658,19.954,29.285,24.166,6.098,7.247,5.728
961,0.892,37.755,19.93,29.304,24.176,6.178,7.247,5.85
962,0.908,37.401,19.949,29.314,24.176,6.098,7.247,5.891
963,0.908,37.503,19.973,29.275,24.159,6.016,7.125,5.729
964,0.905,37.638,19.938,29.304,24.162,6.137,7.287,5.809
965,0.905,37.707,19.934,29.294,24.162,6.219,7.166,5.769
966,0.912,37.573,20.0,29.314,24.176,6.22,7.246,5.809
967,0.902,37.677,19.97,29.304,24.176,6.098,7.206,5.81
968,0.892,37.793,19.907,29.275,24.162,6.056,7.043,5.688
969,0.905,37.852,19.945,29.285,24.173,6.219,7.204,5.809
970,0.889,37.393,19.973,29.294,24.166,6.18,7.165,5.81
971,0.889,37.551,20.008,29.314,24.166,6.22,7.206,5.891
972,0.866,37.639,20.04,29.266,24.169,6.139,7.165,5.729
973,0.862,37.659,19.974,29.284,24.169,6.098,7.084,5.687
974,0.879,37.515,19.954,29.294,24.173,6.178,7.123,5.809
975,0.866,37.629,19.961,29.294,24.166,6.139,7.124,5.81
976,0.853,37.764,19.973,29.314,24.166,6.26,7.124,5.891
977,0.853,37.67,19.946,29.285,24.169,6.139,7.083,5.77
978,0.843,37.467,19.985,29.285,24.169,6.138,7.002,5.768
979,0.843,37.619,20.009,29.304,24.166,6.26,7.123,5.891
980,0.856,37.697,19.931,29.294,24.166,6.262,7.043,5.811
981,0.859,37.535,19.91,29.314,24.176,6.221,7.123,5.891
982,0.856,37.562,19.941,29.295,24.166,6.098,7.043,5.689
983,0.869,37.677,20.028,29.294,24.173,6.219,7.082,5.768
984,0.869,37.841,19.986,29.333,24.176,6.302,7.042,5.891
985,0.853,37.392,19.981,29.295,24.169,6.302,7.042,5.811
986,0.859,37.512,19.997,29.294,24.173,6.221,7.082,5.81
987,0.869,37.6,19.907,29.266,24.166,6.22,6.961,5.769
988,0.879,37.706,19.934,29.294,24.173,6.22,7.041,5.809
989,0.879,37.506,19.985,29.314,24.183,6.383,7.164,5.891
990,0.856,37.6,20.02,29.295,24.166,6.222,7.043,5.851
991,0.846,37.735,20.021,29.275,24.173,6.261,7.082,5.891
992,0.836,37.775,19.966,29.275,24.162,6.18,7.002,5.851
993,0.836,37.353,19.962,29.285,24.176,6.342,7.041,5.81
994,0.846,37.493,20.0,29.294,24.19,6.343,7.164,6.013
995,0.843,37.59,19.915,29.294,24.17,6.303,7.043,5.852
996,0.826,37.668,19.957,29.304,24.176,6.302,7.082,5.81
997,0.83,38.282,19.997,29.285,24.176,6.221,7.083,5.85
998,0.82,38.452,20.036,29.304,24.176,6.22,7.083,5.851
999,0.817,38.54,19.931,29.304,24.176,6.383,7.123,5.973
1000,0.836,38.56,19.856,29.275,24.166,6.222,7.002,5.811
1001,0.843,36.939,19.937,29.275,24.173,6.302,7.123,5.85
1002,0.849,37.067,19.957,29.265,24.18,6.221,7.083,5.769
1003,0.862,37.212,19.993,29.294,24.176,6.261,7.123,5.891
1004,0.859,37.223,19.985,29.294,24.176,6.384,7.246,5.973
1005,0.859,37.588,19.977,29.256,24.173,6.222,7.125,5.811
1006,0.872,37.725,19.973,29.275,24.176,6.22,7.165,5.81
1007,0.866,37.832,19.954,29.256,24.166,6.18,7.043,5.769
1008,0.869,37.642,19.942,29.284,24.169,6.342,7.245,5.85
1009,0.859,37.458,20.004,29.294,24.176,6.343,7.206,5.891
1010,0.849,37.542,20.001,29.256,24.166,6.14,7.125,5.811
1011,0.853,37.677,19.985,29.284,24.173,6.26,7.124,5.81
1012,0.843,37.573,19.962,29.313,24.166,6.18,7.124,5.85
1013,0.846,37.658,19.95,29.275,24.173,6.342,7.165,5.851
1014,0.836,37.755,20.0,29.265,24.173,6.262,7.165,5.973
1015,0.813,37.833,19.954,29.237,24.155,6.139,7.002,5.811
1016,0.833,37.402,19.969,29.275,24.166,6.179,7.163,5.85
1017,0.833,37.493,20.024,29.256,24.173,6.261,7.124,5.891
1018,0.843,37.638,19.974,29.275,24.169,6.262,7.246,5.892
1019,0.833,37.707,19.841,29.285,24.169,6.18,7.044,5.851
1020,0.826,37.506,19.913,29.256,24.166,6.139,7.001,5.729
1021,0.846,37.667,19.957,29.256,24.169,6.301,7.082,5.85
1022,0.869,37.755,20.02,29.256,24.166,6.14,7.083,5.851
1023,0.866,37.852,19.958,29.294,24.173,6.301,7.164,5.932
1024,0.856,37.488,19.946,29.256,24.166,6.221,7.002,5.892
1025,0.859,37.619,20.004,29.256,24.155,6.18,7.001,5.689
1026,0.866,37.755,19.923,29.246,24.169,6.261,7.041,5.809
1027,0.869,37.823,19.942,29.256,24.169,6.221,7.001,5.81
1028,0.882,37.622,20.0,29.256,24.176,6.22,7.041,5.85
1029,0.866,37.735,20.028,29.236,24.169,6.139,7.042,5.81
1030,0.869,37.842,19.978,29.246,24.169,6.098,7.001,5.728
1031,0.879,37.891,19.891,29.265,24.176,6.219,7.001,5.931
1032,0.866,37.498,19.918,29.256,24.173,6.139,6.96,5.892
1033,0.856,37.648,19.992,29.265,24.18,6.26,7.041,5.892
1034,0.849,37.736,19.954,29.237,24.162,6.221,6.92,5.811
1035,0.853,37.756,19.95,29.255,24.162,6.139,6.919,5.769
1036,0.836,37.66,20.004,29.275,24.173,6.301,7.041,5.972
1037,0.843,37.755,19.997,29.265,24.169,6.14,7.001,5.852
1038,0.866,37.881,19.895,29.275,24.169,6.301,7.001,5.851
1039,0.853,37.719,19.949,29.237,24.162,6.18,6.879,5.769
1040,0.869,37.64,19.977,29.236,24.176,6.301,6.959,5.891
1041,0.869,37.803,20.012,29.275,24.176,6.343,7.041,5.892
1042,0.859,37.871,20.021,29.246,24.173,6.303,6.92,5.811
1043,0.885,37.604,19.989,29.256,24.176,6.221,6.959,5.932
1044,0.908,37.658,19.958,29.246,24.169,6.098,6.878,5.811
1045,0.889,37.774,20.008,29.246,24.169,6.3,6.959,5.891
1046,0.889,37.91,19.97,29.284,24.183,6.384,7.122,6.014
1047,0.872,37.47,19.969,29.256,24.169,6.222,6.88,5.852
1048,0.879,37.58,20.02,29.246,24.173,6.261,6.918,5.851
1049,0.895,37.706,20.001,29.256,24.169,6.221,6.796,5.769
1050,0.882,37.803,19.907,29.246,24.18,6.302,6.877,5.891
1051,0.876,37.67,19.969,29.275,24.18,6.302,7.0,5.892
1052,0.863,37.755,19.938,29.256,24.166,6.18,6.919,5.851
1053,0.872,37.881,20.02,29.246,24.176,6.179,6.796,5.851
1054,0.876,37.959,19.989,29.236,24.166,6.179,6.755,5.729
1055,0.869,37.595,19.977,29.255,24.18,6.261,6.876,5.85
1056,0.872,37.725,20.016,29.256,24.18,6.221,6.837,5.891
1057,0.876,37.823,19.935,29.227,24.169,6.18,6.796,5.851
1058,0.866,37.891,19.973,29.255,24.169,6.22,6.836,5.851
1059,0.872,37.671,19.938,29.227,24.166,6.139,6.755,5.81
1060,0.892,37.822,20.008,29.236,24.176,6.301,6.795,5.85
1061,0.905,37.92,20.024,29.246,24.169,6.302,6.836,5.932
1062,0.882,37.921,20.009,29.198,24.155,6.14,6.755,5.73
1063,0.889,37.575,19.97,29.255,24.18,6.301,6.795,5.85
1064,0.885,37.706,19.985,29.227,24.173,6.221,6.755,5.769
1065,0.905,37.803,19.97,29.255,24.173,6.302,6.795,5.891
1066,0.918,37.814,19.958,29.236,24.162,6.221,6.795,5.77
1067,0.905,37.651,19.969,29.208,24.162,6.139,6.714,5.647
1068,0.899,37.793,20.028,29.226,24.169,6.26,6.794,5.767
1069,0.899,37.9,19.978,29.227,24.173,6.221,6.714,5.809
1070,0.895,37.671,19.923,29.246,24.173,6.261,6.794,5.81
1071,0.882,37.592,19.953,29.236,24.166,6.221,6.633,5.688
1072,0.882,37.706,19.954,29.227,24.162,6.22,6.59,5.646
1073,0.879,37.794,20.051,29.227,24.183,6.22,6.753,5.767
1074,0.879,37.66,19.986,29.236,24.169,6.22,6.632,5.728
1075,0.876,37.755,19.973,29.236,24.169,6.22,6.753,5.768
1076,0.866,37.842,20.001,29.227,24.166,6.18,6.632,5.728
1077,0.866,37.949,19.95,29.246,24.169,6.179,6.631,5.768
1078,0.879,37.384,19.961,29.275,24.176,6.22,6.753,5.768
1079,0.876,37.455,19.977,29.237,24.166,6.261,6.673,5.768
1080,0.889,37.58,20.024,29.246,24.169,6.18,6.672,5.809
1081,0.876,37.649,20.028,29.217,24.166,6.139,6.591,5.688
1082,0.895,37.621,19.966,29.236,24.169,6.219,6.671,5.768
1083,0.912,37.803,19.997,29.275,24.187,6.342,6.794,5.931
1084,0.895,37.881,20.032,29.237,24.18,6.181,6.592,5.811
1085,0.912,37.949,19.865,29.255,24.169,6.22,6.631,5.769
1086,0.895,37.528,19.953,29.227,24.169,6.18,6.59,5.647
1087,0.902,37.667,20.004,29.255,24.176,6.261,6.712,5.808
1088,0.928,37.813,20.005,29.275,24.183,6.343,6.754,5.891
1089,0.918,37.833,19.927,29.256,24.173,6.221,6.632,5.77
1090,0.879,37.642,19.969,29.227,24.169,6.18,6.672,5.809
1091,0.892,37.784,19.962,29.227,24.173,6.139,6.55,5.688
1092,0.882,37.91,20.012,29.255,24.18,6.219,6.671,5.687
1093,0.869,37.93,19.985,29.256,24.18,6.342,6.753,5.89
1094,0.863,37.489,19.981,29.246,24.166,6.221,6.592,5.729
1095,0.879,37.638,20.012,29.236,24.176,6.261,6.631,5.727
1096,0.869,37.716,19.95,29.255,24.169,6.099,6.631,5.727
1097,0.853,38.053,19.969,29.256,24.18,6.26,6.753,5.809
1098,0.859,37.644,19.985,29.275,24.183,6.343,6.836,5.85
1099,0.869,37.745,20.02,29.217,24.163,6.1,6.714,5.769
1100,0.869,37.852,20.013,29.246,24.176,6.178,6.754,5.728
1101,0.869,37.814,19.942,29.236,24.169,6.179,6.754,5.768
1102,0.872,37.872,19.965,29.236,24.173,6.301,6.917,5.809
1103,0.889,38.016,20.012,29.255,24.187,6.302,7.0,5.972
1104,0.882,38.075,19.974,29.236,24.176,6.18,6.919,5.811
1105,0.882,37.308,19.965,29.246,24.176,6.179,6.919,5.85
1106,0.885,37.358,19.977,29.217,24.169,6.261,6.878,5.769
1107,0.895,37.503,20.001,29.236,24.169,6.139,7.0,5.728
1108,0.902,37.61,19.977,29.284,24.18,6.301,7.041,5.931
1109,0.866,37.486,19.954,29.218,24.169,6.058,6.92,5.73
1110,0.879,37.648,19.981,29.217,24.176,6.137,7.041,5.85
1111,0.879,37.745,20.024,29.217,24.169,6.057,7.001,5.769
1112,0.905,37.842,20.04,29.255,24.176,6.178,7.163,5.891
1113,0.866,37.536,20.001,29.236,24.169,6.22,7.124,5.892
1114,0.84,37.629,19.97,29.198,24.166,6.058,6.961,5.689
1115,0.849,37.755,20.008,29.217,24.176,6.137,7.041,5.768
1116,0.866,37.833,19.989,29.217,24.169,6.098,6.96,5.809
1117,0.866,37.574,19.989,29.236,24.176,6.219,7.122,5.85
1118,0.836,37.697,20.04,29.227,24.176,6.18,7.083,5.891
1119,0.839,37.784,19.97,29.188,24.162,5.976,6.961,5.77
1120,0.852,37.871,19.919,29.236,24.173,6.137,7.0,5.891
1121,0.862,37.393,19.945,29.208,24.166,6.098,6.96,5.811
1122,0.866,37.551,19.977,29.236,24.176,6.097,7.041,5.891
1123,0.879,37.639,20.032,29.217,24.166,6.056,7.001,5.892
1124,0.853,37.64,19.986,29.207,24.166,6.056,6.919,5.77
1125,0.859,37.63,19.997,29.217,24.169,6.097,7.041,5.891
1126,0.882,37.764,20.02,29.226,24.173,6.056,6.96,5.892
1127,0.879,37.881,19.884,29.246,24.18,6.137,6.96,5.973
1128,0.863,38.189,19.976,29.208,24.169,6.138,6.919,5.893
1129,0.859,37.511,20.001,29.207,24.166,6.057,6.837,5.729
1130,0.866,37.658,20.048,29.236,24.169,6.056,6.999,5.89
1131,0.862,37.765,20.025,29.227,24.169,6.097,6.919,5.933
1132,0.859,37.622,19.9,29.217,24.176,6.138,7.0,5.974
1133,0.859,37.611,19.949,29.207,24.169,6.016,6.879,5.852
1134,0.853,37.745,19.989,29.198,24.162,6.056,6.959,5.851
1135,0.83,37.88,19.973,29.255,24.18,6.056,7.0,5.891
1136,0.823,37.537,19.965,29.227,24.169,6.097,7.001,5.973
1137,0.83,37.629,20.043,29.236,24.173,6.097,7.001,5.974
1138,0.826,37.745,20.013,29.208,24.173,6.056,6.919,5.811
1139,0.83,37.833,19.931,29.217,24.176,6.137,6.959,5.972
1140,0.869,37.469,19.969,29.246,24.183,6.179,7.122,5.933
1141,0.853,37.552,19.973,29.208,24.169,6.098,7.002,5.933
1142,0.84,37.668,20.02,29.217,24.169,6.138,7.001,5.892
1143,0.833,37.726,19.974,29.207,24.173,5.976,6.919,5.851
1144,0.846,37.526,19.985,29.236,24.173,6.096,7.0,5.973
1145,0.866,37.677,20.055,29.265,24.18,6.178,7.123,6.015
1146,0.859,37.755,19.97,29.198,24.169,6.057,7.002,5.974
1147,0.846,37.833,20.001,29.217,24.176,6.137,7.001,5.933
1148,0.83,37.536,20.005,29.198,24.169,6.016,6.96,5.811
1149,0.846,37.715,20.063,29.217,24.173,6.137,7.082,5.891
1150,0.836,37.813,20.056,29.236,24.176,6.219,7.164,6.054
1151,0.83,37.833,19.962,29.217,24.173,6.139,6.962,5.893
1152,0.826,37.507,19.989,29.226,24.169,6.179,7.041,5.973
1153,0.826,37.638,19.993,29.198,24.169,6.057,6.92,5.811
1154,0.833,37.745,20.024,29.226,24.169,6.219,6.959,5.972
1155,0.826,37.804,19.993,29.227,24.183,6.261,7.082,6.015
1156,0.817,37.651,19.993,29.198,24.169,6.058,6.961,5.893
1157,0.81,37.803,20.036,29.207,24.173,6.137,6.96,5.973
1158,0.82,37.91,19.962,29.198,24.162,6.138,6.919,5.893
1159,0.83,38.007,19.989,29.217,24.169,6.138,6.959,5.973
1160,0.826,37.528,19.977,29.226,24.18,6.179,6.919,5.974
1161,0.82,37.6,20.001,29.188,24.166,6.057,6.919,5.852
1162,0.839,37.716,20.036,29.217,24.169,6.137,6.919,5.932
1163,0.823,37.698,20.021,29.226,24.169,6.098,6.878,5.811
1164,0.836,37.775,19.982,29.217,24.176,6.138,6.877,5.972
1165,0.852,37.871,20.04,29.217,24.18,6.179,6.959,5.974
1166,0.833,37.958,19.951,29.179,24.166,6.098,6.838,5.852
1167,0.839,37.461,19.977,29.197,24.176,6.138,6.877,5.891
1168,0.833,37.532,20.008,29.188,24.166,6.016,6.837,5.811
1169,0.833,37.696,20.063,29.217,24.173,6.218,6.958,5.972
1170,0.839,37.765,19.99,29.217,24.176,6.18,6.96,5.974
1171,0.813,37.488,19.899,29.179,24.162,5.976,6.878,5.811
1172,0.813,37.657,19.961,29.207,24.173,6.137,6.959,5.85
1173,0.82,37.765,20.012,29.198,24.166,6.016,6.878,5.81
1174,0.83,37.852,19.989,29.198,24.176,6.137,7.0,5.891
1175,0.82,37.603,19.997,29.198,24.176,6.138,6.96,5.892
1176,0.777,37.706,20.024,29.169,24.166,6.057,6.797,5.811
1177,0.81,37.851,20.009,29.178,24.173,6.178,6.958,5.891
1178,0.813,37.91,19.946,29.207,24.173,6.098,6.919,5.851
1179,0.807,37.527,19.957,29.207,24.176,6.178,7.0,5.891
1180,0.816,37.658,19.965,29.198,24.176,6.139,6.96,5.973
1181,0.8,37.755,19.997,29.169,24.162,6.057,6.838,5.73
1182,0.82,37.833,20.055,29.197,24.173,6.178,6.918,5.89
1183,0.843,37.613,20.013,29.198,24.169,6.139,6.959,5.892
1184,0.813,37.764,20.005,29.207,24.176,6.138,6.919,5.933
1185,0.846,37.842,20.02,29.188,24.173,6.138,7.0,5.892
1186,0.836,37.833,19.978,29.169,24.162,6.016,6.838,5.729
1187,0.813,37.594,19.989,29.178,24.173,6.096,6.918,5.89
1188,0.823,37.716,20.055,29.188,24.173,6.138,6.959,5.77
1189,0.83,37.832,20.021,29.197,24.169,6.219,6.919,5.809
1190,0.81,37.948,19.9,29.188,24.173,6.058,6.919,5.85
1191,0.816,37.796,19.957,29.178,24.162,6.015,6.837,5.81
1192,0.839,37.958,19.977,29.197,24.176,6.096,6.918,5.891
1193,0.82,38.046,20.075,29.178,24.169,6.097,6.959,5.851
1194,0.8,37.615,20.006,29.207,24.169,6.138,7.0,5.891
1195,0.787,37.591,20.005,29.178,24.169,6.138,6.96,5.811
1196,0.806,37.716,20.028,29.188,24.169,6.138,6.96,5.81
1197,0.79,37.851,19.892,29.217,24.176,6.219,7.041,5.891
1198,0.803,37.536,19.98,29.198,24.166,6.139,6.96,5.892
1199,0.82,37.639,20.032,29.188,24.176,6.219,7.041,5.892
1200,0.8,37.774,20.032,29.169,24.166,6.139,6.879,5.811
1201,0.797,37.842,20.068,29.197,24.166,6.179,7.0,5.81
1202,0.813,37.661,19.963,29.198,24.173,6.301,7.082,5.891
1203,0.813,37.784,19.981,29.198,24.169,6.262,7.002,5.851
1204,0.816,37.89,20.048,29.217,24.173,6.221,7.041,5.891
1205,0.836,37.949,20.005,29.169,24.169,6.18,7.042,5.811
1206,0.817,37.557,19.978,29.169,24.166,6.22,7.082,5.81
1207,0.839,37.716,20.036,29.207,24.176,6.261,7.164,5.81
1208,0.846,37.813,20.017,29.178,24.169,6.262,7.124,5.81
1209,0.843,37.891,19.993,29.236,24.176,6.221,7.165,5.932
1210,0.8,37.633,19.973,29.179,24.162,6.098,7.124,5.73
1211,0.813,37.764,20.008,29.188,24.169,6.178,7.083,5.768
1212,0.823,37.909,20.079,29.217,24.183,6.261,7.286,5.85
1213,0.804,37.92,20.002,29.179,24.173,6.262,7.166,5.81
1214,0.797,37.518,20.013,29.197,24.18,6.262,7.124,5.85
1215,0.774,37.619,20.04,29.178,24.166,6.221,7.083,5.769
1216,0.787,37.774,19.962,29.188,24.173,6.302,7.123,5.85
1217,0.79,37.814,19.997,29.226,24.183,6.302,7.327,6.013
1218,0.787,37.699,20.016,29.188,24.173,6.18,7.167,5.812
1219,0.767,37.842,20.06,29.188,24.173,6.261,7.206,5.85
1220,0.796,37.939,20.033,29.178,24.169,6.221,7.125,5.729
1221,0.803,37.863,19.966,29.188,24.176,6.302,7.287,5.89
1222,0.8,37.699,19.977,29.207,24.183,6.343,7.369,5.933
1223,0.8,37.775,20.02,29.188,24.169,6.181,7.248,5.811
1224,0.807,37.919,19.943,29.197,24.176,6.261,7.369,5.932
1225,0.816,37.489,19.977,29.178,24.166,6.139,7.248,5.73
1226,0.833,37.513,20.008,29.188,24.18,6.219,7.41,5.809
1227,0.839,37.638,20.028,29.188,24.176,6.383,7.493,5.932
1228,0.813,37.726,19.986,29.178,24.166,6.181,7.412,5.73
1229,0.807,37.468,19.985,29.169,24.173,6.22,7.452,5.727
1230,0.803,37.58,20.028,29.169,24.169,6.18,7.412,5.809
1231,0.8,37.725,20.087,29.178,24.176,6.301,7.533,5.81
1232,0.803,37.775,20.064,29.197,24.173,6.262,7.534,5.932
1233,0.781,37.526,20.005,29.14,24.162,6.139,7.412,5.608
1234,0.79,37.677,20.009,29.178,24.176,6.219,7.493,5.726
1235,0.79,37.774,20.001,29.169,24.166,6.18,7.494,5.727
1236,0.79,37.871,19.981,29.178,24.176,6.22,7.575,5.85
1237,0.79,37.565,19.993,29.178,24.166,6.22,7.575,5.81
1238,0.764,37.687,20.036,29.159,24.155,6.058,7.413,5.647
1239,0.787,37.813,20.013,29.178,24.162,6.178,7.574,5.808
1240,0.806,37.891,19.966,29.169,24.166,6.139,7.454,5.769
1241,0.8,37.489,19.989,29.188,24.169,6.179,7.534,5.768
1242,0.803,37.609,20.001,29.178,24.166,6.139,7.494,5.768
1243,0.81,37.697,20.052,29.149,24.166,6.179,7.371,5.687
1244,0.803,37.784,20.033,29.178,24.173,6.179,7.452,5.727
1245,0.8,37.469,20.025,29.159,24.169,6.098,7.412,5.687
1246,0.816,37.628,20.048,29.178,24.169,6.178,7.493,5.809
1247,0.81,37.697,19.955,29.159,24.166,6.098,7.412,5.688
1248,0.803,37.746,20.0,29.168,24.159,6.138,7.371,5.727
1249,0.833,37.564,20.056,29.188,24.176,6.219,7.452,5.768
1250,0.813,37.658,20.095,29.178,24.169,6.18,7.371,5.728
1251,0.8,37.774,20.064,29.169,24.173,6.179,7.411,5.809
1252,0.794,38.447,19.943,29.178,24.166,6.017,7.289,5.688
1253,0.78,38.779,20.004,29.178,24.176,6.178,7.329,5.768
1254,0.81,38.917,20.059,29.207,24.183,6.261,7.492,5.891
1255,0.768,38.976,20.017,29.178,24.169,6.099,7.331,5.689
1256,0.796,37.001,19.966,29.169,24.176,6.138,7.289,5.727
1257,0.764,36.828,20.032,29.149,24.166,6.057,7.247,5.727
1258,0.793,36.989,20.021,29.187,24.18,6.178,7.206,5.687
1259,0.803,37.096,19.978,29.207,24.183,6.179,7.287,5.89
1260,0.79,37.519,19.973,29.159,24.169,6.098,7.125,5.689
1261,0.79,37.658,20.016,29.159,24.169,6.178,7.205,5.727
1262,0.793,37.774,20.005,29.149,24.169,6.098,7.125,5.727
1263,0.806,37.862,19.974,29.187,24.18,6.138,7.246,5.768
1264,0.813,37.316,19.993,29.178,24.176,6.179,7.247,5.85
1265,0.8,37.425,20.024,29.14,24.166,6.057,7.084,5.688
1266,0.826,37.561,19.986,29.168,24.173,6.137,7.123,5.687
1267,0.8,37.629,20.001,29.159,24.176,6.098,7.043,5.646
1268,0.807,37.361,20.016,29.178,24.176,6.178,7.082,5.808
1269,0.8,37.474,20.064,29.169,24.169,6.179,7.123,5.688
1270,0.774,37.561,20.033,29.14,24.155,6.017,6.88,5.646
1271,0.793,37.639,19.966,29.178,24.169,6.137,7.04,5.727
1272,0.777,37.371,19.981,29.169,24.166,6.138,7.042,5.768
1273,0.787,37.522,20.012,29.178,24.173,6.138,7.123,5.768
1274,0.777,37.591,20.04,29.159,24.166,6.057,7.043,5.728
1275,0.767,37.63,20.009,29.159,24.162,6.015,6.96,5.565
1276,0.787,37.448,20.028,29.168,24.173,6.137,7.082,5.766
1277,0.79,37.561,20.052,29.178,24.166,6.098,7.002,5.728
1278,0.79,37.687,19.955,29.178,24.176,6.178,7.041,5.809
1279,0.79,37.679,19.973,29.14,24.169,6.098,7.001,5.728
1280,0.784,37.467,19.997,29.159,24.159,6.056,7.001,5.646
1281,0.8,37.609,20.048,29.149,24.176,6.137,7.041,5.767
1282,0.781,37.707,20.068,29.149,24.169,6.057,7.001,5.687
1283,0.793,37.525,20.041,29.159,24.169,6.178,7.041,5.768
1284,0.784,37.389,20.005,29.149,24.166,6.057,7.001,5.687
1285,0.8,37.541,20.063,29.159,24.162,6.097,6.96,5.727
1286,0.829,37.667,20.044,29.178,24.176,6.138,7.082,5.687
1287,0.823,37.391,20.033,29.169,24.173,6.179,6.961,5.687
1288,0.804,37.455,20.052,29.178,24.173,6.098,7.041,5.687
1289,0.794,37.561,20.044,29.13,24.166,6.097,7.001,5.646
1290,0.793,37.687,19.951,29.178,24.18,6.178,7.001,5.767
1291,0.81,37.391,19.989,29.197,24.18,6.301,7.204,5.809
1292,0.777,37.465,20.012,29.169,24.162,6.14,7.043,5.769
1293,0.79,37.6,20.063,29.169,24.169,6.098,7.001,5.85
1294,0.777,37.649,20.025,29.14,24.169,6.097,6.96,5.729
1295,0.787,37.371,20.032,29.168,24.173,6.178,6.96,5.809
1296,0.8,37.503,20.056,29.197,24.187,6.22,7.163,5.932
1297,0.774,37.619,19.943,29.178,24.17,6.139,6.962,5.811
1298,0.79,37.697,19.985,29.169,24.176,6.179,6.96,5.81
1299,0.771,37.439,19.997,29.149,24.169,6.139,6.878,5.728
1300,0.78,37.571,20.075,29.159,24.176,6.179,6.959,5.809
1301,0.793,37.716,20.076,29.178,24.183,6.301,7.0,5.972
1302,0.793,37.727,19.974,29.169,24.169,6.18,6.879,5.771
1303,0.803,37.353,20.005,29.169,24.173,6.139,6.918,5.728
1304,0.8,37.483,20.052,29.14,24.162,6.179,6.796,5.687
1305,0.816,37.609,20.025,29.178,24.173,6.261,6.877,5.809
1306,0.829,37.649,20.021,29.178,24.18,6.302,6.959,5.891
1307,0.82,37.448,20.048,29.159,24.173,6.18,6.919,5.77
1308,0.807,37.571,20.029,29.159,24.169,6.139,6.878,5.768
1309,0.81,37.668,20.009,29.188,24.166,6.138,6.877,5.687
1310,0.81,37.688,20.009,29.178,24.176,6.179,6.877,5.809
1311,0.8,37.295,20.009,29.178,24.18,6.261,6.959,5.769
1312,0.794,37.416,20.079,29.13,24.162,6.058,6.716,5.687
1313,0.8,37.532,20.002,29.159,24.169,6.178,6.876,5.809
1314,0.781,37.437,20.005,29.14,24.173,6.179,6.837,5.769
1315,0.787,37.398,20.056,29.168,24.176,6.179,6.918,5.768
1316,0.767,37.513,19.962,29.14,24.173,6.22,6.878,5.85
1317,0.757,37.6,19.989,29.12,24.159,6.017,6.796,5.607
1318,0.774,37.169,20.036,29.149,24.169,6.178,6.917,5.808
1319,0.787,37.251,20.083,29.14,24.166,6.179,6.919,5.688
1320,0.787,37.367,20.037,29.149,24.176,6.179,7.041,5.809
1321,0.78,37.426,20.001,29.14,24.166,6.139,6.92,5.688
1322,0.797,37.388,20.001,29.12,24.166,6.057,6.878,5.687
1323,0.807,37.551,20.024,29.139,24.173,6.178,7.0,5.809
1324,0.8,37.658,19.997,29.159,24.166,6.179,6.96,5.769
1325,0.803,37.726,20.013,29.178,24.166,6.22,7.122,5.85
1326,0.787,37.257,20.032,29.149,24.166,6.18,7.002,5.729
1327,0.8,37.386,20.048,29.12,24.166,6.098,6.919,5.605
1328,0.81,37.58,19.986,29.178,24.169,6.219,7.122,5.726
1329,0.807,37.61,20.001,29.13,24.176,6.18,7.043,5.768
1330,0.79,37.4,20.044,29.159,24.176,6.179,7.123,5.809
1331,0.79,37.503,20.079,29.149,24.166,6.139,7.083,5.688
1332,0.793,37.638,20.099,29.149,24.166,6.219,7.205,5.727
1333,0.819,37.716,20.06,29.159,24.18,6.302,7.165,5.85
1334,0.784,37.362,20.037,29.149,24.169,6.221,7.124,5.769
1335,0.771,37.493,20.036,29.14,24.176,6.18,7.205,5.809
1336,0.774,37.6,20.005,29.13,24.169,6.139,7.043,5.688
1337,0.787,37.639,20.013,29.139,24.169,6.219,7.164,5.809
1338,0.793,37.333,20.079,29.187,24.187,6.342,7.368,5.85
1339,0.754,37.416,20.037,29.14,24.166,6.221,7.126,5.729
1340,0.783,37.542,19.993,29.139,24.173,6.261,7.165,5.768
1341,0.8,37.869,20.001,29.12,24.169,6.18,7.043,5.687
1342,0.8,37.258,20.016,29.149,24.176,6.301,7.204,5.809
1343,0.826,37.406,20.11,29.178,24.187,6.384,7.287,5.972
1344,0.804,37.465,20.041,29.14,24.176,6.181,7.166,5.771
1345,0.816,37.322,20.017,29.139,24.169,6.22,7.165,5.768
1346,0.8,37.301,20.044,29.13,24.162,6.302,7.043,5.728
1347,0.81,37.464,20.001,29.159,24.173,6.343,7.123,5.809
1348,0.816,37.561,20.013,29.149,24.18,6.384,7.287,5.932
1349,0.813,37.246,20.024,29.12,24.169,6.222,7.044,5.73
1350,0.81,37.348,20.064,29.139,24.176,6.302,7.164,5.727
1351,0.807,37.464,20.091,29.13,24.169,6.262,7.124,5.768
1352,0.794,37.561,19.978,29.139,24.18,6.302,7.205,5.809
1353,0.774,37.198,20.02,29.139,24.176,6.343,7.125,5.85
1354,0.78,37.271,20.064,29.111,24.162,6.221,6.961,5.729
1355,0.771,37.425,19.986,29.149,24.169,6.22,7.082,5.768
1356,0.79,37.503,20.001,29.14,24.169,6.22,7.042,5.768
1357,0.777,37.37,20.063,29.149,24.169,6.302,7.164,5.85
1358,0.767,37.474,20.048,29.13,24.169,6.302,7.084,5.81
1359,0.783,37.58,19.947,29.12,24.155,6.14,7.042,5.647
1360,0.774,37.677,20.0,29.149,24.176,6.301,7.164,5.849
1361,0.797,37.199,20.005,29.14,24.173,6.302,7.043,5.769
1362,0.797,37.348,20.056,29.168,24.173,6.302,7.164,5.809
1363,0.803,37.445,20.009,29.121,24.169,6.18,7.124,5.769
1364,0.807,37.503,20.024,29.12,24.169,6.179,7.043,5.687
1365,0.82,37.341,20.064,29.149,24.176,6.342,7.123,5.768
1366,0.8,37.454,20.017,29.13,24.173,6.221,7.165,5.768
1367,0.82,37.59,20.021,29.139,24.173,6.261,7.165,5.809
1368,0.81,37.601,20.044,29.12,24.169,6.262,7.084,5.728
1369,0.829,37.227,20.075,29.12,24.169,6.262,7.164,5.727
1370,0.807,37.386,20.08,29.158,24.169,6.262,7.165,5.809
1371,0.8,37.465,19.986,29.14,24.166,6.302,7.206,5.728
1372,0.8,37.82,20.016,29.149,24.183,6.302,7.165,5.809
1373,0.774,37.411,20.009,29.111,24.169,6.221,7.043,5.728
1374,0.813,37.532,20.024,29.139,24.173,6.342,7.082,5.809
1375,0.81,37.677,20.04,29.149,24.18,6.343,7.245,5.81
1376,0.768,37.257,20.048,29.12,24.176,6.181,7.125,5.85
1377,0.777,37.223,20.072,29.139,24.18,6.261,7.165,5.81
1378,0.78,37.329,19.99,29.139,24.166,6.262,7.124,5.769
1379,0.787,37.454,20.032,29.159,24.176,6.302,7.165,5.809
1380,0.813,37.101,20.06,29.178,24.176,6.384,7.287,5.972
1381,0.787,37.145,20.064,29.13,24.173,6.263,7.166,5.771
1382,0.787,37.28,20.072,29.139,24.176,6.302,7.206,5.809
1383,0.793,37.358,20.048,29.139,24.166,6.221,7.165,5.81
1384,0.8,37.157,20.017,29.149,24.18,6.383,7.287,5.85
1385,0.797,37.261,20.083,29.178,24.183,6.344,7.369,5.973
1386,0.803,37.406,20.01,29.14,24.176,6.262,7.208,5.811
1387,0.803,37.484,20.017,29.12,24.176,6.302,7.206,5.891
1388,0.794,37.216,20.075,29.111,24.169,6.221,7.125,5.77
1389,0.806,37.396,20.052,29.139,24.176,6.302,7.205,5.809
1390,0.797,37.513,19.986,29.168,24.18,6.343,7.328,5.972
1391,0.8,37.533,20.001,29.121,24.169,6.181,7.207,5.852
1392,0.787,37.015,20.02,29.111,24.169,6.22,7.247,5.851
1393,0.787,37.116,20.067,29.11,24.166,6.22,7.166,5.769
1394,0.78,37.26,20.048,29.139,24.18,6.261,7.246,5.85
1395,0.8,37.329,20.017,29.159,24.18,6.221,7.328,5.891
1396,0.768,37.368,20.079,29.111,24.166,6.18,7.207,5.811
1397,0.774,37.56,19.986,29.139,24.169,6.179,7.247,5.81
1398,0.777,37.658,20.02,29.13,24.169,6.179,7.247,5.769
1399,0.78,37.678,20.044,29.139,24.176,6.301,7.247,5.891
1400,0.797,37.122,20.103,29.149,24.176,6.18,7.288,5.892
1401,0.774,37.232,20.057,29.101,24.169,6.139,7.207,5.811
1402,0.777,37.377,19.994,29.12,24.173,6.179,7.247,5.932
1403,0.787,37.532,20.02,29.111,24.169,6.139,7.206,5.811
1404,0.8,37.322,20.087,29.139,24.176,6.301,7.206,5.891
1405,0.8,37.454,20.045,29.187,24.183,6.302,7.328,6.014
1406,0.794,37.542,20.017,29.14,24.169,6.099,7.207,5.852
1407,0.8,37.236,20.075,29.111,24.169,6.178,7.287,5.851
1408,0.813,37.223,20.037,29.11,24.169,6.139,7.247,5.769
1409,0.816,37.386,20.025,29.149,24.173,6.219,7.369,5.85
1410,0.803,37.465,20.021,29.14,24.176,6.22,7.37,5.851
1411,0.774,37.187,20.036,29.101,24.162,6.017,7.208,5.81
1412,0.78,37.309,20.075,29.13,24.176,6.178,7.287,5.891
1413,0.793,37.435,20.017,29.12,24.169,6.139,7.288,5.77
1414,0.787,37.532,20.017,29.149,24.18,6.138,7.41,5.809
1415,0.777,37.111,20.079,29.12,24.173,6.138,7.371,5.891
1416,0.784,37.203,19.998,29.101,24.162,6.016,7.208,5.689
1417,0.784,37.376,20.024,29.13,24.169,6.178,7.369,5.849
1418,0.758,37.436,20.032,29.13,24.169,6.098,7.37,5.81
1419,0.777,37.254,20.091,29.13,24.169,6.26,7.452,5.891
1420,0.784,37.377,20.053,29.13,24.159,6.139,7.371,5.811
1421,0.787,37.493,19.994,29.101,24.159,6.057,7.289,5.728
1422,0.819,37.562,20.024,29.11,24.169,6.097,7.451,5.85
1423,0.807,37.246,20.036,29.11,24.169,6.178,7.412,5.769
1424,0.794,37.386,20.013,29.139,24.18,6.22,7.452,5.891
1425,0.806,37.493,20.024,29.111,24.169,6.18,7.371,5.811
1426,0.794,37.514,20.067,29.12,24.169,6.139,7.33,5.769
1427,0.803,37.217,20.048,29.13,24.169,6.219,7.492,5.809
1428,0.816,37.348,20.025,29.139,24.176,6.22,7.494,5.891
1429,0.826,37.455,19.986,29.139,24.183,6.261,7.534,5.933
1430,0.794,37.465,20.024,29.101,24.166,6.18,7.412,5.77
1431,0.774,37.13,20.083,29.13,24.173,6.179,7.493,5.809
1432,0.806,37.27,20.107,29.139,24.18,6.301,7.494,5.891
1433,0.794,37.358,20.068,29.12,24.169,6.262,7.534,5.811
1434,0.767,37.416,20.056,29.12,24.176,6.262,7.534,5.891
1435,0.77,37.206,20.064,29.111,24.162,6.221,7.494,5.811
1436,0.78,37.367,20.041,29.11,24.162,6.18,7.534,5.728
1437,0.771,37.474,20.064,29.13,24.169,6.301,7.575,5.89
1438,0.78,37.159,20.087,29.13,24.166,6.18,7.616,5.851
1439,0.787,37.184,20.056,29.13,24.176,6.261,7.576,5.891
1440,0.78,37.29,19.939,29.101,24.166,6.221,7.494,5.811
1441,0.8,37.416,20.008,29.139,24.173,6.22,7.534,5.81
1442,0.794,37.254,20.032,29.178,24.183,6.424,7.657,5.932
1443,0.777,37.291,20.091,29.13,24.166,6.222,7.495,5.892
1444,0.803,37.435,20.064,29.13,24.173,6.302,7.534,5.892
1445,0.8,37.503,20.064,29.111,24.162,6.221,7.412,5.811
1446,0.807,37.111,20.095,29.139,24.176,6.383,7.452,5.81
1447,0.79,37.27,20.049,29.187,24.19,6.466,7.574,5.891
1448,0.806,37.367,20.017,29.111,24.176,6.304,7.413,5.811
1449,0.807,37.445,20.067,29.12,24.173,6.302,7.452,5.85
1450,0.774,37.139,20.08,29.101,24.169,6.18,7.29,5.769
1451,0.793,37.28,20.088,29.139,24.176,6.261,7.451,5.891
1452,0.78,37.416,20.01,29.168,24.18,6.343,7.452,5.933
1453,0.777,37.455,20.024,29.111,24.18,6.262,7.33,5.852
1454,0.78,37.187,20.087,29.11,24.169,6.262,7.289,5.81
1455,0.777,37.319,20.045,29.149,24.169,6.262,7.247,5.728
1456,0.777,37.445,20.06,29.13,24.176,6.384,7.328,5.89
1457,0.774,37.494,20.095,29.149,24.176,6.303,7.37,5.933
1458,0.767,37.092,20.072,29.092,24.156,6.18,7.126,5.73
1459,0.774,37.251,19.966,29.139,24.166,6.301,7.287,5.809
1460,0.784,37.367,20.028,29.111,24.159,6.221,7.166,5.81
1461,0.8,37.407,20.032,29.13,24.166,6.302,7.287,5.891
1462,0.777,37.177,20.071,29.12,24.166,6.262,7.207,5.811
1463,0.78,37.299,19.978,29.101,24.155,6.139,7.084,5.688
1464,0.79,37.435,20.032,29.13,24.166,6.219,7.164,5.809
1465,0.793,37.35,20.091,29.12,24.162,6.18,7.206,5.81
1466,0.8,37.215,19.994,29.139,24.166,6.261,7.206,5.932
1467,0.823,37.329,20.016,29.101,24.166,6.262,7.125,5.77
1468,0.81,37.435,20.056,29.101,24.162,6.18,7.165,5.687
1469,0.794,37.206,20.111,29.12,24.166,6.22,7.165,5.809
1470,0.803,37.242,20.057,29.12,24.162,6.261,7.124,5.81
1471,0.797,37.348,20.001,29.139,24.176,6.221,7.165,5.81
1472,0.787,37.445,20.032,29.101,24.169,6.18,7.084,5.769
1473,0.787,37.024,20.064,29.101,24.166,6.179,7.042,5.768
1474,0.8,37.154,20.005,29.13,24.169,6.22,7.204,5.85
1475,0.777,37.27,20.048,29.12,24.169,6.22,7.165,5.81
1476,0.8,37.348,20.076,29.101,24.176,6.261,7.165,5.81
1477,0.794,37.109,20.072,29.11,24.166,6.18,7.043,5.81
1478,0.758,37.251,19.97,29.13,24.166,6.22,7.001,5.728
1479,0.787,37.406,20.047,29.139,24.176,6.342,7.123,5.85
1480,0.803,37.446,20.072,29.111,24.169,6.221,7.043,5.769
1481,0.777,37.331,20.115,29.11,24.176,6.22,7.123,5.809
1482,0.784,37.426,20.107,29.101,24.166,6.18,7.043,5.769
1483,0.787,37.58,20.076,29.13,24.176,6.179,7.082,5.891
1484,0.81,37.668,20.064,29.159,24.187,6.301,7.205,5.973
1485,0.797,36.978,20.029,29.111,24.173,6.18,7.125,5.852
1486,0.8,37.134,20.044,29.091,24.18,6.22,7.124,5.851
1487,0.813,37.251,20.044,29.091,24.162,6.139,7.083,5.769
1488,0.813,37.3,20.111,29.101,24.176,6.219,7.164,5.85
1489,0.823,37.042,20.057,29.149,24.18,6.302,7.206,5.973
1490,0.797,37.135,20.068,29.149,24.169,6.14,7.165,5.811
1491,0.816,37.261,20.037,29.12,24.176,6.179,7.124,5.85
1492,0.79,37.281,20.048,29.082,24.166,6.139,7.083,5.769
1493,0.793,37.157,20.083,29.12,24.176,6.219,7.205,5.891
1494,0.803,37.29,20.041,29.13,24.187,6.261,7.206,5.973
1495,0.784,37.358,20.048,29.091,24.173,6.139,7.125,5.811
1496,0.787,37.32,20.072,29.11,24.176,6.179,7.124,5.81
1497,0.761,37.224,20.052,29.091,24.166,6.057,7.043,5.769
1498,0.774,37.367,20.04,29.129,24.18,6.259,7.123,5.85
1499,0.777,37.474,20.103,29.12,24.176,6.139,7.205,5.932
1500,0.767,37.101,20.103,29.063,24.159,6.098,7.003,5.811
1501,0.787,37.164,20.08,29.11,24.176,6.178,7.082,5.891
1502,0.797,37.29,20.029,29.177,24.169,6.139,7.123,5.811
1503,0.829,37.387,20.036,29.121,24.173,6.219,7.124,5.891
1504,0.83,37.071,20.068,29.13,24.18,6.261,7.205,5.973
1505,0.833,37.145,20.056,29.101,24.166,6.139,7.043,5.852
1506,0.839,37.299,20.064,29.11,24.176,6.138,7.123,5.851
1507,0.846,37.368,20.091,29.11,24.176,6.138,7.083,5.769
1508,0.859,37.004,20.002,29.11,24.18,6.219,7.164,5.931
1509,0.862,37.125,20.044,29.101,24.169,6.139,7.043,5.852
1510,0.856,37.251,20.036,29.082,24.166,6.057,6.96,5.729
1511,0.892,37.31,20.099,29.101,24.176,6.137,7.041,5.89
1512,0.866,37.023,20.123,29.091,24.173,6.179,7.042,5.851
1513,0.872,37.192,20.084,29.12,24.176,6.179,7.082,5.891
1514,0.885,37.28,20.033,29.091,24.169,6.098,7.042,5.811
1515,0.859,37.329,20.075,29.081,24.169,6.097,6.96,5.81
1516,0.895,36.994,20.076,29.12,24.176,6.178,7.082,5.85
1517,0.886,37.106,20.052,29.111,24.169,6.139,7.002,5.851
1518,0.885,37.241,20.111,29.11,24.169,6.138,7.082,5.932
1519,0.895,37.252,20.1,29.082,24.169,6.098,7.002,5.77
1520,0.905,37.108,20.037,29.11,24.169,6.138,7.123,5.891
1521,0.918,37.299,20.001,29.139,24.183,6.219,7.205,5.892
1522,0.941,37.358,20.044,29.111,24.173,6.18,7.003,5.851
1523,0.948,37.378,20.13,29.101,24.173,6.179,7.041,5.851
1524,0.945,36.966,20.072,29.101,24.173,6.139,7.042,5.81
1525,0.954,37.125,20.041,29.11,24.169,6.179,7.001,5.81
1526,0.964,37.251,20.122,29.13,24.176,6.22,7.163,5.972
1527,0.968,37.176,20.018,29.091,24.166,6.18,7.002,5.852
1528,0.964,37.165,20.044,29.11,24.176,6.139,7.001,5.891
1529,0.951,37.29,20.072,29.101,24.169,6.138,6.96,5.851
1530,0.958,37.396,20.115,29.091,24.176,6.098,6.96,5.851
1531,0.977,36.985,20.146,29.139,24.183,6.3,7.163,5.973
1532,0.935,37.0,20.049,29.111,24.169,6.099,6.962,5.893
1533,0.967,37.154,20.064,29.11,24.166,6.138,6.96,5.77
1534,0.968,37.213,20.072,29.101,24.162,6.057,6.878,5.768
1535,0.987,37.079,20.021,29.12,24.169,6.137,6.877,5.85
1536,0.984,37.203,20.064,29.13,24.18,6.179,7.04,6.013
1537,0.984,37.319,20.095,29.111,24.169,6.057,6.879,5.852
1538,0.978,37.387,20.107,29.11,24.169,6.056,6.959,5.81
1539,0.977,36.928,20.018,29.101,24.162,6.056,6.878,5.81
1540,0.997,37.096,20.028,29.12,24.176,6.137,6.959,5.81
1541,0.991,37.222,20.025,29.13,24.18,6.138,6.96,5.891
1542,0.984,37.252,20.075,29.082,24.162,6.016,6.797,5.811
1543,0.997,37.032,20.048,29.12,24.176,6.056,6.877,5.81
1544,0.981,37.173,20.068,29.091,24.169,6.137,6.837,5.769
1545,1.007,37.299,20.119,29.12,24.173,6.179,6.918,5.809
1546,0.994,37.349,20.057,29.111,24.176,6.098,6.919,5.81
1547,0.981,36.908,20.033,29.072,24.166,5.894,6.796,5.728
1548,0.997,37.086,20.087,29.11,24.162,6.095,6.877,5.809
1549,1.004,37.203,20.115,29.091,24.166,6.097,6.918,5.769
1550,0.978,37.252,20.104,29.11,24.169,6.056,7.0,5.891
1551,0.984,36.926,20.01,29.101,24.173,6.056,6.919,5.811
1552,0.948,37.057,20.024,29.082,24.162,5.975,6.878,5.688
1553,0.964,37.183,20.04,29.101,24.176,6.055,7.0,5.768
1554,0.958,37.223,20.064,29.101,24.169,5.975,6.96,5.768
1555,0.945,37.031,20.056,29.13,24.18,6.137,6.96,5.768
1556,0.938,37.097,20.08,29.111,24.162,6.057,6.878,5.728
1557,0.925,37.212,20.103,29.101,24.169,6.015,6.877,5.727
1558,0.938,37.166,20.025,29.139,24.18,6.096,7.04,5.85
1559,0.941,37.117,20.052,29.101,24.162,6.097,6.96,5.769
1560,0.954,37.26,20.06,29.101,24.176,6.056,6.919,5.728
1561,0.922,37.329,20.08,29.091,24.162,6.056,6.878,5.687
1562,0.935,36.898,20.119,29.081,24.173,6.137,6.918,5.809
1563,0.951,36.99,20.092,29.148,24.187,6.301,7.163,5.891
1564,0.938,37.096,20.064,29.111,24.176,6.099,6.962,5.77
1565,0.941,37.164,20.095,29.101,24.169,6.178,6.96,5.809
1566,0.912,36.868,20.064,29.101,24.173,6.139,6.919,5.688
1567,0.905,37.009,20.072,29.12,24.176,6.138,7.0,5.768
1568,0.912,37.125,20.107,29.13,24.183,6.341,7.041,5.85
1569,0.886,37.184,20.076,29.091,24.169,6.14,6.96,5.688
1570,0.869,36.858,19.998,29.11,24.176,6.179,7.0,5.768
1571,0.869,36.999,20.052,29.101,24.173,6.139,6.96,5.728
1572,0.853,37.115,20.083,29.12,24.176,6.179,7.041,5.809
1573,0.84,37.193,20.134,29.12,24.18,6.179,7.042,5.85
1574,0.823,36.897,20.076,29.082,24.166,5.976,6.879,5.688
1575,0.826,37.076,20.045,29.139,24.176,6.096,7.0,5.768
1576,0.83,37.164,20.118,29.101,24.169,6.138,6.96,5.647
1577,0.826,37.242,20.006,29.13,24.173,6.219,6.96,5.727
1578,0.8,36.993,20.048,29.111,24.169,6.18,6.96,5.768
1579,0.777,37.096,20.091,29.082,24.162,6.057,6.878,5.647
1580,0.797,37.222,20.131,29.081,24.18,6.178,7.0,5.727
1581,0.797,37.252,20.127,29.101,24.169,6.098,6.96,5.768
1582,0.8,36.984,20.029,29.12,24.176,6.178,7.041,5.768
1583,0.794,37.077,20.048,29.082,24.169,6.098,6.96,5.728
1584,0.797,37.183,20.111,29.101,24.173,6.138,6.878,5.646
1585,0.816,37.606,20.076,29.11,24.173,6.219,7.0,5.808
1586,0.813,37.083,20.056,29.101,24.166,6.18,7.001,5.647
1587,0.81,37.212,20.103,29.101,24.176,6.22,7.001,5.727
1588,0.8,37.29,20.045,29.101,24.173,6.139,6.919,5.687
1589,0.803,36.946,20.048,29.101,24.162,6.098,6.878,5.687
1590,0.807,36.904,20.056,29.11,24.18,6.178,6.959,5.768
1591,0.777,36.999,20.103,29.11,24.176,6.179,6.96,5.768
1592,0.787,37.115,20.135,29.101,24.173,6.139,6.96,5.809
1593,0.754,37.05,20.022,29.101,24.176,6.057,6.96,5.688
1594,0.757,37.164,20.067,29.101,24.166,6.137,7.041,5.687
1595,0.767,37.338,20.123,29.139,24.176,6.341,7.204,5.849
1596,0.774,37.407,20.065,29.13,24.169,6.181,7.084,5.729
1597,0.751,36.822,20.052,29.111,24.176,6.261,7.123,5.85
1598,0.757,36.922,20.099,29.11,24.166,6.139,7.043,5.729
1599,0.751,37.067,20.119,29.12,24.18,6.26,7.204,5.768
1600,0.777,37.135,20.065,29.13,24.187,6.302,7.328,5.891
1601,0.754,36.868,19.962,29.12,24.176,6.221,7.207,5.77
1602,0.77,37.009,20.067,29.12,24.169,6.261,7.247,5.85
1603,0.764,37.106,20.115,29.101,24.173,6.221,7.206,5.769
1604,0.774,37.174,20.104,29.13,24.176,6.261,7.287,5.891
1605,0.78,36.858,20.076,29.139,24.183,6.424,7.369,5.973
1606,0.767,36.941,20.111,29.101,24.173,6.263,7.289,5.771
1607,0.767,37.067,20.002,29.101,24.176,6.262,7.288,5.728
1608,0.774,37.097,20.048,29.101,24.166,6.18,7.288,5.768
1609,0.8,36.982,20.087,29.11,24.176,6.301,7.329,5.85
1610,0.774,37.134,20.127,29.12,24.18,6.262,7.37,5.973
1611,0.748,37.203,20.119,29.091,24.169,6.18,7.248,5.73
1612,0.744,37.252,20.061,29.101,24.176,6.261,7.288,5.809
1613,0.741,36.773,20.056,29.11,24.169,6.221,7.166,5.728
1614,0.741,36.95,20.13,29.13,24.176,6.342,7.368,5.89
1615,0.744,37.057,20.01,29.13,24.176,6.343,7.33,5.892
1616,0.738,37.298,20.067,29.082,24.169,6.221,7.289,5.729
1617,0.744,36.946,20.111,29.11,24.169,6.302,7.288,5.809
1618,0.738,37.038,20.103,29.11,24.169,6.18,7.247,5.769
1619,0.754,37.173,20.033,29.12,24.176,6.342,7.328,5.809
1620,0.754,36.868,20.052,29.101,24.18,6.262,7.329,5.85
1621,0.757,36.836,20.056,29.091,24.166,6.221,7.207,5.729
1622,0.774,37.008,20.08,29.101,24.173,6.342,7.328,5.85
1623,0.784,37.077,20.064,29.101,24.166,6.262,7.248,5.729
1624,0.826,36.829,20.052,29.13,24.18,6.343,7.41,5.809
1625,0.81,36.941,20.119,29.12,24.173,6.343,7.411,5.891
1626,0.813,37.019,20.025,29.091,24.169,6.221,7.249,5.729
1627,0.826,37.135,20.071,29.11,24.173,6.302,7.328,5.768
1628,0.849,36.762,20.111,29.101,24.166,6.262,7.289,5.768
1629,0.872,36.883,20.139,29.11,24.176,6.343,7.41,5.768
1630,0.889,37.018,20.088,29.11,24.169,6.303,7.289,5.85
1631,0.902,37.039,19.986,29.082,24.162,6.221,7.166,5.688
1632,0.931,36.876,20.055,29.12,24.173,6.302,7.287,5.809
1633,0.974,37.018,20.072,29.101,24.176,6.221,7.288,5.769
1634,1.016,37.144,20.033,29.11,24.176,6.302,7.288,5.768
1635,1.053,37.203,20.087,29.11,24.173,6.221,7.288,5.768
1636,1.115,36.887,20.111,29.101,24.159,6.22,7.207,5.687
1637,1.171,37.038,20.1,29.101,24.176,6.302,7.328,5.809
1638,1.22,37.164,20.092,29.158,24.169,6.262,7.248,5.728
1639,1.247,37.213,20.068,29.13,24.176,6.384,7.328,5.85
1640,1.266,36.734,20.111,29.111,24.169,6.344,7.207,5.769
1641,1.289,36.892,20.115,29.101,24.166,6.303,7.287,5.728
1642,1.309,37.019,20.143,29.12,24.166,6.343,7.329,5.809
1643,1.345,37.029,20.069,29.12,24.176,6.343,7.289,5.769
1644,1.371,36.943,20.076,29.111,24.18,6.384,7.329,5.809
1645,1.355,37.048,20.056,29.11,24.169,6.303,7.248,5.769
1646,1.342,37.183,20.08,29.11,24.173,6.343,7.206,5.687
1647,1.329,37.204,20.099,29.139,24.176,6.466,7.369,5.849
1648,1.329,36.753,20.115,29.111,24.169,6.345,7.33,5.729
1649,1.309,36.902,20.08,29.11,24.176,6.343,7.41,5.768
1650,1.335,36.99,20.072,29.12,24.166,6.303,7.289,5.728
1651,1.329,36.924,20.099,29.12,24.18,6.425,7.41,5.809
1652,1.352,37.0,20.099,29.149,24.183,6.548,7.411,5.891
1653,1.352,37.087,20.107,29.13,24.176,6.427,7.289,5.77
1654,1.362,37.174,20.088,29.12,24.173,6.385,7.329,5.809
1655,1.339,36.772,20.095,29.101,24.169,6.303,7.289,5.728
1656,1.368,36.873,20.127,29.13,24.176,6.384,7.329,5.768
1657,1.316,37.038,20.111,29.159,24.187,6.466,7.451,6.013
1658,1.267,37.087,20.061,29.111,24.17,6.467,7.33,5.852
1659,1.205,36.704,20.119,29.12,24.173,6.386,7.41,5.851
1660,1.175,36.806,20.146,29.101,24.162,6.303,7.33,5.769
1661,1.136,36.96,20.131,29.13,24.173,6.384,7.451,5.85
1662,1.099,37.048,20.03,29.13,24.176,6.466,7.493,5.932
1663,1.073,36.761,20.075,29.12,24.166,6.304,7.29,5.811
1664,1.05,36.893,20.134,29.111,24.169,6.343,7.41,5.891
1665,1.027,37.028,20.084,29.11,24.18,6.343,7.289,5.729
1666,0.965,37.116,20.088,29.139,24.176,6.384,7.41,5.89
1667,0.909,36.81,20.146,29.12,24.173,6.425,7.452,5.933
1668,0.843,36.903,20.069,29.101,24.169,6.263,7.29,5.852
1669,0.82,37.067,20.064,29.12,24.173,6.302,7.369,5.81
1670,0.774,37.097,20.083,29.111,24.176,6.262,7.289,5.81
1671,0.728,36.771,20.134,29.12,24.173,6.343,7.329,5.891
1672,0.672,36.893,20.143,29.12,24.176,6.303,7.289,5.933
1673,0.61,36.971,20.049,29.082,24.159,6.18,7.207,5.689
1674,0.574,37.019,20.091,29.12,24.169,6.342,7.287,5.809
1675,0.518,36.828,20.142,29.101,24.173,6.343,7.288,5.81
1676,0.452,36.989,20.073,29.13,24.176,6.384,7.369,5.891
1677,0.37,37.077,20.084,29.111,24.169,6.303,7.289,5.811
1678,0.327,36.963,20.107,29.101,24.169,6.221,7.166,5.769
1679,0.294,36.684,20.127,29.12,24.169,6.342,7.287,5.809
1680,0.258,36.815,20.069,29.12,24.169,6.303,7.288,5.728
1681,0.251,36.922,20.005,29.139,24.173,6.302,7.207,5.89
1682,0.277,36.789,20.063,29.101,24.162,6.262,7.206,5.77
1683,0.304,36.845,20.119,29.12,24.159,6.221,7.165,5.768
1684,0.356,37.008,20.076,29.12,24.173,6.342,7.246,5.85
1685,0.412,37.096,20.084,29.111,24.173,6.343,7.247,5.81
1686,0.412,36.752,20.115,29.12,24.173,6.303,7.247,5.932
1687,0.409,36.825,20.068,29.101,24.166,6.343,7.125,5.73
1688,0.442,36.989,20.064,29.12,24.169,6.303,7.165,5.85
1689,0.452,37.106,20.087,29.149,24.18,6.384,7.206,5.891
1690,0.452,36.829,20.111,29.12,24.173,6.385,7.125,5.892
1691,0.462,36.979,20.143,29.13,24.176,6.303,7.165,5.933
1692,0.465,37.077,20.115,29.12,24.173,6.262,7.084,5.811
1693,0.484,37.174,20.096,29.12,24.176,6.262,7.083,5.932
1694,0.52,36.743,20.15,29.168,24.173,6.384,7.205,6.055
1695,0.54,36.825,20.088,29.13,24.166,6.303,7.084,5.893
1696,0.56,36.979,20.08,29.12,24.183,6.302,7.042,5.933
1697,0.573,37.019,20.095,29.111,24.169,6.262,6.92,5.974
1698,0.609,36.713,20.135,29.13,24.176,6.343,7.122,5.974
1699,0.636,36.882,20.069,29.159,24.183,6.384,7.124,6.096
1700,0.665,36.951,20.076,29.111,24.169,6.303,7.002,5.975
1701,0.724,37.019,20.06,29.139,24.176,6.343,7.001,5.974
1702,0.708,36.751,20.122,29.12,24.169,6.221,6.919,5.974
1703,0.737,36.902,20.065,29.139,24.173,6.342,6.959,6.015
1704,0.76,37.019,20.126,29.159,24.19,6.466,7.082,6.178
1705,0.767,37.02,20.143,29.14,24.17,6.223,6.88,5.976
1706,0.767,36.723,20.057,29.12,24.176,6.342,6.877,5.974
1707,0.78,36.854,20.068,29.111,24.166,6.262,6.877,5.974
1708,0.78,36.98,20.13,29.149,24.183,6.343,6.959,5.974
1709,0.79,36.924,20.158,29.14,24.183,6.384,6.96,6.015
1710,0.774,36.76,20.077,29.111,24.173,6.181,6.838,5.974
1711,0.774,36.94,20.037,29.139,24.173,6.261,6.877,5.974
1712,0.78,37.019,20.06,29.13,24.169,6.221,6.796,5.933
1713,0.777,36.79,20.095,29.139,24.173,6.261,6.917,6.096
1714,0.777,36.826,20.056,29.139,24.18,6.343,6.919,6.097
1715,0.745,36.932,20.072,29.101,24.156,6.181,6.756,5.975
1716,0.773,37.057,20.107,29.139,24.173,6.261,6.836,6.015
1717,0.767,36.704,20.1,29.12,24.166,6.221,6.796,6.015
1718,0.761,36.834,20.08,29.149,24.176,6.261,6.917,6.056
1719,0.764,36.941,20.068,29.13,24.173,6.262,6.878,6.015
1720,0.767,37.019,20.099,29.091,24.162,6.139,6.796,5.893
1721,0.764,36.742,20.174,29.149,24.173,6.301,6.917,6.014
1722,0.774,36.864,20.143,29.13,24.176,6.262,6.878,5.974
1723,0.787,37.009,20.115,29.159,24.173,6.384,6.959,6.055
1724,0.784,37.068,20.135,29.149,24.176,6.222,6.919,5.975
1725,0.79,36.598,20.065,29.12,24.159,6.139,6.837,5.893
1726,0.806,36.757,20.076,29.149,24.173,6.301,7.04,6.054
1727,0.807,36.883,20.111,29.13,24.173,6.302,6.96,5.975
1728,0.794,36.942,20.174,29.149,24.169,6.302,7.0,6.055
1729,0.8,36.76,20.1,29.13,24.173,6.221,7.041,6.056
1730,0.781,36.873,20.107,29.12,24.162,6.139,6.92,5.893
1731,0.8,37.038,20.088,29.149,24.176,6.301,7.041,6.054
1732,0.807,37.058,20.095,29.13,24.176,6.262,6.96,5.975
1733,0.794,36.617,20.107,29.159,24.176,6.302,7.041,6.015
1734,0.764,36.747,20.111,29.14,24.169,6.302,7.001,6.015
1735,0.78,36.864,20.092,29.12,24.159,6.14,6.919,5.812
1736,0.777,36.874,20.115,29.158,24.169,6.301,7.081,5.972
1737,0.774,36.798,20.096,29.159,24.173,6.302,7.083,5.933
1738,0.774,36.96,20.099,29.168,24.176,6.262,7.083,5.974
1739,0.78,37.019,20.142,29.14,24.169,6.221,6.961,5.974
1740,0.767,36.828,20.162,29.149,24.169,6.22,7.0,5.893
1741,0.78,36.701,20.131,29.149,24.173,6.342,7.041,6.014
1742,0.767,36.815,20.018,29.159,24.166,6.221,7.082,5.974
1743,0.79,36.941,20.071,29.149,24.183,6.342,7.042,5.974
1744,0.803,36.578,20.111,29.13,24.169,6.181,7.001,5.974
1745,0.797,36.622,20.115,29.149,24.162,6.179,6.919,5.893
1746,0.803,36.786,20.076,29.159,24.162,6.22,7.041,5.973
1747,0.794,36.845,20.162,29.149,24.169,6.302,7.042,5.933
1748,0.806,36.692,20.084,29.159,24.166,6.302,7.082,5.933
1749,0.803,36.825,20.095,29.13,24.159,6.18,7.002,5.933
1750,0.79,36.941,20.092,29.159,24.159,6.22,6.96,5.933
1751,0.816,37.048,20.158,29.197,24.18,6.342,7.122,6.014
1752,0.8,36.915,20.178,29.169,24.176,6.181,6.961,5.893
1753,0.787,37.028,20.069,29.188,24.176,6.22,7.082,5.933
1754,0.79,37.145,20.076,29.15,24.169,6.139,7.042,5.852
1755,0.784,37.194,20.142,29.168,24.176,6.219,7.164,5.973
1756,0.793,36.58,20.1,29.226,24.19,6.342,7.246,6.015
1757,0.784,36.68,20.084,29.179,24.166,6.221,7.084,5.934
1758,0.787,36.805,20.131,29.178,24.176,6.22,7.123,5.933
1759,0.774,36.855,20.147,29.149,24.166,6.139,7.043,5.852
1760,0.784,36.654,20.108,29.178,24.173,6.219,7.164,5.891
1761,0.793,36.786,20.08,29.178,24.176,6.18,7.206,6.014
1762,0.784,36.874,20.08,29.149,24.176,6.22,7.084,5.852
1763,0.793,36.922,20.134,29.178,24.173,6.18,7.123,5.932
1764,0.816,36.674,20.084,29.169,24.169,6.179,7.083,5.852
1765,0.807,36.815,20.103,29.188,24.173,6.22,7.205,5.891
1766,0.803,36.903,20.131,29.178,24.169,6.22,7.125,5.933
1767,0.807,36.875,20.092,29.14,24.162,6.017,7.043,5.811
1768,0.807,36.731,20.095,29.187,24.176,6.178,7.082,5.85
1769,0.816,36.854,20.096,29.178,24.169,6.22,7.083,5.81
1770,0.829,36.98,20.135,29.178,24.173,6.22,7.164,5.891
1771,0.8,36.732,20.139,29.178,24.166,6.18,7.084,5.851
1772,0.8,36.643,20.139,29.14,24.173,6.017,6.961,5.688
1773,0.807,36.795,20.1,29.178,24.176,6.178,7.163,5.849
1774,0.794,36.902,20.115,29.169,24.173,6.179,7.043,5.851
1775,0.784,36.712,20.119,29.169,24.169,6.22,7.082,5.851
1776,0.793,36.787,20.096,29.159,24.169,6.098,7.042,5.81
1777,0.8,36.941,20.127,29.159,24.173,6.178,7.123,5.769
1778,0.803,37.057,20.166,29.197,24.183,6.22,7.287,5.931
1779,0.8,36.57,20.085,29.188,24.169,6.18,7.125,5.852
1780,0.79,36.68,20.099,29.207,24.173,6.179,7.205,5.851
1781,0.797,36.805,20.088,29.178,24.166,6.139,7.084,5.729
1782,0.82,36.912,20.107,29.188,24.176,6.179,7.083,5.89
1783,0.836,36.626,20.154,29.197,24.183,6.261,7.327,6.014
1784,0.817,36.738,20.123,29.178,24.173,6.18,7.167,5.852
1785,0.826,36.864,20.143,29.178,24.166,6.179,7.084,5.851
1786,0.807,36.913,20.104,29.169,24.169,6.139,7.083,5.769
1787,0.813,36.606,20.103,29.178,24.18,6.219,7.245,5.891
1788,0.833,36.728,20.119,29.207,24.183,6.261,7.328,5.811
1789,0.833,36.825,20.166,29.169,24.176,6.099,7.167,5.85
1790,0.823,36.874,20.139,29.178,24.173,6.178,7.206,5.851
1791,0.807,36.625,20.045,29.169,24.173,6.179,7.043,5.81
1792,0.8,36.805,20.072,29.197,24.176,6.179,7.204,5.891
1793,0.797,36.922,20.072,29.188,24.18,6.22,7.287,5.933
1794,0.794,36.904,20.095,29.14,24.166,6.017,7.044,5.77
1795,0.803,36.568,20.096,29.187,24.169,6.096,7.164,5.85
1796,0.794,36.699,20.135,29.159,24.173,6.138,7.124,5.81
1797,0.787,36.815,20.143,29.197,24.176,6.219,7.124,5.85
1798,0.8,37.018,20.006,29.188,24.176,6.139,7.124,5.81
1799,0.781,37.499,20.083,29.14,24.159,6.057,7.002,5.728
1800,0.8,37.658,20.115,29.168,24.176,6.219,7.041,5.809
1801,0.816,37.745,20.158,29.188,24.176,6.18,7.042,5.728
1802,0.82,36.615,20.163,29.178,24.176,6.179,7.042,5.85
1803,0.813,36.239,20.112,29.169,24.173,6.139,7.042,5.81
1804,0.8,36.36,20.119,29.149,24.169,6.016,6.879,5.688
1805,0.826,36.486,20.096,29.178,24.173,6.137,7.04,5.809
1806,0.83,36.679,20.107,29.178,24.173,6.179,6.96,5.769
1807,0.836,36.805,20.154,29.188,24.173,6.22,7.041,5.809
1808,0.849,36.912,20.162,29.159,24.166,6.098,7.001,5.728
1809,0.823,37.009,20.084,29.168,24.166,6.056,6.879,5.687
1810,0.823,36.464,20.119,29.178,24.173,6.178,6.918,5.768
1811,0.826,36.592,20.104,29.178,24.169,6.139,7.0,5.728
1812,0.83,36.709,20.123,29.197,24.176,6.219,6.96,5.768
1813,0.817,36.758,20.115,29.15,24.166,6.058,6.878,5.728
1814,0.82,36.567,20.119,29.178,24.169,6.137,6.877,5.768
1815,0.823,36.756,20.17,29.207,24.183,6.26,7.0,5.809
1816,0.813,36.845,20.096,29.178,24.169,6.139,6.879,5.769
1817,0.833,36.903,20.107,29.197,24.18,6.138,6.918,5.768
1818,0.797,36.539,20.088,29.178,24.166,6.179,6.878,5.728
1819,0.816,36.708,20.158,29.197,24.173,6.179,6.959,5.687
1820,0.826,36.834,20.182,29.226,24.18,6.342,7.122,5.849
1821,0.833,36.845,20.12,29.188,24.169,6.14,6.921,5.769
1822,0.826,36.539,20.131,29.188,24.169,6.138,6.878,5.728
1823,0.846,36.679,20.065,29.178,24.173,6.098,6.877,5.727
1824,0.84,36.805,20.154,29.197,24.176,6.219,7.0,5.768
1825,0.856,36.845,20.116,29.236,24.187,6.342,7.082,5.85
1826,0.843,36.558,20.115,29.179,24.17,6.14,7.002,5.729
1827,0.866,36.699,20.178,29.207,24.173,6.179,7.041,5.768
1828,0.84,36.796,20.077,29.198,24.169,6.139,6.96,5.647
1829,0.856,37.181,20.095,29.198,24.176,6.219,7.082,5.808
1830,0.859,36.59,20.115,29.226,24.183,6.261,7.083,5.81
1831,0.833,36.68,20.158,29.188,24.169,6.139,6.961,5.728
1832,0.846,36.815,20.182,29.217,24.176,6.138,7.0,5.768
1833,0.827,36.663,20.131,29.188,24.173,6.138,6.96,5.687
1834,0.82,36.69,20.123,29.217,24.176,6.138,7.0,5.809
1835,0.823,36.806,20.147,29.217,24.176,6.179,7.041,5.81
1836,0.826,36.874,20.116,29.179,24.169,6.057,6.879,5.688
1837,0.83,36.385,20.115,29.217,24.169,6.137,6.959,5.809
1838,0.823,36.438,20.154,29.217,24.166,6.098,6.919,5.769
1839,0.823,36.582,20.166,29.236,24.176,6.097,7.041,5.728
1840,0.839,36.67,20.088,29.227,24.176,6.138,6.96,5.727
1841,0.836,36.46,20.103,29.198,24.162,6.057,6.838,5.687
1842,0.843,36.611,20.099,29.217,24.176,6.137,6.958,5.768
1843,0.856,36.709,20.166,29.217,24.166,6.057,6.919,5.728
1844,0.856,36.806,20.135,29.284,24.18,6.178,6.959,5.809
1845,0.856,36.414,20.119,29.237,24.169,6.098,6.838,5.769
1846,0.856,36.525,20.154,29.198,24.169,6.056,6.796,5.647
1847,0.869,36.66,20.108,29.226,24.169,6.097,6.877,5.808
1848,0.869,36.729,20.107,29.217,24.176,6.097,6.918,5.769
1849,0.885,36.585,20.135,29.226,24.173,6.138,6.959,5.809
1850,0.859,36.68,20.174,29.217,24.173,6.098,6.838,5.728
1851,0.859,36.825,20.194,29.207,24.173,5.975,6.837,5.687
1852,0.849,36.903,20.128,29.236,24.176,6.137,6.958,5.809
1853,0.843,36.405,20.104,29.236,24.176,6.057,6.878,5.81
1854,0.859,36.544,20.174,29.236,24.169,6.015,6.877,5.769
1855,0.846,36.632,20.077,29.217,24.173,6.015,6.837,5.647
1856,0.846,36.69,20.107,29.255,24.176,6.056,6.918,5.727
1857,0.84,36.595,20.158,29.236,24.18,6.137,6.959,5.768
1858,0.836,36.718,20.182,29.255,24.18,6.057,6.919,5.728
1859,0.849,36.844,20.065,29.246,24.169,6.056,6.959,5.809
1860,0.84,36.98,20.099,29.227,24.162,6.015,7.0,5.688
1861,0.852,36.473,20.096,29.246,24.176,6.137,7.001,5.687
1862,0.869,36.64,20.158,29.265,24.183,6.219,7.123,5.849
1863,0.859,36.7,20.139,29.246,24.176,6.098,7.043,5.769
1864,0.869,36.614,20.135,29.256,24.173,6.138,7.082,5.809
1865,0.863,36.651,20.162,29.246,24.173,6.016,7.123,5.769
1866,0.872,36.776,20.151,29.256,24.176,6.137,7.083,5.809
1867,0.885,36.902,20.135,29.275,24.187,6.26,7.286,5.932
1868,0.885,36.357,20.119,29.237,24.173,6.139,7.085,5.73
1869,0.876,36.457,20.186,29.255,24.173,6.179,7.123,5.768
1870,0.859,36.564,20.163,29.246,24.173,6.098,7.002,5.728
1871,0.862,36.66,20.124,29.265,24.173,6.178,7.163,5.727
1872,0.862,36.412,20.108,29.265,24.176,6.139,7.124,5.89
1873,0.849,36.515,20.103,29.246,24.162,5.976,7.083,5.729
1874,0.853,36.641,20.146,29.256,24.169,6.096,7.083,5.768
1875,0.859,36.738,20.119,29.256,24.159,6.097,7.042,5.687
1876,0.856,36.442,20.123,29.265,24.166,6.056,7.082,5.768
1877,0.856,36.563,20.154,29.256,24.162,6.137,7.123,5.768
1878,0.859,36.67,20.065,29.246,24.159,6.016,6.961,5.606
1879,0.856,36.757,20.115,29.275,24.162,6.096,7.082,5.808
1880,0.869,36.423,20.127,29.256,24.159,6.138,7.042,5.688
1881,0.879,36.563,20.174,29.265,24.169,6.138,7.082,5.768
1882,0.863,36.66,20.174,29.256,24.166,6.098,7.002,5.728
1883,0.879,36.719,20.112,29.265,24.162,6.016,6.96,5.687
1884,0.895,36.595,20.111,29.275,24.173,6.137,7.041,5.727
1885,0.879,36.709,20.162,29.275,24.169,6.098,6.96,5.727
1886,0.885,36.844,20.151,29.275,24.166,6.138,7.041,5.768
1887,0.889,36.836,20.119,29.246,24.162,6.057,6.96,5.687
1888,0.895,36.51,20.193,29.265,24.166,6.097,6.919,5.687
1889,0.905,36.689,20.167,29.304,24.176,6.219,7.041,5.809
1890,0.899,36.758,20.073,29.275,24.169,6.139,6.96,5.769
1891,0.886,36.835,20.107,29.294,24.173,6.138,6.96,5.728
1892,0.876,36.577,20.088,29.275,24.173,6.098,6.838,5.687
1893,0.879,36.718,20.127,29.294,24.176,6.138,6.918,5.768
1894,0.879,36.873,20.162,29.361,24.187,6.179,7.041,5.891
1895,0.863,36.52,20.12,29.276,24.176,6.057,6.96,5.729
1896,0.879,36.545,20.189,29.294,24.173,6.097,6.96,5.809
1897,0.869,36.67,20.1,29.285,24.169,6.097,6.878,5.728
1898,0.869,36.786,20.127,29.285,24.176,6.178,6.959,5.85
1899,0.869,36.519,20.15,29.313,24.187,6.261,7.041,5.891
1900,0.872,36.593,20.182,29.275,24.176,6.139,6.879,5.648
1901,0.869,36.728,20.202,29.313,24.18,6.179,6.918,5.767
1902,0.869,36.806,20.077,29.285,24.169,6.098,6.878,5.728
1903,0.879,36.567,20.115,29.294,24.176,6.178,6.959,5.727
1904,0.889,36.708,20.193,29.314,24.18,6.301,7.0,5.89
1905,0.889,36.806,20.147,29.304,24.173,6.18,6.919,5.729
1906,0.889,36.893,20.131,29.304,24.18,6.139,6.919,5.768
1907,0.892,36.501,20.182,29.275,24.166,6.138,6.796,5.647
1908,0.899,36.65,20.128,29.323,24.176,6.179,6.877,5.808
1909,0.921,36.805,20.135,29.314,24.176,6.22,6.959,5.81
1910,0.889,36.826,20.108,29.295,24.169,6.058,6.838,5.769
1911,0.892,36.864,20.158,29.294,24.176,6.178,6.918,5.728
1912,0.879,37.009,20.166,29.304,24.166,6.179,6.837,5.687
1913,0.885,37.135,20.1,29.314,24.173,6.179,6.958,5.768
1914,0.869,37.155,20.115,29.304,24.176,6.179,6.919,5.728
1915,0.863,36.695,20.178,29.275,24.166,6.098,6.837,5.646
1916,0.843,36.853,20.159,29.323,24.169,6.178,6.877,5.767
1917,0.856,36.98,20.116,29.323,24.173,6.179,6.877,5.728
1918,0.866,37.01,20.158,29.333,24.176,6.22,6.959,5.809
1919,0.866,36.78,20.17,29.304,24.169,6.22,6.797,5.728
1920,0.882,36.921,20.12,29.294,24.166,6.098,6.795,5.565
1921,0.879,37.028,20.088,29.314,24.176,6.219,6.917,5.807
1922,0.869,37.077,20.127,29.323,24.169,6.22,6.796,5.688
1923,0.872,36.982,20.147,29.333,24.176,6.18,6.917,5.809
1924,0.885,37.096,20.123,29.314,24.169,6.22,6.837,5.81
1925,0.885,37.174,20.119,29.295,24.159,6.139,6.837,5.647
1926,0.889,36.753,20.174,29.333,24.173,6.179,6.918,5.808
1927,0.892,36.739,20.155,29.323,24.173,6.098,6.878,5.647
1928,0.902,36.883,20.131,29.333,24.169,6.219,6.918,5.808
1929,0.882,36.961,20.1,29.314,24.166,6.18,6.919,5.688
1930,0.889,36.981,20.135,29.295,24.169,6.098,6.837,5.646
1931,0.892,37.144,20.197,29.333,24.173,6.219,6.958,5.727
1932,0.886,37.251,20.171,29.333,24.173,6.22,6.96,5.768
1933,0.876,37.339,20.178,29.352,24.176,6.22,7.082,5.809
1934,0.863,37.042,20.163,29.314,24.169,6.18,6.961,5.769
1935,0.853,37.173,20.135,29.323,24.176,6.139,7.0,5.768
1936,0.879,37.328,20.143,29.362,24.176,6.26,7.123,5.809
1937,0.866,37.378,20.143,29.343,24.173,6.221,7.043,5.81
1938,0.849,37.1,20.186,29.343,24.173,6.18,7.164,5.81
1939,0.84,37.212,20.128,29.324,24.169,6.139,7.084,5.769
1940,0.862,37.367,20.115,29.371,24.173,6.138,7.164,5.768
1941,0.892,37.436,20.143,29.372,24.183,6.301,7.328,5.85
1942,0.882,37.139,20.135,29.333,24.176,6.262,7.207,5.769
1943,0.889,37.28,20.19,29.343,24.169,6.139,7.287,5.809
1944,0.879,37.416,20.147,29.333,24.176,6.057,7.207,5.688
1945,0.889,37.436,20.155,29.362,24.169,6.219,7.287,5.809
1946,0.902,37.197,20.178,29.391,24.187,6.302,7.369,5.972
1947,0.895,37.309,20.131,29.343,24.173,6.14,7.289,5.811
1948,0.882,37.435,20.131,29.352,24.176,6.179,7.288,5.81
1949,0.892,37.436,20.162,29.333,24.169,6.098,7.247,5.81
1950,0.895,37.331,20.182,29.362,24.176,6.178,7.288,5.81
1951,0.879,37.474,20.155,29.391,24.187,6.261,7.369,5.972
1952,0.856,37.542,20.112,29.362,24.173,6.139,7.208,5.771
1953,0.856,37.447,20.123,29.372,24.169,6.138,7.287,5.809
1954,0.846,37.283,20.205,29.343,24.169,6.098,7.166,5.728
1955,0.846,37.444,20.143,29.362,24.18,6.138,7.206,5.809
1956,0.862,37.551,20.147,29.372,24.183,6.301,7.287,5.932
1957,0.846,37.39,20.174,29.333,24.173,6.058,7.125,5.811
1958,0.84,37.512,20.147,29.381,24.173,6.219,7.165,5.769
1959,0.843,37.619,20.127,29.362,24.166,6.139,7.124,5.809
1960,0.856,37.726,20.127,29.372,24.173,6.179,7.124,5.728
1961,0.862,37.439,20.162,29.372,24.173,6.261,7.205,5.85
1962,0.856,37.542,20.194,29.333,24.166,6.058,7.003,5.729
1963,0.879,37.687,20.132,29.371,24.18,6.178,7.041,5.768
1964,0.869,37.755,20.111,29.362,24.176,6.098,7.042,5.768
1965,0.876,38.034,20.182,29.4,24.176,6.138,7.082,5.809
1966,0.869,38.142,20.112,29.382,24.176,6.179,7.042,5.769
1967,0.869,38.249,20.135,29.334,24.166,6.057,6.96,5.606
1968,0.879,38.336,20.158,29.362,24.173,6.219,7.082,5.767
1969,0.879,37.138,20.178,29.381,24.18,6.18,7.042,5.728
1970,0.863,37.27,20.155,29.391,24.173,6.179,7.082,5.85
1971,0.849,37.396,20.1,29.382,24.166,6.139,6.961,5.688
1972,0.856,37.436,20.138,29.353,24.166,6.016,6.878,5.687
1973,0.849,37.743,20.139,29.372,24.173,6.178,7.0,5.768
1974,0.84,37.852,20.135,29.353,24.176,6.22,7.001,5.728
1975,0.856,38.006,20.135,29.391,24.176,6.22,7.001,5.727
1976,0.849,37.998,20.178,29.353,24.166,6.139,6.96,5.687
1977,0.843,37.356,20.163,29.381,24.169,6.138,7.0,5.646
1978,0.859,37.541,20.17,29.429,24.18,6.26,7.082,5.767
1979,0.843,37.61,20.127,29.411,24.169,6.18,6.92,5.768
1980,0.849,37.63,20.186,29.391,24.18,6.261,7.0,5.768
1981,0.866,37.601,20.194,29.391,24.166,6.139,6.919,5.687
1982,0.869,37.745,20.214,29.401,24.176,6.179,6.919,5.646
1983,0.889,37.89,20.155,29.43,24.183,6.342,7.122,5.849
1984,0.895,37.7,20.162,29.392,24.173,6.14,6.921,5.729
1985,0.902,37.611,20.135,29.41,24.169,6.219,6.959,5.727
1986,0.892,37.716,20.123,29.382,24.173,6.139,6.919,5.646
1987,0.905,37.842,20.158,29.42,24.18,6.179,6.959,5.767
1988,0.908,37.642,20.205,29.439,24.183,6.342,7.082,5.85
1989,0.902,37.688,20.128,29.411,24.169,6.221,6.92,5.729
1990,0.895,37.822,20.154,29.411,24.166,6.18,7.041,5.727
1991,0.895,37.91,20.174,29.401,24.169,6.139,6.96,5.646
1992,0.902,37.652,20.182,29.43,24.173,6.26,7.082,5.767
1993,0.905,37.774,20.202,29.42,24.187,6.262,7.123,5.809
1994,0.905,37.871,20.151,29.401,24.17,6.221,7.043,5.728
1995,0.899,37.949,20.159,29.41,24.173,6.18,7.082,5.727
1996,0.905,37.614,20.139,29.391,24.169,6.098,7.002,5.646
1997,0.921,37.793,20.151,29.429,24.176,6.3,7.123,5.808
1998,0.918,37.919,20.151,29.459,24.187,6.302,7.205,5.769
1999,0.899,37.93,20.205,29.411,24.17,6.18,7.043,5.647
2000,0.918,37.691,20.214,29.43,24.176,6.179,7.123,5.686
2001,0.918,37.813,20.151,29.42,24.173,6.139,7.083,5.605
2002,0.928,37.948,20.159,29.43,24.183,6.26,7.205,5.686
2003,0.935,38.007,20.155,29.449,24.176,6.221,7.287,5.849
2004,0.928,37.5,20.143,29.411,24.169,6.139,7.125,5.688
2005,0.951,37.657,20.135,29.43,24.169,6.219,7.083,5.687
2006,0.951,37.745,20.154,29.42,24.169,6.139,7.083,5.605
2007,0.958,37.823,20.182,29.43,24.173,6.179,7.083,5.686
2008,0.935,37.689,20.155,29.42,24.169,6.261,7.164,5.727
2009,0.945,37.794,20.116,29.411,24.162,6.099,7.002,5.524
2010,0.948,37.929,20.193,29.439,24.173,6.219,7.082,5.725
2011,0.948,37.94,20.194,29.42,24.166,6.18,7.002,5.646
2012,0.945,37.585,20.198,29.439,24.176,6.22,7.123,5.727
2013,0.935,37.716,20.143,29.439,24.176,6.18,7.124,5.646
2014,0.931,37.794,20.143,29.411,24.166,6.098,7.043,5.523
2015,0.938,37.843,20.131,29.439,24.18,6.178,7.164,5.725
2016,0.935,37.872,20.139,29.43,24.169,6.179,7.043,5.646
2017,0.925,38.016,20.162,29.459,24.176,6.301,7.204,5.767
2018,0.918,38.075,20.19,29.43,24.176,6.14,7.084,5.647
2019,0.931,37.586,20.12,29.42,24.173,6.179,7.042,5.645
2020,0.925,37.658,20.143,29.516,24.176,6.22,7.164,5.645
2021,0.922,37.774,20.135,29.44,24.169,6.302,7.124,5.686
2022,0.931,37.852,20.158,29.43,24.176,6.262,7.165,5.646
2023,0.922,38.965,20.17,29.43,24.173,6.18,7.043,5.605
2024,0.941,39.101,20.167,29.439,24.173,6.22,7.082,5.645
2025,0.941,39.246,20.19,29.478,24.173,6.342,7.164,5.686
2026,0.932,39.267,20.175,29.459,24.166,6.221,7.124,5.687
2027,0.925,36.927,20.151,29.449,24.176,6.261,7.165,5.727
2028,0.928,37.038,20.147,29.449,24.166,6.18,7.043,5.565
2029,0.938,37.193,20.217,29.449,24.159,6.261,7.164,5.563
2030,0.925,37.271,20.226,29.478,24.176,6.343,7.287,5.726
2031,0.912,37.789,20.144,29.459,24.166,6.262,7.166,5.727
2032,0.902,37.938,20.166,29.526,24.18,6.262,7.165,5.687
2033,0.886,38.026,20.116,29.469,24.166,6.18,7.084,5.524
2034,0.905,38.085,20.201,29.469,24.169,6.261,7.164,5.725
2035,0.902,37.51,20.19,29.478,24.187,6.384,7.287,5.768
2036,0.892,37.619,20.182,29.478,24.176,6.263,7.125,5.647
2037,0.886,37.726,20.21,29.469,24.18,6.221,7.124,5.645
2038,0.879,37.736,20.128,29.459,24.173,6.18,7.165,5.686
2039,0.876,37.775,20.162,29.478,24.176,6.301,7.246,5.646
2040,0.879,37.919,20.17,29.507,24.183,6.384,7.328,5.808
2041,0.882,37.988,20.194,29.479,24.169,6.222,7.126,5.769
2042,0.885,38.094,20.221,29.469,24.18,6.22,7.165,5.647
2043,0.879,37.548,20.175,29.469,24.166,6.22,7.206,5.645
2044,0.879,37.696,20.174,29.478,24.18,6.261,7.206,5.686
2045,0.882,37.775,20.202,29.488,24.18,6.262,7.247,5.768
2046,0.866,37.727,20.155,29.459,24.162,6.139,7.084,5.606
2047,0.879,37.746,20.162,29.468,24.169,6.179,7.205,5.645
2048,0.898,37.871,20.198,29.478,24.169,6.179,7.043,5.564
2049,0.889,37.958,20.21,29.497,24.173,6.261,7.164,5.726
2050,0.869,37.633,20.112,29.488,24.176,6.18,7.165,5.646
2051,0.869,37.707,20.143,29.459,24.162,6.098,7.002,5.442
2052,0.876,37.851,20.143,29.488,24.173,6.178,7.123,5.643
2053,0.876,37.91,20.205,29.488,24.176,6.179,7.083,5.686
2054,0.872,37.671,20.104,29.498,24.169,6.139,7.164,5.727
2055,0.85,37.774,20.162,29.488,24.166,6.098,7.043,5.605
2056,0.862,37.9,20.198,29.488,24.173,6.138,7.042,5.645
2057,0.872,37.997,20.167,29.517,24.183,6.179,7.164,5.767
2058,0.859,37.538,20.163,29.488,24.173,6.22,7.084,5.728
2059,0.846,37.687,20.178,29.498,24.173,6.261,7.002,5.768
2060,0.859,37.765,20.221,29.488,24.166,6.139,6.919,5.687
2061,0.866,37.842,20.265,29.517,24.173,6.219,6.959,5.727
2062,0.872,37.766,20.214,29.527,24.19,6.302,7.163,5.972
2063,0.866,37.852,20.159,29.488,24.17,6.18,7.002,5.689
2064,0.866,37.977,20.202,29.507,24.169,6.179,7.041,5.809
2065,0.869,37.998,20.14,29.507,24.166,6.098,6.96,5.728
2066,0.879,37.682,20.162,29.526,24.176,6.178,6.96,5.727
2067,0.895,37.832,20.225,29.536,24.183,6.261,7.0,5.89
2068,0.869,37.929,20.194,29.479,24.169,6.18,6.96,5.77
2069,0.859,37.969,20.175,29.517,24.176,6.139,6.96,5.728
2070,0.879,37.643,20.159,29.507,24.169,6.138,6.919,5.727
2071,0.869,37.803,20.166,29.517,24.183,6.138,6.837,5.809
2072,0.866,37.91,20.202,29.517,24.18,6.219,7.04,5.85
2073,0.859,38.246,20.143,29.488,24.169,6.139,6.879,5.648
2074,0.849,37.79,20.158,29.517,24.18,6.179,6.877,5.767
2075,0.849,37.9,20.205,29.507,24.176,6.139,6.755,5.768
2076,0.853,38.007,20.171,29.526,24.176,6.179,6.957,5.809
2077,0.849,37.797,20.159,29.507,24.169,6.22,6.838,5.85
2078,0.83,37.775,20.159,29.479,24.173,6.058,6.714,5.729
2079,0.843,37.929,20.229,29.507,24.169,6.137,6.876,5.809
2080,0.856,38.017,20.226,29.507,24.176,6.138,6.796,5.769
2081,0.856,37.739,20.155,29.526,24.166,6.179,6.877,5.768
2082,0.846,37.813,20.147,29.517,24.166,6.098,6.837,5.728
2083,0.859,37.939,20.17,29.479,24.162,6.097,6.633,5.646
2084,0.879,38.017,20.167,29.526,24.176,6.178,6.753,5.889
2085,0.879,37.653,20.151,29.536,24.166,6.179,6.754,5.77
2086,0.892,37.803,20.178,29.527,24.169,6.179,6.795,5.768
2087,0.879,37.881,20.174,29.498,24.173,6.139,6.714,5.687
2088,0.892,37.968,20.167,29.517,24.162,6.138,6.794,5.768
2089,0.908,37.777,20.166,29.527,24.18,6.219,6.877,5.768
2090,0.882,37.89,20.221,29.507,24.176,6.139,6.796,5.768
2091,0.885,38.007,20.253,29.526,24.169,6.179,6.795,5.809
2092,0.879,38.046,20.238,29.507,24.169,6.098,6.795,5.728
2093,0.866,37.663,20.171,29.526,24.176,6.097,6.795,5.768
2094,0.872,37.822,20.198,29.546,24.18,6.26,6.917,5.891
2095,0.879,37.891,20.171,29.527,24.173,6.139,6.878,5.77
2096,0.872,37.959,20.147,29.555,24.169,6.219,6.796,5.85
2097,0.869,37.959,20.162,29.527,24.162,6.22,6.836,5.688
2098,0.889,38.103,20.217,29.536,24.169,6.22,6.958,5.768
2099,0.892,38.268,20.159,29.565,24.187,6.22,7.082,5.931
2100,0.879,38.231,20.166,29.537,24.166,6.098,6.92,5.77
2101,0.882,38.863,20.166,29.546,24.169,6.219,6.878,5.728
2102,0.876,38.985,20.19,29.536,24.166,6.058,6.877,5.687
2103,0.908,39.111,20.217,29.556,24.176,6.137,6.959,5.809
2104,0.905,39.006,20.21,29.556,24.176,6.301,7.082,5.891
2105,0.905,37.222,20.222,29.527,24.169,6.058,7.002,5.811
2106,0.912,37.367,20.167,29.555,24.169,6.097,7.001,5.769
2107,0.902,37.464,20.17,29.537,24.162,6.056,7.001,5.687
2108,0.918,37.763,20.19,29.546,24.166,6.137,7.041,5.768
2109,0.899,37.89,20.256,29.556,24.173,6.26,7.082,5.85
2110,0.892,37.997,20.187,29.546,24.169,6.139,7.042,5.729
2111,0.902,38.104,20.147,29.556,24.169,6.138,7.082,5.768
2112,0.899,37.664,20.166,29.546,24.166,6.098,7.002,5.687
2113,0.902,37.774,20.166,29.565,24.176,6.138,7.123,5.768
2114,0.895,37.871,20.19,29.556,24.173,6.138,7.083,5.85
2115,0.869,37.949,20.159,29.527,24.155,6.016,6.961,5.648
2116,0.892,37.672,20.19,29.555,24.176,6.137,7.082,5.767
2117,0.902,37.765,20.206,29.565,24.173,6.057,7.042,5.768
2118,0.892,37.919,20.167,29.585,24.169,6.178,7.164,5.809
2119,0.879,37.959,20.147,29.556,24.169,6.139,7.165,5.769
2120,0.889,37.748,20.201,29.527,24.159,6.016,6.962,5.565
2121,0.905,37.9,20.264,29.555,24.173,6.137,7.163,5.807
2122,0.915,38.007,20.234,29.575,24.166,6.138,7.043,5.688
2123,0.922,38.094,20.194,29.575,24.176,6.179,7.164,5.809
2124,0.909,37.807,20.194,29.565,24.169,6.139,7.084,5.769
2125,0.912,37.91,20.175,29.546,24.162,6.057,7.002,5.606
2126,0.931,38.064,20.186,29.584,24.162,6.178,7.163,5.726
2127,0.938,38.104,20.186,29.566,24.169,6.057,7.084,5.727
2128,0.925,37.769,20.237,29.565,24.176,6.178,7.123,5.809
2129,0.925,37.871,20.163,29.565,24.162,6.098,7.043,5.688
2130,0.928,38.006,20.178,29.565,24.159,6.097,7.082,5.687
2131,0.918,38.036,20.167,29.575,24.18,6.178,7.083,5.727
2132,0.892,37.768,20.19,29.565,24.173,6.139,7.042,5.727
2133,0.905,37.909,20.194,29.575,24.176,6.179,7.123,5.727
2134,0.899,37.997,20.186,29.565,24.173,6.139,7.002,5.687
2135,0.899,38.113,20.171,29.594,24.173,6.098,7.041,5.687
2136,0.912,37.875,20.245,29.614,24.183,6.26,7.204,5.687
2137,0.886,37.978,20.144,29.595,24.173,6.099,7.084,5.687
2138,0.892,38.103,20.166,29.614,24.18,6.178,7.123,5.727
2139,0.899,37.702,20.198,29.575,24.169,6.057,6.961,5.646
2140,0.912,37.727,20.257,29.604,24.18,6.259,7.041,5.727
2141,0.928,37.871,20.242,29.614,24.187,6.302,7.204,5.89
2142,0.935,37.949,20.136,29.595,24.173,6.18,7.043,5.729
2143,0.922,37.729,20.154,29.594,24.173,6.179,7.001,5.768
2144,0.918,37.794,20.209,29.585,24.166,6.098,6.919,5.687
2145,0.918,37.958,20.194,29.613,24.176,6.219,7.0,5.727
2146,0.938,38.065,20.198,29.633,24.183,6.261,7.123,5.85
2147,0.919,37.759,20.237,29.585,24.169,6.139,6.961,5.688
2148,0.925,37.9,20.179,29.604,24.176,6.179,7.041,5.768
2149,0.925,38.026,20.206,29.595,24.166,6.098,6.96,5.647
2150,0.909,38.094,20.194,29.614,24.176,6.138,6.96,5.686
2151,0.915,37.692,20.225,29.614,24.176,6.26,7.0,5.727
2152,0.909,37.774,20.241,29.585,24.176,6.058,6.838,5.605
2153,0.899,37.948,20.159,29.623,24.173,6.137,6.958,5.767
2154,0.905,38.007,20.174,29.604,24.169,6.098,6.838,5.647
2155,0.908,37.701,20.233,29.623,24.176,6.219,6.999,5.686
2156,0.908,37.822,20.144,29.595,24.176,6.18,6.919,5.687
2157,0.895,37.929,20.162,29.585,24.166,5.976,6.796,5.605
2158,0.905,37.988,20.205,29.613,24.176,6.137,6.917,5.726
2159,0.886,37.691,20.245,29.595,24.169,6.138,6.919,5.727
2160,0.895,37.813,20.191,29.614,24.176,6.098,6.919,5.809
2161,0.899,37.929,20.108,29.604,24.173,6.097,6.796,5.647
2162,0.882,37.93,20.166,29.595,24.159,6.097,6.714,5.645
2163,0.898,37.786,20.174,29.623,24.166,6.097,6.916,5.727
