time,ecg,bvp,gsr,rsp,skt,emg_zygo,emg_coru,emg_trap
0,0.826,35.275,23.415,43.378,25.67,4.701,6.919,18.668
1,0.826,35.42,23.407,43.388,25.67,4.701,6.796,18.217
2,0.833,35.594,23.423,43.416,25.68,4.701,6.755,17.846
3,0.797,35.011,23.407,43.426,25.684,4.782,6.917,17.639
4,0.767,35.178,23.47,43.426,25.684,4.783,6.878,17.597
5,0.777,35.266,23.47,43.417,25.68,4.742,6.877,17.393
6,0.767,35.056,23.424,43.426,25.68,4.742,6.877,17.554
7,0.777,35.101,23.376,43.426,25.68,4.783,6.796,17.677
8,0.784,35.227,23.469,43.436,25.687,4.742,6.877,17.882
9,0.79,35.362,23.443,43.436,25.684,4.742,6.837,18.128
10,0.816,34.894,23.412,43.446,25.68,4.783,6.796,18.74
11,0.836,35.023,23.497,43.436,25.684,4.824,6.755,19.64
12,0.843,35.159,23.439,43.484,25.691,4.865,6.876,20.747
13,0.846,35.246,23.376,43.456,25.691,4.865,6.837,21.856
14,0.836,34.873,23.372,43.417,25.68,4.743,6.755,22.843
15,0.843,35.013,23.434,43.436,25.673,4.701,6.673,23.625
16,0.82,35.139,23.478,43.436,25.673,4.742,6.631,24.284
17,0.826,35.256,23.443,43.436,25.677,4.701,6.672,24.615
18,0.826,34.883,23.49,43.446,25.677,4.701,6.672,24.741
19,0.843,35.023,23.447,43.446,25.677,4.782,6.631,24.783
20,0.853,35.168,23.443,43.455,25.684,4.824,6.631,24.62
21,0.856,35.247,23.396,43.446,25.68,4.743,6.672,24.334
22,0.859,34.912,23.47,43.427,25.673,4.783,6.713,24.006
23,0.853,35.052,23.431,43.436,25.673,4.661,6.632,23.434
24,0.888,35.207,23.4,43.455,25.673,4.741,6.59,23.062
25,0.918,35.295,23.399,43.561,25.68,4.864,6.753,23.099
26,0.928,34.864,23.376,43.476,25.684,4.824,6.754,23.221
27,0.912,35.004,23.43,43.465,25.684,4.743,6.714,23.263
28,0.899,35.149,23.392,43.465,25.684,4.783,6.794,23.386
29,0.879,35.189,23.45,43.475,25.684,4.783,6.795,23.427
30,0.856,34.873,23.462,43.484,25.684,4.783,6.795,23.469
31,0.833,35.061,23.443,43.475,25.684,4.824,6.836,23.428
32,0.839,35.159,23.451,43.465,25.673,4.783,6.837,23.347
33,0.852,35.266,23.455,43.484,25.687,4.783,6.877,23.224
34,0.84,34.969,23.521,43.513,25.694,4.946,7.04,23.263
35,0.836,35.091,23.412,43.504,25.684,4.785,7.001,23.02
36,0.826,35.188,23.423,43.465,25.67,4.742,6.879,22.814
37,0.82,34.834,23.45,43.465,25.677,4.661,6.918,22.446
38,0.803,34.888,23.4,43.475,25.666,4.741,6.837,22.117
39,0.813,35.042,23.454,43.484,25.677,4.742,6.877,21.748
40,0.823,35.14,23.458,43.475,25.677,4.701,6.959,21.378
41,0.839,34.796,23.392,43.475,25.673,4.742,6.919,20.968
42,0.826,34.926,23.392,43.484,25.677,4.742,6.878,20.639
43,0.823,35.071,23.477,43.494,25.684,4.823,7.0,20.269
44,0.807,35.14,23.47,43.465,25.677,4.783,7.001,19.9
45,0.833,34.891,23.498,43.465,25.67,4.661,6.838,19.327
46,0.83,35.081,23.486,43.494,25.67,4.782,6.999,18.996
47,0.826,35.236,23.381,43.494,25.687,4.824,7.041,18.708
48,0.826,35.295,23.434,43.504,25.684,4.824,7.123,18.38
49,0.83,34.644,23.369,43.504,25.684,4.743,7.043,17.97
50,0.836,34.81,23.442,43.523,25.684,4.783,7.042,17.641
51,0.83,34.946,23.478,43.514,25.68,4.742,7.042,17.312
52,0.826,35.024,23.381,43.523,25.677,4.823,7.042,17.065
53,0.846,34.833,23.434,43.523,25.68,4.783,7.082,16.778
54,0.866,34.994,23.404,43.504,25.684,4.742,7.002,16.45
55,0.862,35.13,23.47,43.533,25.691,4.783,6.96,16.243
56,0.885,35.189,23.463,43.552,25.698,4.905,7.122,16.078
57,0.882,34.633,23.474,43.523,25.691,4.784,7.124,15.955
58,0.889,34.771,23.447,43.504,25.68,4.824,7.002,15.628
59,0.882,34.888,23.412,43.533,25.67,4.743,6.919,15.34
60,0.889,34.937,23.45,43.504,25.677,4.701,6.959,15.012
61,0.892,34.746,23.404,43.533,25.68,4.66,6.96,14.968
62,0.899,34.887,23.493,43.523,25.684,4.741,6.96,14.724
63,0.879,35.004,23.393,43.542,25.677,4.742,6.96,14.518
64,0.869,34.967,23.38,43.523,25.677,4.783,7.0,14.394
65,0.863,34.698,23.419,43.552,25.677,4.702,7.082,14.352
66,0.853,34.829,23.423,43.504,25.673,4.701,7.002,14.108
67,0.866,34.965,23.431,43.542,25.67,4.66,7.082,13.902
68,0.862,34.66,23.431,43.562,25.68,4.782,7.164,13.9
69,0.853,34.685,23.489,43.552,25.684,4.783,7.287,13.859
70,0.859,34.82,23.455,43.581,25.691,4.824,7.329,13.737
71,0.875,34.946,23.416,43.572,25.677,4.743,7.41,13.614
72,0.892,34.535,23.431,43.591,25.684,4.823,7.33,13.531
73,0.905,34.626,23.454,43.581,25.684,4.783,7.329,13.49
74,0.902,34.79,23.462,43.581,25.677,4.742,7.37,13.286
75,0.895,34.898,23.369,43.562,25.68,4.823,7.37,13.243
76,0.912,34.582,23.419,43.6,25.684,4.783,7.37,13.162
77,0.912,34.713,23.478,43.62,25.694,4.946,7.533,13.202
78,0.905,34.839,23.424,43.601,25.684,4.907,7.494,13.08
79,0.905,34.898,23.423,43.572,25.684,4.744,7.453,12.835
80,0.921,34.505,23.419,43.562,25.673,4.661,7.33,12.71
81,0.896,34.664,23.392,43.562,25.677,4.7,7.329,12.546
82,0.889,34.81,23.434,43.571,25.673,4.701,7.329,12.504
83,0.895,34.869,23.423,43.581,25.67,4.742,7.329,12.382
84,0.889,34.63,23.493,43.581,25.677,4.701,7.37,12.34
85,0.879,34.79,23.451,43.581,25.68,4.701,7.37,12.217
86,0.872,34.936,23.47,43.61,25.677,4.782,7.33,12.094
87,0.869,34.976,23.384,43.581,25.677,4.742,7.37,12.093
88,0.892,34.468,23.423,43.562,25.666,4.661,7.248,12.093
89,0.912,34.664,23.446,43.591,25.677,4.782,7.288,12.744
90,0.922,34.81,23.419,43.62,25.687,4.824,7.369,13.848
91,0.922,34.831,23.501,43.63,25.687,4.783,7.452,14.957
92,0.928,34.534,23.381,43.62,25.68,4.824,7.452,16.269
93,0.941,34.684,23.45,43.62,25.684,4.783,7.534,17.949
94,0.958,34.82,23.388,43.61,25.677,4.783,7.534,19.917
95,0.958,34.725,23.458,43.62,25.684,4.742,7.616,21.929
96,0.964,34.542,23.501,43.62,25.684,4.742,7.698,23.657
97,0.961,34.713,23.412,43.62,25.677,4.742,7.74,25.016
98,0.99,34.858,23.466,43.639,25.694,4.783,7.862,26.005
99,0.987,34.678,23.384,43.639,25.691,4.905,7.985,26.666
100,0.997,34.733,23.43,43.649,25.691,4.865,7.986,27.038
101,1.0,34.868,23.38,43.62,25.677,4.784,7.864,27.001
102,1.0,34.965,23.466,43.63,25.673,4.702,7.904,26.798
103,1.004,34.238,23.423,43.62,25.677,4.66,7.863,26.511
104,0.978,34.365,23.322,43.62,25.677,4.66,7.944,26.183
105,0.974,34.538,23.406,43.649,25.673,4.7,7.986,25.773
106,0.974,34.627,23.399,43.639,25.677,4.782,8.027,25.2
107,0.961,34.397,23.438,43.639,25.68,4.742,7.946,24.665
108,0.958,34.558,23.447,43.639,25.68,4.783,7.986,24.131
109,0.961,34.665,23.486,43.639,25.673,4.702,7.905,23.597
110,0.971,34.772,23.447,43.62,25.677,4.66,7.782,23.064
111,0.968,34.284,23.427,43.658,25.677,4.782,7.862,22.489
112,0.968,34.442,23.458,43.668,25.684,4.824,7.944,21.995
113,0.974,34.578,23.451,43.659,25.684,4.905,7.864,21.624
114,0.977,34.656,23.497,43.668,25.684,4.825,7.904,21.011
115,0.977,34.34,23.439,43.659,25.684,4.824,7.863,20.924
116,0.984,34.5,23.415,43.659,25.687,4.824,7.863,22.061
117,0.994,34.626,23.462,43.659,25.68,4.824,7.782,23.536
118,0.997,34.694,23.427,43.659,25.684,4.743,7.781,25.259
119,1.013,34.455,23.447,43.659,25.68,4.783,7.822,27.146
120,1.033,34.616,23.451,43.668,25.687,4.864,7.822,29.604
121,1.037,34.714,23.419,43.687,25.694,4.906,7.903,32.475
122,1.03,34.743,23.388,43.659,25.684,4.865,7.863,34.862
123,1.03,34.264,23.442,43.639,25.677,4.702,7.741,36.675
124,1.043,34.413,23.493,43.658,25.677,4.701,7.699,37.831
125,1.037,34.539,23.451,43.649,25.673,4.742,7.658,38.453
126,1.03,34.463,23.435,43.668,25.68,4.742,7.698,38.54
127,1.011,34.376,23.415,43.678,25.68,4.783,7.658,38.338
128,1.01,34.51,23.392,43.668,25.68,4.783,7.658,37.685
129,0.991,34.645,23.388,43.678,25.684,4.742,7.698,36.865
130,0.997,34.302,23.45,43.678,25.677,4.823,7.658,35.841
131,1.013,34.384,23.451,43.659,25.666,4.743,7.536,34.733
132,1.027,34.548,23.396,43.678,25.677,4.701,7.575,33.502
133,1.04,34.665,23.458,43.697,25.68,4.823,7.616,32.351
134,1.05,34.34,23.462,43.707,25.691,4.824,7.617,31.242
135,1.053,34.461,23.521,43.688,25.684,4.865,7.617,29.97
136,1.063,34.597,23.424,43.697,25.687,4.865,7.657,28.901
137,1.066,34.694,23.45,43.707,25.68,4.824,7.658,27.833
138,1.066,34.561,23.47,43.688,25.684,4.783,7.658,26.887
139,1.073,34.713,23.369,43.688,25.68,4.824,7.617,26.064
140,1.076,34.858,23.415,43.669,25.684,4.743,7.576,25.487
141,1.07,34.965,23.442,43.697,25.684,4.864,7.535,25.034
142,1.06,34.497,23.474,43.697,25.691,4.906,7.616,24.826
143,1.05,34.636,23.314,43.717,25.691,4.825,7.576,24.418
144,1.033,34.752,23.406,43.688,25.673,4.702,7.494,23.966
145,1.03,34.83,23.423,43.678,25.677,4.701,7.412,23.474
146,1.033,34.591,23.443,43.678,25.677,4.782,7.371,23.022
147,1.03,34.742,23.462,43.697,25.677,4.742,7.411,22.57
148,1.066,34.878,23.377,43.688,25.677,4.742,7.33,22.077
149,1.069,34.908,23.458,43.688,25.684,4.823,7.41,21.747
150,1.105,34.717,23.373,43.697,25.687,4.783,7.411,21.5
151,1.109,34.878,23.399,43.707,25.68,4.783,7.371,21.294
152,1.122,34.975,23.446,43.678,25.677,4.661,7.33,21.089
153,1.135,35.024,23.451,43.668,25.666,4.66,7.248,21.006
154,1.132,34.909,23.451,43.707,25.677,4.741,7.328,20.761
155,1.125,35.052,23.412,43.707,25.691,4.823,7.41,20.718
156,1.109,35.159,23.439,43.736,25.691,4.905,7.411,20.514
157,1.099,35.083,23.454,43.707,25.684,4.825,7.452,20.187
158,1.135,35.073,23.435,43.707,25.68,4.783,7.412,19.939
159,1.155,35.198,23.482,43.717,25.684,4.824,7.452,19.49
160,1.142,35.304,23.455,43.707,25.684,4.783,7.452,19.119
161,1.132,35.075,23.447,43.717,25.684,4.824,7.371,18.709
162,1.119,35.169,23.4,43.707,25.687,4.743,7.411,18.258
163,1.093,35.342,23.477,43.736,25.684,4.783,7.371,17.887
164,1.066,35.44,23.486,43.746,25.691,4.986,7.533,17.64
165,1.021,35.278,23.42,43.698,25.687,4.826,7.494,17.271
166,0.981,35.411,23.419,43.707,25.68,4.743,7.331,16.699
167,0.958,35.537,23.411,43.688,25.67,4.783,7.248,16.246
168,0.954,35.624,23.372,43.707,25.68,4.702,7.206,15.875
169,0.945,35.251,23.368,43.717,25.68,4.66,7.206,15.546
170,0.928,35.41,23.438,43.726,25.68,4.782,7.247,15.218
171,0.915,35.556,23.451,43.717,25.677,4.742,7.166,14.97
172,0.899,35.644,23.408,43.765,25.68,4.742,7.206,14.643
173,0.902,35.587,23.415,43.736,25.684,4.783,7.206,14.395
174,0.918,35.721,23.361,43.698,25.673,4.661,7.125,14.068
175,0.951,35.875,23.504,43.697,25.673,4.7,7.124,13.942
176,0.948,35.925,23.408,43.726,25.684,4.904,7.205,13.778
177,0.951,35.772,23.419,43.736,25.687,4.865,7.287,13.614
178,0.961,35.895,23.513,43.726,25.687,4.865,7.288,13.45
179,0.958,36.04,23.342,43.765,25.684,4.824,7.288,13.448
180,0.961,36.07,23.45,43.736,25.684,4.824,7.329,13.326
181,0.968,36.013,23.431,43.746,25.68,4.824,7.248,13.366
182,0.958,36.147,23.497,43.746,25.677,4.824,7.288,13.366
183,0.941,36.263,23.416,43.746,25.684,4.783,7.288,13.366
184,0.925,36.303,23.407,43.736,25.684,4.824,7.288,13.447
185,0.931,36.102,23.454,43.765,25.684,4.824,7.288,13.53
186,0.935,36.272,23.439,43.775,25.694,4.865,7.451,13.612
187,0.931,36.341,23.419,43.756,25.691,4.906,7.33,13.613
188,0.922,36.255,23.435,43.727,25.68,4.744,7.248,13.45
189,0.918,36.255,23.439,43.707,25.67,4.742,7.247,13.408
190,0.922,36.389,23.408,43.736,25.673,4.742,7.166,13.326
191,0.909,36.496,23.403,43.736,25.673,4.783,7.165,13.366
192,0.902,36.257,23.442,43.755,25.673,4.742,7.124,13.61
193,0.905,36.341,23.427,43.736,25.677,4.823,7.246,14.426
194,0.905,36.486,23.458,43.765,25.68,4.743,7.125,15.613
195,0.886,36.554,23.345,43.756,25.68,4.823,7.124,16.804
196,0.879,36.497,23.399,43.736,25.68,4.783,7.083,17.995
197,0.898,36.641,23.474,43.736,25.67,4.702,7.002,19.267
198,0.905,36.786,23.451,43.755,25.673,4.742,7.041,20.581
199,0.902,36.864,23.443,43.775,25.684,4.823,7.042,21.773
200,0.892,36.596,23.462,43.756,25.684,4.865,7.123,22.68
201,0.882,36.757,23.404,43.775,25.684,4.865,7.124,23.299
202,0.882,36.873,23.372,43.765,25.684,4.784,7.083,23.589
203,0.866,36.942,23.438,43.775,25.684,4.864,7.083,23.714
204,0.856,36.77,23.493,43.765,25.687,4.784,7.083,23.634
205,0.853,36.921,23.459,43.765,25.687,4.783,6.961,23.471
206,0.849,37.076,23.466,43.765,25.684,4.783,7.082,23.225
207,0.84,37.135,23.412,43.784,25.691,4.824,7.123,22.897
208,0.826,37.002,23.47,43.794,25.691,4.946,7.205,22.691
209,0.81,37.125,23.404,43.785,25.684,4.866,7.165,22.242
210,0.797,37.251,23.423,43.746,25.673,4.824,7.165,21.79
211,0.813,37.262,23.478,43.746,25.673,4.702,7.165,21.338
212,0.833,36.898,23.4,43.775,25.677,4.742,7.124,20.845
213,0.836,37.038,23.446,43.842,25.677,4.783,7.165,20.312
214,0.826,37.154,23.365,43.756,25.677,4.702,7.246,19.9
215,0.797,37.184,23.461,43.775,25.68,4.782,7.247,19.327
216,0.797,37.223,23.455,43.775,25.684,4.783,7.328,19.036
217,0.787,37.348,23.427,43.765,25.67,4.783,7.37,18.708
218,0.777,37.455,23.392,43.765,25.673,4.742,7.33,18.542
219,0.793,37.197,23.407,43.756,25.677,4.701,7.248,18.297
220,0.797,37.185,23.403,43.775,25.677,4.823,7.369,18.172
221,0.8,37.309,23.396,43.784,25.684,4.824,7.411,18.09
222,0.784,37.406,23.466,43.804,25.68,4.865,7.371,17.886
223,0.771,37.34,23.427,43.775,25.684,4.824,7.411,17.762
224,0.757,37.464,23.415,43.804,25.677,4.824,7.371,17.638
225,0.761,37.6,23.462,43.785,25.684,4.783,7.37,17.393
226,0.757,37.687,23.443,43.804,25.68,4.783,7.37,17.35
227,0.748,37.18,23.451,43.794,25.687,4.742,7.37,17.147
228,0.77,37.357,23.415,43.813,25.68,4.783,7.33,17.022
229,0.774,37.483,23.489,43.814,25.691,4.905,7.329,16.899
230,0.758,37.561,23.455,43.823,25.691,4.947,7.451,16.939
231,0.751,37.409,23.4,43.804,25.677,4.703,7.33,16.817
232,0.751,37.551,23.399,43.785,25.677,4.701,7.207,16.857
233,0.751,37.658,23.415,43.775,25.673,4.701,7.165,17.345
234,0.77,37.736,23.454,43.784,25.677,4.701,7.124,18.204
235,0.754,37.41,23.431,43.794,25.68,4.742,7.205,19.391
236,0.767,37.57,23.419,43.804,25.673,4.783,7.165,20.542
237,0.748,37.687,23.505,43.785,25.677,4.783,7.124,21.529
238,0.751,37.736,23.439,43.813,25.673,4.742,7.083,22.393
239,0.744,37.372,23.408,43.785,25.677,4.701,7.123,23.296
240,0.747,37.522,23.399,43.784,25.673,4.62,7.043,23.955
241,0.751,37.648,23.407,43.804,25.677,4.7,7.001,24.653
242,0.748,37.697,23.376,43.823,25.691,4.782,7.082,25.27
243,0.731,37.583,23.399,43.823,25.684,4.783,7.123,25.845
244,0.738,37.716,23.446,43.833,25.687,4.702,7.124,26.135
245,0.734,37.813,23.47,43.823,25.694,4.742,7.124,26.342
246,0.728,38.14,23.384,43.842,25.687,4.742,7.165,26.344
247,0.721,37.645,23.407,43.823,25.694,4.823,7.206,26.222
248,0.728,37.726,23.497,43.833,25.687,4.824,7.165,25.936
249,0.731,37.832,23.478,43.852,25.684,4.783,7.124,25.608
250,0.738,37.536,23.435,43.843,25.68,4.783,7.124,25.198
251,0.725,37.495,23.513,43.881,25.698,4.905,7.287,24.828
252,0.724,37.619,23.428,43.843,25.691,4.825,7.329,24.255
253,0.731,37.707,23.411,43.852,25.687,4.783,7.289,23.802
254,0.741,37.429,23.435,43.833,25.677,4.742,7.207,23.31
255,0.77,37.551,23.4,43.833,25.677,4.742,7.206,22.817
256,0.761,37.677,23.454,43.842,25.68,4.701,7.165,22.446
257,0.761,37.784,23.404,43.852,25.677,4.701,7.084,22.036
258,0.757,37.334,23.427,43.843,25.677,4.701,7.164,21.584
259,0.741,37.474,23.427,43.852,25.677,4.701,7.165,21.295
260,0.728,37.619,23.447,43.843,25.68,4.742,7.206,20.723
261,0.708,37.687,23.412,43.852,25.68,4.742,7.247,20.229
262,0.711,37.439,23.462,43.814,25.673,4.579,7.084,19.818
263,0.721,37.599,23.478,43.833,25.677,4.659,7.083,19.245
264,0.715,37.745,23.404,43.871,25.687,4.782,7.245,18.873
265,0.724,37.813,23.345,43.91,25.684,4.824,7.247,18.544
266,0.731,37.392,23.368,43.862,25.684,4.824,7.288,18.053
267,0.731,37.522,23.462,43.862,25.684,4.824,7.207,17.723
268,0.751,37.667,23.388,43.891,25.687,4.824,7.287,17.272
269,0.761,37.707,23.438,43.872,25.68,4.824,7.166,16.861
270,0.77,37.497,23.423,43.881,25.68,4.743,7.246,16.491
271,0.783,37.638,23.333,43.891,25.687,4.823,7.247,16.162
272,0.79,37.774,23.434,43.881,25.68,4.702,7.247,15.834
273,0.79,37.833,23.47,43.9,25.691,4.782,7.206,15.464
274,0.771,37.459,23.525,43.901,25.691,4.905,7.287,15.257
275,0.744,37.59,23.444,43.872,25.684,4.784,7.166,14.889
276,0.725,37.697,23.431,43.852,25.677,4.742,7.084,14.52
277,0.698,37.957,23.474,43.833,25.677,4.701,7.042,14.11
278,0.679,37.432,23.369,43.842,25.673,4.742,7.082,13.943
279,0.669,37.57,23.434,43.871,25.684,4.742,7.042,13.657
280,0.685,37.677,23.45,43.843,25.673,4.742,7.042,13.532
281,0.685,37.467,23.458,43.862,25.677,4.742,7.123,14.059
282,0.685,37.504,23.338,43.91,25.68,4.742,7.083,15.365
283,0.669,37.638,23.422,43.891,25.677,4.742,7.083,16.964
284,0.662,37.726,23.446,43.843,25.673,4.783,7.123,18.688
285,0.669,37.382,23.439,43.843,25.67,4.661,6.961,20.535
286,0.688,37.522,23.431,43.871,25.68,4.7,7.041,22.871
287,0.685,37.667,23.415,43.891,25.691,4.823,7.123,25.415
288,0.692,37.755,23.442,43.901,25.691,4.824,7.205,27.798
289,0.682,37.315,23.369,43.91,25.684,4.783,7.125,29.448
290,0.672,37.464,23.419,43.901,25.691,4.824,7.124,30.766
291,0.682,37.58,23.446,43.891,25.687,4.865,7.083,31.511
292,0.692,37.668,23.439,43.891,25.684,4.784,7.042,31.884
293,0.698,37.352,23.427,43.881,25.684,4.824,7.001,31.888
294,0.708,37.512,23.325,43.891,25.68,4.824,7.041,31.481
295,0.715,37.667,23.414,43.91,25.684,4.824,7.082,31.03
296,0.698,37.726,23.392,43.92,25.694,4.905,7.164,30.578
297,0.692,37.286,23.395,43.891,25.684,4.825,7.002,29.76
298,0.685,37.435,23.427,43.862,25.691,4.783,6.919,28.817
299,0.679,37.551,23.458,43.871,25.68,4.661,6.837,27.954
300,0.691,37.6,23.459,43.872,25.677,4.66,6.755,27.01
301,0.688,37.342,23.384,43.881,25.68,4.741,6.795,26.188
302,0.708,37.483,23.415,43.881,25.673,4.783,6.795,25.285
303,0.702,37.609,23.482,43.9,25.68,4.702,6.836,24.544
304,0.708,37.649,23.494,43.891,25.673,4.742,6.796,23.886
305,0.718,37.323,23.455,43.901,25.677,4.742,6.836,23.392
306,0.731,37.464,23.384,43.872,25.673,4.701,6.796,23.143
307,0.773,37.59,23.423,43.891,25.67,4.701,6.673,22.774
308,0.803,37.946,23.353,43.92,25.677,4.742,6.794,22.73
309,0.826,37.95,23.395,43.92,25.684,4.823,6.877,22.567
310,0.836,38.084,23.477,43.91,25.691,4.743,6.837,22.484
311,0.849,38.172,23.424,43.91,25.684,4.864,6.918,22.321
312,0.836,37.233,23.411,44.006,25.677,4.784,6.919,22.075
313,0.813,37.089,23.368,43.911,25.68,4.824,7.041,21.869
314,0.787,37.222,23.442,43.891,25.673,4.783,7.001,21.623
315,0.741,37.329,23.505,43.91,25.684,4.742,7.082,21.499
316,0.744,37.358,23.428,43.901,25.677,4.783,7.205,21.335
317,0.731,37.541,23.474,43.939,25.691,4.824,7.247,21.293
318,0.708,37.62,23.459,43.93,25.691,4.905,7.288,21.374
319,0.659,37.707,23.455,43.92,25.684,4.784,7.288,21.212
320,0.678,37.084,23.373,43.882,25.677,4.702,7.166,20.966
321,0.672,37.212,23.458,43.881,25.67,4.742,7.246,20.883
322,0.656,37.348,23.455,43.9,25.677,4.701,7.206,20.8
323,0.652,37.426,23.334,43.891,25.677,4.701,7.287,20.677
324,0.642,37.216,23.41,43.901,25.68,4.701,7.288,20.514
325,0.642,37.377,23.392,43.901,25.677,4.701,7.329,20.431
326,0.662,37.484,23.509,43.91,25.68,4.782,7.329,20.836
327,0.672,37.552,23.416,43.939,25.677,4.742,7.329,21.857
328,0.688,37.102,23.427,43.911,25.68,4.661,7.248,22.843
329,0.705,37.251,23.486,43.91,25.68,4.7,7.328,24.195
330,0.715,37.386,23.416,43.939,25.68,4.782,7.37,25.509
331,0.731,37.436,23.431,43.949,25.691,4.864,7.33,27.149
332,0.728,37.312,23.427,43.93,25.684,4.906,7.329,28.507
333,0.738,37.445,23.478,43.93,25.691,4.744,7.289,29.699
334,0.741,37.551,23.373,43.939,25.684,4.742,7.288,30.443
335,0.754,37.562,23.36,43.93,25.677,4.783,7.369,30.857
336,0.757,37.236,23.364,43.93,25.691,4.824,7.208,31.146
337,0.764,37.386,23.422,43.939,25.68,4.824,7.206,31.149
338,0.754,37.532,23.466,43.968,25.694,4.905,7.328,31.067
339,0.738,37.476,23.431,43.93,25.68,4.825,7.289,30.904
340,0.744,37.101,23.478,43.91,25.68,4.661,7.166,30.374
341,0.741,37.232,23.4,43.968,25.684,4.619,7.084,29.758
342,0.744,37.358,23.431,43.901,25.677,4.7,7.083,29.102
343,0.718,37.071,23.45,43.91,25.673,4.701,7.123,28.526
344,0.721,37.107,23.474,43.91,25.68,4.701,7.124,27.951
345,0.708,37.251,23.49,43.92,25.673,4.742,7.165,27.173
346,0.711,37.367,23.385,43.93,25.684,4.701,7.206,26.515
347,0.705,36.947,23.458,43.93,25.684,4.782,7.287,25.817
348,0.705,37.029,23.353,43.891,25.67,4.62,7.247,24.956
349,0.728,37.202,23.43,43.901,25.67,4.7,7.206,24.134
350,0.734,37.3,23.47,43.949,25.673,4.742,7.287,23.638
351,0.734,37.023,23.455,43.939,25.684,4.783,7.41,23.023
352,0.744,37.173,23.416,43.968,25.684,4.864,7.533,22.407
353,0.757,37.309,23.396,43.959,25.684,4.784,7.575,21.832
354,0.77,37.378,23.434,43.94,25.68,4.783,7.535,21.298
355,0.77,36.985,23.462,43.939,25.684,4.824,7.534,20.682
356,0.761,37.096,23.423,43.949,25.677,4.865,7.575,20.31
357,0.764,37.251,23.439,43.939,25.68,4.743,7.494,20.103
358,0.78,37.3,23.408,43.93,25.68,4.783,7.534,20.02
359,0.793,36.917,23.415,43.93,25.684,4.742,7.534,20.019
360,0.8,37.095,23.392,43.978,25.691,4.864,7.657,20.263
361,0.794,37.184,23.431,43.93,25.694,4.865,7.658,20.754
362,0.784,37.223,23.497,43.91,25.68,4.743,7.576,21.084
363,0.764,36.753,23.439,43.91,25.684,4.742,7.535,21.575
364,0.741,36.912,23.439,43.92,25.673,4.742,7.534,22.108
365,0.741,37.038,23.411,43.91,25.68,4.701,7.575,22.439
366,0.728,37.078,23.454,43.929,25.673,4.742,7.616,22.645
367,0.725,36.886,23.412,43.93,25.677,4.823,7.617,22.729
368,0.718,37.057,23.435,43.939,25.684,4.743,7.739,22.648
369,0.721,37.174,23.482,43.939,25.687,4.742,7.699,22.525
370,0.715,37.079,23.42,43.911,25.68,4.783,7.699,22.362
371,0.711,36.877,23.431,43.91,25.67,4.661,7.618,22.035
372,0.728,37.038,23.38,43.929,25.68,4.7,7.576,21.869
373,0.731,37.135,23.446,43.939,25.684,4.782,7.698,21.542
374,0.728,36.752,23.451,43.939,25.691,4.905,7.74,21.295
375,0.734,36.797,23.451,43.939,25.687,4.825,7.659,20.967
376,0.738,36.95,23.447,43.939,25.684,4.702,7.698,20.598
377,0.751,37.077,23.447,43.92,25.687,4.742,7.577,20.147
378,0.754,36.685,23.431,43.939,25.68,4.823,7.616,19.776
379,0.767,36.805,23.38,43.93,25.677,4.743,7.576,19.285
380,0.777,36.941,23.481,43.949,25.684,4.742,7.575,18.873
381,0.771,37.038,23.451,43.968,25.694,4.905,7.657,18.544
382,0.757,36.56,23.404,43.949,25.691,4.825,7.658,18.256
383,0.735,36.708,23.411,43.92,25.673,4.743,7.536,17.684
384,0.731,36.834,23.407,43.901,25.677,4.661,7.453,17.19
385,0.744,36.893,23.485,43.91,25.677,4.66,7.371,16.82
386,0.757,36.635,23.389,43.91,25.68,4.7,7.411,16.369
387,0.767,36.786,23.434,43.91,25.677,4.701,7.411,16.039
388,0.78,36.922,23.415,43.91,25.68,4.701,7.411,15.67
389,0.793,37.019,23.38,43.91,25.68,4.742,7.493,15.381
390,0.774,36.675,23.384,43.91,25.684,4.701,7.412,15.094
391,0.78,36.786,23.462,43.91,25.666,4.701,7.33,14.806
392,0.787,36.922,23.478,43.891,25.67,4.66,7.329,14.478
393,0.777,37.0,23.381,43.939,25.684,4.7,7.37,14.353
394,0.78,36.521,23.434,43.978,25.68,4.823,7.33,14.108
395,0.777,36.67,23.408,43.93,25.687,4.824,7.41,14.187
396,0.774,36.786,23.462,43.93,25.684,4.824,7.411,14.675
397,0.774,36.807,23.373,43.949,25.68,4.824,7.33,15.697
398,0.754,36.692,23.38,43.93,25.677,4.661,7.289,16.723
399,0.764,36.834,23.477,43.901,25.68,4.741,7.329,17.994
400,0.754,36.96,23.349,43.91,25.687,4.742,7.37,19.43
401,0.748,36.779,23.411,43.91,25.68,4.783,7.289,21.071
402,0.754,36.586,23.439,43.929,25.694,4.946,7.329,22.551
403,0.728,36.718,23.482,43.93,25.694,4.866,7.492,23.826
404,0.708,36.806,23.408,43.92,25.684,4.784,7.29,24.692
405,0.702,36.548,23.357,43.901,25.677,4.702,7.207,25.351
406,0.695,36.651,23.426,43.881,25.677,4.66,7.287,25.805
407,0.695,36.767,23.454,43.862,25.67,4.66,7.207,25.932
408,0.705,36.893,23.462,43.891,25.677,4.741,7.206,25.933
409,0.718,36.395,23.4,43.891,25.68,4.701,7.287,25.811
410,0.698,36.515,23.477,43.881,25.677,4.701,7.247,25.525
411,0.698,36.679,23.392,43.9,25.677,4.823,7.206,25.116
412,0.692,36.729,23.376,43.872,25.673,4.743,7.287,24.665
413,0.718,36.48,23.426,43.852,25.67,4.701,7.125,24.131
414,0.731,36.65,23.45,43.871,25.68,4.701,7.124,23.597
415,0.728,36.776,23.494,43.872,25.687,4.742,7.287,23.023
416,0.747,36.845,23.447,43.9,25.684,4.823,7.329,22.57
417,0.747,36.404,23.462,43.881,25.691,4.743,7.37,22.037
418,0.754,36.534,23.462,43.872,25.687,4.783,7.492,21.544
419,0.748,36.679,23.451,43.9,25.677,4.742,7.534,21.132
420,0.731,36.748,23.486,43.872,25.68,4.783,7.575,20.762
421,0.728,36.49,23.443,43.852,25.684,4.783,7.535,20.392
422,0.728,36.65,23.4,43.881,25.684,4.742,7.616,19.982
423,0.718,36.796,23.392,43.9,25.687,4.823,7.739,19.775
424,0.705,36.826,23.403,43.901,25.691,4.865,7.821,19.529
425,0.705,36.577,23.45,43.872,25.687,4.784,7.781,19.12
426,0.702,36.68,23.427,43.852,25.677,4.702,7.74,18.709
427,0.705,36.825,23.427,43.843,25.677,4.701,7.618,18.38
428,0.702,36.864,23.4,43.843,25.67,4.701,7.698,18.011
429,0.701,36.462,23.415,43.833,25.677,4.66,7.74,17.682
430,0.711,36.611,23.439,43.862,25.687,4.66,7.699,17.434
431,0.721,36.747,23.427,43.843,25.677,4.66,7.74,17.107
432,0.741,36.634,23.505,43.843,25.684,4.741,7.781,16.737
433,0.738,36.565,23.412,43.843,25.677,4.823,7.781,16.49
434,0.754,36.689,23.368,43.823,25.67,4.661,7.659,16.121
435,0.738,36.825,23.372,43.833,25.673,4.66,7.576,15.752
436,0.744,36.49,23.399,43.852,25.684,4.741,7.657,15.667
437,0.738,36.535,23.395,43.862,25.687,4.823,7.739,15.422
438,0.728,36.708,23.368,43.843,25.684,4.824,7.74,15.176
439,0.721,36.806,23.477,43.833,25.687,4.743,7.74,14.929
440,0.728,36.404,23.377,43.823,25.687,4.742,7.659,14.683
441,0.715,36.525,23.426,43.833,25.677,4.783,7.698,14.355
442,0.721,36.66,23.423,43.823,25.684,4.742,7.618,14.189
443,0.721,36.748,23.489,43.823,25.677,4.742,7.495,14.025
444,0.724,36.528,23.529,43.823,25.68,4.701,7.534,13.861
445,0.728,36.689,23.401,43.842,25.691,4.782,7.616,13.656
446,0.721,36.825,23.45,43.852,25.684,4.864,7.657,13.613
447,0.715,36.864,23.482,43.823,25.684,4.743,7.576,13.369
448,0.724,36.405,23.431,43.871,25.677,4.661,7.494,13.163
449,0.724,36.534,23.423,43.785,25.673,4.66,7.412,12.998
450,0.731,36.66,23.446,43.794,25.666,4.66,7.452,12.996
451,0.734,36.738,23.412,43.804,25.677,4.741,7.371,13.037
452,0.734,36.547,23.364,43.813,25.68,4.701,7.492,13.038
453,0.734,36.66,23.43,43.823,25.673,4.701,7.453,13.16
454,0.747,36.796,23.466,43.794,25.684,4.701,7.574,13.283
455,0.738,36.835,23.494,43.794,25.677,4.742,7.575,13.609
456,0.725,36.385,23.424,43.775,25.673,4.701,7.616,14.182
457,0.747,36.553,23.388,43.775,25.67,4.62,7.495,14.757
458,0.767,36.689,23.473,43.813,25.677,4.659,7.616,15.616
459,0.77,36.719,23.412,43.785,25.68,4.7,7.698,16.397
460,0.761,36.614,23.458,43.784,25.687,4.701,7.78,17.015
461,0.754,36.738,23.435,43.775,25.687,4.742,7.781,17.509
462,0.748,36.844,23.431,43.765,25.684,4.742,7.822,17.799
463,0.76,36.625,23.408,43.842,25.68,4.701,7.822,18.168
464,0.767,36.527,23.407,43.775,25.677,4.782,7.903,18.293
465,0.774,36.65,23.474,43.765,25.684,4.742,7.823,18.416
466,0.774,36.796,23.47,43.775,25.687,4.742,7.944,18.377
467,0.777,36.596,23.478,43.813,25.694,4.823,7.986,18.377
468,0.774,36.689,23.424,43.804,25.694,4.824,8.068,18.417
469,0.761,36.767,23.47,43.775,25.687,4.865,7.987,18.174
470,0.748,36.883,23.326,43.765,25.684,4.662,7.824,17.887
471,0.738,36.481,23.383,43.746,25.673,4.7,7.822,17.68
472,0.725,36.631,23.462,43.746,25.677,4.701,7.863,17.434
473,0.731,36.757,23.392,43.746,25.673,4.701,7.822,17.025
474,0.731,36.835,23.438,43.736,25.677,4.701,7.863,16.818
475,0.731,36.452,23.369,43.746,25.68,4.701,7.904,16.491
476,0.738,36.611,23.403,43.736,25.684,4.742,7.985,16.243
477,0.725,36.699,23.47,43.717,25.68,4.742,7.986,16.038
478,0.715,36.806,23.381,43.717,25.67,4.62,7.864,15.71
479,0.718,36.442,23.438,43.707,25.677,4.741,7.944,15.504
480,0.734,36.592,23.423,43.736,25.684,4.823,8.026,15.42
481,0.738,36.709,23.38,43.736,25.691,4.824,8.109,15.257
482,0.731,36.777,23.411,43.736,25.684,4.743,8.15,15.093
483,0.725,37.123,23.446,43.717,25.684,4.823,8.11,14.806
484,0.724,37.28,23.497,43.717,25.684,4.783,8.15,14.56
485,0.721,37.368,23.459,43.736,25.687,4.783,8.15,14.435
486,0.718,37.436,23.474,43.717,25.68,4.742,8.191,14.19
487,0.721,36.986,23.424,43.707,25.684,4.742,8.192,14.025
488,0.724,37.144,23.482,43.697,25.68,4.742,8.192,13.901
489,0.724,37.28,23.404,43.745,25.694,4.864,8.192,13.859
490,0.721,37.272,23.423,43.717,25.691,4.824,8.273,13.818
491,0.731,36.207,23.485,43.688,25.684,4.743,8.111,13.655
492,0.754,36.34,23.392,43.688,25.677,4.701,8.028,13.45
493,0.774,36.466,23.419,43.669,25.673,4.701,8.027,13.286
494,0.787,36.554,23.368,43.668,25.68,4.579,8.068,13.365
495,0.8,36.66,23.45,43.668,25.673,4.781,8.028,13.407
496,0.8,36.776,23.447,43.668,25.68,4.661,8.068,13.448
497,0.813,36.893,23.443,43.659,25.677,4.7,8.15,13.489
498,0.826,36.366,23.439,43.668,25.684,4.742,8.15,13.53
499,0.826,36.39,23.415,43.64,25.677,4.701,8.11,13.571
500,0.852,36.563,23.423,43.649,25.673,4.579,7.987,13.409
501,0.885,36.67,23.38,43.659,25.68,4.659,8.068,13.448
502,0.905,36.499,23.485,43.659,25.687,4.741,8.069,13.448
503,0.892,36.621,23.431,43.649,25.68,4.823,8.109,13.448
504,0.892,36.766,23.376,43.659,25.691,4.824,8.109,13.367
505,0.847,36.854,23.399,43.649,25.691,4.783,8.069,13.325
506,0.836,36.385,23.407,43.649,25.68,4.783,8.069,13.122
507,0.81,36.515,23.458,43.63,25.684,4.742,8.109,12.998
508,0.82,36.66,23.392,43.62,25.684,4.701,8.069,12.956
509,0.833,36.729,23.466,43.62,25.684,4.701,8.028,12.874
510,0.83,36.355,23.443,43.63,25.687,4.742,7.987,12.711
511,0.839,36.505,23.47,43.658,25.698,4.864,8.149,12.668
512,0.83,36.612,23.408,43.63,25.694,4.824,8.028,12.668
513,0.826,36.642,23.466,43.591,25.684,4.702,8.027,12.465
514,0.833,36.354,23.478,43.581,25.677,4.62,8.027,12.585
515,0.833,36.514,23.427,43.591,25.673,4.7,7.824,12.789
516,0.862,36.641,23.407,43.6,25.673,4.701,7.863,13.401
517,0.872,36.68,23.419,43.581,25.677,4.742,7.944,14.424
518,0.853,36.316,23.4,43.6,25.677,4.701,7.945,15.613
519,0.866,36.485,23.431,43.581,25.684,4.701,7.945,17.048
520,0.843,36.583,23.443,43.572,25.687,4.742,7.986,19.136
521,0.836,36.757,23.412,43.552,25.67,4.742,7.905,21.759
522,0.826,36.442,23.38,43.543,25.666,4.661,7.823,24.265
523,0.826,36.573,23.399,43.562,25.677,4.782,7.944,26.608
524,0.836,36.708,23.423,43.581,25.684,4.824,7.986,28.42
525,0.885,36.365,23.466,43.572,25.684,4.783,7.946,29.739
526,0.925,36.323,23.431,43.562,25.687,4.742,7.986,30.525
527,0.918,36.476,23.372,43.571,25.68,4.783,7.986,30.939
528,0.905,36.564,23.469,43.572,25.68,4.783,7.946,30.903
529,0.876,36.306,23.33,43.543,25.684,4.783,7.905,30.618
530,0.843,36.447,23.406,43.542,25.684,4.783,7.863,30.168
531,0.83,36.583,23.489,43.542,25.68,4.783,7.822,29.634
532,0.833,36.699,23.467,43.571,25.691,4.742,7.863,28.979
533,0.823,36.182,23.435,43.543,25.691,4.823,7.944,28.2
534,0.817,36.283,23.408,43.619,25.68,4.824,7.783,27.379
535,0.787,36.418,23.446,43.505,25.677,4.702,7.618,26.435
536,0.761,36.515,23.462,43.504,25.677,4.66,7.576,25.572
537,0.764,36.238,23.427,43.552,25.677,4.7,7.575,24.832
538,0.751,36.417,23.443,43.504,25.677,4.701,7.575,24.214
539,0.748,36.544,23.439,43.494,25.68,4.782,7.616,23.72
540,0.757,36.632,23.392,43.494,25.677,4.702,7.576,23.349
541,0.761,36.057,23.368,43.484,25.68,4.742,7.575,23.021
542,0.774,36.176,23.415,43.456,25.684,4.783,7.454,22.814
543,0.774,36.321,23.458,43.455,25.67,4.742,7.452,22.487
544,0.774,36.409,23.431,43.475,25.684,4.823,7.534,22.239
545,0.774,36.266,23.408,43.494,25.687,4.824,7.494,22.034
546,0.767,36.399,23.419,43.494,25.687,4.824,7.494,21.828
547,0.748,36.525,23.482,43.475,25.691,4.865,7.453,21.501
548,0.77,36.555,23.42,43.465,25.687,4.824,7.412,21.213
549,0.774,36.2,23.419,43.465,25.684,4.824,7.371,20.804
550,0.777,36.331,23.454,43.475,25.68,4.824,7.37,20.434
551,0.767,36.466,23.369,43.465,25.68,4.865,7.411,20.064
552,0.78,36.803,23.407,43.455,25.68,4.906,7.33,19.776
553,0.793,36.088,23.399,43.465,25.687,4.865,7.289,19.326
554,0.793,36.224,23.497,43.475,25.698,4.906,7.329,19.077
555,0.787,36.293,23.475,43.446,25.684,4.865,7.329,18.628
556,0.78,36.159,23.502,43.427,25.677,4.824,7.167,18.298
557,0.79,36.187,23.416,43.417,25.68,4.783,7.124,17.847
558,0.787,36.311,23.442,43.417,25.677,4.742,7.043,17.558
559,0.777,36.437,23.396,43.397,25.677,4.823,7.123,17.311
560,0.754,35.969,23.45,43.397,25.684,4.702,7.043,17.187
561,0.751,36.089,23.455,43.397,25.68,4.782,7.082,17.145
562,0.751,36.224,23.361,43.397,25.677,4.783,7.042,17.063
563,0.735,36.331,23.411,43.397,25.684,4.824,7.001,16.94
564,0.715,35.949,23.376,43.369,25.67,4.743,7.123,16.858
565,0.718,36.098,23.462,43.387,25.673,4.742,6.961,16.898
566,0.721,36.263,23.423,43.397,25.68,4.823,7.041,17.142
567,0.724,36.331,23.454,43.397,25.684,4.865,7.123,17.51
568,0.731,35.929,23.466,43.388,25.691,4.865,7.124,18.124
569,0.738,36.069,23.42,43.388,25.684,4.946,7.124,19.065
570,0.728,36.224,23.431,43.397,25.684,4.947,7.083,20.172
571,0.731,36.283,23.376,43.388,25.684,4.866,7.042,21.322
572,0.731,35.938,23.501,43.378,25.68,4.865,7.082,22.309
573,0.728,36.079,23.412,43.368,25.684,4.865,7.042,23.132
574,0.747,36.205,23.399,43.368,25.68,4.865,7.082,23.709
575,0.747,36.292,23.384,43.368,25.687,4.865,7.083,24.04
576,0.751,35.948,23.458,43.387,25.687,5.028,7.083,24.247
577,0.735,36.069,23.439,43.378,25.691,4.989,7.083,24.33
578,0.721,36.186,23.415,43.368,25.677,4.907,7.042,24.047
579,0.724,36.216,23.482,43.33,25.677,4.784,7.001,23.678
580,0.721,35.736,23.377,43.33,25.677,4.742,6.96,23.227
581,0.721,35.914,23.434,43.339,25.677,4.783,7.041,22.816
582,0.741,36.021,23.4,43.32,25.673,4.824,7.042,22.405
583,0.712,36.3,23.497,43.32,25.673,4.783,7.042,21.873
584,0.702,35.919,23.502,43.329,25.666,4.864,7.001,21.42
585,0.701,36.079,23.416,43.32,25.684,4.824,7.001,21.009
586,0.695,36.167,23.407,43.301,25.68,4.824,7.001,20.517
587,0.701,35.755,23.392,43.281,25.67,4.743,6.96,20.065
588,0.724,35.78,23.392,43.319,25.677,4.701,6.919,19.654
589,0.734,35.943,23.458,43.31,25.684,4.863,7.0,19.446
590,0.741,36.06,23.455,43.329,25.68,4.906,7.082,19.485
591,0.741,35.821,23.447,43.31,25.68,4.987,7.042,19.363
592,0.777,35.963,23.384,43.349,25.687,4.907,7.042,19.362
593,0.784,36.089,23.407,43.311,25.677,4.865,6.96,19.24
594,0.81,36.176,23.372,43.32,25.684,4.865,6.878,19.076
595,0.8,35.669,23.462,43.272,25.68,4.865,6.918,19.034
596,0.774,35.808,23.381,43.281,25.68,4.824,6.959,18.871
597,0.767,35.991,23.411,43.281,25.684,4.865,6.96,18.707
598,0.738,36.06,23.497,43.31,25.694,4.987,7.041,18.542
599,0.718,35.802,23.354,43.301,25.691,4.866,7.082,18.297
600,0.708,35.934,23.422,43.253,25.684,4.824,6.961,17.888
601,0.692,36.06,23.431,43.252,25.684,4.743,6.878,17.599
602,0.682,36.118,23.478,43.252,25.673,4.742,6.918,17.434
603,0.659,35.582,23.408,43.243,25.67,4.742,6.959,17.31
604,0.636,35.749,23.423,43.338,25.677,4.823,7.0,17.187
605,0.623,35.885,23.423,43.243,25.68,4.743,7.082,17.063
606,0.629,35.925,23.435,43.242,25.684,4.823,7.123,17.022
607,0.636,35.628,23.372,43.233,25.68,4.865,7.043,16.737
608,0.633,35.75,23.415,43.223,25.677,4.743,7.082,16.571
609,0.639,35.904,23.482,43.213,25.673,4.742,7.083,16.366
610,0.642,35.954,23.404,43.252,25.684,4.823,7.164,16.323
611,0.646,35.715,23.419,43.243,25.68,4.865,7.287,16.201
612,0.672,35.866,23.462,43.252,25.684,4.824,7.207,16.037
613,0.708,35.963,23.439,43.233,25.684,4.905,7.328,15.832
614,0.747,36.002,23.458,43.223,25.684,4.906,7.167,15.993
615,0.787,35.638,23.384,43.223,25.684,4.825,7.246,16.523
616,0.845,35.779,23.368,43.223,25.691,4.824,7.247,17.22
617,0.895,35.895,23.458,43.213,25.68,4.824,7.288,18.121
618,0.957,35.589,23.392,43.213,25.677,4.824,7.288,19.106
619,1.02,35.644,23.427,43.213,25.691,4.946,7.329,20.254
620,1.043,35.759,23.435,43.204,25.691,4.988,7.451,21.851
621,1.056,35.837,23.337,43.204,25.687,4.907,7.33,23.006
622,1.066,35.474,23.399,43.175,25.67,4.825,7.289,23.952
623,1.063,35.614,23.415,43.155,25.673,4.783,7.166,24.734
624,1.063,35.74,23.493,43.165,25.673,4.742,7.206,25.352
625,1.082,35.837,23.467,43.155,25.677,4.823,7.247,25.643
626,1.112,35.426,23.466,43.194,25.68,4.783,7.288,25.727
627,1.158,35.565,23.459,43.175,25.687,4.783,7.288,25.646
628,1.2,35.692,23.462,43.175,25.684,4.864,7.329,25.32
629,1.25,35.77,23.431,43.155,25.677,4.824,7.37,25.032
630,1.341,35.483,23.423,43.136,25.677,4.743,7.289,24.46
631,1.433,35.633,23.47,43.155,25.677,4.783,7.369,23.926
632,1.519,35.788,23.334,43.165,25.691,4.824,7.452,23.433
633,1.617,35.857,23.414,43.175,25.684,4.865,7.534,22.818
634,1.686,35.445,23.392,43.155,25.687,4.865,7.575,22.202
635,1.733,35.575,23.446,43.146,25.687,4.865,7.535,21.545
636,1.801,35.711,23.49,43.126,25.68,4.865,7.616,21.01
637,1.831,35.779,23.408,43.145,25.68,4.824,7.617,20.761
638,1.88,35.521,23.478,43.146,25.691,4.865,7.535,20.84
639,1.904,35.672,23.392,43.136,25.684,4.865,7.534,21.166
640,1.904,35.836,23.415,43.155,25.691,4.865,7.534,21.494
641,1.852,35.857,23.439,43.155,25.694,4.906,7.697,21.986
642,1.77,35.282,23.443,43.127,25.68,4.825,7.577,22.235
643,1.704,35.42,23.408,43.107,25.68,4.783,7.575,22.278
644,1.668,35.556,23.31,43.116,25.684,4.783,7.494,22.4
645,1.661,35.596,23.395,43.097,25.68,4.742,7.412,22.401
646,1.612,35.443,23.442,43.088,25.68,4.701,7.452,22.279
647,1.511,35.585,23.369,43.088,25.68,4.823,7.452,22.075
648,1.331,35.721,23.442,43.088,25.68,4.783,7.452,21.788
649,1.183,35.319,23.435,43.078,25.684,4.783,7.534,21.46
650,1.045,35.334,23.415,43.097,25.687,4.824,7.534,21.213
651,0.881,35.469,23.396,43.069,25.67,4.661,7.412,20.641
652,0.746,35.595,23.423,43.078,25.673,4.66,7.411,20.351
653,0.598,35.26,23.521,43.097,25.684,4.822,7.493,19.941
654,0.434,35.391,23.471,43.088,25.687,4.824,7.494,19.652
655,0.282,35.527,23.416,43.078,25.677,4.824,7.534,19.69
656,0.151,35.624,23.4,43.087,25.687,4.783,7.534,20.138
657,0.026,35.433,23.45,43.059,25.68,4.824,7.494,20.996
658,-0.073,35.575,23.412,43.058,25.684,4.783,7.534,21.94
659,-0.123,35.711,23.415,43.068,25.68,4.824,7.494,22.966
660,-0.195,35.779,23.493,43.049,25.684,4.824,7.534,23.911
661,-0.225,35.185,23.377,43.039,25.68,4.743,7.494,25.018
662,-0.215,35.362,23.442,43.097,25.691,4.905,7.616,25.965
663,-0.244,35.469,23.392,43.049,25.694,4.906,7.739,26.746
664,-0.228,35.528,23.454,43.039,25.68,4.784,7.659,27.242
665,-0.186,35.221,23.431,43.02,25.673,4.783,7.617,27.328
666,-0.147,35.391,23.365,43.02,25.677,4.702,7.617,27.492
667,-0.107,35.527,23.415,43.01,25.68,4.782,7.576,27.412
668,-0.068,35.576,23.442,42.991,25.684,4.742,7.535,27.208
669,-0.022,35.222,23.443,43.115,25.677,4.783,7.494,26.962
670,-0.005,35.362,23.384,43.021,25.677,4.824,7.534,26.513
671,0.018,35.517,23.45,43.001,25.677,4.743,7.534,26.183
672,0.051,35.528,23.451,43.02,25.684,4.742,7.534,25.61
673,0.08,35.308,23.388,42.972,25.677,4.783,7.534,25.117
674,0.129,35.449,23.423,42.981,25.673,4.702,7.412,24.461
675,0.169,35.566,23.415,42.991,25.677,4.782,7.371,23.763
676,0.225,35.423,23.474,42.991,25.684,4.783,7.452,23.309
677,0.254,35.172,23.443,42.991,25.684,4.783,7.534,22.776
678,0.274,35.294,23.431,42.981,25.684,4.824,7.494,22.364
679,0.284,35.401,23.447,42.991,25.677,4.824,7.453,21.954
680,0.307,35.23,23.454,43.067,25.68,4.783,7.452,21.665
681,0.337,35.305,23.419,42.982,25.684,4.824,7.452,21.418
682,0.373,35.449,23.431,42.962,25.677,4.783,7.371,21.171
683,0.412,35.566,23.47,42.971,25.68,4.824,7.411,20.885
684,0.464,35.04,23.412,42.971,25.687,4.824,7.33,20.638
685,0.497,35.168,23.403,43.01,25.691,4.946,7.451,20.351
686,0.527,35.294,23.38,42.972,25.684,4.825,7.412,20.023
687,0.563,35.382,23.415,42.943,25.68,4.865,7.33,19.572
688,0.583,35.066,23.419,42.942,25.677,4.702,7.207,19.161
689,0.596,35.217,23.392,42.942,25.677,4.701,7.206,18.669
690,0.622,35.352,23.446,42.933,25.68,4.701,7.165,18.298
691,0.645,35.459,23.373,42.981,25.68,4.782,7.165,17.969
692,0.649,35.058,23.395,42.933,25.677,4.783,7.246,17.519
693,0.685,35.236,23.47,42.923,25.68,4.824,7.247,17.067
694,0.708,35.353,23.482,42.942,25.68,4.824,7.288,16.737
695,0.715,35.392,23.482,42.894,25.673,4.783,7.329,16.49
696,0.75,34.999,23.388,42.904,25.666,4.702,7.126,16.081
697,0.777,35.168,23.466,42.923,25.68,4.742,7.165,15.873
698,0.761,35.342,23.31,42.952,25.684,4.823,7.328,15.668
699,0.783,35.363,23.418,42.914,25.687,4.865,7.37,15.544
700,0.803,34.98,23.505,42.913,25.684,4.865,7.37,15.299
701,0.794,35.129,23.385,42.904,25.684,4.784,7.411,15.093
702,0.81,35.265,23.45,42.904,25.684,4.864,7.371,14.847
703,0.787,35.295,23.419,42.904,25.684,4.906,7.37,14.682
704,0.78,35.104,23.485,42.884,25.68,4.784,7.37,14.599
705,0.787,35.246,23.471,42.903,25.684,4.864,7.289,14.476
706,0.8,35.391,23.408,42.913,25.684,4.824,7.369,14.394
707,0.797,35.316,23.415,42.904,25.691,4.946,7.492,14.393
708,0.797,35.152,23.431,42.894,25.691,4.907,7.412,14.271
709,0.794,35.313,23.392,42.913,25.677,4.784,7.371,14.066
710,0.8,35.43,23.352,42.846,25.684,4.702,7.289,13.942
711,0.81,34.961,23.446,42.855,25.677,4.782,7.288,13.819
712,0.826,35.024,23.443,42.865,25.677,4.742,7.329,13.696
713,0.846,35.188,23.357,42.855,25.68,4.742,7.37,13.532
714,0.849,35.295,23.415,42.865,25.677,4.783,7.37,13.327
715,0.859,34.989,23.392,42.855,25.684,4.742,7.37,13.244
716,0.846,35.101,23.473,42.855,25.677,4.783,7.37,13.08
717,0.833,35.246,23.396,42.807,25.666,4.702,7.33,13.241
718,0.849,35.372,23.446,42.816,25.673,4.782,7.37,13.934
719,0.862,34.894,23.447,42.845,25.684,4.824,7.37,14.917
720,0.879,35.052,23.458,42.913,25.684,4.824,7.411,16.106
721,0.866,35.188,23.38,42.837,25.684,4.865,7.411,17.663
722,0.853,35.247,23.454,42.826,25.677,4.865,7.452,19.508
723,0.836,34.864,23.498,42.807,25.684,4.865,7.412,21.519
724,0.826,35.004,23.42,42.826,25.68,4.824,7.371,23.246
725,0.833,35.159,23.384,42.817,25.684,4.824,7.411,24.605
726,0.836,35.246,23.388,42.807,25.684,4.824,7.371,25.676
727,0.843,34.931,23.462,42.816,25.691,4.865,7.411,26.256
728,0.849,35.071,23.482,42.807,25.694,4.906,7.533,26.668
729,0.853,35.198,23.451,42.807,25.691,4.865,7.412,26.875
730,0.856,35.199,23.49,42.788,25.677,4.824,7.33,26.512
731,0.856,34.959,23.322,42.807,25.673,4.743,7.289,26.264
732,0.859,35.12,23.41,42.749,25.677,4.701,7.207,25.774
733,0.885,35.246,23.388,42.758,25.684,4.742,7.287,25.24
734,0.902,35.276,23.454,42.758,25.677,4.783,7.247,24.706
735,0.934,34.874,23.443,42.749,25.677,4.824,7.288,24.05
736,0.948,35.033,23.408,42.749,25.684,4.824,7.207,23.393
737,0.961,35.149,23.462,42.749,25.68,4.824,7.206,22.818
738,0.961,35.198,23.361,42.73,25.673,4.783,7.247,22.202
739,0.955,35.266,23.415,42.71,25.67,4.702,7.166,21.627
740,0.954,35.42,23.427,42.729,25.691,4.742,7.124,21.499
741,0.945,35.546,23.462,42.729,25.691,4.864,7.246,21.172
742,0.932,34.761,23.361,42.739,25.68,4.824,7.166,20.966
743,0.931,34.801,23.422,42.73,25.684,4.783,7.206,20.639
744,0.931,34.946,23.466,42.71,25.684,4.824,7.206,20.473
745,0.948,35.062,23.435,42.72,25.684,4.865,7.165,20.227
746,0.945,35.102,23.466,42.71,25.684,4.824,7.124,20.102
747,0.951,35.246,23.408,42.72,25.684,4.783,7.083,19.898
748,0.941,35.391,23.454,42.691,25.68,4.783,7.123,19.733
749,0.922,35.469,23.462,42.729,25.691,4.905,7.165,19.691
750,0.896,34.588,23.423,42.72,25.687,4.947,7.165,19.731
751,0.853,34.723,23.446,42.672,25.68,4.866,7.165,19.488
752,0.843,34.849,23.47,42.662,25.684,4.743,7.043,19.445
753,0.839,34.936,23.47,42.652,25.673,4.701,7.082,19.241
754,0.846,34.659,23.345,42.652,25.677,4.701,7.002,19.117
755,0.843,34.848,23.399,42.642,25.677,4.701,7.082,19.034
756,0.846,34.965,23.403,42.642,25.677,4.742,7.002,18.952
757,0.849,35.024,23.392,42.633,25.677,4.742,7.082,18.911
758,0.856,34.679,23.415,42.633,25.684,4.783,7.042,18.788
759,0.866,34.82,23.411,42.633,25.68,4.783,7.082,18.706
760,0.869,34.927,23.435,42.623,25.677,4.783,7.164,18.664
761,0.866,35.004,23.376,42.613,25.663,4.702,7.002,18.623
762,0.872,34.765,23.384,42.613,25.68,4.742,7.001,18.786
763,0.869,34.907,23.493,42.632,25.68,4.783,7.123,19.153
764,0.866,35.004,23.467,42.613,25.691,4.824,7.165,19.604
765,0.879,35.034,23.486,42.613,25.684,4.865,7.124,19.853
766,0.866,34.766,23.389,42.613,25.691,4.784,7.124,20.018
767,0.885,34.926,23.45,42.604,25.687,4.864,7.165,20.1
768,0.885,35.043,23.439,42.604,25.687,4.784,7.165,20.142
769,0.892,34.823,23.423,42.575,25.68,4.783,7.043,20.142
770,0.899,34.754,23.482,42.584,25.68,4.824,7.042,20.061
771,0.918,34.935,23.459,42.584,25.691,4.824,7.082,19.857
772,0.931,35.043,23.416,42.603,25.698,4.946,7.205,19.814
773,0.935,34.641,23.392,42.584,25.691,4.866,7.287,19.529
774,0.951,34.704,23.442,42.555,25.68,4.824,7.166,19.242
775,0.958,34.858,23.482,42.526,25.677,4.743,7.124,18.914
776,0.968,34.965,23.455,42.536,25.67,4.742,7.043,18.544
777,0.958,34.592,23.451,42.536,25.677,4.783,7.082,18.256
778,0.954,34.723,23.415,42.545,25.68,4.742,7.123,17.928
779,0.948,34.849,23.446,42.536,25.68,4.701,7.124,17.559
780,0.954,34.975,23.392,42.545,25.677,4.742,7.083,17.271
781,0.935,34.545,23.407,42.536,25.677,4.742,7.164,16.902
782,0.935,34.674,23.446,42.517,25.677,4.661,7.124,16.613
783,0.928,34.829,23.431,42.488,25.67,4.66,7.083,16.245
784,0.931,34.936,23.408,42.516,25.677,4.7,7.123,16.119
785,0.935,34.544,23.384,42.603,25.687,4.823,7.205,16.158
786,0.928,34.713,23.407,42.537,25.691,4.905,7.247,16.24
787,0.928,34.83,23.446,42.536,25.684,4.865,7.166,16.322
788,0.935,34.898,23.423,42.517,25.687,4.824,7.165,16.364
789,0.948,34.64,23.435,42.507,25.68,4.824,7.124,16.364
790,0.945,34.781,23.462,42.516,25.68,4.824,7.124,16.405
791,0.954,34.936,23.377,42.497,25.684,4.824,7.124,16.324
792,0.961,34.976,23.364,42.507,25.684,4.783,7.083,16.16
793,0.99,34.583,23.458,42.497,25.68,4.783,7.083,16.037
794,1.004,34.742,23.517,42.516,25.694,4.905,7.164,16.035
795,0.994,34.83,23.498,42.507,25.691,4.906,7.124,16.076
796,0.997,34.831,23.475,42.468,25.684,4.744,7.043,15.995
797,0.991,34.514,23.412,42.468,25.673,4.742,7.001,15.913
798,0.981,34.655,23.403,42.478,25.677,4.742,6.96,15.831
799,0.981,34.781,23.376,42.449,25.68,4.701,6.96,15.79
800,0.984,34.571,23.426,42.439,25.68,4.742,6.96,15.749
801,0.994,34.541,23.431,42.468,25.677,4.742,7.082,15.626
802,1.004,34.674,23.38,42.449,25.684,4.701,7.002,15.584
803,0.981,34.8,23.407,42.458,25.68,4.782,7.041,15.543
804,0.981,34.524,23.384,42.449,25.673,4.783,7.042,15.34
805,0.981,34.626,23.469,42.42,25.673,4.702,6.96,15.134
806,0.987,34.771,23.455,42.429,25.677,4.782,6.878,14.929
807,0.997,34.916,23.455,42.458,25.68,4.824,7.04,14.805
808,1.017,34.439,23.408,42.43,25.687,4.783,7.123,14.763
809,1.017,34.558,23.435,42.458,25.68,4.824,7.083,14.6
810,1.017,34.713,23.439,42.449,25.68,4.783,7.002,14.436
811,1.01,34.791,23.411,42.449,25.68,4.824,7.041,14.231
812,1.014,34.485,23.47,42.439,25.68,4.743,7.042,13.985
813,1.033,34.626,23.427,42.42,25.677,4.864,7.001,13.86
814,1.043,34.762,23.411,42.42,25.68,4.824,7.001,13.696
815,1.059,34.868,23.407,42.506,25.684,4.743,7.001,13.817
816,1.06,34.313,23.431,42.43,25.691,4.823,6.96,14.468
817,1.06,34.442,23.478,42.449,25.687,4.905,7.082,15.491
818,1.053,34.587,23.451,42.41,25.691,4.784,6.92,16.437
819,1.053,34.627,23.462,42.41,25.677,4.702,6.878,17.585
820,1.063,34.416,23.423,42.372,25.673,4.701,6.877,19.019
821,1.053,34.577,23.435,42.429,25.677,4.66,6.796,20.822
822,1.063,34.723,23.384,42.391,25.677,4.782,6.795,22.629
823,1.037,34.772,23.427,42.381,25.684,4.783,6.836,24.152
824,1.04,34.332,23.478,42.381,25.684,4.742,6.796,25.265
825,1.037,34.461,23.439,42.381,25.684,4.742,6.795,26.089
826,1.024,34.587,23.431,42.381,25.68,4.742,6.836,26.585
827,1.027,34.848,23.361,42.362,25.677,4.783,6.877,26.753
828,1.04,34.342,23.426,42.352,25.673,4.702,6.674,26.632
829,1.059,34.509,23.376,42.362,25.687,4.782,6.753,26.387
830,1.069,34.655,23.438,42.371,25.684,4.824,6.795,26.1
831,1.076,34.445,23.478,42.381,25.684,4.865,6.755,25.691
832,1.079,34.472,23.361,42.381,25.694,4.824,6.795,25.158
833,1.089,34.607,23.43,42.371,25.691,4.824,6.795,24.461
834,1.092,34.714,23.4,42.362,25.684,4.743,6.714,23.845
835,1.099,34.254,23.489,42.342,25.68,4.823,6.713,23.066
836,1.115,34.346,23.428,42.361,25.68,4.865,6.713,22.57
837,1.119,34.51,23.431,42.352,25.68,4.824,6.754,22.037
838,1.122,34.617,23.47,42.352,25.691,4.865,6.754,21.747
839,1.129,34.368,23.424,42.362,25.694,4.906,6.836,21.744
840,1.112,34.481,23.454,42.342,25.694,4.825,6.755,21.581
841,1.109,34.597,23.423,42.313,25.677,4.743,6.714,21.417
842,1.115,34.704,23.501,42.294,25.677,4.701,6.632,21.334
843,1.099,34.235,23.412,42.313,25.677,4.742,6.59,21.089
844,1.102,34.422,23.384,42.294,25.673,4.742,6.631,21.087
845,1.109,34.539,23.415,42.303,25.684,4.701,6.631,20.924
846,1.089,34.636,23.423,42.304,25.68,4.742,6.672,20.76
847,1.089,34.378,23.454,42.294,25.684,4.742,6.631,20.636
848,1.089,34.558,23.388,42.303,25.684,4.783,6.631,20.635
849,1.089,34.655,23.45,42.275,25.677,4.742,6.59,20.635
850,1.096,34.714,23.4,42.246,25.673,4.661,6.549,20.757
851,1.109,34.389,23.411,42.274,25.68,4.7,6.468,21.002
852,1.115,34.548,23.415,42.313,25.687,4.782,6.629,21.696
853,1.128,34.694,23.435,42.284,25.684,4.864,6.631,22.882
854,1.132,34.724,23.47,42.294,25.691,4.906,6.631,24.032
855,1.125,34.485,23.431,42.275,25.691,4.825,6.712,25.304
856,1.142,34.616,23.447,42.303,25.687,4.824,6.672,26.252
857,1.148,34.752,23.431,42.275,25.68,4.824,6.631,26.831
858,1.142,35.079,23.419,42.274,25.677,4.824,6.631,27.243
859,1.145,34.479,23.372,42.265,25.684,4.743,6.55,27.369
860,1.161,34.616,23.446,42.246,25.68,4.905,6.671,27.248
861,1.181,34.771,23.494,42.265,25.687,4.744,6.713,27.003
862,1.165,34.638,23.353,42.274,25.694,4.905,6.794,26.716
863,1.135,34.666,23.461,42.265,25.691,4.906,6.836,26.266
864,1.119,34.772,23.408,42.236,25.684,4.744,6.837,25.692
865,1.112,34.878,23.485,42.226,25.677,4.742,6.714,25.077
866,1.115,34.572,23.471,42.217,25.68,4.701,6.754,24.42
867,1.122,34.713,23.447,42.226,25.677,4.701,6.795,23.885
868,1.125,34.858,23.466,42.217,25.68,4.701,6.795,23.392
869,1.116,34.965,23.451,42.216,25.684,4.782,6.877,22.858
870,1.112,34.794,23.462,42.207,25.68,4.742,6.918,22.324
871,1.141,34.917,23.4,42.216,25.68,4.783,6.878,21.953
872,1.151,35.033,23.454,42.216,25.687,4.824,6.959,21.787
873,1.155,35.14,23.412,42.168,25.673,4.661,6.919,21.826
874,1.178,34.853,23.407,42.187,25.677,4.66,6.919,21.867
875,1.181,35.013,23.357,42.226,25.68,4.741,7.0,22.03
876,1.181,35.159,23.418,42.197,25.687,4.864,7.001,22.398
877,1.191,35.218,23.478,42.197,25.687,4.865,7.082,22.645
878,1.198,35.065,23.408,42.187,25.691,4.824,7.042,22.648
879,1.204,35.207,23.427,42.197,25.684,4.865,7.123,22.648
880,1.194,35.352,23.439,42.168,25.687,4.824,6.961,22.525
881,1.194,35.392,23.369,42.187,25.684,4.824,7.0,22.24
882,1.194,35.162,23.43,42.168,25.684,4.783,7.001,21.993
883,1.185,35.323,23.415,42.178,25.68,4.783,6.96,21.665
884,1.171,35.469,23.517,42.187,25.691,4.864,7.082,21.337
885,1.152,35.518,23.467,42.187,25.694,4.946,7.164,21.089
886,1.109,35.451,23.423,42.178,25.691,4.825,7.124,20.518
887,1.089,35.604,23.388,42.13,25.68,4.743,7.002,20.065
888,1.076,35.702,23.489,42.12,25.67,4.742,7.001,19.45
889,1.07,35.961,23.447,42.139,25.68,4.701,7.041,19.078
890,1.063,35.619,23.384,42.129,25.677,4.742,7.082,18.709
891,1.069,35.759,23.485,42.139,25.677,4.783,7.164,18.217
892,1.073,35.857,23.451,42.12,25.677,4.783,7.124,17.887
893,1.073,35.819,23.412,42.139,25.684,4.742,7.165,17.518
894,1.083,35.895,23.384,42.12,25.684,4.783,7.206,17.026
895,1.076,36.021,23.419,42.1,25.67,4.661,7.206,16.655
896,1.083,36.128,23.435,42.1,25.673,4.66,7.206,16.164
897,1.092,35.726,23.415,42.129,25.684,4.863,7.247,15.956
898,1.096,35.856,23.442,42.129,25.684,4.784,7.288,15.709
899,1.096,35.982,23.447,42.11,25.691,4.824,7.288,15.382
900,1.086,36.079,23.408,42.12,25.687,4.824,7.369,15.094
901,1.076,36.051,23.376,42.091,25.68,4.865,7.411,14.806
902,1.079,36.185,23.442,42.091,25.691,4.824,7.33,14.519
903,1.063,36.321,23.423,42.1,25.684,4.783,7.37,14.313
904,1.056,36.399,23.462,42.081,25.68,4.783,7.33,14.189
905,1.069,36.189,23.412,42.071,25.677,4.824,7.329,13.944
906,1.053,36.398,23.403,42.119,25.691,4.824,7.289,13.778
907,1.05,36.496,23.509,42.11,25.691,4.905,7.41,13.777
908,1.05,36.554,23.424,42.11,25.691,4.865,7.33,13.574
909,1.037,36.267,23.415,42.052,25.684,4.824,7.248,13.327
910,1.033,36.427,23.485,42.042,25.677,4.783,7.206,13.203
911,1.027,36.544,23.408,42.042,25.673,4.742,7.084,13.08
912,1.03,36.632,23.454,42.052,25.673,4.742,7.123,12.957
913,1.037,36.575,23.408,42.052,25.677,4.742,7.124,12.752
914,1.03,36.718,23.478,42.042,25.684,4.742,7.083,12.709
915,1.017,36.835,23.451,42.042,25.677,4.783,7.083,12.628
916,1.001,36.836,23.4,42.061,25.68,4.824,7.083,12.952
917,0.991,36.596,23.407,42.023,25.673,4.743,7.042,14.013
918,0.994,36.737,23.446,42.023,25.67,4.701,7.001,15.568
919,0.997,36.883,23.408,42.071,25.687,4.742,7.041,17.332
920,0.994,37.018,23.396,42.052,25.691,4.864,7.082,19.301
921,0.984,36.847,23.493,42.033,25.68,4.865,7.042,21.639
922,0.971,36.98,23.455,42.042,25.687,4.865,7.082,24.223
923,0.958,37.106,23.408,42.033,25.684,4.824,6.961,26.729
924,0.951,36.906,23.415,42.1,25.677,4.865,7.041,28.747
925,0.964,36.961,23.357,42.024,25.684,4.784,7.042,30.23
926,0.968,37.086,23.442,42.004,25.68,4.824,7.042,31.261
927,0.984,37.222,23.4,42.042,25.691,4.865,7.001,31.678
928,0.997,37.041,23.431,42.042,25.694,4.906,7.163,31.845
929,0.984,37.154,23.431,42.004,25.694,4.865,7.328,31.684
930,0.974,37.28,23.415,42.013,25.677,4.784,7.289,31.235
931,0.974,37.377,23.454,41.984,25.677,4.742,7.329,30.499
932,0.955,37.023,23.419,41.994,25.677,4.742,7.41,29.719
933,0.951,37.183,23.493,41.994,25.677,4.701,7.533,28.939
934,0.945,37.299,23.463,41.975,25.684,4.823,7.616,28.037
935,0.919,37.377,23.451,41.994,25.68,4.783,7.739,27.214
936,0.902,37.148,23.404,41.994,25.684,4.783,7.699,26.393
937,0.879,37.261,23.489,41.975,25.677,4.742,7.78,25.612
938,0.876,37.415,23.443,42.003,25.673,4.661,7.781,24.71
939,0.869,37.484,23.415,41.965,25.68,4.782,7.822,24.091
940,0.872,37.322,23.497,41.993,25.684,4.824,7.985,23.556
941,0.869,37.454,23.4,41.975,25.691,4.905,7.864,23.063
942,0.866,37.571,23.431,41.984,25.691,4.825,8.026,22.652
943,0.846,37.629,23.435,41.975,25.687,4.824,7.946,22.119
944,0.84,37.381,23.462,41.974,25.68,4.783,7.945,21.667
945,0.843,37.512,23.517,41.974,25.687,4.824,7.945,21.337
946,0.836,37.629,23.408,41.974,25.677,4.824,7.945,21.008
947,0.833,37.659,23.435,41.965,25.687,4.783,7.864,20.802
948,0.846,37.486,23.454,41.984,25.684,4.824,7.863,20.637
949,0.849,37.629,23.412,41.994,25.691,4.905,7.985,20.676
950,0.827,37.735,23.388,41.965,25.687,4.865,7.986,20.676
951,0.833,37.65,23.462,41.955,25.68,4.743,7.905,20.514
952,0.826,37.4,23.431,41.936,25.677,4.783,7.742,20.593
953,0.843,37.532,23.396,41.936,25.677,4.742,7.781,20.675
954,0.843,37.658,23.333,41.936,25.673,4.742,7.781,20.839
955,0.846,37.467,23.391,41.917,25.677,4.701,7.7,20.963
956,0.836,37.532,23.434,41.945,25.677,4.742,7.658,21.086
957,0.83,37.658,23.392,41.926,25.68,4.742,7.658,21.087
958,0.823,37.784,23.466,41.936,25.68,4.783,7.78,20.924
959,0.83,37.411,23.423,41.926,25.68,4.783,7.7,20.76
960,0.849,37.503,23.439,41.897,25.677,4.702,7.618,20.514
961,0.862,37.667,23.415,41.907,25.67,4.742,7.454,20.105
962,0.885,37.774,23.446,41.916,25.677,4.783,7.493,19.898
963,0.879,37.459,23.49,41.907,25.684,4.824,7.616,19.53
964,0.863,37.59,23.474,41.955,25.691,4.824,7.657,19.242
965,0.84,37.706,23.459,41.936,25.684,4.783,7.658,18.914
966,0.826,37.803,23.369,41.926,25.687,4.824,7.698,18.544
967,0.807,37.45,23.465,41.916,25.684,4.743,7.658,18.175
968,0.813,37.571,23.416,41.907,25.68,4.742,7.617,17.724
969,0.803,37.725,23.423,41.916,25.691,4.783,7.657,17.394
970,0.813,37.794,23.458,41.897,25.687,4.783,7.739,17.106
971,0.826,37.507,23.447,41.935,25.684,4.824,7.699,16.697
972,0.8,37.638,23.4,41.945,25.691,4.946,7.78,16.368
973,0.794,37.745,23.368,41.917,25.687,4.825,7.7,16.12
974,0.8,37.775,23.419,41.888,25.68,4.743,7.658,15.549
975,0.81,37.421,23.439,41.878,25.67,4.701,7.536,15.258
976,0.826,37.551,23.482,41.878,25.673,4.742,7.534,15.337
977,0.826,37.706,23.439,41.887,25.677,4.701,7.534,15.744
978,0.817,37.698,23.411,41.897,25.68,4.742,7.534,16.155
979,0.82,37.439,23.442,41.916,25.68,4.701,7.534,16.972
980,0.817,37.599,23.408,41.878,25.68,4.782,7.494,18.119
981,0.807,37.687,23.466,41.878,25.68,4.742,7.494,19.675
982,0.813,37.64,23.478,41.868,25.68,4.701,7.494,21.276
983,0.797,37.544,23.451,41.858,25.68,4.66,7.371,22.634
984,0.784,37.696,23.404,41.887,25.67,4.7,7.33,23.745
985,0.8,37.832,23.392,41.906,25.684,4.701,7.37,24.61
986,0.813,37.479,23.427,41.887,25.687,4.782,7.452,25.269
987,0.826,37.542,23.411,41.887,25.687,4.824,7.452,25.642
988,0.833,37.677,23.442,41.887,25.687,4.783,7.371,25.89
989,0.83,37.774,23.486,41.878,25.684,4.824,7.37,25.811
990,0.83,37.583,23.435,41.878,25.684,4.824,7.33,25.769
991,0.839,37.735,23.4,41.887,25.684,4.743,7.289,25.525
992,0.833,37.852,23.395,41.859,25.687,4.783,7.247,25.197
993,0.849,37.949,23.446,41.877,25.684,4.783,7.247,24.665
994,0.843,37.374,23.509,41.897,25.698,4.946,7.288,24.213
995,0.823,37.484,23.459,41.878,25.687,4.866,7.288,23.802
996,0.82,37.609,23.416,41.858,25.684,4.743,7.247,23.188
997,0.813,37.668,23.368,41.839,25.677,4.661,7.206,22.572
998,0.813,37.295,23.407,41.82,25.68,4.7,7.165,21.834
999,0.816,37.444,23.423,41.839,25.677,4.701,7.165,21.298
1000,0.813,37.59,23.446,41.829,25.67,4.742,7.124,20.723
1001,0.813,37.649,23.494,41.839,25.68,4.742,7.083,20.026
1002,0.823,37.458,23.365,41.839,25.68,4.742,7.123,19.572
1003,0.804,37.599,23.442,41.848,25.677,4.742,7.165,19.039
1004,0.803,37.697,23.431,41.829,25.68,4.742,7.165,18.586
1005,0.816,37.736,23.443,41.81,25.677,4.62,7.084,17.972
1006,0.826,37.372,23.49,41.81,25.673,4.659,7.205,17.559
1007,0.82,37.551,23.428,41.829,25.684,4.822,7.328,17.271
1008,0.826,37.677,23.458,41.839,25.684,4.865,7.329,16.902
1009,0.817,37.698,23.412,41.829,25.684,4.784,7.37,16.532
1010,0.826,37.41,23.454,41.848,25.687,4.783,7.37,16.122
1011,0.826,37.532,23.4,41.829,25.687,4.783,7.33,15.833
1012,0.823,37.658,23.501,41.829,25.687,4.864,7.329,15.505
1013,0.813,37.563,23.502,41.829,25.684,4.784,7.41,15.217
1014,0.82,37.457,23.42,41.839,25.677,4.742,7.452,15.052
1015,0.817,37.619,23.439,41.896,25.687,4.742,7.452,14.969
1016,0.82,37.735,23.38,41.849,25.691,4.864,7.493,15.049
1017,0.8,37.334,23.442,41.801,25.691,4.824,7.534,15.009
1018,0.797,37.387,23.349,41.8,25.68,4.783,7.412,14.968
1019,0.79,37.522,23.407,41.781,25.68,4.661,7.411,15.009
1020,0.79,37.61,23.454,41.781,25.67,4.66,7.371,14.846
1021,0.797,37.15,23.404,41.858,25.673,4.7,7.37,14.845
1022,0.81,37.29,23.419,41.782,25.68,4.742,7.37,14.804
1023,0.816,37.425,23.431,41.771,25.677,4.742,7.37,14.722
1024,0.803,37.522,23.489,41.79,25.68,4.742,7.411,14.722
1025,0.807,37.399,23.486,41.771,25.684,4.742,7.411,14.599
1026,0.797,37.513,23.428,41.762,25.68,4.783,7.371,14.558
1027,0.8,37.658,23.478,41.752,25.666,4.62,7.289,14.395
1028,0.826,37.755,23.416,41.761,25.677,4.741,7.288,14.393
1029,0.826,37.181,23.462,41.771,25.687,4.823,7.451,14.637
1030,0.826,37.309,23.447,41.781,25.691,4.824,7.534,14.883
1031,0.813,37.416,23.494,41.781,25.691,4.824,7.534,15.17
1032,0.816,37.494,23.432,41.8,25.691,4.743,7.453,15.62
1033,0.839,37.312,23.419,41.781,25.68,4.742,7.493,16.153
1034,0.852,37.445,23.439,41.752,25.684,4.783,7.412,16.85
1035,0.846,37.561,23.423,41.752,25.677,4.742,7.452,17.548
1036,0.849,37.61,23.489,41.761,25.68,4.742,7.33,18.124
1037,0.872,37.323,23.486,41.771,25.691,4.823,7.41,18.781
1038,0.866,37.464,23.471,41.79,25.694,4.865,7.493,19.519
1039,0.859,37.523,23.482,41.762,25.687,4.865,7.575,20.705
1040,0.869,37.552,23.392,41.723,25.684,4.824,7.332,22.222
1041,0.846,37.284,23.423,41.713,25.673,4.702,7.329,23.985
1042,0.833,37.435,23.427,41.723,25.677,4.742,7.289,25.385
1043,0.836,37.523,23.439,41.713,25.677,4.701,7.166,26.822
1044,0.823,37.408,23.357,41.732,25.684,4.742,7.206,28.097
1045,0.833,37.369,23.45,41.79,25.677,4.742,7.247,29.289
1046,0.839,37.493,23.423,41.733,25.68,4.823,7.247,30.398
1047,0.826,37.59,23.462,41.723,25.68,4.702,7.247,31.182
1048,0.823,37.169,23.455,41.704,25.677,4.742,7.166,31.759
1049,0.849,37.251,23.431,41.703,25.68,4.742,7.124,31.968
1050,0.862,37.415,23.501,41.732,25.677,4.742,7.246,31.889
1051,0.875,37.542,23.397,41.742,25.694,4.823,7.206,31.685
1052,0.885,37.188,23.454,41.723,25.691,4.824,7.206,31.317
1053,0.892,37.309,23.451,41.723,25.691,4.824,7.247,30.703
1054,0.899,37.454,23.478,41.713,25.687,4.865,7.166,29.965
1055,0.902,37.542,23.494,41.713,25.684,4.906,7.206,29.226
1056,0.908,37.236,23.439,41.723,25.684,4.784,7.165,28.283
1057,0.908,37.377,23.435,41.704,25.687,4.783,7.124,27.42
1058,0.908,37.493,23.419,41.694,25.68,4.742,7.165,26.639
1059,0.895,37.6,23.431,41.703,25.684,4.823,7.165,25.899
1060,0.905,37.141,23.474,41.723,25.698,4.824,7.328,25.16
1061,0.886,37.242,23.482,41.704,25.691,4.905,7.41,24.502
1062,0.866,37.367,23.396,41.684,25.68,4.784,7.371,23.845
1063,0.853,37.426,23.376,41.674,25.677,4.62,7.37,23.188
1064,0.823,37.12,23.399,41.665,25.677,4.7,7.37,22.49
1065,0.826,37.27,23.407,41.655,25.68,4.701,7.411,22.077
1066,0.839,37.387,23.478,41.684,25.684,4.782,7.533,21.503
1067,0.836,37.455,23.439,41.665,25.68,4.702,7.616,21.172
1068,0.846,37.254,23.408,41.665,25.684,4.782,7.617,20.722
1069,0.856,37.367,23.47,41.665,25.68,4.783,7.657,20.433
1070,0.859,37.493,23.381,41.693,25.677,4.783,7.78,20.105
1071,0.872,37.523,23.395,41.665,25.673,4.661,7.7,19.613
1072,0.869,37.015,23.419,41.684,25.68,4.822,7.699,19.243
1073,0.866,37.144,23.509,41.665,25.684,4.743,7.861,19.117
1074,0.882,37.251,23.455,41.684,25.691,4.823,7.863,18.709
1075,0.892,37.147,23.345,41.674,25.687,4.783,7.944,18.38
1076,0.882,37.127,23.434,41.684,25.684,4.824,7.905,18.051
1077,0.879,37.261,23.423,41.665,25.684,4.865,7.945,17.682
1078,0.882,37.367,23.458,41.665,25.684,4.865,7.945,17.394
1079,0.879,36.975,23.474,41.674,25.684,4.824,7.864,17.106
1080,0.872,37.038,23.451,41.646,25.687,4.824,7.822,16.737
1081,0.856,37.202,23.365,41.674,25.68,4.743,7.863,16.531
1082,0.885,37.328,23.407,41.674,25.694,4.823,7.904,16.325
1083,0.876,36.812,23.47,41.684,25.694,4.905,8.026,16.12
1084,0.866,36.912,23.466,41.655,25.684,4.825,7.905,15.915
1085,0.859,37.038,23.463,41.626,25.68,4.743,7.782,15.628
1086,0.866,37.135,23.404,41.626,25.677,4.742,7.74,15.381
1087,0.856,36.887,23.407,41.616,25.677,4.701,7.618,15.094
1088,0.856,37.038,23.438,41.626,25.68,4.782,7.657,14.928
1089,0.856,37.193,23.411,41.645,25.677,4.742,7.698,14.805
1090,0.849,37.252,23.435,41.645,25.677,4.783,7.658,14.6
1091,0.843,36.782,23.447,41.636,25.68,4.742,7.576,14.395
1092,0.843,36.893,23.408,41.626,25.684,4.864,7.657,14.23
1093,0.862,37.038,23.411,41.693,25.677,4.702,7.576,13.944
1094,0.872,37.097,23.442,41.627,25.67,4.66,7.535,13.738
1095,0.872,36.762,23.408,41.626,25.677,4.741,7.534,13.655
1096,0.863,36.921,23.47,41.645,25.684,4.823,7.616,13.532
1097,0.862,37.038,23.459,41.664,25.691,4.824,7.617,13.408
1098,0.853,37.087,23.423,41.646,25.691,4.824,7.617,13.326
1099,0.846,36.81,23.497,41.645,25.687,4.824,7.576,13.162
1100,0.846,36.97,23.354,41.664,25.687,4.824,7.616,12.917
1101,0.83,37.077,23.422,41.636,25.687,4.743,7.535,12.752
1102,0.843,37.174,23.458,41.616,25.684,4.783,7.494,12.75
1103,0.83,36.705,23.498,41.626,25.684,4.824,7.453,13.075
1104,0.83,36.854,23.506,41.664,25.691,4.946,7.534,13.77
1105,0.836,36.951,23.436,41.665,25.691,4.947,7.575,14.509
1106,0.839,36.77,23.454,41.626,25.684,4.825,7.413,15.289
1107,0.839,36.758,23.447,41.607,25.677,4.661,7.33,16.232
1108,0.839,36.902,23.431,41.616,25.677,4.7,7.329,17.298
1109,0.862,37.019,23.384,41.616,25.673,4.742,7.289,18.366
1110,0.869,36.598,23.489,41.616,25.677,4.661,7.288,19.312
1111,0.879,36.699,23.408,41.635,25.677,4.741,7.288,19.972
1112,0.882,36.844,23.384,41.616,25.684,4.783,7.207,20.547
1113,0.885,36.941,23.423,41.626,25.68,4.824,7.287,20.878
1114,0.879,36.482,23.407,41.616,25.68,4.702,7.288,21.004
1115,0.882,36.612,23.497,41.578,25.673,4.742,7.207,21.208
1116,0.905,36.795,23.443,41.645,25.677,4.742,7.165,21.291
1117,0.889,36.874,23.439,41.626,25.684,4.783,7.328,21.496
1118,0.892,36.558,23.505,41.626,25.684,4.824,7.41,21.701
1119,0.886,36.737,23.389,41.645,25.694,4.824,7.371,21.622
1120,0.872,36.864,23.438,41.617,25.684,4.824,7.37,21.621
1121,0.869,36.913,23.447,41.607,25.691,4.743,7.452,21.784
1122,0.863,36.491,23.419,41.616,25.691,4.823,7.371,21.866
1123,0.846,36.669,23.454,41.626,25.687,4.783,7.37,22.03
1124,0.84,36.805,23.408,41.645,25.68,4.824,7.411,22.072
1125,0.836,36.883,23.45,41.617,25.691,4.783,7.33,22.032
1126,0.826,36.558,23.47,41.645,25.701,4.864,7.492,21.909
1127,0.813,36.68,23.498,41.636,25.694,4.865,7.494,21.746
1128,0.813,36.796,23.478,41.607,25.684,4.824,7.453,21.419
1129,0.829,36.816,23.47,41.568,25.68,4.783,7.33,20.968
1130,0.82,36.586,23.357,41.587,25.67,4.661,7.248,20.72
1131,0.83,36.728,23.372,41.597,25.677,4.741,7.328,20.311
1132,0.843,36.863,23.462,41.597,25.684,4.742,7.289,19.941
1133,0.862,37.191,23.431,41.587,25.677,4.742,7.247,19.531
1134,0.869,36.475,23.423,41.597,25.684,4.701,7.328,19.079
1135,0.863,36.612,23.384,41.606,25.687,4.742,7.289,18.668
1136,0.866,36.728,23.372,41.597,25.684,4.742,7.369,18.298
1137,0.849,36.509,23.458,41.559,25.67,4.661,7.289,17.969
1138,0.853,36.554,23.388,41.577,25.673,4.66,7.207,17.6
1139,0.853,36.718,23.423,41.587,25.677,4.741,7.247,17.474
1140,0.859,36.815,23.489,41.597,25.684,4.783,7.288,17.351
1141,0.849,36.394,23.373,41.597,25.691,4.824,7.288,17.187
1142,0.849,36.505,23.45,41.587,25.691,4.743,7.288,17.308
1143,0.849,36.66,23.431,41.597,25.687,4.823,7.207,17.634
1144,0.846,36.738,23.501,41.587,25.684,4.905,7.247,18.003
1145,0.84,36.643,23.439,41.597,25.684,4.784,7.166,18.495
1146,0.836,36.795,23.435,41.587,25.68,4.783,7.084,19.313
1147,0.846,36.95,23.454,41.578,25.687,4.783,7.123,20.297
1148,0.866,37.029,23.455,41.625,25.691,4.864,7.124,21.486
1149,0.849,36.234,23.47,41.607,25.694,4.906,7.165,22.555
1150,0.843,36.369,23.424,41.597,25.684,4.865,7.124,23.379
1151,0.856,36.505,23.505,41.568,25.677,4.824,6.961,24.241
1152,0.859,36.564,23.369,41.577,25.673,4.702,7.041,25.266
1153,0.856,36.363,23.442,41.578,25.684,4.66,6.96,26.333
1154,0.869,36.524,23.451,41.568,25.677,4.782,6.919,27.482
1155,0.866,36.65,23.427,41.568,25.684,4.742,6.878,28.632
1156,0.853,36.7,23.505,41.558,25.684,4.742,6.877,30.27
1157,0.846,36.432,23.377,41.568,25.687,4.742,6.837,31.709
1158,0.846,36.582,23.423,41.568,25.677,4.742,6.877,32.903
1159,0.827,36.709,23.45,41.568,25.684,4.783,6.877,33.565
1160,0.82,36.739,23.404,41.568,25.67,4.783,6.796,33.897
1161,0.839,37.075,23.427,41.539,25.673,4.661,6.714,33.819
1162,0.839,37.25,23.447,41.587,25.684,4.741,6.794,33.574
1163,0.823,37.358,23.478,41.587,25.684,4.783,6.877,33.328
1164,0.807,37.56,23.373,41.597,25.684,4.824,6.918,33.041
1165,0.81,36.105,23.43,41.645,25.691,4.824,6.919,32.753
1166,0.823,36.243,23.408,41.578,25.684,4.783,6.878,32.425
1167,0.83,36.35,23.489,41.568,25.684,4.783,6.796,32.137
1168,0.833,36.457,23.463,41.568,25.684,4.824,6.836,31.728
1169,0.856,36.554,23.439,41.568,25.684,4.783,6.877,31.398
1170,0.862,36.689,23.501,41.577,25.68,4.824,6.877,30.745
1171,0.862,36.815,23.35,41.597,25.68,4.824,6.877,30.087
1172,0.862,36.289,23.473,41.616,25.701,4.865,6.918,29.471
1173,0.853,36.38,23.416,41.588,25.694,4.865,7.0,28.814
1174,0.84,36.486,23.489,41.568,25.684,4.865,6.879,27.873
1175,0.836,36.583,23.498,41.558,25.684,4.743,6.755,26.969
1176,0.83,36.411,23.432,41.558,25.677,4.701,6.836,26.187
1177,0.852,36.544,23.454,41.549,25.673,4.742,6.796,25.285
1178,0.843,36.699,23.384,41.549,25.684,4.701,6.795,24.463
1179,0.843,36.796,23.45,41.549,25.673,4.782,6.795,23.641
1180,0.846,36.385,23.419,41.549,25.68,4.742,6.836,22.861
1181,0.849,36.524,23.466,41.549,25.684,4.701,6.796,22.121
1182,0.833,36.65,23.365,41.558,25.684,4.782,6.755,21.463
1183,0.813,36.709,23.364,41.549,25.677,4.742,6.795,20.725
1184,0.813,36.393,23.43,41.549,25.67,4.701,6.755,20.026
1185,0.816,36.553,23.435,41.558,25.68,4.701,6.754,19.45
1186,0.807,36.699,23.493,41.587,25.694,4.823,6.795,18.956
1187,0.79,36.758,23.459,41.568,25.691,4.865,6.836,18.463
1188,0.793,36.672,23.427,41.568,25.684,4.865,6.837,17.889
1189,0.81,36.815,23.45,41.568,25.673,4.865,6.877,17.396
1190,0.826,36.979,23.408,41.577,25.684,4.824,6.877,16.903
1191,0.833,36.981,23.446,41.578,25.691,4.783,6.877,16.41
1192,0.826,36.243,23.454,41.568,25.684,4.783,6.918,16.039
1193,0.826,36.398,23.494,41.568,25.68,4.824,6.796,15.548
1194,0.843,36.534,23.455,41.568,25.684,4.824,6.877,15.136
1195,0.83,37.034,23.412,41.606,25.698,4.905,6.959,14.888
1196,0.82,37.365,23.458,41.587,25.691,4.865,6.96,14.642
1197,0.813,37.474,23.455,41.539,25.68,4.784,6.919,14.273
1198,0.81,37.59,23.435,41.548,25.67,4.742,6.878,13.904
1199,0.803,36.287,23.419,41.549,25.677,4.701,6.877,13.575
1200,0.813,36.034,23.439,41.549,25.68,4.742,6.959,13.368
1201,0.803,36.166,23.353,41.558,25.68,4.783,6.878,13.122
1202,0.79,36.311,23.383,41.549,25.677,4.742,6.959,12.876
1203,0.787,36.447,23.45,41.549,25.677,4.783,6.919,12.751
1204,0.787,36.592,23.447,41.577,25.684,4.742,6.959,12.628
1205,0.774,36.709,23.505,41.549,25.677,4.783,6.96,12.749
1206,0.78,36.806,23.428,41.549,25.67,4.661,6.919,12.75
1207,0.79,36.279,23.462,41.558,25.677,4.741,6.959,12.913
1208,0.81,36.408,23.447,41.568,25.684,4.783,7.0,13.199
1209,0.81,36.573,23.412,41.568,25.684,4.824,7.001,13.405
1210,0.813,36.641,23.462,41.568,25.691,4.824,7.082,13.61
1211,0.82,36.383,23.451,41.577,25.687,4.783,7.042,13.816
1212,0.826,36.534,23.376,41.568,25.684,4.783,7.001,13.859
1213,0.836,36.66,23.356,41.577,25.687,4.783,6.96,14.103
1214,0.859,36.709,23.411,41.558,25.684,4.783,6.96,14.593
1215,0.866,36.355,23.407,41.558,25.677,4.742,7.0,15.208
1216,0.872,36.524,23.517,41.568,25.68,4.823,6.96,15.824
1217,0.859,36.66,23.498,41.606,25.691,4.905,7.163,16.644
1218,0.84,36.709,23.455,41.578,25.691,4.865,7.124,17.587
1219,0.817,36.355,23.447,41.568,25.684,4.865,7.124,18.572
1220,0.807,36.486,23.404,41.539,25.68,4.702,7.002,19.436
1221,0.82,36.602,23.446,41.539,25.677,4.701,7.001,20.257
1222,0.807,36.651,23.505,41.529,25.68,4.66,7.041,20.794
1223,0.794,36.364,23.408,41.529,25.673,4.741,7.001,21.247
1224,0.8,36.534,23.392,41.567,25.68,4.783,7.082,21.576
1225,0.8,36.651,23.376,41.549,25.684,4.783,7.042,21.702
1226,0.816,36.719,23.415,41.558,25.677,4.742,7.042,21.622
1227,0.81,36.298,23.392,41.549,25.677,4.783,7.001,21.54
1228,0.826,36.437,23.392,41.529,25.677,4.702,7.001,21.173
1229,0.843,36.573,23.45,41.539,25.673,4.66,7.041,20.803
1230,0.843,36.344,23.396,41.558,25.684,4.782,7.001,20.637
1231,0.856,36.399,23.438,41.577,25.687,4.864,7.123,20.31
1232,0.853,36.544,23.439,41.568,25.687,4.824,7.124,19.941
1233,0.869,36.632,23.439,41.558,25.684,4.865,7.124,19.693
1234,0.866,36.172,23.49,41.577,25.684,4.824,7.083,19.325
1235,0.872,36.263,23.428,41.558,25.684,4.783,7.083,19.118
1236,0.876,36.427,23.423,41.568,25.684,4.742,7.083,18.709
1237,0.866,36.515,23.431,41.549,25.684,4.783,7.164,18.461
1238,0.859,36.286,23.47,41.549,25.684,4.824,7.124,18.133
1239,0.879,36.437,23.451,41.587,25.684,4.824,7.165,17.886
1240,0.866,36.563,23.482,41.578,25.698,4.905,7.328,17.68
1241,0.853,36.641,23.428,41.539,25.687,4.865,7.329,17.312
1242,0.846,36.038,23.388,41.529,25.68,4.743,7.289,16.943
1243,0.84,36.185,23.466,41.529,25.677,4.661,7.207,16.614
1244,0.852,36.321,23.47,41.529,25.67,4.7,7.206,16.285
1245,0.875,36.39,23.509,41.539,25.677,4.742,7.369,16.119
1246,0.869,36.198,23.451,41.539,25.677,4.701,7.411,15.915
1247,0.872,36.36,23.408,41.548,25.687,4.742,7.493,15.75
1248,0.885,36.476,23.454,41.539,25.68,4.742,7.656,15.667
1249,0.918,36.544,23.408,41.539,25.68,4.701,7.658,15.544
1250,0.925,36.19,23.407,41.52,25.68,4.782,7.739,15.543
1251,0.948,36.331,23.438,41.51,25.677,4.661,7.659,15.38
1252,0.984,36.466,23.451,41.539,25.673,4.7,7.698,15.297
1253,1.004,36.535,23.412,41.558,25.687,4.863,7.861,15.256
1254,1.023,36.19,23.396,41.558,25.684,4.784,7.985,15.255
1255,1.01,36.302,23.442,41.549,25.691,4.824,8.108,15.215
1256,1.02,36.418,23.439,41.539,25.684,4.783,8.109,15.092
1257,1.027,36.419,23.462,41.539,25.687,4.824,8.232,14.928
1258,1.004,36.17,23.384,41.529,25.677,4.783,8.273,14.805
1259,1.0,36.292,23.469,41.529,25.68,4.824,8.436,14.641
1260,0.991,36.418,23.455,41.539,25.684,4.661,8.519,14.477
1261,0.997,36.074,23.408,41.539,25.68,4.741,8.642,14.353
1262,0.991,36.109,23.47,41.52,25.691,4.783,8.725,14.149
1263,0.971,36.263,23.463,41.567,25.687,4.783,8.929,13.984
1264,0.961,36.36,23.431,41.549,25.698,4.905,9.053,13.982
1265,0.958,35.949,23.443,41.51,25.691,4.784,9.054,13.698
1266,0.958,36.06,23.431,41.51,25.677,4.742,8.973,13.41
1267,0.958,36.195,23.466,41.5,25.677,4.701,8.972,13.285
1268,0.971,36.292,23.443,41.5,25.673,4.701,9.053,13.081
1269,0.971,35.881,23.478,41.51,25.684,4.742,8.973,12.916
1270,0.958,36.03,23.463,41.519,25.677,4.701,9.013,12.833
1271,0.945,36.185,23.33,41.529,25.684,4.782,9.135,12.71
1272,0.919,36.263,23.399,41.539,25.691,4.742,9.095,12.546
1273,0.944,35.967,23.458,41.529,25.677,4.742,9.054,12.423
1274,0.951,36.07,23.451,41.5,25.68,4.701,9.013,12.462
1275,0.941,36.224,23.443,41.5,25.677,4.66,8.932,13.276
1276,0.932,36.321,23.447,41.529,25.67,4.741,8.85,14.87
1277,0.922,36.533,23.447,41.52,25.694,4.783,8.93,16.878
1278,0.905,36.679,23.415,41.539,25.684,4.824,8.931,19.216
1279,0.886,36.805,23.4,41.52,25.684,4.824,8.931,21.841
1280,0.879,36.855,23.474,41.529,25.68,4.824,8.89,24.754
1281,0.863,35.503,23.463,41.529,25.691,4.824,8.93,27.548
1282,0.856,35.633,23.381,41.529,25.687,4.824,8.809,29.73
1283,0.866,35.788,23.43,41.52,25.684,4.743,8.848,31.46
1284,0.866,35.818,23.423,41.519,25.691,4.742,8.727,32.534
1285,0.895,35.915,23.47,41.519,25.687,4.742,8.726,33.155
1286,0.905,36.079,23.509,41.519,25.684,4.783,8.766,33.364
1287,0.882,36.195,23.463,41.529,25.705,4.905,8.807,33.407
1288,0.872,36.033,23.49,41.51,25.688,4.865,8.808,33.001
1289,0.859,35.735,23.412,41.5,25.68,4.784,8.604,32.387
1290,0.866,35.904,23.446,41.491,25.677,4.661,8.602,31.608
1291,0.862,36.011,23.423,41.51,25.68,4.7,8.521,30.706
1292,0.872,35.754,23.489,41.5,25.677,4.66,8.479,29.762
1293,0.869,35.799,23.435,41.5,25.68,4.741,8.438,28.817
1294,0.866,35.953,23.345,41.5,25.684,4.701,8.479,27.832
1295,0.856,36.069,23.43,41.51,25.68,4.742,8.438,26.928
1296,0.853,35.649,23.443,41.491,25.684,4.783,8.438,26.024
1297,0.853,35.75,23.439,41.49,25.68,4.742,8.397,25.039
1298,0.84,35.895,23.396,41.462,25.68,4.742,8.316,24.176
1299,0.843,35.983,23.458,41.481,25.673,4.742,8.234,23.354
1300,0.853,35.619,23.377,41.5,25.68,4.742,8.273,22.817
1301,0.84,35.798,23.438,41.519,25.691,4.905,8.314,22.853
1302,0.833,35.924,23.431,41.51,25.687,4.906,8.315,23.544
1303,0.82,36.002,23.466,41.5,25.687,4.825,8.356,24.486
1304,0.823,35.715,23.451,41.519,25.687,4.865,8.275,25.39
1305,0.833,35.856,23.376,41.491,25.687,4.784,8.152,26.212
1306,0.826,35.992,23.423,41.5,25.677,4.783,8.15,27.237
1307,0.83,36.06,23.439,41.5,25.684,4.824,8.15,28.345
1308,0.826,35.62,23.482,41.51,25.684,4.783,8.11,29.332
1309,0.836,35.826,23.467,41.51,25.684,4.783,8.028,30.195
1310,0.813,35.953,23.498,41.519,25.694,4.905,8.149,30.936
1311,0.794,35.974,23.49,41.5,25.684,4.906,8.11,31.147
1312,0.78,35.523,23.428,41.491,25.677,4.784,7.865,30.986
1313,0.79,35.662,23.439,41.49,25.673,4.702,7.822,30.7
1314,0.784,35.788,23.451,41.462,25.684,4.823,7.781,30.331
1315,0.803,35.809,23.47,41.471,25.677,4.743,7.7,29.799
1316,0.8,35.454,23.381,41.481,25.684,4.783,7.74,29.265
1317,0.794,35.594,23.387,41.5,25.68,4.783,7.699,28.568
1318,0.79,35.74,23.477,41.491,25.687,4.742,7.74,27.83
1319,0.787,35.741,23.408,41.538,25.68,4.783,7.699,27.09
1320,0.78,35.645,23.45,41.472,25.68,4.824,7.618,26.31
1321,0.787,35.788,23.462,41.433,25.673,4.702,7.495,25.408
1322,0.787,35.924,23.486,41.461,25.68,4.782,7.534,24.667
1323,0.774,35.494,23.424,41.49,25.691,4.905,7.534,24.213
1324,0.767,35.557,23.407,41.49,25.687,4.825,7.616,23.72
1325,0.77,35.711,23.435,41.51,25.691,4.865,7.576,23.715
1326,0.787,35.779,23.447,41.491,25.684,4.865,7.535,24.081
1327,0.784,35.368,23.427,41.586,25.691,4.824,7.575,24.41
1328,0.787,35.507,23.423,41.491,25.677,4.783,7.535,24.861
1329,0.784,35.624,23.45,41.49,25.684,4.824,7.494,25.394
1330,0.774,35.74,23.392,41.5,25.687,4.743,7.575,25.846
1331,0.767,35.377,23.419,41.491,25.684,4.823,7.575,26.217
1332,0.787,35.527,23.474,41.51,25.694,4.865,7.616,26.546
1333,0.793,35.653,23.502,41.5,25.691,4.906,7.739,26.671
1334,0.803,35.702,23.486,41.491,25.691,4.865,7.659,26.55
1335,0.797,35.309,23.416,41.471,25.677,4.784,7.495,26.264
1336,0.79,35.459,23.427,41.461,25.677,4.742,7.453,25.855
1337,0.793,35.595,23.489,41.471,25.673,4.661,7.412,25.404
1338,0.78,35.653,23.435,41.5,25.677,4.741,7.452,24.83
1339,0.803,35.386,23.478,41.471,25.68,4.742,7.412,24.214
1340,0.8,35.508,23.424,41.471,25.677,4.742,7.452,23.639
1341,0.813,35.681,23.443,41.567,25.684,4.783,7.534,23.105
1342,0.823,35.721,23.423,41.472,25.684,4.824,7.575,22.571
1343,0.813,35.338,23.446,41.49,25.68,4.783,7.657,21.915
1344,0.826,35.478,23.505,41.462,25.677,4.702,7.617,21.298
1345,0.843,35.643,23.455,41.452,25.68,4.701,7.535,20.642
1346,0.833,35.673,23.443,41.49,25.691,4.863,7.779,20.188
1347,0.813,35.376,23.431,41.481,25.684,4.865,7.944,19.574
1348,0.8,35.517,23.4,41.5,25.684,4.702,7.945,19.12
1349,0.8,35.653,23.364,41.491,25.691,4.782,7.986,18.547
1350,0.787,35.424,23.446,41.5,25.684,4.824,7.946,18.134
1351,0.774,35.307,23.458,41.5,25.684,4.783,7.986,17.642
1352,0.761,35.459,23.423,41.5,25.68,4.824,7.946,17.271
1353,0.764,35.556,23.415,41.471,25.684,4.783,7.986,16.983
1354,0.751,35.145,23.427,41.471,25.684,4.824,7.946,16.574
1355,0.774,35.246,23.517,41.49,25.687,4.824,7.986,16.163
1356,0.787,35.391,23.443,41.519,25.691,4.824,8.149,15.915
1357,0.826,35.498,23.458,41.519,25.701,4.824,8.11,15.628
1358,0.846,35.183,23.517,41.472,25.687,4.743,8.109,15.259
1359,0.895,35.314,23.401,41.471,25.68,4.742,8.028,14.889
1360,0.957,35.478,23.462,41.461,25.677,4.742,7.946,14.561
1361,1.023,35.547,23.431,41.452,25.684,4.701,7.945,14.151
1362,1.049,35.078,23.497,41.471,25.684,4.66,8.026,13.984
1363,1.069,35.207,23.373,41.471,25.677,4.741,8.027,13.86
1364,1.092,35.391,23.407,41.471,25.677,4.783,8.027,13.696
1365,1.118,35.479,23.415,41.461,25.673,4.783,8.027,13.532
1366,1.132,35.182,23.423,41.471,25.684,4.783,7.987,13.368
1367,1.129,35.295,23.423,41.442,25.68,4.702,7.986,13.244
1368,1.158,35.468,23.376,41.442,25.673,4.701,7.824,12.999
1369,1.22,35.537,23.462,41.48,25.684,4.66,7.903,12.956
1370,1.312,35.068,23.455,41.481,25.684,4.782,7.985,13.037
1371,1.42,35.245,23.419,41.481,25.691,4.864,7.946,13.2
1372,1.522,35.372,23.474,41.51,25.687,4.865,7.864,13.283
1373,1.64,35.412,23.443,41.491,25.684,4.824,7.863,13.487
1374,1.709,35.048,23.493,41.471,25.684,4.743,7.782,13.611
1375,1.808,35.188,23.459,41.471,25.687,4.783,7.781,13.735
1376,1.883,35.323,23.404,41.49,25.68,4.824,7.7,13.695
1377,1.92,35.325,23.477,41.471,25.687,4.743,7.699,13.776
1378,2.005,35.037,23.322,41.481,25.684,4.823,7.658,13.777
1379,2.048,35.226,23.434,41.5,25.684,4.865,7.576,13.736
1380,2.049,35.343,23.501,41.51,25.698,4.946,7.657,13.776
1381,2.023,35.162,23.439,41.481,25.691,4.907,7.617,13.777
1382,1.973,35.112,23.454,41.462,25.68,4.825,7.495,13.655
1383,1.895,35.256,23.4,41.452,25.67,4.743,7.453,13.532
1384,1.813,35.362,23.474,41.471,25.677,4.742,7.33,13.368
1385,1.76,34.894,23.498,41.471,25.677,4.742,7.289,13.325
1386,1.701,34.975,23.455,41.452,25.677,4.742,7.41,13.244
1387,1.674,35.129,23.458,41.461,25.68,4.823,7.33,13.202
1388,1.619,35.237,23.47,41.461,25.677,4.865,7.289,13.202
1389,1.514,34.931,23.451,41.471,25.684,4.824,7.451,13.283
1390,1.367,35.062,23.392,41.471,25.68,4.783,7.371,13.487
1391,1.17,35.188,23.466,41.452,25.673,4.661,7.248,13.733
1392,1.022,35.295,23.455,41.442,25.67,4.7,7.206,14.102
1393,0.845,34.883,23.427,41.452,25.68,4.782,7.328,14.878
1394,0.683,35.042,23.392,41.49,25.691,4.824,7.41,16.268
1395,0.532,35.178,23.419,41.49,25.684,4.824,7.452,18.152
1396,0.381,35.256,23.454,41.49,25.691,4.865,7.371,20.163
1397,0.194,34.845,23.384,41.471,25.687,4.906,7.37,21.972
1398,0.02,34.984,23.446,41.471,25.687,4.906,7.411,23.413
1399,-0.122,35.12,23.462,41.461,25.68,4.906,7.371,24.526
1400,-0.247,35.188,23.423,41.452,25.68,4.825,7.289,25.187
1401,-0.251,34.863,23.407,41.461,25.68,4.865,7.41,25.56
1402,-0.258,35.042,23.462,41.471,25.691,4.865,7.411,25.767
1403,-0.31,35.149,23.529,41.471,25.694,4.906,7.493,25.972
1404,-0.343,35.189,23.455,41.452,25.691,4.865,7.453,25.933
1405,-0.327,34.815,23.416,41.423,25.684,4.824,7.33,25.567
1406,-0.314,34.974,23.368,41.432,25.673,4.702,7.289,25.238
1407,-0.268,35.11,23.477,41.432,25.673,4.742,7.247,24.869
1408,-0.238,35.121,23.451,41.432,25.677,4.783,7.247,24.499
1409,-0.186,34.814,23.431,41.432,25.68,4.783,7.288,24.048
1410,-0.117,34.974,23.517,41.432,25.677,4.824,7.288,23.556
1411,-0.065,35.082,23.42,41.432,25.68,4.865,7.369,23.185
1412,-0.032,34.929,23.45,41.442,25.677,4.824,7.289,22.856
1413,0.018,34.88,23.396,41.423,25.67,4.783,7.207,22.69
1414,0.077,35.042,23.489,41.413,25.677,4.742,7.125,22.445
1415,0.116,35.178,23.494,41.423,25.68,4.905,7.287,22.605
1416,0.156,34.758,23.439,41.48,25.691,4.906,7.288,22.891
1417,0.208,34.859,23.419,41.442,25.687,4.906,7.329,23.301
1418,0.251,34.994,23.407,41.432,25.687,4.825,7.329,23.63
1419,0.274,35.091,23.438,41.442,25.684,4.905,7.37,23.836
1420,0.33,34.747,23.415,41.423,25.68,4.865,7.248,24.042
1421,0.356,34.878,23.466,41.442,25.684,4.824,7.328,24.166
1422,0.409,35.013,23.447,41.432,25.684,4.824,7.329,24.208
1423,0.455,35.139,23.423,41.48,25.684,4.824,7.289,24.167
1424,0.507,34.767,23.497,41.452,25.687,4.865,7.207,24.045
1425,0.524,34.926,23.455,41.461,25.701,4.946,7.409,23.963
1426,0.57,35.014,23.54,41.452,25.694,4.988,7.411,23.677
1427,0.59,35.111,23.479,41.423,25.684,4.826,7.289,23.227
1428,0.622,34.728,23.443,41.413,25.68,4.743,7.207,22.735
1429,0.639,34.868,23.486,41.413,25.68,4.783,7.206,22.323
1430,0.681,35.023,23.408,41.413,25.673,4.783,7.165,21.872
1431,0.718,35.101,23.442,41.403,25.677,4.783,7.206,21.42
1432,0.757,34.613,23.451,41.432,25.68,4.783,7.206,20.928
1433,0.813,34.761,23.482,41.413,25.677,4.824,7.247,20.516
1434,0.842,34.888,23.431,41.413,25.68,4.824,7.247,20.024
1435,0.846,34.937,23.427,41.432,25.677,4.824,7.206,19.531
1436,0.853,34.746,23.447,41.384,25.673,4.743,7.206,19.323
1437,0.856,34.907,23.415,41.394,25.68,4.661,7.125,19.24
1438,0.853,35.062,23.446,41.403,25.68,4.822,7.287,19.442
1439,0.853,35.303,23.47,41.413,25.691,4.905,7.329,19.769
1440,0.859,34.567,23.424,41.413,25.687,4.865,7.289,20.464
1441,0.84,34.713,23.415,41.413,25.684,4.906,7.329,21.487
1442,0.83,34.849,23.427,41.413,25.68,4.906,7.37,22.514
1443,0.807,34.735,23.458,41.403,25.684,4.865,7.411,23.622
1444,0.8,34.772,23.439,41.413,25.68,4.865,7.33,24.568
1445,0.79,34.936,23.427,41.413,25.68,4.824,7.37,25.472
1446,0.816,35.043,23.404,41.413,25.68,4.865,7.33,26.335
1447,0.836,34.488,23.493,41.423,25.691,4.784,7.451,26.872
1448,0.836,34.607,23.486,41.528,25.691,5.027,7.493,27.244
1449,0.82,34.723,23.447,41.424,25.691,4.948,7.494,27.491
1450,0.823,34.801,23.501,41.394,25.684,4.825,7.453,27.534
1451,0.833,34.485,23.424,41.384,25.677,4.783,7.29,27.453
1452,0.849,34.645,23.454,41.384,25.677,4.742,7.329,27.452
1453,0.879,34.771,23.384,41.394,25.677,4.783,7.289,27.412
1454,0.905,34.888,23.485,41.384,25.673,4.783,7.329,27.127
1455,0.918,34.534,23.463,41.384,25.677,4.702,7.41,26.88
1456,0.925,34.684,23.439,41.394,25.68,4.823,7.33,26.512
1457,0.925,34.829,23.427,41.413,25.687,4.865,7.41,26.061
1458,0.909,34.888,23.482,41.413,25.684,4.824,7.371,25.446
1459,0.902,34.486,23.474,41.394,25.68,4.865,7.411,24.912
1460,0.899,34.635,23.424,41.365,25.677,4.702,7.289,24.337
1461,0.886,34.771,23.501,41.384,25.67,4.701,7.288,23.64
1462,0.892,34.849,23.471,41.403,25.684,4.904,7.329,23.105
1463,0.873,34.534,23.408,41.413,25.684,4.825,7.37,22.611
1464,0.869,34.694,23.411,41.413,25.684,4.865,7.37,21.956
1465,0.853,34.801,23.411,41.413,25.687,4.865,7.411,21.461
1466,0.866,34.84,23.489,41.413,25.684,4.865,7.33,20.765
1467,0.866,34.495,23.408,41.451,25.684,4.865,7.289,20.149
1468,0.862,34.655,23.419,41.413,25.68,4.865,7.247,19.654
1469,0.859,34.762,23.454,41.394,25.687,4.824,7.288,19.121
1470,0.862,35.137,23.412,41.422,25.684,4.865,7.288,18.587
1471,0.866,34.661,23.392,41.413,25.684,4.906,7.207,18.135
1472,0.879,34.829,23.454,41.432,25.698,4.906,7.247,17.683
1473,0.879,34.888,23.517,41.413,25.698,4.987,7.288,17.312
1474,0.905,34.486,23.463,41.394,25.684,4.866,7.207,16.902
1475,0.912,34.415,23.392,41.384,25.68,4.784,7.165,16.451
1476,0.905,34.568,23.407,41.384,25.677,4.783,6.962,15.999
1477,0.918,34.675,23.474,41.374,25.68,4.783,7.041,15.669
1478,0.909,34.321,23.435,41.374,25.673,4.742,7.001,15.381
1479,0.915,34.433,23.454,41.374,25.673,4.783,6.96,15.094
1480,0.915,34.587,23.498,41.365,25.684,4.742,7.041,14.725
1481,0.892,34.704,23.404,41.393,25.684,4.864,6.96,14.396
1482,0.918,34.312,23.431,41.374,25.68,4.784,6.96,14.19
1483,0.912,34.432,23.415,41.374,25.684,4.824,7.0,13.984
1484,0.905,34.578,23.485,41.346,25.677,4.824,6.879,13.616
1485,0.912,34.684,23.486,41.374,25.677,4.661,6.837,13.328
1486,0.905,34.283,23.431,41.403,25.684,4.863,6.999,13.162
1487,0.899,34.422,23.474,41.403,25.687,4.824,6.96,12.998
1488,0.905,34.549,23.408,41.413,25.687,4.865,6.96,12.793
1489,0.895,34.636,23.474,41.413,25.684,4.906,7.0,12.669
1490,0.895,34.407,23.455,41.394,25.684,4.825,6.96,12.505
1491,0.902,34.577,23.486,41.384,25.684,4.865,6.96,12.26
1492,0.915,34.694,23.373,41.384,25.684,4.824,7.0,12.054
1493,0.925,34.772,23.415,41.394,25.684,4.905,6.96,11.889
1494,0.931,34.274,23.442,41.384,25.68,4.865,7.0,11.725
1495,0.941,34.47,23.466,41.403,25.691,4.824,6.919,11.561
1496,0.951,34.568,23.537,41.413,25.694,4.946,7.081,11.519
1497,0.945,34.608,23.436,41.394,25.687,4.907,7.042,11.355
1498,0.945,34.32,23.478,41.374,25.684,4.825,6.92,11.11
1499,0.951,34.461,23.427,41.346,25.673,4.783,6.878,11.067
1500,0.993,34.587,23.431,41.355,25.673,4.783,6.918,10.904
1501,0.991,34.809,23.489,41.355,25.677,4.783,6.837,10.78
1502,0.968,34.246,23.459,41.374,25.684,4.824,6.837,10.738
1503,0.951,34.393,23.474,41.355,25.684,4.865,6.877,10.819
1504,0.951,34.52,23.369,41.374,25.684,4.824,6.918,10.779
1505,0.964,34.291,23.438,41.365,25.677,4.905,6.837,10.738
1506,0.948,34.308,23.47,41.345,25.684,4.865,6.877,10.738
1507,0.938,34.442,23.4,41.326,25.67,4.743,6.837,10.657
1508,0.941,34.587,23.45,41.364,25.673,4.783,6.755,10.696
1509,0.958,34.167,23.435,41.365,25.684,4.864,6.836,10.697
1510,0.958,34.278,23.45,41.384,25.684,4.906,6.999,10.819
1511,0.951,34.451,23.466,41.355,25.687,4.865,7.082,10.861
1512,0.938,34.539,23.404,41.374,25.684,4.824,7.083,11.024
1513,0.961,34.166,23.505,41.374,25.68,4.865,7.123,11.147
1514,0.977,34.287,23.482,41.365,25.691,4.865,7.124,11.23
1515,0.964,34.423,23.509,41.374,25.691,4.865,7.083,11.353
1516,0.974,34.52,23.416,41.365,25.68,4.824,7.205,11.517
1517,0.994,34.329,23.509,41.365,25.68,4.824,7.287,11.599
1518,0.968,34.5,23.463,41.422,25.691,4.946,7.288,11.641
1519,0.997,34.645,23.416,41.413,25.691,5.029,7.491,11.885
1520,0.991,34.675,23.497,41.355,25.691,4.826,7.534,11.888
1521,1.0,34.043,23.396,41.336,25.677,4.865,7.453,11.888
1522,0.984,34.219,23.438,41.345,25.677,4.824,7.371,11.766
1523,0.984,34.345,23.372,41.336,25.68,4.743,7.411,11.724
1524,0.978,34.414,23.465,41.345,25.677,4.783,7.452,11.642
1525,0.961,34.146,23.533,41.345,25.68,4.783,7.534,11.601
1526,0.951,34.316,23.405,41.355,25.684,4.824,7.534,11.56
1527,0.945,34.461,23.489,41.374,25.677,4.824,7.534,11.519
1528,0.945,34.482,23.474,41.355,25.677,4.865,7.616,11.437
1529,0.948,34.156,23.435,41.355,25.68,4.824,7.657,11.639
1530,0.945,34.306,23.45,41.336,25.677,4.743,7.617,12.414
1531,0.958,34.452,23.482,41.345,25.673,4.823,7.617,13.845
1532,0.958,34.558,23.478,41.374,25.684,4.824,7.82,15.526
1533,0.977,34.166,23.318,41.374,25.687,4.865,7.781,17.332
1534,0.994,34.316,23.418,41.47,25.691,4.906,7.862,19.342
1535,0.994,34.423,23.38,41.375,25.691,4.865,7.944,21.395
1536,0.987,34.108,23.469,41.384,25.684,4.824,7.823,23.448
1537,1.0,34.162,23.451,41.451,25.68,4.865,7.944,25.136
1538,1.0,34.306,23.431,41.375,25.691,4.824,7.864,26.413
1539,1.0,34.413,23.509,41.374,25.684,4.865,7.822,27.198
1540,0.997,34.002,23.432,41.365,25.691,4.824,7.944,27.653
1541,1.01,34.151,23.478,41.393,25.687,4.824,7.945,27.821
1542,1.017,34.277,23.455,41.384,25.694,4.905,8.067,27.822
1543,1.01,34.365,23.509,41.394,25.694,4.987,8.109,27.497
1544,1.001,33.973,23.447,41.374,25.684,4.866,7.947,27.046
1545,1.004,34.132,23.376,41.355,25.68,4.743,7.905,26.473
1546,1.01,34.268,23.43,41.345,25.673,4.783,7.863,25.776
1547,1.007,34.365,23.458,41.336,25.673,4.824,7.822,25.118
1548,1.014,33.925,23.462,41.364,25.673,4.783,7.863,24.38
1549,1.023,34.074,23.427,41.355,25.68,4.824,7.782,23.722
1550,1.027,34.21,23.536,41.365,25.684,4.824,7.862,22.983
1551,1.04,34.297,23.377,41.374,25.687,4.824,7.863,22.244
1552,1.043,33.953,23.454,41.384,25.687,4.824,7.863,21.668
1553,1.043,34.093,23.47,41.374,25.684,4.824,7.822,21.215
1554,1.05,34.219,23.486,41.336,25.677,4.743,7.741,20.763
1555,1.06,34.288,23.541,41.364,25.67,4.742,7.659,20.311
1556,1.066,34.077,23.44,41.355,25.68,4.823,7.739,20.103
1557,1.069,34.248,23.454,41.374,25.68,4.905,7.862,19.898
1558,1.063,34.374,23.396,41.393,25.694,4.865,7.822,19.571
1559,1.066,34.395,23.427,41.394,25.687,4.906,7.781,19.242
1560,1.076,34.079,23.462,41.365,25.687,4.906,7.781,18.954
1561,1.076,34.219,23.466,41.355,25.68,4.825,7.7,18.545
1562,1.076,34.355,23.416,41.384,25.684,4.905,7.699,18.216
1563,1.063,34.318,23.4,41.374,25.691,4.825,7.699,17.846
1564,1.056,34.039,23.45,41.374,25.677,4.743,7.699,17.639
1565,1.063,34.209,23.458,41.374,25.684,4.823,7.618,17.231
1566,1.076,34.336,23.501,41.393,25.691,4.905,7.698,16.983
1567,1.079,33.963,23.494,41.403,25.691,4.947,7.78,16.858
1568,1.079,33.988,23.428,41.355,25.687,4.825,7.74,16.735
1569,1.092,34.113,23.454,41.345,25.68,4.824,7.618,16.856
1570,1.079,34.248,23.412,41.355,25.673,4.824,7.617,17.223
1571,1.089,33.866,23.45,41.345,25.677,4.783,7.576,17.633
1572,1.096,33.987,23.509,41.355,25.68,4.783,7.535,18.369
1573,1.106,34.132,23.451,41.345,25.67,4.702,7.575,19.352
1574,1.119,34.229,23.384,41.355,25.677,4.782,7.616,20.338
1575,1.115,33.904,23.403,41.355,25.684,4.824,7.535,21.242
1576,1.125,34.035,23.477,41.345,25.68,4.824,7.534,21.943
1577,1.122,34.18,23.381,41.355,25.68,4.905,7.534,22.6
1578,1.122,34.259,23.43,41.345,25.677,4.865,7.453,23.054
1579,1.135,33.905,23.517,41.326,25.67,4.662,7.412,23.302
1580,1.138,34.102,23.408,41.355,25.68,4.7,7.411,23.467
1581,1.132,34.229,23.474,41.355,25.684,4.863,7.533,23.591
1582,1.138,34.307,23.392,41.355,25.694,4.865,7.494,23.47
1583,1.132,33.934,23.512,41.355,25.691,4.865,7.534,23.306
1584,1.119,34.083,23.463,41.365,25.691,4.865,7.494,22.979
1585,1.115,34.229,23.373,41.365,25.691,4.865,7.494,22.651
1586,1.128,34.288,23.446,41.365,25.687,4.865,7.494,22.2
1587,1.138,34.039,23.427,41.355,25.677,4.824,7.371,21.708
1588,1.138,34.209,23.439,41.355,25.687,4.865,7.33,21.378
1589,1.161,34.336,23.435,41.345,25.684,4.865,7.41,21.13
1590,1.174,34.404,23.49,41.374,25.684,4.865,7.371,20.843
1591,1.178,34.136,23.424,41.403,25.694,4.946,7.452,20.678
1592,1.168,34.258,23.431,41.384,25.694,4.947,7.493,20.595
1593,1.168,34.374,23.45,41.346,25.68,4.866,7.412,20.35
1594,1.178,34.347,23.521,41.336,25.673,4.824,7.289,20.023
1595,1.171,34.231,23.522,41.316,25.68,4.743,7.288,19.775
1596,1.155,34.384,23.494,41.335,25.67,4.742,7.207,19.529
1597,1.152,34.51,23.471,41.316,25.68,4.823,7.287,19.323
1598,1.148,34.31,23.447,41.335,25.677,4.783,7.247,19.077
1599,1.139,34.394,23.4,41.336,25.68,4.824,7.247,18.871
1600,1.142,34.51,23.485,41.316,25.673,4.824,7.288,18.585
1601,1.145,34.626,23.428,41.307,25.68,4.865,7.329,18.379
1602,1.148,34.263,23.435,41.335,25.68,4.824,7.329,18.051
1603,1.148,34.394,23.435,41.288,25.677,4.783,7.329,17.723
1604,1.171,34.539,23.462,41.297,25.666,4.783,7.248,17.313
1605,1.181,34.674,23.517,41.326,25.684,4.783,7.369,17.065
1606,1.181,34.474,23.412,41.335,25.684,4.905,7.533,16.818
1607,1.168,34.635,23.454,41.336,25.684,4.865,7.616,16.775
1608,1.175,34.752,23.443,41.336,25.687,4.865,7.576,16.49
1609,1.152,34.849,23.462,41.422,25.68,4.906,7.616,16.284
1610,1.145,34.649,23.443,41.336,25.691,4.865,7.617,16.201
1611,1.148,34.8,23.47,41.336,25.684,4.865,7.617,16.119
1612,1.142,34.926,23.47,41.336,25.687,4.824,7.617,15.996
1613,1.161,34.995,23.384,41.345,25.691,4.865,7.657,15.913
1614,1.178,34.823,23.466,41.326,25.684,4.865,7.739,15.79
1615,1.175,34.984,23.439,41.364,25.691,4.906,7.821,15.708
1616,1.178,35.082,23.548,41.336,25.691,4.987,7.781,15.707
1617,1.168,35.111,23.459,41.326,25.68,4.866,7.74,15.585
1618,1.168,35.275,23.459,41.297,25.677,4.824,7.74,15.421
1619,1.171,35.391,23.525,41.287,25.673,4.743,7.659,15.298
1620,1.155,35.546,23.432,41.306,25.677,4.783,7.658,15.134
1621,1.155,35.567,23.47,41.307,25.67,4.783,7.658,15.051
1622,1.155,35.03,23.447,41.287,25.684,4.742,7.698,15.009
1623,1.129,35.188,23.486,41.297,25.68,4.823,7.74,14.928
1624,1.129,35.295,23.381,41.306,25.68,4.865,7.74,14.805
1625,1.138,35.43,23.427,41.316,25.687,4.824,7.699,14.763
1626,1.132,35.489,23.435,41.278,25.67,4.824,7.658,14.681
1627,1.132,35.633,23.408,41.287,25.666,4.661,7.617,14.518
1628,1.148,35.788,23.458,41.316,25.673,4.822,7.698,14.597
1629,1.148,35.483,23.451,41.307,25.684,4.865,7.74,14.639
1630,1.155,35.556,23.474,41.335,25.691,4.865,7.781,14.639
1631,1.142,35.701,23.463,41.307,25.684,4.824,7.74,14.599
1632,1.145,35.798,23.423,41.307,25.684,4.824,7.781,14.598
1633,1.148,35.713,23.501,41.297,25.691,4.824,7.74,14.558
1634,1.132,35.856,23.443,41.297,25.684,4.865,7.699,14.395
1635,1.129,35.953,23.447,41.316,25.687,4.865,7.699,14.312
1636,1.125,36.069,23.415,41.307,25.684,4.906,7.658,14.189
1637,1.138,35.802,23.478,41.326,25.698,4.906,7.698,14.188
1638,1.122,35.943,23.451,41.335,25.701,4.987,7.821,14.147
1639,1.116,36.041,23.431,41.297,25.691,4.948,7.7,14.024
1640,1.115,36.099,23.509,41.268,25.68,4.825,7.618,13.861
1641,1.096,35.946,23.342,41.277,25.673,4.783,7.576,13.656
1642,1.089,36.108,23.461,41.258,25.673,4.783,7.575,13.532
1643,1.076,36.244,23.47,41.268,25.687,4.824,7.535,13.408
1644,1.079,36.293,23.521,41.268,25.677,4.865,7.534,13.367
1645,1.073,36.236,23.518,41.277,25.677,4.824,7.534,13.204
1646,1.076,36.408,23.432,41.287,25.684,4.865,7.534,12.999
1647,1.063,36.534,23.509,41.278,25.684,4.906,7.697,12.834
1648,1.05,36.535,23.381,41.268,25.673,4.784,7.658,12.873
1649,1.043,36.325,23.446,41.258,25.673,4.742,7.536,12.507
1650,1.04,36.495,23.439,41.287,25.68,4.823,7.575,12.423
1651,1.04,36.602,23.47,41.297,25.691,4.987,7.657,12.544
1652,1.027,36.642,23.435,41.393,25.691,4.907,7.739,12.545
1653,1.037,37.678,23.443,41.317,25.691,4.987,7.821,12.586
1654,1.02,37.794,23.493,41.297,25.687,4.907,7.781,12.667
1655,1.023,37.9,23.478,41.297,25.687,4.865,7.781,12.709
1656,1.007,36.837,23.369,41.297,25.687,4.946,7.822,12.668
1657,1.014,36.164,23.403,41.287,25.691,4.907,7.741,12.709
1658,0.997,36.292,23.485,41.287,25.691,4.906,7.781,13.075
1659,1.0,36.428,23.431,41.287,25.68,4.865,7.74,13.689
1660,0.991,36.803,23.458,41.316,25.684,4.946,7.781,14.427
1661,0.974,36.941,23.517,41.316,25.694,5.069,7.903,15.532
1662,0.948,37.057,23.416,41.287,25.691,4.948,7.863,16.884
1663,0.938,37.135,23.415,41.316,25.684,4.825,7.741,18.484
1664,0.938,36.82,23.411,41.268,25.68,4.743,7.699,20.085
1665,0.938,36.96,23.478,41.249,25.68,4.905,7.658,21.565
1666,0.938,37.096,23.502,41.248,25.68,4.865,7.698,22.759
1667,0.935,37.184,23.478,41.268,25.677,4.824,7.618,23.665
1668,0.931,36.887,23.486,41.287,25.687,4.865,7.576,24.243
1669,0.931,37.028,23.49,41.268,25.677,4.824,7.657,24.534
1670,0.922,37.154,23.474,41.277,25.687,4.905,7.658,24.659
1671,0.915,37.213,23.439,41.287,25.68,4.906,7.617,24.497
1672,0.909,37.194,23.47,41.258,25.677,4.744,7.617,24.211
1673,0.908,37.367,23.451,41.258,25.67,4.783,7.454,23.883
1674,0.908,37.503,23.423,41.268,25.684,4.864,7.534,23.514
1675,0.908,37.581,23.423,41.316,25.684,4.987,7.657,23.063
1676,0.908,36.891,23.419,41.278,25.691,4.948,7.617,22.652
1677,0.905,37.009,23.458,41.268,25.687,4.988,7.657,22.2
1678,0.892,37.154,23.435,41.287,25.684,4.948,7.658,21.749
1679,0.899,37.184,23.458,41.268,25.687,4.947,7.658,21.175
1680,0.892,37.156,23.431,41.277,25.68,4.907,7.617,20.6
1681,0.889,37.29,23.454,41.268,25.684,4.906,7.657,20.066
1682,0.872,37.396,23.416,41.268,25.687,4.906,7.698,19.613
1683,0.85,37.426,23.47,41.258,25.684,4.865,7.658,19.161
1684,0.846,37.225,23.529,41.296,25.687,4.987,7.658,18.628
1685,0.849,37.357,23.455,41.287,25.694,5.029,7.78,18.338
1686,0.843,37.445,23.458,41.268,25.687,4.907,7.7,17.766
1687,0.826,37.35,23.47,41.239,25.68,4.865,7.496,17.354
1688,0.839,37.34,23.451,41.296,25.673,4.743,7.534,16.821
1689,0.833,37.483,23.47,41.249,25.68,4.823,7.534,16.409
1690,0.82,37.581,23.478,41.239,25.677,4.865,7.494,16.08
1691,0.817,37.217,23.478,41.248,25.677,4.784,7.494,15.711
1692,0.823,37.309,23.424,41.248,25.684,4.824,7.494,15.463
1693,0.846,37.454,23.45,41.239,25.68,4.865,7.453,15.135
1694,0.84,37.532,23.501,41.258,25.684,4.906,7.493,14.807
1695,0.826,37.197,23.506,41.22,25.677,4.825,7.534,14.6
1696,0.823,37.348,23.49,41.229,25.677,4.783,7.372,14.395
1697,0.843,37.483,23.478,41.248,25.68,4.783,7.37,14.677
1698,0.83,37.581,23.459,41.268,25.687,4.864,7.452,15.249
1699,0.83,37.275,23.408,41.258,25.68,4.906,7.493,15.947
1700,0.817,37.406,23.454,41.268,25.687,4.865,7.453,16.726
1701,0.826,37.522,23.478,41.258,25.687,4.865,7.452,17.872
1702,0.836,37.591,23.334,41.268,25.684,4.906,7.412,19.144
1703,0.807,37.256,23.442,41.258,25.691,4.865,7.452,20.417
1704,0.81,37.406,23.412,41.258,25.684,4.906,7.33,21.406
1705,0.82,37.522,23.489,41.249,25.691,4.865,7.37,22.269
1706,0.82,37.562,23.42,41.248,25.684,4.824,7.33,22.847
1707,0.843,37.361,23.458,41.306,25.694,4.946,7.289,23.219
1708,0.823,37.493,23.517,41.278,25.694,4.947,7.41,23.548
1709,0.817,37.581,23.416,41.258,25.698,4.907,7.289,23.551
1710,0.797,37.61,23.482,41.258,25.691,4.865,7.207,23.551
1711,0.8,37.323,23.459,41.249,25.677,4.743,7.125,23.429
1712,0.807,37.454,23.521,41.229,25.673,4.823,7.083,23.306
1713,0.813,37.59,23.397,41.239,25.68,4.824,7.123,23.101
1714,0.829,37.601,23.442,41.325,25.68,4.783,7.043,23.059
1715,0.82,37.285,23.47,41.23,25.684,4.864,7.042,23.18
1716,0.807,37.425,23.435,41.258,25.694,4.784,7.123,23.263
1717,0.8,37.513,23.501,41.239,25.68,4.824,7.043,23.304
1718,0.774,37.303,23.436,41.239,25.677,4.905,7.001,23.264
1719,0.774,37.262,23.478,41.21,25.666,4.744,6.919,23.06
1720,0.784,37.444,23.478,41.248,25.677,4.783,6.959,22.814
1721,0.784,37.561,23.435,41.248,25.691,4.824,6.96,22.568
1722,0.771,37.332,23.532,41.248,25.684,4.824,6.96,22.321
1723,0.77,37.435,23.479,41.239,25.691,4.905,6.96,22.075
1724,0.761,37.561,23.416,41.258,25.684,4.906,7.0,22.154
1725,0.774,37.668,23.419,41.277,25.687,4.825,6.96,22.277
1726,0.78,37.324,23.392,41.249,25.687,4.865,6.919,22.481
1727,0.787,37.435,23.45,41.248,25.684,4.865,6.919,22.768
1728,0.79,37.58,23.408,41.239,25.677,4.784,6.959,23.096
1729,0.806,37.668,23.47,41.239,25.684,4.824,6.96,23.546
1730,0.803,37.304,23.427,41.258,25.691,4.905,7.041,23.998
1731,0.8,37.454,23.443,41.287,25.694,4.947,7.082,24.369
1732,0.794,37.561,23.427,41.249,25.691,4.866,7.042,24.413
1733,0.8,37.629,23.489,41.229,25.68,4.824,7.001,24.291
1734,0.8,37.246,23.517,41.22,25.68,4.661,7.001,24.087
1735,0.797,37.377,23.467,41.219,25.673,4.782,7.001,23.76
1736,0.803,37.512,23.474,41.239,25.677,4.824,6.96,23.472
1737,0.807,37.562,23.47,41.239,25.677,4.824,7.041,23.062
1738,0.794,37.207,23.459,41.248,25.684,4.783,7.082,22.733
1739,0.784,37.367,23.478,41.229,25.684,4.824,7.123,22.201
1740,0.784,37.436,23.482,41.239,25.677,4.865,7.124,21.83
1741,0.771,37.484,23.377,41.22,25.677,4.784,7.165,21.298
1742,0.774,37.408,23.407,41.219,25.677,4.702,7.043,20.723
1743,0.764,37.57,23.481,41.219,25.68,4.782,7.164,20.27
1744,0.751,37.687,23.509,41.239,25.691,4.864,7.287,19.818
1745,0.767,37.966,23.525,41.239,25.684,4.865,7.329,19.489
1746,0.764,37.298,23.467,41.239,25.691,4.865,7.41,18.957
1747,0.761,37.464,23.486,41.22,25.684,4.865,7.33,18.585
1748,0.751,37.552,23.431,41.229,25.684,4.906,7.37,18.094
1749,0.757,37.399,23.404,41.239,25.684,4.865,7.452,17.804
1750,0.761,37.398,23.477,41.239,25.691,4.906,7.493,17.476
1751,0.761,37.532,23.42,41.239,25.687,4.825,7.494,17.27
1752,0.767,37.687,23.415,41.277,25.68,4.905,7.494,17.146
1753,0.8,37.257,23.392,41.268,25.687,4.906,7.494,17.063
1754,0.803,37.367,23.477,41.258,25.691,4.947,7.575,17.266
1755,0.794,37.464,23.49,41.239,25.687,4.988,7.616,17.39
1756,0.78,37.532,23.408,41.22,25.687,4.907,7.535,17.635
1757,0.78,37.226,23.478,41.21,25.677,4.865,7.494,17.922
1758,0.787,37.348,23.486,41.219,25.68,4.784,7.371,18.087
1759,0.78,37.493,23.486,41.191,25.673,4.824,7.411,18.211
1760,0.78,37.581,23.404,41.21,25.684,4.783,7.452,18.334
1761,0.787,37.361,23.513,41.2,25.677,4.783,7.371,18.335
1762,0.784,37.493,23.475,41.21,25.684,4.905,7.37,18.295
1763,0.764,37.638,23.392,41.21,25.687,4.865,7.37,18.172
1764,0.757,37.707,23.442,41.229,25.684,4.824,7.411,17.927
1765,0.774,37.161,23.415,41.2,25.677,4.824,7.33,17.843
1766,0.784,37.299,23.482,41.19,25.677,4.702,7.329,17.477
1767,0.767,37.454,23.416,41.21,25.677,4.823,7.451,17.229
1768,0.783,37.523,23.466,41.219,25.684,4.905,7.574,17.064
1769,0.8,37.265,23.49,41.2,25.691,4.947,7.535,16.818
1770,0.794,37.425,23.447,41.219,25.687,4.907,7.494,16.491
1771,0.79,37.532,23.454,41.229,25.691,4.906,7.494,16.203
1772,0.8,37.562,23.47,41.22,25.684,4.865,7.616,15.834
1773,0.79,37.284,23.478,41.21,25.687,4.865,7.535,15.505
1774,0.806,37.416,23.408,41.219,25.687,4.906,7.575,15.299
1775,0.797,37.551,23.392,41.239,25.684,4.865,7.494,14.89
1776,0.8,37.859,23.454,41.2,25.684,4.824,7.453,14.723
1777,0.807,37.354,23.416,41.229,25.691,4.905,7.493,14.518
1778,0.79,37.483,23.482,41.239,25.691,4.987,7.616,14.516
1779,0.78,37.571,23.443,41.229,25.698,4.907,7.657,14.353
1780,0.774,37.284,23.443,41.21,25.687,4.865,7.495,14.149
1781,0.771,37.272,23.415,41.181,25.68,4.784,7.412,14.024
1782,0.77,37.415,23.458,41.181,25.68,4.702,7.411,13.82
1783,0.761,37.522,23.498,41.181,25.677,4.742,7.411,13.737
1784,0.761,37.284,23.486,41.171,25.684,4.783,7.33,13.614
1785,0.767,37.425,23.471,41.19,25.68,4.824,7.37,13.572
1786,0.777,37.561,23.424,41.181,25.684,4.783,7.33,13.49
1787,0.787,37.639,23.485,41.2,25.684,4.864,7.37,13.367
1788,0.797,37.151,23.502,41.286,25.677,4.824,7.411,13.366
1789,0.781,37.261,23.424,41.191,25.68,4.865,7.371,13.529
1790,0.803,37.396,23.493,41.171,25.673,4.784,7.208,14.14
1791,0.82,37.493,23.447,41.2,25.687,4.702,7.287,15.163
1792,0.836,37.197,23.447,41.21,25.684,4.863,7.288,16.352
1793,0.83,37.338,23.474,41.2,25.687,4.865,7.369,17.706
1794,0.836,37.454,23.455,41.219,25.694,4.865,7.289,19.346
1795,0.823,37.523,23.509,41.219,25.691,4.824,7.329,20.988
1796,0.817,37.217,23.479,41.2,25.687,4.865,7.329,22.509
1797,0.816,37.367,23.47,41.2,25.687,4.824,7.289,23.744
1798,0.813,37.484,23.435,41.21,25.684,4.905,7.247,24.692
1799,0.803,37.542,23.439,41.21,25.684,4.825,7.328,25.229
1800,0.816,37.083,23.505,41.2,25.684,4.824,7.289,25.519
1801,0.82,37.25,23.463,41.219,25.694,4.905,7.369,25.726
1802,0.797,37.377,23.423,41.239,25.694,4.906,7.411,25.728
1803,0.794,37.369,23.4,41.2,25.691,4.825,7.33,25.362
1804,0.787,37.196,23.493,41.181,25.684,4.743,7.289,24.951
1805,0.784,37.319,23.467,41.19,25.677,4.742,7.288,24.459
1806,0.793,37.435,23.435,41.2,25.68,4.742,7.288,23.926
1807,0.79,37.599,23.47,41.21,25.677,4.783,7.288,23.352
1808,0.806,37.121,23.466,41.181,25.684,4.824,7.288,22.736
1809,0.826,37.251,23.4,41.2,25.68,4.743,7.329,22.283
1810,0.826,37.386,23.474,41.2,25.677,4.823,7.37,21.627
1811,0.826,37.1,23.494,41.2,25.68,4.824,7.289,21.092
1812,0.836,37.145,23.49,41.181,25.673,4.743,7.288,20.518
1813,0.833,37.28,23.392,41.181,25.677,4.742,7.207,19.984
1814,0.826,37.406,23.438,41.219,25.691,4.783,7.287,19.734
1815,0.823,36.966,23.451,41.219,25.684,4.864,7.369,19.447
1816,0.813,37.077,23.478,41.229,25.691,4.865,7.289,19.404
1817,0.829,37.231,23.482,41.239,25.691,4.906,7.288,20.054
1818,0.826,37.31,23.431,41.22,25.691,4.825,7.288,20.955
1819,0.836,36.936,23.474,41.219,25.691,4.865,7.329,21.98
1820,0.852,37.096,23.408,41.21,25.684,4.865,7.248,23.048
1821,0.849,37.232,23.431,41.21,25.691,4.865,7.247,24.115
1822,0.846,37.319,23.497,41.219,25.677,4.865,7.288,25.346
1823,0.83,36.889,23.482,41.239,25.691,4.946,7.329,26.415
1824,0.804,37.018,23.424,41.239,25.698,4.988,7.329,27.402
1825,0.803,37.135,23.427,41.22,25.687,4.866,7.207,27.859
1826,0.794,37.194,23.454,41.21,25.684,4.824,7.165,28.107
1827,0.797,36.897,23.419,41.2,25.666,4.743,7.206,28.11
1828,0.794,37.047,23.454,41.219,25.68,4.742,7.125,28.028
1829,0.79,37.174,23.501,41.219,25.677,4.783,7.083,27.702
1830,0.787,37.232,23.432,41.21,25.684,4.783,7.123,27.536
1831,0.797,36.753,23.478,41.238,25.677,4.864,7.246,27.006
1832,0.803,36.912,23.42,41.239,25.684,4.824,7.125,26.472
1833,0.813,37.019,23.521,41.239,25.68,4.783,7.246,25.857
1834,0.836,37.029,23.526,41.21,25.673,4.742,7.125,25.119
1835,0.843,36.876,23.459,41.219,25.677,4.661,7.205,24.42
1836,0.866,37.018,23.478,41.258,25.684,4.904,7.287,23.804
1837,0.859,37.144,23.47,41.268,25.691,4.865,7.451,23.31
1838,0.83,37.174,23.509,41.258,25.691,4.906,7.615,22.736
1839,0.807,36.791,23.467,41.268,25.691,4.865,7.657,22.12
1840,0.803,36.931,23.47,41.268,25.691,4.865,7.739,21.585
1841,0.8,37.038,23.404,41.268,25.684,4.865,7.943,21.133
1842,0.807,36.656,23.427,41.249,25.684,4.865,7.986,20.721
1843,0.8,36.671,23.474,41.258,25.691,4.824,8.068,20.27
1844,0.774,36.805,23.47,41.249,25.684,4.824,8.191,19.94
1845,0.79,36.941,23.478,41.277,25.691,4.824,8.273,19.693
1846,0.767,36.693,23.427,41.297,25.694,4.987,8.314,19.569
1847,0.77,36.786,23.493,41.297,25.691,4.907,8.396,19.405
1848,0.744,36.902,23.424,41.316,25.684,4.865,8.356,19.119
1849,0.754,36.999,23.446,41.249,25.684,4.743,8.356,18.791
1850,0.761,36.55,23.548,41.258,25.684,4.823,8.315,18.462
1851,0.767,36.689,23.448,41.268,25.68,4.783,8.315,18.133
1852,0.767,36.853,23.474,41.277,25.677,4.742,8.315,17.927
1853,0.774,36.932,23.424,41.277,25.684,4.823,8.396,17.64
1854,0.774,36.587,23.474,41.258,25.691,4.824,8.356,17.353
1855,0.784,36.718,23.463,41.277,25.684,4.824,8.275,17.106
1856,0.774,36.854,23.466,41.287,25.684,4.824,8.314,16.9
1857,0.774,36.903,23.482,41.258,25.677,4.824,8.356,16.695
1858,0.78,36.414,23.443,41.277,25.677,4.743,8.112,16.286
1859,0.787,36.592,23.462,41.287,25.684,4.783,8.191,15.997
1860,0.806,36.728,23.466,41.297,25.684,4.905,8.232,15.872
1861,0.8,36.787,23.486,41.306,25.691,4.906,8.355,15.709
1862,0.797,36.5,23.385,41.316,25.684,4.906,8.275,15.382
1863,0.781,36.65,23.434,41.307,25.687,4.906,8.274,15.134
1864,0.777,36.786,23.478,41.307,25.684,4.906,8.233,14.888
1865,0.774,36.797,23.455,41.316,25.687,4.865,8.192,14.561
1866,0.78,36.481,23.466,41.316,25.687,4.824,8.273,14.395
1867,0.803,36.64,23.42,41.316,25.691,4.905,8.233,14.19
1868,0.797,36.786,23.474,41.316,25.691,4.825,8.273,13.984
1869,0.813,36.739,23.412,41.335,25.694,4.946,8.314,13.86
1870,0.8,36.547,23.446,41.345,25.698,4.947,8.356,13.737
1871,0.787,36.66,23.478,41.336,25.687,4.907,8.356,13.614
1872,0.777,36.757,23.474,41.307,25.68,4.865,8.275,13.572
1873,0.787,36.336,23.435,41.297,25.677,4.824,8.193,13.571
1874,0.78,36.38,23.345,41.306,25.677,4.783,8.192,13.816
1875,0.784,36.534,23.461,41.326,25.68,4.783,8.151,14.306
1876,0.78,36.631,23.435,41.316,25.68,4.824,8.273,14.799
1877,0.787,36.22,23.466,41.374,25.68,4.824,8.274,15.292
1878,0.787,36.35,23.482,41.317,25.68,4.865,8.193,15.703
1879,0.79,36.467,23.49,41.326,25.684,4.906,8.192,16.114
1880,0.787,36.554,23.389,41.316,25.677,4.825,8.11,16.362
1881,0.784,36.267,23.438,41.307,25.67,4.783,8.028,16.567
1882,0.777,36.437,23.505,41.326,25.673,4.783,8.027,16.773
1883,0.78,36.582,23.475,41.355,25.684,4.905,8.109,17.059
1884,0.774,36.651,23.47,41.345,25.694,4.906,8.069,17.225
1885,0.777,36.364,23.435,41.345,25.691,4.947,8.069,17.349
1886,0.771,36.515,23.439,41.374,25.687,4.907,8.028,17.228
1887,0.78,36.641,23.474,41.365,25.691,4.825,7.987,17.145
1888,0.78,36.709,23.42,41.355,25.694,4.865,7.905,17.104
1889,0.79,36.326,23.47,41.365,25.68,4.906,7.904,16.9
1890,0.79,36.476,23.505,41.365,25.684,4.865,7.823,16.776
1891,0.774,36.612,23.416,41.374,25.68,4.865,7.822,16.612
1892,0.8,36.709,23.462,41.393,25.691,4.865,7.7,16.407
1893,0.813,36.317,23.494,41.413,25.694,4.946,7.78,16.161
1894,0.8,36.437,23.514,41.384,25.691,4.947,7.781,15.874
1895,0.784,36.535,23.463,41.365,25.68,4.866,7.618,15.709
1896,0.793,36.555,23.439,41.374,25.677,4.743,7.535,15.301
1897,0.8,36.344,23.466,41.346,25.673,4.783,7.494,15.134
1898,0.781,36.486,23.47,41.451,25.68,4.824,7.534,14.807
1899,0.787,36.602,23.478,41.385,25.68,4.865,7.534,14.722
1900,0.8,36.479,23.517,41.374,25.684,4.824,7.534,14.64
1901,0.794,36.295,23.475,41.384,25.684,4.865,7.534,14.639
1902,0.784,36.447,23.435,41.374,25.684,4.824,7.534,14.599
1903,0.774,36.535,23.474,41.365,25.677,4.824,7.616,14.598
1904,0.777,36.19,23.486,41.365,25.673,4.661,7.495,14.517
1905,0.793,36.263,23.537,41.393,25.68,4.782,7.453,14.353
1906,0.8,36.427,23.389,41.442,25.684,4.864,7.493,14.352
1907,0.774,36.534,23.399,41.423,25.684,4.865,7.534,14.393
1908,0.774,36.545,23.509,41.413,25.691,4.865,7.534,14.271
1909,0.771,36.689,23.44,41.423,25.691,4.906,7.494,14.066
1910,0.783,36.806,23.493,41.423,25.691,4.987,7.534,14.024
1911,0.819,36.893,23.494,41.432,25.687,4.866,7.453,13.861
1912,0.833,36.098,23.432,41.413,25.687,4.824,7.452,13.778
1913,0.836,36.263,23.411,41.432,25.68,4.865,7.534,13.492
1914,0.83,36.389,23.446,41.432,25.687,4.946,7.372,13.408
1915,0.82,36.467,23.443,41.442,25.684,4.866,7.492,13.245
1916,0.817,36.295,23.509,41.471,25.701,4.946,7.453,13.04
1917,0.82,36.437,23.51,41.471,25.694,4.988,7.534,13.078
1918,0.817,36.535,23.471,41.452,25.691,4.907,7.494,12.876
1919,0.803,36.593,23.424,41.442,25.68,4.825,7.412,12.629
1920,0.777,36.229,23.411,41.432,25.677,4.743,7.371,12.424
1921,0.764,36.379,23.474,41.423,25.673,4.864,7.33,12.259
1922,0.761,36.505,23.509,41.432,25.684,4.865,7.37,12.095
1923,0.744,36.526,23.416,41.461,25.677,4.824,7.452,12.052
1924,0.728,36.296,23.38,41.481,25.684,4.824,7.452,11.889
1925,0.741,36.447,23.438,41.471,25.68,4.783,7.534,11.969
1926,0.738,36.535,23.505,41.471,25.68,4.864,7.494,11.97
1927,0.721,36.583,23.322,41.49,25.68,4.824,7.534,11.97
1928,0.728,36.258,23.484,41.452,25.67,4.743,7.453,11.929
1929,0.76,36.427,23.482,41.461,25.68,4.864,7.452,11.929
1930,0.748,36.554,23.439,41.519,25.687,4.824,7.615,12.01
1931,0.754,36.401,23.49,41.51,25.684,4.905,7.739,12.092
1932,0.77,36.208,23.443,41.491,25.687,4.906,7.781,12.093
1933,0.774,36.34,23.521,41.51,25.687,4.865,7.903,12.134
1934,0.79,36.447,23.444,41.519,25.691,4.865,7.985,12.134
1935,0.774,36.237,23.396,41.529,25.691,4.865,8.027,12.215
1936,0.79,36.302,23.462,41.529,25.687,4.865,7.987,12.298
1937,0.816,36.428,23.384,41.51,25.684,4.865,8.068,12.542
1938,0.813,36.573,23.481,41.519,25.684,4.824,8.109,12.748
1939,0.813,36.114,23.49,41.548,25.691,4.905,8.109,13.238
1940,0.813,36.224,23.471,41.549,25.691,4.906,8.232,13.934
1941,0.777,36.35,23.424,41.558,25.684,4.825,8.233,14.592
1942,0.764,36.428,23.454,41.529,25.684,4.783,8.151,15.411
1943,0.757,36.208,23.501,41.539,25.677,4.742,8.11,16.558
1944,0.748,36.36,23.459,41.548,25.684,4.783,8.069,18.114
1945,0.728,36.486,23.431,41.539,25.68,4.742,8.069,19.472
1946,0.725,36.602,23.408,41.548,25.684,4.783,8.028,20.786
1947,0.718,36.085,23.493,41.558,25.677,4.824,8.027,21.694
1948,0.721,36.262,23.451,41.568,25.684,4.824,8.068,22.435
1949,0.715,36.379,23.482,41.577,25.684,4.946,8.109,22.93
1950,0.695,36.428,23.521,41.568,25.677,4.744,7.987,23.342
1951,0.701,36.113,23.424,41.577,25.677,4.823,7.946,23.386
1952,0.731,36.301,23.497,41.606,25.68,4.824,7.864,23.509
1953,0.76,36.428,23.537,41.597,25.687,4.824,8.026,23.469
1954,0.767,36.477,23.537,41.606,25.691,4.905,8.027,23.306
1955,0.777,36.171,23.518,41.607,25.691,4.865,8.027,23.101
1956,0.774,36.311,23.451,41.616,25.687,4.824,8.068,22.733
1957,0.793,36.428,23.474,41.635,25.691,4.824,7.946,22.689
1958,0.797,36.458,23.451,41.645,25.684,4.824,7.945,22.851
1959,0.797,36.122,23.466,41.626,25.68,4.824,7.905,23.259
1960,0.781,36.244,23.498,41.626,25.684,4.824,7.945,23.63
1961,0.78,36.389,23.396,41.655,25.684,4.824,7.864,24.121
1962,0.78,36.323,23.474,41.684,25.687,4.905,7.863,24.573
1963,0.748,36.217,23.435,41.684,25.698,4.947,8.026,24.984
1964,0.741,36.321,23.49,41.655,25.691,4.866,7.905,25.151
1965,0.741,36.418,23.494,41.655,25.684,4.784,7.863,25.031
1966,0.747,36.017,23.459,41.645,25.68,4.783,7.741,24.948
1967,0.76,36.08,23.505,41.664,25.677,4.783,7.699,24.785
1968,0.748,36.224,23.447,41.665,25.68,4.783,7.821,24.58
1969,0.754,36.312,23.497,41.674,25.677,4.783,7.781,24.212
1970,0.774,36.054,23.471,41.674,25.687,4.824,7.862,23.924
1971,0.78,36.185,23.49,41.684,25.687,4.743,7.782,23.514
1972,0.79,36.35,23.424,41.703,25.677,4.823,7.781,23.063
1973,0.793,36.419,23.462,41.694,25.684,4.824,7.781,22.53
1974,0.803,36.007,23.505,41.684,25.673,4.783,7.74,22.077
1975,0.803,36.166,23.502,41.703,25.673,4.742,7.618,21.463
1976,0.813,36.292,23.498,41.723,25.684,4.742,7.657,21.091
1977,0.813,36.389,23.49,41.732,25.687,4.823,7.698,20.68
1978,0.816,35.92,23.486,41.713,25.687,4.946,7.658,20.27
1979,0.826,36.069,23.451,41.751,25.691,4.825,7.658,19.818
1980,0.83,36.186,23.447,41.742,25.691,4.865,7.617,19.285
1981,0.823,36.263,23.517,41.733,25.691,4.824,7.576,18.873
1982,0.8,35.9,23.459,41.752,25.68,4.824,7.535,18.381
1983,0.794,36.059,23.412,41.752,25.684,4.865,7.575,17.97
1984,0.774,36.195,23.462,41.761,25.684,4.824,7.535,17.6
1985,0.787,36.283,23.455,41.781,25.694,4.905,7.494,17.393
1986,0.774,36.025,23.513,41.79,25.694,4.987,7.616,17.188
1987,0.767,36.156,23.451,41.791,25.694,4.826,7.698,16.901
1988,0.774,36.263,23.443,41.762,25.68,4.824,7.618,16.654
1989,0.774,36.245,23.493,41.771,25.673,4.783,7.657,16.286
1990,0.787,35.938,23.494,41.857,25.677,4.742,7.658,15.997
1991,0.81,36.088,23.467,41.81,25.68,4.864,7.739,15.751
1992,0.823,36.215,23.455,41.791,25.677,4.824,7.821,15.545
1993,0.843,35.986,23.548,41.8,25.68,4.783,7.944,15.177
1994,0.879,35.926,23.452,41.819,25.684,4.824,7.986,14.97
1995,0.879,36.079,23.349,41.839,25.684,4.783,7.946,14.765
1996,0.882,36.176,23.473,41.791,25.684,4.783,7.986,14.559
1997,0.895,35.765,23.455,41.8,25.677,4.702,7.946,14.313
1998,0.899,35.895,23.494,41.819,25.684,4.742,8.026,14.351
1999,0.899,36.03,23.486,41.839,25.687,4.905,8.19,14.474
2000,0.908,36.128,23.447,41.839,25.684,4.906,8.151,14.475
2001,0.889,35.755,23.462,41.858,25.691,4.825,8.11,14.8
2002,0.882,35.885,23.443,41.849,25.684,4.865,8.069,15.17
2003,0.879,36.011,23.533,41.839,25.687,4.865,8.109,15.498
2004,0.876,36.099,23.537,41.858,25.684,4.824,8.109,15.786
2005,0.892,35.659,23.487,41.868,25.687,4.743,8.028,16.155
2006,0.905,35.817,23.431,41.868,25.684,4.864,8.068,16.403
2007,0.918,35.982,23.532,41.887,25.687,4.824,8.109,16.649
2008,0.922,36.079,23.444,41.916,25.694,4.987,8.191,16.896
2009,0.925,35.802,23.478,41.907,25.687,4.907,8.151,16.979
2010,0.922,35.924,23.502,41.878,25.684,4.825,8.069,16.98
2011,0.905,36.05,23.393,41.878,25.68,4.743,8.028,16.858
2012,0.931,36.128,23.454,41.878,25.677,4.742,8.027,16.735
2013,0.951,35.649,23.408,41.878,25.68,4.742,7.946,16.612
2014,0.958,35.788,23.493,41.878,25.677,4.783,7.945,16.57
2015,0.951,35.924,23.475,41.878,25.68,4.864,7.945,16.488
2016,0.951,35.992,23.49,41.916,25.68,4.784,8.026,16.487
2017,0.951,35.705,23.51,41.926,25.684,4.783,7.946,16.731
2018,0.935,35.894,23.494,41.916,25.68,4.824,7.905,16.896
2019,0.902,35.973,23.49,41.897,25.677,4.743,7.945,17.02
2020,0.905,35.983,23.467,41.897,25.673,4.742,7.783,17.103
2021,0.879,35.619,23.451,41.945,25.684,4.783,7.862,17.266
2022,0.882,35.769,23.435,41.926,25.691,4.986,7.944,17.471
2023,0.84,35.876,23.501,41.955,25.684,4.907,7.905,17.717
2024,0.826,35.704,23.541,41.955,25.691,4.865,7.904,17.841
2025,0.813,35.693,23.498,41.945,25.687,4.906,7.863,17.965
2026,0.82,35.827,23.478,41.955,25.691,4.825,7.822,17.885
2027,0.817,35.943,23.486,41.936,25.687,4.824,7.863,17.802
2028,0.846,35.599,23.365,41.984,25.691,4.865,7.822,17.72
2029,0.866,35.749,23.469,41.955,25.684,4.865,7.741,17.557
2030,0.879,35.876,23.521,41.965,25.687,4.865,7.781,17.392
2031,0.872,36.002,23.498,42.022,25.691,4.987,7.903,17.269
2032,0.885,35.562,23.443,41.984,25.691,4.988,8.026,17.024
2033,0.879,35.682,23.478,41.955,25.68,4.907,7.987,16.737
2034,0.879,35.808,23.447,41.965,25.684,4.865,7.986,16.571
2035,0.866,35.895,23.517,41.955,25.684,4.743,7.986,16.488
2036,0.856,35.369,23.49,41.965,25.677,4.823,8.068,16.487
2037,0.846,35.517,23.467,41.974,25.684,4.824,8.191,16.487
2038,0.833,35.662,23.513,42.07,25.68,4.865,8.232,16.406
2039,0.813,35.76,23.432,41.985,25.684,4.865,8.395,16.405
2040,0.82,35.377,23.556,41.984,25.684,4.784,8.397,16.486
2041,0.803,35.527,23.428,42.003,25.684,4.864,8.397,16.487
2042,0.79,35.653,23.466,41.994,25.68,4.824,8.478,16.447
2043,0.793,35.75,23.505,41.984,25.673,4.743,8.398,16.487
2044,0.78,35.54,23.502,42.003,25.68,4.864,8.397,16.569
2045,0.787,35.701,23.553,42.032,25.684,4.906,8.519,16.651
2046,0.774,35.827,23.479,42.032,25.691,4.825,8.52,16.692
2047,0.771,35.857,23.521,42.023,25.691,4.865,8.52,16.693
2048,0.777,35.301,23.471,42.023,25.687,4.906,8.479,16.611
2049,0.79,35.459,23.451,42.032,25.684,4.865,8.479,16.57
2050,0.803,35.575,23.513,42.042,25.684,4.824,8.357,16.488
2051,0.8,35.874,23.447,42.052,25.684,4.865,8.397,16.325
2052,0.8,35.349,23.466,42.042,25.687,4.865,8.356,16.16
2053,0.794,35.526,23.431,42.042,25.691,4.906,8.356,15.996
2054,0.78,35.662,23.478,42.081,25.694,4.906,8.356,15.832
2055,0.774,35.414,23.537,42.09,25.698,4.987,8.478,15.79
2056,0.758,35.383,23.487,42.062,25.691,4.907,8.438,15.667
2057,0.751,35.527,23.478,42.042,25.677,4.784,8.357,15.259
2058,0.748,35.614,23.482,42.042,25.677,4.824,8.315,15.093
2059,0.751,35.145,23.435,42.052,25.673,4.743,8.234,14.888
2060,0.748,35.256,23.427,42.042,25.684,4.823,8.314,14.642
2061,0.738,35.401,23.509,42.052,25.687,4.743,8.274,14.477
2062,0.747,35.489,23.455,42.061,25.691,4.823,8.274,14.353
2063,0.738,35.24,23.458,42.071,25.684,4.824,8.314,14.189
2064,0.734,35.401,23.419,42.157,25.691,4.783,8.274,13.984
2065,0.738,35.517,23.47,42.062,25.673,4.864,8.233,13.86
2066,0.738,35.605,23.521,42.062,25.677,4.824,8.151,13.615
2067,0.754,35.069,23.424,42.09,25.68,4.824,8.15,13.531
2068,0.748,35.226,23.497,42.091,25.687,4.865,8.232,13.49
2069,0.767,35.362,23.498,42.119,25.691,4.865,8.233,13.449
2070,0.77,35.45,23.436,42.11,25.687,4.946,8.233,13.408
2071,0.767,35.096,23.478,42.11,25.68,4.866,8.192,13.245
2072,0.77,35.236,23.478,42.11,25.684,4.865,8.07,13.08
2073,0.774,35.362,23.548,42.12,25.687,4.865,8.109,12.997
2074,0.754,35.44,23.463,42.11,25.684,4.865,8.109,13.2
2075,0.741,35.125,23.466,42.11,25.68,4.906,8.028,14.747
2076,0.744,35.284,23.412,42.129,25.677,4.906,8.068,17.283
2077,0.754,35.43,23.493,42.158,25.694,4.987,8.028,19.992
2078,0.741,35.479,23.494,42.168,25.698,4.988,8.027,23.15
2079,0.725,35.077,23.459,42.13,25.687,4.948,8.068,26.963
2080,0.734,35.217,23.498,42.12,25.68,4.866,7.906,30.904
2081,0.741,35.343,23.416,42.158,25.684,4.824,7.782,34.562
2082,0.725,35.699,23.45,42.12,25.677,4.824,7.74,37.485
2083,0.718,35.098,23.478,42.129,25.684,4.824,7.699,39.547
2084,0.721,35.246,23.494,42.139,25.68,4.905,7.74,40.706
2085,0.741,35.381,23.51,42.149,25.684,4.906,7.699,41.327
2086,0.734,35.153,23.471,42.139,25.684,4.906,7.658,41.334
2087,0.751,35.16,23.513,42.149,25.687,4.825,7.739,40.805
2088,0.744,35.275,23.397,42.149,25.684,4.865,7.618,39.986
2089,0.747,35.401,23.446,42.139,25.677,4.743,7.495,39.003
2090,0.757,34.923,23.482,42.149,25.68,4.823,7.534,37.814
2091,0.754,35.033,23.502,42.168,25.684,4.865,7.616,36.582
2092,0.751,35.178,23.518,42.197,25.694,4.946,7.617,35.35
2093,0.748,35.304,23.455,42.187,25.687,4.947,7.657,33.955
2094,0.773,34.951,23.486,42.178,25.687,4.947,7.617,32.6
2095,0.771,35.1,23.494,42.187,25.687,4.947,7.617,31.244
2096,0.774,35.217,23.502,42.178,25.684,4.907,7.576,29.93
2097,0.771,35.314,23.455,42.168,25.684,4.906,7.535,28.859
2098,0.767,36.303,23.537,42.168,25.684,4.865,7.534,27.873
2099,0.774,36.476,23.467,42.226,25.687,4.865,7.534,27.172
2100,0.764,36.612,23.435,42.226,25.698,4.987,7.575,26.84
2101,0.774,36.661,23.505,42.217,25.694,4.988,7.575,26.877
2102,0.787,34.207,23.471,42.168,25.684,4.826,7.494,27.0
2103,0.8,34.374,23.392,42.187,25.68,4.824,7.412,27.082
2104,0.846,34.539,23.47,42.197,25.677,4.783,7.371,27.246
2105,0.879,34.617,23.455,42.187,25.673,4.783,7.33,27.328
2106,0.921,35.03,23.509,42.197,25.687,4.864,7.37,27.248
2107,0.99,35.216,23.451,42.255,25.68,4.824,7.37,27.044
2108,1.052,35.324,23.49,42.207,25.684,4.865,7.37,27.001
2109,1.092,35.354,23.537,42.216,25.677,4.906,7.411,26.676
2110,1.092,34.731,23.44,42.226,25.684,4.947,7.289,26.388
2111,1.128,34.878,23.486,42.197,25.677,4.785,7.329,25.897
2112,1.168,35.033,23.478,42.216,25.677,4.742,7.207,25.323
2113,1.201,35.245,23.548,42.226,25.687,4.823,7.287,24.951
2114,1.211,34.806,23.452,42.264,25.691,4.905,7.369,24.378
2115,1.253,34.926,23.404,42.265,25.691,4.906,7.452,23.803
2116,1.289,35.062,23.462,42.274,25.684,4.906,7.452,23.228
2117,1.364,34.862,23.478,42.265,25.687,4.987,7.412,22.735
2118,1.446,34.908,23.482,42.265,25.687,4.948,7.452,22.12
2119,1.545,35.052,23.498,42.246,25.68,4.907,7.452,21.545
2120,1.611,35.159,23.525,42.245,25.691,4.906,7.452,21.01
2121,1.712,34.661,23.467,42.245,25.684,4.947,7.493,20.639
2122,1.772,34.8,23.494,42.284,25.684,4.947,7.616,20.269
2123,1.812,34.946,23.49,42.313,25.701,5.029,7.901,19.9
