time,ecg,bvp,gsr,rsp,skt,emg_zygo,emg_coru,emg_trap
0,0.862,36.398,11.035,32.246,27.528,5.193,5.892,8.807
1,0.849,36.477,11.024,32.218,27.514,5.072,5.851,8.767
2,0.849,36.084,11.016,32.237,27.521,5.152,5.932,8.807
3,0.862,36.186,11.063,32.227,27.521,5.193,5.811,8.767
4,0.866,36.292,11.071,32.237,27.521,5.153,5.891,8.807
5,0.849,36.38,10.997,32.208,27.51,5.031,5.811,8.808
6,0.843,36.035,11.016,32.256,27.528,5.273,5.932,8.93
7,0.849,36.156,11.043,32.256,27.521,5.154,5.77,8.768
8,0.849,36.273,11.071,32.227,27.514,5.153,5.728,8.685
9,0.859,36.37,11.071,32.246,27.521,5.234,5.85,8.766
10,0.866,36.083,11.079,32.237,27.514,5.153,5.81,8.726
11,0.859,36.224,11.028,32.246,27.517,5.193,5.81,8.726
12,0.856,36.341,11.102,32.218,27.517,5.153,5.85,8.644
13,0.885,36.447,10.978,32.265,27.531,5.315,5.891,8.603
14,0.882,36.132,11.031,32.218,27.517,5.114,5.851,8.44
15,0.866,36.244,11.086,32.218,27.517,5.152,5.851,8.641
16,0.882,36.389,11.106,32.227,27.528,5.234,5.973,8.562
17,0.856,36.429,11.106,32.218,27.514,5.153,5.811,8.521
18,0.859,36.036,10.974,32.227,27.521,5.275,5.891,8.52
19,0.869,36.185,11.011,32.237,27.517,5.195,5.892,8.479
20,0.869,36.321,11.016,32.237,27.517,5.194,5.892,8.479
21,0.856,36.294,11.012,32.199,27.507,5.031,5.811,8.438
22,0.859,36.169,11.035,32.236,27.524,5.314,5.972,8.601
23,0.859,36.33,11.047,32.237,27.517,5.154,5.933,8.562
24,0.849,36.39,11.094,32.208,27.514,5.071,5.811,8.358
25,0.843,36.314,10.989,32.217,27.521,5.193,5.932,8.519
26,0.843,36.15,11.047,32.218,27.514,5.234,5.892,8.439
27,0.856,36.282,11.04,32.218,27.51,5.235,5.851,8.438
28,0.853,36.351,11.02,32.208,27.514,5.153,5.851,8.438
29,0.869,35.968,11.09,32.246,27.531,5.315,5.973,8.438
30,0.872,36.031,11.032,32.199,27.517,5.114,5.852,8.357
31,0.866,36.147,11.035,32.189,27.514,5.152,5.851,8.478
32,0.879,36.273,11.075,32.236,27.521,5.275,5.932,8.52
33,0.879,35.919,11.036,32.189,27.514,5.195,5.77,8.317
34,0.879,36.079,11.016,32.208,27.514,5.234,5.891,8.518
35,0.876,36.205,11.02,32.198,27.514,5.194,5.811,8.439
36,0.889,36.34,11.078,32.208,27.517,5.234,5.891,8.438
37,0.872,35.958,11.087,32.169,27.51,5.153,5.729,8.438
38,0.876,36.098,11.059,32.198,27.521,5.315,5.89,8.519
39,0.872,36.282,11.016,32.236,27.514,5.236,5.933,8.439
40,0.863,36.322,11.008,32.179,27.51,5.153,5.77,8.316
41,0.875,36.035,11.102,32.217,27.521,5.234,5.931,8.437
42,0.856,36.204,11.028,32.256,27.514,5.194,5.811,8.316
43,0.856,36.331,11.035,32.199,27.514,5.234,5.81,8.274
44,0.846,36.323,11.032,32.16,27.51,5.235,5.81,8.233
45,0.856,36.179,11.082,32.227,27.524,5.357,5.891,8.355
46,0.859,36.292,10.981,32.198,27.507,5.155,5.851,8.112
47,0.856,36.399,10.98,32.179,27.51,5.234,5.851,8.15
48,0.879,36.429,11.008,32.198,27.517,5.316,5.932,8.191
49,0.872,36.026,11.02,32.179,27.514,5.154,5.77,8.07
50,0.879,36.147,11.082,32.208,27.521,5.315,5.891,8.109
51,0.885,36.273,11.044,32.179,27.514,5.236,5.811,8.069
52,0.892,36.351,11.079,32.198,27.514,5.194,5.85,8.069
53,0.892,36.054,11.036,32.16,27.496,5.112,5.769,7.946
54,0.899,36.224,11.032,32.179,27.517,5.315,5.931,8.108
55,0.895,36.35,11.028,32.198,27.524,5.317,5.77,7.947
56,0.873,35.939,11.035,32.179,27.51,5.114,5.768,7.823
57,0.869,36.012,11.098,32.198,27.521,5.234,5.85,7.985
58,0.882,36.137,11.071,32.198,27.51,5.194,5.81,7.905
59,0.885,36.244,11.005,32.179,27.517,5.275,5.81,7.904
60,0.863,35.948,11.023,32.169,27.514,5.195,5.85,7.863
61,0.875,36.127,11.106,32.227,27.524,5.397,5.973,7.985
62,0.876,36.273,11.028,32.189,27.517,5.236,5.811,7.742
63,0.869,36.322,11.0,32.169,27.507,5.235,5.728,7.903
64,0.869,36.006,11.059,32.198,27.514,5.235,5.89,7.904
65,0.866,36.166,11.083,32.179,27.51,5.153,5.811,7.782
66,0.866,36.273,11.028,32.208,27.514,5.234,5.81,7.822
67,0.866,36.332,10.996,32.217,27.51,5.194,5.81,7.822
68,0.885,35.929,11.027,32.227,27.517,5.234,5.85,7.781
69,0.892,36.031,11.032,32.17,27.507,5.113,5.729,7.74
70,0.889,36.128,11.098,32.179,27.517,5.234,5.972,7.862
71,0.902,36.234,11.079,32.188,27.521,5.194,5.933,7.782
72,0.889,36.005,11.009,32.198,27.507,5.112,5.811,7.7
73,0.895,36.166,11.09,32.198,27.51,5.193,5.85,7.821
74,0.905,36.273,11.001,32.198,27.514,5.234,5.81,7.619
75,0.915,36.322,11.039,32.198,27.514,5.235,5.972,7.617
76,0.912,35.958,11.039,32.15,27.507,5.153,5.852,7.657
77,0.889,36.127,11.078,32.198,27.521,5.315,6.095,7.78
78,0.892,36.244,11.114,32.198,27.514,5.236,5.935,7.578
79,0.889,36.523,11.044,32.179,27.507,5.153,5.852,7.575
80,0.885,35.931,11.067,32.198,27.517,5.234,5.891,7.616
81,0.892,36.06,11.036,32.208,27.51,5.113,6.014,7.495
82,0.889,36.176,11.043,32.198,27.514,5.152,6.056,7.697
83,0.869,35.957,11.043,32.189,27.514,5.234,5.975,7.74
84,0.879,36.05,11.032,32.236,27.524,5.194,6.015,7.74
85,0.879,36.147,11.082,32.189,27.51,5.031,5.974,7.659
86,0.866,36.215,11.052,32.16,27.51,5.192,6.015,7.82
87,0.885,35.89,11.012,32.207,27.514,5.234,6.056,7.863
88,0.895,35.992,10.93,32.198,27.507,5.194,6.015,7.782
89,0.899,36.099,11.042,32.208,27.517,5.234,6.096,7.903
90,0.915,36.205,11.094,32.217,27.514,5.235,6.138,7.904
91,0.935,35.947,11.013,32.208,27.517,5.235,6.138,7.904
92,0.915,36.06,11.031,32.169,27.5,5.113,6.057,7.945
93,0.922,36.205,11.059,32.227,27.524,5.315,6.259,8.026
94,0.918,36.273,11.075,32.218,27.514,5.236,6.139,7.946
95,0.918,35.871,11.024,32.227,27.507,5.072,6.057,8.026
96,0.918,36.04,11.024,32.208,27.514,5.193,6.219,8.068
97,0.912,36.166,11.039,32.217,27.51,5.112,6.098,8.028
98,0.908,36.235,11.051,32.208,27.521,5.234,6.219,8.109
99,0.908,35.948,11.098,32.208,27.514,5.194,6.139,8.109
100,0.905,36.146,11.067,32.217,27.521,5.194,6.138,8.15
101,0.892,36.225,11.005,32.189,27.503,5.031,6.057,8.069
102,0.892,36.264,11.078,32.208,27.517,5.273,6.219,8.191
103,0.886,35.852,11.013,32.227,27.514,5.235,6.139,8.11
104,0.889,35.963,11.012,32.198,27.507,5.113,6.057,8.109
105,0.879,36.098,11.024,32.208,27.514,5.193,6.178,8.191
106,0.879,36.1,11.106,32.198,27.514,5.153,6.139,8.11
107,0.895,36.004,11.06,32.208,27.514,5.193,6.138,8.272
108,0.899,36.108,11.028,32.189,27.514,5.234,6.098,8.193
109,0.908,36.282,11.051,32.256,27.531,5.316,6.219,8.232
110,0.925,35.977,11.036,32.199,27.507,5.154,6.058,8.111
111,0.915,35.926,11.036,32.179,27.507,5.112,6.056,8.272
112,0.922,36.069,11.039,32.217,27.521,5.152,6.137,8.233
113,0.925,36.166,11.051,32.179,27.51,5.153,6.098,8.151
114,0.938,36.004,11.063,32.208,27.521,5.234,6.138,8.232
115,0.948,36.137,11.016,32.189,27.514,5.113,6.098,8.151
116,0.958,36.292,11.035,32.217,27.514,5.234,6.138,8.191
117,0.932,36.341,11.024,32.179,27.507,5.032,6.016,8.11
118,0.935,35.901,11.086,32.208,27.517,5.314,6.218,8.354
119,0.938,36.04,11.11,32.227,27.521,5.236,6.098,8.193
120,0.922,36.166,11.04,32.189,27.507,5.153,6.016,8.192
121,0.928,36.273,11.008,32.217,27.514,5.275,6.137,8.273
122,0.925,36.542,11.066,32.189,27.517,5.154,6.098,8.274
123,0.918,36.689,10.997,32.208,27.517,5.153,6.097,8.396
124,0.909,36.786,11.0,32.198,27.514,5.153,6.097,8.356
125,0.918,36.912,11.016,32.236,27.528,5.275,6.138,8.397
126,0.925,35.782,11.047,32.208,27.517,5.113,6.016,8.234
127,0.918,35.885,11.067,32.189,27.51,5.112,6.096,8.314
128,0.935,36.03,11.079,32.198,27.517,5.234,6.097,8.356
129,0.928,36.089,11.04,32.236,27.51,5.113,5.975,8.315
130,0.938,36.205,11.043,32.189,27.517,5.152,6.096,8.356
131,0.932,36.34,11.075,32.188,27.517,5.193,6.056,8.356
132,0.957,36.495,11.059,32.217,27.521,5.112,6.056,8.356
133,0.945,36.478,11.036,32.16,27.51,4.989,6.015,8.234
134,0.951,36.123,11.071,32.198,27.517,5.151,6.178,8.395
135,0.958,36.263,11.098,32.198,27.521,5.153,6.098,8.275
136,0.958,36.379,10.931,32.189,27.514,5.112,6.056,8.314
137,0.958,36.333,11.034,32.208,27.517,5.193,6.097,8.274
138,0.951,36.284,11.02,32.189,27.51,5.194,6.056,8.233
139,0.958,36.437,11.07,32.198,27.514,5.194,6.137,8.273
140,0.935,36.506,11.051,32.16,27.51,5.112,6.138,8.193
141,0.935,36.286,11.028,32.207,27.528,5.274,6.26,8.314
142,0.938,36.389,11.051,32.198,27.521,5.195,6.139,8.112
143,0.928,36.496,11.059,32.198,27.51,5.072,6.138,8.15
144,0.925,36.612,11.02,32.198,27.517,5.193,6.219,8.191
145,0.935,36.277,11.016,32.198,27.517,5.112,6.139,8.11
146,0.931,36.408,11.039,32.189,27.514,5.152,6.179,8.15
147,0.935,36.505,11.106,32.179,27.517,5.234,6.098,7.947
148,0.945,36.631,11.114,32.208,27.531,5.194,6.178,8.067
149,0.941,36.479,10.993,32.179,27.521,5.072,6.098,7.987
150,0.948,36.583,11.059,32.188,27.517,5.193,6.219,8.068
151,0.964,36.747,11.075,32.188,27.514,5.234,6.261,7.987
152,0.958,36.777,11.005,32.198,27.51,5.153,6.18,7.946
153,0.974,36.605,11.02,32.189,27.517,5.315,6.261,7.945
154,0.961,36.757,11.078,32.16,27.514,5.154,6.18,7.864
155,0.971,36.883,11.11,32.179,27.514,5.234,6.261,7.904
156,0.945,36.884,11.009,32.169,27.51,5.275,6.302,7.904
157,0.951,36.712,11.051,32.217,27.531,5.357,6.425,7.945
158,0.951,36.854,11.004,32.189,27.521,5.195,6.182,7.783
159,0.948,36.941,11.035,32.169,27.514,5.234,6.22,7.781
160,0.954,36.981,11.075,32.198,27.521,5.275,6.302,7.822
161,0.941,36.665,11.04,32.169,27.51,5.154,6.221,7.7
162,0.948,36.805,11.047,32.179,27.521,5.275,6.342,7.78
163,0.938,36.912,11.075,32.188,27.521,5.276,6.303,7.74
164,0.954,37.009,11.016,32.217,27.524,5.276,6.302,7.781
165,0.938,36.943,10.985,32.16,27.514,5.195,6.221,7.618
166,0.925,37.057,11.023,32.169,27.514,5.397,6.424,7.82
167,0.938,37.164,11.082,32.198,27.521,5.358,6.385,7.741
168,0.938,36.906,11.075,32.16,27.51,5.195,6.303,7.699
169,0.945,36.99,11.005,32.179,27.517,5.316,6.384,7.78
170,0.951,37.125,11.016,32.179,27.517,5.236,6.344,7.822
171,0.951,37.203,11.055,32.179,27.517,5.316,6.384,7.863
172,0.948,36.916,10.973,32.15,27.517,5.276,6.344,7.904
173,0.971,37.095,11.054,32.207,27.524,5.398,6.588,8.067
174,0.971,37.222,11.04,32.169,27.514,5.277,6.346,7.784
175,0.961,37.281,11.078,32.169,27.514,5.195,6.384,7.984
176,0.961,36.946,11.032,32.179,27.524,5.316,6.385,7.946
177,0.951,37.057,11.032,32.198,27.514,5.236,6.344,7.945
178,0.941,37.193,11.024,32.169,27.524,5.316,6.466,8.026
179,0.945,37.242,11.035,32.169,27.521,5.236,6.386,8.027
180,0.958,37.156,11.078,32.188,27.517,5.316,6.466,8.149
181,0.948,37.261,11.048,32.141,27.51,5.195,6.345,8.11
182,0.935,37.406,11.016,32.178,27.524,5.397,6.466,8.313
183,0.948,37.446,11.109,32.169,27.517,5.358,6.426,8.234
184,0.925,37.082,10.978,32.16,27.514,5.195,6.385,8.273
185,0.935,37.25,11.027,32.169,27.517,5.316,6.466,8.314
186,0.925,37.339,11.035,32.16,27.521,5.317,6.386,8.274
187,0.948,37.387,11.063,32.159,27.521,5.276,6.425,8.274
188,0.941,37.244,11.126,32.15,27.517,5.316,6.466,8.233
189,0.948,37.434,11.033,32.207,27.531,5.398,6.548,8.395
190,0.958,37.542,11.051,32.189,27.517,5.236,6.386,8.194
191,0.941,37.639,11.047,32.169,27.517,5.194,6.507,8.314
192,0.945,37.333,11.024,32.179,27.517,5.316,6.63,8.315
193,0.948,37.445,11.028,32.169,27.521,5.195,6.509,8.193
194,0.951,37.542,11.016,32.16,27.521,5.234,6.589,8.273
195,0.954,37.322,11.09,32.169,27.51,5.275,6.549,8.152
196,0.964,37.416,11.044,32.169,27.514,5.235,6.671,8.232
197,0.942,37.513,11.0,32.15,27.507,5.153,6.631,8.111
198,0.938,37.629,11.016,32.179,27.528,5.397,6.834,8.435
199,0.935,37.342,11.0,32.169,27.528,5.318,6.755,8.194
200,0.928,37.426,11.094,32.16,27.514,5.276,6.714,8.11
201,0.922,37.58,11.06,32.198,27.524,5.276,6.876,8.191
202,0.922,37.639,11.02,32.169,27.514,5.276,6.796,8.11
203,0.922,37.467,11.106,32.15,27.517,5.276,6.877,8.15
204,0.896,37.561,10.997,32.159,27.51,5.316,6.877,8.11
205,0.915,37.754,11.051,32.188,27.528,5.48,7.04,8.109
206,0.918,37.794,11.008,32.179,27.517,5.237,6.798,8.028
207,0.918,37.421,11.063,32.141,27.51,5.235,6.877,8.109
208,0.918,37.59,11.106,32.169,27.521,5.275,7.0,8.15
209,0.922,37.687,11.099,32.16,27.514,5.154,6.96,8.028
210,0.922,37.755,11.052,32.169,27.521,5.275,7.082,8.109
211,0.938,37.487,11.036,32.15,27.517,5.316,7.002,8.109
212,0.954,37.648,11.075,32.179,27.514,5.236,7.123,8.15
213,0.945,37.736,11.009,32.15,27.507,5.113,6.961,7.947
214,0.948,37.756,11.0,32.159,27.524,5.315,7.244,8.23
215,0.945,37.449,11.059,32.159,27.521,5.317,7.125,8.151
216,0.938,37.561,11.063,32.15,27.51,5.195,7.043,8.069
217,0.941,37.696,11.008,32.159,27.521,5.275,7.164,8.15
218,0.928,38.062,10.977,32.179,27.514,5.235,7.124,8.069
219,0.931,37.538,11.0,32.15,27.521,5.316,7.205,8.15
220,0.909,37.639,11.051,32.121,27.507,5.195,7.165,8.069
221,0.908,37.774,11.032,32.178,27.528,5.397,7.287,8.231
222,0.908,37.545,11.02,32.169,27.51,5.236,7.085,8.111
223,0.895,37.533,11.09,32.15,27.496,5.153,7.123,8.15
224,0.905,37.687,11.056,32.169,27.514,5.234,7.205,8.313
225,0.886,37.765,10.969,32.15,27.503,5.235,7.125,8.193
226,0.892,37.459,11.008,32.15,27.517,5.235,7.165,8.314
227,0.895,37.542,11.012,32.15,27.517,5.235,7.165,8.315
228,0.912,37.725,11.074,32.188,27.521,5.275,7.206,8.396
229,0.902,37.756,11.091,32.141,27.503,5.113,7.084,8.275
230,0.905,37.583,11.071,32.15,27.51,5.234,7.245,8.518
231,0.915,37.735,11.024,32.159,27.521,5.275,7.166,8.398
232,0.925,37.832,11.067,32.121,27.507,5.154,7.084,8.316
233,0.918,37.939,11.059,32.197,27.521,5.234,7.205,8.437
234,0.918,37.528,11.008,32.15,27.517,5.194,7.125,8.316
235,0.915,37.686,11.074,32.15,27.521,5.194,7.165,8.356
236,0.915,37.755,11.083,32.121,27.51,5.153,7.165,8.356
237,0.918,37.852,11.067,32.188,27.531,5.356,7.328,8.437
238,0.912,37.661,10.985,32.169,27.517,5.195,7.126,8.235
239,0.899,37.765,10.992,32.14,27.51,5.153,7.124,8.314
240,0.895,37.919,11.055,32.159,27.521,5.234,7.165,8.274
241,0.895,37.949,11.032,32.15,27.51,5.072,7.165,8.193
242,0.882,37.614,11.047,32.169,27.524,5.193,7.287,8.232
243,0.872,37.745,11.028,32.16,27.514,5.194,7.288,8.233
244,0.876,37.9,11.09,32.179,27.531,5.275,7.451,8.151
245,0.879,37.882,11.001,32.141,27.514,5.154,7.29,7.988
246,0.869,37.604,10.992,32.14,27.51,5.193,7.41,8.23
247,0.879,37.774,11.012,32.14,27.524,5.316,7.33,8.192
248,0.866,37.852,11.012,32.15,27.51,5.154,7.41,8.029
249,0.869,37.776,11.043,32.15,27.521,5.234,7.452,8.149
250,0.885,37.785,11.012,32.15,27.514,5.194,7.452,8.028
251,0.898,37.938,11.004,32.179,27.517,5.194,7.452,8.149
252,0.886,37.997,11.09,32.131,27.503,5.112,7.412,8.15
253,0.879,37.499,10.993,32.178,27.524,5.315,7.615,8.273
254,0.882,37.629,11.031,32.141,27.521,5.317,7.454,8.152
255,0.879,37.707,11.035,32.15,27.517,5.154,7.534,8.069
256,0.895,37.823,11.094,32.14,27.514,5.275,7.616,8.191
257,0.882,37.536,11.099,32.14,27.521,5.195,7.576,8.11
258,0.872,37.696,11.028,32.14,27.521,5.275,7.738,8.15
259,0.866,37.784,11.028,32.15,27.517,5.235,7.659,8.191
260,0.866,37.919,10.985,32.188,27.531,5.235,7.698,8.151
261,0.856,37.623,11.066,32.121,27.517,5.153,7.618,8.028
262,0.846,37.755,11.009,32.13,27.521,5.234,7.617,8.149
263,0.849,37.89,11.02,32.159,27.524,5.275,7.779,8.15
264,0.836,37.93,11.059,32.131,27.514,5.195,7.659,8.11
265,0.846,37.575,11.063,32.14,27.521,5.234,7.698,8.232
266,0.833,37.725,10.989,32.15,27.517,5.235,7.699,8.029
267,0.852,37.861,11.019,32.159,27.517,5.194,7.699,8.109
268,0.843,37.862,11.0,32.102,27.507,5.072,7.536,8.109
269,0.843,37.584,11.055,32.14,27.517,5.274,7.819,8.272
270,0.839,37.735,11.047,32.169,27.521,5.276,7.741,8.111
271,0.836,37.823,11.043,32.14,27.514,5.195,7.618,8.069
272,0.843,37.843,11.051,32.159,27.521,5.234,7.657,8.191
273,0.836,37.651,11.024,32.14,27.517,5.113,7.617,8.11
274,0.843,37.774,11.024,32.14,27.514,5.193,7.617,8.191
275,0.843,37.852,11.016,32.13,27.517,5.153,7.576,8.192
276,0.846,37.776,11.07,32.188,27.535,5.315,7.698,8.273
277,0.84,37.679,11.102,32.141,27.514,5.154,7.496,8.152
278,0.833,37.793,11.064,32.111,27.514,5.153,7.534,8.15
279,0.836,37.919,10.985,32.159,27.517,5.153,7.534,8.313
280,0.826,37.585,11.004,32.131,27.514,5.112,7.453,8.193
281,0.826,37.658,11.035,32.121,27.521,5.193,7.534,8.314
282,0.807,37.793,10.95,32.149,27.524,5.153,7.412,8.518
283,0.826,37.91,11.007,32.159,27.528,5.193,7.411,8.683
284,0.82,37.527,11.055,32.131,27.514,5.112,7.289,8.725
285,0.81,37.648,11.067,32.121,27.521,5.071,7.451,9.091
286,0.81,37.793,11.001,32.14,27.524,5.233,7.412,9.136
287,0.82,37.862,11.016,32.13,27.517,5.153,7.249,9.258
288,0.836,37.536,10.996,32.13,27.517,5.193,7.288,9.422
289,0.833,37.677,11.008,32.14,27.521,5.153,7.288,9.464
290,0.852,37.793,11.07,32.13,27.517,5.193,7.329,9.587
291,0.827,37.823,11.032,32.121,27.507,5.072,7.207,9.547
292,0.833,37.632,11.047,32.14,27.524,5.233,7.369,9.791
293,0.839,37.774,11.067,32.13,27.521,5.153,7.289,9.59
294,0.846,37.881,11.032,32.178,27.51,5.031,7.207,9.588
295,0.846,37.959,11.012,32.15,27.521,5.151,7.328,9.669
296,0.843,37.547,11.055,32.131,27.51,5.112,7.289,9.548
297,0.839,37.696,11.098,32.121,27.524,5.152,7.329,9.628
298,0.833,37.803,11.052,32.13,27.521,5.153,7.289,9.588
299,0.856,37.891,10.997,32.169,27.521,5.193,7.329,9.588
300,0.827,37.661,10.977,32.131,27.503,4.909,7.167,9.425
301,0.817,37.784,11.074,32.14,27.517,5.109,7.328,9.668
302,0.816,37.919,10.981,32.15,27.528,5.193,7.289,9.507
303,0.826,37.873,10.996,32.102,27.517,5.072,7.207,9.384
304,0.81,37.728,11.078,32.14,27.521,5.193,7.287,9.382
305,0.813,37.842,11.067,32.13,27.514,5.112,7.166,9.342
306,0.816,37.958,11.005,32.14,27.521,5.193,7.287,9.423
307,0.81,37.566,10.988,32.102,27.517,5.072,7.288,9.342
308,0.82,37.677,11.031,32.149,27.531,5.233,7.451,9.382
309,0.83,37.803,11.047,32.131,27.514,5.072,7.371,9.261
310,0.83,37.843,11.043,32.111,27.514,5.152,7.411,9.259
311,0.846,37.632,11.036,32.14,27.521,5.153,7.533,9.259
312,0.849,37.726,11.051,32.13,27.514,5.031,7.494,9.137
313,0.853,37.852,11.083,32.15,27.517,5.07,7.534,9.136
314,0.843,37.949,11.048,32.179,27.514,5.111,7.616,9.055
315,0.862,37.576,11.02,32.16,27.531,5.193,7.576,8.973
316,0.856,37.668,11.055,32.112,27.514,5.031,7.454,8.85
317,0.83,37.774,11.067,32.13,27.517,5.111,7.656,9.133
318,0.839,37.862,11.051,32.13,27.524,5.152,7.658,8.974
319,0.839,37.479,10.985,32.13,27.514,5.071,7.617,8.85
320,0.826,37.657,11.047,32.14,27.521,5.193,7.657,8.889
321,0.82,37.755,11.079,32.121,27.517,5.153,7.576,8.849
322,0.83,37.833,10.981,32.121,27.521,5.153,7.616,8.889
323,0.817,37.642,11.012,32.102,27.514,5.112,7.617,8.849
324,0.82,37.812,11.027,32.13,27.524,5.234,7.698,8.971
325,0.839,37.891,11.102,32.14,27.528,5.072,7.618,8.809
326,0.839,37.93,11.001,32.121,27.514,5.111,7.495,8.848
327,0.82,37.585,11.0,32.149,27.521,5.152,7.575,8.808
328,0.836,37.716,10.996,32.121,27.51,5.071,7.494,8.767
329,0.836,37.803,11.016,32.121,27.524,5.111,7.494,8.807
330,0.839,37.948,11.09,32.121,27.517,5.112,7.453,8.767
331,0.865,37.672,11.059,32.159,27.524,5.193,7.534,8.767
332,0.853,37.774,11.016,32.131,27.507,5.072,7.412,8.604
333,0.846,37.842,11.07,32.102,27.524,5.03,7.533,8.765
334,0.862,37.613,11.009,32.14,27.521,5.111,7.494,8.685
335,0.862,37.639,11.039,32.102,27.514,5.071,7.412,8.603
336,0.859,37.784,11.0,32.13,27.517,5.111,7.493,8.684
337,0.84,37.871,11.047,32.102,27.517,5.071,7.412,8.522
338,0.852,37.728,11.106,32.101,27.524,5.111,7.411,8.601
339,0.843,37.804,11.028,32.082,27.507,5.071,7.411,8.602
340,0.83,37.967,11.039,32.111,27.528,5.152,7.696,8.724
341,0.83,38.055,11.0,32.121,27.521,5.234,7.577,8.522
342,0.817,37.529,11.035,32.111,27.521,5.032,7.494,8.52
343,0.836,37.706,10.996,32.121,27.521,5.07,7.656,8.479
344,0.833,37.803,11.012,32.121,27.51,5.07,7.536,8.52
345,0.826,37.9,11.063,32.121,27.524,5.111,7.697,8.479
346,0.817,37.614,11.051,32.092,27.517,5.152,7.699,8.438
347,0.839,37.793,11.036,32.13,27.535,5.315,7.78,8.479
348,0.82,37.9,10.942,32.121,27.518,5.032,7.7,8.276
349,0.83,37.94,10.992,32.082,27.514,4.989,7.74,8.396
350,0.856,37.7,11.047,32.111,27.521,5.151,7.821,8.397
351,0.853,37.822,10.977,32.121,27.517,5.031,7.741,8.275
352,0.859,37.958,10.988,32.111,27.517,5.192,7.862,8.233
353,0.869,37.988,11.066,32.092,27.514,5.072,7.782,8.192
354,0.872,37.653,11.063,32.092,27.517,5.07,7.862,8.151
355,0.85,37.755,11.012,32.053,27.51,5.07,7.782,8.11
356,0.866,37.89,11.035,32.11,27.531,5.193,7.984,8.232
357,0.872,38.208,11.036,32.111,27.517,5.112,7.783,8.111
358,0.853,37.607,11.078,32.082,27.517,5.071,7.944,8.109
359,0.849,37.745,11.087,32.12,27.524,5.152,7.986,8.191
360,0.833,37.842,11.044,32.092,27.517,5.031,7.946,8.029
361,0.823,37.738,11.012,32.092,27.528,5.151,7.945,8.068
362,0.82,37.784,11.043,32.082,27.521,5.031,7.823,8.028
363,0.843,37.967,11.059,32.12,27.524,5.192,7.863,7.987
364,0.83,38.027,11.001,32.092,27.514,5.031,7.782,7.946
365,0.83,37.557,11.039,32.082,27.51,5.151,7.944,8.067
366,0.833,37.677,11.067,32.092,27.521,5.153,7.864,8.028
367,0.843,37.793,11.024,32.082,27.514,4.99,7.782,7.946
368,0.853,37.881,10.992,32.092,27.517,5.07,7.903,7.986
369,0.843,37.546,11.027,32.101,27.514,5.07,7.742,8.027
370,0.862,37.725,11.067,32.092,27.517,5.111,7.862,7.987
371,0.849,37.813,10.993,32.053,27.514,4.989,7.7,8.027
372,0.846,37.872,11.031,32.091,27.524,5.151,7.902,8.231
373,0.859,37.68,11.051,32.101,27.524,5.193,7.782,8.111
374,0.859,37.793,11.047,32.063,27.507,5.031,7.7,8.069
375,0.862,37.948,11.001,32.091,27.521,5.07,7.861,8.231
376,0.872,37.988,11.016,32.073,27.517,5.03,7.822,8.151
377,0.859,37.634,11.043,32.072,27.517,5.07,7.944,8.273
378,0.836,37.735,11.028,32.091,27.521,5.111,7.864,8.314
379,0.856,37.9,11.094,32.12,27.528,5.193,7.985,8.477
380,0.849,37.949,11.036,32.111,27.517,5.031,7.864,8.276
381,0.833,37.71,11.0,32.054,27.514,5.07,7.944,8.518
382,0.839,37.861,11.074,32.091,27.528,5.193,7.986,8.479
383,0.82,37.958,10.981,32.073,27.51,4.99,7.864,8.52
384,0.83,37.979,10.988,32.091,27.517,5.151,8.026,8.642
385,0.836,37.605,11.043,32.082,27.521,5.193,7.946,8.603
386,0.856,37.764,11.075,32.082,27.521,5.112,8.026,8.602
387,0.859,37.833,11.063,32.063,27.507,4.989,7.824,8.48
388,0.849,37.968,10.985,32.053,27.524,5.11,7.985,8.682
389,0.846,38.084,11.055,32.082,27.521,5.112,8.068,8.603
390,0.846,38.2,11.001,32.063,27.514,5.071,7.865,8.521
391,0.856,38.288,11.031,32.082,27.521,5.07,8.026,8.601
392,0.846,37.339,11.02,32.092,27.517,5.152,7.824,8.48
393,0.866,37.387,11.02,32.073,27.521,5.112,7.944,8.52
394,0.866,37.493,11.039,32.044,27.507,5.112,7.864,8.52
395,0.876,37.629,11.004,32.082,27.528,5.234,8.066,8.561
396,0.869,37.582,11.023,32.072,27.517,5.153,7.865,8.439
397,0.853,37.677,11.02,32.034,27.51,5.071,7.782,8.357
398,0.859,37.841,11.043,32.062,27.521,5.111,7.822,8.478
399,0.866,37.901,11.086,32.053,27.514,5.112,7.781,8.357
400,0.849,37.566,10.985,32.072,27.517,5.112,7.822,8.397
401,0.846,37.648,11.004,32.053,27.517,5.071,7.781,8.275
402,0.853,37.832,11.082,32.072,27.535,5.193,7.781,8.396
403,0.849,37.862,10.997,32.053,27.511,4.99,7.578,8.153
404,0.84,37.594,10.973,32.034,27.517,5.11,7.698,8.395
405,0.846,37.764,11.035,32.082,27.521,5.193,7.658,8.397
406,0.846,37.823,11.098,32.044,27.517,5.072,7.576,8.194
407,0.846,37.9,11.067,32.062,27.517,5.111,7.575,8.314
408,0.846,37.498,11.024,32.034,27.514,5.112,7.616,8.193
409,0.859,37.696,11.008,32.072,27.517,5.071,7.535,8.192
410,0.853,37.765,10.996,32.024,27.507,4.948,7.453,8.151
411,0.856,37.766,11.012,32.043,27.517,5.15,7.615,8.354
412,0.869,37.574,11.012,32.072,27.524,5.153,7.454,8.193
413,0.872,37.677,11.02,32.044,27.517,5.031,7.371,8.11
414,0.889,37.784,11.07,32.062,27.521,5.151,7.452,8.109
415,0.882,37.823,11.048,32.043,27.521,5.112,7.371,7.906
416,0.879,37.805,11.02,32.043,27.514,5.112,7.37,7.985
417,0.856,37.91,11.012,32.034,27.51,5.03,7.289,8.027
418,0.856,38.045,11.02,32.072,27.524,5.233,7.451,8.109
419,0.853,37.385,11.094,32.034,27.517,5.113,7.168,7.906
420,0.846,37.426,11.005,32.024,27.51,5.03,7.206,7.863
421,0.849,37.57,11.004,32.043,27.528,5.151,7.287,7.944
422,0.84,37.639,11.082,32.043,27.514,5.071,7.125,7.823
423,0.846,37.601,11.009,32.043,27.521,5.152,7.165,7.863
424,0.82,37.716,11.016,32.053,27.517,5.153,7.124,7.863
425,0.833,37.871,11.047,32.072,27.528,5.234,7.205,7.863
426,0.836,37.949,11.075,32.034,27.517,5.072,7.043,7.741
427,0.83,37.461,11.083,32.024,27.51,5.111,7.082,7.903
428,0.836,37.638,10.997,32.043,27.524,5.152,7.083,7.985
429,0.836,37.745,11.008,32.034,27.517,5.112,6.92,7.864
430,0.843,37.804,10.969,32.043,27.517,5.193,6.959,8.026
431,0.843,37.44,11.015,32.043,27.521,5.112,6.96,7.946
432,0.869,37.638,11.031,32.072,27.521,5.193,7.041,8.026
433,0.856,37.726,11.016,32.034,27.5,5.031,6.879,7.987
434,0.843,37.736,11.086,32.024,27.517,5.192,7.04,8.149
435,0.853,37.487,11.02,32.053,27.524,5.234,6.96,8.15
436,0.853,37.609,11.051,32.024,27.514,5.072,6.838,8.069
437,0.849,37.754,11.012,32.043,27.524,5.193,6.918,8.15
438,0.849,37.766,11.031,32.024,27.514,5.153,6.959,8.15
439,0.862,37.507,11.071,32.043,27.521,5.153,6.919,8.11
440,0.836,37.581,10.993,31.995,27.507,5.153,6.919,8.15
441,0.836,37.716,11.004,32.052,27.531,5.315,7.0,8.273
442,0.82,37.746,11.051,32.034,27.517,5.236,6.919,8.111
443,0.81,37.535,11.028,32.024,27.507,5.113,6.878,8.109
444,0.826,37.696,10.985,32.043,27.517,5.234,6.918,8.191
445,0.82,37.775,11.004,32.024,27.514,5.153,6.878,8.11
446,0.82,37.468,11.086,32.043,27.517,5.153,7.0,8.069
447,0.807,37.504,11.075,32.024,27.524,5.193,6.96,8.028
448,0.833,37.677,11.091,32.081,27.535,5.356,7.122,8.109
449,0.833,37.765,11.04,32.044,27.518,5.155,7.002,7.906
450,0.826,37.382,10.989,32.024,27.51,5.275,7.082,8.107
451,0.843,37.522,11.082,32.053,27.528,5.316,7.164,8.028
452,0.836,37.648,11.024,32.034,27.514,5.236,7.084,7.946
453,0.836,37.745,11.039,32.053,27.514,5.275,7.164,7.986
454,0.826,37.516,11.067,32.015,27.51,5.235,7.165,7.946
455,0.849,37.667,11.036,32.043,27.521,5.275,7.287,7.864
456,0.833,37.765,10.996,32.034,27.51,5.235,7.247,7.822
457,0.823,37.861,10.992,32.053,27.524,5.357,7.369,7.985
458,0.833,37.45,11.047,32.043,27.521,5.317,7.248,7.864
459,0.817,37.571,11.032,32.005,27.507,5.276,7.206,7.7
460,0.816,37.725,11.047,32.043,27.521,5.316,7.328,7.821
461,0.816,37.765,11.004,32.024,27.514,5.317,7.289,7.741
462,0.813,37.507,11.055,32.024,27.514,5.358,7.288,7.781
463,0.797,37.629,11.008,32.005,27.517,5.399,7.329,7.781
464,0.82,37.793,11.02,32.052,27.528,5.562,7.37,7.862
465,0.81,37.823,10.996,32.043,27.517,5.401,7.37,7.578
466,0.794,37.478,11.02,32.005,27.514,5.44,7.33,7.698
467,0.813,37.609,11.102,32.043,27.521,5.44,7.451,7.74
468,0.807,37.716,11.04,32.024,27.517,5.399,7.33,7.618
469,0.807,37.928,10.961,32.043,27.514,5.562,7.451,7.739
470,0.81,37.422,11.015,32.015,27.51,5.482,7.412,7.699
471,0.829,37.57,11.078,32.062,27.524,5.562,7.411,7.699
472,0.839,37.668,11.048,32.015,27.51,5.441,7.371,7.536
473,0.833,37.477,11.004,32.014,27.517,5.603,7.614,7.779
474,0.846,37.533,11.063,32.024,27.517,5.564,7.576,7.7
475,0.833,37.648,11.032,32.005,27.514,5.563,7.575,7.74
476,0.83,37.774,10.914,32.024,27.528,5.604,7.657,7.781
477,0.826,37.478,11.011,32.005,27.514,5.564,7.658,7.903
478,0.83,37.619,10.996,32.024,27.514,5.563,7.78,8.026
479,0.82,37.697,11.051,31.995,27.507,5.482,7.7,8.068
480,0.803,37.784,11.032,32.014,27.521,5.725,7.861,8.312
481,0.803,37.478,11.043,32.024,27.528,5.687,7.944,8.356
482,0.803,37.6,11.082,31.995,27.514,5.524,7.823,8.356
483,0.81,37.726,11.052,32.014,27.521,5.644,7.903,8.519
484,0.807,37.794,11.043,32.024,27.517,5.686,7.823,8.52
485,0.797,37.354,10.981,32.024,27.517,5.687,7.944,8.683
486,0.79,37.445,11.027,32.014,27.514,5.605,7.864,8.644
487,0.81,37.638,11.082,32.033,27.528,5.808,8.026,8.684
488,0.81,37.678,11.032,32.014,27.517,5.647,7.783,8.562
489,0.797,37.563,11.0,32.081,27.514,5.686,7.862,8.764
490,0.826,37.735,11.004,32.034,27.517,5.849,7.863,8.767
491,0.82,37.804,11.051,32.005,27.517,5.566,7.782,8.685
492,0.826,37.871,11.028,32.033,27.517,5.726,7.862,8.725
493,0.826,37.584,11.008,32.014,27.517,5.768,7.904,8.766
494,0.846,37.745,11.074,32.014,27.517,5.728,7.945,8.767
495,0.823,37.833,11.036,31.985,27.503,5.565,7.783,8.726
496,0.826,37.968,11.043,32.062,27.521,5.807,8.025,8.888
497,0.817,37.518,11.0,32.015,27.521,5.728,7.865,8.849
498,0.813,37.638,11.039,32.005,27.517,5.646,7.944,8.767
499,0.81,37.726,11.071,32.014,27.517,5.808,8.108,8.889
500,0.797,37.535,11.071,32.005,27.514,5.688,8.109,8.768
501,0.81,37.6,11.032,32.014,27.514,5.768,8.15,8.848
502,0.797,37.668,11.047,31.966,27.507,5.647,8.15,8.767
503,0.79,37.803,11.047,32.014,27.524,5.849,8.313,8.97
504,0.793,37.478,11.004,32.014,27.524,5.769,8.274,8.769
505,0.793,37.552,11.0,31.985,27.517,5.606,8.314,8.726
506,0.8,37.677,11.066,32.024,27.521,5.767,8.396,8.807
507,0.803,37.755,11.067,31.995,27.521,5.687,8.356,8.726
508,0.8,37.43,11.067,31.995,27.517,5.768,8.437,8.726
509,0.787,37.542,10.907,32.014,27.514,5.768,8.397,8.766
510,0.816,37.706,11.022,32.053,27.535,5.809,8.641,8.645
511,0.82,37.755,11.043,32.015,27.518,5.647,8.44,8.603
512,0.817,37.468,11.04,31.985,27.51,5.686,8.479,8.684
513,0.823,37.638,11.016,32.024,27.521,5.727,8.723,8.603
514,0.826,37.745,11.028,32.005,27.51,5.687,8.685,8.44
515,0.817,37.794,11.059,32.005,27.517,5.727,8.766,8.56
516,0.81,37.449,11.02,32.014,27.514,5.646,8.767,8.439
517,0.829,37.647,11.008,32.024,27.524,5.767,8.848,8.438
518,0.8,37.716,11.016,31.995,27.514,5.647,8.767,8.357
519,0.803,37.736,11.047,31.985,27.521,5.889,9.011,8.519
520,0.807,37.497,11.063,32.004,27.524,5.729,9.135,8.439
521,0.807,37.629,11.001,31.985,27.517,5.687,9.095,8.194
522,0.807,37.755,11.047,31.995,27.524,5.809,9.258,8.354
523,0.81,37.737,11.028,31.985,27.514,5.728,9.137,8.315
524,0.8,37.554,11.024,32.014,27.514,5.768,9.339,8.274
525,0.784,37.658,10.996,31.976,27.514,5.728,9.342,8.274
526,0.787,37.793,11.035,32.014,27.528,5.972,9.545,8.355
527,0.806,37.603,11.114,32.005,27.524,5.771,9.425,8.153
528,0.803,37.524,11.013,31.976,27.514,5.728,9.383,8.15
529,0.81,37.677,10.992,32.014,27.524,5.85,9.545,8.232
530,0.8,37.765,10.996,31.995,27.514,5.729,9.384,8.07
531,0.8,37.526,11.035,31.995,27.517,5.85,9.464,8.191
532,0.79,37.61,11.012,32.024,27.517,5.81,9.465,8.11
533,0.813,37.793,11.004,32.034,27.528,5.972,9.505,8.109
534,0.816,37.843,11.063,31.995,27.514,5.811,9.343,7.947
535,0.797,37.383,11.016,31.976,27.514,5.891,9.423,8.026
536,0.82,37.532,11.0,31.995,27.524,5.933,9.424,7.987
537,0.803,37.667,11.035,31.985,27.517,5.73,9.302,7.864
538,0.803,37.755,11.02,31.995,27.517,5.85,9.382,7.944
539,0.787,37.392,11.055,31.985,27.514,5.81,9.301,7.945
540,0.803,37.57,11.055,32.014,27.521,5.85,9.301,7.945
541,0.79,37.668,11.024,31.976,27.503,5.729,9.097,7.905
542,0.784,37.707,11.012,31.985,27.517,5.85,9.298,8.026
543,0.803,37.564,11.031,31.995,27.524,5.769,9.219,7.987
544,0.781,37.706,11.016,31.985,27.514,5.687,9.096,7.905
545,0.784,37.823,10.996,31.995,27.521,5.809,9.054,8.067
546,0.784,37.862,11.062,31.985,27.514,5.81,8.973,7.987
547,0.806,37.46,11.075,31.985,27.517,5.769,8.972,8.027
548,0.79,37.561,11.048,31.976,27.51,5.728,8.931,7.987
549,0.774,37.687,11.012,32.014,27.517,5.89,9.012,8.23
550,0.803,37.726,10.996,31.995,27.514,5.811,8.85,8.07
551,0.794,37.497,11.051,31.985,27.51,5.728,8.808,8.15
552,0.79,37.657,11.02,31.995,27.514,5.85,8.767,8.191
553,0.803,37.755,11.0,31.995,27.51,5.729,8.685,8.151
554,0.807,37.602,11.027,31.985,27.517,5.809,8.644,8.11
555,0.826,37.438,11.0,31.995,27.514,5.728,8.562,8.15
556,0.836,37.628,11.039,32.014,27.514,5.727,8.602,8.191
557,0.82,37.697,10.989,31.966,27.507,5.646,8.399,8.029
558,0.794,37.41,11.012,31.966,27.521,5.727,8.519,8.19
559,0.81,37.494,11.035,32.004,27.517,5.85,8.561,8.273
560,0.797,37.6,11.028,31.976,27.51,5.648,8.399,8.152
561,0.803,37.716,11.004,31.985,27.514,5.727,8.478,8.354
562,0.794,37.449,11.059,31.976,27.507,5.687,8.479,8.275
563,0.797,37.609,11.012,32.004,27.514,5.768,8.479,8.355
564,0.784,37.707,10.985,31.957,27.503,5.606,8.316,8.356
565,0.78,37.775,11.023,31.966,27.517,5.848,8.518,8.478
566,0.78,37.9,11.074,31.985,27.521,5.729,8.439,8.398
567,0.793,38.026,11.044,31.966,27.5,5.565,8.275,8.316
568,0.8,38.133,11.012,31.985,27.514,5.726,8.355,8.437
569,0.784,38.22,11.012,31.966,27.514,5.727,8.275,8.357
570,0.803,37.204,11.004,31.985,27.514,5.727,8.274,8.315
571,0.797,37.309,11.063,31.966,27.507,5.646,8.314,8.356
572,0.823,37.473,11.044,32.004,27.528,5.849,8.518,8.397
573,0.813,37.533,11.036,31.995,27.51,5.648,8.236,8.275
574,0.81,37.476,11.024,31.976,27.503,5.686,8.273,8.233
575,0.816,37.648,11.031,31.995,27.514,5.687,8.355,8.314
576,0.826,37.755,10.996,31.957,27.517,5.564,8.275,8.152
577,0.83,37.756,11.004,31.966,27.507,5.604,8.314,8.395
578,0.804,37.42,11.031,31.985,27.517,5.686,8.315,8.356
579,0.823,37.58,11.047,32.014,27.531,5.727,8.396,8.478
580,0.813,37.677,10.985,31.976,27.514,5.565,8.275,8.316
581,0.8,37.678,10.976,31.976,27.51,5.645,8.436,8.559
582,0.79,37.448,11.093,31.976,27.517,5.686,8.519,8.602
583,0.78,37.58,11.001,31.966,27.517,5.605,8.398,8.521
584,0.793,37.677,11.023,31.995,27.517,5.645,8.641,8.683
585,0.777,37.314,11.031,31.976,27.514,5.564,8.603,8.684
586,0.784,37.368,11.059,31.995,27.521,5.604,8.724,8.725
587,0.793,37.464,11.047,31.966,27.507,5.604,8.685,8.726
588,0.79,37.58,10.997,31.995,27.531,5.767,8.969,8.807
589,0.8,37.399,11.031,31.985,27.521,5.647,8.809,8.686
590,0.816,37.522,10.989,31.985,27.51,5.564,8.767,8.644
591,0.823,37.648,11.027,31.995,27.514,5.563,8.889,8.725
592,0.82,37.726,11.043,31.976,27.51,5.563,8.809,8.644
593,0.846,37.295,10.997,31.966,27.517,5.645,8.808,8.725
594,0.833,37.377,11.062,31.975,27.51,5.605,8.848,8.726
595,0.839,37.56,11.02,32.014,27.535,5.686,8.971,8.726
596,0.823,37.62,11.004,31.995,27.514,5.564,8.809,8.522
597,0.807,37.457,10.977,31.976,27.51,5.563,8.848,8.601
598,0.807,37.619,11.027,31.995,27.524,5.645,8.93,8.684
599,0.823,37.735,11.067,31.966,27.51,5.564,8.809,8.44
600,0.81,37.775,10.985,31.995,27.521,5.604,8.848,8.56
601,0.8,37.344,11.012,31.985,27.514,5.564,8.849,8.399
602,0.816,37.512,11.055,32.004,27.524,5.604,8.808,8.519
603,0.813,37.61,11.004,31.976,27.507,5.482,8.686,8.276
604,0.794,37.639,11.02,31.985,27.524,5.603,8.847,8.396
605,0.797,37.4,11.008,32.004,27.528,5.604,8.889,8.438
606,0.794,37.522,11.066,31.985,27.507,5.482,8.727,8.275
607,0.81,37.639,11.036,31.995,27.521,5.603,8.929,8.314
608,0.8,37.908,10.973,32.004,27.514,5.645,8.85,8.274
609,0.803,37.403,11.004,31.995,27.514,5.605,8.849,8.233
610,0.8,37.503,10.992,31.976,27.507,5.442,8.767,8.233
611,0.8,37.6,11.031,31.985,27.521,5.562,9.051,8.436
612,0.813,37.39,11.008,31.995,27.517,5.645,8.973,8.275
613,0.807,37.397,11.027,31.985,27.514,5.564,8.891,8.274
614,0.813,37.541,11.028,31.995,27.514,5.604,9.012,8.274
615,0.82,37.648,10.961,31.985,27.514,5.523,9.054,8.071
616,0.826,37.285,11.007,31.995,27.517,5.522,9.257,8.15
617,0.807,37.377,10.985,31.976,27.517,5.482,9.219,8.069
618,0.833,37.56,11.082,32.033,27.528,5.644,9.503,8.191
619,0.826,37.62,11.098,32.005,27.51,5.523,9.384,8.07
620,0.807,37.256,11.044,32.005,27.517,5.482,9.464,8.069
621,0.82,37.406,10.997,31.995,27.528,5.562,9.587,8.109
622,0.817,37.532,11.051,31.976,27.514,5.441,9.588,7.987
623,0.813,37.591,11.008,32.023,27.514,5.521,9.751,8.027
624,0.803,37.236,10.996,32.005,27.517,5.522,9.59,7.946
625,0.813,37.425,11.066,32.014,27.524,5.522,9.669,7.986
626,0.81,37.494,11.032,31.976,27.51,5.4,9.548,7.864
627,0.8,37.542,11.016,31.976,27.517,5.521,9.71,8.026
628,0.807,37.198,10.969,31.985,27.521,5.603,9.752,7.946
629,0.8,37.338,10.953,32.004,27.514,5.442,9.59,7.783
630,0.807,37.454,11.003,31.995,27.524,5.562,9.669,7.903
631,0.813,37.484,10.981,31.995,27.514,5.523,9.67,7.863
632,0.807,37.322,10.996,31.995,27.517,5.482,9.67,7.904
633,0.8,37.406,11.051,31.957,27.51,5.4,9.711,7.863
634,0.82,37.541,11.047,32.004,27.528,5.643,9.752,7.944
635,0.813,37.581,10.954,31.995,27.517,5.523,9.671,7.783
636,0.813,37.486,10.968,31.976,27.517,5.36,9.629,7.74
637,0.816,37.657,11.008,31.985,27.517,5.521,9.71,7.862
638,0.807,37.717,11.066,31.985,27.514,5.482,9.67,7.741
639,0.79,37.238,11.083,32.004,27.517,5.44,9.67,7.821
640,0.787,37.137,11.071,31.985,27.524,5.399,9.67,7.781
641,0.819,37.328,11.005,32.024,27.528,5.48,9.711,7.781
642,0.813,37.387,11.07,31.976,27.51,5.359,9.508,7.74
643,0.794,37.234,11.02,32.023,27.514,5.439,9.587,7.821
644,0.803,37.377,10.992,32.024,27.517,5.44,9.629,7.781
645,0.794,37.493,11.019,31.976,27.514,5.44,9.426,7.74
646,0.8,37.581,11.043,32.004,27.51,5.44,9.505,7.821
647,0.81,37.188,11.024,31.995,27.514,5.399,9.546,7.741
648,0.826,37.357,10.985,32.004,27.517,5.44,9.466,7.781
649,0.823,37.445,10.976,31.976,27.503,5.318,9.302,7.7
650,0.813,37.513,11.039,31.995,27.517,5.561,9.504,7.983
651,0.813,37.14,11.004,32.004,27.514,5.482,9.343,7.742
652,0.823,37.27,11.008,31.995,27.514,5.359,9.26,7.699
653,0.839,37.406,11.02,31.985,27.514,5.439,9.3,7.78
654,0.843,37.455,11.051,31.976,27.514,5.359,9.097,7.659
655,0.833,37.12,10.887,32.014,27.517,5.399,9.258,7.78
656,0.83,37.251,10.979,31.976,27.514,5.399,9.259,7.74
657,0.836,37.406,11.031,32.033,27.528,5.521,9.381,7.821
658,0.836,37.426,11.039,32.014,27.517,5.482,9.22,7.741
659,0.826,37.216,11.075,31.976,27.514,5.359,9.3,7.74
660,0.83,37.377,11.024,31.985,27.521,5.48,9.301,7.862
661,0.817,37.484,11.012,31.995,27.514,5.4,9.301,7.7
662,0.813,37.504,11.063,31.985,27.517,5.44,9.341,7.821
663,0.787,37.101,11.016,32.033,27.517,5.399,9.382,7.741
664,0.787,37.27,11.004,32.024,27.528,5.521,9.464,7.821
665,0.774,37.358,11.043,31.986,27.517,5.441,9.343,7.659
666,0.777,37.282,11.067,31.985,27.507,5.359,9.423,7.739
667,0.8,37.281,11.024,32.004,27.521,5.48,9.464,7.821
668,0.807,37.406,10.946,31.995,27.514,5.481,9.302,7.781
669,0.803,37.522,10.992,31.995,27.521,5.44,9.382,7.822
670,0.8,37.054,11.004,31.995,27.517,5.359,9.342,7.822
671,0.813,37.174,11.0,32.014,27.517,5.439,9.26,7.903
672,0.826,37.271,10.977,31.985,27.507,5.237,9.137,7.863
673,0.823,37.348,11.008,31.985,27.521,5.397,9.299,8.107
674,0.839,37.071,11.051,31.995,27.517,5.44,9.26,8.028
675,0.836,37.222,11.012,32.004,27.51,5.359,9.097,7.905
676,0.843,37.31,11.031,31.995,27.514,5.399,9.176,7.985
677,0.833,37.406,11.012,31.995,27.514,5.48,9.015,7.946
678,0.843,37.139,11.043,32.004,27.517,5.44,9.054,7.945
679,0.823,37.242,11.051,31.966,27.514,5.399,8.973,7.986
680,0.81,37.415,11.055,32.023,27.524,5.562,9.094,8.108
681,0.823,37.484,11.004,32.005,27.521,5.482,8.811,7.947
682,0.8,37.063,11.027,31.976,27.503,5.359,8.808,7.945
683,0.8,37.222,11.028,31.995,27.517,5.48,8.848,8.108
684,0.794,37.357,10.981,31.976,27.507,5.318,8.767,8.028
685,0.803,37.397,11.058,32.004,27.514,5.398,8.685,8.231
686,0.79,37.024,11.036,32.005,27.51,5.358,8.684,8.233
687,0.813,37.24,11.02,32.024,27.524,5.439,8.725,8.314
688,0.816,37.329,10.981,32.005,27.507,5.318,8.563,8.234
689,0.8,37.311,10.953,31.985,27.51,5.317,8.602,8.355
690,0.813,37.138,11.027,32.004,27.521,5.48,8.602,8.478
691,0.807,37.261,10.95,31.985,27.514,5.359,8.48,8.438
692,0.81,37.367,11.007,31.995,27.521,5.439,8.479,8.56
693,0.813,37.215,11.035,32.004,27.514,5.44,8.479,8.602
694,0.833,37.06,11.043,32.014,27.517,5.481,8.601,8.48
695,0.826,37.154,11.024,31.966,27.507,5.318,8.602,8.438
696,0.82,37.251,11.008,31.995,27.524,5.52,8.765,8.601
697,0.83,37.032,11.051,32.024,27.514,5.482,8.726,8.48
698,0.826,37.106,11.067,31.976,27.507,5.359,8.603,8.438
699,0.81,37.232,11.067,32.004,27.521,5.521,8.724,8.519
700,0.807,37.329,11.001,31.985,27.51,5.4,8.685,8.358
701,0.816,37.013,11.016,31.985,27.517,5.521,8.644,8.437
702,0.8,37.096,11.012,32.004,27.514,5.482,8.684,8.397
703,0.82,37.299,11.02,32.043,27.528,5.562,8.766,8.356
704,0.813,37.377,11.016,31.995,27.51,5.36,8.604,8.275
705,0.794,37.119,11.035,31.985,27.51,5.48,8.724,8.355
706,0.8,37.308,11.051,32.014,27.517,5.481,8.726,8.356
707,0.8,37.387,10.954,32.005,27.514,5.44,8.603,8.193
708,0.81,37.474,11.007,32.005,27.514,5.481,8.684,8.273
709,0.81,36.871,10.992,31.985,27.51,5.481,8.603,8.233
710,0.842,37.057,11.035,31.995,27.517,5.4,8.602,8.192
711,0.833,37.154,11.02,31.995,27.5,5.318,8.602,8.151
712,0.833,37.184,11.0,32.004,27.51,5.561,8.724,8.395
713,0.836,36.945,11.047,31.995,27.5,5.523,8.603,8.153
714,0.839,37.057,11.012,31.976,27.503,5.441,8.521,8.028
715,0.849,37.202,11.008,32.004,27.517,5.521,8.601,8.231
716,0.846,37.233,10.996,31.995,27.51,5.482,8.48,8.07
717,0.849,37.022,11.027,31.985,27.514,5.522,8.56,8.109
718,0.823,37.135,11.074,31.966,27.517,5.563,8.521,8.069
719,0.833,37.261,11.032,32.023,27.521,5.645,8.683,8.15
720,0.82,37.329,11.004,31.995,27.517,5.564,8.522,7.947
721,0.807,37.004,11.047,31.966,27.51,5.441,8.561,7.986
722,0.823,37.154,11.004,31.995,27.51,5.643,8.602,8.068
723,0.807,37.27,11.027,31.976,27.503,5.483,8.602,7.946
724,0.8,36.965,11.008,31.995,27.517,5.562,8.684,7.986
725,0.794,37.0,11.059,31.985,27.507,5.604,8.684,7.946
726,0.806,37.192,10.993,32.024,27.514,5.686,8.847,7.945
727,0.816,37.28,11.012,32.072,27.517,5.646,8.727,7.783
728,0.803,36.831,10.981,31.977,27.514,5.645,8.888,7.944
729,0.826,36.979,11.008,32.004,27.517,5.767,9.012,7.864
730,0.833,37.096,11.059,31.976,27.51,5.728,8.85,7.782
731,0.83,37.193,11.016,32.014,27.517,5.768,8.971,7.822
732,0.83,37.041,11.031,31.976,27.51,5.768,8.972,7.781
733,0.852,37.202,11.078,32.004,27.517,5.809,8.972,7.74
734,0.833,37.3,10.903,31.985,27.514,5.728,8.931,7.659
735,0.83,37.358,11.011,31.995,27.524,5.972,9.215,7.942
736,0.833,36.879,11.043,32.004,27.514,5.893,9.178,7.783
737,0.833,36.97,11.063,31.985,27.514,5.851,9.137,7.781
738,0.849,37.106,11.059,31.995,27.514,5.932,9.258,7.903
739,0.83,37.174,10.973,31.985,27.521,5.892,9.178,7.904
740,0.817,37.012,10.988,31.995,27.521,5.973,9.34,7.985
741,0.81,37.125,11.008,31.966,27.514,5.974,9.342,7.905
742,0.82,37.27,10.996,32.014,27.524,6.137,9.545,8.107
743,0.813,37.31,10.977,32.005,27.514,5.976,9.466,7.947
744,0.8,36.86,11.047,31.966,27.51,5.933,9.627,7.986
745,0.816,37.018,11.067,32.004,27.503,5.974,9.792,8.149
746,0.807,37.116,10.989,31.985,27.51,5.974,9.915,8.11
747,0.816,37.462,10.98,32.004,27.521,5.974,10.161,8.109
748,0.81,36.967,10.941,31.985,27.521,5.974,10.407,8.191
749,0.816,37.115,11.05,32.024,27.528,6.055,10.734,8.151
750,0.833,37.193,11.008,31.986,27.51,5.812,10.86,8.069
751,0.82,36.974,11.012,31.995,27.521,6.054,11.39,8.312
752,0.843,37.019,11.035,32.014,27.524,6.015,11.517,8.274
753,0.836,37.125,11.024,31.966,27.517,5.893,11.64,8.193
754,0.846,37.251,11.012,31.985,27.514,6.014,11.885,8.273
755,0.84,36.869,10.973,31.976,27.517,5.934,12.091,8.193
756,0.846,36.989,11.074,31.995,27.517,6.055,12.174,8.273
757,0.814,37.087,11.044,31.947,27.507,5.893,12.419,8.274
758,0.82,37.193,11.04,32.004,27.524,6.054,12.869,8.436
759,0.82,36.859,11.016,32.072,27.524,5.934,12.914,8.275
760,0.803,36.999,10.988,31.977,27.517,5.852,13.077,8.314
761,0.807,37.135,11.047,31.985,27.528,5.973,13.526,8.396
762,0.807,37.213,10.997,31.976,27.517,5.933,13.693,8.275
763,0.8,36.811,11.0,31.985,27.521,5.933,13.979,8.355
764,0.781,36.922,11.059,31.976,27.517,5.974,14.185,8.437
765,0.813,37.124,11.028,32.033,27.524,6.055,14.432,8.438
766,0.807,37.146,11.012,31.976,27.507,5.893,14.475,8.316
767,0.794,36.887,10.961,31.976,27.514,5.973,14.597,8.518
768,0.803,37.038,11.004,31.995,27.517,5.974,14.72,8.439
769,0.807,37.145,11.012,31.966,27.507,5.974,14.599,8.275
770,0.823,37.184,10.973,31.985,27.517,5.893,14.72,8.355
771,0.81,36.906,10.984,31.985,27.514,6.014,14.599,8.397
772,0.839,37.095,11.07,31.995,27.517,5.974,14.517,8.316
773,0.826,37.164,10.981,31.976,27.51,5.893,14.313,8.356
774,0.833,37.175,11.0,31.976,27.521,6.095,14.433,8.519
775,0.83,36.801,11.031,31.985,27.521,6.016,14.149,8.439
776,0.826,36.902,11.067,31.966,27.51,5.974,13.984,8.357
777,0.82,37.019,11.04,31.985,27.524,6.055,13.901,8.437
778,0.82,36.943,10.958,31.985,27.517,6.015,13.656,8.316
779,0.82,36.971,10.984,31.985,27.521,6.056,13.491,8.396
780,0.787,37.077,11.019,31.976,27.517,6.097,13.286,8.397
781,0.793,37.203,10.957,32.004,27.528,6.26,13.243,8.478
782,0.8,36.801,10.988,31.976,27.517,6.058,12.836,8.316
783,0.797,36.855,11.023,31.966,27.51,6.056,12.67,8.396
784,0.781,37.009,11.059,31.985,27.517,6.056,12.627,8.56
785,0.78,37.096,10.934,31.995,27.514,5.975,12.383,8.48
786,0.793,36.762,10.964,31.985,27.521,6.137,12.218,8.601
787,0.78,36.883,11.019,31.995,27.514,6.138,12.054,8.602
788,0.813,37.057,11.047,32.014,27.524,6.179,11.889,8.602
789,0.816,37.087,11.063,31.966,27.51,5.976,11.563,8.48
790,0.81,36.704,11.036,31.975,27.517,6.137,11.64,8.642
791,0.81,36.892,11.008,31.995,27.521,6.219,11.479,8.644
792,0.826,36.98,11.031,31.976,27.514,6.058,11.233,8.603
793,0.817,37.077,11.008,32.004,27.517,6.178,11.19,8.684
794,0.816,36.771,10.996,31.966,27.514,6.139,11.027,8.684
795,0.829,36.912,11.02,31.985,27.521,6.098,10.863,8.766
796,0.807,37.0,11.043,31.937,27.51,6.097,10.698,8.726
797,0.81,37.068,10.985,31.994,27.528,6.26,10.737,8.848
798,0.82,36.944,11.019,32.043,27.521,6.18,10.413,8.727
799,0.803,37.057,10.985,31.967,27.51,6.139,10.165,8.685
800,0.807,37.183,11.012,31.975,27.521,6.301,10.163,8.807
801,0.807,37.184,10.973,31.985,27.521,6.058,10.041,8.726
802,0.807,36.772,11.004,31.985,27.514,6.219,9.958,8.848
803,0.781,36.873,11.02,31.966,27.514,6.22,9.957,8.767
804,0.81,37.047,11.051,32.014,27.528,6.342,9.876,8.889
805,0.807,36.876,10.997,31.985,27.51,6.181,9.713,8.687
806,0.81,36.788,10.98,31.966,27.51,6.22,9.589,8.725
807,0.816,36.941,11.015,31.975,27.517,6.22,9.588,8.848
808,0.82,37.029,11.055,31.976,27.51,6.261,9.466,8.646
809,0.83,36.684,11.079,31.966,27.521,6.262,9.424,8.765
810,0.852,36.777,11.005,31.966,27.514,6.221,9.342,8.685
811,0.872,36.941,11.039,32.004,27.517,6.22,9.301,8.725
812,0.856,37.0,11.02,31.966,27.507,6.098,9.097,8.603
813,0.846,36.617,11.012,31.975,27.514,6.219,9.339,8.765
814,0.869,36.786,11.008,31.976,27.514,6.22,9.219,8.685
815,0.863,36.893,11.043,31.956,27.514,6.098,9.056,8.603
816,0.869,36.99,11.043,31.975,27.514,6.178,9.054,8.765
817,0.872,36.646,10.93,31.966,27.514,6.139,8.851,8.645
818,0.876,36.815,10.995,31.985,27.514,6.138,8.971,8.684
819,0.863,36.903,10.953,31.928,27.503,6.016,8.769,8.847
820,0.859,36.971,11.031,31.985,27.514,6.218,8.97,8.93
821,0.866,36.866,10.895,31.995,27.517,6.139,8.809,8.89
822,0.849,36.999,10.979,31.957,27.51,6.016,8.645,8.849
823,0.849,37.144,11.027,31.975,27.514,6.137,8.765,8.971
824,0.83,37.155,11.012,31.966,27.51,6.016,8.604,8.931
825,0.826,36.618,11.016,31.975,27.503,6.096,8.562,8.931
826,0.804,36.738,10.985,31.956,27.514,6.056,8.602,8.972
827,0.849,36.892,11.035,32.004,27.524,6.178,8.684,9.053
828,0.856,36.903,11.075,31.985,27.517,6.017,8.44,8.891
829,0.849,36.769,11.048,31.937,27.51,5.974,8.397,8.93
830,0.872,36.941,11.024,31.985,27.521,6.055,8.438,9.012
831,0.895,37.048,10.985,31.956,27.514,5.975,8.316,8.972
832,0.892,36.953,11.012,31.966,27.514,5.974,8.396,9.013
833,0.889,36.818,10.985,31.956,27.514,5.933,8.356,8.932
834,0.895,36.989,11.047,31.994,27.521,6.014,8.356,8.931
835,0.886,37.039,11.059,31.957,27.514,5.893,8.234,8.85
836,0.882,36.627,11.012,31.947,27.514,6.014,8.314,9.011
837,0.882,36.709,11.008,32.004,27.521,6.015,8.315,9.094
838,0.866,36.844,10.981,31.938,27.514,5.893,8.193,8.811
839,0.876,36.941,11.012,31.956,27.521,6.014,8.436,8.93
840,0.853,36.712,11.027,31.947,27.514,5.893,8.275,8.972
841,0.84,36.921,11.039,31.946,27.514,5.973,8.314,9.013
842,0.833,36.99,10.969,31.908,27.507,5.893,8.315,9.257
843,0.823,37.067,11.054,31.965,27.524,6.054,8.437,9.625
844,0.797,36.656,10.977,31.966,27.521,5.975,8.316,9.71
845,0.781,36.767,10.988,31.937,27.514,5.974,8.234,9.833
846,0.78,36.921,11.031,31.946,27.517,6.015,8.273,10.078
847,0.774,36.98,11.047,31.946,27.517,6.015,8.193,10.203
848,0.78,36.617,11.059,31.937,27.51,6.056,8.232,10.407
849,0.764,36.709,10.973,31.908,27.514,6.015,8.192,10.531
850,0.78,36.882,10.965,31.975,27.531,6.137,8.273,10.695
851,0.784,36.942,11.043,31.937,27.517,5.935,8.111,10.697
852,0.774,36.635,10.961,31.937,27.514,6.014,8.028,10.819
853,0.797,36.805,11.019,31.966,27.521,6.096,8.109,10.942
854,0.79,36.912,11.043,31.918,27.521,6.016,7.987,10.902
855,0.8,36.952,11.055,31.908,27.514,6.056,8.068,10.943
856,0.803,36.549,10.981,31.917,27.517,6.056,7.946,10.984
857,0.813,36.756,10.98,31.985,27.524,6.056,7.986,11.066
858,0.807,36.835,10.996,31.928,27.514,5.975,7.864,11.107
859,0.813,36.932,10.984,31.908,27.521,6.015,7.944,11.433
860,0.813,36.712,11.043,31.937,27.517,6.178,7.945,11.599
861,0.8,36.854,10.993,31.937,27.507,6.098,7.905,11.641
862,0.794,36.97,11.019,31.918,27.514,6.138,7.863,12.007
863,0.784,36.703,11.035,31.908,27.517,6.138,7.741,12.011
864,0.793,36.815,11.028,31.994,27.51,6.179,7.862,12.214
865,0.79,36.912,11.012,31.918,27.5,6.098,7.66,12.257
866,0.787,36.98,11.02,31.927,27.517,6.26,7.902,12.461
867,0.803,36.502,11.07,31.927,27.517,6.221,7.782,12.341
868,0.787,36.621,11.048,31.898,27.51,6.22,7.7,12.258
869,0.793,36.738,10.997,31.936,27.514,6.302,7.821,12.339
870,0.813,36.844,11.0,31.918,27.514,6.302,7.781,12.299
871,0.839,36.865,11.043,31.917,27.51,6.302,7.822,12.298
872,0.823,36.961,11.02,31.946,27.503,6.18,7.822,12.298
873,0.82,37.115,11.012,31.937,27.528,6.423,7.985,12.258
874,0.856,37.193,11.07,31.918,27.517,6.385,7.864,12.095
875,0.836,36.331,11.028,31.898,27.507,6.385,7.822,12.012
876,0.846,36.485,10.903,31.936,27.51,6.344,7.944,12.133
877,0.836,36.631,11.019,31.908,27.51,6.425,7.945,12.093
878,0.82,36.671,10.981,31.917,27.514,6.385,7.986,12.215
879,0.803,36.633,11.054,31.889,27.517,6.507,8.068,12.216
880,0.813,36.824,11.008,31.936,27.535,6.67,8.191,12.216
881,0.813,36.941,11.024,31.918,27.521,6.672,8.07,12.094
882,0.807,36.933,11.012,31.889,27.514,6.672,8.15,12.134
883,0.816,36.52,11.0,31.927,27.521,6.753,8.273,12.093
884,0.81,36.67,10.988,31.908,27.507,6.836,8.193,12.012
885,0.82,36.786,10.957,31.908,27.521,6.918,8.273,11.97
886,0.823,37.113,11.043,31.889,27.521,6.959,8.274,11.889
887,0.846,36.599,11.067,31.917,27.514,7.0,8.274,11.888
888,0.853,36.728,10.977,31.879,27.507,6.96,8.233,11.847
889,0.853,36.835,11.019,31.975,27.517,7.204,8.436,12.009
890,0.846,36.567,10.989,31.908,27.521,7.287,8.438,11.848
891,0.836,36.555,11.047,31.889,27.514,7.125,8.275,11.765
892,0.839,36.708,11.02,31.908,27.517,7.287,8.314,11.764
893,0.879,36.815,11.012,31.889,27.517,7.247,8.315,11.642
894,0.915,36.529,11.059,31.888,27.521,7.288,8.315,11.479
895,0.912,36.622,10.985,31.869,27.51,7.329,8.274,11.396
896,0.922,36.795,11.015,31.927,27.535,7.492,8.477,11.395
897,0.909,36.874,10.957,31.889,27.518,7.412,8.235,11.151
898,0.902,36.501,11.011,31.86,27.514,7.289,8.192,11.108
899,0.908,36.669,11.051,31.888,27.521,7.41,8.232,11.108
900,0.895,36.777,10.981,31.879,27.521,7.411,8.192,10.904
901,0.905,36.893,11.008,31.879,27.514,7.411,8.232,10.861
902,0.908,36.453,11.043,31.888,27.514,7.371,8.233,10.739
903,0.918,36.65,10.989,31.917,27.517,7.37,8.192,10.697
904,0.918,36.748,10.969,31.889,27.507,7.33,8.029,10.494
905,0.909,36.797,10.992,31.869,27.514,7.37,8.271,10.654
906,0.908,36.433,11.0,31.879,27.521,7.452,8.355,10.493
907,0.905,36.544,11.012,31.86,27.51,7.29,8.234,10.329
908,0.899,36.67,10.981,31.879,27.517,7.451,8.355,10.286
909,0.918,36.7,11.008,31.879,27.514,7.412,8.275,10.205
910,0.918,36.652,10.992,31.869,27.517,7.493,8.274,10.123
911,0.905,36.757,11.019,31.84,27.507,7.453,8.193,10.081
912,0.915,36.912,11.012,31.888,27.521,7.696,8.436,10.203
913,0.909,36.923,11.02,31.879,27.521,7.74,8.316,10.041
914,0.921,36.424,11.047,31.85,27.514,7.618,8.152,9.836
915,0.948,36.573,10.985,31.859,27.517,7.861,8.313,9.956
916,0.971,36.68,10.992,31.859,27.517,7.822,8.234,9.795
917,0.974,36.556,11.012,31.85,27.514,7.985,8.314,9.875
918,0.987,36.516,11.016,31.84,27.521,7.986,8.274,9.876
919,0.997,36.708,11.059,31.898,27.528,8.271,8.436,9.957
920,1.007,36.796,11.016,31.869,27.521,8.233,8.316,9.754
921,0.997,36.394,10.957,31.84,27.514,8.233,8.396,9.793
922,0.991,36.515,11.046,31.85,27.524,8.517,8.478,9.915
923,0.991,36.631,10.985,31.898,27.521,8.398,8.357,9.713
924,1.0,36.738,10.988,31.85,27.521,8.519,8.519,9.833
925,0.987,36.49,11.023,31.859,27.514,8.439,8.439,9.834
926,0.991,36.679,11.067,31.888,27.521,8.601,8.519,9.834
927,0.981,36.748,10.997,31.841,27.51,8.399,8.398,9.712
928,0.971,36.825,10.961,31.859,27.521,8.6,8.6,9.874
929,0.987,36.385,10.98,31.859,27.524,8.643,8.562,9.916
930,0.987,36.496,10.992,31.84,27.514,8.603,8.561,9.876
931,0.987,36.631,10.996,31.85,27.517,8.684,8.683,10.038
932,0.987,36.7,10.973,31.85,27.514,8.766,8.684,10.04
933,0.991,36.46,11.031,31.859,27.514,8.889,8.766,10.08
934,0.971,36.554,11.008,31.831,27.507,8.849,8.807,10.081
935,0.955,36.727,11.031,31.859,27.535,9.133,9.092,10.162
936,0.974,36.768,11.012,31.859,27.524,9.014,8.932,10.041
937,0.948,36.404,11.02,31.831,27.507,9.013,8.931,9.999
938,0.919,36.553,11.09,31.849,27.514,9.216,9.053,10.121
939,0.896,36.651,11.036,31.85,27.51,9.259,8.973,10.0
940,0.899,36.68,11.043,31.85,27.514,9.341,9.013,10.08
941,0.892,36.518,11.0,31.85,27.517,9.423,8.972,10.081
942,0.905,36.689,11.02,31.878,27.524,9.586,9.053,10.04
943,0.902,36.796,11.024,31.831,27.517,9.629,9.013,9.958
944,0.886,36.548,10.992,31.84,27.514,9.67,9.013,10.039
945,0.885,36.411,11.059,31.84,27.517,9.833,9.094,10.04
946,0.872,36.553,11.001,31.84,27.514,9.834,8.932,9.877
947,0.895,36.66,10.965,31.84,27.517,9.956,9.053,9.876
948,0.886,36.335,11.0,31.85,27.514,9.998,9.095,9.753
949,0.885,36.476,10.981,31.878,27.517,10.121,9.014,9.793
950,0.879,36.554,11.062,31.821,27.51,10.081,8.972,9.671
951,0.876,36.651,10.997,31.859,27.524,10.325,9.175,9.914
952,0.872,36.278,11.0,31.859,27.524,10.286,9.137,9.713
953,0.879,36.37,11.035,31.831,27.514,10.205,9.014,9.548
954,0.863,36.515,10.981,31.849,27.517,10.245,9.013,9.588
955,0.862,36.583,10.996,31.84,27.514,10.286,8.972,9.466
956,0.879,36.383,11.004,31.821,27.517,10.367,9.013,9.546
957,0.853,36.496,11.078,31.83,27.51,10.449,9.013,9.506
958,0.853,36.669,11.067,31.878,27.535,10.654,9.094,9.587
959,0.859,36.748,10.985,31.85,27.521,10.656,8.932,9.344
960,0.843,36.346,10.973,31.831,27.514,10.818,9.012,9.464
961,0.833,36.495,11.031,31.869,27.524,11.186,9.094,9.424
962,0.836,36.612,10.954,31.84,27.514,11.271,8.851,9.302
963,0.82,36.671,10.984,31.85,27.521,11.597,8.93,9.382
964,0.813,36.364,11.043,31.84,27.514,11.844,8.931,9.301
965,0.826,36.553,11.02,31.869,27.535,12.213,8.85,9.301
966,0.82,36.632,10.969,31.85,27.511,12.257,8.767,9.138
967,0.8,36.652,10.988,31.831,27.51,12.623,8.889,9.299
968,0.81,36.316,10.98,31.84,27.521,12.871,8.849,9.219
969,0.807,36.447,11.031,31.83,27.503,13.036,8.686,9.137
970,0.82,36.535,11.012,31.821,27.514,13.282,8.807,9.258
971,0.813,36.555,11.024,31.859,27.517,13.487,8.726,9.178
972,0.813,36.469,11.02,31.859,27.517,13.611,8.766,9.137
973,0.794,36.573,10.973,31.811,27.507,13.45,8.645,9.136
974,0.8,36.68,10.98,31.84,27.524,13.773,8.847,9.38
975,0.813,36.336,10.996,31.85,27.524,13.736,8.686,9.179
976,0.794,36.361,11.066,31.821,27.514,13.614,8.603,9.096
977,0.784,36.524,11.032,31.849,27.521,13.694,8.643,9.217
978,0.78,36.593,11.024,31.85,27.517,13.573,8.644,9.178
979,0.787,36.268,10.989,31.84,27.514,13.531,8.644,9.218
980,0.761,36.37,10.98,31.802,27.521,13.49,8.603,9.259
981,0.78,36.534,11.062,31.868,27.531,13.449,8.765,9.341
982,0.774,36.612,11.012,31.831,27.521,13.123,8.563,9.179
983,0.767,36.229,10.988,31.83,27.51,13.039,8.561,9.177
984,0.777,36.389,11.051,31.859,27.517,12.956,8.643,9.218
985,0.761,36.496,10.997,31.85,27.514,12.63,8.562,9.218
986,0.764,36.602,10.973,31.859,27.517,12.627,8.561,9.259
987,0.767,36.249,10.965,31.85,27.514,12.505,8.521,9.178
988,0.79,36.427,11.047,31.85,27.517,12.585,8.561,9.177
989,0.771,36.515,11.028,31.831,27.503,12.423,8.399,9.177
990,0.777,36.574,10.992,31.869,27.524,12.706,8.56,9.34
991,0.8,36.402,10.988,31.86,27.517,12.709,8.399,9.138
992,0.794,36.525,11.058,31.84,27.51,12.872,8.356,9.095
993,0.803,36.679,10.938,31.85,27.524,13.28,8.437,9.217
994,0.803,36.7,10.999,31.84,27.521,13.691,8.275,9.056
995,0.79,36.221,11.039,31.83,27.517,13.979,8.314,9.095
996,0.777,36.34,11.043,31.83,27.517,14.267,8.274,9.054
997,0.793,36.495,11.008,31.878,27.528,14.676,8.436,9.013
998,0.787,36.679,10.903,31.85,27.517,14.721,8.194,8.932
999,0.78,36.336,10.929,31.811,27.51,14.884,8.273,9.012
1000,0.787,36.476,10.988,31.849,27.528,15.048,8.314,9.094
1001,0.777,36.554,10.945,31.831,27.514,15.009,8.274,8.892
1002,0.764,36.306,10.984,31.859,27.517,15.09,8.274,9.052
1003,0.767,36.332,11.023,31.85,27.521,15.05,8.233,8.851
1004,0.787,36.495,11.051,31.869,27.517,14.969,8.192,8.93
1005,0.787,36.573,11.004,31.84,27.514,14.765,8.11,8.85
1006,0.774,36.162,10.957,31.84,27.524,14.722,8.354,8.93
1007,0.8,36.321,11.019,31.859,27.528,14.599,8.193,8.931
1008,0.803,36.409,11.043,31.831,27.507,14.273,8.11,8.89
1009,0.82,36.515,11.055,31.849,27.521,14.27,8.15,8.93
1010,0.826,36.228,11.008,31.84,27.514,14.066,8.15,9.012
1011,0.826,36.389,11.02,31.84,27.521,13.983,8.11,9.054
1012,0.82,36.457,11.004,31.821,27.517,13.657,8.109,9.054
1013,0.852,36.592,11.023,31.878,27.535,13.735,8.232,9.257
1014,0.846,36.229,11.004,31.85,27.521,13.411,8.029,9.097
1015,0.81,36.341,11.043,31.84,27.514,13.204,7.987,9.258
1016,0.81,36.486,11.059,31.84,27.517,13.243,7.986,9.381
1017,0.813,36.535,10.962,31.84,27.51,12.999,7.946,9.301
1018,0.813,36.171,11.0,31.85,27.514,12.956,7.986,9.423
1019,0.807,36.283,10.945,31.85,27.514,12.752,7.946,9.424
1020,0.829,36.485,11.046,31.869,27.524,12.709,7.905,9.546
1021,0.836,36.477,10.903,31.84,27.517,12.465,7.782,9.425
1022,0.843,36.257,10.983,31.84,27.521,12.463,7.862,9.586
1023,0.866,36.427,11.023,31.83,27.524,12.381,7.944,9.466
1024,0.885,36.506,10.981,31.821,27.517,12.299,7.701,9.424
1025,0.911,36.823,10.996,31.849,27.521,12.258,7.821,9.546
1026,0.967,36.26,10.969,31.85,27.507,12.217,7.822,9.466
1027,0.971,36.398,11.05,31.859,27.514,12.135,7.944,9.627
1028,0.987,36.477,11.036,31.821,27.507,12.012,7.783,9.548
1029,1.023,36.228,11.028,31.821,27.521,12.133,8.025,9.75
1030,1.053,36.274,10.996,31.849,27.517,12.175,8.027,9.712
1031,1.069,36.389,11.008,31.811,27.51,12.094,7.865,9.63
1032,1.099,36.505,11.012,31.83,27.517,12.215,7.985,9.832
1033,1.145,36.219,10.988,31.849,27.514,12.257,7.946,9.753
1034,1.191,36.35,11.012,31.831,27.517,12.501,7.986,9.793
1035,1.22,36.447,11.051,31.811,27.51,12.626,7.986,9.793
1036,1.276,36.554,10.985,31.859,27.528,12.993,8.149,9.834
1037,1.328,36.133,11.035,31.888,27.524,13.037,7.988,9.753
1038,1.375,36.244,10.942,31.812,27.514,13.2,7.986,9.833
1039,1.437,36.418,10.999,31.84,27.517,13.405,7.986,9.916
1040,1.48,36.458,11.023,31.83,27.51,13.407,7.946,9.794
1041,1.522,36.103,11.035,31.84,27.521,13.448,7.986,9.834
1042,1.562,36.253,10.989,31.84,27.514,13.53,7.905,9.916
1043,1.614,36.427,11.062,31.878,27.528,13.49,7.904,9.916
1044,1.621,36.458,10.989,31.85,27.514,13.367,7.823,9.794
1045,1.638,36.094,10.941,31.821,27.524,13.488,7.944,9.956
1046,1.651,36.263,10.996,31.849,27.521,13.49,7.945,9.876
1047,1.651,36.37,11.047,31.831,27.521,13.286,7.864,9.794
1048,1.667,36.409,11.028,31.83,27.517,13.365,7.944,9.793
1049,1.667,36.151,11.012,31.84,27.514,13.447,7.864,9.712
1050,1.677,36.321,10.996,31.83,27.517,13.489,7.863,9.752
1051,1.615,36.409,11.016,31.792,27.521,13.408,7.863,9.63
1052,1.556,36.429,10.973,31.859,27.531,13.692,8.026,9.751
1053,1.504,36.208,10.98,31.85,27.521,13.492,7.865,9.508
1054,1.409,36.321,11.027,31.811,27.51,13.449,7.904,9.506
1055,1.32,36.428,11.071,31.84,27.524,13.611,8.107,9.465
1056,1.222,36.189,10.989,31.84,27.514,13.531,8.069,9.383
1057,1.11,36.12,10.98,31.83,27.517,13.531,8.231,9.505
1058,0.985,36.253,10.988,31.84,27.524,13.571,8.273,9.384
1059,0.899,36.398,11.012,31.869,27.524,13.653,8.355,9.545
1060,0.775,36.17,11.039,31.812,27.514,13.572,8.315,9.547
1061,0.595,36.273,11.004,31.821,27.514,13.694,8.599,9.953
1062,0.443,36.408,10.996,31.84,27.528,13.776,8.562,10.202
1063,0.344,36.486,11.035,31.83,27.517,13.818,8.48,10.57
1064,0.23,36.036,11.0,31.84,27.521,13.981,8.56,11.021
1065,0.147,36.176,11.004,31.83,27.517,14.104,8.521,11.31
1066,0.068,36.331,11.0,31.83,27.521,14.227,8.642,11.719
1067,0.006,36.361,11.07,31.811,27.503,14.269,8.562,12.049
1068,-0.037,36.073,11.048,31.849,27.517,14.717,8.724,12.621
1069,-0.054,36.234,10.958,31.84,27.517,14.925,8.685,12.627
1070,-0.093,36.35,10.98,31.811,27.507,15.211,8.562,12.83
1071,-0.103,36.428,11.031,31.84,27.524,15.621,8.683,12.995
1072,-0.107,36.045,11.016,31.83,27.514,15.788,8.562,13.037
1073,-0.084,36.185,10.985,31.84,27.514,15.992,8.643,13.16
1074,-0.087,36.283,11.039,31.83,27.514,16.198,8.603,13.202
1075,-0.061,36.38,10.997,31.849,27.528,16.322,8.643,13.202
1076,-0.015,36.093,11.008,31.821,27.514,16.12,8.481,13.039
1077,-0.002,36.205,10.985,31.811,27.514,16.118,8.642,13.241
1078,0.031,36.331,10.992,31.83,27.517,16.118,8.684,13.406
1079,0.083,36.351,11.074,31.811,27.51,15.874,8.725,13.489
1080,0.116,36.131,11.013,31.83,27.517,15.871,8.807,13.733
1081,0.152,36.292,11.004,31.821,27.517,15.627,8.767,13.939
1082,0.208,36.428,11.047,31.821,27.517,15.544,8.807,14.185
1083,0.241,36.295,10.95,31.792,27.5,15.258,8.889,14.269
1084,0.277,36.265,10.988,31.849,27.521,15.418,9.256,14.595
1085,0.31,36.399,10.976,31.85,27.521,15.176,9.3,14.639
1086,0.343,36.477,11.058,31.811,27.514,14.97,9.382,14.761
1087,0.379,36.094,11.024,31.83,27.514,14.887,9.667,14.966
1088,0.415,36.147,10.969,31.821,27.521,14.764,9.751,14.968
1089,0.461,36.301,11.004,31.84,27.517,14.722,9.955,15.049
1090,0.497,36.38,10.945,31.83,27.517,14.64,10.12,15.05
1091,0.54,36.045,11.042,31.859,27.528,14.68,10.284,15.091
1092,0.55,36.185,10.997,31.84,27.514,14.518,10.245,14.888
1093,0.573,36.273,11.02,31.821,27.51,14.516,10.408,14.967
1094,0.619,36.379,11.043,31.821,27.517,14.638,10.491,14.846
1095,0.626,35.949,10.997,31.811,27.514,14.599,10.41,14.601
1096,0.649,36.088,11.012,31.821,27.517,14.842,10.572,14.558
1097,0.652,36.234,10.965,31.811,27.514,14.967,10.533,14.313
1098,0.675,36.322,11.023,31.849,27.521,15.252,10.532,14.229
1099,0.672,36.092,11.028,31.802,27.51,15.255,10.37,13.903
1100,0.675,36.215,10.985,31.811,27.514,15.702,10.531,13.981
1101,0.704,36.379,11.0,31.84,27.521,15.829,10.451,13.779
1102,0.708,36.4,11.023,31.792,27.507,15.952,10.369,13.533
1103,0.728,36.026,10.981,31.82,27.517,16.198,10.368,13.449
1104,0.741,36.166,10.953,31.83,27.514,16.241,10.368,13.326
1105,0.764,36.283,10.984,31.821,27.517,16.404,10.287,13.203
1106,0.748,36.264,11.058,31.792,27.514,16.446,10.286,13.039
1107,0.773,36.12,11.02,31.84,27.531,16.609,10.286,12.956
1108,0.784,36.263,11.012,31.811,27.517,16.488,10.083,12.63
1109,0.793,36.36,10.953,31.811,27.514,16.325,10.04,12.546
1110,0.793,36.275,10.968,31.83,27.524,16.364,10.08,12.464
1111,0.8,35.967,10.992,31.811,27.507,16.242,9.918,12.3
1112,0.803,36.137,11.012,31.811,27.517,16.241,9.876,12.217
1113,0.807,36.196,11.008,31.811,27.521,16.16,9.753,11.932
1114,0.846,36.081,11.059,31.83,27.521,16.281,9.793,11.807
1115,0.84,36.119,11.001,31.782,27.514,16.323,9.468,11.562
1116,0.843,36.244,10.984,31.82,27.517,16.73,9.546,11.6
1117,0.853,36.398,11.019,31.811,27.521,16.978,9.506,11.356
1118,0.84,35.863,10.996,31.801,27.514,17.061,9.343,11.151
1119,0.843,35.992,11.043,31.811,27.521,17.306,9.342,11.23
1120,0.83,36.118,10.958,31.811,27.517,17.39,9.179,10.987
1121,0.833,36.224,10.968,31.801,27.521,17.472,9.177,10.822
1122,0.817,36.206,11.011,31.773,27.51,17.636,9.015,10.698
1123,0.829,36.369,10.93,31.839,27.524,17.962,9.094,10.616
1124,0.836,36.505,11.003,31.821,27.517,17.925,8.811,10.411
1125,0.83,36.574,11.023,31.811,27.514,17.965,8.848,10.409
1126,0.833,35.845,11.043,31.811,27.521,18.007,8.808,10.247
1127,0.836,35.972,11.036,31.792,27.51,17.885,8.604,10.123
1128,0.83,36.098,10.95,31.83,27.517,17.965,8.602,10.0
1129,0.826,36.167,10.988,31.811,27.521,17.966,8.562,9.877
1130,0.852,36.119,10.969,31.84,27.528,17.885,8.439,9.876
1131,0.862,36.224,10.996,31.802,27.51,17.762,8.275,9.631
1132,0.853,36.341,10.984,31.792,27.514,17.72,8.396,9.751
1133,0.869,36.39,11.019,31.82,27.521,17.516,8.356,9.671
1134,0.879,35.92,11.074,31.773,27.51,17.311,8.112,9.426
1135,0.872,36.069,10.923,31.811,27.514,17.106,8.191,9.424
1136,0.882,36.176,10.972,31.792,27.521,16.941,8.151,9.342
1137,0.869,36.446,11.011,31.811,27.514,16.817,8.15,9.301
1138,0.846,35.988,11.024,31.773,27.514,16.653,8.028,9.26
1139,0.869,36.127,11.071,31.82,27.528,16.692,8.19,9.381
1140,0.863,36.263,11.012,31.878,27.517,16.693,7.988,9.139
1141,0.846,35.957,10.973,31.793,27.51,16.693,7.864,9.136
1142,0.843,36.012,11.035,31.801,27.514,16.937,7.944,9.177
1143,0.839,36.156,11.004,31.849,27.514,16.898,7.823,9.015
1144,0.826,36.244,10.988,31.821,27.507,16.979,7.863,9.054
1145,0.813,35.986,11.031,31.811,27.514,16.899,7.782,9.013
1146,0.81,36.166,11.075,31.849,27.528,17.101,7.862,8.891
1147,0.82,36.273,10.962,31.792,27.514,16.819,7.741,8.768
1148,0.83,36.332,10.925,31.811,27.514,16.857,7.781,8.929
1149,0.843,35.891,10.96,31.811,27.514,16.938,7.781,8.809
1150,0.856,36.03,10.992,31.792,27.514,16.898,7.618,8.645
1151,0.872,36.176,10.973,31.801,27.517,17.142,7.698,8.765
1152,0.866,36.254,10.992,31.801,27.514,17.145,7.618,8.645
1153,0.882,35.967,11.051,31.811,27.514,17.267,7.576,8.603
1154,0.889,36.079,10.997,31.782,27.514,17.268,7.575,8.562
1155,0.915,36.253,11.004,31.83,27.528,17.39,7.698,8.602
1156,0.922,36.303,10.984,31.811,27.521,17.391,7.496,8.399
1157,0.909,35.833,11.015,31.782,27.514,17.432,7.494,8.519
1158,0.902,35.991,11.051,31.811,27.517,17.676,7.534,8.52
1159,0.892,36.118,11.036,31.773,27.514,17.76,7.372,8.479
1160,0.876,36.167,10.969,31.83,27.521,18.086,7.492,8.52
1161,0.863,35.976,10.965,31.821,27.517,18.414,7.494,8.439
1162,0.879,36.137,11.023,31.821,27.517,18.702,7.453,8.397
1163,0.882,36.225,11.0,31.782,27.507,18.827,7.371,8.316
1164,0.856,36.321,10.984,31.801,27.517,19.113,7.573,8.599
1165,0.849,35.968,11.043,31.811,27.521,19.4,7.535,8.602
1166,0.836,36.079,11.004,31.782,27.514,19.322,7.412,8.48
1167,0.862,36.205,10.942,31.811,27.514,19.402,7.533,8.52
1168,0.869,35.966,10.957,31.792,27.517,19.322,7.453,8.479
1169,0.872,35.983,11.0,31.811,27.514,19.158,7.534,8.52
1170,0.866,36.089,10.996,31.782,27.507,18.872,7.494,8.52
1171,0.856,36.195,11.02,31.82,27.524,18.869,7.656,8.601
1172,0.859,35.832,11.02,31.821,27.517,18.381,7.455,8.48
1173,0.843,35.915,11.035,31.782,27.507,18.092,7.493,8.398
1174,0.872,36.059,10.993,31.792,27.514,17.804,7.575,8.438
1175,0.863,36.157,10.98,31.782,27.517,17.395,7.494,8.357
1176,0.849,35.86,10.98,31.801,27.517,17.066,7.494,8.397
1177,0.83,36.011,11.027,31.792,27.514,16.737,7.494,8.478
1178,0.846,36.156,11.051,31.849,27.528,16.693,7.575,8.56
1179,0.836,36.215,11.032,31.802,27.517,16.327,7.332,8.358
1180,0.813,35.861,10.926,31.792,27.517,16.12,7.37,8.478
1181,0.833,36.03,11.023,31.792,27.521,16.036,7.411,8.438
1182,0.833,36.137,10.985,31.782,27.514,15.751,7.411,8.397
1183,0.849,36.225,10.976,31.801,27.517,15.545,7.411,8.438
1184,0.833,35.938,11.008,31.801,27.517,15.299,7.371,8.397
1185,0.839,36.098,11.063,31.811,27.521,15.093,7.37,8.478
1186,0.82,36.186,10.969,31.782,27.507,14.725,7.37,8.357
1187,0.83,36.225,10.992,31.82,27.514,14.884,7.452,8.6
1188,0.843,35.928,10.922,31.811,27.521,14.764,7.534,8.521
1189,0.843,36.05,10.941,31.782,27.503,14.64,7.372,8.398
1190,0.859,36.157,11.003,31.792,27.524,14.721,7.452,8.56
1191,0.859,36.206,11.043,31.782,27.517,14.559,7.412,8.521
1192,0.872,35.823,11.0,31.792,27.517,14.638,7.493,8.601
1193,0.859,35.924,11.035,31.763,27.514,14.639,7.453,8.48
1194,0.862,36.088,11.004,31.82,27.524,14.68,7.534,8.56
1195,0.859,35.927,10.981,31.802,27.514,14.599,7.291,8.399
1196,0.853,35.877,10.996,31.782,27.514,14.517,7.41,8.56
1197,0.84,36.03,11.043,31.792,27.521,14.516,7.493,8.561
1198,0.836,36.109,11.067,31.763,27.514,14.353,7.331,8.439
1199,0.852,35.812,10.993,31.791,27.521,14.433,7.41,8.479
1200,0.859,35.915,10.965,31.772,27.524,14.312,7.452,8.438
1201,0.885,36.088,11.027,31.791,27.517,14.229,7.452,8.479
1202,0.882,36.138,10.95,31.763,27.507,14.025,7.371,8.316
1203,0.879,35.86,10.976,31.763,27.517,14.105,7.573,8.518
1204,0.866,36.02,11.012,31.782,27.514,14.024,7.535,8.439
1205,0.862,36.108,11.055,31.763,27.51,13.861,7.494,8.316
1206,0.859,36.205,10.981,31.782,27.517,13.737,7.656,8.396
1207,0.856,35.679,10.973,31.782,27.517,13.655,7.536,8.316
1208,0.885,35.836,10.992,31.763,27.521,13.613,7.657,8.315
1209,0.863,35.934,10.953,31.753,27.51,13.409,7.617,8.274
1210,0.875,36.002,11.031,31.81,27.528,13.448,7.779,8.355
1211,0.882,35.763,10.985,31.763,27.517,13.286,7.618,8.234
1212,0.872,35.876,11.0,31.772,27.514,13.081,7.657,8.233
1213,0.879,36.002,11.008,31.772,27.514,12.997,7.78,8.192
1214,0.892,36.06,10.996,31.763,27.514,12.875,7.659,8.11
1215,0.905,35.917,10.996,31.782,27.524,12.792,7.698,8.15
1216,0.899,36.031,11.031,31.753,27.51,12.71,7.74,8.15
1217,0.912,36.176,11.075,31.782,27.528,12.709,7.699,8.15
1218,0.912,36.187,11.009,31.763,27.51,12.384,7.618,8.069
1219,0.899,35.794,10.949,31.753,27.51,12.462,7.779,8.191
1220,0.899,35.962,10.918,31.772,27.521,12.585,7.781,8.151
1221,0.889,36.05,11.019,31.744,27.51,12.464,7.659,7.947
1222,0.879,36.013,10.879,31.791,27.521,12.625,7.78,8.108
1223,0.866,35.936,10.956,31.763,27.514,12.668,7.659,7.987
1224,0.876,36.079,11.027,31.782,27.521,12.749,7.739,8.108
1225,0.869,36.147,10.981,31.715,27.503,12.75,7.74,8.069
1226,0.853,35.717,10.922,31.772,27.521,13.035,7.943,8.109
1227,0.872,35.827,10.984,31.782,27.514,13.078,7.864,8.028
1228,0.872,35.915,10.973,31.744,27.507,13.038,7.782,7.946
1229,0.882,36.04,11.019,31.762,27.517,13.119,7.903,8.067
1230,0.885,35.754,11.012,31.743,27.51,13.039,7.782,7.946
1231,0.898,35.895,11.016,31.762,27.517,13.078,7.822,7.945
1232,0.879,36.011,10.977,31.743,27.514,12.957,7.863,7.864
1233,0.898,36.118,10.996,31.791,27.531,13.037,7.944,7.985
1234,0.905,35.697,10.992,31.744,27.514,12.875,7.823,7.783
1235,0.892,35.808,10.996,31.743,27.514,12.833,7.822,7.944
1236,0.918,35.953,11.051,31.762,27.524,12.954,7.985,7.945
1237,0.922,36.021,11.028,31.743,27.514,12.874,7.946,7.864
1238,0.905,35.773,11.004,31.753,27.521,12.955,7.945,7.944
1239,0.908,35.924,10.981,31.743,27.514,12.915,7.945,7.864
1240,0.902,36.088,10.961,31.782,27.517,12.915,8.026,7.944
1241,0.886,36.09,11.015,31.744,27.507,12.752,7.865,7.783
1242,0.869,35.754,11.0,31.762,27.517,12.953,8.066,7.984
1243,0.885,35.914,10.996,31.763,27.517,12.874,8.028,7.824
1244,0.869,36.002,11.035,31.743,27.514,12.751,7.946,7.781
1245,0.876,36.041,10.965,31.772,27.521,12.831,8.067,7.822
1246,0.885,35.869,10.929,31.753,27.514,12.751,7.987,7.822
1247,0.895,36.011,10.972,31.763,27.517,12.709,8.027,7.741
1248,0.886,36.07,11.004,31.734,27.514,12.628,7.946,7.781
1249,0.905,36.099,11.059,31.791,27.528,12.749,8.108,7.822
1250,0.918,35.745,10.969,31.772,27.514,12.506,7.906,7.619
1251,0.918,35.875,10.949,31.763,27.514,12.585,7.945,7.739
1252,0.912,36.011,11.042,31.772,27.517,12.667,7.945,7.74
1253,0.908,35.696,10.919,31.763,27.507,12.587,7.783,7.659
1254,0.915,35.76,11.003,31.772,27.514,12.627,7.862,7.739
1255,0.938,35.866,11.027,31.753,27.517,12.708,7.822,7.577
1256,0.948,36.011,11.067,31.763,27.51,12.831,7.781,7.616
1257,0.922,35.734,11.016,31.734,27.507,12.629,7.659,7.617
1258,0.922,35.866,10.914,31.762,27.528,12.871,7.942,7.779
1259,0.922,36.03,10.972,31.782,27.514,12.792,7.783,7.618
1260,0.905,36.089,10.906,31.753,27.51,12.71,7.74,7.535
1261,0.905,35.706,10.972,31.772,27.517,12.75,7.699,7.657
1262,0.902,35.846,10.984,31.753,27.517,12.628,7.618,7.576
1263,0.892,35.972,10.996,31.772,27.514,12.546,7.657,7.616
1264,0.876,36.022,11.027,31.763,27.517,12.464,7.658,7.698
1265,0.889,35.754,10.965,31.82,27.535,12.422,7.78,7.699
1266,0.889,35.895,10.976,31.782,27.511,12.137,7.537,7.577
1267,0.889,35.983,10.965,31.763,27.51,12.093,7.657,7.657
1268,0.908,36.051,11.027,31.753,27.521,12.012,7.739,7.658
1269,0.908,35.735,11.063,31.753,27.507,11.808,7.618,7.576
1270,0.905,35.885,10.985,31.772,27.517,11.806,7.657,7.616
1271,0.928,36.011,10.976,31.782,27.51,11.684,7.658,7.576
1272,0.957,36.06,10.992,31.772,27.514,11.479,7.698,7.616
1273,0.941,35.764,11.019,31.763,27.503,11.314,7.577,7.576
1274,0.938,35.914,11.0,31.763,27.517,11.353,7.82,7.657
1275,0.938,36.04,11.055,31.791,27.514,11.273,7.741,7.536
1276,0.948,36.348,11.047,31.763,27.51,11.069,7.659,7.494
1277,0.935,35.891,10.965,31.772,27.514,11.066,7.78,7.494
1278,0.945,36.021,10.957,31.782,27.517,10.944,7.781,7.453
1279,0.951,36.137,10.964,31.782,27.517,10.943,7.944,7.534
1280,0.932,35.822,10.961,31.744,27.51,10.902,7.823,7.534
1281,0.948,35.886,10.941,31.81,27.521,10.943,7.944,7.534
1282,0.945,36.011,10.972,31.792,27.507,10.781,7.783,7.453
1283,0.938,36.08,11.05,31.753,27.503,10.698,7.822,7.493
1284,0.935,35.821,10.981,31.791,27.507,10.819,7.944,7.534
1285,0.928,35.924,10.969,31.772,27.507,10.739,7.823,7.494
1286,0.912,36.079,10.98,31.791,27.51,10.819,7.863,7.534
1287,0.912,36.138,11.004,31.772,27.514,11.023,7.904,7.494
1288,0.922,36.004,11.074,31.772,27.517,11.107,7.945,7.534
1289,0.905,36.089,11.028,31.744,27.503,11.108,7.783,7.494
1290,0.918,36.224,10.946,31.791,27.517,11.433,7.944,7.575
1291,0.938,36.312,10.992,31.782,27.517,11.517,7.905,7.535
1292,0.922,35.939,10.965,31.763,27.51,11.64,7.823,7.412
1293,0.931,36.098,10.984,31.772,27.514,11.967,7.903,7.533
1294,0.948,36.205,10.992,31.763,27.507,12.173,7.863,7.453
1295,0.941,36.245,11.035,31.763,27.517,12.297,7.904,7.412
1296,0.925,35.967,11.02,31.763,27.507,12.421,7.863,7.371
1297,0.954,36.175,10.949,31.83,27.524,12.706,7.904,7.452
1298,0.958,36.273,11.011,31.782,27.507,12.546,7.742,7.29
1299,0.935,36.274,10.938,31.763,27.507,12.789,7.821,7.451
1300,0.938,36.226,11.035,31.772,27.517,12.954,7.863,7.412
1301,0.925,36.369,10.996,31.763,27.5,12.956,7.7,7.33
1302,0.941,36.486,10.977,31.782,27.51,13.078,7.78,7.37
1303,0.932,36.487,11.043,31.772,27.514,13.119,7.659,7.37
1304,0.941,36.199,10.95,31.801,27.514,13.242,7.698,7.411
1305,0.932,36.292,10.98,31.744,27.493,13.202,7.577,7.289
1306,0.922,36.408,10.969,31.791,27.514,13.446,7.82,7.491
1307,0.944,36.381,11.074,31.772,27.514,13.53,7.659,7.412
1308,0.932,36.39,11.071,31.763,27.507,13.368,7.576,7.33
1309,0.948,36.534,11.02,31.763,27.5,13.529,7.616,7.329
1310,0.941,36.631,10.985,31.763,27.51,13.612,7.576,7.248
1311,0.945,36.326,11.0,31.772,27.507,13.735,7.535,7.369
1312,0.938,36.39,10.965,31.753,27.51,13.817,7.453,7.33
1313,0.954,36.563,10.992,31.772,27.524,14.184,7.615,7.41
1314,0.964,36.66,11.0,31.763,27.517,14.228,7.454,7.208
1315,0.958,36.479,11.047,31.743,27.49,14.351,7.371,7.287
1316,0.981,36.64,10.938,31.782,27.517,14.596,7.452,7.329
1317,0.984,36.767,10.972,31.753,27.514,14.679,7.33,7.37
1318,0.978,36.845,10.937,31.772,27.517,14.721,7.451,7.411
1319,0.964,36.519,11.003,31.763,27.514,14.681,7.412,7.33
1320,0.961,36.689,11.074,31.782,27.521,14.64,7.411,7.37
1321,0.958,36.796,11.009,31.753,27.51,14.395,7.289,7.33
1322,0.932,36.826,11.0,31.772,27.517,14.474,7.288,7.492
1323,0.957,36.73,11.023,31.763,27.514,14.353,7.329,7.453
1324,0.945,36.835,10.961,31.772,27.507,14.067,7.126,7.371
1325,0.945,36.989,10.972,31.772,27.521,14.064,7.287,7.492
1326,0.954,37.02,10.992,31.753,27.517,13.861,7.207,7.453
1327,0.964,36.684,11.051,31.772,27.517,13.696,7.247,7.452
1328,0.958,36.757,11.036,31.734,27.5,13.41,7.084,7.452
1329,0.964,36.883,11.0,31.772,27.521,13.489,7.286,7.696
1330,0.971,36.951,10.988,31.772,27.521,13.286,7.207,7.618
1331,0.964,36.875,11.027,31.734,27.51,12.999,7.084,7.657
1332,0.958,37.018,10.965,31.772,27.521,12.956,7.164,7.78
1333,0.961,37.135,10.98,31.763,27.51,12.833,7.002,7.7
1334,0.958,36.915,11.019,31.753,27.514,12.629,7.082,7.78
1335,0.964,36.798,11.008,31.734,27.51,12.586,7.002,7.822
1336,0.968,36.96,10.969,31.781,27.531,12.545,7.163,7.944
1337,0.971,37.086,10.972,31.782,27.517,12.342,6.962,7.823
1338,0.958,36.886,10.93,31.734,27.514,12.339,6.96,7.903
1339,0.964,37.009,10.999,31.762,27.517,12.217,7.082,7.863
1340,0.948,37.135,11.023,31.743,27.514,12.176,6.961,7.863
1341,0.938,37.222,11.016,31.762,27.51,12.256,6.96,7.985
1342,0.928,37.012,10.973,31.743,27.521,12.542,6.96,7.986
1343,0.944,37.173,11.035,31.782,27.528,12.87,6.96,7.986
1344,0.958,37.29,10.985,31.83,27.517,13.036,6.919,7.864
1345,0.945,37.358,10.965,31.754,27.514,13.444,6.919,8.026
1346,0.932,37.033,11.007,31.753,27.517,13.733,6.959,8.027
1347,0.941,37.173,11.035,31.743,27.514,13.898,6.838,7.987
1348,0.951,37.299,11.032,31.762,27.521,14.144,6.958,8.068
1349,0.951,37.349,10.95,31.753,27.514,14.309,6.878,8.028
1350,0.977,37.148,10.972,31.753,27.521,14.473,6.959,8.068
1351,0.974,37.251,10.988,31.734,27.514,14.353,6.878,8.109
1352,0.968,37.386,11.016,31.772,27.524,14.636,7.081,8.232
1353,0.984,37.426,10.965,31.772,27.517,14.477,6.961,7.989
1354,0.981,37.091,11.015,31.724,27.514,14.353,6.878,7.946
1355,0.981,37.231,11.012,31.781,27.524,14.311,6.959,8.108
1356,0.964,37.367,10.988,31.753,27.507,14.189,6.838,8.069
1357,0.961,37.378,10.973,31.763,27.521,14.025,6.958,8.15
1358,0.945,37.282,10.992,31.763,27.517,13.901,6.919,8.191
1359,0.948,37.444,11.066,31.791,27.528,13.819,6.959,8.436
1360,0.948,37.523,11.009,31.753,27.504,13.493,6.838,8.397
1361,0.954,37.418,10.988,31.734,27.517,13.408,6.918,8.56
1362,0.971,37.263,11.051,31.762,27.517,13.163,7.0,8.602
1363,0.955,37.396,10.946,31.753,27.514,12.876,6.879,8.602
1364,0.945,37.522,10.96,31.753,27.514,12.833,6.918,8.806
1365,0.938,37.303,10.98,31.743,27.517,12.588,6.796,8.808
1366,0.941,37.425,11.031,31.772,27.517,12.423,6.877,8.889
1367,0.932,37.522,11.035,31.724,27.51,12.015,6.796,8.809
1368,0.938,37.6,10.965,31.753,27.514,12.092,6.917,9.011
1369,0.935,37.208,10.996,31.772,27.514,12.052,6.878,8.891
1370,0.938,37.319,10.91,31.734,27.514,11.767,6.796,8.93
1371,0.922,37.445,10.999,31.762,27.514,11.764,6.877,9.093
1372,0.922,37.532,10.996,31.753,27.507,11.724,6.755,9.095
1373,0.941,37.351,10.969,31.753,27.514,11.764,6.795,9.136
1374,0.945,37.455,11.023,31.734,27.51,11.642,6.795,9.217
1375,0.951,37.619,10.957,31.781,27.528,11.723,6.917,9.381
1376,0.974,37.668,10.976,31.763,27.521,11.601,6.796,9.301
1377,0.958,37.295,10.961,31.743,27.51,11.519,6.755,9.26
1378,0.951,37.444,11.015,31.772,27.517,11.477,6.836,9.422
1379,0.945,37.513,11.082,31.744,27.51,11.274,6.837,9.342
1380,0.945,37.581,10.923,31.772,27.514,11.353,6.837,9.464
1381,0.925,37.505,10.972,31.753,27.521,11.11,6.837,9.343
1382,0.938,37.686,11.011,31.801,27.535,11.23,6.958,9.464
1383,0.925,37.794,10.981,31.782,27.514,11.068,6.797,9.302
1384,0.912,37.804,10.957,31.744,27.514,10.985,6.877,9.423
1385,0.918,37.478,11.023,31.782,27.517,11.106,6.796,9.464
1386,0.909,37.59,11.031,31.753,27.507,11.067,6.795,9.302
1387,0.918,37.716,10.989,31.782,27.517,11.229,6.877,9.382
1388,0.912,37.966,10.918,31.772,27.514,11.312,6.837,9.342
1389,0.915,37.988,10.956,31.782,27.514,11.394,6.837,9.342
1390,0.902,38.075,10.968,31.744,27.503,11.436,6.755,9.342
1391,0.925,38.152,10.949,31.772,27.521,11.721,6.998,9.545
1392,0.925,37.28,10.964,31.772,27.521,11.642,6.879,9.344
1393,0.918,37.205,10.992,31.753,27.51,11.601,6.796,9.26
1394,0.941,37.348,10.988,31.772,27.517,11.722,6.877,9.341
1395,0.945,37.483,10.906,31.782,27.521,11.642,6.796,9.26
1396,0.938,37.485,10.972,31.772,27.514,11.682,6.836,9.3
1397,0.935,37.6,11.004,31.753,27.514,11.642,6.796,9.341
1398,0.951,37.774,11.074,31.791,27.524,11.763,6.917,9.464
1399,0.954,37.842,11.071,31.772,27.514,11.602,6.715,9.302
1400,0.945,37.297,11.024,31.772,27.507,11.438,6.794,9.382
1401,0.948,37.464,10.946,31.772,27.521,11.395,6.795,9.464
1402,0.935,37.561,11.003,31.763,27.51,11.232,6.755,9.343
1403,0.931,37.687,10.984,31.782,27.514,11.271,6.754,9.423
1404,0.912,37.391,10.98,31.782,27.514,11.109,6.714,9.383
1405,0.928,37.56,11.054,31.792,27.517,11.067,6.754,9.423
1406,0.892,37.639,11.016,31.753,27.514,10.822,6.632,9.261
1407,0.886,37.688,10.965,31.791,27.517,10.82,6.794,9.463
1408,0.902,37.372,10.965,31.82,27.521,10.779,6.795,9.343
1409,0.908,37.493,10.957,31.754,27.514,10.576,6.633,9.219
1410,0.918,37.648,10.988,31.782,27.517,10.574,6.712,9.3
1411,0.892,37.659,10.941,31.772,27.51,10.451,6.672,9.138
1412,0.908,37.438,10.98,31.791,27.517,10.369,6.753,9.136
1413,0.905,37.542,10.984,31.753,27.507,10.165,6.632,9.095
1414,0.921,37.648,10.988,31.782,27.524,10.285,6.916,9.176
1415,0.922,38.023,10.961,31.792,27.521,10.123,6.796,8.974
1416,0.918,37.452,10.957,31.763,27.51,9.959,6.714,8.85
1417,0.909,37.59,10.996,31.782,27.517,9.998,6.835,8.93
1418,0.892,37.678,11.035,31.772,27.514,9.877,6.796,8.809
1419,0.879,37.506,11.075,31.772,27.517,9.876,6.877,8.808
1420,0.879,37.533,11.001,31.782,27.517,9.713,6.837,8.808
1421,0.898,37.687,10.996,31.811,27.521,9.752,6.877,8.808
1422,0.879,37.765,11.004,31.773,27.514,9.59,6.755,8.645
1423,0.876,37.305,10.981,31.772,27.514,9.588,6.876,8.765
1424,0.859,37.454,10.992,31.791,27.521,9.588,6.837,8.767
1425,0.866,37.552,11.023,31.763,27.514,9.466,6.837,8.645
1426,0.872,37.629,11.024,31.782,27.517,9.465,6.877,8.684
1427,0.866,37.333,10.95,31.782,27.517,9.343,6.877,8.603
1428,0.895,37.522,10.941,31.83,27.517,9.301,7.0,8.562
1429,0.886,37.581,10.933,31.754,27.507,9.178,6.879,8.439
1430,0.882,37.658,10.988,31.791,27.528,9.34,7.203,8.682
1431,0.863,37.333,10.965,31.801,27.521,9.301,7.084,8.4
1432,0.862,37.464,10.961,31.782,27.507,9.178,7.002,8.356
1433,0.872,37.58,11.046,31.792,27.521,9.218,7.082,8.437
1434,0.872,37.63,10.981,31.772,27.517,9.178,7.083,8.316
1435,0.879,37.39,11.008,31.782,27.524,9.218,7.083,8.356
1436,0.866,37.522,10.969,31.763,27.514,9.218,7.042,8.275
1437,0.866,37.677,11.027,31.83,27.531,9.381,7.286,8.314
1438,0.856,37.717,11.063,31.782,27.517,9.342,7.044,8.112
1439,0.859,37.382,11.02,31.772,27.507,9.342,7.164,8.232
1440,0.859,37.541,10.938,31.782,27.521,9.423,7.206,8.314
1441,0.846,37.629,10.972,31.772,27.51,9.383,7.084,8.152
1442,0.843,37.64,11.0,31.791,27.517,9.382,7.164,8.11
1443,0.833,37.41,11.016,31.782,27.514,9.423,7.287,8.069
1444,0.843,37.58,10.985,31.811,27.524,9.383,7.288,8.15
1445,0.833,37.639,11.019,31.773,27.504,9.179,7.166,7.947
1446,0.823,37.505,10.969,31.782,27.514,9.34,7.328,8.189
1447,0.843,37.542,10.953,31.811,27.521,9.301,7.289,8.07
1448,0.843,37.648,10.961,31.782,27.51,9.219,7.166,7.987
1449,0.839,37.755,10.937,31.792,27.517,9.259,7.246,7.986
1450,0.846,37.334,11.066,31.782,27.514,9.137,7.206,7.946
1451,0.859,37.435,10.993,31.792,27.517,9.177,7.287,8.026
1452,0.859,37.532,10.969,31.782,27.507,9.137,7.288,7.946
1453,0.862,37.648,11.035,31.82,27.531,9.258,7.369,8.026
1454,0.879,37.41,10.946,31.802,27.517,9.178,7.208,7.824
1455,0.859,37.532,10.964,31.773,27.507,9.218,7.206,7.903
1456,0.872,37.667,10.996,31.782,27.521,9.34,7.287,7.945
1457,0.869,37.755,11.035,31.772,27.507,9.342,7.207,7.823
1458,0.859,37.276,11.055,31.782,27.521,9.504,7.287,8.025
1459,0.84,37.406,10.981,31.792,27.524,9.628,7.207,7.987
1460,0.862,37.57,11.012,31.84,27.524,9.751,7.206,8.068
1461,0.84,37.591,10.996,31.783,27.51,9.793,7.084,8.109
1462,0.826,37.447,10.961,31.782,27.514,9.875,7.205,8.313
1463,0.833,37.599,10.957,31.801,27.521,9.957,7.165,8.437
1464,0.826,37.716,11.0,31.792,27.514,9.998,7.124,8.357
1465,0.83,37.756,11.0,31.792,27.517,10.039,7.165,8.478
1466,0.817,37.305,10.922,31.801,27.517,9.999,7.084,8.438
1467,0.839,37.483,10.98,31.801,27.517,10.08,7.083,8.601
1468,0.83,37.542,10.93,31.773,27.507,9.837,7.002,8.521
1469,0.839,37.562,10.992,31.791,27.521,10.16,7.204,8.683
1470,0.839,37.543,11.016,31.82,27.521,10.0,7.084,8.522
1471,0.83,37.667,11.02,31.792,27.507,9.917,6.92,8.561
1472,0.843,37.765,10.965,31.811,27.517,9.957,7.122,8.643
1473,0.836,37.516,11.019,31.792,27.51,9.835,6.961,8.603
1474,0.849,37.389,10.973,31.801,27.51,9.834,7.082,8.602
1475,0.833,37.503,10.988,31.782,27.514,9.834,7.042,8.602
1476,0.836,37.638,11.027,31.839,27.528,9.834,7.082,8.684
1477,0.846,37.505,11.051,31.802,27.507,9.672,6.961,8.481
1478,0.833,37.571,11.036,31.801,27.51,9.751,7.0,8.682
1479,0.82,37.716,10.942,31.821,27.521,9.793,7.041,8.644
1480,0.823,37.803,10.972,31.792,27.51,9.712,6.96,8.521
1481,0.826,37.392,11.008,31.82,27.514,9.833,7.0,8.642
1482,0.833,37.512,11.016,31.792,27.51,9.794,6.96,8.562
1483,0.849,37.686,10.988,31.801,27.517,9.915,7.041,8.602
1484,0.843,37.698,10.961,31.773,27.503,9.754,6.879,8.643
1485,0.833,37.362,10.996,31.839,27.521,9.996,7.121,8.684
1486,0.846,37.493,10.965,31.859,27.521,9.795,6.961,8.522
1487,0.82,37.59,10.957,31.792,27.51,9.753,6.878,8.479
1488,0.833,37.668,10.988,31.811,27.517,9.712,6.918,8.601
1489,0.836,38.177,10.988,31.801,27.51,9.63,6.878,8.44
1490,0.843,38.297,11.004,31.811,27.517,9.629,6.918,8.56
1491,0.833,38.413,10.961,31.811,27.514,9.548,6.919,8.48
1492,0.862,38.491,11.043,31.84,27.524,9.588,6.959,8.479
1493,0.849,37.015,10.938,31.811,27.514,9.466,6.797,8.398
1494,0.846,37.125,10.972,31.792,27.514,9.505,6.836,8.519
1495,0.853,37.289,11.0,31.811,27.51,9.506,6.877,8.52
1496,0.869,37.301,11.023,31.782,27.514,9.343,6.796,8.561
1497,0.863,37.492,11.028,31.801,27.514,9.464,6.958,8.724
1498,0.859,37.638,10.957,31.792,27.517,9.343,6.838,8.848
1499,0.879,37.774,10.98,31.811,27.517,9.342,6.837,9.011
1500,0.846,37.622,10.937,31.792,27.51,9.179,6.755,9.054
1501,0.84,37.39,10.999,31.811,27.524,9.34,6.957,9.257
1502,0.843,37.551,11.02,31.811,27.521,9.301,6.878,9.178
1503,0.83,37.648,10.938,31.792,27.514,9.138,6.755,9.299
1504,0.83,37.41,10.996,31.801,27.514,9.177,6.917,9.423
1505,0.83,37.494,10.918,31.821,27.517,9.096,6.878,9.424
1506,0.82,37.629,10.98,31.811,27.514,9.014,7.0,9.464
1507,0.807,37.688,10.953,31.792,27.51,8.972,6.919,9.383
1508,0.829,37.314,11.023,31.84,27.528,9.013,7.041,9.423
1509,0.839,37.435,11.059,31.811,27.514,8.85,6.92,9.342
1510,0.846,37.523,10.938,31.792,27.514,8.808,6.919,9.423
1511,0.872,37.648,10.976,31.811,27.517,8.808,7.122,9.424
1512,0.856,37.429,11.039,31.801,27.514,8.686,7.043,9.342
1513,0.849,37.599,11.004,31.84,27.517,8.603,7.082,9.301
1514,0.849,37.706,10.984,31.811,27.514,8.602,7.123,9.301
1515,0.888,37.784,10.988,31.83,27.524,8.643,7.124,9.26
1516,0.876,37.334,11.016,31.773,27.507,8.44,7.002,9.178
1517,0.863,37.445,10.985,31.801,27.521,8.601,7.285,9.34
1518,0.872,37.599,10.871,31.821,27.517,8.521,7.247,9.26
1519,0.856,37.62,10.948,31.802,27.514,8.398,7.166,9.137
1520,0.846,37.419,10.953,31.811,27.507,8.438,7.165,9.177
1521,0.849,37.551,10.961,31.811,27.51,8.397,7.165,9.055
1522,0.843,37.668,10.972,31.821,27.521,8.356,7.124,9.054
1523,0.843,37.669,10.976,31.782,27.507,8.275,7.205,9.013
1524,0.849,37.333,10.992,31.839,27.528,8.396,7.328,9.176
1525,0.856,37.502,11.004,31.878,27.514,8.234,7.167,8.974
1526,0.836,37.581,10.969,31.793,27.507,8.111,7.124,8.931
1527,0.852,37.754,10.976,31.83,27.524,8.109,7.287,8.931
1528,0.856,37.439,11.004,31.802,27.507,8.028,7.207,8.809
1529,0.859,37.59,11.027,31.821,27.51,8.027,7.287,8.889
1530,0.866,37.658,10.992,31.811,27.51,7.987,7.125,8.809
1531,0.872,37.362,11.004,31.849,27.517,8.027,7.205,8.93
1532,0.869,37.349,10.992,31.802,27.507,7.783,7.003,8.728
1533,0.869,37.464,11.008,31.811,27.514,7.781,7.163,8.848
1534,0.882,37.59,10.969,31.811,27.524,7.822,7.206,8.727
1535,0.885,37.371,11.035,31.811,27.51,7.781,7.043,8.603
1536,0.889,37.512,11.016,31.811,27.517,7.7,7.164,8.684
1537,0.889,37.619,10.926,31.801,27.521,7.699,7.084,8.603
1538,0.882,37.735,10.98,31.811,27.514,7.78,7.083,8.602
1539,0.876,37.315,10.918,31.773,27.507,7.618,7.042,8.521
1540,0.872,37.454,10.98,31.839,27.528,7.779,7.164,8.642
1541,0.863,37.59,10.902,31.83,27.521,7.7,7.124,8.481
1542,0.853,37.658,10.956,31.802,27.5,7.536,6.961,8.357
1543,0.859,37.429,10.968,31.811,27.514,7.616,7.041,8.478
1544,0.862,37.551,10.972,31.811,27.514,7.535,7.001,8.398
1545,0.853,37.696,10.988,31.801,27.517,7.494,6.96,8.438
1546,0.833,37.707,10.953,31.83,27.514,7.453,6.96,8.316
1547,0.839,37.343,11.011,31.84,27.531,7.615,7.082,8.396
1548,0.843,37.483,11.016,31.84,27.517,7.413,6.839,8.275
1549,0.83,37.552,11.02,31.792,27.51,7.371,6.918,8.314
1550,0.859,37.62,10.973,31.84,27.524,7.411,6.959,8.274
1551,0.856,37.294,10.972,31.811,27.517,7.411,6.878,8.193
1552,0.856,37.435,11.004,31.84,27.521,7.452,6.837,8.273
1553,0.856,37.551,10.973,31.83,27.514,7.33,6.755,8.152
1554,0.879,37.898,10.984,31.83,27.514,7.41,6.795,8.191
1555,0.866,37.307,11.023,31.811,27.507,7.289,6.673,8.07
1556,0.866,37.435,10.989,31.821,27.521,7.41,6.916,8.272
1557,0.872,37.571,10.988,31.869,27.514,7.533,6.878,8.152
1558,0.84,37.39,10.937,31.802,27.51,7.453,6.796,8.191
1559,0.852,37.426,10.964,31.83,27.514,7.493,6.795,8.232
1560,0.853,37.532,10.996,31.821,27.51,7.494,6.795,8.192
1561,0.859,37.648,11.02,31.878,27.514,7.656,6.877,8.192
1562,0.84,37.17,10.938,31.812,27.51,7.617,6.877,8.232
1563,0.865,37.318,11.015,31.859,27.531,7.698,7.081,8.355
1564,0.846,37.454,10.965,31.84,27.521,7.658,6.961,8.153
1565,0.843,37.523,10.968,31.811,27.507,7.576,6.96,8.191
1566,0.843,37.255,10.984,31.83,27.517,7.698,7.041,8.232
1567,0.859,37.377,11.012,31.83,27.514,7.618,6.96,8.273
1568,0.856,37.484,11.035,31.84,27.517,7.698,7.041,8.233
1569,0.849,37.571,10.996,31.83,27.514,7.618,7.001,8.192
1570,0.872,37.332,10.961,31.869,27.524,7.698,7.001,8.314
1571,0.879,37.435,11.023,31.831,27.507,7.496,6.879,8.112
1572,0.866,37.532,10.926,31.821,27.514,7.656,7.04,8.354
1573,0.889,37.61,10.956,31.849,27.514,7.698,7.042,8.315
1574,0.885,37.265,11.007,31.831,27.514,7.618,6.879,8.193
1575,0.879,37.387,11.039,31.83,27.517,7.739,7.081,8.273
1576,0.895,37.503,10.954,31.83,27.51,7.699,7.002,8.233
1577,0.895,37.542,10.968,31.83,27.514,7.74,7.001,8.273
1578,0.879,37.361,10.937,31.821,27.5,7.659,7.001,8.233
1579,0.879,37.531,10.98,31.849,27.524,7.902,7.082,8.436
1580,0.866,37.648,11.051,31.84,27.524,7.823,6.961,8.153
1581,0.862,37.659,11.016,31.83,27.507,7.741,6.96,8.232
1582,0.859,37.276,10.992,31.84,27.517,7.781,6.96,8.273
1583,0.856,37.406,11.027,31.85,27.503,7.822,6.878,8.193
1584,0.856,37.513,10.946,31.869,27.517,7.863,6.877,8.314
1585,0.853,37.197,10.964,31.85,27.514,7.822,6.918,8.193
1586,0.862,37.146,10.984,31.878,27.517,7.944,6.878,8.232
1587,0.849,37.251,11.008,31.831,27.503,7.905,6.674,8.029
1588,0.856,37.339,11.031,31.859,27.51,8.067,6.875,8.312
1589,0.859,37.205,10.993,31.859,27.521,8.191,6.877,8.193
1590,0.869,37.319,10.977,31.85,27.503,8.151,6.755,8.07
1591,0.885,37.464,10.98,31.85,27.517,8.191,6.876,8.15
1592,0.898,37.523,10.953,31.85,27.514,8.151,6.715,8.191
1593,0.899,37.178,10.996,31.869,27.514,8.232,6.794,8.11
1594,0.902,37.261,11.016,31.831,27.507,8.111,6.755,8.069
1595,0.892,37.387,11.039,31.849,27.521,8.313,6.876,8.272
1596,0.899,37.474,10.946,31.878,27.517,8.274,6.796,8.111
1597,0.876,37.168,10.976,31.86,27.514,8.152,6.714,8.069
1598,0.895,37.318,10.961,31.859,27.514,8.273,6.794,8.069
1599,0.895,37.454,10.988,31.85,27.514,8.193,6.673,7.987
1600,0.882,37.504,11.039,31.869,27.517,8.07,6.713,8.068
1601,0.853,37.13,10.977,31.85,27.514,8.069,6.713,8.028
1602,0.853,37.328,10.996,31.898,27.531,8.191,6.754,8.109
1603,0.856,37.426,10.98,31.86,27.514,7.988,6.592,7.865
1604,0.833,37.446,10.984,31.85,27.507,7.946,6.671,8.026
1605,0.846,37.206,10.953,31.878,27.521,7.986,6.713,8.068
1606,0.846,37.328,10.984,31.869,27.51,7.905,6.632,7.906
1607,0.84,37.435,11.051,31.86,27.514,7.945,6.712,7.985
1608,0.839,37.427,11.001,31.869,27.521,7.864,6.672,7.864
1609,0.872,37.187,10.91,31.888,27.514,8.026,6.672,7.863
1610,0.859,37.29,10.944,31.85,27.507,8.027,6.631,7.741
1611,0.849,37.387,10.996,31.869,27.521,8.353,6.753,7.984
1612,0.853,37.321,10.996,31.927,27.517,8.478,6.714,7.864
1613,0.849,37.215,10.945,31.87,27.517,8.723,6.591,7.741
1614,0.846,37.367,11.027,31.869,27.521,9.132,6.753,7.821
1615,0.84,37.455,11.008,31.869,27.51,9.461,6.673,7.7
1616,0.849,37.158,10.996,31.917,27.517,9.871,6.631,7.74
1617,0.827,37.222,10.926,31.831,27.507,9.997,6.672,7.659
1618,0.839,37.357,10.964,31.907,27.524,10.487,6.835,7.82
1619,0.833,37.474,11.027,31.879,27.524,10.654,6.714,7.7
1620,0.8,37.082,10.992,31.86,27.504,10.818,6.632,7.618
1621,0.81,37.241,10.992,31.888,27.524,11.145,6.712,7.779
1622,0.807,37.358,10.984,31.879,27.51,11.23,6.632,7.618
1623,0.82,37.445,11.0,31.898,27.517,11.434,6.672,7.698
1624,0.797,37.101,10.941,31.908,27.51,11.517,6.713,7.658
1625,0.82,37.26,10.972,31.908,27.524,11.681,6.754,7.658
1626,0.82,37.377,11.023,31.869,27.514,11.683,6.551,7.536
1627,0.813,37.407,11.039,31.888,27.521,11.804,6.793,7.738
1628,0.82,37.168,11.004,31.898,27.517,11.887,6.755,7.699
1629,0.836,37.29,10.817,31.898,27.51,11.806,6.673,7.577
1630,0.836,37.435,10.924,31.908,27.517,11.806,6.753,7.616
1631,0.836,37.475,11.011,31.889,27.51,11.806,6.714,7.617
1632,0.833,37.13,10.988,31.908,27.51,11.765,6.713,7.698
1633,0.813,37.232,10.957,31.879,27.507,11.724,6.632,7.658
1634,0.826,37.358,11.023,31.907,27.524,11.805,6.834,7.78
1635,0.843,37.407,10.981,31.908,27.517,11.643,6.674,7.659
1636,0.839,37.196,10.969,31.869,27.507,11.479,6.631,7.576
1637,0.826,37.357,10.98,31.907,27.514,11.558,6.834,7.738
1638,0.82,37.464,11.043,31.879,27.51,11.356,6.633,7.618
1639,0.83,37.379,11.047,31.898,27.514,11.354,6.712,7.698
1640,0.81,37.119,10.997,31.898,27.517,11.232,6.713,7.658
1641,0.842,37.328,10.988,31.936,27.531,11.19,6.876,7.658
1642,0.826,37.387,11.004,31.908,27.507,10.864,6.715,7.576
1643,0.843,37.091,10.93,31.898,27.514,10.78,6.876,7.698
1644,0.833,37.193,10.956,31.927,27.517,10.82,6.877,7.821
1645,0.82,37.29,10.953,31.898,27.51,10.576,6.877,7.659
1646,0.81,37.416,10.976,31.927,27.514,10.655,6.877,7.698
1647,0.82,37.091,10.988,31.918,27.51,10.534,6.918,7.74
1648,0.852,37.27,10.934,31.917,27.521,10.41,6.959,7.74
1649,0.83,37.367,10.941,31.87,27.5,10.165,6.838,7.659
1650,0.826,37.445,10.96,31.927,27.521,10.285,7.04,7.942
1651,0.843,37.177,11.0,31.927,27.521,10.164,7.042,7.823
1652,0.81,37.309,10.969,31.898,27.514,9.96,6.92,7.741
1653,0.807,37.425,10.957,31.936,27.514,10.039,7.041,7.781
1654,0.82,37.484,11.019,31.908,27.507,9.836,6.96,7.74
1655,0.839,37.092,10.91,31.917,27.517,9.794,7.041,7.74
1656,0.82,37.222,10.937,31.927,27.514,9.671,7.001,7.74
1657,0.833,37.386,10.984,31.956,27.524,9.711,7.041,7.699
1658,0.823,37.417,11.0,31.927,27.51,9.467,6.96,7.618
1659,0.797,37.177,11.051,31.918,27.514,9.383,7.122,7.82
1660,0.8,37.347,10.954,31.956,27.521,9.423,7.083,7.781
1661,0.8,37.435,10.972,31.937,27.507,9.261,7.042,7.659
1662,0.803,37.494,11.015,31.946,27.514,9.259,7.082,7.739
1663,0.8,37.025,10.926,31.946,27.517,9.056,7.164,7.659
1664,0.81,37.173,10.972,31.956,27.514,9.013,7.165,7.78
1665,0.81,37.251,10.961,31.927,27.503,8.81,7.043,7.7
1666,0.803,37.473,11.031,31.937,27.517,8.93,7.326,7.861
1667,0.8,37.207,10.969,31.946,27.517,8.809,7.207,7.741
1668,0.813,37.319,10.933,31.927,27.503,8.604,7.125,7.659
1669,0.836,37.426,10.964,31.965,27.517,8.684,7.327,7.739
1670,0.833,37.101,10.91,31.947,27.507,8.562,7.248,7.699
1671,0.836,37.145,10.968,31.966,27.517,8.521,7.328,7.74
1672,0.833,37.251,10.941,31.947,27.51,8.439,7.329,7.699
1673,0.836,37.386,10.98,31.994,27.528,8.519,7.492,7.699
1674,0.836,37.359,11.015,31.966,27.514,8.276,7.29,7.577
1675,0.83,37.455,10.91,31.966,27.514,8.274,7.41,7.657
1676,0.833,37.619,10.964,31.975,27.514,8.396,7.452,7.658
1677,0.826,37.678,10.98,31.947,27.51,8.316,7.371,7.495
1678,0.836,36.921,11.035,31.966,27.517,8.356,7.452,7.616
1679,0.833,37.057,11.043,31.966,27.514,8.437,7.534,7.535
1680,0.826,37.231,10.989,31.995,27.517,8.438,7.534,7.575
1681,0.817,37.252,10.93,31.966,27.507,8.438,7.372,7.454
1682,0.81,37.214,10.999,31.975,27.524,8.763,7.614,7.656
1683,0.82,37.386,11.012,31.985,27.517,8.726,7.495,7.576
1684,0.813,37.484,10.906,31.966,27.503,8.726,7.534,7.494
1685,0.82,37.542,11.038,31.985,27.521,8.848,7.616,7.575
1686,0.803,37.044,10.977,31.976,27.51,8.93,7.535,7.454
1687,0.803,37.173,10.91,31.995,27.521,9.012,7.534,7.615
1688,0.794,37.28,10.937,31.976,27.514,9.013,7.534,7.535
1689,0.806,37.368,10.968,32.014,27.531,9.135,7.575,7.534
1690,0.813,37.167,11.019,32.005,27.511,9.055,7.372,7.372
1691,0.813,37.28,10.93,31.966,27.51,9.054,7.533,7.614
1692,0.82,37.435,10.968,32.004,27.517,9.176,7.575,7.617
1693,0.82,37.532,10.996,31.976,27.51,9.055,7.494,7.495
1694,0.833,37.14,11.0,31.995,27.514,9.176,7.534,7.738
1695,0.826,37.28,10.965,31.985,27.514,9.096,7.453,7.74
1696,0.833,37.435,10.984,32.004,27.517,9.217,7.493,7.943
1697,0.82,37.12,11.027,31.966,27.507,9.056,7.412,7.986
1698,0.813,37.136,11.043,31.995,27.521,9.176,7.615,8.271
1699,0.829,37.261,11.0,31.995,27.524,9.177,7.535,8.314
1700,0.836,37.358,10.941,31.995,27.507,9.015,7.412,8.315
1701,0.81,37.033,10.945,32.024,27.517,9.135,7.452,8.559
1702,0.82,37.145,10.988,31.995,27.507,9.055,7.412,8.561
1703,0.813,37.27,10.969,31.995,27.514,9.135,7.411,8.683
1704,0.807,37.329,10.976,31.985,27.514,9.095,7.411,8.847
1705,0.813,37.243,11.031,32.033,27.528,9.258,7.533,9.052
1706,0.794,37.377,10.965,32.024,27.514,9.056,7.412,9.095
1707,0.787,37.474,10.867,32.024,27.507,9.135,7.411,9.542
1708,0.803,37.571,10.96,32.034,27.521,9.136,7.452,9.831
1709,0.803,36.968,10.953,32.005,27.514,9.014,7.371,9.875
1710,0.813,37.106,11.019,32.024,27.51,9.176,7.33,10.241
1711,0.816,37.251,11.012,32.024,27.514,9.055,7.289,10.489
1712,0.833,37.339,10.946,32.053,27.517,9.095,7.369,10.654
1713,0.836,37.004,11.027,32.005,27.51,8.932,7.289,10.818
1714,0.839,37.144,10.934,32.024,27.528,9.134,7.41,11.105
1715,0.846,37.29,10.968,32.053,27.514,9.055,7.371,11.067
1716,0.84,37.32,10.992,32.015,27.507,8.932,7.208,11.148
1717,0.836,37.167,11.043,32.062,27.524,8.972,7.369,11.352
1718,0.826,37.28,11.032,32.034,27.51,8.891,7.289,11.313
1719,0.82,37.416,10.938,32.043,27.514,8.89,7.247,11.394
1720,0.803,37.407,10.945,32.043,27.51,8.809,7.206,11.354
1721,0.81,37.081,11.027,32.072,27.528,8.889,7.287,11.354
1722,0.803,37.193,10.942,32.044,27.51,8.687,7.125,11.232
1723,0.807,37.3,10.964,32.034,27.507,8.725,7.287,11.393
1724,0.797,37.176,10.98,32.062,27.514,8.644,7.207,11.354
1725,0.781,37.117,10.988,32.043,27.507,8.481,7.125,11.11
1726,0.816,37.26,10.926,32.062,27.51,8.56,7.205,11.23
1727,0.813,37.367,10.968,32.053,27.514,8.48,7.165,11.068
1728,0.836,36.956,10.969,32.072,27.514,8.357,7.165,11.026
1729,0.817,37.0,10.949,32.044,27.5,8.193,7.124,10.863
1730,0.807,37.154,11.054,32.062,27.514,8.436,7.205,10.983
1731,0.833,37.28,10.954,32.072,27.514,8.235,7.043,10.781
1732,0.83,36.955,10.988,32.053,27.503,8.07,6.96,10.657
1733,0.839,37.105,11.0,32.091,27.514,8.109,7.082,10.615
1734,0.843,37.232,10.984,32.14,27.51,8.028,6.961,10.574
1735,0.836,37.31,10.961,32.083,27.514,8.027,7.0,10.411
1736,0.843,37.061,10.968,32.053,27.51,7.987,6.96,10.287
1737,0.846,37.231,11.043,32.101,27.524,8.068,7.041,10.286
1738,0.836,37.367,11.004,32.082,27.514,7.865,6.92,10.001
1739,0.82,37.397,10.945,32.063,27.503,7.863,6.878,10.08
1740,0.81,36.995,10.957,32.091,27.514,7.944,7.0,10.04
1741,0.81,37.106,10.976,32.082,27.507,7.823,6.838,9.918
1742,0.79,37.251,10.949,32.092,27.517,7.863,6.918,9.957
1743,0.787,37.3,10.953,32.082,27.503,7.822,6.919,9.957
1744,0.81,37.109,10.996,32.12,27.514,7.863,6.878,9.876
1745,0.803,37.193,10.98,32.073,27.5,7.741,6.755,9.794
1746,0.784,37.309,10.918,32.091,27.514,7.903,6.957,9.996
1747,0.793,37.358,10.956,32.111,27.517,7.782,7.0,9.917
1748,0.793,37.004,10.961,32.082,27.514,7.781,6.797,9.794
1749,0.806,37.173,11.023,32.101,27.517,7.7,6.877,9.834
1750,0.813,37.261,11.059,32.111,27.497,7.699,6.837,9.834
1751,0.813,37.118,10.993,32.121,27.517,7.78,6.877,9.753
1752,0.8,36.925,11.019,32.092,27.51,7.659,6.837,9.712
1753,0.826,37.105,10.992,32.159,27.524,7.698,6.877,9.67
1754,0.836,37.212,10.973,32.121,27.507,7.496,6.796,9.548
1755,0.817,37.003,10.937,32.121,27.51,7.616,6.877,9.588
1756,0.813,37.106,11.011,32.121,27.514,7.657,6.918,9.547
1757,0.816,37.212,10.996,32.121,27.514,7.536,6.796,9.344
1758,0.8,37.3,10.973,32.13,27.514,7.657,6.755,9.423
1759,0.797,36.85,10.988,32.15,27.514,7.576,6.795,9.342
1760,0.807,36.999,10.976,32.14,27.517,7.616,6.795,9.342
1761,0.8,37.058,11.019,32.121,27.503,7.373,6.714,9.179
1762,0.8,37.174,10.992,32.14,27.51,7.655,6.876,9.38
1763,0.82,36.954,10.961,32.14,27.517,7.576,6.796,9.179
1764,0.81,37.057,10.98,32.121,27.503,7.494,6.714,9.015
1765,0.807,37.212,10.941,32.149,27.514,7.534,6.794,9.135
1766,0.803,37.281,10.949,32.15,27.517,7.575,6.714,9.014
1767,0.82,36.85,10.933,32.131,27.503,7.535,6.754,9.013
1768,0.813,36.98,10.976,32.15,27.517,7.494,6.836,8.932
1769,0.826,37.134,11.051,32.179,27.528,7.616,6.755,8.89
1770,0.833,37.184,10.985,32.15,27.504,7.413,6.592,8.687
1771,0.81,36.954,10.965,32.131,27.514,7.533,6.793,8.888
1772,0.826,37.115,11.023,32.169,27.517,7.494,6.755,8.768
1773,0.804,37.213,10.973,32.131,27.514,7.494,6.714,8.645
1774,0.794,37.252,10.945,32.159,27.514,7.412,6.794,8.644
1775,0.803,36.936,10.988,32.14,27.514,7.493,6.714,8.603
1776,0.839,37.105,11.031,32.159,27.517,7.453,6.794,8.602
1777,0.813,37.174,11.008,32.14,27.503,7.33,6.673,8.48
1778,0.794,37.194,10.918,32.159,27.51,7.532,6.997,8.682
1779,0.793,36.974,10.933,32.169,27.521,7.453,6.919,8.603
1780,0.787,37.067,10.96,32.14,27.507,7.371,6.715,8.521
1781,0.79,37.183,10.953,32.169,27.521,7.492,6.957,8.601
1782,0.79,36.897,10.98,32.16,27.514,7.494,6.797,8.521
1783,0.806,36.951,11.004,32.169,27.514,7.534,6.917,8.601
1784,0.797,37.067,11.008,32.179,27.514,7.494,6.837,8.602
1785,0.813,37.193,10.992,32.236,27.524,7.494,6.837,8.602
1786,0.816,36.801,10.949,32.17,27.51,7.331,6.796,8.521
1787,0.82,36.902,10.992,32.179,27.514,7.451,6.958,8.642
1788,0.83,37.057,11.012,32.179,27.517,7.534,6.878,8.684
1789,0.833,37.097,11.027,32.16,27.51,7.412,6.877,8.603
1790,0.836,36.896,11.035,32.179,27.517,7.452,6.918,8.602
1791,0.839,37.038,10.938,32.188,27.514,7.452,6.919,8.48
1792,0.843,37.164,11.023,32.179,27.517,7.452,6.919,8.601
1793,0.807,37.213,10.957,32.16,27.507,7.29,6.959,8.521
1794,0.803,36.772,10.976,32.188,27.524,7.532,7.122,8.601
1795,0.82,36.902,11.027,32.188,27.514,7.412,6.961,8.44
1796,0.82,36.999,11.0,32.169,27.507,7.249,7.0,8.479
1797,0.807,37.096,10.941,32.198,27.51,7.369,7.001,8.56
1798,0.794,36.819,10.933,32.179,27.514,7.289,6.879,8.439
1799,0.79,36.97,10.953,32.188,27.51,7.329,6.959,8.601
1800,0.787,37.077,10.957,32.179,27.51,7.289,6.878,8.48
1801,0.826,37.145,10.949,32.227,27.524,7.369,7.0,8.479
1802,0.83,36.839,10.964,32.198,27.507,7.167,6.879,8.357
1803,0.817,36.951,10.972,32.16,27.514,7.165,6.959,8.519
1804,0.81,37.077,10.976,32.198,27.517,7.246,7.0,8.601
1805,0.79,37.366,10.933,32.189,27.514,7.125,6.879,8.562
1806,0.793,36.831,10.96,32.208,27.521,7.246,6.959,8.643
1807,0.797,36.979,10.988,32.198,27.517,7.206,6.838,8.521
1808,0.81,37.096,11.043,32.198,27.521,7.125,6.837,8.561
1809,0.797,36.771,11.028,32.169,27.507,7.002,6.837,8.48
1810,0.79,36.825,10.938,32.217,27.514,7.163,7.04,8.723
1811,0.797,36.96,10.98,32.208,27.517,7.165,6.92,8.563
1812,0.803,37.029,10.933,32.198,27.514,7.043,6.796,8.561
1813,0.794,36.703,10.972,32.208,27.517,7.042,6.877,8.602
1814,0.806,36.815,10.996,32.217,27.514,7.042,6.877,8.562
1815,0.816,36.951,11.031,32.198,27.514,7.001,6.837,8.602
1816,0.826,36.99,10.961,32.16,27.514,6.96,6.877,8.643
1817,0.83,36.693,10.968,32.236,27.531,7.122,7.0,8.847
1818,0.836,36.834,10.98,32.227,27.514,6.88,6.879,8.646
1819,0.823,36.941,10.945,32.198,27.507,6.796,6.837,8.725
1820,0.82,37.019,11.05,32.217,27.517,6.917,6.958,8.848
1821,0.817,36.713,10.989,32.198,27.507,6.837,6.96,8.767
1822,0.82,36.854,10.965,32.208,27.517,6.958,7.082,8.889
1823,0.787,36.941,10.996,32.217,27.521,6.838,7.042,8.849
1824,0.784,37.067,10.922,32.265,27.517,6.837,7.042,8.93
1825,0.774,36.771,10.956,32.218,27.507,6.714,6.92,8.809
1826,0.751,36.902,10.957,32.237,27.514,6.835,7.122,8.97
1827,0.754,37.019,11.027,32.237,27.517,6.837,7.165,8.931
1828,0.757,37.049,11.051,32.218,27.51,6.755,7.043,8.85
1829,0.757,36.569,11.02,32.246,27.507,6.876,7.164,8.889
1830,0.767,36.708,10.977,32.247,27.514,6.837,7.084,8.849
1831,0.777,36.815,10.988,32.237,27.51,6.918,7.083,8.971
1832,0.767,36.797,10.941,32.218,27.507,6.878,7.083,8.891
1833,0.774,36.797,10.953,32.256,27.521,7.121,7.286,8.971
1834,0.767,36.95,11.015,32.256,27.514,7.124,7.125,8.769
1835,0.774,37.029,11.051,32.227,27.51,7.124,7.083,8.767
1836,0.8,36.751,10.93,32.246,27.517,7.327,7.164,8.848
1837,0.784,36.72,10.96,32.256,27.514,7.289,7.084,8.646
1838,0.774,36.844,10.933,32.247,27.514,7.369,7.123,8.725
1839,0.774,36.961,11.011,32.266,27.514,7.411,7.165,8.685
1840,0.764,36.779,11.055,32.295,27.531,7.615,7.246,8.644
1841,0.764,36.864,11.008,32.257,27.507,7.576,7.044,8.481
1842,0.761,36.999,10.985,32.266,27.51,7.657,7.245,8.682
1843,0.751,37.087,11.0,32.275,27.514,7.739,7.328,8.603
1844,0.744,36.541,11.0,32.324,27.51,7.699,7.207,8.521
1845,0.767,36.67,10.922,32.276,27.514,7.74,7.287,8.561
1846,0.757,36.805,10.976,32.285,27.521,7.74,7.247,8.399
1847,0.757,36.874,10.996,32.276,27.51,7.821,7.328,8.438
1848,0.748,36.491,10.992,32.237,27.507,7.7,7.289,8.357
1849,0.751,36.66,10.906,32.304,27.521,7.943,7.573,8.519
1850,0.774,36.815,10.948,32.276,27.521,7.864,7.454,8.398
1851,0.78,36.845,11.007,32.266,27.51,7.7,7.452,8.356
1852,0.793,36.625,10.867,32.314,27.51,7.902,7.615,8.397
1853,0.774,36.747,10.94,32.286,27.51,7.742,7.535,8.234
1854,0.777,36.873,11.035,32.285,27.517,7.781,7.534,8.273
1855,0.784,36.894,11.0,32.295,27.514,7.862,7.534,8.193
1856,0.8,36.74,10.969,32.343,27.517,7.863,7.575,8.232
1857,0.787,36.835,10.914,32.276,27.507,7.7,7.535,8.111
1858,0.787,36.941,10.941,32.285,27.517,7.861,7.697,8.272
1859,0.793,36.981,10.972,32.314,27.517,7.822,7.699,8.274
1860,0.777,36.645,11.027,32.295,27.507,7.659,7.536,8.274
1861,0.784,36.824,10.981,32.314,27.521,7.739,7.657,8.355
1862,0.777,36.912,10.953,32.295,27.51,7.699,7.576,8.315
1863,0.78,36.741,11.015,32.314,27.514,7.699,7.657,8.356
1864,0.764,36.662,10.926,32.295,27.51,7.536,7.617,8.356
1865,0.78,36.824,10.976,32.352,27.524,7.819,7.698,8.559
1866,0.777,36.941,10.988,32.353,27.514,7.619,7.577,8.358
1867,0.787,36.501,11.016,32.305,27.507,7.495,7.535,8.397
1868,0.787,36.593,10.992,32.333,27.517,7.616,7.575,8.397
1869,0.79,36.728,10.871,32.324,27.507,7.535,7.454,8.316
1870,0.803,36.835,10.944,32.353,27.517,7.575,7.534,8.437
1871,0.803,36.567,10.992,32.334,27.514,7.575,7.494,8.357
1872,0.813,36.747,11.016,32.362,27.521,7.616,7.534,8.437
1873,0.8,36.844,10.969,32.324,27.51,7.495,7.25,8.275
1874,0.794,36.913,11.004,32.324,27.51,7.656,7.532,8.436
1875,0.8,36.424,10.988,32.324,27.521,7.658,7.453,8.397
1876,0.784,36.573,10.976,32.343,27.503,7.658,7.371,8.275
1877,0.784,36.708,10.949,32.363,27.514,7.698,7.492,8.274
1878,0.793,36.787,10.96,32.353,27.514,7.78,7.371,8.233
1879,0.793,36.519,11.031,32.363,27.517,7.781,7.37,8.273
1880,0.774,36.602,10.985,32.324,27.507,7.781,7.289,8.233
1881,0.784,36.795,10.961,32.381,27.528,7.944,7.491,8.355
1882,0.774,36.835,11.011,32.353,27.51,7.783,7.29,8.193
1883,0.767,36.462,10.926,32.343,27.517,7.862,7.247,8.395
1884,0.77,36.65,10.956,32.382,27.517,7.944,7.328,8.438
1885,0.754,36.776,10.949,32.363,27.514,7.823,7.207,8.357
1886,0.735,36.787,11.0,32.382,27.517,7.822,7.287,8.356
1887,0.744,36.576,11.004,32.363,27.51,7.863,7.247,8.356
1888,0.767,36.737,10.949,32.372,27.517,7.863,7.206,8.437
1889,0.764,36.825,10.949,32.344,27.507,7.7,7.125,8.357
1890,0.761,36.701,10.914,32.391,27.517,7.861,7.287,8.559
1891,0.78,36.499,10.987,32.382,27.514,7.822,7.288,8.48
1892,0.771,36.641,10.957,32.372,27.51,7.7,7.166,8.438
1893,0.77,36.757,10.961,32.392,27.517,7.78,7.246,8.641
1894,0.767,36.451,11.027,32.363,27.517,7.618,7.084,8.521
1895,0.774,36.554,10.918,32.382,27.514,7.698,7.164,8.601
1896,0.774,36.67,10.948,32.363,27.514,7.618,7.206,8.643
1897,0.787,36.815,10.933,32.411,27.524,7.698,7.287,8.725
1898,0.79,36.51,11.003,32.373,27.517,7.536,7.125,8.644
1899,0.774,36.612,11.027,32.363,27.507,7.494,7.287,8.765
1900,0.777,36.747,10.977,32.42,27.514,7.575,7.247,8.889
1901,0.761,36.854,10.972,32.382,27.514,7.413,7.166,8.809
1902,0.777,36.519,11.008,32.372,27.514,7.411,7.287,8.93
1903,0.774,36.66,10.945,32.392,27.51,7.452,7.247,8.972
1904,0.771,36.824,10.953,32.43,27.521,7.371,7.288,9.053
1905,0.787,36.855,10.964,32.392,27.514,7.248,7.085,8.932
1906,0.774,36.328,11.019,32.392,27.514,7.41,7.286,9.256
1907,0.797,36.495,10.961,32.42,27.514,7.452,7.288,9.178
1908,0.784,36.602,10.922,32.402,27.507,7.33,7.166,9.177
1909,0.777,36.651,10.933,32.411,27.517,7.451,7.246,9.259
1910,0.787,36.565,10.964,32.402,27.514,7.412,7.247,9.219
1911,0.79,36.699,10.941,32.421,27.517,7.452,7.328,9.34
1912,0.771,36.806,10.945,32.392,27.507,7.371,7.207,9.301
1913,0.767,36.855,10.957,32.43,27.521,7.492,7.369,9.463
1914,0.783,36.424,10.996,32.411,27.514,7.453,7.208,9.262
1915,0.774,36.525,10.969,32.43,27.503,7.29,7.287,9.259
1916,0.78,36.679,10.926,32.43,27.524,7.369,7.329,9.3
1917,0.751,36.69,10.968,32.411,27.514,7.37,7.289,9.26
1918,0.757,36.355,11.011,32.421,27.514,7.411,7.329,9.422
1919,0.757,36.505,11.031,32.43,27.507,7.33,7.329,9.342
1920,0.777,36.66,11.0,32.459,27.521,7.41,7.41,9.382
1921,0.774,36.508,10.945,32.431,27.514,7.208,7.249,9.22
1922,0.764,36.554,11.003,32.402,27.517,7.287,7.45,9.381
1923,0.783,36.699,10.981,32.44,27.514,7.288,7.452,9.301
1924,0.748,36.796,10.941,32.431,27.51,7.166,7.412,9.26
1925,0.764,36.413,10.964,32.44,27.514,7.287,7.574,9.259
1926,0.761,36.534,10.98,32.431,27.517,7.166,7.494,9.259
1927,0.77,36.679,10.961,32.45,27.51,7.206,7.494,9.259
1928,0.767,36.738,10.925,32.411,27.503,7.206,7.534,9.219
1929,0.77,36.327,10.972,32.469,27.531,7.287,7.697,9.3
1930,0.764,36.485,10.98,32.45,27.517,7.125,7.618,9.097
1931,0.761,36.573,10.926,32.45,27.507,7.083,7.535,9.095
1932,0.79,36.68,10.929,32.45,27.517,7.123,7.657,9.258
1933,0.774,36.336,11.003,32.431,27.521,7.083,7.495,9.056
1934,0.771,36.486,10.938,32.459,27.514,7.042,7.616,9.135
1935,0.793,36.593,10.941,32.45,27.521,7.001,7.617,9.095
1936,0.803,36.709,10.992,32.488,27.521,7.082,7.576,9.136
1937,0.79,36.355,10.988,32.441,27.51,6.88,7.413,9.014
1938,0.78,36.486,11.035,32.459,27.507,7.0,7.574,9.135
1939,0.787,36.612,10.969,32.479,27.514,7.041,7.616,9.177
1940,0.784,36.661,10.969,32.46,27.514,6.92,7.413,8.974
1941,0.78,36.364,10.992,32.46,27.517,7.0,7.533,9.094
1942,0.771,36.515,10.969,32.469,27.514,6.879,7.453,9.014
1943,0.79,36.65,10.969,32.469,27.517,6.837,7.493,9.013
1944,0.771,36.93,10.957,32.45,27.507,6.714,7.453,9.013
1945,0.767,36.386,11.031,32.488,27.524,6.998,7.615,9.135
1946,0.764,36.534,10.969,32.489,27.517,6.838,7.454,8.852
1947,0.77,36.622,10.933,32.479,27.507,6.714,7.412,8.849
1948,0.79,36.364,10.953,32.469,27.517,6.794,7.493,8.93
1949,0.758,36.371,10.925,32.479,27.514,6.714,7.412,8.728
1950,0.777,36.515,10.984,32.479,27.517,6.713,7.533,8.766
1951,0.764,36.602,10.953,32.488,27.514,6.672,7.494,8.726
1952,0.767,36.201,10.957,32.508,27.521,6.631,7.494,8.807
1953,0.774,36.264,11.004,32.47,27.507,6.509,7.371,8.645
1954,0.767,36.408,10.926,32.479,27.514,6.63,7.533,8.847
1955,0.78,36.525,10.995,32.498,27.521,6.672,7.534,8.727
1956,0.784,36.219,10.973,32.469,27.514,6.509,7.412,8.685
1957,0.8,36.398,11.043,32.488,27.517,6.589,7.452,8.725
1958,0.781,36.505,11.008,32.489,27.514,6.549,7.412,8.685
1959,0.774,36.621,10.926,32.498,27.514,6.508,7.452,8.766
1960,0.744,36.23,10.925,32.469,27.5,6.467,7.33,8.685
1961,0.747,36.389,10.96,32.508,27.517,6.629,7.532,8.847
1962,0.767,36.524,10.929,32.517,27.507,6.509,7.331,8.727
1963,0.761,36.555,10.937,32.489,27.503,6.467,7.289,8.726
1964,0.761,36.325,11.027,32.508,27.517,6.589,7.329,8.807
1965,0.751,36.457,11.012,32.508,27.51,6.509,7.248,8.726
1966,0.744,36.592,10.934,32.527,27.514,6.589,7.328,8.807
1967,0.744,36.632,10.964,32.508,27.514,6.59,7.248,8.726
1968,0.777,37.256,10.926,32.537,27.524,6.712,7.328,8.726
1969,0.774,37.367,10.984,32.518,27.514,6.591,7.167,8.644
1970,0.771,37.426,11.0,32.489,27.51,6.631,7.287,8.765
1971,0.783,37.484,10.984,32.517,27.51,6.753,7.288,8.767
1972,0.784,35.807,10.945,32.518,27.51,6.714,7.207,8.726
1973,0.78,35.943,11.007,32.518,27.514,6.754,7.247,8.766
1974,0.787,36.069,10.961,32.527,27.514,6.795,7.288,8.685
1975,0.8,36.358,10.976,32.527,27.514,6.795,7.288,8.725
1976,0.787,36.447,11.012,32.489,27.503,6.714,7.207,8.644
1977,0.771,36.573,11.016,32.527,27.521,6.876,7.491,8.806
1978,0.777,36.699,10.957,32.546,27.521,6.877,7.412,8.686
1979,0.777,36.106,10.941,32.566,27.507,6.837,7.289,8.603
1980,0.797,36.205,10.929,32.547,27.514,6.918,7.451,8.602
1981,0.771,36.321,10.949,32.527,27.517,6.837,7.412,8.602
1982,0.761,36.437,10.964,32.546,27.514,6.918,7.452,8.602
1983,0.761,36.113,10.937,32.527,27.51,6.837,7.412,8.562
1984,0.774,36.301,11.019,32.575,27.524,6.999,7.574,8.602
1985,0.78,36.408,10.965,32.556,27.51,6.838,7.454,8.44
1986,0.774,36.477,10.953,32.537,27.507,6.796,7.452,8.438
1987,0.767,36.142,10.937,32.547,27.517,6.836,7.534,8.479
1988,0.793,36.263,10.953,32.527,27.51,6.755,7.453,8.357
1989,0.793,36.399,11.023,32.556,27.514,6.795,7.534,8.397
1990,0.803,36.457,10.942,32.537,27.507,6.836,7.453,8.275
1991,0.826,36.257,10.957,32.575,27.51,6.755,7.534,8.396
1992,0.83,36.351,10.972,32.518,27.5,6.673,7.372,8.316
1993,0.82,36.495,10.906,32.585,27.51,6.835,7.533,8.437
1994,0.839,36.554,10.929,32.576,27.51,6.755,7.453,8.357
1995,0.839,36.229,10.964,32.547,27.507,6.673,7.33,8.193
1996,0.849,36.379,11.007,32.566,27.517,6.713,7.41,8.192
1997,0.833,36.486,10.945,32.556,27.517,6.632,7.33,8.11
1998,0.839,36.506,10.898,32.566,27.517,6.631,7.41,8.272
1999,0.849,36.2,10.937,32.547,27.514,6.631,7.33,8.071
2000,0.853,36.388,10.992,32.585,27.524,6.712,7.329,8.15
2001,0.843,36.457,10.98,32.566,27.51,6.469,7.207,7.988
2002,0.843,36.295,10.961,32.547,27.514,6.507,7.328,8.068
2003,0.872,36.207,10.984,32.566,27.51,6.63,7.329,8.069
2004,0.869,36.34,10.98,32.566,27.51,6.428,7.207,8.028
2005,0.866,36.495,10.949,32.604,27.521,6.507,7.409,8.068
2006,0.859,36.113,10.902,32.586,27.521,6.508,7.249,7.946
2007,0.879,36.263,10.964,32.605,27.517,6.467,7.288,7.986
2008,0.866,36.351,11.007,32.566,27.507,6.426,7.166,7.824
2009,0.866,36.428,11.0,32.576,27.514,6.548,7.409,7.985
2010,0.879,36.103,10.988,32.604,27.517,6.549,7.33,7.864
2011,0.872,36.215,10.934,32.566,27.503,6.508,7.289,7.782
2012,0.885,36.35,11.007,32.585,27.514,6.467,7.41,7.944
2013,0.895,36.438,10.981,32.576,27.51,6.548,7.371,7.823
2014,0.902,36.161,10.965,32.576,27.51,6.508,7.411,7.781
2015,0.886,36.273,10.976,32.566,27.503,6.549,7.411,7.74
2016,0.918,36.437,10.976,32.614,27.517,6.63,7.615,7.781
2017,0.905,36.496,10.969,32.624,27.507,6.428,7.413,7.618
2018,0.895,36.046,10.898,32.586,27.514,6.466,7.452,7.698
2019,0.915,36.205,10.987,32.605,27.521,6.548,7.574,7.78
2020,0.957,36.331,11.004,32.605,27.51,6.468,7.535,7.578
2021,0.974,36.39,11.02,32.605,27.514,6.426,7.534,7.698
2022,0.971,36.131,10.953,32.595,27.51,6.466,7.534,7.658
2023,0.971,36.292,11.05,32.614,27.514,6.548,7.575,7.698
2024,0.955,36.399,10.942,32.595,27.503,6.427,7.454,7.536
2025,0.935,36.419,10.957,32.605,27.517,6.71,7.696,7.819
2026,0.951,36.151,10.976,32.624,27.517,6.794,7.658,7.7
2027,0.919,36.273,10.984,32.605,27.51,6.714,7.495,7.618
2028,0.922,36.379,11.027,32.614,27.521,6.835,7.616,7.779
2029,0.941,36.304,10.922,32.605,27.514,6.877,7.576,7.618
2030,0.932,36.13,10.964,32.595,27.517,7.0,7.575,7.698
2031,0.918,36.215,10.984,32.585,27.51,7.001,7.575,7.658
2032,0.915,36.35,10.922,32.643,27.528,7.245,7.698,7.78
2033,0.896,36.035,10.948,32.634,27.514,7.084,7.536,7.537
2034,0.899,36.089,10.964,32.595,27.503,7.164,7.534,7.657
2035,0.908,36.234,11.011,32.614,27.521,7.287,7.616,7.617
2036,0.915,36.341,10.887,32.614,27.507,7.247,7.617,7.617
2037,0.905,36.064,10.921,32.634,27.521,7.369,7.657,7.698
2038,0.899,36.166,10.948,32.634,27.514,7.37,7.576,7.699
2039,0.921,36.35,10.96,32.643,27.517,7.411,7.616,7.699
2040,0.905,36.361,11.031,32.605,27.503,7.249,7.535,7.658
2041,0.895,36.026,10.942,32.633,27.521,7.532,7.657,7.78
2042,0.902,36.166,10.98,32.643,27.521,7.575,7.658,7.781
2043,0.886,36.292,10.992,32.634,27.51,7.413,7.536,7.659
2044,0.869,36.37,10.953,32.643,27.514,7.452,7.657,7.82
2045,0.863,36.045,10.957,32.615,27.503,7.412,7.658,7.659
2046,0.859,36.195,10.961,32.605,27.514,7.452,7.576,7.78
2047,0.84,36.283,11.035,32.595,27.51,7.493,7.616,7.659
2048,0.856,36.351,10.981,32.624,27.524,7.616,7.779,7.82
2049,0.846,36.016,10.91,32.643,27.51,7.495,7.618,7.7
2050,0.846,36.108,10.929,32.624,27.51,7.534,7.739,7.821
2051,0.853,36.253,10.964,32.634,27.521,7.657,7.821,7.944
2052,0.859,36.293,10.968,32.634,27.517,7.576,7.7,7.823
2053,0.866,36.6,10.949,32.662,27.514,7.657,7.821,7.863
2054,0.866,36.718,11.015,32.644,27.517,7.739,7.822,7.782
2055,0.872,36.835,10.985,32.663,27.517,7.781,7.822,7.862
2056,0.863,36.759,10.961,32.615,27.503,7.862,7.863,7.863
2057,0.846,35.79,10.972,32.672,27.528,8.188,8.107,7.985
2058,0.843,35.933,10.965,32.663,27.514,8.354,7.947,7.824
2059,0.82,36.012,11.015,32.634,27.507,8.478,7.864,7.903
2060,0.826,36.137,10.973,32.662,27.517,8.804,8.026,8.026
2061,0.8,36.273,10.933,32.644,27.507,9.052,8.068,7.865
2062,0.787,36.379,11.007,32.682,27.521,9.42,8.109,8.026
2063,0.774,36.476,10.891,32.663,27.507,9.708,8.109,8.027
2064,0.777,35.912,10.952,32.701,27.521,10.158,8.15,8.109
2065,0.761,35.992,10.957,32.663,27.507,10.244,8.069,8.028
2066,0.735,36.108,11.007,32.682,27.517,10.692,8.231,8.271
2067,0.731,36.224,10.988,32.692,27.524,10.9,8.355,8.233
2068,0.734,35.995,10.906,32.673,27.514,11.105,8.193,8.07
2069,0.708,36.156,10.952,32.682,27.514,11.311,8.395,8.191
2070,0.734,36.273,10.941,32.663,27.51,11.516,8.316,8.192
2071,0.744,36.36,10.941,32.663,27.514,11.599,8.437,8.192
2072,0.731,35.795,10.929,32.624,27.507,11.641,8.397,8.192
2073,0.741,35.953,10.972,32.682,27.521,11.967,8.56,8.192
2074,0.741,36.089,11.004,32.663,27.517,11.767,8.358,8.029
2075,0.738,36.138,10.957,32.663,27.507,11.927,8.356,8.068
2076,0.738,36.033,10.961,32.672,27.517,12.213,8.397,8.191
2077,0.734,36.176,10.957,32.672,27.514,12.298,8.316,8.029
2078,0.734,36.292,11.011,32.682,27.514,12.421,8.315,8.109
2079,0.728,36.341,11.012,32.682,27.51,12.462,8.274,8.109
2080,0.712,35.891,10.992,32.73,27.517,12.585,8.396,8.15
2081,0.692,35.992,10.988,32.683,27.514,12.505,8.194,8.028
2082,0.698,36.099,10.934,32.711,27.517,12.666,8.476,8.231
2083,0.718,36.416,10.972,32.702,27.521,12.709,8.398,8.029
2084,0.685,35.969,10.941,32.682,27.507,12.628,8.397,7.987
2085,0.698,36.117,10.996,32.72,27.517,12.668,8.438,8.108
2086,0.695,36.224,10.953,32.711,27.517,12.668,8.357,7.987
2087,0.701,35.967,10.949,32.769,27.514,12.627,8.437,8.108
2088,0.692,35.945,10.941,32.693,27.517,12.586,8.438,8.109
2089,0.718,36.136,10.945,32.749,27.521,12.627,8.519,8.15
2090,0.718,36.225,11.019,32.712,27.514,12.424,8.317,8.028
2091,0.734,35.813,10.989,32.702,27.507,12.34,8.396,8.109
2092,0.747,35.962,10.969,32.73,27.517,12.38,8.438,8.191
2093,0.738,36.07,11.023,32.711,27.514,12.096,8.397,8.029
2094,0.754,36.176,10.875,32.73,27.514,12.174,8.397,8.109
2095,0.751,35.918,10.952,32.721,27.514,12.094,8.356,8.15
2096,0.767,36.059,11.0,32.711,27.517,12.012,8.397,8.069
2097,0.738,36.147,11.023,32.682,27.503,11.889,8.316,8.109
2098,0.721,36.254,11.004,32.72,27.517,11.928,8.518,8.272
2099,0.731,35.861,10.887,32.711,27.507,11.848,8.479,8.152
2100,0.731,36.001,10.925,32.702,27.507,11.725,8.438,8.069
2101,0.728,36.137,10.96,32.73,27.517,11.805,8.519,8.191
2102,0.702,36.186,10.972,32.731,27.507,11.806,8.52,8.07
2103,0.734,35.88,10.953,32.721,27.51,11.765,8.601,8.109
2104,0.728,36.011,10.988,32.73,27.51,11.846,8.724,8.109
2105,0.744,36.166,11.012,32.778,27.528,11.887,8.848,8.109
2106,0.725,36.196,10.973,32.789,27.51,11.725,8.849,7.947
2107,0.708,35.89,10.937,32.722,27.5,11.642,9.093,8.108
2108,0.728,36.05,10.906,32.75,27.517,11.723,9.258,8.109
2109,0.721,36.157,10.991,32.731,27.503,11.601,9.219,7.947
2110,0.715,36.177,10.996,32.74,27.514,11.641,9.381,8.108
2111,0.702,35.947,10.953,32.74,27.51,11.56,9.423,7.906
2112,0.724,36.088,11.011,32.759,27.514,11.64,9.586,8.026
2113,0.715,36.176,10.949,32.731,27.503,11.479,9.507,7.987
2114,0.728,35.976,10.972,32.74,27.514,11.762,9.75,8.068
2115,0.744,35.974,10.992,32.75,27.51,11.805,9.752,7.987
2116,0.747,36.079,11.0,32.74,27.503,11.724,9.63,7.905
2117,0.734,36.186,11.008,32.779,27.514,11.968,9.751,7.945
2118,0.754,35.746,10.903,32.769,27.507,12.092,9.671,7.945
2119,0.757,35.847,10.933,32.76,27.514,12.052,9.711,7.945
2120,0.738,35.953,10.882,32.721,27.5,12.174,9.67,7.986
2121,0.747,36.06,10.995,32.778,27.521,12.419,9.792,8.027
2122,0.754,35.927,10.957,32.76,27.51,12.259,9.631,7.987
2123,0.744,36.031,10.957,32.74,27.507,12.217,9.548,7.946
2124,0.764,36.147,11.015,32.779,27.517,12.298,9.628,8.108
2125,0.787,36.225,10.899,32.75,27.507,12.298,9.548,8.069
2126,0.806,35.804,10.948,32.759,27.51,12.38,9.547,8.069
2127,0.823,35.924,10.929,32.76,27.51,12.381,9.466,8.028
2128,0.862,36.088,11.007,32.798,27.517,12.584,9.505,8.19
2129,0.866,36.109,11.043,32.741,27.507,12.545,9.303,8.029
2130,0.876,35.812,11.004,32.807,27.51,12.626,9.341,8.312
2131,0.905,35.982,10.969,32.789,27.514,12.79,9.301,8.193
2132,0.941,36.089,10.992,32.779,27.507,12.71,9.26,8.192
2133,0.964,36.147,10.988,32.798,27.514,12.75,9.3,8.273
2134,1.003,35.851,10.957,32.779,27.514,12.831,9.26,8.233
2135,1.053,36.001,11.039,32.789,27.514,12.873,9.219,8.273
2136,1.06,36.079,10.977,32.769,27.5,12.751,9.218,8.274
2137,1.056,36.128,10.894,32.817,27.517,12.913,9.422,8.436
2138,1.099,35.899,10.929,32.798,27.514,12.792,9.22,8.357
2139,1.141,36.011,10.929,32.77,27.503,12.629,9.137,8.356
2140,1.174,36.128,10.995,32.788,27.514,12.708,9.177,8.478
2141,1.21,35.985,10.922,32.779,27.503,12.75,9.096,8.316
2142,1.25,35.868,10.941,32.798,27.51,13.035,9.095,8.396
2143,1.299,35.973,10.98,32.789,27.507,13.241,9.014,8.356
2144,1.351,36.118,10.922,32.837,27.528,13.609,9.013,8.356
2145,1.388,35.764,10.964,32.76,27.504,13.572,8.932,8.275
2146,1.411,35.818,10.933,32.769,27.514,13.856,8.972,8.477
