time,ecg,bvp,gsr,rsp,skt,emg_zygo,emg_coru,emg_trap
0,0.984,35.986,17.201,34.492,22.315,5.974,10.123,18.668
1,0.997,36.127,17.19,34.492,22.322,6.015,10.163,18.339
2,1.0,36.253,17.202,34.483,22.311,5.934,10.041,18.051
3,1.02,36.36,17.198,34.53,22.336,6.096,10.121,17.804
4,1.01,35.978,17.17,34.483,22.315,5.853,9.837,17.232
5,1.027,36.127,17.143,34.511,22.315,5.851,9.794,17.064
6,1.01,36.234,17.131,34.464,22.304,5.851,9.712,16.737
7,1.02,36.369,17.193,34.501,22.322,5.973,9.711,16.49
8,1.017,36.074,17.206,34.492,22.322,5.974,9.67,16.243
9,1.004,36.214,17.147,34.492,22.318,5.933,9.548,15.916
10,1.004,36.379,17.111,34.502,22.329,6.014,9.669,15.79
11,1.004,36.4,17.099,34.492,22.315,5.771,9.385,15.464
12,0.991,36.16,17.111,34.492,22.318,5.85,9.382,15.257
13,1.0,36.292,17.099,34.473,22.304,5.769,9.179,15.011
14,1.0,36.428,17.126,34.502,22.325,5.891,9.34,14.968
15,1.02,36.467,17.178,34.492,22.318,5.933,9.301,14.968
16,1.017,36.238,17.151,34.511,22.318,5.974,9.178,15.171
17,0.997,36.369,17.154,34.559,22.315,5.893,9.218,15.824
18,1.013,36.476,17.115,34.483,22.311,5.851,8.934,16.522
19,1.007,36.506,17.177,34.511,22.325,5.891,9.053,17.342
20,1.02,36.411,17.233,34.492,22.318,5.811,8.973,18.041
21,1.023,36.553,17.249,34.502,22.318,5.81,9.013,18.78
22,1.014,36.651,17.229,34.483,22.318,5.891,9.054,19.316
23,1.02,36.537,17.202,34.521,22.325,5.973,9.135,19.768
24,1.004,36.382,17.151,34.464,22.315,5.771,8.933,19.854
25,1.017,36.563,17.158,34.501,22.322,5.768,9.012,20.14
26,1.001,36.612,17.139,34.483,22.318,5.809,8.932,20.183
27,1.017,36.479,17.209,34.521,22.322,5.85,8.972,20.184
28,0.991,36.573,17.178,34.502,22.318,5.851,8.972,20.061
29,0.981,36.708,17.1,34.492,22.315,5.81,8.972,19.898
30,0.981,36.796,17.126,34.502,22.325,5.81,8.972,19.774
31,0.977,36.509,17.111,34.473,22.311,5.688,8.809,19.244
32,0.987,36.641,17.138,34.492,22.318,5.727,8.808,18.954
33,0.981,36.757,17.131,34.473,22.308,5.646,8.686,18.545
34,0.991,36.864,17.154,34.511,22.318,5.849,8.847,18.338
35,0.984,36.692,17.221,34.483,22.318,5.729,8.889,17.929
36,1.013,36.863,17.159,34.502,22.325,5.809,8.89,17.518
37,1.014,36.951,17.151,34.483,22.315,5.728,8.971,17.067
38,0.978,37.019,17.127,34.492,22.308,5.727,8.931,16.615
39,0.994,36.675,17.185,34.492,22.325,5.768,9.134,16.407
40,1.01,36.834,17.202,34.511,22.318,5.728,9.095,15.917
41,1.02,36.97,17.217,34.512,22.315,5.809,9.339,15.628
42,0.991,37.01,17.194,34.492,22.322,5.81,9.423,15.259
43,0.987,36.828,17.178,34.511,22.332,5.932,9.546,15.052
44,0.965,36.951,17.147,34.473,22.311,5.689,9.425,14.481
45,0.964,37.067,17.162,34.492,22.315,5.768,9.586,14.272
46,0.951,37.097,17.127,34.463,22.308,5.687,9.588,13.945
47,0.964,36.858,17.185,34.492,22.318,5.849,9.832,13.819
48,0.977,36.989,17.178,34.502,22.322,5.851,9.834,13.493
49,1.0,37.144,17.127,34.511,22.322,5.891,9.794,13.164
50,0.955,37.107,17.127,34.54,22.315,5.851,9.834,12.917
51,0.964,36.896,17.131,34.483,22.315,5.851,9.794,12.548
52,0.961,37.028,17.162,34.502,22.311,5.851,9.793,12.504
53,0.968,37.154,17.135,34.511,22.322,5.851,9.915,12.26
54,0.958,37.002,17.162,34.512,22.325,5.81,9.835,12.176
55,0.945,36.972,17.209,34.492,22.315,5.85,9.875,11.931
56,0.971,37.115,17.143,34.521,22.325,5.973,10.038,11.888
57,0.955,37.184,17.146,34.483,22.308,5.811,9.877,11.603
58,0.958,37.041,17.131,34.492,22.315,5.85,9.997,11.478
59,0.964,37.116,17.154,34.473,22.304,5.769,9.917,11.355
60,0.958,37.27,17.213,34.511,22.318,5.891,10.079,11.313
61,0.958,37.358,17.198,34.502,22.322,5.851,10.121,11.15
62,0.974,36.985,17.194,34.483,22.318,5.851,10.203,10.945
63,0.945,37.096,17.19,34.473,22.318,5.891,10.245,10.902
64,0.935,37.222,17.112,34.473,22.311,5.811,10.245,10.618
65,0.931,37.329,17.138,34.502,22.318,5.769,10.408,10.655
66,0.928,36.994,17.123,34.473,22.311,5.687,10.287,10.412
67,0.931,37.154,17.197,34.502,22.322,5.89,10.53,10.491
68,0.918,37.27,17.174,34.492,22.315,5.811,10.532,10.329
69,0.941,37.367,17.116,34.531,22.332,5.891,10.614,10.246
70,0.896,37.1,17.088,34.473,22.318,5.729,10.493,10.001
71,0.908,37.212,17.119,34.482,22.318,5.727,10.451,9.999
72,0.895,37.367,17.131,34.483,22.322,5.768,10.532,10.039
73,0.908,37.426,17.17,34.502,22.315,5.809,10.532,10.202
74,0.905,37.168,17.205,34.492,22.322,5.769,10.614,10.489
75,0.902,37.309,17.225,34.483,22.325,5.728,10.574,10.695
76,0.905,37.425,17.108,34.502,22.329,5.85,10.696,11.063
77,0.892,37.446,17.123,34.473,22.311,5.729,10.453,11.392
78,0.905,37.043,17.138,34.473,22.318,5.727,10.572,12.208
79,0.892,37.154,17.162,34.454,22.308,5.646,10.614,13.233
80,0.912,37.299,17.201,34.492,22.325,5.727,10.737,14.422
81,0.912,37.473,17.17,34.492,22.315,5.687,10.616,15.491
82,0.915,37.207,17.158,34.502,22.315,5.727,10.737,16.356
83,0.889,37.309,17.111,34.483,22.325,5.809,10.657,17.177
84,0.882,37.425,17.072,34.483,22.315,5.688,10.574,17.673
85,0.892,37.11,17.099,34.492,22.315,5.687,10.574,18.166
86,0.886,37.059,17.15,34.473,22.311,5.687,10.492,18.374
87,0.885,37.164,17.221,34.502,22.325,5.768,10.614,18.661
88,0.895,37.261,17.143,34.464,22.322,5.728,10.493,18.705
89,0.873,37.137,17.162,34.569,22.332,5.85,10.451,18.664
90,0.866,37.184,17.115,34.464,22.315,5.729,10.288,18.42
91,0.859,37.328,17.111,34.473,22.311,5.687,10.327,18.295
92,0.843,37.397,17.123,34.463,22.318,5.687,10.286,18.05
93,0.866,37.033,17.174,34.492,22.329,5.768,10.286,17.845
94,0.862,37.145,17.197,34.483,22.318,5.809,10.408,17.558
95,0.862,37.27,17.245,34.483,22.315,5.728,10.491,17.23
96,0.869,37.377,17.132,34.502,22.332,5.89,10.654,17.145
97,0.863,37.129,17.142,34.454,22.315,5.689,10.574,16.738
98,0.862,37.309,17.154,34.482,22.315,5.727,10.655,16.571
99,0.84,37.387,17.186,34.444,22.311,5.646,10.696,16.325
100,0.888,37.503,17.244,34.501,22.329,5.808,10.778,16.12
101,0.879,37.044,17.21,34.492,22.315,5.688,10.82,15.915
102,0.872,37.202,17.155,34.473,22.329,5.727,10.901,15.668
103,0.866,37.3,17.123,34.502,22.329,5.85,10.943,15.463
104,0.862,37.349,17.076,34.464,22.315,5.729,10.781,15.014
105,0.856,37.129,17.115,34.482,22.318,5.687,10.738,14.846
106,0.846,37.261,17.131,34.463,22.308,5.605,10.738,14.479
107,0.859,37.406,17.193,34.482,22.322,5.726,10.819,14.434
108,0.846,37.417,17.139,34.502,22.322,5.727,10.82,14.19
109,0.853,37.1,17.123,34.54,22.322,5.768,10.698,14.025
110,0.84,37.222,17.123,34.493,22.315,5.768,10.737,13.983
111,0.846,37.319,17.146,34.463,22.311,5.728,10.616,13.738
112,0.84,37.646,17.154,34.463,22.318,5.727,10.615,13.695
113,0.852,37.016,17.166,34.454,22.311,5.727,10.452,13.451
114,0.853,37.154,17.209,34.492,22.322,5.85,10.613,13.489
115,0.856,37.232,17.233,34.454,22.322,5.769,10.493,13.367
116,0.872,37.185,17.14,34.521,22.336,5.85,10.491,13.204
117,0.856,37.194,17.146,34.454,22.315,5.729,10.329,12.917
118,0.856,37.338,17.178,34.463,22.315,5.687,10.286,12.915
119,0.856,37.416,17.198,34.482,22.318,5.727,10.205,12.752
120,0.866,36.976,17.209,34.502,22.311,5.809,10.163,12.669
121,0.862,37.077,17.178,34.483,22.315,5.769,10.122,12.709
122,0.862,37.193,17.123,34.483,22.315,5.687,10.041,12.953
123,0.875,37.29,17.103,34.492,22.318,5.849,10.121,13.362
124,0.85,36.965,16.986,34.463,22.315,5.688,9.919,13.529
125,0.875,37.115,17.086,34.482,22.315,5.687,9.876,13.856
126,0.846,37.222,17.138,34.444,22.315,5.646,9.753,14.225
127,0.856,37.329,17.182,34.473,22.325,5.727,9.833,14.879
128,0.866,36.898,17.123,34.482,22.322,5.727,9.753,15.577
129,0.866,37.047,17.138,34.463,22.325,5.687,9.671,16.316
130,0.843,37.164,17.131,34.454,22.318,5.687,9.629,17.014
131,0.846,37.203,17.135,34.453,22.311,5.646,9.548,17.509
132,0.853,37.098,17.178,34.463,22.318,5.686,9.547,18.002
133,0.859,37.232,17.19,34.454,22.311,5.646,9.384,18.291
134,0.862,37.367,17.213,34.473,22.325,5.686,9.464,18.62
135,0.859,37.407,17.213,34.482,22.322,5.727,9.465,18.664
136,0.882,36.88,17.19,34.569,22.325,5.768,9.465,18.664
137,0.859,36.98,17.143,34.455,22.318,5.565,9.343,18.461
138,0.869,37.125,17.162,34.463,22.311,5.604,9.342,18.296
139,0.879,37.126,17.178,34.444,22.315,5.604,9.26,18.132
140,0.885,36.887,17.194,34.473,22.318,5.686,9.3,17.845
141,0.882,36.999,17.155,34.473,22.318,5.605,9.178,17.558
142,0.882,37.115,17.135,34.463,22.318,5.645,9.299,17.23
143,0.882,37.308,17.119,34.463,22.325,5.686,9.301,17.023
144,0.872,37.013,16.982,34.482,22.311,5.564,9.178,16.493
145,0.869,37.154,17.11,34.473,22.315,5.685,9.259,16.284
146,0.866,37.232,17.162,34.444,22.308,5.442,9.178,15.916
147,0.862,36.878,17.186,34.492,22.322,5.643,9.34,15.872
148,0.872,36.884,17.1,34.473,22.325,5.645,9.301,15.546
149,0.889,37.057,17.13,34.473,22.325,5.645,9.301,15.299
150,0.846,37.116,17.107,34.454,22.311,5.564,9.26,15.093
151,0.853,36.771,17.13,34.444,22.315,5.604,9.259,14.847
152,0.853,36.873,17.17,34.463,22.318,5.604,9.3,14.723
153,0.862,37.018,17.229,34.482,22.318,5.564,9.26,14.559
154,0.869,37.106,17.233,34.483,22.322,5.645,9.259,14.435
155,0.866,36.858,17.241,34.463,22.318,5.605,9.178,14.231
156,0.876,37.009,17.171,34.482,22.329,5.645,9.38,14.107
157,0.866,37.125,17.127,34.444,22.311,5.523,9.139,13.739
158,0.862,37.193,17.17,34.444,22.311,5.563,9.258,13.655
159,0.869,36.715,17.194,34.425,22.311,5.523,9.178,13.45
160,0.885,36.911,17.178,34.463,22.318,5.644,9.38,13.367
161,0.882,37.028,17.158,34.473,22.322,5.564,9.342,13.244
162,0.889,37.097,17.108,34.463,22.311,5.563,9.382,13.08
163,0.879,36.8,17.076,34.454,22.315,5.563,9.423,13.119
164,0.879,36.96,17.13,34.473,22.311,5.523,9.546,13.201
165,0.866,37.086,17.119,34.463,22.318,5.563,9.791,13.446
166,0.869,37.116,17.185,34.473,22.311,5.523,9.915,13.53
167,0.869,36.858,17.174,34.473,22.325,5.603,10.323,14.018
168,0.863,36.999,17.092,34.473,22.315,5.564,10.53,14.633
169,0.888,37.144,17.111,34.492,22.329,5.685,10.858,15.737
170,0.856,37.127,17.099,34.444,22.311,5.442,10.942,16.683
171,0.859,36.733,17.138,34.473,22.315,5.521,11.146,17.79
172,0.856,36.854,17.158,34.444,22.315,5.482,11.393,18.777
173,0.869,36.999,17.209,34.482,22.322,5.562,11.639,19.519
174,0.869,37.029,17.213,34.463,22.315,5.523,11.804,20.177
175,0.869,36.761,17.202,34.463,22.315,5.563,12.09,20.59
176,0.872,36.931,17.163,34.463,22.322,5.645,12.337,21.001
177,0.872,37.0,17.166,34.454,22.318,5.523,12.258,20.883
178,0.872,36.751,17.194,34.463,22.315,5.482,12.42,20.963
179,0.885,36.787,17.206,34.444,22.308,5.4,12.422,20.72
180,0.895,36.95,17.182,34.482,22.325,5.562,12.503,20.677
181,0.882,37.057,17.135,34.463,22.318,5.482,12.544,20.351
182,0.902,36.685,17.084,34.482,22.325,5.562,12.545,20.063
183,0.882,36.786,17.056,34.444,22.315,5.482,12.504,19.694
184,0.895,36.922,17.103,34.453,22.318,5.481,12.341,19.284
185,0.892,37.0,17.138,34.463,22.315,5.522,12.299,18.995
186,0.882,36.626,17.174,34.454,22.315,5.482,12.136,18.586
187,0.872,36.766,17.147,34.473,22.318,5.522,12.175,18.379
188,0.879,36.912,17.076,34.482,22.315,5.482,12.013,18.092
189,0.882,36.99,17.118,34.492,22.329,5.644,12.092,17.886
190,0.853,36.646,17.17,34.463,22.311,5.401,11.808,17.518
191,0.862,36.786,17.201,34.463,22.311,5.48,11.765,17.392
192,0.859,36.912,17.206,34.463,22.311,5.481,11.642,17.228
193,0.869,37.019,17.225,34.473,22.322,5.562,11.723,17.105
194,0.876,36.684,17.225,34.482,22.322,5.563,11.642,16.941
195,0.879,36.825,17.136,34.463,22.325,5.482,11.601,16.736
196,0.876,36.941,17.123,34.473,22.318,5.522,11.6,16.531
197,0.869,36.971,17.131,34.473,22.315,5.441,11.478,16.162
198,0.885,36.655,17.189,34.463,22.315,5.481,11.518,15.996
199,0.885,36.805,17.186,34.463,22.311,5.4,11.315,15.669
200,0.889,36.912,17.162,34.482,22.318,5.521,11.394,15.544
201,0.892,36.923,17.123,34.473,22.318,5.482,11.232,15.34
202,0.899,36.597,17.08,34.502,22.332,5.603,11.231,15.053
203,0.873,36.699,17.111,34.464,22.315,5.482,11.027,14.725
204,0.876,36.834,17.138,34.482,22.318,5.481,10.944,14.437
205,0.872,36.788,17.154,34.483,22.315,5.44,10.902,14.231
206,0.872,36.701,17.193,34.483,22.318,5.562,10.739,13.985
207,0.879,36.844,17.143,34.492,22.318,5.482,10.697,13.82
208,0.872,36.941,17.154,34.463,22.315,5.522,10.494,13.533
209,0.863,36.607,17.154,34.492,22.329,5.603,10.532,13.368
210,0.856,36.661,17.178,34.473,22.315,5.442,10.329,13.041
211,0.856,36.796,17.194,34.454,22.318,5.44,10.246,12.794
212,0.84,36.874,17.225,34.444,22.308,5.359,10.082,12.588
213,0.856,36.635,17.21,34.473,22.325,5.439,10.081,12.383
214,0.862,36.757,17.182,34.482,22.318,5.521,10.04,12.177
215,0.866,36.893,17.123,34.483,22.318,5.441,9.999,11.891
216,0.859,36.951,17.123,34.463,22.318,5.521,9.958,11.806
217,0.856,36.588,17.142,34.463,22.315,5.482,9.876,11.48
218,0.856,36.747,17.178,34.473,22.322,5.481,9.876,11.355
219,0.866,36.864,17.174,34.473,22.315,5.318,9.794,11.151
220,0.879,36.942,17.116,34.482,22.318,5.48,9.915,11.149
221,0.869,36.482,17.076,34.483,22.318,5.4,9.916,10.904
222,0.885,36.679,17.06,34.521,22.325,5.562,10.039,10.861
223,0.859,36.748,17.134,34.473,22.311,5.401,9.918,10.576
224,0.846,36.806,17.123,34.473,22.315,5.399,10.12,10.533
225,0.853,36.807,17.193,34.463,22.325,5.48,10.244,10.37
226,0.862,36.97,17.217,34.482,22.322,5.481,10.286,10.368
227,0.856,37.096,17.124,34.502,22.315,5.522,10.571,10.449
228,0.853,37.136,17.123,34.483,22.315,5.482,10.574,10.247
229,0.859,36.35,17.166,34.502,22.329,5.603,10.818,10.489
230,0.846,36.476,17.182,34.464,22.311,5.482,10.739,10.288
231,0.843,36.602,17.225,34.454,22.315,5.481,10.86,10.327
232,0.843,36.613,17.194,34.453,22.304,5.359,10.82,10.286
233,0.862,36.623,17.206,34.482,22.322,5.561,11.023,10.571
234,0.862,36.747,17.17,34.483,22.322,5.523,10.944,10.899
235,0.866,36.864,17.166,34.502,22.322,5.482,10.943,11.349
236,0.853,36.692,17.127,34.473,22.311,5.562,11.024,12.045
237,0.849,36.499,17.185,34.473,22.311,5.441,11.107,12.662
238,0.849,36.66,17.178,34.482,22.315,5.481,11.27,13.318
239,0.859,36.786,17.116,34.483,22.315,5.481,11.394,13.854
240,0.866,36.557,17.111,34.511,22.322,5.522,11.558,14.347
241,0.869,36.603,17.088,34.473,22.315,5.563,11.64,14.718
242,0.879,36.766,17.142,34.521,22.325,5.726,11.723,15.087
243,0.853,36.825,17.127,34.473,22.311,5.443,11.561,15.091
244,0.859,36.356,17.178,34.473,22.315,5.521,11.6,15.132
245,0.856,36.438,17.209,34.463,22.311,5.441,11.56,15.213
246,0.869,36.621,17.167,34.501,22.315,5.603,11.64,15.336
247,0.866,36.699,17.166,34.483,22.315,5.564,11.641,15.581
248,0.879,36.384,17.143,34.492,22.318,5.604,11.641,15.868
249,0.869,36.505,17.193,34.492,22.318,5.604,11.723,16.197
250,0.866,36.641,17.213,34.483,22.311,5.482,11.479,16.484
251,0.876,36.719,17.21,34.473,22.315,5.522,11.477,16.934
252,0.872,36.441,17.182,34.463,22.311,5.441,11.396,17.224
253,0.889,36.592,17.162,34.482,22.325,5.562,11.476,17.836
254,0.899,36.709,17.123,34.492,22.325,5.482,11.396,18.331
255,0.931,36.815,17.15,34.521,22.329,5.644,11.395,18.986
256,0.909,36.481,17.147,34.464,22.311,5.483,11.192,19.44
257,0.918,36.64,17.193,34.463,22.315,5.481,11.189,19.932
258,0.918,36.748,17.155,34.473,22.322,5.603,11.149,20.303
259,0.938,36.825,17.08,34.511,22.315,5.564,11.067,20.591
260,0.938,36.442,17.122,34.512,22.325,5.604,11.026,20.757
261,0.964,36.582,17.123,34.492,22.318,5.523,10.944,20.759
262,0.968,36.709,17.146,34.511,22.325,5.725,10.984,20.799
263,0.951,36.7,17.135,34.473,22.311,5.402,10.74,20.474
264,0.977,36.451,17.17,34.492,22.311,5.48,10.657,20.43
265,0.964,36.563,17.19,34.444,22.304,5.359,10.452,20.105
266,0.964,36.699,17.135,34.511,22.325,5.521,10.532,20.061
267,0.942,36.566,17.131,34.502,22.315,5.441,10.451,19.694
268,0.941,36.478,17.131,34.492,22.322,5.521,10.41,19.365
269,0.919,36.564,17.181,34.483,22.322,5.482,10.247,19.037
270,0.915,36.67,17.198,34.463,22.315,5.44,10.123,18.627
271,0.902,36.374,17.241,34.492,22.315,5.481,10.081,18.298
272,0.899,36.438,17.194,34.463,22.311,5.359,9.918,17.847
273,0.915,36.602,17.163,34.501,22.322,5.521,9.957,17.761
274,0.918,36.68,17.104,34.483,22.315,5.441,9.835,17.516
275,0.925,36.364,17.134,34.521,22.339,5.562,9.875,17.351
276,0.909,36.428,17.131,34.464,22.308,5.401,9.591,16.984
277,0.921,36.582,17.185,34.482,22.315,5.399,9.629,16.777
278,0.922,36.661,17.159,34.483,22.318,5.44,9.548,16.572
279,0.967,36.47,17.069,34.511,22.325,5.481,9.425,16.366
280,0.984,36.583,17.134,34.492,22.318,5.44,9.424,16.161
281,0.994,36.718,17.131,34.502,22.315,5.44,9.302,15.874
282,1.0,36.806,17.158,34.502,22.325,5.521,9.341,15.749
283,0.994,36.385,17.147,34.483,22.315,5.4,9.097,15.22
284,0.971,36.524,17.162,34.502,22.311,5.318,9.095,15.092
285,0.968,36.631,17.186,34.464,22.304,5.317,8.851,14.725
286,0.961,36.719,17.131,34.492,22.318,5.52,8.971,14.64
287,0.945,36.432,17.142,34.502,22.318,5.441,8.972,14.395
288,0.951,36.602,17.154,34.502,22.329,5.399,8.972,14.108
289,0.915,36.68,17.189,34.473,22.311,5.318,8.809,13.861
290,0.918,36.719,17.213,34.482,22.311,5.398,8.889,13.452
291,0.915,36.374,17.198,34.492,22.318,5.399,8.93,13.367
292,0.922,36.515,17.182,34.502,22.318,5.358,8.85,13.082
293,0.922,36.631,17.178,34.502,22.315,5.439,8.889,12.957
294,0.918,36.632,17.104,34.483,22.318,5.399,8.849,12.711
295,0.925,36.565,17.142,34.511,22.336,5.48,9.011,12.628
296,0.918,36.66,17.143,34.464,22.315,5.318,8.85,12.261
297,0.918,36.757,17.197,34.492,22.311,5.317,8.849,12.054
298,0.912,36.547,17.155,34.473,22.315,5.358,8.808,11.93
299,0.925,36.536,17.131,34.54,22.322,5.399,8.93,11.888
300,0.918,36.67,17.119,34.493,22.315,5.48,8.809,11.806
301,0.915,36.777,17.127,34.492,22.318,5.44,8.808,11.48
302,0.902,36.394,17.146,34.502,22.318,5.521,8.93,11.355
303,0.892,36.467,17.154,34.473,22.315,5.4,8.85,11.151
304,0.886,36.602,17.178,34.473,22.315,5.44,8.849,11.067
305,0.882,36.67,17.194,34.463,22.311,5.318,8.767,10.822
306,0.876,36.403,17.127,34.501,22.325,5.48,8.929,10.901
307,0.869,36.534,17.131,34.521,22.322,5.359,8.85,10.78
308,0.892,36.67,17.146,34.521,22.315,5.439,8.767,10.698
309,0.863,36.738,17.17,34.483,22.318,5.44,8.767,10.616
310,0.849,36.212,17.182,34.483,22.311,5.359,8.767,10.411
311,0.862,36.388,17.162,34.492,22.322,5.439,8.767,10.45
312,0.853,36.515,17.162,34.492,22.308,5.399,8.685,10.369
313,0.866,36.602,17.131,34.502,22.322,5.48,8.888,10.409
314,0.869,36.44,17.096,34.492,22.315,5.481,8.93,10.328
315,0.879,36.63,17.177,34.54,22.332,5.562,9.093,10.327
316,0.869,36.709,17.178,34.464,22.311,5.401,9.054,10.124
317,0.892,36.758,17.201,34.473,22.315,5.318,9.095,10.081
318,0.879,36.365,17.128,34.502,22.322,5.398,9.298,10.121
319,0.879,36.534,17.049,34.54,22.325,5.44,9.423,10.041
320,0.882,36.651,17.13,34.502,22.322,5.44,9.505,10.121
321,0.889,36.69,17.131,34.511,22.311,5.399,9.546,9.959
322,0.869,36.384,17.158,34.512,22.322,5.562,9.71,9.998
323,0.859,36.486,17.174,34.483,22.311,5.401,9.63,9.755
324,0.843,36.612,17.201,34.492,22.315,5.44,9.588,9.996
325,0.83,36.718,17.209,34.454,22.304,5.359,9.588,10.121
326,0.833,36.489,17.135,34.53,22.318,5.48,9.71,10.528
327,0.826,36.602,17.146,34.521,22.322,5.44,9.711,10.898
328,0.839,36.738,17.17,34.512,22.325,5.399,9.67,11.39
329,0.794,36.47,17.194,34.492,22.311,5.399,9.67,12.086
330,0.784,36.477,17.19,34.492,22.315,5.399,9.711,13.191
331,0.784,36.602,17.166,34.511,22.318,5.44,9.711,14.544
332,0.78,36.728,17.119,34.502,22.311,5.399,9.792,15.858
333,0.793,36.432,17.06,34.511,22.315,5.44,9.834,17.254
334,0.79,36.525,17.021,34.512,22.318,5.399,9.834,18.528
335,0.79,36.689,17.118,34.531,22.329,5.48,9.997,19.76
336,0.78,36.738,17.185,34.483,22.308,5.359,9.836,20.464
337,0.787,36.365,17.205,34.511,22.325,5.358,9.875,21.284
338,0.777,36.467,17.131,34.483,22.311,5.277,9.916,22.024
339,0.793,36.65,17.146,34.53,22.325,5.438,9.957,22.763
340,0.803,36.7,17.146,34.512,22.315,5.399,9.917,23.259
341,0.8,36.393,17.174,34.512,22.315,5.399,9.876,23.548
342,0.79,36.505,17.186,34.502,22.315,5.399,9.876,23.836
343,0.793,36.631,17.186,34.492,22.304,5.358,9.835,23.798
344,0.784,36.709,17.233,34.502,22.315,5.358,9.753,23.798
345,0.8,36.413,17.19,34.521,22.318,5.399,9.671,23.594
346,0.79,36.563,17.127,34.521,22.318,5.44,9.751,23.47
347,0.78,36.67,17.142,34.54,22.325,5.521,9.671,23.103
348,0.797,36.757,17.193,34.541,22.329,5.644,9.833,22.855
349,0.784,36.403,17.209,34.502,22.315,5.401,9.59,22.324
350,0.777,36.553,17.182,34.521,22.311,5.48,9.507,21.953
351,0.758,36.641,17.116,34.492,22.315,5.481,9.506,21.624
352,0.777,36.728,17.076,34.54,22.325,5.562,9.587,21.255
353,0.777,36.461,17.064,34.531,22.318,5.604,9.588,20.967
354,0.78,36.583,17.118,34.521,22.318,5.482,9.588,20.435
355,0.784,36.709,17.119,34.531,22.325,5.644,9.629,20.186
356,0.777,37.026,17.177,34.502,22.315,5.483,9.588,19.614
357,0.78,36.531,17.178,34.502,22.315,5.522,9.629,19.243
358,0.78,36.66,17.096,34.511,22.311,5.441,9.507,18.751
359,0.793,36.805,17.134,34.531,22.325,5.603,9.75,18.543
360,0.797,36.414,17.135,34.531,22.322,5.564,9.752,18.012
361,0.807,36.41,17.181,34.569,22.325,5.645,9.793,17.641
362,0.797,36.496,17.194,34.512,22.311,5.564,9.793,17.19
363,0.79,36.602,17.225,34.512,22.311,5.523,9.753,16.86
364,0.79,36.411,17.229,34.521,22.315,5.603,9.712,16.491
365,0.8,36.534,17.237,34.54,22.318,5.523,9.833,16.162
366,0.784,36.679,17.179,34.531,22.318,5.563,9.794,15.915
367,0.784,36.757,17.131,34.521,22.318,5.482,9.753,15.587
368,0.8,36.375,17.193,34.56,22.329,5.725,9.955,15.421
369,0.781,36.476,17.213,34.522,22.305,5.484,9.714,14.85
370,0.777,36.621,17.171,34.521,22.318,5.522,9.752,14.682
371,0.761,36.671,17.1,34.492,22.304,5.441,9.712,14.436
372,0.77,36.412,17.072,34.54,22.325,5.603,9.752,14.353
373,0.777,36.563,17.075,34.531,22.315,5.523,9.671,14.027
374,0.777,36.689,17.107,34.521,22.322,5.522,9.629,13.82
375,0.78,36.748,17.13,34.521,22.318,5.563,9.67,13.696
376,0.777,36.336,17.201,34.521,22.318,5.441,9.589,13.288
377,0.777,36.486,17.194,34.521,22.315,5.521,9.547,13.121
378,0.777,36.621,17.092,34.521,22.311,5.4,9.384,12.957
379,0.787,36.68,17.13,34.54,22.325,5.521,9.505,12.874
380,0.793,36.46,17.139,34.541,22.318,5.563,9.465,12.589
381,0.806,36.631,17.17,34.55,22.329,5.604,9.505,12.383
382,0.787,36.69,17.178,34.522,22.318,5.564,9.465,12.055
383,0.787,36.71,17.213,34.521,22.318,5.482,9.262,11.93
384,0.784,36.393,17.19,34.521,22.318,5.562,9.381,11.726
385,0.79,36.534,17.174,34.531,22.311,5.523,9.342,11.561
386,0.78,36.67,17.151,34.56,22.322,5.644,9.504,11.478
387,0.787,36.834,17.147,34.541,22.315,5.645,9.465,11.274
388,0.78,36.395,17.197,34.569,22.329,5.686,9.587,11.19
389,0.774,36.505,17.209,34.522,22.311,5.483,9.425,10.783
390,0.777,36.602,17.194,34.521,22.311,5.603,9.505,10.738
391,0.764,36.479,17.131,34.502,22.304,5.482,9.384,10.616
392,0.77,36.564,17.115,34.55,22.322,5.725,9.505,10.493
393,0.783,36.68,17.068,34.55,22.322,5.565,9.506,10.369
394,0.797,36.825,17.122,34.541,22.318,5.563,9.425,10.287
395,0.777,36.27,17.138,34.541,22.315,5.563,9.342,10.123
396,0.78,36.37,17.201,34.512,22.315,5.604,9.301,9.959
397,0.787,36.515,17.167,34.559,22.311,5.645,9.463,9.835
398,0.784,36.631,17.076,34.541,22.311,5.564,9.302,9.672
399,0.797,36.335,17.118,34.56,22.318,5.685,9.423,9.67
400,0.8,36.476,17.119,34.55,22.322,5.646,9.302,9.589
401,0.816,36.612,17.146,34.598,22.325,5.727,9.504,9.588
402,0.8,36.642,17.182,34.532,22.318,5.605,9.343,9.344
403,0.8,36.345,17.19,34.54,22.318,5.604,9.342,9.301
404,0.794,36.476,17.213,34.531,22.315,5.604,9.382,9.178
405,0.806,36.602,17.202,34.54,22.318,5.564,9.382,9.096
406,0.8,36.68,17.163,34.56,22.318,5.685,9.382,9.054
407,0.8,36.278,17.135,34.56,22.318,5.605,9.382,9.013
408,0.807,36.427,17.189,34.598,22.329,5.767,9.423,9.094
409,0.803,36.515,17.202,34.522,22.305,5.565,9.302,8.729
410,0.797,36.574,17.174,34.55,22.315,5.563,9.341,8.766
411,0.794,36.306,17.1,34.55,22.311,5.563,9.423,8.604
412,0.816,36.485,17.107,34.569,22.318,5.645,9.342,8.602
413,0.823,36.593,17.068,34.56,22.322,5.645,9.382,8.724
414,0.82,36.613,17.13,34.541,22.318,5.605,9.423,8.848
415,0.826,36.766,17.139,34.56,22.325,5.726,9.505,9.255
416,0.836,36.893,17.193,34.541,22.311,5.565,9.343,9.463
417,0.859,36.999,17.182,34.56,22.315,5.604,9.382,9.912
418,0.862,36.77,17.112,34.531,22.311,5.482,9.301,10.404
419,0.911,36.078,17.107,34.56,22.329,5.644,9.463,11.263
420,0.948,36.205,17.134,34.56,22.318,5.564,9.383,12.288
421,0.961,36.321,17.162,34.57,22.315,5.604,9.342,13.478
422,0.961,36.246,17.182,34.541,22.311,5.564,9.382,14.628
423,0.977,36.322,17.201,34.56,22.308,5.523,9.301,15.737
424,1.026,36.466,17.186,34.579,22.318,5.644,9.26,16.764
425,1.089,36.573,17.162,34.56,22.315,5.523,9.219,17.71
426,1.131,36.2,17.139,34.579,22.318,5.603,9.422,18.573
427,1.187,36.312,17.146,34.57,22.318,5.564,9.383,19.11
428,1.256,36.476,17.217,34.608,22.329,5.726,9.586,19.563
429,1.247,36.497,17.229,34.57,22.311,5.524,9.547,19.69
430,1.286,36.046,17.186,34.57,22.315,5.563,9.669,19.853
431,1.277,36.176,17.139,34.56,22.318,5.563,9.833,19.977
432,1.302,36.34,17.1,34.589,22.318,5.604,9.956,20.1
433,1.28,36.428,17.091,34.57,22.318,5.604,9.998,20.101
434,1.276,36.247,17.142,34.579,22.318,5.564,10.121,19.898
435,1.244,36.398,17.154,34.598,22.329,5.645,10.366,19.855
436,1.205,36.496,17.193,34.541,22.315,5.442,10.165,19.448
437,1.246,36.564,17.178,34.569,22.318,5.481,10.285,19.241
438,1.26,36.123,17.147,34.608,22.308,5.44,10.245,18.995
439,1.273,36.301,17.131,34.599,22.325,5.562,10.367,18.992
440,1.319,36.408,17.178,34.589,22.322,5.604,10.287,18.748
441,1.397,36.477,17.182,34.608,22.325,5.564,10.327,18.502
442,1.431,36.171,17.178,34.57,22.315,5.482,10.246,18.175
443,1.441,36.302,17.19,34.589,22.315,5.522,10.204,17.805
444,1.428,36.437,17.209,34.57,22.315,5.563,10.245,17.72
445,1.444,36.467,17.151,34.598,22.318,5.563,10.164,17.353
446,1.415,36.103,17.135,34.599,22.325,5.563,10.163,17.147
447,1.392,36.253,17.127,34.579,22.318,5.523,10.082,16.86
448,1.369,36.36,17.205,34.608,22.329,5.644,10.162,16.613
449,1.268,36.342,17.182,34.56,22.315,5.442,9.878,16.123
450,1.221,36.198,17.127,34.579,22.318,5.521,9.876,15.833
451,1.143,36.302,17.072,34.551,22.304,5.4,9.794,15.546
452,1.067,36.466,17.091,34.627,22.325,5.521,9.875,15.868
453,0.969,36.084,17.134,34.637,22.315,5.563,9.794,16.359
454,0.883,36.157,17.15,34.609,22.322,5.523,9.793,17.299
455,0.775,36.225,17.178,34.589,22.318,5.482,9.712,18.447
456,0.728,36.331,17.229,34.589,22.311,5.4,9.711,19.475
457,0.682,36.255,17.128,34.608,22.318,5.562,9.63,20.421
458,0.659,36.398,17.138,34.599,22.318,5.482,9.507,20.999
459,0.656,36.544,17.127,34.618,22.318,5.481,9.506,21.615
460,0.646,36.612,17.154,34.608,22.322,5.522,9.425,21.865
461,0.659,35.942,17.193,34.637,22.336,5.603,9.546,22.03
462,0.656,36.021,17.178,34.58,22.315,5.401,9.344,21.747
463,0.675,36.176,17.229,34.57,22.318,5.48,9.26,21.663
464,0.678,36.215,17.218,34.579,22.311,5.44,9.259,21.418
465,0.711,36.168,17.139,34.637,22.318,5.562,9.219,21.09
466,0.731,36.321,17.139,34.628,22.322,5.482,9.218,20.721
467,0.744,36.437,17.142,34.618,22.311,5.4,9.178,20.27
468,0.77,36.487,17.185,34.608,22.322,5.48,9.055,19.94
469,0.816,36.036,17.19,34.608,22.311,5.44,8.891,19.449
470,0.833,36.185,17.131,34.608,22.318,5.481,8.89,19.2
471,0.839,36.302,17.08,34.599,22.311,5.359,8.687,18.995
472,0.846,36.37,17.099,34.637,22.329,5.561,8.807,19.155
473,0.853,36.131,17.138,34.676,22.322,5.523,8.767,19.076
474,0.866,36.263,17.154,34.647,22.332,5.563,8.807,19.319
475,0.846,36.351,17.147,34.609,22.315,5.36,8.645,19.28
476,0.849,36.399,17.205,34.628,22.318,5.399,8.562,19.361
477,0.849,36.036,17.135,34.618,22.318,5.44,8.643,19.362
478,0.853,36.204,17.15,34.647,22.318,5.481,8.644,19.362
479,0.856,36.312,17.15,34.647,22.318,5.481,8.644,19.321
480,0.856,36.246,17.158,34.637,22.315,5.4,8.644,19.199
481,0.856,36.139,17.201,34.666,22.329,5.562,8.725,19.117
482,0.849,36.253,17.206,34.628,22.311,5.319,8.603,18.628
483,0.843,36.36,17.229,34.628,22.311,5.439,8.602,18.379
484,0.833,36.045,17.229,34.599,22.308,5.359,8.602,18.011
485,0.839,36.166,17.143,34.666,22.325,5.48,8.724,17.885
486,0.839,36.292,17.146,34.657,22.318,5.481,8.685,17.64
487,0.846,36.408,17.162,34.647,22.318,5.44,8.684,17.312
488,0.843,35.968,17.186,34.637,22.318,5.399,8.684,17.024
489,0.826,36.098,17.178,34.628,22.315,5.318,8.603,16.533
490,0.83,36.243,17.116,34.676,22.318,5.439,8.602,16.284
491,0.83,36.322,17.068,34.647,22.318,5.359,8.521,15.916
492,0.823,35.929,17.083,34.676,22.318,5.439,8.683,15.79
493,0.823,36.06,17.119,34.695,22.318,5.399,8.684,15.423
494,0.846,36.214,17.146,34.695,22.329,5.48,8.766,15.216
495,0.82,36.254,17.154,34.648,22.311,5.318,8.604,14.767
496,0.826,36.034,17.182,34.647,22.322,5.276,8.643,14.356
497,0.826,36.195,17.127,34.647,22.315,5.316,8.684,14.149
498,0.843,36.369,17.142,34.685,22.325,5.439,8.644,13.984
499,0.843,36.438,17.139,34.676,22.325,5.44,8.765,13.738
500,0.849,36.065,17.154,34.667,22.322,5.359,8.685,13.411
501,0.846,36.224,17.205,34.695,22.329,5.399,8.725,13.163
502,0.849,36.302,17.202,34.657,22.311,5.318,8.726,12.714
503,0.846,36.361,17.233,34.676,22.325,5.317,8.685,12.628
504,0.827,35.91,17.225,34.638,22.308,5.317,8.603,12.383
505,0.849,36.079,17.155,34.685,22.329,5.398,8.806,12.462
506,0.833,36.205,17.143,34.705,22.315,5.358,8.604,12.503
507,0.843,36.225,17.143,34.676,22.318,5.277,8.684,12.666
508,0.833,35.947,17.209,34.676,22.318,5.398,8.644,12.831
509,0.83,36.079,17.198,34.667,22.315,5.277,8.603,12.954
510,0.83,36.215,17.151,34.676,22.322,5.357,8.602,13.647
511,0.82,36.245,17.104,34.657,22.311,5.277,8.521,14.467
512,0.83,36.302,17.087,34.695,22.318,5.357,8.683,15.736
513,0.83,36.428,17.06,34.705,22.318,5.317,8.603,16.805
514,0.843,36.554,17.107,34.715,22.329,5.398,8.643,17.832
515,0.833,35.749,17.138,34.676,22.315,5.318,8.603,18.737
516,0.843,35.78,17.197,34.676,22.315,5.276,8.602,19.478
517,0.833,35.933,17.163,34.695,22.318,5.276,8.643,20.177
518,0.839,36.04,17.151,34.695,22.318,5.316,8.684,20.671
519,0.852,35.917,17.147,34.715,22.318,5.317,8.725,21.042
520,0.853,36.04,17.174,34.705,22.318,5.317,8.685,21.168
521,0.856,36.185,17.24,34.715,22.332,5.398,8.807,21.25
522,0.853,36.254,17.233,34.705,22.315,5.318,8.645,21.089
523,0.859,35.861,17.237,34.705,22.315,5.276,8.765,21.128
524,0.84,35.982,17.21,34.676,22.315,5.154,8.726,21.087
525,0.862,36.166,17.178,34.724,22.318,5.315,8.97,21.087
526,0.859,36.244,17.143,34.734,22.322,5.317,9.053,21.006
527,0.862,35.9,17.158,34.725,22.322,5.317,9.095,20.842
528,0.84,36.011,17.197,34.724,22.322,5.317,9.095,20.759
529,0.852,36.137,17.194,34.715,22.318,5.276,9.136,20.514
530,0.846,36.206,17.159,34.724,22.315,5.276,9.177,20.309
531,0.836,35.899,17.084,34.715,22.322,5.276,9.137,20.022
532,0.836,36.088,17.079,34.753,22.322,5.357,9.339,20.019
533,0.843,36.215,17.083,34.763,22.318,5.358,9.342,19.775
534,0.856,36.245,17.146,34.782,22.332,5.399,9.382,19.61
535,0.84,35.89,17.127,34.725,22.308,5.318,9.22,19.161
536,0.843,36.04,17.197,34.715,22.322,5.317,9.3,18.913
537,0.849,36.147,17.155,34.724,22.318,5.317,9.341,18.626
538,0.853,36.215,17.147,34.753,22.325,5.317,9.382,18.338
539,0.859,36.014,17.154,34.744,22.318,5.236,9.301,17.929
540,0.862,36.166,17.17,34.744,22.318,5.316,9.341,17.518
541,0.862,36.283,17.209,34.744,22.322,5.358,9.423,17.27
542,0.866,35.938,17.241,34.734,22.311,5.236,9.302,16.699
543,0.866,35.829,17.241,34.744,22.315,5.316,9.463,16.449
544,0.859,35.953,17.222,34.715,22.315,5.236,9.505,15.918
545,0.866,36.069,17.175,34.763,22.325,5.357,9.79,15.831
546,0.862,35.936,17.17,34.763,22.318,5.358,9.875,15.424
547,0.872,36.079,17.178,34.782,22.332,5.399,9.957,15.094
548,0.856,36.167,17.209,34.744,22.311,5.277,9.998,14.603
549,0.84,36.263,17.202,34.734,22.315,5.316,10.039,14.354
550,0.843,35.804,17.131,34.753,22.315,5.358,10.243,14.067
551,0.846,35.934,17.064,34.763,22.315,5.358,10.245,13.82
552,0.843,36.05,17.036,34.782,22.322,5.399,10.326,13.574
553,0.843,36.157,17.13,34.821,22.322,5.358,10.327,13.327
554,0.846,35.86,17.131,34.793,22.329,5.399,10.449,13.162
555,0.843,35.992,17.154,34.754,22.311,5.277,10.288,12.754
556,0.856,36.127,17.221,34.773,22.311,5.316,10.286,12.628
557,0.869,36.186,17.12,34.735,22.315,5.195,10.164,12.22
558,0.869,35.803,17.134,34.763,22.325,5.397,10.326,12.216
559,0.859,35.943,17.131,34.802,22.322,5.358,10.246,12.013
560,0.885,36.098,17.178,34.792,22.322,5.358,10.245,11.808
561,0.869,36.1,17.205,34.754,22.315,5.317,10.245,11.602
562,0.876,35.898,17.21,34.763,22.315,5.317,10.286,11.397
563,0.879,36.05,17.249,34.773,22.325,5.317,10.327,11.151
564,0.872,36.166,17.237,34.763,22.318,5.276,10.246,10.986
565,0.869,36.215,17.143,34.782,22.322,5.398,10.326,10.984
566,0.869,35.756,17.135,34.792,22.318,5.358,10.327,10.74
567,0.876,35.933,17.185,34.821,22.332,5.439,10.449,10.738
568,0.846,36.012,17.213,34.773,22.315,5.277,10.328,10.331
569,0.849,36.051,17.178,34.754,22.311,5.235,10.368,10.246
570,0.843,35.783,17.1,34.773,22.311,5.316,10.328,10.123
571,0.856,35.943,17.072,34.802,22.318,5.317,10.368,10.041
572,0.843,36.041,17.087,34.812,22.315,5.317,10.328,9.918
573,0.859,35.878,17.107,34.802,22.318,5.317,10.286,9.794
574,0.856,35.867,17.138,34.792,22.322,5.358,10.327,9.793
575,0.859,35.992,17.178,34.792,22.315,5.236,10.165,9.468
576,0.856,36.108,17.225,34.792,22.322,5.235,10.204,9.424
577,0.859,35.802,17.12,34.773,22.311,5.194,10.001,9.22
578,0.866,35.914,17.146,34.83,22.325,5.356,10.08,9.34
579,0.879,36.05,17.143,34.831,22.325,5.317,9.999,9.26
580,0.889,36.176,17.178,34.841,22.332,5.48,9.999,9.219
581,0.869,35.717,17.19,34.802,22.311,5.237,9.795,8.974
582,0.879,35.875,17.221,34.802,22.311,5.316,9.753,8.891
583,0.866,35.982,17.19,34.802,22.325,5.358,9.671,8.768
584,0.876,36.089,17.244,34.831,22.322,5.399,9.629,8.726
585,0.872,35.726,17.151,34.831,22.325,5.399,9.548,8.766
586,0.869,35.866,17.147,34.812,22.318,5.318,9.506,8.645
587,0.866,36.021,17.178,34.84,22.329,5.398,9.587,8.765
588,0.872,36.041,17.225,34.802,22.311,5.277,9.385,8.482
589,0.882,35.706,17.19,34.831,22.315,5.357,9.342,8.479
590,0.872,35.866,17.108,34.802,22.311,5.195,9.138,8.316
591,0.872,36.001,17.045,34.859,22.325,5.438,9.299,8.437
592,0.863,36.051,17.11,34.908,22.318,5.399,9.26,8.357
593,0.879,35.802,17.162,34.86,22.322,5.358,9.219,8.315
594,0.869,35.895,17.104,34.831,22.318,5.317,9.096,8.274
595,0.879,36.03,17.181,34.821,22.315,5.317,8.973,8.436
596,0.882,36.089,17.194,34.831,22.315,5.439,8.972,9.088
597,0.889,35.783,17.112,34.841,22.315,5.318,8.931,9.868
598,0.889,35.924,17.162,34.869,22.322,5.358,8.931,10.892
599,0.885,36.04,17.135,34.86,22.318,5.358,8.85,11.918
600,0.898,36.387,17.193,34.889,22.329,5.521,8.889,13.148
601,0.892,35.748,17.209,34.841,22.318,5.238,8.727,14.543
602,0.889,35.885,17.21,34.86,22.315,5.316,8.766,16.631
603,0.876,35.992,17.213,34.86,22.311,5.317,8.807,18.644
604,0.895,35.801,17.198,34.879,22.318,5.358,8.889,20.494
605,0.899,35.809,17.116,34.889,22.318,5.399,8.849,22.057
606,0.892,35.953,17.115,34.889,22.311,5.358,8.889,23.17
607,0.895,36.069,17.15,34.879,22.322,5.439,8.971,24.157
608,0.899,35.697,17.201,34.851,22.311,5.318,8.85,24.533
609,0.892,35.817,17.155,34.869,22.318,5.317,8.93,24.781
610,0.879,35.924,17.119,34.86,22.315,5.276,8.89,24.783
611,0.879,36.069,17.138,34.908,22.325,5.398,9.012,24.783
612,0.885,35.572,17.139,34.908,22.322,5.399,9.054,24.458
613,0.895,35.72,17.15,34.889,22.318,5.318,9.054,24.089
614,0.889,35.837,17.147,34.879,22.322,5.398,9.217,23.638
615,0.885,35.924,17.186,34.889,22.311,5.277,9.178,22.983
616,0.882,35.733,17.19,34.889,22.322,5.276,9.218,22.448
617,0.889,35.885,17.139,34.899,22.308,5.276,9.096,21.832
618,0.905,36.059,17.158,34.947,22.322,5.438,9.258,21.42
619,0.889,36.109,17.147,34.909,22.315,5.318,9.259,20.887
620,0.915,36.138,17.197,34.956,22.325,5.398,9.259,20.313
621,0.905,36.215,17.206,34.89,22.311,5.318,9.178,19.778
622,0.908,36.35,17.213,34.908,22.315,5.317,9.218,19.407
623,0.899,36.38,17.229,34.908,22.318,5.317,9.137,19.2
624,0.905,35.546,17.186,34.928,22.318,5.317,9.177,18.913
625,0.902,35.701,17.123,34.937,22.318,5.439,9.177,18.788
626,0.899,35.827,17.142,34.947,22.311,5.318,9.055,18.706
627,0.899,35.857,17.185,34.957,22.325,5.48,9.217,18.664
628,0.892,35.742,17.178,34.918,22.315,5.318,8.934,18.339
629,0.899,35.885,17.143,34.937,22.318,5.358,9.012,18.173
630,0.889,35.982,17.107,34.909,22.308,5.277,8.85,17.927
631,0.892,36.261,17.115,34.956,22.325,5.438,9.011,18.047
632,0.889,35.727,17.131,34.938,22.318,5.359,9.013,17.845
633,0.908,35.894,17.154,34.985,22.322,5.358,8.972,17.883
634,0.892,35.954,17.178,34.948,22.315,5.358,8.931,17.884
635,0.905,35.705,17.201,34.947,22.311,5.277,8.768,17.843
636,0.905,35.722,17.194,34.947,22.318,5.357,8.807,17.965
637,0.908,35.875,17.151,34.995,22.322,5.358,8.808,17.885
638,0.912,35.973,17.131,34.986,22.325,5.399,8.767,17.965
639,0.915,35.724,17.146,34.976,22.318,5.277,8.807,17.844
640,0.922,35.875,17.217,35.005,22.325,5.438,8.93,17.802
641,0.928,35.963,17.19,34.948,22.315,5.277,8.728,17.354
642,0.935,36.05,17.205,34.966,22.315,5.276,8.726,17.187
643,0.912,35.562,17.19,34.947,22.308,5.316,8.644,16.86
644,0.915,35.739,17.151,34.985,22.315,5.398,8.806,16.735
645,0.912,35.885,17.15,35.034,22.315,5.399,8.767,16.368
646,0.922,35.982,17.135,34.986,22.318,5.358,8.807,16.161
647,0.902,35.705,17.162,34.967,22.311,5.277,8.808,15.834
648,0.908,35.856,17.19,34.976,22.315,5.235,8.767,15.464
649,0.918,35.973,17.139,34.986,22.318,5.316,8.848,15.176
650,0.899,36.07,17.1,34.995,22.311,5.317,8.808,14.807
651,0.899,35.697,17.123,34.996,22.325,5.317,8.93,14.681
652,0.902,35.827,17.131,34.996,22.318,5.276,8.931,14.436
653,0.918,35.991,17.146,35.015,22.332,5.398,8.972,14.271
654,0.915,36.003,17.166,34.977,22.311,5.277,8.891,13.863
655,0.922,35.878,17.229,34.967,22.308,5.235,8.849,13.737
656,0.905,36.002,17.179,34.986,22.311,5.275,8.889,13.533
657,0.925,36.166,17.19,35.005,22.325,5.357,8.93,13.408
658,0.931,36.167,17.139,35.015,22.318,5.277,8.931,13.245
659,0.925,35.755,17.178,35.005,22.318,5.276,8.972,13.04
660,0.925,35.895,17.229,35.015,22.325,5.276,8.931,12.916
661,0.935,36.011,17.206,34.996,22.311,5.235,8.728,12.589
662,0.935,36.156,17.186,35.005,22.311,5.235,8.888,12.423
663,0.922,35.899,17.155,34.986,22.311,5.194,8.687,12.096
664,0.931,36.04,17.147,35.005,22.325,5.316,8.888,12.052
665,0.918,36.157,17.146,35.005,22.322,5.317,8.93,11.889
666,0.935,35.928,17.166,35.053,22.329,5.439,8.931,11.847
667,0.915,35.916,17.186,34.996,22.315,5.237,8.768,11.562
668,0.925,36.069,17.19,34.996,22.311,5.235,8.807,11.397
669,0.909,36.138,17.112,35.024,22.311,5.275,8.93,11.232
670,0.921,35.812,17.146,35.015,22.325,5.357,8.89,11.149
671,0.918,35.915,17.131,35.024,22.318,5.317,8.93,11.026
672,0.909,36.069,17.15,35.034,22.325,5.276,8.931,10.903
673,0.918,36.157,17.17,35.044,22.336,5.398,9.053,10.821
674,0.918,35.976,17.178,35.025,22.318,5.155,8.81,10.495
675,0.912,36.108,17.233,35.015,22.315,5.153,8.808,10.41
676,0.905,36.205,17.155,34.996,22.304,5.153,8.726,10.247
677,0.921,36.331,17.182,35.043,22.325,5.315,8.929,10.286
678,0.925,35.939,17.159,35.044,22.318,5.236,8.89,10.123
679,0.931,36.108,17.205,35.054,22.325,5.316,8.809,10.325
680,0.931,36.215,17.213,35.034,22.311,5.195,8.767,10.49
681,0.938,36.273,17.213,35.034,22.315,5.153,8.767,10.735
682,0.945,36.044,17.202,35.025,22.318,5.193,8.767,11.063
683,0.932,36.195,17.174,35.053,22.318,5.194,8.726,11.514
684,0.925,36.321,17.119,35.063,22.325,5.234,8.888,12.169
685,0.925,36.38,17.15,35.044,22.318,5.235,8.768,13.07
686,0.925,36.246,17.127,35.082,22.329,5.316,8.929,14.42
687,0.931,36.35,17.193,35.035,22.318,5.073,8.646,15.288
688,0.931,36.476,17.147,35.044,22.318,5.193,8.684,16.354
689,0.918,36.477,17.018,35.044,22.308,5.072,8.603,17.177
690,0.925,36.247,17.102,35.073,22.325,5.233,8.724,17.999
691,0.918,36.379,17.115,35.073,22.325,5.235,8.726,18.495
692,0.918,36.515,17.146,35.063,22.325,5.194,8.685,18.906
693,0.918,36.516,17.17,35.063,22.325,5.194,8.684,19.114
694,0.925,36.363,17.182,35.044,22.308,5.194,8.522,19.116
695,0.928,36.476,17.229,35.073,22.325,5.234,8.479,19.116
696,0.935,36.602,17.143,35.063,22.311,5.153,8.398,18.953
697,0.938,36.431,17.158,35.092,22.318,5.275,8.478,18.952
698,0.938,36.467,17.166,35.083,22.322,5.195,8.52,18.667
699,0.945,36.64,17.205,35.111,22.329,5.356,8.479,18.379
700,0.948,36.68,17.21,35.073,22.311,5.155,8.316,18.011
701,0.941,36.489,17.174,35.073,22.311,5.193,8.274,17.641
702,0.938,36.593,17.186,35.092,22.318,5.194,8.314,17.475
703,0.948,36.747,17.139,35.092,22.315,5.194,8.274,16.985
704,0.941,36.825,17.096,35.111,22.325,5.234,8.274,16.858
705,0.928,36.471,17.138,35.093,22.318,5.153,8.233,16.491
706,0.938,36.659,17.182,35.111,22.332,5.397,8.395,16.406
707,0.919,36.729,17.209,35.083,22.315,5.074,8.153,15.999
708,0.925,36.796,17.167,35.102,22.311,5.274,8.15,15.832
709,0.915,36.519,17.127,35.14,22.311,5.154,8.11,15.627
710,0.931,36.689,17.138,35.102,22.318,5.315,8.109,15.503
711,0.922,36.815,17.142,35.092,22.318,5.236,8.15,15.299
712,0.925,36.864,17.158,35.111,22.318,5.235,8.11,15.052
713,0.922,36.884,17.19,35.131,22.329,5.316,8.232,15.009
714,0.915,36.98,17.182,35.102,22.318,5.154,8.029,14.643
715,0.935,37.106,17.241,35.102,22.315,5.153,8.109,14.599
716,0.922,37.155,17.12,35.092,22.308,5.112,8.069,14.476
717,0.935,36.801,17.131,35.131,22.325,5.234,8.272,14.556
718,0.931,36.931,17.139,35.121,22.318,5.194,8.274,14.516
719,0.951,37.057,17.224,35.15,22.325,5.234,8.355,14.435
720,0.938,37.049,17.237,35.122,22.308,5.153,8.356,14.393
721,0.938,36.895,17.19,35.131,22.311,5.153,8.437,14.23
722,0.938,37.038,17.163,35.121,22.318,5.234,8.601,14.188
723,0.941,37.125,17.147,35.121,22.311,5.194,8.602,13.984
724,0.928,37.193,17.104,35.15,22.318,5.275,8.765,13.901
725,0.922,37.137,17.15,35.16,22.322,5.195,8.767,13.778
726,0.925,37.289,17.205,35.179,22.332,5.316,9.051,13.736
727,0.905,37.349,17.194,35.122,22.318,5.154,8.932,13.37
728,0.915,36.918,17.143,35.141,22.311,5.193,9.053,13.163
729,0.912,36.932,17.072,35.141,22.301,5.153,9.013,12.998
730,0.918,37.124,17.142,35.169,22.325,5.275,9.216,12.875
731,0.905,37.222,17.154,35.16,22.318,5.276,9.259,12.751
732,0.899,37.022,17.178,35.141,22.318,5.195,9.341,12.506
733,0.905,37.135,17.17,35.169,22.329,5.194,9.342,12.423
734,0.905,37.261,17.194,35.16,22.305,5.072,9.342,12.096
735,0.915,37.348,17.217,35.17,22.318,5.152,9.382,12.012
736,0.905,37.052,17.116,35.151,22.308,5.153,9.342,11.726
737,0.915,37.183,17.146,35.198,22.325,5.234,9.545,11.723
738,0.905,37.309,17.139,35.18,22.318,5.153,9.466,11.479
739,0.905,37.416,17.217,35.218,22.332,5.315,9.587,11.477
740,0.908,36.985,17.214,35.161,22.311,5.114,9.425,11.233
741,0.905,37.134,17.19,35.179,22.311,5.193,9.505,11.109
742,0.902,37.242,17.17,35.17,22.318,5.153,9.506,11.23
743,0.902,37.329,17.131,35.189,22.325,5.234,9.506,11.556
744,0.889,37.061,17.111,35.18,22.325,5.194,9.546,11.884
745,0.882,37.202,17.134,35.189,22.315,5.153,9.506,12.294
746,0.889,37.328,17.158,35.208,22.325,5.315,9.709,12.746
747,0.869,37.339,17.217,35.18,22.315,5.032,9.508,13.238
748,0.882,37.109,17.155,35.189,22.322,5.192,9.546,14.097
749,0.863,37.232,17.15,35.199,22.311,5.112,9.506,15.122
750,0.866,37.396,17.162,35.189,22.322,5.234,9.668,16.352
751,0.876,37.407,17.178,35.208,22.318,5.153,9.629,17.299
752,0.879,37.081,17.182,35.218,22.325,5.234,9.71,18.244
753,0.859,37.174,17.155,35.189,22.311,5.153,9.792,18.822
754,0.862,37.28,17.205,35.189,22.315,5.112,9.753,19.235
755,0.866,37.253,17.194,35.208,22.315,5.234,9.752,19.564
756,0.853,37.233,17.077,35.228,22.325,5.113,9.752,19.73
757,0.856,37.377,17.122,35.228,22.325,5.234,9.833,19.894
758,0.866,37.484,17.162,35.228,22.315,5.113,9.794,19.733
759,0.866,37.101,17.217,35.257,22.332,5.315,9.915,19.691
760,0.859,37.107,17.21,35.209,22.315,5.114,9.632,19.244
761,0.862,37.251,17.206,35.228,22.318,5.152,9.67,19.036
762,0.859,37.31,17.147,35.189,22.308,5.193,9.629,18.668
763,0.869,37.08,17.143,35.237,22.318,5.234,9.71,18.461
764,0.853,37.183,17.092,35.247,22.325,5.194,9.711,18.093
765,0.856,37.319,17.115,35.257,22.322,5.194,9.752,17.845
766,0.84,37.387,17.154,35.247,22.318,5.234,9.793,17.558
767,0.833,37.023,17.174,35.228,22.311,5.113,9.671,17.189
768,0.82,37.164,17.139,35.257,22.318,5.152,9.833,16.982
769,0.83,37.29,17.146,35.247,22.311,5.153,9.712,16.736
770,0.823,37.406,17.15,35.266,22.325,5.234,9.914,16.774
771,0.817,37.033,17.166,35.257,22.322,5.194,9.876,16.612
772,0.826,37.192,17.225,35.305,22.329,5.316,10.038,16.651
773,0.813,37.29,17.218,35.238,22.315,5.154,9.918,16.489
774,0.82,37.349,17.214,35.266,22.315,5.112,9.916,16.365
775,0.807,37.033,17.241,35.257,22.315,5.193,9.916,16.364
776,0.826,37.192,17.12,35.276,22.329,5.234,9.916,16.323
777,0.826,37.309,17.131,35.267,22.322,5.235,9.957,16.364
778,0.823,37.368,17.139,35.276,22.315,5.113,9.835,16.364
779,0.83,37.1,17.201,35.286,22.332,5.274,9.956,16.364
780,0.833,37.212,17.202,35.248,22.318,5.195,9.673,16.323
781,0.836,37.338,17.167,35.266,22.315,5.194,9.711,16.974
782,0.83,37.339,17.135,35.276,22.308,5.153,9.548,17.712
783,0.83,37.128,17.131,35.286,22.318,5.234,9.628,19.346
784,0.839,37.251,17.119,35.286,22.318,5.275,9.548,20.785
785,0.846,37.386,17.158,35.295,22.322,5.235,9.547,22.263
786,0.814,37.158,17.186,35.276,22.311,5.194,9.425,23.416
787,0.82,37.079,17.194,35.295,22.311,5.194,9.342,24.2
788,0.82,37.222,17.159,35.286,22.318,5.194,9.423,24.777
789,0.823,37.338,17.135,35.334,22.322,5.234,9.383,25.068
790,0.817,36.908,17.139,35.315,22.318,5.235,9.464,25.152
791,0.816,36.971,17.154,35.315,22.318,5.194,9.465,25.112
792,0.826,37.134,17.189,35.325,22.329,5.316,9.627,25.03
793,0.81,37.184,17.198,35.277,22.318,5.073,9.466,24.42
794,0.813,37.05,17.209,35.295,22.322,5.193,9.546,24.047
795,0.807,37.145,17.225,35.286,22.311,4.99,9.425,23.475
796,0.826,37.328,17.116,35.315,22.325,5.232,9.708,23.062
797,0.833,37.406,17.142,35.315,22.325,5.235,9.67,22.448
798,0.823,36.822,17.146,35.315,22.318,5.153,9.711,21.914
799,0.813,36.951,17.197,35.315,22.315,5.193,9.711,21.258
800,0.833,37.096,17.229,35.305,22.308,5.153,9.63,20.682
801,0.83,37.145,17.186,35.334,22.318,5.153,9.751,20.107
802,0.826,36.906,17.123,35.325,22.318,5.153,9.63,19.573
803,0.836,37.067,17.115,35.344,22.318,5.234,9.792,19.323
804,0.823,37.183,17.06,35.334,22.322,5.194,9.753,18.874
805,0.836,37.261,17.138,35.363,22.329,5.316,9.793,18.544
806,0.82,37.3,17.174,35.335,22.315,5.154,9.631,18.134
807,0.817,37.464,17.194,35.334,22.318,5.112,9.629,17.724
808,0.813,37.561,17.143,35.344,22.318,5.152,9.629,17.475
809,0.826,37.62,17.162,35.411,22.325,5.193,9.548,17.066
810,0.826,36.642,17.154,35.345,22.325,5.194,9.628,16.778
811,0.82,36.786,17.162,35.344,22.318,5.234,9.71,16.409
812,0.833,36.922,17.19,35.373,22.336,5.357,9.792,16.202
813,0.817,36.875,17.155,35.325,22.315,5.155,9.671,15.753
814,0.826,36.98,17.217,35.353,22.315,5.193,9.67,15.504
815,0.813,37.115,17.221,35.335,22.311,5.072,9.751,15.217
816,0.836,37.241,17.155,35.353,22.315,5.233,9.915,15.052
817,0.833,36.888,17.123,35.354,22.315,5.275,9.957,14.847
818,0.839,36.798,17.17,35.373,22.318,5.195,9.998,14.56
819,0.83,36.902,17.186,35.344,22.325,5.275,10.039,14.435
820,0.833,37.028,17.213,35.354,22.318,5.154,9.999,14.068
821,0.839,36.79,17.194,35.354,22.318,5.193,10.08,13.902
822,0.846,36.883,17.147,35.354,22.311,5.234,10.04,13.697
823,0.84,37.018,17.139,35.373,22.322,5.194,10.243,13.573
824,0.843,37.116,17.092,35.373,22.322,5.234,10.164,13.409
825,0.849,36.714,17.158,35.402,22.332,5.357,10.285,13.285
826,0.836,36.825,17.147,35.354,22.318,5.195,10.164,12.959
827,0.83,36.96,17.213,35.354,22.318,5.234,10.163,12.833
828,0.82,37.019,17.167,35.354,22.308,5.072,10.122,12.588
829,0.849,36.694,17.17,35.402,22.325,5.274,10.244,12.505
830,0.83,36.825,17.131,35.373,22.318,5.195,10.245,12.341
831,0.843,36.979,17.15,35.392,22.315,5.234,10.204,12.177
832,0.826,37.019,17.162,35.383,22.318,5.194,10.123,12.013
833,0.83,36.732,17.166,35.373,22.315,5.194,10.081,11.767
834,0.836,36.883,17.19,35.402,22.315,5.194,10.081,11.642
835,0.843,37.018,17.229,35.392,22.315,5.194,10.162,11.519
836,0.843,37.097,17.143,35.392,22.322,5.234,10.163,11.559
837,0.843,36.666,17.17,35.402,22.318,5.275,10.204,11.437
838,0.853,36.824,17.194,35.45,22.332,5.398,10.326,11.436
839,0.833,36.903,17.194,35.383,22.311,5.155,10.165,11.233
840,0.846,36.961,17.252,35.383,22.318,5.315,10.407,11.068
841,0.846,36.799,17.206,35.373,22.315,5.154,10.45,11.148
842,0.856,36.96,17.198,35.411,22.325,5.315,10.613,11.23
843,0.836,37.077,17.182,35.412,22.325,5.317,10.696,11.231
844,0.843,37.337,17.08,35.412,22.315,5.276,10.737,11.271
845,0.843,36.745,17.107,35.412,22.325,5.316,10.9,11.434
846,0.833,36.883,17.119,35.402,22.315,5.195,10.739,11.314
847,0.833,36.99,17.181,35.402,22.318,5.316,10.779,11.435
848,0.839,36.751,17.147,35.383,22.308,5.195,10.698,11.314
849,0.833,36.787,17.131,35.45,22.325,5.397,10.859,11.516
850,0.82,36.912,17.123,35.422,22.318,5.318,10.78,11.396
851,0.839,37.047,17.181,35.46,22.325,5.439,10.82,11.436
852,0.826,36.512,17.194,35.412,22.318,5.277,10.657,11.436
853,0.839,36.631,17.221,35.412,22.315,5.316,10.656,11.436
854,0.83,36.767,17.214,35.431,22.318,5.317,10.615,11.68
855,0.843,36.873,17.249,35.441,22.315,5.317,10.696,12.008
856,0.836,36.548,17.136,35.45,22.318,5.398,10.656,12.458
857,0.833,36.699,17.131,35.45,22.322,5.358,10.615,12.747
858,0.852,36.834,17.174,35.479,22.325,5.521,10.655,13.563
859,0.836,36.884,17.201,35.441,22.311,5.319,10.412,14.019
860,0.856,36.731,17.217,35.45,22.318,5.317,10.45,15.446
861,0.846,36.825,17.186,35.422,22.304,5.236,10.328,16.884
862,0.853,36.989,17.162,35.46,22.322,5.397,10.368,18.524
863,0.843,37.039,17.154,35.46,22.315,5.399,10.328,19.801
864,0.846,36.541,17.108,35.451,22.325,5.358,10.246,20.708
865,0.836,36.67,17.154,35.45,22.315,5.358,10.245,21.531
866,0.833,36.786,17.162,35.441,22.315,5.317,10.123,22.027
867,0.823,36.845,17.217,35.47,22.322,5.358,10.244,22.438
868,0.833,36.635,17.147,35.47,22.325,5.358,10.204,22.483
869,0.826,36.776,17.135,35.489,22.322,5.399,10.326,22.605
870,0.82,36.883,17.127,35.489,22.322,5.358,10.286,22.362
871,0.83,36.932,17.15,35.489,22.329,5.439,10.367,22.197
872,0.813,36.52,17.15,35.46,22.311,5.318,10.124,21.667
873,0.826,36.67,17.201,35.479,22.315,5.398,10.244,21.418
874,0.817,36.748,17.229,35.46,22.311,5.236,10.082,21.09
875,0.826,37.094,17.229,35.498,22.325,5.397,10.203,21.006
876,0.82,36.695,17.147,35.489,22.318,5.358,10.163,20.924
877,0.826,36.844,17.162,35.508,22.318,5.439,10.122,20.76
878,0.82,36.922,17.174,35.48,22.322,5.277,10.081,20.677
879,0.836,36.578,17.229,35.48,22.311,5.357,9.999,20.473
880,0.833,36.584,17.233,35.518,22.322,5.399,9.999,20.349
881,0.839,36.728,17.202,35.509,22.315,5.318,9.958,20.185
882,0.836,36.835,17.174,35.509,22.325,5.398,9.998,20.184
883,0.839,36.414,17.155,35.499,22.322,5.358,9.958,20.021
884,0.83,36.573,17.1,35.547,22.336,5.48,10.12,19.938
885,0.826,36.651,17.138,35.509,22.315,5.318,9.919,19.531
886,0.817,36.748,17.154,35.509,22.318,5.358,10.12,19.282
887,0.807,36.538,17.221,35.499,22.318,5.358,10.122,19.077
888,0.826,36.727,17.163,35.537,22.325,5.399,10.244,18.79
889,0.81,36.854,17.119,35.538,22.325,5.399,10.286,18.584
890,0.803,36.922,17.131,35.518,22.318,5.44,10.286,18.257
891,0.807,36.328,17.139,35.537,22.322,5.481,10.367,18.05
892,0.807,36.476,17.166,35.518,22.308,5.318,10.328,17.763
893,0.8,36.631,17.178,35.537,22.322,5.317,10.327,17.476
894,0.797,36.69,17.194,35.518,22.311,5.236,10.286,17.107
895,0.807,36.556,17.217,35.547,22.322,5.397,10.449,16.981
896,0.8,36.718,17.163,35.547,22.318,5.399,10.41,16.655
897,0.807,36.863,17.174,35.586,22.329,5.399,10.572,16.367
898,0.803,36.874,17.147,35.538,22.315,5.318,10.492,16.08
899,0.803,36.491,17.193,35.547,22.311,5.358,10.491,15.833
900,0.803,36.602,17.217,35.547,22.318,5.358,10.614,15.627
901,0.81,36.757,17.202,35.557,22.318,5.399,10.696,15.503
902,0.82,36.777,17.194,35.557,22.318,5.48,10.737,15.38
903,0.817,36.452,17.182,35.576,22.311,5.481,10.697,15.216
904,0.816,36.631,17.12,35.605,22.332,5.562,10.819,15.174
905,0.794,36.719,17.142,35.577,22.311,5.319,10.657,14.767
906,0.793,36.815,17.15,35.576,22.318,5.317,10.656,14.681
907,0.784,36.423,17.225,35.548,22.308,5.236,10.574,14.518
908,0.803,36.592,17.202,35.576,22.325,5.438,10.777,14.435
909,0.79,36.68,17.135,35.605,22.325,5.399,10.698,14.271
910,0.787,36.384,17.158,35.596,22.329,5.44,10.697,14.107
911,0.793,36.428,17.147,35.615,22.325,5.521,10.778,14.105
912,0.78,36.544,17.162,35.586,22.311,5.36,10.657,13.902
913,0.787,36.651,17.158,35.605,22.318,5.358,10.818,13.859
914,0.78,36.364,17.162,35.577,22.311,5.277,10.739,13.737
915,0.793,36.515,17.213,35.605,22.318,5.438,11.022,13.776
916,0.79,36.641,17.163,35.605,22.322,5.399,11.066,13.614
917,0.806,36.776,17.17,35.625,22.322,5.399,11.188,13.45
918,0.781,36.337,17.151,35.606,22.318,5.318,11.23,13.367
919,0.793,36.476,17.205,35.625,22.318,5.317,11.231,13.204
920,0.803,36.602,17.229,35.634,22.322,5.358,11.271,13.039
921,0.807,36.69,17.206,35.625,22.315,5.358,11.231,12.834
922,0.803,36.374,17.17,35.615,22.322,5.358,11.393,12.751
923,0.79,36.515,17.143,35.644,22.318,5.317,11.436,12.588
924,0.787,36.67,17.123,35.663,22.329,5.439,11.558,12.586
925,0.79,36.671,17.158,35.615,22.311,5.277,11.275,12.22
926,0.793,36.364,17.17,35.644,22.318,5.316,11.394,12.135
927,0.78,36.476,17.225,35.615,22.315,5.236,11.314,11.972
928,0.784,36.64,17.178,35.663,22.325,5.397,11.516,11.807
929,0.774,36.69,17.162,35.683,22.318,5.399,11.518,11.643
930,0.806,36.479,17.147,35.654,22.318,5.358,11.518,11.601
931,0.82,36.612,17.166,35.663,22.315,5.399,11.559,11.56
932,0.82,36.718,17.197,35.663,22.315,5.277,11.356,11.234
933,0.826,36.758,17.206,35.654,22.318,5.316,11.395,11.231
934,0.826,36.365,17.229,35.654,22.311,5.236,11.232,10.987
935,0.852,36.515,17.257,35.682,22.325,5.397,11.434,11.147
936,0.859,36.631,17.12,35.683,22.318,5.399,11.355,10.904
937,0.879,36.728,17.15,35.712,22.329,5.399,11.313,10.861
938,0.863,36.499,17.162,35.673,22.315,5.358,11.15,10.739
939,0.879,36.66,17.201,35.683,22.318,5.317,11.067,10.575
940,0.885,36.748,17.206,35.692,22.322,5.398,11.066,10.451
941,0.898,36.365,17.198,35.692,22.325,5.358,10.985,10.369
942,0.902,36.409,17.139,35.702,22.325,5.399,10.944,10.409
943,0.905,36.553,17.146,35.693,22.315,5.44,10.943,10.206
944,0.899,36.66,17.111,35.731,22.325,5.521,10.943,10.367
945,0.879,36.345,17.162,35.693,22.311,5.238,10.699,10.328
946,0.869,36.486,17.182,35.702,22.315,5.357,10.616,10.612
947,0.843,36.593,17.209,35.683,22.304,5.277,10.574,10.859
948,0.859,36.699,17.151,35.712,22.322,5.357,10.574,11.227
949,0.849,36.307,17.154,35.721,22.318,5.358,10.533,11.637
950,0.853,36.476,17.15,35.712,22.318,5.399,10.451,12.129
951,0.836,36.573,17.162,35.702,22.322,5.399,10.369,13.069
952,0.839,36.641,17.19,35.702,22.315,5.358,10.287,14.136
953,0.852,36.268,17.225,35.731,22.315,5.358,10.245,15.529
954,0.856,36.408,17.257,35.722,22.311,5.317,10.204,16.641
955,0.853,36.544,17.265,35.741,22.322,5.48,10.245,17.709
956,0.866,36.622,17.136,35.731,22.325,5.44,10.204,18.451
957,0.898,36.421,17.185,35.77,22.329,5.481,10.245,19.109
958,0.918,36.506,17.182,35.741,22.311,5.359,10.042,19.563
959,0.925,36.65,17.209,35.741,22.311,5.399,9.999,19.73
960,0.935,36.68,17.198,35.75,22.318,5.399,9.999,19.894
961,0.931,36.364,17.182,35.76,22.315,5.399,9.958,19.937
962,0.915,36.515,17.123,35.77,22.322,5.44,9.957,19.896
963,0.896,36.631,17.131,35.77,22.322,5.359,9.917,19.693
964,0.892,36.661,17.084,35.799,22.329,5.439,10.039,19.609
965,0.879,36.441,17.126,35.741,22.318,5.318,9.877,19.161
966,0.863,36.582,17.15,35.77,22.322,5.317,9.916,18.913
967,0.846,36.68,17.186,35.76,22.311,5.276,9.794,18.463
968,0.843,36.633,17.139,35.789,22.325,5.438,10.037,18.255
969,0.839,36.45,17.15,35.78,22.315,5.359,9.958,17.928
970,0.839,36.583,17.158,35.789,22.325,5.358,9.998,17.64
971,0.836,36.651,17.17,35.78,22.318,5.277,9.958,17.393
972,0.83,36.345,17.197,35.77,22.318,5.316,9.917,17.106
973,0.826,36.409,17.194,35.779,22.322,5.398,9.957,16.9
974,0.839,36.553,17.229,35.77,22.311,5.358,10.039,16.654
975,0.833,36.66,17.202,35.799,22.325,5.399,10.08,16.57
976,0.839,36.297,17.19,35.866,22.318,5.44,10.081,16.244
977,0.839,36.456,17.151,35.828,22.329,5.521,10.203,16.119
978,0.823,36.535,17.162,35.799,22.315,5.319,9.919,15.752
979,0.8,36.651,17.217,35.809,22.318,5.358,9.916,15.504
980,0.807,36.23,17.194,35.77,22.311,5.317,9.916,15.258
981,0.81,36.436,17.174,35.837,22.322,5.48,9.916,15.133
982,0.8,36.544,17.116,35.818,22.315,5.359,9.876,14.888
983,0.797,36.632,17.072,35.847,22.322,5.399,9.916,14.642
984,0.803,36.297,17.107,35.905,22.318,5.358,9.794,14.477
985,0.807,36.428,17.111,35.81,22.315,5.358,9.712,14.15
986,0.8,36.592,17.177,35.847,22.318,5.317,9.589,13.984
987,0.803,36.632,17.198,35.838,22.315,5.317,9.588,13.698
988,0.813,36.412,17.112,35.876,22.325,5.358,9.669,13.613
989,0.807,36.544,17.166,35.848,22.318,5.399,9.507,13.328
990,0.8,36.689,17.158,35.876,22.332,5.521,9.628,13.284
991,0.8,36.69,17.17,35.838,22.311,5.278,9.426,12.878
992,0.8,36.259,17.194,35.838,22.318,5.357,9.383,12.751
993,0.807,36.398,17.186,35.818,22.308,5.317,9.301,12.547
994,0.816,36.534,17.233,35.876,22.318,5.439,9.382,12.464
995,0.807,36.564,17.233,35.857,22.322,5.399,9.261,12.3
996,0.8,36.488,17.163,35.876,22.325,5.399,9.3,12.136
997,0.784,36.631,17.166,35.876,22.322,5.48,9.341,12.134
998,0.774,36.719,17.209,35.848,22.308,5.318,9.138,11.728
999,0.79,36.556,17.245,35.867,22.311,5.317,9.177,11.683
1000,0.777,36.392,17.19,35.848,22.308,5.236,9.055,11.479
1001,0.774,36.563,17.131,35.905,22.322,5.397,9.298,11.477
1002,0.774,36.67,17.096,35.886,22.325,5.318,9.219,11.355
1003,0.78,36.422,17.099,35.905,22.318,5.398,9.218,11.232
1004,0.761,36.448,17.119,35.905,22.325,5.318,9.137,11.149
1005,0.761,36.592,17.123,35.896,22.308,5.236,9.055,10.904
1006,0.751,36.699,17.185,35.905,22.311,5.275,9.176,10.943
1007,0.731,36.345,17.155,35.896,22.311,5.235,8.974,10.862
1008,0.705,36.505,17.15,35.934,22.322,5.316,9.135,10.942
1009,0.728,36.631,17.131,35.915,22.325,5.358,9.055,10.862
1010,0.718,36.728,17.174,35.944,22.329,5.358,9.135,10.82
1011,0.695,36.307,17.186,35.906,22.318,5.317,8.933,10.698
1012,0.688,36.485,17.229,35.915,22.311,5.236,9.012,10.575
1013,0.695,36.602,17.198,35.915,22.322,5.235,9.013,10.574
1014,0.708,36.69,17.225,35.925,22.311,5.275,9.094,10.451
1015,0.705,36.364,17.214,35.944,22.325,5.316,9.176,10.41
1016,0.715,36.505,17.182,35.963,22.318,5.317,9.137,10.369
1017,0.721,36.641,17.19,35.963,22.332,5.398,9.339,10.368
1018,0.721,36.671,17.198,35.935,22.311,5.236,9.26,10.084
1019,0.718,36.383,17.213,35.934,22.315,5.235,9.3,9.999
1020,0.721,36.505,17.178,35.925,22.308,5.153,9.382,9.999
1021,0.731,36.669,17.178,35.963,22.325,5.315,9.545,9.958
1022,0.738,36.69,17.112,35.963,22.318,5.317,9.628,9.835
1023,0.734,36.441,17.107,35.954,22.318,5.276,9.67,9.753
1024,0.715,36.592,17.142,36.021,22.322,5.316,9.751,9.833
1025,0.715,36.68,17.123,35.954,22.315,5.195,9.63,9.509
1026,0.715,36.719,17.189,35.954,22.318,5.153,9.71,9.587
1027,0.708,36.355,17.182,35.954,22.308,5.153,9.63,9.385
1028,0.715,36.505,17.104,36.002,22.322,5.315,9.914,9.464
1029,0.708,36.612,17.103,35.993,22.318,5.195,9.957,9.383
1030,0.702,36.479,17.162,36.021,22.329,5.356,10.12,9.423
1031,0.708,36.362,17.151,35.983,22.311,5.195,10.081,9.22
1032,0.705,36.515,17.193,35.973,22.315,5.194,10.121,9.178
1033,0.692,36.612,17.186,35.983,22.315,5.194,10.244,9.177
1034,0.711,36.402,17.237,36.002,22.322,5.234,10.367,9.096
1035,0.715,36.486,17.249,36.012,22.315,5.235,10.49,9.095
1036,0.695,36.602,17.214,36.012,22.315,5.316,10.573,8.973
1037,0.714,36.728,17.167,36.031,22.325,5.358,10.696,9.053
1038,0.705,36.231,17.182,36.002,22.311,5.114,10.534,8.81
1039,0.711,36.379,17.229,36.012,22.315,5.193,10.614,8.848
1040,0.718,36.467,17.218,35.983,22.308,5.112,10.533,8.767
1041,0.734,36.592,17.19,36.021,22.325,5.234,10.736,8.848
1042,0.715,36.363,17.139,36.022,22.318,5.153,10.575,8.767
1043,0.715,36.505,17.131,36.041,22.315,5.193,10.614,8.685
1044,0.705,36.612,17.08,36.051,22.318,5.194,10.655,8.766
1045,0.711,36.68,17.161,36.041,22.315,5.112,10.493,8.563
1046,0.721,36.422,17.201,36.031,22.322,5.152,10.491,8.602
1047,0.711,36.563,17.209,36.031,22.311,5.112,10.369,8.399
1048,0.715,36.708,17.135,36.06,22.318,5.274,10.49,8.519
1049,0.718,36.758,17.139,36.051,22.325,5.235,10.41,8.439
1050,0.715,36.403,17.162,36.07,22.329,5.275,10.409,8.479
1051,0.698,36.496,17.174,36.032,22.315,5.154,10.206,8.438
1052,0.701,36.631,17.194,36.05,22.315,5.153,10.245,8.438
1053,0.695,36.68,17.206,36.07,22.315,5.193,10.245,8.438
1054,0.711,36.326,17.206,36.08,22.315,5.153,10.164,8.357
1055,0.708,36.485,17.256,36.07,22.322,5.193,10.244,8.478
1056,0.708,36.593,17.191,36.147,22.329,5.194,10.164,8.52
1057,0.702,36.651,17.159,36.109,22.336,5.275,10.285,8.52
1058,0.711,36.393,17.17,36.051,22.318,5.073,10.001,8.358
1059,0.728,36.544,17.233,36.079,22.315,5.152,10.039,8.437
1060,0.708,36.641,17.202,36.08,22.315,5.153,9.999,8.438
1061,0.718,36.422,17.159,36.099,22.318,5.153,9.999,8.397
1062,0.728,36.343,17.108,36.099,22.325,5.153,9.958,8.397
1063,0.741,36.476,17.099,36.089,22.315,5.193,9.795,8.356
1064,0.744,36.592,17.15,36.185,22.318,5.234,9.915,8.559
1065,0.757,36.325,17.147,36.09,22.311,5.113,9.713,8.317
1066,0.761,36.428,17.186,36.089,22.318,5.152,9.711,8.396
1067,0.731,36.554,17.194,36.089,22.308,5.071,9.589,8.194
1068,0.725,36.66,17.131,36.137,22.329,5.233,9.751,8.354
1069,0.718,36.192,17.127,36.128,22.318,5.194,9.671,8.315
1070,0.724,36.379,17.174,36.166,22.325,5.194,9.711,8.477
1071,0.695,36.467,17.174,36.109,22.315,5.031,9.589,8.601
1072,0.718,36.535,17.197,36.118,22.315,5.151,9.588,9.171
1073,0.711,36.277,17.206,36.118,22.311,5.071,9.71,9.746
1074,0.728,36.427,17.213,36.128,22.318,5.193,9.711,10.281
1075,0.728,36.563,17.237,36.147,22.322,5.153,9.752,10.977
1076,0.721,36.641,17.155,36.186,22.318,5.193,9.833,11.838
1077,0.737,36.249,17.154,36.157,22.329,5.234,9.916,13.27
1078,0.731,36.37,17.189,36.148,22.311,5.072,9.794,14.504
1079,0.731,36.505,17.241,36.128,22.315,5.193,9.834,15.777
1080,0.725,36.526,17.229,36.138,22.311,4.99,9.794,16.887
1081,0.754,36.277,17.179,36.157,22.322,5.151,9.956,17.874
1082,0.761,36.399,17.139,36.167,22.322,5.193,9.998,18.616
1083,0.767,36.534,17.135,36.186,22.315,5.194,9.917,19.111
1084,0.748,36.535,16.998,36.186,22.318,5.234,10.079,19.441
1085,0.734,36.286,17.145,36.157,22.315,5.153,10.081,19.566
1086,0.738,36.418,17.186,36.186,22.315,5.153,10.162,19.649
1087,0.734,36.525,17.213,36.157,22.318,5.031,10.244,19.446
1088,0.741,36.813,17.104,36.205,22.325,5.151,10.489,19.485
1089,0.747,36.356,17.146,36.167,22.322,5.112,10.573,19.16
1090,0.754,36.514,17.174,36.205,22.332,5.315,10.777,19.035
1091,0.741,36.593,17.174,36.177,22.318,5.114,10.657,18.586
1092,0.751,36.306,17.225,36.196,22.318,5.071,10.818,18.338
1093,0.748,36.246,17.202,36.186,22.315,5.07,10.861,17.969
1094,0.77,36.427,17.241,36.215,22.329,5.193,10.983,17.763
1095,0.774,36.515,17.21,36.225,22.325,5.153,10.944,17.435
1096,0.787,36.133,17.174,36.215,22.318,5.153,10.902,17.025
1097,0.806,36.253,17.135,36.225,22.325,5.193,10.943,16.696
1098,0.839,36.37,17.178,36.196,22.315,5.153,10.821,16.246
1099,0.856,36.476,17.225,36.234,22.311,5.112,10.82,15.997
1100,0.872,36.228,17.186,36.196,22.315,5.112,10.698,15.629
1101,0.892,36.379,17.147,36.263,22.325,5.152,10.778,15.544
1102,0.912,36.515,17.131,36.244,22.325,5.153,10.738,15.177
1103,0.99,36.631,17.119,36.273,22.329,5.193,10.657,15.011
1104,1.03,36.182,17.123,36.244,22.318,5.112,10.534,14.684
1105,1.076,36.331,17.162,36.235,22.311,5.071,10.41,14.436
1106,1.138,36.447,17.201,36.254,22.318,5.111,10.369,14.231
1107,1.174,36.525,17.198,36.254,22.315,5.071,10.246,13.944
1108,1.22,36.171,17.163,36.302,22.325,5.152,10.326,13.86
1109,1.23,36.302,17.154,36.283,22.325,5.112,10.246,13.574
1110,1.23,36.437,17.182,36.312,22.332,5.315,10.245,13.531
1111,1.204,36.458,17.194,36.264,22.315,5.073,10.123,13.205
1112,1.188,36.17,17.241,36.264,22.315,5.07,10.081,12.999
1113,1.168,36.302,17.245,36.283,22.315,5.111,10.081,12.793
1114,1.148,36.447,17.249,36.302,22.315,5.152,10.081,12.547
1115,1.145,36.467,17.214,36.312,22.318,5.153,10.162,12.545
1116,1.181,36.276,17.178,36.293,22.315,5.153,10.204,12.301
1117,1.191,36.437,17.178,36.331,22.329,5.275,10.326,12.258
1118,1.214,36.496,17.205,36.274,22.315,5.073,10.165,11.932
1119,1.263,36.775,17.186,36.302,22.318,5.152,10.244,11.807
1120,1.325,36.106,17.143,36.302,22.318,5.112,10.164,11.602
1121,1.397,36.282,17.111,36.331,22.325,5.234,10.244,11.56
1122,1.427,36.36,17.13,36.331,22.322,5.153,10.245,11.315
1123,1.424,36.217,17.131,36.35,22.318,5.193,10.245,11.15
1124,1.431,36.216,17.139,36.341,22.329,5.234,10.367,11.189
1125,1.411,36.321,17.15,36.331,22.315,5.072,10.165,10.905
1126,1.411,36.466,17.193,36.341,22.318,5.152,10.244,10.861
1127,1.33,35.969,17.17,36.322,22.311,5.031,10.164,10.739
1128,1.267,36.108,17.194,36.379,22.325,5.192,10.366,10.941
1129,1.195,36.234,17.17,36.361,22.318,5.112,10.328,10.902
1130,1.116,36.36,17.201,36.418,22.332,5.193,10.408,11.024
1131,0.985,36.169,17.229,36.351,22.311,5.112,10.328,11.025
1132,0.896,36.311,17.237,36.37,22.318,5.071,10.327,11.147
1133,0.785,36.428,17.233,36.36,22.315,5.111,10.408,11.311
1134,0.728,36.534,17.225,36.379,22.322,5.112,10.328,11.353
1135,0.663,36.085,17.163,36.399,22.318,5.071,10.408,11.517
1136,0.617,36.243,17.139,36.399,22.318,5.111,10.287,11.681
1137,0.6,36.389,17.17,36.409,22.318,5.193,10.449,11.845
1138,0.587,36.419,17.205,36.38,22.308,5.031,10.247,11.684
1139,0.577,36.093,17.186,36.408,22.315,5.07,10.286,11.804
1140,0.567,36.215,17.162,36.38,22.304,4.989,10.123,11.684
1141,0.603,36.379,17.088,36.418,22.322,5.151,10.366,11.845
1142,0.609,36.419,17.052,36.438,22.318,5.031,10.368,11.847
1143,0.639,36.074,17.153,36.505,22.325,5.151,10.409,11.806
1144,0.642,36.166,17.147,36.4,22.315,5.031,10.613,11.765
1145,0.668,36.292,17.154,36.437,22.311,5.07,10.655,11.642
1146,0.695,36.322,17.213,36.447,22.322,5.111,10.778,11.601
1147,0.721,36.064,17.147,36.467,22.315,5.071,10.779,11.56
1148,0.731,36.214,17.135,36.457,22.325,5.07,10.901,11.559
1149,0.741,36.321,17.139,36.438,22.318,5.111,10.861,11.478
1150,0.76,36.476,17.217,36.486,22.336,5.234,11.064,11.599
1151,0.754,36.065,17.202,36.438,22.315,5.072,10.904,11.438
1152,0.748,36.214,17.245,36.457,22.315,5.193,10.943,11.477
1153,0.764,36.321,17.21,36.457,22.311,5.072,10.943,11.558
1154,0.774,36.131,17.202,36.486,22.322,5.111,11.065,11.64
1155,0.761,36.157,17.139,36.496,22.329,5.112,11.107,11.763
1156,0.767,36.302,17.158,36.486,22.318,5.112,11.026,11.846
1157,0.767,36.399,17.193,36.496,22.325,5.152,10.985,11.969
1158,0.764,36.007,17.248,36.505,22.315,5.112,10.903,11.929
1159,0.774,36.127,17.179,36.515,22.322,5.112,10.983,12.01
1160,0.78,36.273,17.1,36.496,22.318,5.03,10.944,12.052
1161,0.79,36.399,17.15,36.525,22.325,5.151,11.146,12.174
1162,0.79,35.978,17.147,36.515,22.322,5.112,11.189,12.135
1163,0.79,36.146,17.166,36.582,22.318,5.234,11.312,12.175
1164,0.761,36.206,17.131,36.535,22.315,5.072,11.232,12.175
1165,0.761,36.312,17.181,36.535,22.315,5.111,11.231,12.297
1166,0.748,36.073,17.155,36.525,22.318,5.112,11.312,12.38
1167,0.764,36.243,17.174,36.573,22.322,5.152,11.394,12.625
1168,0.748,36.379,17.151,36.573,22.325,5.112,11.395,12.912
1169,0.757,36.448,17.186,36.554,22.322,5.152,11.395,13.524
1170,0.754,35.988,17.241,36.573,22.329,5.275,11.436,14.75
1171,0.751,36.127,17.233,36.564,22.315,5.073,11.395,15.82
1172,0.751,36.263,17.237,36.573,22.318,5.111,11.354,17.131
1173,0.764,36.283,17.186,36.545,22.311,5.03,11.273,18.12
1174,0.764,35.996,17.174,36.583,22.329,5.151,11.353,19.146
1175,0.774,36.166,17.19,36.583,22.325,5.153,11.273,19.685
1176,0.777,36.292,17.155,36.602,22.325,5.112,11.272,20.219
1177,0.745,36.274,17.201,36.593,22.318,5.152,11.231,20.509
1178,0.751,36.015,17.206,36.593,22.318,5.031,11.149,20.593
1179,0.767,36.156,17.135,36.612,22.322,5.07,11.23,20.879
1180,0.777,36.282,17.142,36.641,22.322,5.07,11.231,21.004
1181,0.78,36.322,17.158,36.631,22.322,5.152,11.312,21.33
1182,0.787,36.102,17.17,36.612,22.322,5.153,11.272,21.415
1183,0.784,36.263,17.205,36.65,22.329,5.234,11.475,21.66
1184,0.764,36.331,17.206,36.612,22.308,5.032,11.274,21.662
1185,0.764,36.016,17.229,36.631,22.325,5.03,11.394,21.987
1186,0.744,36.022,17.155,36.622,22.315,5.03,11.436,22.478
1187,0.757,36.214,17.162,36.65,22.325,5.111,11.477,23.093
1188,0.767,36.302,17.131,36.651,22.325,5.112,11.436,23.506
1189,0.774,35.891,17.166,36.632,22.325,5.071,11.436,23.876
1190,0.754,36.03,17.225,36.651,22.325,5.152,11.517,24.205
1191,0.764,36.128,17.221,36.622,22.311,5.031,11.396,24.208
1192,0.764,36.234,17.21,36.65,22.322,5.07,11.436,24.371
1193,0.761,35.861,17.174,36.632,22.308,4.989,11.355,24.21
1194,0.777,36.02,17.155,36.67,22.322,5.151,11.72,24.371
1195,0.774,36.166,17.197,36.67,22.318,5.071,11.642,23.966
1196,0.787,36.263,17.213,36.68,22.325,5.111,11.723,23.677
1197,0.764,35.929,17.217,36.661,22.318,5.03,11.683,23.308
1198,0.767,36.088,17.206,36.67,22.322,5.03,11.723,22.776
1199,0.774,36.195,17.112,36.699,22.325,5.03,11.723,22.405
1200,0.8,36.292,17.146,36.709,22.322,4.948,11.601,21.913
1201,0.8,35.919,17.15,36.699,22.322,5.11,11.682,21.42
1202,0.79,36.069,17.174,36.699,22.325,5.112,11.601,20.846
1203,0.79,36.214,17.178,36.728,22.332,5.234,11.722,20.475
1204,0.777,36.206,17.205,36.699,22.315,5.032,11.479,19.861
1205,0.774,35.928,17.217,36.69,22.318,5.03,11.477,19.448
1206,0.751,36.031,17.139,36.699,22.318,4.989,11.436,19.038
1207,0.783,36.195,17.15,36.728,22.325,5.11,11.436,18.749
1208,0.767,36.225,17.17,36.709,22.318,5.112,11.314,18.38
1209,0.77,35.976,17.209,36.699,22.318,5.03,11.272,18.051
1210,0.757,36.127,17.225,36.728,22.332,5.111,11.272,17.926
1211,0.774,36.196,17.186,36.709,22.315,4.989,11.15,17.396
1212,0.78,36.177,17.17,36.709,22.318,4.988,11.067,17.188
1213,0.767,36.024,17.143,36.718,22.308,4.948,10.944,16.657
1214,0.774,36.195,17.111,36.738,22.322,5.11,11.024,16.611
1215,0.774,36.283,17.162,36.747,22.318,5.03,10.903,16.245
1216,0.79,35.948,17.17,36.767,22.325,5.07,10.983,15.956
1217,0.777,35.954,17.209,36.738,22.318,5.03,10.862,15.669
1218,0.78,36.089,17.178,36.738,22.315,5.03,10.78,15.463
1219,0.771,36.215,17.147,36.747,22.318,5.111,10.779,15.379
1220,0.793,35.909,17.162,36.757,22.318,5.03,10.779,15.175
1221,0.797,36.021,17.178,36.786,22.322,5.151,10.86,15.092
1222,0.8,36.156,17.174,36.738,22.322,5.071,11.064,15.01
1223,0.8,36.263,17.197,36.786,22.336,5.152,11.473,14.968
1224,0.784,35.833,17.194,36.729,22.315,4.949,11.477,14.602
1225,0.787,35.991,17.237,36.766,22.322,4.988,11.884,14.517
1226,0.774,36.099,17.108,36.748,22.311,4.988,12.132,14.353
1227,0.78,36.215,17.142,36.776,22.325,5.07,12.5,14.271
1228,0.767,35.899,17.17,36.777,22.325,5.03,12.666,14.107
1229,0.764,36.059,17.205,36.767,22.311,5.03,12.912,13.861
1230,0.767,36.166,17.233,36.776,22.325,5.07,13.199,13.859
1231,0.754,36.225,17.198,36.757,22.315,4.948,13.202,13.534
1232,0.767,35.775,17.139,36.767,22.322,5.069,13.446,13.449
1233,0.774,35.885,17.123,36.767,22.311,4.867,13.367,13.204
1234,0.774,36.05,17.084,36.805,22.325,5.068,13.61,13.161
1235,0.764,36.07,17.13,36.777,22.322,5.111,13.613,12.958
1236,0.8,35.975,17.201,36.815,22.325,5.071,13.572,12.793
1237,0.787,36.05,17.237,36.758,22.311,5.03,13.531,12.547
1238,0.79,36.176,17.147,36.767,22.318,4.907,13.408,12.423
1239,0.797,36.215,17.166,36.786,22.318,5.069,13.407,12.34
1240,0.8,35.947,17.147,36.777,22.322,5.07,13.245,12.095
1241,0.797,36.079,17.17,36.796,22.318,5.07,13.202,12.093
1242,0.813,36.195,17.205,36.805,22.318,5.07,12.999,11.93
1243,0.803,36.033,17.213,36.815,22.325,5.152,13.037,11.888
1244,0.803,35.859,17.233,36.787,22.315,4.949,12.753,11.522
1245,0.797,35.992,17.237,36.805,22.315,4.988,12.547,11.477
1246,0.764,36.07,17.19,36.777,22.304,4.988,12.342,11.233
1247,0.774,35.783,17.17,36.815,22.322,5.11,12.258,11.231
1248,0.78,35.857,17.186,36.806,22.318,5.152,12.054,11.027
1249,0.777,35.982,17.233,36.786,22.318,5.031,11.93,10.903
1250,0.764,36.07,17.214,36.805,22.322,5.151,11.807,10.861
1251,0.761,35.792,17.174,36.786,22.311,4.99,11.521,10.576
1252,0.767,35.943,17.119,36.815,22.318,5.07,11.477,10.614
1253,0.783,36.079,17.095,36.806,22.318,4.989,11.233,10.33
1254,0.777,36.195,17.142,36.844,22.318,5.151,11.231,10.408
1255,0.787,35.794,17.123,36.816,22.318,5.112,11.109,10.287
1256,0.813,35.972,17.177,36.844,22.332,5.193,11.108,10.245
1257,0.797,36.022,17.19,36.787,22.311,4.99,10.863,10.082
1258,0.797,36.137,17.096,36.815,22.315,4.988,10.78,10.325
1259,0.803,35.812,17.134,36.806,22.311,5.07,10.738,10.734
1260,0.826,36.001,17.185,36.825,22.322,5.07,10.738,11.104
1261,0.826,36.127,17.194,36.825,22.322,5.152,10.616,11.473
1262,0.807,36.177,17.245,36.815,22.318,5.031,10.533,12.006
1263,0.803,35.746,17.237,36.834,22.332,5.192,10.573,13.19
1264,0.803,35.866,17.264,36.806,22.315,5.072,10.33,14.381
1265,0.807,35.992,17.218,36.825,22.311,4.989,10.286,16.06
1266,0.787,36.041,17.163,36.806,22.311,4.988,10.083,17.622
1267,0.797,35.955,17.154,36.834,22.325,5.11,10.162,19.06
1268,0.797,36.089,17.209,36.835,22.318,5.112,10.082,20.172
1269,0.797,36.234,17.233,36.825,22.322,5.152,9.999,20.915
1270,0.777,36.216,17.151,36.825,22.315,5.071,9.917,21.533
1271,0.771,35.708,17.104,36.806,22.315,5.03,9.794,21.823
1272,0.757,35.856,17.107,36.834,22.325,5.03,9.793,22.07
1273,0.78,35.953,17.13,36.844,22.318,4.989,9.631,21.991
1274,0.78,35.935,17.162,36.854,22.325,5.07,9.71,22.031
1275,0.78,35.906,17.201,36.844,22.315,5.111,9.63,21.828
1276,0.797,36.069,17.233,36.873,22.329,5.193,9.71,21.664
1277,0.79,36.128,17.159,36.806,22.311,4.95,9.548,21.133
1278,0.793,35.745,17.151,36.815,22.318,4.988,9.547,20.843
1279,0.793,35.799,17.139,36.815,22.311,4.988,9.466,20.475
1280,0.81,35.991,17.189,36.844,22.318,5.029,9.587,20.024
1281,0.813,36.06,17.225,36.825,22.325,5.07,9.547,19.613
1282,0.826,35.744,17.257,36.825,22.318,5.03,9.547,19.202
1283,0.82,35.885,17.241,36.844,22.325,5.07,9.506,18.751
1284,0.803,35.982,17.222,36.825,22.315,5.03,9.465,18.136
1285,0.803,36.089,17.147,36.825,22.318,4.989,9.465,17.845
1286,0.816,35.668,17.166,36.796,22.315,4.948,9.383,17.314
1287,0.82,35.836,17.19,36.834,22.325,5.069,9.505,17.187
1288,0.813,35.972,17.26,36.835,22.318,5.03,9.546,16.82
1289,0.82,36.05,17.202,36.844,22.336,5.192,9.628,16.531
1290,0.797,35.677,17.12,36.806,22.315,4.99,9.466,16.162
1291,0.787,35.846,17.123,36.853,22.311,4.988,9.587,15.834
1292,0.78,35.953,17.154,36.835,22.318,4.988,9.588,15.546
1293,0.797,36.05,17.131,36.844,22.325,5.07,9.629,15.421
1294,0.807,35.831,17.162,36.844,22.322,5.07,9.792,15.216
1295,0.797,35.972,17.205,36.816,22.325,5.07,9.671,14.848
1296,0.803,36.098,17.241,36.825,22.329,5.152,9.873,14.804
1297,0.8,36.119,17.147,36.815,22.315,4.99,9.713,14.438
1298,0.816,35.735,17.146,36.825,22.315,5.029,9.792,14.231
1299,0.82,35.856,17.139,36.787,22.308,4.867,9.671,14.025
1300,0.83,36.02,17.221,36.844,22.325,5.109,9.873,13.861
1301,0.817,36.013,17.237,36.816,22.325,5.071,9.916,13.696
1302,0.836,35.811,17.206,36.844,22.322,5.07,9.916,13.573
1303,0.807,35.905,17.19,36.825,22.325,5.03,9.916,13.368
1304,0.807,36.031,17.163,36.815,22.304,4.907,9.876,13.082
1305,0.813,35.83,17.17,36.825,22.322,5.069,9.916,12.957
1306,0.829,35.781,17.139,36.806,22.311,4.908,9.916,12.711
1307,0.826,35.914,17.197,36.815,22.315,5.069,9.998,12.79
1308,0.817,36.011,17.225,36.796,22.325,5.111,9.999,12.71
1309,0.836,35.84,17.167,36.834,22.322,5.071,10.039,12.872
1310,0.807,35.915,17.178,36.854,22.318,4.989,10.04,12.955
1311,0.787,36.031,17.178,36.777,22.318,4.948,9.999,13.037
1312,0.806,36.147,17.182,36.796,22.315,4.988,10.039,13.526
1313,0.816,35.717,17.182,36.805,22.311,4.948,10.04,14.018
1314,0.813,35.856,17.186,36.806,22.318,5.11,10.243,15.162
1315,0.803,35.992,17.194,36.815,22.322,5.03,10.408,16.23
1316,0.81,36.099,17.182,36.834,22.332,5.111,10.572,17.379
1317,0.803,35.726,17.17,36.796,22.311,4.949,10.614,18.163
1318,0.81,35.866,17.139,36.786,22.318,4.907,10.696,18.862
1319,0.813,35.992,17.189,36.796,22.315,4.987,10.819,19.438
1320,0.826,36.089,17.233,36.796,22.322,5.029,10.942,19.851
1321,0.839,35.812,17.237,36.796,22.325,5.03,11.024,20.14
1322,0.83,35.962,17.229,36.786,22.318,4.989,10.985,20.142
1323,0.83,36.098,17.198,36.815,22.332,5.11,11.106,20.224
1324,0.817,36.109,17.135,36.767,22.311,4.867,10.904,19.859
1325,0.81,35.735,17.158,36.786,22.315,4.987,10.983,19.774
1326,0.81,35.866,17.147,36.738,22.311,4.907,10.903,19.448
1327,0.82,36.03,17.209,36.795,22.322,4.987,10.943,19.241
1328,0.836,36.041,17.213,36.777,22.322,4.988,10.902,18.914
1329,0.833,35.859,17.147,36.786,22.322,4.948,10.821,18.463
1330,0.83,35.973,17.166,36.777,22.315,4.988,10.901,18.174
1331,0.833,36.098,17.139,36.767,22.315,4.907,10.739,17.765
1332,0.83,36.311,17.182,36.767,22.318,4.906,10.738,17.354
1333,0.839,35.91,17.221,36.776,22.318,4.906,10.657,16.821
1334,0.836,36.05,17.206,36.767,22.325,5.028,10.656,16.694
1335,0.843,36.147,17.268,36.767,22.318,4.989,10.615,16.368
1336,0.853,36.1,17.171,36.776,22.329,5.11,10.655,16.08
1337,0.804,36.1,17.158,36.757,22.315,4.949,10.412,15.589
1338,0.803,36.272,17.158,36.757,22.318,4.988,10.45,15.299
1339,0.784,36.332,17.197,36.748,22.315,4.948,10.41,14.971
1340,0.806,35.728,17.241,36.767,22.322,5.029,10.369,14.724
1341,0.829,35.808,17.245,36.767,22.322,5.03,10.287,14.396
1342,0.839,35.934,17.222,36.738,22.318,4.989,10.205,14.108
1343,0.817,36.04,17.186,36.767,22.325,5.07,10.245,13.983
1344,0.813,35.84,17.123,36.729,22.318,4.908,10.082,13.494
1345,0.829,36.001,17.142,36.728,22.325,4.947,10.04,13.286
1346,0.804,36.127,17.154,36.709,22.315,4.907,9.918,13.04
1347,0.813,36.205,17.217,36.747,22.329,5.028,9.998,12.997
1348,0.807,35.842,17.174,36.738,22.318,4.989,9.836,12.712
1349,0.826,36.03,17.143,36.767,22.332,5.07,9.916,12.587
1350,0.807,36.099,17.15,36.709,22.311,4.908,9.672,12.301
1351,0.8,36.186,17.139,36.718,22.315,4.987,9.629,12.258
1352,0.8,35.909,17.193,36.718,22.318,4.988,9.629,12.379
1353,0.823,36.069,17.221,36.738,22.318,5.029,9.629,12.747
1354,0.817,36.186,17.241,36.738,22.318,5.111,9.67,13.197
1355,0.813,36.235,17.268,36.728,22.318,5.03,9.629,13.568
1356,0.82,35.928,17.187,36.728,22.329,5.111,9.71,14.141
1357,0.81,36.079,17.182,36.699,22.308,4.867,9.589,14.756
1358,0.826,36.205,17.166,36.709,22.318,4.987,9.629,15.901
1359,0.813,36.216,17.229,36.68,22.308,4.988,9.507,17.213
1360,0.823,36.158,17.229,36.708,22.318,5.07,9.668,18.609
1361,0.83,36.273,17.221,36.709,22.322,5.03,9.629,19.599
1362,0.826,36.37,17.178,36.718,22.318,5.03,9.548,20.503
1363,0.82,36.668,17.155,36.728,22.325,5.07,9.506,21.244
1364,0.823,36.019,17.08,36.68,22.315,4.989,9.384,21.454
1365,0.826,36.166,17.158,36.699,22.315,4.988,9.464,21.741
1366,0.817,36.273,17.166,36.68,22.311,4.948,9.383,21.703
1367,0.82,36.245,17.248,36.699,22.318,5.069,9.464,21.784
1368,0.817,36.302,17.163,36.69,22.325,4.989,9.383,21.622
1369,0.839,36.466,17.19,36.776,22.329,5.07,9.464,21.377
1370,0.82,36.506,17.131,36.671,22.315,4.989,9.424,20.887
1371,0.807,36.18,17.146,36.67,22.315,4.907,9.383,20.597
1372,0.797,36.283,17.193,36.689,22.315,4.906,9.423,20.228
1373,0.82,36.437,17.202,36.689,22.322,5.028,9.424,19.818
1374,0.839,36.544,17.237,36.68,22.315,4.989,9.586,19.448
1375,0.839,36.478,17.245,36.689,22.318,4.988,9.466,18.997
1376,0.846,36.64,17.159,36.709,22.329,5.07,9.546,18.87
1377,0.836,36.738,17.17,36.651,22.308,4.908,9.384,18.259
1378,0.852,36.816,17.194,36.651,22.318,4.947,9.382,18.009
1379,0.846,36.318,17.241,36.622,22.311,4.866,9.261,17.844
1380,0.872,36.485,17.253,36.679,22.318,4.987,9.463,17.802
1381,0.859,36.612,17.21,36.67,22.325,4.988,9.424,17.598
1382,0.859,36.699,17.139,36.67,22.322,4.948,9.383,17.474
1383,0.833,36.432,17.096,36.641,22.315,4.988,9.342,17.31
1384,0.817,36.602,17.119,36.67,22.322,4.948,9.301,17.106
1385,0.82,36.709,17.134,36.651,22.318,4.947,9.301,16.981
1386,0.826,36.739,17.197,36.632,22.318,4.947,9.219,16.777
1387,0.813,36.547,17.194,36.67,22.322,5.029,9.3,16.856
1388,0.813,36.699,17.108,36.651,22.322,5.03,9.219,16.816
1389,0.823,36.825,17.173,36.689,22.332,5.151,9.34,16.938
1390,0.8,36.807,17.135,36.622,22.315,4.949,9.097,16.817
1391,0.803,36.644,17.178,36.641,22.315,4.947,9.217,16.816
1392,0.784,36.728,17.186,36.622,22.311,4.866,9.218,16.816
1393,0.806,36.902,17.225,36.65,22.329,5.109,9.422,16.816
1394,0.823,37.095,17.229,36.641,22.318,4.989,9.424,16.735
1395,0.843,36.675,17.194,36.631,22.318,5.029,9.464,16.49
1396,0.82,36.805,17.17,36.631,22.318,5.03,9.668,16.284
1397,0.823,36.903,17.174,36.612,22.311,5.03,9.67,15.997
1398,0.833,36.779,17.221,36.631,22.315,5.07,9.833,15.832
1399,0.843,36.864,17.237,36.622,22.318,4.908,9.875,15.505
1400,0.839,36.98,17.206,36.641,22.325,5.028,10.241,15.339
1401,0.839,37.086,17.143,36.631,22.318,4.989,10.245,15.053
1402,0.852,36.762,17.15,36.651,22.329,5.11,10.489,14.847
1403,0.83,36.825,17.08,36.622,22.322,4.949,10.573,14.479
1404,0.82,36.979,17.138,36.612,22.318,4.947,10.614,14.19
1405,0.826,37.067,17.15,36.612,22.325,4.947,10.737,14.025
1406,0.836,36.848,17.209,36.602,22.325,5.029,10.819,13.698
1407,0.836,36.98,17.167,36.631,22.322,5.07,10.901,13.532
1408,0.833,37.115,17.174,36.631,22.315,5.03,10.983,13.205
1409,0.836,37.203,17.17,36.631,22.329,5.151,11.106,13.121
1410,0.817,36.753,17.174,36.583,22.318,4.949,10.904,12.673
1411,0.81,36.902,17.201,36.583,22.322,4.947,10.861,12.465
1412,0.803,37.009,17.217,36.583,22.315,4.907,10.942,12.259
1413,0.813,37.096,17.253,36.593,22.322,4.987,10.902,12.135
1414,0.813,36.963,17.233,36.593,22.322,5.029,10.902,11.89
1415,0.81,37.106,17.159,36.583,22.318,4.989,10.861,11.685
1416,0.81,37.232,17.143,36.583,22.318,5.07,10.78,11.52
1417,0.803,37.281,17.158,36.564,22.318,4.908,10.698,11.234
1418,0.81,36.907,17.217,36.554,22.318,4.987,10.656,11.109
1419,0.816,37.067,17.21,36.573,22.311,4.866,10.574,10.904
1420,0.81,37.183,17.131,36.592,22.325,4.987,10.655,10.902
1421,0.816,37.213,17.088,36.612,22.318,4.988,10.574,10.658
1422,0.823,37.089,17.185,36.631,22.325,5.151,10.696,10.696
1423,0.813,37.164,17.174,36.545,22.311,4.909,10.453,10.372
1424,0.813,37.29,17.158,36.554,22.315,4.987,10.532,10.287
1425,0.803,37.272,17.174,36.563,22.318,4.948,10.451,10.286
1426,0.813,36.965,17.217,36.564,22.325,5.029,10.45,10.164
1427,0.807,37.086,17.128,36.583,22.318,4.989,10.369,10.163
1428,0.794,37.193,17.166,36.573,22.315,4.988,10.287,10.041
1429,0.803,37.022,17.178,36.573,22.329,5.151,10.367,10.121
1430,0.774,37.058,17.209,36.545,22.315,4.909,10.084,9.837
1431,0.784,37.202,17.225,36.563,22.318,4.906,10.081,9.794
1432,0.79,37.281,17.229,36.516,22.308,4.906,9.999,9.671
1433,0.806,36.955,17.225,36.573,22.325,5.028,10.08,9.751
1434,0.8,37.057,17.218,36.554,22.322,5.07,9.999,9.752
1435,0.8,37.222,17.124,36.563,22.322,4.989,9.999,9.59
1436,0.781,37.281,17.15,36.544,22.311,4.948,9.958,9.466
1437,0.784,36.955,17.193,36.535,22.318,4.988,9.876,9.383
1438,0.803,37.086,17.217,36.544,22.318,5.029,9.916,9.382
1439,0.8,37.231,17.174,36.535,22.315,4.989,9.916,9.261
1440,0.784,37.281,17.041,36.544,22.318,5.07,9.998,9.259
1441,0.793,37.032,17.13,36.544,22.311,4.948,9.917,9.137
1442,0.8,37.173,17.174,36.573,22.329,5.15,10.12,9.177
1443,0.781,37.271,17.178,36.535,22.308,4.949,9.919,8.974
1444,0.78,37.339,17.182,36.544,22.315,4.988,9.916,8.972
1445,0.774,36.822,17.248,36.496,22.311,4.907,9.794,9.094
1446,0.784,36.989,17.245,36.544,22.315,5.109,9.996,9.38
1447,0.777,37.135,17.198,36.544,22.315,5.03,9.917,9.83
1448,0.79,37.174,17.194,36.535,22.318,4.989,9.876,10.363
1449,0.771,37.079,17.202,36.525,22.322,5.029,9.794,10.897
1450,0.764,37.241,17.237,36.487,22.322,5.03,9.671,11.553
1451,0.761,37.338,17.241,36.515,22.318,5.03,9.629,12.454
1452,0.757,37.378,17.214,36.515,22.318,4.989,9.629,13.764
1453,0.767,36.956,17.186,36.525,22.325,5.029,9.629,15.484
1454,0.764,37.086,17.135,36.515,22.315,4.989,9.67,17.006
1455,0.774,37.231,17.162,36.563,22.332,5.151,9.751,18.526
1456,0.758,37.166,17.151,36.487,22.315,5.031,9.508,19.517
1457,0.754,37.012,17.217,36.496,22.318,5.03,9.587,20.38
1458,0.751,37.116,17.202,36.486,22.311,4.989,9.507,20.999
1459,0.764,37.251,17.131,36.524,22.322,5.11,9.546,21.533
1460,0.777,36.907,17.154,36.506,22.325,5.071,9.547,21.701
1461,0.767,36.932,17.178,36.496,22.325,5.07,9.547,21.744
1462,0.767,37.057,17.17,36.505,22.325,5.111,9.547,21.744
1463,0.764,37.154,17.178,36.477,22.311,4.989,9.466,21.378
1464,0.761,36.81,17.194,36.467,22.318,5.07,9.343,21.212
1465,0.761,36.903,17.241,36.467,22.308,4.908,9.26,20.763
1466,0.767,37.076,17.171,36.486,22.325,5.109,9.381,20.555
1467,0.761,37.155,17.162,36.496,22.318,5.071,9.342,20.147
1468,0.764,36.858,17.193,36.515,22.329,5.07,9.423,19.736
1469,0.751,36.941,17.209,36.439,22.311,5.03,9.342,19.285
1470,0.757,37.086,17.229,36.467,22.318,4.989,9.301,18.833
1471,0.738,37.155,17.214,36.457,22.318,4.988,9.382,18.503
1472,0.751,36.877,17.21,36.476,22.325,5.07,9.505,18.378
1473,0.764,37.018,17.174,36.476,22.322,5.07,9.506,18.173
1474,0.767,37.135,17.147,36.457,22.318,4.989,9.587,17.968
1475,0.764,37.232,17.186,36.467,22.325,5.11,9.832,17.925
1476,0.757,36.907,17.155,36.428,22.311,4.989,9.712,17.437
1477,0.767,37.057,17.225,36.447,22.311,5.029,9.874,17.351
1478,0.774,37.145,17.163,36.409,22.311,4.867,9.916,16.984
1479,0.787,37.232,17.151,36.485,22.332,5.028,10.242,16.939
1480,0.79,36.811,17.166,36.448,22.318,5.07,10.408,16.614
1481,0.797,36.96,17.19,36.457,22.325,5.03,10.694,16.326
1482,0.797,37.038,17.166,36.419,22.325,4.989,10.778,16.12
1483,0.781,37.078,17.205,36.409,22.311,5.029,10.901,15.711
1484,0.777,36.79,17.217,36.409,22.318,5.07,11.146,15.666
1485,0.777,36.922,17.256,36.418,22.315,5.03,11.149,15.503
1486,0.787,37.048,17.163,36.418,22.325,5.03,11.393,15.502
1487,0.793,36.943,17.154,36.428,22.322,5.07,11.476,15.461
1488,0.78,36.827,17.193,36.438,22.332,5.152,11.68,15.42
1489,0.761,36.932,17.217,36.38,22.315,4.909,11.52,15.216
1490,0.764,37.038,17.217,36.389,22.315,4.987,11.559,15.133
1491,0.767,36.905,17.178,36.38,22.308,4.907,11.519,15.051
1492,0.783,37.057,17.178,36.38,22.318,5.15,11.599,14.969
1493,0.774,37.164,17.162,36.399,22.318,5.031,11.6,14.805
1494,0.787,37.271,17.127,36.409,22.325,5.03,11.6,14.641
1495,0.771,36.572,17.146,36.39,22.318,5.03,11.478,14.517
1496,0.774,36.68,17.201,36.37,22.311,5.07,11.396,14.272
1497,0.777,36.815,17.233,36.38,22.318,4.989,11.395,14.026
1498,0.797,36.903,17.175,36.361,22.311,5.029,11.232,13.861
1499,0.79,36.654,17.194,36.379,22.325,5.111,11.312,13.859
1500,0.793,36.786,17.17,36.37,22.318,5.03,11.313,13.574
1501,0.803,36.95,17.178,36.399,22.332,5.192,11.313,13.409
1502,0.787,36.962,17.174,36.361,22.311,4.95,11.15,13.123
1503,0.784,36.674,17.225,36.332,22.318,4.988,11.23,13.12
1504,0.78,36.815,17.245,36.35,22.318,4.988,11.312,13.16
1505,0.787,36.931,17.245,36.341,22.315,4.988,11.232,13.12
1506,0.767,37.0,17.144,36.379,22.325,5.11,11.393,13.282
1507,0.774,36.626,17.146,36.341,22.329,5.03,11.314,13.406
1508,0.777,36.805,17.182,36.37,22.329,5.151,11.435,13.936
1509,0.764,36.864,17.209,36.322,22.315,4.99,11.233,14.144
1510,0.787,36.932,17.241,36.331,22.318,5.029,11.231,14.756
1511,0.774,36.616,17.171,36.303,22.311,4.948,11.231,15.372
1512,0.79,36.805,17.182,36.331,22.318,5.069,11.271,15.866
1513,0.78,36.893,17.155,36.322,22.325,4.989,11.353,16.318
1514,0.764,36.923,17.139,36.331,22.318,5.11,11.313,16.567
1515,0.761,36.712,17.182,36.322,22.325,5.03,11.394,16.895
1516,0.78,36.844,17.201,36.302,22.315,4.989,11.232,16.898
1517,0.793,36.951,17.26,36.302,22.318,5.029,11.312,17.061
1518,0.78,36.751,17.155,36.283,22.308,4.948,11.272,16.818
1519,0.787,36.662,17.174,36.321,22.329,5.11,11.475,16.979
1520,0.79,36.786,17.139,36.302,22.315,5.03,11.558,16.858
1521,0.803,36.931,17.178,36.321,22.329,5.07,11.6,16.654
1522,0.781,36.626,17.194,36.274,22.325,4.989,11.6,16.448
1523,0.784,36.709,17.233,36.302,22.318,4.907,11.682,16.162
1524,0.771,36.863,17.253,36.283,22.322,5.028,11.886,15.874
1525,0.787,36.951,17.276,36.273,22.322,5.03,11.888,15.627
1526,0.784,36.578,17.148,36.292,22.329,5.111,12.05,15.462
1527,0.78,36.689,17.154,36.283,22.318,4.989,12.093,15.257
1528,0.78,36.853,17.178,36.302,22.332,5.151,12.337,15.215
1529,0.774,36.893,17.225,36.264,22.311,4.909,12.055,14.767
1530,0.767,36.424,17.21,36.254,22.315,4.987,12.215,14.518
1531,0.754,36.563,17.147,36.235,22.308,4.907,12.298,14.353
1532,0.774,36.728,17.107,36.263,22.329,5.069,12.258,14.311
1533,0.771,36.777,17.08,36.254,22.322,5.111,12.257,14.148
1534,0.774,36.557,17.134,36.311,22.315,5.03,12.176,13.943
1535,0.767,36.68,17.17,36.254,22.318,4.989,12.175,13.738
1536,0.777,36.796,17.186,36.225,22.315,4.948,12.013,13.451
1537,0.78,36.864,17.237,36.244,22.311,4.988,12.011,13.326
1538,0.784,36.529,17.14,36.225,22.308,4.948,11.848,13.122
1539,0.79,36.689,17.193,36.244,22.318,5.069,12.009,13.16
1540,0.787,36.796,17.19,36.235,22.325,4.989,11.93,13.039
1541,0.803,36.864,17.233,36.263,22.332,5.151,11.97,12.956
1542,0.781,36.385,17.225,36.216,22.315,4.99,11.767,12.752
1543,0.787,36.524,17.241,36.196,22.315,4.988,11.724,12.628
1544,0.774,36.641,17.249,36.215,22.315,5.07,11.723,12.464
1545,0.787,36.642,17.226,36.234,22.318,5.07,11.642,12.381
1546,0.784,36.508,17.182,36.234,22.322,5.03,11.682,12.462
1547,0.777,36.631,17.174,36.206,22.322,4.989,11.56,12.585
1548,0.79,36.738,17.209,36.244,22.325,5.11,11.64,12.952
1549,0.771,36.595,17.229,36.177,22.311,4.949,11.397,13.037
1550,0.767,36.574,17.198,36.196,22.318,4.988,11.354,13.404
1551,0.764,36.689,17.155,36.167,22.315,4.866,11.232,13.692
1552,0.77,36.834,17.111,36.205,22.318,5.028,11.312,14.223
1553,0.764,36.385,17.025,36.196,22.318,5.07,11.15,15.042
1554,0.78,36.486,17.137,36.196,22.322,4.989,11.108,15.904
1555,0.764,36.593,17.139,36.167,22.318,5.07,10.985,16.97
1556,0.777,36.68,17.182,36.167,22.315,5.03,10.903,17.712
1557,0.784,36.422,17.182,36.167,22.311,4.989,10.78,18.37
1558,0.774,36.553,17.139,36.186,22.315,4.948,10.779,18.824
1559,0.78,36.718,17.158,36.205,22.325,5.11,10.779,19.357
1560,0.793,36.758,17.19,36.177,22.318,5.03,10.738,19.565
1561,0.8,36.327,17.237,36.205,22.332,5.111,10.819,19.69
1562,0.774,36.409,17.249,36.148,22.311,4.949,10.617,19.487
1563,0.767,36.553,17.265,36.147,22.318,4.988,10.574,19.445
1564,0.748,36.584,17.226,36.119,22.315,4.948,10.574,19.2
1565,0.764,36.411,17.194,36.166,22.325,5.15,10.655,19.076
1566,0.767,36.553,17.178,36.157,22.318,5.112,10.778,18.79
1567,0.783,36.68,17.198,36.148,22.311,5.071,10.82,18.462
1568,0.767,36.729,17.237,36.167,22.318,5.152,11.023,18.174
1569,0.764,36.307,17.229,36.128,22.315,4.99,10.903,17.643
1570,0.761,36.466,17.175,36.138,22.315,4.988,10.983,17.353
1571,0.761,36.564,17.104,36.119,22.315,4.988,10.862,16.984
1572,0.751,36.641,17.123,36.157,22.325,5.11,10.942,16.98
1573,0.764,36.431,17.142,36.205,22.322,5.071,10.902,16.696
1574,0.77,36.592,17.17,36.167,22.329,5.233,10.902,16.571
1575,0.754,36.661,17.151,36.119,22.318,5.072,10.902,16.244
1576,0.754,36.729,17.248,36.109,22.315,4.989,10.821,16.078
1577,0.748,36.307,17.183,36.147,22.318,5.029,10.779,15.873
1578,0.754,36.466,17.182,36.109,22.318,5.07,10.779,15.709
1579,0.757,36.573,17.17,36.118,22.318,4.989,10.779,15.463
1580,0.767,36.354,17.194,36.118,22.325,5.029,10.738,15.217
1581,0.764,36.361,17.237,36.128,22.332,5.151,10.9,15.133
1582,0.764,36.476,17.249,36.099,22.308,5.031,10.658,14.685
1583,0.767,36.583,17.257,36.089,22.318,4.989,10.696,14.558
1584,0.754,36.287,17.23,36.07,22.304,4.907,10.697,14.232
1585,0.767,36.418,17.206,36.099,22.325,5.109,10.9,14.147
1586,0.764,36.544,17.178,36.099,22.325,5.071,10.902,14.024
1587,0.767,36.679,17.217,36.099,22.329,5.03,10.943,13.861
1588,0.757,36.182,17.241,36.08,22.311,5.03,10.902,13.737
1589,0.767,36.311,17.233,36.089,22.315,4.989,10.983,13.492
1590,0.761,36.447,17.186,36.061,22.325,5.029,10.944,13.408
1591,0.761,36.554,17.1,36.089,22.315,5.03,10.902,13.245
1592,0.754,36.277,17.154,36.128,22.322,5.111,10.983,13.243
1593,0.748,36.427,17.17,36.147,22.318,5.071,10.984,13.04
1594,0.757,36.573,17.155,36.09,22.332,5.193,11.147,13.038
1595,0.757,36.593,17.158,36.032,22.315,5.031,10.945,12.712
1596,0.774,36.296,17.225,36.06,22.315,4.948,11.024,12.587
1597,0.767,36.418,17.171,36.041,22.311,4.947,10.903,12.423
1598,0.79,36.592,17.166,36.07,22.325,5.15,11.146,12.462
1599,0.787,36.632,17.162,36.051,22.322,5.031,11.108,12.341
1600,0.803,36.335,17.213,36.07,22.325,5.03,11.067,12.258
1601,0.8,36.447,17.213,36.051,22.311,5.03,11.026,12.054
1602,0.82,36.554,17.253,36.031,22.311,4.989,10.985,11.889
1603,0.833,36.593,17.245,36.041,22.318,5.11,10.903,11.847
1604,0.826,36.325,17.245,36.031,22.315,5.03,10.78,11.684
1605,0.83,36.447,17.21,36.05,22.322,5.111,10.779,11.642
1606,0.826,36.573,17.21,36.051,22.315,5.03,10.738,11.479
1607,0.839,36.919,17.21,36.07,22.332,5.192,10.9,11.477
1608,0.83,36.309,17.249,36.003,22.308,4.99,10.618,11.233
1609,0.843,36.447,17.233,36.012,22.311,5.07,10.615,11.068
1610,0.83,36.544,17.155,36.012,22.315,5.03,10.615,10.944
1611,0.852,36.353,17.1,36.021,22.318,5.192,10.615,10.943
1612,0.859,36.361,17.154,36.05,22.325,5.112,10.737,10.821
1613,0.869,36.495,17.147,36.022,22.318,5.152,10.738,10.657
1614,0.859,36.593,17.146,36.022,22.322,5.234,10.9,10.696
1615,0.849,36.277,17.182,35.993,22.311,4.991,10.821,10.412
1616,0.836,36.389,17.237,35.993,22.318,5.07,10.901,10.369
1617,0.836,36.524,17.179,35.973,22.311,4.989,10.861,10.084
1618,0.852,36.641,17.17,36.021,22.325,5.192,10.983,10.162
1619,0.853,36.287,17.151,36.002,22.322,5.194,11.106,10.082
1620,0.862,36.447,17.197,36.031,22.325,5.112,11.23,10.04
1621,0.836,36.515,17.229,35.964,22.311,5.112,11.19,9.877
1622,0.846,36.593,17.249,35.992,22.318,5.071,11.23,9.835
1623,0.82,36.22,17.233,35.983,22.322,5.07,11.271,9.794
1624,0.833,36.398,17.218,35.992,22.322,5.111,11.231,9.753
1625,0.843,36.534,17.132,35.993,22.315,5.112,11.312,9.793
1626,0.839,36.612,17.174,35.993,22.315,5.071,11.272,9.671
1627,0.862,36.344,17.205,35.993,22.329,5.193,11.272,9.751
1628,0.879,36.476,17.245,35.964,22.315,5.031,11.028,9.59
1629,0.895,36.592,17.198,35.954,22.318,5.03,11.107,9.588
1630,0.882,36.632,17.163,35.935,22.308,4.948,10.863,9.547
1631,0.895,36.364,17.151,36.001,22.325,5.11,10.983,9.669
1632,0.876,36.495,17.182,35.964,22.325,5.152,10.903,9.67
1633,0.879,36.65,17.174,35.973,22.325,5.153,10.78,9.67
1634,0.859,36.613,17.17,35.944,22.315,4.99,10.698,9.548
1635,0.853,36.297,17.201,35.925,22.311,5.029,10.656,9.506
1636,0.856,36.456,17.213,35.944,22.318,5.03,10.574,9.546
1637,0.846,36.573,17.135,35.963,22.318,5.07,10.411,9.466
1638,0.833,36.795,17.158,35.954,22.322,5.152,10.409,9.505
1639,0.83,36.308,17.178,35.954,22.322,5.071,10.369,9.465
1640,0.849,36.476,17.225,35.963,22.332,5.193,10.368,9.505
1641,0.836,36.554,17.249,35.925,22.308,5.031,10.084,9.343
1642,0.846,36.401,17.233,35.934,22.318,5.03,10.04,9.545
1643,0.823,36.438,17.229,35.915,22.308,4.989,9.918,9.669
1644,0.826,36.573,17.206,35.934,22.318,5.151,9.957,10.239
1645,0.813,36.699,17.085,35.934,22.315,5.071,9.876,10.652
1646,0.833,36.24,17.142,35.954,22.325,5.111,9.916,11.225
1647,0.81,36.322,17.185,35.906,22.315,5.071,9.754,11.922
1648,0.797,36.457,17.213,35.925,22.315,5.03,9.671,12.986
1649,0.8,36.525,17.167,35.934,22.322,5.07,9.629,14.501
1650,0.777,36.257,17.1,35.934,22.322,5.111,9.548,16.224
1651,0.774,36.398,17.173,35.915,22.329,5.152,9.588,18.274
1652,0.767,36.525,17.178,35.915,22.318,5.153,9.425,19.88
1653,0.774,36.631,17.205,35.944,22.332,5.234,9.505,21.441
1654,0.767,36.345,17.198,35.887,22.315,5.032,9.303,22.473
1655,0.767,36.486,17.237,35.896,22.315,5.111,9.26,23.337
1656,0.764,36.583,17.21,35.867,22.308,5.03,9.178,23.915
1657,0.787,36.68,17.194,35.991,22.318,5.151,9.299,24.449
1658,0.793,36.336,17.186,35.897,22.322,5.153,9.26,24.495
1659,0.793,36.466,17.209,35.905,22.318,5.193,9.259,24.496
1660,0.797,36.564,17.229,35.896,22.315,5.194,9.259,24.333
1661,0.787,36.612,17.245,35.886,22.311,5.031,9.259,23.965
1662,0.8,36.383,17.218,35.905,22.318,5.151,9.178,23.596
1663,0.807,36.534,17.206,35.886,22.315,5.112,9.259,23.023
1664,0.81,36.631,17.167,35.896,22.318,5.152,9.259,22.651
1665,0.81,36.652,17.162,35.896,22.318,5.071,9.259,22.241
1666,0.8,36.508,17.158,35.915,22.332,5.274,9.503,21.912
1667,0.777,36.593,17.205,35.867,22.311,4.991,9.262,21.339
1668,0.774,36.718,17.217,35.876,22.322,5.07,9.3,21.171
1669,0.751,36.844,17.112,35.838,22.311,5.03,9.341,20.925
1670,0.754,36.769,17.177,35.886,22.322,5.07,9.382,20.882
1671,0.748,36.902,17.174,35.876,22.322,5.111,9.423,20.841
1672,0.734,36.99,17.209,35.867,22.315,5.152,9.383,20.678
1673,0.715,36.243,17.233,35.886,22.325,5.153,9.505,20.636
1674,0.728,36.206,17.241,35.867,22.311,5.071,9.343,20.391
1675,0.725,36.35,17.261,35.848,22.318,5.07,9.342,20.145
1676,0.708,36.447,17.155,35.847,22.318,4.989,9.26,19.776
1677,0.718,36.458,17.193,35.857,22.322,5.192,9.381,19.651
1678,0.718,36.564,17.19,35.857,22.315,5.153,9.342,19.284
1679,0.708,36.718,17.248,35.914,22.332,5.153,9.382,19.117
1680,0.698,36.796,17.233,35.848,22.311,5.031,9.22,18.709
1681,0.701,36.222,17.202,35.857,22.325,5.07,9.3,18.461
1682,0.685,36.34,17.178,35.838,22.318,5.152,9.301,18.174
1683,0.695,36.495,17.166,35.847,22.325,5.193,9.301,17.968
1684,0.688,36.583,17.104,35.847,22.322,5.072,9.382,17.722
1685,0.688,36.354,17.134,35.847,22.315,5.111,9.423,17.516
1686,0.695,36.495,17.178,35.867,22.325,5.152,9.586,17.392
1687,0.688,36.602,17.225,35.8,22.315,5.031,9.629,17.025
1688,0.692,36.69,17.194,35.837,22.322,5.03,9.914,16.737
1689,0.682,36.384,17.174,35.818,22.308,4.989,9.998,16.327
1690,0.685,36.553,17.166,35.847,22.325,5.151,10.365,16.282
1691,0.682,36.67,17.186,35.838,22.318,5.112,10.612,15.957
1692,0.692,36.748,17.213,35.838,22.329,5.193,10.94,15.628
1693,0.682,36.327,17.237,35.809,22.315,5.072,11.228,15.34
1694,0.682,36.485,17.229,35.818,22.315,5.07,11.515,15.053
1695,0.675,36.593,17.249,35.809,22.318,5.07,11.721,14.887
1696,0.688,36.651,17.132,35.837,22.318,5.111,12.008,14.52
1697,0.695,36.489,17.193,35.828,22.322,5.193,12.174,14.313
1698,0.685,36.621,17.221,35.809,22.322,5.153,12.256,14.026
1699,0.695,36.747,17.296,35.847,22.325,5.315,12.501,14.064
1700,0.701,36.653,17.242,35.799,22.315,5.073,12.382,13.576
1701,0.698,36.402,17.194,35.799,22.318,5.111,12.34,13.409
1702,0.695,36.505,17.135,35.789,22.311,5.112,12.258,13.123
1703,0.705,36.66,17.084,35.818,22.329,5.234,12.501,13.039
1704,0.698,36.345,17.146,35.876,22.325,5.194,12.423,12.956
1705,0.708,36.399,17.15,35.8,22.322,5.194,12.462,12.711
1706,0.695,36.505,17.186,35.799,22.318,5.194,12.463,12.506
1707,0.688,36.612,17.221,35.789,22.311,5.112,12.341,12.26
1708,0.688,36.287,17.143,35.799,22.315,5.152,12.38,12.054
1709,0.695,36.418,17.17,35.761,22.315,5.153,12.258,11.889
1710,0.682,36.563,17.174,35.799,22.318,5.275,12.42,11.888
1711,0.672,36.651,17.209,35.799,22.311,5.195,12.259,11.725
1712,0.678,36.383,17.249,35.799,22.325,5.234,12.176,11.561
1713,0.678,36.457,17.226,35.78,22.318,5.113,12.053,11.478
1714,0.678,36.621,17.264,35.77,22.315,5.234,11.93,11.396
1715,0.678,36.671,17.226,35.779,22.318,5.194,12.01,11.354
1716,0.682,36.345,17.214,35.78,22.322,5.234,12.011,11.273
1717,0.685,36.476,17.163,35.78,22.322,5.235,12.133,11.312
1718,0.695,36.612,17.248,35.77,22.315,5.194,12.215,11.313
1719,0.695,36.671,17.265,35.789,22.332,5.356,12.338,11.475
1720,0.688,36.249,17.214,35.751,22.315,5.155,12.339,11.314
1721,0.692,36.418,17.174,35.76,22.315,5.193,12.462,11.313
1722,0.698,36.515,17.092,35.731,22.318,5.153,12.544,11.272
1723,0.705,36.612,17.099,35.789,22.318,5.234,12.707,11.353
1724,0.705,36.354,17.142,35.761,22.315,5.194,12.872,11.354
1725,0.692,36.476,17.178,35.76,22.325,5.234,12.914,11.354
1726,0.679,36.583,17.213,35.741,22.322,5.235,12.955,11.313
1727,0.685,36.594,17.19,35.722,22.315,5.153,12.915,11.15
1728,0.688,36.258,17.186,35.769,22.325,5.153,12.996,11.067
1729,0.682,36.36,17.155,35.722,22.315,5.112,12.956,10.904
1730,0.675,36.495,17.189,35.741,22.325,5.315,13.078,11.024
1731,0.678,36.487,17.217,35.741,22.318,5.236,13.079,10.781
1732,0.685,36.468,17.296,35.77,22.329,5.316,13.079,10.86
1733,0.672,36.535,17.261,35.722,22.315,5.154,12.957,10.617
1734,0.675,36.651,17.261,35.741,22.318,5.112,12.915,10.533
1735,0.672,36.45,17.21,35.712,22.315,5.193,12.874,10.492
1736,0.675,36.573,17.186,35.731,22.325,5.234,12.792,10.41
1737,0.695,36.689,17.194,35.741,22.318,5.235,12.669,10.328
1738,0.701,36.786,17.233,35.722,22.318,5.194,12.627,10.246
1739,0.695,36.222,17.257,35.741,22.325,5.316,12.627,10.204
1740,0.701,36.331,17.183,35.693,22.318,5.114,12.302,10.001
1741,0.721,36.457,17.143,35.712,22.318,5.193,12.217,9.999
1742,0.702,36.554,17.143,35.702,22.311,5.031,12.013,9.795
1743,0.705,36.238,17.182,35.721,22.322,5.151,12.052,9.915
1744,0.715,36.379,17.162,35.702,22.322,5.153,11.93,9.794
1745,0.721,36.534,17.193,35.712,22.325,5.234,11.848,9.793
1746,0.705,36.555,17.241,35.693,22.315,5.194,11.847,9.671
1747,0.711,36.21,17.175,35.683,22.318,5.153,11.765,9.548
1748,0.715,36.398,17.174,35.702,22.318,5.193,11.846,9.506
1749,0.711,36.496,17.17,35.693,22.315,5.194,11.765,9.343
1750,0.702,36.564,17.194,35.702,22.325,5.234,11.805,9.423
1751,0.705,36.104,17.225,35.673,22.318,5.194,11.765,9.261
1752,0.715,36.291,17.253,35.721,22.336,5.316,11.887,9.341
1753,0.698,36.36,17.272,35.683,22.312,5.114,11.563,9.138
1754,0.708,36.419,17.238,35.673,22.308,5.071,11.6,9.217
1755,0.698,36.275,17.147,35.644,22.308,5.07,11.56,9.3
1756,0.714,36.485,17.162,35.682,22.325,5.193,11.6,9.87
1757,0.721,36.573,17.19,35.683,22.322,5.194,11.56,10.282
1758,0.728,36.632,17.225,35.683,22.329,5.112,11.478,10.855
1759,0.721,36.23,17.198,35.664,22.318,5.152,11.396,11.43
1760,0.728,36.379,17.135,35.654,22.318,5.071,11.273,12.086
1761,0.747,36.524,17.119,35.682,22.315,5.152,11.231,13.231
1762,0.76,36.411,17.185,35.683,22.318,5.153,11.109,14.463
1763,0.761,36.304,17.202,35.664,22.322,5.153,11.23,15.939
1764,0.764,36.447,17.167,35.644,22.325,5.234,11.068,17.051
1765,0.783,36.554,17.24,35.682,22.332,5.316,11.27,18.282
1766,0.774,36.114,17.229,35.654,22.318,5.154,11.069,18.863
1767,0.8,36.234,17.136,35.654,22.318,5.071,10.985,19.52
1768,0.784,36.322,17.185,35.644,22.311,5.03,11.025,19.892
1769,0.829,36.447,17.182,35.644,22.322,5.192,11.107,20.099
1770,0.846,36.122,17.241,35.644,22.325,5.112,11.067,20.142
1771,0.859,36.244,17.241,35.654,22.315,5.112,11.066,20.142
1772,0.862,36.37,17.241,35.654,22.325,5.152,11.066,20.02
1773,0.879,36.457,17.241,35.625,22.315,5.031,10.944,19.775
1774,0.931,36.103,17.194,35.634,22.318,5.111,10.984,19.448
1775,0.97,36.243,17.1,35.625,22.315,4.989,10.74,19.078
1776,1.033,36.398,17.181,35.644,22.322,5.151,10.941,18.912
1777,1.089,36.477,17.205,35.644,22.325,5.112,10.74,18.463
1778,1.157,36.324,17.249,35.682,22.325,5.234,10.819,18.133
1779,1.181,36.399,17.183,35.625,22.315,5.032,10.698,17.805
1780,1.22,36.534,17.096,35.625,22.318,5.07,10.656,17.517
1781,1.211,36.593,17.162,35.625,22.315,5.111,10.656,17.311
1782,1.227,36.124,17.186,35.644,22.325,5.112,10.696,17.146
1783,1.221,36.292,17.186,35.644,22.322,5.193,10.697,17.185
1784,1.201,36.38,17.182,35.615,22.318,5.112,10.656,16.982
1785,1.168,36.438,17.248,35.634,22.332,5.234,10.737,16.98
1786,1.122,36.151,17.21,35.615,22.318,5.113,10.575,16.777
1787,1.142,36.292,17.171,35.625,22.315,5.071,10.574,16.653
1788,1.174,36.408,17.174,35.577,22.311,4.989,10.574,16.57
1789,1.194,36.467,17.197,35.605,22.325,5.151,10.655,16.488
1790,1.217,36.122,17.264,35.605,22.325,5.153,10.615,16.243
1791,1.273,36.292,17.269,35.605,22.322,5.153,10.615,16.16
1792,1.299,36.389,17.241,35.605,22.318,5.234,10.737,16.037
1793,1.319,36.218,17.198,35.605,22.311,5.113,10.616,15.792
1794,1.326,36.13,17.155,35.605,22.325,5.112,10.615,15.708
1795,1.329,36.282,17.147,35.625,22.311,5.071,10.574,15.504
1796,1.323,36.38,17.131,35.615,22.332,5.152,10.696,15.542
1797,1.319,36.122,17.205,35.577,22.315,5.153,10.616,15.421
1798,1.293,36.253,17.241,35.615,22.329,5.275,10.655,15.46
1799,1.202,36.341,17.144,35.577,22.308,5.073,10.493,15.339
1800,1.142,36.457,17.17,35.624,22.311,5.152,10.41,15.338
1801,1.067,36.074,17.166,35.577,22.318,5.112,10.409,15.338
1802,1.001,36.205,17.17,35.605,22.322,5.112,10.409,15.338
1803,0.893,36.35,17.186,35.596,22.322,5.152,10.409,15.419
1804,0.788,36.428,17.182,35.576,22.318,5.153,10.328,15.216
1805,0.686,36.141,17.256,35.605,22.339,5.193,10.368,15.336
1806,0.614,36.244,17.23,35.538,22.312,4.99,10.246,15.053
1807,0.567,36.379,17.21,35.653,22.315,5.11,10.164,15.091
1808,0.541,36.438,17.174,35.558,22.308,5.03,10.122,15.01
1809,0.524,36.122,17.209,35.567,22.322,5.111,10.244,15.009
1810,0.511,36.234,17.252,35.576,22.329,5.152,10.164,14.928
1811,0.511,36.369,17.276,35.567,22.315,5.031,10.204,14.805
1812,0.527,36.428,17.241,35.586,22.329,5.192,10.285,14.722
1813,0.534,36.036,17.218,35.548,22.311,5.072,10.083,14.396
1814,0.576,36.176,17.194,35.566,22.318,5.111,10.04,14.352
1815,0.596,36.311,17.139,35.586,22.311,4.908,9.918,14.027
1816,0.639,36.389,17.182,35.576,22.322,5.15,10.079,14.064
1817,0.642,36.045,17.244,35.567,22.322,5.153,9.959,13.983
1818,0.688,36.205,17.257,35.576,22.325,5.112,9.998,13.86
1819,0.724,36.283,17.179,35.538,22.318,5.152,9.958,13.818
1820,0.754,36.322,17.155,35.576,22.318,5.071,9.876,13.859
1821,0.774,36.821,17.174,35.557,22.322,5.111,9.916,13.981
1822,0.79,36.97,17.197,35.557,22.311,5.03,9.916,14.023
1823,0.771,37.067,17.194,35.557,22.322,5.151,9.835,14.308
1824,0.764,36.1,17.186,35.538,22.325,5.153,9.834,14.433
1825,0.787,35.793,17.241,35.586,22.332,5.234,9.916,14.637
1826,0.774,35.886,17.222,35.528,22.308,5.032,9.591,14.477
1827,0.777,36.021,17.202,35.585,22.318,5.151,9.629,14.638
1828,0.754,36.032,17.178,35.509,22.304,5.071,9.629,14.68
1829,0.774,36.195,17.217,35.547,22.318,5.152,9.67,14.68
1830,0.761,36.331,17.245,35.547,22.322,5.112,9.67,14.68
1831,0.741,36.409,17.272,35.547,22.311,5.112,9.589,14.558
1832,0.741,35.988,17.265,35.547,22.318,5.152,9.669,14.598
1833,0.741,36.108,17.23,35.519,22.318,5.071,9.467,14.517
1834,0.751,36.234,17.194,35.537,22.315,5.152,9.465,14.516
1835,0.757,36.322,17.155,35.566,22.308,4.99,9.424,14.435
1836,0.754,35.929,17.174,35.538,22.322,5.151,9.668,14.597
1837,0.751,36.05,17.209,35.528,22.322,5.153,9.589,14.598
1838,0.764,36.205,17.233,35.547,22.318,5.153,9.629,14.558
1839,0.751,36.245,17.155,35.519,22.315,5.112,9.67,14.395
1840,0.754,35.957,17.162,35.518,22.315,5.03,9.67,14.271
1841,0.754,36.108,17.182,35.528,22.318,5.151,9.711,14.188
1842,0.777,36.263,17.17,35.537,22.322,5.031,9.711,13.984
1843,0.748,36.303,17.209,35.538,22.322,5.151,9.833,13.901
1844,0.751,35.977,17.229,35.528,22.322,5.153,9.794,13.819
1845,0.754,36.127,17.272,35.557,22.325,5.315,9.956,13.696
1846,0.741,36.205,17.21,35.509,22.311,5.032,9.714,13.329
1847,0.744,36.264,17.19,35.509,22.315,5.07,9.874,13.162
1848,0.734,36.293,17.147,35.489,22.308,4.989,9.753,12.998
1849,0.757,36.456,17.197,35.508,22.325,5.232,9.874,12.834
1850,0.735,36.564,17.237,35.518,22.325,5.113,9.876,12.67
1851,0.744,36.804,17.233,35.518,22.318,5.071,9.794,12.465
1852,0.734,35.733,17.21,35.499,22.315,5.111,9.915,12.341
1853,0.741,35.856,17.194,35.489,22.315,5.071,9.876,12.177
1854,0.751,35.982,17.182,35.508,22.315,5.111,9.916,12.053
1855,0.754,35.993,17.186,35.499,22.318,5.03,9.835,11.889
1856,0.757,36.089,17.221,35.508,22.325,5.192,10.038,11.806
1857,0.757,36.195,17.253,35.489,22.318,5.072,10.04,11.724
1858,0.764,36.34,17.245,35.528,22.332,5.274,10.284,11.683
1859,0.751,35.862,17.132,35.49,22.311,5.073,10.205,11.398
1860,0.764,35.982,17.17,35.508,22.318,5.03,10.326,11.273
1861,0.754,36.089,17.131,35.47,22.311,4.989,10.327,11.15
1862,0.774,36.205,17.162,35.518,22.322,5.07,10.53,11.149
1863,0.764,35.851,17.178,35.499,22.325,5.152,10.695,10.986
1864,0.767,35.982,17.201,35.499,22.322,5.112,10.737,10.903
1865,0.77,36.089,17.245,35.508,22.322,5.152,11.104,10.739
1866,0.761,36.167,17.159,35.48,22.315,5.071,11.108,10.575
1867,0.751,35.957,17.178,35.489,22.318,5.07,11.311,10.533
1868,0.748,36.098,17.155,35.48,22.311,4.989,11.272,10.329
1869,0.757,36.215,17.232,35.508,22.325,5.151,11.556,10.286
1870,0.757,36.283,17.257,35.489,22.325,5.153,11.64,10.164
1871,0.77,35.9,17.237,35.508,22.329,5.153,11.845,10.122
1872,0.748,35.992,17.206,35.48,22.318,5.031,11.725,9.919
1873,0.754,36.147,17.194,35.48,22.325,5.03,11.764,9.794
1874,0.761,36.177,17.124,35.47,22.325,5.111,11.805,9.671
1875,0.757,35.937,17.174,35.489,22.322,5.152,11.887,9.589
1876,0.761,36.108,17.19,35.489,22.322,5.112,11.888,9.588
1877,0.761,36.205,17.237,35.46,22.322,5.071,11.806,9.507
1878,0.767,36.264,17.222,35.489,22.325,5.152,11.887,9.465
1879,0.764,35.957,17.163,35.46,22.311,5.071,11.725,9.14
1880,0.777,36.108,17.197,35.489,22.311,5.111,11.601,9.177
1881,0.767,36.215,17.167,35.451,22.311,4.989,11.478,9.015
1882,0.77,36.523,17.201,35.489,22.329,5.151,11.68,8.972
1883,0.77,35.998,17.206,35.47,22.318,5.112,11.601,8.891
1884,0.78,36.147,17.217,35.508,22.329,5.152,11.56,8.89
1885,0.754,36.206,17.229,35.451,22.322,5.071,11.397,8.727
1886,0.757,36.024,17.19,35.46,22.315,5.111,11.395,8.644
1887,0.748,36.041,17.186,35.46,22.315,5.152,11.395,8.603
1888,0.76,36.214,17.182,35.46,22.318,5.153,11.354,8.602
1889,0.764,36.312,17.225,35.46,22.325,5.193,11.273,8.521
1890,0.761,35.728,17.257,35.451,22.318,5.153,11.19,8.479
1891,0.774,35.847,17.269,35.498,22.329,5.234,11.189,8.601
1892,0.771,35.934,17.222,35.432,22.315,5.072,10.946,8.358
1893,0.774,36.05,17.19,35.45,22.311,5.07,10.902,8.397
1894,0.777,35.831,17.159,35.393,22.308,4.948,10.699,8.316
1895,0.777,36.001,17.17,35.459,22.318,5.15,10.819,8.234
1896,0.774,36.127,17.155,35.451,22.322,5.153,10.657,8.273
1897,0.79,36.234,17.232,35.431,22.325,5.071,10.574,8.152
1898,0.78,35.852,17.218,35.441,22.322,5.111,10.411,8.15
1899,0.78,36.011,17.159,35.431,22.315,4.989,10.287,8.069
1900,0.784,36.166,17.178,35.45,22.318,5.07,10.245,8.028
1901,0.8,36.225,17.182,35.431,22.318,5.03,10.123,7.946
1902,0.8,35.823,17.213,35.441,22.329,5.151,10.284,8.067
1903,0.784,35.953,17.206,35.441,22.322,5.112,10.205,7.987
1904,0.79,36.117,17.256,35.46,22.332,5.234,10.326,8.149
1905,0.771,36.109,17.218,35.412,22.315,4.991,10.124,8.028
1906,0.767,35.831,17.217,35.402,22.315,5.11,10.244,8.19
1907,0.761,35.963,17.21,35.412,22.311,5.03,10.245,8.476
1908,0.79,36.117,17.186,35.441,22.325,5.192,10.367,8.764
1909,0.777,36.148,17.213,35.422,22.325,5.153,10.409,9.011
1910,0.774,35.937,17.249,35.431,22.315,5.153,10.369,9.745
1911,0.777,36.05,17.257,35.422,22.329,5.193,10.49,10.647
1912,0.774,36.166,17.226,35.412,22.311,5.031,10.41,11.672
1913,0.774,36.33,17.194,35.421,22.322,5.07,10.531,12.983
1914,0.777,35.968,17.174,35.383,22.311,5.03,10.492,13.972
1915,0.774,36.117,17.147,35.498,22.325,5.111,10.695,15.161
1916,0.784,36.224,17.162,35.393,22.318,5.112,10.656,16.027
1917,0.8,35.909,17.232,35.44,22.322,5.193,10.696,16.727
1918,0.787,35.887,17.245,35.374,22.315,5.153,10.575,17.303
1919,0.78,36.03,17.179,35.392,22.315,5.031,10.614,17.715
1920,0.787,36.128,17.123,35.412,22.318,5.111,10.696,18.045
1921,0.797,35.764,17.17,35.393,22.322,5.112,10.697,18.089
1922,0.8,35.885,17.182,35.392,22.322,5.152,10.778,18.211
1923,0.81,36.011,17.198,35.392,22.325,5.153,10.738,18.09
1924,0.79,36.108,17.233,35.412,22.325,5.234,10.9,18.048
1925,0.787,35.793,17.261,35.383,22.311,5.032,10.699,17.682
1926,0.793,35.953,17.241,35.354,22.315,5.151,10.656,17.516
1927,0.78,36.069,17.089,35.373,22.304,4.99,10.574,17.229
1928,0.787,36.186,17.189,35.383,22.322,5.192,10.696,17.145
1929,0.78,35.755,17.213,35.373,22.318,5.112,10.656,16.778
1930,0.797,35.933,17.249,35.392,22.325,5.193,10.574,16.612
1931,0.771,36.021,17.237,35.354,22.311,5.072,10.411,16.326
1932,0.787,36.099,17.233,35.344,22.318,5.152,10.45,16.16
1933,0.79,35.841,17.194,35.373,22.318,5.071,10.572,15.996
1934,0.797,36.001,17.198,35.373,22.318,5.03,10.411,15.832
1935,0.787,36.127,17.127,35.392,22.322,5.233,10.491,15.749
1936,0.793,36.167,17.178,35.373,22.315,5.113,10.329,15.545
1937,0.8,35.909,17.233,35.402,22.339,5.315,10.571,15.421
1938,0.787,36.002,17.249,35.354,22.315,5.073,10.33,15.094
1939,0.803,36.137,17.171,35.363,22.315,5.07,10.246,14.847
1940,0.79,36.129,17.076,35.335,22.308,4.989,10.245,14.641
1941,0.813,35.86,17.154,35.373,22.322,5.192,10.286,14.558
1942,0.813,35.982,17.147,35.373,22.325,5.112,10.245,14.313
1943,0.813,36.127,17.205,35.363,22.318,5.071,10.204,14.108
1944,0.797,36.11,17.194,35.354,22.322,5.152,10.163,13.983
1945,0.803,35.841,17.229,35.335,22.311,5.112,10.041,13.779
1946,0.8,35.982,17.253,35.344,22.315,5.112,10.08,13.777
1947,0.79,36.089,17.144,35.354,22.322,5.071,9.959,13.655
1948,0.803,35.773,17.197,35.373,22.322,5.152,10.039,13.857
1949,0.81,35.809,17.221,35.344,22.322,5.153,10.04,13.696
1950,0.803,36.001,17.264,35.401,22.332,5.275,10.121,13.695
1951,0.797,36.022,17.253,35.335,22.315,5.073,9.919,13.492
1952,0.8,35.792,17.237,35.353,22.322,5.111,9.957,13.449
1953,0.787,35.876,17.198,35.325,22.311,5.112,9.957,13.326
1954,0.8,36.049,17.167,35.353,22.322,5.193,9.998,13.244
1955,0.803,36.138,17.065,35.354,22.325,5.112,9.999,13.121
1956,0.81,35.716,17.165,35.335,22.322,5.152,9.958,12.998
1957,0.807,35.856,17.225,35.334,22.322,5.153,9.998,12.834
1958,0.816,35.982,17.233,35.334,22.311,5.112,9.836,12.507
1959,0.833,36.07,17.19,35.334,22.318,5.071,9.916,12.423
1960,0.83,35.783,17.084,35.334,22.311,5.03,9.876,12.259
1961,0.83,35.933,17.185,35.353,22.325,5.233,9.997,12.176
1962,0.836,36.04,17.194,35.325,22.322,5.153,9.958,12.013
1963,0.849,36.137,17.186,35.373,22.329,5.275,10.08,11.93
1964,0.833,35.803,17.209,35.296,22.311,5.032,9.918,11.563
1965,0.836,35.953,17.229,35.315,22.315,5.151,9.957,11.437
1966,0.817,36.05,17.229,35.315,22.318,5.031,9.998,11.314
1967,0.82,36.166,17.194,35.372,22.322,5.151,10.121,11.15
1968,0.817,35.793,17.182,35.344,22.322,5.153,10.081,11.026
1969,0.816,35.914,17.186,35.315,22.315,5.153,10.162,10.822
1970,0.81,36.04,17.264,35.315,22.318,5.153,10.244,10.739
1971,0.813,36.061,17.265,35.305,22.318,5.071,10.164,10.453
1972,0.8,35.773,17.257,35.305,22.318,5.152,10.285,10.41
1973,0.816,35.895,17.23,35.296,22.311,5.071,10.164,10.206
1974,0.816,36.03,17.19,35.334,22.322,5.233,10.366,10.245
1975,0.803,36.022,17.166,35.344,22.318,5.072,10.368,10.123
1976,0.826,35.897,17.17,35.344,22.332,5.314,10.49,10.122
1977,0.813,35.963,17.209,35.277,22.311,5.032,10.329,9.837
1978,0.82,36.098,17.245,35.295,22.318,5.111,10.449,9.712
1979,0.82,35.764,17.171,35.286,22.315,5.112,10.491,9.67
1980,0.836,35.876,17.1,35.334,22.322,5.193,10.491,9.629
1981,0.839,35.973,17.189,35.315,22.318,5.194,10.532,9.548
1982,0.833,36.089,17.178,35.315,22.322,5.112,10.41,9.384
1983,0.839,35.735,17.201,35.305,22.318,5.152,10.45,9.342
1984,0.833,35.837,17.206,35.296,22.311,5.112,10.369,9.179
1985,0.843,36.001,17.245,35.296,22.318,5.152,10.368,9.096
1986,0.83,36.06,17.233,35.286,22.315,5.071,10.287,8.973
1987,0.833,35.84,17.097,35.334,22.315,5.274,10.367,9.053
1988,0.823,35.953,17.189,35.286,22.325,5.154,10.368,9.013
1989,0.823,36.127,17.233,35.343,22.329,5.275,10.49,8.972
1990,0.817,36.138,17.257,35.267,22.311,5.073,10.329,8.687
1991,0.826,35.668,17.272,35.276,22.318,5.07,10.286,8.725
1992,0.81,35.779,17.253,35.257,22.315,5.111,10.286,8.685
1993,0.836,35.943,17.253,35.286,22.322,5.234,10.327,8.766
1994,0.836,36.012,17.241,35.286,22.322,5.194,10.286,8.604
1995,0.83,35.763,17.132,35.276,22.322,5.153,10.205,8.602
1996,0.836,35.924,17.193,35.295,22.325,5.234,10.326,8.602
1997,0.836,36.031,17.217,35.257,22.315,5.072,10.002,8.358
1998,0.833,36.08,17.253,35.257,22.315,5.193,10.08,8.437
1999,0.836,35.869,17.179,35.266,22.311,5.031,9.999,8.316
2000,0.849,36.03,17.139,35.295,22.325,5.192,9.999,8.396
2001,0.836,36.137,17.178,35.296,22.325,5.194,9.958,8.356
2002,0.852,36.196,17.186,35.305,22.329,5.316,10.039,8.315
2003,0.84,35.851,17.182,35.267,22.315,5.073,9.877,8.152
2004,0.839,35.982,17.174,35.257,22.315,5.07,9.794,8.191
2005,0.843,36.089,17.209,35.257,22.318,5.111,9.875,8.232
2006,0.839,35.994,17.229,35.286,22.318,5.152,9.835,8.192
2007,0.83,35.897,17.132,35.286,22.318,5.275,9.834,8.314
2008,0.836,36.011,17.193,35.248,22.315,5.154,9.753,8.356
2009,0.839,36.137,17.217,35.276,22.318,5.234,9.874,8.437
2010,0.836,35.87,17.249,35.219,22.315,5.153,9.672,8.397
2011,0.836,35.982,17.272,35.247,22.311,5.112,9.67,8.438
2012,0.807,36.089,17.226,35.218,22.308,5.071,9.67,8.519
2013,0.829,36.224,17.257,35.256,22.325,5.193,9.711,8.642
2014,0.83,35.804,17.214,35.257,22.329,5.153,9.67,8.684
2015,0.839,35.953,17.174,35.276,22.315,5.112,9.629,8.684
2016,0.833,36.069,17.174,35.247,22.325,5.152,9.629,8.807
2017,0.83,36.157,17.233,35.228,22.315,5.153,9.548,8.645
2018,0.839,36.004,17.233,35.237,22.329,5.153,9.506,8.765
2019,0.846,36.166,17.186,35.228,22.315,5.112,9.465,8.645
2020,0.846,36.273,17.092,35.266,22.322,5.193,9.587,8.765
2021,0.853,36.36,17.169,35.247,22.318,5.112,9.629,8.726
2022,0.856,35.997,17.194,35.286,22.332,5.356,9.71,8.848
2023,0.84,36.099,17.182,35.219,22.315,5.033,9.548,8.646
2024,0.843,36.243,17.209,35.228,22.315,5.151,9.588,8.644
2025,0.83,36.274,17.186,35.199,22.304,5.071,9.466,8.603
2026,0.839,36.063,17.233,35.237,22.322,5.233,9.668,8.765
2027,0.826,36.224,17.132,35.247,22.322,5.235,9.67,8.767
2028,0.839,36.341,17.189,35.228,22.318,5.153,9.589,8.685
2029,0.83,36.351,17.213,35.218,22.322,5.153,9.629,8.684
2030,0.83,36.188,17.245,35.218,22.315,5.112,9.67,8.644
2031,0.833,36.331,17.241,35.209,22.318,5.112,9.833,8.644
2032,0.82,36.438,17.233,35.208,22.311,5.112,9.834,8.684
2033,0.82,36.487,17.229,35.237,22.318,5.193,10.078,8.807
2034,0.83,36.18,17.214,35.199,22.322,5.194,10.162,8.848
2035,0.833,36.35,17.081,35.275,22.332,5.316,10.326,9.133
2036,0.833,36.428,17.165,35.19,22.318,5.114,10.246,9.177
2037,0.83,36.419,17.233,35.199,22.315,5.152,10.367,9.584
2038,0.833,36.4,17.241,35.17,22.311,5.153,10.368,10.076
2039,0.843,36.553,17.225,35.218,22.325,5.193,10.409,10.569
2040,0.843,36.68,17.21,35.266,22.322,5.112,10.45,11.224
2041,0.839,36.384,17.202,35.19,22.318,5.234,10.45,12.044
2042,0.839,36.457,17.213,35.18,22.325,5.275,10.45,13.434
2043,0.839,36.573,17.198,35.179,22.318,5.073,10.247,14.871
2044,0.836,36.68,17.209,35.208,22.315,5.111,10.408,16.431
2045,0.833,36.384,17.202,35.17,22.315,5.071,10.247,17.625
2046,0.836,36.534,17.19,35.189,22.322,5.274,10.367,18.776
2047,0.833,36.67,17.182,35.227,22.325,5.276,10.328,19.6
2048,0.839,36.767,17.198,35.218,22.325,5.195,10.368,20.178
2049,0.82,36.538,17.19,35.17,22.311,5.072,10.368,20.549
2050,0.823,36.699,17.252,35.17,22.318,5.111,10.409,20.675
2051,0.826,36.806,17.261,35.179,22.318,5.152,10.572,20.839
2052,0.82,36.903,17.276,35.179,22.318,5.234,10.655,20.718
2053,0.826,36.568,17.222,35.179,22.329,5.194,10.859,20.636
2054,0.83,36.718,17.21,35.179,22.318,5.112,10.942,20.432
2055,0.833,36.854,17.186,35.237,22.329,5.315,11.146,20.267
2056,0.833,36.893,17.178,35.151,22.315,5.114,11.067,19.737
2057,0.836,36.664,17.24,35.15,22.322,5.112,11.229,19.407
2058,0.83,36.767,17.249,35.141,22.315,5.071,11.231,18.956
2059,0.843,36.941,17.19,35.189,22.322,5.233,11.515,18.748
2060,0.846,36.981,17.19,35.17,22.325,5.194,11.559,18.461
2061,0.856,36.837,17.198,35.17,22.322,5.153,11.681,18.174
2062,0.849,36.941,17.182,35.151,22.315,5.193,11.723,17.846
2063,0.846,37.057,17.19,35.141,22.318,5.194,11.846,17.802
2064,0.853,37.059,17.229,35.15,22.325,5.153,12.009,17.639
2065,0.846,36.838,17.257,35.16,22.318,5.193,12.052,17.556
2066,0.846,36.96,17.23,35.16,22.318,5.153,12.255,17.555
2067,0.827,37.077,17.21,35.16,22.325,5.193,12.298,17.311
2068,0.849,37.011,17.206,35.189,22.332,5.275,12.461,17.268
2069,0.833,36.953,17.182,35.132,22.318,5.113,12.219,16.821
2070,0.833,37.077,17.241,35.15,22.318,5.152,12.298,16.613
2071,0.813,37.183,17.257,35.112,22.315,5.193,12.217,16.407
2072,0.829,36.916,17.245,35.15,22.325,5.275,12.257,16.324
2073,0.82,37.0,17.214,35.15,22.325,5.195,12.095,16.12
2074,0.826,37.144,17.194,35.141,22.318,5.194,11.971,15.793
2075,0.82,37.242,17.163,35.208,22.322,5.275,11.929,15.667
2076,0.82,36.849,17.162,35.132,22.318,5.113,11.685,15.259
2077,0.82,36.98,17.248,35.121,22.318,5.193,11.642,15.093
2078,0.83,37.096,17.245,35.112,22.315,5.072,11.357,14.806
2079,0.826,37.184,17.19,35.15,22.325,5.193,11.435,14.681
2080,0.826,36.945,17.194,35.131,22.322,5.275,11.314,14.436
2081,0.836,37.105,17.186,35.15,22.329,5.357,11.232,14.149
2082,0.823,37.174,17.19,35.112,22.315,5.155,11.027,13.821
2083,0.833,37.271,17.209,35.102,22.318,5.153,10.903,13.615
2084,0.82,37.003,17.233,35.112,22.322,5.234,10.902,13.45
2085,0.82,37.163,17.241,35.131,22.318,5.235,10.739,13.204
2086,0.817,37.28,17.229,35.131,22.318,5.194,10.697,13.08
2087,0.813,37.329,17.218,35.121,22.325,5.275,10.575,12.794
2088,0.816,37.061,17.21,35.16,22.329,5.398,10.696,12.751
2089,0.8,37.174,17.217,35.103,22.311,5.155,10.412,12.303
2090,0.794,37.299,17.241,35.112,22.318,5.234,10.369,12.217
2091,0.79,37.301,17.222,35.083,22.311,5.072,10.246,11.972
2092,0.797,37.099,17.225,35.121,22.322,5.274,10.408,11.889
2093,0.803,37.203,17.21,35.112,22.318,5.195,10.369,11.806
2094,0.803,37.338,17.167,35.112,22.318,5.234,10.409,11.562
2095,0.79,37.493,17.162,35.102,22.318,5.275,10.409,11.397
2096,0.797,37.063,17.166,35.092,22.308,5.235,10.206,11.192
2097,0.784,37.183,17.233,35.092,22.318,5.275,10.163,11.108
2098,0.787,37.299,17.186,35.092,22.318,5.195,10.122,10.782
2099,0.78,37.128,17.19,35.131,22.322,5.275,10.163,10.779
2100,0.793,37.146,17.182,35.102,22.325,5.316,10.163,10.657
2101,0.81,37.299,17.201,35.121,22.336,5.358,10.244,10.615
